-0.13752,-0.00039523,-0.033547,-0.054051,-0.038053,-0.04352,-0.17113,-0.18425
0.10888,-0.060831,-0.066408,-0.040211,-0.0082298,0.081723,0.32858,0.28276
-0.28465,0.10689,0.25487,0.1797,0.077559,0.060749,0.51438,-0.024933
0.30044,-0.091387,-0.28048,-0.16741,-0.046112,-0.075571,-0.17655,-0.075684
-0.057895,0.07807,0.13205,0.1058,0.097266,0.17984,-0.2366,0.31876
0.21659,-0.026173,-0.070558,-0.048228,-0.094182,-0.18959,-0.50139,-0.62964
-0.15293,-0.061186,-0.061008,-0.021264,0.027474,0.041763,0.14733,0.095819
0.040095,0.15984,0.37839,0.17745,-0.046177,-0.18935,0.20359,0.19134
0.017643,-0.14477,-0.28472,-0.13326,0.0593,0.28073,0.40411,0.23542
-0.14602,-0.14696,-0.11382,-0.095265,-0.062774,-0.2121,-0.87384,-0.19411
0.11711,0.29419,0.31233,0.13438,0.02489,0.066852,0.48855,0.050147
-0.13846,-0.19569,-0.26418,-0.085092,0.041068,0.10246,0.18709,0.14633
0.026848,0.12651,0.032102,0.028078,-0.029616,-0.057819,0.20529,-0.12608
-0.1173,0.043084,0.077129,0.0062517,-0.014882,0.06314,-0.076097,-0.21391
0.25467,-0.069867,-0.073133,-0.031905,-0.0080023,-0.096706,-0.33962,0.11625
-0.18782,-0.078507,-0.12832,-0.069208,-0.0085353,0.04111,-0.23678,-0.21398
-0.23728,0.064863,0.35005,0.12222,0.046328,-0.030989,0.10465,0.15524
0.13197,-0.12366,-0.2001,0.011933,-0.0073711,-0.10193,0.16696,0.18575
0.48975,0.051228,0.033363,-0.0015171,-0.0057,0.14866,-0.11374,-0.074504
0.035875,0.08107,-0.091288,-0.020277,0.0041334,0.0019926,0.21497,0.023893
0.069436,0.058337,0.18987,0.087322,0.060736,0.012636,-0.05023,0.20828
-0.3225,-0.010995,-0.039199,-0.10203,-0.07854,-0.0070713,0.036295,-0.53636
-0.14627,-0.027506,0.024412,0.0039973,1.7971e-05,-0.057305,0.053593,0.61083
-0.28925,0.08484,-0.01112,-0.0018921,-0.016234,-0.021023,0.40187,-0.49793
0.28582,-0.19121,-0.31792,-0.096765,-0.025642,0.062607,-0.44729,-0.010257
0.11929,0.065393,0.26111,0.11014,0.089279,-0.0018249,-0.37282,0.15287
-0.12076,-0.0045436,-0.022186,-0.013288,-0.038246,-0.089487,-0.19043,0.070371
0.055927,-0.087374,-0.040314,-0.028487,-0.017181,-0.13821,-0.30187,-0.23392
-0.32081,-0.064035,-0.13438,-0.035859,-0.03474,0.22642,0.79618,0.12253
0.4422,0.13017,0.025967,0.067147,0.065415,0.15201,0.8548,0.4121
0.0050353,0.098862,0.25454,0.015522,0.040957,-0.010833,-0.70593,-0.32793
0.064391,0.077918,0.16867,0.11412,0.0087613,-0.020807,0.078097,-0.037291
-0.013684,-0.14286,-0.13887,-0.090419,-0.086231,-0.41746,-0.3701,-0.054123
0.0020567,0.030248,-0.14642,-0.028248,0.052576,0.35409,0.31711,0.33862
-0.18946,0.018487,0.073636,-0.027967,-0.0045471,-0.11141,-0.39025,-0.45359
-0.076767,-0.10872,-0.22269,-0.0039216,-0.046387,0.015927,0.16746,-0.0085868
0.36038,0.14002,0.057242,-0.026406,-0.025484,-0.019466,0.082505,0.51092
-0.4655,-0.095144,0.10843,-0.0013802,-0.034813,-0.12151,-0.40129,-0.58055
-0.11672,-0.1345,-0.22495,-0.053424,0.035762,0.2039,0.5563,-0.023029
-0.029143,0.022393,0.17509,0.052165,0.046129,-0.042224,-0.52307,0.12266
0.54176,0.12624,0.13748,0.088842,0.0276,0.038443,0.34368,0.2791
-0.018883,0.11522,0.14708,0.13432,0.096885,0.061745,0.11552,0.37547
0.14205,-0.14309,-0.26483,-0.13253,-0.090726,-0.091851,0.23411,-0.10544
-0.19365,0.16376,0.18262,0.045041,-0.013046,0.059127,-0.58768,-0.49389
-0.36238,-0.066316,-0.23769,-0.12306,0.031788,0.12897,0.49347,-0.16691
0.22071,-0.23271,-0.0028343,-0.075065,-0.14471,-0.4862,-0.81399,-0.09454
0.24977,0.061825,-0.027106,0.032534,0.01166,0.29827,0.77507,0.4653
-0.15882,0.19103,-0.0057392,0.043777,0.063473,-0.072374,-0.26738,0.12307
-0.15355,-0.01812,0.2022,0.060953,0.026958,0.043633,0.22616,-0.33796
-0.093109,-0.035299,0.003334,0.022533,0.020262,0.0233,0.15078,0.10815
0.094114,-0.072028,-0.22711,-0.031425,0.005415,0.087828,-0.081164,-0.067393
0.081403,-0.03477,0.19835,-0.029788,-0.063449,-0.16666,-0.74285,0.31699
-0.052157,-0.040581,0.099739,0.035785,-0.013716,-0.05867,-0.15255,-0.40181
0.091854,0.082825,-0.28124,-0.053271,0.053411,0.19397,0.48978,0.15099
-0.097252,0.11729,0.093986,0.031034,0.0050675,-0.15109,0.078071,-0.25256
0.1592,-0.092711,0.061075,0.014883,0.020531,0.22531,0.38821,0.4164
0.35776,0.21145,0.065442,0.022764,0.01322,0.032242,-0.10237,-0.0012971
-0.49734,-0.21142,-0.064183,-0.070846,-0.072253,-0.044846,0.26178,0.30396
0.091052,-0.1726,-0.28761,0.014883,0.0526,-0.01547,-0.49791,-0.39653
-0.042412,0.32156,0.30293,0.060968,-0.050027,-0.30236,-0.016538,-0.30669
-0.17824,-0.19604,-0.072132,-0.049783,-0.012912,0.12598,0.12621,-0.027206
0.0067093,-0.067591,-0.020616,-0.05153,-0.046646,-0.24482,-0.40574,-0.063482
-0.0613,-0.04974,0.13044,0.056099,0.068066,0.1887,0.076642,0.40824
0.17752,0.084474,-0.11857,-0.038952,-0.01194,0.045657,0.17768,0.024395
0.071627,0.11564,0.005351,0.054357,0.057546,0.31963,-0.43549,-0.063623
0.1791,0.26849,0.071299,0.094141,0.081446,0.19862,0.79414,0.27857
-0.037741,-0.26442,-0.071023,-0.16164,-0.11995,-0.435,-0.3672,-0.45695
0.15476,0.013601,0.099626,0.099508,0.070337,0.034883,0.75072,0.39992
-0.62092,-0.095853,-0.13769,-0.067864,-0.11362,-0.26017,-0.92605,-0.56006
0.1706,0.1784,0.23867,0.015711,-0.03148,0.007024,0.65227,0.30791
0.22068,-0.047332,-0.19433,-0.040668,0.027494,0.26578,-0.8317,-0.054462
0.19775,-0.40511,-0.19482,-0.0029421,0.031923,0.12578,0.61851,0.21706
-0.23643,0.13851,0.11271,0.042594,0.036394,-0.32623,0.17373,0.18318
-0.18424,0.14912,0.096582,0.048678,0.017342,0.035775,-0.82806,-0.53921
-0.16847,-0.041913,0.16456,0.085236,0.052711,0.072116,0.24312,0.0042326
0.20329,0.099218,-0.033421,-0.05899,-0.013964,0.37713,0.29291,0.37067
0.10513,0.13628,-0.33988,-0.15762,-0.12819,-0.346,-0.24889,-0.57732
0.0077711,-0.14975,0.15214,-0.0075055,-0.024431,0.011626,0.054406,0.046188
0.099756,0.14568,0.052101,0.032162,0.00044134,-0.25405,-0.2538,0.36064
0.021493,-0.097067,0.031361,0.047636,0.071544,0.23852,0.35823,0.24968
0.005914,0.080449,0.10459,0.070483,0.064033,0.08173,0.24598,0.26724
-0.019569,0.082809,0.028441,0.061861,0.040542,0.18832,0.69862,-0.041801
-0.29959,-0.6137,-0.16683,-0.1266,-0.14729,-0.36467,-0.59089,-0.883
-0.039195,0.17193,-0.11459,-0.010568,0.055268,0.062703,-0.41429,0.16356
0.50306,0.035987,0.04465,0.042642,0.02322,0.0093339,-0.077123,0.24562
-0.14863,0.11436,0.10852,0.025126,0.030053,0.0068047,-0.45167,-0.3234
-0.031043,0.097158,-0.13267,-0.11001,-0.13508,0.11837,0.32857,0.51349
-0.44537,0.094995,0.0099109,-0.04238,-0.018941,-0.13153,-0.15474,-0.38121
-0.0047663,0.044674,0.052945,0.056249,0.01917,-0.20284,0.47999,-0.074725
0.28659,-0.12683,0.10623,0.076595,0.11984,0.30366,0.43623,0.44295
0.22008,-0.16599,0.091275,0.12024,0.056308,-0.15843,-0.12956,0.14908
-0.35249,0.42223,-0.063333,-0.086319,0.015749,0.60632,-0.10909,-0.41828
0.58237,-0.21835,0.054932,-0.019724,-0.080334,-0.39435,-0.44307,0.19934
-0.042051,0.073211,-0.28206,-0.062813,-0.029088,-0.11359,-0.26993,-0.048363
-0.21562,-0.24313,0.088582,-0.090485,-0.12744,-0.27771,0.31641,-0.00090025
-0.24858,-0.47834,-0.13052,-0.071269,-0.078276,-0.18297,0.055781,-0.34097
-0.10619,0.46499,0.11559,0.20605,0.23603,0.609,0.62376,0.085765
0.27978,-0.072137,0.070023,0.061982,0.034793,0.0052508,-0.43807,0.19284
-0.16814,0.28279,0.015349,0.012225,0.021642,-0.071842,-0.041633,0.2623
0.069057,0.2062,0.062394,0.025423,-0.037425,-0.11454,-0.30928,-0.11032
-0.12816,-0.1114,0.064063,-0.14079,-0.064078,0.11869,0.32554,-0.24297
0.1374,-0.30943,-0.23635,-0.064689,-0.050425,-0.037252,-0.092042,-0.28174
0.20819,0.24447,0.10729,0.050643,0.066054,0.14306,0.071387,0.15796
-0.15265,-0.068433,-0.13889,0.010133,-0.0037024,-0.29442,-0.18135,0.21741
-0.027818,-0.25798,0.040987,-0.0061274,-0.048771,-0.0064623,0.5996,0.22408
0.036543,0.033288,0.09212,0.01792,0.0089011,-0.11814,-1.1037,-0.15996
0.015075,0.3586,0.060938,0.027878,0.059737,0.15196,0.1828,0.25782
-0.12769,-0.3767,0.0013235,-0.0075048,-0.013835,0.12429,0.64315,-0.18166
0.11019,0.084727,-0.21284,-0.018291,-0.0092806,0.025178,0.084412,-0.066213
-0.035724,-0.13244,0.049939,0.010422,0.0023448,-0.0602,0.11605,-0.29442
0.25629,0.50255,0.2805,0.093312,0.05932,0.12477,-0.21711,0.096629
-0.058025,-0.18301,-0.17859,-0.059647,-0.018701,0.047522,-0.2858,-0.30329
-0.42718,-0.041874,0.0077644,0.011741,-0.0055109,-0.058523,0.093362,0.21387
0.093396,0.0027275,-0.020159,-0.091273,-0.096339,-0.25593,-0.12247,0.19979
0.068013,-0.01915,-0.16059,-0.040334,0.0062721,-0.0044799,-0.15476,0.017323
-0.0071952,-0.14725,0.10276,0.001245,-0.016974,-0.067367,0.15921,0.14424
0.068469,-0.069005,-0.065051,0.02677,0.038334,0.05099,0.053893,0.032351
-0.0037711,0.27897,0.13388,0.084352,0.048512,0.23717,0.52271,0.21733
0.086311,-0.1174,0.17698,0.11259,0.092782,0.11175,0.075581,0.02287
0.26503,-0.014063,-0.20858,-0.12998,-0.10161,-0.23698,-0.50363,-0.46137
-0.3866,-0.16701,0.20403,-0.018046,-0.018881,0.12927,-0.7668,-0.3864
0.031014,0.28447,-0.10851,0.073206,0.012475,-0.11857,0.82775,0.24746
-0.26392,0.0050822,-0.32585,-0.15364,-0.063059,-0.1941,-0.56187,-0.66738
0.3047,0.0024003,0.036458,0.011569,0.034612,0.27371,0.65089,0.72376
0.077454,-0.0057874,0.072193,0.052274,0.054172,0.045692,0.44154,0.64275
-0.082445,-0.091236,0.34378,0.15504,0.080264,0.11695,-0.68483,-0.39294
-0.038638,-0.20863,-0.11786,-0.10285,-0.10695,-0.15736,0.23649,0.10859
0.21265,0.039121,-0.00085761,-0.034566,-0.015996,-0.092633,0.052434,0.11347
0.0040733,0.60431,-0.040453,-0.0076792,0.009139,0.005457,-0.7178,-0.60941
-0.22892,-0.62265,-0.17506,-0.076958,-0.078149,-0.24484,0.26648,0.082856
-0.018199,0.21025,0.13365,0.12502,0.050964,0.22192,0.80874,-0.033887
-0.37082,0.10398,0.057149,0.020593,0.092756,0.25376,-0.39493,0.28609
0.34776,-0.38547,-0.16234,-0.10055,-0.108,-0.36328,-0.50592,0.056062
0.069346,0.12597,-0.016576,0.012226,0.051123,0.12529,0.23761,0.041721
0.05355,0.084545,0.10449,0.015709,0.0081909,-0.011553,-0.36293,-0.06686
0.12166,0.15464,0.092216,0.074334,0.021203,0.040424,0.43098,-0.38201
0.062742,0.031163,-0.068381,-0.022669,0.035317,0.25771,0.40339,-0.11595
-0.12401,0.13502,0.029365,-0.025306,-0.051414,-0.16608,-0.17135,0.39486
-0.18961,-0.45687,-0.044036,0.011628,-0.036316,-0.014926,-0.18499,-0.20975
0.12315,0.29357,0.10989,-0.013549,-0.013492,-0.057561,0.10971,0.38838
-0.0055934,-0.028025,-0.13386,-0.014956,0.02472,-0.015411,-0.17372,0.20853
-0.11312,-0.14765,-0.07214,-0.078489,-0.038775,-0.12455,-0.077895,-0.38079
0.084883,0.022008,0.029509,0.069407,0.085368,0.19268,0.51954,0.43988
-0.36086,-0.43913,-0.11006,0.030422,-0.047801,-0.27398,-0.53875,-0.66009
0.076936,0.12674,0.29823,-0.015701,-0.062975,-0.12474,-0.36938,-0.32496
0.47933,0.64209,-0.066093,0.055961,0.086845,0.32154,0.52966,0.38634
-0.074284,0.25452,0.19502,-0.004819,0.057787,0.34708,-0.14356,0.023902
0.040249,-0.62423,-0.24708,-0.0030611,-0.002087,-0.12619,0.090281,0.075056
0.046663,0.20551,-0.17424,-0.087568,-0.069891,-0.083484,0.36601,0.53479
-0.074919,-0.064637,-0.032271,-0.016464,-0.029037,-0.088792,-0.3233,-0.3362
-0.21208,0.054615,0.13162,-0.032138,-0.044096,-0.23747,0.20961,-0.29224
0.029302,-0.13324,0.21573,0.11535,0.064319,0.078646,-0.0049971,0.24951
-0.13508,-0.22869,0.17325,0.10575,0.06962,0.14042,-0.14791,-0.055931
0.051212,0.10759,-0.3393,-0.10763,-0.035748,0.049982,-0.29789,-0.12155
0.09626,-0.072398,-0.1574,-0.024514,-0.032531,-0.074005,-0.11884,-0.076722
0.27505,0.29192,0.14933,-0.019528,0.0096291,0.090849,0.30427,0.083933
-0.48056,-0.04402,-0.16832,-0.092264,-0.10385,-0.39068,-0.19122,-0.29716
0.058099,-0.03734,0.28102,0.10142,0.096435,0.32721,0.33342,0.14589
0.31437,0.032093,-0.017753,0.069647,0.064084,0.081825,0.3944,0.66847
-0.0081276,0.1785,-0.025405,-0.046849,-0.036655,-0.024795,-0.39936,-0.35884
0.019855,-0.13336,0.0077934,0.017456,-0.0106,-0.024436,-0.2992,-0.091352
-0.055842,-0.11249,0.018725,-0.0033726,-0.0065997,-0.035679,0.052315,-0.053888
-0.056557,-0.039093,-0.1731,-0.047287,-0.025261,-0.052659,0.12206,0.016015
0.079854,0.26788,0.12684,0.057104,0.049932,0.078777,0.45566,0.19249
-0.20045,-0.24353,-0.042978,-0.049983,-0.016009,-0.018215,0.10776,0.096768
-0.074918,0.0019657,0.0047028,-0.025045,-0.043841,-0.063667,-0.75622,-0.32065
-0.047929,0.058913,0.027808,0.053752,0.028723,0.0043617,-0.016467,-0.07622
0.04857,-0.077955,-0.012286,-0.0087561,-0.0092349,-0.087413,-0.59163,-0.075091
0.3745,0.11177,0.088194,-0.0013428,0.0065612,0.1617,0.38824,0.068185
-0.20055,-0.053225,-0.12318,0.013829,0.021742,-0.098897,0.61945,0.12254
-0.066823,-0.15243,-0.09899,-0.087949,-0.072749,0.14737,0.61594,-0.17482
-0.015383,0.038472,0.14539,0.076293,0.043626,-0.1535,-0.54885,-0.033551
0.082302,-0.27379,-0.12463,0.006528,0.050616,0.17071,-0.10076,0.58434
0.26717,0.59144,0.19181,0.015036,-0.0050075,-0.10653,-0.071243,-0.1685
-0.045455,0.28082,0.13269,0.031143,0.0015231,0.045871,-0.13139,0.10857
-0.056823,-0.037857,-0.092301,-0.031489,-0.047239,0.018481,0.3709,-0.036295
-0.22416,-0.088604,-0.11707,-0.016931,0.028221,-0.047845,-0.3377,-0.17163
0.0058362,-0.53282,-0.020311,-0.02687,0.0091642,0.0038006,-0.21343,-0.28591
-0.41994,-0.33522,-0.26283,-0.10806,-0.096352,-0.16927,-0.42731,-0.31789
0.018313,0.018201,0.20317,0.091411,0.0089977,0.067018,0.2894,0.18751
0.46698,0.53591,0.18385,0.11893,0.067968,-0.036269,0.46314,0.34434
0.11176,0.056274,-0.17059,-0.087456,-0.012646,0.068218,-0.022757,0.28401
0.13732,0.027976,0.21963,0.058658,0.040979,0.10654,0.16371,-0.18966
-0.086084,0.22786,-0.089597,-0.059587,0.0024139,0.038024,-0.0023101,-0.09378
-0.057636,-0.28666,-0.066391,-0.012355,-0.011302,0.16475,0.26973,-0.18919
-0.17694,-0.15447,-0.0076941,0.04408,-0.0083651,-0.18048,-0.16269,0.30039
-0.0011763,-0.093739,-0.093887,-0.06234,-0.028365,-0.11006,-0.36498,0.078836
0.044852,0.3014,0.025382,-0.011622,-0.017169,-0.0012409,-0.057305,-0.2846
-0.010222,-0.11088,0.043861,0.031729,0.0091133,-0.097092,-0.096832,0.043538
-0.019687,-0.1995,0.16297,0.03592,0.0032519,0.071817,0.085947,0.012961
-0.13259,0.49442,0.060775,0.031594,0.035352,0.0076546,-0.21587,-0.12234
0.096805,-0.45315,-0.1233,-0.028725,-0.043093,-0.10666,-0.049192,0.071274
0.075889,0.15111,-0.17108,-0.051786,0.017959,0.15444,0.29873,-0.081608
0.2045,0.094632,0.042676,0.048055,0.054583,0.23976,0.1496,0.51758
-0.18023,0.095082,-0.074723,-0.0026302,-0.0033104,-0.16824,0.22897,-0.06305
-0.085462,-0.16048,0.072127,-0.039432,-0.038217,0.002457,0.094481,-0.47314
-0.019105,-0.43747,0.039821,-0.030431,-0.049728,-0.17735,-0.6848,-0.0018193
0.07261,0.40548,0.14261,0.048712,0.017327,0.088575,0.63611,0.20353
0.0083618,-0.11497,-0.087033,-0.027574,-0.016237,-0.091973,-0.37218,-0.31605
-0.0030396,0.36168,-0.023581,0.0385,0.037517,0.059957,0.11013,0.34818
0.0048609,0.039574,0.28586,0.11481,0.046051,0.15102,-0.14325,-0.027841
0.10814,-0.22106,-0.4486,-0.15769,-0.029662,-0.0012897,0.15145,0.026686
0.031963,-0.052253,0.037451,-0.013442,-0.0023668,-0.047997,-0.37527,0.036472
-0.1537,-0.25791,-0.038599,0.015855,-0.01319,-0.09265,-0.12101,-0.0059004
0.0051662,0.2019,0.21256,0.038771,0.015303,0.11365,0.54263,0.063248
-0.32531,-0.16417,0.016359,0.007399,-0.050477,-0.23381,-0.21527,-0.41324
0.16251,0.32419,-0.02649,0.014362,0.046548,0.13161,0.22786,0.063487
0.19852,-0.020237,0.1773,0.066433,0.03236,0.016518,-0.25608,0.18763
0.043528,-0.072686,-0.27851,-0.055916,-0.01524,0.0015216,0.31275,0.17704
0.12162,0.26778,-0.11214,-0.12648,-0.057196,0.050167,-0.095433,-0.070393
-0.12089,-0.25745,0.083673,0.034545,0.024004,0.078855,0.21453,0.10149
-0.067039,-0.078684,0.028973,0.0058881,-0.021023,-0.23102,-0.57905,-0.36938
-0.13214,0.014838,0.068868,0.022848,0.0038501,0.066687,0.10773,-0.14615
0.072478,0.015712,0.087298,0.055245,0.021379,-0.0047062,-0.02411,0.24128
0.06023,-0.45018,-0.047861,0.018148,0.008939,0.06938,0.023575,0.20854
0.07903,0.5401,-0.016145,0.013891,0.060904,0.14656,0.24942,0.13224
-0.068081,0.14359,-0.013199,-0.074261,-0.033297,0.060628,0.23075,-0.27526
-0.093048,-0.12385,-0.12564,-0.019638,-0.054832,-0.339,-0.392,-0.11434
0.0038366,-0.028411,0.17697,0.013512,-0.019508,-0.030635,0.069079,0.11589
0.14482,0.19427,-0.082735,0.0091568,0.0097673,0.070554,-0.12712,0.048784
-0.059885,-0.33252,-0.092856,-0.0098077,0.0089768,0.0032739,0.091379,-0.088878
-0.13262,-0.21996,0.12278,0.10447,0.09461,0.11158,0.11726,0.14796
0.029208,0.31163,0.10307,-0.062638,-0.04658,-0.0022197,-0.17231,-0.29623
-0.0033626,-0.090427,-0.21447,-0.066272,-0.016874,0.01441,-0.10356,0.014512
0.23871,0.16702,-0.0094667,-0.031753,-0.051247,-0.087561,0.1216,0.29663
-0.041604,-0.10359,0.15567,0.071997,0.037395,0.075533,0.15177,-0.093513
0.10842,0.27008,-0.00031108,0.065257,0.030146,0.043461,0.025023,0.1141
-0.21005,-0.23446,-0.12594,-0.09878,-0.065072,-0.15195,0.082967,0.033225
-0.0986,0.056028,0.20049,0.072214,0.05678,0.091352,-0.16953,0.082918
-0.088016,-0.20057,-0.13051,-0.0074945,-0.0021959,-0.062131,-0.24359,-0.45724
0.12737,-0.0807,0.013849,-0.03296,-0.022595,-0.10423,0.013938,-0.10296
-0.10747,-0.067427,-0.045922,0.01176,0.035326,0.26217,0.53027,0.2098
0.20846,0.02727,-0.12189,-0.037032,-0.054375,-0.127,-0.3679,0.046482
0.020856,0.56999,0.22407,0.0085369,0.0056516,-0.022002,-0.18866,0.067141
-0.030307,0.074625,-0.015152,0.047214,0.051598,0.092213,0.38923,0.16637
0.053239,-0.016054,-0.088932,-0.092708,-0.057176,-0.066442,-0.030699,0.027348
-0.067099,-0.35315,-0.020292,0.049655,0.0071541,-0.014578,-0.26613,-0.2224
-0.081952,-0.3449,0.12836,0.059923,0.025276,0.012434,0.02178,-0.20662
0.099418,0.031522,-0.11197,0.015655,0.051133,0.068447,0.070047,0.082336
0.05288,0.2381,0.10971,-0.013562,-0.017645,-0.034567,0.021162,0.13513
-0.08971,0.074231,-0.12142,-0.083163,-0.056769,-0.14828,-0.21013,-0.12125
-0.054239,-0.23011,0.045393,0.0015746,-0.012021,0.079213,0.34422,0.30971
0.091318,0.32856,0.00012432,0.052869,0.038376,0.17213,0.20567,0.096172
-0.23527,-0.059503,0.078368,0.0083569,0.0010014,-0.12623,0.097941,-0.069734
0.032989,0.15398,0.13178,0.048304,0.01721,-0.041159,-0.41954,-0.088361
0.15834,-0.046812,-0.34692,-0.16227,-0.07603,0.022377,-0.41967,-0.52226
0.011529,-0.47614,-0.067752,0.026264,0.011499,-0.067376,0.033546,0.11497
0.063279,-0.074482,0.087517,0.0057235,-0.016006,0.01837,0.3071,0.22562
-0.053629,0.5061,0.088512,0.06614,0.060979,0.10786,0.30054,-0.029142
0.088465,0.14483,0.28719,0.10647,0.078713,0.060023,-0.046475,0.2229
-0.021864,0.065432,-0.33235,-0.13896,-0.072388,-0.040187,0.12824,0.032665
-0.060963,-0.19433,0.13516,0.016705,0.021044,0.0090577,-0.047157,-0.1054
0.037055,-0.19623,0.1492,0.056732,-0.017034,-0.11393,-0.59299,-0.12885
-0.082886,-0.28103,-0.33871,-0.028047,-0.039375,-0.058797,-0.22532,-0.13381
-0.086781,0.040516,0.18582,-0.020221,-0.023665,-0.0060731,0.33886,0.20342
0.087833,0.032092,-0.043451,-0.0067925,0.029225,0.012575,0.060804,0.064625
-0.041647,0.30867,-0.096512,0.0038336,0.056288,0.29402,0.68132,0.13903
-0.081478,0.1242,-0.011254,-0.050872,-0.044135,-0.15358,-0.029164,-0.047483
0.026765,-0.16858,0.0735,0.040537,0.0016805,-0.095272,-0.44187,-0.045341
0.13037,0.16259,0.0035217,-0.010092,-0.00099063,0.11035,0.34545,-0.074198
0.091335,-0.17658,-0.016309,0.017089,-0.012317,-0.153,-0.74818,-0.38191
0.05151,0.18923,0.085394,0.013759,-0.00023828,0.076558,0.29993,0.20056
-0.075306,-0.021733,-0.042802,-0.0036606,0.012523,-0.012551,-0.47735,-0.06977
0.10779,-0.01233,0.12169,0.027732,0.018661,0.080442,0.39238,0.056953
-0.31561,-0.20185,-0.10245,-0.024918,-0.0050321,-0.026772,0.29652,0.34536
-0.012148,-0.099953,0.1265,0.041078,0.01951,-0.068432,-0.32325,-0.098434
-0.06228,-0.0015878,-0.1856,-0.064053,-0.0095805,0.025475,0.23863,-0.24191
0.16503,-0.11239,-0.11054,0.0026118,-0.030267,-0.019233,-0.072749,0.24857
0.16871,0.17677,0.085324,-0.0097083,-0.011821,0.0072358,0.25512,0.15662
-0.028146,0.13979,-0.12134,-5.9953e-05,0.014025,0.087828,-0.087953,-0.11909
-0.15178,-0.083258,0.26241,0.0077599,-0.007785,-0.0055385,0.19601,0.046053
0.079971,0.13749,0.019001,0.068355,0.039717,-0.039854,-0.64932,-0.35517
0.07482,-0.22762,-0.061226,-0.029036,-0.015406,0.062061,0.58262,0.34428
-0.14975,0.37428,-0.0083719,-0.049654,-0.0012024,-0.075093,-0.23437,-0.45877
-0.021345,0.024542,-0.087182,-0.024222,-0.034678,-0.083655,-0.504,-0.0047119
0.055778,0.084224,0.11698,0.032219,0.0094109,-0.0014714,0.22492,0.21103
-0.40902,-0.32781,-0.1378,0.026478,0.029764,-0.029906,-0.28173,-0.11001
0.38965,-0.36464,0.14075,0.076202,0.026618,0.23927,0.71892,0.28858
0.32641,0.20594,-0.094366,-0.10736,-0.046714,-0.13747,-0.070829,0.060454
-0.13149,-0.10752,0.00038549,0.015007,0.013017,-0.0026249,-0.076858,-0.1195
0.0057428,-0.10651,0.026242,0.013615,-0.0050658,0.019235,-0.17444,0.046041
-0.25679,0.41677,-0.0093974,-0.049167,-0.038456,-0.095793,-0.071105,-0.077639
0.070664,0.225,0.017979,0.021743,0.037811,0.19008,0.86618,0.31069
-0.052455,-0.20142,0.029704,0.054162,0.028355,0.023485,-0.20764,-0.050732
0.068923,-0.055908,-0.037259,-0.030388,0.0034115,-0.019407,-0.32453,-0.46208
-0.22038,0.051791,0.074438,-0.0057039,-0.044904,-0.17462,-0.49042,-0.097081
0.113,-0.35743,-0.096444,0.0029087,-0.022876,-0.0056022,-0.10564,-0.065171
0.071645,0.25918,0.02033,0.057755,0.061706,-0.020194,-0.15974,0.033615
0.15802,0.21708,0.0030531,-0.020881,0.0058107,0.1263,0.65074,0.53768
-0.032349,-0.074279,-0.093208,-0.09221,-0.03415,0.00589,0.26457,0.11365
-0.092432,-0.0245,0.060163,0.00035498,-0.018906,-0.12148,-0.43365,-0.26773
0.079018,-0.22089,-0.020722,-0.00056172,-0.010742,0.050963,0.040815,0.019511
-0.011406,0.18136,0.21138,0.038277,0.021761,0.040468,0.30254,0.045665
-0.14673,-0.29092,-0.12613,0.062478,0.047423,-0.003707,-0.20963,-0.21348
0.022669,-0.10916,0.068352,0.056493,-0.0041385,0.14485,0.15012,0.084678
0.010684,0.16221,-0.13487,-0.13609,-0.078455,-0.19462,-0.20232,-0.09227
-0.019919,0.29418,-0.024836,0.054708,0.066317,0.054198,0.060795,-0.19068
0.11762,-0.06107,-0.093642,-0.043415,-0.015549,0.045405,0.032099,0.23387
-0.06126,0.1915,0.17451,0.045732,0.034914,-0.012135,-0.030962,0.086693
0.045296,-0.18385,0.061065,-0.014024,-0.024799,-0.018464,-0.040755,0.14802
