0.25538,0.17335,0.092254,0.074027,0.048785,0.031175,0.16354,0.19247
-0.043017,0.035931,-0.049143,-0.18825,0.0063679,-0.024632,-0.059,-0.15533
0.14298,-0.05351,-0.095467,-0.0091137,-0.042912,-0.032886,0.00079339,0.034345
0.31324,0.092872,-0.023531,0.0098372,0.010803,0.022267,0.046878,0.3731
-0.47932,-0.0016073,-0.021227,0.086668,0.019309,0.015896,0.024967,-0.021605
-0.097096,-0.14991,0.051639,0.0092389,0.021602,-0.0052274,-0.22129,-0.44848
0.22966,0.053658,0.077481,-0.083318,0.0095101,0.021128,0.049701,0.010777
0.34894,0.014897,-0.19403,-0.090966,-0.0097375,0.0086444,0.21202,0.46884
-0.22624,-0.071017,0.12746,0.078726,-0.052464,-0.027474,0.030194,-0.039711
-0.3486,0.046137,0.088622,0.12796,0.029084,-0.0094806,-0.012406,0.059793
-0.29877,-0.15656,-0.17787,-0.16242,-0.031266,-0.039199,-0.24458,-0.60141
0.2848,0.18091,0.17167,0.067136,0.031779,0.07076,0.091321,-0.014799
0.45218,0.25445,-0.0032561,0.075145,0.030648,-0.02331,-0.10589,0.19745
-0.25422,-0.34965,-0.1633,-0.16845,-0.08135,-0.063438,-0.061965,-0.1791
0.027695,0.10297,0.11395,0.18159,0.086805,0.067775,0.23186,0.2665
0.18221,-0.1069,-0.10829,-0.22467,-0.026847,0.042412,0.13575,0.30388
-0.40009,-0.0034846,0.077048,0.16112,-0.046707,-0.061248,-0.21709,-0.18179
0.13088,-0.0097996,-0.079339,-0.034974,0.07467,0.061569,0.15755,0.091087
0.39765,0.34943,0.040139,-0.078156,-0.099768,-0.073481,-0.20971,-0.027507
-0.40731,-0.1458,0.029161,-0.054728,0.07868,0.017987,0.15682,-0.079517
0.33854,-0.012112,0.051162,0.22163,-0.01496,5.6443e-05,0.014073,-0.20109
-0.5382,-0.23436,0.11284,0.19442,0.0097204,0.0055961,-0.068188,-0.059198
0.28262,-0.038927,-0.12315,-0.13851,-0.027385,-0.03561,-0.10564,0.22711
-0.40088,0.22346,-0.025337,-0.27134,0.03724,0.0093733,-0.058693,-0.2411
0.49953,-0.08649,-0.024408,0.021072,0.062415,0.13286,0.11269,0.23225
-0.0055139,0.032802,0.012106,0.16009,-0.11637,-0.12596,0.065978,0.031663
-0.13213,0.09061,-0.1732,-0.26785,0.0006318,0.029867,0.13049,-0.012666
-0.097246,-0.099491,0.15513,0.31678,-0.00061789,-0.040224,-0.18506,-0.27382
0.34197,0.041141,-0.017035,-0.22471,0.012945,0.023149,0.20569,0.68699
-0.15893,0.067119,0.093167,0.18002,-0.020756,-0.037895,-0.36141,-0.73923
-0.015837,-0.18618,0.018338,0.0092824,0.094067,0.049917,0.11302,0.18907
-0.23133,0.014752,-0.092216,-0.11083,-0.048424,0.02068,-0.036151,-0.076558
0.12933,0.2003,0.097707,0.17159,0.020785,-0.016615,0.12719,0.17256
0.27475,0.018269,-0.02158,-0.042289,-0.049796,9.7136e-05,0.11714,0.44176
0.023824,0.038762,-0.052403,-0.081558,0.02879,0.039167,0.10416,-0.23209
-0.32673,-0.38631,-0.089563,-0.080297,0.037561,-0.0090388,-0.18617,-0.23307
0.036807,-0.060796,-0.10299,-0.16485,-0.078462,-0.097671,-0.26195,-0.41266
-0.29727,0.20386,0.16392,0.1948,0.04763,0.039152,0.21337,0.41824
-0.029108,0.025786,0.19442,0.40391,-0.06094,-0.035549,-0.20408,-0.26865
0.89103,0.28823,-0.02811,-0.28038,0.064453,0.061733,0.21429,0.47569
-0.60518,-0.13413,-0.082534,-0.10842,0.025341,0.011416,0.0019355,-0.17312
0.10783,-0.20338,-0.2583,-0.25985,-0.10011,-0.0061959,-0.073672,-0.14186
-0.20541,-0.0384,0.061877,0.14068,0.047565,-0.029792,0.090119,0.15695
0.36667,0.32768,0.21451,0.3438,0.015352,-0.012438,-0.053485,-0.13626
0.20353,0.0027119,0.036601,0.029951,0.061195,0.10811,0.26803,0.53917
-0.1278,-0.092109,-0.048544,-0.2688,-0.033509,-0.043648,-0.20484,-0.46043
-0.20782,-0.10479,0.0075855,0.11245,0.0048512,0.00040332,0.0024316,0.095675
-0.58413,-0.35409,-0.26993,-0.19268,-0.13602,-0.11193,-0.1902,-0.19445
0.11159,-0.16581,0.010937,0.019717,0.028468,0.048552,0.020573,-0.22414
0.47589,0.47031,0.2964,0.21121,0.092214,0.044029,0.14972,0.38005
-0.018754,0.22795,-0.21807,-0.33658,-0.02288,-0.024035,-0.068233,0.016253
0.16265,0.18582,0.29496,0.3919,0.058011,-0.014952,0.023698,0.0055675
-0.17226,-0.2038,-0.21294,-0.20545,-0.071756,0.024558,0.028184,-0.08792
0.0015565,-0.08358,0.14678,0.26879,0.024748,0.01655,0.016713,-0.066873
0.48886,0.16112,-0.089068,-0.21012,0.018756,-0.0075768,-0.0096953,0.1099
-0.55535,-0.45637,-0.055203,-0.12793,-0.0043641,0.06166,0.18406,0.29593
-0.41457,-0.015466,0.13791,0.21735,0.0097204,-0.095982,-0.29226,-0.42902
0.26779,0.022862,-0.15035,-0.18274,-0.056205,0.019565,0.061414,0.17057
-0.026919,0.089497,-0.20793,-0.10954,-0.029931,-0.02912,-0.098901,-0.39693
0.44052,0.27231,0.12344,0.28121,-0.028002,-0.0075659,0.046627,0.21992
0.17524,-0.16887,0.064918,0.052983,0.020717,0.014005,0.12228,0.24682
-0.090481,0.13464,0.079685,-0.28517,0.11705,0.020017,-0.044741,-0.13032
-0.51404,-0.16818,0.16148,0.21339,0.066352,0.11983,0.23988,0.34419
-0.20466,-0.030931,-0.16572,-0.043906,-0.12317,-0.077221,-0.17319,-0.28508
0.72201,0.49036,0.13663,-0.095168,-0.029536,-0.032139,-0.065792,-0.02017
-0.62182,-0.4107,-0.19844,0.044554,0.042438,-0.049593,-0.11765,-0.15138
0.46284,0.076792,0.16326,0.16449,0.014338,0.034607,0.046822,0.05548
-0.2858,-0.3997,-0.3503,-0.27467,-0.075127,-0.029294,-0.047801,-0.25804
-0.23163,0.12843,0.16582,0.070216,-0.031006,-0.006608,0.060887,0.20674
0.68999,0.34158,0.0077764,0.1748,0.083849,0.10296,0.24936,0.47542
0.042183,-0.25119,0.26146,0.1474,0.073779,-0.044179,-0.16873,-0.37181
-0.3791,0.031175,-0.42425,-0.61462,-0.092828,-0.010523,-0.12243,-0.19283
-0.22442,0.16632,0.2561,0.36431,-0.017912,0.016204,0.13046,0.16931
0.44872,0.076659,0.037745,0.044395,0.055973,0.04342,0.30035,0.55825
-0.16719,-0.12073,0.0074023,-0.0045211,0.011329,-0.077807,-0.44177,-0.62042
-0.17609,0.050169,0.048473,0.10022,-0.0036009,-0.058927,-0.050051,0.03081
0.084539,-0.083259,-0.36996,-0.25062,-0.051343,0.099619,0.12294,0.0032797
-0.23753,-0.2013,0.17402,-0.16603,-0.045796,-0.055611,-0.064284,-0.14107
0.1703,-0.022932,-0.054221,0.42485,-0.0022401,0.076788,0.15316,0.11316
0.15234,0.25671,0.24948,-0.19611,0.056352,-0.096923,-0.037828,-0.015359
0.58442,0.17722,0.11559,0.18261,0.193,0.17344,0.28413,0.57485
-0.60286,-0.39353,-0.37082,-0.17286,-0.20118,-0.143,-0.4282,-0.72588
-0.11942,0.17793,0.10197,0.058231,-0.055433,-0.0066807,0.10635,0.30061
-0.065634,0.11859,0.17409,0.071575,0.10711,0.036161,-0.033865,-0.041748
-0.041765,-0.19639,-0.30295,-0.21841,-0.080526,-0.037245,0.15177,0.21507
0.23477,0.18593,0.1635,0.024509,0.037942,-0.046608,-0.1483,-0.21065
-0.12561,-0.26618,-0.11322,-0.058892,0.024888,0.094419,-0.034432,-0.21733
0.22916,0.11844,0.0006963,0.23439,-0.01844,0.042196,0.09614,0.19567
-0.099718,0.026398,0.17025,-0.033616,0.016854,-0.09414,-0.036771,-0.17364
0.011564,0.081708,-0.064946,0.065916,0.028622,0.11453,0.16913,0.29344
-0.017011,-0.12285,0.037364,-0.061857,-0.03843,-0.082598,-0.10617,0.020317
0.16392,0.13844,0.023617,-0.074293,-0.012944,0.047978,0.035677,-0.062026
-0.33831,-0.1975,0.088359,0.098101,-0.012436,-0.12734,-0.18704,-0.16372
0.22493,0.19729,-0.081738,-0.06839,0.0099007,0.07842,0.045303,-0.018976
-0.18584,-0.098744,-0.32321,-0.26087,-0.0082129,-0.045885,0.060065,0.098278
0.18007,0.10274,0.23096,0.30295,0.089955,0.14053,0.16115,0.20256
-0.19132,-0.24382,-0.02046,-0.070798,-0.054297,-0.088436,-0.15214,-0.18425
-0.039977,0.0037882,-0.12365,-0.060246,-0.065206,-0.013366,0.025911,-0.0092107
0.019198,0.21435,0.21135,0.0077767,-0.035804,-0.063213,-0.094124,-0.031812
0.33962,-0.12643,0.29005,0.45435,0.08914,0.0048609,0.050114,0.18415
-0.14021,0.013475,-0.4573,-0.53291,-0.010429,0.081913,-0.11165,-0.44014
0.12659,0.30602,0.26641,0.34233,0.14195,0.1212,0.31137,0.48595
0.021929,-0.085402,-0.25772,-0.3272,-0.086979,-0.057167,-0.032121,-0.021213
-0.40881,-0.44329,-0.038013,0.058738,-0.072942,-0.1177,-0.19655,-0.3197
-0.073561,0.11352,-0.020684,-0.016908,-0.066817,-0.021936,-0.087908,-0.064121
0.25274,0.052004,0.2305,0.05384,0.07893,0.0342,0.075292,0.12217
0.18621,0.17518,-0.020448,0.13691,-0.034965,-0.027925,0.090056,0.24052
0.04666,0.3255,0.13874,0.035958,0.067401,0.11947,0.11264,0.12762
-0.45492,-0.49774,-0.059253,-0.16374,0.018403,-0.039363,-0.17739,-0.40395
0.24451,0.041436,-0.076547,0.053264,0.028838,0.0034746,0.0087745,0.043675
-0.049438,0.029937,-0.15559,-0.085963,-0.041695,-0.032946,0.061491,0.16479
0.11744,-0.16328,0.048358,0.12292,0.010576,0.0081607,-0.0037993,-0.1121
0.0040484,0.2532,0.12351,0.033399,-0.055453,-0.028742,-0.015208,0.08697
-0.1153,-0.13217,-0.2002,-0.18021,-0.097718,0.044662,0.090053,0.14417
-0.02131,0.081208,0.11243,-0.12467,0.049463,-0.091138,-0.24213,-0.39373
0.17676,0.050915,0.0027472,0.23368,0.08293,0.087944,0.12965,0.17682
-0.1308,-0.1213,-0.049718,-0.0097507,0.027254,0.01195,-0.020339,-0.088671
-0.22604,-0.13185,-0.06695,-0.088763,-0.062413,-0.069171,-0.097699,-0.12678
0.10866,0.27487,0.3412,0.33182,0.040135,0.023773,0.16346,0.29754
0.71576,0.33807,-0.030823,-0.32037,-0.0022247,0.078936,0.10663,0.20793
-0.59345,-0.39066,-0.17927,0.045368,0.0039689,-0.0064293,-0.089324,-0.17729
-0.022923,-0.031058,0.047146,0.081763,-0.0059909,-0.069527,-0.050616,-0.023119
-0.080677,-0.18613,0.14349,0.11359,0.075101,0.091655,0.15108,0.036489
-0.016138,0.011307,-0.22237,-0.20543,-0.051353,-0.10174,-0.25887,-0.38233
0.13289,0.11738,0.0019611,0.060963,-0.058176,-0.032751,-2.4354e-06,0.18849
-0.069396,0.0017478,-0.12125,-0.1807,-0.070353,-0.013532,0.03687,-0.032461
0.10526,0.018832,0.02701,0.040072,-0.03224,0.04266,0.086495,0.18164
-0.11526,0.0071568,0.028229,-0.18803,0.026589,0.04316,0.024694,0.08138
0.18371,0.20282,0.011576,0.36472,0.14723,0.028169,0.016595,-0.043499
0.017566,-0.13583,0.31707,0.19341,0.034764,-0.071653,-0.16327,-0.25481
-0.04432,0.045277,-0.13798,-0.16861,-0.012379,0.11154,0.16575,0.18242
-0.19867,-0.13035,-0.10952,-0.13444,-0.10268,-0.093852,-0.042521,-0.067173
0.33428,0.27293,0.13721,0.15516,0.092164,0.023061,0.071734,0.22348
-0.31384,-0.29349,-0.1253,-0.043018,-0.10797,0.0010341,-0.061626,-0.17165
0.043795,-0.14324,0.038602,-0.26958,0.014759,-0.011929,-0.10669,-0.11141
-0.24911,-0.026658,-0.06866,0.12222,0.0060967,-0.031908,-0.0011785,-0.040666
0.30006,0.24415,0.050775,0.060532,0.013304,-0.028063,-0.011071,0.064296
0.37945,0.17791,-0.0031768,0.1223,0.074403,0.069576,0.19902,0.2112
-0.47122,-0.083619,-0.043959,0.041114,-0.014516,0.041966,-0.02791,-0.069274
-0.071921,-0.18791,-0.10305,-0.24585,-0.13672,-0.11116,-0.16933,-0.23136
0.45237,0.18598,0.17143,-0.011985,0.059225,0.1021,0.16436,0.27808
-0.48462,-0.23524,-0.071433,-0.014766,-0.012431,-0.068532,-0.16841,-0.23022
0.2728,0.048098,0.02842,0.14478,0.086206,0.064212,0.21444,0.47649
-0.025991,0.074297,0.17465,0.33447,-0.050601,0.00018566,-0.03116,-0.21226
-0.0064924,0.053282,-0.046474,-0.33562,0.046444,-0.010585,-0.10813,-0.34362
-0.13766,0.1793,-0.017622,-0.12261,-0.028395,-0.069416,-0.12505,-0.049633
0.22128,-0.15004,-0.23088,0.01336,-0.0090353,0.01167,0.15373,0.24172
-0.34316,-0.083548,-0.014219,-0.028514,-0.020082,-0.016678,-0.11402,-0.15478
0.13079,-0.17559,0.054494,0.20559,-0.029958,0.010314,0.081056,0.15389
0.28481,0.16858,0.11617,-0.11201,0.031898,0.062026,0.091701,0.18529
-0.098772,-0.14331,0.030385,0.050021,0.048439,-0.0017557,-0.065837,-0.15323
0.012257,0.07008,0.039322,0.089737,-0.035021,-0.016864,0.13183,0.16966
-0.3735,0.16171,-0.09165,-0.19682,-0.031145,0.024306,-0.13625,-0.28437
0.3148,0.12457,0.012006,0.064185,0.067553,0.019736,0.035116,0.17077
-0.11016,-0.080386,0.131,0.27768,-0.036274,-0.046776,-0.081791,-0.27123
0.14046,-0.06321,-0.2898,-0.43258,-0.015058,-0.027348,0.012019,0.18511
-0.15274,-0.11416,0.11654,0.10427,0.036871,-0.023967,0.011202,0.0076088
0.071602,-0.078385,-0.048405,0.090751,-0.021628,0.0021959,0.095216,0.19593
0.21044,0.16782,0.059364,-0.11395,-0.042496,0.012024,-0.10297,-0.22622
-0.30043,-0.064083,0.049588,0.09196,0.075642,0.075896,-0.075174,-0.19571
-0.040808,-0.0091691,0.039828,0.1544,0.0046974,-0.0014005,0.061829,0.077307
0.29259,0.12123,0.038192,-0.027319,-0.012892,-0.0088532,0.097308,0.14027
-0.25425,-0.1418,-0.14265,-0.10053,-0.062646,-0.040199,-0.015733,0.11829
0.22469,0.13923,-0.057318,-0.095245,-0.11281,-0.048604,0.065963,0.13583
-0.106,-0.10586,-0.0027296,-0.26805,0.094891,0.012739,-0.13493,-0.30822
-0.18258,0.16226,0.20852,0.35867,0.18581,0.10472,0.08388,0.065959
0.098335,-0.14189,-0.12685,-0.0035231,-0.050851,-0.022661,0.003008,0.038207
0.043534,0.021442,0.022229,0.16108,-0.013558,-0.064597,-0.16682,-0.21279
0.20978,-0.057744,0.030556,0.047246,-0.054011,0.080712,0.17632,0.32044
-0.30748,-0.042412,-0.078594,-0.27571,-0.10983,-0.10198,-0.16976,-0.33816
0.039674,0.037294,-0.016241,-0.10591,0.022083,-0.010644,0.02287,0.1095
0.13428,0.0104,0.069219,0.1649,0.10749,0.081796,0.24794,0.3995
0.014736,0.22115,0.13891,0.035875,-0.017455,-0.042994,-0.24316,-0.48969
-0.093821,-0.17426,-0.22871,-0.055827,-0.047869,0.021448,0.034904,0.029578
-0.076177,-0.098325,-0.0019505,-0.08668,-0.022746,-0.045278,-0.034784,-0.049364
0.15142,0.19006,0.085291,0.060931,0.13588,0.10795,0.18792,0.32856
0.040088,-0.044806,-0.021255,0.098515,-0.064594,-0.050849,0.014354,0.053516
0.033688,0.0082478,0.0224,-0.043717,-0.031039,-0.0070171,-0.057104,0.038394
-0.18088,-0.10497,0.028709,-0.021689,0.063971,-0.019351,-0.12974,-0.33555
-0.064119,-0.10384,-0.080841,0.047478,0.0088918,0.020701,-0.048766,-0.14012
0.072851,0.12869,0.052395,0.054243,-0.040366,0.042356,0.23185,0.3736
-0.072553,-0.016416,0.013369,-0.095447,-0.10719,-0.032488,-0.077017,-0.091574
0.0098645,0.1959,-0.011521,-0.16752,-0.027023,-0.10952,-0.13866,-0.11332
0.25195,-0.14755,0.015761,0.15031,0.18535,0.093567,0.032726,-0.034285
-0.071346,-0.030195,-0.10865,0.029927,-0.086173,-0.070289,-0.061076,-0.017101
-0.13917,-0.060497,0.1384,0.034031,-0.0045783,0.033194,0.07388,0.07242
0.2121,0.16863,0.061964,0.022433,0.11856,0.12406,0.23582,0.21961
-0.12819,-0.068653,-0.13386,0.058258,-0.059909,-0.054635,-0.066765,0.06538
-0.044655,-0.0061469,-0.041267,-0.24053,-0.07101,-0.088526,-0.14649,-0.28129
0.031107,-0.041899,-0.017731,-0.029378,0.053811,0.076732,0.011447,-0.024504
-0.0432,-0.10546,-0.014484,0.15335,-0.068841,-0.01291,-0.0005337,0.021985
-0.081245,0.27175,-0.014437,-0.11386,-0.033645,-0.0072577,-0.019927,-0.010268
0.11175,-0.28586,0.11585,0.11415,0.08787,0.021763,0.10019,0.22149
0.059293,0.15818,0.079037,0.1569,0.052102,-0.013414,-0.071121,-0.15048
0.0041493,0.14932,0.13128,-0.10425,-0.0018103,-0.067333,-0.065952,-0.14192
-0.09965,-0.12668,-0.2378,-0.085218,-0.02055,0.07772,0.076254,0.044394
0.030206,-0.023218,-0.039122,-0.030208,-0.052038,-0.04753,0.011813,0.13564
0.11351,-0.073241,0.029022,0.066821,0.043841,0.033508,-0.0088437,-0.07058
-0.16918,0.04226,0.058078,0.017194,-0.037416,0.0088943,-0.0084541,0.043567
0.010839,-0.29461,-0.085891,-0.15597,-0.068324,-0.018801,0.013837,0.041046
0.028757,0.41618,0.23807,0.28237,0.11677,0.022058,0.027699,0.062727
0.071805,0.47238,-0.26509,-0.13492,-0.050405,-0.054558,-0.036281,-0.15694
-0.056049,-0.56961,-0.17825,-0.15549,-0.059812,0.010601,0.010217,-0.032035
0.050359,-0.13696,0.27584,0.08282,0.098399,-0.015619,-0.074319,-0.015709
-0.063385,-0.039062,0.030806,0.043657,-0.035162,0.062943,0.038709,0.0092041
0.10146,-0.17108,-0.11308,-0.16921,0.0090669,-0.01896,-0.033301,0.05829
-0.081055,-0.030117,0.03393,0.28144,0.066985,0.082311,0.17831,0.19393
0.20116,0.89351,0.2304,0.012874,-0.06539,-0.086916,-0.11591,-0.18569
-0.42658,-0.43888,-0.23545,-0.093184,0.0245,-0.035298,-0.049399,-0.10436
0.13834,0.10432,0.08731,0.062751,0.014471,0.025254,0.041117,0.070283
0.10074,0.028381,-0.093456,-0.17037,-0.050518,0.023493,0.068933,0.10346
0.040744,-0.2871,0.11732,0.11889,-0.0080525,-0.017899,-0.060329,0.033978
-0.024007,-0.024965,0.07599,0.069034,0.0079076,0.0021508,-0.0032753,-0.044438
-0.068464,-0.023534,-0.2352,-0.14148,-0.042223,0.020938,0.021318,-0.04555
0.06453,0.090968,-0.020354,-0.090955,0.029157,-0.086485,-0.1347,-0.18752
-0.14063,-0.11115,-0.076078,-0.075507,0.027349,0.062924,0.068253,0.03822
0.24483,0.14449,0.098846,0.11724,0.015805,0.031973,0.029169,0.11677
-0.11675,-0.062578,0.23272,0.25458,0.026863,-0.014991,0.045373,0.10327
-0.032306,0.1518,-0.1649,-0.052655,-0.047812,-0.0074624,-0.0079567,-0.041368
0.23799,0.085365,0.024433,-0.14728,-0.019872,-0.015688,0.05653,0.13542
-0.33919,-0.16014,0.0043379,0.072551,0.017504,-0.0084641,-0.12098,-0.24233
0.20355,-0.030533,0.0088595,-0.0028713,0.0098798,0.076605,0.14642,0.23047
-0.18887,-0.050216,-0.0020685,-0.19459,-0.034993,-0.049632,-0.18871,-0.31441
0.007616,0.13125,0.2124,0.37149,0.093491,0.011269,0.045106,-0.02608
0.12266,-0.10425,-0.34121,-0.29762,-0.073952,-0.021784,0.058757,0.19689
-0.052595,0.0083858,0.00035284,-0.054019,0.0011017,-0.062535,0.024397,0.1674
0.10123,0.094269,0.10414,0.1099,-0.0023055,0.053518,-0.09646,-0.20742
-0.08587,-0.072451,-0.076068,0.053633,0.0011997,-0.016915,-0.014016,-0.074926
-0.042368,-0.029621,0.070349,0.050957,0.026832,0.039024,0.038079,0.042604
0.021113,-0.056987,-0.0019003,-0.10862,-0.034998,-0.0129,0.013485,-0.057011
0.01805,-0.03587,0.029017,0.028436,0.050084,0.045916,0.076482,0.19712
0.3065,0.29274,0.0001524,-0.0062978,-0.0067899,0.0040996,0.039426,0.10201
-0.13087,-0.11735,-0.041168,-0.001721,-0.08026,-0.037438,-0.035637,-0.12392
-0.28794,-0.023907,-0.032752,-0.05939,0.041068,-0.024754,-0.10247,-0.1219
0.037115,0.088187,0.16504,0.1487,0.021734,-0.0054247,-0.052338,-0.025478
-0.13287,-0.19605,0.011699,0.067647,0.018399,0.0043944,0.028266,-0.02283
0.26468,0.083244,-0.16617,-0.34962,-0.1171,-0.026835,0.013983,0.096458
0.050764,-0.067133,0.052041,0.13897,0.1544,0.064929,0.099947,0.082061
-0.086157,0.10205,-0.021799,0.18967,-0.018756,-0.0091498,0.012688,-0.0036751
-0.051344,-0.034637,-0.012543,-0.1114,-0.035197,-0.0064594,-0.068032,-0.14514
0.1091,0.030502,-0.028622,0.0017587,0.018886,0.026688,0.014207,0.032755
0.020613,-0.069555,-0.029442,-0.079718,-0.075454,-0.034067,0.0018538,0.13176
-0.035448,0.024891,0.033645,0.043201,0.033268,-0.024009,-0.042221,-0.050951
-0.074859,0.040769,0.13098,0.050774,0.024816,0.010583,0.0074488,-0.030617
-0.043209,0.009634,-0.095766,-0.087835,-0.030305,-0.007945,-0.028295,-0.087993
0.059202,-0.10742,-0.0057639,-0.0053141,-0.038105,0.0066117,0.038568,-0.019414
0.013371,0.11929,0.14251,0.11057,0.08754,0.054267,0.067845,0.16782
-0.024653,-0.083827,-0.1289,-0.076818,-0.028329,-0.021488,-0.026134,-0.0024618
0.030903,0.11111,0.060955,0.064285,0.00476,-0.041474,-0.063616,-0.084784
0.00018691,-0.014827,-0.016334,0.063877,0.03022,0.048323,0.025566,-0.024577
0.054902,-0.01639,0.028379,-0.0011197,-0.0070919,-0.041884,0.0067098,0.05274
-0.055105,-0.096518,-0.1963,-0.18629,-0.021691,0.046638,0.0043597,-0.025398
0.091956,-0.0047963,0.012807,0.070499,0.017343,0.016585,0.033621,0.076072
-0.19138,-0.045337,0.086245,-0.15238,-0.077588,-0.069661,-0.085713,-0.12036
-0.0064701,0.12617,0.048823,0.2162,0.03743,0.022501,0.028706,0.064142
0.11576,-0.060217,0.0036605,-0.049116,-0.020021,-0.018894,0.11089,0.21487
0.042917,0.090782,-0.02443,-0.048611,-0.022858,-0.044682,-0.12849,-0.27782
-0.083968,0.024014,0.12171,0.11726,0.05286,-0.015053,-0.080173,-0.12474
-0.014576,-0.011372,-0.17479,-0.074219,0.074676,0.13307,0.1308,0.065252
0.11065,-0.05548,0.023236,0.0099479,-0.02759,-0.0063015,0.051348,0.19921
0.033916,0.046979,0.10564,0.04135,-0.0040323,0.019819,-0.021511,0.012437
-0.1511,-0.1421,-0.037996,0.050595,-0.0033335,-0.023432,-0.0016287,-0.04109
-0.0070623,0.033454,-0.080608,-0.18186,-0.096088,-0.058643,-0.044935,-0.03098
-0.010732,0.058564,0.00043145,0.046407,-0.032503,-0.070942,-0.096309,-0.12864
0.064221,-0.034479,0.095349,0.0083655,0.14049,0.11875,0.094771,0.14275
0.022206,0.0056599,-0.014497,0.10236,0.0011121,-0.013321,-0.041472,-0.068363
0.050373,0.047513,0.030852,0.00056298,-0.044166,-0.014013,0.081349,0.081628
-0.11732,-0.064102,-0.2208,-0.17927,-0.065406,-0.031415,-0.028699,-0.056029
0.049944,0.022951,0.05192,0.032326,0.015703,-0.025878,-0.020058,-0.067714
0.0048793,0.11333,0.099893,0.026648,0.074201,0.07359,0.067937,0.13979
0.083153,-0.067003,-0.021725,0.054099,-0.015086,-0.029271,-0.030814,-0.027865
-0.12155,0.059047,0.15568,0.099058,0.052142,0.0096946,-0.035625,-0.040008
-0.10904,-0.12693,-0.017091,-0.018612,-0.052792,0.010901,-0.0095041,-0.10811
0.12893,-0.0011124,-0.095969,-0.065366,-0.025814,0.028811,0.09409,0.22834
0.10863,0.029331,-0.058953,-0.11255,-0.00028188,-0.046454,-0.1468,-0.20279
-0.044207,-0.16117,0.1083,0.096618,-0.015624,0.003193,0.0023858,0.028145
-0.094459,0.23967,-0.15756,-0.0089728,0.060864,0.05989,0.13574,0.24943
0.036605,0.028791,0.041726,0.046803,-0.036275,-0.064406,-0.035386,-0.10099
-0.10376,-0.1373,-0.0043502,-0.064185,-0.017575,-0.049678,-0.12788,-0.23339
0.10168,0.069855,-0.021379,-0.060299,-0.015291,0.018132,0.10051,0.11089
-0.0036324,-0.0056167,0.14033,0.082587,0.033683,-0.0013303,-0.10829,-0.17659
0.024911,-0.043011,-0.010148,-0.040948,0.0048938,0.033032,0.065468,0.037798
0.1551,0.028397,0.0048431,0.11679,0.055006,0.12179,0.51948,0.78591
-0.1766,-0.025326,-0.063942,-0.052874,-0.02667,-0.093847,-0.51256,-0.79137
0.05234,-0.078724,-0.020789,0.013045,-0.029091,-0.027414,0.039263,0.35274
-0.096085,0.18115,0.0093782,-0.044529,-0.030373,-0.053473,-0.22334,-0.40712
-0.051563,-0.026543,0.088881,0.032349,0.055405,0.047052,0.020665,0.053508
0.030184,-0.099919,-0.13422,-0.053182,-0.037391,0.024347,0.19432,0.20272
0.048509,0.039359,-0.043241,-0.082457,-0.027495,-0.012192,0.087984,0.063198
0.043544,-0.093006,0.025238,0.053711,-0.0008425,-0.015863,-0.078517,-0.084634
0.070925,0.14354,0.26581,0.1675,0.073754,0.012964,0.078167,0.18024
-0.087483,-0.01687,-0.15042,-0.038453,-0.0070206,0.050302,-0.05929,-0.22109
-0.072148,-0.043336,-0.067928,-0.064767,-0.024776,-0.052959,-0.077599,-0.14857
0.101,0.048066,0.05179,-0.084032,-0.019098,0.046224,0.20174,0.29603
0.01725,-0.047806,-0.018113,0.043678,0.0015615,-0.090295,-0.19134,-0.16051
-0.050784,0.020224,-0.074431,0.03654,0.059971,0.044802,0.031135,0.076237
-0.025739,-0.021527,0.023927,0.050463,-0.0085121,-0.0018799,-0.053317,-0.078614
0.045016,-0.040319,0.1918,0.077618,-0.016763,0.011826,0.055293,0.14967
0.059839,0.096752,-0.27298,-0.20977,-0.066419,0.023646,0.0059845,-0.12818
-0.098066,0.0070726,0.15399,0.017155,0.030286,-0.036297,-0.028365,-0.02031
