0.020349,0.037507,0.06574,0.13241,0.077278,0.049094,0.046795,0.02273
-0.0035604,-0.009697,0.28423,-0.15892,-0.10223,-0.0032097,-0.022048,0.0085389
0.043965,0.085223,0.061253,0.25438,0.14966,0.046824,0.035209,0.027066
-0.079343,-0.12336,-0.58032,-0.32185,-0.1118,-0.050835,-0.016074,-0.031303
0.0012615,-0.010975,-0.076866,0.019363,0.058788,0.00048474,-0.02787,-0.026391
0.019764,0.031085,0.22264,0.2389,0.059312,0.0050985,0.014959,0.009951
0.061635,0.095917,0.09534,0.070278,0.01366,0.032824,0.0025653,0.053623
-0.014207,0.08928,0.67047,0.11349,0.0062723,0.012817,-0.002925,-0.020997
0.018439,-0.12184,-0.80549,-0.31312,0.027767,0.022737,0.045159,0.019995
-0.12968,-0.24819,-0.063024,-0.13342,-0.17316,-0.13304,-0.079752,-0.073637
0.025843,0.077916,0.48702,0.096331,-0.073816,-0.040542,-0.04154,0.010649
0.016454,0.11499,-0.067084,0.039243,-0.025831,0.06597,0.019475,-0.015905
0.045604,0.051182,-0.32561,0.015446,0.25265,0.11648,0.12709,0.042511
-0.04262,-0.089724,-0.14791,-0.099547,-0.12788,-0.021447,-0.015254,-0.024458
0.056727,0.13747,-0.035481,0.3672,0.31052,0.090135,-0.0088893,0.025919
0.054713,-0.025632,0.04761,-0.29377,-0.38384,-0.29835,-0.12714,0.076874
-0.048654,0.091937,0.95594,0.29428,0.063817,0.094774,0.044061,-0.066662
-0.058111,-0.20606,-0.69158,-0.40574,0.099921,0.12144,0.059343,-0.01398
-0.028377,0.032881,0.43438,0.12386,-0.024677,-0.06176,-0.034522,-0.046365
0.056233,-0.011592,-0.21908,0.0023359,-0.020361,0.021965,0.059227,0.062662
-0.03067,-0.065372,-0.71871,-0.1513,-0.12909,-0.025696,-0.065748,-0.038548
0.062737,0.13066,0.67623,0.57051,0.19591,0.02181,0.035822,0.040568
-0.046072,-0.078058,-0.27464,-0.6208,-0.069251,-0.023164,-0.01886,0.0031036
-0.036566,-0.017946,-0.44142,0.0085583,0.043383,-0.020269,-0.057843,-0.065034
0.021023,0.01543,0.97213,0.17557,-0.14694,-0.016762,0.020541,0.015785
0.087519,0.10858,-0.62741,0.43987,0.13198,0.065023,0.067954,0.05013
-0.017069,0.011158,0.12702,-0.32721,0.15225,0.076162,0.021945,0.014367
-0.027568,-0.051533,-0.071215,-0.13737,-0.24357,-0.11661,-0.055012,-0.044895
0.024264,0.16856,0.72627,0.45123,0.013835,0.025449,0.0088586,0.051728
-0.11986,-0.29179,-0.64468,-0.7591,-0.13083,-0.044705,-0.036594,-0.063241
0.0084558,-0.020687,-0.062208,0.4574,0.27535,0.016748,0.0037752,-0.015019
0.073068,0.17548,0.42139,-0.10929,0.084171,0.046024,0.059509,0.032232
-0.012018,-0.15734,-0.51307,-0.4567,-0.27409,-0.057995,-0.041365,-0.023012
0.10482,0.25425,0.44797,1.028,0.16245,0.080221,0.044874,0.085046
-0.076254,-0.1671,-0.39649,-0.79192,-0.23787,-0.10912,-0.080165,-0.049558
-0.047197,-0.091784,0.059118,0.14156,0.21369,0.12441,0.052383,-0.028022
-0.0029959,0.060211,0.26645,0.22933,-0.14572,-0.086112,-0.02606,0.001617
0.05675,0.11901,0.0076807,0.22256,0.33333,0.064092,0.036264,0.031932
-0.031563,-0.0073279,-0.23773,-0.45706,-0.36412,-0.057905,-0.026087,-0.030516
-0.017467,-0.098715,-0.067247,0.33764,0.28559,0.039811,0.029207,-0.0058574
0.0056893,-0.037254,-0.53124,-0.41876,-0.28024,-0.088478,-0.07124,0.012161
-0.00089612,0.091112,0.63158,-0.095749,0.031545,0.064558,0.047521,0.023341
0.048759,0.066951,0.39174,0.39041,0.15747,0.053093,0.025956,0.019489
0.037259,-0.087525,0.15515,0.13156,0.002582,-0.0061725,0.012253,0.0079009
-0.13742,0.024554,-0.4632,-0.30342,-0.067254,-0.090204,-0.056395,-0.058861
0.055313,0.042155,0.31465,-0.18884,-0.10798,0.0038592,-0.0084292,-0.0094321
0.052175,-0.25498,-0.36607,0.46725,0.17628,0.049374,0.023069,0.0073775
-0.061676,0.2101,-0.30423,-0.084681,0.035025,0.05428,0.030115,0.022641
0.0881,-0.039868,-0.015387,0.078451,0.1871,0.026723,0.020477,0.020767
-0.037987,0.19026,0.20585,-0.025782,-0.37453,-0.13436,-0.060428,-0.013648
-0.088475,-0.19294,-0.18334,-0.6214,-0.35941,-0.17054,-0.079548,-0.064623
0.061891,-0.0089909,0.86111,0.27878,0.1951,0.23909,0.10409,0.040147
-0.062864,-0.069241,-0.71067,0.099237,0.4,0.055963,0.029943,0.027653
0.045905,0.018277,0.0504,-0.15821,0.0064237,-0.039935,-0.043788,-0.00016415
0.092271,0.17681,0.38858,0.49133,0.1085,0.045205,0.039475,0.050744
0.014647,0.14975,0.054063,0.3125,-0.12237,-0.040318,-0.016912,-0.014723
-0.1706,-0.3823,-0.4391,-0.5252,-0.25758,-0.10145,-0.048763,-0.1183
0.029206,-0.036055,-0.054735,-0.27501,-0.017287,-0.01346,0.0064218,0.0057063
0.012617,0.14946,-0.085692,0.41903,0.065925,0.0046319,-0.031171,0.029178
0.045011,0.064433,-0.075247,-0.6804,-0.087093,0.022907,0.056952,0.037952
0.063283,0.083044,0.74572,0.30755,0.20275,0.12706,0.051662,0.047422
-0.01157,0.0089242,-0.24409,0.51489,0.20873,0.0042785,-0.016255,0.0025422
-0.03211,-0.080891,-0.040541,0.0044729,-0.31114,-0.11139,-0.022283,-0.042455
-0.085209,-0.19511,-0.42777,-0.60525,0.010817,0.021876,-0.037145,-0.048976
0.047199,0.032924,0.35021,0.25015,0.034719,0.013209,0.017043,0.02947
0.013257,0.032777,-0.28534,-0.2709,0.058316,0.0031474,-0.0003578,0.020791
-0.0071895,0.14062,0.25226,0.34942,-0.21434,-0.070653,-0.042238,-0.043751
-0.0057369,-0.088398,-0.16002,0.11287,0.2098,0.08127,0.071531,0.047024
0.018537,0.14309,0.61371,0.19257,0.034489,-0.040502,-0.017861,-0.011131
-0.034829,-0.1098,-0.46945,-0.43437,-0.099295,-0.036868,-0.0364,-0.03015
0.054017,0.090783,-0.029857,-0.088383,0.011542,0.045907,0.047644,0.053064
-0.018684,-0.14553,-0.21879,-0.11392,-0.031814,0.036378,-0.015433,-0.034398
-0.017948,-0.021641,0.27329,0.26117,0.074679,0.005026,-0.0068248,-0.018733
0.0017231,0.0095423,-0.26823,0.081945,-0.013523,-0.048267,0.0029794,0.014257
0.032249,0.10444,0.25314,-0.044557,0.093421,0.08708,0.044857,0.033189
-0.036447,-0.072816,0.056886,0.035287,-0.13637,-0.089427,-0.045739,-0.024833
0.013338,0.040131,-0.22589,0.053265,-0.01575,0.03107,0.02757,0.034906
-0.038398,-0.088362,0.010071,-0.24264,-0.076056,-0.067486,-0.055942,-0.046114
0.09613,0.11137,0.4227,0.24047,-0.012437,-0.018194,-0.015286,0.043917
0.017375,0.11507,-0.12015,0.30034,0.16756,0.053819,0.032275,-0.023674
-0.025417,-0.12494,0.1793,-0.38047,0.08919,0.078231,0.05559,0.00081341
-0.15752,-0.070201,-0.20755,-0.23458,-0.028684,-0.015198,-0.023237,-0.054494
0.051032,0.036944,-0.27508,-0.21667,-0.14699,-0.046673,-0.024214,0.021635
0.03066,-0.014056,-0.013905,-0.17161,0.015494,-0.016058,-0.0095201,0.010967
0.040252,0.066821,-0.27031,0.62506,0.091618,0.022123,0.0055021,0.031315
0.010671,-0.11748,0.45595,0.2081,-0.12152,0.0055739,0.0054252,-0.010469
-0.057023,-0.073239,-0.3493,0.21061,0.071829,-0.026408,0.0059557,-0.012351
0.11918,0.29466,0.28324,0.051377,-0.0074423,0.020161,0.038294,0.08062
-0.13225,-0.28641,-0.22684,-0.67404,-0.16342,-0.10453,-0.085232,-0.12214
0.079254,0.23828,0.7233,0.04224,0.049627,0.083974,0.049175,0.051069
-0.074866,-0.15559,-0.34641,-0.136,0.2646,0.12467,0.027149,-0.017233
0.053168,0.13184,0.18907,0.34666,-0.073527,-0.09204,-0.026595,0.02414
0.04855,0.051438,-0.079234,-0.046135,0.034486,0.019462,0.012745,0.018569
-0.065947,-0.12572,-0.15468,-0.11381,-0.052968,-0.033358,-0.03459,-0.034247
-0.017341,-0.011005,-0.054573,0.034338,-0.23531,-0.078892,-0.020078,-0.032941
-0.0011184,-0.019662,-0.1207,0.0022357,0.15857,0.10931,0.064319,0.045854
0.029725,0.043557,-0.057319,0.12988,-0.05136,-0.085895,-0.046709,-0.00094369
-0.026007,-0.078036,-0.37635,-0.046527,0.064648,0.015395,-0.024693,-0.024771
0.027494,-0.015104,0.23446,-0.17819,0.077321,0.10876,0.099408,0.044853
-0.059297,-0.030481,0.32383,0.036151,-0.051793,-0.047735,-0.041416,-0.034093
0.065512,0.18344,0.21399,0.16212,-0.12675,-0.063319,0.0059939,0.027586
-0.019872,-0.050514,-0.11068,-0.079927,0.0091817,-0.0083032,-0.070978,-0.051285
0.035929,0.034933,0.065421,0.12253,0.23126,0.10934,0.071184,0.02618
-0.0018525,-0.059701,0.086998,0.15107,-0.10114,-0.077863,-0.036573,-0.021317
0.038185,0.016465,-0.56398,-0.48061,-0.11323,0.023492,0.03512,0.063957
0.022845,-0.050808,0.31863,0.56147,0.26504,0.053722,0.020369,0.024108
-0.14177,0.16568,0.28358,-0.34906,-0.20864,-0.065463,-0.041932,-0.047151
-0.072667,-0.23536,-0.5107,-0.28286,-0.088808,-0.03713,-0.042439,-0.071649
0.074368,0.18863,0.14245,0.042092,0.0078366,0.053101,0.042402,0.044506
-0.012545,-0.15839,-0.079419,0.20553,0.16024,-0.012966,0.02533,-0.018786
0.073396,0.11267,0.12073,0.20942,0.02565,0.0075415,-0.023028,0.012138
0.051223,-0.19412,-0.19236,-0.061779,-0.14501,-0.10346,-0.024231,0.028061
0.037997,0.22625,0.28179,-0.16197,-0.069881,0.045143,0.0063448,0.021187
-0.037124,0.0077661,0.039509,0.11939,0.055814,0.094109,0.045382,-0.00082705
-0.049954,0.019444,-0.13422,-0.04751,0.16118,0.011914,-0.016531,-0.030483
-0.10294,-0.29899,-0.080563,-0.016947,0.073105,0.016644,-0.023337,-0.0056878
0.068779,0.18762,0.20143,0.090543,-0.10075,-0.017615,0.03248,0.034094
0.019469,0.10644,-0.13293,-0.080032,-0.010704,-0.021494,0.049022,-0.013001
0.006893,-0.18144,0.19492,0.06994,-0.1272,-0.11291,-0.13024,-0.05335
-0.031108,0.12191,-0.2644,-0.23497,-0.052961,0.035908,0.064839,0.0068813
0.023302,-0.037917,0.038913,0.18419,0.25067,0.065718,0.0014629,0.027336
0.022522,0.010481,-0.072028,-0.11725,-0.20031,-0.069831,-0.038947,0.00059812
0.022135,0.055075,0.31245,0.24536,0.055997,0.012837,0.053273,0.036474
-0.016078,0.06316,-0.20917,-0.31117,-0.27593,-0.05269,-0.065298,-0.02871
-0.091425,-0.27146,0.1119,0.23983,0.45373,0.1326,0.043122,-0.030615
0.046573,0.18279,0.21422,-0.1297,-0.01946,0.076773,0.034946,0.038715
0.038763,-0.043599,-0.55499,-0.12014,0.039754,-0.0093425,0.011754,0.023043
-0.013342,0.072671,0.16926,0.40325,-0.0086676,-0.04796,-0.01095,-0.015212
0.014949,-0.11639,-0.019952,-0.16799,-0.22679,-0.11761,-0.048991,-0.0293
-0.0018849,-0.0083692,-0.11496,-0.052702,-0.14543,-0.062329,-0.0088316,-0.011538
-0.0098181,-0.0085314,0.37563,-0.048768,-0.084444,0.024034,0.015616,0.014534
-0.025191,0.032316,-0.42589,0.014054,0.41746,0.079075,0.0086469,-0.013671
-0.025254,0.11439,0.42808,-0.1553,-0.31152,-0.014224,-0.045371,-0.018126
0.067526,-0.15347,0.20206,0.29265,0.39999,0.095798,0.048912,0.063521
-0.059811,0.06333,-0.56148,-0.17526,-0.081913,0.034064,0.033717,-0.011145
0.06118,0.18473,0.34913,0.23633,0.038016,-0.027814,0.0027914,0.031013
0.039719,0.1226,-0.19976,0.11238,-0.038947,-0.051153,-0.0048458,0.0099694
-0.10857,-0.39846,0.15024,-0.70366,-0.50196,-0.16131,-0.10646,-0.098022
0.014862,-0.043786,0.063424,0.31204,0.31976,0.12586,0.072879,0.011517
0.019637,0.069218,-0.14503,0.11357,0.08214,0.0056858,0.0018581,0.018206
-0.054883,-0.12105,-0.1723,-0.0086869,-0.0033551,-0.013803,-0.014851,-0.038803
0.080717,0.23105,-0.0089955,0.063914,-0.052724,0.020901,0.014967,0.075085
0.11431,0.14362,0.029294,0.074909,0.060651,0.063379,0.044509,0.03986
-0.13339,-0.16186,0.011986,-0.13081,-0.028677,-0.057796,-0.058912,-0.073818
-0.013504,-0.073504,0.18135,-0.067958,-0.10037,-0.014118,0.0095711,0.023475
-0.017719,0.11383,-0.14257,0.11575,0.19055,0.030642,0.008005,-0.00383
-0.020507,-0.036004,0.15567,-0.15721,-0.10835,-0.063944,-0.024273,-0.022556
0.041122,0.040128,0.37679,0.066746,-0.020338,0.053789,0.030207,0.014519
-0.0043598,-0.14226,-0.38412,0.0066404,0.11047,-0.014582,-0.031442,-0.032937
0.030636,0.13479,-0.088978,0.12338,-0.09168,0.0042953,0.025289,0.030573
-0.033832,-0.18482,-0.25624,-0.075681,-0.018417,-0.053829,-0.06525,-0.037121
0.059439,0.12351,0.26624,-0.16188,0.0010484,0.099819,0.11078,0.068469
-0.01076,-0.028537,-0.11229,0.11316,0.075059,-0.019518,-0.025159,-0.004644
0.051413,0.067327,0.11092,0.036342,-0.05507,-0.0060284,0.0029225,0.00073961
-0.10658,0.049087,0.15753,0.058205,0.078745,-0.032042,-0.039983,-0.017654
0.022369,0.06291,-0.13311,0.043253,-0.24269,-0.082353,-0.013844,0.0019892
-0.046448,-0.048947,0.1261,-0.11249,0.17567,0.13176,0.041834,-0.0033586
0.015213,-0.052434,0.065719,0.16741,0.04465,-0.030564,-0.013788,-0.010528
-0.010909,-0.2121,-0.49462,-0.45359,-0.081092,0.00088727,-0.016588,-0.042914
0.032148,0.037033,0.25861,0.31431,0.18133,0.038658,0.0025043,0.017003
0.051374,0.13602,0.19532,0.082592,-0.121,-0.049864,0.012772,0.036954
-0.030765,-0.07513,-0.2586,-0.06732,-0.042364,-0.022141,-0.00075415,0.0019463
0.012627,0.11056,-0.074961,-0.22516,-0.082128,-0.018326,-0.0061487,-0.0093028
0.025346,-0.0071523,0.22758,0.097602,0.13559,0.071489,0.012803,0.027091
-0.0084153,-0.1691,-0.32351,-0.079752,-0.11474,-0.10376,-0.052852,-0.013631
-0.073322,0.28048,0.59474,0.46405,0.066313,0.10475,0.086146,0.0013686
0.0022326,0.01119,-0.20431,-0.25441,0.023302,-0.0059288,7.7356e-05,-0.021815
0.0071713,-0.22281,-0.2294,-0.1656,-0.024641,0.0094461,-0.030041,-0.020962
0.035289,0.15227,0.056105,0.16562,0.047352,-0.044717,-0.043639,0.027034
0.06337,-0.00057083,0.14102,-0.0065185,-0.042637,0.026465,0.029173,0.012467
-0.13481,-0.028283,0.045271,0.087326,0.071497,-0.019673,-0.0073223,-0.010253
0.027062,-0.010575,-0.038722,-0.025555,-0.041228,-0.019476,0.010611,-0.0022591
0.049267,-0.17366,0.035874,-0.16079,0.0085842,0.06587,0.020254,0.005102
-0.029015,-0.077838,-0.29338,-0.0076498,0.079412,-0.037112,-0.01756,0.011839
0.010856,-0.016467,-0.32942,-0.23822,-0.43848,-0.10168,-0.032513,-0.044439
0.043543,0.27234,0.32142,0.41445,0.37704,0.099097,0.030177,0.03177
-0.017385,0.15948,0.28003,-0.11744,-0.0044568,0.0031663,0.014415,-0.0092826
0.030674,-0.20402,0.29999,0.20841,0.051098,0.079754,0.029768,0.027991
-0.039236,0.042156,-0.28778,-0.22182,-0.017376,-0.069172,-0.056375,-0.012386
-0.016305,-0.024619,-0.07545,0.032375,-0.27885,-0.091773,-0.040704,-0.020798
-0.048746,0.015339,-0.19551,-0.19865,0.12708,0.074571,0.061307,0.0029401
0.020243,0.15117,-0.039519,0.094089,0.12275,0.02355,-0.00025554,0.012061
-0.027318,-0.11251,0.21092,0.23866,0.0048572,-0.0107,0.016802,0.01439
0.067165,-0.20804,0.084321,-0.063034,-0.047807,-0.06765,-0.043854,-0.037045
-0.023864,-0.074567,-0.024163,0.046212,0.025802,0.055281,0.036361,-0.0018337
0.020076,0.17815,-0.3369,-0.20196,-0.01828,0.013717,-0.047464,0.018138
0.065843,0.035243,0.40804,0.19744,0.1307,0.072655,0.063801,0.038082
-0.043608,-0.10328,-0.30057,-0.25801,-0.1849,-0.080929,-0.03632,-0.036209
-0.0046959,0.21763,0.45629,0.18002,-0.0048227,-0.017674,0.011382,0.013576
-0.0060903,-0.039231,-0.54985,-0.31735,-0.20397,-0.073567,-0.035353,-0.023851
0.01375,0.041666,0.61783,0.40626,0.35917,0.11102,0.034447,0.03882
-0.055064,-0.085673,-0.4774,-0.0702,-0.048271,-0.0024651,0.0099794,-0.024956
0.014086,-0.045969,0.041737,0.012276,-0.026076,0.00073139,-0.014793,-0.011817
-0.075058,-0.22233,-0.165,-0.15754,-0.033446,-0.07398,-0.031812,-0.03853
0.053529,0.15009,-0.02297,-0.15674,-0.20183,-0.038477,-0.0017925,0.028249
-0.013047,0.062269,0.36294,0.38252,0.22734,0.13108,0.036355,0.017177
0.077801,0.17675,0.21544,0.030693,0.11342,0.044162,0.027981,0.030242
-0.017062,-0.00030619,-0.44702,-0.22031,-0.15369,-0.065053,-0.019191,-0.018252
0.06181,-0.15006,0.22845,0.19932,0.088698,-0.017319,-0.0037902,0.020148
-0.03762,0.062441,-0.22715,-0.24218,-0.12984,-0.024121,-0.019811,-0.026616
-0.027156,-0.15985,-0.15143,-0.076266,0.017148,-3.8368e-05,-0.0049834,-0.010428
0.021876,0.1058,0.52319,0.22853,0.12989,0.031137,0.032731,0.013662
-0.086719,-0.14655,-0.065937,-0.077028,-0.096998,-0.0010217,-0.031689,-0.032786
0.044973,0.070112,-0.18765,-0.062066,-0.015037,-0.018243,0.020636,0.037531
-0.051827,-0.030296,-0.14921,0.30617,-0.045288,-0.051413,-0.028783,-0.025429
0.060848,0.18001,0.33699,-0.33793,0.001149,0.079643,0.031344,0.028449
0.01666,0.085887,-0.33853,0.16334,0.071287,0.00042629,-0.017349,-0.0037186
-0.027098,-0.14764,0.13013,-0.22021,-0.067607,-0.015227,0.0051589,-0.020063
0.0086968,-0.13029,-0.28609,0.090046,0.093515,-0.013984,-0.0024717,-0.012465
-0.015835,-0.0043202,0.3217,0.16418,-0.015083,-0.0036881,-0.0011213,0.011495
0.0090084,0.15727,-0.0050253,-0.05349,0.059539,0.054459,0.024708,0.012852
-0.002872,0.046406,-0.014618,0.075973,-0.0038068,-0.058743,-0.011222,-0.00065318
0.072897,-0.082661,0.40286,-0.13706,-0.14396,0.031161,4.182e-05,0.02543
-0.030274,0.032483,-0.52657,-0.038586,0.059457,-0.027934,-0.027911,-0.010821
-0.00098904,0.10828,0.28168,0.21321,0.058275,0.044793,0.045106,-0.00042986
-0.035565,-0.18437,-0.26786,-0.24236,-0.031167,-0.00089167,-0.0077904,-0.0062433
0.013742,0.030092,0.15916,0.32863,-0.045035,-0.071232,-0.030496,-0.01284
-0.072059,-0.16821,-0.024301,-0.464,-0.037623,0.013698,0.00047801,-0.028044
0.011957,-0.096531,-0.42032,-0.04877,-0.00024513,-0.011315,-0.016196,-0.0047995
0.055489,0.25636,0.44765,0.3415,0.005699,0.04171,0.021404,0.03377
-0.018735,0.096652,-0.15459,-0.01828,0.11404,0.03258,0.019925,0.0098959
0.016699,0.0044745,0.12454,-0.049038,-0.041736,-0.046231,-0.02028,-0.0058202
-0.0094384,-0.035264,0.20658,0.069714,0.03069,0.039728,0.03383,0.010195
0.035968,0.093622,0.043927,0.0091989,0.010602,-0.014362,-0.028613,-0.0046216
0.0044008,-0.0017375,-0.22372,0.033778,0.0065449,-0.0056675,0.02667,-0.003647
-0.0029828,-0.30865,-0.17524,-0.01428,-0.091876,-0.020493,-0.034916,0.012737
0.036669,0.11523,-0.045227,-0.073709,0.05815,0.042374,0.036336,0.020679
-0.1038,-0.060592,0.018414,-0.20761,-0.083069,-0.090761,-0.072376,-0.050478
-0.034191,0.13911,0.12633,0.029531,-9.7344e-05,0.040918,0.037131,-0.0056024
0.034378,0.026752,0.085038,0.068391,0.01825,0.015562,0.013124,-0.024349
0.023888,-0.060556,0.17001,0.11355,-0.058699,-0.0026207,0.0039727,0.034151
0.036224,0.098171,-0.17934,0.041565,0.20728,0.095979,0.040969,0.045307
0.0015126,-0.22848,-0.17243,0.033378,-0.0034346,-0.071166,-0.047616,-0.029447
-0.032929,0.040845,-0.12086,-0.074342,-0.11221,-0.035007,-0.019356,-0.017752
0.027004,0.057618,0.28807,0.031037,-0.0093841,-0.053071,-0.02239,0.010479
-0.021601,0.082002,0.1163,-0.11959,-0.14024,-0.015761,0.013911,-0.014818
-0.01462,-0.072185,-0.043584,-0.058074,0.14355,0.1161,0.035142,0.015797
0.05569,0.20454,0.025578,0.33217,0.19332,0.069033,0.049314,0.039711
-0.068649,-0.15142,-0.42016,-0.35543,-0.13954,-0.094644,-0.052866,-0.052711
0.080903,0.029777,0.39885,0.3792,0.019885,0.054448,0.041073,0.050678
-0.14431,-0.15297,-0.30772,-0.37741,-0.20326,-0.11685,-0.098676,-0.072373
0.10707,-0.038481,0.2718,0.024105,0.042909,0.0083486,0.0199,0.015306
0.022406,0.12055,-0.019221,0.01457,-0.030207,0.023599,0.021602,0.024412
-0.046854,-0.029687,-0.14179,0.087159,0.25753,0.03822,0.031228,-0.013927
0.016442,0.10299,-0.033276,0.054917,-0.11703,0.0054164,0.0017094,0.017474
0.048263,0.22101,-0.029372,0.050537,0.05708,-0.0043136,-0.012435,0.017157
-0.099723,-0.37851,0.30773,-0.0049376,-0.0094219,0.0014826,-0.019142,-0.045941
0.072654,0.15723,0.43942,0.12927,0.065875,0.054371,0.051842,0.047174
-0.075025,-0.18526,-0.80544,-0.37666,-0.23309,-0.12656,-0.065074,-0.054799
0.012113,-0.012626,-0.019484,0.11626,-0.0082415,-0.0097552,0.0052279,0.031195
0.021667,0.045239,0.056667,-0.15106,-0.1192,0.0065921,-0.0105,-0.0306
0.031722,0.037754,0.026383,0.39096,0.35577,0.086629,0.012952,0.017707
0.026446,0.19314,0.24291,-0.22661,0.025882,0.034933,0.036701,0.027625
0.021119,-0.035095,0.058901,0.11372,-0.054381,0.0074369,0.021781,0.014593
-0.023733,-0.1323,-0.47089,-0.22031,-0.057171,-0.051024,-0.024005,-0.01387
-0.10849,0.03996,0.15234,-0.017127,-0.19372,-0.10193,-0.053898,-0.034679
0.0087825,0.088121,0.65274,0.3019,0.098247,0.06515,0.017844,0.0065113
-0.00013499,-0.13155,-0.45729,-0.17704,0.045186,0.012367,0.011304,-0.015574
0.10702,0.12833,0.10788,0.29602,0.19403,0.083321,0.043448,0.047342
-0.028918,-0.14168,-0.31863,-0.37285,-0.2597,-0.10472,-0.034327,-0.031335
0.014187,-0.02774,0.003889,0.14431,0.090539,0.0032177,0.0044674,0.014116
-0.028986,0.10411,0.46643,-0.11335,-0.11424,0.016949,-0.019821,-0.01142
-0.009691,-0.095374,-0.3115,0.13591,0.1576,0.015104,0.010144,0.0016972
-0.021364,-0.099761,-0.5135,-0.083538,0.0079558,-0.033087,-0.030399,-0.0087388
0.053499,0.14861,0.52928,-0.082959,-0.062927,0.052418,0.04633,0.051308
-0.026984,-0.027656,0.0090328,0.17803,0.0075702,-0.025097,-0.0094081,-0.028852
-0.051607,-0.010287,0.030872,-0.21354,-0.061831,-0.023518,-0.033366,-0.038093
0.026693,0.3019,-0.075479,0.10223,-0.013498,0.025604,0.052647,0.015887
0.059549,-0.0068794,0.15794,0.12509,0.050685,0.004612,-0.001432,0.023746
0.015634,-0.26738,0.056115,0.049259,0.12248,0.045766,-0.00046112,-0.00676
-0.042781,0.0019304,-0.12804,-0.072382,-0.040776,-0.04676,-0.014986,0.0023567
-0.022304,-0.052862,-0.072159,-0.070138,-0.03321,-0.015521,-0.029616,-0.011613
-0.024937,0.012287,0.038505,0.038249,-0.058145,-0.048143,-0.021094,-0.00205
0.011347,0.041228,-0.11285,-0.19412,-0.084226,0.035211,0.04955,-0.00047214
0.070474,0.074442,-0.012897,0.26332,0.20148,0.063072,0.033883,0.039754
-0.043255,-0.1982,0.11973,-0.081164,-0.16905,-0.049904,-0.036749,-0.037796
0.029264,0.085419,-0.064076,-0.12445,0.0394,0.025074,0.0018722,0.016808
-0.0089687,-0.0097757,-0.0052136,0.27661,0.1011,-0.039495,-0.021943,-0.0073201
-0.032895,0.12711,0.2316,-0.1562,-0.053673,-0.0087772,-0.014267,-0.031878
-0.018842,0.0041188,-0.30866,-0.26352,-0.041912,0.031493,0.032838,0.013719
0.017949,0.05756,0.19955,0.25403,0.12048,0.034334,0.017853,0.012598
0.04669,0.16011,-0.34942,-0.086565,-0.15318,-0.047545,0.0032166,0.027545
-0.072802,-0.37872,0.25688,0.13636,0.042214,0.027373,-0.011232,-0.034995
0.011358,-0.0072415,0.08774,-0.087047,0.033399,-0.0073493,-0.03354,-0.010911
0.03367,0.014326,-0.11819,0.20831,0.022107,0.003728,0.0063452,0.013735
0.025282,0.02052,0.28203,-0.16208,0.038411,0.028707,0.053496,0.030852
0.009325,0.073654,0.086574,0.23416,0.0191,-0.042143,-0.048508,0.00098823
0.008821,0.088768,-0.054626,-0.18557,-0.090576,-0.0056771,0.012765,-0.013769
-0.031314,-0.018165,-0.44329,-0.10383,-0.11808,-0.025564,0.0029917,-0.013766
-0.056634,-0.11964,-0.12866,-0.068076,-0.015194,-0.085486,-0.054227,-0.014813
-0.004629,0.044868,-0.047668,-0.13107,0.055806,0.12008,0.075742,0.022187
0.023426,-0.10025,0.38123,0.14889,0.18281,0.060717,-0.020853,-0.011874
0.02023,0.009475,0.069783,0.1291,0.023823,0.0026804,7.0449e-05,-0.0071576
-0.013605,0.14083,0.094855,0.050229,-0.052662,-0.014586,0.006012,-0.0099633
0.01624,0.036231,-0.295,-0.089838,-0.09285,-0.045672,0.012863,0.027155
0.0085865,0.015334,0.038148,-0.18535,-0.23737,-0.09853,-0.057305,-0.012542
0.057294,0.053402,0.19116,0.3907,0.38816,0.1156,0.0378,0.043051
-0.09564,-0.16366,-0.15564,-0.14336,-0.053321,-0.028672,-0.029964,-0.040484
0.018082,-0.012349,-0.050954,-0.008914,-0.094533,-0.023986,0.0048719,0.0099758
0.030648,-0.11101,0.28251,0.086552,0.028554,0.043257,0.032621,0.014216
