-0.045368,0.0087367,-0.0097446,0.012284,0.017421,0.12801,0.14852,-0.12226
0.09966,-0.0030168,-0.022874,-0.0021919,0.012454,0.0066924,-0.052505,0.11091
0.12645,0.057023,0.059077,0.031326,0.024138,0.010061,0.30112,0.2527
-0.067817,-0.030533,-0.037741,-0.020322,-0.033957,-0.057948,0.12036,-0.15372
-0.18702,-0.0088832,0.029761,0.0063414,-0.021877,-0.11204,-0.53543,-0.38434
0.081399,0.06605,0.03418,0.016825,0.036191,0.18333,0.65174,0.26331
0.16034,0.021147,0.029315,0.010378,0.022362,-0.10935,-0.77212,0.15811
-0.44046,-0.089892,-0.0090443,-0.0057864,-0.056061,-0.02876,-0.079297,-0.43808
0.28931,-0.025363,-0.096993,-0.039772,0.035086,0.097697,0.58484,0.043077
-0.22597,-0.01944,-0.039254,-0.0055228,-0.0087239,-0.057145,-0.62674,-0.13391
0.46089,0.077255,0.03181,-0.027489,-0.022885,0.038985,0.75986,0.54504
-0.32134,0.00068892,0.06239,0.035861,-0.014347,-0.019245,-0.40694,-0.017032
0.12171,-0.020547,0.0067611,0.013754,0.033576,0.042249,0.5089,-0.021331
-0.2282,-0.085872,-0.079179,-0.038038,-0.026469,-0.12783,-0.9603,-0.4613
0.5078,0.095671,0.07124,0.045402,0.017373,0.025017,0.16059,0.088402
-0.042055,-0.11525,-0.033462,-0.032356,0.0016211,0.039228,0.45369,0.51158
-0.23371,0.15678,0.060097,0.05676,0.051408,0.2185,0.74935,0.057933
-0.06258,0.098664,0.11734,0.093454,-0.0054998,-0.078961,-0.41184,-0.20237
-0.29559,-0.15836,-0.14359,-0.087273,-0.076147,-0.19808,-0.3403,-0.017813
0.18539,-0.038489,-0.23918,-0.1897,0.010231,-0.05382,-0.82901,-0.4621
0.17257,0.088365,0.11859,0.058424,0.018012,0.0017321,0.41769,-0.097483
0.10822,-0.092979,0.1318,0.10138,0.071012,0.35136,0.38585,0.41582
-0.38487,0.071516,0.13546,0.063424,-0.050445,-0.30922,-0.32663,-0.19675
0.23001,0.10391,-0.011796,0.053571,0.0046892,0.1145,0.47343,0.20587
0.066672,-0.24611,-0.21657,-0.15463,-0.029214,0.037536,0.10461,0.17103
0.12789,0.12385,-0.049041,-0.084019,-0.096955,-0.26564,-0.23232,-0.075632
-0.069953,0.028172,0.16336,0.1571,0.099287,0.1981,-0.11135,0.071907
-0.27032,-0.10084,-0.085955,-0.047061,0.045094,0.30457,0.33711,-0.088025
0.01599,0.028851,0.040514,-0.038682,-0.023898,-0.26598,-0.85516,-0.34611
0.13635,-0.017458,-0.049337,-0.0038185,-0.0050342,-0.15383,0.34187,0.13705
0.02354,0.043671,-0.10412,-0.035156,-0.0069364,0.086376,0.63631,-0.012143
0.31365,0.064991,0.25979,0.11776,-0.013678,-0.18626,-0.30414,0.39397
-0.33289,0.015274,-0.012248,0.056187,-0.0098136,0.14481,-0.54705,-0.14465
-0.019853,-0.020649,-0.11639,-0.05682,0.027481,0.14879,0.65987,0.17749
-0.10702,0.064628,0.016108,-0.05879,0.042587,0.14452,-0.16523,-0.56664
0.024173,-0.075061,0.0081716,0.056224,0.042239,0.10691,0.20758,0.30017
-0.061032,-0.14523,0.084181,-0.026079,-0.13866,-0.44216,-0.30282,-0.096506
0.086141,0.086525,0.023481,0.044451,0.053754,-0.050655,-0.1741,-0.073352
-0.023173,-0.16227,-0.40177,-0.20172,-0.099736,-0.023557,-0.28817,0.04759
0.26186,0.26419,0.30802,0.071279,0.057027,0.16312,0.80305,0.070806
0.04374,0.006879,0.090837,0.16097,0.10243,0.12008,-0.32597,0.23861
-0.13135,-0.027055,-0.16136,-0.11119,-0.07241,0.02101,0.20474,-0.16068
-0.10921,-0.062905,0.11583,0.076553,0.04096,-0.12431,0.02525,-0.39541
0.052558,-0.0055471,-0.01297,0.0068844,-0.0099553,-0.017222,-0.48486,0.35709
0.14783,-0.049058,-0.2411,-0.13931,-0.021489,-0.015821,-0.032991,0.21325
-0.36494,-0.051948,0.042228,0.013707,-0.02451,0.0054896,0.3282,-0.29944
0.020661,0.048593,0.15005,0.036429,-0.034475,0.077744,0.11465,-0.085679
0.12479,0.08035,0.050635,0.029971,0.0032404,-0.22976,-0.40953,0.22966
0.12044,0.15957,0.070662,0.055857,0.10397,0.41727,0.58078,0.37311
-0.068393,-0.0041581,0.059631,0.058103,0.025042,-0.10038,0.050369,-0.1072
0.12357,-0.052821,0.10135,0.043219,-0.038768,-0.058116,-0.17666,-0.51209
-0.27711,-0.30774,-0.43857,-0.20849,-0.033256,-0.14494,-0.36914,-0.34981
0.25613,0.074545,0.0019147,-0.0098238,-0.0055461,-0.017739,-0.27866,0.50795
0.14027,0.071169,0.0017804,-0.032119,-0.01804,0.089491,0.3764,-0.16656
-0.20035,0.011624,0.016216,0.014968,6.7852e-05,-0.040576,0.067097,0.41664
-0.3498,0.014967,0.11828,0.055073,-0.012899,0.0083098,0.42998,-0.30346
0.11478,0.067522,-0.017484,-0.0037452,0.0065567,0.082437,-0.29619,-0.28751
0.076048,-0.08692,0.087337,0.043023,-0.010927,-0.19081,-0.74011,0.4934
0.17313,0.060366,0.01909,0.047513,0.052503,0.25285,0.59346,0.080103
0.23903,-0.029639,-0.075053,-0.053212,0.025167,-0.031112,0.15112,-0.18595
-0.23041,0.13443,0.14586,0.075364,-0.0073605,-0.12115,0.057032,0.095461
0.11144,-0.10516,-0.087585,-0.068904,-0.030346,0.051655,0.081692,-0.10005
-0.3029,-0.04715,0.0096444,0.01154,0.048694,0.070993,-0.16238,0.15493
0.053544,-0.0058945,-0.011143,0.009762,-0.045089,-0.05017,-0.29019,-0.35249
0.0060174,-0.037603,-0.16756,-0.091455,-0.031734,-0.048845,0.028447,-0.036428
0.061263,0.08334,0.0011945,0.011964,0.01752,0.033742,0.077621,0.52016
-0.053298,-0.049572,0.0047719,-0.0076163,-0.022734,-0.053756,0.010066,-0.51968
0.11806,0.11096,0.11228,0.04662,0.050811,0.08675,0.34764,0.22968
-0.20202,-0.12156,0.00010188,0.0050327,-0.034564,-0.16127,0.020628,-0.04582
0.38172,0.074525,0.0089346,-0.0048177,0.011324,0.11772,-0.34324,0.068706
-0.22758,-0.11177,-0.15392,-0.10549,-0.052388,-0.0039761,0.080953,-0.15926
-0.12736,0.14906,0.28007,0.18151,0.072481,-0.047706,-0.41975,-0.14247
-0.041208,-0.12632,-0.11751,-0.0020763,0.043267,0.12119,0.18416,0.087107
0.063576,-0.03116,0.043427,-0.03887,-0.069002,-0.11321,-0.21146,0.17391
0.077268,0.13755,-0.012683,0.00012623,0.03281,0.11685,0.53729,0.16471
0.24781,0.035314,-0.13284,-0.08959,-0.042121,-0.024763,0.14971,0.16495
-0.014149,0.0046924,0.038535,0.0026999,-0.028758,-0.046637,0.2407,-0.043287
-0.20489,-0.041688,0.28683,0.16576,0.056399,-0.067118,-0.092748,-0.37474
0.015369,-0.13645,-0.31285,-0.10989,0.048281,0.068795,-0.63753,0.1311
-0.020441,0.078746,-0.0046564,0.010449,-0.0072318,0.047523,0.015108,0.0070485
-0.12628,-0.0529,-0.039383,-0.052045,-0.040655,-0.014454,0.15845,-0.18742
-0.044015,0.062372,0.083264,-0.00067088,-0.044733,-0.047062,-0.021059,-0.099962
0.064221,-0.051526,-0.04193,-0.038306,-0.058763,-0.18288,-0.076441,0.031462
0.02953,0.043693,-0.13238,-0.016032,0.06576,0.24276,0.019626,0.025998
-0.051068,-0.049496,0.32877,0.12916,-0.014629,-0.12093,-0.25901,0.0083364
0.21586,0.13855,-0.07951,0.061752,0.12234,0.19557,0.72554,0.3211
0.24615,0.18676,0.38542,0.12576,0.031795,-0.072735,-0.14777,0.13281
-0.10814,-0.24788,-0.34649,-0.17858,-0.090548,-0.011452,-0.07224,0.077644
-0.42588,-0.11782,-0.10291,-0.06964,-0.041141,-0.1283,-0.42307,-0.67437
0.064752,-0.047375,-0.23446,-0.10148,0.00077958,0.1235,0.54757,0.27064
0.017902,0.0030762,-0.083349,-0.054401,-0.050227,-0.037576,-0.015338,0.13297
0.048574,0.13538,0.37583,0.16649,0.0094729,-0.088385,-0.15478,0.0074422
0.20949,0.11497,0.074685,0.10133,0.078755,0.072288,-0.1789,0.044406
-0.079039,-0.12937,-0.30581,-0.13197,0.0094513,0.069088,-0.31659,-0.15864
-0.13835,0.0023827,0.093869,0.029233,-0.018733,-0.020203,0.47039,-0.32198
-0.0079349,0.13315,0.35847,0.13906,0.033017,-0.00057876,0.0029315,0.20396
0.17178,0.096636,0.032397,0.047945,0.03142,-0.0050664,-0.11576,0.14924
-0.020295,-0.11686,-0.028191,-0.11278,-0.078792,-0.096241,0.053951,-0.012298
-0.12972,-0.27408,-0.54532,-0.18835,-0.024749,0.12444,0.13127,0.186
-0.0064006,-0.015666,0.025296,-0.0002485,-0.033469,-0.084963,-0.11672,-0.22712
-8.358e-05,0.18295,0.33863,0.13838,0.019748,-0.075628,-0.087887,-0.15388
-0.0074873,-0.027714,-0.23009,-0.06944,0.033171,0.13719,0.11584,0.079703
0.12903,0.12059,0.29737,0.17354,0.069202,0.01469,0.18077,0.27825
-0.06621,-0.15861,-0.21695,-0.10077,-0.036329,-0.028991,-0.30888,-0.044787
0.18836,0.16024,-0.090271,-0.063544,-0.017962,0.029403,0.1371,0.14581
-0.12308,-0.054465,0.23495,0.074899,-0.024364,-0.11522,-0.13939,-0.45943
-0.11048,0.0099886,-0.067357,-0.013197,0.03015,0.075627,-0.16331,0.079983
-0.0089783,-0.045635,-0.043172,-0.030861,-0.018693,0.007571,0.29088,0.11934
-0.053763,0.066156,0.15083,0.076441,0.063396,0.039415,0.26958,0.156
0.090292,-0.047282,-0.072879,-0.035348,-0.051601,-0.071434,-0.29745,-0.29531
-0.0073346,-0.07555,-0.021389,-0.014998,-0.050854,-0.036072,-0.20639,0.0085563
0.01182,0.042002,-0.033341,0.0044561,0.034936,0.05969,0.30187,0.023189
0.26392,0.077464,0.10754,0.054251,0.065846,0.08344,0.17454,0.3146
-0.36151,-0.12613,-0.249,-0.17788,-0.12926,-0.15952,-0.42972,-0.42582
0.15014,0.095233,0.075869,0.066328,0.051845,0.019053,-0.055093,0.18058
0.1028,0.031137,0.082249,0.060833,0.015823,0.0027005,0.10579,0.25378
-0.25384,-0.1612,-0.20548,-0.076709,0.020609,0.081117,0.078571,-0.38425
-0.013193,0.042904,0.2376,0.12271,0.058172,0.067252,0.1693,0.31374
0.19287,0.09792,0.092887,0.018433,-0.036029,-0.085519,-0.10622,-0.13743
-0.087248,0.067687,0.01052,-0.022645,0.0030308,0.036961,0.03993,-0.091006
0.046789,-0.015281,-0.21109,-0.094716,-0.075189,-0.073112,0.027368,0.05242
0.11264,0.06114,0.17944,0.12213,0.049317,-0.040748,-0.19386,0.21252
-0.16127,-0.26444,-0.07445,-0.10668,-0.060925,-0.022194,-0.1037,-0.19071
-0.078151,-0.092566,-0.39348,-0.093479,0.0085224,0.084086,0.27121,-0.268
-0.027872,0.20253,0.34055,0.18571,0.055165,0.027969,0.10808,0.11275
0.09884,-0.097553,0.042467,-0.12768,-0.029654,0.043524,-0.19611,0.24827
0.074341,0.24123,0.3766,0.14697,0.043726,-0.11197,0.022539,0.091973
0.076329,-0.14165,-0.48551,-0.12238,-0.021275,0.091998,-0.10983,-0.18373
0.17247,0.033029,-0.53716,-0.17752,-0.084174,-0.032957,0.0027965,-0.0078355
-0.47606,0.067245,0.81355,0.29387,0.080971,-0.10491,0.035266,-0.012408
0.14376,-0.042024,-0.029666,0.033151,0.074689,0.13319,0.092317,-0.016932
0.07699,-0.055453,0.10215,0.023318,0.012883,-0.0066511,0.020486,0.034153
-0.04426,-0.084621,-0.23147,-0.14362,-0.090113,-0.048036,-0.21739,-0.0067143
0.022764,0.13496,-0.22051,-0.031901,-0.016584,-0.0063454,0.17628,0.033145
-0.079598,-0.099657,0.14124,0.013314,-0.040515,-0.021585,0.20877,-0.056594
-0.012876,0.13487,0.040893,0.022517,0.033481,0.039974,-0.19178,0.0056107
-0.024209,-0.16669,0.07308,0.011363,0.0029791,-0.047142,-0.050902,0.00085973
0.12343,-0.040161,-0.20554,-0.050584,0.017611,0.093178,0.37151,-0.016832
0.1273,0.088143,-0.042322,-0.0056498,0.0085318,-0.022465,-0.4573,0.17788
-0.097599,0.13521,0.24525,0.06978,0.00064287,-0.018349,-0.13946,-0.13543
-0.05146,-0.17041,-0.043487,-0.10383,-0.059544,-0.042522,0.044214,-0.068159
-0.040148,0.070428,0.030682,0.084259,0.039636,0.0066027,0.047987,-0.028627
0.01262,0.13837,0.09352,0.095776,0.05615,0.034951,0.1779,0.14536
0.11257,-0.030852,-0.23013,-0.053526,0.013021,0.026281,0.14587,0.077463
3.3219e-05,-0.13507,0.097986,-0.012545,-0.0046656,-0.012409,-0.13388,-0.13908
-0.029382,-0.028559,0.11577,0.038184,-0.029245,0.0039184,-0.029337,0.03533
-0.1245,0.090947,-0.20131,-0.081995,-0.030539,0.011903,0.50481,0.11022
-0.073851,0.0030541,0.13815,0.0167,-0.040649,-0.15324,-0.72084,-0.12254
-0.032363,-0.10539,-0.26468,-0.15066,-0.036648,0.08611,0.15145,-0.29217
0.22828,-0.015281,-0.073896,0.025034,0.05944,0.065593,-0.07455,0.073922
0.03019,0.04799,0.31993,0.16095,0.036801,-0.050812,-0.15659,-0.005228
0.062255,-0.04678,0.033843,-0.0085208,-0.010552,0.049473,0.42978,0.48829
-0.13572,0.12391,0.075155,0.071238,0.066083,0.022909,-0.0090934,-0.10892
-0.095007,-0.0011958,-0.041441,-0.029694,-0.037795,-0.075487,-0.12757,-0.071449
0.058638,-0.015204,-0.17648,-0.10074,-0.03303,0.020352,-0.072406,-0.11294
0.073936,0.05841,-0.010729,-0.032872,-0.0055107,-0.017154,0.11848,0.14574
-0.0038025,0.023771,0.2599,0.14244,0.037036,-0.070204,-0.17955,0.0053937
0.026971,-0.096496,-0.23164,-0.082528,-0.0067561,0.15088,0.17369,-0.38889
-0.17102,-0.0062571,-0.062482,-0.0042432,-0.011542,-0.025224,0.044258,0.093472
0.15129,-0.17467,-0.098076,-0.098556,-0.13311,-0.12158,0.055606,0.11569
-0.1159,0.046728,0.046501,0.018213,0.066532,0.088534,-0.15325,0.061003
0.0040018,0.1115,0.1936,0.057837,0.048726,-0.01218,0.0023696,0.040183
0.073891,0.082794,0.10253,0.12249,0.071472,0.021236,-0.10318,-0.077688
-0.046273,-0.0074948,0.016146,0.024934,0.064372,0.086683,0.1084,0.06089
0.089438,-0.041729,-0.081392,-0.078678,-0.097916,-0.11333,-0.065108,-0.073712
0.083133,0.034943,-0.12849,-0.040272,-0.025265,-0.0090535,0.018359,0.15241
-0.11163,-0.082283,0.061145,-0.047809,-0.077566,-0.046232,0.024466,-0.12739
-0.10387,-0.010898,-0.013575,0.015512,0.026024,0.063987,0.040555,-0.10058
0.028596,0.0065398,-0.072021,-0.045817,-0.019413,-0.037773,0.11441,0.22481
-0.081086,0.0087694,0.0577,0.11198,0.10638,0.070529,-0.12088,-0.12808
0.22368,0.08154,-0.0691,-0.03432,0.0050362,0.029773,0.013989,0.051483
0.037001,-0.017348,0.048599,0.015565,-0.010813,-0.06601,-0.067739,-0.072357
-0.17205,-0.045544,0.1775,0.035342,-0.034775,-0.013444,0.086021,-0.0070788
0.0109,-0.03401,-0.16599,-0.060773,-0.0042187,0.00015792,-0.025703,0.03689
0.03921,-0.021478,-0.059853,-0.014992,0.0028523,0.013979,-0.036406,-0.041519
-0.047867,-0.023338,0.10463,-0.015039,-0.052505,-0.050055,-0.063538,-0.070198
0.054448,0.1323,0.11497,0.094911,0.087642,0.12838,0.080577,0.02872
-0.036693,-0.0158,-0.24985,-0.068551,-0.0062771,-0.013233,-0.017607,0.16842
0.04569,-0.0073637,0.03081,-0.021765,-0.052909,-0.060798,0.095722,0.25369
-0.01911,0.00043379,0.23535,0.093892,0.057192,-0.0064081,-0.031916,-0.21731
-0.020728,-0.040314,-0.052764,-0.066016,-0.058755,-0.053006,-0.11886,-0.3011
0.055765,0.080421,0.03983,0.037055,0.0054778,-0.03629,0.022387,0.055551
-0.079428,-0.059793,-0.15915,-0.0034011,0.070123,0.14553,-0.030505,0.055044
0.088645,-0.039121,-0.20337,-0.085755,-0.052465,0.000411,0.17464,0.072509
-0.049889,-0.021087,0.13606,0.056012,-0.0031121,-0.065458,-0.082213,0.069844
0.059416,0.042221,0.073415,0.016316,0.022615,0.064857,0.18971,0.18927
-0.083374,-0.09787,-0.20007,-0.11026,-0.069321,-0.077846,-0.096761,-0.48917
-0.11072,0.11466,0.49882,0.1615,0.072346,0.021481,-0.21576,-0.018257
0.14981,0.0011395,-0.28815,-0.058271,0.025459,0.065358,-0.0032217,0.29886
0.042607,0.030812,0.018705,-0.026866,-0.077393,-0.11863,0.033864,0.072427
-0.095812,0.00039078,0.044683,0.05288,0.044919,0.039455,0.0063198,-0.049034
0.02402,0.049757,0.09367,0.05604,0.04086,0.055041,0.12686,-0.089677
0.081968,-0.10347,-0.21089,-0.079946,-0.058099,-0.040586,-0.0012566,0.074214
-0.015739,0.023876,-0.0036982,-0.042674,0.006276,0.026239,-0.017376,0.01927
-0.042675,0.016721,0.025861,-0.004071,-0.038855,-0.056598,-0.069334,-0.11518
-0.01459,-0.062982,-0.069129,-0.018806,-0.0052888,0.01607,0.038065,0.0060667
-0.017429,-0.10584,0.10072,0.053799,0.045173,0.010388,0.022854,-0.046644
-0.019763,0.076191,-0.059255,-0.012811,0.011536,0.090918,0.25898,0.055644
0.041251,0.17154,0.32531,0.11718,0.019131,-0.1169,-0.38743,-0.01375
-0.0058417,-0.037468,-0.33203,-0.10343,-0.0023293,0.0826,0.012563,0.067215
-0.0044374,-0.073268,-0.086304,-0.042335,-0.029689,-0.044675,0.075925,-0.035791
-0.02471,-0.021055,0.22633,0.049806,-0.04005,-0.084482,-0.1189,-0.095109
0.050337,-0.02889,0.019985,0.0082429,0.059643,0.088255,0.09288,0.12394
0.024829,0.082891,-0.025283,0.035512,-0.0047857,0.01255,0.24338,0.15199
-0.023983,0.0092099,0.021044,-0.0015564,0.023815,-0.014927,-0.29174,-0.20774
0.074739,-0.016223,-0.16786,-0.06393,-0.050355,-0.0023619,0.026812,0.042644
-0.086238,-0.056712,-0.074663,-0.041898,-0.02443,0.0028444,0.034562,-0.067935
0.039262,0.074454,0.13844,0.033947,0.01564,5.9845e-05,0.074257,0.13804
-0.174,-0.021794,-0.034663,-0.030862,-0.0080719,0.0042486,0.30852,0.0027051
0.094593,-0.0098855,0.086883,0.06921,0.06102,-0.00080713,-0.48297,-0.23252
0.033354,-0.069571,-0.027914,-0.0011256,-0.0032512,0.0079044,0.081264,0.11224
-0.067489,0.0024833,-0.0048738,0.00061249,-0.028631,-0.024481,0.0082462,-0.01659
0.19182,0.073854,0.068196,0.04304,0.032074,0.027157,-0.030192,0.10157
-0.078111,-0.0034613,0.032396,-0.014994,-0.039655,-0.032084,0.036974,0.00017798
-0.032512,0.013074,-0.07618,-0.064906,-0.040547,0.0015667,0.09385,-0.045066
-0.045734,0.022071,0.13818,0.072122,0.037273,-0.089871,-0.14703,-0.13378
0.015275,-0.062442,-0.31866,-0.10467,0.021922,0.14748,0.097168,0.17291
0.048761,0.032761,0.0056515,0.0058019,-0.00073866,-0.020136,0.054259,-0.0071633
-0.063078,-0.052013,0.07257,0.051824,0.023863,0.0091886,-0.095295,-0.056961
0.01468,0.065717,0.15726,0.041425,0.0018426,0.0011507,0.12529,0.24926
0.02287,0.0028805,-0.0033282,-0.0014601,-0.035665,-0.021013,-0.042027,-0.27733
-0.055727,-0.092214,-0.10937,-0.083971,-0.065301,-0.057698,-0.074353,-0.1383
0.10533,0.022644,-0.079924,-0.033525,0.0066423,-0.015652,-0.034799,0.16478
0.0826,0.050746,0.12629,0.095801,0.086386,0.0968,0.06831,0.052373
-0.11733,0.039226,0.026191,0.015341,-0.005816,-0.0333,-0.046573,-3.2357e-05
-0.034154,-0.050674,0.049656,0.014273,0.026792,0.01557,-0.027949,0.092793
-0.019344,0.046959,0.0083057,-0.0091435,-0.026918,-0.014625,0.13992,-0.091327
-0.025141,-0.18328,-0.24806,-0.11783,-0.065619,-0.014582,-0.050623,-0.20074
0.0046914,0.11031,0.16108,0.070456,0.019825,-0.0076626,-0.1151,0.093099
-0.021616,0.060545,0.0067092,0.023852,0.033908,0.021962,0.079227,0.048657
0.10115,-0.01236,-0.049313,-0.023798,-0.0078436,-0.0035363,0.05549,0.18233
0.062343,0.078949,0.13986,0.036519,0.01178,-0.0056922,-0.030566,-0.17698
-0.0038139,-0.079709,-0.098363,-0.006238,-0.0086173,-0.0076131,0.039187,0.096456
-0.057453,-0.0039548,0.064404,-0.0034413,0.0015912,-0.0012134,-0.056167,-0.043538
-0.012421,-0.099851,-0.1206,-0.024913,0.011605,0.060567,0.057954,-0.049428
-0.056498,-0.023291,-0.23731,-0.054297,-0.032712,-0.017503,-0.048246,-0.014318
-0.034092,0.04646,0.33386,0.034268,-0.0057733,-0.047937,-0.13233,-0.14075
0.092949,0.03942,-0.06101,0.007238,-0.032037,-0.046454,0.11877,0.28263
-0.020202,0.080668,0.040821,0.029309,0.076391,0.11179,-0.012999,-0.15033
-0.023164,0.037119,0.0074948,0.0070198,-0.024079,-0.073422,-0.081699,-0.057152
0.051591,-0.060571,0.042102,0.010558,0.010175,0.014863,0.092684,0.2332
0.085695,-0.010055,0.065597,0.0081472,0.022485,0.024812,0.04909,-0.077394
-0.078134,-0.046441,-0.21259,-0.04791,-0.02686,0.018665,0.22444,-0.037322
-0.12034,-0.013946,0.018366,0.013312,-0.0058092,-0.035043,-0.33526,0.16446
0.099307,0.079582,0.14763,0.058124,0.030206,0.03544,0.15812,-0.35598
-0.075363,-0.17168,-0.1773,-0.10161,-0.044401,-0.04331,-0.14764,0.080506
0.074913,0.0065089,-0.0035656,0.0025819,-0.026832,-0.036756,-0.10426,0.028775
0.066674,0.20885,0.11442,0.03488,0.036016,0.039777,0.15588,0.052143
-0.044185,-0.071615,-0.19772,0.0035409,0.011597,0.0069806,0.0087475,0.10503
-0.029739,0.0093936,0.23251,0.010772,0.0019565,0.0058626,0.025913,0.0092497
-0.029252,-0.0090281,-0.047705,-0.04432,-0.015749,-0.0023373,-0.033544,-0.15561
-0.03374,-0.057056,0.0082591,0.01847,0.0059333,0.021597,0.034486,-0.083707
0.0044719,-0.0028083,0.0089311,-0.0037512,-0.034104,-0.055177,-0.097644,0.13968
0.062199,0.13689,0.031119,0.076393,0.051883,0.040572,0.085554,-0.055681
-0.0015835,-0.05326,-0.0047871,-0.0071729,-0.0017335,-0.0039986,0.052097,0.12653
0.046448,-0.11334,-0.084433,-0.051988,-0.0076897,0.021645,-0.042941,0.060273
-0.0062107,0.12795,0.041507,0.050623,0.064859,0.031184,0.025626,-0.037022
0.057377,-0.10286,-0.017405,-0.035811,-0.081435,-0.10847,0.045576,-0.088535
-0.092621,-0.00049208,-0.15066,-0.061501,-0.02513,0.016621,-0.26527,-0.16558
0.003495,0.0064312,0.04993,-0.0028145,-0.008715,-0.02318,0.069273,-0.026453
-0.045397,0.03648,0.28212,0.023632,0.0067513,0.030122,0.15878,0.2508
-0.051443,0.020768,-0.3188,0.0030362,0.076016,0.11429,-0.05851,-0.020715
0.041155,0.0073759,0.17109,0.06909,0.011789,-0.04383,0.027844,0.089593
-0.070704,-0.07323,-0.11415,-0.066531,-0.060628,-0.02992,-0.002831,-0.24536
0.13808,0.068233,0.099099,0.057551,-0.00026339,-0.04689,-0.063488,0.092588
-0.0030212,-0.013903,0.044328,-0.01954,-0.025528,-0.01645,0.026395,0.010413
0.014513,0.031079,0.13384,0.014399,0.027929,0.030258,-0.013992,-0.04617
0.050034,-0.016725,-0.22054,-0.044321,0.019686,0.022954,0.034088,0.13379
-0.045563,-0.025741,0.080478,0.053626,0.020151,0.024078,-0.0016772,-0.12191
0.10171,0.010759,-0.15241,-0.043955,-0.025377,-0.0055891,0.04983,0.092354
-0.063828,0.045163,0.11101,0.045286,0.031423,0.011836,0.031447,0.11179
-0.25372,-0.11813,-0.1607,-0.10075,-0.08308,-0.064555,-0.049886,-0.26744
0.055471,-0.033631,-0.013883,-0.052402,-0.0097622,0.0071491,-0.15576,-0.045883
-0.026306,-0.005522,-0.02571,0.03421,0.032332,0.023601,0.041602,0.018353
0.15819,0.20908,0.45324,0.18265,0.058493,0.00028662,0.018753,0.37833
0.11001,-0.029767,-0.0919,-0.013299,0.005861,-0.00033878,0.049347,-0.27831
-0.091939,-0.057461,-0.15294,-0.06934,-0.039979,-0.0094851,0.063388,0.017434
0.013557,0.024771,0.090575,0.037802,0.030053,0.035457,0.061167,0.0862
-0.026955,-0.040737,-0.095619,-0.098254,-0.065464,-0.045043,-0.13681,-0.20449
0.0435,-0.027403,-0.14088,0.0068846,0.032852,0.038267,0.0086221,0.091005
-0.13561,-0.044644,-0.044537,-0.005919,-0.018538,-0.011289,0.028781,0.14482
0.098562,0.0090313,-0.039999,-0.042457,-0.0083034,-0.021645,-0.037166,-0.074104
-0.051903,0.09446,0.25656,0.10881,0.032828,-0.016076,-0.032778,-0.11252
0.052932,0.023993,0.1115,0.010991,0.0038617,0.028965,0.073475,0.17802
-0.10279,-0.10101,-0.12341,-0.030712,-0.024366,-0.03492,-0.054021,-0.18688
0.1452,0.13328,0.16071,0.085564,0.081371,0.096915,0.045963,0.15987
-0.061861,-0.078024,-0.31856,-0.11669,-0.053674,-0.0053196,0.0064169,-0.16467
-0.043426,-0.0084326,-0.054993,-0.09079,-0.070048,-0.060504,-0.055468,0.11276
0.099919,-0.025024,0.23086,0.1082,0.0087175,-0.092189,0.071057,-0.031494
-0.13089,-0.025914,-0.048612,0.034436,0.073007,0.13395,-0.0049857,0.089825
0.061771,-0.010611,0.011575,-0.00015626,-0.018162,-0.038324,-0.041845,-0.11726
0.045556,0.10738,0.23106,0.07418,0.055107,0.023905,0.030372,0.15956
0.023702,-0.023033,-0.33538,-0.11799,-0.043533,-0.038607,-0.0073821,-0.111
-0.1134,-0.050018,-0.022893,-0.030003,-0.040967,-0.014786,-0.038011,-0.12421
0.016516,-0.028328,-0.16597,-0.060294,-0.015492,0.032959,0.024566,0.034192
0.084599,0.13536,0.36214,0.14295,0.048529,-0.012537,-0.022422,0.1066
-0.027153,-0.098748,-0.06181,-0.044901,-0.020598,0.051782,0.024632,0.030631
-0.030428,0.026183,-0.014592,-0.014043,-0.01945,-0.016413,-0.036912,-0.13909
0.089833,0.071643,0.1608,0.11868,0.06011,-0.045425,0.05112,0.19088
-0.13541,-0.13513,-0.16055,-0.11527,-0.047278,0.011457,0.0076055,-0.1128
