0.20001,-0.33174,0.0088879,-0.059461,-0.035069,-0.040181,-0.055217,0.08651
0.079513,-0.19201,0.04788,0.04229,0.031978,0.052852,0.058208,0.23741
0.043,0.40356,0.0017103,0.042857,0.021056,-0.0096893,0.038613,0.013599
0.079764,-0.18794,-0.12392,-0.066104,-0.067945,-0.078726,-0.1764,-0.10328
0.20953,0.53039,0.16121,0.09761,0.069584,0.11977,0.13997,0.040618
-0.58689,-0.6717,-0.12863,-0.08371,-0.066347,-0.11685,-0.13691,-0.275
0.078694,0.56935,0.021766,-0.0009431,0.00094697,0.02417,0.0011881,-0.089515
-0.091233,-0.2493,-0.1057,-0.021135,0.01388,0.042798,0.14058,0.26995
-0.064054,-0.18363,0.099996,0.020355,0.019611,0.0089892,-0.03107,-0.11647
0.35079,0.11879,-0.093157,-0.047403,-0.028466,-0.0076321,0.0017671,0.12098
-0.21769,-0.10436,0.15337,0.042351,0.018263,-0.047092,-0.081641,-0.11675
0.1252,-0.05064,-0.11902,-0.060862,-0.01986,0.022308,0.069615,0.12541
-0.21889,-0.11126,0.059971,0.049978,0.021089,0.019785,-0.013951,0.020446
0.83774,0.71394,0.065856,0.086059,0.086148,0.11633,0.16705,0.31077
-0.40794,-0.30965,0.01513,-0.0076748,-0.05939,-0.10257,-0.067309,-0.22276
-0.29328,-0.52759,-0.023648,-0.021233,-0.017376,-0.03528,-0.16991,-0.40111
0.02295,0.67296,0.087644,0.083095,0.040159,0.029828,0.063176,0.2596
-0.44675,-0.8407,-0.33349,-0.24307,-0.20707,-0.24199,-0.28875,-0.1861
0.43495,0.62309,0.18685,0.053564,0.084866,0.15855,0.18182,-0.089601
0.12584,-0.0055081,-0.11127,0.034466,0.049007,0.045377,0.046077,0.23685
0.13088,0.0052969,0.16147,0.081881,0.099561,0.11489,0.18697,0.0589
-0.10686,-0.020781,0.035921,-0.030802,0.0021051,0.055092,0.14279,0.31359
-0.010648,0.32586,-0.034231,0.024964,-0.032717,-0.063885,-0.080271,-0.039104
0.25532,0.027129,-0.031956,-0.07033,-0.083523,-0.13338,-0.1405,-0.031738
-0.19035,-0.13417,-0.033287,-0.01095,0.036603,0.040866,-0.055434,-0.56402
-0.60239,-0.72916,-0.11382,-0.014497,-0.032245,-0.081329,-0.13883,-0.20725
0.17204,0.33325,0.151,0.11544,0.084576,0.13968,0.14814,0.28803
0.13024,-0.20212,-0.002017,-0.034265,-0.097411,-0.15622,-0.24065,0.45276
0.23788,-0.25113,-0.078778,-0.048904,-0.01554,0.038325,0.055702,-0.088366
0.006109,0.24758,0.093682,0.064065,0.11183,0.16056,0.31235,-0.046864
-0.2515,0.25925,0.054574,-0.023429,-0.0038031,-0.055255,0.030706,-0.079955
0.76036,0.81458,-0.040616,-0.069399,-0.088416,-0.031066,-0.0072508,-0.11073
-0.68106,-0.89797,-0.08401,0.0038809,-0.00081515,-0.040297,-0.24695,-0.030981
0.19981,0.51481,0.039637,0.055259,0.0954,0.1828,0.31862,0.48677
-0.16575,0.16803,-0.046711,-0.009612,-0.080696,-0.25212,-0.28039,-0.25256
0.16199,0.15148,0.19421,0.0743,0.088268,0.10079,-0.013722,-0.38818
-0.3911,-0.57674,-0.18422,-0.068523,-0.069504,-0.070217,-0.0068084,0.090367
0.60321,-0.39834,0.012659,0.030304,0.039761,0.095151,0.186,0.37423
-0.42429,-0.35369,-0.074546,-0.090311,-0.076104,-0.050568,-0.16849,-0.31373
-0.43907,-0.65747,-0.023444,0.030641,0.067321,0.10287,0.072147,0.022573
0.68856,1.0185,0.14334,0.010612,-0.053337,-0.092348,-0.058687,0.065719
-0.13006,0.92511,0.10632,0.021834,0.04633,0.059328,0.13632,0.19975
-0.3358,-0.62595,-0.15726,-0.099421,-0.11031,-0.20012,-0.318,-0.15433
0.45728,0.2352,0.1967,0.17828,0.16399,0.24582,0.36782,-0.35887
0.61785,0.037399,-0.19111,-0.066978,-0.068767,-0.10394,-0.18992,0.65166
-0.35404,0.59413,-0.031813,0.0082611,0.0031907,-0.024223,-0.0089713,-0.3161
-0.45919,-0.66646,-0.13817,-0.065231,0.01177,0.14754,0.29029,0.52887
-0.58921,-0.60507,0.19268,0.047927,0.0029007,-0.082187,-0.18649,-0.56817
0.16928,0.41263,0.18713,0.042554,0.030461,0.0043827,0.072714,0.069885
0.60504,-0.075892,-0.022046,-0.0035204,0.031453,0.047538,0.10423,-0.072377
-0.024288,-0.60599,-0.24722,-0.12156,-0.14261,-0.21013,-0.42136,-0.3903
-0.094278,0.32271,-0.074072,-0.022228,-0.014722,0.052815,-0.034847,0.12148
0.25311,0.20528,0.044624,0.052815,-0.0058817,0.017714,0.12532,0.18038
-0.48435,-0.16647,0.10914,0.026074,0.010049,-0.040127,-0.16402,0.19103
0.8076,0.87944,0.33828,0.24971,0.26861,0.34976,0.66361,0.38458
-0.6241,-0.80202,-0.57297,-0.30708,-0.22923,-0.3114,-0.30994,-0.041521
-0.11019,0.89687,0.17931,0.035588,0.048351,0.0785,-0.042757,-0.31439
-0.19129,-0.29565,0.070515,0.027659,0.023373,0.04267,0.021417,-0.24943
0.49177,0.19763,0.021129,-0.057741,-0.093525,-0.091645,-0.17195,-0.10889
-0.34107,-0.78078,0.092299,0.091373,0.048593,0.010156,0.0010017,0.21151
0.5,-0.042638,-0.0138,0.021229,0.050478,0.088736,0.21785,0.23815
-0.5602,-0.6384,-0.12546,-0.042287,-0.057453,-0.10735,-0.039725,-0.25942
0.21585,0.72135,0.016011,0.040878,0.028796,0.030172,-0.040089,0.11475
0.12007,0.12618,-0.056067,-0.042099,0.0041131,0.063167,0.16755,0.25058
0.12352,0.12052,-0.096432,-0.025542,-0.045628,-0.10216,-0.32457,-0.39766
-0.12378,0.21758,0.12515,0.04417,0.036138,0.06593,0.1238,0.2276
-0.011568,-0.31315,-0.11425,-0.042971,-0.0077441,-0.0097466,-0.056927,-0.23658
0.0072784,0.19382,0.13358,0.0033478,-0.020141,-0.06239,-0.029149,-0.0039644
-0.63014,-0.098559,0.073277,-0.026435,0.0077135,0.081066,0.13117,-0.03059
0.48913,-0.19339,0.040571,-0.013886,-0.040536,-0.07841,-0.12857,0.054643
-0.074361,0.43658,0.049077,0.080917,0.0544,0.05348,0.060343,0.12107
0.33276,-0.28258,-0.14688,0.023863,0.034819,0.031435,0.089033,0.17639
0.27706,0.32669,0.057693,0.0098329,0.025353,0.050234,0.13655,0.17137
-0.51911,-0.94644,-0.13081,-0.048211,-0.068555,-0.070773,-0.1191,-0.30439
-0.028555,0.36142,-0.02893,-0.011253,-0.0058347,-0.012466,-0.039604,-0.14657
0.15187,-0.26897,-0.014628,-0.021777,-0.0064739,-0.002566,-0.07267,0.1478
-0.049569,0.42505,0.1136,0.074655,0.069005,0.043978,0.092264,-0.065562
-0.28059,0.47114,-0.011669,-0.067178,-0.061511,-0.076383,-0.13176,-0.10089
0.12584,-0.37043,0.024683,-0.0028608,-0.015651,-0.051032,-0.072735,0.073489
0.50273,0.58795,0.13094,0.072108,0.034765,0.089409,0.15335,-0.094745
-0.40166,-0.86688,-0.19798,-0.091717,-0.03473,0.025638,-0.021784,-0.047247
-0.29189,0.13619,-0.029322,-0.00094499,0.011165,-0.0067661,0.044938,0.18099
0.064135,-0.07153,-0.016229,-0.0054777,-0.0060668,-0.045675,0.0043584,0.17168
0.33424,0.67756,0.21913,0.099668,0.063255,0.050536,0.053784,-0.22128
0.03531,-0.63528,-0.047511,-0.019679,0.0093317,0.040356,-0.016392,0.1982
0.048625,0.035441,-0.095873,-0.049608,-0.065383,-0.099365,-0.064983,0.12463
-0.10642,-0.24744,-0.097201,-0.020516,-0.043169,-0.025001,-0.06092,-0.18614
0.056612,0.20531,0.034094,0.02871,0.052651,0.091077,0.010591,-0.38511
0.24235,0.091434,0.11701,0.050685,0.018633,-0.033194,0.015399,0.18145
-0.46885,-0.047635,-0.045914,-0.033824,-0.01313,0.0074024,0.037747,0.18339
-0.072926,0.53979,0.11287,0.031468,0.026645,0.016415,0.091375,0.01788
0.27256,0.057595,-0.034636,-0.036386,-0.019496,-0.038517,-0.11466,-0.20621
-0.41566,-0.72086,-0.061501,-0.043668,-0.027754,-0.0098969,0.019537,-0.020061
-0.064319,0.039935,0.069277,0.086516,0.078988,0.086013,0.094304,0.31109
0.29125,0.23816,-0.096375,-0.060578,-0.043667,-0.032264,-0.10189,-0.19669
0.091869,-0.14148,-0.073709,-0.0084088,-0.05213,-0.083233,-0.076709,-0.035318
0.27705,0.081803,0.076443,0.032708,0.022708,0.090073,0.10828,0.25621
0.38612,-0.29342,-0.15889,-0.053264,-0.021454,-0.050297,-0.053155,-0.29873
-0.44931,0.18789,0.16093,0.047647,0.019649,0.0048282,0.042566,0.29203
-0.34053,0.38673,0.046714,0.0010386,0.014448,-0.040033,-0.071163,-0.13532
0.14057,0.022735,0.016345,-0.035513,0.0031177,0.042867,0.091961,-0.12694
-0.21738,-0.41987,-0.015,0.017003,0.0098627,-0.0035322,-0.02134,-0.033162
-0.17888,0.1514,0.038397,0.0026306,-0.019721,-0.015019,-0.082282,-0.18832
0.14138,-0.36727,-0.059282,0.06947,0.04693,0.10164,0.13551,0.49524
0.21524,0.23207,0.025563,-0.017745,-0.040908,-0.068721,-0.064285,-0.31697
0.32673,0.30544,-0.0066813,0.028798,0.059459,0.12865,0.16047,0.32122
-0.077267,-0.041066,-0.11175,-0.11257,-0.09065,-0.17505,-0.21562,-0.14478
-0.098479,0.07266,0.091152,0.017907,0.023301,0.018805,0.008609,-0.004717
-0.19199,-0.23782,0.00717,0.028801,0.033323,0.037437,0.081545,-0.13487
0.084182,-0.31638,-0.10594,-0.048927,-0.045337,-0.095974,-0.12287,0.12727
-0.039623,0.43224,0.057425,0.01932,0.0061641,0.033025,0.090285,-0.0010644
0.21396,-0.12956,0.12394,0.046669,0.016479,0.026908,0.025995,-0.099238
-0.2987,-0.20092,-0.17777,-0.05977,-0.02136,0.035308,-0.0024212,-0.035251
-0.055726,0.06612,0.076265,0.052456,0.010836,0.0047502,-0.071922,0.018622
0.26334,0.26107,-0.010619,0.0012721,0.012475,0.014359,0.014081,0.093537
-0.18343,-0.21544,0.00023756,-0.025354,-0.015669,-0.0368,-0.0010552,-0.060462
0.34149,0.29318,0.11707,0.066483,0.051863,0.070232,0.11793,0.14261
-0.40791,-0.097401,0.027064,-0.0045813,-0.011395,-0.070962,-0.034733,-0.023838
-0.060283,0.055178,-0.10663,-0.035718,-0.033811,-0.054568,-0.083941,0.010488
0.2162,0.13793,-0.12905,-0.097597,-0.00025792,0.048534,0.024738,-0.14495
-0.028928,-0.54,0.01304,0.036023,0.018326,0.011214,0.0095886,-0.067932
0.41655,0.36292,0.083879,0.068032,0.0056916,0.020503,0.010699,0.1798
-0.33042,-0.2398,0.035379,-0.056398,-0.046484,-0.033277,-0.0036494,-0.095942
-0.052657,0.090454,-0.00060047,0.0689,0.033353,0.052892,0.052181,0.12191
-0.1199,-0.42515,-0.016888,-0.0092607,-0.020535,-0.049035,-0.11876,-0.063549
-0.16023,0.39595,0.13468,0.013738,0.010672,-0.034141,0.0227,-0.25254
0.35442,0.056134,-0.21764,-0.10436,-0.029085,-0.011487,-0.015363,0.29022
0.21016,0.4159,0.051759,0.050433,0.040116,0.073923,0.032933,-0.067939
-0.39227,-0.40031,0.061113,0.071868,0.046605,0.034815,0.0818,0.094188
0.1626,0.5507,-0.03191,-0.039995,-0.040733,-0.066236,-0.025064,-0.1312
-0.2042,-0.62476,-0.053808,-0.027184,-0.0030942,0.0050552,-0.022314,0.1912
-0.023888,-0.25792,-0.042041,-0.030064,-0.020165,0.021893,-0.0041512,-0.058349
0.32942,0.28955,0.10627,0.014193,-0.0060214,-0.023854,-0.0023518,-0.077568
0.18546,-0.11597,-0.053359,0.020004,0.0080974,0.00030203,-0.048631,-0.11835
-0.42235,0.11239,0.057348,0.0033129,0.006631,0.01599,0.020782,-0.056723
-0.02277,-0.0071369,0.10197,0.03467,0.013142,-0.02377,-0.0050921,0.20105
-0.07422,0.47458,0.048279,0.043889,0.03562,0.060791,0.045857,0.069996
0.011389,-0.2895,-0.13621,-0.062759,-0.050725,-0.042554,0.049118,-0.010588
0.23544,-0.27141,-0.08546,-0.050969,-0.019122,-0.013064,-0.064946,-0.18683
-0.065855,-0.18605,-0.12847,-0.038072,-0.010037,-0.053362,-0.068998,0.043782
0.12215,0.047221,0.054612,0.0304,0.015655,0.032336,0.061144,0.0039064
-0.10109,0.27267,0.10426,0.060378,0.018803,0.0099696,-0.064567,0.031349
0.2538,0.41035,0.15327,0.051424,0.038208,0.059281,0.069772,0.072556
-0.3004,-0.41893,-0.12657,-0.059517,-0.028119,0.0081476,0.0031032,-0.090958
-0.086231,0.044334,0.04563,0.0081876,0.0067939,-0.0033301,0.016128,0.11053
0.19216,0.1524,0.059908,0.035201,0.025223,0.0085331,0.10013,0.12888
-0.23037,0.015491,-0.17044,-0.080481,-0.05138,-0.097592,-0.14445,-0.26416
-0.039415,-0.36409,0.0023031,-0.026555,-0.035732,-0.017581,7.0606e-05,-0.21877
0.24447,0.14343,0.077641,0.072086,0.040963,0.068569,0.04065,0.41975
-0.29744,-0.055692,-0.022608,-0.026341,-0.016305,-0.026654,-0.054365,-0.1388
0.34531,-0.098998,-0.0010961,-0.00088987,0.011705,0.025131,0.03545,-0.074722
0.041426,0.31595,0.072877,0.024201,0.016187,-0.010001,-0.079919,0.12748
-0.13103,-0.51481,-0.041408,-0.0049948,-0.0023281,0.0091187,0.053642,-0.07876
0.0060382,0.38454,-0.068772,-0.009707,0.011233,0.067411,0.10137,0.088393
0.082674,-0.042704,-0.085583,-0.005119,-0.013265,-0.053392,-0.0058865,0.035944
0.17369,0.41013,0.042435,-0.0066673,-0.02118,-0.07948,-0.11876,-0.27442
-0.63028,-0.46723,0.097415,0.040267,0.018504,0.012829,-0.033529,0.01724
0.40295,0.20591,0.063821,-0.0052295,0.042936,0.090829,0.12497,0.25496
-0.13371,-0.16079,0.02683,-0.010777,-0.034189,-0.025205,-0.010733,-0.10045
0.07297,0.091145,0.063085,0.015322,-0.010038,-0.022941,-0.0037674,0.067663
0.18914,0.34672,-0.20432,-0.068013,-0.0019304,0.042658,0.02777,0.071005
-0.67277,-0.67977,-0.066378,-0.011144,-0.033247,-0.063121,-0.12808,-0.20847
0.74846,0.27489,0.069037,0.060703,0.021243,0.026557,0.043344,0.13484
-0.19246,0.062349,-0.01002,0.014617,0.0056257,0.0066819,0.025605,-0.0164
-0.15731,-0.4477,0.032076,-0.01658,0.006179,0.0098037,0.075983,-0.20084
0.26903,0.56936,0.094115,0.060957,0.030952,-0.034577,-0.094821,0.15281
-0.23404,-0.49854,-0.06524,-0.072933,-0.029379,-0.0093925,-0.0023682,-0.07915
-0.027509,0.33781,-0.069865,-0.058686,-0.018739,0.0071588,-0.021344,-0.067316
0.081351,0.23037,0.018896,0.041393,0.039049,0.046279,0.059683,0.18134
0.058144,-0.053654,0.037944,0.024353,0.0028337,0.01418,0.069431,0.12784
0.25907,-0.11638,0.019133,0.015307,-0.0029453,-0.05009,-0.13212,-0.18171
-0.49045,-0.23362,0.0016829,0.022096,-0.017822,0.025371,0.072752,0.079232
0.057807,0.29424,0.00094202,-0.010017,0.020434,0.021928,-0.026442,0.096179
0.17666,0.11962,0.0084918,-0.042069,-0.044422,-0.075817,-0.038782,-0.25783
-0.063027,-0.28416,-0.015491,0.0039596,-0.01679,0.01373,0.028059,0.17988
-0.15189,-0.28644,-0.0092195,-0.0048055,0.0022873,0.0019354,0.025629,-0.11455
0.25591,0.1433,-0.020062,0.0097655,0.029071,0.02987,0.047529,-0.030984
-0.16556,0.052455,-0.0638,0.00087152,0.025113,0.0041624,-0.039292,-0.059726
0.062003,0.30177,0.070704,0.023321,0.014321,0.0031685,-0.031972,0.036261
-0.029151,-0.1149,-0.030118,-0.03213,-0.018689,-0.027767,-0.04792,0.12711
-0.087407,-0.024235,0.056279,-0.0091265,0.0042085,0.020555,0.061174,0.020183
0.49584,0.12152,0.041537,0.037699,0.0046906,0.022783,0.037489,0.0064143
-0.42131,-0.3024,-0.081526,-0.016661,-0.040989,-0.029346,-0.048564,-0.046238
0.23806,0.28182,0.086004,0.062117,0.0231,0.019956,0.0063217,0.049273
-0.2298,-0.24362,-0.072754,-0.038534,-0.014235,-0.025003,-0.0085821,-0.075797
-0.011953,-0.012193,-0.018595,-0.060851,0.0031142,-0.0082018,0.016289,-0.072274
0.1042,0.48345,0.014098,0.0029696,-0.010826,-0.02344,0.010737,0.12731
-0.31615,-0.65523,-0.092015,-0.011105,-0.016958,-0.0080986,-0.056484,-0.097108
0.089495,0.18141,0.13152,0.076649,0.055071,0.10056,0.072308,0.13471
-0.14483,-0.021616,-0.018855,-0.022831,0.0021339,-0.0096925,-0.025023,-0.14788
0.20901,0.16628,0.081297,0.0028856,-0.011786,-0.096383,-0.020711,0.10876
0.60392,0.26178,-0.021756,0.013029,0.0053519,0.051634,0.045777,-0.12663
0.053379,0.19573,-0.086395,0.015219,0.022128,0.036055,-0.005628,0.20942
-0.29003,-0.72596,-0.073981,-0.053231,-0.055343,-0.049319,-0.058029,-0.076509
-0.54007,-0.19737,0.054332,0.0028707,-0.0005367,0.014238,0.036861,-0.052176
-0.060198,0.32939,0.040734,0.0038175,0.0069402,-0.0077329,-0.025629,-0.23814
0.076322,-0.11398,-0.020854,-0.019049,-0.024907,-0.013802,0.020293,0.1262
0.2275,0.23762,0.072951,0.020372,0.036989,0.011484,-0.036033,0.15248
0.26861,0.21045,-0.036965,0.0050686,0.020995,0.028854,0.10259,0.17021
-0.13466,-0.05018,-0.037894,0.0054656,-0.010229,-0.032235,-0.071327,-0.17972
-0.057927,0.014094,0.02342,0.0059339,-0.0097804,0.038914,0.0049501,-0.038701
0.040747,0.00049182,0.0064188,0.006333,0.0066004,-0.015728,0.01126,0.13066
-0.28899,-0.54779,0.036131,-0.0092157,-0.016011,-0.040073,-0.067984,-0.18159
0.06447,0.28896,-0.098362,0.0058603,0.015834,0.036125,0.071838,-0.024591
0.26654,0.22158,-0.0064131,-0.0033905,-0.0075375,-0.029275,-0.05379,-0.072212
-0.14351,-0.50565,0.077628,0.0019564,0.0074031,0.037343,0.14871,0.34591
0.10681,0.4081,0.028773,-0.001484,0.021508,0.0019003,-0.063006,-0.1383
-0.023559,-0.18046,-0.067062,-0.068137,-0.066704,-0.025829,-0.056161,-0.16573
0.017371,0.23415,-0.0068094,0.029,0.0086411,-0.014131,-0.088473,0.076418
-0.20297,-0.1088,0.029759,0.024837,0.029173,0.04529,0.082491,0.049815
0.25037,0.083371,0.026944,0.037086,0.026583,-0.0033705,0.043014,0.099227
0.039738,-0.13284,0.031607,-0.0041586,-0.022137,-0.042579,-0.050307,-0.15702
-0.39792,0.047137,-0.09679,-0.043995,-0.015094,-0.0096502,0.021509,0.063435
-0.069716,0.019806,0.032603,0.034753,0.0088298,0.032882,0.04754,0.0037604
0.45588,-0.10881,-0.056428,-0.033757,-0.012883,-0.024642,-0.066219,-0.15562
-0.17004,0.24299,0.042791,0.0079146,0.013303,0.059432,0.0078456,0.22638
0.27434,-0.10112,0.0025334,0.01869,0.016686,-0.0046951,0.034658,-0.17045
-0.2626,-0.1608,0.049635,0.01375,0.020199,-0.0069249,0.013462,0.16152
-0.098458,0.14678,-0.026789,-0.030704,-0.047013,-0.034003,-0.048588,-0.11408
-0.13738,-0.18799,-0.031644,-0.013326,-0.0057446,0.022814,0.051232,0.20533
0.3407,0.10015,0.073661,0.026777,0.026477,-0.032114,-0.038657,-0.24017
0.2581,0.22308,-0.024036,0.003786,0.010457,0.012197,-0.020961,0.088112
-0.34661,-0.19217,-0.05204,-0.043,-0.030265,0.015547,0.027021,-0.028755
-0.256,-0.12733,-0.050114,0.0038878,-0.017252,-0.052584,-0.073299,-0.18453
0.10595,0.021963,0.035892,0.0040667,0.0030904,0.027461,0.0073746,0.15987
-0.021317,0.0082473,0.096326,0.051419,0.031291,0.030042,0.066913,-0.0034997
0.27308,0.38812,0.053114,0.036554,0.013153,0.010621,0.019981,0.067124
0.079517,-0.22009,-0.077699,-0.056312,-0.011901,-0.014679,0.030705,0.10533
-0.09738,0.12929,-0.10783,-0.016493,-0.012452,-0.022268,-0.065474,-0.030531
0.16181,-0.26699,-0.044016,-0.031751,-0.011978,0.0032785,0.074245,0.041364
-0.15972,-0.1203,0.18527,0.061783,0.043978,0.053658,-0.0044507,-0.13273
-0.42873,0.24864,-0.067247,-0.025022,-0.02463,-0.035865,-0.091795,-0.20123
0.11481,-0.066692,-0.074193,-0.018645,0.00054089,-0.0081976,-0.024636,0.055451
0.091733,-0.082092,0.078771,0.026448,-0.0058697,-0.020215,-0.0065855,0.060666
0.076803,0.20225,0.024026,0.0090122,0.018401,0.029225,0.040468,-0.0040639
0.25411,-0.26095,-0.028648,-0.023726,-0.020458,-0.00065113,0.04661,0.12861
-0.17754,0.17596,0.012739,-0.0011346,-0.012938,-0.02377,-0.018738,0.069222
-0.11458,0.019576,0.036728,0.0067016,0.0021897,-0.00070105,0.001446,-0.10375
0.33376,0.36203,0.033486,0.031123,0.0096837,0.014377,0.02194,0.038839
-0.37309,-0.69688,-0.076642,-0.029497,-0.0057053,-0.024886,-0.05046,-0.11364
0.23075,0.31772,0.010371,0.012125,0.018791,0.045988,0.050184,0.16376
0.032365,-0.001659,-0.056576,-0.024029,-0.010498,-0.022795,-0.043243,-0.02892
-0.22964,-0.11655,0.013186,0.010074,0.015653,0.010899,-0.010564,-0.23179
0.082345,0.18415,0.019077,0.043706,0.034376,0.068636,0.07761,0.2033
-0.21345,-0.24704,-0.1843,-0.095383,-0.087669,-0.12352,-0.083797,-0.12939
0.23355,0.18521,0.11693,0.069085,0.047369,0.035417,-0.0030215,-0.064576
0.079604,0.16264,0.14377,0.036958,0.017084,0.037085,0.053909,0.20404
-0.25267,-0.17181,-0.040263,-0.066768,-0.022636,-0.009536,0.00072292,-0.13446
0.26133,-0.018951,0.056611,-0.015381,-0.0094097,-0.034299,-0.037814,0.17113
0.0056716,-0.15015,0.018515,0.035161,-0.013378,-0.013671,-0.007117,-0.011444
-0.065278,0.022134,-0.048001,-0.00068907,0.020586,0.044874,0.061607,-0.041775
-0.044165,0.24096,0.0022603,0.018141,0.0071939,0.0012307,-0.011129,-0.06918
0.054409,-0.13433,-0.083677,-0.032908,-0.013747,-0.026808,-0.029666,-0.063753
-0.041985,0.12185,-0.018864,0.010609,0.0053557,0.016022,-0.009168,0.15267
-0.17607,-0.21109,-0.046353,0.00053585,-0.0052481,-0.0026454,0.011815,-0.038502
0.19226,0.23159,-0.0094274,-0.023916,-0.029632,-0.059141,-0.083432,0.01009
-0.23293,0.03327,0.10913,0.070072,0.064998,0.10433,0.096036,-0.014651
0.39284,-0.15207,-0.024335,-0.05356,-0.018574,-0.020327,-0.027837,-0.24565
-0.047234,-0.05248,0.0066639,0.019022,0.023739,0.011759,0.060334,0.28613
-0.029689,0.050333,0.032292,-0.0015282,0.0037004,-0.034325,0.00062444,-0.10632
0.015451,0.032011,0.022558,-0.021761,-0.040349,-0.018441,-0.051479,0.03845
-0.41245,-0.26219,0.032437,0.028359,-0.0074005,0.0044014,-0.003049,0.025465
-0.10335,-0.095969,-0.11842,-0.070153,-0.022721,0.0028693,0.035848,0.073603
0.66817,0.46993,0.084224,0.057514,0.023126,0.0083928,0.041399,0.1047
-0.28679,0.077227,-0.0098258,0.020583,-0.0023064,-0.017687,-0.11914,-0.23287
0.23329,-0.047414,-0.058558,-0.017006,0.0031106,0.01111,8.3535e-05,-0.056193
-0.21076,-0.068953,-0.00083055,0.0071464,0.0087597,0.017223,0.048444,-0.11487
0.035896,-0.26244,-0.0092403,-0.032017,-0.0082432,-0.022306,-0.082289,0.16211
-0.11351,0.2062,0.033424,0.037387,0.038398,0.041256,0.10118,0.18975
0.21602,0.12442,0.018513,0.0045172,-0.0074655,-0.018596,-0.040976,-0.0388
-0.32612,-0.40719,-0.005843,-0.021044,-0.01318,-0.014551,0.10093,-0.085197
0.019724,0.12681,-0.069379,-0.023364,-0.002546,0.0061092,-0.067136,-0.15985
0.19338,-0.062042,-0.022187,-0.025506,-0.022912,-0.011867,0.016516,0.12019
-0.16212,0.23826,0.03531,0.027598,0.01899,0.016819,0.022592,-0.018873
0.14263,0.052449,0.13497,0.034694,-0.017858,-0.033468,-0.026729,0.078412
0.046213,-0.016694,0.011173,0.019393,0.022556,0.047667,-0.038767,-0.034456
0.22835,0.10997,0.014948,0.0051285,-0.00045065,-0.0057846,-0.0063654,0.078625
-0.31967,-0.24645,-0.10457,-0.055153,-0.00081788,-0.0064901,-0.031201,-0.044654
0.088132,-0.13997,-0.11394,-0.013323,-0.017347,-0.016865,-0.0034833,-0.0069126
-0.096813,0.039387,0.032916,0.03649,0.0049895,0.010307,0.093229,-0.082077
-0.0087573,0.096815,-0.00045792,0.00016281,-0.003778,-0.018158,-0.036934,0.034779
-0.17987,0.11079,0.074761,-0.0054305,-0.0043157,2.7745e-05,-0.025821,-0.085047
0.24112,-0.051442,0.0085031,-0.011748,0.019141,0.010964,0.056975,0.1069
0.16064,0.07069,0.019483,0.0045606,0.019693,0.015386,0.00087611,-0.082821
-0.31931,-0.13296,-0.033051,0.004461,0.0049737,-0.0017542,0.0011687,0.10544
0.082922,0.09433,0.014694,0.0036958,-0.025309,-0.0010696,0.010637,0.016837
0.21127,-0.029969,0.05297,0.010244,-0.0011742,0.0018352,-0.041557,0.011484
-0.075055,-0.093018,-0.082663,-0.038226,-0.024483,-0.032401,-0.054412,-0.098215
-0.042173,0.060423,0.045056,0.02247,0.013938,0.0050052,0.018472,0.061841
-0.10481,-0.01561,-0.056033,-0.010746,-0.0031681,0.019487,0.012724,-0.01773
0.048903,0.030212,-0.026184,0.018323,0.0023844,0.017915,0.021957,0.012642
-0.0033336,0.026196,0.03374,0.015791,0.0073254,-0.00064969,0.014933,-0.075733
0.01969,-0.02711,0.0074972,-0.01852,0.019704,0.0020662,0.023017,0.058938
0.094945,0.0039319,-0.0023136,0.0011743,0.00073031,0.0099393,0.0073218,0.0088912
-0.042337,-0.020303,-0.0025447,0.0045186,-0.018067,-0.031818,-0.047565,0.054528
-0.12532,0.0028008,0.038797,-0.0083409,0.0026483,-0.036923,-0.016408,-0.08544
0.058367,-0.0038942,0.020593,0.0098616,-0.014991,-0.0046244,-0.03179,0.035119
-0.13832,-0.00052602,0.0054901,-0.010542,-0.00044286,0.019239,0.031484,0.011569
0.28576,0.029043,-0.022229,0.0016093,0.015223,0.012359,-0.0061756,-0.044499
-0.090582,0.0068481,-0.00030049,0.000378,-0.0069531,0.022618,0.07394,-0.075882
