0.018995,0.059583,0.01841,-0.02071,0.0099489,0.024775,0.039709,-0.11006
-0.16731,-0.044219,-0.0030003,0.0052029,-0.022032,-0.01387,-0.051689,0.062341
0.20774,0.040785,-0.0062646,0.0090697,0.033598,-0.020519,-0.0028343,0.17489
-0.11157,-0.029955,-0.008745,-0.0016286,-0.010603,0.0045438,-0.001513,-0.0074709
-0.021761,0.078489,0.11265,0.027233,0.017001,0.021887,0.022305,-0.032881
0.22871,0.02917,0.067155,0.016838,0.0065338,-0.0079273,0.0059024,-0.10601
-0.062187,-0.1162,-0.21673,-0.049127,-0.01142,-0.030515,-0.003945,0.068539
-0.096977,-0.022061,-0.067549,0.00066534,-0.006313,0.00864,-0.022796,-0.0024146
-0.23497,-0.024193,-0.01615,-0.029404,-0.025632,0.00015135,-0.011338,-0.15506
-0.046929,0.026495,0.016653,-0.0065375,-0.0072928,0.0066716,0.0074172,-0.04503
0.45052,-0.0096124,0.086959,0.03046,0.0016665,0.012859,0.034027,0.34471
0.091823,0.087365,0.10241,0.019543,0.048206,0.019076,0.0066072,-0.32762
-0.34363,-0.04095,0.048441,0.0081349,-0.023639,-0.04461,-0.050821,0.38541
0.040597,0.043595,0.0037421,-0.0032271,-0.018154,-0.0059923,-0.02061,-0.38923
0.14108,-0.033801,-0.13313,-0.037539,0.0025916,0.010158,0.042801,0.099807
-0.098228,0.039112,0.012686,0.022688,0.023351,0.01954,0.014392,0.13431
-0.021735,0.0039385,0.034782,0.060421,0.036582,0.014243,0.018856,-0.11435
-0.12148,-0.077568,-0.14494,-0.072759,-0.043513,-0.029444,-0.022492,0.047612
0.025289,-0.026438,-0.034032,-0.025366,-0.021599,0.0052584,0.022431,-0.15569
0.091757,0.039595,0.078868,0.03839,0.024138,0.016308,-0.02685,0.42113
0.071558,0.034296,0.04568,-0.022312,-0.023595,0.0032356,-0.030424,-0.45176
-0.018467,-0.04239,0.053957,0.018851,0.030409,-0.010895,-0.012272,0.19928
0.08024,-0.018479,0.040776,0.013157,-0.0014297,-0.01067,0.042929,0.34871
-0.085274,0.051518,0.067706,-0.00064879,-0.0097725,-0.027349,-0.028934,-0.62149
-0.0075519,-0.011956,-0.11656,-0.0072771,-0.0024249,0.0017572,0.037944,0.18782
-0.10921,0.056743,-0.075957,0.024214,-0.0027844,0.053555,0.04862,-0.049263
0.022862,-0.070612,-0.053907,-0.047029,-0.018611,-0.019961,-0.090152,0.16289
-0.026356,0.019858,0.050338,0.028899,0.012633,-0.015229,0.01284,-0.062221
0.07822,0.054551,0.049034,-0.013552,0.044081,0.036877,0.045718,-0.15802
0.13287,-0.068136,-0.0028001,-0.010056,-0.018058,-0.011816,-0.037787,0.15225
-0.04233,-0.01209,0.036263,0.016373,-0.0097945,-0.028365,-0.018395,0.026838
0.1076,-0.0034439,-0.0045456,-0.0040426,-0.0093401,0.010663,-0.012905,0.12228
-0.31491,-0.0024812,-0.061509,-0.016047,-0.0089533,-0.0042251,0.033565,-0.18783
0.10573,0.0072032,-0.008477,0.027752,0.014773,0.0048876,0.066283,0.35935
-0.19881,0.010746,0.046105,-0.0050761,-0.00063761,0.0064909,-0.079095,-0.31002
0.2971,-0.014701,-0.014339,-0.0049638,-0.0082416,0.0081231,0.034448,-0.12919
-0.28739,0.040537,0.052617,-0.0031888,-0.00012907,0.0017271,6.3243e-05,0.031757
0.13496,0.067043,0.0046758,0.015635,0.0081721,-0.0050579,-0.026609,0.13209
0.4317,-0.037103,-0.080436,-0.027024,0.0011067,-0.027926,-0.0070188,0.11688
-0.21822,-0.014663,0.062329,0.055829,0.025572,0.026925,0.027263,-0.45027
-0.11328,-0.10849,-0.10674,-0.041014,-0.02784,-0.0044061,0.021463,0.31559
-0.068127,0.016729,0.04453,-0.013316,-0.018589,-0.020118,-0.063327,-0.09077
-0.0615,0.016693,0.02342,0.013606,0.0063251,0.0034829,0.0076057,0.083128
0.053216,0.03941,0.001386,-0.015085,0.023318,0.019729,0.00031686,0.15944
0.15764,0.068898,0.11099,0.017806,-0.0068228,-0.010349,0.024585,-0.10314
-0.18625,-0.043598,-0.077532,-0.036027,-0.0061057,-0.00087499,-0.028701,-0.079799
-0.072172,-0.0014943,-0.032762,0.050162,0.025373,0.032303,0.074872,0.025204
0.24235,-0.00034551,0.019116,0.010918,-0.013989,-0.012733,-0.0086529,-0.024279
-0.25022,-0.087178,-0.14788,-0.067724,-0.030415,0.0042242,-0.014063,0.12907
0.25483,0.01925,0.052845,0.025166,-0.0081872,-0.042215,-0.074689,-0.35267
0.18686,0.10817,0.1063,0.062925,0.037211,0.019551,0.051163,0.18511
-0.28285,-0.038805,0.044156,-0.024915,0.01219,0.025379,0.066277,0.16321
-0.10024,-0.0070671,0.0071719,-0.01975,-0.020606,-0.0324,-0.11538,-0.13753
0.10933,0.016577,-0.0048462,0.00024243,0.0014219,0.010633,0.02982,0.064432
0.017923,-0.060841,-0.11735,-0.019524,-0.015443,-0.024692,-0.028921,0.051385
-0.10797,-0.082298,-0.080961,-0.0084533,0.0068924,0.01065,0.084028,0.0047576
0.076957,0.070048,0.095885,0.0026473,0.013654,0.015645,-0.036891,-0.1356
-0.0033758,0.12317,0.092309,0.014316,0.02817,0.014139,-0.00043932,0.047106
-0.042052,-0.047854,0.025088,0.019278,-0.02778,-0.0014903,0.021931,-0.17873
-0.013585,0.0020219,-0.090372,-0.013285,-0.013607,-0.01568,-0.039952,-0.084236
0.10698,0.014413,-0.035323,0.026254,0.016057,0.025959,0.0090539,0.38657
0.10165,-0.073935,0.018562,-0.010518,-0.032384,-0.041111,-0.026838,-0.086818
-0.068783,-0.029437,-0.029914,-0.022241,0.01318,0.032547,0.070417,-0.04536
-0.24903,-0.032481,0.015003,-0.0093049,-0.018861,-0.019246,0.01093,-0.023864
0.30147,0.12735,0.1303,0.035584,0.027975,-0.017253,-0.018595,0.36358
-0.17713,0.027907,-0.089956,-0.036582,0.021003,0.030437,-0.02658,-0.41156
0.078613,-0.026174,0.01063,0.023643,0.022713,0.022192,0.010128,0.1697
-0.23026,-0.11283,-0.067965,-0.0029591,-0.037367,-0.049652,-0.088034,-0.075156
0.39443,0.041778,0.0022181,-0.015162,-0.026697,-0.0050801,0.062274,0.1268
-0.21277,0.02411,0.033444,0.01812,0.0075206,0.015734,0.032214,-0.27697
-0.021498,0.03009,0.10363,0.010973,0.025909,0.021091,-0.01314,-0.17252
0.10073,0.044685,0.06426,0.0026687,0.012605,-0.01982,-0.018118,0.25879
-0.13492,-0.080062,-0.11577,-0.0064266,-0.0247,0.010501,0.018051,-0.28901
0.27234,-0.062619,-0.11572,-0.039278,-0.0078696,0.010618,-0.021408,0.25989
-0.43407,-0.035793,-0.11468,-0.056325,-0.038339,-0.035166,0.043172,0.22907
0.27084,0.16415,0.10678,0.091292,0.055965,0.036952,0.0082174,0.22816
-0.15805,-0.041557,0.041289,0.0053856,-0.021622,-0.039046,-0.048939,-0.16749
0.35909,0.064904,0.11071,0.02972,0.049368,0.072329,0.026968,-0.1115
-0.21522,-0.056557,0.02533,-0.046882,-0.035698,-0.0434,0.000575,-0.26648
0.042174,0.022812,0.08081,0.032951,0.0043653,-0.011531,0.019512,0.2208
-0.18812,-0.041349,-0.068178,-0.020382,-0.018113,-0.0040504,-0.057318,-0.052653
-0.061873,-0.053829,-0.1263,0.0035526,0.021627,-0.0052385,0.035659,-0.15924
0.26468,0.0092909,-0.047756,-0.012779,-0.0016688,0.00081179,-0.044939,0.097093
0.048821,-0.015054,-0.067262,-0.061674,-0.025717,-0.016747,-0.0093507,-0.022528
-0.21827,-0.0083488,0.073526,0.044512,0.035291,0.051892,-0.005145,-0.28643
0.1651,0.077657,0.086798,0.0014433,-0.029591,-0.019474,0.085712,0.60026
-0.01362,0.0097327,-0.025786,0.020525,0.01413,0.011557,0.013864,-0.22427
-0.068518,0.038564,0.010876,0.0084794,-0.0051809,-0.019045,-0.056307,0.22048
-0.055521,0.00021122,0.0027548,0.028195,0.014367,0.037011,0.062652,-0.23546
0.22782,-0.027612,0.044236,0.0017963,-0.012786,-0.015861,-0.067122,0.07164
-0.35126,-0.11603,-0.1226,-0.094054,-0.015958,-0.037369,-0.016518,-0.33711
0.34079,0.062057,0.079587,0.021868,0.0051629,0.019046,0.026311,0.37043
-0.27283,0.052507,0.10275,0.052575,0.042968,0.0047044,0.013889,0.07252
0.098529,-0.059614,0.0081675,-0.025531,-0.035287,-0.033657,-0.022984,-0.1104
-0.10612,-0.0014768,-0.08789,-0.0016924,-0.010931,0.013305,-0.014246,-0.096229
0.23927,0.046927,-0.10756,0.0067313,0.029887,0.051887,0.01663,0.12803
-0.19317,-0.015975,-0.050325,-0.00041114,-0.0068825,-0.035001,0.015108,-0.34502
0.072508,0.013187,0.045938,0.00019893,0.011236,0.018384,0.012727,0.031711
0.18326,-0.044841,-0.028138,-0.022769,-0.01763,-0.014398,-0.021389,0.11888
-0.073867,0.044864,0.072691,0.016584,-0.0077759,-0.0004112,0.014726,0.13703
0.04906,-0.013981,0.09157,0.024508,0.0016196,-0.0098383,-0.034788,0.21297
-0.3324,-0.025503,0.020789,-0.01458,-0.012881,-0.0034819,0.025722,-0.13616
0.17946,0.049833,0.078253,0.0087725,0.0035021,0.0031678,0.0012026,-0.010809
-0.02433,-0.029824,-0.073587,-0.030328,0.019657,0.025854,0.016803,-0.13662
0.010855,-0.014312,-0.06953,-0.014575,-0.0033528,-0.029091,-0.060273,0.081118
-0.19709,0.026031,-0.028642,0.032703,0.02048,0.010229,0.019846,-0.067231
0.17467,0.012867,-0.061642,-0.0056179,-0.018233,0.0031448,-0.00093179,-0.22061
0.073647,-0.077624,-0.067527,0.0032642,-0.0023919,0.0042254,0.041047,0.083856
0.12623,0.058731,0.071131,0.0045582,-0.0024488,-0.0023284,0.020293,0.13702
0.028008,0.015093,0.050489,0.0058862,0.0048907,-0.008909,-0.016811,0.33854
-0.32345,-0.0059953,0.043538,-0.016436,-0.011725,0.015532,-0.015975,-0.47549
0.14825,0.034046,0.098214,0.023279,0.010182,0.00052353,-0.0086545,0.021973
-0.027864,-0.021321,-0.02691,-0.00797,-0.0074343,-0.030586,-0.041678,0.10205
0.052281,-0.086168,-0.13614,-0.024313,0.0059226,0.0081442,0.01026,0.19903
-0.073941,0.035116,0.036221,0.021217,0.01146,0.015251,-0.00076927,0.16102
0.030128,0.038436,0.013536,-0.01175,-0.013938,0.0065386,0.019585,-0.14777
0.27093,-0.0050952,0.014553,-0.013456,0.0003632,0.00568,0.10314,-0.2056
-0.41283,-0.016479,-0.0073759,0.00091732,-0.023489,-0.033945,-0.11689,-0.17643
-0.066048,-0.026169,-0.020463,0.0083337,0.02404,0.012896,0.00029614,0.0041984
0.173,0.067962,-0.03952,0.0012472,0.010147,0.013564,0.048374,-0.011891
-0.084153,-0.030739,0.022322,0.010963,-0.018467,-0.031872,-0.02765,-0.033288
0.26546,-0.025585,-0.068504,0.013856,0.0081709,0.009345,0.013951,0.24016
-0.15288,0.020336,0.039976,0.017336,0.027092,0.035458,-0.0070234,-0.033712
0.18327,0.098296,0.16004,0.013051,-0.0012811,-0.00072438,0.041775,0.41001
-0.1891,-0.14437,-0.10769,-0.069874,-0.022724,-0.0058429,-0.058728,-0.24419
0.29761,0.0099604,-0.0070408,-0.020962,-0.0063016,-0.019363,-0.011783,0.14756
-0.20305,0.13847,0.14744,0.042328,0.0088328,0.013062,-0.0048122,0.15064
-0.38845,-0.11885,-0.021323,-0.012854,-0.024036,-0.033779,0.0014941,-0.66844
0.31853,0.011243,-0.10874,0.016801,-0.0029663,0.011944,0.023093,0.079402
-0.19911,-0.064721,-0.092253,-0.016795,-0.0055625,0.025353,0.091561,-0.2373
0.13799,0.075813,-0.042022,0.011782,0.015589,-0.01672,-0.11317,0.22142
0.089481,0.0041298,0.043054,0.024827,0.037488,-0.0045479,0.034022,-0.11683
0.040127,-0.0052398,0.024138,-0.0085669,-0.0021295,-0.00024857,-0.037184,0.31646
0.12433,0.01749,0.043887,-0.002239,-0.0017107,0.019962,0.048113,0.30736
-0.25071,-0.051853,0.0025207,-0.034223,-0.023994,0.001667,0.0085343,-0.14171
0.040244,0.084129,0.11213,0.020449,0.0087458,0.01535,0.023667,-0.085952
-0.018829,-0.074383,-0.025357,-0.025858,-0.01332,-0.040475,-0.086187,-0.075493
0.15719,0.034982,0.050596,0.037586,0.0031553,-0.0017499,0.0072041,0.040699
-0.1827,0.021236,-0.067105,0.023039,0.018853,0.014277,0.030612,-0.0012039
-0.070736,-0.037986,-0.098136,-0.022866,-0.013162,-0.0081161,-0.054764,-0.22238
-0.02333,-0.010379,-0.035326,-0.01439,-0.014615,0.016889,0.055993,0.091883
0.2637,0.041125,-0.0038057,-0.029779,-0.016442,-0.012409,0.019246,0.096025
0.040201,-0.055662,-0.010998,0.032505,0.013015,0.0054016,0.022431,-0.021832
-0.12323,-0.011861,0.014136,-0.0071457,0.019472,0.0076579,-0.051888,-0.21199
0.18042,0.0083664,0.033284,0.023311,0.0032331,-0.013617,0.053708,0.1315
-0.47725,0.036205,0.14846,0.022545,0.019134,-0.0038885,-0.059671,0.12315
0.13989,0.02469,0.0080315,-0.056053,-0.010982,-0.0023469,-0.025257,-0.091477
0.20572,0.075253,0.0019966,0.014346,0.0064566,0.053423,0.039463,0.31191
-0.059051,-0.046635,-0.058192,0.023034,0.00087221,-0.031919,0.032794,-0.34392
-0.020112,-0.12235,-0.18936,-0.061094,-0.051444,-0.039588,-0.045228,0.027668
-0.16119,-0.026961,0.037127,-0.0036432,-0.017896,0.0070727,-0.06162,0.16785
0.025061,0.098943,0.11276,0.078049,0.054513,0.037881,0.10105,-0.21489
0.42758,-0.041431,-0.033021,-0.011657,0.0016716,-0.032965,0.01333,0.024448
-0.15946,0.044184,0.029681,0.00019405,-0.0045426,-0.0022357,-0.074588,0.069438
-0.08317,-0.003564,-0.10489,-0.035403,-0.018811,0.036363,0.056144,0.080264
-0.018814,0.065271,0.11081,0.037257,0.013528,0.012493,-0.00070143,-0.047985
-0.18013,0.031838,0.08365,0.022459,0.029902,-0.0036099,0.0048566,-0.091139
0.14215,-0.13518,-0.068623,-0.03308,-0.016677,-0.035473,-0.044376,0.035589
0.088412,0.025214,0.029375,-0.019845,0.014295,0.010592,0.0079009,0.28556
-0.2151,-0.11177,-0.16118,-0.093672,-0.064772,-0.029472,-0.0022412,-0.47246
0.195,0.094853,0.023862,0.05072,0.019544,0.0084733,0.0035249,0.14696
-0.33439,0.02052,0.0063189,0.046755,0.032939,0.0073718,-0.0058229,-0.12632
0.31723,0.048406,0.075022,0.027703,-0.016612,0.029864,-0.0066589,0.031333
0.043322,-0.04787,0.01081,0.01718,-0.0038814,-0.0098833,0.024541,0.31029
0.12709,0.036321,0.055311,-0.00058351,0.016701,0.0053509,0.056474,0.18124
-0.19626,0.01945,0.0048035,0.0052694,-0.0014889,-0.01042,-0.028243,-0.22219
-0.083238,-0.098893,-0.10211,-0.043872,-0.026996,-0.010437,-0.073653,-0.32996
0.12127,0.071522,0.03911,0.023488,0.018445,0.0051518,0.029299,0.23183
-0.24069,0.014841,-0.0086699,-0.042745,0.017706,0.036213,0.014717,-0.10097
0.28206,-0.050142,-0.072682,-0.031353,-0.021421,-0.042332,0.023078,0.013578
-0.077975,-0.021495,0.0046811,0.0036147,0.01035,-0.0039191,0.0075184,0.1127
0.013553,-0.047014,-0.009368,-0.0072957,-0.019929,-0.020335,-0.039598,0.054162
-0.11639,0.077219,0.089793,0.053961,0.020391,0.033577,-0.039845,-0.10089
-0.070007,0.023836,0.037588,0.023937,-0.0094793,0.0095688,-0.016306,-0.095616
0.34788,0.0043034,-0.095361,0.0043754,0.0074992,0.017191,0.070381,0.2569
-0.065502,-0.043739,-0.012776,-0.01289,-0.0069196,-0.021551,0.0094286,-0.33254
-0.090609,0.012194,0.08073,0.002541,-0.01376,-0.028475,0.027332,0.28476
-0.17947,0.030698,0.057985,0.010416,0.025988,0.019834,-0.016825,-0.10928
0.036347,-0.012791,-0.044442,-0.037433,-0.020506,-0.0095333,-0.014116,-0.029322
0.11272,0.075749,0.099226,0.06881,0.034268,0.039514,-0.0041031,-0.021045
-0.043263,-0.11117,-0.1768,-0.085636,-0.028402,-0.005098,0.012802,0.10436
0.013997,-0.019858,-0.084224,-0.032182,0.0024891,-0.042022,-0.057374,0.020064
-0.036237,-0.0024388,0.017976,0.018659,0.0020283,0.0066627,-0.019297,-0.17119
0.28152,0.0034873,0.014041,0.01311,-0.0062419,0.023591,0.033525,0.11747
-0.12801,0.060787,0.078007,0.038307,-0.00659,-0.038248,0.01554,0.0038511
0.10862,0.068633,0.095106,0.0017246,0.024511,0.031992,0.052162,-0.02747
-0.36914,-0.065754,-0.034038,-0.009694,-0.0066387,0.015516,-0.059404,-0.16423
0.024237,-0.099132,-0.11258,-0.026608,-0.014102,-0.0095446,0.040394,0.28038
0.093963,0.016368,-0.014866,0.021371,-0.0057556,-0.0040587,-0.0078161,-0.030634
-0.12735,0.047176,0.094715,0.032258,0.018285,-0.0069454,-0.0088565,0.010814
0.22937,0.048505,0.090057,0.013054,0.010992,0.0054589,-0.025432,-0.24506
0.041105,0.083064,0.016439,0.0018184,0.019089,0.0022058,-0.010861,0.10685
-0.034245,-0.11486,-0.096548,-0.064917,-0.035663,-0.039794,0.034744,0.07359
0.0042913,-0.022104,-0.07833,-0.0081824,-0.012679,0.0048054,0.0020164,0.13149
-0.10094,-0.0062484,-0.015463,-0.00017761,0.0021549,0.026908,0.016092,-0.10188
-0.0068362,-0.020792,-0.040564,-0.0017295,-0.01446,0.011045,-0.06342,-0.12558
0.050948,0.043325,0.026963,0.003269,0.031416,0.035336,0.0059407,-0.18825
0.016026,-0.0016398,0.032197,-0.0079147,-0.0084641,-0.033197,0.036917,0.4147
-0.082188,0.00036509,0.070227,0.051398,0.014476,-0.0073459,-0.032853,-0.47174
0.082737,-0.0055364,-0.014234,0.0099327,-0.0012778,-0.020278,0.062238,0.48122
-0.060818,0.066395,0.09163,0.024286,-0.0010854,-0.0020289,0.0016855,-0.12499
0.11926,-0.065286,-0.034453,-0.046118,0.0071126,0.00024384,-0.019528,0.10707
0.083946,0.044588,-0.018465,-0.0061681,-0.0080986,0.041043,-0.0096154,0.074191
-0.21281,-0.02589,-0.041375,-0.020288,-0.023435,-0.012519,-0.031463,-0.2959
-0.11327,-0.065642,-0.073177,-0.01857,-0.015556,-0.035419,-0.03067,-0.044108
0.11889,0.066294,-0.0054021,0.068957,0.046767,0.034943,0.062937,-0.10928
-0.076847,-0.020199,0.020936,-0.01573,-0.0004709,-0.0044091,0.022818,0.30479
0.02767,0.058293,0.10755,0.00075535,-0.00090341,0.0029386,-0.025857,-0.13003
0.15197,-0.14297,-0.10435,-0.068995,-0.048143,-0.0288,-0.035943,0.047732
0.077041,0.11078,0.065734,0.048639,0.037614,0.025488,0.047576,0.15927
0.0047279,-0.047555,-0.076709,-0.028958,-0.024822,-0.013831,-0.0093446,-0.2319
0.042396,0.037961,0.070471,0.049903,0.022332,-0.0061463,-0.034542,0.10965
-0.31219,0.054094,0.04657,0.027396,0.030514,0.040654,0.042504,-0.018164
0.017164,-0.078363,-0.070451,-0.04978,-0.016097,-0.014177,-0.0046663,-0.020489
0.052779,0.03776,0.031414,0.021183,0.0072727,0.0011048,-0.019813,0.025727
0.0055019,0.041861,-7.4206e-05,-0.033547,-0.032375,-0.022978,-0.010866,-0.011028
0.063791,-0.035743,0.006292,0.03566,0.0054934,0.0072851,0.021974,0.050327
-0.020567,-0.078297,-0.082759,-0.02144,-0.035327,-0.017436,0.015959,0.031473
0.0046761,0.0081498,0.021735,0.013867,0.040661,0.012358,-0.044781,-0.51178
0.040256,0.013499,0.031035,-0.006628,-0.0084428,0.010911,0.12862,0.3743
0.033441,0.017228,0.031813,-0.019934,0.020828,-0.0059553,-0.14361,0.11139
-0.2957,0.013171,0.017287,0.005901,0.0037979,0.0088111,0.013542,0.049822
0.33458,0.03423,-0.089517,0.0013743,-0.012405,0.0084598,0.014288,0.18737
-0.091676,-0.066645,-0.021919,-0.0014789,-0.012013,0.00086231,-0.031796,-0.43994
0.11196,0.031749,0.0098711,0.0057664,-0.0028196,-0.013988,0.055164,0.086365
0.037645,0.017177,0.052939,0.01561,0.015067,-0.012715,-0.0060003,0.059887
-0.3399,-0.017001,0.013108,-0.018896,0.0023689,-0.018861,0.019006,-0.037587
-0.07719,0.014198,0.045573,0.01115,-0.0021481,0.022119,-0.018514,0.10491
0.29289,5.9547e-05,0.00036661,0.0033642,-0.022265,0.008494,0.013856,-0.20816
-0.059136,0.056293,0.055454,0.050451,0.027603,0.018197,-0.0015029,0.10236
0.084453,-0.060643,-0.10322,-0.043993,-0.016928,0.011976,-0.0024347,0.14805
0.17607,-0.015815,-0.062661,-0.0074825,0.015764,-0.0025156,0.018735,-0.15403
-0.30025,-0.067547,-0.065359,-0.028157,-0.015102,-0.056614,-0.070661,0.035415
-0.10226,-0.0048972,0.053229,-0.0046751,0.0076306,0.005943,-0.020182,0.094653
0.10646,0.063188,0.0677,0.031929,0.029373,0.02121,0.030212,-0.47362
0.23308,0.020202,-0.020389,-0.050568,-0.043396,-0.010616,0.018774,0.44954
-0.39305,-0.00030823,0.04058,0.022089,-0.015031,-0.0033727,0.00086409,-0.080636
0.2685,0.11166,0.041024,0.055459,0.021113,0.027503,0.070668,0.20863
-0.085592,-0.10438,-0.026001,-0.0122,0.0029307,0.0039853,-0.037338,-0.028055
0.030235,-0.0075585,-0.043021,-0.0084987,0.0088817,-0.019263,-0.042165,-0.07413
0.13253,-0.0039575,-0.041552,-0.011341,0.00011752,0.012302,-0.0068684,0.005744
-0.098382,-0.054387,0.02459,0.010464,0.00013742,0.0047022,0.044382,-0.43849
-0.076162,0.036636,0.052917,0.0097836,-0.0067788,-0.018877,0.032706,0.24081
-0.058388,0.019338,0.058095,0.0018955,0.018206,0.0038517,-0.073771,-0.026566
0.11132,-0.035734,-0.10912,-0.036955,-0.018966,-0.0053442,0.029263,0.1741
-0.06698,0.043465,-0.0039281,0.0024094,-0.0014288,0.008254,-0.048881,-0.10168
0.19573,0.030405,-0.0015033,-0.0050481,0.0080333,0.0057648,0.012344,0.11537
-0.16325,-0.05164,-0.023584,-0.012341,-0.014212,-0.020318,-0.020985,-0.034161
-0.13648,9.5445e-05,-0.01516,0.035412,0.0098761,0.00069905,0.054807,0.074026
0.24413,0.021031,0.031919,-0.010035,-0.013431,-0.0011114,0.029288,0.22786
0.0011439,0.026205,0.063166,0.015474,0.0097182,0.021441,0.02001,-0.44109
-0.28064,-0.047429,0.023867,-0.013113,-0.014281,-0.0095871,-0.050986,-0.10559
0.26469,0.065359,0.054417,0.036803,0.031904,0.023004,0.003783,0.195
0.15143,-0.073095,-0.048611,-0.014787,0.0077642,-0.013762,-0.03458,-0.29668
-0.30128,-0.025189,-0.019769,0.0036382,-0.0085025,-0.010813,0.013406,0.53759
-0.063093,-0.0015265,-0.11674,-0.033201,-0.02467,0.00021088,0.0069101,-0.1133
0.16243,0.0061687,-0.065561,-0.0082421,0.0061592,0.0032849,-0.0073597,-0.17762
-0.05434,0.060863,0.064319,0.0082686,0.005887,0.013689,-0.0060824,0.048917
0.052849,0.045701,0.10983,0.00094539,-0.0020045,-0.015689,0.049733,0.13742
0.047607,-0.070454,-0.076615,-0.037692,-0.0096431,-0.030262,-0.027448,-0.16957
0.017396,0.032569,0.091315,0.033295,0.0064674,0.02469,0.043622,0.034196
-0.075033,-0.012763,0.011856,0.042207,0.015108,0.024309,-0.057337,0.10784
-0.071494,-0.081918,-0.050196,-0.018808,-0.022808,-0.015575,-0.017757,-0.1131
-0.11079,0.082433,0.083551,0.021841,0.0098053,0.0068182,0.014022,-0.089959
0.13667,-0.020108,-0.0415,-0.008187,-0.0044241,-0.025512,0.0068512,0.13778
-0.015822,0.047719,-0.020407,-6.3611e-05,0.020189,0.02037,0.015478,-0.024051
0.22855,-0.073506,-0.096216,-0.024578,0.0052354,-0.0039321,-0.030431,-0.0056251
-0.084335,-0.016438,-0.11292,-0.035131,-0.010484,0.010919,0.048677,-0.018495
-0.018781,0.063005,0.1017,0.015169,-0.011523,-0.013302,-0.028697,-0.0087502
-0.14745,0.0012189,0.07968,0.017276,-0.0057362,0.0013982,0.026174,0.14769
-0.08224,-0.0059579,0.032908,-0.0047787,0.0070042,0.0080242,-0.02925,-0.15953
0.22146,-0.028307,0.071642,0.012259,-0.0042586,-0.0013052,5.8209e-05,0.014023
0.019748,-0.010652,-0.030017,-0.016768,-0.015665,-0.010948,0.0045958,0.097456
0.030454,0.07866,-0.029457,0.041629,0.04358,0.033907,0.078214,0.051583
-0.23866,-0.041327,-0.05923,-0.015207,-0.02919,-0.046207,-0.12248,-0.13094
-0.021197,-0.018883,-0.048806,-0.0073937,-0.0070651,-0.00099863,0.012499,-0.13653
0.051397,-0.041485,-0.013551,-0.044399,0.00075104,-0.0098533,0.0073273,0.098858
0.18395,0.031361,0.00777,0.045297,0.025462,0.044661,0.011218,0.061384
-0.074957,0.011867,0.015417,0.0033322,0.0043114,-0.017029,0.0091717,-0.059844
0.065196,0.063658,0.14229,0.032169,0.022814,0.00032583,0.0015186,0.033123
-0.035147,-0.048191,-0.072733,-0.048553,-0.044531,0.010537,0.019444,-0.10479
-0.047186,-0.011777,0.0026405,-0.0050417,0.0049171,-0.0024234,-0.0078421,0.26008
0.076327,0.047337,0.039509,0.021655,-0.0088949,0.015655,0.028225,-0.11598
-0.19566,-0.08222,-0.033339,-0.038994,-0.0080286,-0.013794,0.0016661,0.077525
0.13698,0.0055527,-0.06829,0.0083111,-0.00028102,-0.0051212,-0.018142,0.2606
-0.081921,-0.0018734,-0.034671,0.0074663,0.01454,0.010369,0.0071877,-0.53667
0.030434,0.044109,0.059504,0.029031,0.013306,-0.029598,-0.078846,0.052942
-0.03399,0.026635,0.050377,0.010786,-0.011449,-0.015183,-0.0025762,0.015304
0.16177,0.016424,0.0010097,-0.0079442,0.018711,0.03078,0.0022763,-0.14684
-0.039432,-0.095474,-0.087796,-0.042559,-0.028807,-0.039576,0.053808,0.48408
0.0096059,-0.0039796,0.050472,0.016507,0.017967,0.024095,0.0045111,-0.16662
-0.13783,0.017776,-0.028686,-0.0024458,-0.020678,-0.0048222,-0.035519,-0.51044
0.055956,0.032489,0.02688,0.049215,0.034821,0.044986,0.090302,0.5317
0.17584,0.063673,0.029935,-0.023588,-0.0032162,-0.0072337,-0.0087653,0.14619
-0.25528,-0.0058803,0.027251,-0.017442,-0.0256,0.016765,-0.020736,-0.12328
0.10641,-0.012186,0.018377,0.0054806,0.014399,0.0060466,-0.040125,-0.14868
-0.097714,-0.1897,-0.17709,-0.079505,-0.047355,-0.0251,-0.01306,0.41595
0.09457,0.10215,0.049334,0.063769,0.039147,0.00069593,0.012916,-0.52068
-0.049512,0.043003,0.06392,0.029104,0.023987,-0.017985,-0.0016318,-0.1033
0.081068,0.0077952,0.029855,-0.011833,-0.0067757,-0.0096165,0.005775,0.28325
