-0.0096076,0.36161,0.097109,-0.036104,-0.031913,-0.073488,-0.15625,0.063025
-0.021504,-0.15118,-0.014696,-0.001919,0.016963,-0.011746,0.017292,-0.13439
0.060892,0.028621,0.0078458,0.0099781,-0.019433,-0.0032374,-0.020274,0.089086
0.0037429,-0.11677,-0.015364,0.030268,-0.0086091,0.053674,0.04356,-0.0082596
0.057377,0.12847,0.25829,0.11295,0.017855,-0.067506,0.0057109,0.035061
-0.043778,-0.043376,-0.32891,-0.17234,-0.026273,-0.046458,-0.024472,0.032046
-0.065562,-0.0019603,0.073242,0.056599,0.022837,0.085428,0.17941,0.029915
0.093178,-0.068971,-0.22356,-0.052154,0.008774,0.030936,-0.17203,-0.072741
-0.013361,-0.1897,0.10093,0.0012884,-0.013864,0.023884,0.077083,0.013121
-0.057498,-0.011177,0.094304,0.076478,0.0174,0.0010604,-0.042372,-0.048571
0.015149,0.35966,0.093798,-0.021477,-0.0067705,-0.06171,-0.046207,-0.015816
-0.037721,-0.066421,-0.055297,0.020517,-0.0081571,-0.0087772,-0.043715,0.064313
0.057386,-0.13816,-0.070277,-0.03124,-0.0022407,0.011113,0.12956,0.011936
-0.058743,0.13099,0.010872,-0.027647,0.0033461,-0.025411,-0.05696,-0.040325
0.059377,-0.12506,0.079306,-0.0072151,-0.022451,0.014898,0.038219,0.047948
-0.01004,0.03111,0.12715,0.069476,0.029925,0.007733,0.0097744,-0.020335
0.014216,-0.034476,-0.33837,-0.094357,-0.019067,-0.053958,-0.10238,-0.05008
0.03823,0.27781,0.11931,0.040148,0.025974,0.010122,0.053963,0.044456
0.014907,0.11419,0.069408,0.050643,-0.014607,0.028352,-0.075569,0.0053255
-0.055928,-0.3867,0.018686,0.045849,0.023246,0.1177,0.24332,0.027797
-0.080558,-0.13244,-0.033659,0.032883,0.014523,-0.034997,-0.17734,-0.052113
-0.019764,-0.053193,0.04475,-0.15288,-0.048563,-0.0010573,0.067869,0.015815
0.056466,-0.0080709,-0.17577,-0.04297,-0.0253,-0.094027,-0.13932,-0.010259
0.039163,0.29264,0.17241,0.034559,0.0063373,0.021218,0.059321,0.0029189
0.030251,0.13071,-0.10526,0.0098015,0.038716,0.031862,0.084572,-0.0066915
-0.0013071,-0.079795,0.031215,0.078688,0.0016784,-0.046141,0.021507,-0.0074488
-0.008623,-0.10525,0.020204,-0.015947,-0.0031478,-0.024319,-0.044465,0.0086875
-0.023121,0.13113,-0.01268,-0.031428,-0.0070917,-0.0027847,-0.066585,0.010459
-0.01384,-0.036235,-0.0047398,0.0011925,-0.0025885,-0.0033345,-0.060182,0.0054077
0.026723,0.039916,0.067181,0.034883,0.0021439,0.061457,0.045694,0.05553
-0.07355,-0.25006,-0.055435,-0.0089588,0.022213,0.036356,0.10345,-0.042937
0.044585,0.079165,0.11082,0.017411,-0.021064,-0.0001865,-0.0032462,-0.0015714
-0.0016933,-0.18889,-0.060024,-0.043004,-0.018818,-0.001717,-0.062712,-0.031796
0.045503,0.058404,-0.045281,0.0044788,0.044211,0.022883,0.10522,0.045859
-0.040283,0.18416,-0.10306,-0.0045701,-0.019633,-0.099742,-0.24147,-0.12005
-0.032402,0.035713,0.040334,0.007959,0.00069248,0.05851,0.13931,0.041194
0.092614,0.36592,0.065312,-0.027903,-0.027266,-0.050629,0.044111,0.08491
-0.040264,-0.29997,-0.058323,0.0056637,-0.0091905,0.017168,0.15223,-0.019475
-0.0092295,-0.1176,0.076783,7.3891e-05,0.02436,-0.0041847,-0.14608,-0.0057554
0.013773,-0.11092,0.049662,0.034242,0.0037653,-0.059959,-0.12444,0.024875
-0.041603,-0.133,-0.068859,-0.016192,-0.0078984,0.037774,-0.048423,-0.060312
-0.026892,0.094939,0.0025012,0.052282,0.028792,0.086535,0.0041101,-0.011513
0.065805,0.17109,0.0055073,-0.025873,-0.0032583,-0.0067264,0.21323,0.061468
-0.0055735,0.052186,0.0097151,-0.0086445,0.0051541,-0.061682,-0.061345,-0.0059963
-0.01434,0.045854,0.084522,-0.00577,-0.016663,0.055039,0.15714,0.012076
0.047414,0.045467,-0.2944,-0.056761,-0.014518,0.015842,-0.2251,-0.017603
-0.046828,0.046415,0.27069,0.064502,0.011086,-0.014605,0.026115,-0.032795
-0.00020266,-0.27495,-0.13472,-0.056424,-0.018394,0.0035415,-0.0035899,0.0055689
-0.015895,0.048801,0.028288,0.017671,0.013965,-0.077167,0.044875,-0.019426
-0.00025302,-0.17639,0.048906,0.060009,0.014326,-0.083728,-0.086501,0.0098788
0.0075356,0.27993,0.052453,0.00012496,-0.0094152,0.078672,0.11782,0.023719
0.069837,-0.09166,-0.069987,0.0097792,-0.017988,-0.050196,-0.1156,0.022581
-0.047846,-0.12724,-0.060074,-0.13767,-0.0033056,0.076577,0.05704,-0.016673
-0.017464,0.27496,0.11399,0.096779,0.034906,0.090928,0.041998,-0.031512
0.020361,-0.37018,-0.2348,-0.02907,-0.012514,0.037878,-0.027961,0.055942
-0.012398,-0.14371,0.26898,0.02386,-0.012632,-0.014937,-0.027958,0.0030279
-0.013979,0.58121,-0.046243,0.075944,0.050193,-0.04721,0.088729,-0.026784
-0.015373,-0.15802,-0.016256,-0.052378,-0.035042,-0.069834,-0.045205,-0.018441
0.022749,0.34468,-0.062894,-0.048394,-0.010632,-0.077509,-0.062575,-0.0036063
-0.032231,0.011837,0.048169,-0.021166,-0.0016787,-0.02488,0.021158,0.017575
0.10101,-0.28178,-0.042527,0.021904,-0.00043401,0.14245,-0.012408,0.0062138
-0.04638,-0.49661,0.016476,0.07347,-0.0069096,-0.0042037,0.048152,-0.021584
0.0097537,0.23718,0.0063112,-0.061331,0.010173,0.060705,-0.031007,-0.010415
-0.027782,0.097077,-0.01849,-0.0071429,0.0039735,-0.073895,0.031821,0.0092973
0.012581,-0.1113,0.027777,-0.013785,-0.0020649,-0.013877,-0.067793,0.030531
-0.033442,0.0061387,0.011961,0.067129,0.023248,0.017807,0.052938,-0.0086087
0.021574,0.094948,-0.0038902,-0.022511,-0.021787,-0.030224,0.010853,-0.0062626
-0.017605,0.13677,-0.035945,-0.033221,-0.02019,-0.030389,0.031871,-0.0093875
-0.0023388,-0.036256,0.063657,0.096837,0.043424,-0.035885,-0.0020352,-0.0028327
0.044189,0.13265,-0.0024955,-0.08616,-0.0030512,0.062798,-0.052699,0.028213
-0.034046,-0.26295,-0.086378,-0.0047035,-0.019153,0.061213,-0.019343,-0.018858
0.028711,0.19656,-0.024151,-0.049853,-0.020555,0.050454,0.011561,0.026712
-0.033177,-0.14876,0.043565,0.082897,0.016273,0.019076,-0.030486,-0.023586
0.053578,0.1579,0.12483,0.010823,0.013444,-0.029148,0.042195,0.024836
-0.015961,0.0036665,0.016988,-0.01574,-0.020883,-0.0042372,0.066061,-0.015821
-0.015512,-0.050939,-0.16992,-0.027513,0.0074506,-0.11216,-0.06749,-0.028162
-0.03125,-0.24792,-0.075741,0.015205,0.0050867,-0.065277,0.025282,-0.011493
0.0070106,0.047982,0.11288,-0.019745,-0.012042,-0.011842,-0.037472,-0.011617
0.021158,-0.19797,0.021727,-0.00679,0.010916,0.034206,-0.020497,0.027411
-0.004275,0.17578,0.081094,0.054467,0.003633,0.067817,0.05346,-0.026015
-0.0065254,0.32292,-0.044609,-0.038942,0.0049803,0.053193,-0.065207,0.032153
0.014729,-0.033806,-0.042845,0.0019367,0.0068148,0.0012956,0.037606,0.085197
0.005122,-0.033001,0.023621,0.036123,0.00092191,0.016217,0.072509,-0.030993
-0.027257,-0.096912,-0.072299,0.0083951,0.0025368,0.0683,0.054485,-0.035686
0.034976,-0.18126,-0.081337,-0.034978,-0.035513,-0.15439,-0.12668,-3.4919e-05
0.02005,0.39724,0.15188,-0.0086251,-0.019627,-0.027208,-0.081265,-0.026561
-0.079835,-0.077329,0.14203,-0.014528,0.034581,0.042509,0.072747,-0.022387
0.055555,-0.070674,-0.18995,0.033039,0.010073,0.021995,-0.0089943,0.019669
-0.050502,-0.18803,0.10045,-0.037792,-0.022617,0.026738,0.10286,0.021175
0.023626,-0.056426,-0.1357,-0.0080794,0.0070465,-0.046478,-0.076127,-0.010044
-0.003628,-0.2073,0.015543,0.04435,-0.0023412,-0.03503,0.016724,0.0044137
0.078287,0.37636,0.023265,-0.028618,0.011773,-0.0025351,-0.055707,0.010289
-0.043548,0.19699,0.099206,0.093607,0.049344,0.089346,0.050843,-0.0075715
-0.01797,-0.016077,-0.09141,-0.088774,-0.030356,0.044994,0.016636,-0.0096927
-0.024985,-0.24471,-0.0081349,0.041558,-0.00084745,-0.057344,-0.071836,0.0042054
-0.010082,0.012876,0.053579,-0.0153,-0.033994,-0.029638,0.0046364,0.018614
0.050183,0.030973,-0.03,-0.024861,-0.01245,0.011811,0.13698,0.017867
-0.015864,-0.02643,-0.00014041,-0.0026022,-0.0062266,-0.056859,-0.041865,-0.021625
0.026528,0.1289,-0.051742,-0.026472,0.00068484,-0.070367,-0.1023,-0.01413
-0.025253,-0.059024,0.010306,0.0052509,0.016459,0.081752,-0.036771,-0.022334
-0.0065528,-0.013481,0.091405,0.037948,0.033502,0.064309,0.068391,0.016139
-0.018342,-0.016882,0.018252,0.024662,0.0049208,0.041624,0.079872,-0.0081215
0.03364,-0.007338,-0.070356,0.027628,-0.0070743,-0.010006,-0.034112,0.029931
-0.037765,-0.039431,0.04236,-0.047321,0.020431,0.041546,-0.04749,-0.0024097
0.0097274,0.059559,-0.051637,0.010258,-0.022589,-0.093661,0.06283,-0.0034432
0.019676,-0.044868,0.044795,0.020217,-0.011768,-0.025814,-0.015762,0.003539
0.015047,-0.022833,-0.020457,-0.088076,-0.025708,-0.028863,-0.025259,0.003053
0.018588,-0.02887,-0.051767,0.0055794,0.0056931,-0.0326,-0.043291,-0.004773
0.0060847,0.11804,0.006711,-0.0033991,-0.003414,0.025747,-0.022258,-0.027645
-0.030987,0.15293,0.00054947,0.057141,0.0098305,0.037287,0.0073824,-0.0029929
-0.038414,-0.35399,-0.029004,0.039133,0.0069023,0.041541,0.069729,0.0066903
0.0071213,0.24485,0.084293,-0.017978,0.011834,-0.015971,-0.053629,0.0091366
0.019973,0.088676,0.006318,0.011146,0.0095304,0.059882,0.090323,0.027598
-0.0070179,-0.18354,0.035113,-0.060731,-0.015264,-0.028352,0.071332,0.0071062
-0.010459,0.0047527,-0.03989,-0.0068506,0.00011327,0.0075417,-0.088065,0.0020077
-0.020662,-0.12896,-0.023813,-0.0067783,0.0087373,-0.067706,0.0017428,-0.011468
0.017831,0.078599,-0.042773,0.0098471,0.0025791,0.026461,-0.11324,-0.049201
0.050756,0.10363,0.096957,0.066423,-0.0030534,-0.022737,0.027437,-0.0019342
-5.3238e-05,0.016414,-0.07517,-0.024691,-0.024127,-0.027565,-0.0059353,0.028808
-0.017931,-0.34702,-0.045283,-0.021549,-0.0062556,0.012711,0.068365,-0.011481
0.019652,0.4509,0.14607,0.0052221,0.011281,0.0054334,0.0011573,0.025902
0.0022025,0.027375,-0.0099737,0.039645,0.012736,0.006512,0.019982,0.0084373
-0.047939,-0.08634,-0.1233,-0.12174,-0.0097329,0.048304,-0.069556,-0.016747
0.001184,-0.061962,-0.022006,0.13798,0.029845,0.014397,0.061344,0.01303
0.00068687,-0.13337,0.075684,-0.087635,-0.032516,-0.024579,-0.055766,-0.019327
-0.033764,-0.010548,-0.02467,0.029474,0.014223,-0.021918,0.03212,0.011195
0.046777,0.034385,0.03736,-0.0028546,-0.0017037,0.029616,0.027614,-0.036074
0.016604,-0.028338,0.020659,0.0030048,0.0057577,-0.0036279,0.0080424,0.041908
-0.021682,0.044734,0.0043099,0.031631,0.0054678,-0.021013,-0.027523,0.0028591
0.0032485,0.12146,0.059405,-0.01046,-0.041542,-0.039017,-0.040892,-0.02832
-0.017162,-0.024923,-0.16504,-0.044833,-0.010219,-0.011428,0.053233,0.010778
-0.01212,0.081039,0.034494,-0.00084789,0.021302,0.037895,-0.050117,0.010697
0.065331,0.015627,0.0097689,0.028059,0.037298,0.0072073,0.02419,-0.044261
0.0039489,-0.15302,-0.0048359,0.0030787,0.014145,0.068402,0.042298,0.056782
-0.00936,-0.075321,0.029511,0.002489,-0.017155,-0.0596,-0.096554,-0.037775
-0.014386,-0.026044,0.018564,-0.028386,-0.0099819,0.014114,0.0069923,0.070496
-0.011809,0.088252,-0.038426,0.011874,-0.027024,-0.046009,0.025672,0.0066386
-0.041169,0.11996,0.037289,0.0057976,0.001977,0.0026802,0.10855,-0.11205
0.0067391,-0.038382,0.08846,0.046751,0.022457,0.027896,-0.080047,0.011467
0.030501,-0.040352,-0.049853,0.0015116,-0.012159,0.022388,0.030098,-0.083542
-0.0085429,-0.0626,-0.096977,-0.052148,0.0079389,-0.0054778,-0.045832,0.20466
0.0073173,-0.055401,0.009453,-0.036324,-0.010505,-0.03958,0.0040176,-0.030061
-0.015178,-0.032282,-0.11303,0.0098843,-0.0045304,-0.0014161,0.046137,-0.0064582
0.018033,-0.062702,0.16917,0.024121,0.010563,0.031092,-0.029445,-0.052745
0.021055,0.34481,-0.049204,0.022296,-0.01198,-0.020213,0.0034531,0.026253
-0.0063713,0.062974,0.045431,-0.026479,0.029273,-0.038445,-0.15216,-0.074281
0.0055568,0.010124,0.094614,0.0344,0.0011461,0.053946,0.12884,0.036202
0.0015053,0.018113,-0.072886,0.0099192,0.012482,0.053025,0.073308,0.021761
-0.034786,-0.34654,-0.089552,-0.021591,-0.015441,-0.026522,-0.044936,-0.031625
0.013394,-0.086535,0.02902,-0.020961,-0.005026,-0.013748,0.032274,0.071413
-0.0025914,-0.023218,-0.014261,0.011825,-0.011304,-0.02659,-0.054151,-0.020653
-0.012307,0.13321,-0.0088675,-0.032678,-0.018734,0.012659,-0.030577,0.01248
-0.054393,-0.036869,0.02902,-0.02181,-0.0036927,-0.020999,0.048413,-0.079236
0.090531,0.29782,0.11436,0.091063,0.010783,0.013494,0.018781,0.04007
0.016916,-0.031207,-0.12858,0.00092716,-0.0060579,-0.070593,-0.14297,0.01095
-0.063683,-0.13034,0.072913,0.012075,0.016555,0.016752,0.14112,0.0052229
0.021016,0.049444,-0.10214,-0.11029,0.0085985,0.081137,-0.0041852,-0.0084065
-0.017942,-0.10017,0.095743,0.063129,0.040429,0.045147,-0.032375,0.0012749
0.045795,-0.063573,-0.12281,-0.0070311,-0.013167,-0.020529,0.071765,-0.028278
-0.0070136,0.033181,0.054615,-0.039683,-0.027598,-0.037748,-0.059369,0.0044292
-0.0051522,0.086677,0.12034,0.097993,-0.0033516,-0.02242,-0.066743,0.013357
0.0038197,-0.030493,-0.12843,-0.046937,-0.018983,-0.021876,0.057262,0.045249
0.0037327,0.093106,0.074493,0.010271,0.026816,0.049328,0.054835,0.006218
-0.013489,0.033135,-0.012377,-0.018917,-0.030022,-0.035769,-0.081623,-0.0022719
-0.032116,-0.032613,0.018074,-0.0088622,0.021693,0.066353,-0.00015487,-0.12086
-0.0047994,-0.066058,-0.12227,-0.068262,-0.020702,-0.074026,0.041952,0.056815
0.0067185,-0.18425,0.051911,0.10819,0.015245,-0.027086,-0.032853,0.023175
-0.051367,0.05155,-0.036725,-0.041545,0.0050959,0.043346,0.065038,0.0051176
0.10301,-0.0753,0.096674,0.060853,0.011792,0.035951,-0.0076757,0.010825
0.040709,0.2893,-0.11819,-0.037848,-0.0035061,0.0055931,-0.039761,-0.0062422
-0.066205,-0.016245,0.17755,-0.033384,-0.0017658,-0.016429,-0.046728,-0.045846
0.039848,0.049102,-0.0093239,-0.020184,0.0011099,-0.014578,0.0104,0.048353
-0.047967,-0.060349,-0.062989,0.047787,-0.010971,-0.028115,0.053217,0.0028437
-0.025774,-0.13333,-0.0083627,0.036851,0.0083027,0.028648,-0.012493,-0.041984
0.019607,0.017208,0.012628,0.016578,0.019309,0.077348,0.093922,0.046326
0.040501,0.01525,-0.1337,-0.013509,-0.025282,-0.093121,-0.10475,-0.013896
-0.041812,0.031288,0.083619,-0.10039,-0.0085589,-0.014071,0.023695,-0.0043072
0.022355,-0.045577,0.008689,-0.0093892,-0.024338,-0.021402,-0.013386,0.027905
-0.024822,0.080053,0.048651,0.025776,0.029076,0.033428,-0.12248,-0.042416
-0.0033951,0.00065449,-0.0061748,0.0059757,0.011343,0.033338,0.11828,-0.0042902
0.032418,0.0043667,-0.037196,0.049286,-0.014678,0.0018144,0.068502,0.0018908
-0.033993,-0.088965,-0.019651,0.0079832,0.013877,0.0091281,-0.037059,-5.1864e-05
0.032327,0.05666,0.039695,0.030895,0.0035622,-0.0073456,-0.0026022,0.029395
0.005308,0.012153,0.0008485,-0.022588,0.024909,-0.00088481,-0.038532,-0.034347
-0.013154,-0.010482,0.02019,-0.027794,-0.023513,-0.02628,-0.01151,0.02777
-0.022914,-0.095793,-0.027655,-0.024353,-0.016638,0.0024332,0.0086277,0.0049177
-0.0083904,0.031154,-0.010693,-0.020742,-0.016939,0.0073287,0.0066251,-0.0092604
0.084916,0.098285,-0.062884,0.013652,-0.00096862,-0.058096,-0.032929,0.00056028
-0.040148,-0.010599,0.10352,0.031447,0.015636,0.056649,0.10874,0.041757
-0.024494,-0.01381,0.080946,0.040144,0.032834,0.023947,-0.029488,-0.06584
-0.016789,-0.013116,-0.16296,-0.061913,-0.019783,-0.038601,-0.010458,-0.010172
0.021915,-0.03279,0.074143,0.053536,-0.0017449,0.017664,-0.037755,0.02094
0.0056951,0.011751,-0.098645,-0.058484,0.00079572,-0.010421,-0.041565,-0.0039027
-0.010633,0.03288,0.061087,0.0087723,-0.012411,0.017464,0.0010786,0.040339
-0.011253,0.067872,0.054061,0.0058905,0.020884,0.014855,0.042902,0.005446
0.011836,-0.15054,-0.017066,-0.019676,-0.008904,0.027977,0.099238,-0.045713
0.0040694,0.056086,-0.025987,0.034106,-0.0003493,-0.061011,-0.072263,0.0045179
0.020142,0.015184,-0.041708,0.011249,-0.0081734,-0.018266,0.0049556,0.00039457
0.005252,-0.023241,-0.0084408,-0.01794,-0.0010535,-0.00036286,-0.02049,-0.034179
-0.017381,0.027452,0.082324,-0.030322,-0.0022593,0.00043342,-0.031049,0.03396
-0.0089538,0.012353,-0.042691,0.051675,0.011877,0.0077053,-0.065269,0.025291
0.022486,-0.019841,0.030148,-0.0070477,0.002545,0.045194,0.13524,0.01008
-0.032579,-0.05143,-0.004808,-0.011942,-0.022219,-0.011724,-0.030555,0.01933
-0.017906,0.068083,0.038622,0.059775,0.023685,-0.014231,-0.023244,-0.041101
0.035383,-0.050178,-0.05973,-0.096994,-0.0081089,0.014563,0.0088196,-0.02322
-0.013097,-0.037864,0.058295,0.017697,0.030821,0.012422,0.018546,-0.0055614
0.0088224,0.066326,0.10291,0.060428,-0.02368,-0.036078,0.01327,0.0037609
-0.00014103,0.043106,-0.33218,-0.1322,-0.023314,-0.0057833,0.0079831,0.012397
0.014911,0.00045704,0.12088,0.050062,0.00052147,-0.013777,-0.021395,0.0046941
-0.0084187,-0.024599,-0.036602,0.014366,0.016447,0.025927,-0.0050414,0.011981
0.0079847,0.0046488,0.025103,0.027073,0.008749,-0.0038996,-0.036921,0.010965
-0.02974,0.031284,0.21384,0.088604,0.00082469,0.0059621,-0.02316,0.0018294
0.0032311,0.0067471,-0.078534,-0.027567,-0.0073152,0.016161,0.052296,-0.023039
0.036386,0.023984,-0.085777,-0.087391,-0.015616,-0.0284,-0.067729,-0.016564
-0.024212,-0.26834,0.012345,-0.0055167,0.022886,0.035862,0.12527,0.0058247
0.00098177,0.01379,0.0041752,-0.0013968,-0.016704,0.0053486,-0.047834,0.005232
-0.020934,0.044106,0.02916,0.018043,0.014158,0.012501,-0.039814,-0.02604
0.011568,0.21531,-2.3938e-05,0.021018,-0.02507,-0.099111,0.1103,0.060483
0.012547,0.029224,0.079362,0.03845,0.029722,0.037768,-0.082117,0.0069331
-0.0023613,-0.044241,-0.23372,-0.031321,-0.0089675,-0.0062268,-0.023788,-0.030584
-0.0019096,-0.051625,0.099209,-0.078801,-0.000563,0.042873,0.042516,-0.013213
0.013877,-0.02464,0.023328,0.0291,-0.0076497,-0.033031,-0.063478,-0.0036829
-0.0019198,0.043477,-0.070448,0.027118,0.016546,0.04016,0.04055,-0.0022068
-0.025911,-0.043918,0.12312,0.024987,0.0094292,0.01302,0.033953,0.022303
0.020003,-0.053753,-0.020325,0.0073646,-0.029062,-0.051544,-0.013107,-0.00055579
-0.012596,-0.073004,0.023253,0.021295,0.0026169,-0.0049053,-0.053724,-0.0082967
0.016994,0.17113,-0.042552,-0.050349,-0.012701,0.0044568,0.037296,0.014771
-0.016087,0.0065503,0.024767,-0.020085,0.0031547,0.0075277,-0.013173,-0.024972
0.0055344,-0.027505,-0.055835,-0.0051422,0.018971,0.027294,0.084319,0.028907
-0.019498,-0.032151,0.036086,0.049135,0.011312,0.0084894,-0.083878,-0.042135
0.018379,0.047942,-0.074377,-0.044754,-0.0042511,-0.02607,-0.056432,-0.0035255
0.02555,-0.075558,-0.035607,0.010086,-0.0043842,0.0011677,0.11231,0.051144
-0.013561,0.035576,0.2227,0.08087,0.0029727,-0.011798,-0.085222,-0.0030367
-0.028697,-0.039893,-0.12769,-0.11365,-0.013541,0.0051108,0.085501,-0.017627
0.0034243,0.011008,-0.024493,-0.0032072,0.00071003,-0.010608,-0.0083011,-0.0083321
-0.019003,0.17291,0.11012,0.083989,0.0067038,0.019383,-0.022934,0.009076
0.08342,-0.16354,-0.091371,0.054054,0.004581,-0.021728,-0.044461,-0.012467
-0.017715,-0.014149,-0.019905,-0.10097,-0.021057,-0.00067373,-0.018367,0.028398
-0.017931,-0.043331,-0.0038087,-0.014035,-0.0074401,0.028305,0.07077,-0.032584
-0.018868,0.16256,0.05841,-0.036794,0.0066284,0.018694,-0.003846,-0.0080801
-0.012615,-0.037524,-0.075364,0.049451,0.021336,-0.029288,-0.023725,0.03147
-0.014518,-0.03455,0.087243,0.064999,0.02113,-0.014016,0.010847,-0.007767
-0.0085393,-0.024046,-0.031634,-0.060463,-0.025301,0.0097448,-0.0019766,0.0069933
0.052657,-0.029516,0.037043,0.040249,-0.00094407,0.0027512,0.0078724,0.0054728
0.005413,-0.019648,-0.081449,-0.031301,0.015835,0.027282,0.040237,0.0034059
-0.0015742,0.02131,0.011559,-0.032907,-0.022078,-0.0028051,-0.037716,-0.038079
-0.0073131,0.093473,0.05842,0.058938,0.002329,-0.04077,-0.046165,-0.0015269
0.034913,0.0015707,-0.0032955,-0.013436,0.0030566,-0.00071324,0.0073591,0.02744
-0.070546,0.034615,-0.072062,-0.0076186,-0.0042075,-0.031014,-0.040834,-0.0055404
-0.0038285,-0.088748,0.023841,-0.032694,-0.019299,0.079387,0.044009,-0.0064444
0.023631,-0.056115,-0.012723,0.01322,0.01268,-0.013124,0.098113,0.0014628
0.01917,-0.00032497,0.083522,0.013223,0.00597,-0.035025,-0.042447,-0.0052265
-0.0019828,0.055253,0.062197,0.0065672,0.0075212,0.021493,0.036362,0.028048
0.0067641,0.0091919,-0.14735,-0.0067231,0.0016234,6.4216e-05,-0.071868,-0.00054207
-0.040665,-0.068058,-0.014092,-0.019008,-0.0041684,0.0020311,-0.047034,-0.0054151
0.027627,0.081392,-0.014646,0.078715,0.036624,0.019296,0.032542,0.01305
-0.014742,0.051259,0.054255,-0.096889,-0.04052,-0.042188,-0.012969,-0.047039
0.027867,0.028905,0.099171,0.070777,0.013983,0.02827,0.011648,0.0094025
0.007457,-0.048366,-0.020107,0.01866,-0.011067,-0.019476,0.02037,-0.020852
-0.028593,-0.28231,-0.20938,-0.073958,-0.014135,-0.013558,0.020892,0.026266
-0.064147,0.1941,0.18799,-0.004132,0.0050332,0.030531,0.067731,0.010209
0.096559,0.068299,-0.08556,0.017285,0.0078914,-0.0041387,-0.097131,0.0091927
-0.0070912,0.066782,0.0090705,-0.032825,-0.0048534,-0.015665,-0.020759,-0.0001533
-0.039025,-0.099552,0.01073,0.025713,-0.0011708,0.019763,-0.0079588,-0.0099857
0.016304,0.0067493,0.10647,0.068449,-0.019408,-0.0068796,0.02722,0.01877
-0.0054576,-0.098723,-0.087131,-0.044728,0.019075,-0.0093689,0.014631,-0.0076006
0.0046109,0.12312,0.015245,0.0068976,0.028556,0.020293,0.02491,-0.0030547
0.030345,0.055212,0.077201,0.0048395,0.0089033,-0.01939,-0.011805,-0.037695
0.016542,-0.12247,-0.1514,-0.019529,-0.0012797,0.012153,0.0065847,0.0059833
-0.029364,0.059292,0.025028,-0.011507,-0.033946,-0.018053,-0.036544,-0.012261
-0.02158,-0.023897,-0.0099997,-0.010226,-0.019606,-0.00087632,-0.10161,0.032957
-0.05372,-0.058809,0.017929,0.023251,0.03313,0.039957,0.14771,0.040378
0.038671,-0.0056643,-0.077646,0.002809,-0.0013906,-0.013024,-0.046229,-0.036731
0.0061541,0.081429,0.16504,-0.0014625,-0.0063904,-0.0038044,0.043037,0.0047026
0.029002,0.046521,-0.050479,-0.0054636,-0.0054371,-0.018465,0.0010608,0.0081718
-0.040767,-0.09484,-0.0056507,-0.025136,-0.02964,-0.0023471,0.022544,-0.050182
0.062669,0.10999,0.1269,0.11887,0.05417,0.0055734,-0.06512,0.032243
-0.028001,-0.082027,-0.16183,-0.089383,-0.02696,-0.017972,-0.028278,0.0048998
0.02273,-0.031348,0.048659,-0.040792,-0.014705,-0.0024668,0.015292,0.031363
-0.012345,0.04209,-0.024134,0.022288,0.036693,0.044455,0.026152,-0.037158
-0.0089342,0.035593,-0.029558,0.013861,0.010363,0.036968,-0.027084,0.010111
-0.02234,-0.08303,-0.030508,-0.01134,-0.0076005,-0.040534,0.066613,-0.014269
0.001748,0.044923,0.0044177,0.0093243,-0.032816,-0.031862,-0.044065,-0.016272
0.00077632,-0.088726,0.13052,0.068247,0.0049286,-0.030884,-0.038447,0.020172
-0.0015391,0.094091,-0.1044,-0.045246,0.027355,0.056012,0.083847,-0.0059722
0.018788,0.046717,0.097539,-0.018344,-0.0047429,0.025574,-0.044016,-0.00044378
-0.031297,0.011806,-0.10644,-0.030372,-0.021145,-0.036364,-0.015509,0.013709
0.0051497,-0.049013,0.065666,0.020622,-0.014054,-0.012676,0.0054864,0.013242
0.0036685,-0.13484,-0.0028378,0.010024,0.016588,-0.00495,0.019052,-0.017508
0.050477,0.14605,-0.06956,0.00065509,0.008391,0.018074,-0.021688,0.0071466
0.0049204,-0.048884,0.084204,-0.022919,0.0083486,0.033003,0.031658,0.0008685
-0.016123,0.094153,-0.049594,0.025243,0.0087367,-0.006969,0.046224,0.017894
-0.013153,-0.079875,0.036518,0.012121,-0.037296,-0.039244,-0.071744,-0.012486
-0.017978,-0.023076,-0.025013,-0.0080022,0.010819,0.0066126,-0.025304,-0.035827
0.00016265,0.046459,0.046745,0.065898,0.012316,-0.002072,-0.0096268,0.010329
-0.021552,-0.14455,-0.1,-0.07925,0.0060544,-0.0026602,0.0067144,0.0089624
0.018321,0.098738,0.05024,-0.014252,-0.016014,0.012769,0.070738,-0.031793
-0.028592,0.072044,-0.065098,0.018385,0.024014,0.013017,-0.051901,0.013441
0.041012,-0.015482,0.038317,-0.051748,-0.022465,0.0058679,0.021469,0.035619
0.032035,0.021426,0.1026,0.048915,0.00073722,-0.024414,0.048343,0.011485
