0.062939,0.026388,0.064709,0.39754,0.049317,-0.0081117,0.016098,-0.019022
-0.029405,-0.10743,-0.12649,-0.41862,-0.19646,-0.059592,-0.01027,0.0030627
0.016111,0.24672,0.10871,0.18004,0.09533,0.045492,0.041769,0.024975
-0.14428,-0.21665,-0.15185,-0.022714,0.0027928,-0.013647,-0.015866,-0.040006
-0.033327,-0.03633,-0.040646,-0.087086,-0.036231,-0.018644,-0.043107,-0.020578
0.092437,-0.062423,0.068166,0.5586,0.095976,0.0068181,-0.001324,-0.018554
0.047192,0.012146,0.082049,-0.42158,-0.10005,-0.015458,0.015498,0.005226
0.059235,0.24494,0.21326,0.36944,0.16514,0.055232,0.030803,0.051158
-0.16689,-0.23624,-0.24795,-0.36763,-0.061434,-0.04655,-0.048919,-0.036431
0.049324,0.07848,0.0040576,0.63011,0.024848,0.038814,0.01113,0.032124
0.11409,0.15879,-0.030123,-0.49893,-0.099659,-0.039996,-0.0072746,-0.016124
-0.16881,-0.19108,0.016933,-0.12297,0.096086,0.05316,0.029208,-0.0012201
0.081773,0.12861,-0.089266,-0.73376,-0.17709,-0.056587,-0.0039823,0.022153
0.17617,-0.041213,0.21334,0.37343,-0.0050821,-0.001996,-0.0050071,-0.024365
0.010561,0.11646,-0.0056609,0.67728,0.22165,0.052848,0.026216,0.046333
-0.096682,0.1141,-0.12218,-0.18776,-0.1295,-0.040575,-0.0041733,0.015073
-0.30304,-0.36327,0.058107,0.45842,0.11348,0.014487,-0.041751,-0.063789
0.00054303,-0.23886,-0.043861,-0.729,-0.14313,-0.00083825,-0.032188,-0.073201
0.18178,0.17463,-0.061651,0.39608,0.045857,0.014918,0.063183,0.065065
-0.062839,0.026384,0.0433,0.2606,0.031795,-0.032024,-0.0060044,-0.023683
0.18219,0.19268,0.16921,-0.020426,0.11916,0.022457,0.01777,0.051612
0.12139,0.15146,-0.137,-0.72902,-0.067181,0.0066319,-0.0062925,0.025764
-0.04098,0.028917,-0.10943,-0.55947,-0.14436,-0.032406,-0.031339,-0.014946
-0.085293,0.10729,0.12729,0.35014,-0.010635,-0.00066465,0.020895,0.0077917
-0.19052,-0.464,0.073642,0.69041,-0.087641,0.023937,-0.028986,-0.054445
0.034647,0.019434,-0.10589,0.026267,0.062205,-0.013193,0.014726,0.040399
-0.065318,-0.23758,-0.090656,-0.2432,0.12614,-0.01838,-0.027226,-0.051652
0.064935,0.23575,-0.013231,0.13816,0.15814,0.031533,0.017415,0.012879
0.11332,0.16808,0.26712,0.54948,0.055557,0.018878,0.047342,0.038399
0.048516,-0.0014557,0.055158,-0.045119,-0.22969,-0.0022699,0.0079471,-0.006595
-0.075479,0.071621,-0.094338,-0.61064,0.11401,0.022136,-0.0071126,0.018312
0.068139,-0.14441,-0.1499,-0.44597,-0.11658,-0.025623,-0.052757,-0.043277
-0.061448,0.13004,-0.056499,-0.17513,-0.25652,-0.036466,0.034774,0.011696
0.072959,-0.092041,-0.14194,0.72941,0.17264,-0.049422,-0.072949,0.0035592
-0.014585,-0.095012,0.085996,-0.58543,-0.068671,0.053077,0.05351,0.010533
-0.098444,0.13367,0.07985,0.34045,0.15508,-0.0017368,0.015541,-0.021916
-0.124,-0.18195,0.088155,0.27077,0.10393,0.036983,0.00055174,-0.0076693
0.011087,0.19093,0.38983,0.65429,0.075905,0.021679,0.00071088,0.0065646
0.19107,0.080034,-0.40075,-0.92284,-0.21047,-0.054687,0.0082452,0.044343
-0.097979,-0.35761,0.065441,0.35693,-0.13176,-0.027482,-0.031443,-0.034909
0.10644,0.1532,0.013721,-0.097264,0.33282,0.06454,-0.0088458,0.026596
-0.054002,0.091438,0.10136,0.13082,-0.10109,-0.012956,0.021512,-0.021218
0.07731,-0.063735,-0.16764,-0.54977,0.047906,-0.0023491,0.0051171,-0.0065738
-0.093721,-0.036554,-0.075273,0.021693,-0.066151,0.041311,0.028068,-0.023304
0.19767,0.26059,-0.15104,0.039311,-0.13173,-0.062115,-0.042334,0.03793
-0.31522,-0.35904,-0.0092833,0.16003,-0.15623,-0.031852,-0.0029315,-0.025976
0.093201,0.25283,0.0081575,0.29978,0.065106,0.02226,-0.033489,0.011626
0.078618,0.08741,-0.21714,-0.46116,0.21435,-0.0095984,0.014221,0.080562
-0.12464,-0.25524,0.1287,0.44896,-0.049794,0.0049315,0.030486,-0.10024
0.077642,0.043508,0.61092,-0.1024,0.016809,0.065365,0.04613,0.00066413
-0.0011814,-0.0335,0.27263,0.20398,0.16512,-0.0084999,0.013857,0.0084531
-0.0085822,0.059503,-0.066876,-0.7121,-0.20658,-0.014036,-0.0041218,0.0013706
0.017188,0.040711,-0.012592,0.75635,0.30691,0.0093074,-0.039065,0.0028665
-0.017215,0.06638,-0.42619,-0.20502,-0.22565,0.014501,-0.035906,0.02062
0.013041,-0.16772,-0.039727,-0.40929,-0.17295,-0.084213,-0.064176,0.015279
0.04468,-0.035855,-0.27328,0.44163,0.073388,0.010612,0.017843,-0.02139
-0.025152,0.10336,-0.34322,-0.21949,-0.1666,0.042095,0.01602,0.019502
0.044146,-0.046398,-0.40351,-0.66153,0.1075,-0.066721,0.03291,-0.01094
0.00098698,0.1713,0.37374,0.8161,0.11527,0.029126,0.084672,-0.011487
-0.1559,-0.13447,1.0293,0.12466,0.17002,0.033791,-0.016305,-0.029137
-0.020939,0.02776,0.30536,0.31473,-0.032504,0.080723,-0.0051884,-0.0012751
0.18718,0.032058,-0.28689,-1.1901,-0.35969,-0.14248,-0.039574,0.017761
-0.007241,-0.075595,-0.24234,0.59374,0.21887,0.074655,0.019514,0.02849
-0.13391,0.016762,-0.1869,-0.063282,0.061279,-0.026684,-0.032693,0.00026599
0.14512,0.23889,0.0064184,0.81045,0.15051,0.036549,-0.033456,0.0039914
-0.20697,-0.40056,-0.21805,-0.48632,-0.17856,0.0050959,0.016434,-0.05359
0.13219,0.037477,0.0049977,-0.93608,-0.10593,-0.012957,0.015275,0.015358
-0.038902,0.12543,0.14338,0.97193,0.10344,0.0049422,-0.0051986,0.023475
-0.016254,0.02965,0.19843,0.031647,-0.23621,-0.066514,0.018495,0.025394
0.1923,-0.11504,-0.098994,-0.57777,-0.036431,-0.016046,-0.029555,-0.018179
-0.12509,0.19269,-0.053996,0.60645,0.34625,0.079146,0.047302,-0.013849
0.053376,-0.046862,-0.16428,-0.94319,-0.038678,-0.092118,-0.046626,-0.0089103
-0.047816,-0.045483,0.035324,0.44994,0.029316,0.073163,0.056712,0.011835
-0.063604,-0.04727,0.057819,0.22799,-0.12884,0.0059346,-0.0016137,-0.022311
0.051048,0.10133,0.18176,0.24602,0.087731,-0.011747,-0.02628,-0.0022984
-0.10359,-0.079314,-0.041816,-0.54908,-0.10408,0.028119,-0.025473,0.024737
0.049987,0.025064,0.061662,1.0297,0.074312,-0.0077512,-0.0076627,0.0039071
0.08213,0.17778,-0.0067657,-0.91861,0.11211,0.0046115,0.03415,0.021002
0.016853,-0.16933,-0.067783,-0.17853,-0.18879,-0.014286,0.021007,-0.010003
-0.12929,-0.32099,-0.11487,0.36365,-0.025824,0.0044596,-0.032192,-0.042234
0.12136,0.27868,0.10815,0.18204,0.15452,0.051896,0.014669,0.041596
0.035523,0.25693,-0.095474,0.08052,-0.17907,-0.060086,0.012936,-0.0082858
-0.1124,-0.34433,-0.039149,-0.13507,0.11491,-0.026722,-0.037282,-0.02747
-0.016962,0.10284,0.026828,-0.82129,-0.14162,-0.10506,-0.010569,0.0079153
-0.029216,-0.16472,0.016691,-0.27917,0.061016,0.065555,-2.5159e-05,-0.011036
0.1792,0.20616,0.024534,0.9868,0.13082,0.064804,0.026362,0.025476
-0.063604,0.16897,0.050528,0.16587,-0.0090637,0.019141,-0.0087983,0.00056694
-0.10162,-0.17557,0.10222,0.60109,0.032612,0.054635,0.027873,-0.0075103
0.11942,0.0065636,-0.079008,-0.70304,-0.017586,-0.046988,-0.027395,0.024608
-0.080647,-0.076256,-0.072549,-0.25954,0.027416,-0.020279,0.028496,0.0029176
-0.014847,0.065469,0.12011,0.62895,-0.098588,0.0090258,-0.01573,-0.018273
0.027286,0.031027,-0.072713,-0.43294,-0.19295,-0.038315,0.0034194,-0.0081342
0.068792,-0.0091157,-0.14417,-0.81468,0.048783,-0.022928,-0.0084953,-0.02173
-0.04687,-0.1021,0.061654,1.0471,0.11882,0.077468,0.010354,0.018799
-0.015191,-0.036084,0.076382,-0.70301,0.11887,-0.034875,-0.010876,0.011776
-0.047161,0.10493,-0.013075,0.22255,-0.029121,-0.008866,-0.017792,-0.011513
0.076025,-0.035914,-0.049084,0.049661,-0.012735,0.0070301,0.013028,0.011591
-0.020472,-0.018471,0.024572,0.097296,-0.090097,-0.01806,0.0037135,-0.020238
-0.10985,-0.16864,0.014012,0.25282,0.058654,0.010294,-0.014028,-0.013
0.30039,0.53841,0.13914,0.59631,0.019015,0.030431,0.0072395,0.056961
-0.1644,-0.20947,-0.091469,-0.71657,-0.013965,-0.034943,0.021192,-0.0055212
-0.050657,-0.084875,0.025731,-0.0086084,-0.040234,-0.0054714,-0.018618,-0.012888
-0.12358,-0.097153,-0.18105,-0.28316,-0.043749,0.0098642,-0.0025886,-0.027665
0.086001,-0.029561,0.053668,-0.45761,-0.055026,0.026742,0.022392,-0.0030721
0.086196,0.108,0.049808,0.68408,0.17684,0.021451,0.0013957,0.0060633
0.056806,-0.014407,0.0020647,0.061744,-0.073861,-0.02997,-0.011298,0.015197
-0.041356,0.055047,-0.027969,0.21282,0.076296,0.043712,0.015076,0.008525
-0.0055144,-0.028007,0.09129,-0.76282,-0.099064,-0.062795,-0.0215,0.0093097
-0.023667,-0.0056721,-0.024484,0.49989,0.024757,-0.021801,-0.00417,-0.013846
-0.10416,-0.12721,-0.056661,0.1233,-0.01393,-0.020986,-0.019014,-0.014164
0.033779,0.077361,0.12593,0.17471,0.088492,0.033493,0.0043453,-0.0072953
0.085124,0.086136,-0.12649,-0.34866,0.0027171,0.024751,0.0349,0.014624
0.010621,-0.0055649,0.068127,0.37951,-0.045745,0.0078932,-0.012927,-0.01078
0.052402,0.014569,0.022281,-0.21117,0.020523,0.038026,0.0096902,0.026047
-0.18011,-0.11812,-0.16942,-0.54835,-0.14245,-0.056392,-0.014097,-0.0075034
0.024127,0.0030449,0.018107,-0.096686,-0.057839,-0.001734,-0.0059443,-0.025292
0.12616,0.049685,0.055785,0.2196,0.13439,0.0067177,0.018575,0.043164
-0.069264,-0.088482,-0.0071545,0.24213,0.099103,9.3745e-05,-0.0266,-0.02858
-0.015292,0.094834,0.12047,0.25672,-0.045791,0.0015894,0.022308,-0.0060962
0.037959,0.16019,-0.05201,-0.093595,0.043888,-0.028188,0.016463,-0.0065937
-0.034688,-0.18357,-0.055178,-0.020052,-0.13963,0.011945,-0.021134,0.0010847
0.094718,0.14766,0.06384,0.34956,0.059576,0.035672,0.018505,0.03241
-0.04264,-0.042585,-0.0085242,-0.4345,0.12533,0.0036036,-0.021125,0.0012541
-0.016941,-0.14513,0.01515,0.11518,-0.15393,0.0014654,-0.022891,0.0089964
-0.069965,-0.080889,-0.07014,-0.60684,0.041649,-0.01765,0.029012,-0.030429
0.0099036,0.042759,0.030725,0.13971,-0.13184,-0.014487,0.0099818,-0.007674
0.098538,0.087872,0.019543,0.86312,0.16177,0.01138,-0.024733,-0.00075985
-0.10784,-0.044282,-0.08094,-0.82452,0.040318,-0.048806,-0.0041955,0.0061651
-0.022569,0.0002391,-0.020704,-0.090707,-0.17492,-0.014642,-0.013771,-0.017841
0.057829,0.15254,0.091547,0.28833,0.10317,0.059859,0.04069,0.013478
0.062858,0.02997,0.022593,0.5048,0.063283,0.02676,-0.020364,0.0066177
-0.016039,-0.032626,0.016026,-0.23462,-0.074765,0.0034534,0.021635,0.031995
0.046497,-0.15451,-0.090815,0.025109,0.017936,-0.017999,0.0021467,-0.012035
0.077174,0.083615,0.0001183,-0.38778,-0.064496,0.001035,0.014221,-0.016364
-0.18314,0.0073761,0.00052454,-0.11542,-0.080005,-0.018206,0.0023824,-0.012653
-0.0087845,0.036728,0.12939,0.69881,0.2598,0.02514,-0.049711,0.014235
-0.087547,-0.24337,-0.090158,-0.61285,-0.046267,-0.025794,-0.009747,-0.006491
0.1122,0.17497,0.044169,0.5,-0.038846,0.016069,0.036155,0.026344
-0.010188,-0.066583,-0.15635,-0.95168,-0.22755,-0.083811,-0.02902,-0.02812
-0.062941,0.0023676,0.095926,0.49609,0.1749,0.057464,0.013965,-0.0058635
0.12691,0.094618,0.065174,0.26049,0.08107,0.01829,-0.0060685,0.0073338
-0.018026,-0.030395,-0.015462,0.3842,0.091535,0.0021579,0.0053942,-0.0038251
0.16657,0.14403,0.087565,0.09851,-0.11428,0.017234,0.0021562,0.015793
-0.18669,-0.14738,-0.21195,-0.42601,-0.153,0.0091016,0.015932,-0.01926
0.085717,0.10288,0.055114,-0.54753,0.031442,-0.014276,0.0078292,0.024284
-0.16522,-0.16848,-0.039947,0.23792,-0.027719,-0.037239,-0.0066659,-0.017283
-0.049308,0.014063,0.059006,-0.39906,0.070239,-0.012968,-0.0045173,-0.0031298
0.050495,0.0011013,0.033351,0.22936,0.0071599,0.027174,0.0058984,0.012088
0.11872,0.065344,0.0019163,0.48315,0.097159,0.020551,-0.030708,0.004807
0.054182,0.12052,0.036351,0.36167,0.020709,-0.017356,0.0023373,-0.0017869
-0.11923,-0.20827,-0.089082,-0.31005,-0.073913,0.022693,0.042206,0.007616
0.04418,0.11854,0.047698,-0.069453,0.023211,-0.039106,-0.028376,0.0014527
-0.056883,-0.077959,-0.053739,-0.38682,-0.048927,0.015913,-0.0061229,-0.02834
0.022953,-0.046838,0.011868,0.0071006,-0.0031776,-0.0076025,-0.031305,-0.027222
0.088263,0.087737,0.10249,0.81721,-0.013279,0.062229,0.029357,0.036018
-0.056514,-0.0018109,-0.1038,-0.97125,-0.065155,-0.071406,0.004449,-0.0026355
-0.028882,0.043998,0.063297,0.16597,0.019816,0.0056622,0.019326,0.013161
-0.03229,-0.04869,0.024336,0.61329,0.16298,0.012321,-0.011783,0.0053717
0.0032962,-0.015142,-0.049652,-0.65753,-0.11224,-0.027851,0.020446,-0.010321
0.038605,0.034053,-0.10423,0.3037,0.077429,0.018072,-0.009226,-0.0026564
0.034431,0.058542,0.064061,0.44157,0.037524,0.048586,0.0082178,0.020536
0.037569,0.065048,0.081059,-0.57048,-0.15268,-0.0066306,-0.02135,-0.0032614
-0.084817,-0.20489,-0.12246,0.013538,-0.023063,-0.030456,-0.020111,-0.027161
-0.020198,-0.032547,0.071788,-0.02734,-0.033153,-0.022983,0.0039521,-0.012033
0.0049501,-0.050182,-0.085387,-0.092616,0.091791,0.0078911,-0.011679,0.0031742
0.029819,0.071359,0.10168,0.090283,0.14183,0.0074394,-0.012212,0.010789
0.023307,0.13797,0.07034,0.26964,0.015962,0.038185,0.041584,0.010933
0.0089871,0.057009,0.0074959,0.012241,-0.22329,-0.016969,0.032691,0.0036611
0.010386,0.0010838,-0.064158,-0.38328,0.017339,-0.017258,0.031549,0.02019
-0.1053,-0.1311,0.026677,0.27739,0.033816,-0.017209,-0.055509,-0.017736
-0.01784,-0.074149,-0.040377,0.11563,0.074917,-0.0088742,-0.033115,-0.024375
0.053801,0.015078,-0.092776,0.086824,-0.016993,0.015615,-0.0027596,0.01568
0.070248,0.065381,0.042781,-0.21407,0.014518,0.040564,0.012221,0.0084969
0.14048,0.021074,-0.18641,-0.3717,-0.08957,-0.043626,-0.011482,0.00084592
-0.22806,0.045243,0.15148,0.17876,0.029243,0.051746,0.01218,-0.0072695
-0.004406,-0.058221,0.066049,0.13679,0.097111,-0.0018895,0.020752,-0.015739
0.022349,0.046141,0.19114,0.56354,-0.073333,-0.033095,-0.0014593,-0.016564
-0.014743,-0.07139,-0.090482,-0.90717,-0.020474,-0.01094,0.023475,0.029534
0.095776,0.034977,0.001324,0.22782,0.02246,-0.0058468,-0.021924,-0.010084
-0.035993,-0.063471,-0.082273,0.090465,-0.04464,0.021409,0.002642,0.020918
-0.081127,-0.060688,-0.11712,0.32703,-0.10306,-0.030301,-0.012477,0.005312
0.054849,0.16986,0.027134,-0.57248,0.23138,0.058429,-0.0049231,0.0054458
-0.010369,-0.042225,0.020251,0.24828,-0.10291,-0.047564,-0.013718,0.0054739
-0.018777,-0.02392,0.071578,-0.17629,0.089754,-0.011584,0.016053,-0.026071
0.076337,-0.016756,0.0082674,0.5924,-0.026825,0.034164,-0.0089876,-0.019019
0.18856,0.080885,-0.021632,-0.52494,-0.094052,-0.019365,0.0053394,0.010995
-0.27652,0.041909,-0.0024078,0.39828,0.090093,0.0074845,-0.0030809,-0.021838
-0.061796,-0.1972,-0.035178,-0.40803,-0.077138,-0.010699,-0.0027566,-9.069e-05
0.035247,0.065365,0.029175,0.30905,-0.010817,0.058151,0.037593,0.037464
0.068891,0.1094,0.12116,0.037272,0.12436,0.017765,0.0083957,0.028589
0.038944,-0.11334,-0.20366,-0.32807,-0.054556,-0.046914,-0.020431,-0.018724
7.9604e-05,0.036637,0.079055,0.1492,-0.078455,-0.019544,-0.010329,-0.010664
-0.00070744,0.050701,-0.0063563,-0.35846,-0.016872,-0.041282,-0.0165,-0.0097888
-0.080402,-0.18094,0.033145,0.033881,0.045253,0.01275,-0.008103,-0.016248
0.10501,0.13854,-0.020388,0.56358,0.046389,0.033468,0.022444,0.016623
-0.092609,0.048541,0.02127,-0.094496,-0.028404,-0.0019436,0.0048257,-0.012971
0.038034,-0.0050205,-0.028745,-0.15693,-0.046116,-0.0067397,-0.0060478,0.011928
0.012928,-0.005674,0.025398,-0.0994,0.13348,0.0199,0.013673,0.036427
-0.0582,-0.093045,-0.02687,-0.094391,-0.05305,-0.030717,-0.013601,-0.041189
0.043697,-0.00043973,-0.0056876,0.70003,0.02576,0.037154,-0.016979,0.0055608
0.045366,0.038787,-0.028323,-0.52331,-0.037789,0.0049073,-0.0037485,0.012625
-0.092225,-0.052651,-0.032663,-0.13397,-0.041832,0.036489,0.026483,-0.0042517
0.029207,0.0070138,0.14463,0.18687,0.012836,-0.055898,0.011402,-0.0057818
0.04995,0.21788,0.018146,0.29866,-0.0067441,-0.022625,0.0056461,0.00053109
0.024202,-0.1782,-0.15556,-0.61704,-0.029712,-0.035911,-0.037946,-0.024029
-0.087681,-0.041313,0.067531,0.30272,0.077882,0.044614,-0.0026607,-0.016641
0.041832,0.1667,0.092541,-0.26555,-0.018386,0.015681,0.032792,0.05417
-0.072159,-0.086329,-0.057812,-0.17651,-0.16068,0.017852,0.013128,-0.0068408
0.069955,0.019237,-0.08678,0.35467,0.23831,-0.019215,-0.0074694,0.026772
0.022652,-0.08726,0.068695,0.43875,-0.093986,-0.0096188,-0.0137,-0.0093479
-0.018769,-0.13234,-0.074561,-0.43352,0.02239,-0.00031931,-0.02128,-0.029678
-0.030686,0.071834,-0.014877,0.49133,0.055804,0.016361,-0.030059,-0.01124
0.034132,0.19756,0.04646,-0.51195,-0.033701,0.001188,-0.00063728,0.0064884
-0.0035129,0.0029622,0.064235,0.4945,-0.028554,0.0086741,0.051796,0.0075784
-0.064937,-0.1213,-0.054163,-0.61335,-0.039319,-0.023812,0.033911,-0.0081156
0.037913,0.097901,0.051025,-0.019999,-0.051316,-0.010379,-0.014918,0.02974
-0.022614,-0.14467,-0.01129,-0.070872,0.098988,0.0021704,-0.016422,-0.019305
0.081932,0.13475,0.023294,0.51715,-0.01032,-0.0094045,-0.033122,-0.022147
0.00014332,-0.0096276,-0.018847,-0.039794,-0.05851,0.041145,0.020776,0.0059519
0.0054553,-0.015367,0.016595,-0.38248,0.14268,0.029214,0.043519,0.041943
-0.066296,-0.061737,-0.083084,-0.041083,-0.093334,-0.060386,-0.027552,0.00026379
-0.012111,-0.11656,-0.030097,0.047642,-0.015634,-0.0084747,-0.020624,-0.025009
-0.0039588,0.079245,0.10466,0.29673,-0.09228,0.021255,-0.021565,-0.0023681
-0.010619,-0.012012,-0.077076,-0.024423,0.098925,-0.041255,-0.0067463,-0.017579
0.038232,0.1186,0.042724,0.1624,0.042206,0.030638,0.031906,0.0075447
0.072291,0.073239,-0.042436,-0.44336,0.025984,0.041498,0.024337,0.0026205
-0.056925,-0.038793,0.067402,0.41713,-0.0054685,-0.016823,-0.0058482,-0.0013266
-0.052674,-0.11668,-0.032565,-0.030555,-0.045584,-0.0042099,-0.01175,0.0031284
0.0066891,0.010214,0.018172,-0.34254,0.013823,0.031863,0.014302,0.031081
0.12867,0.043557,0.0015164,0.19171,-0.023426,-0.073256,-0.029543,-0.004019
-0.12456,0.0054217,0.01914,0.15235,-0.07173,0.015902,0.020398,-0.009029
0.066971,0.066677,-0.069983,-0.41626,0.095763,0.033445,0.0074809,0.031191
-0.05479,-0.14816,0.084908,0.15879,-0.00445,-0.028471,-0.013943,-0.063302
-0.029074,-0.068683,-0.025028,-0.079198,-0.082024,-0.013408,0.0027876,0.0044151
-0.0043862,0.07127,-0.057112,-0.022188,0.044152,0.0086678,-0.020511,-0.0074818
0.034911,0.014692,0.018961,0.23566,-0.015296,0.0069188,-0.005619,0.011005
0.12013,0.098326,-0.00061846,0.16216,0.084177,0.020783,0.016425,-0.0096792
-0.045481,0.088391,0.024419,-0.52667,-0.16509,-0.0041668,0.014639,-0.0062972
-0.071139,-0.16328,-0.015311,-0.14095,0.18166,-0.013142,-0.0029045,0.037337
-0.081584,-0.02391,0.0054956,0.93593,0.099894,0.040679,-0.0047595,0.0043105
0.11886,0.11566,0.024895,-0.057001,-0.068054,-0.0069232,0.001362,0.050829
0.022866,-0.041669,0.020173,-0.16362,-0.050062,-0.031135,0.0076565,-0.010922
-0.095599,-0.08186,-0.078183,-0.16246,-0.12825,-0.039909,-0.0015531,-0.048596
0.068686,0.018771,0.019664,-0.3153,-0.013733,0.037033,0.020545,-0.023597
-0.0072952,0.018581,0.0096712,-0.16304,-0.057521,-0.026789,-0.04326,-0.0065783
-0.065523,-0.01139,-0.013996,0.13877,0.13212,0.050055,0.010216,-0.028933
0.057962,-0.00011194,-0.051234,-0.19607,-0.021636,-0.021274,-0.022006,0.010944
-0.027928,0.021633,0.1399,0.64898,0.11515,0.017241,0.016532,0.058515
0.019726,-0.063338,-0.058357,-0.22056,-0.019429,-0.02176,-0.014578,-0.0032604
0.012311,0.095953,0.048512,0.36203,0.07458,0.025831,0.048881,0.013173
0.018898,0.0061502,-0.032552,-0.62601,-0.13473,-0.011916,-0.019622,0.0061663
0.07741,0.048471,-0.0054158,0.42321,0.0704,-0.0023219,0.014164,0.0067698
0.030806,0.104,0.012279,0.10807,-0.076696,0.015363,0.0015218,-0.00088046
-0.21488,-0.2272,-0.096722,-0.0050563,-0.0064415,-0.045018,-0.034498,-0.071647
-0.042016,-0.032002,-0.082119,-0.52922,-0.086273,-0.043073,0.0072342,-0.010246
-0.02763,-0.10744,0.080065,0.23631,0.012213,0.052207,0.0013184,0.019414
0.071949,0.031523,0.031033,-0.17774,0.024078,0.037453,0.0021404,-0.0057999
0.18796,0.30022,0.17746,-0.10586,0.16894,0.06869,0.017358,0.070734
-0.037711,-0.1122,-0.066456,0.35341,0.0022847,-0.065179,-0.023325,-0.031901
-0.018434,-0.04003,-0.0055085,-0.31176,-0.14721,-0.020432,0.0209,-0.024438
-0.066702,0.11189,0.094421,0.91012,0.13474,-0.0078442,-0.013701,0.030641
-0.019078,-0.218,-0.36062,-0.5875,-0.081651,-0.066101,-0.00952,0.0081766
0.05306,0.072328,0.082511,-0.17823,0.0001966,0.024098,0.0026434,0.017256
-0.023389,0.084359,0.064689,0.020609,-0.13574,0.029001,-0.0002386,-0.044005
0.016104,-0.080832,0.055103,0.20268,0.17419,0.050717,0.013385,-0.0039904
0.069271,-0.0099747,-0.047375,-0.52546,-0.14853,-0.043234,0.0045929,0.019999
-0.14529,0.12412,0.062185,0.53574,0.13014,0.044047,-0.0032142,-0.050102
0.0056663,-0.054433,0.079015,-0.047213,0.025447,-0.023681,-0.010239,-0.0031415
0.0074738,-0.015071,0.041762,0.35512,0.0058172,0.010834,0.022262,0.036177
0.033244,0.01531,-0.12835,-0.087691,-0.022795,-0.0015264,-0.015449,0.036881
-0.032966,-0.15071,-0.18982,-0.61847,-0.037127,-0.022341,0.0091178,-0.024299
0.10668,0.057625,0.13023,-0.024946,-0.052804,-0.012987,-0.013621,0.0010712
-0.06299,0.062899,0.073722,0.039829,0.063189,0.018585,0.010042,0.026872
0.051616,0.0065007,0.039195,0.49442,-0.048165,-0.044621,-0.03695,-0.033152
-0.01116,-0.0015536,-0.090119,-0.39851,-0.066145,0.016611,0.0097404,-0.015313
0.013197,0.11723,0.038015,0.0057849,0.11114,0.023202,0.017644,0.017544
-0.0015575,-0.04336,-0.044352,0.28783,0.030667,0.0069946,0.010515,0.018312
-0.14248,-0.21798,-0.0083088,-0.21631,0.03604,-0.031603,-0.019259,-0.067779
0.081847,0.10065,0.045207,0.624,-0.013748,0.048145,0.022079,0.048414
-0.071127,0.036864,-0.039713,-0.414,0.0058379,-0.011806,-0.0063054,-0.015721
0.03928,-0.011638,0.057216,-0.038213,-0.10868,0.022388,-0.0032542,-0.0021083
0.10871,0.079432,0.069963,-0.12024,-0.029212,0.0093931,0.022892,0.058261
-0.0029892,0.0047669,-0.088138,0.15724,0.11178,-0.020254,-0.006535,-0.045352
-0.13134,-0.16577,-0.074269,-0.55821,-0.083366,-0.067093,-0.029479,-0.00034132
0.098969,0.083229,0.016839,-0.14029,-0.058921,0.0092733,0.00069878,0.0058145
-0.054073,-0.052858,0.059315,0.89837,0.084647,0.029309,0.013725,0.01995
0.12837,0.15289,0.10722,-0.25087,0.059174,-0.0064792,-0.013514,-0.020494
-0.072336,-0.009835,-0.089747,0.54846,0.068276,0.019847,-0.010141,-0.0061768
-0.0075513,0.0066839,-0.086183,-0.77914,-0.06776,-0.0080568,0.016739,-0.015207
-0.098755,-0.22629,-0.037903,-0.26393,-0.076038,-0.0034982,-0.0024641,0.0071737
-0.048517,-0.043766,0.063612,0.35094,0.0034342,-0.0050222,0.0031624,-0.0014264
0.10472,0.17213,0.039507,0.15645,0.021042,0.010983,0.026175,0.029412
0.025527,0.038875,0.054653,0.023343,0.014632,-0.010372,-0.019296,-0.0096212
0.04228,0.087486,-0.0074763,-0.0065187,0.022192,0.039752,-0.01631,-0.0013419
-0.017051,-0.034363,-0.037059,0.3355,-0.050828,0.01216,0.0033699,-0.016146
0.026661,-0.030925,-0.026041,-0.29005,0.060772,-0.0080245,0.054684,0.023946
-0.054025,-0.044049,0.0022262,-0.45469,-0.064905,-0.044929,-0.027158,0.0015739
-0.017934,-0.020039,-0.014759,0.21048,0.010008,-0.028661,-0.024037,-0.013105
0.0090128,-0.045335,-0.0067225,0.053867,0.059632,0.0094696,-0.006687,0.011069
0.018365,0.0051957,0.018467,-0.081525,-0.094835,-0.00055865,0.0013225,-0.027463
