0.039474,0.068315,0.012497,-0.0065712,-0.010696,0.00032541,0.038304,0.035341
0.17898,-0.0048883,0.060894,0.017064,0.01322,0.0010177,-0.068071,0.030587
0.12722,0.24179,-0.014946,0.00094285,0.013741,0.02574,0.30389,0.16428
-0.66998,-0.21561,-0.13722,-0.039334,-0.048214,-0.074042,-0.48617,-0.46221
-0.21153,-0.14316,0.013979,-0.0020838,-0.008605,0.0061567,0.046225,0.065437
0.41034,0.17762,0.11793,0.058274,0.046593,0.055108,0.057118,0.052624
-0.052705,-0.13616,-0.067925,-0.03757,-0.0076766,-0.013475,0.084888,0.039353
0.49451,0.0485,0.0499,0.023318,0.016,0.034421,0.12828,0.17497
0.22477,0.10695,0.010304,-0.016465,-0.0074798,-0.0046293,0.20894,0.13194
-0.57252,0.055287,-0.21801,-0.055059,-0.039158,-0.083921,-0.41742,-0.34738
-0.42095,-0.21534,0.1697,0.032629,0.022452,0.046569,0.1222,-0.060211
0.27284,0.13155,0.13453,0.035484,0.02107,0.012079,-0.11901,0.22715
-0.022966,-0.14569,-0.057663,-0.039167,-0.027638,-0.022895,0.030268,0.021668
0.30817,0.32845,-0.1331,0.00323,0.0092487,0.0046963,0.21911,-0.0055181
0.1248,-0.18772,-0.013262,0.083629,-0.0087262,-0.013964,-0.089685,-0.15171
-0.57414,-0.31876,0.10702,0.044871,-0.0032303,-0.039372,-0.23701,-0.10436
0.71788,0.28721,-0.15457,-0.13715,0.01033,0.069315,0.069681,0.30903
-0.3756,0.23968,0.17896,0.17017,0.039967,0.015159,-0.0098098,-0.097968
-0.3482,-0.38342,-0.048321,-0.15782,-0.023536,0.10252,0.22284,-0.081752
0.11907,0.20645,0.1481,-0.17489,-0.031642,-0.090997,-0.019513,-0.094002
-0.099803,0.086493,-0.22398,0.034322,0.007862,-0.065922,-0.041026,0.16336
0.89299,-0.393,-0.15691,-0.099144,-0.053518,-0.049249,-0.053624,-0.066807
-0.31667,0.3289,0.27094,0.25387,0.049701,0.013505,-0.15335,0.035766
-0.079651,-0.18702,0.14529,0.53913,0.036047,0.052086,0.24258,0.17339
-0.62085,0.13558,-0.11218,-0.20446,0.124,0.12147,0.25571,-0.014795
0.0076949,-0.15803,-0.20465,-0.50093,-0.17107,-0.082619,-0.44518,-0.35097
0.39539,0.26694,0.23508,-0.0072349,-0.013397,-0.059704,-0.018505,0.12389
0.46792,0.48826,-0.30856,0.10434,0.0032194,0.026551,0.20675,0.28317
-0.61489,-0.92302,-0.070041,-0.1662,-0.019544,-0.050164,-0.18291,-0.34289
-0.13163,0.18357,0.41896,0.29875,0.066972,0.038313,-0.03725,0.18294
0.57527,-0.15738,-0.15499,0.01543,-0.010414,0.096464,0.18533,-0.084136
-0.51015,-0.14475,-0.004314,-0.22662,-0.03275,-0.10271,-0.1922,-0.025804
0.57116,0.60888,0.35355,0.36961,0.04692,0.0027127,0.0041585,-0.14836
-0.15266,0.31086,-0.31759,0.10069,0.14261,0.23242,0.60361,0.52636
-0.53694,-0.29344,-0.12062,-0.29192,-0.17553,-0.29689,-0.65184,-0.41436
0.90671,-0.32742,0.13164,-0.30924,-0.056139,0.031739,0.17391,0.11628
-0.78588,-0.095949,0.08068,-0.054,0.055301,0.077783,0.39119,0.024829
-0.32795,-0.39808,-0.4589,-0.0039946,-0.10697,-0.11145,-0.30709,-0.15782
0.28697,0.44184,0.078303,0.90205,0.15228,0.027185,-0.46199,0.1534
0.76934,0.78531,0.023525,-0.21984,0.05172,0.14285,0.44881,-0.019295
-0.55268,-0.32758,0.38717,-0.52676,-0.041554,-0.045082,-0.22315,-0.036636
0.53997,0.041543,0.20982,0.57473,0.012986,0.026246,0.34353,0.17826
-0.56168,-0.22272,0.15572,-0.66481,-0.034732,-0.049352,-0.13844,-0.14114
-0.63047,-0.77273,-0.87767,-0.072018,-0.10658,-0.069004,-0.13573,-0.15931
1.0297,0.73423,0.47516,0.20696,0.031916,-0.0019763,-0.044988,-0.0088974
-0.22856,-0.23094,-0.39698,0.041965,-0.017513,0.010409,0.056701,0.11542
-0.20058,-0.10073,0.10609,0.26352,0.11252,0.108,0.083401,0.050569
0.13892,0.29589,0.36646,-0.19704,0.00029719,0.016615,0.35431,0.11016
0.30785,0.65426,-0.18617,0.52806,0.13032,0.024746,-0.13258,0.12339
-0.31618,-0.80721,0.065995,-0.32733,-0.15356,-0.14132,-0.41093,-0.39319
-0.011733,-0.098115,-0.12614,-0.45198,-0.038717,0.010703,0.17323,-0.087302
-0.74509,-0.15997,-0.089792,-0.027284,-0.079614,-0.049917,0.21216,0.21339
0.46198,0.18011,0.089727,0.21069,-0.03377,0.0057506,-0.6227,0.048148
0.40664,0.38118,0.29534,0.41674,0.13035,0.030201,0.34915,0.010649
0.55617,0.509,-0.21563,-0.23056,0.13166,0.14145,0.21544,0.17868
-0.88962,-0.55219,-0.10833,-0.27104,-0.10025,-0.089642,-0.037036,-0.31545
0.20525,-0.42665,0.0063917,0.11513,-0.0267,0.032376,-0.18692,0.019857
-0.16436,0.051021,0.20504,-0.048879,0.015737,-0.031784,-0.091197,-0.019016
0.78619,0.23552,-0.17005,0.16653,-0.028383,0.022102,0.40825,0.028514
-0.38323,0.54671,0.16922,0.1599,0.06681,0.037283,-0.0075906,0.27947
-0.12582,-0.77237,-0.19924,0.17383,-0.042883,-0.088133,-0.1427,-0.070849
-0.95459,-0.15573,0.18613,-0.65805,0.0018448,0.036458,-0.05147,-0.21767
-0.11487,-0.035627,-0.33735,0.032788,-0.10333,-0.17456,-0.35899,-0.18438
0.78937,0.25007,0.30259,0.49036,0.10328,0.068424,0.012415,0.1539
0.77045,0.62844,-0.25909,-0.59576,-0.049206,0.14101,0.40553,-0.023648
-0.41952,0.040486,0.20601,0.4248,0.018326,-0.065802,0.045249,0.33674
0.3825,-0.4892,0.0036931,-0.0013736,0.07229,0.13545,-0.08655,0.16338
-0.64784,-0.15718,-0.08469,-0.32719,-0.090068,-0.099519,0.092868,-0.51404
0.20226,-0.3573,0.15858,0.37589,0.054536,-0.021693,0.0018153,0.10778
-0.27661,0.76524,0.012803,0.027321,0.013246,-0.038555,-0.3396,-0.042232
0.145,-0.38835,-0.016667,-0.21225,-0.019692,0.075235,0.40994,0.32522
0.25396,0.51316,0.052155,0.49722,0.11073,0.053123,-0.3052,-0.36661
-0.58922,-0.026005,-0.31373,-0.76154,-0.17477,-0.089672,0.25809,-0.037161
0.010464,-0.59369,0.064661,0.76733,0.029234,-0.079484,-0.33495,-0.027087
0.10654,-0.11949,-0.077771,-0.51005,0.050561,0.014211,0.083978,0.1902
0.10489,-0.23422,0.09648,-0.41217,-0.11834,0.0051826,-0.058329,-0.046853
0.08246,0.75309,0.18339,0.24401,0.046711,-0.003585,-0.14002,0.09901
0.067091,-0.090833,-0.13499,-0.068627,0.023353,0.12979,0.44385,-0.044347
0.56018,0.55861,0.15895,0.48972,0.047098,0.0076767,-0.27415,0.17753
-0.17424,-0.7088,-0.11321,0.070132,0.04862,0.020954,0.49393,-0.0274
-0.70249,0.3444,-0.01355,-0.014046,-0.072979,-0.15883,-0.3255,-0.2954
0.65813,-0.75603,0.051297,0.048722,0.08102,0.17071,0.34098,0.30783
-0.89373,0.19448,-0.075872,-0.37667,-0.14571,-0.18664,-0.17568,-0.26678
0.65444,0.75899,0.072457,0.042915,0.04338,0.057338,-0.53581,-0.027809
-0.72213,-1.0943,-0.15339,-0.062147,0.014996,0.0036203,-0.10096,-0.20891
0.61747,0.30452,0.065904,-0.1464,0.0030214,-0.0042484,0.23052,0.30908
0.06509,0.86644,0.073431,0.33691,0.046092,0.088586,0.29685,0.091306
-0.36239,0.16535,-0.060766,-0.18924,-0.043599,-0.092411,-0.3826,-0.00015739
0.31996,-0.87369,0.053995,0.2223,-0.024042,-0.023166,0.61848,0.044685
0.39282,0.33105,-0.074191,-0.36388,-0.028109,0.046971,-0.078581,-0.0072159
-0.13761,-0.62181,0.10195,0.3039,0.045773,0.024773,-0.21266,-0.27267
-0.11716,0.32128,0.059377,0.48436,0.10388,0.051149,-0.0082676,0.31037
-0.11791,-0.11237,-0.22503,-0.74447,-0.11163,-0.053599,-0.25378,-0.19662
-0.50783,0.48572,0.13166,-0.024308,-0.0070954,-0.071028,-0.04361,-0.07621
-0.1848,-0.48312,-0.13629,0.18202,-0.035822,-0.0095043,0.2688,0.10769
0.3373,0.093167,-0.037139,0.036207,0.05193,0.098994,0.14921,-0.09934
0.88113,0.70073,0.37366,0.33267,0.083994,-0.011967,-0.26562,0.2703
-0.6449,-0.69127,-0.2565,-0.29013,-0.033648,0.0083922,0.20744,-0.1593
-0.12226,0.10377,0.0947,-0.20872,-0.06679,-0.05933,-0.014078,-0.013811
0.68361,0.01375,0.051291,0.0060376,-0.015427,0.018825,0.19896,0.057972
-0.39216,0.5679,-0.051273,0.22969,0.02692,0.00056582,-0.44493,0.0091816
-0.16343,-0.53997,-0.064303,0.057606,0.013835,0.065836,0.022372,0.027721
-0.32677,-0.25557,-0.1117,0.21103,0.016272,-0.097264,0.070942,-0.31532
0.47658,-0.3201,-0.14473,-0.65858,-0.019724,0.019964,-0.061695,0.18424
-0.51083,0.19835,0.22171,0.08462,-0.030948,0.0045158,0.19143,-0.019318
0.79829,0.75591,0.13051,0.060382,-0.001225,-0.0019111,-0.14122,0.22352
-0.30483,0.082248,-0.033752,0.23118,0.02285,0.0016095,0.077936,-0.086447
-0.30986,-0.52306,0.05014,0.3706,0.072472,0.046954,-0.0067852,0.02001
0.45742,0.34031,-0.18045,-0.49141,-0.063705,0.0015308,0.083264,-0.058553
-0.6654,-0.65473,0.14059,0.31449,0.035499,-0.056762,-0.097031,-0.1973
0.65027,0.26542,-0.043171,-0.48053,-0.076105,0.019872,0.060092,0.18934
-0.70605,-0.095089,0.14127,0.50313,0.06934,-0.042966,-0.026536,-0.13354
0.74721,0.37189,-0.32357,-0.39332,0.010136,0.12078,0.27202,0.1146
0.0057367,0.12549,0.029683,-0.1479,-0.066712,-0.029091,-0.44667,-0.0045628
-0.42787,-0.71159,0.18465,0.33297,0.018322,-0.087278,-0.04542,0.10957
0.51929,0.52216,-0.077545,0.011237,-0.039267,0.031529,0.098395,0.018556
-0.23504,-0.089834,-0.014367,-0.064427,0.026604,-0.016621,0.27285,-0.059604
-0.31002,0.1769,-0.12525,-0.21999,-0.0021851,0.0028969,-0.10757,-0.18776
0.24836,0.21176,0.20757,0.077872,0.078171,0.098545,-0.0099008,0.11087
-0.57937,-0.7744,0.00016881,0.34643,-0.059823,-0.17405,-0.244,-0.17072
0.43994,-0.18661,0.20598,0.26651,0.12343,0.12368,0.15426,0.17974
0.65821,0.74317,0.0050504,-0.09872,-0.059147,0.039663,0.13338,0.1873
-0.86158,0.049356,-0.49268,-0.8582,-0.16189,-0.10493,-0.17104,-0.22457
-0.24545,-0.20998,0.080973,0.019681,0.049836,0.042015,0.1413,0.070444
0.5651,0.085275,0.118,0.25394,-0.0019063,-0.019307,-0.13196,-0.075339
-0.2973,-0.54739,-0.051948,0.57899,0.011013,-0.039118,0.063356,-0.060286
0.67058,0.68921,0.12706,-0.31038,0.13523,0.13044,0.10844,0.11491
0.31182,-0.33151,0.022596,-0.016986,-0.04387,-0.042729,-0.07729,0.0035074
-0.79869,-0.05057,-0.4366,-0.1523,-0.034927,0.02633,0.0032945,0.072305
-0.26641,-0.27014,0.55158,0.24198,-0.026468,-0.11644,0.027112,-0.024669
0.62513,0.58924,-0.11852,-0.10256,0.027337,0.036039,-0.039311,-0.0082591
-0.35718,0.70056,0.032292,0.046094,0.047486,0.045869,-0.29887,-0.03628
0.066284,-0.77004,0.15489,0.27253,-0.068117,-0.024474,0.30283,-0.031315
0.039864,-0.41198,-0.25511,-0.70453,-0.030496,-0.01841,0.071163,-0.071166
-0.57638,0.25115,0.065686,0.28826,-0.034586,-0.036913,-0.1252,-0.045145
0.48715,0.058918,0.0010675,-0.21521,0.068805,0.092597,0.098512,0.18942
-0.35813,-0.45814,0.21192,0.1946,-0.016231,-0.058889,-0.13063,-0.16981
0.51674,0.076599,-0.65301,0.013063,0.015983,0.016957,0.0095893,0.12158
0.026536,-0.1237,0.0575,0.10976,0.033471,0.02355,0.0050161,-0.075417
0.15954,0.77002,-0.20766,0.47023,0.044619,0.062505,0.20809,0.30254
-0.23381,0.24796,0.58503,-0.10093,0.018463,-0.0069222,-0.10751,-0.11958
0.48943,0.31988,0.23909,-0.37822,-0.076199,-0.083371,-0.012463,-0.076827
-0.71033,-1.1724,-0.36884,-0.38658,-0.075422,-0.065474,-0.17168,-0.078057
0.29038,-0.093565,0.3822,-0.096244,-0.073175,-0.0315,0.062086,-0.10871
-0.36837,0.16641,-0.10308,0.28843,0.063044,0.065305,0.039026,0.064723
0.049628,0.5683,0.013789,0.15708,0.082799,0.06852,0.06237,0.066678
0.0024363,-0.3016,-0.18808,0.46971,0.071421,0.055973,0.09164,0.05305
-0.09567,-0.2852,-0.066005,-0.34498,-0.042174,-0.043111,0.00056878,-0.11708
0.21884,0.15273,0.080877,-0.030169,0.0067897,-0.033997,-0.30559,0.094939
0.55143,0.31559,-0.42415,-0.07887,0.053496,0.059302,0.12568,0.11038
-0.60941,0.19691,0.88108,0.016445,-0.15251,-0.13081,0.012961,-0.087155
0.54442,-0.2307,-0.76991,-0.20468,0.013795,0.067425,0.13779,0.06401
-0.88339,-0.66446,-0.061053,-0.07686,-0.072012,-0.04882,-0.061604,-0.22582
0.37345,0.23874,-0.088135,0.29247,0.083321,0.067998,0.064264,0.10561
0.040758,0.31442,0.38855,-0.024149,0.0045947,-0.065535,-0.17079,-0.10548
0.61677,-0.32946,0.20723,0.36591,0.099447,0.059483,-0.023145,0.23551
-0.61964,0.10031,-0.40049,-0.55159,-0.076305,-0.016856,0.055471,-0.1045
-0.20216,0.30016,0.7128,0.098873,0.017043,0.034362,0.074053,-0.0067385
0.43746,0.68976,-0.45191,0.25432,0.0045281,0.0026099,-0.0056698,0.0069369
-0.41314,-0.60317,0.27398,-0.40695,-0.10662,-0.088709,-0.1131,-0.14026
0.018742,-0.39815,0.065073,0.22235,0.073119,0.025555,0.15779,0.091547
-0.048404,-0.12462,-0.13722,0.19444,0.073576,0.024241,-0.0061988,0.022831
0.55728,-0.078468,-0.46572,-0.2197,-0.028623,0.062518,0.011222,0.15299
-0.50013,0.65708,0.42912,0.20454,0.046482,0.022056,-0.0096061,-0.097339
1.0762,-0.18644,-0.87803,-0.1823,-0.053494,-0.051269,-0.092779,0.13739
-0.94773,-0.14075,-0.0022825,-0.1691,-0.14123,-0.11907,-0.28543,-0.30859
-0.18062,-0.26672,0.23352,0.55035,0.080657,0.076225,0.39698,0.16491
-0.11287,0.61078,0.36616,-0.70092,-0.027345,-0.0042037,-0.04509,-0.091315
0.21926,-0.58205,0.63266,0.20547,0.020587,-0.023787,-0.072047,-0.069504
0.40542,0.54244,-0.04765,0.0073656,0.038424,0.026162,0.035245,0.074734
-0.065875,0.15317,-0.3007,0.090275,0.074214,0.068435,0.011217,0.10815
-0.034398,-0.44067,-0.18787,-0.067933,-0.074536,-0.044622,0.027397,0.039897
-0.747,-0.086778,0.32699,0.32131,0.029668,-0.02343,-0.026288,-0.074091
0.53238,-0.23545,-0.36992,0.28698,0.073731,0.093147,0.06801,-0.0062882
0.13948,0.20072,-0.039726,-0.68233,-0.13085,-0.077803,-0.11249,-0.084288
-0.24053,-0.27859,-0.073107,0.20616,-0.038358,-0.075661,-0.06846,-0.026781
0.38812,0.69147,-0.23121,0.15963,0.13921,0.13039,0.11382,0.16585
0.14486,0.35665,0.088919,-0.68388,-0.18486,-0.10855,-0.026474,-0.014917
-0.10907,-0.17926,0.16598,0.31526,0.12188,0.089959,0.02676,0.086255
-0.081934,-0.25034,0.31227,0.44673,0.05949,-0.0087485,-0.04604,-0.15655
-0.62867,-0.55707,-0.21405,-0.39687,-0.12947,-0.076693,-0.0018436,-0.072208
-0.11744,-0.032445,0.13304,0.0059553,0.047776,0.05015,0.035102,-0.051852
0.3516,0.017863,0.1316,0.22846,-0.001902,-0.026614,-0.044064,0.099611
0.6879,0.52487,-0.30266,0.20294,0.081395,0.099334,0.14366,0.17904
-0.65924,-0.01623,0.094624,-0.25617,-0.084842,-0.12665,-0.13627,-0.2119
0.009239,0.031203,-0.039481,-0.31186,0.03848,0.084495,0.13916,0.15343
0.76624,0.069341,-0.038089,0.098535,-0.033255,-0.017341,-0.09313,0.032924
-0.95755,-0.71135,0.06218,0.26344,-0.027064,-0.088585,-0.15405,-0.21402
0.44658,0.72217,-0.032519,-0.15445,0.017424,0.058019,0.05748,0.014245
0.35949,-0.1139,-0.044345,0.069599,0.060601,0.055026,0.12706,0.12414
-0.72924,-0.2122,0.056421,0.089808,0.039598,0.074107,0.038923,0.037894
-0.14249,0.14499,-0.065614,-0.15815,-0.053447,-0.1348,-0.11315,-0.11117
0.84449,0.26903,0.25611,0.41828,0.039669,0.053466,0.092887,0.091719
-0.78455,-0.6923,-0.46651,-0.35297,-0.16457,-0.14972,-0.1473,-0.18077
0.96342,0.72984,0.26374,-0.18967,0.046048,0.13132,0.15111,0.23627
-0.63585,-0.63541,0.069407,-0.16004,-0.045761,-0.047867,-0.06596,-0.17987
0.046167,0.36989,-0.060269,0.066835,0.11608,0.016736,-0.063519,0.079088
-0.5723,-0.40083,0.22225,0.41562,0.024751,0.091492,0.057478,-0.041446
0.14563,-0.039995,-0.34648,0.03682,-0.046029,-0.14345,-0.12438,-0.15127
0.60925,0.28066,-0.05522,-0.18601,0.051642,0.17918,0.25834,0.33464
0.19485,0.66117,0.00057637,0.097775,-0.011715,-0.065895,-0.044442,-0.0069803
-0.29377,-0.5189,0.41115,-0.12988,-0.042752,-0.12149,-0.12682,-0.12302
0.32788,0.15012,-0.10969,0.0025166,0.081278,0.066233,0.0653,0.016231
-0.64789,-0.10989,-0.1614,0.038014,-0.094879,-0.027113,-0.085988,-0.12944
0.062834,-0.23235,0.20343,0.5514,0.075591,0.081888,0.074838,0.048807
0.12712,0.085583,0.026892,-0.76412,-0.11907,-0.076366,-0.038783,0.019965
-0.2789,-0.24132,-0.12387,0.036364,0.040035,0.09122,0.0102,-0.074391
1.0227,0.20428,-0.46867,-0.28796,-0.031991,-0.04854,0.065322,0.1891
-0.74923,-0.07238,-0.0064908,0.28914,0.025987,0.027767,0.032872,-0.023763
-0.41284,0.29429,0.36698,0.2634,0.059849,-0.023251,-0.10249,-0.12535
0.082163,-0.24448,0.2336,0.27113,-0.022042,-0.075871,-0.059003,-0.028385
0.33373,0.073525,-0.0042407,-0.14591,-0.030457,-0.011913,-0.023525,0.025736
0.59609,0.12533,-0.15558,-0.49401,0.02006,0.044737,0.1765,0.22463
-0.15845,-0.1055,0.13377,0.34425,0.082934,0.11856,0.0026072,-0.080696
-0.52114,-0.044354,-0.22824,0.016441,-0.04542,-0.10218,-0.11513,-0.13352
-0.27983,0.29534,0.1968,-0.22909,-0.030126,-0.0077159,0.010914,-0.013379
0.13569,-0.38211,-0.12984,0.066568,-0.02103,0.050286,0.013406,-0.0030271
0.42715,0.41689,-0.33327,0.081047,0.035079,0.016625,0.079472,0.15404
0.37324,-0.070387,-0.12495,0.13286,-0.0037057,-0.023593,0.021093,0.06624
-0.87333,-0.096373,0.72063,0.10346,-0.028918,-0.063542,-0.16228,-0.26687
0.13631,-0.58243,-0.087255,-0.57046,-0.072271,0.036442,0.028878,-0.0015021
0.28047,-0.072141,-0.17589,0.24363,0.045879,-0.029111,0.0082866,0.058145
-0.21852,0.20533,0.25677,-0.040081,0.044545,0.06743,0.072652,0.045634
0.59688,0.42779,-0.1668,0.063123,0.041345,0.005587,0.026648,0.094607
-0.11121,0.28023,-0.31561,0.14742,-0.017935,-0.097292,-0.090561,-0.012954
-0.39745,0.26632,0.24724,0.26011,0.039022,0.009218,-0.0053657,-0.049959
-0.5096,-0.65136,0.02267,0.0033105,-0.013932,0.099149,0.040249,-0.078605
0.19736,-0.17622,-0.11193,-0.62218,-0.074814,-0.0065224,0.038671,0.049667
0.40133,0.14324,-0.12188,0.064608,-0.080649,-0.12748,-0.095855,-0.032295
0.67165,-0.1874,-0.15181,-0.028348,0.070675,0.12743,0.10559,0.10523
-0.75847,0.0562,0.24692,0.077524,-0.0030751,-0.069558,-0.059968,-0.068927
-0.21946,0.33315,0.45142,0.36067,0.10489,0.047423,-0.0064067,0.015759
0.073538,0.01718,0.048089,0.0021145,0.043424,0.10347,0.071166,-0.046674
0.090416,-0.35335,-0.34714,-0.12274,-0.13259,-0.14357,-0.084829,0.040987
0.36868,0.36191,-0.22126,-0.25673,-0.055999,-0.092162,-0.067905,-0.080337
-0.072358,-0.2589,0.00050083,0.22348,0.093193,0.12483,0.16119,0.097309
-0.29363,-0.028171,0.064685,0.04207,-0.052775,-0.10993,-0.12405,-0.027761
0.064568,0.054048,0.077689,-0.3116,-0.0025441,0.12513,0.099712,-0.0028746
0.072686,0.018641,0.068623,0.24557,0.055338,0.0091897,-0.027238,0.038364
0.31776,-0.096163,-0.12769,-0.015444,0.010315,-0.013198,-0.013251,-0.022285
-0.40025,0.45051,0.37151,0.23955,0.048704,-0.013285,-0.015264,0.024954
-0.0365,-0.33518,-0.37038,-0.16207,-0.0023744,0.078254,0.059737,0.014947
-0.26976,-0.048697,-0.046963,-0.21209,-0.088868,-0.090998,-0.038913,-0.068712
0.29426,0.22267,0.094005,-0.065219,-0.03901,-0.037207,-0.022627,-0.015412
0.067445,-0.31079,-0.093503,0.01539,-0.0085728,-0.018287,-0.016607,0.010987
0.20487,0.21845,0.21302,0.22022,0.042516,0.013013,0.033943,-0.020072
-0.16984,0.046148,-0.023888,0.067859,-0.0015655,0.065287,0.020049,0.056526
-0.37173,-0.60667,-0.13948,0.045137,-0.014352,-0.079176,-0.088915,-0.10177
0.27436,0.32526,-0.040359,-0.15109,0.10702,0.11199,0.082795,0.13118
0.47252,0.39938,0.13935,-0.1376,-0.019336,0.014792,0.051556,0.076554
-0.40357,0.016406,0.17105,-0.0088115,-0.080492,-0.096545,-0.096039,-0.12452
-0.021111,-0.19723,-0.17416,0.17893,0.048491,0.028479,0.023306,-0.02663
0.084443,0.15741,0.070382,-0.045405,-0.023461,-0.047424,-0.027638,0.01846
-0.32567,-0.67007,-0.16695,0.42506,0.06236,0.089787,0.055868,-0.0053076
0.63549,0.030273,0.082438,-0.59157,-0.093165,-0.036641,-0.01538,0.042182
-0.45636,0.8977,-0.15683,0.09858,0.040695,0.018323,0.023968,0.012026
-0.1176,-0.39724,-0.054242,0.35457,-0.020672,-0.081563,-0.045181,-0.07267
0.18383,0.17569,0.26839,-0.57264,0.019695,0.077481,0.058098,0.10827
-0.31577,0.038088,0.02541,0.12366,-0.0097185,0.0030301,-0.041446,-0.10916
0.1204,-0.81721,-0.053604,-0.03042,-0.053718,-0.031691,-0.03146,0.0018122
0.44766,0.48639,-0.091598,0.18657,-0.0024406,-0.12846,-0.11513,-0.058583
-0.34818,-0.30668,0.091847,0.27669,0.10534,0.16558,0.1372,0.02232
0.74118,0.32936,-0.13682,0.076839,0.011786,0.021993,0.053603,0.15856
-0.48768,0.39618,0.064015,-0.53834,-0.033513,0.010711,0.079255,0.092058
-0.011883,-0.62146,0.2146,0.085814,0.039031,0.061078,-0.028211,-0.10731
-0.56607,0.47834,-0.32166,0.079646,-0.13087,-0.24901,-0.20646,-0.17442
0.076675,-0.17451,0.26396,0.02616,0.088677,0.088269,0.060054,0.046567
0.33142,0.26744,0.1949,0.35213,0.056289,0.041911,0.044894,0.071084
-0.18344,-0.77084,-0.35106,-0.45273,-0.1035,0.057731,0.037406,-0.077348
0.31421,0.63578,-0.21032,-0.17921,-0.093943,-0.12928,-0.071373,0.070327
-0.17581,-0.29765,0.024404,0.11722,0.053875,-0.03416,-0.023213,-0.063594
0.32164,-0.0032188,-0.058807,0.26481,0.074686,0.077819,0.064986,0.099422
0.13986,0.22135,0.21454,0.2958,0.12516,0.13635,0.06828,0.051851
-0.28691,-0.076417,0.35467,-0.46784,-0.14587,-0.14025,-0.091699,-0.073374
-0.24301,-0.050903,0.097593,0.046327,0.10565,0.16134,0.092347,-0.0028558
0.089751,-0.30094,-0.45452,-0.13582,-0.11997,-0.13952,-0.13028,-0.10392
-0.23456,0.27818,0.041734,-0.035242,-0.0099401,0.034403,0.075625,0.037311
-0.12899,0.15836,-0.094265,0.30343,0.0064643,-0.08308,-0.024927,0.037864
0.54159,0.11594,-0.0042522,0.085106,0.023498,-0.023331,0.020845,0.092921
0.092628,0.17695,0.24841,-0.21257,-0.005138,0.065621,-0.0057971,-0.078852
-0.012086,-0.35166,-0.2429,0.12169,0.038301,-0.010693,-0.03414,-0.00092591
-0.33296,-0.54592,0.2018,-0.22501,-0.041063,0.045692,0.030305,-0.0092207
-0.25189,0.11942,0.0052464,0.16042,0.046048,0.0015021,-0.030253,-0.02554
0.51983,0.059831,-0.13595,-0.098463,-0.044186,-0.048622,-0.011673,0.020544
0.1682,0.74463,-0.12657,-0.058059,-0.015261,-0.010423,0.016611,0.035415
-0.30118,-0.16263,0.26126,0.26415,0.10094,0.10052,0.039547,-0.027681
-0.21882,-0.35118,-0.2685,-0.25869,-0.11828,-0.07554,-0.013016,-0.035849
0.30404,0.17625,0.14358,0.37958,0.13087,0.10911,0.10082,0.11249
-0.28812,-0.21633,0.20756,-0.31448,-0.15243,-0.12766,-0.10397,-0.090505
0.46625,0.24153,-0.20326,0.07249,0.078057,0.002386,-0.018931,0.019134
-0.16502,-0.05387,0.16666,-0.045443,0.0094444,-0.0014201,-0.020033,0.011617
-0.15497,-0.0095764,-0.067809,-0.073808,-0.03801,-0.030084,-0.022226,-0.042852
-0.42892,-0.32024,0.12275,-0.058178,0.0062527,0.088173,0.098803,0.011885
0.32218,0.15668,-0.23904,0.20621,0.02554,-0.029331,-0.040173,0.011684
0.031454,-0.0059371,-0.26992,-0.0055648,-0.065437,-0.062019,-0.033041,-0.0044584
0.41928,-0.040004,0.14118,0.15162,0.10902,0.12322,0.073446,0.080582
-0.28854,0.056013,0.19994,-0.27452,-0.044214,-0.035865,-0.032864,-0.0848
-0.064001,0.19621,-0.098662,0.013141,-0.024657,0.023422,0.031362,0.015014
0.43146,0.24613,0.17737,0.0064461,-0.011731,-0.073798,-0.069171,-0.010545
-0.18337,0.023118,-0.009747,0.040514,0.018036,-0.038369,-0.013457,0.018347
