0.15677,0.077363,0.24226,0.02184,0.0023627,-0.016309,0.46971,0.16175
-0.051094,0.15827,-0.032634,-0.019213,-0.021411,-0.006501,-0.10473,-0.74502
0.37937,0.041995,0.15506,-0.083311,-0.10727,-0.03617,-0.23549,0.071922
-0.060013,-0.37004,-0.4911,0.056363,0.096385,0.067509,0.24992,0.2155
-0.23665,-0.35328,0.10061,0.032822,0.01144,0.032048,0.040068,0.29833
0.029881,0.021834,0.057299,-0.036667,-0.010575,-0.07149,-0.39485,-0.47908
-0.14097,0.0054921,-0.017206,0.12123,0.084917,0.06979,0.29832,0.43687
-0.62034,0.34626,0.12122,-0.15003,-0.14758,-0.10668,-0.18369,-1.2511
0.37799,0.6722,0.16122,0.07101,0.065115,0.06264,0.066275,0.65934
0.38241,-0.11173,-0.076674,-0.0051949,0.0040266,0.029926,0.14988,0.5011
-0.25978,-0.011135,0.086569,-0.011857,0.0049025,0.036198,-0.027552,-0.42738
0.46011,-0.47245,0.087334,0.097673,0.059852,0.056838,0.078974,0.84783
-0.46835,-0.22493,-0.43486,-0.1922,-0.14357,-0.13567,-0.087875,-0.68019
0.24567,0.072903,-0.19162,0.0094286,0.0042005,-0.065254,-0.20294,0.15785
0.29663,0.38182,0.19199,0.078066,0.089375,0.041567,0.26224,0.084066
0.25298,-0.65445,0.13056,0.045552,0.010701,-0.041165,-0.13973,-0.15588
-0.51897,0.30673,0.23419,-0.025058,-0.05186,-0.015575,-0.16764,-0.32972
-0.92339,0.19729,-0.13714,-0.0083681,0.050317,0.22108,0.47572,0.43933
0.85085,-0.19676,-0.14731,0.0098415,-0.010816,-0.087888,-0.38759,-0.27945
-0.2318,0.20119,0.078322,-0.025213,-0.00090716,0.15216,0.54221,-0.38039
0.35226,0.21058,0.1796,-0.0044714,-0.052867,-0.19884,-0.64523,0.53585
0.012461,0.1038,0.030646,0.087224,0.0441,-0.086039,-0.2663,0.22344
-0.91105,-0.56603,-0.18169,-0.070968,-0.022677,-0.0643,0.39329,-0.077477
0.42066,0.042413,-0.26217,-0.13581,-0.089335,0.006438,-0.29722,-0.27548
0.76516,0.37104,0.12574,0.15787,0.14858,0.22683,0.73269,0.031316
0.094038,-0.15512,0.15503,0.044117,0.042341,0.13473,-0.003106,-0.38379
-0.76696,-0.7924,-0.11828,-0.071064,-0.056798,0.056932,0.46861,0.56819
0.33121,0.48196,0.025475,-0.054996,-0.10227,-0.35936,-0.87178,-0.22429
0.11226,0.19596,-0.10894,0.092275,0.085353,0.056894,-0.098141,0.63002
-0.20168,0.31239,0.18045,-0.058894,-0.04875,-0.13205,-0.32201,-0.43492
0.22148,0.51047,0.22717,0.077568,0.042292,0.042975,-0.15306,-0.30813
-0.27597,-0.52405,0.035782,-0.052803,-0.00075628,0.16887,0.8163,0.47226
-0.34796,-0.51923,-0.23314,-0.020004,0.0020578,0.020292,-0.24754,-0.1774
-0.25354,-0.19339,-0.012047,-0.01114,-0.027035,-0.026571,0.54833,-0.39995
0.78353,0.57455,-0.10689,0.0054857,0.013936,-0.033349,-0.45085,0.3382
0.0817,0.019418,-0.0012222,0.08502,0.031647,-0.0074351,-0.010496,0.40395
0.031606,0.021145,-0.15305,-0.076802,-0.059429,-0.0035535,-0.084849,-0.5886
-0.28017,-0.27868,0.020377,0.035982,0.07701,0.15761,0.14435,-0.12297
0.1856,-0.11106,0.11821,-0.076407,-0.066549,-0.15727,-0.27066,-0.43037
-0.40814,-0.11272,0.1143,0.047049,0.010097,0.0045029,0.51166,0.41461
0.31843,0.17951,0.10619,0.12504,0.057035,-0.052564,-0.33823,0.62487
-0.053946,-0.10299,0.24404,-0.17857,-0.15236,-0.062709,-0.2972,0.051032
-0.095406,0.31458,-0.50396,0.034363,0.092629,0.13072,0.35444,0.2434
-0.20664,0.56096,0.10958,0.060371,0.065039,-0.010807,-0.15475,0.15563
0.25628,-0.021035,-0.060008,-0.077486,-0.024726,0.052225,0.076368,-0.96345
0.23237,-0.044533,0.099831,0.065756,-0.0053951,-0.047146,0.21486,-0.26364
-0.12164,-0.6073,0.22536,0.028874,-0.010342,-0.043401,-0.25205,-0.16725
0.37444,-0.27355,-0.28833,-0.0086275,0.030344,0.11772,0.10777,0.33442
-0.65266,-0.29074,-0.052443,-0.1093,-0.086601,0.0058827,0.26491,0.30565
0.32465,0.27844,-0.13744,0.031627,0.021807,-0.13745,-0.3262,0.021479
-0.33469,0.37598,0.14552,0.062799,-0.018992,0.10117,-0.047626,-0.11172
-0.018143,0.0095657,0.1191,0.00011451,0.018175,-0.17709,-0.078803,0.4819
0.38221,-0.20249,0.012605,-0.03896,0.0089223,0.051081,-0.13102,-0.32768
0.11706,0.35733,-0.077709,0.00047469,0.039642,0.12956,0.31806,0.42094
-0.52325,0.23393,0.14683,0.0091364,0.016758,-0.019523,0.16486,-0.65592
-0.46058,-0.3434,-0.12541,-0.036471,-0.044264,-0.036474,-0.23422,-0.12928
0.13798,-0.26563,0.14468,0.10564,0.043636,0.024292,0.085802,-0.029596
0.7104,0.36293,-0.0747,-0.064827,-0.07952,-0.0088868,0.081729,0.46696
0.4555,-0.0086688,-0.1827,-0.001304,0.077865,0.036049,0.030928,0.03137
0.56804,-0.13465,0.10142,0.014747,-0.039302,-0.043821,-0.18674,-0.013363
-0.89218,-0.088791,0.019797,0.04581,0.053272,0.0017811,0.067919,-0.18474
-0.13057,-0.2873,0.31507,-0.032875,-0.073802,-0.014286,-0.20474,0.05688
-0.48219,-0.13725,-0.60576,-0.088,-0.076137,-0.09944,-0.08074,-0.52113
-0.26143,0.51764,-0.08573,-0.017342,0.054915,0.051323,0.076082,-0.20638
0.21511,0.23231,0.19558,-0.03119,0.015487,0.078729,0.19146,0.8991
-0.37227,-0.17309,0.14354,0.12088,0.032703,-0.072147,-0.012348,0.018159
0.62013,0.019241,0.44354,0.03263,0.028554,0.26995,0.20932,0.59624
0.49977,0.18264,0.27214,0.15665,0.057306,-0.17718,-0.033156,-1.0501
0.39938,-0.16137,-0.85865,-0.26591,-0.1007,-0.09433,-0.17769,0.11131
-0.79507,-0.35032,0.17303,0.044835,0.029888,-0.013772,-0.1633,-0.091919
0.13335,-0.29892,-0.24405,-0.068791,-0.044377,0.0012672,0.14859,0.62873
0.26458,0.37629,0.12454,0.19673,0.050496,0.13804,0.091967,-0.41312
-0.54274,0.81009,0.17151,-0.042045,0.001479,0.006219,0.0092474,0.012929
0.17897,-0.66635,-0.20883,-0.019364,-0.058522,-0.088689,-0.12341,-0.25794
0.031615,-0.40872,-0.019838,-0.10149,-0.019415,-0.082978,-0.18045,-0.3563
-0.17693,0.66485,0.039649,-0.075828,-0.012808,0.024734,0.026957,0.62065
0.091288,-0.69244,0.34781,0.036255,-0.045071,-0.06112,0.0082842,-0.22028
-0.40381,0.42781,0.031156,0.12752,0.22893,0.27762,0.39783,0.53977
0.27186,0.14339,0.1051,-0.089376,-0.12724,-0.11483,-0.076922,-0.17398
0.32671,0.054882,-0.16637,0.19903,0.097891,0.11296,-0.040872,-0.0007775
-0.078226,-0.41047,-0.48866,-0.20263,-0.1426,-0.23491,-0.11963,-0.15197
0.06806,0.47059,0.050062,0.14211,0.096064,0.11407,0.10762,0.18343
0.18855,-0.024088,0.14357,0.051762,-0.03073,-0.098904,-0.19613,-0.48845
-0.092549,-0.084614,0.26791,-0.085221,-0.00052417,0.1019,0.030851,0.2924
-0.32407,-0.27461,0.17354,-0.15374,-0.095451,-0.041863,0.014947,-0.28602
0.069969,-0.18711,-0.52896,-0.0069525,0.066655,0.016511,0.014354,0.27847
-0.16955,-0.14001,-0.064635,0.15122,0.040137,-0.011891,-0.0013823,0.2474
0.28563,0.38575,0.23193,-0.10103,-0.057882,-0.056396,-0.00010835,-0.28085
-0.20334,0.45625,0.05682,0.13557,0.061802,0.094353,0.13606,0.073555
0.022849,-0.45709,0.40994,-0.082893,-0.053707,-0.043702,-0.092635,-0.36506
0.20992,0.25614,-0.28004,0.010828,0.017669,0.021717,0.05566,0.32749
-0.38132,-0.24871,-0.40554,-0.081733,0.0025868,0.0013527,-0.044911,-0.30214
0.10207,0.11942,0.015594,0.10152,0.025988,0.043181,0.034141,0.53186
0.088705,0.012878,0.043636,-0.11071,-0.068572,-0.087798,-0.13034,-0.067484
0.3247,0.20078,0.51274,0.18778,0.12489,0.099969,0.093386,-0.13252
-0.1808,-0.55511,8.163e-05,-0.011458,-0.065709,-0.089294,-0.037532,0.099724
0.4078,0.16437,0.091757,0.095291,0.062699,0.094263,0.14867,0.095226
-0.24604,0.18625,-0.61705,-0.14148,-0.075603,-0.11474,-0.17568,-0.23328
-0.24311,-0.17638,0.032458,-0.18357,-0.081661,-0.067224,-0.087829,-0.22024
-0.23603,0.10196,-0.60506,-0.14086,-0.10316,0.026761,0.069595,0.20996
-0.19391,-0.077356,0.62944,0.2365,0.2279,0.14476,0.094563,-0.33171
0.40248,0.19521,0.38576,0.13612,-0.0018348,0.021995,0.089464,0.16795
-0.080534,-0.038301,-0.024515,0.0034406,-0.002948,-0.051919,-0.054677,0.27973
-0.18865,-0.17415,0.1216,0.018132,-0.017711,-0.069006,-0.087925,0.037113
0.57988,0.15595,-0.22084,-0.14814,-0.0075872,0.033024,0.059591,0.23962
0.26493,-0.10277,-0.11358,0.066813,0.026587,0.042745,-0.034648,-0.37642
-0.54089,-0.021778,-0.039819,-0.095106,-0.025495,-0.024842,-0.0040865,-0.24041
-0.013196,0.41265,0.30849,0.1864,0.03069,0.0015434,-0.021043,-0.25289
-0.17402,-0.3408,-0.11629,-0.1664,-0.094359,-0.0035376,0.054964,0.70624
0.053688,-0.32335,-0.50569,-0.10576,-0.072501,-0.10278,-0.088386,-0.11318
0.15895,0.47113,0.63298,0.22896,0.12798,0.078868,0.041534,-0.034537
-0.14419,-0.059812,-0.43062,0.065845,0.070351,0.14321,0.14061,0.014796
0.38857,-0.35372,-0.43299,-0.2499,-0.11949,-0.19068,-0.22813,-0.25351
-0.20972,0.34797,-0.0099884,-0.029665,0.0045469,-0.047556,0.076291,0.55927
-0.13998,-0.24247,0.40217,0.0082591,0.005404,0.10387,0.077364,-0.3506
0.34323,0.3532,0.48663,0.14471,0.039355,0.0055606,-0.053343,0.011817
-0.47395,-0.035144,0.27916,0.27678,0.13723,0.1023,0.027303,-0.27024
0.12629,-0.22621,0.30926,-0.23826,-0.11579,-0.028512,0.029435,-0.3531
0.22311,-0.023349,-0.60901,-0.043532,-0.02527,-0.020404,0.03038,0.77323
-0.29012,-0.074064,-0.30371,-0.14145,-0.076377,-0.10826,-0.087624,-0.28604
0.0045352,0.17684,-0.14814,0.20842,0.05074,-0.026552,-0.090367,0.059221
0.025413,0.34658,0.12167,0.13816,0.12168,0.13924,0.13187,0.44561
0.28427,-0.51059,-0.37286,-0.33611,-0.10533,-0.039633,-0.0060019,-0.3976
0.080979,-0.036127,-0.37927,-0.087768,-0.082669,-0.11658,-0.10438,-0.078427
-0.15306,0.096986,0.63293,-0.044144,-0.075148,-0.059023,-0.052626,0.059314
-0.17531,0.27814,0.53254,0.18006,0.14445,0.18095,0.16595,-0.14967
0.0055776,0.3421,-0.25719,0.23525,0.11542,0.096003,0.083174,0.20657
-0.018333,-1.048,0.075228,-0.049493,-0.0063282,-0.079719,-0.12132,-0.12458
0.055473,0.51333,0.18144,0.067757,0.036169,0.066904,0.075172,-0.24755
0.29502,-0.15369,-0.40784,-0.12529,-0.13328,-0.14526,-0.14896,0.47556
-0.098685,0.16972,0.44462,-0.0055768,-0.047104,-0.014711,0.056241,0.15186
-0.34608,-0.047435,-0.30493,-0.12972,0.067274,0.11336,0.087566,-0.17321
0.13759,0.38266,-0.066976,0.16503,-0.0091312,-0.035404,0.037403,0.1095
-0.15616,-0.42248,-0.31257,-0.20754,-0.049269,-0.078429,-0.19664,-0.94412
0.13952,-0.056206,-0.095937,-0.074724,-0.020731,-0.015184,0.0024492,0.42644
0.26668,0.41957,0.6877,0.096405,0.0077694,0.014861,0.088354,0.49847
-0.032665,-0.48647,-0.87838,-0.01238,0.014505,0.021063,-0.031532,-0.004748
-0.094662,0.11749,0.4772,0.38988,0.16501,0.14566,0.16778,-0.016212
0.017996,0.35785,0.32957,-0.16434,-0.10229,-0.14902,-0.19483,-0.37589
-0.35876,-0.60783,0.18912,-0.15136,0.0097129,0.083257,0.0072076,-0.16731
0.080083,0.14322,-0.35083,-0.032871,-0.030693,-0.047811,0.040752,0.26637
0.52282,0.36883,-0.22343,0.1193,-0.005802,-0.011226,0.039317,0.32977
-0.34961,-0.18217,0.17482,0.076641,0.059566,0.059448,0.065506,-0.31692
-0.012143,0.12055,-0.038214,-0.10807,-0.023541,-0.032179,-0.092116,-0.17178
0.068331,-0.25008,0.34142,-0.12382,-0.092339,-0.092012,-0.10642,0.17978
-0.090657,0.1625,0.027052,0.020739,0.0085001,0.074093,0.099371,0.402
-0.096779,0.26794,-0.48411,0.083391,0.059746,0.012032,0.047218,-0.30092
0.19966,-0.3983,-0.097872,-0.021154,-0.024581,-0.013249,-0.0064733,0.4025
0.018003,0.27895,-0.27159,0.12229,0.099583,0.091667,0.077798,-0.20744
-0.056016,-0.37981,0.47716,-0.19592,-0.1219,-0.12632,-0.16158,-0.7837
0.14848,0.13589,-0.11822,0.11135,0.085086,0.036251,0.0018417,0.29052
-0.29207,0.073201,-0.028023,0.013684,-0.075675,-0.09973,-0.087768,-0.15382
0.15928,0.04808,0.7287,0.034881,0.060466,0.11486,0.1564,0.15312
-0.16379,-0.40097,-0.29157,-0.14552,-0.068555,0.0010245,-0.0067415,0.12875
0.26788,0.33429,0.19157,0.065683,0.045333,0.028055,0.033337,0.12487
-0.06295,0.0010238,-0.42632,0.21457,0.035015,0.024437,0.01198,0.56662
-0.063482,-0.16407,-0.67256,-0.19966,-0.091776,-0.18936,-0.16388,-0.36066
-0.0072443,0.43202,0.46467,-0.07603,0.11009,0.21479,0.22487,0.046819
-0.018456,-0.065885,0.30277,-0.039757,-0.054893,-0.075677,-0.13423,-0.31536
0.0060044,0.25838,-0.30043,0.089074,0.045941,-0.0061167,0.00087248,-0.17807
-0.095829,-0.61736,0.70975,0.13922,-0.071781,-0.021801,0.012678,0.18174
-0.0091653,0.043057,-0.31376,-0.075888,0.006169,-0.028832,-0.067919,0.060138
0.2056,0.11043,-0.54035,-0.10209,-0.094888,-0.09731,-0.038182,0.24941
-0.0046585,0.13779,0.079967,0.069416,0.17233,0.24171,0.28117,-0.34425
0.20466,-0.29576,0.13628,0.017524,-0.0043057,-0.066374,-0.14935,-0.34169
-0.23674,-0.085613,0.38891,0.078582,-0.030799,-0.013892,-0.041127,0.030044
-0.66549,-0.18874,-0.45783,-0.19276,-0.071223,-0.054339,-0.027416,0.45955
0.70622,0.10927,-0.021758,-0.086131,-0.063391,0.014815,-0.0070712,0.033704
0.38456,1.0445,0.6789,0.28024,0.15613,-0.010297,0.035167,0.29079
-0.61658,-0.6339,-0.69615,-0.071712,-0.0073292,0.025804,-0.0025508,-0.36656
0.091759,0.24245,0.46476,0.26253,0.12487,0.14588,0.15303,-0.1249
0.21135,-0.089671,-0.14878,-0.44539,-0.25304,-0.15049,-0.076235,0.21682
-0.43838,-0.44868,-0.1042,0.029586,0.045584,-0.035315,-0.10425,-0.29107
0.32188,0.29331,0.17342,0.17863,0.06712,-0.0083109,0.022524,0.46305
-0.039056,-0.11615,-0.26209,-0.053255,-0.032204,0.024857,-0.023456,-0.27652
0.010473,0.050315,-0.37783,0.05311,-0.017532,-0.11471,-0.10867,-0.12392
-0.0055284,-0.42176,0.3534,-0.10271,0.033921,0.23002,0.20505,0.011454
-0.094259,0.37315,-0.008573,0.051277,-0.0094662,-0.034062,0.0041008,0.019064
0.27613,-0.032852,0.22926,-0.029862,-0.021407,-0.023811,0.015208,0.07935
-0.11252,0.0016613,0.41559,0.023034,0.030526,-0.020466,-0.058669,-0.30543
-0.21266,0.29616,-0.59425,0.00071188,-0.016839,-0.078955,-0.053873,0.3991
0.24213,-0.2547,0.10832,-0.080037,-0.022388,0.10505,0.12286,0.34478
-0.15342,0.10721,0.29774,0.15627,0.099861,0.031219,-0.044459,-0.39504
-0.031056,-0.012173,-0.54945,0.021924,-0.017641,-0.058392,-0.071588,-0.29455
-0.0069614,-0.056942,-0.0043289,-0.0073625,0.0072738,0.00039512,0.0026154,0.13992
-0.18197,-0.059127,-0.052565,-0.21408,-0.15429,-0.17487,-0.09481,0.22929
0.60823,0.18313,-0.024093,0.087907,0.043801,0.033511,0.019553,-0.18293
-0.23045,0.083738,0.6803,0.21766,0.14005,0.23539,0.23686,0.089913
-0.16763,-0.2767,0.042139,-0.30228,-0.14715,-0.084606,-0.091048,0.038715
0.022052,0.20952,-0.24637,0.14486,0.088377,0.073457,0.051363,-0.18166
0.32961,-0.45512,-0.27407,-0.12053,-0.067351,-0.087733,-0.094142,0.56824
-0.51141,0.25914,-0.10561,0.089519,0.034327,-0.029807,-0.004754,-0.34514
0.15495,-0.20105,0.078438,0.072625,0.0030506,0.035532,0.0063914,-0.46105
0.18061,0.29962,0.091147,0.017091,0.073434,0.021721,-0.014272,-0.2167
-0.4649,0.16911,0.25483,-0.013874,-0.043407,-0.048105,0.058144,0.61491
0.39118,-0.6952,-0.23215,-0.19168,-0.058313,-0.0019497,-0.049541,0.1667
0.038508,0.15444,-0.077225,-0.016181,-0.025943,-0.018976,-0.02428,0.031902
-0.015208,0.48094,-0.10522,0.13737,0.0067908,-0.074933,-0.091968,-0.119
-0.099083,0.089109,-0.13397,0.11994,0.094494,0.12013,0.10732,-0.045892
-0.050926,0.3659,0.82202,0.09472,0.026112,0.020063,0.019107,0.030074
0.31428,-0.12366,-0.20638,-0.23614,-0.034424,0.047116,0.11185,-0.36205
-0.22488,-0.40721,-0.41631,-0.029712,-0.071598,-0.087881,-0.14648,-0.012862
0.12625,-0.15713,0.072249,-0.013077,-0.062035,-0.096439,0.1023,0.014521
-0.28987,-0.28228,-0.087602,0.0090395,0.13489,0.24709,0.021038,0.58772
-0.090374,-0.09926,0.48415,0.076113,-0.01203,-0.01931,0.03062,-0.057426
0.44511,0.0027688,-0.27691,0.017025,-0.010551,-0.16224,-0.14278,-0.11387
-0.20382,0.020952,-0.14492,-0.08919,-0.055961,-0.096455,-0.1394,-0.17998
0.076332,0.45307,-0.1428,0.04738,0.023568,0.10742,-0.090986,-0.34572
-0.16296,0.4821,-0.2066,0.091415,0.048221,0.0041926,0.28528,0.37732
0.19991,-0.16661,0.42332,-0.042734,-0.029084,0.023953,-0.0011772,-0.030514
-0.5347,-0.3515,0.24859,-0.081685,-0.013282,-0.028037,-0.058535,-0.31639
0.45543,0.4386,0.082679,0.067982,0.064155,0.13005,0.3012,0.4506
-0.025194,-0.53136,-0.17578,-0.070782,-0.054712,-0.040339,-0.37543,-0.081872
0.099184,0.27514,0.043125,0.087457,-0.010467,-0.077877,0.12925,0.075456
0.12115,-0.25335,-0.30809,-0.012385,0.0096473,0.064656,0.095001,0.28512
0.011775,-0.28046,-0.29227,-0.12051,-0.032967,-0.11239,-0.16718,-0.23192
-0.09401,0.65902,0.42671,0.13032,0.049816,0.055449,0.013443,-0.37186
-0.3338,-0.51228,-0.18164,-0.0018179,-0.038192,-0.095461,-0.10586,0.1264
0.22692,0.10864,0.34466,-0.032104,0.070815,0.19309,0.16258,-0.11483
-0.35786,-0.096141,-0.14176,-0.092848,-0.099304,-0.11772,-0.039783,0.036661
0.24932,-0.0015881,0.21133,0.08983,0.060939,0.042414,0.069515,0.36351
-0.12026,0.3131,-0.43971,0.0083631,-0.034654,-0.053421,-0.12537,-0.40487
-0.017427,-0.24177,0.22487,-0.0091773,0.058596,0.10972,0.079857,0.032037
0.38957,0.29514,-0.038283,0.021176,-0.019628,-0.070654,0.014103,0.49047
0.24396,0.27207,-0.11358,-0.018506,0.018629,0.0059634,-0.048939,-0.19814
-0.1717,0.034271,0.19241,0.027052,-0.0074138,0.026104,0.077965,-0.023396
-0.20108,-0.5588,-0.13001,-0.069761,-0.043935,-0.0031112,-0.012108,0.0087022
-0.071418,-0.022386,0.18318,0.072942,0.041414,-0.019436,0.039342,-0.38197
-0.30701,-0.18997,0.029325,0.0014342,-0.040375,-0.053857,-0.096658,0.18793
0.091522,0.09253,-0.26374,-0.057851,0.008163,0.011569,-0.030099,0.015322
0.24116,0.53758,0.22652,0.11426,0.00056094,0.029509,0.019997,0.076212
-0.029857,-0.49841,-0.1936,-0.21565,-0.069702,-0.092561,-0.13381,-0.052454
0.20059,-0.1879,-0.16238,0.078764,0.072113,0.083939,0.12596,-0.020961
-0.19239,0.28205,0.14318,-0.016637,0.044242,0.13782,0.19022,0.42611
0.34584,0.41927,0.022434,0.030756,-0.043353,-0.13389,-0.18304,-0.26858
-0.40369,-0.035752,0.29749,0.12814,0.059336,0.065256,0.092021,0.01747
-0.05832,-0.4545,-0.070028,-0.091336,-0.07013,-0.085948,-0.063031,-0.51447
0.17106,0.17134,-0.15092,0.051725,0.035996,0.059783,0.062282,0.31443
-0.066798,-0.12167,-0.071768,-0.013834,0.040557,-0.037773,-0.14184,0.0045248
0.0098469,-0.049521,0.21204,0.0077028,-0.018546,0.026707,0.089997,0.62768
-0.090753,0.24029,-0.25516,-0.13487,-0.087478,-0.067598,4.9183e-05,-0.62611
-0.1654,-0.22879,0.32116,0.11993,0.044333,0.054312,-0.090966,-0.074023
0.25407,0.37941,-0.47491,-0.14257,-0.060426,0.017924,0.12232,0.19341
0.36165,0.12108,-0.18363,0.053975,-0.026089,-0.12121,-0.12489,-0.44602
-0.086814,-0.093683,0.59298,0.053455,0.08581,0.083285,0.082263,0.41571
0.0080697,-0.55482,0.15198,-0.010936,0.057558,0.093391,0.095986,0.11479
-0.36335,-0.15049,0.0098435,0.080023,-0.0084086,-0.082235,-0.099013,0.14195
-0.2645,0.33564,-0.15221,0.076788,0.013469,0.01004,-0.0027353,-0.32621
0.15646,-0.073448,-0.30065,-0.17649,-0.048509,0.018768,0.0094976,0.27639
0.26824,0.15356,-0.1747,-0.023216,-0.061717,-0.048497,-0.039448,-0.086134
-0.083,0.12509,0.15094,-0.049016,0.012446,0.04988,0.084083,-0.1836
0.16021,0.095738,-0.023525,0.027633,0.024912,-0.030579,-0.065989,-0.15187
-0.17926,-0.23763,0.25767,0.12881,0.029677,-0.025026,-0.037253,0.054446
0.29113,0.36562,0.30834,0.082742,0.041715,0.058014,0.083764,0.28707
-0.35733,-0.23927,-0.29377,-0.094973,-0.041063,-0.063267,-0.054907,-0.40563
0.031598,-0.003378,-0.0038931,-0.10761,-0.047118,0.032656,0.046546,0.080249
0.003858,-0.31573,-0.098948,-0.010084,1.1001e-05,0.048793,0.020999,0.33331
0.23752,-0.049122,-0.3801,0.02544,0.014525,-0.085061,-0.01404,0.34056
-0.36319,-0.19215,0.5467,0.084589,0.0045793,0.014217,-0.058003,-0.22367
0.35585,0.94033,0.21665,0.049848,0.072219,0.081461,0.030508,-0.4351
0.033347,0.12928,-0.49017,-0.055674,-0.039829,-0.046837,-0.021067,0.14641
-0.066445,-0.71739,0.065655,-0.10728,-0.057621,-0.026349,-0.040004,-0.23392
-0.29579,0.13031,-0.0060928,0.058856,0.0036178,-0.020607,-0.017838,-0.010246
-0.38121,-0.66668,0.24969,0.028527,0.0034873,0.025477,0.12386,0.55522
0.74817,0.84228,-0.36698,0.028275,0.059185,0.0027264,0.0099622,0.0044138
-0.21145,-0.32995,0.085121,-0.08242,-0.048256,-0.018601,-0.031979,-0.72338
0.53764,0.37518,0.078327,0.17323,0.14951,0.14086,0.12996,0.45006
-0.79302,-0.73576,-0.072119,-0.21229,-0.16835,-0.16788,-0.22397,-0.0083837
0.32813,0.84463,0.4242,0.17542,0.08356,0.10136,0.04594,0.22546
-0.083244,-0.39405,-0.53456,-0.34303,-0.18896,-0.083392,-0.03747,-0.11978
-0.23027,0.5441,0.1826,0.12313,0.099734,0.027246,0.0021517,-0.29322
0.59806,0.24841,0.28372,0.31604,0.097956,0.0031945,0.055604,0.23686
-0.34014,-0.90189,-0.062563,0.0088438,-0.014543,0.02404,0.045221,0.080924
-0.27079,-0.4241,-0.12456,-0.12696,0.01246,-0.0037455,-0.012771,-0.11002
0.42432,0.20584,-0.20833,-0.083928,-0.031604,-0.017142,-0.031841,-0.10458
0.11373,-0.16575,-0.18056,-0.13562,-0.075928,-0.031027,0.0041169,0.19856
-0.50565,0.55833,0.28937,0.061926,0.020704,0.025776,0.0251,-0.21372
0.12246,0.25605,0.29933,0.063983,0.0011018,-0.041207,-0.078141,0.11662
0.27286,0.28807,-0.24723,0.11354,0.084575,0.12027,0.13186,-0.030428
-0.4209,-0.76858,-0.34539,-0.14793,-0.09567,-0.098782,-0.15754,-0.47585
0.14263,0.15307,0.032035,0.030188,0.038626,0.036074,0.061245,0.31035
0.33725,0.73576,0.37892,0.062237,0.010726,-0.0067269,0.069248,0.35656
-0.15175,-0.62694,-0.024434,0.033992,0.062351,0.037827,-0.024351,0.16546
0.25865,-0.14955,0.18553,-0.00040408,-0.057179,-0.073265,-0.079048,0.0029282
-0.23162,-0.17704,0.10461,-0.049543,0.026369,0.073182,0.084818,-0.31243
-0.18787,-0.20775,-0.024026,-0.020504,-0.039272,-0.031448,-0.032678,0.15406
-0.2215,0.46569,-0.51167,-0.10148,-0.10618,-0.075259,-0.025128,-0.33492
0.088516,-0.0022995,-0.10565,0.0039644,0.091027,0.066418,-0.0017155,-0.031656
0.30488,0.1369,0.066261,0.076916,0.013315,-0.004876,-0.0013357,-0.21873
-0.0088176,0.09976,0.011627,0.19558,0.12189,0.078313,0.054215,0.017369
0.016163,-0.21165,0.18555,-0.10857,-0.11407,-0.081949,-0.014804,0.37162
0.24873,0.094405,0.052343,-0.17116,-0.069079,-0.039695,0.017977,0.51506
-0.27821,-0.10863,0.12365,0.031552,0.0073349,0.018279,-0.035244,-0.38224
-0.34448,0.097296,-0.089256,0.11701,0.068664,0.045749,0.051751,-0.088692
-0.097367,-0.53555,0.025569,-0.016162,0.029175,0.0041434,-0.088534,0.040799
0.51079,0.89268,0.047814,0.030573,0.013883,0.010911,0.059319,-0.012402
-0.011817,-0.51508,-0.25614,-0.12558,-0.086746,-0.098015,-0.11414,0.1406
0.092608,-0.053549,0.098447,0.13255,0.055133,0.12242,0.11772,-0.35142
-0.059008,0.14815,0.40103,-0.093529,-0.021737,-0.039169,-0.026208,-0.12628
-0.20128,-0.037055,-0.65233,0.086782,-0.020761,-0.044268,0.016793,0.24298
