0.39821,0.10477,0.03512,0.089454,-0.0056014,0.010958,-0.010939,-0.014337
0.29236,0.34428,0.00069116,-0.13633,-0.003982,-0.0023416,0.075008,0.068692
-0.39632,-0.28223,-0.09763,0.0049076,-0.0092862,0.024738,0.20132,0.12121
-0.37891,0.15314,0.23119,-0.072681,-0.0062619,-0.041235,-0.41269,-0.34996
-0.14623,0.17965,-0.29486,0.037574,-0.0030784,-0.021212,0.092692,0.091849
-0.10192,-0.50146,-0.019861,0.14884,-2.0723e-05,-0.032913,0.10026,-0.038332
0.85867,0.17866,-0.006228,-0.20693,-0.02854,-0.02201,-0.21865,0.26701
-0.15243,0.1881,0.24637,0.072266,0.020595,0.050355,0.19724,-0.16404
-0.16512,-0.027524,0.0743,-0.22462,-0.040255,-0.026871,0.15083,-0.042297
-0.062617,-0.35734,-0.26423,0.16714,0.054353,0.066515,-0.031969,0.17149
0.33265,0.55283,0.1608,0.33959,0.085437,0.072544,-0.0095804,-0.24121
-0.42005,-0.4106,-0.14249,0.048249,-0.041002,-0.055834,0.16173,0.094767
0.7852,0.31129,0.13099,-0.15461,0.010808,0.032835,-0.30751,0.21865
-0.60893,0.011933,0.0053095,-0.13028,-0.048166,-0.091044,-0.16619,-0.25226
-0.69722,-0.63299,-0.11237,-0.26234,-0.10042,-0.075511,0.018068,-0.083448
0.68534,0.13679,-0.0099399,0.13743,0.057791,0.072355,0.061639,0.25653
-0.53667,0.13411,-0.1001,-0.14746,-0.017997,-0.037082,-0.14054,-0.3102
0.97642,0.34092,0.18094,0.15207,0.032494,0.065998,0.50914,0.35736
-0.79515,-0.16221,0.037346,0.32125,0.085015,0.030947,-0.033686,0.080027
0.29964,0.02304,-0.053808,-0.12051,-0.094402,-0.10263,-0.19805,-0.28217
0.42553,0.71536,0.094876,-0.053089,0.033251,0.071529,0.13187,0.052805
-0.45022,-0.40711,-0.072037,0.11105,0.037769,0.02946,-0.34382,-0.56264
0.43471,-0.32065,0.014467,-0.026448,0.10578,0.090497,0.23801,0.67692
-0.61946,-0.47468,-0.39729,-0.71704,-0.18563,-0.08251,0.1856,-0.0093441
0.44528,-0.53315,0.40178,0.45829,-0.0093285,-0.045409,-0.051493,0.12069
-0.28864,1.1958,0.12858,0.019063,-0.037911,-0.095931,-0.22552,-0.21481
-0.30733,-0.40509,-0.12473,0.42945,0.0016889,-7.3635e-05,-0.17297,-0.13406
0.67874,0.49407,-0.015558,0.40366,0.17199,0.11731,0.029122,0.22108
-0.60903,0.15319,-0.013209,-0.67135,-0.0032026,-0.0088211,0.015851,-0.33807
0.63052,-0.48918,-0.17218,-0.34442,-0.10141,-0.010477,0.23527,0.41415
-0.57398,0.027007,0.047483,-0.013644,-0.035957,-0.058708,-0.060231,-0.42903
0.77482,0.33123,0.061344,0.026938,0.045526,0.13619,0.31044,0.59326
-1.1236,-0.94181,0.1056,0.28219,0.0031526,-0.073883,-0.33227,-0.44839
0.35033,0.26198,-0.036617,0.21903,0.040667,-0.024856,-0.028429,-0.30343
0.47015,0.60369,0.10507,-0.28168,0.0022429,0.11114,0.33757,0.4272
0.22567,0.50798,-0.15562,-0.11381,-0.088502,-0.056931,0.20955,0.66599
-0.17664,-1.1255,0.0022611,0.33429,0.057404,-0.052904,-0.67876,-0.86006
-0.85977,-0.093523,-0.20249,-0.19573,-0.052594,-0.080206,-0.27993,-0.17409
0.72502,0.72904,0.19827,-0.16815,0.018371,0.05632,0.14219,0.48959
0.25252,-0.3134,0.17215,0.41921,0.019441,-0.010552,-0.034911,-0.53323
-0.13149,0.67981,0.037796,0.34852,0.16836,0.15666,0.70675,0.68676
-0.33295,-0.97429,-0.46452,-0.48087,-0.1687,-0.098386,-0.09237,0.062999
-0.059315,0.091023,0.40545,-0.30108,-0.055155,-0.025916,-0.11214,-0.52249
-0.27312,0.24564,-0.088377,-0.14652,0.0005331,0.0065218,-0.065303,-0.27367
0.056804,-0.043806,-0.15023,0.20919,0.076218,0.068818,0.15445,0.50407
0.37565,0.24652,0.15703,0.096891,0.031425,-0.003444,-0.51111,0.31817
0.05643,0.2046,0.083968,0.15443,-0.0082704,0.00052688,0.47398,-0.096852
-0.17952,-0.51074,-0.25082,-0.21342,-0.10444,-0.16909,-0.42348,-0.63094
0.97883,-0.34304,0.084513,0.39835,0.064424,0.089822,0.21807,0.15467
-0.95046,0.30098,0.076896,-0.20759,0.054293,0.090648,0.11091,0.17562
0.18837,-0.20776,-0.20078,-0.15198,-0.11797,-0.1421,-0.24224,-0.027438
-0.37997,0.036031,0.15985,0.08305,0.079901,0.056713,-0.025448,-0.19558
0.16344,0.58877,-0.01184,-0.12743,-0.085843,-0.038666,0.12407,0.39798
0.63959,0.84598,0.12798,-0.012039,0.12714,0.15029,0.26366,0.025796
-0.58032,-0.87812,-0.16409,0.050312,-0.039323,-0.040636,-0.15999,-0.0093814
-0.41815,-0.15302,0.086211,0.49972,0.070209,-0.0027142,-0.053252,-0.25702
0.16888,-0.1793,-0.08515,-0.73215,-0.13134,-0.065127,0.0042816,-0.0010298
0.17172,-0.29414,0.25603,0.9898,0.08134,0.013073,0.20549,0.31899
0.49704,0.09269,-0.27594,-0.88569,-0.058585,0.0041275,-0.17115,-0.34478
-0.49519,-0.10244,0.24669,0.02961,-0.0051932,-0.03041,-0.19847,-0.10908
0.67115,0.40122,-0.31726,-0.022106,-0.032528,0.01828,0.074882,0.192
-0.49084,0.19243,0.033176,0.11786,0.06232,0.032905,-0.00027641,-0.13398
-0.40815,-0.22476,-0.16845,0.31336,0.013876,-0.056529,0.060679,0.26006
0.3722,0.50447,0.22949,-0.10961,0.056975,0.055327,-0.0068367,-0.08371
-0.56682,-0.57216,0.011701,-0.41077,-0.081128,-0.036895,0.056475,-0.061433
0.55061,-0.082226,0.38442,0.17275,0.069159,0.089645,0.095938,0.015482
0.71715,0.21788,-0.22819,-0.066619,-0.13969,-0.071948,0.026991,0.25618
-0.63021,-0.10371,-0.153,0.40337,0.027563,-0.044348,-0.26654,-0.098544
0.023816,-0.067747,-0.10072,-0.082826,0.024764,0.055769,0.12217,0.019401
-0.42113,0.60779,0.16233,0.11176,0.032034,-0.044838,-0.080174,-0.58007
0.39827,-0.38163,-0.13867,-0.080386,0.010378,0.0052366,-0.053534,0.13173
-0.072962,-0.2773,0.07249,-0.35206,-0.017101,0.064864,0.21706,0.38697
0.067197,0.37674,0.1216,0.45634,0.1286,0.031681,-0.011541,0.27769
-0.53354,-0.33574,-0.27523,-0.447,-0.1159,-0.087485,-0.11552,-0.51751
0.72825,0.13312,0.26977,-0.015865,-0.0015362,0.081348,0.24765,0.46191
-0.68349,0.04498,-0.10557,-0.17866,-0.083762,-0.087713,-0.27465,-0.40087
0.2495,-0.39901,-0.0053324,0.082767,0.0041156,-0.04841,-0.11279,-0.21411
0.47327,-0.051631,0.14682,0.31818,-0.019325,0.042756,0.20957,0.28961
-0.31917,0.38986,0.24872,0.49085,0.19759,0.068735,-0.11971,-0.082861
0.50684,0.81222,-0.3706,-0.3043,-0.087025,-0.024659,0.18923,0.13944
-0.51142,-0.75211,-0.036559,0.06551,0.033495,0.068042,0.059453,0.1381
0.37107,0.077975,-0.34646,-0.46314,-0.049792,-0.066262,-0.12485,0.11757
-1.1968,-0.14702,0.16597,0.1476,-0.055216,-0.10624,-0.2529,-0.69497
0.40119,-0.54217,0.053058,-0.27502,0.017601,0.081863,0.19995,0.38003
0.32739,0.88641,0.26459,0.26097,0.051782,-0.063738,-0.1561,-0.22065
0.75219,-0.31979,-0.040649,0.029486,-0.077458,0.03545,0.26517,0.47835
-0.24677,0.62464,0.13732,-0.10915,0.083109,0.12937,0.018042,-0.04779
-0.12114,-0.57065,-0.094729,0.26801,0.072528,0.053476,0.085941,-0.019124
-0.59315,-0.63077,0.10233,-0.26008,-0.15618,-0.15393,-0.19653,-0.38187
0.34513,0.38567,-0.042749,0.41643,0.060902,0.0062639,-0.0026119,0.15276
-0.30241,-0.12498,-0.25411,-0.053854,0.020553,-0.068256,-0.16931,-0.031969
-0.16918,0.32806,-0.067068,-0.16305,-0.0037938,0.059551,0.15442,-0.036591
0.45734,0.43042,0.063228,-0.2312,0.011423,0.077124,0.046842,0.12456
-0.10814,0.038159,-0.050504,-0.17953,-0.11324,-0.11679,0.00081247,0.04636
0.54956,-0.34633,0.062577,0.21946,0.044356,0.017426,-0.021721,0.010616
-0.51622,-0.50413,-0.086527,0.044845,0.023501,-0.027442,-0.10567,-0.022014
-0.0056182,0.11751,0.22427,0.054901,-0.011728,0.038095,0.038785,-0.099592
0.54933,-0.00063877,0.099144,0.18673,0.094655,0.096923,0.083709,0.057189
-0.551,0.77723,0.016001,-0.14706,-0.032919,0.00023479,0.059896,0.1022
-0.55595,-0.81995,-0.087731,0.18393,-0.020261,-0.065243,0.044374,0.19714
0.50993,0.28839,-0.010112,-0.065394,-0.024521,-0.038033,-0.17533,-0.69895
0.027675,0.44157,-0.010671,-0.21027,0.047273,0.057406,0.00070854,0.39727
0.88685,0.16039,-0.20035,-0.0025998,-0.039712,-0.014054,0.04767,0.040562
-0.23975,-0.33653,0.23252,-0.1383,0.011419,0.052026,0.066363,-0.049106
-0.90267,-1.0386,-0.41499,0.24294,-0.048777,-0.079903,0.088138,0.33361
-0.16402,0.17665,0.37394,-0.27848,0.015111,-0.033821,-0.28442,-0.41773
0.16846,0.33963,-0.062873,0.56622,-0.0065144,-0.089479,-0.10418,-0.3234
0.7284,0.41045,-0.23903,-0.46174,0.01273,0.12981,0.20148,0.26799
-0.49629,0.14457,0.41738,-0.046881,-0.066645,-0.04634,0.033295,0.35868
-0.2042,0.021089,0.16493,0.58625,0.19349,0.17212,0.10409,0.1529
0.12397,-0.57035,-0.2389,-0.6945,-0.11313,-0.089603,-0.092917,-0.52913
0.55184,0.64727,-0.29549,0.22727,-0.018475,-0.082143,-0.057713,0.20976
-0.12644,0.19872,-0.085124,0.24791,0.14809,0.16192,0.15406,0.047246
0.20698,-0.30604,0.1709,-0.31527,-0.099338,-0.0075759,0.11886,0.1919
-1.3032,-0.88909,0.56382,0.51879,0.011192,-0.068954,-0.3137,-0.61634
0.71037,-0.078365,-0.16612,-0.22947,-0.068336,-0.11735,-0.028272,0.011315
0.78453,0.835,-0.434,-0.31216,-0.018199,0.080871,0.10659,0.51885
-0.90461,-0.39878,-0.11451,-0.089444,-0.11182,-0.21648,-0.24578,-0.5321
0.71002,0.45643,0.22374,-0.076412,0.12009,0.2178,0.36765,0.74853
-0.27919,0.074962,0.22429,0.36131,0.1002,0.11918,0.040984,-0.03804
-0.35492,0.013909,-0.10139,0.11636,0.040285,-0.073678,-0.21738,-0.57169
-0.37887,-0.5763,-0.16376,-0.32503,-0.14494,-0.10193,-0.047456,-0.094517
0.38497,0.73556,-0.21007,0.42115,0.16207,0.13662,0.17625,0.29239
0.45717,-0.36172,-0.22363,-0.32447,-0.17141,-0.084338,0.0087342,0.12903
0.11062,-0.78081,0.62251,0.25797,0.04203,-0.0071586,-0.096695,-0.13784
-0.47457,0.70647,0.18417,0.073908,0.1226,0.12557,0.21947,0.48577
-0.55623,-0.17137,0.45594,-0.47109,-0.22654,-0.19448,-0.316,-0.86523
0.67653,0.77529,-0.49802,0.14636,0.11202,0.063523,-0.030871,0.19401
0.3446,-0.2249,0.0043231,-0.01044,0.029357,0.05555,0.15347,0.21208
-0.48865,-1.1154,-0.59498,-0.23671,-0.17706,-0.19501,-0.16088,-0.34129
0.67484,0.80057,-0.46791,0.61813,0.26678,0.27293,0.29998,0.57294
-0.6221,0.094024,0.56064,-0.31102,-0.029264,-0.0169,-0.010614,0.016053
-0.29877,-0.16493,0.23868,-0.28834,-0.15096,-0.13447,-0.1162,-0.10006
0.5223,-0.43862,0.2764,0.069292,-0.028138,-0.048214,-0.064056,-0.02812
-0.11656,0.30146,-0.27258,0.50303,0.13558,0.078025,-0.011057,-0.28643
0.023745,0.59039,0.08115,0.42465,0.10503,0.064608,0.088942,0.10734
-0.60508,-0.18606,0.27759,-0.8174,-0.152,-0.049552,-0.069475,-0.24625
0.25493,-0.21256,-0.2381,-0.054482,-0.05059,-0.04606,-0.03382,0.082567
0.65981,0.022289,-0.44491,-0.26581,-0.036957,0.074568,0.21104,0.47759
-0.15388,-0.31211,0.5205,0.46116,0.083545,-0.039822,-0.17113,-0.22372
-0.25385,0.049845,-0.2133,-0.053353,0.0058786,-0.02259,0.022729,-0.066624
0.40967,0.33748,0.076501,0.38728,0.15194,0.15714,0.089648,0.21595
-0.1992,0.19672,-0.081419,-0.21443,-0.05599,-0.1101,-0.12621,-0.17183
-0.83495,-0.77154,-0.18809,-0.51146,-0.21868,-0.14433,-0.069538,-0.17465
0.53705,0.34675,0.022604,0.32791,0.055587,0.10196,0.18227,0.19208
-0.10367,-0.28504,0.44293,-0.17738,-0.013129,-0.042187,-0.1669,-0.32963
0.44021,0.2678,0.0048194,0.56888,0.22491,0.20551,0.25861,0.44723
-0.40109,0.15555,-0.31298,-0.47123,-0.13545,-0.12276,-0.1423,-0.064093
0.2852,0.49354,-0.14182,0.16271,-0.070143,-0.09664,-0.095968,-0.11458
0.4336,-0.31735,-0.1846,-0.17218,0.030271,0.010633,0.061635,0.083814
-0.54599,-0.081948,0.46352,-0.096823,0.0089142,0.0659,0.088063,0.15525
0.060676,-0.114,0.088565,0.6184,0.091095,0.037006,-0.14212,-0.5101
0.030892,-0.38304,0.19391,-0.13313,0.025079,0.055391,0.097096,0.3535
-0.5911,0.35418,-0.19432,-0.26995,-0.027022,0.010047,0.031663,-0.13613
0.30308,-0.75006,-0.1981,-0.16241,-0.14518,-0.13971,-0.073386,0.04551
0.6124,1.0845,0.054127,-0.077293,0.028565,-0.027996,-0.031066,0.001219
-0.88814,-0.19494,-0.35288,0.56453,0.14971,0.10224,0.087912,0.11492
0.48295,0.20476,0.34025,-0.52298,-0.16448,-0.10064,-0.099519,-0.16736
0.2583,-0.26549,-0.08095,-0.101,0.00091422,0.0046077,0.06278,0.13891
0.01647,-0.3806,0.23365,0.2886,0.10052,0.13009,0.074824,0.064528
-0.22757,-0.11085,-0.16933,0.072307,-0.082499,-0.12892,-0.13357,-0.1649
-0.40507,0.43985,-0.24331,0.18329,0.11791,0.15886,0.11751,0.019644
0.12258,0.2676,-0.075747,-0.26727,-0.11676,-0.17698,-0.156,-0.094101
0.32232,-0.70378,0.61091,0.16602,0.02735,0.083494,0.10098,0.18024
0.46662,0.69729,-0.010159,-0.14321,0.035426,0.019186,0.0061019,0.029501
-0.26427,-0.2033,-0.22181,0.068447,0.079537,0.052354,0.0677,0.00049435
-0.61788,0.30181,0.13595,-0.10771,-0.082829,-0.059145,-0.10426,-0.26552
-0.019372,-0.3305,-0.13003,0.27159,0.094504,0.020425,0.029918,0.10776
0.7249,-0.30702,-0.51815,-0.84963,-0.24874,-0.13898,0.0099435,0.33303
-0.96414,-0.15378,0.70809,0.59861,0.034956,0.0090633,-0.1089,-0.50177
0.80256,0.69048,-0.31508,0.11671,0.15564,0.11245,0.087895,0.31607
-1.01,-0.81331,0.1129,-0.02874,-0.10624,-0.063863,-0.047928,-0.36067
0.76289,0.23399,-0.18831,0.38997,0.1861,0.17462,0.069382,0.077684
0.45357,0.62229,0.19643,-0.29793,-0.085198,-0.055885,0.0486,0.3725
0.2888,0.047407,-0.36333,-0.60716,-0.19418,-0.26423,-0.048744,0.34224
-0.4216,-0.037498,0.52615,0.11902,0.16332,0.26735,0.065203,-0.39064
-0.2125,-0.21863,-0.16311,0.1071,0.088533,0.030264,-0.032681,-0.094418
-0.039276,-0.20707,0.24372,0.85622,0.042282,-0.061826,-0.12471,-0.27906
-0.80692,-0.93214,-0.094771,-0.84626,-0.26431,-0.12605,-0.0788,-0.25822
1.1703,0.94316,-0.92706,0.48939,0.11457,0.049063,0.30008,0.90556
-0.58852,0.74857,0.6537,-0.53812,-0.17193,-0.14495,-0.25359,-0.4664
-0.39621,-0.37338,0.40492,0.66225,0.19735,0.19927,0.11217,-0.083496
0.21055,-0.76475,-0.057564,-0.51304,0.020028,0.035873,-0.016189,0.024674
0.32044,0.34129,-0.39224,-0.24443,-0.039294,-0.056219,-0.020941,0.19533
0.70017,0.13269,-0.27386,0.85171,0.16804,0.12651,0.16865,0.28071
-0.3007,-0.13313,0.33342,-0.9098,-0.27211,-0.2284,-0.18147,-0.305
-0.12538,0.26141,0.35626,0.47454,0.21035,0.23041,0.16333,0.12549
-0.087618,0.26774,-0.19997,-0.11617,-0.095744,-0.098895,-0.11692,-0.2483
-0.65987,-0.46752,0.085354,-0.13109,-0.065426,-0.091412,-0.045193,-0.20742
0.62957,0.093214,0.0251,0.30008,0.05153,0.034255,0.0041572,0.30352
-0.16169,-0.50391,-0.33164,0.11647,-0.10378,-0.13556,-0.1478,-0.22223
-0.029937,0.28822,-0.14496,-0.31482,0.10203,0.18874,0.26525,0.34924
-0.19681,0.5254,-0.17535,0.1919,-0.010246,-0.086186,-0.092189,-0.3252
0.71879,0.029669,0.17629,-0.20252,0.020488,0.1257,0.10799,0.32457
-0.56514,-0.68151,0.34405,0.26352,0.08453,0.034949,-0.025373,-0.0386
-0.11916,0.065177,0.45533,-0.2501,-0.10022,-0.14842,-0.18864,-0.065306
0.39253,-0.12042,-0.19323,0.002932,0.050861,0.12895,0.21055,0.015192
-0.24134,0.30773,-0.43267,0.0043311,-0.057503,-0.12665,-0.048023,0.12991
0.47074,0.6207,-0.096157,0.43252,0.10444,0.12243,0.0031064,-0.14506
-0.58943,-0.44302,0.20072,-0.33728,-0.13635,-0.20299,-0.23068,-0.49806
0.36616,0.13556,-0.087394,-0.49872,-0.030448,0.091912,0.18786,0.41523
-0.13991,-0.17917,-0.10644,0.44307,0.12539,0.085432,0.11848,0.37805
-0.31102,-0.31248,0.66351,-0.024259,-0.058585,-0.06537,-0.11748,-0.45032
0.45493,-0.10207,-0.43495,0.46201,0.02848,0.023637,-0.010776,0.082147
-0.09838,-0.2431,0.037026,-0.40774,-0.0099605,0.010337,-0.05971,-0.067982
-0.038892,0.65691,-0.57321,0.063993,-0.062522,-0.0645,0.03422,0.039488
-0.26978,0.28076,0.23958,-0.21522,0.036675,-0.027464,-0.079262,-0.047138
0.36869,0.1088,0.01252,-0.13547,-0.070407,0.021015,0.12398,0.19545
0.16126,-0.23768,0.4464,0.85775,0.21844,0.15182,0.16735,0.29684
-0.38116,-0.33271,0.17818,-0.68936,-0.09693,-0.041358,-0.12962,-0.37862
-0.17039,-0.60204,-0.36797,0.011207,0.021654,-0.027924,-0.018268,0.0015439
0.052442,0.32514,0.42552,0.0050359,-0.060081,-0.098032,-0.10178,-0.23006
0.56033,0.45962,-0.62216,0.18911,-0.0079606,0.043872,0.071395,0.39278
-0.40653,0.44404,-0.012967,-0.086588,0.051249,0.099599,0.039076,-0.20161
-0.093735,-0.025364,0.27429,-0.08941,-0.13396,-0.17414,-0.17599,-0.23193
0.37723,-0.64412,-0.60622,0.16319,0.11502,0.15158,0.18393,0.30306
0.18153,0.27419,0.47652,-0.010333,-0.022639,-0.10327,-0.060369,-0.00083486
-0.37996,-0.6941,0.33334,-0.182,-0.00010126,0.037942,0.0060333,-0.031897
0.096598,-0.066904,-0.34989,0.43591,0.058057,0.03652,0.056075,0.02448
-0.45954,0.76224,0.3313,-0.20414,-0.042745,-0.021019,-0.042029,0.0056689
-0.42179,0.08659,0.007922,-0.4457,-0.11411,-0.071542,-0.099964,-0.15812
0.93172,0.10501,-0.4935,0.16558,0.10273,0.057389,0.10929,0.1577
0.23771,0.094152,-0.29126,0.46779,0.053945,0.014605,0.0076632,0.12381
-0.25012,-0.35645,0.70028,-0.20805,0.037131,0.10497,0.071367,-0.089577
-0.55246,-0.25764,-0.15888,-0.12438,-0.11122,-0.18715,-0.22367,-0.17161
0.69918,0.12384,0.33596,-0.21565,0.023342,0.11466,0.22334,0.11864
-0.33136,-0.23435,-0.10961,-0.010717,-0.066716,-0.044446,-0.080501,-0.0084257
-0.036116,0.10058,-0.74248,0.30425,0.056277,0.038574,0.059655,0.049137
0.52028,-0.11702,0.20633,0.46363,0.064274,-0.050272,-0.12973,-0.14499
-0.35969,0.5471,0.060267,-0.51043,-0.066197,-0.013877,0.0078837,-0.018749
-0.61521,0.19832,0.60288,0.11416,-0.03063,-0.047212,-0.058131,-0.062493
0.51063,-0.46571,-0.54771,-0.23568,0.014371,0.014135,0.016735,0.06118
-0.060387,-0.045891,0.37339,-0.062601,0.052653,0.14696,0.21753,0.44667
-0.30433,0.050743,0.16079,0.51419,0.0601,-0.015904,-0.12722,-0.30483
0.7325,0.11169,-0.56397,-0.45177,-0.10466,-0.091873,0.0059213,0.0006283
0.13634,0.56509,-0.15637,-0.16385,0.018567,0.059242,0.11656,0.10321
-0.82744,-0.70704,0.6768,0.13623,-0.016112,-0.0084058,-0.084992,-0.24147
0.1919,-0.64176,-0.37972,0.22272,-0.013742,-0.092185,-0.12284,0.0038189
0.22443,0.57514,0.055535,-0.036345,0.033435,0.081014,0.1041,0.14271
0.18302,0.2352,0.053048,0.46124,0.055365,-0.020142,-0.084023,-0.074813
-0.29261,-0.43255,-0.22149,-0.19811,0.0057124,0.057642,0.062982,0.04757
0.00038516,0.42492,-0.077918,-0.56087,-0.15386,-0.15402,-0.055969,-0.011764
-0.23443,0.1589,0.39316,-0.22801,-0.0084828,0.048445,0.028459,-0.16464
0.1447,-0.20949,-0.16472,0.41066,0.05192,0.040426,0.035513,0.13018
0.10031,0.30781,0.11777,0.4342,0.20752,0.13463,0.059181,-0.024026
0.22009,-0.23187,-0.15692,-0.4456,-0.18218,-0.14555,-0.080329,0.13142
0.20869,-0.31031,-0.075133,0.029475,0.007587,0.043335,0.10875,0.20581
-0.74532,0.12301,0.31465,0.11702,0.0419,-0.010125,-0.06171,-0.1299
0.17105,0.12819,0.017918,-0.019857,-0.017479,-0.03301,-0.10015,-0.34596
0.082583,-0.29508,-0.28812,0.12509,0.024016,0.044577,0.047669,0.06374
-0.027194,0.11258,0.23831,-0.075045,-0.021701,-0.0041186,0.022222,0.074192
0.44971,-0.22415,-0.22411,-0.26282,-0.06899,-0.069621,-0.051263,-0.0033078
-0.17587,0.21354,-0.13605,0.0055117,-0.0084279,0.020337,0.062147,0.11955
-0.053999,0.5769,-0.01952,0.315,0.10566,0.063245,0.027281,0.083084
-0.30304,-0.28053,0.16672,0.032754,-0.062074,-0.049553,-0.076917,-0.19075
-0.095287,0.29076,0.25317,-0.082598,0.02807,0.018556,0.0080631,0.040651
0.10106,-0.22424,-0.30517,-0.4201,-0.029583,-0.052249,0.0013981,0.027961
0.52961,-0.52796,0.2583,0.38174,0.046591,0.074176,0.067211,-0.063897
-0.02628,-0.10352,0.044937,-0.041957,0.03796,0.077396,0.025482,0.03945
-0.56414,-0.12084,-0.087157,0.0062257,-0.032172,-0.066458,-0.030712,-0.0048675
-0.042486,0.64119,-0.20251,-0.17535,-0.078201,-0.11586,-0.10227,-0.10242
0.22823,-0.26061,-0.092539,0.13267,-0.038067,0.014348,0.012983,0.051829
0.47583,0.86254,-0.22042,0.2112,0.11903,0.05777,0.10323,0.29377
-0.60413,-0.95809,0.74803,-0.0034466,0.041143,0.091873,-0.035263,-0.2442
0.1046,0.18252,-0.25852,-0.15351,-0.061016,-0.024409,0.042508,0.077849
0.11558,0.43853,0.39271,0.23597,-0.015618,-0.025615,-0.085246,-0.16274
0.13678,-0.067374,-0.5394,-0.60176,-0.025624,-0.099084,-0.0040275,0.1193
-0.085328,-0.59481,-0.34958,0.18452,-0.0047544,0.0056452,-0.010007,-0.092136
-0.4293,-0.4103,0.44959,0.087432,-0.02287,-0.0076131,-0.032035,-0.07064
0.53921,0.72066,-0.27124,-0.024837,0.068931,0.080675,0.071317,0.15263
0.036686,0.18951,-0.13386,0.25506,0.052273,0.083739,0.11318,0.093607
-0.24266,0.090881,0.59057,-0.14245,-0.041382,-0.068189,0.00016159,0.09646
-0.40017,-0.70777,0.29353,-0.029802,-0.05576,-0.10138,-0.21294,-0.35392
0.28438,0.2067,-0.31473,0.0063078,0.055872,0.11703,0.10659,0.086803
0.38378,0.097527,-0.09562,0.2613,-0.027033,-0.05372,-0.049238,0.01301
-0.27071,0.35938,-0.43472,-0.27445,0.046829,0.10489,0.13972,0.089418
0.082178,0.089229,0.3057,-0.20429,-0.129,-0.14174,-0.13127,-0.034935
0.26616,-0.045546,-0.29097,0.30643,0.11723,0.042207,0.075346,0.1326
-0.8406,-0.22794,0.44523,0.061886,0.019849,-0.0073658,-0.10744,-0.25929
0.54591,-0.59965,-0.010435,-0.42189,-0.14769,-0.095127,0.015844,0.070576
0.3185,0.51299,-0.18225,0.60637,0.1224,0.13827,0.078085,0.074886
-0.58389,-0.16659,0.19482,-0.66402,-0.076214,-0.049539,-0.053711,-0.098749
0.097097,-0.20959,-0.44219,0.11272,0.045278,0.028497,0.0262,0.10314
0.18126,0.79819,0.39072,0.368,0.088056,0.059178,0.043533,-0.00063452
-0.0049657,-0.42478,0.31053,-0.0064601,-0.034308,0.010361,0.044067,0.057038
-0.29256,-0.10715,-0.28421,-0.13544,-0.087927,-0.16574,-0.15306,-0.13158
0.57238,0.089789,-0.34589,0.042968,0.098715,0.22544,0.24803,0.2371
-0.11008,-0.27997,0.15035,0.25414,-0.091681,-0.20704,-0.24545,-0.22012
-0.63389,0.55288,-0.027692,-0.47202,-0.018287,0.0057039,-0.016345,-0.12004
0.62132,0.050228,0.060223,0.066502,0.030341,0.028441,0.029691,0.069803
-0.33255,-0.16342,0.27639,0.064457,0.02367,0.049772,0.03441,0.054312
-0.013486,-0.010209,-0.071832,-0.21248,-0.076594,-0.10086,-0.086691,-0.13323
0.74195,0.1599,-0.3262,0.4316,0.11302,0.14031,0.21473,0.32153
-0.62744,-0.35134,0.0064205,-0.14311,-0.00084186,0.00081913,-0.021063,-0.072247
-0.39973,-0.457,0.07413,-0.0061143,-0.004049,-0.081301,-0.12141,-0.048312
0.38288,0.31635,0.28152,-0.070959,-0.021852,0.065812,0.062347,0.026021
0.022798,-0.35995,-0.069524,-0.017249,-0.015664,-0.058339,-0.095066,-0.19373
-0.083787,0.38164,-0.10757,-0.032825,-0.048543,-0.024921,0.015037,0.056982
0.16154,0.36852,0.10117,0.49885,0.074338,0.086922,0.11049,0.066051
0.20707,0.52713,-0.079231,-0.51672,0.016766,0.026224,0.018461,0.10594
