0.027132,0.03442,-0.037568,0.014431,-0.012112,-0.0015921,0.008378,0.023661
-0.018666,0.022091,0.030152,0.060426,-0.014367,-0.020196,-0.0088004,0.023333
0.046674,0.011248,0.14546,-0.0018263,0.007433,0.0089338,0.029218,0.14659
-0.11218,0.0031253,0.043482,-0.071027,0.014679,0.031638,-0.0023253,-0.22519
0.05971,-0.03257,0.15475,0.063465,0.0076798,0.016946,0.029477,-0.12432
-0.039415,-0.040757,-0.61365,0.018629,0.0099691,-0.0039337,-0.047334,-0.098126
0.042963,0.056323,0.19983,-0.15089,-0.048918,-0.046998,-0.029891,0.23646
0.32155,0.093413,0.095353,-0.069978,0.018128,0.012119,0.034543,0.13035
-0.34529,-0.017322,0.0021185,0.29285,0.085533,0.078891,0.04396,-0.17287
0.049401,-0.0047518,0.11413,-0.28096,-0.10518,-0.050566,-0.0020562,0.25036
-0.13548,-0.04302,0.12461,0.25551,0.04689,-0.0018364,0.0055807,-0.36382
0.061079,0.1552,0.062219,0.1755,-0.021279,-0.064273,-0.073835,0.17375
0.092754,-0.18432,-0.46635,-0.54491,-0.020941,0.0043804,-0.013569,0.083193
-0.15674,-0.16269,0.091427,0.14827,0.024414,0.048275,0.030537,-0.40018
0.21197,0.088869,0.14842,0.17611,0.0056281,-0.0022593,-0.0034488,0.38019
-0.097268,-0.013069,0.25948,-0.0012065,0.0012759,-0.013669,0.010081,-0.24017
0.095465,0.17496,-0.55819,0.20166,0.035399,0.061602,0.063819,0.3313
-0.10863,-0.071052,0.049776,-0.31709,-0.063217,-0.049395,-0.052884,-0.063491
-0.015178,-0.038504,0.25102,-0.17449,-0.028338,-0.018325,-0.019721,-0.0049266
0.0072925,0.085503,-0.044437,0.1535,0.015486,-0.0093465,-0.0010556,-0.12029
0.12916,-0.075012,0.072941,0.074035,0.029392,0.031853,0.026004,-0.10678
0.005359,0.14968,0.2773,0.12718,0.075795,0.057836,0.029525,0.1594
-0.06807,0.069284,-0.4305,-0.14712,-0.025346,-0.033591,0.0010187,-0.20483
-0.05997,-0.029955,-0.051169,0.048591,0.0066846,0.030457,0.018087,0.19953
-0.15709,-0.36108,-0.11039,-0.1449,-0.11776,-0.18005,-0.13045,-0.048193
0.17332,0.1141,0.25547,0.22532,0.053976,0.13951,0.04769,-0.0089241
-0.058902,-0.010078,-0.00498,-0.028708,-0.0018112,-0.057482,-0.048617,0.045453
0.031202,-0.1379,-0.0059447,-0.14187,-0.0038439,0.057598,0.11255,-0.071278
0.16425,0.40541,0.69347,0.16678,0.032557,-0.022429,-0.030556,0.21204
0.036814,-0.0019594,-0.31608,-0.008959,0.029782,0.023382,0.014944,-0.0886
-0.1944,-0.26342,-0.85587,-0.20763,-0.027168,0.039285,0.03077,-0.066967
-0.18602,-0.064549,-0.033634,-0.14705,-0.10644,-0.12288,-0.084468,-0.20772
0.2796,0.22813,0.45182,0.22078,0.05805,0.052501,0.0050111,0.26997
0.075802,0.051404,0.21622,0.09215,0.044612,0.0026136,0.033125,-0.040629
-0.1587,-0.049746,-0.11592,0.14732,0.048416,0.070625,0.030429,-0.22598
0.019507,0.0079018,0.11863,-0.18415,-0.040396,-0.048939,-0.042975,0.1977
-0.063119,-0.1927,-0.5044,0.010945,-0.027273,-0.028833,-0.023885,-0.028115
0.014116,0.16607,0.53341,-0.1439,-0.0068607,-0.026154,0.0088058,0.30677
0.10218,-0.10519,-0.34641,0.0213,0.019976,0.044355,0.062353,-0.18111
0.013632,0.031776,0.23542,0.20768,0.029145,0.080734,0.027139,-0.14057
-0.15714,0.030477,0.40551,-0.063045,-0.057778,-0.088918,-0.096689,-0.18866
0.059771,-0.037334,-0.49246,0.25485,0.064031,0.004536,0.035184,0.22226
0.15808,-0.028852,0.13482,-0.50305,-0.097047,-0.044371,-0.03723,0.10141
-0.18082,-0.01191,-0.46993,0.038775,0.014588,0.031085,-0.0080106,-0.010299
0.052596,0.21892,0.61,0.1082,0.056269,0.044674,0.03043,-0.22024
0.023862,-0.24089,-0.65114,-0.05863,-0.056905,-0.041415,0.032453,0.1296
-0.039399,0.20322,0.41929,0.18076,0.027396,-0.015211,-0.047906,-0.092458
-0.089863,-0.20677,-0.12053,-0.10968,-0.010819,-0.063576,-0.038353,0.043446
0.098735,0.2076,0.37556,0.16459,0.11731,0.18862,0.14688,0.10664
0.0018656,-0.18065,-0.41392,-0.090179,-0.065456,-0.032462,-0.039816,0.0012464
0.039597,0.040069,0.13501,0.039431,-0.0054523,-0.040181,-0.021505,0.12276
0.069014,0.062536,-0.1513,0.16966,0.022788,-0.007562,-0.010541,-0.071167
-0.12322,0.079876,0.20049,-0.35661,-0.067591,-0.068643,-0.055199,-0.09912
0.062416,-0.14374,0.38058,-0.00069305,0.011954,0.033294,0.03869,-0.072463
0.24972,0.016218,-0.66506,-0.098311,-0.043264,0.039633,0.059479,0.023881
-0.33477,0.09169,0.24198,0.10916,-0.0061792,-0.073495,-0.11022,-0.0043324
-0.18975,-0.18122,-0.16681,0.21661,0.061577,0.053226,0.022068,0.017272
0.062164,-0.042167,-0.05955,-0.0092608,0.0047543,0.013793,0.0038561,-0.1735
-0.068197,0.082011,0.37945,-0.075581,-0.027332,-0.05072,-0.031224,0.16916
0.25019,0.11587,0.30182,-0.044776,0.059607,0.071171,0.11293,0.056156
0.11313,-0.024551,-0.41355,-0.026814,0.0078402,0.020645,0.015067,0.028423
-0.033363,-0.033621,-0.22246,0.047482,-0.089273,-0.11586,-0.074475,0.18786
0.13797,0.11185,0.11627,0.21573,0.12689,0.11522,0.070962,-0.14645
1.1682e-05,0.043349,-0.09974,-0.16417,-0.0086631,-0.0045288,-0.033078,0.015265
-0.29382,-0.24116,-0.0010831,-0.31219,-0.17652,-0.13109,-0.089861,-0.3926
-0.074417,0.10753,0.11064,0.091195,0.044528,0.0013366,-0.013543,0.20497
-0.023536,-0.029919,0.13704,0.26444,0.060404,0.095903,0.063062,0.13353
0.053209,-0.006712,0.25243,0.028015,0.019608,0.0040501,0.0072253,0.039896
0.22644,-0.10499,-0.83109,-0.20353,-0.04622,0.006725,0.022187,-0.0139
-0.18998,0.081356,0.56579,0.093961,0.027605,0.009724,0.014271,-0.09745
0.1497,0.029398,0.2381,0.093178,0.030864,-0.010922,-0.047788,-0.14651
-0.15075,0.091636,-0.38734,-0.20499,-0.059187,-0.0479,-5.0104e-05,0.036713
0.22313,-0.0041979,0.19416,0.10658,0.023636,-3.9836e-08,0.040091,0.25968
-0.1335,0.13375,0.27684,0.044402,0.04531,0.04672,0.0020903,-0.084357
-0.14972,-0.36832,-0.68757,-0.16421,-0.087804,-0.040407,-0.012688,-0.032365
0.14302,0.084388,-0.11285,0.10633,-0.00084128,-0.042252,-0.07466,-0.004983
-0.076544,-0.0072399,0.62012,0.0047772,0.071469,0.057334,0.05057,-0.02539
0.19005,0.013615,-0.73546,-0.070464,-0.019816,-0.006729,-0.0040489,-0.047421
-0.082424,0.18619,0.87092,0.13018,0.03723,0.047252,0.019511,0.14615
0.088666,-0.036677,-0.44811,0.066865,-0.031355,-0.046106,-0.019146,-0.095197
-0.063609,-0.054149,-0.034298,-0.089556,0.00843,0.041315,0.059845,0.11684
-0.20393,-0.04695,0.57363,-0.14489,-0.031052,-0.0032278,-0.016875,-0.15744
-0.06649,-0.00060801,-0.30545,-0.029855,-0.055931,-0.086415,-0.085296,-0.083894
0.18555,0.08384,0.0052369,0.19222,0.043504,0.072466,0.06533,0.25824
0.045727,0.0025374,-0.37313,0.16926,-0.021375,-0.074019,-0.06532,0.0092734
-0.00016734,-0.20577,-0.47587,-0.46613,0.023265,0.067368,0.053577,-0.30687
0.025574,0.068392,0.56057,0.19243,0.029205,-0.027212,0.015285,0.17035
-0.087374,0.036386,0.70228,0.11403,0.066725,0.063882,0.038074,-0.010572
0.25474,0.16753,-0.12217,-0.036698,0.0027509,-0.0031256,-0.019047,0.0036674
-0.26894,-0.092339,-0.1306,0.076876,-0.053728,-0.040501,-0.031228,-0.090062
0.028234,-0.086642,-0.23375,-0.11478,-0.063998,-0.024303,-0.013924,0.17809
-0.12033,-0.057508,-0.45705,-0.12644,0.010851,0.030596,0.041207,-0.042975
0.073622,0.1433,-0.0036501,0.0896,-0.00091592,-0.054579,-0.099354,0.12944
0.093989,-0.00018914,-0.16958,0.057582,-0.05198,-0.044521,-0.012674,-0.15684
0.26104,0.16012,0.42021,0.09847,0.092685,0.069347,0.07575,0.0036525
-0.25289,-0.18056,0.13046,-0.13104,0.019718,0.05308,0.010515,-0.022654
-0.13437,-0.10007,0.47038,0.033314,0.0031407,0.039466,0.065495,-0.09562
-0.053999,0.089878,0.09313,-0.064808,-0.058283,-0.081358,-0.087512,0.026778
0.075621,-0.1486,-0.35223,0.0039496,0.030752,0.056947,0.07435,0.039933
0.083895,0.029636,-0.17246,0.043719,-0.011336,-0.015385,-0.020184,0.045562
-0.12214,0.0085822,-0.32358,-0.032152,-0.013259,-0.057099,-0.067535,0.074953
0.30909,0.20296,0.55216,0.18961,0.071148,0.017109,0.048462,0.057576
-0.0060603,0.096995,-0.43474,-0.0026864,0.014642,0.003932,-0.0088447,-0.085192
-0.16294,-0.02128,-0.021691,-0.25809,-0.081723,-0.049461,-0.044417,-0.18217
-0.077666,-0.28642,-0.34875,-0.10043,-0.038492,0.0060422,0.012253,0.054975
-0.057056,0.057252,0.36091,0.16544,-0.011848,0.022863,-0.0023256,0.23502
-0.016966,-0.00017142,0.40919,0.10986,0.029758,0.025231,-0.0014384,-0.24393
0.33832,0.055236,0.11389,-0.056204,0.039852,0.044885,0.039101,0.15725
-0.18684,0.042771,0.057736,0.18289,0.018766,-0.050968,-0.02864,-0.12352
-0.029409,-0.022141,-0.51375,-0.30581,-0.025571,0.026241,0.037632,0.016102
-0.063094,-0.052954,-0.082871,-0.053784,0.0082279,-0.0056799,0.0031889,0.038037
0.049912,0.037553,0.20309,0.29023,0.033773,0.016133,0.039159,-0.033221
-0.11797,-0.014527,0.10268,-0.016232,0.011377,0.01234,-0.0038766,0.21734
0.24774,-0.035474,0.10103,-0.17642,-0.05178,-0.080533,-0.095656,-0.32677
-0.20301,-0.00020967,-0.33991,0.012885,-0.023343,-0.013015,-0.026011,0.0066513
0.24931,-0.024787,-0.054796,0.020779,-0.01282,0.019616,0.032817,0.24875
-0.18443,0.086537,-0.065876,0.066651,-0.0043226,0.002331,0.010639,-0.14002
0.20584,0.099066,0.29152,0.14355,0.05748,0.084624,0.087748,0.19893
-0.25324,0.043105,-0.02224,-0.38814,-0.045242,-0.075916,-0.055175,-0.1181
-0.18846,-0.192,-0.14997,0.16006,0.016677,-0.016944,-0.041901,-0.15439
0.35929,0.048757,0.22477,0.085874,0.056727,0.067501,0.011657,0.073904
0.0056202,-0.0088844,0.15924,-0.032035,-0.049306,-0.032558,-0.026186,-0.011462
0.06197,-0.068236,0.17118,0.10335,0.03499,0.0037305,0.025057,-0.011827
-0.2924,-0.066293,-0.40068,-0.008252,-0.026211,0.012367,0.079788,-0.028296
0.30997,0.013602,-0.098507,-0.29724,-0.053479,-0.030478,-0.041862,0.11933
-0.46591,0.15706,-0.0084948,0.20412,0.022918,-0.0083923,-0.035882,0.040809
0.076627,-0.017695,-0.17449,-0.0053673,0.030267,0.061961,0.057607,-0.076197
0.22035,-0.017915,0.16727,-0.036362,-0.0011813,-0.047133,-0.051717,0.018252
0.099389,0.14064,-0.0065702,0.18027,0.068162,-0.00085213,-0.029171,-0.12133
0.23806,-0.097472,0.054432,-0.09081,-0.059519,0.067067,0.12421,0.48928
-0.41796,-0.11626,-0.41616,-0.18609,-0.080243,-0.15649,-0.17038,-0.58736
0.060934,0.16894,0.86717,0.2225,0.11501,0.14074,0.11031,0.21937
-0.099016,-0.16479,-0.3918,-0.17707,-0.067452,-0.0098087,-0.0021872,-0.28536
0.023733,-0.032038,0.56944,0.053697,0.0056676,-0.03726,-0.046214,0.0082994
0.030547,0.10633,-0.63023,0.14274,-0.00074523,-0.042328,-0.028578,0.33487
0.31205,-0.084963,0.21229,-0.22873,-0.015338,0.022866,0.036218,0.17052
-0.35034,0.035714,-0.18434,0.097013,0.033288,0.034324,0.055475,-0.13428
0.067028,0.18044,-0.19372,0.089903,0.044522,0.00068658,-0.024697,-0.096733
-0.12318,-0.24356,-0.061873,-0.12434,-0.051278,0.0084002,0.022693,0.13296
0.13367,0.15495,0.28069,0.24353,0.003982,-0.036188,-0.067984,-0.35291
0.2122,-0.014522,-0.10155,-0.30688,-0.047659,0.015013,0.046601,0.32774
-0.30237,-0.088266,0.24847,0.16893,0.035433,-0.057488,-0.08745,-0.35608
0.12798,0.081409,-0.35972,-0.12708,0.057071,0.11247,0.091356,0.057792
0.095853,0.0091483,0.16444,0.10069,0.00057782,0.0081208,0.019419,0.24318
-0.087346,-0.087328,0.16037,-0.024038,-0.041351,-0.020005,0.00039564,-0.032001
-0.18799,-0.044852,-0.23728,-0.0023764,-0.014894,-0.082011,-0.052447,-0.046862
0.25462,0.25315,0.63568,0.20393,0.048186,0.071855,0.055781,0.12995
-0.17316,-0.17014,-0.4953,-0.35869,-0.10217,-0.1206,-0.11238,-0.024041
0.029669,-0.11147,0.055641,0.0050489,0.042244,0.068035,0.045157,-0.28985
0.075513,0.085866,-0.08003,0.20958,0.0056554,0.013963,0.013681,0.23055
-0.0026672,0.03191,-0.16833,0.06028,0.039063,0.031041,0.013114,-0.073004
0.085859,0.032095,0.010337,-0.10599,-0.044023,-0.012317,0.036863,0.2047
-0.34506,-0.0066302,-0.010932,0.008677,-0.0084072,-0.0762,-0.085884,-0.21079
0.24442,0.025667,-0.15955,-0.11025,0.021381,0.011561,-0.01065,-0.046916
-0.036251,-0.10499,0.49603,0.10076,0.068823,0.14908,0.13003,-0.054361
0.10907,0.054758,0.058061,-0.052751,-0.0070684,-0.0004718,-0.039058,0.19605
-0.016339,0.083214,0.04123,0.13299,-0.042889,-0.11022,-0.049784,-0.038298
0.0075057,-0.10543,-0.30702,-0.06826,0.0074603,0.068463,0.089122,0.19523
0.030126,-0.0032135,0.10337,-0.047182,-0.044227,-0.09061,-0.10773,-0.44774
-0.22376,-0.063124,-0.075399,-0.12451,-0.042179,-0.072584,-0.024079,0.14136
-0.1305,0.043066,0.082869,0.16772,0.060315,0.1067,0.058158,0.031922
0.30922,0.065346,-0.22867,0.14099,0.036842,0.041356,0.044912,0.37923
-0.10774,0.050417,0.28655,-0.049632,-0.057523,-0.064686,-0.071573,-0.23154
0.17392,-0.095822,-0.31522,-0.15528,0.027732,0.024044,0.021597,-0.035147
-0.00095727,0.21992,0.19576,-0.020684,0.043111,0.043074,0.035991,-0.21103
-0.13876,-0.26847,-0.0045561,-0.05274,-0.050057,-0.053473,-0.05891,0.17146
-0.19098,0.0089629,-0.13082,0.068534,0.0062385,-0.022731,0.0031972,-0.433
0.24255,0.028594,-0.11731,0.10874,-0.0067721,0.018351,-0.011591,0.46189
0.015039,-0.037705,0.41251,0.044649,0.0044291,0.038287,0.053124,0.22521
0.018522,0.091411,-0.041838,-0.0062018,0.031631,0.028588,0.017422,-0.36025
-0.081956,0.041,0.25931,-0.16835,-0.011603,-0.01956,0.0057036,0.38617
-0.10633,-0.0015661,-0.5318,-0.011557,-0.055478,-0.09169,-0.068826,-0.37894
0.12472,-0.060145,0.1427,0.15231,0.047986,0.076707,0.058506,0.16461
-0.17906,-0.17456,-0.072957,-0.1917,-0.0062244,0.0081906,-0.0037598,-0.29615
0.17562,0.19319,0.18565,0.13678,-0.022946,-0.047723,-0.053025,0.21475
0.12359,0.14341,-0.050889,0.20868,0.076005,0.057402,0.066891,-0.061175
0.02904,-0.28612,-0.093275,-0.38956,-0.10755,-0.082191,-0.088875,0.070659
-0.071787,0.28639,0.21094,0.26428,0.11434,0.089107,0.043098,-0.0312
0.084649,-0.07708,-0.53896,-0.24369,-0.10931,-0.075938,-0.012505,0.22607
-0.47904,-0.071588,0.0067767,0.14121,0.034636,0.0020846,-0.027768,-0.32257
0.28478,-0.10226,0.26729,0.1922,0.038968,-0.027238,-0.017124,0.11889
-0.012231,-0.088997,-0.051334,-0.31767,-0.072405,0.094713,0.13742,0.12798
0.024067,0.087968,0.62114,0.21258,0.044511,0.0088842,-0.024839,0.1343
-0.071023,0.14236,-0.007695,-0.12398,0.022485,0.0041215,-0.019874,-0.50229
0.010998,0.10797,-0.38145,0.015604,0.017413,0.025037,0.042051,0.00052392
-0.00051541,-0.18523,-0.33598,-0.072586,-0.096327,-0.16378,-0.1528,0.18324
0.098754,0.060523,0.22245,0.22006,0.094527,0.069285,0.050467,0.0082675
0.026898,-0.069015,0.21714,-0.028989,0.0031922,0.051243,0.049035,0.21889
0.305,0.042138,-0.49628,-0.16391,-0.058566,-0.054749,-0.033054,-0.067252
-0.1798,-0.022089,0.14431,0.026107,0.025965,0.032006,0.038037,0.0010266
-0.37668,0.024876,0.15756,0.096024,-0.001135,-0.0011401,-0.019009,-0.19455
0.062611,-0.10082,0.26041,-0.023756,-0.014554,0.01014,-0.0084778,-0.10866
0.065671,0.20005,-0.35939,-0.01179,-0.044838,-0.035083,-0.023321,0.42109
0.085173,0.097712,0.12743,-0.030688,0.073067,0.043792,0.054732,-0.044184
0.059824,-0.21327,0.16694,-0.024168,-0.0034724,0.02909,0.015959,-0.32559
-0.17973,-0.13881,-0.86676,-0.053221,-0.070281,-0.17185,-0.13065,0.061207
0.01039,0.049028,0.78839,0.070806,0.053121,0.098138,0.076793,0.054448
0.07876,-0.022678,-0.077778,0.067233,-6.6488e-05,0.027187,0.01389,-0.039837
-0.034553,0.062506,-0.054062,-0.017239,0.012253,-0.009514,-0.022367,0.0065551
0.16396,0.17387,0.66583,0.10552,0.073893,0.089313,0.10046,0.10145
-0.091554,0.00026161,-0.64543,-0.10514,-0.05045,-0.059868,-0.055963,0.20697
0.079998,-0.17678,-0.013093,-0.065245,-0.080658,-0.028405,-0.0162,-0.32469
-0.13678,0.079385,0.022472,-0.081562,0.013374,-0.0284,-0.031505,-0.024755
0.19997,-0.045517,-0.42881,0.12528,0.019728,0.040613,0.021958,0.2938
-0.31935,0.016494,0.24581,0.030421,0.01583,-0.0019084,-0.005143,-0.18227
0.099602,0.16933,0.15448,-0.0076108,-0.022103,-0.086154,-0.043006,-0.094397
0.19779,-0.0028868,0.27568,0.042297,0.030941,0.076831,0.064546,0.21298
-0.18847,-0.21187,-0.018834,-0.20993,0.0034211,0.026375,-0.018085,-0.26844
-0.049404,-0.17588,-0.41007,0.080654,-0.010314,0.020856,0.045716,0.062575
0.10257,0.24747,0.47666,0.35323,0.037403,-0.048327,-0.055641,0.049483
-0.080202,-0.16563,-0.937,-0.42928,-0.047841,0.015012,0.022606,0.012166
0.062445,0.18949,0.40247,0.039877,-0.054194,-0.053887,-0.031059,-0.0032014
-0.060103,-0.059318,0.69517,0.12191,0.034791,-0.0042759,-0.012681,0.26802
-0.039868,-0.019528,-0.6348,-0.18181,0.02442,0.047191,0.023612,-0.31591
0.28711,0.090622,0.13062,0.20747,0.016576,-0.016434,-0.0079006,0.25184
-0.1437,-0.026779,-0.051065,-0.0073073,-0.012217,0.046951,0.056691,-0.052626
-2.8414e-05,0.094623,0.62719,0.11818,0.031399,0.026031,-0.0018451,-0.31491
0.096248,0.037492,-0.41134,-0.14423,-0.0095126,-0.0016492,0.042347,0.036569
-0.016006,-0.06101,0.04607,-0.030798,-0.034245,-0.099231,-0.1162,0.1289
-0.27064,-0.14914,-0.32534,0.0035662,0.011008,0.029601,0.01402,-0.019786
0.17342,-0.072513,-0.10567,0.035634,0.00048719,-0.0061474,0.0028253,-0.016447
-0.13758,-0.073817,0.02603,-0.20094,-0.035091,-0.0034858,0.0062454,-0.14842
0.11817,-0.042893,-0.16954,0.19225,0.013395,-0.0092218,-0.030397,0.45993
-0.040264,0.25635,0.24922,-0.096819,-0.0024672,0.00026197,0.018055,-0.043609
0.079383,0.1776,0.45832,0.057671,0.011323,0.025146,0.026783,-0.18419
-0.095672,0.0042122,0.1093,0.13314,0.086415,0.1202,0.081838,0.16863
0.056801,-0.082403,-0.38232,-0.096272,-0.081402,-0.11307,-0.066792,-0.29219
-0.18582,-0.12001,0.38166,0.20582,0.016168,0.028276,0.04171,-0.099709
0.38964,-0.13894,-0.8581,-0.43696,-0.057928,-0.081014,-0.10844,0.10466
-0.23224,0.064635,0.48217,0.21759,0.032625,-0.011479,-0.017363,0.15714
0.12641,0.038169,-0.20121,0.013137,0.02248,0.080509,0.064972,-0.073854
0.032453,0.086794,0.19953,-0.003544,0.028989,0.054359,0.084077,-0.0084691
-0.15924,-0.05487,-0.19939,-0.15287,-0.057181,-0.066274,-0.069033,-0.16839
-0.03155,0.097471,0.25797,0.21347,0.021709,-0.046624,-0.057881,0.22893
-0.026238,-0.10514,-0.053365,-0.06092,0.0076806,0.051334,0.032208,0.14495
0.23637,-0.0231,-0.46133,-0.038749,-0.013558,-0.037434,-0.016925,0.15744
-0.18284,-0.025134,0.80766,0.15479,0.0046083,0.015755,0.037358,-0.65661
0.044283,0.058661,-0.27755,-0.15229,-0.00058013,0.016007,-4.8672e-05,0.27149
-0.17453,0.038528,0.19732,0.040054,-0.021552,-0.0052449,0.027001,0.09623
0.11643,0.044977,-0.33748,0.029006,0.035233,0.0065697,-0.038173,-0.14488
-0.025087,-0.017785,-0.19331,-0.15364,-0.017897,-0.0036653,0.014655,0.1174
0.083589,-0.080885,-0.040291,0.0084536,-0.017007,0.010236,-0.010711,0.062292
0.16357,0.12078,0.19401,0.062878,0.037823,0.0083655,0.0098113,-0.1537
-0.12747,-0.10752,-0.089936,0.096087,0.013766,-0.01013,-0.018329,0.0094029
0.015537,-0.053118,0.27331,0.0066592,0.0046393,0.032166,0.044944,0.25619
-0.11886,-0.19773,0.049579,-0.057293,-0.075336,-0.076113,-0.058385,-0.33333
0.069806,0.14154,0.018931,0.028464,0.031903,-0.0069092,-3.0562e-06,0.094421
-0.013592,0.40541,-0.14923,0.020682,-0.0014572,0.044764,0.040949,-0.028949
-0.081282,-0.27838,0.14333,-0.027098,-0.011033,-0.01425,-0.020643,0.17308
-0.017078,-0.02521,-0.61475,-0.19401,-0.012195,-0.026944,-0.043191,-0.32204
0.15501,0.032793,0.29996,0.10522,0.034249,-0.00037717,0.01331,0.29831
0.028599,-0.050117,0.41656,0.096883,0.026698,0.081683,0.063694,0.08036
-0.044446,0.10751,-0.22665,0.085866,0.035277,-0.014778,-0.024364,-0.15685
-0.016616,-0.17599,-0.042939,-0.099116,-0.02623,0.022828,0.046161,0.12417
-0.051104,0.31598,-0.076851,-0.043107,-0.017464,-0.00094101,0.001665,0.0078036
-0.13914,-0.3248,0.2065,-0.10442,-0.079213,-0.094147,-0.080131,-0.49152
0.079504,0.22052,-0.31339,0.10083,0.007274,-0.014857,-0.027885,0.23486
0.27729,-0.18164,0.19627,0.10475,0.046839,0.064875,0.056276,0.10082
-0.24093,-0.1485,-0.30729,-0.20932,-0.046221,-0.050341,-0.039104,0.067379
0.18072,0.21888,0.23328,0.18987,0.072048,0.05355,0.044902,0.1425
-0.12263,0.069726,-0.040735,-0.08097,0.0032734,0.0015459,0.026673,-0.16603
-0.12868,-0.017107,0.40015,0.11788,0.012949,-0.026731,-0.07067,-0.28829
0.09876,-0.15056,-0.15117,0.050942,-0.0008029,0.038855,0.04949,0.30628
0.081891,0.33341,0.10435,-0.19689,0.0084713,0.033952,0.035394,0.12457
-0.094365,-0.39377,-0.44114,-0.08725,-0.09244,-0.1043,-0.081817,-0.15469
0.21779,0.36248,0.31598,0.10623,0.03996,0.061224,0.065057,0.20219
-0.36463,-0.24236,-0.26129,0.048011,-0.008417,0.0068063,-0.031635,-0.3988
0.096195,-0.083909,-0.096678,-0.065756,-0.042034,-0.11926,-0.098144,-0.02758
0.20264,0.048519,0.10742,0.047292,0.087969,0.15183,0.13941,0.21528
-0.13003,0.15509,-0.013055,-0.072686,-0.031947,-0.039044,-0.021561,-0.035923
0.052753,0.0019584,0.57802,0.12203,0.02841,0.019472,-0.0023985,0.072055
0.01818,-0.16788,-0.62137,0.053711,-0.019645,-0.047072,-0.013545,0.048678
-0.20882,-0.0098172,0.22274,-0.08241,-0.011873,-0.034967,-0.046814,-0.096846
0.20895,0.12538,-0.12686,-0.075942,0.0047927,0.017251,0.023001,0.19901
-0.071454,0.042953,0.020792,0.087878,-0.0011789,0.0083775,0.03965,-0.1959
-0.0029254,-0.11624,-0.23908,-0.19352,-0.038059,-0.0067981,-0.051769,-0.16413
-0.070309,0.21023,0.32721,0.21951,0.081096,0.11215,0.092077,0.052054
0.022093,-0.23572,0.49821,0.13085,0.0041613,0.01318,-0.013746,0.092809
0.1475,0.092401,-0.48026,-0.23345,-0.050568,-0.1325,-0.10423,-0.058436
0.13193,-0.11825,-0.019311,-0.13137,-0.013038,0.018168,0.054418,0.12814
-0.11265,0.061786,-0.17045,0.10911,-0.00042221,-0.019795,-0.0070044,0.221
-0.14258,0.15583,0.21902,0.16026,0.018829,-0.012363,-0.015318,-0.1647
0.056939,-0.10178,-0.35283,-0.11015,0.021835,0.10291,0.076322,-0.17931
-0.20147,-0.26581,0.13725,0.10319,-0.05318,-0.040905,-0.044388,0.074235
0.0051287,0.28856,0.1672,0.011806,0.060181,0.048868,0.044818,-0.076525
0.10022,-0.009384,-0.1513,-0.29002,-0.10615,-0.18962,-0.18678,-0.05312
0.13241,0.027293,0.27035,0.12002,0.065463,0.10369,0.11296,0.020625
-0.092293,0.09325,0.067387,0.1485,0.059552,0.054397,0.046155,0.15426
0.25485,-0.17924,-0.235,-0.06372,-0.0068931,0.0066371,0.027305,0.045049
-0.021683,-0.071622,-0.0030618,0.084993,0.0062543,0.015244,0.0098107,0.1323
-0.086761,0.16647,-0.1507,-0.12415,-0.073577,-0.068345,-0.076531,-0.35598
-0.19925,-0.057708,0.28255,-0.027231,0.026295,0.013336,0.018253,0.12021
-0.13345,-0.10977,-0.071378,-0.046405,-0.030747,-0.029265,-0.073146,-0.071503
0.10245,0.090345,-0.072919,0.060131,0.020427,0.022046,0.063155,0.014174
0.14934,-0.11953,-0.043468,0.096543,0.015486,0.026106,0.044114,0.37687
0.078313,0.10581,0.00039591,-0.039371,-0.022175,-0.0097388,-0.044622,-0.37466
-0.039152,0.095117,0.1673,0.12824,0.032571,9.568e-05,-0.015929,0.06356
-0.076814,-0.02704,-0.066671,-0.1669,-0.023169,-0.02273,-0.0030842,-0.11392
-0.06483,-0.074701,0.024846,-0.081538,0.0061765,0.031094,0.055876,0.029685
0.044428,0.043476,-0.026791,0.071646,0.019278,-0.010217,-0.0036703,0.1343
