-0.007226,0.02869,-0.26946,-0.048101,-0.0086174,0.026305,0.0028926,0.015251
0.0073952,-0.02755,0.2131,0.045248,0.008626,-0.027743,-0.025512,0.00061828
-0.0018501,0.12489,-0.32988,-0.041041,-0.0056488,-0.0028971,0.016347,0.0017827
0.05899,0.13566,0.34113,0.13813,0.065462,0.053813,0.0030204,0.018511
-0.067733,-0.29861,-0.066732,-0.089463,-0.059559,-0.045428,-0.011193,-0.035414
-0.022534,0.0029047,-0.26089,-0.12265,-0.060585,-0.027605,-0.010913,-0.027439
0.014945,0.11124,0.20789,0.014814,0.0076485,0.013084,-0.0039962,0.011013
0.0056266,-0.051537,0.11817,0.088332,0.035863,0.013753,-0.013702,0.017402
0.074451,0.30327,0.0082166,0.01192,0.039909,0.06791,0.030652,0.038709
-0.0052145,-0.11424,-0.034488,0.074743,0.012273,-0.035408,0.0045591,-0.010752
-0.069348,-0.18793,-0.2639,-0.097946,-0.070158,-0.077231,-0.036765,-0.04468
-0.0085367,0.042171,-0.30709,-0.076065,0.0038574,0.021032,0.032141,-0.0079603
0.021107,-0.034006,0.076961,0.062785,0.031447,0.033466,0.016278,0.029514
-0.034876,-0.088566,0.25404,0.030176,-0.0028209,-0.031402,-0.02175,-0.010045
0.0034691,0.019304,0.31494,-0.0013099,0.010568,-0.0010663,0.0038706,-0.0092775
0.042626,0.21194,0.28551,0.023754,-0.0064093,-0.00794,-0.040012,-0.0072927
0.012404,-0.010101,-0.14721,-0.042356,-0.014597,0.033963,0.025791,0.03469
0.014334,-0.052619,-0.29101,0.03537,0.017357,0.085236,0.052259,0.04588
0.016975,0.12375,-0.229,-0.086334,-0.0041842,-0.034505,-0.008052,0.033505
-0.042476,-0.20742,-0.11558,0.045907,-0.016613,-0.021484,-0.03059,-0.096744
-0.062805,-0.038226,-0.019265,-0.0054897,-0.027694,-0.071967,-0.015594,-0.048394
0.018163,0.084516,0.42173,-0.037898,-0.037506,-0.038315,-0.033348,-0.0090997
0.020484,-0.026592,0.1405,0.041464,0.078682,0.078965,0.057073,0.052502
0.014294,-0.027703,-0.42863,0.059305,0.031308,0.02192,-0.0094372,0.027363
0.030745,0.096835,0.34533,0.045137,0.038415,0.0017124,-0.021302,-0.021585
-0.016138,-0.0046437,-0.084837,-0.12007,-0.033622,-0.035822,-0.0091387,-0.00018416
-0.0013293,-0.019884,-0.038236,0.085454,-0.029325,-0.0040235,-0.011501,-0.0018957
-0.0028499,0.10548,0.097268,-0.042567,-0.027367,0.019789,0.10472,0.090589
-0.0048753,-0.12103,-0.22106,0.0032664,-0.012311,0.01295,0.011439,-0.074322
-0.046162,-0.06668,-0.37873,-0.096892,-0.038606,-0.031719,-0.057136,-0.0045572
0.045566,0.14375,0.44218,0.0098244,0.042806,0.019023,-0.046647,0.010711
-0.0026809,-0.16103,-0.058029,-0.0027793,0.021865,0.0091014,-0.019977,-0.059796
-0.0029716,0.10581,0.25715,0.10969,0.024512,-0.030304,-0.032184,0.026193
-0.0096651,-0.062543,0.061487,0.0055561,0.028132,0.048956,0.11173,-0.0045826
0.0086374,-0.0011057,-0.32488,-0.040184,-0.060473,-0.01918,0.013078,-0.034736
-0.0028394,0.064092,0.041322,-0.058009,-0.022349,-0.039904,-0.039273,0.11555
0.0024346,-0.015444,0.12547,0.069134,0.025173,0.017548,-0.022026,-0.03812
0.04732,0.087637,0.040796,0.066821,0.073848,0.051221,0.056926,0.074373
-0.0408,-0.073454,0.041332,-0.043126,-0.0488,-0.040691,-0.013353,-0.11764
-0.0049107,0.0070604,-0.40708,0.0030071,-0.038722,-0.016074,-0.092152,-0.028656
-0.017621,-0.079401,0.014234,-0.085666,0.0097923,0.0079697,0.03945,0.03618
0.045516,-0.038263,0.10966,0.017607,-0.028606,-0.015232,-0.0011472,0.02181
-0.06578,0.15198,-0.034034,0.0074692,0.049103,0.023947,0.059706,0.013926
0.023533,0.16976,0.41285,-0.014365,-0.0069525,-0.014895,-0.02002,-0.026622
0.071634,-0.32119,-0.032224,0.062395,-0.0089676,0.024629,-0.029317,0.0018037
-0.053642,0.10169,-0.00025938,0.067366,0.043462,0.040964,0.063056,0.029125
-0.015506,-0.13798,-0.45847,-0.20863,-0.052376,-0.044125,-0.047642,-0.0067829
-0.031767,-0.014204,-0.0072271,-0.099818,-0.038331,-0.043326,0.0057297,-0.035123
0.015666,0.19487,0.17456,0.22321,0.046743,0.066595,-0.0033723,0.014968
0.025968,0.094003,-0.061259,0.12831,0.038829,-0.050454,-0.051399,0.0034213
0.062106,-0.056058,0.3632,0.060703,0.03157,0.042973,0.04935,-0.014587
-0.024217,-0.073346,0.04871,-0.050649,-0.022125,-0.035872,-0.021194,0.0081586
-0.053501,-0.13616,-0.33412,-0.35535,-0.091258,-0.021198,0.080936,-0.021964
0.036296,-0.017583,-0.19306,0.075004,0.0036357,0.024721,-0.09727,0.074603
-0.044526,0.14101,0.18907,0.13768,0.028032,0.0083556,0.0066407,-0.054086
0.0080074,0.040968,0.045227,-0.027564,0.0053002,0.0079862,0.02524,0.02888
0.021326,0.031221,-0.063222,0.094399,0.044802,0.023664,0.044052,0.018112
-0.0051747,0.077388,0.28483,-0.035674,-0.0097085,0.00064211,0.054744,-0.040211
0.029607,-0.097144,-0.22348,-0.066137,-0.025432,-0.037788,-0.15415,-0.029469
-0.030864,-0.1357,-0.025539,-0.012356,-0.018033,-0.021492,0.065393,0.0031144
0.00081752,0.12399,0.11363,0.06353,0.043686,0.01812,-0.021205,0.041835
-0.00025187,-0.17019,-0.27367,-0.041215,-0.020003,0.018455,0.008004,-0.030311
-0.0025518,-0.017565,0.19682,0.048774,0.0096511,0.0029372,0.020551,0.044882
0.017763,0.20082,0.057988,0.013484,-0.015716,-0.0049294,-0.014265,-0.03675
-0.016937,-0.0047933,-0.17294,-0.12342,-0.010018,-0.020652,-0.025488,0.014411
0.0032394,-0.022392,0.1382,0.083502,0.0035192,0.0027754,-0.01252,-0.035511
0.0084499,-0.021503,-0.015527,0.017147,0.0016902,-0.012679,0.048492,0.040405
-0.024386,-0.016078,0.13964,0.044724,0.00032156,0.034565,0.0014388,-0.015483
0.0064821,-0.052264,-0.20122,-0.099399,0.0073396,-0.0040144,0.025833,0.0077262
0.022912,0.088374,0.015833,-0.063668,-0.008518,0.012029,-0.0037697,0.00043427
-0.0222,-0.032961,-0.038404,0.11285,0.015103,-0.0034786,0.013589,0.048227
0.026989,-0.0042624,-0.0058277,0.047366,0.054517,0.011736,-0.078947,-0.068041
0.0058966,0.086075,0.08883,-0.041321,-0.046807,-0.028404,0.038482,0.041909
-0.0078895,0.040333,0.29909,0.0031462,-0.01566,-0.022328,-0.032744,-0.075265
0.00080887,-0.057432,-0.41502,-0.069064,-0.016203,0.014527,-0.011249,0.041326
-0.030769,-0.12225,-0.0071478,0.023536,-0.0014813,-0.01124,0.048682,0.0089949
-0.0010758,0.025769,0.11635,0.015609,-0.010309,0.0023728,-0.032074,-0.0079439
-0.011436,-0.057373,-0.04425,-0.014441,0.004544,0.0011192,0.0048845,-0.0091799
0.0010925,-0.041339,-0.050868,0.042973,0.027822,0.040028,0.01941,0.021205
0.04488,0.060862,0.026873,-0.030834,0.028554,0.017707,0.097702,0.036554
-0.0045122,0.087641,0.0099691,-0.0094228,-0.0087756,-0.026814,-0.12741,-0.033339
0.0096264,0.16583,0.41465,0.067816,-0.0061293,-0.015625,0.046975,-0.0087839
-0.0061661,-0.031843,0.0071146,-0.018373,-0.010647,0.0040568,-0.027937,0.016385
-0.020562,-0.11492,-0.71984,-0.081116,-0.014897,-0.015041,-0.016642,-0.043903
-0.041506,-0.11573,0.093941,0.003931,-0.011484,-0.010803,0.0023241,-0.0023078
0.047871,0.050052,0.058734,0.04085,0.014845,0.016448,0.028629,0.031622
0.0049252,-0.0022162,0.25357,0.099487,0.024754,0.011782,0.015173,0.010825
0.0088074,0.046093,0.22597,-0.14074,-0.028769,0.0062968,-0.014721,0.0054062
0.0042883,0.037421,-0.12544,0.14046,0.018345,-8.1592e-05,-0.0063782,-0.016109
-0.024728,-0.10715,-0.34798,-0.16605,-0.013459,-0.0073528,-0.014418,0.00073762
0.007372,0.065272,0.1901,0.026089,0.032293,0.0079872,0.023778,-0.014568
-0.0089109,-0.023184,-0.16901,-0.016934,-0.055066,-0.016437,-0.0088308,0.023773
-0.0031645,0.11253,0.26808,-0.0055091,-0.0096514,-0.017958,-0.018356,-0.009282
-0.0063331,-0.15949,-0.094355,0.18578,0.051545,0.019238,0.018749,0.0035411
-0.0023343,0.036807,0.054389,-0.10693,-0.019824,-0.014043,0.00099183,0.0077769
0.024986,0.046141,0.025516,0.061642,0.041838,0.022965,-0.0012865,-0.043099
0.005828,0.033388,0.20913,-0.027406,-0.005787,0.02097,0.035364,0.023232
-0.012513,-0.094662,-0.58181,-0.13207,-0.045692,-0.012185,-0.021839,0.011942
0.0014921,-0.017479,0.044775,0.083518,0.039147,0.017243,-0.00093422,0.01724
0.0088981,0.12421,0.27082,-0.013312,-0.048229,-0.047002,-0.050192,-0.046453
-0.013758,-0.052758,-0.18225,-0.039401,-0.010907,-0.025211,0.0025136,-0.0070616
0.019327,0.076091,0.45378,0.083863,0.0419,0.043622,0.024664,0.065108
-0.024854,-0.13041,-0.25654,-0.033639,-0.014555,-0.012276,0.047791,-0.0098325
0.01755,0.061686,-0.12459,-0.0087081,0.023137,0.018136,-0.045103,-0.036951
-0.033351,-0.066627,-0.017476,0.05724,-0.0010231,-0.0056956,-0.0039757,0.0066872
0.025385,0.047128,0.16544,-0.062515,-0.0087539,0.0099804,-0.0086582,0.0033443
-0.025175,-0.057841,0.063047,0.014375,-0.023464,-0.013043,0.081155,0.054074
0.010081,0.063991,0.10286,0.068447,0.0016116,-0.020234,-0.06311,-0.068078
0.029349,-0.0012927,-0.55333,-0.11208,0.019361,0.035076,0.0033542,-0.011771
0.0010981,0.011912,0.20183,0.026632,0.013835,-0.0035691,-0.0089784,0.012027
0.0031564,-0.013825,0.093409,0.069837,0.015937,0.019922,0.0089266,0.0034602
0.0040214,0.069497,0.14399,-0.068818,-0.021514,-0.042955,0.0022255,0.048736
-0.012072,0.003534,0.23621,0.087167,-0.012769,-0.012457,-0.021221,-0.039314
-0.013841,-0.071577,-0.71537,-0.071267,0.0030807,0.033463,0.032566,0.013081
-0.040111,-0.062399,0.2981,-0.066913,-0.044133,-0.037748,-0.062624,-0.051616
-0.012342,-0.093986,0.035907,0.015136,0.0099256,0.0085673,0.03735,0.048035
0.054365,0.13855,0.17946,0.04294,0.03277,0.047639,0.051579,0.030881
0.027724,0.088724,-0.066331,-0.0062445,0.0012403,-0.021982,-0.02752,-0.0015004
-0.0059082,0.014818,-0.082636,0.039815,0.017044,-0.012835,-0.028,-0.072581
-0.022861,-0.090526,-0.016551,0.10292,0.017644,0.028007,0.011004,0.020719
0.023748,0.015254,-0.13284,-0.11427,-0.020607,-0.0013319,0.058061,0.051809
-0.03034,-0.019134,0.12341,0.012491,-0.0042861,-0.015277,-0.066748,-0.05743
-0.00579,-0.045094,-0.068675,-0.087949,-0.043117,-0.029786,-0.027699,-0.0022776
0.011032,-0.0079015,0.031667,0.029009,0.026688,0.025226,0.034435,0.021982
0.011895,0.045472,0.10974,0.026994,0.0096916,0.0012459,0.010226,0.015345
-0.0035403,0.067909,0.23312,0.046575,0.0075246,0.0077418,0.001278,0.0011766
0.011401,0.019972,-0.030653,0.072463,-0.0029978,-0.0019203,0.015524,-0.0050489
-0.029256,-0.059722,-0.21512,-0.17593,-0.029296,-0.019589,-0.03281,-0.011369
-0.023822,-0.054417,-0.29808,-0.0024137,-0.00842,-0.01365,-0.018549,-0.018055
0.02796,0.012146,0.033085,0.00014966,0.01317,0.016209,0.035021,0.021493
0.017049,0.022691,0.10021,0.0043705,0.012317,0.015487,-0.004807,-0.0023286
0.02191,0.071148,0.14805,0.17471,0.04379,0.01545,0.041698,0.058784
-0.027476,-0.052984,0.15623,-0.0044791,-0.0097359,0.0081268,-0.044227,-0.068604
-0.037161,-0.12251,-0.2473,-0.088318,-0.039213,-0.030212,-0.012631,-0.024953
0.032002,0.11329,0.15852,-0.038453,0.0096139,0.0016438,-0.012018,0.010374
0.015928,-0.001151,-0.085893,0.011518,0.0034988,-0.005994,0.051307,0.069081
-0.0073705,-0.0591,0.066693,0.045316,0.02024,0.017,-0.018001,-0.06706
0.0010168,0.11155,-0.03267,-0.10149,-0.04968,-0.015307,-0.0090088,0.024344
0.0018806,0.034191,-0.041323,0.024227,0.004746,0.0066723,-0.023262,-2.5165e-05
0.010754,-0.049274,-0.10904,0.024334,0.011904,-0.0026053,0.087697,0.016359
-0.034867,-0.014227,0.1301,0.016544,-0.0122,-0.03483,-0.11363,-0.012373
-0.025524,-0.0954,0.16726,0.11081,0.026579,0.019864,0.021148,-0.031696
0.015488,0.011663,-0.45919,-0.19241,-0.01207,-0.010035,0.015356,-0.0029343
0.03362,0.033437,0.30507,0.068065,0.028249,0.055288,0.087552,0.073333
-0.0023081,0.0011778,-0.048006,0.024991,-0.0009547,-0.0030818,-0.075021,-0.037969
0.0092036,0.01643,0.15325,0.013966,-0.0061661,-0.021534,0.0039161,-0.0016347
-0.0023753,0.032165,-0.15402,0.026619,-0.0033675,0.030511,-0.0040112,0.04106
-0.006154,0.040209,-0.032927,-0.031459,-0.032014,-0.035203,0.018233,-0.043162
-0.018205,-0.053756,-0.015542,-0.059321,0.0091162,-0.016247,-0.038729,-0.051376
0.0078872,0.015203,0.022177,0.044146,0.010423,0.0087585,0.012771,0.032145
0.0092392,-0.02703,0.28245,-0.010309,-0.004734,-0.015071,0.016807,0.012467
-0.006573,-0.040347,-0.18843,-0.027287,0.0027699,0.021774,-0.041813,-0.016079
0.0072877,0.053133,-0.031154,-0.014282,-0.0059611,0.010359,0.071757,0.056564
-0.003689,-0.019941,0.083112,0.091668,0.023979,-0.001781,-0.024865,-0.011128
-0.023505,-0.048243,-0.3051,-0.021453,-0.0087574,-0.021696,-0.026673,-0.031099
-0.0047729,0.0078998,0.0016021,-0.032928,-0.02588,-0.017409,-0.0038216,-0.0029701
0.021831,0.086694,0.13833,-0.0050012,0.011763,0.019459,0.020222,-0.012505
0.0021628,-0.014294,0.068039,0.031162,0.026054,0.018899,0.014001,0.01839
0.022589,0.025837,0.08102,-0.033873,-0.0064985,0.019973,0.02404,0.042636
-0.010378,-0.011196,0.052375,0.12787,0.01559,0.0067581,-0.082904,-0.049464
-0.0029137,-0.039104,-0.10492,-0.14781,-0.032737,-0.021262,0.059927,0.038599
-0.0019868,-0.010731,0.02896,-0.0094393,-0.018657,-0.017828,-0.00094049,-0.021632
-0.015633,-0.074291,-0.048525,0.011795,0.018865,0.0086627,-7.9757e-05,-0.019449
-0.0050883,0.075051,0.1758,0.072321,-0.013742,-0.043791,-0.054688,-0.017441
0.021508,0.015426,-0.31554,0.01616,0.040002,0.035527,0.054164,0.046944
-0.014288,-0.0033822,-0.1015,-0.11734,-0.038428,-0.01119,-0.032565,-0.029268
-0.011206,-0.01313,0.099362,0.00017992,0.0089429,0.011571,0.0058464,-0.011521
0.01487,-0.014625,0.14757,0.071906,0.033731,0.033817,0.013539,0.029997
0.032473,0.10046,0.068264,0.074282,-0.0032071,-0.0065967,0.014229,0.024974
-0.036692,-0.059612,0.0039477,-0.086761,-0.039584,-0.046858,-0.023245,-0.050196
0.026017,0.074456,0.01102,0.064877,0.010218,-0.00082501,-0.005271,0.030714
-0.021618,-0.083914,-0.14356,-0.057249,0.005194,0.014379,-0.0025183,-0.029624
-0.015465,-0.073885,0.048898,-0.070768,-0.015979,0.014289,0.031374,0.065181
0.029027,0.0035104,-0.043973,0.047476,0.055738,0.037751,0.033338,0.010038
-0.0050607,0.055645,0.046647,0.023966,-0.029885,-0.024902,0.065384,-0.093706
-0.023637,-0.025323,-0.054491,-0.0083646,-0.015117,-0.017711,-0.18528,0.0039962
-0.0028969,0.012281,-0.01979,0.013259,0.0063855,-0.003379,0.0079178,0.014423
0.034063,0.060596,-0.045331,-0.020177,-0.011983,-0.013208,-0.010975,0.00066638
0.0093863,-0.019911,0.24294,0.063589,0.016129,0.023248,0.06327,0.041596
-0.022086,0.060311,0.047118,-0.04759,-0.0025325,-0.01871,0.028169,-0.033898
-0.0056485,-0.089528,-0.11027,-0.025298,-0.028407,-0.029299,0.024935,-0.0064189
0.0038935,-0.024889,0.07482,0.029105,0.017035,0.046591,0.0071075,0.038514
-0.0093286,0.057672,-0.48374,-0.017103,0.040278,0.021801,-0.064204,-0.0083518
0.016845,-0.046508,0.19086,-0.046772,-0.028979,-0.017559,0.029689,0.0012397
-0.027359,-0.073434,-0.0023313,0.072727,-0.003461,-0.0090213,-0.039576,-0.019084
0.045146,0.15505,0.27332,-0.0105,0.0070351,0.0081136,0.032352,0.008204
-0.016011,-0.010756,0.11993,0.015597,0.0019633,-0.013421,-0.043941,-0.011297
0.015458,0.022107,-0.12631,0.0098789,0.012009,0.011846,0.043736,0.03901
-0.04026,-0.043461,-0.074833,-0.0046929,-0.0023633,-0.0024649,-0.0095319,-0.052251
0.020019,-0.027337,-0.038407,-0.020646,-0.0023727,0.01363,0.022678,0.011558
-0.02221,-0.092512,-0.40016,-0.05372,-0.050552,-0.025951,-0.023742,-0.019583
0.013146,0.036022,0.38651,-0.017815,0.0017616,-0.0039437,0.0074881,0.034173
0.0093994,0.024141,0.26675,0.11874,0.037813,0.017435,-0.0007232,0.0090452
-0.025123,-0.0014181,-0.41583,-0.041892,-0.0043529,-0.031692,-0.032618,-0.032136
0.019391,0.085678,0.32298,-0.045884,-0.014825,-0.0023897,0.013512,0.028127
0.026037,0.02831,0.10017,0.076157,0.053687,0.051104,0.044041,0.010392
0.0027126,-0.025141,-0.64698,-0.073718,-0.025164,-0.00372,-0.011261,0.00075486
-0.050704,-0.091044,0.29221,-0.010893,-0.024827,-0.026151,-0.035185,-0.03196
0.029551,0.048106,0.15968,0.053646,0.0076016,0.014908,0.011295,-0.0018036
-0.022568,-0.015406,-0.029184,-0.0054253,0.024888,-0.013718,-0.012524,-0.018179
0.026856,0.02953,0.030088,0.092606,-0.0046242,0.02029,0.026074,0.012615
0.01334,-0.04471,-0.029804,-0.082572,-0.0031623,0.014847,0.041072,0.059276
-0.0009205,0.034753,0.11935,0.015344,-0.002194,-0.0070436,-0.030054,0.0045728
-0.031687,-0.044577,-0.27204,-0.10623,-0.040818,-0.030005,-0.038808,-0.057766
-0.016404,-0.00092918,0.054608,0.013489,-0.0017039,-0.030608,-0.016288,-0.010541
0.013909,0.033764,-0.0089874,0.06989,0.029473,0.022625,0.029922,-0.0021435
-0.010715,-0.025408,-0.0084751,-0.061813,-0.017304,-0.010525,-0.0093001,0.014367
0.011658,-0.013443,-0.0287,0.040477,0.0066241,0.0032235,0.0068846,0.0077963
0.026653,0.062494,0.31382,0.048744,0.054455,0.048664,0.039517,0.017219
0.0031931,-0.00048847,-0.22304,0.0098066,-0.0067358,0.0088729,-0.0052008,0.0035148
0.011596,0.055223,0.016331,0.07971,0.0024749,-0.014524,-0.033728,-0.017819
-0.026415,-0.091223,0.13235,-0.10898,-0.027628,0.0095969,0.016102,0.0077256
-0.017342,-0.010851,-0.23578,-0.079832,-0.042669,-0.036205,-0.01236,-0.0059796
0.0072857,0.030046,0.19968,-0.043721,0.0040414,-0.019404,-0.010127,-0.012219
0.015985,-0.0002175,-0.11682,0.10126,0.026555,0.028513,0.053749,0.035791
-0.022625,-0.00015584,-0.029199,0.043182,0.0016054,-0.017585,-0.0709,-0.072897
0.016449,-0.016329,0.10376,-0.045424,-0.00018929,0.0063589,0.037796,0.044589
-0.0073104,-0.016855,-0.060433,0.0079161,0.0059083,0.0145,-0.010637,0.013353
-0.0077808,-0.04002,-0.067061,0.016082,0.01242,0.0069813,-0.012802,-0.025879
-0.0081971,0.016432,-0.23495,-0.059937,-0.035108,-0.031693,0.016016,0.012896
0.022853,0.035689,0.33524,0.076421,0.035282,0.015729,0.0058453,0.043738
0.015133,0.064499,0.096523,0.0026394,-0.018681,0.016405,0.003854,-0.050597
-0.0079549,-0.030632,0.0007672,-0.0087013,0.01371,0.0092625,0.002432,0.011046
-0.0074811,0.038204,-0.16527,-0.075701,-0.031944,-0.037154,0.0016802,-0.0057953
0.024177,0.058682,0.23616,0.09773,0.031483,0.033176,-0.014018,0.0082171
-0.038171,-0.10331,0.10069,-0.0045217,0.00052761,-0.014308,-0.005657,-0.017178
0.00065835,-0.081457,-0.44867,-0.085668,-3.931e-05,-3.8989e-06,0.011041,0.027549
0.0078208,0.0068406,0.024977,-0.0047365,-0.0015297,0.0058388,-0.01872,-0.021415
-0.024414,-0.048801,-0.19608,-0.0031929,-0.027245,-0.035627,0.014324,-0.0075031
0.029131,0.12003,0.25002,0.068353,0.016891,0.0087502,0.0085013,0.014928
0.0046218,0.022798,0.10891,-0.031289,-0.017088,-0.0012529,-0.028488,-0.016335
0.003849,-0.041853,-0.0064116,0.034674,-0.0036556,0.012865,0.036045,0.031703
-0.0042574,0.021374,0.047789,0.0011821,0.018604,0.035748,0.0066539,-0.0049873
-0.011788,-0.0051898,0.13289,0.01688,0.0031391,-0.010627,-0.015236,-0.0093569
-0.010931,-0.0038911,-0.2895,-0.035562,0.0047268,-0.032596,-0.045378,-0.028588
0.03728,0.056349,0.1003,0.030937,0.038817,0.039901,0.05675,0.046252
-0.0079529,-0.028317,0.066266,-0.096714,-0.043445,-0.027875,-0.0057927,0.0037017
-0.021848,-0.063685,-0.28444,0.018337,-0.00045002,-0.0097548,-0.03771,-0.055213
-0.0046352,-0.011995,0.24894,0.047341,-0.0047086,0.0001557,0.02353,0.033097
0.0044131,0.016062,0.007997,0.0053788,-0.0099141,0.0094156,0.013943,0.01048
0.020762,-0.0041319,-0.0011122,0.040456,0.038221,0.017905,0.019589,0.033038
0.0052557,0.090537,-0.1857,-0.058666,-0.024526,-0.021229,-0.045313,-0.06322
-0.010868,-0.036526,0.039721,-0.010899,-0.018367,-0.014094,-0.00089421,-0.0045645
-0.019731,-0.026282,0.065796,0.043126,0.010161,0.008288,-0.0032131,-0.0092764
0.0022425,0.011892,0.0022569,-0.037071,0.014695,0.030559,0.018221,0.016968
0.0083632,0.0080026,0.16212,-0.0090177,-0.019808,-0.017333,0.016674,0.043501
-0.0089774,-0.11548,-0.1259,-0.0051392,0.00094806,0.0054489,-0.0077722,-0.03075
0.020722,0.095364,0.18572,0.092205,0.030501,0.0052978,-0.0082318,0.021109
0.011668,0.055498,-0.31633,-0.068076,-0.0090709,-0.025539,-0.0081986,-0.011726
-0.020426,-0.031058,-0.060839,-0.016786,-0.016234,-0.016775,-0.0077826,-0.0043095
0.010406,0.0005601,0.26576,0.051146,0.032207,0.039302,0.016312,-0.0037106
-0.02085,-0.05214,-0.17136,-0.043674,-0.012582,-0.0059168,0.024879,0.0054218
0.010761,0.045637,0.11315,0.0036092,-0.010431,-0.0042092,-0.021267,-0.00063358
-0.0041936,-0.026246,-0.15353,-0.025741,-0.00081707,0.020755,-0.0050097,-0.0064909
-0.026717,-0.064745,0.14583,0.024366,-0.015283,-0.017173,-0.012293,-0.012313
0.036868,0.086048,-0.051822,-0.010472,-0.0070679,-0.016575,-0.0039966,-0.0025538
0.014607,0.019307,0.15079,0.072383,0.02391,0.01469,0.012178,0.014957
0.0001648,0.038974,0.16625,0.030175,0.015398,0.0063853,0.0051109,0.016797
-0.0065337,-0.012009,-0.32723,-0.059522,-0.0088062,-0.01005,0.013981,0.0029821
-0.021167,-0.11095,-0.11981,-0.0096271,-0.0014293,0.0047223,-0.00020236,-0.01087
-0.035944,-0.00059674,-0.0010218,-0.13285,-0.048056,-0.04274,-0.029623,-0.032611
0.027274,0.029732,0.27942,0.1099,0.039044,0.035337,0.0037798,0.031449
0.020079,0.026974,-0.27761,-0.062422,-0.0057039,0.0047444,0.013936,0.0093707
0.020622,-0.00067892,0.055647,0.1161,0.028473,0.029561,0.039731,0.033917
-0.0023402,0.1271,0.28028,0.012903,-0.015045,-0.023186,-0.075291,-0.098055
-0.025392,-0.17482,-0.26707,-0.06719,0.011655,0.0024415,0.028036,0.035344
0.006113,0.039753,0.17148,0.039888,-0.0013838,-0.0033427,0.021396,0.027898
-0.02506,0.013837,0.11102,0.052812,-0.01563,-0.025342,-0.056307,-0.050052
-0.0017653,-0.14257,-0.18383,-0.11441,-0.00019652,0.029831,0.052626,0.035857
0.021279,0.10208,-0.26891,0.014858,-0.017696,-0.017737,-0.01124,0.0043016
0.020614,0.091354,0.32349,-0.0044462,0.017984,0.011598,0.017731,0.019218
0.00404,-0.0035425,-0.016601,-0.046895,-0.0099022,0.00080313,0.014638,0.033584
-0.012814,0.003781,-0.0080067,0.091154,0.00083894,-0.0029162,-0.020319,-0.0073951
-0.022107,-0.013037,0.013864,-0.035133,-0.011588,-0.022539,-0.063397,-0.11153
-0.0081502,-0.070969,-0.22342,0.019851,0.0081493,0.004946,0.010797,0.010397
0.021348,0.039884,-0.11701,0.0061121,0.029269,0.033149,0.046443,0.038378
-0.0037873,-0.040344,0.49068,-0.0063583,0.0051025,-0.023495,-0.0029339,0.004068
0.00253,-0.030211,-0.19609,-0.010343,-0.025366,-0.00071826,0.011397,0.032883
0.0091915,0.055518,0.14381,0.063729,0.015657,0.007731,-0.0041824,-0.0076635
0.00068263,-0.00834,0.19051,0.051086,0.026115,0.040725,-0.0028542,-0.0080312
0.00050574,0.045479,-0.45423,-0.16595,-0.049226,-0.03489,-0.016104,0.0083065
-0.022579,-0.12519,-0.25914,-0.0093914,8.7806e-05,-0.008602,0.010382,-0.013564
-0.0061195,0.12151,0.27566,0.044446,0.0018488,-0.013656,-0.025414,-0.027138
0.010714,-0.034102,0.079533,-0.066377,-0.036274,-0.011368,0.032288,0.021825
0.012135,0.0016222,-0.098278,0.088522,0.042007,0.013613,-0.004436,6.4314e-05
0.013561,0.055992,0.42065,0.0097454,0.018102,0.029876,0.012529,0.047827
-0.0086729,-0.044255,-0.26391,-0.0055208,-0.0062037,0.013941,-0.026376,-0.053886
-0.0079028,0.0195,-0.068128,-0.004241,-0.015077,-0.041943,-0.0039908,-0.00828
9.0897e-05,-0.0044054,0.2013,0.091236,0.015076,0.0029956,0.001688,0.0050576
0.0074357,-0.0079052,-0.011801,0.038008,0.021849,0.023973,0.02217,0.0098295
-0.024872,-0.069813,-0.34858,-0.16465,-0.033775,-0.033434,-0.020326,0.022046
0.0049058,0.028682,-0.019436,-0.048472,-0.003327,0.010752,-0.0082305,-0.035973
0.011099,-0.02413,-0.054098,0.019275,-0.0039458,0.008377,0.035379,0.0080774
-0.005984,0.030904,0.16667,0.054619,0.019144,0.014378,0.0014275,0.013925
0.0086343,0.031327,0.3168,0.027099,-0.019874,-0.010117,-0.023931,-0.0025804
-0.015144,-0.076014,-0.17256,-0.085736,-0.027123,-0.025932,-0.01714,-0.010112
0.032156,0.10066,0.042981,0.076422,0.044365,0.029461,0.029647,0.045944
-0.021374,-0.039676,0.017825,0.02203,-0.00071167,-0.015868,-0.0086088,-0.04554
0.01943,0.057532,-0.14734,-0.029974,0.017242,0.017635,0.016438,0.012049
-0.009721,-0.04599,0.038626,0.013844,-0.011346,-0.010849,-0.020336,-0.01595
