-0.0035695,0.021278,0.03191,0.0093254,-0.00021297,-0.0072276,0.0013627,0.021567
-0.011886,-0.035554,0.038613,-0.016522,-3.8501e-05,-0.015352,-0.0066259,-0.0097025
-0.0046337,-0.0072324,-0.019909,0.011864,1.3033e-05,-0.00012612,-0.0071041,-0.018136
-0.005074,-0.0026337,-0.040249,0.0011606,-0.015627,-0.00048274,-2.2673e-05,-0.0036256
-0.00518,-0.0054646,-0.066833,-0.016877,0.0078409,0.0071426,-0.0087147,0.0027645
0.010876,-0.015016,0.067017,0.020741,0.00024484,0.0072179,0.021651,0.0090804
0.019785,0.055246,-0.058338,-0.010605,0.0085883,-0.00022375,-0.018145,-6.4995e-05
-0.0096922,0.0025222,0.066222,0.02208,-0.0061195,-0.0074113,0.0048451,0.0067764
-0.015197,-0.063861,0.018774,-0.053154,-0.020464,0.0011681,0.0047648,-0.0093355
0.018617,0.05876,0.024317,0.021158,0.020107,0.0097285,-0.0027512,0.0063138
0.013244,0.025808,0.13461,0.056938,0.0216,0.0024717,0.013478,-0.0010309
-0.0082878,-0.02314,0.17396,0.030029,0.014958,0.0026928,-0.0013679,0.0075502
-0.0072698,0.028028,-0.29909,-0.044673,-0.023568,-0.013119,-0.016209,-0.0071896
-0.0073623,-0.032502,-0.13943,-0.058382,-0.0082757,-0.013691,0.015666,-0.0063737
-0.024225,-0.072404,-0.18503,-0.027044,-0.033006,-0.014538,-0.015242,-0.0057778
0.020434,0.041162,0.11846,0.049352,0.027337,0.01577,0.0003912,0.010134
0.0019601,-0.0037534,0.41301,0.046151,-0.0066559,0.022742,0.0079091,0.0022831
-0.0010649,-0.0030506,-0.3221,-0.051676,-0.0017591,-0.0012705,-0.016021,-0.013654
0.0040305,0.021044,0.072936,-0.032462,0.011243,-0.0014935,0.0068756,0.017112
0.0020463,-0.00056822,0.11753,0.049817,-0.0062869,-0.0013708,0.0064461,-0.0068537
0.016715,0.019035,-0.052065,0.062918,0.02407,-0.00099469,0.0062548,0.00050931
-0.0065301,0.017937,-0.058147,-0.070948,-0.014765,-0.00051203,-0.009258,0.00023427
-0.020872,-0.050656,0.06965,-0.0079627,-0.0056982,-0.0078945,0.022397,0.00018221
-0.0030927,0.00033839,-0.33234,0.0016984,0.011934,-0.0076468,-0.023861,-0.0074672
0.038659,0.076342,0.20378,0.07487,0.014306,0.0079724,0.015902,0.0084728
-0.028828,-0.065916,0.24633,-0.031076,-0.014633,-9.9469e-05,-0.022526,0.0088321
-0.0028296,0.0099214,-0.020057,-0.050954,-0.020569,0.0072638,0.0013501,-0.0065211
-0.016512,-0.033089,-0.21595,-0.04764,-0.0037604,-0.0088931,0.0014969,-0.014279
0.023607,0.046543,-0.00097001,0.0098302,-0.0033786,-0.0015729,0.016936,0.016707
0.0080031,-0.032709,0.19234,0.07437,0.011866,0.005896,0.0008062,-0.0073611
0.022591,0.041844,-0.23946,0.028621,0.026499,0.0214,-0.007764,0.0072873
-0.041892,-0.041681,0.11711,-0.057266,-0.029581,-0.025345,-0.00085682,-0.0095714
-0.013336,-0.0088977,-0.034069,0.035323,9.0944e-05,-0.009358,-0.025216,-0.010913
0.030474,-0.0071249,-0.12068,0.064131,0.037568,0.022428,0.036482,0.011259
-0.0038124,0.074118,0.14919,-0.087956,-0.01859,-0.008192,-0.010951,0.010262
0.0014024,-0.014269,0.16942,-0.053468,-0.019875,0.00025934,0.0044484,-0.0059292
-0.023836,-0.10769,-0.29127,-0.0037558,0.018128,-0.0069809,-0.011031,-0.0059551
0.0066584,0.082967,0.042999,0.046274,-0.0061073,0.0090973,0.0050919,0.018034
0.0070375,-0.013063,-0.029467,0.034934,0.0012263,-0.0062157,-0.0019432,-0.019939
0.024087,0.064239,0.12434,-0.013582,0.0011553,0.0095899,-0.0010073,0.0050186
0.01067,0.0011296,0.22997,-0.028427,-0.014022,-0.0059487,0.0077494,0.0068129
-0.025789,-0.039685,-0.066092,0.01403,0.0026745,0.0019113,0.00073432,0.00088421
-0.015427,-0.051623,-0.1648,0.027626,-0.019015,-0.02927,0.0012524,-0.020767
0.010082,0.01913,-0.31093,-0.035153,0.022428,0.033366,-0.0064042,0.012004
-0.0042777,-0.015278,0.13392,0.027845,0.017456,0.010156,0.0011897,0.013126
0.011634,0.071965,0.066569,0.0045239,0.0048219,-0.012976,-0.0071501,-0.0096721
0.0031323,-0.046453,0.32988,0.042157,0.015362,-0.0048312,0.0077735,0.0060719
-0.013991,0.013524,-0.04514,-0.071169,-0.029496,-0.012364,-0.016363,-0.017755
-0.023822,-0.090383,-0.37848,-0.039203,-0.0051473,0.019014,-0.0012586,-0.0029777
0.020864,0.065149,0.072776,0.020683,-0.013409,-0.012359,0.01416,0.019231
0.011027,0.051607,0.075215,-0.039685,-0.0074563,0.010618,0.01432,-0.0057292
0.017232,-0.013124,0.16118,0.12408,0.028506,0.0097609,-0.00082197,0.0081671
-0.015076,-0.011751,-0.17606,-0.057447,-0.0067156,-0.0071328,-0.00014966,-0.0014992
0.0078449,0.023974,0.033239,-0.00517,-0.0032457,-0.016592,0.00052211,-0.0034021
-0.015688,-0.08664,0.21185,0.063097,0.0082109,0.01272,-0.014629,0.0025357
6.9105e-05,0.092591,-0.31131,-0.047165,-0.010913,-0.028448,-0.014507,-0.014851
0.00022122,0.00559,0.050478,-0.061929,-0.013377,0.016301,0.00081229,-0.0085954
-0.007591,-0.059789,0.10264,0.019166,0.024432,0.014299,0.0079066,0.013585
0.039036,0.083143,-0.068164,0.055624,0.02436,0.028166,0.022499,0.012708
-0.039588,-0.15965,0.077727,0.016105,-0.005993,-0.012326,-0.0021333,0.004457
-0.0011908,0.0715,-0.099919,-0.02935,-0.027905,-0.036808,-0.011134,-0.0033368
-0.0018745,0.0038918,0.016138,-0.057708,-0.0026977,0.0094417,-0.019975,-0.010693
-0.002407,-0.041126,-0.035428,0.016498,-0.0010286,-0.021995,0.018322,-0.017667
0.020796,0.039089,0.14295,0.10686,0.023742,0.025142,-0.00558,0.014718
0.0053236,0.0032493,-0.11411,-0.083914,-0.03785,0.018032,0.017658,0.00041198
0.029316,0.14879,0.25428,0.029828,0.025195,0.0035125,0.0019986,0.017414
-0.032274,-0.078783,-0.15986,-0.036437,0.0021173,-0.010669,-0.013639,-0.0047217
0.00015879,7.1652e-05,-0.045561,-0.017083,-0.013093,-0.0089816,0.0018471,-0.0036223
-0.029715,-0.083703,-0.20085,-0.021366,-0.0045808,-0.022786,-0.021969,-0.026264
-0.0047642,-0.064819,0.17052,0.14619,0.019999,0.018117,0.032056,0.028855
0.01248,0.033033,-0.18159,-0.10804,-0.0018194,0.019869,-0.0079074,-0.010148
0.01418,-0.024667,0.086803,-0.057494,-0.0076464,-0.0019983,-0.0010922,0.0052137
0.015911,0.19168,0.44494,0.071101,0.010093,-0.0084928,-0.0019611,0.0047275
0.0019481,-0.060225,-0.090907,0.019569,0.012019,-0.0074708,-0.010239,-0.019281
-0.0044219,0.00065728,-0.12146,0.037406,-0.010005,-0.0067564,-0.010024,0.011467
-0.019008,-0.063511,-0.28619,-0.063432,-0.032786,-0.014141,0.014534,-0.0044419
0.0048884,-0.026617,0.096087,0.013487,0.052957,0.056365,0.024491,0.01123
-0.0031645,-0.0063595,-0.066538,0.17423,-0.026112,-0.013916,-0.011436,-0.011771
-0.011939,0.004565,-0.084658,-0.30757,-0.035316,-0.021768,-0.023133,-0.0031457
0.048981,0.13854,0.36363,0.084317,0.033614,0.0016583,0.0046721,0.013585
-0.015491,-0.057837,-0.087999,-0.031968,-0.0063093,0.0017696,0.016823,-0.00078551
-0.040961,0.001347,-0.01789,0.016543,-0.014007,-0.021361,-0.0028226,-0.015184
-0.0036083,-0.035179,0.041356,0.012086,-0.028278,0.0026054,0.1015,0.10303
0.018809,0.012919,-0.037575,0.072477,0.044601,0.026755,-0.14715,-0.1463
0.010933,-0.048705,0.12528,0.23689,0.07146,0.011907,-0.030221,0.025827
-0.027133,-0.14078,-0.25412,-0.31542,-0.057738,-0.0030589,0.02258,0.010004
0.05294,0.11282,0.032952,0.07879,0.023351,-0.0027319,0.042669,-0.076558
-0.0069711,0.12702,-0.0067858,-0.13619,-0.037685,0.0048866,0.085031,0.21149
0.019242,0.066247,0.11124,0.1012,-0.0071272,-0.034997,-0.0062075,-0.094576
-0.025176,-0.054053,0.021336,0.055982,0.028799,0.0026375,-0.1447,-0.025972
-0.023474,-0.07055,-0.070854,-0.045486,-0.023471,0.008571,0.091858,0.073615
-0.046242,-0.062475,-0.15446,0.047074,-0.022648,-0.01693,-0.08518,-0.16286
0.047089,0.0079635,0.16416,-0.095359,-0.014573,0.020205,0.066776,0.085154
0.0066746,0.03799,-0.18296,-0.073447,-0.0058435,0.0030849,0.08715,0.021143
-0.0031099,-0.012447,0.13346,0.066855,0.028129,0.010045,-0.1019,-0.034183
0.010304,0.051311,0.18346,0.22469,0.072565,0.0099119,0.0076334,0.028925
-0.015228,-0.044453,0.16066,-0.17776,-0.036231,-0.020814,-0.045136,-0.01585
0.02992,0.044113,-0.17203,-0.039132,0.029681,0.027066,0.052192,0.0034031
-0.010398,0.051845,-0.14583,0.007075,-0.035073,-0.041994,-0.020976,-0.0072925
-0.019036,-0.1533,-0.029081,0.076994,-0.020587,0.0061437,0.031764,0.029701
0.011661,0.015631,0.01246,0.083476,0.040729,0.0072332,0.022283,0.0043116
-0.0044511,0.067596,-0.2403,-0.091779,-0.063124,-0.023204,-0.018899,-0.0061351
0.018375,0.019393,0.22144,-0.035472,0.034272,0.047626,0.040314,0.060092
-0.005903,-0.018543,0.07934,-0.091593,-0.019012,-0.014601,-0.074106,-0.14917
-0.014762,-0.021945,-0.008007,-0.017607,-0.019782,-0.022293,-0.010943,0.03764
-0.01585,0.040947,0.016189,0.12484,0.016771,-0.014416,-0.004612,-0.0044732
-0.016702,-0.056303,0.075141,0.040052,0.028831,0.048172,-0.015773,0.045138
0.029888,-0.040529,-0.096488,-0.059795,0.017178,0.0014554,0.065489,0.0073734
0.022662,0.095423,-0.030736,0.076376,-0.0096446,0.0016995,0.044569,0.062671
0.0086902,0.022449,0.028551,-0.058526,-0.0041915,-0.013595,0.03942,-0.069409
-0.027622,-0.026282,-0.014519,-0.03453,-0.028619,-0.03661,-0.2383,-0.059955
-0.0004986,-0.052067,0.15037,0.023198,0.010918,0.0108,0.13387,0.052645
0.0037895,0.045422,-0.27542,-0.05777,-0.01072,0.0036712,-0.031188,-0.043614
-0.0074067,-0.0864,0.168,0.11236,0.031136,0.027967,0.11041,0.065584
0.012272,0.098646,-0.01166,0.040418,-0.0046096,-0.017886,-0.058664,-0.018226
0.02327,0.037763,-0.071408,-0.12611,-0.016928,-0.0011541,-0.023144,0.017139
-0.045112,-0.11268,-0.1816,-0.0052383,0.0014656,-0.00011489,0.013303,0.014871
0.010028,0.022826,0.15966,-0.011581,0.011067,0.024081,-0.028066,-0.025749
0.0011691,-0.00024654,0.1965,0.042121,-0.01186,-0.0069223,0.047467,-0.035177
0.014433,-0.0090549,0.17271,0.07783,0.034142,0.03168,-0.0027724,0.056194
-0.027945,0.036456,-0.4653,-0.083753,-0.053947,-0.086769,-0.061918,-0.088123
0.015136,0.03562,0.16587,-0.035747,0.021058,0.028408,0.026142,0.062781
0.003569,-0.010861,0.05854,0.23047,0.017441,0.0024224,-0.012007,-0.030288
-0.0074794,-0.024384,-0.037441,-0.26078,-0.032976,0.0074977,0.042522,0.054604
0.029237,0.010925,-0.13015,-0.03203,0.018823,0.028436,0.010235,-0.018277
-0.026689,-0.053306,-0.0011664,0.11278,0.0014585,-0.035901,-0.053986,-0.0064428
0.020096,0.025029,0.15387,0.017919,0.0011921,0.010138,0.0219,-0.026715
-0.025845,0.026975,-0.032623,-0.011802,-0.028762,-0.028579,0.089589,0.069752
0.0071013,-0.063415,0.10287,0.038956,0.044234,0.043233,-0.11642,-0.060352
0.0092044,0.042473,-0.11221,-0.049257,0.0088223,0.014398,-0.0022456,0.020924
-0.027745,-0.030949,-0.13186,-0.011821,-0.034037,-0.037386,0.033862,-0.029725
0.028681,0.082806,0.035116,0.04856,0.016535,0.020157,-0.0078688,-0.0009686
0.0062816,0.007977,0.25487,-0.0098029,0.0036441,-0.0010298,0.036889,-0.017511
0.014209,0.0094724,0.02644,0.023247,0.0049359,0.0079693,-0.034725,0.10829
-0.017935,-0.0695,-0.39313,-0.055758,-0.0032496,6.8942e-06,0.019691,-0.045498
-0.035403,-0.041692,0.19881,-0.043524,-0.04427,-0.048378,-0.065373,-0.065073
-0.014562,-0.024175,-0.11186,-0.0019151,-0.016202,-0.011952,0.053802,0.056921
0.029258,0.022583,0.2221,-0.0080926,0.01902,0.031604,-0.013616,-0.039481
0.026076,0.09152,-0.04853,0.040571,0.038594,0.020351,0.028868,0.043504
-0.008172,-0.058651,-0.0085608,0.11376,-0.0037817,-0.0060854,0.0088614,0.0083768
0.02051,0.096425,-0.078472,-0.061355,0.017282,0.015251,-0.011712,-0.028173
-0.012717,-0.059613,0.001087,-0.03144,-0.015257,-0.024737,-0.025562,-0.019556
0.0016133,-0.026096,-0.057427,0.10957,0.023508,0.03808,0.12321,0.09672
-0.038017,-0.021283,0.059795,-0.17785,-0.030756,-0.022983,-0.19829,-0.13219
0.0012347,-0.029249,0.12708,0.066674,-0.0065183,-0.02069,0.033578,0.036456
-0.0056069,0.012618,-0.097469,-0.0089579,0.0021556,0.021185,0.022429,-0.006011
0.027413,0.11986,-0.10644,-0.077002,-0.028376,-0.046136,0.0032751,0.0067886
0.037782,0.010959,0.060032,0.12016,0.026832,0.034853,0.070522,0.03643
-0.029255,-0.080172,0.22843,0.012213,-0.011824,0.0060986,-0.017499,0.0051755
-0.017585,-0.099464,-0.22817,-0.064783,0.012077,0.00024026,-0.026137,-0.02442
-0.0055502,0.022636,0.26646,0.076886,0.020606,0.0093542,0.0055347,0.0098472
0.0065623,0.043049,-0.39073,-0.078157,-0.0017093,-0.01349,0.045996,-0.0019895
0.010595,0.085776,0.26037,0.048448,0.0076911,0.017637,-0.084894,0.048677
-0.017269,-0.029937,-0.2724,-0.05874,-0.052806,-0.037851,0.018585,-0.07332
0.016343,-0.016062,0.042988,-0.016823,0.011955,0.0076241,-0.019071,-0.024895
0.032971,0.048416,0.24698,0.049138,0.037674,0.013542,0.051744,0.068541
-0.030117,-0.071378,-0.096344,0.021715,-0.0071832,0.0034584,0.01205,-0.027466
-0.0089304,-0.00042557,-0.00895,-0.013585,-0.013522,-0.0068808,-0.044446,-0.023599
0.010722,0.0041038,-0.013259,-0.018278,-0.0050167,0.013884,0.0073977,0.033811
-0.017687,0.01378,0.078637,0.038257,-0.0052531,-0.020083,-0.0039905,-0.010754
0.00014095,-0.055599,-0.092864,0.022658,0.024798,0.024133,0.038997,0.007563
-0.013244,-0.038003,-0.0050668,0.083041,-0.016331,-0.0096015,-0.027225,-0.0042682
0.0053629,0.06062,0.16911,-0.26494,0.0043912,-0.011765,-0.038124,-0.022281
0.033143,0.062007,-0.28232,0.057252,0.0013428,0.017818,0.030129,0.031899
-0.0076082,-0.056566,0.2648,0.081632,0.0061482,-0.014404,0.037158,-0.0058577
0.00044333,0.10319,-0.088335,-0.12055,-0.043315,-0.037934,-0.05603,-0.018733
0.0024572,-0.037812,-0.08378,0.17818,0.032962,0.033292,0.031691,0.039549
-0.017616,-0.051493,-0.15842,-0.06057,-0.014813,0.0039815,0.010961,0.043272
0.017729,0.036807,0.14961,0.077538,0.032165,0.01463,-0.001447,-0.086376
0.014038,0.0065038,0.099103,-0.024819,0.017531,0.018077,0.0096455,0.025082
-0.021542,-0.073511,0.097079,-0.039997,-0.019915,-0.0095312,-0.026467,-0.052304
-0.027035,-0.03213,0.042384,-0.046784,-0.025845,-0.029616,-0.031922,0.0096334
0.012888,0.029061,-0.36188,-0.05365,-0.0084565,0.0042363,0.024438,0.031514
0.0044326,0.032585,0.15736,0.07953,0.016285,-0.0020759,-0.0057458,0.0060128
0.010301,0.010815,0.04482,0.00095129,0.0090866,0.0059641,0.026166,0.043043
-0.0081803,-0.058358,0.026465,0.093468,0.016735,0.012778,0.018862,-0.060048
0.0041767,0.11539,-0.070067,-0.127,-0.023196,-0.012622,-0.066506,0.01736
0.0088342,-0.013859,0.10652,0.019691,-0.0011173,-0.0073037,0.0045382,-0.0058838
-0.0015501,-0.047107,-0.21722,0.0028519,-0.010456,-0.0098019,0.013192,-0.012712
-0.0031847,0.023566,0.16983,0.018304,0.0038408,0.019472,0.045181,0.027832
-0.019309,-0.052116,-0.0602,-0.011709,-0.012579,-0.02062,0.092371,0.052853
0.012604,0.022178,-0.11027,-0.024554,0.010827,0.026408,-0.14245,-0.086493
0.014293,0.027013,0.14453,0.026493,0.035066,0.012117,0.027978,0.039159
0.0011119,-0.053951,0.12562,0.10976,0.02096,0.0065769,-0.02137,-0.05473
-0.019491,-0.0026195,-0.12092,-0.087897,-0.039582,-0.0219,-0.048079,0.006857
0.014581,0.078898,0.067962,-0.059384,-0.014136,-0.0035484,0.057689,0.036609
-0.014242,-0.075434,-0.0040511,0.093049,-0.012495,-0.0092327,-0.0081492,0.0192
-0.004714,0.03412,-0.32988,-0.13894,0.0040359,-0.00034154,0.0050042,-0.060661
0.011708,0.016824,0.32464,0.088128,0.027396,0.015041,0.019473,0.047313
0.01151,0.021173,-0.0010375,0.008592,0.0028039,-0.010006,0.035445,0.0073675
0.0025672,-0.038533,-0.21211,-0.017956,-0.0071582,0.0028264,-0.048749,-0.024183
-0.02274,-0.013433,0.17733,0.032312,-0.010058,-0.00076954,0.032145,0.022928
0.0061971,-0.012306,-0.073065,-0.066661,0.0022975,0.0031605,0.0041625,0.023594
-0.0040078,0.01244,0.10105,0.1935,0.0069346,0.0073749,0.0073726,-0.014484
-0.013918,-0.016566,-0.079963,-0.20226,-0.026913,-0.026652,-0.10712,-0.091375
0.023671,0.026361,0.017852,-0.003381,0.018368,0.010877,0.0041538,0.027286
-0.0082011,0.016734,-0.034669,0.017191,-0.013175,0.0030135,0.02079,-0.0022241
0.023369,0.017307,0.051365,0.070786,0.034819,0.027902,0.060035,0.070107
0.001135,-0.011024,0.0094784,0.0013948,-0.0018218,-0.008406,0.051704,-0.0057811
-0.020404,-0.037333,-0.11489,-0.026876,-0.006221,-0.012548,-0.066572,-0.01131
-0.010278,-0.023113,0.12171,-0.014198,-0.017913,-0.0084697,-0.013446,-0.0014423
0.0077652,0.046563,0.029749,-0.0078237,0.0094271,-0.0045324,0.054898,0.0078741
0.0099948,0.014699,-0.12711,0.015133,0.00495,0.030007,-0.048967,-0.0070901
-0.01163,0.0055951,0.079226,-0.00068055,-0.01615,-0.03806,-0.012417,-0.0074435
0.020878,-0.0047509,0.10088,0.02215,0.031812,0.025409,0.00068417,-0.040051
-0.033153,-0.055774,-0.093625,0.012647,-0.023072,-0.014016,-0.017202,-0.003144
-0.0018112,-0.014813,-0.13651,-0.084421,-0.016553,0.0078539,0.035795,0.033329
0.013427,0.00099662,0.028241,0.074359,0.0048656,0.0053577,0.019335,-0.0005031
0.012671,0.085616,-0.0038343,-0.011104,0.0025964,-0.0054989,-0.035131,0.012963
0.011648,-0.010647,0.04264,0.049991,-0.0072498,-0.0008474,0.020908,0.011535
-0.028622,-0.029623,0.16936,-0.1482,0.006973,-0.01933,-0.00011696,-0.012454
0.040371,0.052499,-0.14596,0.058942,0.045495,0.033156,0.073485,0.05035
-0.015671,-0.029516,0.12057,0.047021,0.0067787,-0.0072116,-0.094486,-0.058017
-0.024773,-0.056509,0.01556,-0.097517,-0.046841,-0.015339,-0.035564,-0.040904
-0.010234,-0.012432,-0.19613,0.086579,0.0015155,0.016529,0.015597,0.01551
-0.018773,-0.021886,0.0078393,0.044687,-0.020398,-0.013371,-0.0037616,0.0094443
0.027877,0.11075,0.048233,0.050086,0.012061,0.011845,0.054548,0.018843
0.028232,0.018442,0.095935,-0.053748,0.020489,-0.0019332,0.0027674,0.012307
0.0057058,-0.056694,-0.09981,-0.095174,-0.010899,0.0074402,0.035949,0.020971
-0.0085949,0.0022228,0.069848,0.019512,0.011623,-0.015009,-0.025821,-0.025555
0.00070943,-0.039706,-0.33295,0.0092813,0.0022289,0.0086746,0.020448,0.021144
-0.03699,-0.034721,0.21495,-0.10195,-0.02323,-0.015277,-0.13772,-0.073256
0.026463,0.11019,0.4164,0.16298,0.013683,0.014832,0.038925,0.0038711
0.0033687,0.042754,-0.10381,-0.0078938,0.0039383,-0.0022973,0.0038762,0.033954
-0.020406,-0.096924,-0.37704,-0.10648,-0.036508,-0.027266,0.046634,-0.0062549
0.0099058,0.026831,-0.020232,0.054579,0.017598,0.010582,0.10513,0.06308
0.00076839,6.0496e-05,0.17822,0.044996,0.025763,0.0099586,-0.11718,-0.070478
0.0071804,-0.067374,-0.038332,0.027863,-0.01204,0.017889,-0.010733,0.014914
-0.017389,-0.010596,0.0973,0.20516,0.03682,0.018743,0.018255,0.014453
0.013303,0.09328,-0.13191,-0.39288,-0.031085,-0.011065,0.032201,0.029548
-0.017731,-0.051608,-0.01344,0.068992,-0.020812,-0.032722,-0.04717,-0.057123
0.014556,0.00086854,0.0085191,0.028188,0.012593,0.0081771,0.0065406,0.0043799
0.016285,0.071474,0.18435,-0.10076,-0.017095,-0.013621,-0.0021125,-0.012463
0.0027949,-0.042925,-0.23647,0.13621,0.030583,0.011087,0.020544,0.017503
-0.0028636,0.00095718,0.096223,0.037102,-0.016275,0.011922,0.027626,0.055446
0.0067113,0.061668,0.19595,-0.0064237,0.014309,-0.0032747,-0.051128,-0.085874
-0.046948,-0.12744,-0.080357,-0.0014526,-0.025896,-0.018777,0.0031286,0.023456
0.015648,0.041975,-0.10998,-0.033651,0.0039911,0.020234,-0.012613,0.0085604
0.014802,0.069075,0.16791,0.092108,0.026109,0.0045117,0.05019,0.02568
-0.010247,-0.038858,-0.38804,-0.13252,-0.0061993,-0.0033552,-0.019335,-0.011285
-0.0044863,-0.078845,0.011609,-0.0051207,-0.014671,-0.0033304,0.0053792,0.0067481
-0.014397,-0.011602,0.24321,0.082981,0.0085471,-0.0032456,-0.016359,-0.029964
0.030713,0.069627,-0.097546,-0.040618,0.00089654,0.0046488,0.0012527,0.065703
0.006123,0.048325,0.12427,-0.032419,-0.029944,-0.026609,0.026774,-0.081554
0.0057095,0.034566,0.090146,0.029508,0.048661,0.035706,-0.041585,0.0046479
-0.0018229,-0.04133,-0.0033736,0.051753,0.0099739,0.0040309,-0.016575,0.0039727
-0.016671,-0.053862,-0.12451,-0.0042116,-0.013319,-0.0044668,0.039057,0.010291
-0.015694,-0.057379,-0.054603,-0.051834,-0.029074,-0.013189,0.039149,0.078518
0.016401,0.057665,-0.075465,-0.067129,-0.0138,-0.014232,-0.039908,-0.087934
0.0011888,0.010006,0.030816,0.028367,-0.014241,-0.0074678,-0.0028787,0.01122
-0.0068623,0.02601,0.11483,0.031536,0.0088278,0.0072401,0.025288,-0.0065852
-3.9777e-05,-0.011873,-0.035368,0.051368,0.039911,0.01437,-0.033326,0.022882
0.021688,0.036507,0.04802,0.024612,0.02436,0.029585,-0.014294,-0.0018628
-0.011831,-0.016846,0.036055,0.16903,0.0089775,-0.0018409,0.01255,-0.0027058
-0.0065824,-0.016083,0.045364,-0.27418,-0.022022,-0.025322,-0.022576,-0.01879
-0.009105,-0.00046835,-0.11956,-0.04017,-0.021953,-0.0019257,0.0058195,0.074772
0.0043948,-0.04025,-0.13038,-0.035538,-0.022211,-0.0020741,0.074661,-0.073679
0.0029885,0.013332,-0.0099188,0.099253,0.0084152,-0.0023834,-0.02681,0.028003
0.010345,-0.034537,0.0004751,0.060138,-0.015924,-0.01846,0.0060737,-0.01077
-0.0046879,-0.011459,0.20635,0.0043098,0.02996,0.020091,0.0012512,-0.080516
-0.0031077,0.051695,0.045871,-0.01247,-0.0021462,0.0040042,-0.033756,0.08453
0.0070583,0.09252,-0.050949,-0.05168,-0.0026757,-0.0041191,-0.0055289,0.00010203
-0.013591,-0.037661,0.03309,0.04377,0.012837,0.011398,-0.078457,-0.0056634
0.020473,0.0043768,-0.092801,-0.014604,0.02092,0.011479,0.07527,0.051486
0.0072815,0.014855,0.055621,0.054735,-0.0020124,-0.011762,0.010018,-0.063082
-0.022247,-0.10837,-0.13095,-0.10758,-0.017105,-0.003744,0.045751,0.0018451
0.009821,0.048454,-0.081888,-0.0096174,-0.02455,-0.0036272,0.00241,0.019343
-0.013719,-0.030244,0.047001,0.074708,0.014602,-0.0036544,0.043714,0.020377
-0.022393,-0.062792,0.029465,-0.019337,-0.032451,-0.01944,-0.15089,-0.042049
-0.00027272,-0.064159,0.068508,0.019937,0.021924,0.035027,0.051383,0.0040246
0.045204,0.23978,0.093043,-0.0036674,0.021689,-0.019825,-0.0055101,-0.012978
-0.0027847,0.029243,0.023494,-0.036327,-0.017303,-0.0041901,-0.016403,0.0011573
-0.011148,-0.039328,0.10796,0.17904,0.0066812,0.0038843,0.019367,0.015717
0.012443,-0.012943,0.00079245,-0.21743,0.015572,0.020032,0.032214,0.007757
-0.010147,-0.13421,-0.51814,-0.038405,-0.014151,0.012932,0.022786,0.024487
-0.016572,-0.02087,0.20703,0.052236,-0.0045768,-0.017551,-0.063176,-0.059003
0.016356,0.084296,-0.002556,0.078414,0.028369,-0.0012659,0.0088207,0.046151
0.0023975,0.024535,0.11291,0.025205,-0.017196,-0.0086621,-0.011462,-0.012082
-0.011867,0.0104,0.056163,0.034033,-0.0087325,-0.0085589,0.047282,-0.01562
-0.0032463,-0.013046,-0.17763,-0.17557,-0.0088993,-0.00093159,-0.034507,0.026971
0.0046594,0.00095542,2.2429e-05,-0.017004,-0.025527,-0.0012878,0.039146,-0.0021849
0.0039752,-0.056959,0.067311,0.14303,0.02745,0.021805,0.064314,0.099556
0.018182,0.078972,0.2043,0.031335,0.025271,-0.0017598,0.009233,-0.15233
-0.015082,-0.051936,-0.027441,-0.047395,-0.0083231,-0.0014945,-0.20429,-0.038867
-0.01747,-0.01963,-0.012673,-0.030873,0.005109,-0.00072925,0.017906,0.042106
0.0034769,0.059165,-0.25391,-0.044466,-0.027903,-0.022892,-0.003003,-0.010145
0.0089924,-0.018132,0.12918,0.044204,0.017854,0.025671,0.077813,0.055267
0.0071696,0.053775,0.080039,0.05502,0.0018827,-0.011482,0.019219,0.035965
0.013867,-0.044776,-0.20696,-0.10613,-0.021096,0.013829,0.087595,-0.0050981
-0.017633,-0.01626,0.073001,0.1152,0.011357,0.0075726,-0.068346,-0.036596
-0.016949,-0.10228,-0.079051,0.023591,0.020973,-0.0070675,-0.04261,0.019319
0.015885,0.096002,0.10406,-0.20126,-0.031529,-0.014646,0.031283,-0.0097615
-0.020826,-0.030655,0.030151,0.034501,0.0098369,-0.015234,-0.035134,-0.0072993
0.036758,0.033101,0.067587,0.12948,0.035413,0.02247,0.19465,-0.012974
-0.0069722,0.099055,0.11523,-0.0099573,-0.048817,-0.034192,-0.28796,-0.081946
-0.011734,-0.044847,-0.24141,0.092837,0.038184,0.041563,0.016617,0.090208
0.014314,-0.0015544,0.18403,-0.10903,-0.031841,-2.0193e-05,0.069351,0.034688
-0.022889,-0.069381,-0.18039,-0.14688,-0.0089264,-0.010284,0.011271,-0.006179
0.0092427,-0.046465,-0.23492,0.049444,0.021055,0.018757,0.069607,-0.00086459
0.0012187,0.035063,0.26101,0.081335,0.0035628,-0.0065291,-0.0048862,-0.042748
