0.0079532,0.0097343,0.0038225,0.0086948,-0.00173,0.0021408,0.00020024,-0.0083845
0.00035022,-0.0062372,-0.0036143,-0.0055708,0.0060859,-0.006307,-0.0076539,-0.0009388
0.00052425,-0.0065206,0.0045959,-0.0044542,-0.0017004,0.0085544,0.0078858,0.006576
0.00059874,0.0011057,-0.010714,-0.0037244,0.0060667,-0.015684,0.0077663,0.0064266
-0.0073041,0.016637,0.0050689,0.012153,-0.0097664,0.0070232,-0.007991,-0.0013306
0.00021017,0.00097578,-0.002773,0.0040894,0.0054248,0.0064656,-0.00029426,-0.0010443
-0.00029771,0.0087562,0.0048405,-0.012251,-0.0030606,0.0061583,-0.0081734,-0.0083471
-0.00096639,-0.022567,0.0045345,0.002296,0.0038881,-0.0016757,-0.00034988,0.00015893
0.0061121,-0.0070767,-0.0035936,0.0010033,-0.004868,-0.0092361,0.0075672,0.00096928
-0.010187,0.00055921,-0.0038029,0.0074879,-0.0057313,0.0068582,-5.1018e-05,0.0018073
-0.0028593,0.00039289,-0.011603,-0.0093148,0.0014819,-0.0081677,0.0080188,0.0025696
0.012573,0.0081165,0.01216,-0.0023633,0.0013183,0.0080851,0.00048108,0.0031486
-0.0028993,0.00034747,0.005036,-0.002787,0.0095265,-0.0069797,-0.0070919,0.0034476
0.0053956,0.0083527,0.0060812,0.0050925,-0.0050999,0.0090617,0.00088052,-0.0044158
-0.0016847,0.00084792,-0.016024,0.005623,0.0042613,-0.0063365,-0.0068733,-0.0048428
0.0069795,0.001189,0.0089078,0.0065093,-0.001602,0.0015014,0.0009052,-0.005617
-0.0078246,0.0014549,-0.013037,-0.00023363,0.00052165,-0.0064681,-0.0069979,0.0011594
-0.0071717,-0.014085,0.019526,-0.0070007,-0.0052609,0.001045,0.0085297,0.0078069
0.0010318,-0.0064393,0.0048709,-0.006183,0.004222,0.0006505,0.0084705,0.0066733
-0.006685,0.00093452,-0.010249,0.002059,0.0053138,0.0080152,-0.0071542,-0.0098923
0.0087689,0.00026134,-0.018083,-0.0057998,-0.0099319,-0.00027152,0.008517,-0.010505
0.00059427,0.0072466,-0.002995,0.0093046,-0.0024781,0.0070508,-0.0070637,0.0049177
0.00013943,0.0063666,0.011649,0.00058575,0.004325,-0.0090797,0.0007206,0.012955
-0.00031447,0.0055317,0.010346,-0.00054756,-0.0049625,-0.0017854,0.00054785,0.0057367
-0.00070097,-0.0029931,0.008863,-0.0095203,0.0011578,-0.0023003,0.00018031,-0.0012287
0.0068201,-0.011345,-0.0082768,0.005124,-0.00048391,-0.0027764,-0.00038983,-0.0080973
0.0066141,0.0039371,-0.0018762,0.0045009,0.0059765,-0.0031616,-0.0011165,-0.0072201
-0.0091652,-0.0040121,-0.01088,0.0043548,0.0050851,0.0044125,-0.0097139,-0.0065503
-0.0093047,0.0038699,0.0038697,-0.0030848,-0.0030796,0.0043643,0.0052037,0.0094408
0.0061756,0.0041431,0.0033853,-0.010048,0.0049013,0.0045207,-0.0030922,0.0016479
-0.0017758,-0.011009,-0.0044754,0.0067857,-0.010136,0.0048591,0.012399,0.001329
-0.0018652,0.0052784,0.0037347,0.0003664,0.0063415,-0.0024893,-0.0029349,0.00071875
-0.0018386,-0.001702,-0.0032682,0.0095564,-0.00052569,-0.0097894,-0.0022129,-0.00011157
0.0061856,0.0070764,0.0056848,-0.0048995,-0.0074564,-0.0014948,0.0066852,-0.00108
-0.0011815,0.0081238,0.0070315,-0.0040903,-0.0067549,-0.0011047,0.00019288,-0.0021044
-0.00049519,-0.0064376,-0.0071957,-0.0037246,0.0015126,0.0069738,-0.0062306,0.0047042
0.0081995,-0.013242,0.0019009,-0.0038043,0.0095148,-0.00069714,0.0028685,0.003789
0.001369,0.0032682,0.0029224,0.0035592,0.009457,-0.0084669,-0.011719,-0.012603
-0.0054944,-0.0038412,-0.019866,-0.0049363,-0.006434,0.0071407,-0.0032216,0.0024537
-0.012536,0.004448,0.011608,0.0099345,0.00095341,-0.00071247,0.0048766,0.0021227
0.011363,0.012482,0.0036004,0.0014507,-0.0073911,0.0070588,0.012579,0.0020524
-0.0041999,0.0046256,-0.012575,0.00097688,-0.00016493,-0.0086054,0.004307,-0.0055669
0.011055,-0.0034856,0.017871,0.00075443,-0.00075286,0.006966,-0.00424,0.0026808
-0.013153,-0.019626,-0.0064991,-0.0070415,0.0065226,-0.00094097,-0.0051565,0.011125
0.0013942,0.0031478,0.0081913,0.00095633,-0.0017257,0.006712,-0.0061547,-0.0037358
0.00015092,0.0024267,-0.00044332,0.0012017,0.0057967,-0.01696,-0.007136,-0.0029133
0.0067196,0.0017514,-0.016687,0.009198,-0.0099386,-0.0016329,0.0076099,-0.002103
-0.0021737,0.0012146,-0.0092283,-0.014225,-0.0020379,-0.0019662,0.0068946,-0.0091748
-0.01077,0.0008777,0.014142,0.0011715,-0.0017533,0.0055136,0.0063728,-0.00072961
0.0044516,0.0085654,0.014345,0.008491,0.0065131,0.01302,0.0060409,0.0075869
0.012259,-0.0070149,-0.00086267,-0.0078608,0.0070834,-0.0028804,-0.017569,0.0079539
0.0047937,0.008734,-0.0081308,-0.00093128,-0.00011703,-0.003152,-0.0020003,0.00036935
-0.0024211,-0.01462,0.00025253,0.0059503,0.0004511,-0.0034682,-0.0019851,0.0004587
-0.017331,0.00092343,-0.0070585,-0.010537,-0.0069189,0.0039293,0.0058819,-0.007399
-0.0088246,0.00057768,0.0011136,0.012211,-0.0066643,0.0033797,-0.0018534,0.00024533
0.015166,0.015538,0.0012942,0.0039517,0.0011826,0.0027012,0.006057,-0.0078361
0.0076842,-0.0088793,0.0012962,-0.0040376,0.00099784,-0.013669,-0.0016283,0.0074514
0.0077599,-0.017919,0.0011523,-0.003962,0.00062185,-0.0065475,0.0063551,-0.0085429
-0.015839,0.011976,0.00091616,-0.0036897,0.0079114,0.00078918,-0.0090389,0.014526
-0.00054663,0.0028357,0.00064859,0.0045117,-0.00052189,0.0085119,-0.00091906,-0.0014494
-0.0087665,0.0016976,0.00040622,-0.0028845,0.0066179,0.0011341,-0.00052168,-0.001779
-0.0013248,0.00089409,0.00023264,0.0052891,-0.0096906,0.0021601,-2.7537e-05,0.0057105
0.014065,0.00052856,0.00015362,0.0055324,-0.0025326,0.0037463,0.00055754,-0.010252
0.0062172,-0.0071645,-0.007637,-0.01,-0.0031164,0.0057585,0.0012091,0.0050069
0.0063927,0.0090503,0.00028516,-0.0022462,0.0042292,-0.0076461,0.0018801,-0.011014
-0.016702,-0.0055862,0.0082645,-0.0024236,-0.0038865,0.0023319,0.0025026,0.0042076
-0.00065554,-0.0043155,-0.0071821,0.0051469,0.0038261,-0.003628,0.0029949,0.0038379
-0.00026987,0.0049057,0.0085776,0.0049048,0.0039523,-0.0022923,-0.0045371,0.0035567
-3.4054e-05,-0.0015111,0.00080007,-0.0030904,-0.0035097,-0.0094002,-0.0045332,0.0034212
0.0077741,0.01536,-0.0071237,-0.0031712,0.0048484,0.0062888,-0.0048386,-0.0043322
-0.00033007,-0.007086,0.0082197,0.0046811,-0.0022761,-0.0020132,0.010182,-0.0040476
-0.00090213,-0.02203,-3.7837e-05,0.012649,0.0063002,0.0049109,0.0015217,-0.003533
-0.0095035,0.0095853,-0.024042,-0.018355,-0.0085539,-0.0040079,-0.0072873,-0.0028155
0.005228,0.0018657,0.0065907,-0.0024283,-0.0078359,0.0026462,-0.0004991,0.0058554
-0.00344,0.0095751,0.013822,-0.0021103,0.00059557,0.0093662,-0.0014227,0.0067597
-0.0041097,-0.006258,-0.0022638,0.0059983,0.0010817,0.00058235,0.0056826,0.0075913
0.011157,0.0013263,0.013087,0.0062366,0.0092194,0.0075416,0.013089,-0.0073994
0.0033742,0.001142,-0.010403,0.0063834,0.0015418,-0.0088587,-0.018225,0.00074405
-0.0040046,0.0010366,-0.0024126,-0.0092166,0.0014528,-0.017416,-0.002333,-0.014916
0.0045955,-0.0067975,-0.0020225,-0.0093371,0.0011068,-0.0025329,0.0060172,0.0081179
-0.0021798,0.0088711,-0.0014513,0.0060091,-0.0073286,0.0045469,-0.0010882,-0.00039853
-0.0088437,-0.0066789,-0.0007382,0.0055749,-0.00040763,0.011677,0.0074736,-0.0090902
8.0569e-05,0.0012015,-0.0077401,-0.0028052,-0.0015176,0.0032956,0.00031907,0.013455
0.00102,0.001227,0.0087416,0.0043478,-0.0027493,-0.0049114,-0.0070429,-0.0029071
0.0016808,-0.00663,0.0095825,-0.0041561,0.0038472,-0.0050876,0.0087489,0.0044666
0.0019955,0.00105,0.0025235,-0.012619,0.0028077,0.010591,-0.014825,0.0044199
0.0019397,0.0086315,-0.004698,0.01029,-0.005709,-0.0047723,0.0082159,-0.010829
0.0015315,0.00048478,-0.0043354,0.0099602,0.0018635,-0.0043542,-0.007966,-0.0022539
0.00082888,4.7728e-05,-0.0042423,-0.0057332,0.0021623,0.0039659,-0.00073721,0.0066165
-0.0078876,-0.0082972,-0.0044232,0.0023132,0.0030037,0.0044947,0.0066025,2.3637e-05
0.0067514,-0.0010944,0.010784,-0.012765,0.0043169,-0.010636,-0.0014639,-0.0065619
-0.0098091,0.006064,-0.0054221,-0.0041181,-0.0018467,0.0054149,0.006364,0.0023312
-0.0027535,0.0054156,0.0017395,0.01257,-0.0078555,-0.009863,-0.0011837,0.010946
0.012396,0.0048386,-0.0066976,0.0059537,0.001717,0.0060395,0.0070564,-0.0042483
-0.011179,-0.019029,0.0084068,-0.0006459,-0.0045678,0.0062667,-0.00029571,-0.0042296
0.012458,-0.003611,0.0080361,0.00045728,0.0043849,-0.0013497,-0.0077542,-0.0046075
0.0051197,-0.0035391,1.1115e-05,-0.0064743,-0.0027806,0.0066392,-0.0076175,-0.0053151
-0.0020556,0.012459,-0.0078803,0.0019201,0.0051374,-0.008828,6.173e-05,0.0015644
-0.0013927,0.013106,-0.0078713,-0.0056341,0.0047119,-0.00088229,-0.00032244,0.0083387
-0.0086498,0.0061321,-1.321e-05,-0.0056657,-0.0039911,-0.0007811,-0.0008725,0.0073099
-0.008303,-0.0085845,0.007838,0.0019098,0.0025801,-0.0007147,0.0063522,0.0063823
-0.00040318,-0.0077445,0.0078433,0.0093954,-0.0066734,-0.00067723,0.0058654,-0.010008
0.0072418,-0.0070939,-0.0078166,0.0012873,-0.0081424,0.0071591,-0.0022175,-0.010578
0.014684,0.0011055,-0.0078809,0.0011248,0.0061572,-0.00062022,-0.0022046,-0.0031295
-0.0092415,-0.006595,-0.00014027,0.0011597,0.0051224,-0.00055024,-0.0019036,0.012335
0.0058751,0.0089188,0.0076166,-0.014213,-0.0033343,-0.008228,0.0064423,-0.0032571
-0.010182,0.0086837,-0.00021804,0.017484,0.0042606,0.0076209,-0.00070639,-0.0030483
-0.0026425,0.00063356,0.00761,-0.0053615,0.0044371,-0.007675,-0.0078514,0.012937
0.0051155,0.0005103,-0.0001587,-0.0046925,-0.0028966,0.0083875,0.00050644,-0.010024
-0.002503,-0.015035,-0.0079175,0.003798,-0.0022455,0.001108,0.0008274,-0.0016618
0.0057474,0.0087312,-0.007874,-0.011201,0.0062514,-0.0061067,0.00086212,-0.0010887
-0.0014242,-0.0063241,0.0077701,-0.010679,-0.0087743,0.0023216,0.00059756,-0.00054576
-0.00065462,0.010053,-0.0078657,0.028758,-0.00052303,0.0028969,0.0078822,0.0077299
-0.0076693,-0.0047423,0.0077215,-0.0023071,-0.0080814,-0.0044441,-0.0084561,0.0080749
0.008668,0.0038457,0.0076624,-0.0023535,-0.0079907,0.0036761,-0.0014359,0.00046991
0.0013718,-0.0033863,-0.00022576,0.0051476,0.015422,-0.0040421,-0.002189,-0.022891
0.0016035,0.0046904,-0.015943,-0.01107,0.0075177,-0.0041937,-0.002793,-0.0072892
0.0015019,0.0045609,0.0073836,0.0036981,0.0073926,0.011023,0.0046482,0.016078
-0.0067404,-0.011601,0.0072494,-0.012993,0.0072428,-0.0052555,0.012366,0.00039349
-0.0074345,-0.0046745,-0.00072015,0.0014537,-0.016377,0.0016972,0.0047356,0.0082017
-0.00046437,-0.0057853,-0.0087051,0.00028335,-0.0087858,0.00069268,-0.010471,0.00046035
0.0065067,0.016484,-0.0010643,0.014873,-0.0090335,-0.000372,-0.0098831,0.00059629
0.0058196,-0.0080003,-0.001212,0.0062686,0.0063576,-0.0013952,-0.0092015,-0.0070522
-0.010212,0.0068507,0.0065028,-0.0098345,0.0061997,-0.0022669,0.014938,-0.0069107
0.005356,-0.0013691,0.0064771,-0.0021624,-0.0016293,-0.0028824,-2.6883e-05,0.00097039
0.0056493,0.00642,-0.0012758,-0.0019872,0.0063527,0.0046529,0.0083576,0.0087399
0.0062201,-0.0089054,-0.0089425,-0.0015563,0.0067111,-0.0030573,-0.0068162,-0.0070617
-0.0086841,-0.00059396,-0.00090937,-0.00095587,-0.0084146,-0.0025907,0.0091215,0.00043428
-0.0079679,0.015572,0.0071758,-0.00028501,-5.5588e-05,0.013786,-0.014146,0.0077954
0.0082222,-0.0074376,-0.0081566,0.0081687,0.00041848,-0.0087533,-0.0062965,-0.008406
-0.007094,-0.015056,-7.0659e-05,0.0086913,0.000702,0.007735,0.001436,0.0065288
0.0085425,0.00046834,0.0079522,-0.0065971,0.00070795,0.00055865,0.0090696,0.0057361
0.00047739,7.8799e-05,0.00024367,-0.014296,-0.0074085,-0.0070118,0.00099037,-0.010769
-0.0077517,0.015091,0.0080187,0.0012187,-0.00017501,0.00054438,0.0084489,-0.0039024
-0.0081878,-0.0090797,-0.0078023,0.008724,0.0068826,-0.0080375,0.00018791,0.010747
-0.00067601,-0.0020072,-0.0081468,-0.0073566,-0.0095262,0.0063903,-0.0081734,-0.0058326
0.0070979,0.0051551,-0.00078607,-9.7419e-05,0.005453,-0.002872,-0.0088133,0.0011077
0.015198,0.0046569,-0.0012764,0.0071016,-0.0027135,-0.0043391,0.0061148,0.00038625
0.00017004,0.0043322,-0.0017221,0.0064423,0.012959,0.0022408,-0.0023899,-0.00012108
0.00097928,-0.0036446,0.013581,0.0057286,-0.002173,0.0092759,-0.010809,-0.0081795
-0.005965,-0.011494,-0.0021842,-0.010685,-0.009079,0.0012882,0.01219,-0.00033105
-0.0052096,-0.0036251,0.0056913,-0.003747,-4.8272e-05,0.0017606,0.011985,0.0156
-0.0047151,0.0043156,-0.0018684,-0.0046948,0.0091402,-0.0049956,-0.0035825,0.00050714
-0.012386,0.012328,-0.0092798,0.0021493,-0.0051318,-0.0035154,-0.0032778,0.0090145
0.01082,-0.003005,0.0068399,0.0012498,-0.0039799,0.0059745,-0.0027804,-0.013633
0.010264,-0.010403,-0.0082489,0.0005308,0.0046349,-0.0080292,-0.009984,-0.012802
0.0016685,0.0057886,-0.0077116,-0.0077116,-0.0028231,0.0011104,0.014084,-0.0041433
-0.0070338,-0.0091041,0.0084252,0.0078502,-0.0029522,0.0097711,-0.00096611,0.012344
-0.00010188,0.015215,0.0010804,0.0081768,0.0042757,-0.0055882,-0.00049977,-0.0023899
-0.00088077,-0.0072449,0.0092959,0.0010396,-0.0044933,-0.0059128,-0.0079709,0.0063466
0.0063128,0.0015478,0.0017927,0.0019638,0.0021159,0.0010713,7.6629e-05,-0.0083508
0.005878,0.0024089,-0.0058439,-0.0048112,0.0086258,-9.6019e-05,0.00025137,0.0081287
-0.010001,0.0030187,-0.0058453,-0.011613,-0.00043635,0.0064243,0.0082367,0.0087868
-0.01009,-0.0045519,0.0017502,0.0048866,-0.0014931,-0.002579,0.00064787,-0.0065264
0.013402,0.0030609,-0.0065153,-0.0022434,-0.010055,-0.0034693,-0.0068608,0.0089216
-0.0020405,-0.0054009,0.0084266,0.0060698,-0.0026083,-0.0039201,0.0013297,-0.015275
-0.0017396,-0.00643,-0.00026224,-0.0013537,-0.0025609,0.0039358,0.0017352,-0.00099603
-0.0091423,0.00011775,0.006548,-0.00096847,0.013499,0.01225,-0.005728,-0.0028275
0.006983,0.0066297,-0.0022989,-0.0082845,-0.0013872,0.0052801,0.010082,-0.0049362
-0.00027523,0.0055174,-0.0032534,0.0080345,0.01515,-0.0093322,0.0021762,0.00077462
0.015898,-0.0030088,-0.011821,0.0011401,-0.015174,-0.0083364,-0.0061006,0.006803
-0.01489,-0.003165,-0.004456,-0.0055838,0.001231,0.00029177,0.00082736,0.0056146
0.0088355,-0.0026849,0.018925,0.011165,-0.0060753,-0.0069923,-0.00046095,0.0052129
0.0010581,-0.0015886,0.0036712,0.0043123,0.0019018,0.0088393,-0.0020617,-0.002147
-0.014829,0.0078167,-0.0033607,-0.0029286,-0.0060826,0.00094817,-0.011626,-0.00090736
0.0002396,0.0097008,-0.002246,-0.0029429,0.0091095,-0.0071373,0.01012,-0.0068797
-0.00055145,-0.0040086,0.006894,0.0041512,-0.0070831,0.015951,0.00090229,0.0031046
0.0063427,-0.0023342,-0.015152,-0.020705,0.00017291,-0.0077932,-1.2144e-05,0.0053068
0.0054357,-0.016766,-0.0060362,0.0085695,0.00757,-0.00015411,0.0075192,-0.0005547
-0.0031275,0.0072173,0.010665,-0.0015027,-0.00043371,-0.00014412,-0.0076985,-0.014697
-0.0035959,0.0070469,0.0035965,-0.011503,-0.00038364,5.0889e-05,0.0011662,0.0018177
0.0041163,-0.0094258,0.003944,0.018003,0.0076687,-0.0074248,0.010541,0.0020929
-0.0033972,0.0048079,0.0038794,-0.0064211,-0.0076323,0.0086023,-0.011025,0.0018231
0.0050842,0.0030758,-0.012189,0.0091608,0.00045592,0.008977,-0.0012682,0.0089576
-0.001777,-0.0065732,-0.0051178,0.0022629,0.00055882,-0.014202,0.008336,0.00022961
-0.0084914,0.0073445,0.0017721,0.0039693,-0.0074088,0.009314,-0.005834,-0.0085626
0.00039818,0.0059652,0.00080612,-0.0016621,-3.2483e-05,-0.0064386,-0.00483,-0.0016446
0.0090868,-0.0027584,0.0077462,-0.0072256,0.0071089,-0.0067518,-0.0043112,0.0054683
0.0017817,-0.010944,0.0070808,0.0024867,-0.0015028,0.00062346,0.011389,0.005027
0.0017904,0.0048425,-0.016743,-0.00412,-0.010097,0.0079622,-0.012319,-0.0029478
0.0012331,-0.0023449,0.0066061,-0.0038154,0.0049148,-0.0080823,0.010628,-0.0028443
-0.0076877,-0.0091955,-0.0010286,0.0033688,0.012409,0.007248,0.0022351,-0.0025087
-0.0092409,0.015375,-0.00066065,-0.013674,-0.01098,0.0071102,0.0094825,0.0058285
-0.0032364,0.0086822,0.0076091,0.0078417,0.0050624,-0.00069605,-0.00662,-0.0091282
0.010576,0.001803,0.008052,0.0057759,0.005783,-0.00059744,-0.014786,-0.0083628
0.0090284,-0.013211,-0.0072279,-0.0038841,-0.0011264,-0.0082927,0.0084256,0.008073
-0.0076317,-0.0051832,-0.022651,0.0025871,-0.0080011,-0.00041771,-0.0073131,0.01668
-0.0079761,-0.0053548,0.00084722,0.0097238,0.00064078,-0.00046269,0.0082794,0.00176
0.0080743,0.0097969,0.0086188,0.0019075,-0.0065603,-0.0006346,0.00047716,-0.0055143
0.0092346,-0.0064586,0.016352,0.0024394,0.0015893,-0.00091761,0.0083013,-0.013025
-0.0046382,0.00073503,-0.0071414,-0.0045422,0.017281,0.0065438,-0.015164,0.0026211
0.0052921,0.0080927,0.00068015,-0.011501,-0.014116,-0.001632,0.00035913,-0.0054571
-0.0081202,8.839e-05,0.00076352,-0.0030599,0.0012443,-0.0019549,0.0079705,0.0096542
-0.0060828,0.00018157,-0.0069127,0.0049884,-0.0068452,0.0056116,0.0076611,0.0089711
-0.00445,0.0083129,0.0088597,-0.0030335,0.00077115,-0.0023566,-0.016185,-0.023026
0.0044312,-0.0068919,-0.006653,0.004189,0.016336,-0.002431,-0.0010359,0.015339
0.004859,-0.0065263,0.001201,-0.0044344,-0.007022,-0.0024482,0.014094,-0.00083235
-0.0031624,0.0092621,-0.0066557,0.0025596,0.00095719,0.013188,-0.009792,-0.0011561
0.011689,-0.006502,0.0010345,0.0019494,0.0011165,-0.01023,0.0055019,-0.0012253
-0.0051514,-0.0069705,0.00085769,-0.0060931,0.0011536,-0.0023948,-0.0024568,0.0067601
-0.0066563,9.8813e-05,0.00065504,0.017587,0.00096351,-0.0023526,-0.0023668,-0.0085007
-0.00047265,-0.00079475,0.0082604,0.0026782,-0.015147,0.0055534,-0.0020182,0.0076017
0.0057492,0.0061387,0.00024375,-0.0040324,-0.00031477,-0.0098899,-0.0014278,-0.0075215
-0.0034708,0.0054418,0.0078494,-0.010505,0.0064465,0.0060322,0.0071546,0.00073327
0.0032334,-0.0027523,-0.0079946,-0.0091022,0.005238,0.0064487,0.00018503,0.0088637
-0.0053098,0.0050649,-0.0082267,6.5984e-06,-0.0038064,0.0069583,0.00096149,-0.014418
0.002185,-0.0023603,-0.0084547,0.0088706,0.0028924,-0.00030628,0.0015203,0.001193
0.0022723,-0.0016643,-0.00082833,0.0017699,0.0020237,-0.0076031,0.001728,0.0010267
0.0027165,-0.00078648,0.006889,0.0020934,0.0014954,-0.007189,0.0015008,0.008559
-0.0043742,-0.0076936,0.014742,0.0020223,-0.0064503,-0.0069271,-0.0069824,0.0082165
0.0043389,0.00089775,-0.0006804,0.0015881,0.0016376,0.0087862,-0.015829,6.0059e-05
-0.0024991,0.009232,-0.0003215,-0.0069573,-0.0055146,0.00089772,0.0063717,-0.015842
-0.0093619,-0.0062171,-0.0076519,-8.3832e-05,0.011101,0.008504,0.0051489,-0.00035538
0.0071045,0.0092013,-0.0070995,-0.0011141,-0.0032785,0.00040351,0.0041688,-0.0080963
-3.7875e-05,-0.0069929,0.0090908,-0.0021091,-0.0096849,-0.0077262,0.0036248,0.0078652
0.00041974,-3.8621e-05,-0.0060051,-0.0029444,-0.00040914,-0.00021098,-0.0041795,0.0084881
0.00064507,-0.0010678,0.0022685,0.012111,0.0088152,-0.00044743,0.0042056,-0.0062571
0.0084521,-0.0021207,0.0026484,-0.003746,0.010068,-0.00059351,-0.0025666,0.0026004
-0.0073854,0.0047702,-0.0048647,0.0042011,-0.0045596,-0.00063314,-0.001248,0.011473
5.507e-05,-0.011506,0.0031732,-0.0031283,-0.011707,0.0072473,0.0079148,-0.011077
-0.0082179,0.01165,0.0033276,-0.0023554,0.0042083,-0.00040385,-0.0065856,0.0050672
0.0069493,0.0039695,-0.0044082,-0.0091941,-0.0036911,-0.007989,-0.0059067,0.0050602
-0.0012166,-0.0033189,0.0033842,0.015314,0.0036989,0.007892,0.0019984,-0.018996
-0.0013677,0.0053281,-0.0045733,0.0007503,0.0030206,-0.0074905,0.0014702,0.0032278
0.0065738,-0.0092785,0.010753,-0.013917,0.0021925,0.00050974,0.0082131,0.0015399
-0.0086005,-0.00041185,-0.0053451,0.0024877,-0.014295,0.00060718,-0.016656,-0.0082221
0.0077904,0.0083459,-0.0059899,0.0030386,0.0083535,0.0084021,0.005234,0.01327
0.0010004,-0.014374,0.0010353,0.0033376,0.0077199,0.00044766,-0.003972,-0.0040236
-0.0056402,0.0016632,0.00016454,0.0112,-0.008337,-0.0076213,0.0028417,0.010437
-0.0044623,0.0017405,-0.00070798,-0.020222,0.0070636,-0.00014812,0.010218,-0.0057025
0.0043744,0.0093125,0.0063209,0.0028719,-0.00861,-0.00051865,0.0025948,0.0022864
0.0050927,0.0088131,-0.0099169,0.010238,0.0070843,-0.00085471,0.0033606,-0.0047248
0.0132,-0.0074776,0.0053225,-0.0058544,-0.00060959,-0.0010884,-0.01107,-0.0034542
-0.010424,-0.0081921,-0.0026306,0.0015555,-0.00050431,-0.0011642,-0.0018467,0.005884
-0.018888,-0.008825,0.013074,-0.0065182,-0.00045472,0.014572,-0.00044884,-0.00038158
0.0035331,0.0063756,-0.0023105,0.0012286,-0.0082873,-0.0085764,0.0085458,0.0087851
0.0023203,-0.0015501,-0.0019894,0.0013752,-0.00055026,-0.00034224,-0.0062508,-0.01365
0.0089328,0.014328,-0.0094772,0.001704,-0.000647,0.00013256,-0.00583,-0.0052704
0.00014346,-0.0085005,0.006423,0.0021346,0.0149,-0.0072491,0.0020275,0.0026785
-0.0004406,0.00019106,-0.0089917,0.0025443,-0.00075034,0.016478,-0.0060171,0.010276
-0.0083514,0.0011867,-0.0010087,0.0027874,-0.00071028,-0.0068871,0.0092323,-0.0057833
0.0076566,0.0020996,0.014801,-0.0050882,-0.008424,-0.0070736,0.0010311,-0.006283
0.00060437,0.0027198,-0.016187,0.0022553,-0.000479,0.00029972,0.00072216,0.0089165
0.0093684,0.00287,0.0076361,0.0013506,-0.00034712,-0.00033815,0.0083392,0.00084923
-0.0053464,-0.0053655,0.0081552,-0.015556,0.0075623,0.0067317,-0.0073976,0.00080107
-0.012524,-0.0063605,-0.0068568,0.0063702,-0.00021392,-0.0018103,0.0081197,0.00093088
0.011088,1.8439e-06,0.0015764,-0.0029656,-0.008062,-0.002406,-0.015524,-0.0066553
-0.0049231,-0.0094978,0.0099002,0.0035588,-0.00035077,-0.0027653,-0.0002955,0.0091815
0.0019558,-0.0033288,-0.0054434,0.0027352,0.0073179,0.0049899,-0.0009361,0.0014557
-0.0072142,0.010983,-0.0054852,0.0025378,-0.0006445,0.0052523,0.01381,-0.006477
-0.00096996,0.010233,-0.0058894,-0.0047901,-0.00075579,-0.0098235,-0.0028611,-0.014649
-0.0024883,0.010177,-0.0066275,0.0041211,-0.00078284,0.0065606,-0.0039473,0.00040184
0.0041102,-0.0048093,0.0080203,0.0056492,-0.00068647,-0.00038831,-0.0049107,0.0075001
0.011207,-0.0035974,0.0069459,0.0073378,-0.00044185,0.0082783,-0.0055833,0.014564
-0.0045409,-0.0098384,-0.0018782,-0.0067402,-0.0078585,-0.014415,0.0019842,-0.0017308
0.011525,-0.0081639,0.0051308,-0.021235,0.00047626,-0.0060401,0.002239,-0.0022213
-0.0032354,0.016804,-0.0031736,0.010537,0.016696,0.0021228,0.018603,-0.0024584
-0.017795,-0.0054412,-0.011122,0.010383,0.0016595,0.010082,-0.0037196,-0.010213
0.0066546,-0.004696,0.0047027,-0.0060052,-0.0056603,0.0022536,-0.0024132,0.0057746
-0.00043271,0.0033965,0.012977,-0.0071845,-0.013158,0.0021342,-0.0011373,-0.0013909
0.0076551,-0.0045356,-0.0020352,-0.0085054,0.010367,-0.005835,-0.0001033,-0.00050793
-0.00039141,0.0028833,-0.001391,-0.0018552,0.0024107,-0.0059686,-0.0072763,0.0083496
-0.0088902,0.0023684,-0.0086294,0.013027,0.0020913,0.001779,-0.0070918,0.0016481
-0.0098658,0.00188,-0.00037266,0.020684,-0.0061107,0.0018063,-0.0073208,-0.012911
0.0047309,0.0015335,-0.007877,0.0055283,-0.022059,0.0019221,0.0077888,0.0036187
0.011725,0.001396,0.0079647,-0.016903,0.0090639,0.0020939,0.0071628,0.0042547
-0.004278,0.0014831,0.0081686,-0.0077411,0.0092211,0.0022635,0.0066038,0.0045378
0.0037502,-0.0060457,-0.0071773,-0.0062931,0.0096697,-0.0054574,0.0062487,-0.0033906
-0.0032164,-0.005622,0.0010593,0.0028188,0.002508,-0.0055244,-0.0016458,-0.0039025
0.0059839,0.0026848,0.0016577,-0.0040441,0.0031842,0.0098046,-0.0092714,0.0030602
-9.7776e-05,0.0031812,0.0024085,0.012055,0.0036591,0.0014225,-0.0010682,-0.0058302
0.0017041,-0.0041918,0.0032386,0.0042049,-0.0040973,-0.0072402,-0.0083871,0.00082465
-0.0045279,0.0039567,-0.0037752,-0.004112,-0.02023,-0.00051976,0.0077264,-0.00024873
-0.0034254,0.004156,-0.0031347,-0.0049692,0.0021127,-0.001768,0.0003063,-0.0088991
-0.0029727,-0.0036146,-0.0027699,-0.006023,-0.0072599,0.012579,0.008357,0.021859
-0.0032268,0.0040753,-0.0027662,0.0085216,-0.0012266,-0.0042006,-0.0072025,-0.0094902
0.0036904,-0.0040169,0.012465,-0.0080567,0.0049078,-0.0050707,-0.0072916,0.014218
0.0023248,-0.0044308,-0.0039341,0.014667,0.011464,-0.0055133,0.00032227,-0.01648
0.00072874,0.002871,-0.0050162,-0.0013763,0.0030624,-0.0054292,0.0078836,-0.00015202
-0.00083562,-0.0055016,0.0015174,-0.0015071,0.011069,0.0030247,-0.00017973,0.00055478
-0.0021324,0.009564,-0.0076364,-0.0092227,-0.0036169,0.019794,0.0074172,0.0089476
0.0048208,0.0012359,0.014532,0.0066327,-0.0099244,-0.0021364,-0.0083785,0.0014978
0.0044778,-0.0070199,-0.009987,-0.00091981,0.0074979,-0.00047622,-0.00070775,-0.021833
-0.003179,0.00042988,0.0048198,0.0070933,-0.014156,0.0010953,-0.00085606,0.0014666
-0.0026258,0.0079471,0.0042968,-0.0084454,-0.0048505,-0.0054618,-0.0010564,0.0011342
0.0059817,-0.00012429,0.004057,-0.0084845,0.0039704,-0.004688,0.0064594,0.016295
-0.00096702,-0.016014,-0.011569,0.0070071,0.004404,-0.0044655,-0.009593,0.00012984
-0.0080007,0.0071086,0.0042347,-0.0087848,-0.0035329,-0.012571,0.0054577,0.0073556
0.00040018,0.006706,-0.0032767,0.014523,0.0036992,0.0023718,0.0047423,-0.0088972
-0.0070584,-0.0016179,-0.0028949,0.006675,0.0028167,0.017102,-0.0038961,-0.0017632
0.00088786,0.0055781,0.0053581,-0.0088607,-0.0060112,0.00055082,0.0030346,-0.01031
0.0086684,-0.0029216,-0.0019622,-0.00084191,0.016432,0.015358,-0.0056399,0.0045426
0.00072628,-0.011424,-0.0014222,-0.00055971,-0.0078618,-0.0087132,-0.0063931,0.0037827
0.0083678,0.003604,-0.008662,-0.00026572,-0.00069209,-0.0091564,0.0086796,-0.0046951
-0.0074425,0.0032135,0.0075301,-3.1669e-05,-0.0089002,-0.001638,0.00059761,0.0026465
0.00016389,-0.0046744,0.015839,7.8822e-05,-0.0012336,0.013783,0.00066855,0.0024658
-9.4498e-05,0.0034581,0.00055707,2.3055e-05,0.0066635,-0.017626,0.0011025,-0.0051696
-0.00044428,-0.0036115,0.00066673,-0.0002129,-0.00086713,-0.0021221,-0.0059315,0.0031958
-0.00091188,0.0053261,-0.0073185,-0.00061211,0.0073822,0.0056407,0.0029452,0.0040822
-0.0014942,0.0067214,-0.015579,-0.0011303,-0.0077005,-0.0099001,0.0042025,0.0052
