0.0040573,0.0319,0.22401,0.020676,-0.0019086,0.032435,0.057952,0.0065148
0.011322,0.031683,0.31936,0.074156,0.0060509,-0.00045404,-0.032969,0.011357
0.0031007,-0.0071331,0.14227,-0.0049682,0.0063537,-0.00089741,-0.050812,-0.0073152
-0.01271,-0.053314,-0.39555,-0.076102,-0.0088523,-0.007635,-0.057474,0.0055249
0.0030167,0.049287,0.3452,0.079449,-0.00053202,-0.0049114,0.048902,0.003276
-0.0043855,-0.05107,-0.76021,-0.061801,-0.0077649,-0.0084489,-0.0209,-0.0060835
-0.019321,-0.065559,0.02466,-0.14832,-0.046196,-0.026396,-0.017596,-0.030325
0.036251,0.09148,0.43017,0.14019,0.048193,0.011003,-0.020646,0.032041
0.013771,0.013507,-0.10124,0.061544,0.033134,0.048333,0.21808,0.0089803
0.014665,0.10652,0.38889,0.1079,0.033511,0.10822,0.25111,0.079988
-0.047113,-0.067098,-0.15715,-0.11135,-0.036737,-0.14605,-0.533,-0.13011
0.00026922,-0.04632,-0.30611,-0.057081,-0.044887,-0.035382,-0.034217,-0.0042062
-0.015024,-0.06513,0.33438,-0.072869,-0.006572,-0.0054076,0.27036,0.035813
-0.014755,-0.044719,-0.59539,0.00564,-0.015452,0.061112,-0.16544,-0.0021438
0.032474,0.054859,0.18337,0.053796,0.030212,0.016155,0.074423,-0.0085717
0.017409,0.062629,0.40071,0.079714,0.021264,0.0010762,0.1805,0.032263
0.0025983,0.033965,0.12899,-0.018029,0.012591,0.055875,-0.17167,0.0031988
-0.0042055,0.0081928,-0.20845,-0.02079,-0.0034886,-0.19344,-0.3222,-0.048977
0.028091,-0.054055,0.20274,0.086689,0.0043119,0.097809,0.21623,0.1021
-0.049162,-0.028681,-0.23572,-0.11023,-0.026558,-0.0071898,0.046725,-0.075089
-0.0017973,-0.034299,-0.42451,-0.018478,-0.0024603,0.01532,0.090773,0.005121
-0.025272,0.021063,0.28526,-0.099677,-0.032911,0.055836,0.17405,-0.048103
0.060066,0.0574,-0.20499,0.10651,0.022576,-0.081521,-0.29364,0.015153
-0.011326,0.19804,0.18763,0.10746,0.046691,0.18048,0.36982,0.085574
-0.036135,-0.097239,-0.22667,-0.018956,-0.015346,-0.10452,-0.16914,-0.00070377
0.05621,-0.40688,0.95556,0.039747,0.0161,-0.078077,0.13201,-0.063686
-0.054329,0.26981,-0.69951,-0.20055,-0.062101,-0.045545,-0.49462,-0.071774
0.0074901,0.09079,0.45833,0.12008,0.046977,0.086604,0.16228,0.045662
0.0074438,-0.11318,-0.61791,-0.16947,-0.039377,-0.032983,-0.37868,0.062256
0.023689,0.098593,0.11712,0.10359,0.014906,-0.03657,0.19992,-0.029791
-0.0063793,-0.020565,0.27047,0.096389,-0.0009812,0.084356,0.34909,0.042757
0.026393,-0.27237,-0.31651,-0.026293,0.0067955,-0.0054829,0.027184,-0.0017288
-0.050169,0.21252,0.41677,0.087508,0.022622,0.069368,0.26904,0.0003488
-0.0098179,0.12255,-0.57768,-0.14025,-0.016079,-0.097174,-0.4318,0.0016875
0.029984,-0.13649,0.16866,0.024598,0.023361,0.018215,0.08776,-0.068295
0.014365,0.32417,0.14071,-0.058963,-0.03892,0.0011688,-0.12042,-0.076832
-0.048927,-0.3813,0.28468,0.069525,0.031304,0.046636,0.47886,0.070002
0.019856,0.071497,-0.3984,-0.027915,-0.031661,-0.13474,-0.759,0.0053283
0.009948,-0.001091,0.17813,0.015479,-0.0012179,0.12098,0.38152,0.081031
-0.00026889,0.045732,-0.16511,-0.0037713,0.0055944,-0.053297,0.046907,0.0082653
0.059828,-0.10346,0.17326,0.04687,-0.018811,-0.11042,-0.51326,-0.056665
-0.059437,0.10409,0.13009,-0.035926,0.050817,0.29375,0.56136,0.018954
-0.037448,-0.066833,-0.15497,-0.017918,-0.019682,-0.19975,-0.039754,0.039645
0.0010249,-0.014426,-0.33929,0.030522,0.0041898,-0.012487,0.068723,-0.10409
0.03265,0.23124,0.18535,-0.054663,-0.018194,0.074412,-0.10287,0.01745
-0.02077,-0.19512,0.011588,0.015654,0.0067859,-0.11887,-0.075783,-0.017403
0.059229,0.013597,0.45881,0.061882,0.016395,0.15728,0.010914,0.049533
-0.063783,-0.069611,-0.19246,-0.033056,-0.0052923,-0.019623,-0.10761,-0.015668
0.10956,-0.02018,-0.35664,-0.034683,-0.0038913,-0.10344,0.045153,-0.0094764
-0.085479,0.13312,0.23986,0.049272,-0.0030921,0.076964,0.21053,0.052721
0.022429,0.12676,-0.027239,-0.0076898,0.0047654,0.021059,0.066636,-0.0087764
-0.020135,-0.11579,-0.13318,-0.025829,-0.027222,-0.060432,-0.26361,0.0010486
-0.025587,-0.11693,-0.060609,-0.02072,-0.005206,0.035866,-0.14964,-0.090218
0.0065605,0.05356,0.13767,0.023321,0.016319,0.029446,0.23456,0.099546
-0.00097026,-0.080795,-0.013183,0.043878,0.045419,-0.13319,0.090559,-0.039749
-0.07054,0.034364,0.27724,-0.037057,-0.011395,0.049405,0.073908,0.0538
0.2521,0.20305,-0.14647,0.038501,-0.0054473,0.00059763,-0.041578,-0.088902
-0.18832,0.11962,0.1224,-0.041711,-0.06155,0.00283,-0.20748,0.063398
0.007306,-0.51399,-0.11905,0.027303,0.015732,0.033291,-0.07749,-0.020155
-0.012361,0.11339,-0.29244,-0.074421,0.031138,0.037148,-0.21873,-0.0028676
0.0024234,0.12538,-0.10057,-0.041854,0.0080848,-0.002192,0.3251,-0.024342
0.043119,0.067457,0.2693,0.17212,0.040236,0.015159,0.00173,-0.044395
0.046131,0.27423,0.074865,-0.07304,-0.060036,-0.045715,0.28877,0.023922
0.025786,-0.34923,-0.29415,0.019353,-0.0038106,0.12553,0.083919,0.13444
-0.11295,0.0085869,0.48059,-0.01989,-0.00215,-0.25415,-0.59183,-0.095417
0.027325,-0.21556,-0.064893,-0.035199,0.015167,0.095377,0.47651,0.060613
-0.054006,-0.045682,0.24526,0.027272,-0.02223,0.15044,-0.12948,-0.085785
0.11172,0.21304,-0.36635,0.072882,0.02624,-0.27583,-0.40616,0.026684
-0.17038,0.31007,-0.56711,-0.157,-0.01135,0.067888,0.40881,0.060675
0.10832,0.15107,0.82069,0.1417,-0.0022683,-0.058899,-0.38953,-0.13364
0.073825,-0.41287,-0.58596,-0.0078871,0.061187,0.2908,0.44862,0.12225
-0.10103,-0.045828,0.54277,-0.066655,-0.016422,-0.092609,0.23723,-0.078663
0.014185,0.041941,-0.44613,0.012709,-0.078947,0.033881,-0.62237,-0.0022732
0.013549,-0.12449,-0.11085,-0.065907,0.0063731,-0.016953,0.13165,0.13298
0.021975,0.20734,0.39691,0.042224,0.044252,-0.042115,0.32416,-0.070511
0.05462,-0.19396,0.25321,0.056898,-0.012081,-0.04192,-0.67312,-0.088016
-0.053285,-0.1693,-0.24183,0.02594,0.025041,-0.10261,0.69054,0.066395
0.0022034,0.28337,-0.09401,-0.034294,-0.016057,0.064672,-0.33233,-0.058801
-0.013862,0.14918,-0.2323,0.0094339,0.005454,-0.024549,0.071562,-0.048155
-0.070473,0.021009,0.13192,-0.069335,-0.043059,-0.011052,-0.020846,0.12269
0.035651,0.02941,0.26289,0.057329,0.049475,0.18294,0.32494,0.039919
0.01596,0.054084,-0.021135,-0.025086,-0.029375,0.002082,-0.28606,-0.054736
-0.027254,-0.21275,-0.3711,-0.028149,0.017262,-0.023291,-0.038548,0.1423
0.055194,-0.14825,0.265,-0.0073009,-0.02944,-0.06609,0.2424,-0.097043
-0.0017513,-0.034285,-0.21701,0.091355,0.056947,0.052497,-0.26722,-0.15722
-0.0025376,0.12256,0.39142,0.048333,0.0028241,-0.1211,0.10249,0.061927
-0.025435,-0.30777,-0.3882,-0.082249,-0.04352,0.10081,-0.33595,0.028167
0.069698,0.31895,0.62252,-0.011628,-0.004059,-0.24185,0.19285,0.022349
0.016545,0.092133,-0.49888,0.018059,0.011816,0.18042,0.13759,-0.0022609
-0.068407,-0.10292,-0.20526,-0.12559,-0.019267,0.025503,0.11963,-0.060719
-0.060679,0.26588,0.066865,0.042484,-0.019057,-0.04888,-0.20063,0.011847
0.039526,0.049107,0.092494,0.030931,0.036027,0.11451,0.01619,0.052234
0.068309,-0.24018,0.45934,0.14521,0.06798,0.015939,-0.0011262,0.16276
-0.16136,-0.23048,-0.65902,-0.10629,-0.040329,0.014266,0.23261,-0.14819
-0.00044452,0.19169,0.35595,0.0032198,-0.038908,-0.25106,0.044936,-0.083357
0.12976,0.015397,0.2083,0.043973,-0.0059524,0.16369,-0.57365,-0.0019003
0.042099,-0.11297,-0.046686,-0.046876,-0.0040687,0.045935,0.20255,0.049434
0.080364,0.0089453,-0.35393,-0.043248,0.029119,-0.058871,0.26927,0.0082171
-0.052554,-0.016796,0.060401,0.038738,0.015356,0.020256,0.037999,0.061989
-0.099219,0.24876,-0.38921,-0.020074,-0.02986,0.0018419,-0.28245,-0.047049
-0.075601,-0.11421,0.46951,-0.001201,0.026166,-0.11365,0.095554,-0.029847
-0.0053027,-0.033157,0.035114,0.0092855,-0.019788,-0.020479,0.022901,0.043247
0.041432,0.040928,0.24479,0.066039,0.011894,0.20459,-0.11753,-0.030956
0.080477,-0.038613,-0.41793,-0.065305,-0.011635,-0.13237,-0.028243,-0.01819
-0.044114,0.0029778,0.42854,-0.033179,-0.027871,-0.0068069,0.033918,-0.035817
0.042874,0.010257,-0.1624,0.013953,0.010096,0.11311,0.3747,0.079961
0.01334,-0.016485,-0.22298,0.060409,0.039826,-0.06952,-0.12209,0.0084564
0.038971,-0.093088,-0.050459,0.16082,0.045773,0.11656,-0.072709,0.10858
-0.12277,0.068817,-0.23052,-0.29419,-0.073529,-0.17339,-0.21068,-0.19051
0.019905,0.054047,0.26878,0.08611,-0.0054592,0.067367,-0.050733,-0.0065015
0.029157,-0.01387,0.26063,-0.026179,0.00013057,0.0098358,-0.045022,-0.0117
-0.040504,0.043078,-0.14541,0.002088,-0.017533,0.091142,0.57304,0.12171
-0.0093813,0.12946,0.018818,0.015014,0.027643,-0.094699,-0.25037,0.018588
0.083652,-0.30307,0.18932,0.075375,0.026395,-0.17179,-0.21783,-0.055443
-0.018913,0.088199,-0.23754,-0.051096,-0.036864,-0.1622,-0.0010178,-0.029896
-0.035485,-0.064396,0.23604,0.03395,0.033132,0.43556,-0.014328,-0.037251
-0.012645,0.043925,-0.41506,0.025572,0.01752,0.060269,0.35859,0.016718
0.049791,0.093424,0.066371,-0.060933,-0.02915,-0.084225,-0.055439,0.11698
-0.035645,0.069367,-0.029882,-0.030529,-0.036673,-0.013556,-0.31276,-0.048301
-0.0034608,-0.13661,0.17332,0.038548,0.041789,-0.22848,0.12388,-0.072164
0.0054497,-0.046979,-0.055137,0.013605,-0.028073,0.043065,0.065282,0.092966
0.037612,0.050008,0.4684,-0.08158,-0.011736,0.11182,-0.17749,-0.052269
0.022372,0.053373,-0.61919,0.019116,0.036307,0.093104,0.12899,-0.030785
0.014177,-0.0052586,0.013869,0.081834,-0.00095626,-0.04604,0.17965,-0.061014
-0.0964,0.022774,0.22959,-0.010215,0.0015669,0.029082,-0.23622,0.14613
-0.07481,-0.057666,-0.23648,-0.038133,-0.026477,-0.096152,0.085385,-0.073754
0.079315,0.089598,0.1854,-0.0099047,0.031905,0.008203,-0.096294,0.044214
-0.016358,-0.14442,0.078682,-0.0041543,-0.01894,-0.13336,0.18157,-0.016677
0.076125,0.01426,-0.23263,0.072114,0.015862,0.01988,-0.28982,0.062573
0.052384,-0.10559,0.58212,0.022713,-0.012597,0.12611,0.29638,-0.10218
-0.032802,0.2466,-0.17017,0.018693,0.020261,0.069933,-0.2767,0.097326
-0.10144,-0.11633,-0.48667,-0.18273,0.012585,0.016714,0.40633,-0.0036529
0.057112,0.10241,0.12913,0.0041177,-0.07479,-0.23612,-0.45867,-0.2177
-0.026259,-0.019629,-0.019421,0.07157,0.023873,0.24085,0.22957,0.17448
0.030907,-0.092853,0.084279,-0.0033367,-0.0036162,-0.0064066,0.032359,-0.021314
-0.029478,-0.0014776,0.068259,0.084778,0.03069,-0.041711,-0.14595,-0.092693
-0.020092,0.081047,-0.21932,-0.053953,0.0023012,-0.022649,0.33293,0.1572
0.043346,-0.057769,0.054562,-0.012592,0.0054536,-0.1065,-0.17401,-0.020262
0.012362,0.010417,0.011532,0.068757,0.009295,0.018785,-0.020332,-0.022577
-0.066175,-0.012247,0.50639,-0.14553,-0.064032,-0.021643,-0.27765,-0.052464
0.10462,-0.10284,-0.22488,0.079043,0.035599,0.077618,0.19432,0.053969
0.02479,0.21521,-0.34636,0.070538,0.042554,0.0050849,-0.13502,-0.032079
-0.11024,-0.13566,0.28126,-0.11654,-0.035469,0.035243,0.57953,0.12585
-0.019003,0.095634,0.15601,0.0019191,-0.02679,0.082959,-0.40228,-0.12189
0.033207,0.10602,-0.44288,0.12094,0.013658,-0.15608,-0.21119,-0.065565
-5.7408e-05,-0.19618,0.13149,-0.095708,-0.0081405,-0.0023092,0.13113,-0.026528
0.014469,-0.058574,-0.21544,0.023608,0.016918,-0.003242,-0.07732,0.10383
0.022483,-0.033364,0.024051,-0.029118,0.018265,0.058856,0.43709,0.15319
-0.069548,0.084838,0.67837,0.074109,0.026937,0.049923,-0.17024,-0.18326
0.10554,-0.014819,-0.54905,-0.1121,-0.050961,-0.054762,-0.24484,0.063418
-0.085339,0.019913,0.16206,0.060661,-0.0045381,-0.045353,0.20301,-0.14539
0.04477,0.25884,-0.001388,0.022049,-0.021218,0.022762,-0.11839,0.050367
-0.028268,-0.22164,-0.10302,-0.040454,0.024196,0.086947,0.046394,0.12026
0.015094,0.10703,0.10571,0.084074,0.030434,-0.039797,0.094227,0.041702
0.010108,-0.17251,0.021759,-0.065294,-0.017784,-0.090714,-0.022168,-0.082905
0.065663,0.045775,-0.027854,0.019325,0.0048837,-0.079812,-0.22368,-0.080984
-0.14654,0.032371,0.011145,-0.044727,-0.034087,0.19791,0.3358,-0.069207
0.014302,-0.0039231,-0.26702,0.0084293,0.029548,-0.068231,-0.34025,0.17144
0.056534,-0.11115,0.37341,0.015052,-0.0072877,-0.025231,0.088218,-0.0075
-0.0034408,-0.062931,-0.36238,0.022351,0.01936,-0.04729,-0.12474,-0.012628
0.03059,0.18041,0.020155,-0.10222,-0.039203,0.17028,0.30538,0.07732
-0.043647,0.034113,0.17163,0.071144,0.0041409,0.071983,0.036637,-0.19157
-0.038003,0.17934,0.35139,0.1205,0.055185,-0.14831,-0.32168,0.078294
0.016593,-0.24169,-0.43998,-0.079401,-0.011534,-0.10964,0.29862,0.081485
0.09664,-0.12584,0.14082,-0.04459,-0.032349,0.053276,-0.098534,-0.096595
-0.024867,0.14563,0.31117,0.068247,0.031547,0.03407,0.0052452,0.035991
-0.012716,0.027328,-0.49344,-0.077214,-0.046477,0.058058,0.026456,-0.020707
-0.047458,-0.057472,-0.36905,-0.090612,-0.039733,-0.11764,-0.070879,-0.078884
0.018529,0.0018372,0.57263,0.11387,0.083316,0.10842,0.48351,0.20569
-0.002858,-0.020323,0.024794,-0.0028453,-0.051956,-0.075879,-0.59259,-0.17425
0.036547,-0.060812,-0.053384,0.074921,0.039199,0.033334,-0.21955,0.047432
-0.074088,0.20091,0.14937,-0.051212,0.013326,-0.047323,0.020393,0.058643
0.0094259,0.053714,-0.05494,-0.021818,0.011226,0.18322,0.24176,-0.015338
0.029936,-0.16703,-0.0017766,0.038158,-0.013926,-0.21929,0.090634,0.0053394
-0.011835,-0.048094,-0.18179,-0.050871,-0.023103,0.058543,0.13417,-0.082348
0.033165,-0.020127,-0.38929,-0.038732,-0.031998,0.095619,-0.031027,0.1045
-0.0065691,0.087749,0.21489,0.051396,0.021834,-0.091855,-0.091816,-0.1215
0.025257,-0.05355,0.19666,0.016707,0.021193,0.027799,0.05183,0.028846
-0.051324,0.1957,0.15272,-0.048719,-0.010448,-0.029499,0.43585,0.07127
0.013152,-0.21222,0.29604,0.066345,-0.0027237,0.12706,-0.7092,-0.064535
0.0070886,0.073451,-0.083408,0.033972,0.0053534,-0.15091,0.089669,0.011888
0.00016518,-0.049616,-0.42323,-0.052006,0.029421,-0.027518,-0.18577,0.042335
0.02318,-0.02745,-0.39613,-0.15257,-0.055559,-0.07336,0.12732,-0.012864
0.0056662,0.14711,0.48892,0.17745,0.047195,0.33605,0.31813,0.033039
-0.067798,-0.065542,0.058799,0.015913,-0.014016,-0.22979,-0.057581,-0.047291
-0.016983,0.029548,-0.21118,-0.051536,-0.028411,0.10303,0.0095139,0.089255
0.018265,-0.25519,0.35745,-0.017419,0.0038517,-0.041771,-0.33855,-0.13581
0.015355,0.36183,-0.1819,0.03202,0.035763,-0.087397,0.29755,-0.034996
0.053135,-0.063862,0.04447,-0.03627,0.0047324,0.089987,-0.097623,0.087388
-0.055481,-0.007376,-0.13664,0.035388,-0.018962,0.020807,0.15508,-0.033629
0.025435,-0.044817,0.054808,-0.0030308,-0.0040425,-0.084333,-0.0078127,0.040243
0.014182,-0.11121,0.1412,-0.049895,-0.028545,0.10293,0.022048,0.020684
0.034952,-0.1883,-0.42517,0.01992,0.024845,-0.13533,-0.076251,-0.052707
-0.046061,-0.070572,0.19889,-0.020021,-0.0077971,0.061564,-0.1775,0.039049
0.035806,0.58739,0.083324,0.033489,-0.016985,-0.015709,-0.014866,-0.040075
-0.087342,-0.042011,0.44679,0.11016,0.091091,0.048637,-0.039402,0.061136
0.021693,-0.092337,-0.34331,-0.079115,-0.050756,-0.025067,0.071756,0.021902
-0.0041061,-0.065536,-0.11444,-0.049992,-0.0050606,0.061278,0.32886,0.013678
-0.023534,-0.026874,-0.19355,-0.029014,-0.029674,-0.082239,-0.31326,-0.11219
0.042378,-0.096604,0.12422,0.015207,0.0082233,-0.088311,0.12249,-0.027505
-0.00079064,-0.058841,-0.20593,0.098568,0.038397,0.24572,0.041499,0.0024783
0.011755,0.11537,0.59158,-0.012919,0.0063192,-0.12016,-0.042733,-0.013892
0.017929,-0.052076,-0.083018,-0.084451,-0.04092,0.015867,0.062136,0.095775
0.025573,0.023941,-0.33795,-0.037523,-0.056227,-0.035154,0.13413,0.011455
-0.020325,0.030724,-0.0010319,-0.043787,0.0074236,-0.06367,-0.39208,0.02993
0.012495,0.077911,0.18498,0.17798,0.087546,0.02292,-0.041842,-0.036805
-0.079714,0.15831,4.7967e-05,0.072779,0.058967,0.098828,0.090474,-0.0020744
0.015019,-0.36773,0.16113,-0.08654,-0.04742,-0.0081737,0.18522,0.062867
-0.008318,0.45423,-0.24778,-0.027272,-0.068032,0.03013,0.0019684,-0.092786
-0.024808,-0.46783,-0.087895,-0.086084,0.020062,-0.15295,-0.097421,-0.071043
0.043802,-0.092814,-0.0091115,0.0020831,0.0055126,0.10745,0.17105,0.050022
0.088405,0.14394,-0.20771,0.049437,-0.0025339,-0.25016,-0.14319,-0.0024704
-0.039108,0.064683,0.80802,0.0091201,-0.011883,0.33773,-0.23344,-0.0010102
-0.033719,0.17073,-0.48535,0.014235,0.0011424,-0.088951,0.29205,0.071155
0.011127,-0.014076,0.014168,0.010581,0.021339,0.056307,-0.14478,-0.034905
-0.060551,0.048645,-0.036336,0.022187,0.0023565,-0.069999,-0.0058995,-0.021516
0.071786,-0.33809,0.33317,0.03404,0.022858,0.063303,0.43322,0.1039
-0.068262,0.14366,-0.71938,-0.17986,-0.04169,-0.22381,-0.38479,-0.088384
0.011553,0.014621,0.50327,0.03717,-0.011272,0.091581,0.091953,-0.0050738
0.045519,0.014428,-0.16876,0.052585,0.028325,0.0010444,0.079774,0.0015531
0.002124,0.12545,0.18811,0.046098,-0.0088823,0.089844,-0.14157,0.0087818
0.029374,0.11222,0.051498,0.048731,0.017502,0.13076,-0.26765,0.00017347
-0.013911,-0.48621,-0.57064,-0.072792,-0.010089,-0.15018,0.21033,0.029745
-0.065818,0.09691,0.56293,-0.022207,0.0016251,0.051399,-0.049413,-0.067027
0.005951,0.027702,-0.088887,-0.0032924,0.013095,-0.21759,0.17435,-0.02475
0.052618,0.12914,0.088246,0.014636,-0.030802,0.15267,0.21996,0.047159
0.0037728,0.11497,0.044178,0.007762,-0.0053843,-0.055782,-0.36391,0.047225
-0.046666,0.065859,-0.31015,-0.00060802,0.011055,0.119,0.056441,0.05372
-0.027972,-0.11777,-0.10994,-0.04941,-0.0049273,-0.13449,-0.097288,-0.11288
0.013567,-0.15345,0.28428,0.06483,0.024931,-0.0029834,0.17377,-0.054011
0.062997,0.045223,0.068187,-0.016763,0.0071306,0.11541,0.21156,0.12109
0.050657,-0.076791,0.095248,0.034499,-0.011136,0.079883,-0.32979,-0.048376
-0.093225,-0.012764,-0.27192,-0.085536,-0.029525,-0.11802,0.11811,0.015871
-0.0010991,0.24333,-0.52922,0.037617,-0.016462,0.051984,-0.055452,0.0015654
-0.032192,-0.037451,0.67921,0.02921,0.051761,-0.059572,-0.22594,0.010592
0.024349,-0.10006,-0.049109,-0.024768,0.011265,-0.00041586,0.40407,-0.019117
0.01196,0.14641,0.077441,0.00053609,-0.044122,-0.11478,-0.24997,-0.024527
0.06295,0.11351,0.19257,0.05013,0.041829,0.12855,0.10302,0.010576
-0.010806,-0.46616,-0.53275,-0.040436,-0.027859,-0.01225,-0.058223,-0.014794
-0.045887,0.086302,0.1724,0.0018864,0.0044716,-0.075614,-0.028666,0.0013754
0.027491,0.14626,0.09341,-0.0028981,-0.0019729,0.071958,0.021106,0.0515
-0.025353,-0.14428,0.22602,-0.015903,-0.016101,0.11854,0.17744,-0.052002
-0.040367,0.30278,-0.44964,-0.02935,0.0088324,-0.0058403,-0.13052,0.11232
0.013982,0.013395,-0.03882,0.0037033,0.010228,-0.058926,0.0959,-0.1047
0.021007,-0.26773,0.29944,0.036487,0.0036403,-0.26745,-0.074798,-0.0087091
-0.049958,-0.015005,-0.25683,-0.0090543,-0.010974,0.17292,-0.042928,0.055499
0.075041,0.14809,0.1981,0.085816,0.044491,0.08205,0.0024904,-0.038064
0.021315,-0.074605,0.36796,-0.0071211,-0.033076,0.053209,0.12311,0.045737
0.023277,0.051131,-0.40188,0.0088825,-0.0014372,-0.085923,-0.29049,-0.084233
-0.059924,-0.13193,-0.17925,-0.21001,-0.055823,0.047146,0.12177,0.0093479
-0.017769,0.26525,0.22657,0.062751,0.038234,0.030426,-0.03732,0.068824
0.00082295,-0.040458,-0.38393,0.038223,-0.0082561,-0.22187,0.11639,-0.069427
0.026681,-0.050788,0.55546,0.068138,0.054719,0.10317,0.037147,0.063993
-0.010769,-0.063763,-0.069099,0.043296,0.0083375,-0.032934,0.07716,0.047985
-0.033462,-0.048339,-0.13,-0.083058,-0.061617,0.081385,0.080223,-0.093191
0.029049,0.027628,-0.078824,-0.014021,0.02434,0.040365,-0.32132,-0.069669
-0.026094,-0.0058257,-0.13402,0.008171,0.0081912,0.01611,-0.057972,0.1271
0.027978,-0.052384,0.14094,0.014672,-0.0086419,-0.022717,0.2131,0.02896
0.019651,-0.11719,0.43139,0.044448,-0.018386,-0.053051,-0.10269,-0.090209
0.011564,0.16129,-0.3204,-0.066621,-0.020954,-0.075443,0.07209,-0.0036337
-0.035345,0.1591,-0.3211,-0.052911,0.03854,0.12826,-0.075475,-0.01604
0.0037944,0.14155,0.28512,0.038758,0.0041289,-0.044038,0.071622,0.059762
0.027224,-0.17439,0.3312,0.11473,0.0089381,-0.022373,0.42754,0.012246
-0.019934,-0.010363,-0.52088,-0.082696,-0.0092328,0.013421,-0.69482,-0.034414
-0.044048,-0.26831,0.071779,0.0012616,-0.0032612,0.016557,0.1427,-0.026523
0.033009,0.087319,0.00026241,-0.0083101,-0.027663,-0.036107,0.01134,0.042696
0.023872,0.12386,0.19587,-0.001961,0.034835,0.02778,0.068339,0.047315
-0.016534,0.018931,-0.18268,0.012567,-0.0032749,0.13851,0.2365,0.096052
-0.048859,-0.056581,0.2113,-0.019346,-0.0092746,-0.11728,-0.17103,-0.25667
0.05216,0.069346,-0.11148,0.058604,-0.0067791,-0.098271,-0.044586,0.036247
-0.0023635,-0.086497,-0.10161,-0.089492,-0.0038492,-0.046001,-0.056228,-0.071442
-0.0014519,0.0091276,0.21929,0.020722,0.014837,0.039982,0.027835,0.13997
0.031346,0.046279,-0.35879,0.037604,0.0098829,0.24576,0.16761,0.09341
-0.0057695,0.0043556,0.52343,0.015697,-0.0034191,-0.21797,-0.20836,-0.046099
0.0040817,-0.035692,-0.51003,0.017304,-0.0097368,0.14034,-0.077894,-0.051292
-0.11129,0.04586,0.40623,-0.043727,0.014157,-0.00056752,0.36254,-0.0077305
0.085354,-0.10835,-0.41763,-0.058218,-0.041202,-0.1105,-0.13797,0.069024
-0.007738,0.096743,0.28149,0.028381,0.01955,0.036151,0.076366,-0.10246
-0.015677,0.0053817,0.16524,0.051947,0.032553,-0.092547,-0.39275,0.039967
0.014598,-0.070282,-0.21365,-0.010932,-0.0096741,0.073451,0.27578,-0.027546
-0.0028889,-0.029823,-0.14544,0.011722,-0.036393,-0.051659,-0.10414,-0.0085781
0.01777,0.25779,0.25242,-0.051803,0.0075464,0.087267,0.1568,0.065167
0.06876,-0.15496,-0.11316,0.095579,0.036643,0.0064866,-0.056636,-0.056748
-0.07642,-0.090713,-0.24854,-0.1084,-0.042517,-0.027724,-0.094222,0.070592
-0.050403,0.065495,0.19194,-0.069766,-0.034447,-0.038251,0.11564,0.0093753
0.045579,-0.039738,-0.016278,0.17258,0.10769,0.15498,0.0032278,0.025075
-0.03799,0.014133,0.18323,-0.021923,-0.030399,-0.12752,-0.080166,-0.054111
0.03542,-0.039285,0.14325,-0.067401,-0.019467,-0.05758,-0.065333,-0.16535
0.039864,0.11227,-0.10427,0.020327,-0.0084825,0.05225,0.25683,0.10599
0.0071199,-0.062234,0.15973,0.069095,0.0098237,-0.040357,-0.23319,0.02622
-0.13279,0.015872,-0.7053,-0.093301,-0.0040597,0.094095,0.16527,0.017887
0.065498,0.03491,0.074038,0.04066,0.0042885,-0.013386,-0.073512,0.081446
0.039204,-0.011902,0.11473,-0.029222,-0.012038,-0.050578,0.095695,-0.095479
0.029909,-0.068651,0.32244,0.017304,0.0018552,0.068169,-0.23413,-0.020971
-0.033559,0.084808,0.0083896,-0.014995,-0.016123,-0.048031,0.085721,0.062157
-0.011552,-0.07343,-0.14977,-0.00092017,0.012678,-0.024363,-0.060616,-0.0579
0.055947,0.075406,0.28281,0.028551,0.0028578,0.0062863,0.11025,0.063226
-0.073923,-0.037499,-0.063866,0.050273,0.032986,0.012717,0.10098,-0.020608
0.0048104,-0.11405,-0.11392,-0.052676,-0.021676,0.041977,-0.085708,0.05724
0.026717,-0.05979,0.030125,-0.01448,-0.020475,-0.03067,-0.15049,-0.14868
