-0.010356,-0.042559,0.00030356,-0.073908,-0.040619,-0.01469,0.012583,-0.0029061
0.01887,0.061438,0.21401,0.070076,0.013035,0.0085322,-0.011207,0.003962
-0.045446,-0.075491,0.0036014,-0.081541,-0.042942,-0.038636,-0.011941,-0.036262
0.00017409,-0.007205,-0.30118,-0.067177,0.018374,0.054939,0.010559,0.0094277
0.030992,0.048048,0.050097,0.074482,0.048855,0.015969,0.01741,0.024021
0.00025052,0.0044168,0.11122,0.038753,-0.037248,-0.053918,-0.006875,-0.00017445
0.0016552,-0.021256,0.020723,-0.010715,0.017897,0.024938,-0.0075347,-0.00061971
0.0037526,0.0093612,0.18968,0.058101,0.0031964,-0.0053929,0.023246,-0.00080093
-0.025031,0.0093326,-0.15085,-0.037085,-0.011327,0.011171,-0.0083335,-0.00083657
0.016483,-0.0068276,-0.050748,-0.031715,0.020854,0.0041407,-0.024223,-0.00087737
0.0029239,-0.0011016,0.15191,0.05772,-0.0099484,-0.010996,0.022391,0.006754
-0.0034986,-0.0055528,-0.58273,-0.073915,-0.01017,-0.01086,-0.016947,-0.0092664
-0.018563,-0.051887,0.33969,-0.043722,-0.018871,-0.003222,-0.001575,-0.017671
0.020243,0.039555,-0.024246,0.00047255,-0.0045964,0.004242,0.0060916,0.012908
-0.011907,-0.004266,0.13281,0.020599,0.0095811,0.0039198,-0.0016492,-0.0032722
0.0024784,0.043978,0.20436,0.049037,0.00066197,0.0038385,0.014364,0.012143
0.0090856,0.068128,-0.088374,0.032081,0.0081039,-0.0036414,-0.016128,-0.010953
-0.022964,-0.13379,-0.36867,-0.068751,-0.006915,0.0050003,0.00060192,-0.0021221
0.0081829,-0.037243,0.051642,-0.0034336,0.018112,0.0062878,0.0332,0.015199
0.032361,0.053974,0.33625,0.16499,0.043873,5.844e-05,-0.027889,0.0096132
-0.036403,-0.086216,-0.26614,-0.11919,-0.039474,-0.021764,-0.018832,-0.034783
0.0126,0.12809,0.36752,-0.0056234,-0.0059539,0.034252,0.036696,0.030072
0.0071168,0.032226,-0.24149,-0.018942,-0.012395,-0.019707,-0.017758,0.00065302
0.0091802,8.0067e-05,-0.18111,-0.027187,-0.0045558,0.0036121,0.0051744,-0.0062061
0.018333,0.092756,0.17229,0.031805,-0.013903,-0.013109,-0.01172,0.0014558
-0.020462,-0.066136,-0.064614,-0.013582,0.022119,-0.0073575,0.0019577,-0.015468
-0.052677,-0.21203,0.022707,-0.021906,-0.0055461,0.021028,0.015155,-0.0021266
0.023327,0.060843,0.0215,0.06274,0.012995,-0.01361,-0.018724,-0.0050469
0.0047233,-0.052036,-0.011656,-0.062923,0.0080605,0.021896,0.017832,0.015311
-0.014272,0.051632,0.026884,0.094647,-0.011894,-0.043955,-0.046736,-0.03429
0.052807,0.15415,0.068667,0.044348,0.016192,0.054799,0.069082,0.057532
-0.035744,-0.024658,-0.23663,-0.21316,-0.047907,-0.033146,-0.0408,-0.029246
0.032915,-0.01523,-0.0058579,0.080064,0.03037,0.04393,0.037718,0.033569
-0.037955,-0.098408,0.21341,0.025184,-0.022469,-0.049859,-0.04702,-0.035435
0.0093793,0.06953,0.08356,0.04319,0.019852,-0.0098626,-0.0061575,-0.0022412
0.018401,-0.027394,0.15693,0.062536,0.055298,0.046627,0.042832,0.03111
-0.011273,0.047829,-0.31904,-0.074413,-0.0339,-0.028969,0.0058803,-0.014006
0.021514,0.060428,-0.11218,-0.033037,0.001671,0.021009,-0.0079364,0.010436
-0.00076423,-0.020945,0.24491,0.013748,-0.01035,-0.01452,-0.030093,-0.020808
-0.031425,-0.14128,-0.14637,-0.020607,-0.054643,-0.010683,0.0096098,-0.014007
-0.039228,-0.049868,-0.32406,-0.097185,-0.0062966,-0.022275,-0.021627,-0.015839
-0.00057833,-0.11293,0.23728,0.07334,0.025416,0.059982,0.024765,0.01313
0.030106,0.19388,-0.084833,0.022755,0.025094,-0.014011,0.0083692,0.010845
0.05312,0.17576,0.61843,0.072014,0.032059,-0.0099914,-0.015886,0.016791
-0.0016125,-0.050215,0.13064,0.10456,0.015292,-0.0062142,0.014723,0.023464
-0.0011521,0.038573,-0.32756,-0.11341,-0.025035,-0.018449,0.022238,-0.0080523
-0.031431,-0.13738,-0.5046,-0.057944,-0.010668,0.023463,-0.016679,-0.0074683
-0.0066018,0.053095,-0.05556,-0.064458,-0.011792,0.025626,-0.016065,-0.013995
-0.012747,-0.055572,-0.057794,0.016038,-0.028243,-0.0042805,-0.015014,-0.02004
-0.0031571,-0.058191,0.23869,0.035651,-0.0051264,-0.050734,0.0098285,-0.0023974
-0.0092527,-0.087988,0.44988,0.010443,0.010892,0.019009,-0.0041647,-0.00034383
0.015661,0.050581,-0.0049641,-0.012516,0.0043299,-0.013839,0.020965,0.0093732
0.032324,0.19418,0.018518,0.08381,0.022055,-0.00084952,-0.0087323,0.010961
0.040521,0.07036,-0.2972,0.025456,0.040415,0.073612,0.039337,0.03551
-0.030264,-0.093318,0.058312,0.0068957,-0.011327,-0.040423,-0.030343,-0.018698
-0.039548,-0.1632,-0.40379,-0.090049,-0.016564,0.0086778,-0.0069828,-0.011163
-0.03423,-0.052765,0.19637,-0.13352,-0.022792,-0.013328,-0.015632,-0.012256
0.056141,0.19925,0.36571,0.18045,0.024145,0.010971,0.014093,0.017135
-0.025937,0.03826,-0.14453,-0.10948,-0.055754,-0.066549,-0.011364,-0.032184
0.0012341,-0.027946,-0.23743,0.0044627,0.0031139,-0.018941,-0.0057805,-0.0036505
0.060053,-0.0071997,0.25559,0.16321,0.076036,0.12294,0.054605,0.06408
-0.067718,-0.032218,-0.18369,-0.054593,-0.031751,-0.039006,-0.056472,-0.062927
0.024586,-0.048036,0.066956,0.070506,-0.030474,-0.0045741,0.012764,0.021973
-0.029988,-0.14798,-0.17581,-0.28106,-0.013142,-0.023718,0.012401,-0.0090709
0.034195,0.098048,0.21566,0.063285,0.013072,0.012815,0.0048812,0.023716
-0.0096729,-0.020698,0.1797,0.065069,0.032963,0.0032145,-0.0021691,-0.0047952
0.025436,0.22207,-0.065878,0.13872,0.046671,0.040922,0.006603,-0.0011917
-0.032989,0.0051758,0.03915,-0.035987,-0.063139,-0.069662,-0.039409,-0.036285
0.01748,-0.079009,-0.14098,-0.037303,0.023483,0.022845,0.039237,0.045598
0.027781,-0.00090022,-0.06998,-0.045212,0.0091942,0.02936,0.015848,0.025163
-0.0025112,0.019196,-0.031034,-0.036586,-0.043936,-0.034317,-0.031426,-0.012053
-0.018829,-0.090064,-0.032572,0.11337,0.035688,0.027469,0.022601,0.027536
-0.075632,-0.016368,0.051139,-0.040656,-0.056684,-0.09733,-0.11082,-0.15282
0.0073111,-0.12614,-0.082817,-0.12349,-0.016211,0.068304,0.068665,0.033184
0.035437,0.082225,0.052153,0.029228,0.040212,0.0169,0.030122,0.039239
0.025155,0.12641,0.23928,0.10526,0.019155,0.014204,0.00026857,0.014348
0.00053578,-0.077432,-0.090618,-0.02816,0.022389,0.0053627,0.025919,0.044883
0.04785,0.12853,0.10143,0.058384,0.0030446,-0.0022686,0.020853,0.037273
-0.051704,-0.090868,-0.22501,-0.088913,-0.023501,-0.025005,-0.070071,-0.071103
-0.0016768,0.0063001,0.1073,0.036742,-0.026474,-0.016786,0.0026255,0.0084478
0.0019104,-0.02647,-0.13912,-0.042422,0.0013178,0.02158,0.02753,0.033224
-0.018347,0.051134,0.13412,0.11774,0.03579,-0.019954,-0.073811,-0.11448
0.038313,0.088526,0.041445,-0.038338,0.013903,0.022238,0.050043,0.057145
-0.00058062,-0.11937,-0.17689,-0.034405,-0.0021509,0.023016,0.024182,0.0088402
-0.025914,-0.0035606,0.11114,0.020531,-0.035802,-0.033075,-0.010495,-0.0015365
-0.006305,-0.072258,0.10904,-0.19275,-0.055446,-0.020583,0.0089124,0.026258
-0.019364,-0.020151,-0.43951,0.093033,0.048947,0.014269,-0.010887,-0.0011441
-0.0017868,0.044894,0.40528,0.043894,-0.010837,-0.0058943,-0.014755,-0.028612
0.031745,0.078065,-0.04133,0.02105,0.016083,0.005584,-0.0023005,-0.0010252
-0.027248,-0.16845,-0.19065,0.080549,0.036699,0.025843,0.0033167,0.00385
0.048477,0.22907,0.3504,-0.081707,-0.02665,-0.0072668,-0.0055739,-0.0059333
0.0014438,-0.04068,-0.28349,0.01054,0.0058271,0.015718,0.049149,0.040039
0.011287,0.01487,0.30733,0.067089,0.024495,0.0087083,0.003294,-0.014514
-0.016146,0.082816,-0.28286,-0.093493,-0.041514,-0.059869,-0.041793,0.049023
-0.019004,-0.21281,-0.10097,0.081474,0.033634,0.043954,0.030829,-0.089858
-0.021474,0.017396,0.03997,-0.12866,-0.047695,-0.039593,-0.083759,-0.0094947
0.03043,-0.00121,0.037428,0.055923,0.018532,0.025112,0.043946,0.00084657
-0.027896,-0.0039694,0.24946,0.025084,-0.0025126,-0.019946,-0.015887,0.019096
0.0063567,0.024088,-0.098998,-0.08051,-0.025093,0.0048343,0.041305,0.052871
0.008106,0.05915,-0.0019241,0.099306,0.044589,0.029138,0.012264,-0.0074155
0.00090117,-0.008359,-0.19547,-0.090349,-0.01978,-0.017305,-0.0016071,-0.0057279
0.00060837,-0.084834,-0.032756,0.070971,0.032185,0.0061835,-0.00047837,-0.012567
0.015337,0.14986,0.43044,0.077176,-0.025638,-0.0019218,-0.023558,-0.0046066
0.014129,-0.046713,-0.2908,-0.14839,0.0024924,0.020899,-0.00060377,-0.020896
-0.010587,-0.0029729,-0.032285,-0.026631,-0.023693,-0.026899,-0.01751,0.0090348
-0.035196,-0.14889,-0.20741,0.059964,0.021052,0.0031557,0.019643,-0.016092
0.0029123,0.1169,0.46619,0.04071,-0.0037796,-0.037302,-0.052935,-0.0099811
0.017845,-0.0025547,-0.24455,0.047429,0.011174,0.04716,0.061957,0.043341
-0.013845,-0.077494,-0.088408,0.07091,0.02673,0.014512,0.02088,0.011323
0.048408,0.20479,0.31056,-0.077854,-0.035425,-0.025688,-0.0040503,0.011271
-0.045497,-0.14755,-0.30499,-0.14233,-0.011435,-0.01077,-0.036136,-0.03498
0.0011884,-0.040341,0.11962,0.0017177,0.0047731,0.0047143,0.018401,0.0052116
0.0086408,0.058172,0.037056,0.06512,0.0052761,-0.018235,-0.020189,0.030046
0.0079889,0.031382,0.016914,0.048416,0.02129,0.060979,0.027659,-0.054463
-0.0086636,-0.026334,-0.09781,-0.10209,-0.033089,-0.031213,-0.025699,0.0093209
-0.00228,-0.012754,0.12205,-0.018063,-0.0015374,-0.013781,-0.0085396,-0.013065
0.011562,0.010276,-0.13607,0.090535,0.0066425,0.027055,0.039931,0.019
0.0017387,0.019926,0.11273,0.052363,0.0071145,-0.034,-0.044488,0.019625
-0.015925,-0.061432,-0.16947,0.0080049,0.015484,0.0059236,0.0036879,-0.026764
0.0056979,0.00089156,0.065794,0.019384,0.023862,0.052908,0.051505,0.043909
-0.019064,0.019446,0.11719,0.12465,-0.014738,-0.041524,-0.033984,-0.041832
-0.0040411,0.025213,-0.18553,-0.37249,-0.037916,-0.011649,0.067424,0.051867
0.035292,-0.021481,0.080568,0.081937,0.016771,0.0021346,-0.10526,-0.05009
0.013019,0.12065,0.2829,0.065747,-0.038161,-0.015487,0.026129,0.019415
-0.031917,-0.10417,-0.40751,-0.084967,0.016118,0.0061247,-0.0070299,-0.052117
0.0017917,-0.0095502,0.11681,0.075607,3.0374e-05,-0.010891,0.0064254,0.063521
0.02005,-0.018288,-0.16255,0.063735,0.038669,0.07423,0.051146,-0.024135
-0.016575,0.0018188,0.31358,0.028425,0.014885,-0.019782,-0.028833,-0.018008
0.024407,0.066212,0.32314,0.016921,0.0067802,0.0037883,-0.014522,0.035233
-0.0056534,-0.012357,-0.18346,-0.0097032,-0.024778,-0.011551,-0.022947,-0.02051
-0.059934,-0.17859,-0.52023,-0.09835,-0.032985,-0.03479,0.063129,0.025764
0.033548,0.1777,0.016073,-0.04596,-0.025679,-0.027027,-0.061046,-0.02911
0.0015926,-0.036401,0.099084,0.022469,0.044055,0.042956,0.041854,0.025659
-0.0070644,0.078188,0.18507,0.083625,-0.018996,-0.027866,-0.034673,-0.044519
0.031292,-0.079777,-0.0033888,-0.05759,0.035299,0.065389,0.060651,0.064799
-0.0081583,-0.026009,-0.048502,0.020928,-0.0038874,-0.020797,-0.00056161,-0.021606
-0.031633,-0.042238,-0.0099501,-0.0010114,-0.011496,-0.044036,-0.062239,-0.030436
0.038872,0.15202,0.035508,-0.021918,0.0046441,0.027041,-0.015062,-0.0085869
0.0078073,0.0090341,0.025069,-0.0030416,-0.018049,-0.0028653,0.02386,0.028429
-0.015732,-0.081297,0.089761,0.14103,0.037487,0.022398,0.0078482,-0.0050826
0.014904,0.029127,0.10966,-0.027822,-0.016372,0.016716,0.015284,0.024034
-0.0019274,-0.018836,-0.09004,-0.13518,-0.015653,-0.02012,0.022984,-0.0010141
-0.050476,-0.083666,-0.1132,0.068602,0.00055173,-0.025805,-0.03917,-0.040776
0.0024035,0.04705,-0.24996,0.060071,0.016659,-0.023911,-0.022657,-0.008996
-0.022496,-0.054552,-0.085829,-0.28543,-0.060993,0.0011204,0.033419,0.00075842
0.023779,-0.019475,0.091898,0.14209,0.041128,0.025839,0.011708,0.027544
0.063511,0.14585,0.34824,0.062076,0.034016,0.034622,0.005708,0.032073
-0.012498,-0.0032988,-0.048659,0.029748,-0.012039,-0.011614,-0.023943,-0.0017129
-0.01688,-0.022016,-0.034454,0.07657,0.0044161,-0.0035573,-0.0072167,-0.027529
0.003058,0.010154,0.055588,-0.05547,-0.010551,0.0039997,0.0087904,0.00084746
-0.015844,-0.010562,-0.091598,-0.054416,-0.010268,-0.020304,0.0083389,-0.0031193
0.027225,0.053859,0.20213,0.071203,0.012908,-0.0062327,-0.032001,-0.016433
-0.0012292,-0.01783,-0.11994,-0.10113,-0.0035949,0.0071482,0.028521,0.015391
-0.023549,-0.12597,-0.30969,-0.02491,-0.03629,-0.003507,0.0026189,-0.016961
-0.024258,0.048822,0.28782,0.13588,0.032188,0.0010487,-0.023502,0.019639
0.0046628,-0.047944,-0.25757,-0.17296,-0.016637,0.013257,0.051998,0.0085047
0.0090355,0.053756,-0.00023748,0.057224,0.012863,-0.0056574,-0.044068,-0.010698
-0.0026231,-0.073716,-0.0097393,0.053962,0.01942,-0.00073124,0.00099687,-0.029557
0.017301,0.095454,0.47252,-0.025651,-0.012379,-0.0029867,0.007628,0.046176
0.0069196,-0.0068531,-0.014011,0.076709,0.019126,0.026788,0.014928,0.0058821
-0.017792,-0.0040747,-0.28982,-0.052994,-0.018911,-0.028543,-0.024022,-0.033161
0.02131,0.026285,-0.027529,-0.032442,-0.03289,-0.02059,-0.015599,-0.0086023
-0.001081,-0.0099317,-0.001639,-0.0031853,-0.0074324,0.0036241,0.032195,0.024506
0.016042,0.042221,0.10714,0.05704,0.057159,0.028246,0.0019377,-0.0046634
-0.006108,0.0090075,-0.02993,0.108,-0.0034975,0.013935,0.0027624,0.0048791
0.0099874,0.068153,0.11842,-0.11682,0.021251,0.022905,0.011028,0.036986
-0.053256,-0.20381,-0.22046,-0.086605,-0.025051,-0.023207,0.0031805,0.0053573
-0.016235,-0.010831,-0.068566,-0.012093,-0.033112,-0.046415,-0.067653,-0.097928
0.0041114,-0.016891,0.075902,-0.0097285,-0.041942,-0.0311,0.017418,0.024187
0.00049639,-0.010068,-0.082181,0.046629,0.042388,0.030679,0.016455,-0.0028381
0.05953,0.13624,0.20842,0.064491,0.032636,0.053213,0.015706,0.01695
-0.029059,-0.068326,-0.020645,0.037135,0.015016,0.0055208,0.0076516,0.021743
0.032116,0.15914,0.20659,-0.026935,-0.0024185,-0.018398,-0.015316,0.0043147
-0.006684,-0.016147,-0.095643,0.0052719,-0.027307,-0.018364,-0.0062664,-0.011552
-0.012672,-0.054625,-0.030668,-0.038428,-0.012681,-0.025547,-0.020009,-0.025833
-0.033007,-0.14398,-0.20948,0.020979,0.0024277,0.006899,0.021294,0.015849
0.033399,0.050961,-0.070546,-0.067362,0.018,0.047595,0.039109,0.042598
-0.0093323,0.0055899,0.13608,0.0081974,0.0027364,0.0025833,0.025174,0.045868
-0.0055127,0.038814,-0.15905,0.067269,-0.012184,-0.019012,-0.059963,-0.06881
0.01313,0.071052,0.17833,-0.11718,-0.034669,-0.0096235,-0.013408,-0.044167
-0.024054,-0.063096,0.079526,0.11089,0.044538,-0.024135,-0.030484,-0.028881
0.0077692,-0.013121,0.014572,0.087432,-0.0012729,0.01547,0.014041,0.024029
0.014854,0.0015995,-0.054977,-0.10922,0.030854,0.031063,0.042466,0.036856
-0.026083,-0.019027,0.0035192,-0.072485,-0.054565,-0.03195,-0.0071874,0.01803
0.04148,0.050489,0.06421,-0.020722,0.015767,0.014102,-0.0094084,0.007288
-0.0086623,-0.015373,-0.038201,0.11676,0.01521,-0.0024431,0.0049406,-0.026035
-0.0042338,-0.0041892,-0.054959,0.0043229,-0.017158,-0.011054,0.012616,-0.011235
-0.0073169,-0.07047,-0.21353,0.0093661,-0.0109,0.011895,-0.0020313,0.012764
-0.033139,-0.0093368,0.22013,-0.024252,0.0029606,-0.0037711,0.007654,0.0067887
0.028012,0.079141,0.082217,0.0676,0.040345,0.027952,-0.013366,0.017395
0.01231,0.047512,-0.024938,-0.089984,-0.031238,-0.017937,-0.018612,-0.033983
-0.02547,-0.033616,-0.22535,-0.090597,-0.016191,-0.024308,-0.0006299,0.008435
0.016143,-0.04752,0.067821,0.05035,0.0075522,0.016548,0.016887,0.011439
0.011871,0.051501,0.050378,0.0049245,0.0087883,-0.0048794,0.010381,0.021647
-0.0074793,-0.019513,0.073758,-0.0002575,-0.0047984,-0.010627,-0.027946,-0.086025
0.012226,0.034323,0.23091,0.089294,0.021179,0.0069355,0.003584,0.024441
9.3365e-05,-0.054586,-0.18263,0.015272,0.0081631,0.03198,0.0035705,0.025104
-0.020956,0.016791,-0.10593,0.011312,0.0025397,-0.021638,-0.0043971,-0.013517
-0.0044092,-0.010464,-0.0091023,0.05315,-0.011762,0.0099541,0.018834,0.049354
-0.012916,-0.043006,-0.033608,-0.2271,-0.035042,-0.014005,0.01077,-0.0050002
0.023926,0.067936,0.00019149,0.037413,0.010746,0.0080038,0.010397,-0.01261
-0.0029434,-0.020391,0.053986,-0.059455,-0.014848,-0.01769,-0.029276,-0.028351
0.0007076,0.0060134,-0.066154,0.17822,0.037019,0.018506,0.0088422,0.017876
0.01202,-0.0073284,0.055552,-0.0063979,-0.0049673,-0.00025648,-0.015896,0.00091497
-0.0074816,0.0038742,0.20987,-0.034029,-0.015196,-0.011053,0.013789,0.037919
-0.033846,-0.05257,-0.078397,-0.052005,-0.0087526,-0.029065,-0.05814,-0.10536
0.034856,0.066644,-0.24589,0.010829,0.014723,0.024216,0.049858,0.040105
0.019112,0.041732,0.12948,0.037696,0.024088,0.031851,0.025592,0.037191
-0.04206,-0.049291,0.00042115,0.044096,-0.004263,-0.021736,-0.036939,-0.035581
-0.00047531,-0.035268,-0.087174,-0.11908,-0.03169,-0.011712,0.0030077,0.0096057
0.041881,0.043542,0.20125,0.031385,0.034964,0.038115,0.043824,0.047922
-0.0092615,-0.040906,-0.057789,0.06433,0.0075426,-0.0055752,-0.0084489,-0.014397
0.0018109,0.04579,-0.11582,0.017247,-0.028609,-0.026146,-0.021332,-0.013481
-0.011295,0.052277,0.24472,-0.0018736,-0.011413,0.0071669,-0.018651,-0.01214
-0.025442,-0.092712,-0.28142,-0.06426,-0.019167,-0.015338,-0.0007742,-0.0029104
0.0061521,0.0088626,0.24355,0.17362,0.034157,0.015614,0.024201,0.006085
0.005478,0.021289,-0.2339,-0.28765,-0.015178,-0.017024,-0.022007,-0.016606
0.0197,5.8942e-05,0.15536,0.068918,0.028625,0.019912,0.040275,0.046138
-0.028917,-0.10048,-0.21132,-0.075103,-0.021391,-0.029336,-0.046652,-0.07124
0.016278,0.04139,-0.019174,0.071384,0.0071509,0.023259,0.022117,0.045488
0.0071724,0.036317,0.1475,0.088243,-0.0025602,0.0062799,-0.010959,-0.025346
-0.001361,0.033624,-0.10146,0.046829,0.012176,-0.0018487,0.034088,0.060195
-0.001496,0.033613,0.34237,0.017571,-0.011133,0.0067672,-0.022188,-0.033708
0.014431,0.028141,0.07037,-0.015964,-0.0023413,-0.014897,-0.031184,-0.010159
-0.024157,-0.12428,-0.23326,-0.024031,0.01482,0.010934,0.014978,-0.0098547
0.023054,0.083005,-0.11111,-0.03187,-0.0068743,0.0056578,0.030315,0.021751
-0.016086,-0.038671,0.090146,-0.04895,-0.0052626,1.1783e-05,0.0068759,0.021994
-0.0011188,0.048886,0.18149,0.0095323,-0.0040444,-0.029888,-0.024292,-0.024888
-0.0023664,-0.045307,-0.36026,-0.059955,0.0044481,0.017225,0.0069119,-0.0017713
-0.0040491,-0.11008,-0.23618,0.0085409,-0.011051,0.016267,-0.0012444,-0.025803
0.0019363,0.042819,0.19772,0.098701,0.019865,-0.0091906,-0.0019608,0.020349
-0.015299,0.016007,0.08584,-0.10869,-0.043271,-0.035384,-0.01082,0.0040919
0.0070896,0.021477,0.18146,0.09049,0.018454,-0.014993,-0.019854,-0.011834
0.014659,0.03654,0.11151,0.071861,0.033278,0.044633,0.010228,-0.011611
0.023112,0.069235,-0.045719,0.054313,-0.014404,0.0032516,0.024977,0.036095
-0.014537,-0.005798,0.052048,-0.056196,0.031586,0.025145,0.0011437,-0.0015933
0.018625,-0.0018987,0.074106,-0.041452,-0.0085756,0.00096079,0.0013078,0.01574
-0.026213,-0.084201,-0.47456,-0.19105,-0.041278,-0.022581,-0.0058288,-0.021596
-0.00099478,-0.003706,0.13039,0.080626,-0.011909,-0.022311,0.0030086,-0.0045795
0.00022973,-0.01888,-0.17459,0.062645,0.032696,0.02491,0.0041507,0.0039902
-0.03832,-0.051751,0.056114,0.03656,-0.0088477,-0.013963,-0.0026393,-0.027309
0.023994,0.03867,0.16765,0.0341,-0.003431,-0.014044,-0.0019134,0.034338
0.0076434,0.034377,0.036926,-0.12393,-0.0053767,0.0012587,-0.040616,-0.02182
0.030069,0.069087,0.20481,0.078444,0.0091109,0.016471,0.029743,-0.00014222
-0.017826,-0.075124,-0.32758,-0.022729,0.0012437,0.008374,0.0061996,-0.0017912
-0.018612,0.024176,0.22119,0.088017,0.0023989,-0.015001,-0.017282,-0.010762
0.012243,0.054678,-0.032389,-0.034995,0.012521,0.0011855,0.014193,0.035714
0.0044814,-0.038464,0.12134,-0.056293,-0.0076898,0.002281,-0.00080053,0.0049205
0.0049329,-0.021282,-0.38153,0.015884,0.019514,0.019441,0.023702,-0.0016824
-0.0099575,-0.0036439,0.1142,-0.076549,-0.039134,-0.0022297,-0.0061438,-0.007808
-0.0012765,-0.025028,0.02222,0.080419,0.011231,-0.0083142,-0.012408,-0.0060254
0.015216,0.023725,-0.063324,-0.036486,-0.0094504,0.0087351,-0.010959,-0.020168
-0.015252,-0.0057805,0.22584,0.080866,0.023586,-0.021583,0.013594,0.019761
0.0010656,-0.011706,-0.13229,-0.01247,-0.014739,0.010046,0.014205,0.058916
-0.013887,0.014188,-0.0035067,-0.097429,-0.0071629,-0.021293,-0.056076,-0.1136
-0.0052992,0.0098455,-0.19155,0.013653,-0.01599,-0.021643,0.013717,0.018051
0.011341,-0.0009683,0.26471,0.039493,0.029365,0.032704,0.012758,0.024559
0.020505,0.0052766,-0.0026551,0.10484,0.027639,0.0091901,0.011513,8.5692e-05
0.0065853,-0.0028812,0.098531,-0.079764,-0.020887,0.025172,0.041389,0.046561
-0.0070655,0.005283,-0.10575,-0.030429,0.0012113,0.0025639,-0.03029,-0.015468
-0.01282,-0.0022691,0.14787,0.064928,-0.023077,-0.019669,-0.00811,-0.021891
-0.0031221,0.012575,-0.20498,-0.090822,0.00010803,-0.018285,-0.032617,-0.027544
-0.0016977,-0.029288,-0.22793,-0.013331,0.00049462,0.006479,0.021256,0.045375
-0.001007,-0.0037248,-0.014849,0.016349,-0.0063311,-0.01591,-0.0026774,-0.03794
0.0065455,0.0027036,0.16935,-0.024868,0.01857,0.0081411,0.012826,0.034541
0.0052057,0.013148,0.201,0.13684,0.028119,0.0082464,0.0053022,0.0045832
0.0027675,-0.019159,0.0034751,-0.021636,-0.0092005,0.0078478,0.021628,0.028141
-0.0084781,0.02349,-0.14839,-0.10952,-0.023365,-0.0086171,-0.05543,-0.082397
0.0029448,0.032619,0.14494,0.052895,0.00099065,0.0058199,0.0083999,0.0090058
0.013935,0.009445,0.079618,0.074855,0.0089977,0.012196,0.0020222,0.0057701
-0.029776,-0.06804,-0.14049,-0.012536,-0.030659,-0.036276,0.018977,0.0020781
-0.0027312,-0.065532,-0.33491,-0.12343,0.014896,0.016724,0.019961,0.045286
0.0017568,0.018344,0.10664,-0.0078034,0.013022,0.015001,-0.010891,-0.012609
0.015295,0.075273,0.083564,0.014217,-0.012592,-0.01015,-0.011271,-0.022852
0.014665,0.027698,0.12006,0.075723,0.016456,0.0038223,-0.0047068,0.014709
-8.8853e-05,0.0083964,0.13832,0.083276,0.022305,0.017923,0.0088526,0.0063175
-0.0056659,0.016721,-0.065138,-0.11131,-0.033894,-0.038066,-0.017254,0.014338
-0.025802,-0.09693,-0.1242,-0.0157,-0.01137,-0.0077779,0.00327,-0.016123
0.02503,0.02533,-0.079583,0.010687,0.01963,0.022969,-0.0072481,-0.038414
-0.0098886,-0.00090059,0.12923,-0.0010957,-0.011222,-0.016045,-0.0014705,0.0019599
-0.0060152,0.018242,-0.1169,-0.0045343,-0.0024549,0.01584,0.013169,0.0111
0.012815,0.0035077,0.20388,0.070198,0.014515,0.017009,0.0056321,0.012335
-0.0083796,0.0011011,0.059393,-0.050892,-0.0074085,0.0029468,0.014968,0.021198
0.00054927,-0.059463,-0.19887,-0.016788,0.0096503,-0.018746,-0.0059374,-0.0092786
0.0083246,0.056486,-0.17169,0.02362,0.010761,0.0063787,0.0049889,0.014558
0.0072369,-0.0097677,0.0018138,0.077872,0.0035432,-0.007832,0.00034699,-0.01675
-0.033753,-0.054229,0.081364,-0.15094,-0.035541,-0.0068383,-0.020381,-0.0094941
0.018449,0.080266,0.38133,0.048338,0.0028959,0.0014943,-0.010728,0.0051053
9.4627e-05,-0.0039258,-0.1359,0.012095,-0.0060176,-0.014044,-0.0021712,-0.027526
-0.010395,-0.040616,-0.1884,-0.071584,-0.015194,-0.006469,-0.018163,-0.013454
0.026287,0.040788,-0.081034,0.094796,0.053738,0.04779,0.04304,0.039728
-0.0068826,0.0059236,0.052413,0.04302,-0.017749,-0.015208,0.0098815,0.015042
0.0073647,-0.012575,0.069748,-0.054656,0.0048707,0.015552,-5.5648e-05,0.02983
-0.016901,-0.030597,0.29728,0.028531,0.012278,-0.000518,-0.025438,-0.04864
0.0062145,0.045376,-0.16508,-0.035496,-0.018997,-0.032164,0.0043853,-0.0016133
-0.017103,-0.081647,0.0018686,0.011041,0.0047067,0.0065555,0.011531,-0.001016
0.006828,0.025874,-0.45995,-0.035043,-0.010471,-0.009342,-0.027325,-0.0078691
0.0076321,0.032185,0.18449,-0.017531,-0.017753,-0.0016923,0.004978,0.0011663
0.00087463,0.0078612,0.038194,0.032309,0.006235,-0.0095133,0.014523,0.010358
-0.013511,-0.054653,0.056054,0.012882,0.0067704,0.037532,0.0088375,0.0039656
