-0.0059991,-0.055326,-0.032657,0.014223,0.014223,-0.0010197,0.013051,0.0056499
-0.01887,0.056827,-0.075393,-0.03371,-0.00024984,-0.013988,0.014674,0.0063693
0.085029,0.21406,0.1962,0.066919,0.015929,-0.0044343,-0.0069601,0.03842
-0.1318,-0.48193,-0.14767,-0.10539,-0.054529,-0.0038969,-0.020872,-0.062227
0.049448,0.11763,-0.11512,0.027731,0.0070843,0.0031513,0.0038494,0.001299
0.058475,0.20838,0.16059,0.067923,0.021108,-0.022246,-0.0034459,0.017991
-0.065723,-0.17826,-0.14916,-0.031865,-0.0045595,0.037385,0.011668,0.01115
0.059485,0.074775,0.025424,0.017026,0.00052831,-0.012861,0.0021926,0.019646
-0.0036858,0.099846,0.14483,0.0030951,0.013098,0.01498,-0.00056404,-0.0036075
0.041333,0.13845,0.083658,0.011674,0.025523,0.0041636,-0.0041668,0.0037152
-0.094751,-0.17726,-0.18182,-0.043679,-0.040109,-0.029322,-0.023826,-0.060029
0.041151,0.097758,0.067036,0.024273,0.01957,-0.0071123,0.003478,0.02397
-0.05073,-0.34862,-0.22437,-0.065658,-0.029542,0.024006,0.0079767,-0.001886
0.02075,0.10203,0.1396,0.038498,-0.0074737,-0.0063455,0.0057607,0.011186
-0.0092871,-0.040504,0.018837,-0.037563,-0.0077164,0.018816,0.020567,0.0011035
0.024081,0.14024,0.14835,0.074197,0.024591,-0.0023768,-0.010031,-0.00047424
0.0044816,0.068518,0.083517,-0.00036421,0.019168,-0.015592,-0.0080785,-0.0010363
0.0028465,-0.066332,-0.40158,-0.041787,-0.00069283,-0.0055483,0.010416,-0.00041016
0.058547,0.26787,0.35769,0.075374,0.034995,0.0040404,-0.0019435,0.017016
-0.062846,-0.24935,-0.39605,-0.039385,-0.046106,0.0051888,0.0011584,0.0041708
-0.04143,-0.1427,0.14206,-0.065959,-0.01796,-0.0099693,-0.004207,-0.023671
0.012727,0.03103,0.12804,0.026403,0.0017407,-0.0023161,-0.002746,-0.0044502
0.059695,0.066001,-0.10286,0.010416,-0.0030265,0.0048443,-0.010199,-0.0011304
0.028253,0.17025,0.26842,0.025857,0.029996,0.011682,-0.0030183,0.024936
-0.051169,-0.026164,-0.13476,0.017163,-0.016439,-0.012886,-0.019971,-0.012498
-0.046366,-0.15044,-0.11884,-0.024256,0.0062217,0.017209,0.017467,-0.0042201
0.011099,0.006967,0.080277,0.010408,0.012304,-0.007327,0.023764,-0.0049193
0.035295,0.039459,-0.0070751,-0.011909,-0.013446,0.015111,0.0070508,0.0089966
-0.0047357,-0.0053707,0.025363,0.0026609,-0.00028944,-0.017022,0.01437,0.0065594
-0.014744,-0.063361,-0.079188,-0.023527,-0.010305,-0.017768,-0.040218,-0.035305
-0.01758,-0.069698,-0.14691,-0.05846,-0.02751,-0.0027084,0.0072092,0.0087943
0.02638,0.111,0.02004,0.023749,0.034271,0.028232,0.0079938,0.029846
0.05507,0.25456,0.26802,0.083305,0.034492,-0.0029757,0.00097429,0.020333
-0.040635,-0.20747,-0.11175,-0.027647,-0.019129,0.0053327,0.0016168,-0.011726
-0.018488,-0.094355,0.11633,0.034851,-0.0096477,-0.032704,-0.021377,-0.011532
-0.011403,-0.10125,-0.14926,-0.034094,0.0079026,0.0079404,-0.0054374,-0.041561
0.035107,0.24766,0.1059,0.046211,0.0018996,0.017842,0.010538,0.015326
0.011445,0.021231,-0.073512,-0.053126,-0.020174,0.028118,0.011119,0.026189
-0.066951,-0.03245,-0.034084,-0.028206,-0.027299,-0.055199,-0.03479,-0.040438
0.042001,-0.017002,0.10404,0.034403,0.019478,0.025427,0.036919,0.03388
-0.036714,-0.17645,-0.13825,-0.037507,0.00298,-0.011557,0.0073882,-0.0012733
0.064163,0.26132,0.2295,0.045147,0.040499,0.01325,0.0091749,0.041116
-0.053686,-0.39962,-0.2933,-0.076643,-0.024047,0.0058838,0.0028615,-0.01133
0.00050203,0.14559,-0.0341,0.027435,-0.0029515,-0.01813,-0.01973,-0.065288
0.094043,0.34312,0.19649,0.10815,0.041524,0.058445,0.034875,0.05866
-0.015149,0.04595,0.19817,0.017873,-0.015351,-0.076679,-0.067792,-0.0067043
-0.12388,-0.43945,-0.20532,-0.10989,-0.079532,0.0065386,-0.022919,-0.058022
0.05694,0.20914,0.012981,-0.0089707,0.021155,0.0038543,0.021375,0.022366
-0.0039674,-0.2252,-0.22194,-0.022828,0.0057105,-0.013974,0.010839,-0.014911
-0.041101,0.048024,-0.056333,-0.010842,0.014894,0.023713,0.016213,0.026125
0.062475,0.21711,0.19806,0.073507,0.033033,0.0076955,0.022176,0.021048
0.025113,0.00076644,0.21214,0.026384,0.012984,0.023821,0.021019,0.0092932
-0.028702,-0.12542,-0.095001,-0.0047873,-0.022295,0.0014437,-0.010808,-0.016823
0.0098655,0.024333,-0.087023,-0.052448,-0.042177,-0.013067,-0.018895,-0.0027171
0.093505,0.36193,0.17627,0.085362,0.062065,0.0031646,-0.019202,0.051349
-0.027954,-0.044403,0.2055,0.063984,0.0086306,-0.044083,-0.019828,-0.018993
-0.19023,-0.60244,-0.37041,-0.21858,-0.077803,0.0090008,0.0025233,-0.088988
0.029189,0.038756,-0.13152,0.050333,0.04493,0.060905,0.040088,0.0053203
0.037551,0.15302,-0.22576,-0.050386,-0.060377,-0.059867,-0.0084665,0.021791
-0.01556,-0.078756,0.068447,-0.0038978,0.013084,-0.016733,-0.017781,-0.00036585
0.07403,0.32942,0.30258,0.08964,0.031647,-0.019835,-0.018702,0.040577
0.049214,0.0432,0.12263,0.051834,0.027281,0.05661,0.036,0.011889
-0.0038717,0.032565,0.088387,0.039858,0.039651,0.025702,0.021553,-0.00055315
-0.015249,-0.13142,-0.10091,-0.016195,-0.040229,-0.0029123,-0.0073163,0.0030391
0.029946,0.19222,-0.036832,0.0085553,-0.0012879,-0.013735,-0.02733,-0.0089036
-0.15834,-0.75425,-0.40669,-0.21455,-0.10145,-0.03855,-0.015393,-0.036726
0.059533,0.16188,0.24099,0.079301,0.080822,0.054597,0.035832,-0.0025906
0.018689,0.40903,0.20778,0.037671,-0.0096432,-0.055658,-0.030442,-0.0082295
-0.078261,-0.21662,-0.072862,-0.019987,0.0015568,0.02805,0.019638,-0.0068044
0.096607,0.26809,0.16038,0.093101,0.051299,0.023554,0.021582,0.040819
0.058976,0.2286,-0.11196,0.032652,0.029647,0.024001,0.0063754,0.033211
-0.081538,-0.30587,-0.25983,-0.10005,-0.079423,-0.056721,-0.041655,-0.037304
0.050403,0.092476,0.15304,0.05438,0.0051929,-0.015185,-0.0051367,0.016882
-0.044828,-0.24168,-0.11508,-0.09747,-0.028845,-0.03034,-0.016483,-0.030729
-0.046563,-0.30077,-0.070078,-0.03937,-0.01702,0.016055,0.018607,-0.00041828
-0.0013666,0.080189,0.04877,0.03415,0.01009,0.031434,0.014797,-0.0015522
0.12225,0.49681,0.2291,0.10047,0.061051,0.048142,0.027324,0.044002
-0.04274,-0.056301,0.091113,-0.0038033,-0.0040805,-0.026754,-0.021545,-0.0278
-0.004082,0.087381,0.090238,0.034278,0.0026747,-0.036598,-0.03007,-0.021618
-0.050837,-0.20288,-0.11582,-0.066402,0.0033896,0.042001,0.03294,-0.015541
0.0044381,-0.19913,-0.37019,-0.016914,-0.017655,0.013283,0.003155,0.03734
0.044455,0.27106,0.10058,0.057412,0.017329,-0.0063007,0.02079,0.043302
-0.10281,-0.38644,-0.032115,-0.13293,-0.06403,-0.048856,-0.039622,-0.052323
0.10931,0.35058,0.051178,0.067835,0.034582,0.0098016,0.0011779,0.016111
0.0321,0.12856,0.25547,-0.0048659,0.0079304,-0.0028439,-0.005566,0.0064604
-0.10037,-0.23471,-0.10835,-0.007793,-0.035087,-0.040302,-0.028766,-0.057759
0.10219,0.21902,-0.0031508,0.081959,0.022337,0.053568,0.033138,0.042322
-0.063577,-0.25488,-0.032547,-0.025201,0.039312,0.05234,0.031842,0.0021568
0.0037717,0.17003,0.12189,0.029639,0.0078828,-0.028035,-0.0089985,-0.037495
-0.0081772,0.0088075,-0.002186,0.011803,-0.0094548,-0.03086,-0.010994,0.048456
-0.021006,-0.24564,-0.37419,-0.10999,-0.043805,-0.0025113,-0.012944,0.010027
-0.010813,0.049291,0.13105,-0.015107,-0.016744,-0.0050004,0.0010157,-0.012224
0.030765,-0.02537,-0.063691,0.00022391,0.0018486,0.0011516,0.0076407,-0.0028089
0.018325,0.080582,0.12891,0.022854,0.012487,0.00060528,-0.00074967,-0.016592
0.030403,0.2453,0.27286,0.085039,0.070382,0.032533,-0.00065878,-0.0068744
-0.042154,-0.19285,-0.067968,-0.046681,-0.042757,-0.012525,-0.0077335,0.010573
-0.011835,-0.029366,-0.13472,0.011172,-0.0062887,-0.0020288,0.0013587,-0.0034068
0.043066,0.087464,-0.028238,-0.0067186,-0.023174,0.0089288,0.018625,0.013642
-0.010543,0.031732,-0.08396,0.024587,0.023766,-0.0035579,-0.0030458,-0.008599
-0.0089125,-0.010738,0.050076,-0.012474,0.0015563,-0.0086802,-0.017042,0.0080117
-0.046057,-0.15918,0.04611,-0.03254,0.0036639,-0.0067726,0.023263,0.00099412
-0.020587,-0.08747,-0.056486,-0.0050048,-0.0015156,-0.013633,-0.022951,-0.029638
0.028366,-0.00041012,-0.093495,-0.039834,-0.045604,-0.013627,-0.0073486,0.009869
0.085194,0.35868,0.2084,0.096903,0.074187,0.063727,0.046642,0.057018
0.032779,0.1455,0.059682,-0.0012905,-0.0095837,-0.0078533,-0.024914,-0.013181
-0.12098,-0.49932,-0.095159,-0.053205,-0.039245,-0.048355,-0.034293,-0.060065
-0.024434,-0.028465,0.078794,0.027235,0.00081213,-0.018414,-0.012464,-0.01325
0.041213,0.050917,-0.27888,-0.048766,-0.014321,0.066564,0.056482,0.057056
-0.0099783,0.059796,0.14349,0.01598,0.017086,-0.0042529,-0.0069132,-0.013091
0.064096,0.30325,0.17358,0.018615,0.0092834,-0.0043136,0.00060201,0.010785
-0.010179,-0.039069,-0.094829,0.01397,0.02493,0.011593,0.0087189,-0.02751
-0.014316,-0.13175,-0.18475,0.0098079,0.0016214,-0.034801,-0.021735,0.028254
-0.050197,-0.25694,-0.064267,-0.025372,-0.02937,-0.0029956,0.0027988,-0.0095234
0.0068528,0.021829,0.087591,0.001758,0.0022316,-0.0024337,-0.011649,-0.01602
0.039373,0.27391,0.21648,0.020375,-0.0051978,-0.0018607,0.012843,0.0085321
0.039383,0.2018,0.11912,0.0378,0.018597,0.0065973,0.0058186,0.0091905
-0.047829,-0.33527,-0.23642,-0.09477,-0.043603,0.0073942,-0.017161,0.0013492
-0.0033713,-0.00091048,-0.015252,0.02096,0.026956,0.031831,0.022049,0.008284
-0.037882,-0.12224,0.086194,-0.01333,0.0037376,-0.021671,-0.017087,-0.0013049
0.020929,0.14594,0.043693,0.060539,0.027399,-0.020395,-0.0016254,-0.019514
-0.021786,-0.10886,-0.15854,-0.061567,-0.034848,-0.011386,-0.0095535,-0.022669
0.068772,0.17726,-0.074572,0.042862,0.020123,0.036396,0.013923,0.020834
-0.0039599,0.052107,0.0078739,-0.00056829,0.0047947,0.028994,0.029794,0.0098514
-0.01327,-0.077773,-0.026621,-0.035134,-0.05743,-0.057178,-0.032274,-0.01615
-0.021673,-0.017403,0.2456,0.033187,0.020903,0.0043992,0.007331,0.0056431
0.064439,0.21682,-0.0022437,0.040371,0.052244,0.03413,0.023496,0.036331
-0.044203,-0.1104,-0.011742,-0.037197,-0.018145,-0.038069,-0.030765,-0.010043
-0.074375,-0.39047,-0.080074,-0.04361,-0.018431,-0.00092378,-0.014904,-0.024295
0.028434,0.063645,-0.028657,0.028507,0.012301,-0.010306,0.0085583,0.0088846
0.029712,0.19715,-0.031001,-0.016615,-0.019693,0.03568,0.0084057,0.010994
-0.00034122,0.025773,0.11423,0.031555,0.0028168,-0.011197,0.0081501,-0.018333
0.024094,0.034004,0.077372,0.00083647,0.001776,-0.0024917,6.6725e-05,-0.0090734
0.0091336,0.057751,-0.23629,-0.0073751,0.0085209,0.014706,-0.0079576,0.0073385
0.032765,0.12805,0.1184,0.022533,0.01532,-0.0068886,-0.00025659,-0.039472
-0.069167,-0.31791,-0.15479,-0.049917,-0.024642,0.025943,0.015359,0.0771
0.0080204,0.15719,0.11736,0.025554,0.013654,0.0032895,-0.00020399,0.0056188
-0.063674,-0.24348,-0.040003,-0.047554,-0.018245,-0.0362,-0.015745,-0.027174
0.02849,0.043012,0.10137,0.035842,0.028047,-0.0067705,-0.0078765,-0.021069
0.050442,0.158,-0.011869,0.026095,-0.019417,-0.017689,0.0077443,-0.014904
-0.0053419,0.00068792,0.0037589,-0.0062399,-0.020086,-0.029497,-0.0079574,0.014973
0.033203,0.095131,0.0075572,0.032688,0.049424,0.067783,0.023152,0.021869
-0.060456,-0.23817,-0.1028,-0.04467,-0.014026,0.0014085,-0.00047158,0.0059082
0.010407,0.10978,0.14017,-0.011912,-0.0072632,-0.0092302,-0.024117,-0.025051
0.003312,-0.05726,-0.014953,-0.025526,-0.016112,0.028524,0.022548,0.0070742
0.011638,0.12656,-0.1398,0.039233,0.0064806,-0.033546,-0.016717,-0.007211
0.011595,0.073829,0.038142,0.01025,-0.017393,-0.007996,0.006531,0.017854
0.002947,-0.044809,0.034145,0.012333,0.045297,0.026749,0.0063576,0.019571
0.016917,0.027877,-0.0031347,0.0062968,-0.0084054,-0.0079224,0.006203,-0.033489
-0.071267,-0.23901,-0.010493,-0.054778,-0.045617,-0.026658,-0.025175,-0.0086358
0.0045019,-0.00030911,0.020864,-0.0067967,0.019535,0.0090071,0.021612,0.015962
-0.028562,-0.081886,-0.048687,0.017518,0.0071418,-0.01083,-0.025295,-0.01434
0.017733,0.081459,0.00037008,0.010469,0.034033,0.04625,0.013805,0.0021264
0.089262,0.26568,0.11368,0.042471,-0.0018083,-0.0074657,0.0060989,0.018623
-0.024635,-0.066565,-0.021488,-0.019231,-0.014919,-0.0079192,0.0062564,-0.011606
-0.027186,-0.094516,-0.10117,-0.034013,-0.021327,-0.017406,-0.0013838,-0.0025644
0.0029778,0.0011485,0.01412,0.0058814,-0.013468,-0.012099,-0.0090557,0.0066575
0.01815,0.10095,0.26842,0.0066085,0.02425,0.00070497,0.0066352,0.0081275
-0.013932,-0.009179,-0.33942,-0.016314,-0.0095346,-0.0018725,-0.016836,0.0016519
0.038537,0.10488,0.14297,0.04639,0.010577,0.019734,0.0064745,0.0026283
-0.067443,-0.23949,-0.12051,-0.016284,-0.016443,0.01119,0.00629,-0.020403
0.019226,0.010514,0.042485,-0.0090478,0.011536,0.011699,0.013923,-0.0050856
-0.029616,-0.1613,0.078345,-0.017806,0.0012724,-0.0022716,-0.017427,0.0094818
0.0051765,0.019301,-0.034931,-0.0034147,-2.0333e-06,-0.015398,-0.0095693,-5.6431e-05
0.030592,0.21822,-0.037988,0.018621,0.0078611,-0.035939,-0.0093408,-0.0022592
0.0085045,0.16445,0.039276,0.0093698,0.009158,0.029352,0.030127,0.0031423
-0.036686,-0.27242,-0.020976,-0.015425,-0.019832,0.0081299,0.0072135,0.00082429
0.052098,0.13619,-0.023119,0.006821,0.014213,0.017218,-6.4957e-05,0.014509
-0.0058226,0.047849,0.18879,0.02928,-0.022007,-0.052959,-0.030907,-0.02589
-0.014883,-0.14627,-0.16734,-0.041781,0.011678,0.031961,0.0083048,0.020385
0.0092275,0.077192,0.079257,0.020207,0.021173,0.0065285,0.023725,-0.0028926
-0.035388,-0.047906,0.091498,-0.011302,-0.024942,-0.011739,-0.015923,-0.025497
0.0070072,-0.045724,-0.30337,-0.011266,-0.0016401,0.0010265,-0.0012049,0.014886
0.03425,0.059556,0.050472,0.0047532,-0.010278,-0.0094017,-0.010102,0.016442
-0.01675,0.0016497,0.043689,0.021204,-0.01146,-0.011364,-0.011161,0.010137
0.0097532,-0.009066,0.12982,0.022511,0.034252,0.026677,0.027095,0.0035176
-0.027234,-0.051226,-0.088982,-0.069458,-0.013434,0.011083,0.0033003,-0.050492
-0.03417,-0.062873,-0.018488,0.0030113,0.0097449,-0.011354,-0.019923,0.0042531
0.059202,0.18192,0.044639,0.013145,0.0022568,-0.0096435,0.0043138,0.011514
-0.012671,0.010572,0.068979,0.038745,0.010831,0.023644,0.02122,0.010468
0.031626,0.070813,0.038395,0.032536,0.019568,0.0099617,0.0071528,0.016928
-0.026421,-0.14565,-0.15719,-0.037145,-0.042169,-0.035436,-0.022525,-0.015754
-0.0068387,-0.029462,0.012829,-0.01437,-0.002783,-0.0034156,-0.0055799,-0.0092281
0.020395,0.029377,-0.037869,0.014796,0.0047578,-0.011236,0.0030898,0.01326
-0.0068399,0.024426,0.089243,-0.027634,-0.011718,0.011519,0.0033729,0.0049757
-0.033446,-0.11263,0.090108,-0.00059811,0.002658,-0.0052273,0.003092,-0.018383
-0.012145,-0.035705,-0.081021,-0.028421,0.0013107,0.0091297,-0.013254,0.005689
0.049595,0.14023,-0.118,0.022509,0.0080116,0.015799,-0.0063962,-0.0088166
-0.027704,-0.06759,-0.050556,-0.0033089,-0.00039809,0.0071551,0.0082745,0.00046138
0.0059699,0.013244,0.060026,0.027464,0.023103,0.014514,0.015341,0.017697
0.0019537,0.046024,0.073715,-0.0021966,-0.015262,-0.040296,-0.0085001,-0.0042292
0.037907,0.21617,0.029277,0.032449,0.017123,0.014483,0.022718,0.01255
0.0038029,-0.026247,0.15203,0.013567,-0.012876,-0.016605,-0.0082593,-0.01032
-0.054227,-0.27068,-0.10694,-0.036305,-0.019687,0.0069553,-0.015637,-0.0026806
0.034983,0.08116,0.023385,0.022498,0.019799,0.0069889,0.00041882,-0.0036333
-0.0338,-0.15283,-0.099892,-0.084273,-0.01963,-0.016485,-0.0071137,-0.0052647
0.0047642,0.065276,-0.048707,0.025708,0.010414,0.0069176,0.00074048,0.00047405
0.0022718,0.024849,-0.058014,-0.0070103,-0.014947,-0.00083888,0.0083446,-0.0017051
0.029383,0.20406,0.083719,0.036655,0.021739,0.022816,0.0079465,0.0041991
-0.0383,-0.18358,-0.028143,-0.022335,-0.019798,-0.015846,-0.02378,-0.012725
0.0031089,-0.064723,0.069602,0.019954,0.017059,0.0081347,0.0070482,-0.013186
0.013776,0.11048,-0.026907,0.00807,-0.0001846,0.00091522,0.022426,0.057564
0.010023,0.032025,-0.010988,-0.010481,0.0068013,0.0014394,-0.00099909,0.0040952
-0.015466,-0.040638,0.048227,-0.019719,-0.016601,-0.021652,-0.0085007,-0.0098053
-0.007777,-0.083421,-0.01318,0.011636,0.015479,0.0097029,-0.0079,-0.023561
0.048653,0.22367,0.10861,0.036445,0.0091153,0.0095673,0.00075797,-0.0062813
-0.010553,-0.096995,-0.048971,0.0073587,-0.012492,-0.021987,0.0017797,-0.0051166
0.025047,0.19523,0.0042822,0.025385,-0.0027187,0.016725,0.0028963,0.0032396
-0.09512,-0.44031,-0.17097,-0.10529,-0.032096,-0.014781,-0.019419,-0.0046233
0.026824,0.10433,0.17398,0.013462,0.024214,0.0086116,0.012864,0.0027032
-0.015841,-0.093786,-0.23476,-0.032533,-0.013583,0.0088343,0.013705,0.002014
0.026534,0.13652,0.064152,0.045901,0.034141,0.0014821,0.0064399,0.0091718
0.013097,0.13851,0.024931,0.014625,-0.012336,0.0020643,-0.016836,0.024361
0.021855,0.044611,0.07091,0.014519,0.011023,0.0025895,0.0063173,-0.0070069
0.029355,0.081005,0.14887,0.045753,0.010456,-0.0049532,-0.0022315,0.0010162
-0.065883,-0.2917,-0.10721,-0.06351,-0.04527,-0.020729,-0.003356,-0.029745
0.0019618,0.012266,-0.0091057,0.014757,0.023592,0.017676,-0.0047312,0.0021977
-0.0011732,-0.014761,-0.0018666,-0.0086852,-0.0093938,0.00091671,-0.0061611,-0.0047872
-0.0045659,0.080863,-0.023088,-0.0090244,0.0043976,-0.00054904,0.00038951,0.0039415
-0.015569,0.042208,0.0050424,0.0058066,0.018328,-0.02554,0.0073123,-0.0028983
0.020942,-0.067114,-0.15226,-0.0267,-0.037666,0.019989,0.02256,0.021529
0.027177,-0.04282,0.012322,0.018576,0.0085066,0.0035074,-0.0085123,0.0068426
0.0032995,0.14734,0.16229,0.016854,0.0085444,0.0033428,-0.015668,-0.015823
-0.011666,-0.074103,-0.031203,-0.0081495,0.0093406,-0.0038742,-0.006903,-0.0075585
0.013298,0.050874,0.13406,0.029782,0.018593,-0.010432,0.017518,0.02365
-0.054998,-0.13426,-0.11639,-0.033187,-0.018622,-0.0087886,-0.0052044,-0.023913
0.017374,0.041669,0.11491,-0.017233,-0.0010546,0.031905,0.010585,0.0059123
0.026854,0.10106,-0.24312,0.02298,0.00065481,0.02525,0.0021804,0.019388
0.012159,-0.019771,0.0436,0.0092344,0.0018567,-0.013551,-0.0070587,-0.0067875
-0.019094,-0.025051,0.0065421,-0.019611,-0.02105,-0.022274,-0.0092405,-0.025476
-0.02004,-0.0093887,0.02929,0.022095,0.010041,-0.0087746,-0.011935,-0.012876
0.0016847,-0.059148,0.034888,-0.02223,-0.0063105,-0.019694,0.00085862,0.023608
0.015161,0.028891,0.055933,0.011144,0.0082587,0.00014489,0.0061526,0.0062326
-0.018251,0.036584,-0.05472,0.012556,0.0071679,-0.0032877,-0.0034243,-0.0022253
0.02688,0.004011,-0.06949,-0.010372,-0.0014814,0.01757,0.019352,0.0061554
-0.020973,-0.09884,0.051296,-0.010829,-0.0096538,0.016403,0.027797,-0.007781
0.010254,0.073009,0.0030937,-0.012179,0.014015,0.024767,-0.032783,0.010365
0.01117,0.036171,0.11373,0.024842,0.0070104,-0.012052,0.0014743,0.0054684
-0.026263,-0.060352,-0.086157,-0.024464,-0.02299,-0.00065453,-0.018227,-0.0073516
0.022554,0.025678,-0.0583,0.027754,0.0019107,-0.01977,-0.0064105,-0.0051392
0.0086959,0.051627,0.040282,0.0021629,0.01113,0.0080036,0.028615,-0.0038829
0.0098146,0.040124,-0.041024,-0.0071831,0.004409,0.0038481,0.00044964,-0.0037578
-0.005674,-0.048843,0.0021055,-0.0078725,0.0049924,-0.017137,0.01029,-0.0047181
0.0011949,0.033882,0.068003,0.01584,-0.002827,0.0072874,-0.0045807,0.01693
-0.070948,-0.22785,-0.11666,-0.037601,-0.026812,-0.024407,-0.020761,-0.024337
0.028364,0.15022,0.1124,0.034829,0.011336,0.0052708,-0.01466,0.012593
-0.02053,-0.12067,-0.05703,-0.017077,-0.020934,0.010869,0.0062273,0.00318
0.017427,0.061522,0.14873,-0.0061054,0.009467,0.0085621,0.0032647,0.002454
0.041212,0.20509,0.081464,0.051771,0.016823,-0.0011544,0.015969,0.0027586
0.0041893,-0.072537,-0.32117,-0.04694,0.001229,0.028938,0.0056776,0.011847
-0.015665,-0.11528,-0.035611,-0.0057068,0.0094925,-0.010391,-0.011702,-0.0096002
0.027996,0.013819,0.016239,0.026759,0.025771,-0.002008,0.018641,0.0083304
0.0015476,0.12643,0.13102,-0.0043913,-0.012746,-0.0086177,-0.0048871,-0.0051257
-0.025615,-0.028327,0.065958,-0.0054267,-0.020436,-0.022695,-0.0043194,-0.011316
-0.015256,-0.068347,-0.00021142,-0.0074661,-0.013144,0.002339,-0.011135,-0.010526
-0.014797,-0.06424,0.017211,-0.010242,-0.022176,-0.0040849,-0.009951,0.00495
-0.00095111,0.054532,0.10134,0.002235,-0.00052167,-0.018714,-0.0087908,-0.0038655
0.0031215,-0.039406,-0.16282,0.014748,0.036491,0.067718,0.031262,0.017962
0.01369,0.030098,-0.095805,0.0042427,-0.0045058,0.0051689,0.00075577,0.00047215
0.00037946,0.014362,0.0062164,0.010086,0.0018594,-0.018836,-0.0065687,-0.016894
-0.0046355,0.016181,-0.034762,-0.022232,0.008982,-0.019837,0.0015135,0.0052547
0.0072549,0.0052127,0.018067,-0.0067342,-0.0064685,-0.021124,-0.013994,0.012451
0.020949,0.075639,0.16745,0.025229,0.010119,0.0087476,0.0094839,0.0047633
-0.010266,-0.092935,-0.021581,-0.0046734,-0.011802,-0.00031936,-0.0061148,-0.017892
0.014969,0.030206,-0.10192,-0.0029656,-0.0022588,0.022178,0.0095592,0.022393
-0.036673,-0.087027,0.1146,-0.0089984,-0.016301,-0.025205,-0.0059938,-0.023112
0.01379,0.0075235,-0.15389,0.00040909,0.023885,0.029416,0.0096894,0.0093409
0.0015448,0.055132,0.12197,-0.013991,0.00091721,0.0062492,-0.0059554,0.0023045
0.019692,0.10977,0.0096746,0.033645,0.00069428,0.014476,0.0094982,0.0024957
0.0053033,0.030394,0.052797,0.01051,-0.015722,-0.016439,-0.014321,-0.013544
-0.057378,-0.28463,-0.064359,-0.044246,-0.024633,-0.024179,0.000689,0.001177
-0.019747,0.0086494,-0.047406,-0.013296,0.021177,-0.016633,-0.0079416,-0.015611
0.024862,0.09033,0.1883,0.033207,0.012673,0.014065,0.01456,0.0066907
0.022308,0.093613,-0.34146,-0.0061702,-0.0030063,0.0055913,0.0058237,0.0293
0.027832,-0.05942,0.028969,0.0092681,0.0055062,-0.010559,-0.010555,-0.010076
-0.0050126,0.07643,-0.033685,0.032639,0.0069025,0.0049108,-0.010986,0.0058407
-0.021307,-0.030536,0.10655,-0.037697,-0.0068555,0.020892,0.0046502,-0.0089345
0.025831,0.017439,0.18702,-0.0065485,0.00295,-0.0016831,0.0051621,-0.0076951
-0.020036,-0.0069181,-0.0088932,0.00096554,-0.0031303,0.01514,0.013965,0.0093068
-0.0029659,0.020887,-0.034938,0.00038718,-0.0020017,-0.0070624,-0.00029842,0.010541
-0.0092448,-0.22739,-0.078993,0.0073226,-0.0016988,-0.0061483,-0.0065549,-0.012058
-0.039184,-0.017018,0.029362,-0.025051,-0.025712,-0.02931,-0.020649,-0.019599
0.055432,0.22308,-0.032279,0.028379,0.019836,0.03264,0.019694,0.019106
0.0088695,0.040793,0.14014,0.0037016,-0.013217,-0.015606,-0.0028994,-0.0052641
-0.022618,-0.039394,-0.22078,0.0026454,0.016119,-0.0097735,0.0052023,-0.0066163
0.023569,-0.063484,0.008932,0.001928,0.022284,-0.01198,0.0049109,0.01527
-0.016457,0.023783,0.016673,-0.021761,-0.017847,0.0016852,-0.019326,-0.0018651
-0.017481,-0.043009,0.021879,-0.013653,-0.010329,0.0082409,-0.012665,-0.0031185
0.020724,0.079763,-0.028931,0.0028413,0.013632,0.039272,0.017298,0.0038517
-0.018833,-0.069233,0.053067,0.019864,-0.016379,0.0011632,0.00047601,-0.0043207
-0.0032137,-0.0061768,0.03457,0.01386,0.016599,-0.004612,0.0073805,-0.0042143
0.036358,0.13552,0.095831,0.031524,0.01851,-0.0095942,0.022516,0.011889
-0.040841,-0.19152,0.033706,-0.060176,-0.042225,-0.029829,-0.032202,-0.010845
0.038415,0.090464,-0.17573,0.0041623,0.013787,0.012346,-0.00057239,0.013348
0.00039399,0.051696,0.11525,-0.002208,-0.0011702,-0.016298,9.1397e-05,-0.0094434
-0.014595,-0.096731,-0.29714,-0.0090968,-0.0012594,0.02456,0.00086625,-0.0012134
0.016623,0.075262,0.13355,0.030323,0.013541,0.0019469,0.0093757,-0.0010829
-0.015462,-0.0099097,0.1104,0.0067001,-0.0035048,0.0096054,0.0098245,-0.0012276
-0.024873,-0.046993,-0.069501,-0.0095756,-0.0052903,-0.014838,-0.013533,-0.0093856
-0.0035676,-0.09806,0.078603,-0.018388,0.00065956,-0.0086548,0.0017577,0.013623
0.017585,0.016712,-0.046484,0.0038389,-0.0087942,-0.010624,-0.0067617,-0.0023827
