-0.061021,-0.012471,-0.035216,-0.062252,-0.028324,-0.0053569,0.0083863,0.036645
0.021656,0.015077,-0.026693,-0.07327,0.012266,0.012922,0.017331,-4.9493e-05
-0.023151,-0.027861,0.037536,0.1363,-0.017911,0.0075107,0.0032306,-0.022092
0.02256,0.01422,0.039982,-0.019108,0.013869,-0.014119,-0.0028509,-0.0062578
-0.16955,-0.038978,0.019172,0.022774,-0.017391,-0.0053673,-0.016791,-0.038507
0.10404,0.085638,0.0056708,0.081475,0.036833,0.0023553,0.023635,0.03759
-0.04633,-0.072881,0.045675,0.28081,-0.003008,0.0012233,-0.01463,-0.011993
0.029079,0.0092419,-0.15038,-0.54454,-0.027375,0.0070064,0.0088764,0.00068545
0.081657,-0.011116,0.0032506,0.018461,0.010769,-0.0034482,-0.015271,0.013575
-0.02804,-0.055038,-0.0088371,0.03183,-0.0056298,-0.021947,-0.016681,-0.0042073
0.060132,0.073589,0.032677,0.058218,0.0016406,-0.0012005,0.01265,0.025686
-0.059827,0.031653,0.058294,0.14523,0.0013606,0.027919,0.018296,0.0095612
-0.020967,0.022628,0.014203,0.0362,0.032563,0.010997,-0.015088,-0.029238
-0.034831,-0.03161,-0.044151,-0.080095,-0.029834,-0.012784,0.014305,-0.012783
-0.031901,-0.061074,-0.022529,-0.11651,0.0015545,-0.0044113,0.0050822,-0.011629
0.06516,0.0118,0.040153,0.091957,-0.02965,-0.018783,-0.019246,-0.010381
0.24012,0.10042,0.010873,-0.10265,0.032685,0.021898,0.019432,0.045458
-0.26514,-0.061458,-0.040564,0.07305,0.0087834,0.015689,-0.011778,-0.0004932
-0.067717,-0.013311,0.0023352,-0.069064,-0.0076529,-0.0065257,0.0041979,0.00012944
0.051534,-0.028748,0.021629,0.14955,-0.0088067,-0.021586,-0.010876,-0.0073814
0.022916,-0.021723,0.0010264,0.11021,0.005385,0.0016236,-0.0023981,-0.01519
-0.051418,0.031523,0.010383,-0.087056,-0.011829,0.00063555,-0.0016731,-0.0076164
0.063226,0.029859,-0.028587,-0.091911,0.025668,-0.00091548,0.0068959,0.0075951
-0.023926,-0.018493,0.0014718,-0.0065197,-0.0069006,-0.0027094,-0.0079617,-0.016366
0.13956,0.035182,-0.023974,-0.12753,-0.0077323,0.0034451,0.024034,0.037732
0.10725,0.011286,-0.0026929,0.038312,-0.031289,0.010097,0.001267,0.037098
-0.17685,-0.0043303,0.042604,0.086385,0.039782,0.0097098,0.0017863,-0.010446
-0.11227,-0.035303,-0.028084,-0.020552,-0.021018,-0.021017,-0.029174,-0.089255
0.089487,-0.0037174,0.027806,0.062772,-0.0028273,0.01946,0.009889,0.050732
-0.079168,-0.019075,-0.0006382,-0.037832,0.023806,-0.0096549,0.0017698,-0.027882
-0.046908,0.012384,0.011241,-0.010003,0.011629,-0.0070834,-0.0066217,0.01879
0.13318,0.012681,0.015911,0.19985,-0.00077077,0.011204,0.0082376,0.0033789
-0.14646,-0.01795,-0.049974,-0.10539,0.001743,-0.0020165,0.0074074,0.019716
0.13918,-0.016784,0.008034,-0.045029,-0.028118,-0.015791,-0.024602,-0.010329
0.10043,0.04755,0.0095312,-0.11315,-0.028103,0.0009269,0.021708,0.014706
-0.028277,0.010934,0.0087847,0.056171,0.033009,0.016803,0.0058023,-0.0069302
-0.12274,-0.0097098,-0.056746,-0.05298,-0.00082823,0.008434,-0.0097756,-0.028591
0.1827,0.032055,0.071105,0.075741,0.011413,-0.024036,-0.0015935,0.019811
-0.13722,-0.036175,-0.060099,-0.0091947,-0.0078614,0.0055499,0.0068632,-0.010337
-0.053027,-0.043028,0.027111,-0.063447,-0.034651,-0.0041123,-0.007921,0.013687
-0.11293,-0.012304,-0.049109,0.016852,0.025296,-0.005896,0.00083369,-0.025309
0.27616,0.08711,0.094921,0.17908,0.039521,0.031652,-0.013849,0.036807
-0.2294,-0.064973,0.037958,0.12004,-0.023069,-0.016347,0.018244,-0.03423
0.13676,0.039639,-0.086881,-0.2923,0.0093446,-0.0014294,-0.0045458,0.003877
0.063346,0.010892,-0.014024,-0.097031,-0.027546,0.0060231,0.0036305,0.0027593
-0.22948,-0.095849,-0.032932,0.033179,0.0065092,-0.017566,0.0036374,0.0014853
0.20496,0.079469,0.035405,0.042204,-0.006118,0.02138,-0.0045725,0.031249
-0.069745,-0.0016505,0.072929,0.29529,0.020079,-0.0023088,0.010244,0.029463
0.033099,-0.041963,-0.046304,-0.23326,-0.016826,-0.018441,-0.014364,-0.042997
0.013861,0.068021,0.020572,0.048043,0.00010126,0.0041865,-0.00016301,-0.022046
0.04448,-0.0077862,0.030697,0.074714,0.008239,0.02656,-0.0016768,0.014348
-0.086103,0.011497,-0.094395,-0.19367,-0.00802,-0.029308,-0.0030845,-0.05852
-0.018704,-0.038707,0.012556,0.015818,0.029594,0.00085574,-0.012007,0.017552
-0.026957,-0.049587,-0.0073434,0.086441,-0.019295,0.0079176,0.02639,0.039837
-0.15014,-0.029488,-0.012664,-0.097673,-0.021556,-0.015707,-0.012833,-0.0069878
0.28327,0.099276,0.028806,-0.026764,-0.0080951,0.023894,0.026533,0.064698
-0.071071,0.086389,0.07112,0.28577,0.029224,-0.0060389,-0.004092,-0.0030165
-0.03443,-0.13083,-0.07252,-0.27513,0.012531,-0.0040203,-0.018983,-0.085428
0.071563,0.0022663,0.012293,0.12033,-0.0033424,0.0063029,-0.0027491,0.020159
0.04224,0.0014054,0.052063,0.020052,-0.0027533,0.016808,0.013159,0.024213
-0.12391,-0.008188,-0.06301,-0.075713,-0.040504,-0.027553,-0.018253,-0.042439
0.27506,0.12225,0.041395,0.020084,0.0238,0.021313,0.012376,0.023001
-0.41761,-0.13035,-0.041736,-0.013852,0.0023459,-0.024359,-0.012044,-0.029676
0.056247,-0.015593,0.03067,0.14154,0.027594,-0.00064226,-0.0053959,0.01818
0.02596,0.044987,0.01599,-0.022777,-0.017982,0.0065419,0.016923,0.04155
0.048137,0.051645,-0.06244,-0.11711,0.0059752,-0.0026432,0.0082587,0.017038
0.23444,-0.018918,0.014386,-0.087209,-0.0022405,0.011141,0.0078471,0.0072485
-0.24879,-0.041687,-0.042054,0.027914,-0.019172,-0.0064575,-0.02328,-0.073584
0.084665,0.030109,0.089247,0.049027,-0.013379,0.0073967,0.00081621,-0.0064473
-0.11558,-0.038097,-0.028541,0.023586,0.015473,-0.017332,0.001927,0.013689
0.1117,0.019062,-0.051202,-0.040191,-0.010326,0.0054689,-0.0044761,-0.012779
0.00031112,-0.0018363,0.037018,0.029534,0.034643,0.021162,0.012663,0.03953
0.025469,-0.022981,0.063989,0.12278,-0.0055387,-0.0015798,0.014078,-0.00096945
-0.049063,0.033443,0.0056742,0.011893,-0.029128,-0.01606,-0.023845,-0.032583
0.024666,0.073419,-0.01373,-0.023242,0.03418,0.00091575,0.00033823,0.061815
0.01821,-0.0673,0.0049681,0.070827,-0.0033108,-0.0055945,0.0006491,-0.0070833
-0.054194,-0.013759,-0.095089,-0.32384,-0.0013188,0.026688,0.016195,-0.020902
-0.076023,-0.039267,-0.025093,-0.097873,-0.030582,-0.035199,-0.031028,-0.034749
0.054425,0.04399,0.0041643,0.1245,0.010036,0.01181,0.0075838,0.013504
0.048978,-0.0057135,0.040049,0.15715,0.02643,0.011496,0.0072058,-0.0013976
0.02626,0.0074641,0.091053,0.19708,-0.012861,-0.020413,0.0070438,0.0063948
-0.11359,-0.025364,-0.060889,-0.16818,0.0015038,0.009977,0.014989,0.021335
0.05294,0.0055103,0.014433,-0.046745,-0.0084477,0.0090639,-0.0080235,-0.003229
0.050601,0.022055,-0.026464,-0.13317,-0.026772,-0.023032,-0.030823,-0.027917
-0.0026876,0.016263,0.050782,0.16654,0.017274,0.038761,0.024582,0.017934
-0.0053061,0.018928,-0.035304,-0.014999,0.014777,-0.0086646,0.0095971,0.0018323
-0.043815,-0.04871,0.0040041,-0.061121,0.0052163,-0.016896,-0.021234,-0.036935
0.0055959,0.039232,0.012135,0.16815,0.0045144,0.0062119,0.010114,0.03453
0.039798,-0.038132,-0.089247,-0.17159,0.0049891,-0.001874,-0.0057699,0.020831
-0.0679,0.015744,0.05138,0.044166,-0.040284,-0.0099089,-0.00635,-0.031397
0.1575,-0.010086,-0.011185,-0.15366,0.024732,-0.0022385,0.0084689,0.049357
-0.16018,-0.037175,0.074837,0.18796,0.0043915,0.013379,0.0075728,-0.034198
-0.013785,-0.010256,-0.034079,0.014305,-0.00014149,-0.0020606,-0.016703,-0.024636
0.06547,0.0010594,-0.056528,-0.096483,-0.0048926,0.013975,0.021709,0.023074
0.0001338,0.091185,0.030941,0.066422,-0.010207,-0.032279,-0.017726,-0.031815
-0.0054291,0.018414,0.025053,-0.036316,0.0071098,0.015354,0.0056549,0.021684
0.058222,-0.013918,0.027077,0.001109,0.023506,0.0083079,0.0058936,0.011901
-0.11963,-0.076195,-0.018051,0.12345,-0.039121,0.0011046,-0.0092633,-0.0061645
-0.099802,0.026601,-0.0091331,-0.11515,0.0068693,0.032645,0.014776,-0.016533
0.25966,0.0049842,-0.016741,0.042696,-0.0023574,-0.037815,-0.0080262,0.043634
-0.095128,-0.04774,-0.040953,-0.15319,0.011591,-0.022806,-0.007443,-0.020699
0.078176,0.04774,0.019924,0.10985,0.017725,-0.00038332,0.00084899,-0.021851
-0.13495,0.0021155,0.0099508,-0.034927,-0.0071733,0.014001,0.0012121,0.016828
0.17862,0.034049,0.023294,0.061592,0.0073625,0.0049576,-0.0063332,0.025015
-0.22454,-0.028261,-0.033369,-0.060728,-0.024516,0.011799,0.0095015,-0.052059
0.1543,-0.0049176,0.12156,0.20828,-0.0012178,-0.0043321,0.0018777,0.035466
-0.092245,-0.059678,-0.089845,-0.14631,-0.00088293,0.0035592,-0.0057512,-0.032896
-0.058776,0.034348,-0.042543,-0.092712,-0.0079395,-0.0035781,0.01785,0.016094
0.035426,-0.011629,-0.033536,-0.03688,0.032216,-0.0023989,-0.021114,0.018169
0.13543,0.068155,0.085351,0.068105,0.010099,0.0069241,0.010104,0.012193
0.053704,0.01584,0.0090756,0.10479,-0.019736,-0.014889,0.0020629,-0.0098202
-0.24088,-0.067252,0.034118,-0.028977,-0.033992,-0.013376,-0.014034,-0.040187
0.22843,0.05287,-0.10551,-0.13875,0.045315,0.026887,0.01649,0.04603
-0.2647,-0.061746,0.066475,0.35256,-0.016316,-0.00363,-0.015708,-0.055854
0.15496,-0.0052712,-0.012521,-0.28265,-0.015866,-0.011272,-0.0011816,0.029233
-0.10611,0.034488,-0.045534,-0.053025,0.015337,0.019555,0.013297,0.020152
0.21007,-0.020725,0.022418,0.048779,-0.016508,-0.020491,-0.011224,-0.01265
-0.068173,0.0088372,0.027726,-0.086627,0.037025,0.017124,0.011291,0.0090868
0.10626,0.045298,-0.029072,0.23651,0.03535,-0.0080723,-0.0050227,0.0073627
-0.14129,0.0031187,0.11818,0.081511,-0.060487,-0.0021324,0.01018,-0.017704
-0.21656,-0.093771,-0.15508,-0.3006,-0.031546,-0.0038912,-0.0056034,-0.019119
0.17794,0.052021,-0.051752,-0.088451,0.020879,0.010323,-0.0055263,0.050114
-0.0665,-0.059051,0.13908,0.12513,0.018989,-0.013964,-0.013069,-0.067697
0.12872,0.057692,-0.0751,-0.04208,-0.013452,0.017159,0.018599,0.02599
0.029361,0.035138,0.25041,0.70698,0.025392,-0.013413,0.0035058,0.010921
0.010116,-0.033147,-0.30711,-0.75291,-0.020575,-0.011947,-0.011497,0.012086
-0.070377,0.0086619,0.087343,0.14806,0.012705,0.021427,-0.0029847,-0.0018599
0.060305,0.019354,-0.020239,-0.17669,0.0078702,0.0083603,0.0056008,0.00015998
0.0026822,-0.0016855,0.017899,0.20196,-0.027597,0.0032418,0.006442,0.0022917
-0.095633,0.015354,0.045157,-0.060207,0.015241,-0.0020643,0.0073405,-0.019147
-0.094429,-0.078232,0.030352,0.1693,0.0030916,-0.015666,-0.015164,-0.0018762
0.068852,-0.032408,-0.065062,-0.22694,-0.017619,-0.022159,-0.0064235,0.014881
0.027478,0.02814,-0.052643,0.047746,0.030888,0.017412,-0.0055603,-0.031462
0.071179,0.01798,0.10794,0.14941,0.0078027,0.0014947,0.01078,0.030951
-0.018148,0.031408,-0.16001,-0.015859,-0.047802,0.016141,0.019059,-0.008786
-0.036946,0.061056,0.058958,0.0050284,0.004905,-0.024396,-0.012089,0.0056337
-0.016355,-0.072522,0.023738,-0.1784,0.0022312,0.020733,0.0031721,-0.003854
0.13717,0.052546,0.094319,0.020194,0.014951,0.011128,-0.0055372,0.017495
-0.092385,-0.079575,0.075408,0.13273,-0.018971,-0.013948,0.0086614,-0.0083832
0.044583,-0.0082794,-0.15857,-0.1525,0.041466,-0.015277,-0.016636,-0.011095
-0.030236,0.055142,-0.053964,0.10275,-0.030088,0.0072482,0.004704,0.017302
-0.12917,-0.0067825,0.09101,-0.061971,0.024191,-0.0010127,-0.0051602,-0.024566
-0.056349,-0.014521,-0.10006,0.0018127,-0.045882,-0.0088209,0.00097843,-0.011447
0.22034,0.0084892,0.043411,0.043597,0.064052,0.015002,8.1302e-06,0.033516
-0.048177,-0.01574,0.15318,0.21865,-0.0057767,0.023457,-1.2155e-06,-0.014384
-0.10331,-0.055732,-0.17766,-0.16175,-0.060414,-0.022681,0.0088959,-0.006473
0.15687,0.10751,0.066254,0.0027838,0.03272,-0.0063968,0.0032356,0.010501
-0.088162,-0.033617,0.049202,-0.0071836,0.0079648,0.0018437,-0.0015486,-0.033799
0.10618,-0.010281,-0.048491,-0.16037,-0.0016908,0.001935,0.025466,0.063553
0.082473,0.029055,-0.053963,0.036265,-0.027134,-0.0061621,-0.017692,0.028764
-0.29344,-0.025124,-0.044145,-0.079796,-0.021022,0.024459,-0.014256,-0.076133
0.03969,-0.024584,0.16185,0.14171,0.017101,-0.038925,-0.02709,-0.0016532
0.041845,0.069541,-0.17717,-0.016329,0.017247,0.014749,0.013851,-0.0060925
-0.013996,-0.063195,0.1347,0.13451,0.026377,0.0059184,0.0068541,0.0039105
0.2238,0.014685,-0.082206,-0.17929,0.0052333,-0.0028218,0.014375,0.059359
-0.18171,-0.0092215,0.19504,0.26766,0.0080511,0.019819,0.01301,-0.027325
0.020443,-0.009718,-0.057976,0.067103,0.0029652,-0.035555,-0.0284,-0.0060484
-0.027881,-0.0021939,-0.12372,-0.38494,-0.065346,0.026299,0.0074605,-0.024991
-0.067562,0.029181,-0.018987,-0.075081,0.02137,0.03342,0.019198,0.017803
0.058837,0.0063905,0.083489,0.37798,-0.010567,-0.037698,-0.00077542,-0.0099942
-0.030629,0.0075327,-0.035394,-0.22152,0.0029769,-0.022997,-0.013104,0.0093166
0.14881,-0.014429,-0.13322,-0.10719,-0.00012341,-0.00052459,-0.0017863,-0.0097273
0.11262,0.057439,0.37671,0.20717,0.027597,0.014249,0.01018,0.058247
-0.26485,-0.066207,-0.37168,-0.064985,-0.014746,0.013714,-0.015806,-0.052163
-0.023673,-0.065296,0.036928,-0.084974,-0.032779,-0.033183,-0.14184,-0.044034
0.014662,0.020963,0.11924,0.18868,0.044246,0.029939,0.19484,0.066884
0.10684,0.067523,-0.014637,-0.062699,-0.0022589,0.015604,-0.013558,0.0068781
0.048814,-0.0036964,0.049536,-0.088586,0.0072519,-0.013792,0.0061432,-0.0056791
0.0041029,0.033969,0.092625,0.040017,0.017684,0.011844,0.0034289,-0.01027
-0.24618,-0.045911,-0.20654,0.086924,-0.018414,-0.017157,-0.053644,-0.022919
0.18109,-0.055691,0.025897,-0.012992,-0.01572,-0.022975,-0.025189,-0.0048884
-0.064991,0.036036,-0.062789,-0.15334,-0.006,0.025382,0.017834,-0.0032683
0.11807,0.080998,0.22956,0.3506,-0.020817,-0.0050545,0.028111,0.036529
-0.1047,-0.084692,-0.16794,-0.2845,0.025715,0.010682,-0.017963,-0.0026814
-0.044938,0.023511,0.072741,0.09668,0.00098453,-0.0054378,0.012538,-0.011437
0.14168,-0.023923,-0.048005,-0.18515,-0.00087032,-0.0063386,-0.020651,0.026034
-0.12277,-0.0003216,0.040917,-0.19089,-0.026248,-0.015199,0.03143,-0.030704
0.098979,0.03967,-0.24545,0.30852,0.034676,0.015114,-0.025947,-0.0095592
-0.021753,-0.02901,0.21885,0.050221,-0.0052706,-0.024579,-0.020369,0.0037653
-0.032605,-0.026847,-0.003045,-0.017997,0.025929,0.037679,0.032924,0.0094995
0.17504,0.092751,-0.05155,-0.02726,0.0032211,0.014327,-0.0065255,0.031286
-0.19624,-0.029941,0.29178,0.10903,-0.026734,-0.0088875,0.033065,-0.040092
-0.060705,-0.028092,-0.05968,0.22649,-0.0017368,-0.00098496,-0.020505,-0.0014206
-0.0040617,-0.01137,-0.18487,-0.37903,-0.039282,-0.01693,-0.019294,-0.0011276
0.060204,-0.0033668,-0.14695,-0.091659,0.03227,0.0055765,0.051764,0.031025
0.046914,-0.011878,0.046018,-0.06107,0.025295,-0.019455,-0.081269,-0.0223
0.08178,0.064855,-0.02765,0.047722,-0.013329,-0.0059611,0.02659,0.026194
-0.092546,-0.038447,0.070118,0.21847,-0.020995,0.038539,0.047139,-0.019032
-0.022866,0.01458,0.10567,-0.15077,-0.0053422,-0.033983,-0.042847,-0.025376
0.13421,-0.025638,0.17339,0.18188,0.026,0.01129,0.0071142,0.030441
-0.20018,-0.041571,-0.17944,0.044273,-0.0049482,-0.0049473,0.010202,-0.015726
0.11358,0.021647,-0.015208,0.15496,0.0034461,0.026921,-0.11876,0.031441
-0.050677,0.10148,0.0254,-0.40791,0.012098,0.0053792,0.2147,-0.023285
-0.045625,-0.021102,-0.15934,-0.06577,-0.0025329,-0.015045,-0.19986,-0.023512
0.096506,-0.073099,0.0007343,0.041607,-0.017162,-0.019066,0.16123,0.0074861
-0.031219,0.023071,-0.002344,-0.037722,-0.0085123,0.0084786,-0.085014,-0.00046346
0.20373,0.0012694,0.12028,0.14277,0.023287,0.035837,0.053125,0.054283
-0.24529,0.033011,0.14952,0.32614,-0.039023,-0.046826,0.0045935,-0.039213
0.013133,-0.030263,-0.01671,-0.40142,0.031111,0.025762,-0.043958,0.015837
0.042843,-0.016524,-0.17594,0.14708,-0.024078,-0.035654,0.00041781,-0.01508
-0.17002,-0.04255,-0.07101,-0.12334,0.029863,0.011092,-0.03477,-0.022742
0.1265,0.071917,0.23509,0.35601,0.0055254,0.009889,0.037642,0.039614
0.043638,-0.031895,-0.32814,-0.3072,0.020188,0.039125,-0.0089345,-0.0077287
0.18443,0.0058785,0.3332,0.041939,-0.02762,-0.041489,0.044498,0.0071847
-0.23155,0.01361,-0.21789,-0.2457,-0.036245,-0.0050286,-0.10631,-0.032645
0.030198,0.0068642,0.019331,0.0018142,0.0022136,0.031661,0.10167,0.00586
-0.023153,0.063402,0.17069,0.65245,0.017517,-0.032695,-0.041988,-0.025449
0.029031,-0.051733,-0.052097,-0.64412,0.025319,0.013043,0.08031,0.029913
0.0053818,-0.034514,0.031248,0.30099,-0.036925,-0.010709,-0.078037,0.015802
0.021185,-0.010521,-0.32895,-0.16726,0.025966,0.0054116,-0.016903,0.010272
0.019866,0.012079,0.23448,0.053505,0.026279,0.030036,0.029347,-0.0025634
-0.070544,0.0097973,0.049331,0.018233,-0.0128,-0.030802,0.03721,-0.0074912
-0.071593,-0.040531,0.0056053,0.28136,-0.021192,0.0023051,-0.055917,0.0028202
0.1801,0.080383,0.024379,-0.27491,-0.0068491,0.0040526,-0.0079569,-0.0033273
0.020395,-0.0095773,-0.027945,-0.010706,0.014611,-0.0024085,0.071602,-0.0028138
-0.1986,-0.04406,-0.019105,-0.11409,-0.0035056,0.013949,-0.20018,-0.058259
-0.014886,-0.030261,0.0039022,0.31318,-0.021803,0.0061251,0.23122,0.041369
0.19016,0.06345,-0.091326,-0.2677,0.0070199,-0.041512,-0.032829,-0.00052217
-0.042757,-0.028483,0.00080274,-0.082663,-0.049428,0.011774,-0.016026,0.011772
-0.047978,-0.0016567,-0.031012,0.15817,0.082609,0.0021297,-0.023303,0.023987
0.0040134,0.041766,-0.052786,-0.028879,0.020444,0.015758,-0.062668,-0.026005
-0.010777,-0.016217,0.25658,0.13772,-0.0016463,0.01387,0.076737,0.01832
0.03316,0.042277,-0.0012251,-0.17042,-0.038653,-0.02674,-0.050326,-0.0069438
-0.028272,0.021202,-0.037832,0.34274,0.0027381,-0.0043602,0.079822,-0.00017956
-0.031576,-0.095497,-0.018696,-0.097431,-0.018562,-0.0048847,-0.11838,-0.039534
0.15505,-0.057835,0.023102,-0.28126,0.037681,0.041935,0.15241,0.031172
-0.11812,-0.029479,-0.29714,-0.2957,-0.086583,-0.035933,-0.10733,-0.0069049
-0.047794,0.091836,0.34716,0.77282,0.077339,0.026926,0.032487,-0.0054457
0.10696,0.017857,-0.13084,-0.59906,-0.032936,-0.01189,-0.091963,0.011973
-0.061042,0.014917,-0.043722,0.21428,0.035963,-0.0041056,0.066199,-0.0016917
0.049355,0.067827,0.054519,0.22938,0.01092,0.0033398,0.022317,0.01587
0.039861,-0.026446,-0.1004,-0.43554,-0.013975,-0.0051162,0.072708,0.017583
-0.17475,-0.057176,0.063553,0.24383,-0.014968,-0.021478,-0.049015,-0.059231
-0.054307,-0.0091353,0.12626,0.041509,-0.030862,0.0092117,-0.015552,0.035298
0.19157,-0.031191,-0.074832,0.028053,0.032272,-0.0065079,-0.030741,-0.027007
-0.076557,0.0013209,-0.01521,-0.12471,-0.012985,0.033166,0.014374,0.019513
0.095273,0.010099,0.0087502,0.18459,0.05989,0.0033547,0.057293,0.0030977
-0.0036193,0.034195,-0.042051,-0.27077,-0.077385,-0.02566,-0.18277,-0.021397
-0.092331,-0.027853,0.16003,0.1889,0.05148,0.039682,0.19348,0.01653
0.078277,0.074102,-0.22169,-0.19395,-0.03825,-0.035304,-0.17221,-0.00013379
0.1008,-0.011369,0.038476,-0.012662,0.028013,0.014639,0.11192,0.03031
-0.18219,-0.049797,0.08814,0.22538,-0.03921,-0.013967,0.093724,-0.017057
-0.060681,-0.0098857,-0.010871,-0.018661,0.048776,-0.004215,-0.10903,-0.040643
0.042956,-0.03224,-0.15746,-0.12772,0.010456,-0.018767,-0.04311,0.029849
0.0037142,0.070642,0.27316,0.10071,-0.029286,0.01265,0.13483,-0.0087538
0.13452,0.040943,-0.10963,0.071879,0.0077441,0.027602,-0.11509,-0.00027594
-0.048311,-0.090107,-0.094668,-0.24677,-0.01882,-0.005021,0.018505,0.016127
-0.020552,-0.01006,0.12314,0.21377,-0.02262,0.0087075,0.08908,0.016908
-0.070587,0.015364,-0.13538,-0.055375,0.0046715,-0.024775,-0.10762,-0.037111
-0.018284,0.02507,0.099076,0.046804,0.016696,0.0040882,0.021269,-0.013234
0.12085,0.065709,-0.016793,-0.018645,0.045119,0.0095321,0.02995,0.018122
0.034127,-0.073925,-0.076475,-0.18843,-0.011393,-0.00047142,-0.073824,0.010003
-0.060157,-0.0034813,0.0059396,-0.10966,-0.043459,-0.017967,0.10875,0.024867
0.064019,0.034635,0.12072,0.32082,0.02684,0.0040396,-0.14037,0.0080402
-0.17976,-0.061244,0.087564,-0.067373,0.011648,0.010938,0.14068,-0.071649
0.083261,0.037058,-0.10213,0.13303,0.0043043,-0.012875,-0.031459,0.012515
0.056279,0.0094514,0.01967,-0.1167,-0.011176,0.002867,-0.038644,0.018558
-0.13531,-0.042124,-0.15691,0.0033552,-0.011572,0.026801,0.033986,0.0014156
0.087251,0.054694,-0.069481,-0.14846,-0.028151,-0.0037412,-0.031756,0.023824
0.0059181,0.0035633,0.17284,0.11396,-0.0060491,-0.010822,0.05348,-0.023412
-0.0036929,-0.046568,0.031563,0.172,0.015991,-0.010237,-0.030622,-0.023019
-0.019327,0.021905,-0.00045664,-0.07702,0.03052,0.0057151,-0.073409,0.024974
0.14658,-0.048566,-0.031999,-0.11804,-0.016848,-0.017678,0.065209,0.03449
-0.076516,0.054585,-0.054896,-0.25556,0.014668,0.013396,-0.068639,-0.041575
-0.071911,0.018707,0.055888,0.38629,0.023473,-0.0024872,0.15698,0.030888
-0.012066,0.0075055,0.081335,-0.089509,0.017184,0.028594,-0.02448,-0.02182
-0.030384,-0.026407,-0.12748,-0.079742,-0.059182,-0.033821,-0.027901,-0.020216
-0.033628,-0.0055029,0.11639,0.15149,-0.018427,-0.0021167,-0.064805,-0.019109
0.23561,-0.00069335,-0.13283,-0.17597,0.014229,0.022176,-0.01042,0.036157
-0.13699,-0.09844,-0.00036036,0.086742,0.015264,-0.0078821,0.0026248,0.012809
0.043724,0.11492,0.11544,0.24405,-0.023076,0.0013054,-0.0016609,0.012492
-0.026896,0.029762,-0.058439,-0.27531,-0.0068734,0.01046,0.1182,-0.01938
-0.012714,-0.041492,-0.068236,-0.042996,0.048459,-0.0040899,-0.1134,-0.0045812
-0.0070869,0.041869,0.071178,0.087852,0.018114,0.0043299,0.10914,0.0022953
-0.056347,-0.071454,-0.030151,0.076688,-0.027481,-0.026901,-0.26039,-0.029914
-0.03489,-0.052908,0.026637,-0.17927,-0.033627,-0.011858,0.23145,0.016057
0.15939,0.1137,0.10096,0.037901,0.015201,0.026126,0.02208,0.038712
-0.012247,-0.016306,-0.16695,0.024634,0.0094404,0.0013072,-0.0061327,-0.016582
-0.057563,-0.012573,0.0033631,0.10897,0.0035273,0.0076831,-0.04919,-0.0091631
-0.047168,-0.015153,0.14205,0.0020337,-0.0028152,0.0064407,-0.029729,-0.017135
0.073057,-0.054888,-0.048944,-0.14738,-0.0020396,-0.025652,0.02817,0.0063874
0.075832,0.03246,-0.015994,0.028417,-0.033422,-0.025972,-0.016495,0.014526
0.0073371,0.11397,0.03707,-0.0012089,0.066975,0.06019,-0.023143,0.015077
-0.14855,-0.045108,-0.1946,0.0066873,-0.021166,-0.017247,-0.093075,-0.031058
-0.024841,-0.046967,0.35975,0.41242,-0.0086478,0.0071702,0.14915,0.016687
-0.058863,-0.040812,-0.33789,-0.36098,-0.0045613,-0.015215,-0.06161,-0.037086
0.046678,0.042863,-0.03609,-0.18712,-0.0084947,0.0013102,0.14216,0.026263
0.13606,-0.0076133,0.1495,0.068325,-0.0043282,-0.0059293,-0.0050281,0.042539
0.084766,0.057201,-0.061077,-0.093243,-0.0071834,0.017663,-0.21425,-0.035272
-0.099115,-0.028626,0.067336,0.071365,-0.024451,-0.029463,0.16264,-0.0041673
-0.017052,-0.022908,0.14416,0.27333,0.084748,0.0090594,-0.10912,-0.012664
-0.028463,-0.026897,-0.018723,0.019728,0.015745,0.016229,0.079484,0.025167
-0.055273,0.069385,-0.039596,0.074503,-0.059816,-0.023361,-0.029605,-0.023404
0.07444,-0.030118,-0.044631,-0.23661,-0.040827,0.023304,0.016625,0.044922
0.0093202,-0.027617,-0.12846,-0.16625,0.040861,0.0079299,-0.0083526,-0.043044
-0.07841,-0.039428,-0.0023056,0.072283,0.020544,-0.014743,-0.010651,-0.0057602
-0.032097,0.02887,-0.064262,0.032035,0.014837,-0.013506,-0.013522,-0.0070057
0.19547,0.09168,0.13184,0.1264,0.0077265,0.019321,-0.063667,0.00031492
-0.17679,-0.030744,0.032358,-0.019235,-0.063415,-0.010208,0.16715,0.055373
0.15568,-0.0029245,0.013102,-0.075419,-0.0031019,0.022681,-0.024138,-0.0059267
