0.0098903,0.020865,0.17151,0.014706,0.0044379,-0.0015212,-0.0042936,-0.0073767
-0.021326,0.0107,-0.2197,-0.00045506,-0.012271,-0.02667,0.011256,-0.0075393
0.0022085,-0.0070166,0.10504,-0.01436,0.010948,-0.0045712,-0.012502,4.6766e-05
-0.005577,0.022588,0.18586,0.019542,0.011601,0.0023884,-0.0052295,-0.00014885
0.0098671,-0.072271,-0.84293,-0.00078446,0.020747,0.041116,-0.0059302,0.03099
0.0015588,0.044332,0.84066,0.0022503,-0.0010151,-0.02125,0.0089164,-0.00029699
0.00069851,0.028538,-0.24627,-0.018721,-0.030646,0.0026781,0.015963,0.0074777
-0.023941,-0.04171,0.037934,-0.0093712,-0.0060002,-0.020065,-0.00033308,-0.0082976
0.021485,0.083378,0.2092,0.03013,-0.0054319,-0.011512,-0.00084554,-0.02429
-0.011306,-0.096386,-0.13123,-0.032981,-0.02118,0.0047573,-0.008967,-0.017112
0.0185,0.012631,-0.32015,0.012474,0.032817,0.059896,-0.0012329,0.02108
-0.0060891,0.011982,0.31333,-0.0049958,0.00056364,-0.049268,-0.016696,0.0044711
-0.0067774,-0.0044782,0.033981,-0.014638,-0.0004435,0.005406,-0.016304,0.0035636
0.0087461,0.033763,-0.14303,0.069897,0.02227,0.0052401,0.046778,0.0029485
-0.021962,-0.052739,0.087048,-0.040143,-0.017034,-0.01058,0.00060113,-0.0049917
0.01045,0.0096838,-0.23622,0.01477,-0.001095,0.0049725,0.016933,0.0033086
0.012132,0.03369,0.15345,-0.054446,-0.015905,-0.018265,-0.029348,-0.018997
0.0063474,0.0036965,-0.18101,0.017643,0.024308,0.021381,-0.021162,0.013944
-0.022753,-0.041326,0.15079,0.0041499,-0.0056877,-0.0088659,0.010174,0.00036979
0.026147,0.054663,0.061695,0.076539,0.0032292,0.039367,0.017782,0.018124
-0.01906,-0.01331,0.13538,-0.07031,-0.035106,-0.045024,-0.0139,-0.0034276
-0.010122,-0.05024,0.23603,0.00072733,0.027578,0.018962,0.0011796,-0.0099021
0.02941,0.084235,-0.13954,0.062834,0.019327,-0.011156,0.016285,-0.0015256
-0.033308,-0.08663,-0.32196,-0.13407,-0.036414,0.0049673,-0.030959,-0.017463
-0.0029144,-0.031672,0.015733,0.058564,0.001068,0.012435,0.023589,0.0048317
0.02695,0.061608,-0.3445,0.0003921,0.014736,-0.01228,-0.015376,0.0030386
0.0095608,0.0057596,0.20922,0.082434,0.036025,0.016824,0.023942,0.0165
-0.015855,0.027411,0.0010722,-0.077685,-0.052054,-0.05628,-0.014857,-0.024777
-0.0022572,0.0094487,0.43395,0.020453,0.016316,0.065646,0.024283,0.0045001
-0.011989,-0.024587,0.090176,-0.036877,-0.016511,-0.054454,-0.022889,0.018613
0.033218,0.034847,-0.050434,0.055243,0.013657,0.013561,-0.0080685,0.017671
-0.014941,-0.10103,-0.4234,-0.031205,0.020971,0.027879,0.014027,-0.0061356
-0.015728,0.013489,0.050044,0.008457,-0.010153,-0.019087,-0.0033795,-0.021634
0.0075092,0.019516,-0.076024,0.010058,-0.0094068,0.01331,-0.020998,0.00231
-0.015495,-0.027791,0.10305,-0.010958,-0.00027217,0.0076901,0.02399,-0.012541
0.008998,0.075039,0.24897,-0.0079367,-0.014078,-0.020691,-0.016499,-0.0037642
0.018401,-0.031264,-0.42242,0.0032582,0.003753,0.0058089,-0.0093364,0.012974
0.0047367,0.051538,0.57018,0.014575,0.021828,0.032005,0.014431,-0.0092196
-0.00097368,-0.028622,-0.30741,-0.060156,-0.0069008,-0.028456,0.023594,0.023383
-0.0067983,-0.014658,0.020643,0.036651,-0.004501,-0.011763,-0.0054205,-0.0064581
-0.012972,-0.024571,0.11552,0.046966,0.0053935,-0.019519,0.020845,0.0027262
0.027219,0.073704,-0.20249,0.025281,0.0148,0.01876,-0.015179,0.019561
-0.042531,-0.079747,-0.14304,-0.083233,-0.023269,-0.013779,-0.051383,-0.034207
0.0044088,-0.047663,-0.094448,-0.0051951,0.0083487,0.016088,0.03692,0.005385
0.019771,0.0841,0.25082,0.056333,0.00035257,0.038443,-0.00045708,-0.002323
0.0037874,-0.012221,-0.010817,-0.015642,-0.023654,-0.024551,-0.022926,-0.0026015
-0.012057,-0.00013676,0.44286,-0.048942,-0.0087573,-0.00088811,0.008656,-0.010962
0.011477,0.042846,-0.41872,0.011482,0.021836,-0.031239,-0.038378,0.019629
-0.027097,-0.078008,0.28667,-0.0059061,0.021433,0.032639,0.070488,0.0033974
0.036233,0.06744,-0.30988,0.055384,-0.0020743,0.010764,0.0072136,0.0029739
-0.0018227,-0.059605,-0.17166,-0.0076932,-0.0096628,-0.011247,0.021806,-0.0050115
-0.00088255,-0.013763,-0.12157,-0.031165,0.0063295,0.028826,-0.026406,0.0028724
0.030981,0.15017,0.36931,0.06287,0.006621,-0.072328,-0.035907,0.0031152
-0.070501,-0.13054,0.29145,0.016333,-0.016829,-0.010084,-0.045745,-0.020027
0.0070699,0.0031793,-0.1763,-0.038169,-0.0095092,0.020294,0.037945,0.0036221
-0.0018944,0.035398,0.26324,-0.05381,-0.0027539,0.057993,0.059141,0.0036252
0.027769,-0.0028769,-0.50565,-0.085145,-0.01216,-0.045276,-0.028732,0.011143
-0.0052575,-0.088373,-0.63663,0.024352,0.03271,0.054374,-0.006605,0.010514
0.00867,0.067878,0.41261,0.095295,-0.0085781,-0.017956,-0.069531,-0.021674
-0.01616,-0.010732,0.37195,0.049744,0.012623,-0.027806,0.071689,-0.0072079
0.021952,0.074201,0.34561,0.02828,0.0027571,0.0092941,0.0029585,0.007177
-0.0097808,-0.0054741,-0.00096457,-0.047524,-0.014585,-0.047153,0.028747,-0.0017856
-0.0020671,-0.023209,-0.42561,-0.068798,-0.0080494,0.029592,-0.0075617,0.012953
-0.0019451,-0.049285,0.085976,0.026385,0.0067927,0.02098,-0.012664,-0.0031484
-0.0096159,-0.052341,-0.28862,0.0031673,0.0065189,-0.018107,-0.041679,-0.01094
0.00598,0.038131,0.14356,-0.044959,-0.032326,0.037468,-0.0011858,0.0052184
0.02127,0.073952,0.013193,0.077366,0.046462,-0.02319,0.038339,0.0061999
-0.018479,-0.038345,0.12339,-0.0044962,-0.0071811,-0.012658,-0.055908,-0.00031652
0.0039781,0.029621,0.0044746,-0.063376,-0.021466,0.0063653,0.052171,0.0089254
-0.0049491,0.0046122,0.11711,0.0030247,0.011323,-0.005486,-0.019992,-0.013148
-0.021592,-0.042924,-0.23374,0.015734,-0.018291,0.006098,0.040369,-0.012036
0.032428,0.019898,0.10101,0.022167,0.014586,-0.0061677,-0.024326,0.012116
-0.030172,-0.072529,-0.11999,0.014758,0.031727,0.051073,0.0048356,0.0045263
0.0094725,0.023504,-0.19288,0.016837,-0.029462,-0.064695,0.026384,-0.019216
0.018519,0.065696,0.41396,-0.011099,-0.012816,0.044753,-0.037769,0.01121
0.012401,0.014774,-0.1747,-0.038478,-0.019964,-0.073778,-0.11731,0.0020998
-0.0013927,-0.043622,0.071556,0.0042383,0.027165,0.056367,0.15493,0.0082069
-0.0076316,-0.031737,0.22164,0.061661,0.042604,0.021363,0.0054878,0.0061786
0.0089368,0.081294,-0.16351,-0.10107,-0.028336,-0.053437,-0.050041,-0.0038771
-0.03007,-0.017359,-0.077414,0.047112,0.0018797,0.027698,0.074266,0.0016201
-0.015348,-0.070102,0.065251,0.029813,-0.015093,0.015205,-0.090327,-0.016206
0.0063721,0.024572,-0.32109,-0.058768,-0.024415,-0.04364,-0.035943,-0.018063
0.019801,0.03239,-0.039744,-0.038309,0.020996,0.023364,0.073469,0.011927
0.0097745,-0.046418,0.28636,0.099673,0.0041856,0.036755,0.0036757,0.019311
-0.023222,-0.0084505,-0.27015,-0.042706,0.011311,-0.042413,-0.042064,-0.011365
0.022784,0.052783,0.6365,0.050496,0.0034686,0.020245,0.030073,0.005894
-0.016026,-0.026655,-0.10172,-0.026951,-0.011468,0.0058995,0.02475,0.00068251
0.00099771,0.026643,-0.16398,0.013751,-0.010122,-0.085599,-0.042553,-0.0038101
0.018961,0.02501,-0.097231,0.031508,0.0073269,0.097106,-0.054907,-0.00015397
0.014024,0.01509,-0.089408,-0.10705,-0.0062792,-0.024363,0.15923,0.02681
-0.037779,-0.10486,-0.25031,0.011621,0.019028,-0.028423,-0.10363,-0.024957
0.0036246,0.063576,0.30264,0.0043192,0.012584,0.02211,0.070284,-0.0074237
0.0049552,-0.0027861,0.17877,0.042723,-0.018091,0.064419,-0.045767,0.0010226
0.020611,-0.014363,-0.19221,0.033089,-0.0028604,-0.081469,-0.061167,0.0081309
-0.011953,-0.048538,0.009914,-0.016578,0.003581,0.021731,-0.085134,-0.0015695
-0.01439,0.012694,-0.043303,-0.043429,-0.02203,-0.0088977,0.20291,0.0035271
0.0059481,0.052837,0.25694,0.046746,-0.0012325,-0.03271,-0.087385,-0.0073264
-0.044068,-0.037124,0.1834,-0.08147,-0.011716,0.051996,0.0442,-0.025749
0.023728,0.00047578,-0.40517,0.064623,0.025097,-0.020171,0.035245,0.019104
0.030224,0.055531,-0.1888,0.0010745,0.039268,0.032322,-0.075232,0.010449
0.014849,-0.021659,-0.026879,-0.053111,-0.031478,-0.048048,0.048586,-0.0046496
-0.006702,0.032927,0.18232,0.011461,0.0082108,0.051482,-0.046535,0.028441
0.0043911,0.014516,0.1889,0.069538,-0.005874,-0.059499,-0.0090473,5.3056e-05
-0.030513,-0.03915,0.039386,-0.012192,-0.011516,0.033226,0.0049236,-0.012152
0.012892,0.027527,-0.4938,-3.1607e-05,0.014363,0.048504,0.011266,-0.0087141
-0.014581,-0.043008,0.42351,-0.019706,-0.022347,-0.060493,0.025946,-0.013582
0.019207,-0.062037,0.5,0.0062805,0.018678,0.010921,-0.052272,-0.011517
-0.011231,-0.10567,-0.57911,-0.024033,-0.011204,-0.073244,-0.082563,-0.0027277
0.0032528,0.12536,-0.26085,-0.032605,0.0051069,0.06189,0.18507,0.028389
0.0002321,0.031772,0.11051,0.035502,-0.0026826,0.017683,0.015987,0.0038435
0.019128,-0.025498,0.11413,-0.0067016,-0.0032245,0.020406,-0.027763,0.0098104
-0.048843,0.086785,0.12771,-0.033562,0.0036246,0.022825,-0.017066,-0.039375
-0.0076369,-0.046372,0.12407,0.06494,0.0023932,-0.061364,-0.21028,0.0049796
0.041947,0.025979,-0.39185,0.0080503,0.016657,0.033166,0.18129,0.025883
-0.00097493,0.10552,-0.071271,0.0069687,0.0074678,-0.029675,0.040305,0.0078358
0.051601,0.0094109,0.23853,0.030448,-0.0094601,-0.038902,-0.070615,0.013406
-0.057873,-0.14775,0.12621,-0.10141,-0.041861,0.029165,-0.010517,-0.027679
0.0065562,-0.031305,-0.36087,0.0016653,0.011901,-0.020395,0.025736,-0.01381
-0.020961,-0.06271,0.11126,0.026795,0.011267,0.062862,0.0073648,0.00040787
-0.0080324,-0.021019,0.507,0.0048824,-0.004654,0.0059015,-0.033989,-0.016154
0.013525,0.050499,0.10937,0.021615,0.011021,-0.042569,0.11286,0.0069515
0.035237,-0.17979,-0.30708,-0.0090772,0.026999,0.026923,-0.11452,0.01514
-0.060779,0.32346,-0.46731,0.014353,-0.011496,-0.0044513,0.02599,0.016246
0.092002,-0.030485,-0.16498,-0.033007,-0.010833,-0.019717,0.0029302,0.017991
-0.014777,0.0096769,0.40233,-0.025999,-0.018003,-0.0035302,0.019195,-0.0032646
-0.084593,0.099518,-0.085445,-0.011302,-0.017466,-0.010859,-0.034799,-0.032179
0.046531,-0.02905,0.39762,0.09721,0.029803,0.036206,0.020505,-0.0065555
-0.027435,-0.14534,-0.21465,-0.028434,0.0066357,0.075064,0.02884,-0.0047799
0.037774,0.051192,0.17649,0.049374,0.014648,-0.15207,-0.0096987,0.027666
-0.0070829,-0.10727,-0.5254,-0.098981,-0.032022,0.026846,-0.14182,-0.018647
0.010775,0.0015049,0.25459,-0.028132,-0.0004873,0.010481,0.11705,0.0047768
-0.017107,0.087077,0.17625,0.035416,-6.8893e-05,0.033477,0.0092077,-0.0034871
-0.03525,-0.25682,-0.33644,0.029217,0.023947,0.0023016,0.058115,0.0036143
-0.0040697,0.2131,0.29517,0.054863,0.0090554,0.042061,-0.033245,0.010626
0.053125,0.053232,0.093481,-0.067351,-0.02134,-0.066022,-0.038582,-0.0057662
-0.028056,0.19508,-0.27977,-0.056269,-0.0047863,0.013839,0.0026939,0.0091809
0.032864,-0.38329,0.11763,0.048869,-0.011649,-0.015467,-0.042579,-0.030487
0.023827,0.23314,0.15734,0.044677,0.012711,0.017673,0.05969,0.031409
0.021678,0.05257,0.031702,0.02459,-0.0020649,0.05052,-0.0031737,-0.0083537
-0.029463,0.074983,-0.58172,-0.089846,0.0064744,-0.1046,-0.028092,0.014204
-0.06795,-0.38732,0.011329,0.07608,0.014834,0.044421,0.00063783,-0.025956
0.038711,0.056149,0.78738,-0.09501,-0.016116,-0.025868,0.028512,0.0040172
-0.084177,0.038288,-0.44032,0.021822,-0.0083163,0.036156,0.024549,-0.0051368
0.040827,0.028145,-0.13164,0.059466,0.014742,0.027461,0.012524,0.0014473
0.016559,0.20583,-0.074669,-0.060011,-0.0094577,-0.012772,-0.077491,0.0083483
0.031931,-0.03761,0.16859,0.07772,0.028491,0.040595,-0.07321,-0.015503
-0.021162,-0.030005,0.34802,-0.066108,-0.035383,-0.07008,0.15858,0.015943
0.069116,-0.16965,-0.06823,0.02441,-0.013432,-0.032089,-0.069288,0.0089454
-0.024967,0.090321,0.083116,0.0057584,0.032022,0.014175,0.094973,0.010278
-0.02228,-0.26582,-0.37809,-0.0047029,-0.02384,-0.024835,-0.14545,-0.019312
0.053198,0.44146,-0.42029,-0.053754,0.0066218,0.069747,0.014022,0.013687
-0.11184,0.071403,0.3093,0.07737,0.021909,0.040071,0.10433,-0.023766
0.036396,-0.29013,0.30494,-0.033272,-0.0092597,-0.035961,-0.023405,0.00097132
-0.049816,0.075673,-0.18874,-0.018628,0.0067439,-0.010292,-0.033807,0.001886
0.027248,-0.17471,0.22891,0.035183,-0.0083869,-0.031829,-0.013406,-0.013187
0.032658,-0.0096784,-0.16729,0.002964,0.0076552,0.063039,-0.0018263,0.026168
0.13007,0.15705,-0.135,-0.013884,3.5511e-05,-0.030701,0.0082814,0.0029086
-0.1808,0.20065,0.26204,0.054868,-0.015677,-0.047543,0.032233,-0.0046967
-0.0095021,-0.16025,-0.064629,-0.064183,-0.00036276,0.004823,-0.047278,-0.012173
0.11269,-0.14498,-0.31371,-0.066194,-0.016363,0.02517,0.043277,0.011759
-0.064097,0.17523,0.80797,0.056897,0.0068495,0.013974,0.0073333,-0.011081
0.093282,-0.20088,-0.7107,-0.022757,-0.00083525,0.018626,0.048529,0.0051131
-0.1021,0.15505,-0.12203,0.077873,0.023201,-0.030738,-0.16839,0.0054662
-0.016638,0.10119,0.29978,-0.039564,0.008626,0.0068036,0.099528,0.0053964
0.12412,-0.14453,-0.11616,0.015486,-0.0056673,-0.0092701,-0.092261,-0.010902
-0.13189,0.12862,0.49224,0.055316,0.026908,0.014695,0.045919,0.0033387
-0.041488,-0.21155,-0.37085,-0.037524,-0.026795,-0.023115,0.13943,0.0090651
-0.049299,0.062976,-0.091028,-0.052307,-0.010807,-0.0058513,-0.053909,-0.0091989
0.12612,0.10284,-0.46785,-0.043796,-0.019026,0.22241,-0.018773,-0.0042892
0.16402,-0.10487,0.28432,0.058422,0.011089,-0.26043,-0.0057426,-0.01487
0.039923,-0.19017,0.42606,-0.065717,-0.021799,-0.0013117,-0.078029,0.0063821
-0.2086,0.33371,0.30163,0.12316,0.023293,-0.015736,0.044907,0.0051922
-0.051959,0.085473,-0.38003,-0.030951,0.0061419,0.024651,0.01871,0.0052891
0.016179,-0.35647,-0.34973,-0.074838,-0.0026023,0.081025,-0.055489,-0.0088603
0.002614,0.2333,0.16799,0.069481,0.028501,0.020695,0.079873,0.017281
0.094493,-0.21026,0.57311,0.089138,-0.0021132,0.015455,-0.028416,0.0051998
-0.043773,0.21546,-0.4995,-0.16483,-0.047763,-0.083425,0.0024946,0.0012006
-0.028408,0.2874,-0.32743,0.10388,0.055282,0.059551,0.032113,0.020257
0.040427,-0.5769,0.048282,-0.081769,-0.029302,-0.056081,-0.033113,-0.031989
-0.062239,0.21265,0.27657,0.035748,0.010635,0.022441,-0.044496,-0.023163
0.04794,0.013007,0.25089,-0.012324,-0.020449,-0.040975,0.021692,0.0074944
-0.010607,0.073521,0.23367,0.039909,-0.013245,-0.011859,0.048575,-0.0023948
0.075408,-0.0030025,-0.69121,-0.041429,0.0089145,0.078858,-0.026031,0.0022536
-0.0062641,-0.22134,-0.11937,-0.0057202,-0.0084202,-0.0418,-0.0065156,0.006408
-0.09965,0.055697,0.0716,0.0070209,0.036615,-0.02178,0.013637,0.018556
0.04453,-0.018426,0.26808,-0.018364,-0.0041296,0.045587,0.026832,0.0080821
-0.00445,0.022031,0.0024927,0.05897,-0.013259,-0.0035024,-0.12302,-0.024531
-0.013435,0.032368,0.054474,-0.01887,0.009318,0.041968,0.10322,-0.008715
-0.054011,0.28021,0.037016,0.0212,0.0010756,-0.052458,0.010234,0.0086503
0.10697,-0.1798,0.43629,0.022401,0.0087783,0.033351,-0.011443,0.019492
0.030918,-0.029397,-0.23082,-0.023635,-0.014591,-0.067988,-0.032331,0.0077197
-0.11898,0.13417,-0.40747,-0.023574,-0.0066488,-0.012882,0.0019649,-0.027264
0.031676,-0.037054,-0.26115,-0.03225,0.00131,0.018903,0.0051475,-0.00014808
0.052954,-0.20338,0.11397,-0.080743,-0.021921,0.035163,0.0080724,-0.0052462
-0.00030898,-0.05539,0.0095881,0.12046,0.02534,0.028097,0.033793,0.027343
-0.072862,0.15528,0.33687,-0.014,-0.0051917,-0.017924,-0.027385,-0.01977
0.06282,-0.11821,-0.062268,-0.0069857,0.011614,-0.0091924,-0.003789,-0.0059327
-0.013856,-0.046276,-0.15882,0.040304,-0.010129,-0.023919,0.010798,-0.0012086
-0.059227,0.24859,0.090122,-0.036129,-0.0079869,-0.030966,-0.030339,0.0026359
0.10007,-0.10567,0.14674,0.036898,0.017849,0.10238,0.029393,0.006126
-0.089385,0.081275,0.21259,0.071378,0.020214,-0.022392,-0.0439,0.0098097
-0.1033,0.085188,-0.34127,-0.14425,-0.0090386,-0.022461,-0.015314,-0.009257
0.14448,-0.092366,0.33916,-0.0011664,-0.0077045,-0.061818,0.076568,0.019613
0.044096,-0.26312,-0.61876,0.015874,-0.015032,0.015916,0.0055077,-0.028364
0.094403,0.27607,0.39006,0.023971,-0.023226,-0.015674,-0.079952,0.0030969
-0.081236,-0.0066332,-0.097369,-0.00011155,0.022567,0.10133,0.093487,0.0044853
-0.1018,-0.26859,-0.20536,0.037804,-0.0023343,0.0075925,-0.029206,-0.0088615
0.04676,0.19176,-0.047727,-0.04142,-0.0037806,-0.062591,-0.018816,0.017345
-0.01155,-0.049388,0.48251,-0.041932,0.0029926,0.023452,0.01479,0.0045213
0.051197,0.11508,-0.20976,0.036669,0.018273,-0.031315,-0.03036,0.0069015
-0.17839,0.14369,-0.11053,0.022679,0.0031173,-0.0082649,-0.006075,-0.022774
0.058885,-0.15343,0.12092,0.0097356,0.012144,-0.0089922,-0.0061583,0.0011753
-0.024187,-0.067406,-0.3099,0.020898,-0.0095758,0.044706,0.039829,-0.015087
0.22275,-0.3731,0.19019,-0.030342,-0.023328,0.0045673,-0.0084878,0.022286
-0.065848,0.63204,0.45359,0.01944,0.0017575,0.011456,0.021072,-0.01144
0.025208,-0.19221,0.091477,-0.056892,-0.0049658,-0.075002,-0.05871,0.016937
-0.066105,-0.016319,-0.27855,-0.033163,-0.0046629,0.018837,0.041436,-0.0014965
-0.082124,0.1386,-0.41402,0.059236,0.018199,0.0040208,0.032545,-0.011597
0.1093,-0.59163,-0.055593,0.0094807,0.0089768,0.052402,-0.069767,-0.012974
-0.12567,0.5542,0.46452,-0.033667,-0.00091603,0.015378,0.0078455,0.010263
0.063262,-0.24082,-0.5894,0.03181,-0.0034219,-0.029216,0.062125,0.011342
-0.098726,0.28409,0.51838,0.050166,-0.0060678,-0.019238,-0.00079744,-0.0020025
0.23071,-0.095496,0.11947,-0.032807,-0.024199,-0.01755,-0.040353,0.016863
0.011174,-0.30819,-0.42187,-0.091703,-0.010713,-0.032268,-0.025259,0.0050716
-0.11785,0.12245,0.087212,0.069085,0.050149,0.037967,-0.025708,-0.037806
-0.055626,0.3045,0.35495,0.027847,0.0021575,0.029006,0.036596,0.0049939
-0.036905,0.017013,-0.38002,-0.10603,0.0092793,0.019006,0.013373,-0.015324
0.12593,-0.31306,0.67456,0.10484,-0.030224,-0.0075036,0.021889,0.018175
0.042833,-0.04016,-0.83076,-0.011684,0.0084445,-0.0033739,0.03085,0.019426
-0.18364,0.27851,0.17558,0.0050078,-0.015503,-0.061959,-0.053657,-0.019391
-0.0054392,-0.038611,0.58475,0.053013,0.022861,0.067234,0.02594,0.011199
0.12554,-0.25037,-0.72033,-0.094502,-0.024848,-0.060564,-0.011852,0.0098259
0.093156,-0.099195,0.064638,-0.0079929,-0.01003,-0.038604,-0.065643,-0.015437
-0.14086,0.21992,-0.19418,-0.054638,0.012863,0.063147,0.067644,-0.0095913
0.13488,0.074761,0.69662,0.062561,0.0050094,0.018213,-0.049406,0.012069
-0.11073,0.067407,-0.64881,1.7095e-05,0.0056435,-0.0017737,0.03652,-0.01264
-0.049654,0.026251,0.67941,0.054722,0.0069998,0.088562,0.028781,0.010284
0.1538,-0.27529,-0.050267,0.015745,0.0011596,-0.094385,-0.03335,-0.0049549
-0.23515,0.13919,0.22728,0.015798,0.003502,-0.028046,0.022132,-0.011493
-0.053022,0.28529,-0.67993,-0.05465,0.0058803,0.068077,0.0077401,-0.0017085
0.050962,-0.15697,-0.36855,-0.039463,-0.01549,-0.079921,-0.13132,0.039656
0.32577,-0.30389,0.52781,-0.024571,-0.029636,-0.011181,0.15159,0.018349
0.0046128,-0.36511,-0.38783,0.013639,0.025796,0.024629,-0.0031673,-0.042755
0.00047779,0.38744,0.30197,0.028611,0.0023923,0.075055,-0.049026,0.0042685
-0.156,0.21279,0.73467,0.020731,-0.013727,-0.10903,0.052849,-0.012816
-0.011523,0.34584,-0.38922,0.052841,0.032424,0.098271,-0.096076,0.023067
-0.268,-0.35442,-0.5334,-0.10142,-0.061931,-0.060085,0.043342,-0.020705
-0.032644,0.12636,0.22845,0.011062,0.023837,0.010142,0.018253,0.012602
0.18947,-0.16668,-0.13152,0.030678,0.024316,0.02785,0.016577,-0.01692
0.20573,-0.3681,0.1388,0.042932,0.048942,0.00064403,-0.10182,-0.0068731
-0.15369,0.50527,0.17281,-0.030854,-0.035198,-0.0094841,0.022878,-0.026763
0.16669,-0.070424,-0.26488,-0.01937,-0.040841,0.05145,0.086275,0.05685
-0.099363,-0.1104,0.11229,-0.0012076,0.016063,-0.12201,0.025915,0.002106
0.13215,-0.30895,0.51939,-0.015702,-0.013275,0.047539,-0.03344,0.03553
-0.11811,0.21009,-0.55566,0.046493,-0.0041777,-0.0029639,-0.076647,-0.030771
0.13122,-0.18523,-0.031101,-0.04879,0.011843,-0.055137,0.075337,-0.0021427
-0.3803,0.80218,-0.11354,0.011333,0.042425,0.086182,-0.054727,-0.012189
-0.10756,-0.12505,0.18698,-0.053936,-0.037506,0.092931,0.056023,-0.046056
0.18307,-0.085048,0.16658,0.05268,0.037719,-0.065877,-0.0068353,0.044075
0.20272,-0.31297,-0.26778,0.057989,-0.012974,-0.030413,-0.032429,-0.015614
0.10844,-0.13701,0.44046,0.001092,-0.048653,-0.057868,-0.0048791,0.01695
-0.098659,-0.23579,-0.63578,-0.024422,0.0014217,-0.069401,-0.048649,-0.0065444
-0.11282,0.31474,-0.071876,-0.03445,-0.0028732,0.15444,0.13387,0.031403
-0.019092,-0.029511,0.68137,0.033249,0.048341,-0.088918,-0.089351,-0.032858
0.065974,-0.19556,-0.13246,-0.0011293,-0.016388,0.036667,0.024593,-0.011395
-0.19315,0.84953,-0.20072,-0.035909,0.021961,0.062251,-0.070684,0.0024154
0.2585,-0.2612,-0.10263,-0.047289,-0.016234,0.049707,0.093752,0.024454
-0.039836,-0.25579,0.3785,0.0043451,-0.029557,-0.1113,-0.021326,-0.0076764
0.068365,-0.27763,0.0057026,0.049293,0.028532,0.05472,0.021105,0.01535
-0.11181,0.57609,-0.66097,0.05682,-0.0064986,-0.086034,0.056298,-0.0082008
0.09992,-0.62764,0.26734,-0.050919,0.0054525,-0.010765,-0.072741,-0.00044474
-0.30347,0.43693,0.42288,0.093231,-0.0064261,0.1085,-0.015092,-0.00068004
-0.0086901,0.12037,-0.013745,-0.097008,0.027785,-0.063799,-0.10711,-0.048137
0.10983,-0.54541,-0.46983,-0.0050211,-0.024954,-0.011161,0.10421,0.044628
0.20841,0.20733,0.17548,-0.022118,-0.0084213,-0.068334,-0.021648,0.012062
0.075446,-0.063621,0.012595,0.046346,-0.0083911,0.11755,0.046857,-0.028465
-0.18885,0.42634,0.030353,-0.011108,-0.016748,0.00079672,-0.002451,0.0092333
0.085505,-0.45285,-0.41605,-0.038592,-0.0096941,0.019763,0.0025665,-0.007399
-0.017519,0.19871,0.13623,0.065307,0.07559,-0.059531,0.054254,0.0077791
-0.054182,-0.10372,0.74924,-0.0040623,-0.010704,-0.010633,-0.097333,0.00017849
0.037292,0.082884,-0.40816,-0.051202,-0.034179,-0.021615,-0.0068715,0.02445
-0.18803,0.090547,0.10408,-0.0055211,0.044082,0.086297,0.04442,-0.052392
-0.0099467,0.10976,0.021545,0.039545,-0.02617,-0.03173,0.025404,0.05844
0.081576,0.23739,0.056286,0.037423,0.020428,0.099819,-0.14964,0.0050662
-0.020382,-0.42848,-0.45339,0.0039963,-0.019423,-0.12925,0.1446,-0.048739
0.18627,-0.35,-0.15899,-0.11522,-0.059802,-0.031893,0.025649,0.0062176
-0.023844,0.31028,0.16589,0.039276,0.024457,0.0090662,-0.11553,0.0058483
-0.041318,-0.037161,0.21154,0.076961,-0.00071265,-0.013822,0.096279,0.020614
0.062388,-0.15176,0.17836,-0.041193,0.044745,0.032851,-0.041958,-0.050753
0.011827,-0.22973,-0.060095,0.012933,-0.0029133,0.016897,-0.03035,0.010876
-0.093812,0.63352,-0.45044,-0.081032,-0.026323,-0.0065468,0.021427,0.010558
-0.077018,0.051471,0.28627,0.0049257,0.052622,0.025161,0.0035216,0.018875
0.060707,-0.013782,0.044233,0.083137,-0.047544,0.17434,0.079401,0.035925
-0.17338,0.052996,0.043305,0.036202,0.0087582,-0.19224,-0.064069,-0.047772
0.15082,-0.22934,0.29759,0.0045261,0.033616,0.018723,-0.029017,0.009686
0.011066,-0.20293,-0.53269,-0.098006,-0.028021,-0.10714,0.012287,0.0047652
0.072994,0.070989,0.11735,-0.044906,-0.059193,0.047353,0.083143,-0.00047403
-0.028996,0.12574,-0.09434,0.077961,0.049438,0.068488,-0.18349,-0.014223
0.034458,-0.22234,0.52969,0.0051924,-0.022283,-0.11344,0.12688,-0.0054773
-0.16566,0.32973,-0.20236,0.026185,0.054083,0.11166,-0.0085879,-0.021181
