0.033053,-0.072639,0.11114,-0.0074142,-0.0044904,-0.034457,-0.025594,0.17177
-0.0079934,0.017188,-0.089292,0.015426,0.027107,-0.019409,-0.013698,0.015038
-0.048774,0.012693,0.23881,0.0070581,-0.019476,-0.028309,-0.12005,-0.48804
0.020708,-0.038273,0.018354,0.0068091,-0.0036283,0.032824,0.070294,0.014908
0.02913,0.0058506,-0.44454,-0.031974,-0.011254,-0.0075874,0.066164,0.24549
-0.0075541,0.044109,0.13307,0.02363,0.0045908,0.11638,0.0091367,-0.42488
0.066925,-0.0093849,-0.012749,0.0016931,-0.0028922,-0.10285,0.0014605,0.62562
0.041308,0.094769,-0.091627,0.026996,0.013219,-0.0010941,0.043414,0.15095
-0.15532,0.0038465,0.42045,0.0054379,0.0060364,-0.00020561,-0.13863,-0.63553
0.062221,-0.017978,0.10123,-0.024325,-0.0010961,-0.029983,0.04065,0.61028
-0.088118,-0.011122,-0.29281,-0.023598,-0.00052956,0.057804,0.049031,-0.46495
0.049234,-0.062363,-0.05284,-0.008251,-0.00027968,-0.018377,-0.028698,-0.020983
0.10662,-0.023275,-0.15002,-0.0017826,0.0072744,0.014594,0.040668,0.52358
-0.041172,-0.041357,0.038369,0.019382,-0.017053,0.0079812,-0.0095067,-0.29688
0.043456,-0.028915,0.43252,0.039925,0.012666,0.016248,-0.0080394,0.037217
-0.17819,0.008444,-0.26521,-0.033479,-0.028438,-0.070075,-0.088007,-0.35924
0.08356,0.080668,0.11739,0.0027535,0.0083326,0.014701,0.055484,0.013461
-0.069015,0.064272,-0.2542,-0.03064,0.006134,-0.010463,0.0012061,0.26652
0.083547,0.014412,-0.02613,0.022908,0.0043918,0.010996,0.023578,-0.010539
0.080866,-0.014999,-0.047223,-0.0083255,-0.0044047,0.0012856,0.022203,0.069814
0.0091753,-0.049321,0.18511,0.01625,0.011165,0.038798,-0.025173,0.23144
-0.10809,-0.028752,-0.17102,0.018287,-0.011403,-0.009141,-0.047195,-0.70061
0.017842,0.1063,0.2991,0.020852,0.021454,0.021518,0.081903,0.48822
-0.035378,-0.021602,0.34475,-0.046812,2.5354e-05,-0.025616,-0.082793,-0.3172
-0.002712,0.3127,-0.31725,-0.0054538,0.0020208,-0.010125,0.036825,0.26607
0.013683,-0.6876,-0.25202,-0.027296,-0.027658,-0.025959,0.026261,0.017444
0.052358,-0.044293,-0.10283,0.020268,0.0044195,0.0048811,-0.02153,0.081821
0.0035872,0.44867,-0.012369,0.027822,0.004341,0.027688,0.0095857,0.017017
0.070392,-0.033191,0.26052,0.011092,-0.012247,-0.019954,0.0090681,-0.14296
0.034237,-0.23637,0.098792,-0.021895,0.0017213,0.01055,-0.024197,-0.090159
-0.29962,0.36517,-0.16819,-0.016179,-0.00031732,0.01001,0.0026429,-0.046664
0.054069,-0.29784,0.14126,0.012907,0.0054332,0.0020267,0.01092,0.22812
0.07293,0.18785,-0.032962,0.0031223,0.027116,0.010149,-0.015097,-0.35149
0.023594,0.09312,-0.33702,0.0015448,-0.013152,-0.020275,0.010885,0.075762
0.10209,-0.24211,-0.027066,0.0082952,0.0097528,-0.011157,-0.043185,0.20815
0.011729,0.27163,0.12413,-0.015654,-0.0057311,-0.0094815,0.034681,0.11156
-0.19321,-0.20546,0.41282,-2.9714e-05,-0.028448,0.047086,0.058166,-0.0077111
0.08784,0.22254,0.094992,0.0081967,0.0039469,-0.07604,-0.13567,-0.23323
0.064386,-0.32001,-0.058594,0.0010918,0.0053358,0.050587,0.086877,0.17848
-0.046407,-0.12851,-0.43356,0.0176,0.022415,0.082978,0.023199,-0.28037
0.058702,0.026799,0.022629,-0.036118,-0.023103,-0.1197,-0.045389,-0.01717
-0.074423,-0.02172,0.2232,0.011767,0.0092681,0.067443,0.091666,0.31749
0.014793,0.21452,-0.292,-0.026249,-0.0055813,-0.050918,-0.089836,-0.052599
-0.032639,0.16058,-0.0050578,0.037357,0.010395,-0.013702,0.018481,0.23685
-0.15315,0.036654,-0.0065942,-0.00051597,0.0024695,0.046553,-0.029764,-0.54314
0.1626,0.18597,0.026862,0.00075605,0.0018985,-0.041663,0.037902,0.51242
0.072568,-0.25306,0.38664,-0.0057498,-0.0068827,0.034544,-0.02143,-0.18201
-0.062371,-0.20549,0.14377,-0.012322,-0.015947,0.017712,0.002797,-0.030417
0.03228,-0.15119,-0.45279,-0.011292,-0.0016986,-0.0216,0.016829,-0.57565
-0.01802,0.15724,0.18815,0.028421,-0.0030175,0.010463,0.005404,0.2812
0.06004,-0.00042718,0.25075,0.044158,0.034958,-0.0033372,-0.038631,0.34236
-0.0466,0.20378,-0.42454,-0.065756,-0.012636,-0.055382,0.026208,-0.34084
0.090982,-0.22138,-0.26197,-0.0044767,0.0027151,0.05714,0.060219,0.69512
-0.16857,0.45231,0.44064,0.024942,0.0028961,0.005709,-0.19357,-0.40119
-0.044529,-0.73421,-0.40985,-0.032008,-0.012141,-0.0069838,0.13267,-0.022749
-0.052818,0.28318,0.14162,0.012437,-0.011235,-0.059486,0.039217,-0.087969
0.15017,0.16953,0.40234,0.033584,0.0055087,0.027539,-0.028695,0.43676
-0.037309,0.19847,-0.15628,0.00048672,0.0067324,0.058556,0.030027,-0.32904
0.1109,-0.27129,0.11627,-0.016293,0.01578,0.088227,-0.02756,-0.32748
0.070629,0.23561,-0.18507,-0.024409,-0.014299,-0.13323,-0.030484,0.00089562
-0.088806,-0.52445,-0.16953,-0.00038307,0.0023817,-0.003796,0.012558,0.38908
-0.11848,0.17383,0.068407,0.0088214,-0.012338,-0.069659,0.022734,-0.46757
0.058869,0.3297,0.035176,0.018618,-0.00379,-0.00194,-0.13318,0.1115
0.05229,-0.15845,0.47131,0.036507,0.020196,0.043769,0.18536,0.51019
-0.12999,-0.14944,-0.45292,-0.031627,-0.010717,0.020945,-0.060414,-0.075357
0.17732,-0.071893,-0.12933,-0.022079,0.0049958,0.10136,-0.026209,0.19912
-0.13316,0.075456,0.043028,-0.01326,-0.003027,-0.067131,0.085614,-0.11899
-0.012156,0.12969,0.2908,0.010291,0.019852,0.20201,-0.16942,-0.49738
-0.08999,-0.041215,-0.17443,0.025123,-0.012334,-0.23292,0.068883,0.26918
0.18224,0.34435,-0.17196,0.0079309,0.0019902,-0.0056153,0.098029,-0.33155
-0.077138,-0.10422,0.096123,-0.04885,-0.023038,-0.085274,-0.10503,0.017243
0.077073,-0.35573,0.02124,0.011344,-0.0013436,0.03608,-0.0011649,-0.21903
-0.0050308,-0.04285,0.29127,0.024776,0.0047594,0.070105,0.1281,0.28347
0.0019954,-0.094736,-0.031336,-0.0082678,0.0111,-0.028987,-0.0068666,0.58104
0.047789,0.25515,-0.0015856,0.021795,0.010047,0.013388,-0.17242,0.29774
-0.019777,-0.093644,-0.27602,0.013518,0.009539,-0.0128,0.115,-0.27289
-0.047657,0.59421,-0.049979,-0.048698,-0.021626,0.14288,-0.17662,-0.59677
0.0089282,-0.88385,-0.15902,-0.024274,0.0024581,-0.066577,0.17085,0.062914
-0.14745,0.86269,0.35845,0.047632,0.0035624,-0.032435,0.078889,-0.056146
-0.015653,-0.76851,-0.44228,-0.028424,-0.018463,-0.029074,-0.085436,0.184
0.17257,0.33828,0.41558,0.036461,0.01433,0.044085,0.029633,-0.30305
-0.047888,-0.21741,0.40816,-7.8982e-05,0.015823,-0.040282,-0.075348,0.24988
-0.07926,0.13228,0.026546,-0.013238,-0.029775,0.0065383,0.13177,-0.16211
0.11336,0.18143,-0.72293,-0.034455,0.010206,-0.026256,-0.097874,0.58939
-0.061068,-0.0103,0.14269,0.045473,0.0028518,-0.059989,-0.17713,-0.055029
0.16439,-0.3206,0.028786,0.015478,0.026237,0.10145,-0.011255,-0.31194
-0.022935,0.27185,0.021232,-0.054209,-0.029004,-0.095855,0.22049,-0.25068
-0.069899,0.008006,-0.051137,0.00044859,0.0090806,0.12209,-0.044741,0.51131
-0.041515,-0.041759,-0.10119,-0.00020731,-0.0077997,0.028871,0.090217,-0.81637
-0.057962,0.13972,0.21605,0.03765,-0.016941,0.030437,0.13116,0.46723
0.080937,-0.46793,-0.0048576,0.012576,0.020955,-0.045701,-0.11959,0.39065
-0.010111,-0.13374,0.30653,0.026294,0.004559,-0.075275,-0.031352,-0.048916
-0.16096,0.7257,0.22781,-0.045991,-0.0034432,0.058297,0.074284,-0.096118
0.15877,-0.24344,-0.65606,-0.032155,-0.0029512,-0.051526,-0.26362,-0.19004
0.089666,-0.075112,-0.54921,-0.056925,-0.017415,-0.29527,-0.15302,-0.15127
-0.047273,0.18003,0.71954,0.083066,0.038966,0.56185,-0.16952,-0.088008
-0.024283,-0.17094,0.0015257,-0.026095,-0.037177,-0.44833,0.76802,0.096012
0.0039151,-0.22134,0.0079125,0.053079,0.035084,0.09658,-0.50169,0.33386
-0.14073,-0.15265,-0.26076,-0.023367,-0.01022,0.36877,0.48403,-0.15211
0.0042555,0.56243,0.63367,0.10357,0.014109,-0.10825,-0.14158,-0.046192
0.2057,-0.23042,-0.67531,-0.10562,-0.032754,-0.12365,-0.059195,0.48983
-0.051299,0.43034,0.62545,-0.0029215,-0.010237,-0.068156,-0.052011,-0.3867
-0.04785,-0.15042,-0.4947,-0.041734,0.011455,-0.090129,-0.26298,-0.40256
0.0046899,-0.03435,-0.18367,-0.026808,-0.0064909,-0.040809,0.36833,0.011179
0.019527,-0.59378,0.027674,0.034179,0.022209,0.18187,-0.3156,0.2349
0.065898,0.24692,0.15501,0.047748,0.011991,0.015882,0.3959,0.35914
-0.16193,-0.089834,0.37767,-0.0014212,-0.028996,-0.054174,-0.61368,-0.22131
0.061846,0.32123,0.030812,0.035352,0.016682,0.09644,0.18823,0.20874
0.080667,0.016925,-0.011551,0.0019546,0.00070563,0.045026,0.3734,0.18554
-0.13647,-0.33194,-0.54704,-0.085947,-0.02225,-0.29568,-0.18984,-0.6362
0.17681,0.30494,0.5102,0.076331,0.033618,0.24458,0.38958,-0.084385
-0.2518,0.097591,-0.54201,-0.097121,-0.042854,0.031365,-0.36521,-0.19621
0.11805,-0.12143,-0.029839,0.073493,0.037122,-0.17881,-0.18177,0.023636
-0.040631,-0.44338,0.11966,-0.052229,-0.0079771,0.20715,-0.077038,0.69587
0.069764,0.78071,0.33887,0.057265,0.016942,-0.13093,0.3852,0.36264
0.2072,-0.012808,0.16887,-0.0039412,-0.028875,-0.28575,0.04781,-0.34912
-0.14442,-0.84193,0.024448,-0.009011,0.018623,0.36946,-0.24564,-0.0013808
-0.1346,0.41525,-0.62658,-0.043752,-0.03577,-0.038022,0.27894,-0.71218
-0.038181,0.12261,0.1272,0.0011182,0.0034469,0.0019766,-0.45512,-0.10059
0.12768,-0.32456,0.055081,0.031485,0.0036775,0.030583,0.28084,0.64326
0.041262,0.4537,0.01127,0.038894,0.027597,-0.36486,-0.4328,0.032007
-0.11884,-0.35743,0.27927,-0.040016,-0.01066,0.28487,0.47613,-0.13276
0.084258,0.45897,0.29145,0.06722,0.021648,0.17457,-0.19462,0.43526
0.056743,-0.34047,-0.3544,-0.023122,-0.0084953,-0.17382,0.2419,-0.30494
-0.091507,-0.0063136,-0.081725,-0.069535,0.00017559,0.08912,-0.036697,-0.19764
-0.086048,0.33652,-0.34241,-0.025433,-0.01515,0.070337,0.10683,-0.1399
0.097932,-0.80355,0.1958,0.078119,0.015599,-0.16206,-0.18308,0.14518
-0.053651,0.37906,0.055084,-0.016038,-0.024865,-0.10181,0.066377,0.23331
-0.0080745,0.11957,-0.17078,-0.056882,-0.011464,-0.046425,-0.1005,-0.40005
0.21241,0.066897,0.22124,0.019302,-0.014264,-0.019043,-0.098517,0.27565
-0.11802,0.18186,-0.5284,0.010582,0.037419,0.25485,0.13627,-0.20194
-0.05385,0.034087,0.8492,0.066364,0.042439,-0.0044745,-0.39272,0.20302
-0.0016157,-0.36956,0.20552,-0.015883,-0.030071,0.0092532,0.1552,0.22684
-0.032354,-0.21738,0.029545,-0.025075,-0.023584,-0.046336,0.50394,-0.41296
0.079479,0.49828,-0.41064,0.02289,-0.008282,0.13444,-0.099824,-0.087895
-0.042302,-0.46389,-0.15239,-0.0053908,0.0079856,-0.62756,-0.6297,0.46074
0.022978,0.52322,-0.61514,-0.071612,0.017216,0.73028,0.65736,-0.0021666
0.0086151,0.23635,0.1193,0.010959,0.01129,-0.38604,-0.060305,0.13954
-0.0080832,-0.78905,0.61972,0.054184,-0.0023476,0.062008,-0.059332,-0.2157
0.0037011,-0.14988,-0.043176,0.026394,0.0072043,0.15961,0.10121,-0.40933
-0.049737,0.17384,0.030733,-0.064754,-0.04625,-0.09404,-0.3021,-0.27201
0.089974,0.45103,0.289,0.054277,0.032497,-0.019998,-0.20304,0.43123
0.041064,0.33948,-0.16463,-0.045896,-0.014294,-0.0093934,0.30962,0.10204
-0.14819,-0.55213,-0.38315,-0.036728,-0.0066997,0.078239,-0.0075083,-0.090729
-0.038754,0.054529,-0.24057,0.011878,-0.022505,-0.13967,0.017877,0.35041
0.019196,-0.27506,0.15389,0.037707,0.032394,0.040587,-0.065522,-0.18695
0.01091,0.15625,0.26823,0.025185,0.0098324,0.018265,0.065391,0.26962
0.10052,0.46722,0.32741,-0.002475,-0.0041454,-0.073026,0.085727,-0.56658
-0.064474,-0.089863,0.12608,0.055816,0.029427,0.1657,0.014294,0.50881
0.13902,-0.1596,-0.41634,-0.019319,0.0008817,-0.21857,-0.14623,-0.29286
0.013041,-0.26723,-0.52847,-0.16601,-0.051146,0.28932,-0.4956,-0.26071
-0.10937,-0.28716,-0.039591,0.029295,-0.017759,-0.077262,0.77157,-0.192
0.10516,0.15831,0.99576,0.13667,0.045931,-0.1009,-0.095277,0.42822
-0.071567,0.49515,-0.0067361,-0.0079103,0.014634,0.16229,-0.37909,0.53635
-0.33516,-0.50648,-0.68473,-0.052542,-0.010184,-0.22637,0.65977,-0.45511
0.19842,0.52469,-0.03422,-0.074782,-0.059655,0.021554,-0.38006,-0.024757
0.055132,0.036975,-0.12103,0.043275,0.022783,0.031117,-0.21222,-0.080997
0.07435,0.38368,0.41075,0.10707,0.042268,0.068712,0.12232,0.27267
-0.021478,-0.56727,0.40051,-0.023339,-0.0084941,-0.067447,-0.017884,-0.4182
0.044423,-0.72977,-0.50913,-0.089613,0.0038028,0.10869,-0.038648,0.1976
-0.05362,0.41185,-0.2711,0.010117,-0.029825,-0.15899,0.13962,-0.19962
-0.0018993,0.24045,0.73007,0.018094,-0.023215,0.03722,-0.16064,0.20418
-0.042769,0.076254,-0.39955,-0.0033783,0.039285,0.18268,0.03937,0.2471
0.041049,-0.32355,-0.14877,0.054652,0.024683,-0.14411,0.17126,-0.17004
-0.073285,0.14105,0.22749,-0.0037121,-0.012682,0.033147,0.08781,-0.34966
0.087599,0.55338,-0.025531,-0.04632,0.0048613,0.002727,-0.11682,0.36628
0.090645,-0.28539,0.19753,0.0043215,-0.0169,-0.11937,0.057018,-0.036753
0.042203,0.28492,-0.48903,-0.00072171,-0.00021649,0.25142,-0.46187,0.027448
-0.13805,-0.62981,-0.086771,0.032012,-0.0077991,-0.26127,0.083189,-0.22298
-0.24798,-0.047543,0.18525,-0.08502,-0.024024,0.099147,0.59735,-0.0081607
0.15025,-0.25022,0.1481,0.062433,0.029432,-0.12142,-0.14682,0.43555
0.089482,0.2866,0.43615,0.021608,0.012285,0.34198,-0.19666,-0.41753
0.056628,0.44812,-0.44834,-0.050791,-0.036008,-0.31567,-0.013111,0.36787
-0.015643,0.089063,0.41939,0.064436,0.033337,0.13215,-0.4239,-0.38187
-0.061936,-0.36537,-0.76166,-0.1011,-0.045099,-0.15025,0.48571,0.15254
-0.11901,0.025316,0.26294,0.062205,0.049006,0.14238,0.028848,0.15076
0.095708,-0.21311,0.49043,0.070033,0.034215,0.23745,0.033983,-0.019084
0.074529,0.27246,-0.82407,-0.046447,-0.011687,-0.29358,-0.28811,-0.7303
0.011697,0.23279,-0.082457,-0.029597,-0.034407,-0.050873,0.33532,0.43324
0.061425,-0.66026,0.44441,0.011002,-0.0030281,-0.0016174,0.0048066,0.41873
-0.013218,0.42859,0.31106,-0.057648,-0.019287,0.019819,0.047405,-0.18664
-0.035065,-0.24405,-0.36099,-0.0013046,-0.012821,0.061637,-0.45167,0.070557
-0.099786,0.24989,0.31212,0.11744,0.047881,0.038716,0.085594,-0.18533
-0.036402,0.4633,0.2664,-0.076475,-0.047697,-0.0019702,0.21451,0.19282
-0.11024,-0.62122,-0.11787,0.018417,0.029035,-0.076773,-0.19652,0.023785
0.10975,-0.2708,-0.41278,0.042626,0.044102,0.22688,0.15082,-0.33428
0.070947,0.16977,-0.34406,-0.10555,-0.06476,-0.25711,0.039035,-0.053797
0.049019,0.19998,0.17903,0.065947,0.038399,0.07054,0.031257,0.19366
0.12396,0.33549,0.079934,0.025777,0.025245,0.028011,-0.4431,-0.067523
-0.25781,-0.53258,0.15366,-0.022924,-0.034292,0.012095,0.51319,0.18737
0.067912,0.37014,0.16734,0.0059172,-0.0078685,-0.040618,0.10129,-0.29053
-0.0090414,0.10744,0.061896,-0.051493,-0.013127,-0.15362,-0.14198,0.14775
0.127,-0.51438,-0.62781,-0.0072737,0.019897,0.18168,-0.070036,0.47075
0.044492,-0.032642,0.10815,0.045256,-0.0027281,-0.025488,0.12871,-0.18194
-0.15682,0.015228,0.45655,-0.018504,-0.010676,0.054851,-0.37331,-0.5462
-0.025183,0.15378,-0.1497,0.051727,0.011868,-0.005045,-0.08966,0.25911
-0.037806,0.33638,0.56971,-0.0017683,0.002723,-0.039325,0.18608,-0.095562
-0.030516,-0.086219,-0.92912,-0.061916,-0.014295,-0.11691,0.090506,-0.0094679
0.013065,-0.13139,0.36158,-0.0040277,-0.0075741,-0.010393,-0.1699,0.34544
0.17217,0.18296,-0.083355,0.046448,0.054414,0.41322,0.15692,-0.08478
-0.044278,-0.17662,0.3591,0.057756,-0.04694,-0.35433,0.44617,-0.079793
-0.0261,-0.17247,-0.66339,-0.087764,0.024287,0.037451,-0.19452,0.065854
0.086404,0.22642,0.64765,0.00015998,-0.028947,-0.092577,-0.24504,-0.19959
-0.11319,-0.25226,-0.2265,0.0010358,0.019633,0.06639,0.12651,0.064649
-0.047292,-0.34857,-0.44959,-0.061688,-0.017824,0.12205,-0.1775,-0.2789
0.15062,0.58841,0.49745,0.10122,0.030207,0.088613,-0.10517,0.36604
0.019081,-0.21274,-0.22328,-0.025563,0.0071912,-0.050434,0.076668,0.21951
-0.10612,0.63938,0.21571,0.058285,-0.024525,-0.22495,-0.1471,-0.50796
-0.076182,-0.25456,-0.38144,-0.037519,-0.010236,0.057906,0.40513,0.11098
-0.12464,-0.42056,0.2649,-0.015786,0.0033924,-0.044198,0.033031,0.13468
0.077837,-0.089042,0.12766,-0.032494,0.016729,0.056624,-0.26038,0.40917
0.31377,0.26684,0.2398,-0.001488,-0.016628,0.018716,0.011889,-0.14979
-0.048583,0.064879,-0.32141,-0.039818,-0.041511,0.086061,0.02347,-0.34476
0.0070755,0.20839,0.12077,0.12597,0.059651,-0.044928,-0.0609,0.015212
-0.2457,-0.39738,-0.41459,-0.019887,-0.0098259,0.00089872,0.34427,-0.22839
-0.11203,0.12395,0.067511,-0.063629,-5.2599e-06,-0.074196,-0.074889,0.018295
0.024338,-0.044017,0.23404,0.0099238,0.034099,0.12652,-0.21877,0.42942
0.38081,0.12055,0.21353,0.059626,-0.017422,0.014868,-0.042599,-0.20209
0.018307,0.10191,-0.36454,0.0068429,0.016668,0.041702,-0.14203,0.16749
-0.17418,-0.80278,-0.33831,-0.11757,-0.059554,-0.22454,0.20029,-0.066619
-0.033959,0.19477,0.67396,0.076808,0.011277,0.15255,0.132,-0.064573
-0.11662,0.35697,0.32859,-0.01935,-0.021035,-0.25677,-0.0033478,-0.1986
0.062004,0.40361,-0.62321,-0.0073171,0.023298,0.17341,-0.16633,0.25153
0.025846,0.0036143,-0.61666,0.027465,0.0509,0.022842,0.18296,0.41897
-0.044335,0.36129,0.78127,0.023113,-0.0079576,-0.065862,-0.17301,-0.58746
0.040351,-1.1028,0.16081,-0.066609,-0.058839,0.057598,0.1423,0.098423
0.070372,0.29687,0.23016,-0.014582,-0.046381,0.20711,-0.29907,-0.25881
0.10158,0.11394,-0.55977,0.085828,0.1159,-0.14006,0.28581,0.19161
-0.1231,-0.1264,0.21079,0.023832,-0.032609,-0.085459,-0.070347,0.1446
-0.11898,0.057804,-0.97631,-0.13818,-0.015307,0.15162,-0.17124,0.15495
0.12164,0.22278,0.67985,0.091612,0.026923,-0.20311,0.31155,-0.26905
0.059381,-0.1343,0.36867,0.048616,-0.00017048,-0.033362,-0.036455,0.39686
-0.13434,-0.39669,-0.48901,-0.12719,-0.034749,0.089732,-0.14611,-0.4244
-0.014642,-0.095249,0.66488,0.063567,0.016243,0.11086,0.066835,-0.224
0.16034,0.51963,-0.3725,0.018782,0.011576,-0.17356,-0.0011494,0.51443
-0.20338,0.18745,0.82655,-0.011879,-0.041348,0.07204,-0.04733,-0.68566
0.14406,0.074227,-0.76409,0.065254,0.076072,0.18328,-0.12807,0.35424
-0.078718,-0.11847,-0.63042,-0.109,-0.089161,-0.2386,0.27102,0.28778
0.089063,-0.24665,0.50201,-0.026378,0.025817,0.07956,-0.038205,0.064
-0.03251,-0.176,-0.22926,0.040284,0.0074611,0.028214,-0.25899,0.084104
0.0094164,0.46964,0.21582,-0.025555,-0.018672,-0.048876,0.1403,-0.33673
-0.019782,-0.26065,0.41214,0.073521,0.041643,0.004825,0.12135,0.44591
0.0047635,-0.26877,-0.5237,0.0097037,-0.006613,0.01022,-0.064827,-0.46822
0.090939,0.83526,0.29964,0.064282,0.024123,0.046313,0.067282,-0.28098
-0.12811,-0.75893,-0.43765,-0.10672,-0.022565,-0.128,-0.18426,0.03554
-0.081493,-0.41423,0.3729,-0.042751,-0.022017,0.12906,0.11922,0.082166
0.12992,0.65592,0.056006,0.036972,0.017534,-0.10335,-0.060226,0.16423
-0.18852,-0.3561,0.0036565,-0.00076345,-0.013685,0.050499,-0.065338,-0.0069629
0.28388,0.46684,-0.13742,0.070331,0.040287,-0.049765,0.30784,0.39521
-0.1873,-0.32817,-0.26999,-0.1483,-0.094105,-0.131,-0.072886,-0.40733
0.20208,0.82638,0.7875,0.15589,0.083204,0.62627,-0.21503,0.17861
-0.0020674,-0.30919,-0.29168,-0.087272,-0.052557,-0.41201,-0.40769,0.055146
-0.12906,-0.085009,-0.31771,0.013025,0.045821,-0.067506,0.66897,0.0044198
0.093448,-0.092714,0.010677,0.042906,0.011522,-0.11491,-0.15783,-0.27104
-0.13994,-0.38249,-0.0023699,-0.028752,-0.037926,0.15585,0.1809,-0.092164
-0.26689,-0.5166,-0.096454,-0.08471,-0.0085149,-0.021216,0.10554,0.24497
0.2443,0.46208,0.47599,0.09376,0.013969,-0.052247,-0.29941,0.087399
0.23828,0.13095,-0.59024,-0.024648,0.0061285,0.13354,-0.36311,-0.097502
0.0052667,0.3425,0.35348,0.16941,0.085103,-0.064794,0.054626,0.043694
-0.094183,0.066368,0.21293,-0.034928,-0.061702,0.0096545,0.46178,-0.35936
-0.22315,-0.026257,-0.56119,-0.30147,-0.10627,0.029282,-0.094085,0.082625
0.017486,-0.071546,0.2758,0.11239,0.052886,0.033518,0.067653,0.040736
0.088904,-0.37288,-0.058327,-0.019354,0.0094396,-0.094591,-0.19266,0.0054783
0.092471,-0.04146,0.25236,0.06944,0.044568,0.0044888,0.15704,0.21524
-0.0037037,0.051062,0.036604,0.050951,-0.03716,-0.028469,-0.21075,0.17113
0.19003,0.92168,0.41058,0.12043,0.10001,0.11921,0.16525,0.30095
-0.34308,-0.99181,-0.61129,-0.14448,-0.09105,-0.15387,-0.19142,-0.45427
0.075607,0.17008,-0.44295,-0.049345,-0.016867,0.035264,0.30501,-0.1939
-0.062471,-0.04491,0.25413,-0.0014997,-0.0058362,0.14759,-0.31464,-0.13442
0.070483,0.31091,0.36067,0.068236,0.012137,-0.17638,0.12084,0.047996
-0.048845,-0.023638,-0.55214,-0.075475,-0.01777,0.16465,0.063712,0.46054
0.1738,-0.010478,0.33143,0.097984,0.076272,-0.064122,0.059881,-0.39658
-0.057685,-0.49982,0.023688,-0.052206,-0.025997,-0.050661,-0.086842,-0.044341
-0.047099,0.19143,0.36521,0.052363,0.034945,0.079587,0.013561,0.060381
0.018952,0.31806,-0.038582,-0.056339,-0.045341,-0.11119,0.10314,0.13344
-0.093121,-0.21606,-0.74769,-0.1507,-0.10246,-0.013768,-0.34106,0.22663
0.12508,0.25833,0.59048,0.20797,0.067099,0.090661,0.20545,-0.18708
-0.11523,-0.12961,-0.21959,-0.088549,0.026213,0.061661,0.0098289,-0.096783
-0.0016348,-0.41633,0.063436,0.054358,0.048616,-0.092686,0.042537,-0.031972
0.12162,0.53954,0.46215,0.051216,-0.013979,-0.0049231,-0.13239,0.30473
-0.027627,-0.20057,-0.14855,-0.019862,-0.013171,0.043891,-0.099892,-0.13414
-0.013067,0.01703,-0.43935,-0.089013,-0.066367,-0.12588,0.359,-0.20165
-0.039132,0.12638,-0.22792,0.022694,0.021374,0.18095,-0.014224,-0.29067
0.1352,0.21768,-0.080765,0.0018609,0.015209,-0.14533,-0.12732,0.14275
0.048223,-0.32131,0.31882,0.074192,0.063074,0.097879,0.048912,0.4856
-0.29241,-0.28109,0.26339,-0.050038,-0.046425,0.011529,-0.25334,-0.04758
-0.018998,-0.0050567,0.0046724,-0.066508,-0.024571,-0.061258,0.16714,-0.062944
0.049287,0.25108,-0.20026,0.063821,0.034724,0.10561,0.05124,-0.12745
0.15614,0.068897,0.59056,-0.018137,0.0065269,-0.11306,-0.1015,0.27868
-0.0015945,-0.13352,-0.19862,0.00063854,-0.05417,-0.013933,0.092178,-0.48738
0.014829,0.34293,-0.51174,0.042651,0.0015874,-0.080771,0.0084924,0.12108
-0.23923,-0.61615,-0.050324,-0.10243,-0.02086,0.13272,-0.10854,0.074904
0.32997,0.55301,0.15737,0.13618,0.11355,0.049642,0.10259,-0.1296
-0.09851,-0.26724,-0.2116,-0.069394,-0.063297,-0.0084038,-0.03572,0.16162
-0.033537,0.27262,0.49889,0.015268,-0.011889,-0.094908,-0.15454,-0.029657
-0.062248,-0.12748,0.16595,-0.0006252,0.041465,0.087959,0.25503,0.044498
0.025262,0.0053289,-0.79251,-0.023599,-0.028214,-0.13108,-0.27553,-0.088157
0.017439,-0.15277,0.17509,0.00074368,-0.033604,0.037175,0.33129,0.012047
0.01578,0.16891,0.47973,0.10345,0.095274,0.14709,0.074143,0.20409
-0.096423,-0.4688,-0.18716,-0.12957,-0.095128,-0.16153,-0.24407,-0.26497
