-0.0049089,0.0041098,-0.057924,-0.0019023,0.0097109,0.012245,0.010283,-0.018579
0.016088,0.025748,0.042353,0.014124,0.010431,-0.0023075,0.0022173,-0.0048713
0.029311,0.10337,0.026802,-0.00087986,-0.0044203,0.0057788,-0.0061457,0.0089463
-0.0051127,-0.11716,0.075609,-0.015699,-0.019323,-0.018107,0.00080336,-0.0081311
0.029226,0.27524,0.095104,0.039888,0.020259,0.019969,0.023096,0.037811
-0.12606,-0.51907,-0.24321,-0.037371,0.0047893,-0.012557,-0.032926,-0.025048
0.013145,0.24791,0.10676,0.010206,-0.0033683,-0.0060406,0.004767,-0.0014654
0.0094806,0.067586,-0.059096,-0.0049788,-0.0042773,0.0006874,-0.0042455,0.006821
0.027485,-0.1452,0.078507,0.018598,0.0021018,0.023408,0.010572,-0.0082433
0.060065,0.27598,0.042142,-0.036221,-0.030953,-0.0081382,0.0025413,0.031214
-0.02478,0.061462,-0.15312,-0.0131,0.013993,0.0075588,-0.012591,-0.015635
-0.038797,-0.66694,0.039402,0.033387,0.012234,5.1957e-05,0.0042391,-0.023892
0.010772,0.11902,-0.067597,0.017404,-0.012514,-0.015211,-0.001803,-0.0013386
-0.0085778,0.18903,0.12791,-0.0063022,0.0024373,-0.0071526,-0.015384,0.0053078
-0.010894,0.1003,0.0015765,-0.0064848,0.010264,-0.0071506,0.049029,-0.02714
0.066063,0.31404,0.038481,-0.006637,0.010857,0.031613,0.065994,0.057847
-0.028173,-0.14844,-0.010664,0.016594,0.019595,-0.015841,-0.12894,-0.02074
0.01833,-0.080444,-0.043603,-0.022807,-0.018532,-0.016615,0.003047,0.010678
-0.029345,-0.057794,-0.059655,0.00012323,-0.010084,0.02942,0.040073,0.0036728
-0.015349,0.031024,0.0278,0.022908,-0.0021437,-0.010404,-0.017619,-0.018442
-0.017978,-0.12334,-0.022783,-0.040303,-0.026003,-0.0031395,0.017935,-0.0090178
0.0097241,0.11704,-0.031184,0.013744,0.012233,0.020069,-0.032348,0.023848
0.0055697,-0.15429,0.057596,0.0055035,-0.012135,-0.011026,0.0040228,-0.013882
0.016894,0.072778,0.11074,0.021028,0.010646,-0.026094,0.0025442,-0.0052582
0.0051466,-0.10374,0.018504,-0.0021205,0.026246,0.0060819,0.025985,0.0026882
0.025484,-0.092636,-0.071381,0.014175,0.011466,0.0072962,0.043074,0.0099058
-0.0076735,0.23622,-0.12081,-0.039529,-0.018015,0.00085567,-0.032435,-0.014801
0.007451,0.066347,-0.076199,-0.022722,0.00015228,0.033466,-0.005746,0.014652
-0.061894,0.0010067,0.10824,0.025402,-0.0046693,-0.012248,-0.0024671,0.020356
-0.028292,0.023777,0.087738,0.026591,-0.0016674,-0.019275,-0.023153,-0.067751
0.014285,0.014384,0.10366,0.019808,0.0086955,-0.0033672,-0.021313,0.031838
0.042053,0.16349,0.014852,-0.034064,-0.013044,-0.003637,0.0029203,0.022479
0.070188,-0.19814,-0.17883,-0.025646,-0.0046516,-0.012229,0.010611,0.013727
0.0044407,-0.27816,-0.078631,0.029498,0.018158,0.04911,0.17398,-0.0099182
-0.069715,-0.056068,-0.074411,-0.040405,-0.022639,-0.030367,-0.20179,-0.024951
-0.035414,0.17045,0.10832,0.053818,0.013848,-0.00044548,-0.038071,-0.00010389
-0.0021264,0.17624,0.017557,-0.047132,0.0029978,-0.0093653,0.048378,-0.013529
0.03033,0.011446,0.20885,0.039553,-0.015698,0.013331,0.049957,0.020637
0.015514,-0.13205,-0.043912,0.009082,0.012849,0.013025,0.029095,0.0006923
-0.053789,-0.13237,-0.14708,-0.029378,0.0030128,-0.010305,-0.014591,0.0045524
0.049616,0.17081,0.015976,0.02546,0.0018469,-0.0098792,-0.019234,0.024115
0.0059359,0.030319,0.01477,-0.029817,0.0015654,0.014156,0.045655,-0.026912
-0.020489,-0.11528,-0.0030962,0.0076905,-0.0057563,0.022578,-0.023762,-0.02392
0.0015512,0.10825,-0.030422,0.020704,0.010919,-0.047245,-0.095163,-0.014165
0.024803,0.20634,0.018502,-0.0063042,-0.011167,0.0077389,0.057869,0.072354
0.017352,0.011525,-0.043584,-0.01052,-0.017573,-0.015597,-0.056602,0.0010738
-0.013829,-0.21421,0.1512,0.0007609,0.022767,0.031252,0.085462,0.0063627
0.00069354,-0.32553,0.017954,0.020385,0.016018,0.03121,0.03177,-0.044384
-0.10391,0.19902,-0.20772,-0.075951,-0.029991,-0.046852,-0.07615,-0.08043
0.046804,0.046402,-0.0090211,0.017034,-0.0057837,0.00028528,-0.018742,0.055072
0.046337,-0.048238,0.01338,0.026249,0.0028472,-0.022658,0.0014392,0.019045
0.027546,0.22146,0.062969,-0.0092692,-0.019596,0.03271,0.16433,0.046489
0.0142,-0.064395,0.13161,0.081903,0.044123,0.025625,-0.11612,-0.026206
-0.11814,-0.25569,-0.00049944,-0.013577,-0.001377,0.002753,-0.012186,-0.034786
0.045299,0.1172,-0.038087,7.3049e-05,-4.7532e-05,-0.020528,0.014573,0.036266
0.020941,0.19472,-0.061158,-0.057963,-0.014689,-0.067884,-0.11468,0.0068899
0.012688,0.10845,-0.040206,0.0067158,0.040309,0.079285,0.13841,-0.0062822
-0.0022178,-0.065479,0.023546,0.0061243,-0.015006,0.0068955,-0.02358,-0.011676
-0.031075,-0.34493,0.051558,-0.028412,-0.024489,0.004151,0.031776,-0.0020149
0.03579,0.17441,-0.11192,-0.018128,-0.034907,-0.069273,-0.015946,-0.0010837
-0.059359,0.0070836,0.026602,0.022439,0.00094729,0.0058054,-0.065011,-0.0324
0.10521,0.059379,0.039304,0.03992,0.036698,0.050192,0.064729,0.052674
-0.041117,-0.14404,-0.017138,-0.0191,-0.0052219,-0.037207,-0.024465,-0.026674
-0.045662,-0.24944,-0.086338,-0.036466,-0.022761,0.009578,-0.019257,-0.012052
-0.026113,0.42555,0.11398,0.027335,0.031254,0.010995,-0.067252,0.003381
0.0013869,0.032039,0.07616,0.039329,0.047485,0.037243,0.097833,0.012285
0.13009,0.017568,0.026029,0.022207,-0.02899,-0.04485,-0.031487,0.038337
-0.093558,-0.24142,0.2044,0.052919,-0.0033034,0.0063569,0.044683,-0.074778
0.048864,0.083808,-0.4763,-0.14332,-0.024435,0.049614,0.075795,0.071003
-0.028759,0.15719,0.10749,0.018177,-0.030393,-0.071915,-0.095306,-0.009322
-0.037357,0.064056,-0.12326,-0.018139,0.0097104,0.00071875,-0.00095402,-0.011836
0.046716,-0.18075,0.12818,0.028646,0.064494,0.095451,0.076549,0.031442
-0.018338,-0.28117,0.17484,0.04941,-0.037803,-0.17827,-0.21518,-0.059799
-0.067958,0.019884,-0.11505,-0.064472,0.015649,0.12519,0.10777,-0.020298
0.023368,0.15124,0.017555,-0.022874,-0.04812,-0.064048,-0.0015584,0.0092642
0.068557,0.064867,-0.12157,-0.012168,-0.0098684,0.035751,-0.081974,0.013498
0.044398,0.16532,0.20267,0.10921,0.037047,0.057782,0.21073,0.039728
0.013389,-0.1121,-0.18148,-0.041028,-0.00094345,-0.036812,0.10367,0.010369
-0.11062,0.23015,0.1005,0.029338,0.032308,0.017593,-0.25417,-0.074062
-0.031138,0.010291,-0.030572,-0.02392,-0.012028,-0.029188,0.020572,0.021197
0.017036,-0.24151,0.048838,0.017104,0.021686,-0.0055785,-0.040403,0.0072868
0.049096,-0.15748,0.032453,0.010804,-0.0235,-0.044725,-0.061708,0.040476
0.080312,-0.1726,-0.10459,-0.035876,0.00023988,0.056205,0.19128,0.058146
-0.053624,0.27986,0.089897,-0.021898,-0.009019,-0.0076742,-0.00011474,-0.064857
-0.071575,-0.29487,-0.14998,-0.041053,-0.043461,-0.01769,-0.034473,-0.08643
-0.067274,0.33489,0.090387,0.024311,0.022312,0.057456,0.041029,0.0091419
0.12347,0.0323,-0.015848,0.026616,0.0015317,-0.024259,-0.07086,0.15966
-0.0069358,0.10349,0.0018777,0.021605,-0.0033286,0.018683,-0.042344,-0.17344
0.033958,-0.24987,-0.049715,-0.044409,0.0086252,-0.03213,0.040477,-0.020832
-0.011346,0.2414,0.026567,-0.037895,-0.071309,-0.19196,-0.080146,0.09461
0.013781,0.070941,0.091487,0.15861,0.16342,0.26608,0.15077,0.032634
-0.046434,-0.049759,0.020688,0.021445,0.009539,-0.048416,-0.078824,0.012092
-0.050776,-0.072736,-0.076664,-0.090656,-0.049118,0.036511,0.083186,0.0015197
-0.014195,-0.096545,0.040608,-0.069236,-0.068053,-0.065154,-0.1127,-0.069882
0.087422,-0.31059,-0.13692,-0.048081,-0.048161,-0.017666,0.013584,-0.01527
-0.042263,0.083396,0.13882,0.10478,0.048835,-0.00094911,0.055939,0.039651
-0.012375,-0.035235,0.0065633,0.029411,0.019281,-0.0073993,-0.087308,-0.015123
0.083173,0.40245,-0.027417,-0.0087597,0.066119,0.10348,0.099066,0.030872
-0.037503,0.028706,0.020329,-0.017377,-0.021412,-0.082371,-0.049654,-0.049206
-0.023904,-0.063764,-0.053475,-0.01158,-0.016252,0.036686,0.16102,0.017988
0.052297,-0.088515,-0.10757,-0.084416,-0.1208,-0.21107,-0.23852,0.013751
-0.0056666,-0.23014,-0.0078473,0.022701,0.032926,0.18229,0.016612,-0.03054
-0.042849,0.3633,0.30205,0.1542,0.055031,0.068373,0.1603,0.049321
0.010134,-0.083669,-0.2777,-0.13478,0.016294,-0.037305,-0.081011,-0.012181
0.012257,-0.090532,0.16846,0.085553,0.073068,0.052503,0.027321,0.019389
-0.075353,0.13463,-0.077251,-0.020968,-0.017126,-0.068785,-0.15469,-0.035638
-0.033236,-0.1711,-0.037884,-0.017372,-0.043968,-0.081178,0.19415,-0.028807
0.092804,0.17536,0.25509,0.025341,-0.055129,-0.01614,-0.19078,0.032122
0.022722,0.038215,-0.22245,-0.081024,-0.0045169,0.095027,0.16795,0.053532
0.023259,-0.26342,0.012964,0.077041,0.036945,-0.0053781,-0.03373,-0.05028
-0.021922,-0.080515,-0.024001,-0.024211,0.037687,-0.02025,-0.09249,-0.044616
0.0048666,0.06546,-0.076359,-0.064481,-0.049157,0.121,0.24145,0.070913
0.010031,-0.21353,0.097431,0.065863,-0.020154,-0.15166,-0.11065,-0.054873
-0.076862,0.39735,0.012505,0.015717,0.047092,-0.025567,-0.14962,-0.023242
0.0016977,0.11817,-0.073755,-0.058116,-0.042117,0.038429,0.10017,0.079989
0.018753,0.081612,0.11163,0.055839,0.064372,0.032445,0.0050488,-0.0031121
-0.010501,-0.041969,0.029084,0.037707,-0.0079802,0.13597,-0.091896,-0.022928
0.030687,-0.23147,-0.0016124,-0.041922,-0.024532,-0.21381,0.058871,-0.026948
0.040324,0.042046,-0.090229,-0.073562,-0.024291,0.099957,0.027405,0.046575
0.0023842,-0.019612,0.13034,0.083366,0.031672,-0.063654,0.047984,0.025007
-0.06785,-0.0098602,-0.13641,-0.008805,0.025894,0.076418,-0.027785,-0.068829
0.0090774,-0.074875,-0.06144,-0.022207,-0.049787,-0.011104,0.058096,0.092869
0.02215,-0.13264,-0.041826,-0.0040287,0.0073926,-0.083903,-0.14714,-0.1461
-0.036336,-0.084655,0.041199,-0.001489,0.0096057,-0.0089105,-0.041354,0.0037882
0.021418,0.011034,0.10318,-0.014944,-0.04341,0.03449,0.14188,0.07457
0.06306,0.68091,0.20766,0.072447,0.066905,0.14813,0.036392,0.028184
-0.082719,-0.21494,-0.26998,-0.020869,0.0044868,-0.058422,-0.036331,-0.056217
-0.024688,-0.0066079,0.005838,-0.029494,-0.07449,-0.16325,-0.051634,0.048818
0.081461,0.012467,0.073123,0.030847,0.072132,0.1539,0.061917,0.03139
-0.013836,-0.36683,-0.038344,-0.066345,-0.032194,-0.10707,-0.25733,-0.08483
-0.029082,0.04441,0.10735,0.030739,-0.0045815,0.061521,0.15503,-0.026569
0.02011,0.17031,-0.022386,0.017826,0.022314,0.026824,0.079979,0.057211
-0.014936,0.069752,-0.19402,0.020459,0.033128,-0.00013798,0.00082489,0.0094524
0.037183,-0.070676,0.029788,-0.038887,-0.018641,0.10589,0.16582,0.032308
-0.058575,0.11832,0.071475,-0.034638,-0.093447,-0.20934,-0.091327,0.023229
-0.021757,-0.27242,-0.028791,0.064921,0.043632,-0.10934,-0.26516,-0.14363
0.045242,0.0062935,0.058526,0.0022649,0.018127,0.10959,0.26728,0.093669
0.055716,-0.10013,0.061404,-0.0037962,-0.021115,0.12759,-0.12033,0.00055591
0.032527,-0.27181,-0.026824,-0.031567,0.01203,0.046352,-0.076804,-0.079024
-0.055833,0.45761,-0.096101,-0.0033204,0.047142,-0.017171,0.10165,0.082017
-0.084211,0.49668,0.049004,-0.0055585,0.0056844,-0.079227,-0.059999,-0.054655
0.010505,-0.25751,-0.076319,0.070441,0.019815,-0.031345,0.049733,-0.0038929
0.010581,0.096626,0.073893,-0.057222,-0.075301,-0.054235,-0.020012,0.086518
0.034483,-0.072959,0.17028,0.11872,0.024287,0.14019,0.029657,-0.048638
0.044476,-0.46946,-0.18695,-0.18335,-0.056987,-0.11295,-0.034211,0.043873
-0.075499,0.056223,-0.030329,0.020836,0.0086967,-0.0016643,0.10934,-0.042376
-0.027856,0.16305,0.0063204,0.043901,0.049435,0.083174,-0.10235,-0.03432
0.062545,-0.16693,-0.054143,-0.027879,-0.020506,0.079159,0.27525,0.067605
0.078043,0.13714,0.16319,0.0794,0.041404,-0.067993,-0.3293,-0.018213
-0.029249,-0.085884,0.0259,0.038114,-0.022269,-0.13102,0.012488,-0.002881
-0.026325,0.19963,-0.12143,-0.06534,-0.00025783,0.12543,0.010625,-0.034754
0.054093,-0.10302,0.081748,-0.043097,-0.017343,-0.10223,-0.10108,0.01931
-0.20336,0.21368,-0.14447,-0.043368,-0.026561,0.10125,0.21625,-0.074577
0.044126,-0.018863,0.045017,0.035477,0.057996,-0.044389,-0.0060644,0.020024
0.053932,-0.13476,0.081061,0.1152,0.048719,-0.0071915,-0.056924,0.053467
0.037052,-0.032037,-0.14499,-0.11702,-0.10921,-0.052577,0.001257,0.057064
0.048669,-0.070845,0.1951,0.088368,0.052849,0.092543,-0.058158,0.030534
0.042714,-0.20593,-0.10236,-0.019217,-0.019794,0.036655,0.10834,-0.018904
-0.15168,0.49808,0.0082592,-0.07315,-0.022364,0.036282,0.031686,-0.10763
0.036873,-0.1642,0.009641,0.004247,-0.0093696,-0.050646,-0.069635,0.02923
-0.023402,-0.062139,0.22804,0.13462,0.042857,-0.092621,-0.0081633,-0.030727
-0.019146,0.14616,-0.16633,-0.072574,0.032974,0.081355,-0.017974,0.0091568
0.065813,-0.275,-0.21364,-0.10134,-0.038849,-0.13834,-0.051512,0.094341
0.012853,0.072065,0.070184,0.04898,0.022784,0.08468,0.040648,-0.087222
-0.014322,0.015368,-0.048652,-0.011426,-0.016492,0.032702,0.0017893,-0.019268
-0.00091181,0.055343,0.10303,0.054204,-0.0082904,0.019641,0.0047306,0.048869
0.01283,0.052239,0.1598,0.019983,-0.015189,-0.054586,0.049974,0.023983
-0.013528,0.06976,-0.16556,-0.035568,0.001788,-0.032511,-0.12827,-0.0076943
0.0046383,0.0077814,0.097314,0.028221,0.019109,0.063116,0.14094,-0.0071191
0.050686,-0.14774,-0.050459,-0.015518,0.0054149,-0.0021067,0.012222,-0.021497
-0.13372,-0.090503,-0.022414,0.020136,-0.0081946,-0.018017,-0.13373,-0.051402
0.060909,-0.037817,-0.013946,-0.037444,0.0093266,0.17804,0.43527,0.13683
-0.013135,0.042573,-0.041291,-0.048424,-0.05166,-0.17352,-0.37633,-0.059045
0.0048094,-0.052188,0.042988,-0.013528,0.027289,-0.027614,-0.13201,0.0010642
0.01481,0.083461,0.13612,0.10574,0.02712,0.05183,0.082381,-0.0112
0.034227,0.39318,-0.052192,0.019948,0.080407,-0.014058,-0.067822,-0.056641
-0.013492,0.015293,-0.12455,-0.020996,-0.055121,-0.0064004,0.15394,0.068367
-0.080293,-0.1698,-0.011331,-0.055984,-0.059008,-0.010118,0.0081873,-0.096321
0.092244,-0.12478,0.099703,0.024812,-0.0089628,-0.046908,-0.049286,0.067417
-0.042808,-0.25634,-0.064669,-0.035714,-0.021516,0.010389,-0.063198,-0.025455
0.0529,-0.094559,0.16803,0.036749,-0.0021192,0.054562,0.32708,0.13357
-0.043783,0.14447,-0.31072,-0.12408,-0.012507,-0.068879,-0.32355,-0.064486
0.024859,0.042328,0.28124,0.18573,0.13538,0.13327,0.085658,-0.010212
-0.055472,0.047658,-0.18033,-0.064553,-0.011405,0.043907,0.029713,-0.063232
0.049487,0.31112,0.031576,-0.0075926,-0.031189,-0.13468,-0.079254,0.026006
0.049376,-0.0497,0.15135,0.06729,0.028571,0.10375,0.28812,0.06166
-0.02527,-0.13801,-0.14958,-0.059271,-0.043847,-0.070908,-0.27588,-0.042727
-0.09635,0.019312,0.096711,0.0024896,-0.046125,-0.074703,-0.16267,-0.068853
-0.0069476,-0.12907,-0.024874,-0.013989,0.01327,0.05944,0.065176,-0.0014586
0.025421,0.22477,0.10966,0.015432,-0.030117,-0.021137,0.072288,0.073218
0.033574,-0.15718,-0.21137,-0.073968,0.0032939,-0.019973,0.15645,0.045535
0.050372,-0.089409,-0.066379,0.061175,0.074558,0.055364,-0.0095116,-0.0066274
-0.040016,-0.056218,0.083889,-0.0089276,-0.0035779,-0.020917,-0.088913,-0.036596
-0.025783,-0.024249,0.083855,0.059631,0.02697,0.080413,0.082702,0.025845
0.01519,0.04922,0.020436,-0.021852,-0.067949,-0.037849,-0.072744,-0.077044
0.059069,0.20771,0.05879,-0.0028727,0.032133,-0.085459,-0.032017,0.037846
-0.027887,-0.036592,-0.19068,-0.054712,-0.0086219,-0.069244,-0.18605,-0.074286
-0.04382,0.054241,0.030655,-0.020497,-0.010441,0.30837,0.37894,0.12629
0.017727,0.0057912,0.043618,0.069121,0.011162,-0.19442,-0.14191,-0.04724
0.10089,-0.11111,0.14526,0.034962,-0.013973,0.024,0.048273,0.022905
-0.15452,-0.29752,-0.22704,-0.067925,-0.015338,-0.05218,-0.19887,-0.07702
0.0090289,0.34265,0.17634,0.01845,-0.00054727,-0.024905,0.015249,0.020133
-0.025434,-0.021957,-0.10605,-0.010633,0.038367,0.074082,0.089114,0.02485
-0.030699,0.042674,-0.020093,-0.014781,-0.007911,0.033306,-0.00085329,0.0066208
0.22851,0.0020954,0.0665,0.01341,-0.022259,-0.0071369,0.11993,0.12844
-0.043704,0.10401,-0.065493,0.12809,0.081072,-0.02428,-0.010163,-0.048277
-0.088666,0.027172,0.075708,-0.17134,-0.065378,-0.010694,-0.040374,-0.11035
-0.022888,-0.5012,-0.096214,0.028611,-0.00096112,-0.013543,-0.049574,-0.0113
0.029059,-0.010236,0.043354,0.00088399,-0.014983,0.013826,0.11023,0.053756
-0.057643,0.026617,0.025242,0.057647,0.0096087,-0.15537,-0.3422,-0.11748
0.084145,0.44082,0.052146,0.0034422,0.025928,0.07232,0.070191,0.062246
-0.0067575,-0.10087,0.014319,-0.060109,-0.090924,0.087123,0.11392,0.055377
-0.041694,0.074813,-0.057191,0.039116,0.088899,0.162,0.094732,-0.019493
0.025697,-0.024607,-0.068549,-0.073483,-0.020383,0.038758,0.11526,0.010499
0.054226,-0.057231,0.011949,0.024463,-0.020232,-0.10297,0.074847,0.16916
-0.10509,-0.018171,0.021075,0.08347,0.1128,-0.16888,-0.33827,-0.20009
0.039458,0.058073,0.069333,0.041503,0.011467,0.15482,0.24372,-0.0044333
0.018778,-0.12816,-0.037345,-0.085458,-0.13686,-0.35644,-0.39741,-0.065575
-0.011086,-0.102,-0.10252,-0.1019,-0.11356,-0.20823,-0.065971,0.091465
-0.018946,0.026956,0.03083,0.031248,0.042176,0.3202,0.29286,0.1136
0.018695,0.11147,0.073827,0.087239,0.18177,0.47205,0.29591,0.046513
-0.023009,-0.018044,0.018159,0.010992,0.031623,-0.026448,-0.16711,-0.22768
0.051462,0.031883,-0.035792,0.0050759,-0.025604,-0.020894,-0.019593,-0.021509
-0.015458,-0.30635,0.058728,-0.024891,-0.099413,-0.29548,-0.15401,0.017208
-0.012562,0.4771,0.11235,0.045515,-0.033551,-0.11135,0.013745,0.014639
0.013574,-0.069886,-0.15004,-0.088766,0.0081087,0.13015,0.16192,0.15197
0.00078454,0.076022,-0.12792,0.0097172,0.041605,0.036678,-0.053948,0.016697
-0.074,-0.062748,0.069155,0.020984,0.012849,-0.095038,-0.11802,-0.13979
0.055225,-0.15959,-0.026764,-0.062098,-0.0071549,-0.029138,-0.013599,0.019464
0.045067,-0.10672,0.039098,0.027001,-0.017742,-0.067572,-0.082744,0.041882
-0.080763,-0.11641,0.057982,0.070477,0.0441,0.11333,0.12959,-0.088127
0.052873,0.19316,-0.077223,-0.040259,-0.040122,0.087107,0.046987,0.058676
-0.0071935,0.040067,0.033819,-0.0078847,-0.012655,0.0905,0.1002,0.036106
-0.026835,0.1034,0.095385,0.081676,0.047994,-0.07074,0.086327,-0.00075943
0.040383,0.07781,-0.064224,-0.053264,-0.0072797,0.056088,-0.13586,-0.02981
-0.040498,-0.17814,-0.078652,-0.077569,-0.030897,-0.085438,-0.13793,-0.036729
0.042368,0.116,0.034783,0.062422,-0.00034354,-0.20889,-0.10893,0.032065
0.0071141,-0.063746,0.15667,0.053152,0.060097,0.15931,0.059008,0.04301
-0.029542,-0.13924,-0.012202,-0.0047154,0.0091696,0.23516,0.33347,-0.066661
0.025924,0.10128,-0.13787,-0.088327,-0.10656,-0.28022,-0.098628,0.10957
-0.076405,-0.059257,-0.096575,-0.010349,0.0098681,0.010603,-0.14344,-0.13063
0.062306,0.076927,0.080211,0.034175,0.015122,0.045366,0.027946,0.018645
-0.018233,0.0049092,0.088602,0.022443,0.034912,-0.018355,-0.06743,0.0041723
0.010883,0.063496,-0.12443,0.017815,0.046641,0.071601,0.033155,0.02273
-0.060545,-0.37,0.0057539,-0.064748,-0.081694,-0.14314,-0.035632,-0.041677
0.049262,0.22128,0.0047697,0.017696,-0.01353,-0.035126,-0.045702,0.0069321
0.0045339,0.18869,0.1009,0.0077896,0.0249,0.18659,0.21474,0.074775
0.0081188,-0.12584,0.0060221,0.038419,0.02575,0.061995,0.05035,0.01264
0.01244,0.14945,0.063817,0.023338,0.051145,-0.041869,-0.00079429,-0.016825
0.047742,-0.083455,-0.093888,0.0088264,-0.0089286,0.061322,-0.14356,0.00020069
0.011366,-0.02436,0.0077872,-0.037087,-0.084912,-0.29441,-0.18482,0.030623
-0.066361,0.15876,-0.039396,-0.036933,0.041242,0.16215,0.16225,-0.10676
-0.029702,-0.36477,-0.049804,-0.022379,-0.021585,0.085118,0.067573,0.032503
-0.10516,0.037243,-0.0091722,-0.048197,-0.047015,-0.15212,-0.017038,-0.035997
0.090713,-0.063431,0.11317,0.096812,0.066671,0.043328,-0.0061986,0.0010543
0.012168,0.27404,0.26288,0.061612,0.0074219,-0.00044617,-0.03242,0.020152
0.066803,0.023012,-0.44947,-0.098451,-0.028803,0.022019,-0.032093,0.015362
-0.017507,-0.084867,0.01706,0.054762,0.052457,0.04178,0.051242,-0.027038
-0.021001,-0.1543,-0.022826,-0.10326,-0.099709,-0.12696,-0.022395,0.089835
-0.005656,0.05252,0.11262,0.099587,0.10112,0.14251,0.069656,-0.0080371
0.0050432,0.084082,0.21391,0.04608,-0.016678,-0.085826,-0.10794,-0.02352
-0.020761,-0.013288,-0.24192,-0.10004,-0.039049,0.032745,0.048055,0.011687
-0.021627,0.14839,0.088173,0.066981,0.025945,-0.017024,-0.14892,-0.10656
0.071424,-0.099222,0.022718,-0.047219,-0.0018235,0.10056,0.2543,0.10475
-0.00079721,0.14498,0.14515,-0.013518,-0.052604,-0.12307,-0.063448,-0.035507
0.018339,0.0087851,-0.055034,0.042646,0.068315,0.068812,0.044634,0.01043
-0.059425,-0.24606,-0.1817,-0.027404,0.00099784,0.081303,0.037378,0.0072619
-0.0076904,-0.074705,-0.064355,-0.0049349,-0.044067,-0.18817,-0.17336,-0.022019
-0.02909,-0.047243,-0.11727,-0.0069476,0.010967,-0.029337,-0.058232,-0.0070133
0.0024686,0.033912,0.24646,0.037208,0.017592,0.06535,0.08458,0.0059687
0.04943,-0.022851,-0.018196,-0.0048614,0.015026,0.025723,0.012376,-0.0055943
-0.027183,0.028853,-0.026152,-0.015542,-0.011989,0.14128,0.09261,-0.0093762
0.039721,0.34899,0.084139,0.02117,-0.055111,-0.095182,0.083997,0.073766
-0.037931,-0.044318,0.017482,-0.027251,0.019098,-0.15181,-0.3872,-0.099163
-0.017659,0.021723,0.017026,0.011249,0.03157,0.16722,0.05534,0.011231
0.053157,-0.039336,-0.057627,-0.027322,-0.032803,-0.090881,0.13137,0.061035
-0.014233,-0.15863,-0.058401,0.060134,0.060683,0.019304,0.036676,-0.020697
0.075248,-0.19723,-0.017248,-0.054606,-0.039448,0.060165,0.23204,0.07757
-0.024174,0.23416,0.041594,0.081442,0.065087,0.054864,0.044912,0.026637
-0.040928,-0.013452,-0.031023,-0.055323,-0.063572,-0.090689,-0.25994,-0.11973
0.047097,-0.24449,0.037802,-0.027564,-0.0040389,-0.0096069,-0.065931,-0.010476
-0.15905,0.10435,-0.072612,-0.046393,-0.030293,0.0010781,-0.099647,-0.067461
-0.018323,0.12774,0.059341,0.036414,0.0055676,-0.027363,0.10061,0.0067668
0.10334,0.052752,0.019339,0.033075,0.0014933,-0.071325,-0.12785,0.095986
-0.026601,0.10571,0.041446,0.036966,0.066437,0.14284,0.13066,-0.033079
0.047009,-0.081698,0.047172,0.039827,-0.010879,-0.017549,0.057103,0.042386
0.04476,-0.065939,-0.11227,-0.060347,-0.011937,-0.060407,-0.043402,-0.0052136
-0.0085741,0.088475,0.031605,0.0095502,0.016312,0.10766,0.1956,-0.0040019
-0.026401,-0.12014,-0.036862,-0.06308,-0.043187,-0.05302,-0.1184,0.084578
0.03029,-0.012934,-0.044047,-0.012401,-0.018176,0.003717,0.22279,-0.037196
-0.081335,-0.042722,-0.067686,-0.0019505,0.021668,-0.0040169,-0.3853,-0.14369
0.059549,0.010745,0.12707,0.062788,0.053758,0.18124,0.36744,0.16278
-0.087356,-0.053251,0.040646,-0.004822,-0.077192,-0.37793,-0.4968,-0.14155
0.039227,0.10402,0.13422,0.022584,0.0047592,0.13939,0.07697,0.0059759
0.047603,0.024148,-0.17812,-0.04972,0.011312,-0.047066,0.17653,0.059099
-0.031806,-0.0021509,0.033148,0.051978,0.013213,0.032673,-0.10923,-0.043795
-0.035488,-0.013626,-0.091588,-0.055205,-0.0051653,0.12191,0.066885,0.0028766
0.067534,0.13696,-0.021305,0.058029,0.057264,-0.020783,0.012703,0.051308
0.050688,0.025137,0.09544,-0.030816,-0.026965,-0.012383,0.10538,0.015714
-0.10923,-0.2433,0.008652,-0.033421,-0.0090508,0.0061142,-0.068417,-0.00276
