0.11224,-0.0020007,0.0048408,0.020305,0.02022,0.041365,0.0057818,0.028534
0.044672,-0.016419,-0.073946,-0.040843,-0.023942,-0.016337,-0.15282,-0.24082
-0.042305,0.0016243,-0.0026016,-0.0077313,0.010542,0.012313,0.17299,0.29015
0.16335,-0.010269,-0.01521,-0.028938,-0.01729,-0.029626,-0.18148,-0.1532
0.019968,0.025964,0.0056482,0.043787,0.0093584,-0.025643,-0.10732,0.014716
-0.21607,0.05537,0.091324,0.061792,0.043229,0.10183,0.31705,0.091255
0.063034,-0.10222,-0.188,-0.10796,-0.048806,0.00091681,-0.12723,0.08546
-0.11291,0.052531,0.12816,0.073409,0.0065089,-0.10967,-0.12765,-0.25868
0.1144,0.018859,0.0076837,-0.011443,0.0060347,0.02038,0.20652,0.23285
-0.029059,-0.016499,-0.050742,-0.050083,-0.0031884,0.032284,0.14106,-0.20338
0.073847,0.0005099,0.08405,0.027816,-0.013033,-0.010669,-0.2456,-0.04982
-0.13899,-0.039888,0.0040018,0.0035919,-0.023099,-0.021728,-0.070222,0.046446
0.23942,0.010665,-0.026947,-0.021067,0.021698,-0.023671,-0.0041509,0.2266
-0.071187,0.066501,0.052473,0.024282,0.0044682,-0.023978,-0.17182,-0.04879
-0.17909,-0.05147,-0.078519,0.022544,0.065966,0.20381,0.55218,-0.069948
0.18244,-0.022088,-0.04441,-0.018428,-0.04388,-0.051792,-0.29294,0.33327
-0.30596,-0.047501,-0.1874,-0.012713,-0.02063,-0.088547,-0.012163,-0.47383
0.16888,0.068569,0.19808,0.0083961,0.018168,0.053455,0.21411,-0.14129
0.13849,0.037879,0.16198,-0.0020116,-0.029416,-0.15014,-0.43542,0.35327
0.055822,0.009444,0.059163,0.034205,0.055086,0.14384,0.16317,-0.1624
-0.095305,0.01481,-0.13072,-0.046917,-0.048753,0.0056422,0.23557,-0.086486
0.09838,-0.078794,-0.19422,-0.003,0.010723,-0.064243,-0.14049,0.46447
-0.15298,-0.013689,-0.090757,-0.029088,-0.039637,0.013295,0.37127,-0.40717
-0.2562,0.0067769,0.094044,0.039182,0.019344,-0.057313,-0.47799,0.10399
0.23377,0.076126,0.26531,0.05365,0.039703,0.022184,-0.35036,0.084376
0.12949,-0.11052,-0.024812,-0.063613,-0.025011,0.049827,0.32695,-0.036097
-0.084397,0.071711,0.071571,0.062467,0.044244,-0.020551,0.072088,0.094119
-0.05609,0.052377,-0.15298,-0.075985,-0.025859,0.092394,0.090145,-0.31423
-0.058942,-0.043666,-0.038654,-0.0026005,-0.0088233,-0.033747,0.10855,-0.11302
0.24279,0.002074,0.036128,0.032327,-0.0064202,0.014047,0.017411,0.25202
0.19241,0.017256,0.10843,0.051876,0.020123,-0.054596,-0.16956,0.49914
-0.46852,-0.2489,-0.32199,-0.084961,-0.06231,-0.069089,-0.0022044,-0.48938
-0.068812,0.085211,-0.03489,0.027713,0.06632,0.12581,-0.046518,0.16876
0.070669,0.07262,0.20691,0.022422,-0.023877,-0.11887,-0.055915,-0.45651
0.16828,0.17221,-0.022835,0.0083637,0.010715,-0.021901,-0.017548,0.095594
0.27072,0.16307,-0.025521,-0.022332,0.029396,0.11245,0.35591,0.58298
-0.30169,-0.13633,0.15444,-0.046161,-0.069437,-0.0041691,-0.18597,-0.54876
-0.17368,-0.10974,0.07293,-0.023903,-0.028014,-0.074133,-0.13453,0.1148
0.11613,-0.069152,-0.13731,0.060277,0.052026,0.051597,-0.04242,0.17566
0.091901,-0.082628,0.24921,0.081597,0.06118,0.013929,0.069805,0.0092628
0.18423,-0.05249,-0.19084,-0.045687,-0.008535,-0.03099,0.10383,0.22551
-0.30113,-0.036149,-0.23997,-0.016709,-0.01667,0.07263,-0.13255,-0.49525
-0.011502,0.14364,0.054387,0.012468,-0.033652,-0.019648,0.16002,-0.19133
0.093235,0.093054,-0.080871,-0.036055,-0.0047864,0.0039432,0.076778,0.35674
-0.048612,-0.0053328,-0.027531,-0.06045,-0.023655,-0.083734,-0.20228,-0.24125
0.055551,0.10682,0.22349,0.041119,0.019434,-0.0095036,-0.029604,0.28012
-0.00066737,0.044731,0.11065,-0.0045935,-0.031363,-0.054483,-0.078931,0.0057301
0.024183,-0.10198,-0.037776,0.028994,0.050913,0.14902,0.19408,0.34773
0.050702,-0.010662,0.097659,0.079152,0.039999,-0.031052,0.20072,-0.18074
-0.10242,-0.10895,-0.15667,-0.049922,-0.017092,0.039007,-0.069318,-0.33212
-0.069673,-0.042531,0.001687,0.00045981,-0.0032079,-0.061839,-0.18813,-0.20196
0.20224,0.013246,0.023697,0.010806,0.0033678,0.0030196,-0.19545,0.037326
-0.11555,0.033492,-0.13123,-0.058576,-0.083506,-0.039427,0.22962,0.33998
0.10992,0.018869,-0.072956,-0.012734,0.064134,-0.017165,-0.15341,0.49007
-0.02643,-0.0047175,0.035101,-9.751e-05,-0.0068925,0.17123,0.056342,-0.24242
-0.18649,0.013311,0.17119,0.034411,-0.023072,-0.060526,0.18956,-0.82083
0.0075685,0.053735,0.16576,0.052437,0.039222,-0.048872,-0.17354,0.2137
-0.20686,-0.090377,-0.35365,-0.08576,-0.038513,-0.052126,0.014999,-0.047698
0.41497,0.052887,0.076123,0.019159,0.040836,0.062084,0.13002,0.64853
-0.070839,0.024471,-0.0043362,-0.02269,-0.027263,-0.058111,-0.009572,-0.18879
0.023037,0.020085,0.13207,0.070391,0.030636,0.087113,0.30487,-0.14773
0.014951,-0.00037295,0.016059,0.017219,-0.027822,-0.057014,-0.44493,0.18044
0.034173,-0.062547,-0.017959,-0.049711,-0.023298,-0.037434,-0.16757,-0.30599
-0.11918,-0.013131,-0.10501,-0.0060396,0.0046432,0.028549,0.1901,0.36787
0.042298,0.019713,0.080529,0.0067679,0.055414,0.078228,0.010495,-0.11217
0.045719,0.056557,-0.096493,-0.0043543,0.0034279,0.017564,0.02874,0.24595
-0.15066,0.0093435,0.073106,0.045773,0.027902,0.018136,0.098088,-0.32834
0.06966,-0.091749,-0.013121,-0.062103,-0.074534,-0.099945,-0.14644,-0.35162
0.098736,-0.020047,-0.026933,0.0077883,-0.030378,-0.039807,-0.061938,0.17153
-0.27102,0.0069277,-0.0063175,-0.0021699,-0.0032959,-0.035577,0.048783,-0.29887
-0.14438,-0.0087352,-0.019766,0.010094,0.046455,0.046023,0.24943,0.52776
0.35869,0.037086,0.02871,-0.017199,-0.020904,0.010265,0.0091305,0.091136
0.023865,0.092277,0.063253,0.033938,0.022036,0.060824,-0.30528,-0.060675
0.065127,-0.059759,-0.039224,0.007982,0.02752,0.10434,0.2897,0.14131
-0.094525,-0.058243,-0.050906,-0.032036,-0.027503,-0.13247,-0.40231,-0.45612
0.020589,0.06605,0.083308,0.023506,-0.0023798,-0.009051,0.25054,0.11513
0.0016763,-0.0076566,-0.043299,-0.02859,0.016623,-0.0021602,-0.033664,0.16354
0.024884,0.024077,0.068052,0.030056,-0.0023518,-0.026107,-0.028644,0.18268
-0.015045,-0.020193,-0.037497,0.0035252,-0.0053763,0.043918,0.10157,-0.053747
-0.04303,-0.0017568,-0.041551,-0.022973,-0.0088447,-0.010916,-0.033432,-0.037367
-0.13899,-0.00045394,0.015077,0.020144,-0.0055834,0.020355,-0.058426,-0.24251
0.024937,-0.0018774,0.099854,0.038527,0.004001,-0.080916,-0.12178,-0.00024306
-0.042331,-0.061257,-0.19408,-0.093198,-0.019277,0.083827,0.11224,-0.17771
-0.065306,-0.037804,0.016202,-0.00011769,0.010671,-0.0087744,0.25253,0.079413
0.18489,0.014534,0.036144,0.021093,0.00046491,0.016271,-0.068823,-0.0055387
0.1633,0.11247,0.093477,0.041174,0.013098,-0.03645,-0.11036,0.017936
0.074134,-0.031918,-0.037058,-0.017437,0.0022123,-0.0030428,-0.20074,0.31066
-0.020038,0.043247,-0.010565,0.0099066,0.022945,0.053807,0.0036231,0.43819
-0.24496,-0.036471,-0.052845,-0.024729,-0.025943,-0.022286,0.29218,-0.27012
-0.0002145,-0.013127,0.086365,0.0040082,-0.011471,-0.036044,-0.05295,-0.16624
-0.083765,0.01148,-0.007236,0.025968,0.027321,0.028245,-0.046146,-0.38437
0.081871,0.013438,0.032925,-0.0057499,-0.034672,-0.071417,-0.11572,-0.058984
-0.011157,-0.031236,0.065425,0.0024251,0.013297,-0.0066811,-0.10417,0.14448
-0.034211,-0.044885,-0.23079,-0.043534,-0.016513,0.081992,0.20809,-0.056109
0.2323,0.026887,0.010947,0.020122,0.024074,0.007115,0.13376,0.47154
-0.14827,-0.01914,0.040488,0.0056059,0.0098188,0.05756,0.023841,-0.10117
-0.0034213,0.043665,0.045504,0.02989,0.010838,-0.063936,-0.28703,-0.10309
0.049829,0.020143,0.026417,-0.032143,-0.012046,-0.0063215,0.10549,-0.058866
-0.051357,-0.003606,0.030621,-0.00081243,-0.027597,-0.020118,0.01167,0.022059
0.01254,-0.011846,-0.011704,0.0146,0.0033383,-0.074496,-0.23488,-0.073194
-0.0095902,-0.035779,-0.084554,-0.048236,-0.012806,0.11156,0.37156,-0.080974
0.060727,0.073033,0.093564,0.04526,0.010141,-0.03227,0.024654,0.22357
-0.027607,-0.036969,-0.055349,0.0062192,0.025525,0.017646,-0.21404,0.2299
-0.025379,0.024885,0.078132,0.014473,0.0022559,-0.027387,0.030412,-0.44514
-0.050122,-0.10847,-0.17005,-0.047105,-0.0049252,0.020606,-0.030137,0.050644
-0.00013306,0.031875,0.035991,0.016764,0.0039202,0.044971,-0.018775,0.070463
0.031399,0.063302,0.094595,0.0028322,-0.026052,-0.078752,0.20789,-0.14091
0.014071,-0.021898,0.0055313,0.028091,0.045573,0.071822,0.020422,0.16195
0.050404,-0.020639,-0.06752,-0.048325,-0.054854,-0.11224,-0.49948,0.26386
-0.1087,0.04341,0.046774,0.0077067,0.031873,0.072515,0.29218,-0.23017
0.099999,-0.017661,-0.019426,0.0084558,-0.045903,-0.037796,-0.062893,-0.32497
0.052032,0.030002,0.014475,0.008439,0.039921,0.056815,0.22593,0.29413
-0.0022327,0.045276,0.085451,0.046639,0.015953,0.035819,0.049506,0.0032524
-0.14065,-0.097173,-0.072366,-0.048779,-0.031787,-0.10899,-0.07764,0.060115
0.027675,-0.038005,-0.036956,-0.019831,0.013981,0.074972,-0.063943,-0.044387
-0.051697,0.043421,-0.018695,0.032221,0.020531,-0.006592,-0.14662,0.054574
-0.042606,-0.024096,-0.14949,-0.071925,-0.027692,0.020812,0.31975,-0.19302
0.21908,0.041605,0.14984,0.043135,0.0021823,-0.069732,-0.40974,0.12336
-0.13405,-0.00069459,0.091211,0.018367,0.0086495,-0.0049334,0.13932,0.047104
0.069313,-0.032979,-0.020039,0.0023993,-0.0082254,0.027764,0.043568,-0.12017
0.0079705,0.054633,0.097522,0.03429,0.0063235,-0.010482,-0.010333,0.072411
0.063635,-0.019043,-0.15798,-0.018978,-0.0023032,0.029067,0.070997,0.0063903
-0.069444,-0.027854,-0.021621,-0.024948,-0.010583,-0.0017429,0.21718,0.12694
-0.095177,0.058633,0.036961,0.000333,-0.0028305,-0.001162,-0.37635,-0.29938
0.0017692,0.012773,0.0090844,0.0017852,0.02097,0.015226,0.048496,-0.012947
0.07325,-0.033767,0.019099,0.002568,0.006082,-0.0073794,0.10934,0.21518
-0.067412,0.0039481,-0.019248,0.0025659,-0.0085564,-0.037962,0.010013,-0.026484
0.018441,-0.10132,-0.05902,-0.052856,-0.03876,-0.0065128,-0.021911,-0.071464
0.019511,0.03298,-0.006076,0.023988,0.032423,0.063229,0.12433,0.26186
0.038285,0.086703,0.12457,0.061483,0.025061,-0.047726,-0.30734,-0.048672
-0.042038,-0.095904,-0.08047,-0.010421,0.0014495,0.004253,0.13819,-0.38529
-0.057697,0.063969,-0.011206,-0.01963,-0.015092,0.039517,0.095724,0.095637
0.14659,0.004534,0.0906,-0.012876,-0.024555,0.003597,-0.11268,0.12777
0.12406,0.046712,0.029829,0.017726,-0.0033445,-0.079673,-0.19685,-0.10264
-0.064394,-0.043451,-0.13888,-0.029374,-0.013675,0.048056,0.21838,0.33243
-0.22484,-0.00010855,0.013919,0.025494,0.022946,-0.042289,0.069606,-0.25644
-0.037791,-0.034153,0.003439,0.010421,0.02877,0.040516,0.20638,0.13668
-0.011107,-0.051907,-0.030212,-0.051197,-0.027145,0.031335,-0.038122,-0.16951
0.082474,0.063674,0.045176,0.020275,0.011626,-0.014863,-0.2607,-0.01978
0.19735,0.038988,0.049274,0.013828,0.0044798,-0.027741,-0.034384,0.23409
-0.063359,0.022319,0.098651,0.023115,-0.0018363,-0.054427,-0.071923,-0.26667
-0.080971,-0.041138,-0.041553,0.001137,0.015886,0.11552,0.13388,-0.028503
-0.033985,-0.034252,-0.17627,-0.013179,-0.012935,0.012671,0.060227,0.15355
0.0001711,-0.019511,-0.01634,-0.051205,-0.041666,-0.074651,-0.15841,-0.093548
0.076307,0.010977,0.0011917,0.0276,0.0076466,-0.022148,0.027083,0.16162
-0.040379,0.041697,0.2052,0.04352,0.025546,0.060256,0.15803,-0.032874
0.047674,0.025874,-0.075281,-0.026852,0.0042114,-0.038701,-0.091847,0.034422
-0.027869,-0.020815,-0.050303,-0.01937,-0.0094562,0.0090322,0.22386,0.0039942
-0.018209,-0.035891,-0.00040978,-0.0042364,-0.023254,-0.05421,-0.23056,-0.23418
0.052191,0.0039903,-0.011127,0.018662,0.04091,0.053121,0.14596,0.22522
-0.15327,0.020561,0.066047,0.010353,0.01106,0.01108,-0.2023,-0.19692
0.18555,0.021469,0.04335,0.017759,0.0042263,0.046579,-0.003081,0.1157
-0.15756,-0.032496,-0.087535,-0.037246,-0.050086,-0.035408,0.062867,0.037359
0.083821,-0.0008115,0.00089208,0.0015424,-0.0035997,-0.023734,0.033847,-0.11996
0.0045459,0.0071159,-0.0044689,0.0012445,0.01859,0.011448,-0.0045549,0.096496
-0.034792,-0.016483,0.0052922,0.024288,0.016488,-0.0078411,0.072698,0.092737
0.045048,0.0066238,-0.016956,-0.023131,-0.0097906,-0.026748,-0.14029,-0.045454
-0.020737,0.021898,-0.016559,-0.0004113,0.0024745,0.0096115,0.052328,-0.10719
-0.044261,-0.017377,0.084762,-0.0012845,-0.0089122,0.0076961,-0.012898,-0.084594
0.052486,0.02956,-0.0095833,0.021182,0.0032782,0.045821,0.062995,0.15534
0.12045,0.014368,0.01324,0.012394,0.015968,0.014743,-0.0087028,0.12853
-0.23982,-0.10198,-0.11988,-0.058786,-0.033023,-0.077689,-0.095077,-0.19591
0.095414,0.024215,0.028794,0.018695,-0.010655,-0.0049895,0.092775,-0.005079
0.038891,0.025665,0.021907,-0.0050649,0.020677,0.013894,-0.054913,-0.072099
0.011335,0.066242,0.13288,0.049683,0.045301,0.033337,0.0707,0.16574
0.027579,0.02071,-0.11501,-0.0045461,-0.0072808,0.013877,-0.0075084,0.020987
-0.037666,-0.087736,0.0045163,-0.027156,-0.020175,-0.02931,-0.086857,-0.076775
-0.1216,-0.02492,-0.040113,-0.0025816,-0.024976,0.036164,0.12152,0.083191
0.018793,-0.0018831,-0.0070424,-0.0090162,0.0014162,-0.032224,-0.11663,-0.030545
0.0879,0.051698,0.22066,0.023785,0.01185,0.0075421,0.1289,0.042916
-0.030039,-0.012499,-0.26342,-0.037056,-0.0094947,-0.039821,-0.14113,-0.26655
0.049147,0.032273,0.079756,0.027138,-0.00022947,-0.010026,-0.11328,0.096178
0.060876,-0.055966,-0.10914,-0.025924,0.00053514,0.0035477,0.15081,0.13165
-0.1896,-0.003591,0.12311,0.037989,0.024042,0.056024,0.057958,-0.20647
0.17274,0.095787,0.10476,0.023377,0.023436,0.030623,0.037969,0.31652
-0.063545,-0.078065,-0.070357,-0.030903,-0.024673,-0.025469,0.0044904,-0.072814
-0.024363,0.021754,-0.011533,0.0077798,0.0048069,-0.026135,-0.019885,-0.070124
-0.023378,-0.042266,-0.031134,-0.032554,-0.044222,-0.018201,-0.098739,-0.027541
0.063172,0.018904,-0.011749,0.019985,0.00815,0.037344,0.1028,0.14807
-0.039285,0.0099139,-0.031168,-0.0063231,0.0059436,-0.039307,-0.17391,-0.16874
0.043372,0.0088524,0.0047695,-0.017446,0.004126,0.0094956,0.016016,-0.17344
-0.056548,-0.0077401,-0.075415,-0.0052067,0.0029291,-0.01175,0.024087,0.13417
0.028091,0.022643,0.18949,0.038591,0.025924,0.037368,0.084956,0.059236
0.063336,0.014124,0.096432,0.036161,0.01843,0.047247,0.16002,0.16487
-0.12183,-0.040978,-0.1282,-0.027877,-0.035291,-0.09172,-0.19552,-0.017066
0.083159,-0.0018226,-0.14103,-0.036212,0.0051833,0.018695,0.073524,-0.0095552
-0.031262,-0.016571,0.10436,0.0033419,-0.024447,0.034591,-0.087076,-0.32015
-0.034076,-0.0068128,-0.048735,-0.0030809,0.00059485,-0.036286,-0.051908,0.11363
0.0054615,0.012037,0.063373,0.014622,0.017631,0.032663,0.14033,-0.052344
0.033222,0.032207,-0.012684,0.0092904,-0.01252,-0.00060383,-0.11167,0.14203
-0.060283,-0.032448,-0.027022,-0.0037799,0.011627,-0.034296,0.020373,0.15635
0.09129,0.059777,0.051601,0.029758,-0.0037263,-0.068145,-0.010509,-0.28466
0.07237,0.0191,-0.011112,-0.023216,0.019499,0.11686,0.15476,0.3247
-0.079925,-0.085026,0.019348,-0.03012,-0.0046795,-0.0025449,-0.046801,-0.17388
0.0073706,0.019993,-0.091228,0.0011173,-0.021612,-0.027839,0.0014006,0.038317
0.051289,0.005367,0.0010907,0.0080046,0.023382,0.040928,0.0019528,0.17935
-0.17575,-0.019874,0.023034,0.0062981,-0.010273,-0.062009,-0.24864,-0.61751
0.03712,0.03028,0.076303,0.019662,-0.0052562,-0.0087029,0.030753,0.0087896
0.097135,0.015713,0.043817,0.017135,-0.00041276,0.060059,0.23087,0.45152
-0.048521,-0.015806,-0.011835,-0.024406,-0.011074,-0.058938,-0.093335,-0.028329
-0.069275,-0.039683,-0.14524,-0.018712,0.0021543,0.032758,0.10537,0.033423
0.060865,-0.023432,-0.059382,-0.020199,0.023966,0.022768,0.046072,0.25678
-0.062192,0.010604,0.11306,0.018208,-0.03133,-0.065261,-0.19276,-0.51236
0.078488,0.031925,0.0050132,0.018482,0.031709,0.034556,0.076737,0.20391
0.029949,0.032957,0.061768,0.011838,0.0021227,-0.005651,-0.074741,-0.27358
0.041163,0.013375,-0.060599,-0.033142,-0.018697,0.0018197,-0.060835,0.13305
0.047604,0.03485,0.067256,0.039514,0.0080179,0.018008,0.03288,0.016562
0.023245,-0.0053313,-0.031664,0.0029058,0.011587,0.035085,0.17535,0.38309
-0.17512,-0.06931,-0.014027,-0.018287,-0.023996,-0.072076,-0.055343,-0.39457
0.036435,-0.040892,-0.036356,-0.00085681,0.010309,0.04788,0.12169,0.44664
-0.19468,0.016855,-0.020565,-0.030828,-0.018555,-0.074045,-0.20817,-0.4708
0.10822,-0.013315,0.010119,0.0012503,0.022096,0.038468,-0.0065536,-0.039739
0.094723,-0.021625,0.032663,-0.0059796,-0.01619,0.08053,0.10093,0.027213
-0.030249,0.023876,-0.038396,0.025874,0.015102,-0.080812,-0.1518,0.01811
0.063414,0.09271,0.031712,0.0032986,-0.0088845,-0.0081243,0.14133,0.19818
-0.028859,-0.0098025,0.032242,0.020176,0.0057675,-0.0060887,-0.1056,-0.11216
-0.0795,-0.0255,-0.0056317,-0.0016418,0.0045381,0.050361,0.18576,0.30632
0.13041,0.022201,0.042765,0.00017277,-0.0046118,-0.018359,-0.15617,-0.21743
0.0064901,-0.015386,-0.018358,-0.0059072,0.017506,0.022244,0.056429,-0.11192
0.063174,-0.052723,-0.0801,-0.027998,-0.02275,-0.046476,-0.066809,-0.016246
-0.23217,-0.019911,-0.0021646,-0.003852,-0.00027999,-0.0056986,0.083682,-0.045789
0.095844,0.043671,0.043505,0.027332,-0.0087343,0.02741,0.070511,0.027924
-0.0002879,-0.018385,-0.044437,-0.020383,0.022291,0.013745,-0.12971,0.073775
-0.036097,0.020485,0.0078953,-0.0062412,-0.016508,-0.0077394,-0.032618,-0.10242
0.051722,0.027594,0.044807,0.023096,0.0077055,-0.0059591,0.0023659,0.28866
-0.094889,-0.012495,-0.050373,-0.018073,-0.014488,-0.027993,0.068868,-0.097444
0.0099188,-0.037085,0.066446,0.018893,0.010529,0.0197,-0.036458,-0.020182
-0.038876,0.047742,0.059411,0.016932,0.012224,0.058817,0.2251,-0.16146
0.18904,-0.01572,-0.10292,-0.016104,-0.0018801,-0.08262,-0.33443,0.23419
-0.017479,-0.024298,-0.022504,-0.0021229,0.0069701,0.056323,0.12033,-0.1243
0.12181,-0.0014444,0.026696,-0.011504,0.0072552,-0.024231,-0.044023,0.027478
-0.16813,-0.009726,-0.018334,0.0025763,-0.024621,-0.034978,0.078269,-0.17001
0.0015468,0.052319,0.092008,0.016683,-0.010526,-0.0068377,0.1197,-0.012737
0.074672,0.028322,-0.072171,-0.015981,0.018489,0.052743,-0.091624,0.12608
-0.31675,-0.058383,0.028222,0.0062906,0.00030054,0.042536,-0.070986,-0.063768
0.16327,0.010885,-0.036241,-0.017886,-0.017734,-0.037224,-0.036385,0.32638
0.039067,-0.029514,-0.022941,-0.018044,-0.019498,-0.045827,-0.017993,-0.12325
-0.047275,-0.03892,-0.0016913,0.013703,-0.020237,-0.053676,-0.014568,-0.23926
0.12463,0.013975,-0.026745,0.014789,0.058332,0.071772,0.076621,0.21358
-0.068807,0.074534,0.089649,0.031872,0.028583,0.048847,0.076731,-0.19432
0.099856,0.064647,0.03499,0.025554,0.022929,0.017673,0.017359,-0.026025
0.037077,-0.031311,0.074656,0.011089,0.0095287,-0.014409,-0.023567,0.21731
-0.17944,-0.096125,-0.15893,-0.082129,-0.074742,-0.0086508,0.00018042,-0.16126
0.027549,0.010948,0.02135,-0.012019,-0.019435,-0.074465,-0.16227,0.094117
0.12575,0.047975,0.05278,-0.0050023,0.00336,0.0072058,0.13667,0.17671
-0.19832,-0.078406,-0.18178,-0.013826,-0.014043,-0.005196,0.076132,-0.20438
0.023369,0.030699,0.099227,0.055783,0.0069153,-0.048336,-0.22686,0.027605
0.10297,0.00069588,-0.0099965,-0.030029,0.012175,0.066138,0.063899,-0.16702
-0.0063911,0.0036902,0.037853,0.041607,0.033643,0.096706,0.058389,0.16508
-0.031002,0.05525,0.063304,0.012972,0.024969,-0.018808,-0.023949,-0.037575
0.084262,0.053425,0.0037436,-0.014594,-0.01357,-0.014871,0.0049287,0.0391
-0.089818,-0.072772,-0.070977,-0.0025309,-0.011682,-0.032578,0.090489,-0.024971
-0.037217,-0.042939,-0.013127,-0.0061993,-0.024345,-0.049225,-0.12702,-0.22038
0.054809,0.024881,0.1531,0.012778,-0.005166,0.0281,0.046805,0.282
0.030046,0.028425,-0.072883,-0.0086394,0.029662,-0.012339,0.14188,0.076038
-0.041377,-0.071786,-0.13662,-0.055104,-0.037593,0.0085016,-0.054235,-0.14381
-0.0035919,0.013231,-0.03788,0.014047,0.034819,0.019868,-0.20693,0.034833
0.0179,0.018097,0.052096,0.011644,-0.011184,0.0059146,0.1048,-0.0074445
0.038212,0.029249,0.048258,-0.007105,-0.011618,-0.0099404,0.076106,0.14118
-0.013355,0.02389,0.068685,0.044319,0.017995,0.027143,0.051375,0.0023857
0.034952,-0.028554,-0.018779,-0.0054562,-0.01584,-0.030981,-0.21019,-0.41688
-0.13693,-0.018093,-0.010752,-0.0076705,0.012233,-0.027667,-0.058251,-0.022585
0.0028957,-0.022368,0.069142,0.014341,-0.0067554,0.029743,0.095205,0.10855
0.06482,0.037066,-0.076527,0.0057913,0.021337,0.040189,0.11138,0.43977
0.042265,0.0040962,-0.10476,-0.033548,-0.035965,-0.081773,0.046196,-0.026113
-0.0010083,0.011503,0.093041,0.0054338,0.02471,0.062736,-0.0062406,-0.18457
0.014187,-0.011205,-0.00715,-0.018101,-0.015253,-0.018121,-0.023018,-0.13445
-0.17712,-0.033062,0.016214,0.020747,0.031667,-0.0038144,-0.091363,-0.13918
0.081377,0.00027033,0.014686,-0.018623,-0.0143,-0.0036565,-0.064603,0.16199
0.078137,0.033735,-0.066143,-0.0032832,-0.02051,0.0056803,0.15694,0.12096
-0.039693,-0.018967,0.016391,0.020044,0.0049987,-0.02296,-0.053404,-0.28661
0.09324,-0.0019073,-0.010584,0.0045979,-0.016163,0.0037436,-0.048369,0.31992
-0.025187,0.022157,0.064396,-0.0027228,0.01729,0.069633,0.046525,0.077946
0.0092206,0.029631,0.015153,0.029241,0.026964,-0.044606,0.051781,-0.0085945
-0.08639,-0.026395,-0.033122,-0.0090757,0.012625,0.027709,-0.078649,-0.12324
-0.023774,-0.059868,-0.033563,-0.031968,-0.041519,-0.065334,-0.093468,-0.15191
-0.013715,0.031041,0.029291,0.0072296,0.0050873,0.035521,0.12602,0.075569
0.069909,0.020153,0.045817,0.014653,0.004057,0.0023061,-0.0203,0.059308
-0.15383,-0.037398,-0.13268,-0.040926,-0.013185,-0.01613,0.070238,-0.081548
0.11421,0.030697,0.056108,0.020346,0.00050936,-0.019191,-0.11741,-0.14041
0.040349,0.021651,0.065183,0.011244,-0.0092245,0.0015956,0.17452,0.012008
0.087296,-0.017472,-0.011726,-0.0054065,0.012608,-0.015687,-0.22646,0.39559
-0.048583,0.0070876,-0.065195,-0.0058688,0.019364,0.08559,0.13173,-0.22068
-0.085845,-0.014205,0.014239,0.002246,0.003343,0.00083088,0.068151,-0.10851
-0.017269,-0.019135,-0.0077107,0.018998,0.011406,0.0032653,-0.051186,0.12253
0.14035,0.031016,0.05651,0.0052287,-0.011248,-0.055992,-0.086518,0.06408
-0.059746,0.026534,0.05065,0.023215,-0.0022849,0.0099823,0.039905,0.17351
-0.0017809,-0.017222,-0.095667,-0.04453,-0.032179,0.013117,-0.085816,-0.11588
-0.10092,-0.037911,-0.0075541,-0.010814,0.00051133,-0.078301,0.06039,-0.073682
-0.068758,-0.043386,-0.044536,-0.024337,-0.029289,0.016693,0.026308,-0.19486
0.20394,0.028898,0.090091,0.024094,0.034618,0.055808,0.00037529,-0.027325
0.084595,0.077456,-0.0022941,0.017194,0.035907,0.039091,0.092686,0.14854
-0.21542,-0.038297,-0.017187,0.017429,0.01351,-0.0098663,-0.11832,-0.11794
-0.086327,0.017537,0.0061889,0.0091811,-0.0093338,-0.02835,-0.0077862,-0.073411
0.065729,-0.020803,0.052106,-0.030958,-0.032857,-0.039555,0.087749,0.07447
0.13106,-0.0050864,-0.074748,-0.024816,-0.0025831,-0.0041624,0.034602,0.44529
0.038547,0.0097818,-0.007047,0.019865,0.011059,0.015577,-0.10568,-0.15536
0.044866,-0.023233,-0.033578,0.017252,-0.0075207,0.051144,-0.029227,-0.12664
0.0081971,0.020832,0.033543,0.0065545,-0.00342,-0.0066383,0.029132,0.07627
-0.16604,-0.0063256,0.085366,0.0035957,0.0081214,-0.024789,0.077208,-0.057151
