-0.039848,0.059337,0.033075,0.028246,-0.0093649,-0.024804,-0.063224,-0.070499
0.13469,-0.10841,-0.13601,0.059402,0.044603,0.02952,0.05429,0.076747
0.16417,0.074072,0.16416,-0.065743,-0.041151,-0.0018388,0.045783,0.13781
-0.31941,-0.16748,-0.31715,-0.011284,0.0067249,0.0061525,0.052188,0.042874
0.12783,0.094701,0.18469,-0.074034,-0.0073897,-0.016908,-0.043449,-0.059359
0.027547,-0.12649,-0.042401,-0.011682,-0.005834,-0.0087073,-0.061329,-0.15322
-0.16115,0.095491,-0.022969,0.058694,0.034307,0.0070737,-0.017079,-0.012327
0.17737,0.17937,0.10921,0.082389,-0.012437,0.014576,0.018921,0.073975
0.12021,0.091255,-0.0058821,-0.050187,-0.013559,0.0058233,0.10129,0.097523
-0.15314,-0.17051,0.12386,0.03555,0.038683,0.019841,-0.012164,0.011119
-0.18893,-0.24685,-0.21184,0.042199,-0.050819,-0.052629,-0.079122,-0.13078
0.092385,0.011912,0.19952,-0.030707,-0.086307,-0.039443,-0.013367,0.078006
-0.0024842,0.092882,-0.22546,-0.097439,0.081264,0.02071,-0.041032,-0.14367
0.10682,0.10927,-0.053822,0.00628,0.022847,0.026671,0.057139,0.13418
0.039583,0.0029565,-0.055397,-0.039161,0.035867,0.033471,0.008194,-0.033317
-0.085434,-0.08899,0.0074959,0.025175,-0.004313,0.010072,0.093732,0.080914
0.076389,0.071322,0.23871,0.091284,-0.019429,-0.012229,-0.10799,-0.085125
-0.045185,-0.029421,0.013923,0.027705,0.0060866,-0.010092,0.020075,-0.023212
0.03359,0.11745,0.097439,-0.062939,0.0017371,0.00066123,0.055701,0.11848
-0.1025,-0.066799,-0.01398,0.01519,-0.056156,-0.042701,-0.11883,-0.19123
0.14668,0.080013,-0.14538,-0.0037065,-0.0037821,0.0080382,0.089647,0.1647
-0.20476,-0.13245,-0.14599,-0.22995,-0.0054714,-0.01138,0.02431,-0.040657
-0.041063,-0.23106,0.0022893,0.21756,-0.014686,0.00040856,-0.13561,-0.081314
0.20685,0.1399,0.23264,0.16468,0.054038,0.050976,0.10957,0.12795
-0.024555,0.031434,-0.18412,-0.23498,0.0047288,-0.016241,-0.037167,-0.05428
-0.0016761,0.1667,0.22032,0.30513,0.11782,0.040559,-0.013339,-0.027194
0.11093,0.199,0.10405,-0.32637,-0.029431,0.041284,0.11865,0.12268
-0.13217,-0.24108,-0.44302,0.2211,-0.15649,-0.13159,-0.16449,-0.19092
-0.01973,-0.18599,0.061207,-0.1615,0.072227,0.029597,0.059341,0.078937
-0.097877,0.13002,-0.11136,-0.17554,-0.085275,-0.014123,0.063809,0.073304
-0.021707,-0.13527,0.25619,0.25223,0.11402,0.0032668,-0.025803,-0.097647
0.14766,0.036646,-0.10504,-0.39015,-0.0081559,0.058976,-0.013857,0.0046365
0.075657,0.25917,0.21347,0.47136,-0.05936,-0.010238,-0.0015402,0.084436
-0.049045,0.0057232,-0.093501,-0.10547,-0.045468,-0.039449,-0.074386,-0.10718
-0.069433,-0.38293,0.025472,0.11566,0.089911,0.0033715,0.025803,-0.022568
0.10854,0.23822,0.53379,-0.11483,-0.12866,0.0016038,0.033688,0.1433
-0.17152,-0.22895,-0.65303,0.22553,0.17412,0.010197,0.027502,-0.10978
0.050814,0.33477,-0.017628,-0.25604,0.052266,0.029057,-0.024136,0.022124
0.13419,0.11716,-0.088063,-0.031061,-0.0661,0.0030575,0.065897,0.20194
-0.13312,-0.31297,-0.030729,-0.33692,-0.042546,-0.045085,-0.077964,-0.2279
-0.017475,0.017723,0.14678,0.22202,-0.043574,0.00093295,0.043643,0.10641
0.21497,0.010838,0.22042,0.29183,0.12391,0.054268,0.0082711,0.016601
-0.17824,0.0514,-0.17295,0.16762,-0.096343,-0.034291,-0.082889,-0.1928
0.0059908,-0.17913,-0.13804,-0.23755,0.10752,0.023795,0.020068,0.025596
0.017844,0.50867,0.2825,-0.072299,-0.20159,-0.021664,0.036083,0.086867
-0.29092,-0.40594,-0.33808,-0.11706,-0.077009,-0.10802,-0.096939,-0.14054
0.15788,-0.24701,-0.0065112,0.27054,0.13947,0.046399,0.051177,0.11012
0.35614,0.24144,0.32318,-0.54757,0.051548,0.098432,0.15273,0.2457
-0.079652,0.44281,0.27343,0.4472,0.098558,-0.02163,-0.12799,-0.21045
-0.0098398,0.16501,0.20016,-0.070389,-0.023015,0.030465,0.044918,0.068964
-0.099506,-0.49233,-0.49366,-0.2855,-0.15661,-0.057469,-0.078828,-0.097144
-0.12279,-0.2398,-0.28672,0.70172,0.15041,0.011558,0.015919,0.00053676
-0.0016527,-0.51318,-0.46838,0.055689,0.068781,0.0031111,0.070797,0.079281
-0.016651,0.13453,0.44735,-0.36478,-0.21537,-0.036113,0.061876,0.09906
-0.025764,0.58612,0.0024279,-0.31867,0.0075904,-0.0047923,-0.18303,-0.36222
0.16036,0.2522,0.25471,0.044135,0.064819,0.034314,0.031329,0.078835
0.067081,0.27332,0.22993,-0.23881,-0.083195,-0.004981,0.041135,0.17354
-0.030504,-0.24595,-0.016587,0.31529,0.040167,0.017723,0.018755,0.0095637
-0.045359,-0.33767,-0.1736,0.27498,0.052533,-0.0071214,-0.0038942,-0.0049765
-0.07081,0.12021,0.029616,0.30232,0.01705,-0.017111,-0.049529,-0.12626
0.041346,0.093506,0.26163,-0.21422,0.07501,0.042462,0.04658,0.053101
-0.0065405,-0.29361,-0.56623,-0.37815,-0.1324,-0.015731,0.011518,0.049273
0.034404,0.024246,-0.072418,-0.065805,-0.0032427,-0.019476,0.040929,0.080907
0.0066608,-0.031574,0.02507,0.081941,0.079895,-0.015157,-0.029112,-0.016658
-0.04411,-0.26203,0.11959,0.29265,0.023337,-0.041254,-0.042379,-0.072438
0.084213,0.23823,0.27775,-0.20495,-0.18856,0.043423,-0.030275,-0.071762
-0.14813,0.1808,-0.20679,-0.35327,0.092552,0.020552,0.014755,-0.031087
0.0085062,0.20672,0.037179,0.31949,-0.031926,-0.015956,0.029842,0.080204
0.077452,-0.15416,0.0044404,-0.051309,0.031516,0.027472,-0.024582,-0.050858
-0.089648,-0.077972,0.078469,0.52028,0.18099,0.0096927,-0.031999,-0.073131
0.23391,0.27939,0.28912,-0.066984,-0.052614,0.039299,0.10833,0.23163
-0.21738,-0.19397,-0.4761,-0.38421,-0.13837,-0.08773,-0.01073,-0.03567
0.15817,-0.1042,0.19261,-0.18294,-0.092074,0.018404,0.02403,0.046095
-0.061202,-0.0037471,-0.20156,0.089738,0.1332,0.005561,0.047956,0.085634
0.054461,-0.21058,0.0012133,0.11977,0.0064997,-0.040532,-0.18912,-0.28457
-0.18972,0.036421,-0.053922,-0.023529,-0.0029033,0.044388,0.016322,0.013864
0.035,0.24996,0.44353,0.10487,-0.0037617,-0.012556,-0.022292,-0.041592
-0.012855,0.25702,-0.053878,-0.080565,-0.0032794,-0.030885,0.016697,-0.03537
0.018894,-0.35574,-0.27977,0.37429,-0.016617,0.013686,0.087897,0.22184
0.16963,0.007713,-0.13075,-0.56822,-0.020124,0.035935,0.0051239,-0.026063
-0.15456,0.22596,0.044183,-0.015857,0.048599,0.012853,-0.019826,-0.059075
0.11598,-0.36855,0.16963,0.22034,0.064117,-0.00082006,0.0054646,0.01391
0.073941,0.16607,0.060529,-0.030496,-0.05242,-0.0054161,0.049311,0.1144
-0.1413,-0.37734,0.054486,-0.07283,-0.11444,-0.048451,-0.053333,-0.086876
0.070752,0.37864,-0.215,0.38166,0.15829,0.088011,0.10248,0.14284
-0.2046,0.028276,0.087679,-0.28589,-0.20394,-0.10467,-0.23461,-0.32326
0.048292,0.3903,0.21144,-0.062232,0.14184,0.036895,0.067057,0.044463
0.080108,-0.24185,-0.2905,0.3313,0.10136,-0.011142,0.014533,0.0417
-0.076707,-0.13059,0.10396,-0.31849,-0.083271,0.016788,0.037216,0.035012
0.24334,0.11774,0.1596,0.19791,0.10394,0.10536,0.15872,0.28996
-0.25528,-0.21176,-0.42829,-0.37758,-0.21113,-0.15887,-0.22196,-0.33362
0.029948,-0.16832,0.091117,0.11227,-0.034961,0.0062205,0.021009,0.024473
0.15409,0.067964,0.086469,-0.080654,0.016889,0.046887,0.052673,0.091916
0.015336,0.060961,0.075138,0.42102,0.18825,0.010911,-0.0088205,-0.067552
-0.12153,-0.10868,0.066511,-0.40394,-0.17577,-0.0072704,0.017036,0.023841
0.062604,0.42126,0.10848,0.26624,0.12874,0.031742,0.013612,0.031182
-0.12114,-0.26094,-0.3143,0.18986,0.054887,-0.059642,-0.073562,-0.10735
-0.017776,0.10386,0.047644,-0.25089,-0.10123,-0.000697,0.0053595,0.030369
0.066998,0.23457,0.48231,0.067583,0.033929,0.043623,0.085816,0.13938
0.0075902,-0.22881,-0.53507,-0.028387,-0.0023923,0.0018946,-0.067328,-0.10132
0.10076,0.033251,0.025451,-0.45453,-0.055791,0.044856,0.060664,0.05725
0.089123,0.18466,0.2645,0.39739,0.036295,0.0075114,0.015822,0.043725
-0.19825,-0.71102,-0.5372,0.034805,-0.039504,-0.11067,-0.054036,-0.08808
0.052633,0.48942,0.41714,0.24726,0.12299,0.041896,0.022726,0.036413
-0.15638,-0.30403,-0.067623,-0.29995,-0.13956,-0.096715,-0.050552,-0.082632
-0.026396,-0.094953,0.15722,0.012126,0.002355,0.037039,-0.062286,-0.0851
0.045966,0.12023,-0.25179,-0.048876,0.042683,0.053807,0.019708,0.014511
0.32757,0.52313,0.68225,-0.23111,-0.13403,0.02512,0.079237,0.17052
-0.22813,0.089755,-0.49323,0.23228,0.10634,-0.0012518,-8.775e-05,-0.045839
-0.043756,-0.081485,-0.3007,0.044624,0.084694,-0.0093003,-0.0069426,-0.024907
0.12893,-0.23032,0.1441,0.20484,0.035093,0.024223,0.042913,0.08443
-0.087567,-0.45712,-0.39916,-0.086281,0.0032507,0.0048949,-0.0073901,-0.054926
0.24151,0.32519,0.55581,0.082116,0.018691,0.048938,0.067777,0.18043
-0.27691,-0.2249,-0.036306,-0.24657,-0.12357,-0.14933,-0.13882,-0.22677
0.02744,0.63901,0.34869,-0.10651,-0.065695,0.042131,0.020501,0.050364
-0.048998,0.0096134,-0.21127,0.28969,0.08997,-0.017693,-0.040505,-0.074557
0.057157,-0.48648,0.071782,-0.065632,-0.10956,0.0072016,0.022142,-0.0073096
-0.081792,-0.18119,-0.48355,-0.13131,0.078938,0.031333,-0.0017883,-0.035615
0.10712,0.13431,0.18324,0.04965,0.047797,0.0085033,0.0058787,0.076797
-0.17029,0.021092,-0.29713,-0.25998,-0.14635,-0.052782,0.030503,0.0037729
0.13492,-0.046305,0.19823,0.32,0.18572,0.066723,-0.013161,0.020285
0.054923,0.3815,0.19049,-0.17482,-0.11114,-0.046899,-0.015565,-0.02144
0.057949,-0.014315,0.17715,0.15655,0.041395,0.035775,0.054095,0.050049
0.1265,0.17117,0.31957,-0.037305,0.12695,0.095358,0.038551,0.10046
-0.15633,-0.56587,-0.50201,0.38173,0.026785,-0.056519,0.014545,-0.020888
-0.012438,0.21446,-0.28962,-0.37235,-0.21426,-0.092633,0.011884,0.042909
-0.11642,0.16262,0.13555,0.14744,0.034571,-0.029336,-0.19716,-0.29625
-0.055859,-0.10905,0.13349,-0.14341,-0.0096026,0.047044,0.027423,0.069694
0.004972,-0.03307,-0.012308,-0.062756,-0.0039321,0.011531,-0.017398,-0.10165
0.19238,-0.023652,0.045609,-0.035795,0.012528,0.028614,0.091017,0.17507
-0.084857,-0.17972,0.0072703,0.24934,0.12661,0.028723,0.080504,0.10488
-0.010968,0.058346,-0.044074,-0.095827,-0.10541,-0.065343,-0.094299,-0.13009
-0.035725,-0.037677,-0.095756,-0.40277,-0.048716,0.013003,0.01339,0.027338
0.015578,-0.18048,-0.0032289,0.053125,-0.052864,-0.0088203,-0.024943,-0.037906
0.15255,0.3923,0.11095,0.05921,0.094759,0.010446,0.064847,0.12088
-0.077448,0.29207,0.10676,0.72997,0.090492,0.016437,-0.0061382,-0.073937
-0.04252,0.033437,-0.024926,-0.35329,-0.073274,-0.037743,-0.082005,-0.075924
0.067764,-0.15305,-0.076216,-0.017877,0.10284,0.058489,0.05522,0.07462
0.0083714,-0.28098,0.0032724,0.14101,0.039461,0.038892,0.06857,0.11028
-0.083166,-0.18494,0.067986,-0.52825,-0.24159,-0.081669,-0.082105,-0.11942
-0.069034,0.11353,-0.38692,0.18902,0.031546,-0.04616,-0.022766,-0.04607
0.11901,0.063316,0.37667,-0.031591,0.045098,0.05882,-0.004087,-0.0071233
-0.035683,0.18592,0.12938,0.15019,-0.029801,-0.01718,0.075195,0.12936
0.029509,0.028786,-0.12213,0.075771,0.080117,0.038149,-0.058266,-0.12112
-0.090462,-0.20995,-0.25224,-0.20123,-0.046681,-0.0094865,-0.0055979,0.0076109
-0.0029555,-0.15073,-0.016498,0.038154,0.043634,-0.019144,0.022921,0.079204
0.083556,0.18845,0.26056,0.01395,-0.03087,0.033109,0.035852,-0.037686
-0.00031768,-0.061944,-0.065119,-0.013997,-0.0036812,-0.070892,-0.052062,-0.029024
-0.010286,0.21987,0.096887,0.17548,0.040017,0.020993,-0.037213,-0.041931
-0.0074458,-0.080254,-0.12446,0.0067045,-0.0086186,0.012358,0.033713,0.01039
0.0009169,-0.10965,-0.15601,-0.22129,-0.063376,0.012847,0.06683,0.11257
0.030055,0.20116,0.097286,0.024357,0.071072,0.022481,0.0070232,0.045503
0.10226,-0.0018735,0.2678,0.01017,-0.019554,0.025404,0.0568,0.097343
-0.18257,-0.073858,-0.14658,0.0017935,-0.077843,-0.049126,-0.17513,-0.30342
0.017387,-0.09689,-0.024322,-0.064163,0.03629,0.0014818,-0.0018165,0.0060262
-0.073132,-0.18413,0.013113,0.21681,0.064416,-0.042046,-0.0095458,-0.030047
0.10685,-0.0027821,-0.054248,0.076721,0.0059107,0.015185,0.043798,0.11112
0.079728,0.25732,0.11362,-0.096417,-0.0069638,0.063562,0.15058,0.17147
-0.053364,-0.069322,-0.12637,0.015338,0.017598,-0.02196,-0.079448,-0.090969
0.035877,0.1651,0.045272,-0.22245,-0.10804,-0.038118,-0.036409,-0.066245
-0.081478,0.046661,-0.042404,-0.0056307,0.022519,-0.00027793,-0.024424,-0.026894
-0.029205,-0.040882,-0.035388,0.1509,-0.012194,-0.001883,-0.011688,0.0047368
-0.071436,-0.11919,-0.18804,-0.079181,0.038403,-0.0036007,-0.02899,-0.087419
0.090215,-0.12316,0.27683,-0.13087,0.010872,0.065046,0.095827,0.15853
0.027314,-0.1823,0.026588,0.26411,0.030751,-0.0068568,-0.03565,-0.077165
0.084381,0.16788,-0.006877,-0.032625,-0.018803,-0.00066378,-0.0096377,0.002439
-0.027479,0.071313,0.20845,0.12876,0.018577,-0.018116,0.032681,0.068697
-0.011793,0.11633,-0.2969,-0.18892,-0.013447,-0.051571,0.035873,0.081551
-0.017803,0.053908,0.05327,0.013598,-0.036973,0.023888,-0.024274,-0.054007
-0.015215,-0.030678,-0.071765,0.0472,0.041485,-0.0026186,-0.023383,-0.042308
-0.020499,0.07129,0.044058,-0.37146,-0.13767,0.025371,-0.016435,-0.048254
-0.042,-0.30758,0.086045,0.61479,0.14416,0.0066312,-0.034544,-0.079899
-0.017363,0.055459,-0.0017622,-0.18343,-0.011495,-0.011551,0.016617,0.066315
0.030171,0.19591,-0.00073802,-0.1658,0.0047819,-0.013136,-0.010482,-0.014868
-0.00057075,-0.084246,-0.24581,0.050096,-0.017846,-0.0055854,0.0023923,0.021599
0.078301,0.0026667,-0.063225,-0.074222,-0.008933,0.034766,0.048365,0.04415
0.040459,-0.019816,0.4634,0.048581,-0.023021,-0.024835,-0.0047674,0.0067747
-0.012538,-0.22833,-0.34345,-0.040469,0.041586,0.018613,0.022802,0.026916
0.0050365,-0.081323,0.095927,0.12951,-0.0025171,-0.014888,0.0056609,0.033827
-0.086835,0.51013,0.14147,-0.01774,0.00094762,0.0070097,-0.018004,-0.051644
-0.061914,-0.013639,0.011416,-0.12938,-0.088716,-0.0022079,0.013134,-0.0043414
-0.068868,-0.18949,-0.13161,0.19347,0.079861,-0.027547,-0.081861,-0.14607
0.14218,0.061955,0.20263,-0.0027476,0.021974,0.008497,0.00059766,0.076562
0.016517,-0.21226,-0.23783,-0.062944,-0.012827,0.027253,0.025363,0.029857
0.093182,0.0027488,-0.13415,-0.066868,-0.017247,0.012693,0.078046,0.14318
-0.026263,0.22898,0.10679,0.038411,0.039453,0.011501,-0.036501,-0.13008
-0.0058556,0.20684,0.11031,-0.084625,-0.038437,-0.02313,-0.0051492,-1.8321e-05
-0.16578,-0.27632,0.010381,0.10192,0.0067058,-0.020525,-0.037829,-0.043438
-0.02137,-0.15155,-0.12879,-0.21509,-0.051591,-0.042544,-0.055161,-0.071232
0.06847,-0.044588,-0.031974,0.40957,0.068313,0.036661,0.10824,0.19954
0.12778,0.075783,0.23205,-0.1096,0.02332,0.022715,-0.0073571,-0.049904
-0.045929,0.18667,-0.13272,-0.34212,-0.16231,-0.044453,-0.026051,-0.029386
-0.014619,0.023361,0.084774,0.4006,0.1529,0.054557,0.013557,-0.027423
-0.035757,0.016541,0.0010177,-0.1693,-0.022494,-0.00026352,-0.01359,0.018347
-0.085834,-0.28608,-0.24466,-0.066274,-0.016118,-0.013694,-0.037755,-0.072596
0.13179,0.10816,0.3774,-0.015925,-0.023131,0.005985,0.065048,0.11238
0.0071982,0.05088,-0.23593,0.091723,0.065635,0.011152,0.027881,0.040173
-0.015072,0.0025903,0.0079166,0.069277,0.0074609,-0.0068815,-0.041286,-0.049021
-0.045321,0.017206,-0.016661,0.033492,-0.042151,-0.009883,-0.018732,-0.016396
0.040522,-0.039039,-0.067397,-0.14938,-0.013711,-0.014106,0.032109,0.066423
0.022926,0.31737,0.20013,-0.11345,-0.009532,-0.0042414,-0.045437,-0.13705
-0.04393,-0.26563,-0.033347,0.13986,0.0010775,0.0041174,0.030041,0.029796
-0.011758,-0.030096,-0.22763,0.14045,-0.013429,-0.019941,-0.014169,0.021286
-0.0053526,-0.16275,0.17285,0.12179,0.071926,0.017869,-0.020669,-0.035732
-0.078915,-0.076377,-0.073741,-0.40863,-0.055141,0.00094239,-0.027173,-0.053216
0.088489,0.10541,0.11041,0.15124,0.019818,0.023507,0.037907,0.11139
0.0052601,0.063253,-0.010088,-0.0098004,0.00039976,-0.015745,0.0036259,-0.024968
0.023368,0.17217,0.21955,0.016403,0.01208,0.031599,0.01881,0.030342
0.08047,0.15755,-0.18666,-0.14296,-0.054111,0.0090049,0.028528,0.050207
-0.034438,-0.16257,-0.12062,-0.12652,-0.033826,-0.052729,0.0085388,0.0019912
-0.063714,0.0057978,-0.098546,0.4186,0.12776,0.033409,0.067054,0.055686
-0.030911,-0.035421,-0.073204,0.023988,0.016579,-0.0063965,-0.015895,0.014074
-0.060946,-0.12398,0.34734,0.0013411,-0.062772,-0.03949,-0.21783,-0.36648
0.10435,0.013319,0.040133,-0.057284,-0.040103,0.012381,0.054548,0.1321
0.012432,0.018719,-0.10178,-0.16188,0.014196,0.0089802,0.020138,0.072581
-0.070342,-0.20607,-0.27134,0.0057151,0.022015,-0.017873,0.0077465,-0.02838
-0.010493,-0.094269,0.056748,-0.071727,-0.039979,0.0027454,0.010561,0.010401
0.028366,0.41321,0.31321,-0.027827,-0.0075705,0.0088383,0.053046,0.04984
0.085393,0.015177,-0.15824,0.12966,0.025609,0.031924,0.034432,0.044265
0.066535,0.033802,0.08659,0.096795,0.067374,0.009466,-0.037091,-0.021325
-0.11479,0.00015509,-0.04028,0.0075332,-0.023072,0.011446,0.049342,0.095238
-0.037569,-0.10349,-0.088292,-0.090051,-0.01953,-0.025178,-0.034831,-0.051884
0.00044604,0.08659,0.15088,-0.13249,-0.04751,-0.015083,-0.048049,-0.11191
-0.017124,-0.10551,0.065722,0.13075,0.033035,-0.0056791,-0.037803,-0.038743
0.002957,-0.14443,-0.40756,0.051272,0.026252,-0.028545,0.011086,-0.0047719
0.044814,-0.017202,0.043313,0.050492,0.0020591,0.025635,0.020292,0.028853
0.053746,0.14222,0.21605,-0.13798,-0.039704,-0.0069982,0.013286,0.030942
-0.063846,0.013944,-0.12211,0.016221,0.010464,0.0067572,0.0058807,0.0173
-0.010845,0.037277,0.24963,0.035836,-0.026702,-0.010762,0.045176,0.097424
0.033334,0.0039756,-0.018243,0.037741,0.04479,0.034601,-0.032728,-0.041247
-0.048233,-0.16889,-0.14272,-0.048122,0.0070376,0.0024797,-0.040301,-0.086506
0.010316,-0.041121,-0.0053983,-0.033409,-0.021877,-0.00551,0.0067171,-0.023197
0.068574,0.23291,-0.011944,0.059771,-0.0099013,0.010495,0.061225,0.10128
-0.013861,0.03669,-0.099938,-0.1889,-0.026769,-0.012271,-0.009854,-0.018187
-0.010166,-0.060109,0.14396,-0.09828,-0.033177,-0.011617,-0.011414,0.001049
-0.013769,-0.028056,-0.031533,0.48883,0.15822,0.0043967,-0.006015,-0.012693
-0.02429,0.067731,0.051527,-0.14613,-0.031263,-0.019048,-0.048195,-0.074446
-0.080407,-0.11158,-0.022886,-0.050764,-0.032178,-0.027247,-0.012587,-0.0035874
-0.01776,-0.02174,0.12612,0.023405,-0.04088,0.011186,0.031029,0.029137
0.10125,-0.031817,-0.15923,-0.066294,-0.011526,0.041762,0.012932,0.056093
0.15142,0.15421,0.088977,-0.10325,0.00035437,0.025605,0.035204,0.023461
-0.047424,-0.14308,-0.16042,0.17636,0.056744,0.0018951,-0.01901,-0.083943
-0.0037801,-0.016206,-9.2773e-05,0.0058556,0.0012772,-0.021524,0.022229,0.10097
-0.14806,0.06019,-0.037541,-0.10708,-0.048573,-0.036889,-0.036612,-0.086512
0.027019,-0.09915,0.15931,0.064977,0.017197,0.0025817,-0.03194,0.00098459
-0.11159,0.2814,0.0069618,-0.26531,-0.089621,-0.02821,-0.0034531,0.034007
0.15502,0.039643,0.038692,0.31831,0.13971,0.073785,0.087219,0.058098
0.014811,-0.18244,-0.15048,-0.17406,-0.051779,-0.0039664,-0.026179,-0.08409
0.0074615,-0.14185,0.088185,0.1422,0.055278,0.019798,0.069965,0.12242
-0.022667,0.052388,0.066494,0.041568,-0.046623,-0.057987,-0.14016,-0.18183
0.010804,0.040748,-0.053022,-0.1635,-0.052826,-0.034104,-0.031446,-0.043206
-0.032584,-0.060132,-0.061515,0.025933,0.059772,0.036866,0.029325,0.03926
-0.067051,0.069109,-0.094087,0.18606,0.0015443,0.0065725,0.027103,0.051134
0.12568,0.20061,0.22215,-0.076084,-0.017251,0.015666,0.095331,0.17324
-0.06447,-0.049961,0.049647,-0.02842,0.049588,0.0093991,-0.054514,-0.14827
0.064772,-0.098236,-0.19057,0.014838,-0.048492,0.0032499,-0.00021283,-0.0067843
-0.057723,-0.1956,-0.22503,-0.11114,-0.007143,-0.018614,-0.022904,0.027232
0.13774,0.10226,0.47063,-0.023165,0.02511,0.021713,0.025737,0.023522
-0.17726,0.068259,-0.18009,-0.11048,-0.12346,-0.063444,-0.042077,-0.034373
-0.025973,-0.024215,-0.02663,0.16024,0.10998,0.014887,-0.00016788,-0.03017
0.029683,-0.034188,-0.11366,-0.021244,-0.00076196,-0.0010975,0.018228,-0.011532
-0.0093465,0.046767,0.052963,0.25321,0.0603,0.029328,-0.034167,-0.049313
0.037728,0.070987,0.0058424,-0.14027,-0.026911,0.020385,0.053242,0.10625
0.14071,0.062794,0.22204,-0.021799,-0.027921,0.01914,0.077085,0.080248
-0.082376,0.038808,0.0058205,-0.0093053,-0.013058,-0.052338,-0.095567,-0.08791
-0.029498,-0.20297,-0.09725,-0.10417,-0.029274,0.0014414,-0.019364,-0.030474
-0.059941,-0.20039,-0.32347,0.09818,0.048339,-0.030309,-0.014422,-0.059274
-0.017736,0.14927,0.22338,0.0102,-0.022477,0.00094634,-0.0101,0.029492
0.03403,-0.082784,0.087943,-0.056821,-0.023008,0.040538,0.033065,0.041077
0.055495,0.041189,-0.0050924,-0.0019478,0.015479,0.0024502,0.037347,0.0070883
0.061388,0.41124,-0.033641,-0.15328,0.038291,0.050571,0.018699,0.060427
0.0039826,0.049353,0.0094627,0.36481,0.053239,-0.018467,0.016399,0.052494
-0.10176,-0.29659,-0.15691,-0.1888,-0.064654,-0.079915,-0.078821,-0.14986
-0.021813,-0.10548,0.13219,0.046591,-0.010636,0.030092,-0.0013161,-0.0079776
-0.076477,-0.1293,-0.035754,0.017635,0.0044941,-0.001042,-0.0011142,-0.0065696
0.031466,0.19325,0.21627,-0.38387,-0.13625,-0.017039,-0.00015281,0.018202
0.15413,0.16675,-0.11727,0.35854,0.13768,0.029106,0.024905,0.058432
-0.043845,-0.24693,-0.25288,0.18269,0.076476,0.020389,-0.0042255,-0.049951
-0.04636,-0.15543,0.11609,-0.06786,-0.046344,-0.01957,-0.0096588,-0.0022475
0.037455,0.17773,-0.032402,-0.40943,-0.082426,-0.012512,0.023912,0.037458
-0.018943,0.02797,0.060033,0.30533,0.038278,0.018184,0.010187,0.0065915
0.12024,0.28735,0.22119,-0.081121,-0.012776,0.0021869,0.066011,0.13944
-0.1155,-0.0044046,0.043629,0.14865,0.084208,0.0097384,-0.097914,-0.17344
-0.11692,-0.30057,-0.22448,-0.045621,-0.054104,-0.045187,-0.075392,-0.11165
0.014433,0.015306,-0.030529,-0.30546,-0.03752,0.03266,0.047803,0.043737
0.083424,-0.042214,0.0063493,0.27485,0.063395,0.0089021,0.061099,0.11335
0.14499,0.010121,-0.037207,0.03111,-0.016988,-0.007015,0.011866,0.011604
-0.1131,-0.078722,-0.11521,0.041749,-0.028405,-0.03058,-0.060319,-0.058127
-0.057881,0.22941,0.12358,-0.20037,-0.071921,-0.014753,-0.0065981,0.013624
-0.095632,-0.16786,-0.070746,0.11826,0.064046,0.024985,0.024822,0.0079652
0.16405,0.25214,0.45053,-0.14961,0.0286,0.034007,0.041746,0.02611
0.017631,-0.097152,-0.23409,0.16134,0.025426,-0.019001,-0.026392,-0.033996
0.081775,-0.020837,0.032111,0.099163,0.062692,0.029817,0.023099,0.0068102
-0.12839,-0.081363,-0.16428,-0.38214,-0.172,-0.038608,-0.02905,-0.015962
-0.035085,0.050093,-0.087931,0.43666,0.11026,0.0097185,0.004177,0.038087
0.017909,-0.078148,0.114,-0.13979,-0.036179,0.018191,-0.010374,-0.026311
-0.062857,0.036062,-0.13514,-0.32296,-0.13526,-0.052512,-0.049396,-0.060398
0.090409,0.1219,0.087921,0.32362,0.21089,0.024067,0.035641,0.045743
-0.076212,-0.29451,-0.098676,0.017378,-0.052961,-0.025439,0.0028122,0.0037
0.063011,-0.0077689,0.34433,-0.0087214,0.018009,0.041393,0.032161,0.03284
