0.016846,-0.00096752,-0.049675,0.019363,0.022332,0.014384,-0.0054712,-0.012367
-0.020535,-0.013496,-0.027677,-0.033472,-0.022922,0.0073029,0.0026988,0.0049844
0.020188,0.035937,0.1833,0.015224,0.0020312,8.1841e-05,0.0027313,0.014532
-0.017503,-0.048343,-0.10541,-0.014424,-0.0045956,-0.015279,-0.013214,-0.015202
0.014569,0.022471,0.018969,0.018009,0.0039054,0.015739,0.017371,0.017136
0.014639,0.013904,0.12563,0.042019,0.0040118,-0.0007152,0.016405,0.0020368
0.013871,0.051035,0.15135,0.080914,0.026982,0.013497,-0.00040778,0.0019774
-0.057976,-0.11589,-0.48996,-0.17783,-0.044275,-0.050853,-0.032951,-0.045437
-0.01317,0.0057128,0.045992,-0.0075151,-0.0064693,-0.005997,-0.0029557,-0.0071759
0.0080272,0.01785,-0.044418,0.0061663,0.0077885,0.0077808,-0.0040175,0.0076612
0.021664,0.030333,0.14638,0.035431,0.0065074,0.022067,0.010875,0.022767
0.012504,0.03568,0.23677,0.072795,0.028906,0.013673,0.018366,0.014856
0.012059,-0.0050103,-0.085086,-0.022144,0.0047607,0.013947,-0.0049829,0.015168
-0.010845,-0.0058159,0.016737,-0.0071335,-0.01903,-0.00062907,0.011046,-0.015544
-0.0016551,-0.045029,-0.09128,-0.015095,-0.011244,-0.014665,-0.019658,-0.0072786
0.00026273,-0.013531,-0.082171,-0.015007,-0.0031839,-0.020677,0.0042516,0.0083627
-0.01331,0.010276,0.027177,0.00067177,-0.010524,0.0044327,0.012264,0.007669
0.04315,0.041777,0.12639,0.039532,0.01358,0.005702,0.0042497,0.013986
-0.041623,-0.012937,-0.03495,-0.031345,0.014421,-0.0013963,-0.019803,-0.074091
-0.0099946,-0.0054905,-0.15189,-0.032224,-0.0080181,-0.001248,-0.012902,-0.013971
-0.010401,0.017281,0.065619,0.013646,-0.0068977,-0.0093618,-0.013882,0.030863
0.012005,-0.046052,-0.076256,0.012789,0.0020863,0.005712,0.0087904,0.029786
-0.012825,2.6913e-05,0.056969,-0.011072,-0.0046147,-0.0026763,0.0085064,0.0067392
0.03258,0.038569,0.1621,0.043832,0.01973,0.028166,0.032314,0.0010231
0.0078306,-0.00050138,-0.033296,-0.0021202,-0.0031596,-0.0032083,0.017744,-0.049982
0.0068202,0.015819,-0.021139,-0.016215,-0.0031058,-0.018649,-0.027506,0.009485
0.084282,-0.021729,-0.13784,-0.029951,-0.0036214,0.0052209,0.0057116,0.16302
-0.15043,-0.027197,0.099822,0.034457,-0.00469,0.0057911,-0.031308,-0.13716
0.013588,-0.00069495,-0.02067,-0.0030363,-0.006186,-0.0014343,0.040889,0.053423
-0.025256,0.018465,0.045792,0.0057147,0.015556,0.0068916,-0.043464,-0.093938
0.022089,0.0064542,0.047552,-0.017582,-0.01729,-0.047392,-0.034403,-0.11065
0.093093,-0.037246,-0.18857,-0.010432,-0.010662,0.023236,0.03687,0.2067
-0.038894,0.058638,0.13353,0.0038709,0.020077,0.0079026,-0.0092566,-0.070873
-0.038113,-0.050238,-0.17384,-0.044733,-0.0030525,0.0082402,0.014756,0.049756
0.032672,0.13566,0.038125,0.023733,-0.0019403,-0.006956,0.13231,0.04617
-0.02997,-0.06352,0.16871,0.06108,0.031043,0.016999,-0.102,-0.17448
0.039308,-0.08505,0.055042,0.036223,0.0018269,0.0019271,-0.039886,0.044668
-0.025278,0.087433,0.14388,0.0039128,-0.011853,-0.013192,-0.0095389,-0.022711
-0.0049351,-0.17767,-0.26628,-0.10617,-0.025991,-0.0050005,-0.02656,0.15443
0.15533,0.097708,-0.20498,-0.0049708,0.0060273,0.01083,0.12015,0.25519
-0.21581,-0.0067385,0.032537,0.010634,-0.0096408,-0.036002,-0.076946,-0.49474
-0.016039,0.13524,0.13506,0.018817,0.0052198,0.018631,-0.023775,0.052053
-0.049248,-0.19451,-0.013964,-0.0038091,-0.011648,-0.012677,-0.016923,-0.0273
0.11488,0.081842,0.13197,0.013072,0.010391,0.026411,0.068774,0.00067941
0.093814,-0.013556,-0.10055,-0.01657,0.009157,0.010931,0.022371,0.4712
0.059191,0.18899,0.28586,0.086745,0.016134,-0.012275,0.062425,-0.2569
-0.16162,-0.11017,-0.20437,-0.02884,0.0079848,0.0035599,-0.10826,-0.26203
0.00055115,-0.03891,-0.1373,-0.012072,0.0081033,-0.0042139,-0.060382,0.17459
0.04437,0.02534,0.069927,-0.058506,-0.03054,0.0033195,0.033869,-0.14195
0.023339,-0.059506,0.024731,-0.011989,-0.014406,0.010445,0.033662,0.40636
-0.024256,0.0033245,-0.17954,-0.028692,-0.029635,-0.045331,0.056146,-0.12459
-0.059504,-0.12069,0.036597,0.063488,0.040813,0.015805,-0.062616,-0.23326
0.058776,0.25093,0.45738,0.077365,0.024996,0.01439,0.029186,0.019511
-0.082277,-0.19828,-0.38945,-0.057054,-0.022381,-0.018039,-0.082188,-0.16942
-0.02009,-0.042186,-0.11606,0.0042349,0.031583,0.020359,0.025456,0.10734
0.13772,0.48888,0.50138,0.01139,-0.02391,0.020421,0.071118,0.24081
-0.052645,-0.54727,-0.6187,-0.098041,-0.040263,-0.025584,-0.046646,0.16019
0.011341,0.0072844,0.010947,0.035266,-0.025146,-0.070862,-0.070061,-0.19055
-0.052965,0.12106,0.31299,0.083053,0.091839,0.14997,0.32882,0.37419
0.050622,0.11215,-0.026767,-0.056441,-0.040877,-0.097846,-0.2643,-0.77262
0.1019,0.11719,0.12031,0.038425,0.037527,0.036802,-0.052804,0.046987
-0.072989,-0.095661,-0.0018933,-0.038833,-0.016905,-0.009038,-0.021241,0.21479
-0.054289,0.10856,0.15417,-0.014969,-0.024739,-0.032598,0.0021825,0.0039108
0.0076716,-0.15803,-0.12926,0.023976,0.02943,0.028433,0.1112,0.086562
-0.036824,-0.031786,0.072326,0.046771,-0.010766,0.002213,0.04021,0.18225
0.077425,-0.045202,-0.47008,-0.055805,-0.012469,-0.01724,-0.046732,-0.043955
0.038447,-0.087605,-0.16972,-0.002229,-0.0066988,0.040866,0.13946,-0.25502
-0.24611,-0.053813,0.12572,-0.057769,-0.032135,-0.06503,-0.19018,0.073663
0.22576,0.077022,0.094119,0.090443,0.052317,0.032938,0.027083,0.083947
-0.067104,0.22475,0.54691,0.044268,0.0049143,0.0072617,-0.044255,-0.16047
0.041473,-0.13664,-0.38491,-0.11802,-0.033401,-0.047871,-0.10677,0.036733
-0.12666,0.082448,0.16982,0.033212,0.0077775,0.016145,0.1135,-0.073816
0.046367,-0.085198,-0.15478,-0.010137,0.011091,0.042906,0.054392,-0.031226
0.12271,0.16433,0.16328,0.063949,0.046426,0.055387,0.13771,0.35895
0.12453,0.062655,0.02668,0.020476,-0.01182,-0.025224,-0.13705,-0.061243
-0.090756,-0.2301,-0.10059,-0.00056156,-0.0080636,-0.020013,0.041666,0.16683
-0.15035,0.19589,-0.051362,-0.069987,-0.036641,-0.062498,-0.053841,-0.27963
0.021876,-0.076971,-0.12611,-0.039636,-0.019816,0.010881,0.075315,-0.19967
-0.11451,-0.32426,-0.014076,0.0045912,-0.028025,-0.089172,-0.2045,-0.032154
0.10405,-0.007337,-0.027358,0.047415,0.048257,0.11393,0.10638,0.14448
0.16233,0.15617,0.062877,0.0034786,0.014076,0.034487,-0.015314,0.19815
-0.18069,0.012159,0.096066,0.029727,0.041785,0.024361,0.056097,-0.17427
0.045363,0.15675,-0.033324,-0.037226,-0.039997,-0.041108,-0.029973,0.083918
-0.03278,0.052718,0.13114,0.014101,-0.0042698,-0.020987,0.024457,-0.079912
0.016053,-0.064765,-0.088104,-0.019082,-0.0069486,-0.00092882,0.017306,-0.054595
0.036566,-0.071142,0.020453,0.02739,0.022498,0.027168,0.050978,0.32521
0.060274,0.079011,0.018403,-0.0028545,-0.033003,-0.069204,-0.15521,-0.26792
0.032064,0.039999,0.067782,-0.00072824,0.021886,0.046218,0.10994,0.11145
-0.09592,-0.010256,-0.12303,-0.029122,-0.016005,-0.016888,-0.044206,-0.1307
-0.051517,-0.18209,-0.072085,-0.025959,-0.0061561,-0.016109,-0.031982,-0.033979
0.054617,0.1029,0.26576,0.11774,0.066901,0.11113,0.068012,0.07283
-0.012905,-0.27087,-0.44616,-0.12958,-0.086105,-0.11966,-0.065194,0.032781
-0.082772,0.16014,0.12844,0.028705,0.018939,0.033366,0.044171,-0.029813
0.1106,-0.19477,-0.009317,0.053412,0.030167,0.022788,-0.0031976,0.064073
0.028602,0.44831,0.14199,-0.0086259,-0.0058783,0.0041912,0.041838,0.016936
-0.070143,0.012856,0.091375,-0.0089297,-0.0035925,0.00031438,-0.01678,-0.20303
0.010693,-0.18076,0.042443,-0.0098809,0.0054804,-0.012888,-0.03113,0.16156
-0.079431,0.16284,-0.16928,-0.042544,-0.010115,-0.0045692,0.0064328,0.0010931
0.12129,-0.10756,0.017428,0.04957,-0.0035752,-0.052969,-0.028856,0.073408
0.074357,-0.057794,0.053886,0.0089265,0.017391,0.076502,0.019898,-0.12897
-0.11844,0.012074,-0.038341,-0.015751,-0.017239,-0.045329,0.013044,0.12897
0.019316,0.0059908,0.044041,0.01487,0.0023656,0.019786,-0.040453,-0.2378
-0.028457,-0.10826,-0.02755,-0.00055209,0.022094,0.053953,0.04023,0.01389
-0.020265,0.0057625,-0.017972,-0.046251,-0.066819,-0.090438,-0.048688,0.10365
-0.027277,0.021688,0.020093,0.034051,0.025227,-0.022106,-0.0020223,-0.093059
0.098011,-0.011127,-0.2385,-0.048832,0.017338,0.063996,0.13333,0.43927
-0.0047217,0.034862,0.037762,0.017301,0.0033494,-0.004023,-0.088494,-0.40176
0.14023,0.13817,0.20354,0.083537,0.045525,0.054671,0.12058,0.28868
-0.25689,-0.083148,-0.051633,-0.022617,-0.012925,-0.0028728,-0.13909,-0.45219
0.030084,0.042407,0.1398,0.010663,-0.055579,-0.13077,-0.087491,0.076863
0.0010953,-0.049148,-0.075276,-0.051614,0.018262,0.091834,0.094716,0.3039
0.078334,0.19476,0.081006,0.024497,0.059353,0.070287,0.047585,-0.13148
-0.0031572,-0.063904,-0.13821,-0.1127,-0.12822,-0.15692,-0.041438,0.21592
0.13258,-0.068758,0.035387,0.09168,0.095877,0.097583,0.03123,-0.18428
-0.16171,-0.19506,0.12061,0.036622,-0.0026375,-0.017441,0.016489,0.0058309
-0.10351,-0.23078,-0.27635,-0.073955,-0.056115,-0.055921,-0.12353,-0.42187
0.1444,0.20124,0.32782,0.17496,0.076847,0.01444,0.042142,0.27811
-0.11223,0.041215,-0.35454,-0.16095,-0.071519,0.015101,-0.024397,-0.10202
0.072652,0.25256,-0.11654,-0.049542,0.023267,0.056466,0.11516,0.36979
0.04302,0.14154,0.25834,0.072363,0.010589,-0.040425,-0.0076505,0.038298
0.025072,-0.2525,0.010982,0.0020191,0.016141,0.084094,0.052211,-0.034585
-0.052437,0.077206,0.21815,0.0050341,-0.069127,-0.14829,-0.16701,-0.37441
-0.011178,-0.027619,-0.21638,0.018471,0.043735,0.027452,-0.0024563,0.19529
0.022305,-0.14755,-0.039127,-0.052241,0.018245,0.086954,0.15387,0.22555
0.12469,0.04324,0.11816,0.11994,0.041005,-0.033319,-0.058714,-0.044811
-0.18944,-0.11313,-0.22251,-0.08337,0.0093619,0.071923,0.0071999,-0.41519
0.0013018,0.038817,-0.010234,-0.022589,-0.05433,-0.074568,-0.070823,-0.035249
0.0096061,0.1242,0.40568,0.098421,-0.018123,-0.09025,-0.027162,0.22792
0.0081025,0.010981,-0.16101,-0.12684,-0.015311,0.04852,0.10749,0.18806
-0.017738,0.0597,0.28312,0.051898,-0.0068549,-0.0013764,-0.048676,-0.10601
-0.027731,-0.079969,-0.3925,-0.1068,-0.015792,0.018774,0.013454,-0.03495
0.096138,-0.078814,-0.2697,-0.00035875,-0.010184,-0.0072558,-0.040706,-0.0031254
0.049484,0.15773,0.23612,0.15355,0.088884,0.02289,0.047845,-0.10297
0.058565,-0.080777,-0.061447,0.0042028,0.0321,0.054983,0.037744,0.25983
-0.11179,-0.098802,-0.04216,-0.033892,-0.039458,-0.028125,-0.094124,-0.21952
0.037365,0.11929,0.17321,0.039226,0.0071799,0.0075919,0.0035688,0.21614
-0.15116,-0.020394,0.042246,-0.050338,-0.015589,-0.018176,0.041008,-0.34809
0.08773,-0.0024138,0.045306,0.0091939,-0.022098,-0.051476,0.1108,0.36833
-0.019317,-0.014484,0.067764,-0.048578,-0.043913,-0.030484,-0.1243,-0.21296
-0.002761,0.044763,-0.04555,0.056955,0.059326,0.05211,-0.0014826,-0.044602
0.084088,-0.074846,-0.24023,-0.10428,0.006211,0.078851,0.22055,0.5309
0.00077314,0.0093302,-0.040976,-0.016754,-0.054859,-0.10656,-0.3414,-0.64866
-0.079081,0.0080212,0.3317,0.11653,0.040223,0.011636,0.07854,-0.065495
-0.068134,0.022504,-0.17864,0.03801,0.033715,0.043002,-0.050125,-0.084944
-0.12193,0.021139,-0.042075,-0.041139,-0.027462,-0.004453,0.015864,0.083001
0.32179,-0.051245,-0.040522,-0.050442,-0.041767,-0.036858,0.12133,0.78159
0.050785,0.15639,0.24018,0.096096,0.068828,0.055175,0.079543,-0.17104
-0.16372,-0.14549,-0.17573,-0.070285,-0.039583,-0.072191,-0.023279,-0.25508
0.18329,-0.035324,-0.068247,-0.010535,0.031268,0.080919,-0.093651,-0.053023
-0.043852,0.07275,0.0015782,0.0019714,-0.0078085,0.030048,0.063065,0.13402
-0.27721,-0.039807,0.097508,0.022101,-0.024029,-0.068491,-0.10085,-0.61109
0.036521,-0.036602,0.071891,-0.020157,0.013961,-0.011285,0.054492,0.42916
0.045579,0.075157,0.010765,0.00058148,-0.034224,-0.00091877,-0.018171,-0.041273
-0.061542,-0.032036,-0.12556,-0.024676,0.003623,-0.044452,-0.068742,-0.19928
0.037361,-0.0061221,0.013227,0.013732,0.010664,0.015201,0.11431,0.61555
0.26653,0.02817,0.04273,0.037784,-0.0050159,-0.016531,-0.053986,-0.24829
-0.020085,0.055222,0.094155,0.039544,0.058258,0.087365,0.0056507,-0.16119
-0.16417,-0.057992,-0.17751,-0.059461,-0.018361,0.037846,-0.041634,-0.19758
-0.047022,0.00069916,0.21931,0.044958,0.014829,0.03757,0.1565,0.22296
-0.027141,-0.0033706,-0.28554,-0.046179,-0.053554,-0.14873,-0.1262,0.038492
0.036366,-0.023436,-0.034821,-0.052084,-0.020878,0.016836,-0.015032,-0.0021856
0.13543,0.050056,0.16833,0.081648,0.088988,0.072104,0.090712,0.52005
0.027194,-0.032399,-0.025814,-0.020032,-0.036737,-0.069964,0.0021913,-0.53141
-0.25804,-0.0044282,0.14225,-0.013193,-0.054372,-0.035179,-0.079112,-0.34049
0.13804,-0.11518,-0.14659,-0.045922,-0.0028272,0.0041501,-0.10024,0.15137
0.0034354,0.1361,0.17837,0.10876,0.05574,0.071419,0.13257,0.18315
-0.053431,0.007632,-0.18799,-0.064398,0.035848,0.065382,0.14938,0.29185
0.10733,-0.071009,-0.18449,-0.041748,-0.054207,-0.013342,-0.097289,-0.34366
-0.077268,0.063525,0.21039,0.051691,-0.0187,-0.085777,-0.068254,0.081672
0.10356,0.10527,0.18964,0.020335,0.0098325,-0.002478,0.01076,0.19426
-0.021896,-0.080232,-0.16308,0.0043374,-0.0075882,-0.09051,-0.28846,-0.6444
-0.093747,-0.025932,0.017543,0.010949,0.069549,0.13549,0.27817,0.29471
-0.12684,-0.0066934,0.14458,0.03187,-0.0090407,-0.02684,0.095416,0.045234
0.035974,-0.078037,-0.24274,-0.073765,-0.048432,-0.0067752,-0.092799,0.28876
0.38775,0.025608,-0.033567,-0.048011,0.0056683,0.047219,0.1288,0.10464
-0.27402,0.094065,0.079446,0.062811,0.027951,-0.021575,-0.067311,-0.0378
-0.011677,-0.12123,-0.18154,-0.099773,-0.059853,0.028217,-0.095188,-0.34155
-0.13026,0.014391,0.085423,0.012188,0.00012704,-0.062208,0.021318,-0.46288
0.10372,0.1513,0.24263,0.14189,0.051893,-0.0047484,0.023756,0.5983
0.15766,-0.15414,-0.1536,-0.061534,0.0099046,0.11394,0.0052165,0.05321
0.014351,0.083598,0.092027,0.034953,-0.047243,-0.17521,-0.15986,-0.30087
-0.069921,-0.041253,0.0012192,0.0013478,0.029355,0.081076,0.26252,0.41138
-0.10408,0.057026,0.047457,0.0087541,0.021338,0.031823,-0.056037,-0.3412
0.12244,0.11983,0.20351,0.0014341,-0.024162,-0.079882,-0.16258,0.12863
-0.10853,-0.072758,-0.28433,-0.021711,-0.0054971,-0.026477,0.083322,0.27343
-0.037589,-0.24077,-0.32522,-0.13193,-0.039964,0.067903,-0.021783,-0.45447
-0.037425,-0.02604,-0.0067086,0.013874,0.0049336,0.039709,0.1232,0.30347
0.066524,0.20324,0.18662,0.048202,0.050564,0.037411,-0.0058132,-0.29725
-0.051361,-0.077144,0.052604,0.04131,0.0025135,-0.033216,-0.05016,0.00056628
0.079474,0.13223,0.21796,0.071435,0.047541,0.053512,-0.010543,0.16513
0.1707,0.041915,0.098745,-0.0018475,-0.065064,-0.17224,-0.15313,0.0318
0.065602,-0.0045466,-0.0062136,0.024846,0.015713,0.046257,0.17807,-0.064215
-0.1514,-0.17114,-0.37638,-0.11375,-0.022897,0.051909,-0.016905,0.16522
-0.091855,0.050388,0.036732,0.0047413,-0.016743,-0.069845,-0.026761,-0.015289
-0.10188,-0.10478,-0.070076,-0.048661,-0.0044448,0.10278,-0.0071551,-0.16919
-0.019508,-0.018329,-0.0079895,-0.030925,-0.0087175,-0.039302,0.019198,0.1326
0.16936,0.15477,0.23182,0.074455,0.041615,0.04354,0.0296,-0.023991
0.1045,0.12662,0.18892,0.11979,-0.0088649,-0.17141,-0.084689,-0.38054
-0.22217,-0.17222,-0.32435,-0.089811,0.043613,0.12128,0.028327,0.17352
0.0020053,-0.061724,-0.01203,-0.038702,-0.042794,-0.023116,-0.021808,0.15533
0.1211,0.17667,0.12427,0.092981,0.052238,0.098917,0.1476,0.050798
-0.013021,-0.067102,-0.011317,-0.047162,-0.015336,-0.020334,-0.065364,0.12681
0.037338,-0.067567,-0.03052,-0.046159,-0.074156,-0.052889,-0.13779,-0.053232
-0.048088,-0.029103,-0.044971,-0.022353,-0.031089,-0.045939,0.10948,-0.21534
0.019806,0.093935,0.17787,0.11697,0.074187,-0.023299,0.066644,0.11745
0.18655,0.089609,-0.066241,-0.01955,0.053658,0.10845,-0.063314,-0.007479
-0.25038,-0.066127,-0.12912,-0.033826,-0.014898,-0.049327,-0.053656,-0.20663
-0.12586,-0.15464,-0.064769,-0.074184,-0.045679,0.058046,0.018028,0.25527
0.053841,0.074438,0.073549,0.023959,-0.015155,-0.053615,-0.011505,-0.011493
-0.10014,-0.04997,-0.016938,0.011415,-0.0011527,-0.0089337,-0.00067649,-0.3501
0.40608,0.059096,0.07202,0.014119,-0.011042,0.020718,0.098285,0.12995
-0.059055,0.12143,0.22495,0.08762,0.033789,-0.057881,-0.14368,0.33371
-0.15129,-0.088645,-0.26793,-0.064326,-0.0068647,-0.033369,0.054874,-0.17866
-0.050646,-0.054954,-0.062425,-0.058612,5.6963e-05,0.086628,0.092055,0.1832
0.13234,0.17584,0.27874,0.12815,0.038946,-0.0027288,-0.095464,-0.061199
-0.049413,-0.11512,-0.19048,-0.059094,0.0080257,0.088667,0.18644,0.060937
-0.082373,-0.084393,-0.041445,-0.042747,-0.014968,0.0084386,-0.17292,-0.25006
0.062637,0.033206,0.0060146,0.004705,-0.046121,-0.11156,-0.041948,-0.26875
0.016697,-0.04402,-0.0021785,-0.042292,-0.023348,0.0012394,0.039489,0.29487
0.075554,0.12882,0.15207,0.097101,0.053076,-0.036603,-0.0070328,0.29539
-0.081451,-0.042408,-0.054972,-0.030453,-0.043486,-0.061243,0.014067,-0.36411
-0.063214,-0.011142,-0.12318,-0.010884,0.046479,0.13064,-0.01366,-0.09993
-0.048193,0.1052,0.19014,0.085726,0.0029767,-0.038532,0.020182,0.18722
0.098175,-0.10752,-0.22359,-0.099559,0.021765,0.080425,-0.063026,0.025325
0.010655,-0.024215,0.05074,-0.027076,-0.045089,0.011761,0.1126,0.15933
0.058212,0.074204,0.24075,0.053862,-0.025226,-0.11878,0.00072102,-0.19159
-0.12508,-0.12425,-0.262,-0.059197,0.0036222,0.025309,-0.04701,0.009612
0.047203,0.045123,0.01972,0.048338,0.033874,-0.016561,0.08628,0.17278
0.012156,-0.010859,0.023621,0.0017367,-0.0047693,0.029126,-0.13909,-0.23126
0.034161,0.02068,0.030669,-0.01157,-0.034401,-0.080003,-0.044181,-0.037071
0.0019642,0.12415,0.21196,0.12519,0.12424,0.17125,0.12029,0.42899
0.046219,-0.052387,-0.19929,-0.10432,-0.060632,-0.006753,0.025669,-0.37686
-0.069468,-0.048684,-0.087238,-0.036861,-0.034888,-0.03649,-0.039188,0.027165
-0.041859,0.024998,0.10931,0.045485,0.013551,0.011255,0.10555,0.35201
0.058196,-0.03531,-0.071607,-0.076656,-0.056135,-0.15279,-0.21931,-0.6653
-0.12032,0.027621,0.072592,0.080775,0.013948,0.0027339,-0.012982,-0.035469
0.1117,-0.020734,-0.028416,-0.021238,0.028813,0.071986,0.12386,0.40402
-0.055842,-0.015955,0.01653,0.0083257,-0.0032386,-0.006974,-0.057968,0.042538
-0.02639,-0.004094,-0.010338,-0.0095592,0.012067,0.032019,0.090517,0.018599
0.05429,0.015983,-0.0062014,0.0040366,0.04392,0.11119,0.046002,0.04703
0.039796,-0.024831,-0.047882,-0.036029,-0.040233,-0.058446,-0.059015,-0.058127
-0.10013,0.015094,0.014161,0.03494,0.0018301,-0.031796,0.024786,-0.09463
-0.022019,-0.019934,0.0087247,-0.024905,-0.033205,-0.051457,-0.03159,-0.0029321
0.28044,0.080973,0.060883,0.01877,-0.020717,-0.0476,-0.15088,0.04856
-0.023329,0.059318,0.0059945,0.048343,0.070046,0.057458,0.080323,0.086218
-0.092474,-0.078296,-0.016474,-0.0072611,0.0041623,0.02903,0.13819,-0.22263
-0.093784,0.0025758,-0.00023101,-0.016186,-0.015747,0.023213,-0.15701,0.24355
-0.0058223,0.027027,0.021903,0.012795,0.017747,0.0087621,0.12462,-0.10306
-0.16542,-0.099847,-0.0060305,-0.038288,-0.043989,-0.029814,0.030379,0.08898
0.13086,-0.034931,-0.030011,-0.052696,-0.02125,-0.053239,-0.16581,-0.35855
0.009299,0.010795,-0.03429,-0.007043,-0.015377,-0.014401,0.044302,-0.091608
-0.05169,0.014367,-0.072633,0.059937,0.028675,0.024385,-0.034314,0.12695
0.21539,0.13285,0.043993,0.031666,0.040999,0.063189,0.067103,0.36966
0.01511,-0.015625,0.0048854,0.0026465,0.014144,0.0081715,0.020132,0.035983
-0.089301,-0.047371,0.061672,-0.010737,-0.0047576,-0.0080919,0.066386,0.078639
-0.058797,-0.039805,-0.050225,-0.039078,-0.023376,-0.0015513,0.041076,-0.16021
0.012271,0.062271,0.083454,0.04312,-0.0025959,-0.035014,-0.16585,-0.14362
0.1074,0.0092106,0.040112,-0.0060182,-0.028331,-0.061777,-0.031362,0.15007
-0.055445,-0.026844,-0.064527,-0.0066715,0.040091,0.082273,0.061809,-0.14693
-0.10954,-0.053467,0.14272,-0.03699,-0.031596,-0.0087909,0.01273,-0.025796
0.015472,-0.031371,0.0039024,-0.019017,0.0067742,-0.014084,0.0022474,-0.36668
-0.13305,0.016177,-0.30237,0.023507,-0.0086716,0.0046434,-0.093116,0.091984
0.047188,0.018889,-0.080999,0.058905,0.023782,0.016952,0.13452,0.43226
0.27561,0.078115,0.020331,-0.014914,-0.0051904,-0.0076765,0.0069043,0.032236
-0.056801,0.021469,0.13586,0.012407,0.0058651,-0.037476,-0.10781,-0.012926
0.057671,-0.019022,0.23604,-0.00031738,-0.005842,-0.041027,-0.076541,0.22574
-0.076821,-0.020878,-0.091702,-0.053539,0.013917,0.12986,0.26423,-0.45762
-0.13292,-0.07099,-0.088668,-0.01471,0.00207,-0.056769,-0.11028,0.089088
0.013638,0.025193,0.057778,0.0067582,-0.034174,0.015202,-0.014524,0.0017865
0.081139,0.0016361,-0.098251,-0.0045715,0.014026,0.047576,0.010149,0.0027544
-0.016396,0.030236,0.059402,0.037608,-0.0021322,-0.078183,0.078684,0.026444
-0.19266,-0.013551,0.11553,0.071282,0.034421,0.0039681,-0.17791,-0.076859
0.2483,-0.019541,-0.18077,-0.059265,-0.016765,0.019872,0.090907,0.099764
-0.091279,0.0054682,0.021702,-0.0097532,0.0010335,0.016258,0.041293,0.074342
0.093731,0.023465,0.0044945,-0.037502,-0.044276,-0.061082,-0.15398,-0.39952
-0.071639,-0.027141,-0.028351,-0.017096,-0.019012,-0.023609,0.045815,0.01816
0.0058773,0.049587,0.010406,0.043954,0.015208,-0.010522,-0.029044,0.5263
-0.049684,-0.019546,0.012718,0.044227,0.082554,0.17506,0.19393,-0.27894
0.096344,-0.031573,0.018587,-0.055395,-0.050903,-0.12169,-0.10377,0.087514
-0.010477,-0.010452,-0.010857,-0.012996,0.013341,-0.016877,-0.06165,-0.016098
0.097556,0.12897,0.15798,0.07721,0.0093412,0.013436,0.054898,-0.0065356
-0.15816,-0.098572,-0.1329,-0.035377,0.022385,0.070726,0.065601,0.14384
-0.0038937,-0.022079,-0.034488,-0.0076549,-0.026503,0.013716,0.09424,-0.17804
-0.09478,-0.0094324,0.020632,-0.012086,-0.060087,-0.080541,-0.1185,0.1421
0.039725,0.024869,0.021902,-0.017851,0.022415,0.013242,-0.050606,-0.37376
0.026775,-0.013064,0.092319,0.013907,0.017332,0.0047535,-0.062422,0.048094
0.12626,0.048777,-0.0032308,0.051987,0.025979,-0.036704,-0.099636,0.089253
0.042884,0.0076049,-0.076367,-0.028325,0.0015377,0.052306,0.11143,0.19021
-0.22263,-0.11269,-0.14011,-0.062514,-0.047851,-0.064329,0.11051,-0.41918
0.10288,0.047736,0.0049775,0.012449,0.018956,0.051144,0.015613,0.24822
0.010352,0.051796,0.04365,-0.013887,-0.023993,0.0086927,-0.039744,0.33459
0.17752,0.087293,0.090501,0.11663,0.042652,0.0044291,0.062004,0.13684
-0.16355,-0.13465,-0.21724,-0.025537,0.00062769,-0.031104,-0.1401,-0.38547
-0.0072095,-0.0045552,0.099712,-0.042045,-0.0013124,0.0044266,0.056682,-0.10184
-0.073845,-0.014563,0.15117,0.020001,-0.017742,-0.060286,-0.03575,0.0085985
-0.036079,0.054132,0.16164,-0.0037519,0.029394,0.12662,0.042863,-0.08758
0.059454,-0.0015126,0.072205,-0.027593,-0.00073239,0.010452,0.026327,0.10837
0.010791,0.01394,-0.075859,0.0030933,-0.045886,-0.073097,-0.031,0.057302
0.038516,0.0068922,-0.20255,0.010307,0.034294,0.023969,0.042758,0.072748
0.22292,-0.022502,-0.24272,-0.04472,-0.033842,-0.058247,-0.11142,0.10982
