0.026139,-0.039116,-0.01582,-0.016534,-0.0023867,0.0038598,-0.023307,-0.01464
-0.0028044,0.027834,-0.011572,-0.015331,-0.0094456,0.003666,0.016509,0.032225
0.0069156,-0.057373,-0.033164,0.017092,-0.00072979,-0.0037422,-0.0062403,-0.014395
-0.0074681,0.06567,-0.076275,-0.0052713,0.023667,0.0050854,0.01774,-0.0060798
-0.0071016,0.0063853,-0.17347,0.011255,-0.0066532,0.0066379,0.002472,0.0024386
-0.038974,0.060658,-0.11391,0.011911,-0.013629,-0.014861,-0.0051623,-0.012343
-0.009342,-0.023374,-0.28856,-0.034616,-0.020727,-0.012742,-0.028551,-0.0036292
0.050633,0.095656,0.56604,0.020069,0.0033001,0.020569,0.01051,0.020673
0.0082921,-0.28,0.26472,0.0040871,0.027215,0.0067149,0.010553,0.0057759
-0.026796,0.058596,0.22755,-0.020023,0.0041526,-0.0076272,0.0029127,0.0062688
0.047151,0.18058,-0.074699,0.010322,0.012233,0.008658,0.011079,-0.016985
-0.0039808,0.054582,-0.25246,0.0093058,-0.018876,-0.014792,-0.011811,0.0062991
-0.039234,-0.36533,-0.22996,-0.0073044,-0.011071,-0.0076199,-0.0032937,-0.0097724
0.043392,-0.038317,-0.024572,0.015319,0.0043925,-0.0009486,-0.0025044,-0.01039
-0.068056,0.2879,-0.049693,-0.047711,-0.011521,0.0054111,0.0060846,0.01245
0.017659,-0.15788,-0.051157,0.022414,0.019376,0.0038591,-0.016695,-0.0035253
-0.034825,0.43868,0.16657,-0.0086942,-0.012203,0.018029,0.022807,0.012215
0.024887,-0.15576,-0.11158,0.03856,0.011029,-0.0066156,-0.0083038,-0.018305
0.0093433,-0.042556,0.33142,0.039024,0.011026,0.0081333,0.01492,0.014328
-0.027188,-0.33171,-0.20812,-0.03873,-0.019985,-0.031457,-0.024728,-0.022807
0.14092,-0.24324,0.0033695,-0.069857,-0.042961,-0.023862,-0.0022282,0.034097
-0.08926,0.27577,-0.059626,0.023689,0.059203,0.046463,0.012166,-0.018455
0.030661,0.52801,0.27067,0.030989,0.020748,0.015358,0.0029213,0.030052
0.053825,0.04269,-0.019884,-0.016587,-0.0022384,0.0077337,0.0092152,0.022982
-0.020935,-0.1663,0.013439,0.045213,-0.0099053,-0.02335,-0.015699,-0.032112
-0.22539,-0.28749,-0.24863,-0.033394,-0.049223,-0.038849,-0.017005,-0.057162
0.065732,-0.35222,-0.012116,-0.0022177,0.004792,0.015951,0.067913,-0.012939
0.025314,0.16389,0.0011742,-0.017386,-0.011857,-0.0073379,-0.057734,0.02279
0.037723,0.11407,-0.055215,0.0070515,0.033758,0.0085142,-0.05016,0.019241
0.11254,0.19555,0.10568,0.008475,0.016758,0.032247,0.082788,0.039364
-0.053264,0.073962,0.060519,0.010072,-0.00027829,0.0090835,-0.034007,-0.0024435
-0.013134,0.085991,0.019362,-0.019762,-0.001706,-0.029888,0.0054979,0.011156
-0.032025,-0.19825,0.02083,0.043579,0.012446,0.040129,0.060405,-0.05269
-0.0083321,-0.021892,0.08049,0.043495,-0.012548,-0.046674,-0.049262,0.024585
0.033971,-0.089316,-0.22322,-0.090532,-0.021992,-0.016955,-0.019055,-0.0072678
0.023588,0.19227,0.071369,-0.0069196,-0.0001665,0.027762,0.033728,-0.0078489
-0.095423,0.064896,-0.026787,-0.010071,-0.009377,-0.021704,-0.070532,-0.016359
0.011534,-0.43139,-0.0083496,0.0020955,-0.010295,0.030288,0.090319,0.021872
0.07759,0.18213,0.073737,0.045866,0.036419,0.0044609,-0.045761,0.0053836
0.0080105,-0.060257,-0.036613,-0.026533,-0.01747,-0.028456,-0.017258,-0.0031448
0.0053258,0.25109,-0.13486,0.011974,0.031227,0.010002,0.012352,-0.01132
-0.03996,-0.16986,0.076689,-0.002439,0.0026943,0.010645,0.012297,0.012274
-0.064968,0.22577,0.12933,0.00043198,-0.03307,-0.057804,-0.024984,-0.0025973
-0.021986,-0.51472,0.014437,0.027954,0.0094183,0.062205,0.017638,-0.0091029
0.066718,0.52135,0.082053,0.040363,0.035894,0.049879,0.061642,0.0082136
0.05404,-0.051919,-0.068214,-0.049086,-0.055682,-0.095415,-0.096794,0.017839
-0.035272,-0.3092,-0.2196,-0.045835,0.015597,0.055335,0.064887,0.011661
0.034283,0.5181,0.063747,0.0026998,0.023023,0.024987,0.0067264,-0.034016
0.021349,-0.25416,-0.031695,-0.013091,-0.056759,-0.061815,0.032699,0.021289
-0.050146,0.097501,0.0093844,0.024079,0.034358,-0.0019673,-0.099724,-0.0020758
-0.078495,-0.20923,0.10137,0.005216,-0.0078619,-0.006059,0.031481,-0.064827
-0.0013851,-0.048077,0.096601,0.055889,0.035858,0.051596,0.067609,0.067786
0.040057,-0.63448,-0.12113,-0.026387,-0.021471,-0.085904,-0.19338,-0.06474
0.060661,0.85639,-0.011739,-0.037879,0.00025611,0.043345,0.070085,0.014527
0.035945,-0.40685,-0.0040061,0.014098,-0.0080779,0.049546,0.077925,0.040145
-0.035299,0.094769,0.10596,0.0048795,-0.015156,-0.082419,-0.083212,0.0042031
-0.029317,0.80777,-0.04057,0.028369,0.06483,0.092826,0.11795,0.046934
-0.017541,-0.29253,-0.07589,-0.048276,-0.05749,-0.073581,-0.06937,-0.019782
-0.0086247,-0.10009,-0.038608,-0.014318,-0.0075566,0.042504,0.0018018,-0.056025
0.059478,-0.36937,0.024754,0.051776,0.003177,0.064946,0.3374,0.086047
-0.086696,-0.065671,0.012827,-0.0066897,0.044509,-0.077761,-0.33001,-0.093883
0.053218,-0.012522,0.042753,-0.033962,-0.008999,0.035246,0.15451,0.021446
-0.082633,0.24184,0.02824,0.01635,-0.024813,-0.088827,-0.38126,-0.059686
0.1081,-0.028538,0.007674,0.050101,0.036073,0.04995,-0.0069415,-0.031838
0.024653,-0.40746,0.01137,-0.0032513,-0.060505,-0.08699,0.16194,0.10582
-0.035452,0.38142,-0.055481,-0.034342,0.045306,0.095064,0.10414,0.0024019
0.0063912,0.098747,-0.029829,-0.019497,0.0026421,0.034835,0.1031,0.0097609
-0.029222,0.12933,-0.021858,-0.052014,-0.062686,-0.094562,-0.15985,0.0027187
-0.079665,-0.15103,0.014805,0.032737,0.037603,0.10632,0.12856,0.011895
0.14414,-0.055176,0.056557,0.00092306,-0.024038,-0.041624,-0.031957,0.028561
0.0406,0.43148,-0.0058421,0.032584,0.0026113,-0.030535,-0.048774,-0.03416
-0.17943,-0.37185,-0.031426,0.018382,0.039179,-0.032782,-0.040784,-0.0050731
0.015211,-0.122,0.011499,0.028307,0.022437,0.099126,0.0057946,-0.079684
-0.0084463,-0.47492,0.092133,0.053914,0.037196,0.0045934,0.034687,-0.023222
0.093125,-0.015459,-0.1954,-0.1009,0.0040118,0.080792,0.12299,0.0011738
0.038359,0.52345,0.0085543,-0.046243,-0.078373,-0.17335,-0.33899,0.010373
0.045634,0.38514,0.24321,-0.016988,-0.062433,-0.10225,0.14129,0.13845
-0.057257,-0.13314,-0.14759,0.018018,-0.0032126,-0.010761,-0.15404,-0.074535
-0.12986,-0.016342,0.13316,0.14506,0.11522,0.22649,0.28395,0.067201
0.070142,0.054682,-0.15649,-0.096047,-0.018688,0.086876,0.19074,-0.022374
0.035397,-0.093059,-0.063007,-0.055851,-0.044147,-0.069111,-0.10458,0.0076849
-0.037995,-0.13179,0.10955,0.040195,0.0092435,-0.083956,-0.030972,-0.046705
-0.1022,-0.68568,-0.11467,-0.010042,-0.060059,-0.18298,-0.29885,0.0008867
0.17183,0.19254,0.061856,-0.00277,0.053846,0.1192,-0.032843,-0.084893
-0.066847,0.30221,-0.079266,0.023136,0.031251,-0.020551,-0.045327,-0.04699
-0.013427,0.3328,0.23529,0.0048129,-0.010803,0.11649,0.3119,0.15316
0.105,-0.090149,-0.065423,0.027318,0.028353,0.013974,-0.0010081,0.0074447
-0.1268,0.15685,-0.013766,0.050345,0.045671,0.0064626,0.17084,0.031351
0.070725,0.078108,0.19363,0.025651,-0.0075151,0.04526,-0.057185,-0.040813
0.00034714,-0.32337,-0.34291,-0.14954,-0.070446,-0.019958,-0.29642,-0.052783
0.089924,0.14281,0.016435,-0.030727,-0.019471,-0.018834,0.20155,0.05806
-0.13064,-0.19115,-0.064506,-0.040062,-0.11312,-0.21777,-0.15,-0.051754
0.025585,-0.084514,0.11781,0.080539,0.093955,-0.022832,-0.061656,0.0010745
-0.026902,-0.13744,0.025219,0.042708,0.0086736,0.12961,0.19469,0.021936
-0.075761,0.11514,0.088534,0.027051,0.061874,0.10076,-0.089339,0.011717
0.021828,0.17925,-0.011475,0.026693,0.028336,-0.013495,0.034678,0.026098
-0.075263,-0.039957,-0.031788,-0.020059,-0.028154,0.062312,-0.11765,-0.12925
0.284,0.12746,-0.089119,-0.057919,-0.059681,-0.27967,-0.067243,0.069973
0.0080166,-0.54913,-0.0036597,-0.063053,-0.042126,0.078517,0.16385,0.030598
-0.10497,0.21226,0.18538,0.10539,0.095131,0.38686,0.51315,0.09661
-0.093598,0.83872,-0.077011,0.041299,0.07863,-0.20697,-0.4895,-0.1228
-0.0052232,-0.034558,-0.1115,-0.091219,-0.076267,-0.03234,-0.049741,-0.01103
0.018248,-0.45384,-0.019993,-0.026529,-0.080886,-0.2626,-0.13952,-0.0065222
0.099975,-0.34064,0.0096861,0.032171,0.025285,0.15553,0.042556,-0.0010969
0.034697,-0.11521,0.063144,-0.024688,-0.05504,0.041175,0.4076,0.12892
-0.14849,-0.046906,-0.03971,0.021275,0.052747,0.026264,-0.36687,-0.15687
0.056342,0.59792,0.17718,0.03667,0.03574,0.039905,0.13979,0.093499
0.0071165,-0.27229,0.02573,0.067616,0.05755,-0.12136,-0.12731,0.027579
0.0076762,-0.12183,-0.1274,-0.058611,-0.015127,0.1361,0.035748,-0.050402
-0.09065,0.52381,-0.0090909,0.040013,0.043807,0.078041,0.14612,-0.031032
0.032762,-0.50123,-0.18187,-0.043329,-0.062868,-0.17016,-0.15352,-0.01534
0.06612,-0.035404,-0.028204,-0.12135,-0.11653,0.025009,0.0063082,-0.057053
-0.044335,0.32365,0.10876,-0.045431,-0.046739,0.00049461,0.12779,0.079443
0.014881,-0.14852,0.15941,0.028705,-0.017213,-0.32842,-0.068408,0.12205
0.088451,0.23581,0.24157,0.32053,0.28499,0.42237,-0.026159,-0.092051
-0.064965,-0.0091489,-0.22243,-0.12232,-0.022507,-0.011664,0.044513,-0.014934
0.016366,-0.69849,-0.28698,-0.12729,-0.10348,-0.0047385,-0.027906,0.018213
0.091071,0.27394,0.048131,0.032686,0.03445,0.060631,0.076741,0.0078388
-0.24623,0.6783,0.27529,0.022023,-0.05394,-0.14386,-0.040596,-0.01465
-0.025863,-0.41799,-0.1131,0.020637,0.022102,-0.071913,-0.27938,-0.15874
0.15923,-0.040503,-0.1012,-0.080718,-0.080965,-0.10725,0.12464,0.16895
-0.073229,-0.2061,0.045465,0.046121,0.04341,0.17085,0.21663,0.014657
0.042408,-0.11044,-0.0091835,-0.044233,-0.02633,0.065769,0.033759,-0.028722
0.099244,0.19991,0.062544,0.030799,0.030338,0.099502,0.081898,0.076821
-0.060304,0.4522,0.048942,0.020783,0.018074,-0.32313,-0.41407,-0.15424
0.085347,-0.21221,-0.050999,0.026647,0.10841,0.39818,0.31037,0.089472
-0.0049184,-0.27715,0.011653,-0.022711,-0.08994,-0.20613,-0.19815,-0.052353
-0.09857,0.2733,0.29852,0.075012,0.023747,-0.073761,0.022084,0.052472
-0.05622,-0.18578,-0.51119,-0.024623,0.018936,0.12404,0.15255,0.059992
-0.050116,-0.076258,0.020141,-0.095444,-0.11281,-0.28317,-0.13229,-0.068589
0.021866,0.2112,0.057184,-0.035851,0.034515,0.20668,0.037814,-0.06693
0.02824,-0.049973,-0.039741,-0.0094174,-0.031031,0.01788,-0.029472,0.011347
0.080148,-0.016117,0.2928,0.086286,0.011524,0.0043325,0.0042268,-0.0043864
0.015333,-0.19529,-0.014933,0.057014,0.053738,-0.0040189,-0.078431,0.035502
-0.031924,-0.0021192,-0.11137,-0.064937,0.0028421,0.0016138,0.22261,0.03037
0.025203,0.14059,-0.051823,0.0024954,-0.0075518,-0.033515,-0.13314,-0.01931
0.022882,0.20811,0.061054,-0.044955,-0.047322,-0.040181,0.03911,0.058295
-0.070487,0.058495,0.015068,0.058294,0.055383,0.14376,0.15758,0.020498
0.080307,0.011064,-0.0033197,0.022696,0.011043,0.062814,-0.016019,0.01495
-0.072469,-0.15297,-0.088333,0.011508,0.022018,-0.17602,-0.26646,-0.12325
-0.045199,-0.27596,0.033808,-0.030897,0.024941,0.18319,0.15378,-0.03542
-0.041524,0.07489,0.020603,-0.0038033,-0.074657,-0.19648,-0.20158,-0.034418
0.024263,-0.18173,-0.032149,-0.032757,-0.050584,-0.13524,-0.011634,0.035956
0.11309,0.1238,-0.074998,0.038388,0.011326,0.094561,0.17095,0.097774
0.061,0.25485,0.15255,-0.032186,-0.021178,-0.10687,-0.010273,0.073198
-0.11631,-0.026295,-0.034693,-0.03279,0.063716,0.26241,0.02606,-0.11568
-0.036036,0.25167,-0.033661,-0.0015524,-0.0064911,0.032076,0.064186,0.007781
0.036026,-0.16121,-0.10963,-0.078251,-0.067009,-0.06272,-0.081114,0.029388
-0.017575,-0.36904,0.14271,0.19854,0.12463,0.048132,0.075898,-0.043281
0.10753,0.14678,0.15868,0.039706,0.013447,-0.050493,-0.13621,-0.0073654
-0.026415,-0.29208,-0.13515,-0.078858,-0.034237,0.014824,0.13386,0.043217
-0.067982,0.74466,-0.00012786,0.0057607,0.027179,0.023702,0.041614,0.061626
-0.017078,-0.0078396,0.10727,-0.012527,-0.13186,-0.25944,-0.21848,-0.092461
-0.045244,-0.29755,-0.24522,-0.02567,0.081111,0.18059,0.048106,-0.027837
0.027743,-0.11257,-0.04338,-0.05805,-0.022284,-0.08545,-0.12796,-0.040583
0.10096,-0.20391,0.017509,-0.03188,-0.04387,0.045298,0.22162,0.042056
-0.028094,-0.015156,0.10283,0.11569,0.11834,0.15279,0.018316,0.10368
0.016066,0.19222,0.13676,0.026271,-0.0346,-0.057843,-0.043116,-0.042713
-0.024099,0.15823,-0.07319,-0.0018128,-0.024557,-0.053557,-0.02597,-0.029819
-0.007936,-0.10325,-0.00076589,-0.13877,-0.11534,-0.20032,0.1234,0.056057
-0.091906,-0.0087786,-0.1514,0.023251,0.10107,0.22885,-0.14308,-0.098382
-0.0029848,-0.054673,0.078064,0.079272,0.016754,0.038107,-0.0062359,-0.0020677
0.1567,0.28407,0.055444,0.037832,-0.0080849,0.022953,0.087708,0.12499
-0.01972,-0.024405,0.10848,-0.0072565,0.042255,-0.021785,-0.033597,0.0081451
0.0062234,-0.20118,-0.22506,-0.080034,-0.028255,-0.02814,-0.041969,-0.087904
-0.031499,0.14882,0.092006,0.013669,0.021188,-0.099909,-0.038381,-0.023029
-0.039237,-0.16545,0.002799,0.077088,0.0012982,0.011173,0.0094293,-0.0081275
-0.032325,-0.076638,0.24748,0.077489,0.019601,-0.00053941,-0.045743,-0.019196
0.02117,-0.047559,-0.30049,-0.16605,-0.066088,0.075827,0.20358,0.061929
-0.010603,0.038327,-0.063692,-0.044887,-0.030183,-0.016764,-0.046306,0.0020554
0.037463,0.15019,0.028329,0.011125,0.02552,0.043416,0.22087,0.067965
-0.029077,-0.10152,0.046847,0.03366,-0.046901,-0.17155,-0.60403,-0.16913
0.0089789,0.10484,0.001153,0.031364,0.034907,0.074521,0.072606,0.041247
0.049919,0.16106,0.049119,0.044316,0.030176,0.087835,0.52381,0.1522
-0.00080882,-0.04918,0.028064,-0.028103,0.018446,0.033483,-0.00095445,-0.02429
-0.0039577,-0.025307,0.0091521,-0.013345,0.00082256,-0.11156,-0.47097,-0.11408
-0.031572,-0.34496,0.0082094,0.010747,0.0013383,0.12128,0.23836,0.038052
0.10989,0.070544,-0.02985,-0.018447,-0.026888,-0.057674,-0.19341,0.0092598
-0.10449,0.19857,0.081668,0.054879,0.017148,-0.078961,0.06978,-0.01365
-0.019331,0.0010564,-0.22068,-0.019903,0.05437,0.10345,0.25484,0.031544
-0.033154,-0.0053047,0.12477,-0.016879,-0.041345,-0.08141,-0.14559,-0.042467
-0.043686,-0.030536,-0.1169,-0.053756,-0.075736,-0.10267,-0.045122,-0.031951
0.044188,-0.12882,0.054088,0.017606,0.051984,0.13332,-0.029364,-0.014149
0.060331,0.17627,0.051878,-0.05285,-0.088254,-0.029586,0.019016,0.043149
0.037761,-0.08492,0.079841,0.086583,0.097341,0.13536,0.12339,0.054828
0.024847,-0.085994,-0.072656,0.022092,-0.0002034,-0.082601,-0.029018,0.060466
-0.071157,0.13939,0.063426,0.011765,-0.0052447,-0.073988,-0.24332,-0.11169
-0.02326,0.088449,-0.081968,-0.0066607,0.043901,0.16126,0.22215,0.006848
0.051245,-0.030576,0.0070455,-0.01737,-0.031727,-0.079924,0.093421,0.040534
-0.020028,0.077162,0.0026408,-0.05145,-0.059641,-0.14901,-0.21592,-0.050375
0.0043778,-0.0032036,-0.0088869,0.055334,0.054347,0.071352,0.059414,0.022528
-0.079435,-0.13023,-0.058407,-0.064016,-0.025468,-0.043698,-0.033818,-0.014697
0.08725,-0.33268,0.049718,0.012565,0.029049,0.18561,0.16073,-0.013878
0.019616,-0.02077,-0.028104,-0.0038493,-0.024489,-0.061126,-0.075364,0.0015333
-0.048157,0.013025,0.036164,-0.011681,-0.038035,-0.05765,-0.046258,0.047364
-0.053537,0.42895,0.14059,0.12173,0.081637,0.039279,-0.048177,-0.0088489
0.06616,0.16713,-0.066969,0.0054564,0.021437,0.018105,0.044548,-0.018264
-0.040397,-0.06872,-0.016856,-0.048417,-0.031695,0.011053,-0.05659,-0.019565
0.06447,-0.061428,0.040392,-0.0090258,-0.046946,-0.091659,0.078409,0.034408
0.0058016,-0.21277,-0.30173,-0.111,-0.0011075,0.10049,0.13702,-0.012439
-0.013403,0.10577,0.15217,0.028453,-0.01916,-0.19349,-0.178,0.011782
-0.0090387,-0.1726,0.011866,0.034531,0.047594,0.18321,0.18736,0.013215
-0.0048923,0.15969,0.051307,0.032611,0.027729,-0.081135,-0.23648,-0.039584
-0.024749,-0.14914,0.052207,0.030943,-0.031329,0.0221,0.065289,0.040658
-0.0063833,0.23688,0.10074,-0.0091652,-0.0040237,0.024824,-0.07992,-0.035346
-0.012455,-0.23514,-0.15473,-0.056249,-0.0070629,-0.0022675,0.093017,-0.033413
0.027307,-0.023072,-0.034832,0.014707,0.022388,0.058061,0.036937,-0.0083889
0.081704,0.11117,0.014639,0.0082102,-0.024896,-0.036633,0.040818,0.10209
-0.11477,0.061799,-0.061484,0.017694,0.022921,-0.028991,-0.0046181,-0.006773
0.039588,0.089418,0.15832,0.02716,-0.0062526,-0.067946,-0.23191,-0.069474
0.037142,-0.046666,-0.029213,-0.034036,-0.0033809,0.080487,0.25785,0.046726
-0.020352,-0.16679,-0.077098,-0.033286,0.015508,0.041135,0.027843,0.013692
-0.04672,0.14161,-0.0006144,0.013765,-0.0046672,-0.092158,-0.18668,-0.07473
0.075511,-0.061626,0.028885,-0.002089,-0.017348,0.048129,0.068454,0.047297
-0.098641,0.001385,-0.0036283,-0.018037,-0.0071055,-0.076589,-0.11974,-0.049591
0.040553,-0.008831,0.0039604,0.028788,0.01038,0.034171,0.093471,0.041236
0.040296,-0.040729,-0.0026485,-0.0097339,-0.019513,0.044804,0.068143,0.0076492
-0.021038,0.40342,0.06261,0.046258,0.020549,0.010049,-0.000189,0.0061811
0.028538,-0.39618,0.0042371,0.009238,0.0057346,0.0077361,-0.072801,-0.0099077
-0.068863,-0.15017,-0.21733,-0.027268,0.029929,0.021626,0.10723,-0.0094059
0.014603,0.049302,0.061194,-0.079268,-0.055243,-0.066297,-0.094197,0.015298
0.0050061,0.13443,0.24512,0.079345,0.023638,0.0087217,0.040152,0.0092005
0.057922,-0.0012111,0.020976,0.010628,0.0086673,0.019399,0.024476,0.026633
-0.046193,-0.10478,-0.29957,-0.067016,-0.0065292,-0.011241,-0.056385,-0.073352
0.0043444,0.31816,0.15797,0.041537,-0.0064431,-0.059771,-0.077997,-0.009724
0.060376,-0.051262,-0.051732,0.055045,0.032298,0.10077,0.18626,0.045552
-0.027033,0.20947,0.024947,-0.065351,-0.046542,-0.067942,-0.13798,-0.0012366
-0.11742,-0.51682,-0.071936,-0.0067776,0.014947,-0.0025046,-0.065253,-0.056214
0.062869,0.0039478,0.088622,-0.018753,-0.033082,0.0011033,0.11663,0.076092
-0.0011746,0.044798,-0.03885,0.016413,0.020466,-0.0095594,-0.098982,-0.010428
0.003876,-0.043186,-0.10157,-0.025849,-0.019621,0.043958,0.1403,-0.010994
0.10259,-0.034106,0.19035,0.081291,0.057582,0.036556,0.037945,0.01976
-0.03975,0.39911,0.009057,0.048835,0.033185,0.077126,0.0078345,0.0037444
-0.054822,-0.081057,0.041758,-0.060848,-0.014932,-0.092874,-0.052132,-0.035538
-0.03542,-0.054742,-0.1732,-0.083965,-0.055791,-0.091409,-0.095778,-0.0042103
0.019097,0.14777,0.058565,0.041676,-0.011464,0.018405,-0.022153,-0.0036416
-0.01606,-0.24095,0.017365,0.050191,0.0086391,-0.029365,0.0043281,-0.03361
0.015061,-0.065556,-0.11783,-0.035124,0.028145,0.10909,0.10083,0.046689
0.017867,0.049335,0.050979,-0.011148,-0.015037,-0.011155,-0.029276,0.002934
0.084786,0.027388,0.054924,-0.010577,-0.010956,-0.03793,-0.010589,0.0068533
0.042312,-0.105,-0.027801,0.0058238,0.017594,0.037259,0.024429,0.050263
-0.0253,-0.14115,0.029513,-0.0086622,-0.03037,-0.066228,-0.080327,-0.031468
-0.18198,0.26612,-0.069895,0.024158,0.025234,0.042651,0.081213,-0.0437
0.016702,0.13488,0.22087,0.10423,0.01264,-0.010964,-0.053996,-0.0027217
0.031469,-0.08861,-0.066992,-0.065523,0.025369,0.061822,0.18507,0.028444
0.01908,0.047845,-0.2148,-0.086916,-0.062134,-0.051929,-0.17134,-0.02861
0.043108,-0.099004,0.082147,0.016333,0.022762,0.022148,0.055518,0.029258
0.0033836,0.052914,0.081799,0.040882,0.029128,-0.060412,-0.08034,-0.016379
-0.028364,-0.032019,-0.11402,-0.013387,0.018577,0.074729,0.045901,0.03039
-0.050961,-0.053156,-0.01284,-0.0058521,-0.048645,-0.057305,-0.018501,-0.048388
0.084752,0.056858,0.080878,0.03233,0.022422,0.0276,-0.077288,0.013815
-0.027297,0.038875,0.081223,-0.01587,-0.080672,-0.029919,0.18342,0.046022
0.050051,-0.26284,-0.090136,-0.025262,0.025329,-0.0030369,-0.10197,-0.036916
-0.027682,0.0055374,0.027339,0.027795,0.036486,0.038401,0.02125,-0.015667
0.0042427,0.21475,0.073811,0.018498,-0.015062,-0.030017,-0.031529,0.016322
-0.019029,0.12687,-0.036993,-0.02952,0.027796,0.05797,0.037413,0.012156
0.0036019,-0.13669,0.0074015,0.063624,0.025097,0.0061059,-0.01386,-0.012895
-0.060669,-0.033304,-0.20668,-0.092508,-0.014983,-0.036621,0.0017426,0.010818
-0.0004066,0.072235,0.024649,-0.0055645,-0.014291,-0.03851,-0.0418,-0.0348
0.013387,-0.11599,0.077363,-0.0035749,-0.0043521,0.024193,0.11963,0.028889
0.02079,0.0029993,-0.086728,0.0071818,-0.0716,-0.090567,-0.046998,0.060194
-0.0085645,0.1616,0.24378,0.089,0.088046,0.070234,-0.082544,-0.08245
0.058613,-0.13552,-0.056283,-0.031958,0.013047,0.084348,0.11302,0.045595
-0.012153,-0.0015468,0.012268,-0.0046857,-0.015842,-0.033245,-0.1098,-0.04035
-0.018468,0.15321,0.11219,0.013953,-0.0067391,0.075986,0.10801,0.0035955
0.030607,-0.089,-0.070472,0.04686,-0.014401,-0.12794,-0.084781,-0.0017037
0.024155,-0.14509,-0.27906,-0.13284,-0.046475,-0.0052196,-0.046544,-0.00066733
-0.031532,0.29585,0.024909,0.013906,0.053641,0.060774,0.052326,0.015608
-0.075139,-0.29752,0.036937,-0.020383,-0.026115,-0.10203,-0.059911,-0.045517
0.095857,-0.025384,0.039114,0.030487,-0.004085,0.053428,0.17306,0.07472
-0.13563,0.16183,0.24362,0.065627,0.049684,0.012049,-0.067792,-0.0058564
-0.0031977,0.056769,-0.21547,-0.023738,0.010242,0.024552,-0.031707,-0.029203
0.041274,-0.055404,-0.016854,-0.018483,-0.0054006,0.029202,0.070537,0.0044857
0.085185,-0.0069171,0.15242,0.042398,-0.0054039,-0.051466,-0.10521,0.0087043
-0.0029145,-0.11515,-0.082746,0.0024295,-0.02143,0.0017299,0.065191,-0.0095643
0.035822,-0.011174,0.066109,-0.045077,-0.038204,-0.092328,-0.083442,0.019051
-0.040221,0.086503,-0.15188,0.00093914,0.03003,0.095866,0.049218,-0.0079057
-0.01999,0.082865,0.10614,0.046316,0.034888,0.089295,0.055755,0.0026165
0.010329,0.10033,-0.097982,-0.081005,-0.046771,-0.042357,-0.056985,-0.051347
-0.090347,-0.075436,0.071403,0.048777,0.0042888,-0.010672,0.0072177,0.0098336
0.044651,0.14573,0.051978,-0.017051,0.0089579,-0.097404,-0.11128,-0.0088806
0.0085991,-0.27824,-0.23378,-0.043485,-0.0009653,0.080051,0.28298,0.088359
0.066755,-0.04452,0.22282,0.032683,-0.025081,-0.056281,-0.075042,-0.010248
-0.046758,-0.14568,-0.069393,0.024574,0.061771,-0.021521,-0.17656,-0.06176
0.011652,0.036492,0.046755,0.0028955,-0.013961,0.044445,0.010902,0.004842
-0.062797,0.26185,0.11887,0.061474,0.020792,0.025242,-0.065971,-0.012988
0.011083,-0.029716,-0.18857,-0.049941,-0.0063791,-0.0081152,0.15657,0.049199
0.084791,-0.015754,0.038619,0.03532,-0.033554,0.038564,0.054445,-0.011562
-0.02924,0.10977,-0.066977,-0.097468,-0.014358,-0.014301,0.0030784,0.0077771
-0.010756,0.073771,0.048794,0.0041297,-0.027243,-0.026312,-0.02894,-0.002451
0.046469,-0.24926,0.025707,0.011368,0.029238,-0.013576,-0.073559,-0.027083
-0.021579,0.17864,-0.020217,0.017495,0.030168,0.077979,0.071245,0.011433
-0.12101,-0.425,-0.043552,-0.0091225,-0.047683,-0.13509,-0.15053,-0.020338
0.021804,0.37637,0.14938,0.048416,0.069376,0.049809,0.033182,0.0097968
0.02425,-0.011421,-0.10713,-0.036659,-0.024684,0.007278,0.12897,0.0075197
0.097357,-0.1507,0.13863,0.032406,-0.0015903,-0.0051031,-0.0048214,0.042667
0.0066624,0.20135,0.081067,0.14625,0.021531,0.02819,-0.064198,-0.02573
-0.076268,-0.43094,-0.37371,-0.26524,-0.064697,0.036842,0.059878,-0.018153
0.035574,0.38289,0.0094258,0.040552,0.028764,-0.025952,-0.030952,0.026373
-0.025574,-0.059901,0.1149,-0.0060144,0.012834,0.0039924,-0.054946,-0.048143
