-0.0055111,-0.020796,-0.031562,-0.051372,-0.005153,-0.070542,-0.0958,-0.036779
0.0029716,0.042638,0.48743,0.033113,-0.013363,0.027787,-0.17947,-0.0044178
0.0035025,0.0039313,-0.29303,0.0091126,-0.0060143,0.024605,0.005493,0.082662
0.003843,-0.027859,-0.030963,-0.0060562,0.0090548,-0.0017402,0.053542,-0.11176
0.0039617,0.072014,-0.049039,0.02666,0.00059578,-0.0042787,0.019386,0.03708
0.0038571,-0.11062,-0.23253,-0.025713,-0.00010625,0.0091487,0.050784,-0.010024
-0.019874,0.010225,0.18207,-0.0072261,-0.0086146,-0.00062506,0.083981,-0.003063
0.0031526,0.020734,-0.11133,0.019218,0.0063944,-0.025902,-0.10134,0.019065
0.0027196,-0.00062518,0.6212,0.021932,0.013739,0.027007,0.21206,0.0019682
-0.013263,-0.022241,-0.38539,-0.030731,-0.009969,-0.0059182,-0.19563,0.0085177
-0.013479,-0.043832,-0.0045185,0.0015731,0.0056051,-0.046403,-0.34817,-0.070283
0.033333,0.19254,-0.53072,-0.021895,-0.0098542,-0.02391,0.19246,0.078373
0.017732,-0.055338,0.52309,0.031754,-0.0016825,0.077423,0.099387,-0.029726
0.017719,-0.029782,-0.27024,-0.024727,0.014461,-5.3452e-05,0.030511,0.0038305
-0.04498,-0.012136,0.2941,0.012154,-0.0083368,-0.037565,0.11246,0.0069258
0.040452,-0.025763,0.0054873,-0.021259,-0.015429,0.066309,-0.036348,0.0025647
-0.085396,-0.093763,-0.33274,0.00038579,0.0087637,-0.024648,0.10027,-0.009821
0.015053,0.003232,0.45618,0.038253,0.0016885,0.0017127,-0.36072,0.031653
0.052925,0.21918,0.11047,0.037715,0.017965,0.066941,0.1735,0.0092412
-0.041837,-0.10129,-0.038109,-0.032579,-0.012799,-0.22762,-0.30642,-0.14777
0.020089,-0.074567,-0.44604,-0.055653,-0.0047463,0.078914,0.18196,0.12295
0.0045374,0.042046,0.064737,0.061996,0.010806,0.064724,0.56628,-0.030026
0.03662,0.014312,-0.23173,-0.015769,0.010392,-0.043487,-0.16304,0.13588
-0.047715,0.09194,0.38621,-0.046854,-0.029398,0.13722,-0.054006,-0.081783
0.063966,-0.077336,-0.1237,0.015647,-0.0069077,-0.10405,-0.48946,-0.15093
-0.019063,0.044507,-0.23264,0.0078049,0.015517,-0.0016882,-0.27284,0.093401
-0.085964,-0.31725,0.38466,-0.0077002,-0.00099508,0.11609,0.56702,-0.074542
-0.027452,0.27348,0.028605,0.047413,0.021879,-0.12575,0.40832,0.13484
0.11729,0.2215,0.075533,0.03259,-0.0016362,-0.055328,-0.77691,0.041992
-0.05821,-0.38083,-0.31153,-0.083467,-0.032384,0.038433,0.56865,-0.19721
-0.038744,0.23868,0.48149,0.035013,0.015565,-0.070859,-0.52246,0.30705
0.050032,-0.10854,-0.51075,-0.06536,-0.0376,0.14037,0.19934,-0.38386
0.019735,-0.11075,0.22265,0.036974,0.026625,0.015841,0.32557,0.19763
0.080308,0.13778,-0.1114,0.052633,0.051641,0.0084688,0.20404,0.46463
-0.02695,0.019678,-0.10136,0.0047898,-0.0098329,-0.046247,-0.43546,-0.67708
0.0099531,-0.043126,0.24441,-0.067649,-0.041002,-0.078553,-0.43344,0.04615
-0.12133,0.051271,-0.1821,0.030641,0.020347,0.18444,0.80805,0.15084
0.041135,-0.0090036,-0.02636,0.018628,-0.0055716,-0.18735,-0.50975,-0.38509
-0.016434,-0.035479,-0.12055,-0.025131,0.0063981,-0.0065317,0.41029,0.68992
-0.11185,-0.20647,0.17185,0.0015457,-0.02145,0.063058,-0.58568,-0.083776
0.062315,0.15177,0.1896,-0.025624,-0.025981,-0.024874,-0.21231,-0.36167
-0.030529,0.44785,0.13709,-0.0043799,0.0091761,0.11337,0.55885,0.05939
0.11127,-0.15905,-0.2674,0.003311,0.014423,0.025762,0.36562,0.23342
0.19912,-0.44677,-0.033825,0.04455,0.021538,-0.11459,-0.38951,-0.043934
-0.11948,0.13524,-0.032649,0.0019753,0.02293,0.029498,0.42878,-0.094474
-0.026347,-0.17504,0.10736,-0.039069,-0.036236,-0.22056,-0.72579,0.041255
-0.08699,0.008131,0.077986,0.084539,0.031043,0.18294,-0.10442,-0.16142
-0.10161,0.24891,-0.18598,-0.018951,0.0052661,-0.13466,0.47766,-0.10179
0.12983,0.14087,-0.13912,-0.077186,-0.036298,0.342,0.079167,0.14932
0.042425,0.36143,-0.00023945,0.049644,-0.00068774,0.033889,-0.17131,0.052607
-0.13083,-0.58577,0.38033,0.017441,0.0021498,-0.10732,0.32378,0.12364
0.2348,0.1843,0.051734,-0.032953,0.034456,-0.036545,0.092482,0.30781
-0.19577,-0.17824,-0.31126,-0.10078,-0.075565,-0.52133,-0.9842,-0.44138
-0.061493,-0.077743,-0.10397,0.080748,-0.038491,0.14743,0.10913,-0.052789
0.077377,0.035541,0.059386,-0.16677,0.044642,0.45243,0.54561,-0.0093638
-0.065856,0.056466,0.42349,0.29844,0.096269,-0.0062493,-0.094307,-0.11374
0.14374,0.061082,-0.2443,-0.038493,0.01529,0.1452,0.22343,0.16778
0.012448,-0.076245,-0.13062,0.064821,-0.010495,-0.23463,0.079656,0.064191
0.025525,0.28575,-0.18871,-0.079459,-0.066891,-0.22398,-0.39835,-0.055425
0.03479,-0.21056,0.37729,-0.14397,-0.05233,0.18568,0.36918,0.12234
-0.11622,0.17977,-0.043795,-0.098466,0.001877,-0.23833,-0.69478,-0.082566
-0.0060369,-0.094322,-0.032461,0.11852,0.0097149,0.31115,0.44943,-0.070284
-0.12727,0.034016,-0.16167,0.092015,0.049234,-0.33479,-0.072965,0.047034
-0.027077,-0.3289,0.29259,0.12607,0.065687,0.26434,-0.051133,0.12537
0.12247,-0.20192,-0.22644,0.12665,0.043409,0.18137,0.33489,0.036329
0.03206,0.23115,0.32685,-0.23419,-0.033223,-0.097632,0.15491,-0.011876
0.091907,0.0426,-0.44618,-0.47144,-0.24228,-0.16574,-0.41188,-0.27077
0.066933,0.21649,-0.075944,0.18148,-0.013367,-0.038934,-0.34237,-0.17006
-0.05942,0.28129,0.24399,0.35066,0.15358,0.078458,0.29305,0.26829
-0.19443,0.029097,0.023697,-0.025497,0.14131,0.12995,0.43198,0.17185
0.028187,-0.037921,-0.054846,0.10029,-0.026986,-0.042783,-0.87081,-0.32351
0.021856,-0.28423,0.20556,-0.061216,-0.0079896,-0.12932,0.58755,0.12096
0.012878,-0.22069,-0.014294,-0.24512,-0.14602,-0.092443,0.14217,0.10874
0.056016,-0.28487,-0.33919,0.070934,-0.0041258,0.12894,-0.09128,0.093587
0.050009,-0.12203,0.12861,0.057709,0.050088,0.033908,-0.091523,-0.13616
-0.10634,0.58605,0.090864,0.026791,0.032087,0.13768,0.084274,0.20674
-0.006495,0.24482,-0.071412,-0.053563,-0.018932,-0.11433,-0.44908,-0.15352
-0.087868,-0.25627,0.25713,-0.073949,-0.024435,-0.10433,0.21283,-0.14105
0.18846,-0.037414,-0.20629,0.23181,0.11777,0.11403,0.48323,0.031742
0.11124,-0.04978,-0.07976,-0.13532,-0.13061,-0.11411,-0.12186,-0.065131
-0.11678,0.35381,0.14445,-0.056876,-0.0031738,0.064398,-0.14763,0.20993
-0.027038,-0.010487,-0.18135,0.046576,0.047673,-0.067585,-0.41932,-0.22702
-0.041236,-0.28944,-0.063572,-0.0035006,0.014642,0.15535,0.13697,0.0093294
-0.1509,0.056893,-0.023968,-0.003228,0.0073626,-0.10966,-0.16267,0.15571
0.051347,-0.22791,0.44676,-0.038375,-0.083606,0.0047838,0.36425,-0.059791
0.19978,0.023149,-0.55674,0.0468,0.022586,-0.048697,0.17204,0.12871
-0.14161,0.23711,0.75464,0.07145,0.067438,0.15058,-0.16198,-0.076902
0.051869,-0.062854,-0.27613,0.049563,0.042256,0.093094,0.32824,-0.046363
0.02316,-0.085876,-0.33792,-0.075374,-0.022642,-0.19965,0.16217,0.11539
0.13183,0.054168,0.224,-0.094065,-0.089011,-0.010717,-0.42999,0.1705
-0.028718,0.040959,-0.20102,0.23457,0.022282,0.010042,-0.27177,-0.086934
-0.22483,-0.020075,-0.012081,-0.40227,-0.087394,-0.12249,-0.54427,-0.49422
0.10508,-0.047775,0.04087,0.12097,0.12903,0.21673,0.69854,0.12093
-0.14144,0.11583,0.22421,0.13376,0.015805,0.020646,0.17018,0.065386
0.097245,0.010026,0.070454,-0.06523,-0.06696,-0.053118,-0.21166,0.092705
0.023451,0.094595,-0.15318,0.11186,0.029946,-0.07313,0.21294,0.16017
0.019124,-0.3748,-0.038729,0.057291,0.025975,0.009341,0.032752,-0.048591
0.0051464,0.16176,-0.014259,-0.35289,-0.086184,-0.054043,-0.30562,-0.077488
0.050719,0.17846,0.015339,0.15505,0.014012,-0.019901,0.22871,-0.042229
0.076603,0.064358,-0.37095,0.19783,0.084315,0.1982,-0.014554,0.088228
-0.14466,-0.19653,0.29579,-0.030336,-0.016223,-0.064092,-0.069429,0.023061
0.011547,-0.24376,0.32734,0.015952,0.016595,0.028115,0.022093,-0.05315
-0.0013101,0.2688,0.050301,-0.1648,-0.0287,0.035784,0.070209,0.020174
-0.025768,-0.14775,-0.20936,-0.058138,-0.011922,-0.050583,0.18326,0.10683
-0.052004,-0.06022,-0.24308,-0.00063031,-0.050485,0.0019605,-0.52096,-0.20209
0.024096,0.19062,0.37672,0.14055,0.0040707,-0.096486,-0.17308,-0.033096
0.0098918,0.083091,-0.65608,-0.087139,0.0035568,-0.13507,0.45678,-0.0035058
0.0092397,-0.023283,0.3923,0.14534,0.057724,0.058725,-0.25272,0.10659
0.062653,0.096538,0.26426,-0.098518,-0.012744,0.12661,0.16243,-0.075712
0.0063527,0.025674,-0.40664,-0.18508,-0.0201,0.077581,0.29771,0.10061
0.089345,-0.27837,0.091438,0.34702,0.082575,0.021953,0.25461,0.052093
-0.12799,0.040525,0.27479,-0.13505,-0.056449,-0.055488,-0.6953,-0.055254
0.015514,0.0034854,-0.32511,0.0088733,-0.0078076,-0.037726,0.46047,-0.025062
-0.037953,0.062729,0.26805,0.059268,-0.014067,-0.081682,-0.72715,-0.16198
0.029097,-0.054539,0.077181,-0.26597,-0.013056,0.1242,0.50395,0.16589
-0.0040975,-0.07294,-0.070082,0.20429,0.010662,-0.030378,-0.1771,0.097518
0.15067,0.080521,-0.1503,0.016486,0.018027,0.078904,0.50164,0.20119
-0.21708,-0.26335,-0.18612,-0.016916,0.0014145,-0.15753,-0.43662,-0.39223
-0.066631,0.44422,0.050728,-0.036164,-0.0075943,-0.067492,-0.30342,-0.051363
-0.01264,0.0085232,0.070515,-0.12648,-0.024222,0.1467,0.34059,0.027827
0.049379,-0.18867,0.063495,0.088032,0.006606,-0.052966,0.099254,0.064385
0.27842,0.16269,0.12592,0.11608,0.038301,0.04554,0.20151,0.15317
-0.081281,-0.057988,0.079787,-0.0025816,-0.0071371,0.013329,-0.26461,-0.094804
-0.083345,0.036398,-0.29319,-0.025394,0.010852,-0.03991,0.28849,-0.044922
0.0065512,-0.088223,0.021677,-0.077387,-0.032981,-0.028522,-0.66939,-0.055012
-0.054794,-0.20669,0.16278,-0.010532,0.0015942,0.085716,0.16688,0.071207
-0.0034388,0.025164,-0.084084,-0.0052224,-0.010897,0.14534,0.20327,0.076096
0.057082,0.10176,0.074204,0.062651,-0.00062814,-0.19472,0.032451,-0.02538
0.031139,0.026751,-0.022316,0.074969,0.071035,-0.037099,0.011903,0.031039
-0.043672,0.11703,-0.056363,-0.062838,-0.054027,0.031657,0.12344,-0.0064134
-0.066632,-0.091841,0.11085,0.047107,0.014675,-0.05089,-0.26865,0.0089149
0.087121,-0.010442,-0.16941,-0.19694,-0.058732,-0.049672,0.41107,-0.13532
-0.074111,0.058581,-0.036428,0.08025,0.038516,0.13022,-0.32364,-0.0023631
-0.041593,-0.095438,0.15319,0.074629,0.033423,0.013587,-0.02011,0.02504
0.060745,0.025975,-0.18276,-0.10353,-0.034387,-0.062388,-0.16139,-0.10701
0.038509,-0.0099435,0.045686,0.09363,0.01538,0.18445,0.22444,0.28244
-0.037462,0.22239,0.13899,0.06546,0.0036093,-0.22203,-0.13142,-0.22702
0.22347,-0.0080433,0.17776,-0.054566,-0.053614,0.10872,0.19057,0.19404
-0.21043,-0.20527,-0.5402,-0.039554,0.054924,-0.0034759,0.13329,0.046533
0.042877,-0.059744,0.35935,0.040146,0.02458,-0.074953,-0.53337,-0.19253
-0.040904,0.036527,0.24911,-0.25336,-0.097981,0.034102,0.0053839,-0.054431
-0.032746,-0.13491,-0.24144,0.24331,0.061793,-0.020814,0.47569,0.11674
-0.12825,0.13083,-0.17845,0.099533,0.034519,-0.029376,-0.32898,-0.10144
0.30553,0.024016,0.11457,-0.11536,-0.03209,0.1564,0.81182,0.37644
-0.13713,-0.10071,0.40901,0.16803,0.064401,-0.12784,-0.65689,-0.23126
-0.088251,0.42354,-0.61586,-0.26966,-0.082789,-0.069802,-0.20483,-0.24502
0.16394,-0.17454,-0.052539,0.079244,0.0026477,0.18975,0.55849,0.022724
-0.098563,-0.18277,0.21878,-0.034869,0.00047807,-0.1618,-0.39599,0.033104
0.06225,0.10242,-0.079821,0.02954,-0.042016,0.18798,0.0076606,0.21598
-0.04093,-0.084737,-0.04676,-0.046601,0.0008157,-0.19061,0.0056146,0.079163
0.052693,0.044408,0.42947,0.06613,0.059424,0.085336,-0.037187,-0.026045
-0.094808,-0.057428,-0.041244,-0.037453,0.072033,0.03958,-0.37797,-0.12353
-0.070014,0.031373,-0.22579,0.065113,-0.062353,-0.053894,0.23518,-0.12004
0.14195,0.13105,0.060563,0.06133,0.015977,-0.022419,0.28809,0.10909
0.14975,-0.2193,0.095485,0.044399,-0.036638,-0.013455,0.14731,0.079427
-0.2269,0.16778,-0.14798,-0.010032,0.021863,0.044342,-0.011462,-0.25565
0.082032,-0.24709,-0.18804,-0.18893,-0.11351,-0.13718,-0.063173,0.088678
-0.10306,0.19163,0.37278,-0.19634,0.056777,0.26287,-0.0034598,0.065945
0.085491,0.037412,-0.40984,0.16243,0.039978,-0.17729,-0.17426,0.035709
-0.0077237,0.27301,0.45128,0.19953,0.030738,-0.04409,0.050015,0.036815
-0.10042,-0.31429,-0.32094,0.00075842,0.075234,0.21611,-0.048657,0.068632
0.042834,0.055166,-0.23743,0.0036075,-0.077176,-0.09347,-0.17918,-0.010354
0.094743,-0.10406,0.51853,-0.17474,-0.051965,0.056755,0.45938,-0.10726
0.05578,-0.23754,-0.44871,0.012583,-0.036824,-0.12381,-0.6657,-0.081989
-0.074047,0.3194,0.25988,0.096809,0.030895,-0.058188,0.16494,-0.01258
0.0017101,-0.041271,0.408,0.0467,0.081353,0.11247,0.58627,0.1252
-0.10833,0.21347,-0.21173,-0.22362,-0.10349,-0.11168,-0.38299,-0.096939
0.094903,-0.29733,-0.33955,0.043812,-0.038479,0.012312,0.36993,-0.091283
-0.02234,0.13887,0.19005,0.20859,0.13649,0.18883,-0.096979,0.26891
0.023502,-0.10969,0.23867,0.067944,0.031315,-0.04939,-0.38233,-0.11655
-0.018165,0.027729,-0.39262,-0.16672,-0.056907,0.0023337,-0.05403,0.073297
0.0007566,0.12113,0.12342,-0.11977,-0.011021,-0.11555,0.077189,-0.036705
0.0020576,-0.080372,-0.36729,-0.024824,-0.026578,-0.066031,-0.06591,-0.088158
-0.021945,-0.03898,0.20264,0.12673,0.013278,0.1203,0.24307,-0.0045349
0.054026,0.12677,0.14469,0.030896,-0.0011548,0.0060483,0.27621,0.25129
-0.082172,0.048603,0.20851,0.024061,-0.038873,0.0048337,-0.25793,-0.27576
0.077634,-0.15682,-0.02864,-0.049989,0.017166,-0.0093403,0.051623,0.06896
-0.067794,-0.06738,-0.30369,0.089572,0.096592,0.048058,-0.12644,-0.059362
0.067756,0.060101,0.065867,-0.21436,-0.12092,-0.027703,-0.060329,0.049886
0.070461,-0.069678,0.033171,0.12298,0.052115,-0.019407,-0.20452,0.10025
-0.075044,-0.0096414,0.040803,0.053388,0.045337,0.056134,0.66782,-0.04783
-0.016873,0.061987,0.12284,0.01312,-0.055411,-0.082952,-0.29293,-0.025601
-0.10618,0.14591,0.39784,-0.069133,-0.0080709,-0.10068,-0.47391,-0.16722
0.0012372,-0.031655,-0.68792,0.0091958,0.038782,0.13645,0.41831,0.2478
0.14954,-0.0034595,-0.086006,-0.040981,-0.024341,-0.018861,-0.057011,-0.11508
0.0030087,0.079664,0.1207,-0.070716,-0.025625,-0.073081,-0.25539,-0.02066
-0.094693,-0.30858,-0.023714,0.10844,0.0115,-0.017173,0.27083,0.054594
0.051277,0.18842,0.19889,0.052385,0.040239,0.22786,0.29535,0.11784
-0.020842,0.021763,0.11797,-0.026683,-0.0095766,-0.056367,-0.05102,-0.13691
0.078508,-0.036021,0.025465,-0.096402,-0.051808,0.036307,-0.2098,0.05427
-0.0033408,0.031223,-0.29342,0.15655,0.085665,-0.025803,-0.030148,0.025536
-0.087611,-0.12613,-0.021705,-0.11894,-0.057817,-0.22762,-0.29143,-0.19343
0.036152,0.026261,0.22006,0.030323,0.010228,0.039782,0.30547,0.13847
-0.022583,-0.015716,-0.2673,0.065034,0.0010234,0.026115,0.14675,0.059846
-0.052171,-0.12337,0.23791,0.0003153,0.0085621,0.035964,-0.36407,-0.26509
0.042351,0.30005,-0.14548,-0.20356,-0.09201,0.12397,0.43633,0.25026
0.0046561,0.037505,0.12952,-0.023919,0.074306,-0.053728,-0.41165,-0.010309
-0.062247,-0.11395,0.069378,0.22593,-0.016114,-0.059912,0.009257,-0.11606
0.092728,0.016192,-0.070607,0.10768,0.12854,0.1128,0.78975,0.13709
0.040363,0.026894,0.065718,-0.090374,-0.023494,0.0029909,-0.71286,-0.023558
-0.024292,0.0086395,-0.14219,-0.15008,-0.15248,-0.18662,-0.53938,-0.08188
0.030623,-0.12,0.13868,0.045375,0.077019,0.10634,0.65957,0.071806
-0.030705,-0.057124,-0.42192,-0.066535,-0.061882,-0.055427,-0.11939,0.062721
-0.061451,0.00013787,0.19831,0.037938,0.047918,0.047445,0.32169,-0.1792
0.0072548,0.043258,0.2101,0.12503,0.01596,-0.021636,0.061403,0.088552
0.049451,0.07259,-0.16734,0.023714,-0.0011421,0.02746,-0.2847,-0.078893
-0.021089,0.097146,0.08246,-0.13227,0.020535,0.0082692,0.10815,-0.024832
-0.0086189,-0.10009,-0.016094,0.087719,-0.020061,-0.10963,-0.12383,0.20421
-0.091775,-0.079664,0.28803,-0.12016,-0.059988,0.28359,-0.21205,-0.10257
0.043374,0.097809,-0.29309,0.018183,0.049488,-0.2417,0.13574,0.023352
0.085813,0.012055,0.085768,-0.012527,0.0194,-0.014024,-0.22522,0.06577
-0.01794,-0.11702,0.035932,0.13143,-0.017568,0.098672,0.44377,-0.16372
-0.0094279,-0.030981,-0.27602,-0.0035483,0.031994,-0.0061789,0.030536,-0.010005
-0.0059064,0.1765,-0.11281,-0.066759,-0.019914,0.068739,0.03298,0.10383
0.0074696,0.083119,0.32523,-0.074996,-0.064486,-0.18548,-0.37048,0.012573
0.021557,-0.17129,-0.46758,0.11109,0.077422,0.066128,0.42934,0.043372
0.066011,-0.033052,0.67354,0.11534,0.0069665,-0.059971,-0.42583,-0.077858
-0.055991,-0.034443,-0.14311,-0.22714,-0.033856,0.068561,0.035403,-0.20293
-0.087712,0.10487,-0.014318,0.083341,0.0019068,0.13123,0.37188,0.35584
-0.0061073,0.063878,0.28192,-0.0076021,0.013045,0.16722,-0.043795,-0.16653
-0.021719,-0.040742,-0.37694,-0.0069235,-0.015492,-0.45589,-0.70542,0.14501
0.085315,-0.20933,-0.22258,-0.16335,-0.090816,0.012609,0.55729,-0.22396
-0.027157,0.096898,0.18641,0.14953,0.03776,0.065779,-0.25815,-0.069026
-0.0058131,0.033844,0.051168,0.1127,0.11296,0.024902,0.078418,0.095307
0.064982,0.1479,-0.22176,0.0082978,0.025681,0.38305,0.83377,0.2151
-0.055862,-0.045952,0.37787,-0.085192,-0.036601,-0.32784,-0.92341,-0.092224
0.046156,0.029721,-0.31781,0.019514,-0.042932,0.048888,0.24793,-0.05361
0.027026,-0.16472,0.14923,-0.15483,-0.079714,-0.095967,-0.23667,0.0019133
-0.035995,0.042393,-0.23961,0.13298,0.079098,0.026628,0.41994,-0.14567
-0.042629,0.049805,0.50406,0.06937,0.011168,0.080565,0.053909,0.29133
-0.041206,-0.094651,-0.14844,-0.05759,-0.018209,-0.098513,-0.5367,-0.21172
0.068455,0.040263,-0.126,-0.068947,-0.0092027,-0.1126,0.2763,0.15695
0.0040071,0.034643,0.039194,0.0036556,0.014733,0.15491,0.037783,-0.063701
-0.0086594,0.046859,-0.28808,0.019576,-0.0087918,0.25798,0.19404,-0.021393
0.02247,-0.13208,0.45911,0.072882,0.029792,-0.2182,-0.57149,-0.19906
-0.027279,-0.024119,-0.07463,-0.023359,0.0057247,0.022636,0.33316,0.17872
0.0069137,0.19963,-0.27575,-0.10439,-0.049498,0.003657,-0.12381,0.059517
-0.05358,0.0078785,0.22776,0.10392,0.012788,-0.10301,0.049453,-0.14838
0.026798,-0.10801,-0.13639,0.039667,0.020884,-0.18719,0.28902,0.11901
-0.0008507,0.014587,-0.048655,0.031364,0.021766,0.268,-0.21325,0.049789
0.028368,-0.01676,-0.094577,-0.38179,-0.133,-0.18136,-0.11201,-0.028351
0.052367,-0.01641,0.28976,0.24539,0.10332,0.2394,0.32576,-0.0074522
-0.030491,0.060854,0.37215,0.26405,0.035193,0.070031,-0.44308,-0.030317
-0.048861,-0.090925,-0.68856,-0.217,-0.0096234,-0.11915,0.36447,-0.052658
-0.0036189,-0.0037982,0.29008,0.10627,-0.00027229,-0.024201,-0.039899,0.016687
0.033874,0.040631,-0.18931,-0.15731,-0.01524,-0.1386,-0.022297,0.10522
0.031349,-0.0045073,-0.10898,-0.094023,-0.046956,0.17667,0.25583,-0.038539
-0.019807,0.071966,0.25901,0.16329,0.037342,-0.056528,-0.37216,-0.063566
0.051849,0.0047992,0.10243,-0.080457,-0.020002,0.1605,0.13342,0.1243
-0.19898,-0.088368,-0.14209,-0.059263,-0.085838,-0.38396,-0.78606,-0.29398
0.079701,0.058611,0.031257,0.22724,0.1684,0.25525,0.54763,0.15999
0.013647,0.0010529,0.10407,-0.048823,-0.030292,0.047313,0.25152,-0.043021
0.088109,0.0053556,0.15927,-0.0046111,-0.025287,-0.20216,-0.18271,0.16907
-0.055494,-0.099434,-0.46986,-0.030858,-0.019489,0.17212,0.38319,-0.12446
0.013061,0.023644,-0.089711,-0.1121,-0.020641,-0.094219,-0.40772,0.108
-0.018564,0.0084065,0.26029,0.064075,0.025873,0.085886,0.037194,0.092566
0.11503,-0.042754,0.30001,0.029027,0.026139,0.041374,0.47912,-0.10934
-0.19608,0.19877,-0.022798,0.05652,0.0112,-0.063259,-0.38574,-0.12406
0.070804,-0.10293,-0.70476,-0.11855,-0.02694,-0.024833,0.30173,0.0081153
0.0086616,-0.034264,0.3203,0.0044042,-0.025903,-0.077977,-0.79433,-0.026146
0.023107,0.044477,0.047812,0.043109,0.022095,0.065891,0.30443,0.038525
0.10597,-0.047579,-0.027941,-0.088079,-0.070401,0.031174,0.42285,0.1634
-0.16463,0.032061,0.42156,0.1264,0.024814,0.051628,-0.30634,-0.13511
0.0086037,0.040095,-0.26147,0.053275,0.073417,-0.037354,0.22927,0.058143
-0.084494,-0.094574,0.0056127,-0.01921,0.028505,-0.02522,-0.41011,-0.13854
0.13522,0.026147,0.015258,0.072023,-0.0084795,0.15036,-0.17059,0.064882
0.028188,-0.050748,-0.1435,-0.30677,-0.03773,-0.38554,0.25973,0.17687
0.032868,0.11275,0.27532,0.17971,-0.059459,0.19541,0.33236,-0.22418
-0.12354,-0.068523,-0.19954,-0.015625,0.012101,-0.0049401,0.22331,0.15064
0.043578,-0.02344,-0.2873,-0.080025,0.01279,0.029188,-0.58146,-0.066289
-0.020709,0.069025,0.16217,0.0027591,-0.018348,0.15709,0.44831,0.0071868
-0.020198,-0.032857,0.22269,0.15541,0.098411,-0.074703,-0.36229,-0.0045979
0.12221,0.069485,-0.398,-0.058809,-0.035309,0.059798,0.38096,0.054043
-0.063486,-0.038179,0.35964,-0.006507,-0.013187,-0.31502,-0.7327,-0.12195
0.0073758,-0.0046671,0.13262,0.093833,0.016426,0.16757,0.32402,0.02974
-0.06476,-0.033572,-0.2637,-0.1875,-0.07916,0.12458,0.14974,-0.084679
0.055274,-0.0003106,0.32805,0.11799,0.043976,-0.31098,-0.31189,0.026953
0.062503,0.0010928,-0.13183,0.041219,0.034493,0.29895,0.61835,0.29422
-0.13658,-0.03727,-0.3174,-0.12126,-0.037045,-0.013536,-0.2934,-0.14249
0.013452,0.064341,-0.020993,-0.1197,-0.029773,-0.12249,-0.13176,-0.033463
0.01369,-0.022071,0.042486,0.19423,0.064292,0.098023,0.40971,0.058592
-0.0096219,0.0082932,0.30637,0.023618,-0.036034,-0.12465,-0.49507,-0.12409
0.10093,0.038272,0.04013,0.048134,0.051989,0.030289,-0.2191,-0.049838
-0.0053371,-0.018162,-0.040841,-0.13849,-0.023407,0.0004579,0.29396,0.086884
-0.046716,-0.0049383,-0.16545,-0.0050388,-0.035969,0.11368,0.1232,-0.11907
-0.015399,-0.062888,-0.26438,0.018715,0.0061278,-0.036961,0.096804,0.091214
0.010075,0.050038,0.28798,0.026447,0.00095858,-0.022742,0.19824,0.015442
0.00556,0.013555,0.2048,0.049354,0.041969,0.1006,-0.089764,0.13823
-0.01416,-0.0080064,-0.13523,-0.084441,-0.05855,-0.26943,-0.77704,-0.15806
0.028228,0.04841,-0.19605,0.15639,0.10557,0.22588,0.56424,0.15667
-0.00072795,-0.058549,0.223,-0.16547,-0.12187,-0.16371,0.034405,-0.1301
-0.038894,0.015912,-0.24005,-0.057566,0.0092893,0.17136,0.24247,0.097115
-0.016007,-0.12554,-0.14334,0.011686,0.0071357,-0.20588,-0.58439,-0.17092
0.013502,0.080582,0.22681,0.15979,0.075097,0.16629,0.19582,0.018108
0.057932,0.056732,0.28509,0.0041392,-0.0052766,0.069917,0.10059,0.078231
-0.01491,-0.087719,-0.17333,-0.06457,-0.054044,-0.15059,-0.29794,-0.021003
-0.040336,0.099605,0.37892,0.031667,-0.024155,0.036417,0.6344,-0.01252
-0.002196,-0.039045,-0.71984,-0.16055,0.037602,-0.10341,-0.55501,-0.011705
0.037341,0.095812,0.35246,0.13185,0.021846,0.12488,0.22711,0.069159
0.015859,0.079952,0.035424,0.017803,-0.0011989,0.064358,0.39352,-0.1123
