0.0028255,-0.018247,-0.35987,-0.057221,-0.018699,-0.014303,-0.090538,-0.024359
0.0086944,0.028563,0.12213,-0.0010788,-0.013061,0.021915,-0.004823,-0.0013353
-0.017081,-0.02466,0.2499,-0.014919,0.0082894,0.003468,-0.04434,0.0061369
0.0039586,0.017319,-0.01416,0.050586,0.030045,0.040201,0.12065,0.0138
-0.021546,0.052463,-0.021375,-0.0070503,0.013326,-0.03938,0.030679,0.0061245
0.0083543,0.048759,-0.0072694,-0.023485,-0.018409,0.007126,-0.0085999,-0.0090279
0.031471,-0.025901,-0.25544,0.07929,0.0050298,2.8346e-05,-0.035988,-0.008227
-0.014528,-0.078456,0.0044117,-0.089832,-0.0025008,0.032859,0.080801,0.0084594
-0.020288,0.039241,0.21418,0.03091,-0.017779,-0.035401,-0.034447,-0.0059627
0.04521,-0.12568,0.23014,-0.0046533,-0.0018991,-0.0021264,-0.031816,-0.0047703
-0.037202,0.02911,-0.46559,-0.033274,-0.025226,-0.00064384,0.055694,0.019687
0.020972,0.043792,0.37606,0.053791,0.029478,-0.0079546,-0.12499,0.0047656
-0.015277,0.013238,-0.27555,0.068695,0.021714,0.04597,0.018866,-0.0027629
-0.005941,-0.0070957,-0.13694,-0.16826,-0.024943,-0.034254,0.049418,-0.034192
-0.021839,0.021943,0.36579,0.0072816,-0.0010256,0.00154,-0.07209,0.0042469
0.030467,-0.048851,-0.27862,-0.0056823,-0.015912,-0.0025018,0.061434,-0.0045642
0.018124,0.24767,-0.2063,0.11384,0.024033,0.0010763,0.037106,0.017594
0.050788,-0.1688,0.82089,0.061856,0.056098,0.0051412,0.004649,0.031749
0.011898,0.097845,-0.41344,0.042108,0.0097224,0.0025438,-0.026936,-0.016717
-0.15229,-0.39184,-0.60416,-0.28085,-0.084055,0.0016084,-0.033255,-0.026196
0.0047044,0.26734,0.94235,0.11676,-0.03783,-0.044316,0.056657,0.042414
-0.031532,0.020925,-0.9573,-0.11644,2.4997e-05,-0.018218,0.00095867,-0.021762
0.099403,0.065949,1.0042,0.22273,0.068798,0.0089443,-0.044029,0.0079518
-0.00033063,0.085234,-0.16337,0.079415,0.043827,0.1767,0.093413,-0.055774
0.028617,-0.30758,-0.090624,-0.19515,-0.051085,-0.063279,-0.13394,0.0060203
0.06835,0.032959,-0.26614,-0.10151,-0.067192,-0.087555,-0.10944,0.037294
-0.06212,-0.083791,-0.18415,0.13308,0.050367,-0.022545,0.088014,0.014756
-0.020698,0.16608,0.25741,-0.015671,0.03596,0.0058188,0.074614,0.0087477
-0.027816,-0.16107,-0.66512,0.060675,0.030012,0.0755,0.11476,-0.043348
0.0089137,0.20732,0.87312,0.0017925,-0.045961,-0.0079902,0.1134,0.030085
-0.075339,-0.021443,-0.69297,-0.12285,-0.028347,-0.070866,-0.11035,-0.013504
0.09441,0.41213,0.81333,0.16271,-0.026978,0.11639,-0.26818,0.028612
0.011093,-0.023137,0.075518,-0.22762,0.028084,0.041928,-0.016475,-0.015797
0.027631,-0.46033,0.03368,0.41751,0.08193,-0.063452,0.082885,-0.029785
-0.096442,-0.21897,-0.34961,-0.21332,-0.029522,-0.13316,0.085879,-0.0056251
-0.039072,0.086801,-0.026179,-0.29809,-0.032634,-0.41395,0.048916,0.017701
-0.0019749,-0.013432,-0.22118,0.15754,-0.052001,0.26765,-0.026174,0.0091592
0.031228,0.31788,-0.65954,0.038677,-0.0089456,0.53593,0.034114,-0.015334
0.12293,0.038448,0.5664,0.0035452,0.081518,-0.19847,-0.034658,0.046074
0.10807,-0.048077,-0.17597,0.13147,0.032442,0.16782,-0.067812,-0.032964
-0.10881,-0.050893,0.86921,-0.09313,-0.11672,-0.30279,0.028407,-0.017985
-0.053186,-0.39162,-0.55287,-0.07777,0.087281,-0.095522,0.026885,0.020627
-0.062947,0.34301,0.97216,0.11253,-0.011933,0.49263,-0.034326,-0.026736
0.0089596,-0.14667,-0.49457,0.021236,-0.024138,-0.27856,0.015326,0.019257
0.029191,0.20412,-0.68081,0.058644,0.1126,-0.35701,-0.067812,0.0019385
-0.15807,0.035224,0.89108,-0.14583,-0.20391,0.26622,0.16799,0.069362
0.23752,0.17893,-0.75806,0.28049,0.15857,-0.45888,-0.083094,-0.044328
-0.03217,-0.15966,-0.51636,-0.31157,-0.042564,0.35795,0.1705,0.0046484
-0.058858,-0.33904,0.029833,-0.20987,-0.03406,0.10835,-0.2509,-0.048964
-0.043818,0.44651,0.65697,0.080756,-0.050269,0.019767,0.13778,-0.024759
0.13927,-0.15217,0.048922,0.080283,-0.012868,0.31814,-0.24805,0.031377
-0.11839,-0.013199,0.27086,0.22334,0.12532,-0.4606,-0.0083123,-0.082592
0.12829,-0.4183,-0.20962,0.20994,0.098994,0.27911,0.19453,0.048372
-0.098191,0.017433,-0.66457,-0.65152,-0.20872,-0.11211,-0.14629,0.13585
0.13818,0.42296,1.0658,0.59422,0.27282,-0.098335,0.37567,0.015952
-0.29712,-0.1187,-0.17615,-0.3103,-0.38575,0.089419,-0.17012,-0.030448
0.10203,0.25654,-0.082177,-0.061845,0.12848,0.0087006,0.17558,-0.035422
0.33427,0.091414,-0.10254,0.14129,0.17531,-0.57174,-0.20656,-0.20323
-0.47624,-0.54949,-0.21673,-0.095628,-0.36207,0.67231,-0.14669,0.058586
0.34992,0.26384,-0.29071,0.058667,0.31347,0.050563,0.14285,0.18628
-0.25716,0.163,0.36183,0.068262,-0.10281,-0.25111,-0.15866,-0.016564
0.062806,-0.049739,-0.075056,0.34315,0.20901,0.10278,-0.081896,-0.043008
0.18609,-0.43999,-0.53774,-0.5962,-0.048626,-0.14497,0.1948,0.0048618
-0.10462,0.25447,0.86819,0.037705,-0.24385,-0.016309,-0.0066093,-0.068389
-0.065797,-0.16502,-0.65,-0.26304,-0.065152,0.29559,0.0028538,0.065695
-0.16517,0.11878,0.32392,0.26058,0.095884,-0.2458,0.13037,-0.06086
0.19156,0.48611,0.78064,0.57947,0.16038,0.002769,0.20434,0.08434
0.16847,-0.35396,-0.80932,-0.15532,0.073183,0.12965,-0.24427,-0.028581
0.046276,0.28528,0.20775,-0.48785,-0.0095882,-0.34762,-0.18468,-0.17165
-0.10558,-0.45497,0.55265,0.39717,-0.20481,0.5409,0.13282,0.23451
-0.28812,-0.0021116,-1.1569,-0.41165,-0.08204,-0.39199,-0.31502,-0.098316
0.029017,-0.0084581,0.50208,0.24448,0.016132,0.14214,0.18349,0.0021092
0.17333,0.039134,0.21208,-0.093049,0.12236,-0.022249,0.25451,0.05119
0.050766,0.12329,-0.70077,0.23395,0.17557,0.17524,-0.038125,0.095077
0.028508,0.21088,0.5223,-0.10909,-0.1746,-0.34595,-0.15422,-0.17199
-0.16672,-0.41982,-0.47492,-0.35598,-0.028973,0.20081,0.08658,0.022228
0.098126,0.070074,0.56954,0.35998,0.050137,-0.022456,-0.057891,-0.010841
-0.051762,0.13413,-0.69226,-0.14245,-0.070493,-0.064021,0.052342,0.024922
0.055594,0.051356,0.90549,0.14971,0.037892,0.2084,0.017585,0.074521
-0.056367,-0.034549,0.3932,0.11581,0.077109,-0.236,-0.17949,-0.10407
0.073212,0.23706,-0.74824,0.10363,-0.0089935,0.12755,0.1701,0.075641
-0.032318,-0.22709,0.030482,-0.36692,-0.088979,0.043328,0.040983,-0.15118
0.13485,0.073852,-0.011072,0.014031,0.14862,-0.36896,-0.17795,0.075675
-0.21417,-0.20922,-0.026671,0.018664,-0.13263,0.11981,0.10575,-0.024441
-0.055556,-0.10267,-0.066663,-0.10269,-0.081013,0.38677,0.18047,0.14246
0.14254,0.43256,-0.3742,0.1908,0.069841,-0.22296,-0.28974,-0.017604
-0.11133,-0.55393,0.19292,-0.29338,-0.038243,0.14256,0.094281,0.018153
0.20698,0.11461,0.22427,0.33856,0.080484,-0.158,-0.017748,-0.0089817
-0.019162,0.26445,0.73253,0.17551,0.052281,-0.071497,-0.10072,-0.15459
-0.16444,-0.098524,-0.79265,-0.22562,-0.082895,0.29054,0.12837,0.11974
0.044575,0.030425,-0.26039,-0.30893,0.058147,-0.41018,0.022572,-0.2331
0.091924,0.40414,0.78663,0.60547,0.053383,0.035026,-0.034333,0.15431
-0.10892,-0.35172,-0.41399,-0.26425,-0.097757,0.28837,0.15327,0.13411
-0.011877,-0.20725,-0.3054,-0.18478,-0.060141,-0.026422,-0.24309,-0.066312
0.030598,0.17849,0.44948,0.16299,0.0091542,0.090107,0.096075,0.022605
0.24417,0.27077,-0.078899,-0.065746,0.2579,-0.33839,0.16194,-0.043768
-0.26259,-0.43383,-0.40716,-0.01241,-0.26743,0.040601,-0.17131,-0.11657
-0.037131,-0.094294,0.11883,-0.10731,-0.012268,0.064618,0.041304,0.109
0.060826,0.24086,0.26919,0.023944,-0.054636,0.23565,-0.059217,0.085886
0.031226,0.14144,0.070776,0.27892,0.18374,-0.31918,-0.05772,-0.10823
-0.10233,-0.27488,0.057552,-0.2421,-0.070532,0.16767,-0.030705,0.049507
0.16828,0.18828,0.30242,0.16228,0.1433,-0.099204,0.015805,-0.027476
-0.14096,-0.12401,-0.6601,0.029166,-0.1674,0.17786,0.15362,0.050927
0.21251,0.17217,-0.38777,0.1927,0.16861,-0.24326,0.024122,-0.1609
-0.20063,-0.19597,0.43877,-0.40292,-0.12271,0.28523,0.0098808,0.19639
0.010638,0.021623,0.39908,-0.13258,-0.096429,-0.11287,-0.015448,-0.15036
0.32339,0.40261,-0.057759,0.54436,0.33345,-0.16562,-0.0072533,0.072807
-0.51956,-0.37412,-0.55888,-0.79089,-0.50434,0.29737,-0.15588,-0.031881
0.16225,0.1516,0.60583,0.68625,0.20378,-0.20175,0.059143,0.090949
0.049263,-0.28635,-0.50928,-0.37101,0.052974,-0.11696,-0.10707,-0.050312
0.04055,0.12459,0.071593,0.1278,0.08374,-0.011164,0.15598,-0.10374
-0.027664,-0.0055156,0.4089,0.037706,-0.10901,0.46725,0.26908,0.1104
0.11788,0.10572,-0.50936,0.18079,0.069096,-0.49389,-0.36151,-0.040985
-0.1329,-0.071552,0.77861,-0.021301,-0.014764,0.309,0.15596,0.09774
0.13293,0.042103,-0.58878,-0.11772,0.091866,-0.31117,-0.23104,-0.16962
-0.22667,-0.17735,-0.47622,-0.37802,-0.19031,0.21619,-0.011763,0.11686
0.083777,0.22365,0.17077,0.31774,0.0044631,0.18025,0.090527,0.049938
0.26625,0.35436,0.67814,0.39379,0.22944,-0.32531,0.19627,-0.050847
-0.26584,-0.50446,0.42568,-0.42843,-0.18059,0.066585,-0.12146,-0.092129
-0.16877,-0.12696,-0.19842,-0.14518,-0.10917,0.20748,0.17055,0.12934
0.30808,0.29876,-0.51475,0.42078,0.19355,-0.019664,0.057686,0.05171
0.0018455,-0.079199,-0.4732,-0.074814,0.11863,-0.49722,-0.42087,-0.40985
-0.3594,-0.15145,-0.23024,-0.55228,-0.41903,0.43952,0.062306,0.28506
0.19467,0.058827,0.55412,0.22612,0.14425,-0.16182,0.029283,-0.0028774
0.25133,0.25515,0.16858,0.19479,0.23153,-0.050571,0.032802,0.00078279
-0.17293,-0.03873,0.044379,0.24976,-0.11706,0.38301,0.12511,0.22619
0.00029888,-0.18995,0.29268,-0.025428,0.013268,-0.25953,-0.0090975,-0.2096
-0.0027367,-0.15975,-0.44536,-0.14161,0.0056504,0.19329,0.056889,0.028663
0.18438,0.52775,0.25822,-0.0092335,0.10219,-0.29827,0.23433,0.010303
-0.40815,-0.4957,-0.2104,-0.9076,-0.2991,-0.15681,-0.57277,-0.31265
-0.047147,-0.004888,0.11822,0.54603,-0.066108,0.42177,0.079592,0.26977
0.32092,0.45962,-0.62468,0.45864,0.26906,-0.047176,0.13656,0.15537
0.16374,-0.14271,0.80771,0.38024,0.15075,-0.047914,-0.041447,-0.077989
-0.2305,-0.20367,-0.034041,-0.49257,-0.14856,-0.25179,0.10228,-0.14892
0.12979,0.24482,-0.076083,0.31713,0.065609,0.24832,0.062611,0.068098
-0.20879,-0.25818,-0.22845,-0.63531,-0.16821,-0.023092,-0.20439,-0.03554
-0.13671,-0.21195,-0.57988,-0.019452,-0.11577,-0.018118,0.11655,-0.021465
0.15126,0.2051,0.68841,0.09943,0.082599,-0.13446,-0.073876,-0.006101
0.077848,0.21337,0.46683,0.54219,0.044776,0.11247,0.10865,0.18289
0.39408,0.22075,-0.45463,-0.26545,0.4045,-0.17628,-0.085196,-0.1732
-0.58646,-0.52908,-0.1601,-0.64507,-0.5091,0.24023,0.063166,0.050171
0.10602,0.29318,-0.061275,0.59892,0.10178,0.33672,0.13884,0.22719
0.15993,0.0086792,0.094327,-0.025171,0.14415,-0.092103,0.023336,-0.16659
-0.13491,-0.4054,-0.12855,-0.47131,-0.10024,-0.62636,-0.52704,-0.27275
-0.08273,0.33265,0.42792,0.47586,-0.11553,0.13094,0.15021,0.19708
0.16036,0.090412,0.2566,0.30174,0.090395,0.085479,0.10045,0.055151
-0.054367,-0.12399,-1.01,-0.32419,0.0093238,0.21419,0.32225,0.0047936
0.19431,0.1272,0.60333,0.42092,0.17968,-0.15365,-0.24045,-0.070596
-0.094591,-0.25742,0.0088837,-0.22762,-0.03996,0.069551,-0.026409,-0.076444
-0.1487,0.011159,-0.17051,-0.32362,-0.22071,0.17467,0.28373,0.21469
0.093513,0.081038,-0.11649,-0.16169,0.12898,-0.27414,-0.36517,-0.1261
-0.017052,0.13896,0.70081,0.18477,-0.08501,0.036939,0.12875,0.089198
-0.035314,-0.13663,-0.18782,-0.19077,-0.050206,-0.070971,-0.14735,-0.14699
-0.062653,0.08069,-0.38329,0.19828,0.092989,0.30084,0.089874,0.12621
0.22172,0.14042,-0.60273,0.23068,0.21993,-0.32443,0.10882,-0.060273
-0.33788,-0.45176,0.42952,-0.37846,-0.34877,0.15408,-0.095222,0.0040635
0.2121,0.34914,0.45772,0.35083,0.08235,0.14165,0.019696,0.076549
0.21549,0.11993,-0.38416,-0.024959,0.2397,-0.23782,-0.020789,-0.093232
-0.24208,-0.30391,0.17684,-0.22469,-0.27557,0.053751,-0.23126,-0.052439
-0.051897,0.10942,0.6774,0.68731,0.020347,0.17184,0.47381,0.1363
0.16801,0.041186,-0.58962,-0.48716,0.22057,-0.32145,-0.20439,-0.10513
0.041883,-0.29528,-0.48848,-0.17293,-0.019068,0.08948,0.059003,0.028043
-0.21972,0.095039,0.39804,-0.22363,-0.16738,0.07678,-0.076026,-0.042192
0.1646,0.33213,0.16038,0.43833,0.026124,0.15655,0.089421,0.16861
-0.2653,-0.097344,-0.093026,-0.28725,-0.070337,-0.17063,0.012702,-0.019202
0.14813,-0.051371,-0.18831,0.21195,-0.0099663,-0.052645,-0.15996,-0.1447
0.062712,0.064089,0.1686,-0.10695,0.10733,0.17514,0.25077,0.057756
-0.020076,-0.24397,-0.12414,-0.067985,-0.0060037,-0.15076,-0.48783,-0.10705
-0.0054469,0.093021,-0.057475,0.20717,-0.013071,0.3453,0.19016,0.17355
0.067847,0.21325,0.28398,0.11087,0.078514,-0.53126,-0.023277,-0.10802
-0.13667,-0.33914,-0.41252,-0.38066,-0.11474,0.15782,0.071861,0.032894
0.082802,0.17535,-0.18168,0.13634,0.085386,0.13196,0.19038,0.0965
0.11502,0.098231,0.49979,0.32938,0.083174,-0.12412,-0.1186,-0.11239
0.082963,0.25618,0.41567,-0.0023893,0.032773,-0.18878,0.059094,-0.08599
-0.30422,-0.48402,-0.69425,-0.3101,-0.27075,0.38227,-0.091031,0.16771
0.0070529,0.0034335,0.35146,-0.15352,-0.0082596,0.079406,0.27106,0.015549
-0.077207,-0.05302,0.084192,-0.028339,0.0073787,-0.076423,-0.16394,-0.12107
0.17809,0.1071,0.3802,0.32192,0.11253,0.083942,0.068119,0.022915
-0.04588,0.12735,-0.036605,-0.10166,-0.0042546,-0.55912,-0.52863,-0.068708
0.12005,0.02603,-0.76418,0.14175,0.088076,0.28186,0.28592,0.17385
0.053011,0.023731,-0.75235,0.0026501,0.055006,0.2784,0.019323,0.0080311
-0.13569,-0.10537,0.32983,-0.34855,-0.15691,-0.30277,-0.0066271,-0.1288
-0.030493,-0.02578,0.51428,0.17294,-0.015491,0.056388,0.20302,0.060453
-0.14615,-0.051497,0.57002,-0.083026,-0.06704,0.14056,-0.090487,-0.017387
0.095596,0.080948,-0.53155,-0.15877,0.055833,-0.28855,-0.016417,-0.087934
0.2097,0.15828,-0.065202,0.42458,0.17332,0.12427,-0.024783,0.16252
-0.07084,-0.11837,-0.18714,-0.052091,-0.097791,0.03806,0.011783,-0.1632
0.041093,0.17177,0.61859,0.20508,0.062271,-0.10835,0.14159,0.037574
-0.10514,-0.30713,0.34515,-0.24652,-0.14397,0.2393,-0.19739,-0.0079155
-0.11319,-0.069283,-0.066575,-0.085062,-0.076441,0.19607,-0.060308,0.10665
0.22622,0.22375,-0.084611,0.2066,0.15507,-0.25713,0.059339,0.036873
-0.18159,-0.27657,-1.0281,-0.36111,-0.020018,0.016201,-0.14514,-0.070068
-0.016388,-0.20813,0.29491,0.013209,0.0074983,-0.17534,0.26121,-0.028371
0.33197,0.34477,-0.47348,0.062992,0.018775,0.048113,0.03341,-0.0038896
-0.45543,0.62422,0.62673,0.086418,-0.072194,0.10699,0.043769,0.13467
0.19351,-0.1609,0.24739,0.4381,0.1486,-0.23284,0.25895,-0.082366
0.022753,-0.12366,-0.11342,-0.41702,-0.076669,0.29604,-0.38459,-0.061358
-0.18504,-0.56556,-0.52769,-0.77178,-0.21674,-0.31919,-0.48802,-0.22346
0.37559,-0.084881,0.68085,0.79107,0.29095,0.18245,0.30983,0.20614
0.0014649,0.53351,0.23224,0.21847,-0.10816,0.10069,-0.058442,-0.0052086
-0.26135,-0.0092631,-0.46932,0.03361,-0.07023,0.039035,0.33242,0.16755
0.023208,-0.11184,0.72763,0.2579,0.16263,-0.0095759,0.0089272,-0.063471
0.03311,-0.19456,-0.87813,-0.77598,-0.12054,-0.092534,-0.003425,-0.041542
-0.11617,0.011022,0.32542,-0.06381,-0.029223,-0.023871,-0.12584,0.02213
0.21461,0.11005,-0.21893,0.26635,0.13955,-0.063533,0.078374,-0.05303
-0.1707,0.12966,-0.09572,0.040854,-0.12222,0.18466,0.13069,0.036403
0.21998,0.057563,-0.057041,0.25188,0.14631,-0.093707,-0.40122,-0.085896
-0.050107,-0.041051,-0.11684,-0.39566,-0.070413,-0.12645,0.073624,0.01647
-0.057539,0.070228,0.40855,0.12509,-0.084558,0.046964,0.099771,0.061598
-0.12035,0.08044,0.2266,0.20925,0.081022,0.098904,0.14443,0.088481
-0.017042,-0.35289,-0.43352,-0.38832,-0.151,0.022781,-0.10545,-0.074211
-0.018238,-0.22083,-0.07277,-0.053774,-0.006322,0.039088,0.022424,-0.081647
0.065976,0.09469,0.26418,0.17704,0.23455,-0.24864,-0.11129,-0.049567
0.13556,-0.06229,0.097959,0.11795,-0.060753,0.16148,0.042098,0.062635
-0.059164,0.36218,0.61658,0.22903,-0.017206,0.060072,0.00021268,0.068787
0.027644,0.29566,-0.33102,0.077638,0.0054173,-0.075365,-0.15706,-0.053739
0.21414,0.11744,-0.8739,-0.44236,0.03764,-0.096179,0.24334,-0.0080002
-0.10411,-0.34893,-0.04694,0.28875,0.016077,0.06736,0.02208,0.12712
-0.33639,-0.45212,0.31216,-0.5076,-0.26327,0.16396,0.077157,-0.048283
-0.00090979,0.23315,0.17315,0.14102,0.042619,-0.03472,-0.1237,0.018539
0.16614,-0.077584,-0.10835,0.10695,0.1285,-0.093166,0.19956,-0.041606
-0.054828,0.20009,0.7246,0.045436,0.048678,0.041533,-0.25863,-0.0507
0.031527,0.0038707,-0.80302,0.082016,0.021597,-0.022496,-0.11568,-0.017543
0.16023,-0.047357,0.062322,0.1872,0.047038,-0.11384,-0.066313,-0.012563
-0.03492,-0.044541,0.74754,0.012069,-0.070437,0.033491,0.046948,0.058756
-0.091978,0.21885,-0.83506,-0.58086,-0.11204,-0.071581,0.17086,-0.067744
-0.080368,-0.17554,-0.12419,0.12265,-0.014999,0.17404,0.048674,0.086344
0.039626,0.04897,0.36324,0.063145,0.0024544,0.021963,0.071235,-0.031821
0.17468,-0.16747,-0.43728,0.22742,0.19105,0.07511,-0.10617,0.032377
-0.15932,-0.002716,0.60365,0.038873,-0.10462,-0.14224,0.084693,-0.048316
0.10031,0.17699,0.39484,0.029218,-0.024377,-0.11426,-0.14813,0.085612
-0.085294,0.28577,-0.43037,-0.028617,0.080883,0.15084,0.16883,0.050784
-0.090792,-0.26299,-0.021786,-0.096813,-0.13217,-0.058782,-0.16242,-0.12264
0.13896,-0.16583,-0.67912,-0.28639,0.070958,0.091585,0.10648,-0.045402
0.12797,-0.033625,0.27354,0.24467,0.11976,0.006866,-0.15753,-0.0078901
-0.39666,-0.047665,0.33973,-0.23968,-0.22843,-0.13444,-0.10162,0.082579
0.1514,0.23575,-0.062957,0.14966,0.041261,0.057418,0.12053,0.061323
0.20191,0.025998,0.82716,0.56751,0.11546,0.14454,0.051359,0.037611
0.020175,-0.076893,-0.86807,-0.37807,0.079174,-0.24018,0.069472,-0.26943
-0.18364,-0.03525,-0.15844,-0.39913,-0.16998,-0.049402,0.037463,0.031575
0.011227,0.14201,0.2445,0.34732,0.0080473,0.13165,0.0045676,0.082137
0.048769,0.14178,-0.49441,0.16574,0.066185,0.038023,-0.03578,0.17215
0.037066,-0.153,0.56403,-0.0059057,0.090627,-0.087606,-0.09131,-0.11973
-0.032757,-0.35856,-0.75005,-0.56485,-0.18355,0.1846,-0.084856,-0.043334
-0.17698,0.081475,0.50247,0.14694,-0.13031,0.11234,-0.072866,0.096388
0.20585,-0.20578,0.67392,0.20191,0.1109,-0.11709,0.23145,0.017668
-0.016624,0.52392,0.59238,0.14119,0.15054,-0.27714,0.23973,-0.084786
0.07067,-0.071717,-0.71126,0.044603,0.051873,0.12479,-0.12059,-0.04739
-0.030783,0.19534,-0.67438,-0.15708,-0.028532,-0.16037,-0.15588,-0.081267
-0.23325,0.051201,-0.31909,0.091211,-0.10644,0.23598,-0.28889,0.22782
0.027649,-0.34903,-0.58024,-0.26539,-0.06514,0.049816,0.2539,-0.104
0.28491,-0.0067512,0.94407,0.25694,0.18849,-0.1002,-0.042227,-0.029144
-0.27268,-0.22774,0.28821,-0.29564,-0.18989,-0.025572,0.050741,-0.015604
0.15236,0.2297,0.64912,0.20118,0.064922,0.1333,0.12033,0.13255
0.044247,-0.0092324,-0.21608,0.082767,-0.00039076,-0.16327,-0.11341,-0.092167
0.058252,0.024942,-0.068094,0.2003,0.0047882,0.12235,0.045553,0.036804
-0.2369,-0.11218,-0.36437,-0.50892,-0.067898,0.050591,-0.0043169,-0.019981
0.22717,0.32236,-0.80465,0.0097371,0.22691,-0.2481,0.072286,-0.11475
-0.27026,-0.13977,0.86564,0.42813,-0.25931,0.34114,-0.053829,0.22821
0.1363,0.040579,-0.44845,-0.36319,0.12941,-0.25389,-0.094818,-0.046625
0.19563,0.28519,0.6603,0.55737,0.17388,0.19213,0.049791,0.005332
-0.37414,-0.5856,-0.89129,-0.86547,-0.29045,-0.43835,-0.25356,-0.28044
0.067614,0.25669,0.28318,0.28143,0.017184,0.19883,0.18232,0.11152
0.32606,-0.26533,0.81986,0.60622,0.20588,0.21416,0.27948,0.13445
-0.066674,-0.18982,-0.58372,-0.38467,-0.083757,-0.031461,-0.063041,-0.031629
-0.42206,0.40572,0.40105,-0.13779,-0.24993,-0.0050897,0.061966,0.043353
0.37815,0.12267,-0.87549,0.10384,0.26253,0.0058967,-0.35202,0.031685
-0.063566,0.21744,0.86537,0.18392,-0.077045,-0.028223,-0.084765,-0.081859
-0.090325,-0.3048,-0.73884,-0.38107,0.052241,-0.21553,0.05271,-0.031254
0.1185,-0.080504,0.62953,0.12162,-0.005411,0.10118,0.17097,-0.042632
-0.069922,0.18329,0.36748,0.0070632,-0.015356,0.06307,0.18464,0.10322
0.10972,0.053509,-0.63382,0.23904,0.12406,-0.048636,0.030954,-0.054191
-0.069629,-0.35475,-0.7076,-0.29703,-0.13407,0.11695,-0.40062,-0.084829
-0.092903,-0.018242,0.60384,-0.10725,-0.11794,-0.058671,0.14584,0.14427
-0.054393,0.15862,0.43101,0.21498,0.062979,0.055492,0.16027,0.070461
0.13919,-0.01584,-0.91626,-0.07388,0.072681,0.1605,0.077996,-0.072302
0.089014,0.096006,0.52621,0.53095,0.059464,-0.31592,-0.14167,-0.08941
-0.15835,-0.071005,0.016367,-0.30293,-0.094111,-0.00026396,-0.13225,0.026084
-0.025058,-0.16072,0.39432,-0.46316,-0.075976,0.012968,-0.15904,-0.062657
0.0043461,0.15826,0.043538,0.31928,0.04295,0.05981,0.091712,0.19826
0.3517,0.32489,0.23572,0.37734,0.28538,-0.069761,0.23122,-0.090182
-0.26404,-0.34882,-0.5392,-0.27419,-0.24782,0.31331,-0.11364,0.032727
-0.061037,0.13498,-0.89126,-0.33668,0.020983,-0.24214,0.050727,-0.07349
0.032054,-0.008237,0.94802,0.14724,0.013567,0.1878,0.30305,0.029219
-0.0067655,-0.11803,-0.38868,-0.44912,0.050679,-0.44182,-0.60704,-0.20514
-0.13673,0.044607,0.7208,0.44364,-0.28077,0.21424,0.26461,0.21667
0.20636,0.00098253,-0.4328,0.36318,0.18465,-0.046299,0.40074,0.022291
-0.26527,-0.18714,-0.52443,-0.35763,-0.15307,0.3157,-0.62212,0.0016619
0.37867,0.34807,0.61574,0.58808,0.33244,-0.10678,0.39024,0.085043
-0.049631,-0.36043,-0.81254,-0.47992,0.0014895,-0.088702,-0.12487,-0.12579
-0.074866,-0.052626,0.68384,-0.15059,-0.1456,-0.0070799,-0.16659,-0.10752
0.035348,0.38285,0.10836,0.20414,0.070566,-0.16096,0.001309,0.061335
-0.096351,-0.068445,0.78657,-0.061843,-0.19459,0.143,0.05322,0.067665
-0.058204,-0.015924,-0.85232,-0.11009,0.073447,-0.018508,0.077712,-0.089281
0.038578,-0.015613,0.12438,0.047179,0.0062496,0.2679,0.18635,0.1834
0.1226,-0.030821,-0.6418,-0.18684,0.087034,-0.34129,-0.18989,-0.24798
-0.10323,0.2559,0.60833,0.19407,-0.028921,0.13949,-0.082155,0.23297
-0.052344,-0.32996,0.27741,0.39282,-0.045448,0.063804,0.25065,0.016266
0.026488,-0.016733,-0.31325,-0.44911,-0.017638,-0.20639,-0.13877,-0.14057
0.23642,0.24987,-0.50875,0.35742,0.23411,-0.20743,0.1924,0.02822
