-0.040144,-0.057002,-0.02236,0.022236,-0.032891,-0.031755,-0.0065095,-0.019526
0.014498,0.0912,0.36877,0.013814,0.029998,0.022895,0.017225,0.0053633
-0.024714,-0.064333,-0.34344,-0.11709,-0.063365,-0.039784,-0.021773,-0.040279
0.0063078,0.0078462,-0.68318,0.028194,0.046363,0.038005,-0.006266,-0.016024
-0.0017563,0.0030564,0.67146,0.13707,-0.047077,-0.032772,-0.0064907,-9.007e-05
-0.0019573,-0.039853,-0.39286,-0.11902,0.015716,-0.0098631,0.0010739,0.023169
0.021404,0.027139,0.21539,-0.021993,0.03167,0.028697,0.0086834,0.0070014
0.044947,0.16441,0.43217,0.13821,0.032104,0.028314,0.031996,0.021907
-0.064103,-0.10521,-1.0258,-0.19403,-0.061035,-0.026558,-0.014934,-0.017843
-0.024488,-0.14943,0.56399,-0.058757,-0.021128,-0.018678,-0.014966,-0.018307
0.007532,0.047035,0.069957,0.16031,0.011226,0.0051051,0.00059126,0.005036
0.055358,0.12473,0.60709,0.079524,0.036009,0.021351,0.016067,0.013208
-0.0060715,-0.072419,-0.36114,0.080996,0.021889,-0.0090289,-0.01543,-0.0015953
-0.036225,-0.012776,-0.24849,-0.40605,-0.070338,-0.02358,-0.023559,-0.0081882
-0.019599,-0.055215,-0.66498,0.29795,0.02476,0.0088827,-0.0082675,-0.053583
0.043666,0.11327,0.59253,-0.056656,0.041349,0.033593,0.046129,0.080774
0.036242,0.071243,1.0652,0.3357,0.033934,0.011397,0.014663,0.011846
-0.057615,-0.13415,-0.88202,-0.58608,-0.099157,-0.049989,-0.016735,-0.01059
-0.011413,-0.049647,-0.13829,0.16418,-0.0063642,-0.017846,-0.016871,-0.025762
0.018603,0.090353,-0.65909,-0.1069,0.015552,0.013987,0.0063632,-0.018116
0.02471,0.074791,0.47022,-0.038268,0.013673,0.029805,0.0060181,0.0045878
-0.03198,-0.18245,-0.38124,0.42583,0.02731,0.0061045,-0.010131,-0.019986
0.020647,0.13091,0.91273,-0.034728,0.017642,0.020969,0.012627,0.041212
-0.035881,-0.11031,-0.10251,0.0090158,-0.046393,-0.042782,-0.027179,-0.045945
0.01746,0.03904,0.13762,-0.13185,0.022825,0.010243,0.0034115,0.070297
0.032461,0.16478,0.13048,-0.013687,0.0066016,-0.0072836,0.018634,-0.00058742
0.0014569,-0.076881,-0.81062,-0.091091,-0.0012988,-0.0091704,0.010838,0.0070208
-0.044265,-0.13119,0.33562,-0.15402,-0.047758,-0.026367,-0.012054,-0.03977
-0.018847,0.0020111,-0.21539,0.023922,-0.015609,0.011719,-0.0031342,-0.031688
0.054078,0.11203,0.17459,0.34159,0.063859,0.042771,-0.0015264,0.015556
0.010155,-0.043053,0.013728,-0.075261,0.0030626,0.0043095,0.00043099,0.0238
-0.010348,0.005752,0.8302,-0.14003,-0.010647,0.0055405,0.0025136,-0.014768
-0.039059,-0.0070863,-0.82692,0.053808,-0.024371,-0.024189,-0.0033603,-0.029831
0.040858,0.027707,-0.082765,0.14653,0.039727,0.016241,0.013782,0.064521
-0.075565,-0.13238,-0.065542,-0.26908,-0.04524,-0.029863,-0.016613,-0.028684
0.095871,0.20743,-0.36917,0.0711,0.032925,0.016842,0.01466,0.041942
-0.077694,-0.16444,0.14729,0.10289,-0.038509,-0.039112,-0.025268,-0.059764
0.12258,0.25138,0.47375,0.34042,0.09974,0.06016,0.043363,0.056602
-0.092135,-0.10809,-0.42876,-0.54535,-0.10693,-0.044423,-0.021426,-0.046614
0.005081,-0.14922,0.19791,0.28943,0.068309,0.030423,-0.016192,0.0055678
-0.014999,-0.035864,0.57238,-0.38841,-0.061571,-0.019439,-0.0030481,-0.0054582
-0.050308,-0.056497,0.39039,0.05626,-0.058492,-0.045039,-0.036295,-0.055946
0.09494,0.22714,0.24154,0.35308,0.1094,0.071213,0.056254,0.11235
-0.0085793,-0.035799,-0.89465,-0.11965,0.0051444,0.0013833,0.01695,-0.031347
-0.016938,-0.024543,-0.73042,-0.16375,-0.05062,-0.028028,-0.013602,-0.017828
0.054201,0.057847,0.24775,0.26177,0.075007,0.052985,0.026898,0.012628
-0.076662,0.046986,0.11712,-0.11598,-0.032229,-0.029503,-0.025954,-0.04917
0.0041217,-0.13582,-0.5829,0.022387,-0.044628,-0.033875,-0.024114,0.031146
0.014799,0.0088554,0.4363,-0.075398,-0.0018398,0.00026001,-0.0070087,0.03462
-0.021704,-0.027149,0.20138,-0.037563,-0.029509,-0.013459,0.0016642,-0.031308
0.081677,0.13908,0.44969,0.27292,0.12957,0.057545,0.033042,0.043817
-0.097223,-0.17935,0.094446,-0.092565,-0.079738,-0.036747,-0.030022,-0.045204
0.14462,0.33895,0.48798,0.2464,0.13138,0.078851,0.054826,0.037115
-0.13798,-0.41408,-1.0637,-0.76586,-0.2058,-0.11094,-0.063732,-0.061107
-0.022831,-0.1091,0.074822,0.23058,0.010604,0.011524,0.020827,0.011549
-0.025109,0.17645,-0.013347,0.042382,-0.0079317,-0.022044,-0.027196,-0.041762
0.043186,-0.026381,-0.24007,0.039609,0.059562,0.054388,0.026744,0.05255
0.12779,0.25769,0.70084,0.19413,0.11217,0.077031,0.049903,0.052508
0.096185,0.47167,-0.054821,0.38368,0.041047,-0.00088399,0.0031959,0.036438
-0.25468,-0.55138,-0.76654,-0.6399,-0.216,-0.12472,-0.066594,-0.10489
-0.018628,-0.14234,0.81838,0.29608,0.052088,0.0022216,-0.011144,-0.019821
-0.024006,-0.19374,-0.7691,-0.19918,-0.045426,-0.010917,-0.010241,-0.013032
0.13515,0.15341,0.25677,-0.26724,0.045901,0.054359,0.029806,0.079533
0.17726,0.36922,1.1154,0.80926,0.23977,0.15095,0.085547,0.093799
-0.24951,-0.40269,-0.81458,-0.75251,-0.31581,-0.21352,-0.10862,-0.17335
0.018699,0.021475,-0.5677,0.15525,0.074053,0.038972,0.025469,0.04379
0.013107,0.115,-0.28061,0.45305,0.049595,0.02559,0.011301,0.0031645
0.046342,0.2179,0.19628,-0.39151,-0.037933,-0.0036145,-0.0026565,0.017486
-0.021944,-0.07323,0.38305,-0.058942,0.029995,0.01396,0.0070382,-0.014565
-0.027353,-0.015156,0.95036,0.5126,0.04229,0.00029617,-0.0065289,0.016601
-0.094617,-0.49184,0.086548,-0.5993,-0.12616,-0.044544,-0.035639,-0.060769
0.096634,0.12614,-0.61845,-0.20003,0.03237,0.0044102,0.021115,0.050162
0.077387,0.16937,-0.53029,0.31875,0.080239,0.076694,0.046331,0.013227
-0.090477,0.31866,0.11062,-0.15389,-0.11553,-0.093591,-0.054,-0.015737
0.20152,0.41074,-0.050403,0.80185,0.24955,0.14164,0.079231,0.079922
-0.2195,-0.47448,-0.097565,-0.15214,-0.26221,-0.15549,-0.093264,-0.098787
0.15348,0.14371,0.28138,-0.18152,0.13039,0.10068,0.045575,0.080522
-0.04709,-0.57072,-0.2362,-0.24744,0.036838,0.027213,0.011387,-0.030775
-0.23499,-0.31696,0.57862,-0.49633,-0.25342,-0.18044,-0.094084,-0.17473
0.067329,0.17823,-0.14367,0.52168,0.18995,0.0953,0.065437,0.11006
0.18172,0.37012,0.072316,-0.022458,0.047515,0.058169,0.052907,0.089906
-0.085323,0.12066,-0.47082,0.153,-0.039161,-0.041104,-0.029601,-0.031275
-0.013361,0.063489,-0.48885,-0.42013,-0.11607,-0.045563,-0.040969,-0.018401
-0.023083,-0.34327,0.31367,-0.11785,0.044013,0.029713,0.0035823,-0.042866
0.081226,0.38504,0.67987,0.75892,0.081962,0.020921,0.0027366,0.043926
0.1428,0.21252,0.50331,-0.25108,0.1382,0.11547,0.073726,0.077706
-0.28504,-0.68991,-0.96039,-0.41829,-0.35829,-0.21052,-0.11176,-0.14518
0.16291,0.51024,0.9001,0.71722,0.19295,0.089104,0.055263,0.069834
-0.085878,-0.081534,-0.78183,-0.19978,0.0014995,-0.0099853,0.0039011,-0.0046674
0.16972,0.24364,-0.15305,0.30286,0.089431,0.077282,0.046003,0.06023
-0.11078,-0.4814,-0.69316,-0.48868,-0.083431,-0.063841,-0.029993,-0.06416
-0.11536,-0.46122,0.64625,-0.30029,-0.0020472,-0.01182,-0.029242,-0.042129
0.031524,0.28434,0.78603,0.053371,-0.0022055,0.014712,0.008994,0.040541
0.018881,0.12249,-0.26209,-0.010381,0.010824,0.024175,-0.008903,0.0046869
0.028611,0.32146,0.36937,0.47741,-0.023717,-0.037082,-0.0043447,-0.023886
-0.022727,-0.045216,-0.91012,-0.65959,-0.20514,-0.10525,-0.0313,-0.0051732
0.023437,-0.5227,-0.65853,0.21568,0.12515,0.055395,0.028254,0.02267
0.082891,0.44232,0.50319,0.37945,0.12539,0.078764,0.02666,0.036921
-0.054468,0.31318,0.38927,-0.55181,-0.047066,-0.0032728,-0.012086,-0.016706
0.064308,-0.15407,0.48191,0.58832,0.1234,0.074878,0.037231,0.025883
-0.03848,0.051027,-0.077492,0.60197,0.065196,6.1689e-06,0.010367,-0.015328
-0.18504,-0.23507,-0.035164,-0.60338,-0.2943,-0.17448,-0.077603,-0.10191
0.08321,-0.41864,-0.10212,0.04161,0.057524,0.026333,0.014688,0.038747
0.20127,0.6809,-0.093077,-0.11245,0.21125,0.14759,0.075353,0.10883
-0.16128,-0.42575,-0.74479,-0.90035,-0.33595,-0.17949,-0.10747,-0.10354
-0.076561,-0.4598,0.04356,0.43249,0.10136,0.028294,0.0045313,-0.013246
0.29027,0.85207,1.1178,0.64445,0.27999,0.19996,0.12964,0.15253
-0.25629,-0.1994,-0.57912,-0.55763,-0.26081,-0.15673,-0.099462,-0.11437
-0.012379,-0.15848,-0.31971,0.050384,0.042756,0.0056846,0.0049919,0.022006
0.039231,0.30572,0.64185,-0.057466,-0.088312,-0.061647,-0.025157,-0.070751
0.10394,-0.17949,-0.7749,0.3255,0.16913,0.12722,0.060946,0.053425
-0.10465,-0.026635,0.88181,0.48903,-0.095969,-0.074359,-0.024761,-0.0028788
-0.0057644,-0.13335,-0.37369,-0.51459,-0.02928,-0.016149,-0.039091,-0.027568
0.027918,0.31323,0.43332,0.33312,0.074432,0.037755,0.042247,0.035161
0.021473,-0.077117,-0.75485,-0.49738,-0.049277,-0.036594,-0.014541,0.037779
0.03815,0.14962,-0.012986,0.13675,0.084097,0.042475,0.017333,-0.050389
-0.094158,-0.43443,0.04324,0.0054695,0.012752,0.024696,0.012715,-0.010432
0.1859,0.087632,0.030517,-0.016456,0.10225,0.065415,0.033607,0.079283
-0.29541,-0.11647,0.68845,-0.2069,-0.25881,-0.14925,-0.076982,-0.078711
0.36587,-0.0037258,-0.018693,-0.16096,0.075961,0.058773,0.023851,0.053828
-0.25447,0.52302,-0.4795,0.035916,-0.043571,-0.015261,-0.0084637,-0.039639
-0.088228,-0.54203,-0.57522,0.10306,-0.0795,-0.060205,-0.033966,-0.055296
0.26928,0.66819,1.0323,0.86752,0.31139,0.18864,0.11878,0.15457
-0.2063,-0.88796,-0.67653,-0.50302,-0.26933,-0.21444,-0.14415,-0.18397
0.03167,0.55799,1.0702,0.13189,0.13968,0.090052,0.067908,0.085052
-0.0086487,0.030457,-0.82788,-0.42701,-0.039115,0.0089201,-0.0026254,0.0084631
0.12661,0.16242,-0.4995,-0.28035,-0.0082614,0.011778,0.011758,0.047316
-0.20224,-0.10029,-0.14187,0.75859,-0.071996,-0.095705,-0.037039,-0.063782
0.12294,-0.31018,0.57195,-0.10801,0.10586,0.054592,0.023161,-0.02765
0.11081,0.23295,-0.047565,-0.051758,0.10345,0.11184,0.067588,0.085748
0.043361,-0.32213,0.70614,-0.3043,-0.055862,-0.025059,-0.028591,-0.004465
-0.17245,-0.22973,-0.39343,-0.11757,-0.19253,-0.098121,-0.054308,-0.063521
0.10474,0.26609,-0.0060656,0.22075,0.091872,0.033218,0.0061916,0.01835
-0.20232,0.21931,-0.15392,-0.16006,-0.04628,-0.014072,0.0046155,-0.0084798
-0.092721,0.16019,-0.0093745,0.0040061,0.14332,0.040974,-0.066703,-0.018708
0.090605,-0.1482,-0.26844,0.30587,-0.12018,-0.075377,0.089208,0.026903
0.14499,-0.13269,0.061764,0.18177,0.054248,0.035037,-0.012036,0.0033482
0.023432,0.15217,0.35962,-0.41772,-0.044006,-0.034294,-0.0034135,-0.011467
0.092283,0.21204,0.14769,0.46398,0.077405,0.067933,0.028813,0.036732
0.068879,-0.28483,-0.17262,-0.54649,0.082544,0.083642,0.037338,0.053658
-0.048482,0.31377,-0.1807,0.53528,-0.028718,-0.010852,0.013908,0.023143
-0.35512,-0.44865,-0.1408,-0.58865,-0.28782,-0.1923,-0.15117,-0.18023
-0.0083155,-0.6365,-0.6753,0.040928,0.015967,-0.038908,-0.012702,-0.025386
0.15569,0.81257,0.53034,0.62504,0.34342,0.22282,0.085719,0.10496
0.012365,0.25939,0.53047,-0.9871,-0.19621,-0.070985,-0.0039731,-0.0075698
0.00021813,-0.2936,0.094417,0.44409,0.061015,-0.013743,-0.015639,0.0047106
0.16736,0.22657,0.78407,0.75934,0.13069,0.059026,0.059064,0.056411
-0.18036,-0.70924,-1.0379,-0.98227,-0.23716,-0.086574,-0.021609,-0.047322
0.19226,0.22019,-0.097474,0.30928,0.043606,0.034348,0.00043397,0.029755
-0.10498,0.45172,-0.1059,0.49748,-0.0032547,-0.03083,-0.030961,-0.040362
-0.11894,-0.13407,-0.3129,-0.45203,0.0054985,0.015207,0.024759,-0.038967
0.048523,0.50628,0.017887,-0.22876,0.0077738,0.00087631,-0.020102,0.049377
-0.024968,-0.26394,0.15626,0.30764,0.042871,0.020001,-0.0017602,-0.0021828
0.027143,-0.69816,0.61627,0.14321,0.016965,0.0020532,0.0013378,0.0013013
0.040099,-0.17354,-0.078488,-0.49179,-0.1173,-0.061314,-0.011149,-0.01871
-0.033685,0.7315,0.44077,0.025143,0.068901,0.024385,-0.01613,-0.015772
0.08639,-0.32516,-0.68237,0.35651,0.11347,0.07843,0.056368,0.056582
-0.014221,0.30031,-0.045096,0.032059,-0.086359,-0.033083,0.010732,-0.0051057
0.07836,0.21366,-0.48533,-0.29439,0.12466,0.079521,0.034247,0.041162
-0.16688,-0.27604,0.46487,0.044865,-0.13677,-0.053111,-0.029404,-0.046792
-0.16328,-0.78221,0.35197,0.30109,-0.19075,-0.19669,-0.12539,-0.10465
0.27778,0.59616,-0.6454,-0.23014,0.26063,0.19616,0.098206,0.11806
-0.1392,0.10988,0.18058,0.13501,-0.20283,-0.13132,-0.053364,-0.081108
-0.045711,0.3282,0.26099,-0.054318,0.061526,0.0097465,-0.0013324,0.0016712
0.21543,0.24051,0.0071273,0.10159,0.14948,0.11302,0.075213,0.093586
-0.05081,-0.40711,-0.49446,-0.23202,-0.12493,-0.046837,-0.034257,-0.023714
-0.094958,-0.77515,1.0186,0.28282,0.11405,0.062185,0.037564,0.024858
0.081648,0.57806,-0.3188,-0.33471,0.084942,0.065215,0.032652,-0.010936
-0.14015,-0.13122,-0.23944,-0.14169,-0.29942,-0.17105,-0.088549,-0.084738
0.073324,-0.044543,0.33829,-0.083934,-0.0097765,-0.061685,-0.037651,-0.017548
0.15739,0.51047,-0.64844,0.37872,0.23266,0.14204,0.075263,0.10397
0.11045,-0.13633,-0.1787,0.68605,0.18324,0.087226,0.038662,0.060441
-0.31814,-0.37303,0.055867,-0.98699,-0.27727,-0.13347,-0.061878,-0.13293
-0.0027962,0.67836,0.62712,0.62889,0.11556,0.10426,0.047033,0.070606
-0.074525,-0.57285,-0.33421,-0.64965,-0.3337,-0.19971,-0.10308,-0.063096
0.1257,-0.28024,-0.1875,0.40087,0.21194,0.11129,0.050836,0.0055394
-0.12548,0.081456,0.16071,0.027868,-0.1362,-0.1025,-0.03741,-0.035283
0.1827,0.27061,0.6686,-0.067839,0.16337,0.10526,0.062542,0.05735
-0.13522,-0.11232,-0.30351,-0.16995,-0.074489,-0.061346,-0.039457,-0.036314
0.25731,0.57836,-0.38474,-0.40673,0.19103,0.14048,0.086432,0.10583
-0.039083,0.13548,-0.23294,0.35753,-0.10179,-0.054821,-0.04439,-0.05546
-0.01892,-0.66422,0.30957,0.45149,0.031177,-0.0070559,-0.018417,-0.0051349
0.19746,0.15974,0.42001,0.060305,0.28413,0.21264,0.11672,0.10753
-0.61195,-0.51988,-0.34407,-0.35257,-0.57106,-0.38885,-0.19443,-0.20276
0.37831,0.5627,-0.050998,0.20516,0.33902,0.21116,0.10222,0.14136
-0.075425,-0.17585,-0.48703,-0.56476,-0.21333,-0.081373,-0.0091966,-0.032386
-0.32481,-0.40275,0.88445,0.60173,-0.14266,-0.15685,-0.1223,-0.1771
0.42045,0.61427,-0.2162,-0.33489,0.25434,0.21202,0.13062,0.18428
0.014074,-0.095791,0.3194,0.11938,0.072082,0.010697,0.000318,0.0056944
-0.088187,-0.013015,-0.67583,0.086707,0.0067809,-0.017524,-0.027947,-0.055591
0.01464,0.044455,0.43358,0.060013,-0.018855,-0.00452,0.015368,0.02483
-0.1129,-0.22054,-0.62629,-0.55022,-0.17611,-0.082565,-0.041029,-0.064782
0.24924,0.32225,0.068608,0.38815,0.26968,0.18589,0.11564,0.18381
-0.12507,0.07491,0.020366,-0.0064729,-0.18932,-0.12928,-0.077184,-0.10434
-0.056444,-0.076724,-0.22534,-0.20112,-0.014255,-0.013256,-0.026086,-0.046731
0.016672,-0.32454,0.68337,0.40652,0.036763,0.040776,0.0027499,0.020161
-0.086731,-0.030992,-0.24601,-0.14608,-0.052221,-0.046328,0.00084375,0.0019047
0.13184,0.0057205,0.7192,-0.25452,0.15599,0.099587,0.069083,0.038445
-0.071329,-0.19831,-0.20424,-0.005796,-0.16701,-0.1314,-0.074378,-0.073929
0.060192,0.39778,0.10129,0.36081,0.056654,0.057425,0.030951,0.039354
0.040856,0.28858,-0.20108,0.0013792,0.084541,0.0099921,-0.013631,0.026485
-0.14583,-0.30486,-0.24984,0.023318,-0.091396,-0.070091,-0.036311,-0.050113
0.10119,0.087768,-0.4109,0.30743,0.10678,0.1147,0.072403,0.036191
0.00055507,-0.11107,-0.056268,-0.45897,-0.12572,-0.06776,-0.015348,0.0043109
0.0056552,-0.089305,0.19431,-0.092993,0.086133,0.0706,0.021107,0.0029114
-0.10943,-0.027807,-0.43433,-0.32144,-0.14814,-0.12608,-0.099087,-0.061507
0.13278,0.22807,-0.1024,-0.37449,0.06234,0.092325,0.046323,0.07693
-0.016627,-0.14357,0.71894,0.93525,0.13974,0.046028,0.035768,-0.0034205
-0.17372,0.33264,0.34525,-0.030987,-0.15792,-0.10903,-0.028997,-0.075797
0.099988,-0.23437,0.81329,0.064539,0.052274,0.040779,0.031778,0.055272
0.18803,-0.19574,-0.55784,-0.37195,0.0827,0.057507,0.02272,0.02271
-0.12016,-0.058013,-0.64304,0.070396,-0.043486,-0.067052,-0.056316,-0.040618
-0.1293,0.024348,0.31066,0.25957,-0.147,-0.090973,-0.041444,-0.048787
0.097768,-0.26715,-0.58719,-0.041665,0.15455,0.11846,0.067181,0.068436
-0.0020432,0.70161,-0.3841,0.12975,-0.0063369,0.02227,0.0038503,0.021851
0.14872,0.23572,0.57609,0.29002,0.088965,0.050352,0.018565,0.037844
-0.13023,-0.36069,-0.16669,-0.90413,-0.1453,-0.10165,-0.06046,-0.086885
-0.058053,-0.22951,-0.27488,-0.19317,-0.1071,-0.058337,-0.014327,-0.00091468
-0.064589,0.041902,1.0894,0.22352,0.055871,0.024419,0.024313,-0.016818
0.037766,0.077617,0.3425,0.37546,0.055404,-0.0015041,-0.0069246,-0.0017873
0.13989,-0.091116,-0.19273,0.30213,0.11888,0.12969,0.063857,0.059841
-0.10948,-0.26787,-0.45735,-0.21323,-0.08903,-0.074195,-0.044692,-0.042818
0.055437,0.26813,-0.7725,-0.23789,0.057001,0.066355,0.034414,0.049647
0.072158,0.55064,0.27099,0.15363,-0.052396,-0.05049,-0.0037684,0.032572
-0.12197,-0.82428,-0.15582,-0.1364,-0.097155,-0.089051,-0.057899,-0.05494
0.16816,0.37927,0.44965,0.18494,0.10982,0.083346,0.035974,-0.0018496
-0.1826,-0.34631,0.10756,-0.26148,-0.11941,-0.095757,-0.050218,-0.07357
0.091439,0.48979,0.29109,0.61365,0.26161,0.16294,0.090008,0.097412
-0.24381,-0.22464,-0.83342,-0.88211,-0.27088,-0.1402,-0.089851,-0.097874
0.24963,0.53768,0.27935,0.23777,0.17353,0.11241,0.059067,0.12222
-0.099602,-0.43075,0.35734,0.59942,-0.077173,-0.086756,-0.025375,-0.046686
0.0057111,-0.17292,0.084349,-0.71135,-0.13249,-0.050146,-0.030487,-0.042025
0.10462,-0.066568,-0.27421,0.31167,0.13241,0.065711,0.028029,0.026622
0.016984,0.067013,0.13802,0.016925,0.029685,0.057042,0.040418,0.025921
-0.086222,-0.036969,0.36418,0.2593,-0.011493,-0.014621,-0.017419,-0.029303
0.051663,0.037901,-0.16834,-0.5526,0.0081888,0.013646,0.025563,0.039668
0.046667,0.021416,-0.73191,0.23167,0.14268,0.08607,0.035712,0.044342
-0.055226,0.47162,-0.32103,0.1301,-0.14771,-0.10281,-0.042311,-0.039544
-0.16066,-0.35868,0.55092,-0.072467,-0.12891,-0.14697,-0.099425,-0.071851
0.019651,-0.30366,-0.2352,0.18422,0.035178,0.024307,-0.0026569,-0.021365
0.072395,0.29347,0.74252,0.11918,0.095231,0.060501,0.037658,0.02642
0.029954,-0.036658,0.24193,-0.14738,0.021104,0.072451,0.038071,0.02548
0.14355,0.33736,-0.6605,-0.64907,-0.029589,0.038331,0.04651,0.055032
-0.17949,-0.32061,0.17909,-0.08199,-0.078916,-0.11074,-0.076695,-0.063473
0.10059,0.23783,0.010391,0.029803,0.030497,-0.014379,0.012877,0.014691
-0.15657,-0.76947,-0.20164,0.46546,0.010252,0.038713,0.01862,-0.02231
0.095757,0.28251,-0.63569,0.32931,0.11825,0.079508,0.034131,0.044536
-0.049131,0.07446,0.38673,0.19858,-0.10693,-0.033473,-0.011404,-0.0036573
0.23633,0.83483,1.1525,0.20166,0.14632,0.057934,0.0063137,0.043587
-0.017076,-0.39483,-0.32452,-0.30871,-0.013699,-0.038186,0.0084495,-0.025304
-0.24698,-0.47892,-0.098652,-0.45665,-0.15045,-0.11197,-0.09148,-0.054728
-0.13276,-0.22704,-0.47834,-0.23176,-0.1395,-0.078134,-0.035926,-0.045179
0.052859,0.34001,-0.024907,0.12177,0.073753,0.063207,0.034538,0.018724
0.26401,0.40398,-0.036589,-0.28487,0.12251,0.12492,0.081157,0.090144
0.064184,-0.096465,-0.43211,0.42046,0.12466,0.053008,0.026249,0.013105
-0.24123,-0.44266,0.06775,-0.13058,-0.17687,-0.12826,-0.059437,-0.094793
-0.081776,-0.13609,0.031273,-0.017565,-0.078449,0.0037547,-0.0037049,-0.014374
0.18264,0.56259,0.74269,0.3731,0.0763,0.0042648,-0.0095483,0.043738
0.027393,0.047788,0.40307,0.23753,0.060424,-0.040568,0.0010877,0.009335
0.11488,-0.0055883,-0.42539,-0.1146,0.06058,0.11134,0.059216,0.054134
-0.095813,-0.24315,0.31385,0.1938,0.013152,0.029915,0.0082515,-0.0019584
-0.12978,-0.27884,-0.2484,-0.47714,-0.059527,-0.066629,-0.066214,-0.050148
-0.035052,0.18057,-0.60758,-0.079125,-0.0019812,0.00084328,-0.016024,-0.01295
0.078575,0.23424,0.39867,0.055648,-0.064396,-0.057161,-0.013218,-0.00031246
-0.030774,-0.18919,-0.45412,-0.22191,-0.019704,0.032577,0.043718,-0.012646
-0.12002,-0.15988,-0.057323,-0.26049,-0.21057,-0.11276,-0.032685,-0.026716
0.10106,0.19835,0.37444,0.22662,0.090926,0.053809,0.031056,0.027789
0.22731,0.32491,0.13804,0.2304,0.29224,0.1496,0.055256,0.080707
-0.09204,-0.36359,-0.42107,0.20981,-0.012219,-0.028507,-0.030463,-0.031776
-0.059755,0.20632,0.26071,0.082586,-0.07258,-0.090093,-0.062157,-0.059362
0.05854,-0.14909,0.40069,-0.010039,0.10245,0.12075,0.085057,0.076406
-0.08888,0.19186,-0.52213,-0.15631,-0.16038,-0.083868,-0.049802,-0.053792
0.076026,-0.14861,0.63102,0.43629,0.12968,0.07704,0.033356,0.0739
-0.13406,-0.50902,0.034179,-0.40126,-0.12211,-0.099635,-0.063651,-0.086934
-0.04674,0.47476,-0.27384,-0.33711,-0.166,-0.10571,-0.035751,-0.043636
0.11998,-0.19386,-0.41899,-0.21706,0.1393,0.12203,0.062815,0.032321
-0.14878,-0.1232,-0.53399,0.092116,-0.1423,-0.11085,-0.041009,-0.03852
0.10839,0.3176,0.46955,0.28831,0.12376,0.087138,0.059243,0.095367
0.25081,0.4905,0.7456,0.062815,0.17347,0.18533,0.10573,0.11331
-0.19881,-0.22969,-0.20493,0.22405,-0.085924,-0.14421,-0.12058,-0.12597
0.12551,-0.047858,-0.15183,-0.076987,0.05666,0.027896,0.020513,0.025141
-0.07465,-0.012526,-0.35502,-0.042797,-0.0089501,-0.080227,-0.073027,-0.066994
-0.19913,-0.59211,0.20789,-0.21395,-0.13583,0.10093,0.10626,0.018886
0.071441,0.28759,0.28581,0.10159,0.049173,-0.06218,-0.06676,0.0012785
0.041521,-0.083835,-0.92827,-0.076989,-0.057242,-0.046558,-0.013796,-0.018074
0.016392,0.087724,0.4282,0.32423,0.1531,0.061816,0.023369,0.031724
0.098931,0.436,0.69902,0.39591,-0.015468,-0.072629,-0.040641,-0.0047067
-0.17781,-0.55933,-0.20512,-0.7459,-0.14049,-0.019527,0.0056798,-0.024825
0.13345,0.027015,0.021834,-0.35781,0.029483,0.12816,0.092435,0.050385
-0.098321,-0.16264,-0.20678,0.04015,-0.089474,0.019561,0.024455,0.0028012
-0.028135,0.39337,0.060828,0.1402,-0.010881,-0.17309,-0.13595,-0.073585
0.071044,-0.053496,-0.53508,0.1034,0.087263,0.13606,0.095081,0.063223
0.097215,0.54793,0.51539,0.6911,0.15889,-0.053523,-0.072221,0.0063902
-0.013432,-0.060189,0.022408,-0.25172,0.016178,0.10878,0.095725,0.036299
-0.051936,-0.44322,-0.44225,-0.085907,0.056116,-0.0031778,-0.026778,-0.019903
-0.067476,-0.26112,0.063945,-0.25269,-0.24697,-0.15611,-0.088629,-0.10062
0.04711,-0.13346,0.60349,0.27421,0.073137,0.086665,0.066296,0.066941
0.016655,0.4248,0.32652,-0.064768,-0.063877,-0.064227,-0.030515,-0.033157
0.09023,0.37166,-0.99145,-0.18703,0.098432,0.047725,0.012121,0.044481
-0.20871,-0.74444,-0.56024,0.078399,-0.08076,-0.029792,-0.015973,-0.043491
