-0.0010404,0.026081,-0.70102,-0.071709,0.0064112,-0.0028714,0.025993,0.0020361
0.038264,0.095537,0.66747,0.28311,0.021771,0.013129,0.019703,0.011288
-0.047584,-0.25861,-0.78984,-0.15144,-0.033081,-0.0024436,-0.010309,-0.018583
0.01491,0.034708,0.68213,0.015831,0.029378,0.01292,-0.0018881,0.021714
-0.0085515,0.085854,-0.14537,-0.042693,-0.033047,-0.011072,-0.033369,-0.016299
-0.016336,-0.22134,-0.70468,-0.17814,0.0061623,-0.004084,-0.026649,-0.0076277
0.030659,0.2467,0.60158,0.12542,0.0063036,0.0026575,0.0028277,0.0086824
-0.0082021,0.13868,0.3608,0.00092263,0.0063444,-0.0064453,0.016332,-0.0064137
0.062331,-0.014424,0.64234,0.22169,0.045254,0.031146,0.037703,0.040839
-0.085967,-0.15094,-1.1193,-0.2517,-0.072341,-0.025134,-0.0030071,-0.029258
0.031178,-0.045414,0.087183,0.28332,0.036373,0.0044956,-0.0039926,0.0098313
-0.00036595,-0.0271,-0.29761,-0.11919,-0.0035186,-0.0048357,0.0035708,-0.013788
-0.0087269,0.0047067,-0.12176,-0.37385,-0.027782,0.0017228,-0.011661,-0.00637
-0.017271,0.065227,0.69724,0.2377,-0.0049369,-0.022525,-0.0030314,-0.014764
0.0132,0.09991,-0.16336,-0.042534,0.010571,0.02415,-0.0020696,0.031393
0.0047251,-0.14841,0.27148,0.21512,0.018931,0.0090538,-0.0090403,-0.00064477
-0.0034798,0.0087893,-0.4052,-0.090809,-0.011029,-0.020897,-0.00069782,-0.017059
0.035565,0.064965,0.0019343,0.055449,0.037809,0.027991,0.022876,0.029084
-0.018728,-0.0020494,0.46237,0.0056826,0.0011707,-0.00068457,-0.0085935,-0.010607
-0.0023289,-0.011475,-0.74115,-0.16946,-0.050946,-0.036844,-0.0012129,-0.0032799
0.0065562,-0.040721,0.32332,-0.0085634,0.037357,0.03642,0.0061671,-0.0035787
-0.046864,-0.05053,0.36957,0.028039,-0.046733,-0.03118,-0.033098,-0.027079
0.0091843,0.044626,-0.77882,-0.12153,0.0012586,0.010095,0.0061865,0.012212
0.026173,0.079677,0.91266,0.2932,0.048443,0.019422,0.022561,0.02059
-0.003782,-0.040616,-0.95156,0.077137,-0.030122,-0.02676,0.00037746,-0.0019223
0.052069,0.19762,0.85711,-0.16052,0.031361,0.027767,0.025419,0.022781
-0.056323,-0.17606,-0.52771,-0.099983,-0.04812,-0.020068,-0.011952,-0.030369
0.0069383,-0.045807,-0.14567,-0.14048,0.012937,0.0017388,-0.018301,-0.0052324
-0.023797,-0.013855,0.80587,0.33428,0.019437,-0.00037624,-0.0017317,-0.0035211
-0.015733,-0.1817,-0.84821,-0.15312,-0.036289,-0.018384,-0.017133,-0.0097811
0.06236,0.17797,0.87251,0.26383,0.095805,0.049497,0.036996,0.038305
-0.031743,0.027307,-0.75475,-0.35269,-0.076512,-0.030913,-0.034565,-0.015693
0.022209,0.070756,0.25107,-0.0026266,0.0013384,0.006165,0.010591,0.0077574
-0.018048,-0.0030087,0.17705,0.20513,-0.022339,-0.011039,-0.014742,-0.016449
0.042737,0.072455,-0.19576,-0.25209,0.047657,0.019091,0.030362,0.028854
-0.029812,-0.21804,-0.19383,0.28291,0.0081505,-0.0049939,0.0055157,-0.0046822
-0.032473,0.1647,-0.064011,-0.11089,-0.031455,-0.020817,-0.018841,-0.030904
0.01154,-0.10742,0.11953,-0.065751,-0.00073723,0.010637,0.011979,-0.0026067
-0.014621,-0.049934,0.30599,0.0044182,-0.024525,-0.0044487,-0.0037021,-0.013132
0.037897,0.1499,-0.33772,0.036758,0.045812,0.027594,0.019873,0.023873
0.005444,-0.069986,0.66613,0.24141,-0.0083184,-0.010515,-0.011234,0.022814
-0.041341,-0.076246,-0.65203,-0.17956,-0.014973,-0.0095003,-0.026848,-0.016112
-0.0085511,-0.0012325,0.025493,-0.11791,-0.028904,-0.024148,-0.01139,0.00084353
0.04906,0.10837,0.41363,-0.051073,0.043424,0.031389,0.011754,0.010974
0.037437,-0.060193,-0.5152,0.090794,0.045413,0.0085944,0.011462,-0.0017253
-0.051747,0.14852,0.72768,0.14372,-0.03117,-0.014469,0.011326,-0.0064878
0.0074246,-0.071485,-0.43004,-0.079131,0.0085801,0.0090289,-0.0041573,0.0040024
-0.074786,-0.12815,-0.55072,-0.092249,-0.085629,-0.053746,-0.019312,-0.040986
0.068222,0.14084,0.53989,0.035526,0.053296,0.055018,0.036127,0.045782
0.014176,-0.062952,-0.35709,-0.061394,-0.0041809,-0.00058807,-0.0098466,-0.0092021
0.08326,0.025101,0.09184,0.14975,0.007956,-0.0017523,-0.0089798,-0.010492
-0.10716,0.13128,0.84524,0.01392,0.051215,0.043817,0.030733,0.01878
-0.087868,-0.38451,-0.79558,-0.054052,-0.10032,-0.074664,-0.062712,-0.045971
0.055902,0.10401,0.054836,-0.038316,0.022726,-0.0054298,-0.0002924,0.022262
0.020261,0.1533,-0.21251,-0.040778,0.014535,0.0095578,0.022739,0.028552
0.048139,0.038749,0.84583,0.10955,0.008098,-0.006054,0.0065204,-0.019038
-0.00056072,-0.019143,-0.65662,-0.27622,0.018885,0.033808,0.013729,0.0045582
-0.0084444,0.027772,0.4395,0.30799,0.038601,0.019779,0.005472,0.013275
-0.030357,-0.093344,-0.13619,0.063296,-0.042863,-0.024846,-0.025937,-0.016622
-0.012091,-0.11698,-0.23913,-0.0044912,-0.046665,-0.022225,-0.010127,-0.007403
0.069091,0.19827,0.11272,-0.27996,0.08109,0.058515,0.037266,0.040518
-0.06883,-0.13323,-0.90936,-0.14721,-0.082039,-0.048643,-0.024455,-0.052888
0.042212,0.23858,1.1017,0.56507,0.080917,0.030986,0.015538,0.024689
0.0033291,-0.10967,-0.43867,-0.22097,-0.054847,-0.030895,-0.022563,-0.00018546
-0.060601,-0.15568,0.33787,0.050462,-0.035627,-0.023325,0.0095712,-0.025739
0.022537,0.099991,-0.29529,-0.31412,0.014435,0.014838,0.0024882,0.010906
0.011118,0.055959,0.5901,0.062531,0.018182,0.0058137,0.010841,0.016483
0.0074808,-0.08371,-0.20397,0.018681,0.038984,0.035932,-0.0044282,0.0071114
-0.073475,-0.1534,-0.4306,0.10315,-0.071004,-0.058523,-0.043283,-0.048048
0.089285,0.2394,0.79845,0.16087,0.071208,0.042977,0.027139,0.046566
0.019658,0.01062,-0.54854,0.29363,0.074721,0.03578,0.042817,0.017544
-0.032261,-0.13518,-0.64116,-0.56964,-0.10801,-0.056834,-0.035288,-0.033755
-0.019886,0.037082,0.28369,-0.16486,-0.032591,0.0070187,0.0037572,-0.0061811
0.032721,0.066274,0.36657,0.34976,0.057802,0.016015,0.0036765,0.021582
-0.031526,-0.064388,-0.024169,-0.12156,-0.040806,-0.02241,-0.019938,-0.013587
0.036479,0.1119,-0.1143,0.09136,0.022595,0.016464,0.018831,0.012726
0.0015829,-0.032286,0.03233,0.12025,0.021289,-0.0002998,-0.0050123,-0.0093087
-0.050796,-0.0072458,0.27022,0.050897,-0.044442,-0.025752,-0.0054902,0.005996
0.011987,-0.15881,-0.4177,-0.068942,0.060451,0.04975,0.025287,-0.0038575
-0.044232,0.16796,0.12668,-0.33104,-0.084945,-0.070246,-0.037574,-0.038608
0.085766,-0.034972,0.042103,-0.2482,0.036081,0.044453,0.024799,0.050669
0.019908,-0.0011389,0.81652,0.73747,0.088615,0.034972,0.017204,0.014607
-0.13165,-0.20531,-0.71874,-0.52733,-0.20002,-0.10611,-0.060283,-0.0758
0.11613,0.40955,0.26941,0.47495,0.1627,0.10578,0.042346,0.061308
-0.095748,-0.47446,-0.67134,-0.2319,-0.081253,-0.063774,-0.042185,-0.050204
0.084291,0.23045,-0.31658,-0.11818,0.059529,0.025515,0.045301,0.0038871
-0.023826,-0.24051,0.2585,0.070497,0.029102,0.021523,0.015442,0.067189
0.040121,0.3387,0.60029,0.23559,0.021231,0.0016502,0.008499,0.014279
0.017428,0.20062,0.09391,0.12948,-0.043765,-0.019234,-0.030577,-0.0070135
-0.022447,-0.12629,-0.74962,-0.12006,0.012544,0.020727,-0.00049727,-0.012971
-0.017587,0.20655,0.81415,-0.39955,-0.060532,-0.019489,-0.0029302,-0.066643
-0.03062,-0.33442,-0.42584,-0.24962,-0.036397,0.00068987,-0.006514,-0.019903
-0.068946,-0.21091,0.59734,0.72907,0.0075896,-0.051236,-0.018726,0.017862
-0.022289,-0.22641,-0.8419,-0.49147,-0.06786,-0.034018,-0.0078021,0.015678
0.12619,0.28625,0.15271,0.03913,0.1217,0.076592,0.042484,0.091216
-0.036297,-0.082567,0.06873,0.45963,0.077858,0.023615,-9.8102e-05,-0.059637
0.10066,0.57026,0.50944,-0.26314,-0.010592,0.010869,0.013349,-0.006652
-0.0013775,-0.29045,-0.86773,-0.3508,0.0055851,0.038798,0.0049606,0.024022
-0.16268,-0.18607,0.38407,0.61407,-0.13896,-0.11901,-0.05648,-0.084591
0.053744,-0.10123,0.58007,0.21883,0.10249,0.060757,0.031963,0.042484
0.1157,0.55517,-0.26746,-0.71678,0.041976,0.062167,0.043358,0.053411
-0.14214,-0.29178,-0.89427,0.078289,-0.16488,-0.13082,-0.069664,-0.067927
0.013269,0.12569,0.7549,-0.32953,-0.034359,-0.010839,-0.010781,0.045003
0.025989,-0.19024,-0.7085,0.33599,-0.0046535,-0.0079917,0.00069999,0.0086783
0.035702,0.099752,0.78877,0.41294,0.21261,0.11953,0.050212,-0.0056686
0.026287,-0.2488,-0.047159,-0.073143,-0.00048333,0.012041,0.012349,0.0093414
0.075928,0.24883,0.14558,0.11491,0.089773,0.059926,0.043111,0.014539
-0.21316,-0.27156,-0.47507,-0.17469,-0.22029,-0.15097,-0.091918,-0.1226
0.03521,-0.11749,0.24032,-0.19282,0.022181,0.01225,0.013723,0.082976
0.080408,0.67016,0.67525,0.093969,0.020471,0.018651,0.016753,0.0072157
-0.26341,-1.0591,-1.3022,-0.66059,-0.16234,-0.10783,-0.089954,-0.13007
0.17706,0.69134,0.11441,0.19966,0.06064,0.047453,0.038155,0.078295
0.28552,0.69708,0.38063,0.68363,0.26862,0.20382,0.11279,0.17981
-0.21908,-0.43276,0.43739,-0.34076,-0.28737,-0.21649,-0.13887,-0.13789
0.10798,-0.091216,-0.27401,0.34403,0.25277,0.15381,0.10378,0.046745
-0.039121,-0.18834,0.43761,-0.35222,-0.024692,0.0020229,0.051682,0.014206
-0.27119,-0.63459,-1.1671,0.15633,-0.24487,-0.18792,-0.13145,-0.15835
0.23849,0.69904,0.21804,0.10828,0.20899,0.16153,0.1085,0.13745
-0.042401,0.020706,0.40462,0.16916,0.00029277,-0.028329,-0.072844,-0.036693
0.010532,0.078746,0.18609,-0.78617,-0.15295,-0.047047,-0.035501,-0.0094209
-0.14187,-0.40868,-0.55321,0.46048,-0.071783,-0.074631,-0.022157,-0.077766
0.14133,0.26175,1.0296,0.034324,0.21968,0.13096,0.060579,0.078743
0.009129,0.2001,-0.48188,-0.42218,-0.076084,-0.031852,0.017171,0.022982
0.10275,0.07136,0.22286,0.40737,0.11058,0.069815,0.058422,0.067927
-0.16328,-0.35001,-0.13751,0.052559,-0.11941,-0.10302,-0.081383,-0.098466
-0.1325,-0.44578,-0.66881,-0.11899,-0.086982,-0.050286,-0.042934,-0.061775
0.2966,0.8476,0.24653,0.21528,0.19955,0.14991,0.095613,0.13134
-0.13412,-0.36728,-0.37088,-0.12843,-0.10382,-0.080534,-0.040712,-0.089375
0.098306,0.3168,0.33132,-0.31736,0.11236,0.086526,0.032599,0.080722
-0.0613,-0.19306,0.66035,0.3177,-0.096691,-0.059746,-0.027934,-0.038193
-0.050754,-0.15399,-0.53801,-0.1089,-0.12063,-0.089447,-0.042207,-0.016581
-0.018522,-0.30783,-0.36595,-0.17884,0.088773,0.060272,0.013763,0.012628
-0.026779,-0.076607,0.13265,0.41547,0.033101,0.030501,0.023403,-0.059988
0.026682,0.78102,0.65134,-0.34832,-0.051741,-0.029812,-0.012698,0.046849
0.080214,0.099397,0.51234,0.36483,0.046395,0.01261,0.015301,0.012916
0.040963,-0.19395,-0.10527,-0.52607,-0.023405,0.0096466,0.021708,0.041462
-0.12154,-0.2966,-0.38964,0.52154,-0.011195,-0.062046,-0.055998,-0.047067
-0.031763,-0.22591,-1.042,-0.19271,0.10572,0.047374,0.03189,-0.033795
0.18554,0.47852,-0.11839,0.029558,0.083901,0.12658,0.066111,0.081407
-0.12596,-0.088426,0.59615,0.25527,-0.16404,-0.12962,-0.078959,-0.060705
-0.02124,-0.23637,0.2903,-0.21969,-0.0065436,-0.0029911,0.010131,-0.0068558
0.13986,0.17968,-0.10196,-0.13542,0.055682,0.060788,0.028225,0.055612
-0.20566,-0.52265,0.02599,-0.17416,-0.1726,-0.11806,-0.063965,-0.068462
0.17614,0.75537,0.36474,0.47669,0.20795,0.12477,0.053932,0.066341
-0.035406,-0.076237,-0.46957,-1.0251,-0.15271,-0.069592,-0.024016,-0.063404
-0.25462,-0.6096,-0.15551,0.37633,-0.16689,-0.15362,-0.078568,-0.051569
0.25266,0.37294,0.10658,0.45338,0.34664,0.22486,0.11737,0.11717
-0.12316,0.0080937,0.056103,0.23243,-0.18942,-0.12911,-0.068595,-0.049822
0.1723,0.28964,0.62376,0.25073,0.14662,0.1047,0.059058,0.09532
0.15432,0.46786,0.44955,-0.28717,0.22849,0.17579,0.094009,0.020791
-0.20868,-0.5271,-0.8956,-0.4849,-0.28189,-0.20584,-0.10469,-0.08631
-0.065313,-0.32588,-0.047675,0.72416,0.050412,0.0055881,-0.021905,-0.046413
-0.19673,-0.47025,-0.83972,-0.79592,-0.16769,-0.097222,-0.05661,-0.10147
0.23336,0.33747,0.08967,0.36828,0.10885,0.086526,0.071975,0.12407
-0.024465,0.28106,0.85824,0.0011422,-0.073977,-0.02945,-0.027109,-0.056569
0.0069066,-0.047227,-0.54467,-0.70251,-0.091029,-0.023171,0.013162,0.052583
0.015339,-0.085634,0.84072,0.26832,0.1837,0.090205,0.044334,0.069126
0.13366,0.3361,0.12928,0.5364,0.033,-0.0011334,-0.0038064,0.016505
-0.201,-0.29364,-0.99742,-0.384,-0.15085,-0.11676,-0.084214,-0.019745
0.19822,0.38562,0.4026,0.77847,0.32111,0.1893,0.092385,-0.0090744
-0.099129,-0.19842,0.2422,-0.29247,-0.13602,-0.059023,-0.028469,-0.069462
-0.17956,-0.46433,-0.58666,-0.36831,-0.26383,-0.1583,-0.063736,-0.06875
0.27697,0.68339,0.90565,0.34017,0.32071,0.21193,0.1118,0.14897
-0.33089,-0.61312,-0.67589,-0.51165,-0.29644,-0.19828,-0.12667,-0.15841
0.22403,0.48459,0.76641,0.27057,0.16596,0.11888,0.080391,0.22832
0.03643,0.15308,-0.33879,0.29594,0.14549,0.061891,0.030005,-0.19012
-0.13485,-0.54537,-0.87842,-0.62219,-0.20913,-0.11918,-0.04334,0.0011913
0.10956,0.11087,0.60219,0.37754,0.016555,0.013292,0.016721,0.052981
0.051552,-0.083515,-0.74144,-0.3741,-0.059778,-0.0014762,-0.00062942,0.059488
-0.12111,-0.097689,0.77378,0.2895,0.038791,-0.0071204,-0.048382,-0.010418
-0.017936,-0.18173,-0.1358,-0.17705,0.046702,0.019814,-0.0092249,-0.024182
0.071511,0.60837,0.39396,0.38999,0.13544,0.079184,-0.0080758,0.017636
-0.0097285,0.042224,-0.61182,-0.043164,-0.18809,-0.10277,0.072244,-0.057552
0.057877,0.16734,0.81242,0.27668,0.16852,0.10629,0.06754,0.069872
-0.070101,-0.30023,-0.6235,-0.33613,-0.10104,-0.083254,-0.077124,-0.12405
-0.019096,-0.053359,0.58939,-0.22376,0.056365,0.023368,0.020734,0.13389
0.12485,0.28404,-0.45834,0.42891,-0.01674,0.003866,-0.068915,-0.085921
-0.1849,-0.41189,-0.75676,-0.73279,-0.19599,-0.071675,-0.018236,-0.0019124
-0.10412,-0.13868,0.97724,0.25954,0.065538,0.015469,0.031949,-0.0042235
0.17239,-0.063628,0.35689,0.18966,0.07325,0.02325,0.026848,0.040453
0.066864,0.21859,-0.50066,0.34375,0.070515,0.045643,0.021106,0.038752
0.071515,0.16207,0.30836,-0.66227,-0.058461,-0.010877,-0.00092388,0.037739
-0.087518,-0.12174,-0.7283,0.12401,0.0079779,0.033541,-0.015835,-0.07198
-0.067296,-0.068,-0.53149,0.43581,-0.04941,-0.094466,-0.031492,-0.071842
0.013956,0.30949,0.66159,-0.13557,0.106,0.058242,0.014542,0.069123
0.022396,0.019489,-0.16587,-0.086623,-0.0098856,0.0072887,0.012844,0.022506
-0.073993,-0.0081956,0.68715,0.25596,-0.10805,-0.059774,-0.028781,-0.071284
0.18543,-0.35985,0.019979,-0.30369,0.10032,0.075957,0.069424,0.084517
-0.13651,0.018974,-0.16192,-0.51789,-0.096014,-0.053983,-0.028311,-0.080394
0.054868,0.28502,0.071499,0.81281,0.13866,0.050804,-0.0013923,0.074718
0.026697,0.22888,0.56778,0.0743,-0.070784,-0.031088,-0.013492,0.010974
-0.31296,-0.8577,-1.2893,-1.0279,-0.30247,-0.1664,-0.10321,-0.14642
0.21739,0.25527,0.69557,0.86775,0.34987,0.20768,0.1049,0.11054
0.017642,-0.23337,-1.141,-0.33824,-0.035754,-0.0025129,0.0018431,0.0085218
0.033829,0.60107,0.57813,0.82562,0.024751,-0.039357,0.0096678,0.00069461
0.0001386,0.19743,0.30252,-0.76181,-0.070714,0.010734,-0.0044983,0.0010574
0.17327,0.26609,0.60819,0.25667,0.15371,0.076791,0.037164,0.032926
-0.073573,-0.66409,-0.14664,-0.13457,-0.091759,-0.06844,-0.037713,-0.067903
-0.10969,-0.53434,-0.49397,-0.37847,-0.15141,-0.089578,-0.050017,-0.0906
-0.11671,0.78389,-0.28619,0.076324,0.01362,0.0052836,0.046597,0.11322
-0.080368,-0.20555,0.0068822,0.032505,0.012944,0.013087,-0.029489,0.0045221
0.19413,0.1194,0.71198,0.29313,0.18316,0.11393,0.049725,0.028697
0.058675,0.069823,-0.055318,0.090214,-0.068514,-0.027453,0.010956,0.021822
0.022162,-0.21343,-0.16388,0.37299,0.079377,0.019426,0.01086,-0.047177
-0.07794,-0.10362,-0.41205,-0.38003,-0.17676,-0.10403,-0.19218,-0.04529
-0.052463,0.0034832,-0.21488,-0.36408,0.031108,0.024667,0.14464,-0.0114
-0.12652,-0.29547,0.52114,0.23189,-0.18725,-0.10204,-0.056339,-0.0626
0.099282,0.21268,0.32796,-0.25856,0.12104,0.070332,0.041004,0.05884
0.23453,0.69279,-0.06609,0.21648,0.20497,0.15045,0.11614,0.13384
-0.096311,-0.16857,-0.27519,0.02145,0.05499,-0.0035244,-0.058119,-0.033497
0.035217,-0.022336,0.11116,0.20866,-0.018639,-0.010287,-0.0061324,0.040411
-0.044354,-0.082811,-0.22973,0.19037,0.013012,0.0036143,-0.01018,-0.051494
-0.17257,-0.61101,-0.78392,-0.90163,-0.39102,-0.22869,-0.094595,-0.12234
0.0087176,0.27384,0.79071,0.79972,0.10418,0.042141,0.0056968,0.022936
0.069229,-0.022171,0.21822,-0.68922,0.12382,0.11312,0.071882,0.0095805
0.25917,0.54979,0.71315,0.78149,0.21622,0.14924,0.065348,0.15083
-0.24082,-0.42061,-0.53568,-0.27053,-0.25674,-0.20729,-0.091143,-0.14596
-0.11673,-0.51446,-0.50595,-0.29631,-0.19037,-0.11075,-0.07611,-0.0592
0.047257,0.54656,-0.66973,0.10437,0.1841,0.12836,0.072612,0.12321
0.057491,0.086708,0.62413,-0.020517,0.064608,0.042938,0.012338,-0.019755
0.024512,-0.063782,0.84592,0.10245,0.077647,0.032381,0.048459,0.027871
0.04249,0.024601,0.051379,0.20637,-0.13606,-0.067283,-0.014117,-0.0075797
0.095359,0.31819,-0.73476,-0.13316,0.16431,0.10251,0.0040207,0.021583
-0.052458,-0.31212,-0.42416,-0.34144,-0.1019,-0.076978,-0.038446,-0.041989
0.019238,0.14446,0.057782,0.62458,0.1793,0.087619,0.060669,0.050493
-0.22257,-0.41813,0.85843,-0.11351,-0.20621,-0.085334,-0.090242,-0.10049
0.087845,-0.042221,-0.1768,-0.34708,-0.0031319,-0.011438,0.015798,0.027767
-0.034782,0.18482,0.18298,-0.10795,-0.13468,-0.066516,0.011041,-0.018152
0.018738,-0.0099793,-0.5009,0.44127,0.016341,-0.00054672,-0.018802,0.011927
0.045733,0.21922,0.17034,-0.28207,0.060572,-0.015852,0.0044694,0.016976
0.078367,0.047338,-0.89637,-0.17181,0.078274,0.084235,0.034276,0.036794
-0.054098,-0.30356,0.38445,-0.066773,0.095359,0.082544,0.00070005,-0.005989
0.0010326,0.013124,0.34542,0.24818,-0.089017,-0.050707,0.0056949,-0.040447
-0.036542,0.077374,-0.028772,-0.076007,-0.02787,-0.033171,-0.020742,0.0041049
-0.025538,-0.055609,0.71822,0.46868,0.0062097,-0.0048905,0.00753,0.026193
0.065618,0.25392,-0.00080111,0.052038,0.083555,0.026382,0.0046892,0.041282
0.010373,0.050796,0.05219,-0.087527,0.10197,0.068093,0.048938,-0.036887
-0.011834,0.043242,-0.79936,-0.094973,-0.21298,-0.083517,-0.070565,-0.021185
-0.056097,-0.57616,0.1061,-0.20052,-0.13581,-0.093231,-0.041159,-0.029103
0.080241,0.22955,-0.72167,-0.6952,0.18412,0.11641,0.051448,0.032958
-0.14232,0.060934,0.54525,0.25708,-0.12884,-0.11136,-0.026857,-0.030284
0.1587,0.23859,-0.025199,0.12706,0.14363,0.12931,0.052273,0.07042
-0.048145,-0.26726,0.95955,0.83186,0.048096,-0.02903,-0.023571,-0.047476
-0.0051382,-0.19661,-0.67608,-0.05523,-0.14235,-0.055383,-0.027933,-0.047784
-0.07946,0.062286,-0.95176,-0.75876,0.0093343,-0.0047043,0.031027,0.014944
0.11954,0.12848,0.33659,0.22168,0.25259,0.16176,0.059001,0.12504
-0.04878,0.28408,0.56818,-0.19334,-0.11629,-0.048481,-0.030637,-0.038051
-0.10018,-0.065074,0.92931,0.57162,-0.15242,-0.12005,-0.0589,-0.060654
0.13695,0.11853,0.21084,0.083461,0.073827,0.040753,0.036151,0.033351
0.0059251,-0.28454,-0.90113,-0.4267,-0.093411,-0.019034,-0.027034,-0.029841
0.021894,-0.15933,-0.52571,-0.32826,0.018648,0.00573,0.025022,-0.00041519
-0.026536,0.16446,0.18879,0.51896,0.20038,0.084473,0.0052096,0.020138
-0.069328,-0.024561,-0.78463,-0.21926,-0.1873,-0.1023,-0.062352,-0.061596
-0.043959,-0.10832,0.5788,-0.046984,-0.033491,-0.053775,0.041938,0.059614
0.16714,0.29795,0.53472,-0.060488,0.23337,0.19168,0.045502,0.03285
-0.18531,-0.49071,-0.52578,0.3477,-0.17493,-0.12328,-0.082206,-0.10221
0.13398,0.27037,0.10132,-0.11384,0.11691,0.13434,0.065473,0.10801
-0.10058,0.020434,0.45422,-0.43333,-0.11794,-0.13714,-0.034873,-0.070656
-0.044487,0.3694,0.099112,0.20333,-0.0051983,0.022899,0.038265,0.010104
0.10735,-0.082018,0.10606,0.31053,0.0087103,-0.026616,0.042011,0.068639
0.15176,-0.42959,-0.052153,0.10302,0.12558,0.073173,-0.063582,-0.020681
-0.10708,0.10517,-0.68647,0.066812,-0.15602,-0.10793,-0.05285,-0.055462
0.01756,0.1679,-0.12449,-0.1413,0.068849,0.015548,0.10472,0.049543
-0.021986,-0.18894,0.23622,-0.090842,0.0099895,0.15413,-0.060072,-0.034306
-0.1716,-0.021139,-0.38342,-0.42008,-0.020869,-0.098791,-0.031662,-0.041634
0.18574,0.48415,0.81745,0.20393,0.17905,0.10028,0.0027526,0.10573
-0.24654,-0.6634,-0.10052,-0.32837,-0.312,-0.22536,0.012517,-0.1544
0.1963,0.45347,0.1128,0.50097,0.15495,0.11956,0.014024,0.10813
-0.024021,-0.22371,-0.048251,-0.0070897,-0.17705,-0.01327,0.062758,0.0032441
-0.016181,-0.010948,-0.056116,0.0039192,0.067974,0.040401,-0.028069,-0.015465
0.14988,0.040758,-0.52974,0.46065,0.21124,0.030817,0.007713,0.052346
-0.01022,0.11342,0.55408,-0.27353,0.14404,-0.096493,0.014208,-0.0040858
0.034408,-0.57396,-0.52295,-0.14893,-0.29735,-0.00545,-0.10999,-0.059726
-0.32614,0.39045,-0.22187,-0.58601,-0.1051,-0.024147,-0.083643,-0.05994
0.14983,0.54891,0.26764,0.016637,0.087754,0.14422,0.17116,0.088935
0.11822,-0.12067,0.26015,0.17281,0.046496,0.054225,0.052469,0.011829
-0.14767,0.10111,0.89378,0.46486,0.091043,-0.036416,-0.0027647,-0.010053
-0.04626,-0.60468,-0.79959,0.59082,-0.052409,-0.19016,-0.065532,-0.047045
0.11776,0.038958,0.16115,-0.29122,-0.040399,0.054196,-0.050614,0.0023805
-0.06985,-0.047062,-0.69041,-0.54633,-0.099664,-0.045085,-0.028992,-0.002478
0.085733,0.39776,0.19502,0.22762,0.14476,0.051652,0.06911,0.039788
0.17747,-0.34723,1.0176,-0.50977,-0.057034,0.048096,0.055845,0.058625
-0.0065421,-0.32095,-0.53363,0.13431,0.099883,0.085238,-0.045482,-0.016585
-0.32658,0.10982,-0.59961,-0.022054,-0.1107,-0.11031,-0.039472,-0.092409
0.084006,0.20959,0.2632,0.38874,0.13197,0.12524,0.050734,0.034012
-0.10292,0.46629,0.23063,-0.12383,-0.22625,-0.15402,-0.0087599,-0.05154
0.17579,0.1452,-0.84562,-0.050666,0.09646,0.051215,-0.037639,0.072793
0.038487,-0.093731,0.45004,0.22486,0.022507,-0.072248,0.042941,0.016499
-0.13054,-0.28067,-0.030936,-0.019558,-0.025791,-0.032737,-0.047534,-0.079583
0.12334,0.10809,0.48821,-0.24413,0.14715,0.26326,0.066614,0.097312
-0.10487,-0.52762,0.43408,0.18893,-0.060179,-0.12168,-0.051587,-0.061912
0.052831,0.058582,-0.23474,-0.33559,-0.15573,-0.069949,-0.042454,-0.010119
-0.012698,0.21827,0.1917,0.19003,0.032045,-0.11211,0.094045,0.073239
0.18263,0.087793,-1.1749,0.64764,0.32302,0.27612,0.068578,-0.0069462
-0.27594,-0.38141,0.8766,-0.58052,-0.42396,-0.25594,-0.16629,-0.094253
0.23571,0.17711,-0.84013,0.14716,0.14988,0.12834,0.021469,0.038014
-0.22078,0.043055,0.70228,-0.66595,-0.088944,-0.023757,-0.017546,-0.039768
0.025831,-0.11563,-0.24552,-0.052782,0.022886,-0.016981,0.043788,0.016118
0.11587,0.89691,0.3456,0.83916,0.3283,0.20286,0.17328,0.11957
-0.15379,-0.20343,-0.67792,-0.4169,-0.18131,-0.17763,-0.10636,-0.057852
