0.026354,0.025702,-0.44858,0.00064052,0.014514,-0.00037155,0.013302,0.0049244
-0.020814,-0.0079323,0.055405,-0.1252,-0.01749,-0.0088448,-0.0024713,-0.01766
0.040948,0.058199,0.61247,0.25586,0.043492,0.020739,0.012363,0.0057781
-0.046054,-0.10342,-1.0541,-0.26856,-0.059978,-0.036357,-0.020199,-0.0029151
0.030856,0.070478,0.27138,0.14686,0.063152,0.046823,0.017211,-0.027982
-0.0015688,0.0025767,0.069135,0.13611,-0.0086016,-0.010525,-0.015802,0.048042
-0.0025283,-0.0017593,0.73975,-0.20661,-0.024955,-0.020486,-0.017427,-0.0088453
0.020299,0.05793,-0.22469,0.079332,0.022028,0.017248,0.012572,0.0048897
-0.018944,-0.044721,-0.50633,0.04759,-0.00050634,0.0012695,0.00407,-0.011941
-0.018665,-0.020701,0.30456,-0.014303,-0.006808,0.0018645,0.011854,-0.019994
0.0054908,0.012558,0.054109,0.024789,0.010657,0.0032182,0.012482,0.019938
0.0065847,-0.039057,-0.067875,0.054062,0.0047043,0.0050192,-0.0019697,-0.0093534
0.007951,0.0037203,-0.16749,-0.20077,-0.048378,-0.02435,-0.02388,0.024754
0.0016383,0.02327,-0.2866,-0.16943,0.015274,0.016322,0.0012019,0.0047396
-0.004706,-0.0042665,0.45694,0.42227,0.015872,-0.0060472,-0.0050837,0.0082979
-0.011256,0.014472,0.16619,-0.18988,-0.030968,-0.029099,-0.0038742,-0.058782
0.0052654,0.0010315,-0.18686,-0.051086,0.04669,0.033107,0.012504,0.014014
0.068182,0.1505,-0.1369,0.058963,0.061454,0.032277,0.036171,0.038864
-0.095988,-0.22469,-0.36681,-0.038429,-0.11154,-0.04697,-0.050055,-0.03911
0.028424,0.047479,0.25247,0.11001,0.027837,0.0066037,0.01952,0.014434
-0.019392,-0.040472,0.39561,-0.12154,-0.02807,-0.02546,-0.0049797,0.0042873
0.0029434,-0.0036732,-0.15506,0.21835,0.033365,0.021122,-0.014021,-0.0068224
0.056576,0.1506,0.79515,-0.028804,0.032556,0.021446,0.023815,0.028292
-0.045817,-0.10065,-0.82592,-0.084029,-0.038264,-0.0089223,-0.008508,-0.022818
-0.02288,-0.05405,-0.17694,-0.12882,-0.030671,-0.0076949,-0.01713,-0.019149
0.086335,0.15756,-0.017986,0.16407,0.086503,0.048243,0.021436,0.039663
-0.046381,-0.067685,-0.45229,-0.28314,-0.046245,-0.028969,0.0056103,-0.025759
-0.022738,0.011935,0.77687,0.35136,-0.0071893,-0.020887,-0.002182,-0.027684
0.016466,-0.025991,-0.3782,-0.38317,-0.0074068,-0.013623,0.0057639,0.034014
-0.007041,-0.041283,0.19858,0.10975,-0.015742,-0.0071669,-0.0097262,0.01871
0.008216,0.0048761,0.5836,0.19201,0.061525,0.022117,-0.017488,-0.011216
0.015355,0.034374,-0.65518,-0.017452,-0.01775,0.0042573,-0.0019402,0.0065074
-0.024613,-0.0072287,0.80781,0.17731,-0.019077,0.002164,0.0056675,-0.014352
-0.025622,-0.017964,-0.72468,-0.20855,-0.036044,-0.015027,-0.0024516,-0.02724
0.020291,0.0026051,-0.35475,0.050106,0.025285,0.023279,0.028417,0.014416
0.027313,0.00014146,-0.026244,-0.07982,0.03227,0.0078333,-0.0032836,0.040057
-0.0044844,0.037311,0.28002,0.040442,-0.0071556,-0.022351,-0.019451,-0.036427
-0.012608,-0.026562,0.030189,-0.23897,-0.022628,0.0028389,0.018936,-0.0041879
0.02631,0.089546,0.31617,0.26085,0.0327,0.020604,-0.0053462,0.019582
-0.012828,-0.052161,0.15152,-0.19458,-0.028758,-0.016261,-0.0063543,0.0037025
0.010521,0.024657,-0.52174,0.23102,0.035064,0.0013261,0.00035623,0.010802
-0.052107,-0.086269,0.43961,-0.024285,-0.04158,-0.020587,-0.016319,-0.060514
-0.013161,-0.10343,-1.011,-0.038144,-0.016602,-0.011778,0.0063273,0.016505
0.04935,0.14554,0.42098,-0.09164,0.039615,0.035582,0.0060269,0.046721
-0.0050602,-0.034039,0.85622,0.088435,-0.029226,-0.019047,-0.0092042,-0.0087865
-0.0044057,-0.032274,-0.54741,-0.0063309,0.026822,0.011946,0.01544,-0.0014885
0.020096,0.11984,0.33594,0.0060585,-0.018874,0.0036564,0.0018257,-0.025103
-0.0097525,-0.038805,-0.14093,0.038868,0.028891,0.018635,0.0044845,-0.024967
0.0074443,0.014599,0.087259,0.15408,0.013746,-0.0056061,0.0075043,0.053541
-0.0066686,-0.049055,-0.96632,-0.39048,-0.025361,-0.014384,-0.02074,-0.0084295
-0.013264,0.034718,0.65203,0.17144,0.0052631,0.00012431,0.013107,-5.5388e-05
-0.012527,-0.008549,-0.44501,-0.057343,-0.019351,-0.024524,-0.016303,-0.0073828
0.011082,0.031414,0.021288,-0.21583,-0.036566,-0.010093,-0.0076436,-0.01487
0.03416,-0.095503,0.86937,0.4633,0.031967,0.027941,0.0077492,0.016506
-0.036891,0.017461,-0.30157,-0.20605,0.0068276,0.011609,0.0065096,-0.0069948
0.0091064,0.03543,0.74691,0.089448,0.0054455,0.0035289,0.0044768,0.016253
-0.0072549,-0.11052,-0.95939,-0.11876,0.043612,0.01938,0.009781,-0.015213
-0.007592,0.065389,-0.17747,0.34091,-0.011431,-0.034615,-0.01627,0.0002819
0.016083,0.048586,0.35797,-0.28986,-0.042547,-0.0023046,-0.010807,-0.0231
-0.014313,-0.035495,-0.50258,0.13703,-0.010808,-0.016653,-0.0047695,0.031886
0.026109,0.14093,-0.041986,-0.17514,0.013301,0.015912,0.017678,0.0011666
-0.026968,-0.13417,0.6125,-0.39757,-0.056321,-0.014164,0.0019256,-0.04503
0.10737,0.21576,-0.20618,0.54892,0.16301,0.088274,0.041666,0.10409
-0.11811,-0.27193,0.78722,-0.22535,-0.12565,-0.098762,-0.058594,-0.067281
0.093228,0.19042,-0.34922,-0.0092148,0.14021,0.10437,0.04464,0.050088
-0.15715,-0.19484,-0.76842,0.25881,-0.21119,-0.13822,-0.070794,-0.10639
0.013663,-0.1073,-0.51342,-0.26759,0.0077882,0.017342,0.016715,0.010182
0.11375,0.11799,1.0302,0.48569,0.14105,0.086864,0.056962,0.071785
-0.067499,0.052818,0.4238,-0.19723,-0.084745,-0.062257,-0.043932,-0.054214
0.063995,0.11291,-0.26936,-0.079137,0.09603,0.046718,0.01868,0.046432
0.024061,-0.051815,-0.66371,-0.16396,-0.004267,0.0076412,0.010459,0.022302
-0.10131,-0.049765,0.057885,-0.047363,-0.12808,-0.07792,-0.045054,-0.064043
0.05497,0.095937,1.0578,0.31045,0.083642,0.055567,0.031985,0.021746
0.016127,-0.21662,-0.67247,-0.15725,0.0056157,0.0095011,0.0073863,0.029575
-0.10871,0.042973,-0.8136,-0.33512,-0.073276,-0.052254,-0.040533,-0.056304
0.15682,0.17828,0.66349,0.22955,0.19854,0.12012,0.060274,0.068693
-0.038954,0.19606,-0.64439,-0.33067,-0.19434,-0.10631,-0.041627,-0.032981
-0.12569,-0.31852,0.66848,0.4124,-0.056175,-0.044051,-0.010225,-0.048794
0.11554,0.009324,0.96473,0.52516,0.13705,0.088234,0.045109,0.05262
-0.025935,-0.22636,-0.68561,-0.22598,-0.012499,-0.01395,-0.016308,-0.017639
-0.081052,-0.040503,0.2073,-0.39806,-0.11372,-0.061304,-0.038344,-0.040658
0.16919,0.37236,-0.17126,-0.13651,0.20865,0.11827,0.056965,0.10867
-0.15789,-0.28419,-0.11778,0.30244,-0.13921,-0.1157,-0.058692,-0.085277
0.14857,0.60693,-0.3538,0.41245,0.13134,0.10398,0.067616,0.064878
-0.09136,-0.1503,-0.73583,-0.36642,-0.1757,-0.089983,-0.04086,-0.050481
-0.065612,-0.28349,0.54107,-0.40458,-0.014368,-0.018193,-0.032714,-0.025421
0.18624,0.30797,0.80885,-0.031045,0.1222,0.10021,0.060682,0.09285
-0.12536,-0.61845,-0.92779,-0.0023113,-0.040306,-0.039897,-0.034175,-0.070955
-0.086759,-0.20285,0.43542,0.20781,0.0053103,-0.0092344,-0.0047872,-0.032632
0.15343,0.55622,0.27955,0.29003,0.094749,0.051315,0.047363,0.074987
0.064041,0.49671,0.63608,0.44234,0.025148,0.0011142,0.013076,0.0020646
-0.10454,-0.72299,-0.946,-0.86505,-0.18705,-0.073604,-0.044867,-0.016692
-0.10166,0.20348,0.54641,0.39917,-0.017074,-0.023794,-0.024522,-0.051127
0.0501,0.089437,-0.5245,-0.16463,-0.057036,-0.028304,-0.011381,0.016488
-0.11715,-0.54198,0.25062,0.090132,0.0072493,-0.015914,-0.036252,-0.039888
0.23326,0.83124,-0.59899,-0.33847,0.20838,0.14697,0.10434,0.092661
0.00019941,-0.39484,0.28859,0.43099,0.015803,-0.0079571,-0.0034866,0.0081095
0.035259,0.30821,-0.00055431,-0.30509,0.062191,0.042772,0.015201,0.011137
0.0256,-0.085802,0.34356,0.47741,-0.03624,-0.02159,0.0038557,0.0077548
-0.36533,-0.54768,-0.4666,-0.80572,-0.36703,-0.21746,-0.13176,-0.22121
0.23672,0.15599,0.44001,0.56682,0.29445,0.18074,0.099943,0.17525
0.041944,0.3771,0.23156,0.27769,0.063507,0.023564,0.010872,0.048113
-0.20035,-0.48451,-1.0739,-0.70931,-0.26454,-0.15078,-0.079178,-0.10323
0.14987,0.34661,0.56941,0.084679,0.12182,0.086779,0.055988,0.064463
0.045224,-0.18219,0.062387,0.28594,0.050358,0.0093859,0.0021297,-0.027349
0.15719,0.41494,0.74622,0.47266,0.17766,0.10144,0.056141,0.074236
-0.27231,-0.42401,-0.87046,-0.60644,-0.29222,-0.15236,-0.094266,-0.12297
0.15509,0.58946,0.94431,0.15567,0.17332,0.10793,0.059091,0.10001
-0.16198,-0.49149,-0.93847,-0.072269,-0.18194,-0.10913,-0.061443,-0.068867
-0.16059,-0.57519,-0.6396,-0.32496,-0.12203,-0.083996,-0.049123,-0.082114
0.33955,0.78933,0.92535,0.37862,0.41681,0.24657,0.13553,0.14686
-0.10622,0.0065905,-0.45272,-0.20661,-0.26,-0.16378,-0.061911,-0.053254
0.033882,0.013278,0.60711,0.42502,0.16006,0.075819,0.02265,0.021052
0.10395,-0.018302,0.41968,0.11625,-0.0033651,0.043388,0.04527,0.049573
-0.18496,-0.33625,-0.89152,-0.56229,-0.14993,-0.11304,-0.072545,-0.077225
0.0030717,-0.25756,0.42527,0.58662,0.15642,0.0747,0.0046965,-0.00033952
0.089878,0.45656,-0.90722,-0.52728,-0.038788,0.004383,0.026593,0.045386
0.09112,0.31101,0.49068,-0.52429,-0.072419,0.0035956,0.024152,0.043893
-0.28205,-0.6037,-0.11176,0.12437,-0.17131,-0.14673,-0.1042,-0.13791
0.064498,-0.042002,0.26289,0.70491,0.10246,0.053408,0.016793,0.039
0.13129,0.54452,0.57997,0.38512,0.21868,0.14335,0.075085,0.043588
-0.081163,-0.18863,-0.28604,0.1043,-0.094639,-0.10294,-0.038103,-0.069028
0.075943,0.22422,0.15948,-0.71605,0.015629,0.026159,0.021586,0.045445
0.016784,-0.19854,-0.72557,-0.29704,-0.050641,0.015715,0.020288,0.043794
-0.032277,-0.47887,-0.054339,-0.36129,-0.097066,-0.055535,-0.033855,-0.0032562
-0.13424,0.25934,0.24696,0.602,0.017516,-0.0231,-0.03919,-0.064244
0.17895,0.32246,0.62049,0.7438,0.12894,0.081948,0.050997,0.063932
0.023655,0.22924,-0.37182,-0.55822,-0.021347,-0.0061308,0.0097557,-0.0017855
-0.20245,-0.42907,0.12448,0.31647,0.073149,-0.0064855,-0.030671,-0.089939
0.13281,-0.050815,-0.70416,-0.5337,-0.10486,-0.021311,0.022797,0.072389
-0.15846,-0.49258,-0.42558,-0.35216,-0.10402,-0.074817,-0.049262,-0.070046
0.22829,0.71168,1.0045,0.58077,0.26167,0.19158,0.10414,0.083797
0.019762,0.20143,0.21777,-0.10685,-0.1651,-0.089988,-0.048641,0.03349
-0.15867,-0.77402,-0.24754,0.19909,-0.0018782,-0.037178,-0.038978,-0.049367
0.091987,0.69019,-0.25236,-0.62852,-0.029564,0.029522,0.023896,0.038268
-0.18069,-0.92474,0.66933,0.80673,-0.059744,-0.11633,-0.070568,-0.14097
0.023969,0.74259,-0.32229,-0.53698,-0.02087,0.025594,0.014107,0.0069879
0.37059,0.52725,0.18211,0.53924,0.31482,0.21357,0.14567,0.1779
-0.38276,-0.43379,-0.67427,-0.58798,-0.2706,-0.17701,-0.12074,-0.13558
0.15444,0.025683,-0.092393,0.41674,0.10586,0.049407,0.058844,0.098138
-0.19807,-0.71815,-0.5318,-0.63683,-0.13444,-0.10721,-0.089076,-0.14421
0.25405,0.37522,0.76517,0.63728,0.34326,0.22787,0.10704,0.12948
0.0095436,-0.066487,0.23344,-0.28274,-0.20477,-0.10989,-0.025208,-0.0108
-0.12042,0.72716,0.69562,0.26799,-0.061277,-0.035057,-0.033307,-0.042067
0.26929,-0.14286,-0.10659,0.16524,0.17109,0.11604,0.090025,0.13674
-0.49389,-0.85446,-0.65194,-0.70647,-0.42983,-0.26611,-0.17116,-0.24041
0.19164,0.28364,0.065294,0.22676,0.20691,0.11561,0.058148,0.091967
0.21731,-0.020472,-0.35334,0.44777,0.32511,0.19932,0.10641,0.11058
-0.24352,0.16027,-0.060323,-0.14333,-0.30729,-0.18592,-0.088185,-0.11377
-0.087319,-0.076041,0.12476,0.0053571,-0.00010006,-0.02338,-0.024766,-0.056911
0.19581,0.35919,0.30892,-0.23105,0.069599,0.070862,0.047622,0.05544
0.045213,-0.27559,-0.068906,-0.74881,-0.11953,-0.050724,-0.073314,0.075648
-0.014432,0.54963,0.018416,0.65018,0.23839,0.096775,0.10517,-0.019153
-0.099863,-0.14407,-0.37825,0.0067852,-0.24719,-0.13503,-0.049577,-0.056866
-0.0083767,-0.5935,0.39977,0.7108,0.18819,0.089292,0.016842,0.0091922
0.15727,0.47327,-0.093608,-0.43771,0.011107,0.034418,0.053747,0.069071
-0.042142,-0.79526,0.26168,0.20861,0.046785,0.042815,-0.025744,-0.0030837
-0.077326,0.24314,-0.39536,-0.53496,-0.098478,-0.058757,-0.035148,-0.059811
0.11237,0.13788,0.63274,0.55788,0.064765,0.025382,0.048087,0.077661
-0.29484,-0.28847,-0.62354,-0.7257,-0.28574,-0.18995,-0.13601,-0.15387
0.12199,0.51181,0.59921,0.088723,0.036652,0.037111,0.029537,0.057726
-0.012498,0.34979,-0.701,0.32818,0.10251,0.027077,0.0057849,-0.037605
0.27059,0.59667,-0.39171,-0.13922,0.13179,0.13988,0.082175,0.13851
-0.12979,-0.84672,0.96691,0.74482,0.095061,0.032535,0.016996,-0.030671
-0.087859,-0.27506,-0.27592,-0.75522,-0.20872,-0.10667,-0.033059,-0.060261
-0.07141,-0.33321,-0.21323,-0.23899,-0.10566,-0.066091,-0.028605,-0.03567
0.19408,0.28982,0.29109,0.50142,0.29654,0.16264,0.069612,0.11389
0.014488,0.080174,0.031247,-0.26922,-0.086822,-0.04507,-0.019554,0.013853
-0.14794,-0.0042556,-0.74437,0.12921,-0.17692,-0.13421,-0.069446,-0.093205
-0.080914,-0.13642,0.68162,-0.29487,-0.0048491,0.012657,-0.025218,-0.019382
0.2403,0.22215,0.22931,0.16901,0.21033,0.13007,0.097761,0.095115
-0.21442,0.20258,-0.39285,0.15903,-0.047717,-0.055321,-0.043916,-0.10867
0.047844,-0.29297,0.40551,0.37313,-0.022154,-0.01228,-0.035825,0.0024268
0.13665,0.49398,-0.16879,-0.12641,0.090615,0.094956,0.075441,0.092676
-0.12041,-0.41571,-0.12045,-0.43618,-0.25735,-0.15582,-0.08502,-0.056731
-0.021483,0.01965,-0.38437,-0.14686,0.065874,0.039589,0.037311,-0.0086819
0.11899,0.051002,0.08027,0.181,0.051776,0.032135,0.043533,0.040768
0.032984,-0.055523,0.14106,0.19753,0.059281,0.039888,0.026677,0.074955
-0.055503,-0.27524,-0.32879,0.15489,0.088147,0.030921,-0.0063136,-0.087005
-0.10972,0.11358,0.095747,-0.49063,-0.21325,-0.12815,-0.071917,-0.032214
0.040519,0.33508,0.84437,0.28893,0.11614,0.054479,-0.0067318,0.035287
0.16005,0.10834,0.4223,0.030939,0.068779,0.047461,0.040482,0.044698
-0.18054,-0.17297,-0.63529,-0.30381,-0.12829,-0.047435,-0.023928,-0.066422
-0.081493,-0.17526,-0.042499,0.51256,-0.044753,-0.073462,-0.043204,-0.063091
0.17805,0.038302,-0.25272,-0.2831,0.14822,0.14196,0.092847,0.10262
-0.032152,-0.36819,-0.62879,-0.18748,-0.14243,-0.095687,-0.036681,-0.036716
-0.23299,-0.082762,-0.059428,-0.12661,-0.11151,-0.10602,-0.087115,-0.1048
0.2495,0.3922,0.75118,0.59065,0.31149,0.21302,0.11412,0.14941
0.1275,0.66078,-0.2963,-0.20432,-0.029872,-0.0056007,0.028293,0.046816
-0.098738,-0.2936,0.41076,0.13171,-0.018969,-0.027697,-0.04779,-0.029746
0.015392,0.18892,0.41337,0.0381,0.015262,0.0056296,0.02604,0.020786
-0.17219,-0.92168,-0.97715,-0.48407,-0.2796,-0.16407,-0.071255,-0.14621
0.11016,0.29662,0.47607,-0.247,0.14262,0.11879,0.057938,0.085436
0.055966,0.38346,0.0057907,0.28003,0.062784,0.025602,-0.0012019,0.011651
-0.1877,-0.41672,0.044641,0.18936,-0.065946,-0.076734,-0.069526,-0.094806
0.16747,0.28367,0.30486,0.64276,0.17092,0.10868,0.071486,0.10951
0.027658,-0.038912,-0.26669,-0.37052,-0.069617,-0.019438,6.5934e-05,0.0074727
-0.24722,-0.31939,-0.15864,-0.11144,-0.15374,-0.12462,-0.095894,-0.12708
0.078158,0.0719,0.1437,-0.16871,0.044642,0.035957,0.049805,0.050153
0.24702,0.48446,-0.88046,-0.54427,0.13591,0.13482,0.094029,0.11008
-0.22415,-0.49781,-0.16302,0.33135,-0.137,-0.14002,-0.10333,-0.12653
0.055695,0.21576,0.8889,0.28634,0.030948,0.032021,0.020525,0.04365
0.094263,0.19057,0.10183,-0.15529,-0.0088809,0.033707,0.035939,0.058055
-0.023115,-0.049338,0.22152,0.13992,0.078671,0.013088,0.0051697,-0.013329
-0.10987,-0.44316,0.45084,0.3442,-0.020186,-0.014876,-0.025356,-0.038155
0.11427,0.06793,-0.51138,-0.24542,0.075725,0.042745,0.021948,0.022174
-0.0076918,0.58055,-0.56316,0.51979,-0.049376,-0.041432,-0.025294,-0.035779
-0.069748,-0.020043,0.34911,-0.78891,-0.10794,-0.041496,-0.026802,-0.0089372
-0.0090263,-0.30114,-0.39244,-0.78666,-0.015046,0.010946,0.025131,0.017017
-0.15268,-0.45358,0.37767,0.67038,-0.044517,-0.071602,-0.041218,-0.051146
0.18819,0.61517,-0.14058,0.60185,0.21025,0.12527,0.063593,0.076315
-0.023957,-0.44531,0.39718,-0.6053,-0.085667,-0.030612,-0.019283,-0.060853
-0.045613,0.14954,-0.12983,0.62265,-0.047892,-0.046285,-0.039268,0.037895
0.21001,0.14681,-0.69891,0.084524,0.2083,0.15723,0.097923,0.11505
-0.022464,0.036479,0.67523,-0.52426,-0.15877,-0.075512,-0.029165,-0.079361
-0.21214,-0.25418,-0.33443,-0.096221,-0.17835,-0.14222,-0.076512,-0.092439
0.13238,0.54476,0.25619,-0.22883,0.1825,0.13736,0.065361,0.075435
-0.05242,-0.42349,-0.048042,0.41633,-0.028219,-0.048868,-0.0020301,-0.021494
-0.048794,-0.18974,-0.30838,-0.34696,-0.04454,-0.021089,-0.036684,0.0069871
0.095507,0.42387,0.87891,0.89593,0.14073,0.048648,0.023588,0.035546
-0.20614,-0.45383,-0.95294,-0.49495,-0.16935,-0.090199,-0.063829,-0.13138
0.11601,0.109,0.92249,0.10714,0.14774,0.10832,0.052089,0.07631
0.045824,0.28527,-0.089091,0.096769,-0.036076,-0.036733,0.011338,0.025607
0.12179,0.22431,-0.71346,-0.5501,0.096359,0.098198,0.07106,0.052194
-0.078591,-0.20489,-0.017206,0.34948,-0.074863,-0.066431,-0.050627,-0.062984
0.061286,0.24373,0.50724,-0.34572,-0.012406,0.0073063,-0.010457,0.046946
-0.10738,-0.62606,-0.50365,0.015312,-0.052532,-0.040568,-0.019591,-0.040128
-0.022031,-0.17099,-0.5198,0.077603,-0.045541,-0.022447,-0.023221,0.027296
-0.057021,0.12279,0.76374,0.47835,-0.051222,-0.046845,-0.013058,-0.063078
-0.0079839,0.2795,0.088879,-0.4675,-0.050227,-0.0028887,0.0038618,-0.029497
0.119,0.035467,-0.054736,0.020123,0.18026,0.1035,0.051926,0.074113
-0.033496,-0.029772,0.84257,0.52126,0.018869,-0.02264,-0.00071909,-0.024771
0.16923,0.20028,-0.47102,-0.25631,0.11657,0.073447,0.049855,0.081006
-0.27138,-0.23936,-0.28163,-0.25785,-0.221,-0.13848,-0.092701,-0.13127
0.020427,0.14334,-0.40852,0.45853,0.14601,0.076193,0.024916,0.041919
0.091405,-0.21822,-0.39026,-0.23745,0.019923,0.037201,0.019716,0.038019
-0.090767,-0.19079,0.13368,-0.46042,-0.18863,-0.1083,-0.069732,-0.049733
0.25325,0.66148,1.0409,0.43454,0.18048,0.12232,0.099597,0.1293
-0.074336,-0.10113,-0.21112,-0.23257,-0.12649,-0.054141,-0.03564,-0.074494
-0.12306,0.051482,-0.084317,0.51864,0.028146,-0.030074,-0.023153,-0.045163
0.18286,-0.13698,0.57894,-0.045667,0.15054,0.11508,0.08168,0.099072
-0.23626,-0.62223,-1.0297,-0.48312,-0.20481,-0.12711,-0.080955,-0.11898
0.0019271,0.0035732,-0.10673,-0.47276,-0.083513,-0.037732,-0.011175,0.011516
0.015357,0.2379,0.30208,0.72274,0.048074,-0.0065224,-0.021257,-0.0089624
0.0089712,0.22921,-0.40302,0.22427,0.083626,0.030453,0.029925,0.023638
0.071222,0.025294,0.075877,-0.28581,0.11219,0.090489,0.04148,0.016764
-0.076428,-0.15497,0.30742,-0.010492,-0.06676,-0.043579,-0.040577,-0.020558
0.09966,0.49108,0.41852,-0.43766,-0.014023,0.020091,0.010907,0.02985
0.023005,-0.064872,0.58579,0.38592,0.0053705,0.024359,0.016626,0.027948
0.045813,-0.14316,-0.69081,0.65948,0.076891,0.016179,0.039197,0.020701
-0.074493,-0.23057,-0.46166,0.032254,-0.035135,-0.059586,-0.030882,-0.039144
-0.18294,-0.56548,-0.052058,-0.84046,-0.19968,-0.11001,-0.076738,-0.074201
0.23425,0.75372,-0.020872,-0.20179,0.14387,0.12952,0.073092,0.086476
-0.11408,-0.019679,0.7478,0.40986,-0.0061517,-0.037355,-0.042737,-0.065858
-0.011112,-0.28795,-0.33659,-0.3145,-0.1197,-0.041214,0.0051333,0.0070859
0.16667,0.49296,-0.10143,0.77279,0.2401,0.14852,0.083701,0.093877
0.051301,-0.092668,0.15478,-0.30216,0.081068,0.039317,0.013253,0.014679
-0.4041,-0.45155,-0.73673,-0.55721,-0.44781,-0.27509,-0.18264,-0.19906
0.11371,-0.020634,0.57408,0.45253,0.29507,0.13535,0.066586,0.085978
0.082607,0.17006,0.43058,-0.31976,-0.15002,-0.06469,0.011241,0.018903
-0.019321,-0.19044,-0.86431,0.32025,0.10099,0.07093,0.042222,0.0066988
0.16874,0.4617,0.051074,-0.32604,0.072576,0.074311,0.050317,0.073444
0.030658,0.27582,0.71234,0.68791,0.062321,0.00089355,-0.011339,0.00083329
-0.19088,-0.36484,-0.61745,-0.20276,-0.18732,-0.12534,-0.080389,-0.10156
0.058746,-0.061744,0.27875,-0.23809,0.018786,0.023985,0.014793,0.016204
-0.025641,-0.18974,0.86221,0.22242,0.039497,0.019143,0.00047904,-0.028938
-0.046383,-0.09215,-0.32327,-0.22072,-0.047861,-0.0074114,-0.014228,0.05948
0.034726,0.23186,-0.46849,-0.31795,0.0057665,0.0061974,0.017337,-0.00027887
0.0059652,-0.13074,-0.057884,0.58069,0.058771,0.020084,0.016923,0.002228
0.038618,-0.030661,-0.60099,-0.03584,0.055562,0.025524,0.015746,0.019697
0.062048,0.39963,0.59602,-0.40169,-0.020181,0.013843,0.0060607,-0.026287
-0.033132,-0.14505,0.11816,0.29147,0.018664,0.01564,0.0036586,-0.003005
-0.20755,-0.079984,-0.16893,-0.63744,-0.27319,-0.17251,-0.10057,-0.082199
0.21904,0.22592,-0.63721,0.1947,0.21408,0.12138,0.076553,0.11928
-0.07289,-0.064839,0.76448,0.77298,-0.018728,-0.047444,-0.027096,-0.046517
-0.051309,-0.36717,-0.44637,0.073828,-0.017494,-0.021879,-0.0048967,-0.016572
0.057903,0.13189,0.74212,-0.42813,0.023482,0.050638,0.026222,0.0064429
0.028587,-0.073557,-0.11117,-0.041906,0.026914,0.022602,0.011663,0.022805
-0.045471,0.19947,-0.3307,-0.4931,-0.045732,-0.019372,-0.00962,-0.022141
0.14006,0.056569,0.86893,0.37307,0.14945,0.12033,0.063635,0.097941
-0.12647,-0.26387,-0.69274,0.31079,-0.14556,-0.1287,-0.081505,-0.078332
-0.072499,-0.0088533,0.020984,-0.021222,-0.11094,-0.063797,-0.039278,-0.043716
0.10571,-0.14602,0.14245,-0.23893,0.11197,0.064355,0.057054,0.044958
-0.045777,0.17484,-0.87075,-0.13863,-0.016659,0.0049735,-0.019409,-0.023716
0.097511,0.84034,0.5083,0.22563,0.143,0.069826,0.043649,0.054678
-0.081803,-0.27287,0.1419,-0.11355,-0.1285,-0.077584,-0.035029,-0.040199
-0.044479,-0.62531,-0.75775,0.065396,0.02774,0.015579,0.010344,-0.011251
-0.032218,0.17423,0.27552,0.23612,-0.029133,-0.025662,-0.015248,-0.014311
0.088475,-0.29408,0.81839,-0.14856,-0.0099233,-0.0056573,0.013587,0.02146
-0.0097962,0.25569,-0.19469,-0.070352,0.054601,0.044929,-0.0042905,-0.03622
0.072036,0.2845,0.62795,0.23425,-0.045706,-0.021609,0.0018254,0.094328
-0.064041,-0.3764,-0.85023,-0.38266,-0.0051692,-0.0092182,-0.014646,-0.02414
0.02746,0.15365,-0.098592,-0.19216,-0.0024429,0.012399,0.0089375,0.006866
-0.075389,-0.37596,-0.043374,0.12889,0.041497,-0.01108,0.0022171,-0.039344
0.01782,0.31569,0.050992,-0.1366,-0.044624,0.02196,0.0040181,-0.022395
0.017724,0.14146,0.72412,0.33828,-0.010633,-0.013761,0.0061315,0.0027205
0.056838,0.067036,-0.30389,0.50127,0.13535,0.060894,0.031508,0.043521
-0.076006,0.10263,-0.59243,-0.55637,-0.13084,-0.067296,-0.029709,-0.025235
0.072199,-0.0095873,-0.29248,0.15821,0.11159,0.054054,0.0096094,0.022847
-0.053219,-0.16224,0.13437,-0.014078,-0.12292,-0.075673,-0.046025,-0.0076351
