0.027433,0.061599,0.22244,0.042637,0.010151,0.024666,0.02193,0.013821
0.019137,0.027706,0.020077,0.074847,0.0095523,-0.0054447,-0.00080423,0.0011374
0.036112,0.0025947,0.038088,-0.11245,-0.015514,-0.004014,0.00079286,0.0048498
-0.19663,-0.014664,0.34314,0.050838,0.021046,-0.00253,-0.012579,-0.038072
-0.040543,-0.13448,-0.64621,-0.068407,-0.036743,-0.016904,-0.033525,-0.018989
0.43957,0.07968,-0.080662,0.013895,-0.024459,0.0072652,0.038986,0.12377
0.29637,0.18181,0.22662,0.28192,0.081733,0.05413,0.071605,0.11601
-0.54161,-0.10181,-0.051423,-0.068962,-0.006845,-0.017042,-0.029843,-0.11302
-0.089747,-0.052157,0.10338,-0.18674,-0.00078942,-0.026501,-0.062427,-0.12579
-0.19761,-0.090225,-0.024229,-0.086074,-0.048271,-0.028686,-0.026021,-0.062223
0.060329,0.019763,0.10074,-0.0077099,-0.00067383,0.0080806,0.0095308,0.016451
0.33732,0.13894,-0.010599,0.15945,0.024885,0.029649,0.060615,0.13537
-0.088155,0.019131,0.097232,-0.067335,-0.018527,-0.010306,-0.01247,-0.0083971
-0.055651,-0.11157,-0.44974,-0.077572,0.017317,-0.0097862,-0.02132,-0.030631
-0.14098,-0.13509,0.22306,0.035164,-0.024211,-0.015475,-0.035561,-0.055649
0.030585,0.042274,0.090407,0.066741,-0.0030295,-0.011887,-0.0080258,0.010002
0.49497,0.19279,0.11816,0.34311,0.088008,0.078598,0.068877,0.12593
-0.0034623,-0.0061054,-0.14256,-0.28717,-0.040867,-0.0026526,0.045961,0.063378
-0.42508,0.090984,0.054509,0.071056,-0.0074795,0.0089805,-0.0076516,-0.063145
0.23033,0.035395,0.1983,0.039984,0.039298,0.0031346,-0.015256,-0.021899
-0.50464,-0.36336,-0.58067,-0.51489,-0.14285,-0.091249,-0.071983,-0.15866
0.78775,0.28341,0.11505,0.19533,0.055676,0.045831,0.086742,0.19747
-0.37782,0.03779,0.29372,0.17209,0.041704,-0.015073,-0.039579,-0.10161
-0.24113,-0.36451,0.08202,0.074364,0.011369,-0.031,-0.099221,-0.14805
-0.32814,-0.061255,-0.30654,-0.19597,-0.050022,-0.032019,-0.02891,-0.03311
0.16508,0.13105,0.076327,0.12234,0.014661,0.045728,0.07099,0.13669
0.31619,0.075704,0.014797,0.03996,0.034224,0.055061,0.053383,0.098329
0.18604,0.072745,0.011313,-0.074229,0.0090493,0.02034,0.044463,0.06451
0.23949,0.27236,0.24728,0.17077,-0.03738,0.0044861,0.037243,0.0984
0.36838,-0.0050571,-0.010796,0.0083648,0.05092,-0.0082446,-0.03823,-0.081697
-0.81906,-0.10467,-0.18464,-0.2822,-0.031238,-0.041878,-0.033582,-0.1255
-0.25523,-0.11473,-0.12626,-0.00049313,-0.011042,-0.02701,-0.050735,-0.089348
-0.013626,-0.36587,-0.18813,0.022469,-0.061013,-0.04281,-0.043294,-0.037348
0.23106,0.20242,0.15196,0.19026,0.052642,0.05033,0.019526,0.037123
0.19564,-0.028214,0.11902,0.039864,0.024771,0.024987,0.043609,0.070924
-0.30837,0.10611,0.14089,-0.17991,-0.07464,0.021166,0.052144,0.079556
0.35936,0.16839,0.37961,0.3121,0.16829,0.030732,-0.0018952,0.024217
0.0035686,-0.035767,-0.36987,-0.35024,-0.090232,-0.04788,-0.017025,-0.055558
-0.18039,-0.052359,-0.44494,-0.086675,-0.045412,-0.019034,-0.032332,-0.03424
-0.075547,-0.19324,0.34908,0.24625,-0.0016922,-0.046185,-0.02435,-0.067587
0.10667,0.049663,-0.33899,-0.36405,-0.013395,0.012103,0.014814,0.040107
0.2093,0.28562,0.2969,0.25689,0.091798,0.062956,0.06185,0.10943
-0.19021,-0.16538,0.079072,0.087192,-0.052843,-0.017836,-0.054962,-0.046971
-0.15485,0.094728,0.080087,-0.029281,-0.032856,-0.0031657,0.00046781,-0.022781
0.14347,-0.051389,-0.20584,0.15608,0.011414,-0.0022147,0.01732,-0.0055113
0.017687,-0.19729,-0.011602,0.015707,0.056654,0.0082551,-0.012167,-0.049896
-0.17193,0.024761,0.14009,-0.047173,0.0012729,0.012064,0.0057215,0.023678
0.18513,0.037377,0.17892,0.19133,0.0091852,0.024037,-0.0072781,0.027596
-0.0037576,0.067697,-0.42696,-0.7,-0.013559,-0.011393,0.042356,0.047607
-0.22218,-0.10303,0.14958,-0.049234,-0.10621,-0.055946,-0.048796,-0.080636
0.20199,0.047712,0.07927,0.34055,0.027992,-0.016398,0.00019924,0.017475
0.10428,0.088243,-0.27182,-0.17641,0.013987,0.028953,0.032808,0.052409
-0.055298,0.070381,0.38439,0.53562,0.10177,0.033437,-0.013668,-0.054449
0.026686,0.14716,-0.10911,-0.18506,-0.0368,-0.033668,0.0013324,0.032419
0.05221,-0.18411,-0.081008,-0.024802,-0.058029,-0.0075697,-0.0080326,0.015883
-0.096598,0.051938,-0.15666,0.039536,0.03796,0.034396,0.020995,0.036568
-0.34156,-0.17475,0.31223,-0.17326,-0.038068,-0.032074,-0.05182,-0.12398
0.075945,0.077425,0.0054227,0.42046,0.08869,0.027876,0.00053829,-0.027665
0.14167,0.018542,-0.13147,-0.50201,-0.089745,0.0034987,0.022256,0.045034
0.013398,-0.21743,-0.074487,-0.16917,0.01246,-0.003754,0.013658,0.0090179
0.28611,-0.081905,0.036446,0.30852,0.04374,0.021376,0.013952,0.075941
0.17136,-0.019921,-0.12598,-0.24884,-0.019238,-0.023201,0.015259,0.027511
-0.54188,0.035572,0.2203,0.44837,-0.059086,-0.028679,-0.021737,-0.065838
0.098756,0.060364,0.052473,-0.075431,0.049457,-0.0033625,-0.011476,0.0066306
-0.032836,0.40678,-0.011897,0.047989,0.033221,0.060231,0.014389,-0.013341
0.062102,0.21799,-0.14464,-0.36018,-0.045073,-0.056767,-0.030411,-0.032569
-0.15665,-0.070354,-0.056967,0.099037,0.010016,0.0051069,-0.0054483,-0.012566
0.27087,0.10869,0.06312,0.17586,0.011003,0.011732,0.011122,0.053993
-0.10135,-0.08999,-0.03503,-0.26263,-0.026585,-0.0052901,0.011597,0.010496
0.085626,-0.46685,0.1323,0.28334,0.022076,0.0090925,-0.027262,-0.049523
0.058253,-0.10316,0.21302,0.28228,0.055218,0.039566,0.043193,0.045723
-0.21439,-0.43802,-0.082162,-0.44548,-0.044512,-0.03085,-0.011253,-0.016239
0.088802,-0.066034,-0.58117,-0.071406,-0.019372,-0.030196,0.012587,0.014706
-0.046497,0.36948,0.24793,-0.17278,-0.041186,0.033684,0.0053004,0.0059368
0.053238,0.196,0.35927,0.40779,0.054273,-0.01121,-0.025418,-0.026676
-0.11022,0.3013,-0.26942,-0.062935,-0.0062287,0.0068078,0.0062183,-0.0047342
-0.06657,0.17663,0.10495,0.095402,-0.035051,-0.029678,-0.032746,-0.021724
0.021066,-0.17163,-0.39228,-0.42986,-0.063484,-0.01935,-0.0095961,-0.030566
0.18399,0.19154,0.32431,-0.069703,0.13472,0.0688,0.036564,0.054767
0.31969,0.021575,0.44076,0.94684,0.043334,0.0079906,0.05106,0.10923
-0.050222,-0.22809,-0.31861,-0.54769,-0.08066,-0.030073,-0.036364,-0.054861
-0.72493,-0.41051,-0.32365,-0.041408,0.082175,-0.022036,-0.022486,-0.094011
0.44171,0.044611,0.29029,0.17327,-0.046976,0.039955,-0.016553,0.030595
-0.052087,0.11796,0.076021,0.023939,0.00037509,0.015462,0.0441,0.037563
0.034941,-0.024414,-0.45932,-0.48961,-0.11919,-0.10301,-0.012216,-0.018385
-0.11745,-0.17151,0.61467,0.13462,-0.0062744,0.044341,-0.021244,-0.027647
0.13232,0.080208,-0.27801,0.18971,0.035884,0.020433,0.0093743,0.025795
-0.081353,0.12974,-0.39976,-0.38146,0.0011363,-0.033763,0.0016331,-0.021651
-0.014477,0.12729,0.31567,0.49717,0.094127,0.061593,0.0024412,-0.0054892
0.10807,-0.027793,-0.24531,-0.37249,0.019019,-0.013907,0.011728,0.035493
-0.11091,0.3037,0.67793,0.40361,-0.10667,0.020634,-0.0019379,-0.015878
0.38392,-0.18747,0.047847,0.31106,0.21663,-0.0072237,0.00023532,0.051041
-0.4621,-0.16521,-0.45579,-0.47924,-0.17626,-0.051272,-0.021143,-0.061205
0.092832,-0.014685,-0.35762,-0.2513,-0.068076,0.012843,0.003909,0.013796
0.1731,0.12754,0.52775,0.41293,0.039598,-0.010697,0.0047968,0.04085
0.10622,-0.1332,0.02597,-0.26397,0.11418,0.03409,0.036032,0.050519
-0.65511,-0.19867,-0.24813,-0.035431,-0.063905,-0.016845,-0.019603,-0.15291
0.42016,0.3198,0.15668,0.33836,-0.018274,0.0086749,-0.0057216,0.039953
-0.074316,-0.078221,-0.19053,-0.36242,-0.084388,0.0096334,-0.023586,-0.0032917
-0.021467,-0.11051,0.17839,0.46382,0.11376,-0.013246,-0.025905,-0.039685
0.57059,0.099676,-0.33047,-0.86961,-0.16471,-0.012283,0.042471,0.11141
-0.61902,-0.15676,0.24381,0.41952,0.20648,0.0054801,-0.0055521,-0.06472
0.19023,0.00413,-0.15368,-0.090097,-0.11541,-0.045263,-0.0056565,0.02638
0.013268,0.40254,0.56244,0.78883,0.010715,0.062436,0.0031302,-0.0055887
-0.0097603,-0.11165,-0.17121,-0.46823,0.26445,0.031784,0.083104,0.073661
-0.16798,-0.1353,-0.050876,0.37924,-0.17514,-0.028087,-0.055197,-0.072268
-0.039112,-0.13334,-0.16295,-0.49061,-0.012059,-0.016136,-0.029463,-0.0065827
0.2057,0.25741,-0.3117,-0.34403,-0.16133,0.0044327,0.011386,0.027749
0.01264,0.0026471,0.44196,0.37456,0.071593,-0.0062046,-0.018935,-0.03245
-0.2347,-0.00031721,-0.43055,-0.49621,-0.14967,0.013768,-0.0033719,-0.039188
0.41725,0.093702,0.30851,0.75095,0.2607,0.009167,0.034737,0.046456
-0.18772,-0.25019,-0.079694,-0.17581,-0.017531,-0.059304,-0.037125,-0.0019314
0.043782,-0.088083,0.43084,0.11118,0.11743,0.04277,0.0080092,0.0035128
-0.1388,-0.39683,-0.33063,-0.18122,-0.091967,-0.012459,0.014295,0.0007541
-0.10327,-0.27108,-0.61486,-0.62165,-0.13765,-0.02925,0.0054736,-0.009764
0.0014774,0.38743,0.74731,0.24202,-0.034999,0.031928,-0.0027002,-0.019907
0.22991,0.62613,-0.0062227,0.71844,0.052166,0.038666,0.013145,0.040782
0.0040118,0.43334,0.0334,-0.089349,0.038054,0.014658,0.037156,0.078524
0.10544,0.37965,0.32988,0.1467,-0.030458,-0.055641,-0.040357,-0.047455
-0.18384,-0.40341,-0.49552,0.067126,0.088617,0.0073688,-0.032192,-0.071708
-0.11285,-0.21262,-0.10047,-0.3343,0.043319,-0.0074481,0.0067711,0.0056489
-0.016423,-0.66083,-0.53037,-0.84961,-0.02622,-0.014402,-0.0094366,-0.018509
0.036138,-0.58138,0.5862,0.57695,0.051447,0.056588,0.0052517,0.012183
-0.032621,-0.27808,-0.072627,0.020737,-0.13792,-0.029021,-0.011421,-0.011484
0.2539,0.18367,0.09379,-0.20572,-0.086335,-0.013499,0.058009,0.074679
-0.081607,0.44212,0.044581,0.17977,-0.11355,-0.0062135,-0.0049821,0.0050489
0.029662,0.68667,-0.39619,-0.51057,0.20307,-0.0070947,-0.012783,-0.0095994
0.015382,0.88899,0.64713,0.95424,-0.01073,-0.00041575,-0.012295,-0.0086336
-0.056228,-0.096954,0.23446,0.73076,0.183,0.060795,-0.0036684,-0.023671
-0.069655,-0.37001,-0.56907,-0.86448,0.057712,0.0047314,0.0050549,-0.0081534
-0.041342,-0.55712,0.43312,0.06027,-0.2073,-0.043563,0.0058113,0.022134
-0.072552,-0.34835,-0.59342,-0.46353,-0.0971,-0.02936,-0.017236,-0.042114
0.072523,-0.070996,-0.12988,0.042118,0.012582,0.031783,0.0061049,0.010351
0.3259,-0.15529,0.50934,0.51131,0.089968,0.022807,0.028955,0.062854
-0.37991,0.10123,-0.4402,-0.77418,-0.013553,-0.017034,-0.026683,-0.071492
0.035973,0.15036,0.1504,-0.021014,0.069454,-0.01719,0.011302,0.03759
0.067945,0.089572,0.060232,0.12927,-0.043202,-0.039925,-0.036468,-0.03915
0.045312,0.20597,0.17812,0.45787,-0.053777,0.063363,0.025639,0.057835
-0.039855,0.1217,-0.061251,-0.02863,-0.12541,-0.043245,-0.0052463,-0.030991
-0.040598,0.065034,-0.34258,0.29863,0.188,0.022883,-0.011812,-0.017067
0.18107,-0.021613,0.013735,-0.36487,0.089993,0.026972,0.013698,0.028508
0.0202,-0.020786,0.50462,-0.14756,-0.1695,0.023144,0.03978,0.03448
-0.011078,0.095337,0.51529,0.67877,0.041722,0.01858,0.0035252,0.015546
-0.197,-0.21777,-0.328,-0.35423,0.081981,-0.041956,-0.025239,-0.029014
-0.094188,-0.31733,-0.77362,-0.40195,-0.089135,-0.05722,-0.0079008,-0.037045
0.023402,-0.0045859,0.25223,-0.1179,0.019175,0.019677,-0.030706,-0.070918
0.19569,0.1714,-0.072208,0.5269,0.02293,-0.006212,0.023452,0.05746
-0.15347,-0.36748,-0.40152,-0.81067,-0.031719,-0.048317,-0.0015111,-0.0025316
0.087878,0.23972,0.37008,0.13793,0.073834,0.042539,-0.019279,0.01581
0.00045807,0.29983,0.37314,0.65808,-0.17557,0.048252,0.0018967,0.011894
-0.093294,0.3067,0.019341,0.17574,-0.0055354,0.0317,0.031264,-0.0058204
0.28448,-0.15325,0.0080454,0.16269,0.14771,-0.022737,-0.0089268,0.033158
-0.17056,-0.23709,-0.21359,-0.43421,-0.1208,0.001772,-0.016952,0.0035237
0.11149,0.14719,-0.091387,-0.52121,0.1822,-0.012571,0.046166,0.013954
-0.1671,-0.29145,0.26291,0.23659,-0.044158,-0.011762,0.016065,-0.030195
0.047465,0.10185,0.080339,0.064295,0.0050784,0.0036361,-0.021745,0.0030371
0.082786,-0.10284,0.076447,0.60125,0.048604,-0.0057181,-0.020818,-0.043191
-0.25643,-0.013786,-0.71172,-0.57496,-0.17161,-0.078809,-0.020526,-0.012822
-0.032137,-0.003757,0.075072,0.098714,-0.022922,0.019154,-0.020975,-0.022806
0.18619,0.22697,0.50901,0.29588,0.08838,0.062247,0.0091981,0.0368
-0.085096,0.040491,-0.3517,-0.61345,-0.056308,0.027733,0.015596,-0.0051605
0.076095,-0.23311,-0.041876,-0.32896,-0.05051,-0.036924,-0.0014174,0.016024
0.24734,0.20373,0.37205,0.87146,0.13718,0.032694,0.028794,0.077311
-0.072695,0.068984,-0.19348,0.029393,0.1864,0.041342,0.036112,-0.016569
-0.14368,-0.35819,-0.050888,-0.3386,-0.22355,-0.097117,-0.03413,-0.015915
0.11843,0.30984,0.062842,0.13364,-0.023059,0.038806,0.005431,-0.0071805
-0.24874,-0.0083525,0.24423,0.20871,-0.049042,-0.059176,-0.032936,-0.053427
-0.12851,-0.12822,0.13501,-0.6336,0.017669,-0.024344,-0.016664,-0.022259
0.26098,0.073275,-0.13925,0.69501,0.097753,0.11166,0.0071922,0.05493
-0.055194,0.079915,-0.25683,-0.17026,0.057265,0.0048047,0.030745,-0.03262
0.18311,-0.24016,-0.62062,-0.37455,-0.096935,0.01432,0.022786,0.067116
-0.25591,-0.22062,0.68171,0.4698,-0.029566,-0.094175,-0.055611,-0.090548
0.090954,0.063542,-0.22376,-0.71635,-0.0065161,-0.039304,-0.0089528,0.018462
0.053336,0.49057,0.39312,0.69288,0.034931,0.12448,0.045749,0.066503
0.022327,-0.077466,-0.27489,-0.68293,0.033002,-0.071306,-0.00076339,-0.039972
-0.034036,-0.014002,0.1299,0.30015,-0.011069,0.014236,0.0077814,0.10514
-0.086306,-0.10785,0.17613,0.56751,0.021585,-0.032791,-0.038074,-0.17053
0.066023,0.022849,-0.1619,-0.29163,-0.1014,0.029834,0.0099318,0.046332
0.044938,-0.10806,-0.29366,0.069223,0.16905,0.092627,0.018756,0.075129
-0.050903,-0.018271,0.47962,0.19147,-0.204,-0.039939,-0.0040265,-0.053769
0.14341,0.27473,-0.3868,-0.61806,0.046905,-0.01654,0.011703,0.018293
0.079794,-0.058442,0.27977,0.025571,0.024515,-0.048279,-0.020093,-0.013796
-0.44474,-0.47146,-0.47444,-0.12551,0.041647,-0.033616,-0.021273,-0.025085
0.055663,0.15301,0.020217,0.086699,-0.14465,0.011967,0.016114,0.016025
0.060172,0.16704,0.54896,0.46773,0.20593,0.010605,-0.017075,-0.0069502
-0.02179,0.039857,-0.26072,-0.20962,0.028059,0.032896,0.02788,-0.0071216
0.2582,0.13095,0.20194,0.27872,-0.0019772,0.06342,0.018437,0.040009
0.0041057,-0.067992,-0.13232,-0.23556,-0.043891,-0.054027,-0.021754,0.0026451
-0.11871,-0.050175,0.21479,-0.26578,-0.10058,0.00074095,0.00899,-0.016822
0.13196,0.011238,-0.096977,0.53379,-0.0019768,0.016536,-0.014312,0.01339
-0.096578,0.013572,-0.053548,-0.16226,0.0094127,-0.030358,0.0098318,-0.039359
-0.19683,-0.074921,-0.3485,-0.0056972,-0.0026808,0.0082945,-0.020279,-0.026849
0.13368,-0.20694,-0.39879,-0.57546,0.042456,-0.015976,0.020178,0.073775
0.049149,0.33771,0.43567,0.41158,-0.023583,0.022,-0.0018016,-0.01181
-0.076995,-0.1965,0.13194,-0.32938,-0.18147,-0.088373,-0.016093,-0.019059
0.090322,0.021289,0.43991,0.35586,0.25953,0.067391,0.016198,0.03527
-0.058374,0.024946,-0.33784,-0.15944,-0.12032,0.028733,0.0011866,0.048597
0.016571,-0.058549,0.36393,0.61426,0.16402,-0.0010165,-0.022163,-0.13607
-0.043123,0.052937,-0.57244,-0.49944,0.07255,-0.021925,0.032037,0.035632
0.0060708,0.234,0.25597,0.11752,-0.18609,0.028142,-0.00026262,0.016954
-0.029861,-0.0091753,-0.10932,-0.30984,0.072449,-0.038934,-0.0096088,-0.011837
0.10008,-0.11653,-0.12774,0.1993,0.0010974,0.02609,-0.0036611,0.012679
-0.0020253,0.13575,0.53822,0.56988,-0.18424,0.097478,-0.013451,0.005657
0.09348,-0.53598,-0.9136,-0.97652,0.022433,-0.17687,0.00034308,-0.00057129
-0.16079,0.085376,0.53651,0.54803,0.058082,0.038782,-0.0088903,-0.028558
0.054647,0.28822,0.066321,-0.077878,-0.014017,0.041536,0.037187,0.078496
-0.065836,-0.020954,0.074223,0.27023,0.18298,-0.019526,-0.017558,-0.069894
-0.015274,-0.075679,-0.14912,-0.60904,-0.17655,-0.034049,-0.024702,0.002563
0.072903,0.13298,-0.10855,-0.094812,0.066323,0.038177,0.07029,0.08432
-0.036009,0.1061,0.29361,0.68499,0.0077631,0.042026,-0.029717,-0.067625
0.040756,-0.17892,-0.3679,-0.70203,-0.13956,-0.045041,-0.012541,-0.001006
-0.048193,-0.07307,0.22391,0.60766,0.12516,0.019673,0.0043263,-0.0056233
0.07247,-0.036981,-0.067619,-0.086788,-0.073348,-0.045069,-0.026221,0.019593
-0.049965,0.10139,-0.044151,-0.058994,0.19335,0.033656,-0.002728,-0.058346
0.030281,0.045244,0.1085,0.0086209,-0.06895,-0.010763,0.012325,0.0107
-0.061291,-0.033448,-0.17987,-0.13878,0.0045467,0.015648,0.011257,0.055246
0.12898,0.13105,0.45646,0.47712,-0.041582,0.064525,0.0098943,-0.017924
-0.085839,-0.2033,-0.2666,-0.66544,-0.14659,-0.053041,0.0084592,0.026122
-0.056756,-0.028492,-0.17317,0.30351,0.11052,0.029057,-0.016282,-0.030893
-0.017655,-0.024071,-0.07997,-0.22047,-0.0044896,-0.1038,-0.017296,-0.016781
0.031781,0.10687,0.46997,0.59072,-0.037407,0.0094071,0.0055197,0.029517
0.021273,0.090724,-0.24529,-0.46298,0.03696,0.033451,0.013145,-0.009253
0.020798,0.067701,0.06921,0.14771,-0.037159,-0.02265,0.0055723,0.0073192
0.1312,-0.15032,-0.42282,-0.61626,0.054645,0.022264,-0.0016213,0.0086171
-0.078246,0.053146,0.88923,0.47239,0.024725,0.052471,-0.024135,-0.021304
-0.13212,-0.23664,-0.82015,-0.13327,0.061278,-0.016761,0.008258,-0.012399
0.077909,0.1986,-0.18811,-0.037108,-0.070138,-0.036243,0.017347,0.035165
0.043279,0.02263,0.46089,0.5833,0.0047653,0.048922,-0.0047569,-0.019275
-0.048774,-0.053664,0.08303,-0.00033885,-0.035433,-0.050649,-0.019052,-0.027207
-0.088634,-0.030232,-0.038614,-0.043251,0.026815,0.031491,0.029107,0.027148
-0.036559,-0.039805,0.010206,-0.34997,-0.004823,-0.0025241,-0.024368,-0.027907
0.20214,0.13641,0.22026,0.19595,-0.068491,0.033763,0.0080182,0.034333
-0.05121,0.13122,-0.30167,-0.52264,0.030918,-0.055859,0.0090847,0.018624
0.14173,-0.016325,0.19916,0.28538,-0.07361,-0.04544,-0.0055267,0.042132
-0.29662,-0.36083,-0.2722,0.13273,0.13395,0.033522,-0.020174,-0.098355
0.079262,0.10578,-0.13159,-0.34789,-0.025684,0.0092578,0.01984,0.011118
0.066105,0.0090262,0.11274,0.13476,0.057138,0.030595,0.012945,0.034541
-0.00055599,-0.0019851,-0.20235,0.02166,0.023043,-0.03473,-0.017453,-0.028089
0.15998,0.27664,0.72974,0.46495,-0.11261,0.056052,-0.0010969,0.018625
-0.20283,-0.084039,-0.26042,-0.079197,-0.03779,-0.040307,-0.016192,-0.012658
-0.042541,-0.11466,-0.38137,-0.31203,0.043813,-0.0031431,0.023106,0.0032515
-0.054713,-0.080361,0.29064,0.032698,0.084777,0.011461,0.015141,0.0040241
0.13561,0.1051,-0.14181,0.17343,-0.1419,-0.0043153,-0.016719,0.013195
0.028495,-0.11281,-0.022427,-0.21086,0.066642,-0.019373,0.021255,-0.016127
0.077145,0.11739,0.28064,0.1293,0.093142,0.036353,-0.034954,-0.0059698
-0.21846,-0.064039,-0.11718,-0.095078,-0.14039,-0.017117,-0.0055268,-0.0034837
0.094602,-0.063994,0.055381,-0.070576,0.053885,-0.023822,0.01599,0.045654
0.055039,0.3197,-0.21172,-0.029906,0.02023,0.01599,0.0064059,-0.0073809
-0.11109,-0.17187,-0.060895,0.013377,0.00932,-0.015051,-0.034036,-0.045734
0.11913,-0.086681,0.13181,0.12375,0.014134,0.054831,0.035471,0.086646
0.010906,0.17602,0.13977,0.13072,-0.1676,0.006874,-0.0037489,-0.10244
-0.060929,-0.2513,-0.067341,-0.12935,0.18371,-0.06509,0.004492,-0.0034159
-0.018007,0.053527,0.020083,0.11629,-0.079649,-0.01246,-0.0024979,0.0012654
-0.078366,0.013233,-0.244,-0.094887,0.050683,0.024368,0.0062483,0.013623
0.2123,0.066614,0.033651,0.11001,-0.018797,0.037842,0.022609,0.065348
-0.20696,-0.10519,0.066383,-0.20088,-0.061619,-0.042102,-0.039614,-0.0072885
0.11865,0.25691,0.27003,0.10357,0.046768,0.034735,-0.0165,-0.00098998
-0.090567,-0.20559,-0.20617,-0.48543,0.008721,-0.020592,0.006024,-0.040754
0.002458,-0.015894,0.12186,0.72736,0.041989,0.0028813,0.0125,0.0061101
0.0075272,0.12245,-0.02848,-0.4918,-0.0029601,0.01134,-0.0046047,-0.016832
0.06484,-0.1197,-0.27657,0.1785,-0.017776,-0.034413,0.001908,0.015246
0.11061,0.068734,0.47647,0.48948,-0.026686,0.029502,0.0088924,0.0084762
-0.029016,0.2799,-0.5847,-0.53438,-0.076994,-0.015869,0.0087306,0.025322
-0.1298,-0.4799,0.20908,-0.0018313,0.089088,0.024588,0.017108,-0.035746
0.12634,0.092813,0.12891,-0.1159,-0.059338,-0.028984,-0.036362,-0.034028
-0.082623,0.098812,0.024521,0.2088,0.040832,0.026417,0.020011,0.014913
-0.14038,-0.20449,-0.18336,-0.38828,0.030929,-0.028018,-0.0093238,0.032951
-0.046859,0.10472,0.25497,0.54428,-0.025896,0.0030333,-0.038679,-0.0034574
0.19888,0.29215,0.16836,0.26237,0.073958,0.033717,0.048918,0.069526
0.082696,0.17054,-0.10531,-0.040413,-0.059888,0.017307,-0.012313,-0.068725
-0.19843,-0.51757,-0.34411,-0.51335,-0.0446,-0.085064,-0.003716,-0.02012
0.12259,0.064371,-0.28602,-0.17936,0.025918,0.023696,-0.011264,-0.011531
0.038888,0.15165,0.44867,0.38559,0.081091,0.046908,0.043173,0.027151
-0.042979,-0.23103,-0.026295,-0.28365,-0.19188,-0.038736,-0.027875,0.0021062
-0.037399,0.0194,-0.44221,-0.26081,0.066075,-0.0066502,-0.0056124,-0.0084709
0.047009,0.084111,0.5534,0.44266,0.12034,0.025862,-0.0071723,-0.020025
-0.056426,0.19089,0.21667,0.33744,-0.0058387,0.0038645,0.0065654,0.030189
-0.020592,-0.065751,-0.32375,-0.45854,-0.031277,-0.0026824,0.0044139,0.009631
0.01316,0.087811,0.55132,0.50602,-0.041846,0.037087,0.0098835,-0.011123
0.15395,-0.15337,-0.30491,-0.27297,0.040816,-0.025595,0.023064,0.046304
-0.2229,0.038334,-0.092673,0.10512,-0.0954,-0.019042,-0.018427,-0.028774
0.20381,-0.14228,-0.65813,-0.44383,-0.03595,-0.060427,-0.036314,-0.04859
-0.095805,-0.039301,0.30427,0.13756,0.063369,0.037977,-0.0069838,0.0027686
-0.19043,0.019066,-0.15459,0.064803,0.1091,0.018762,-0.00056841,-0.038466
0.11682,0.21259,0.13549,0.087201,0.0075347,-0.00039577,0.04558,0.077963
0.038147,0.033566,0.44689,0.21458,-0.06192,0.020046,-0.0012709,0.0084644
0.12103,-0.080491,-0.20694,-0.27523,-0.0060247,0.017962,0.0073017,0.026497
-0.033125,-0.028218,0.083344,-0.40755,-0.059789,-0.022051,0.0086949,-0.03995
-0.019036,-0.028803,0.044093,0.19121,0.080882,-0.014005,-0.03632,-0.011464
0.083611,-0.090718,0.046826,0.21416,0.017146,0.010752,-0.010741,-0.0056042
-0.25049,0.1133,-0.12536,-0.11635,-0.11049,-0.041734,-0.00067346,-0.022781
0.094031,-0.089651,0.26261,0.72396,0.018463,0.023583,0.0015703,0.045968
0.068826,0.15083,-0.63972,-0.69671,0.045073,0.011096,0.034972,-0.026306
-0.14734,-0.10398,0.13938,0.12482,-0.037906,0.022076,-0.0098932,-0.013393
0.14835,0.15258,0.44945,0.40129,0.090399,-0.014064,-0.031507,0.021895
-0.05952,-0.064748,-0.52081,-0.40463,-0.10084,-0.035057,0.024766,0.040234
0.049975,-0.12357,0.060824,-0.06325,0.076072,0.021422,0.010421,0.0023731
-0.13176,0.12482,0.052047,-0.11593,0.0039319,0.0068391,0.0035122,-0.06051
0.13826,-0.06073,0.28786,-0.046481,0.057546,0.030565,0.0039824,0.054793
-0.0065406,0.0012638,-0.13174,-0.039292,-0.099272,-0.024484,-0.027245,-0.057706
