-0.0010695,0.049717,0.57893,0.079876,0.018397,0.0075538,-0.0059302,-0.011479
-0.065671,-0.22535,-0.8325,-0.18784,-0.061188,-0.053833,-0.037613,-0.042016
0.025123,0.18856,0.57372,0.12145,0.023225,0.025162,0.016431,0.028901
-0.017199,-0.060542,0.021132,-0.085278,-0.03268,0.041133,0.03134,0.0059226
0.042313,0.15927,-0.626,0.083131,0.037,-0.060854,-0.031808,0.0062079
0.032251,0.065483,0.24728,0.033114,0.0058037,0.0080926,0.022406,0.014097
0.0075603,-0.046415,0.96816,0.13953,0.045489,0.036973,0.014348,0.00612
-0.00048317,0.0099263,-0.53273,0.050503,0.022934,-0.005384,-0.0091105,-0.0021082
0.047023,-0.20352,-0.61166,-0.1092,0.00022469,-0.0015622,-0.0011301,0.0050837
-0.12361,-0.077028,0.17401,-0.28478,-0.11678,-0.044934,-0.016438,-0.058115
-0.012629,-0.015595,-0.33327,-0.038164,0.015422,0.036873,-0.0081708,-0.035243
-0.0030037,0.13113,0.060659,-0.0090166,-0.040701,-0.0055765,0.00026126,0.050529
0.045812,0.068354,0.73599,0.29592,0.082223,0.023586,0.016733,0.035407
0.040029,0.032205,-0.54719,0.041477,0.01734,-0.039246,0.025685,0.14616
-0.090743,-0.14829,0.24855,-0.241,-0.078729,-0.045373,-0.066602,-0.27339
0.11426,0.26104,0.40661,0.36964,0.10682,0.083321,0.028885,0.026681
0.0062997,0.0011127,0.387,-0.042176,-0.019588,-0.051922,0.015109,0.11645
-0.024359,-0.22706,-0.72654,-0.18148,0.0030098,0.05609,-0.0066433,-0.0044734
-0.048381,-0.043097,-0.13049,-0.057958,-0.044204,0.023713,0.017952,0.046214
-0.0034856,0.15233,0.12252,-0.040111,0.018372,-0.064005,-0.020869,-0.11484
-0.030295,-0.15012,-0.71853,-0.10498,-0.035856,0.12812,0.048449,0.027476
0.051142,0.1585,0.36611,0.14635,-0.011502,-0.11128,-0.024243,0.011851
0.0069504,-0.014774,0.1114,0.11355,0.036913,-0.0087115,-0.012276,0.0021478
-0.037215,-0.0038801,0.23918,-0.084479,0.0080391,-0.071446,-0.01681,-0.032868
0.0209,-0.11059,-0.28642,0.1087,0.011422,-0.040748,-0.060624,0.024212
-0.013415,-0.058068,0.13711,-0.17262,-0.070088,0.0063152,0.021155,0.0097203
0.10245,0.18042,0.78019,0.22093,0.091473,0.23468,0.034,0.025746
-0.13135,-0.43943,-0.7166,-0.24161,-0.058973,-0.12867,-0.013702,-0.091159
0.10543,0.57591,-0.24067,-0.0058707,0.032666,0.080051,0.097007,0.19873
-0.15628,-0.10196,0.55937,0.13827,-0.02495,-0.03067,-0.0090913,-0.096069
0.12214,0.18916,0.30687,0.095993,0.064342,0.022147,-0.043539,-0.099884
0.15112,0.00081613,-0.44452,0.092769,0.026551,-0.059928,0.055323,-0.093353
-0.27297,-0.58492,-0.97459,-0.52848,-0.15421,-0.090748,-0.11963,0.19741
-0.025552,0.11552,1.0343,0.27091,0.037821,0.069483,-0.014438,-0.086813
0.17432,0.25501,-0.3855,0.28017,0.095359,0.084738,0.081433,0.10065
-0.0017073,-0.098583,-0.49504,-0.36727,-0.10574,-0.11459,-0.066473,-0.022101
-0.092866,-0.16534,0.26648,-0.12367,-0.033212,-0.027127,-0.0048199,-0.0029381
0.025686,0.35135,0.88174,0.2774,0.071692,0.075519,0.063645,0.0084543
0.02566,-0.094693,0.073955,-0.015174,0.0065005,-0.046922,0.029954,-0.07513
-0.0071632,-0.025387,-0.95196,-0.11877,0.021408,0.068155,-0.019631,0.010858
0.12244,-0.0010366,0.99832,0.48917,0.092658,0.039058,0.01664,9.7447e-05
-0.148,-0.034468,-0.5627,-0.52872,-0.16333,-0.094774,-0.025234,0.064257
0.088029,0.13543,-0.23282,0.27124,0.13525,0.064691,0.0031853,-0.030742
-0.20022,-0.19086,0.42962,-0.081091,-0.075134,0.00073272,-0.069963,-0.065426
0.058283,-0.095598,0.086565,-0.070796,-0.013955,-0.046017,0.013219,-0.030988
0.098753,0.12762,-0.86371,-0.20546,-0.06429,-0.03822,0.010719,0.081453
0.015739,-0.073498,0.07254,0.2349,0.055412,0.1163,0.094652,0.054093
0.04421,0.091103,-0.2586,0.056911,0.0022093,0.010143,-0.047237,0.11416
-0.12026,-0.0044081,0.35555,-0.35432,-0.050888,-0.12282,-0.024136,-0.17555
0.069091,0.09028,1.0711,0.44075,0.10045,0.053552,-0.0078499,-0.072934
-0.028871,0.0033569,0.20592,0.084082,0.011892,-0.092718,-0.021902,0.030939
-0.08682,-0.091392,-0.66669,-0.52564,-0.14413,-0.029097,0.019386,-0.028723
0.050517,0.088757,-0.26319,0.21222,0.077684,0.07396,0.021842,0.10652
0.16338,0.29585,0.57597,0.55354,0.17672,0.12394,0.047431,0.044983
-0.10063,-0.4118,-1.0727,-0.51987,-0.13715,0.012236,0.0096578,0.074729
-0.054566,-0.26262,0.129,-0.15914,-0.1074,-0.10468,-0.10757,-0.21909
0.15311,0.22861,-0.25762,0.51635,0.20224,0.10879,0.10173,0.10068
-0.18022,-0.26285,0.22228,-0.58061,-0.17791,-0.074609,-0.12803,-0.0047797
-0.10819,0.22931,0.41527,-0.020379,-0.029496,-0.11665,0.016005,-0.17516
0.26127,0.44584,0.43247,0.56544,0.22581,0.099162,0.089156,0.24734
-0.14847,0.041616,0.29609,-0.094365,-0.17687,-0.044811,-0.056216,-0.079078
-0.086108,-0.55589,-0.73355,-0.59061,-0.11927,0.060686,0.018211,-0.11326
0.12092,0.032418,-0.16588,0.32207,0.10292,-0.13111,0.02408,0.076319
0.097501,0.027462,0.25969,0.40451,0.10788,0.044083,0.016551,0.029943
-0.055747,0.038714,0.098542,-0.31736,-0.064752,0.18013,-0.051066,-0.080165
0.36266,0.47047,-0.14935,0.47075,0.37415,0.034755,0.11799,0.23751
-0.54771,-0.72792,-0.44444,-0.82401,-0.4977,-0.25958,-0.18758,-0.18271
0.12534,0.38375,0.090053,0.11863,0.12363,0.077805,0.047253,0.11772
-0.13521,-0.036261,0.27009,-0.13214,-0.12206,-0.094389,-0.10793,-0.16076
0.1466,0.33444,0.54609,0.62457,0.17077,0.32482,0.26012,0.041743
0.12722,-0.26681,-0.99729,-0.27872,0.017265,-0.13361,-0.036959,0.059115
-0.17678,-0.44481,0.56956,0.091111,-0.098404,-0.055463,0.01571,0.030831
0.048457,0.41646,0.8805,0.37759,0.081629,-0.010334,-0.1215,-0.090069
-0.015874,-0.18975,-1.1326,-0.58804,-0.12211,-0.06727,-0.034792,-0.162
0.22532,0.30993,-0.32561,0.3859,0.20473,-0.052754,0.041581,0.19966
-0.24261,-0.19716,0.63426,-0.49144,-0.22667,0.019303,-0.048179,-0.041916
-0.052007,-0.26833,-0.012962,0.03048,0.091651,0.048729,0.0013043,-0.032894
0.23458,0.4608,-0.11286,0.28265,0.15191,0.12997,0.1283,0.14264
-0.15675,-0.27914,-0.35537,-0.23017,-0.14753,-0.041891,-0.018085,-0.10795
0.0076424,0.037768,-0.18981,-0.025688,0.0057205,0.21949,0.031399,0.09063
0.16443,0.38093,0.47886,0.34715,0.049113,-0.28306,-0.027668,0.10508
-0.28868,-0.35229,0.82083,-0.31791,-0.18916,0.0030505,-0.12487,-0.29215
0.12447,0.070112,-0.4029,0.25549,0.12708,0.021259,0.052297,0.061814
0.14597,0.1139,-0.097484,0.32604,0.17012,0.043807,0.042918,0.19723
-0.091001,0.0028192,0.0029186,-0.16984,-0.1064,-0.07021,0.0032983,-0.18335
-0.14046,-0.16359,-0.4837,-0.4456,-0.13159,-0.17172,-0.066457,-0.017445
0.092203,-0.21426,-0.36732,-0.051383,0.04818,0.14681,0.060322,-0.038972
-0.056192,-0.01604,-0.16654,0.04849,0.011408,-0.042763,-0.077256,0.0028369
0.071238,0.13535,0.96939,0.23376,0.031617,0.12025,0.091038,0.12438
0.0059566,-0.040089,-0.16187,-0.17779,-0.086765,0.17564,0.018071,0.17772
0.11484,0.3802,0.29295,0.38221,0.24156,-0.032894,-0.0075255,-0.20432
-0.079505,0.052021,0.20313,-0.040764,-0.085913,-0.16231,-0.048809,-0.084814
-0.0001388,-0.12005,-0.038223,-0.064747,-0.039059,0.083142,0.057678,0.074236
-0.10933,-0.26367,-0.95928,-0.50257,-0.13459,-0.28988,-0.14957,-0.025442
0.052677,0.0087841,-0.040342,0.17724,0.07194,0.17872,0.11026,0.17718
0.008461,0.17131,0.41905,0.17854,-0.013717,-0.14427,-0.038124,-0.17073
-0.078262,-0.10562,0.0029352,-0.11465,-0.063493,0.12411,0.030164,0.094065
0.27706,0.46737,0.60012,0.95552,0.40736,0.23443,0.080805,-0.044241
-0.26866,-0.86534,-0.85469,-1.0229,-0.39729,0.031226,-0.057853,-0.14765
-0.07378,0.18917,-0.12405,-0.094424,-0.007683,-0.39862,-0.057301,-0.07442
0.30038,0.34673,0.67514,0.72833,0.27269,0.18799,0.036128,0.24726
-0.16845,-0.17664,-0.092827,-0.73913,-0.27374,-0.090886,-0.011257,0.022135
-0.041782,-0.079832,0.12082,-0.20503,0.033778,0.070114,-0.018999,-0.021774
0.079476,0.22561,-0.27024,0.24648,0.039739,-0.0082647,0.021491,0.14008
0.047146,-0.080376,-0.38455,0.34211,0.11161,0.18188,0.032768,-0.24945
-0.045149,0.2189,0.80842,0.25965,-0.10241,-0.25817,-0.039372,-0.018196
-0.033792,0.033534,0.12283,0.01085,0.068764,0.030284,0.024027,0.029108
0.02589,-0.0086427,-0.20153,-0.10488,0.022391,0.085322,-0.0037125,0.032805
-0.12462,-0.49851,-0.47494,-0.36657,-0.16478,0.022968,-0.044892,0.062738
0.14687,0.17727,-0.33136,0.20552,0.18565,0.052988,0.095116,0.0010899
0.035204,-0.030278,-0.55771,-0.4146,-0.099149,-0.15373,-0.06891,-0.06697
0.047988,0.10537,0.66183,0.32006,0.058523,0.074067,0.032458,-0.087627
-0.11942,0.031227,0.77437,0.0060624,-0.044238,-0.037155,-0.015627,0.08664
-0.20113,-0.39053,-0.51131,-0.54711,-0.19569,0.028676,-0.002802,0.22839
0.21729,0.42121,0.82048,0.71305,0.23038,-0.063439,0.015959,-0.061541
-0.027913,0.19533,-0.13444,0.09639,0.024344,0.14088,-0.021825,-0.28363
-0.17105,-0.46564,-0.53485,-0.82332,-0.26583,-0.28674,-0.14713,-0.039563
0.29536,0.31268,0.23171,0.7049,0.18075,0.20948,0.1561,0.12397
0.24559,0.30172,-0.66693,0.57788,0.32491,0.075472,0.15397,0.19181
-0.45417,-0.31386,0.50297,-0.80968,-0.39662,-0.15751,-0.24689,-0.18698
0.015403,-0.17747,-0.15238,0.2406,0.17113,0.22864,0.11001,0.035088
0.138,0.037092,-0.23177,-0.018013,-0.0044711,-0.048433,0.021658,0.12423
-0.016169,-0.053376,-0.32086,-0.30731,-0.08083,-0.19315,-0.043218,-0.0049714
-0.11835,-0.017791,0.30293,-0.1906,-0.04291,0.019877,0.0012893,-0.12547
0.012425,0.068724,0.72268,0.22427,-0.078059,0.15246,-0.016679,-0.0023924
-0.012768,-0.078844,-0.61271,-0.10619,0.08802,-0.10796,0.0045645,-0.10398
0.057844,0.3329,0.70311,0.19721,0.011367,0.075226,0.026195,0.054547
-0.055552,-0.3407,-0.37347,0.09921,0.0059854,-0.24208,-0.076475,-0.010991
0.27282,0.43424,0.29655,0.35222,0.14348,0.11351,0.048429,0.16012
-0.089903,-0.33342,-0.85509,-0.18394,-0.075355,0.14347,0.041743,0.020301
-0.10552,0.051019,0.28798,-0.33897,-0.056638,-0.041839,-0.010558,0.1621
-0.048899,-0.078541,-0.29973,-0.014387,-0.019629,-0.0046084,-0.03054,-0.47846
0.039179,0.095118,0.80193,0.16881,0.019027,-0.034452,0.012644,0.18302
0.032094,0.083983,0.11632,0.066369,0.050234,0.10169,0.048128,0.082842
-0.040148,-0.0375,-0.40865,-0.15249,0.033657,-0.090183,-0.049694,-0.092162
-0.053233,-0.25698,-0.22039,-0.020174,-0.094204,0.0442,-0.023546,0.18153
0.024016,0.040152,-0.6225,0.081098,0.0020608,0.057825,0.02465,-0.22801
0.19989,0.39908,0.87299,0.14565,0.072482,-0.19103,0.024469,0.055795
-0.14192,-0.24355,-0.346,-0.26081,-0.085521,0.023932,-0.023931,0.11313
-0.14878,-0.23937,0.49141,-0.36136,-0.15858,-0.046746,-0.073295,-0.17876
0.13349,0.091765,-0.11052,0.40943,0.15112,0.051279,0.064398,0.057138
0.025996,0.39139,0.0069063,0.26404,0.11767,0.12426,0.014684,0.056646
-0.087992,-0.22214,-0.39024,-0.39165,-0.10249,-0.060625,-0.018878,-0.031256
0.11965,-0.044256,0.16558,0.44789,0.14648,0.10728,0.057705,0.081981
0.093868,0.12996,0.38331,0.16176,-0.019104,-0.074351,0.017889,0.0041851
-0.15813,0.060529,0.54252,-0.36361,-0.12377,-0.073938,-0.10725,-0.14982
0.10527,-0.093597,-0.77905,0.2199,0.15191,0.092848,0.02574,0.22656
-0.18659,-0.5481,-0.82978,-0.6596,-0.21584,-0.074242,0.03374,-0.056896
-0.018039,0.23138,-0.12164,0.10819,0.039086,-0.044225,-0.02098,-0.21329
0.11922,0.18502,0.64721,0.073641,-0.01167,0.20617,0.056803,0.16241
-0.0631,0.20513,0.41933,-0.00011485,-0.045847,-0.29183,-0.092202,-0.04698
0.021809,0.010704,-0.051536,0.01792,-0.014404,0.039987,-0.0068323,-0.090328
0.13246,0.022277,0.61886,0.40646,0.2017,0.15482,0.055397,0.10476
-0.043342,-0.16909,-0.50043,0.051692,0.0019814,0.036979,-0.022426,0.0018102
-0.15423,-0.043476,0.032422,-0.24093,-0.16047,-0.10288,-0.013585,-0.13098
0.14283,0.14542,-0.98267,0.11264,0.20532,0.094055,0.0975,0.13815
-0.0048274,-0.31652,0.59783,-0.086999,-0.051227,-0.068269,-0.056616,0.052543
-0.051631,0.052813,-0.11306,-0.1733,-0.034377,0.026503,-0.023245,-0.04396
0.18866,0.34604,0.51458,0.32474,0.12038,0.057293,0.079908,0.17584
-0.31618,-0.49949,-0.69273,-0.53525,-0.35473,-0.31243,-0.12265,-0.10219
-0.012029,0.14953,0.45976,0.0088429,-0.007802,0.12792,0.0093794,-0.34873
0.14796,0.25476,0.12835,0.29103,0.17661,0.12038,0.053999,0.30949
0.04702,0.019935,-0.0069017,0.084409,-0.019462,0.071213,-0.0042646,-0.003642
0.021916,-0.015556,-0.51593,0.093122,0.12423,0.0040044,0.006853,-0.085311
0.03465,0.21088,0.57819,0.34268,0.08606,0.01277,0.048857,0.065032
-0.069839,-0.23814,0.010257,-0.61717,-0.17119,-0.12862,-0.11197,-0.09826
-0.24349,-0.62784,-0.93794,-0.49394,-0.16937,-0.21641,-0.060942,-0.1283
0.25695,0.50363,1.0313,0.78637,0.24899,0.27368,0.1712,0.27331
-0.1771,-0.12358,-0.80759,-0.39762,-0.15752,-0.13395,-0.087157,-0.095494
0.31416,0.44534,0.94523,0.69157,0.25986,0.22568,0.093666,0.070278
-0.16775,-0.17076,-0.38062,-0.58444,-0.23328,-0.18573,-0.036611,0.11386
-0.021782,-0.25962,-0.22877,0.080118,0.011138,0.046316,-0.017525,-0.13004
0.0011951,-0.0079662,-0.37873,-0.17428,0.031673,0.15629,-0.021494,-0.038051
-0.029604,0.33437,0.8744,0.30724,-0.0082161,-0.16071,0.0056943,-0.088352
0.11908,-0.02204,-0.30373,-0.024557,0.07056,-0.014468,-0.022198,0.077218
-0.13182,-0.1951,0.033501,-0.12583,-0.091926,-0.038308,0.019759,0.028452
0.045209,0.017495,-0.058466,0.27361,0.081975,0.087581,-0.0011062,0.0078293
0.056246,0.06818,-0.81399,-0.079281,0.021549,-0.07476,-0.022009,0.016395
-0.10624,-0.1685,0.66443,-0.44469,-0.1876,0.083617,0.035487,-0.17865
0.027174,0.057207,0.90601,0.16808,0.071401,-0.086173,-0.015899,-0.052091
0.16836,0.042011,-0.95947,0.32104,0.20448,0.16535,0.066057,0.31954
-0.31449,-0.21445,-0.23266,-0.52461,-0.27311,-0.17806,-0.07822,-0.015806
0.17317,0.38861,0.63718,0.38975,0.14598,0.023514,0.027413,-0.049958
-0.079151,-0.0094643,0.17793,-0.0052584,-0.023117,0.074016,-0.03168,-0.080207
0.14715,-0.05103,-0.32341,0.14278,0.055071,-0.019388,0.064191,0.048635
0.023218,0.058907,-0.3905,-0.07957,0.0052089,0.094447,-0.013639,-0.11803
-0.030361,-0.1344,-0.24807,-0.0077491,-0.016521,-0.092321,0.0079337,0.20726
-0.085499,-0.17876,0.70121,-0.18815,-0.12702,0.0067235,-0.082063,-0.18009
-0.018815,-0.011649,-0.17081,-0.22954,-0.028709,-0.13864,0.013551,-0.046859
0.027757,0.11798,-0.039202,0.064229,0.037243,0.06683,-0.0014834,0.082763
0.1082,0.21202,0.09179,0.65503,0.25177,0.10928,0.10024,0.075656
-0.14461,-0.39123,-0.33094,-0.51091,-0.22762,-0.19707,-0.078807,-0.04466
0.059317,0.41217,0.49643,0.30939,0.084547,0.18823,-0.0065082,0.042551
0.073158,-0.024168,-0.28872,0.014854,0.048394,0.05492,0.091211,0.095809
-0.28067,-0.3551,-0.01954,-0.73022,-0.26545,-0.18305,-0.1447,-0.32144
0.14068,0.26381,0.50153,0.45693,0.15844,0.16865,0.11383,0.23725
0.11256,-0.0034288,-0.019245,0.083801,0.038141,-0.14168,-0.078935,-0.1332
-0.051289,0.030138,0.040889,0.19671,0.067832,0.09479,0.041868,-0.064439
-0.01461,-0.1598,-0.51205,-0.28317,-0.089809,-0.053769,0.014345,0.2413
0.034455,-0.16793,-0.75874,0.057537,0.063793,0.067102,0.024995,-0.066972
0.16477,0.49715,0.39537,0.25747,0.058708,0.06571,0.057344,0.073363
-0.11773,-0.31348,-0.15671,-0.51146,-0.20729,-0.18306,-0.10786,-0.18954
-0.064923,0.11881,0.64925,0.36862,0.086134,-0.061106,-0.040968,0.057795
-0.037561,-0.11198,0.62434,-0.061908,-0.036798,0.050528,-0.0070971,0.080211
-0.12218,0.0025309,-0.5503,-0.4185,-0.082518,0.036964,0.010312,-0.060583
0.072115,0.064583,0.30071,0.47248,0.16163,0.0099469,0.035885,-0.037168
0.061979,-0.14395,-0.62122,-0.208,-0.068326,0.06517,0.031735,-0.0063465
0.098831,0.1507,0.13171,0.18881,0.080441,0.024072,-0.016868,0.062732
-0.1206,-0.020356,0.068497,-0.22093,-0.063408,-0.081999,-0.0079572,-0.088035
0.060954,0.0062493,0.29321,0.16979,0.054525,0.081987,0.042669,0.14268
-0.020182,0.073068,-0.14887,0.060559,-0.027768,0.0065474,-0.014143,-0.073504
0.11222,0.24107,-0.50388,0.22079,0.094337,-0.029118,0.047074,0.075668
-0.027162,-0.51477,0.63679,-0.056405,-0.057561,-0.050426,-0.063972,-0.097555
-0.049007,0.046318,-0.71847,-0.36742,-0.063268,-0.0041979,0.01099,-0.023029
-0.13436,-0.053232,0.12314,-0.20535,-0.080236,-0.094344,-0.095977,0.025785
0.051586,0.1157,0.45061,0.14964,0.039431,-0.023981,0.0054727,0.049077
0.015956,0.29517,-0.60364,0.051873,0.01462,0.14507,0.042106,-0.069905
0.00073433,0.0010043,0.56635,-0.16677,-0.044621,0.023291,0.069194,0.099219
0.02179,-0.19597,0.037765,0.27877,0.10487,0.025971,-0.014027,-0.012939
0.13437,-0.11528,-0.11879,0.31332,0.12038,0.037026,0.012035,-0.038082
-0.13734,0.095705,0.44971,-0.038156,-0.059711,-0.13023,-0.039376,-0.037519
0.0043026,-0.27268,-0.52632,-0.22099,-0.083164,0.048095,0.011986,-0.088234
-0.010298,0.35904,0.50844,0.029197,-0.019847,-0.09195,-0.00541,0.12318
-0.00085863,-0.0079249,-0.4145,-0.19566,-0.017915,0.058819,-0.021123,0.011277
0.009613,-0.10708,-0.2924,-0.12384,-0.053766,-0.031289,-0.011771,-0.017787
0.091682,0.11663,0.0464,0.33731,0.15392,0.098031,0.061497,0.074304
-0.090508,-0.11819,0.51417,-0.14831,-0.082384,-0.022738,-0.020406,-0.065379
-0.021399,0.00035484,-0.36881,-0.079984,-0.0050537,-0.074095,-0.070404,-0.024609
-0.044917,-0.028632,-0.67059,-0.057999,0.026211,0.12291,0.075082,-0.016368
0.25276,0.38765,0.34105,0.48161,0.14377,-0.033845,0.04056,0.12145
-0.24585,-0.50941,0.80538,-0.34275,-0.15285,-0.060202,-0.057244,-0.065851
-0.033201,0.06097,-0.085539,0.06331,-0.020326,-0.049755,-0.02339,0.0067558
0.13263,0.14563,-0.6204,0.027876,0.064563,0.037109,0.0090696,-0.12961
0.0014127,-0.036317,0.20345,-0.090389,-0.093458,-0.0096807,0.024431,0.033557
0.0026797,-0.11703,0.2969,0.090142,0.021539,0.092159,-0.031903,0.052315
0.0426,0.19336,0.16745,-0.11943,0.0037976,-0.023536,0.051249,0.1238
-0.050673,0.14567,-0.45401,0.13113,0.064807,-0.019997,0.024247,-0.1172
-0.16763,-0.22811,0.33453,-0.12012,-0.029345,-0.068592,-0.12811,-0.13764
0.12946,0.041415,0.28061,0.26694,0.065341,0.033904,0.063373,0.2123
-0.13578,-0.23277,-0.37207,-0.36386,-0.1121,0.052803,-0.025924,-0.090032
0.19305,0.14502,-1.0153,-0.0354,0.023962,-0.0047543,0.088663,0.088332
0.14717,0.25307,0.058215,0.31577,0.10584,0.047832,-0.014587,0.12979
-0.10172,-0.16653,0.77843,-0.098367,-0.077993,-0.063835,-0.023149,-0.26334
-0.13198,-0.17673,-0.071254,-0.10502,-0.028073,-0.020273,-0.015221,0.040795
0.032801,0.057632,-0.16918,0.069831,0.013051,0.01391,-0.029987,-0.068137
-0.083912,0.15263,0.87358,0.106,-0.032858,-0.070835,0.010556,-0.028437
-0.013104,0.12258,0.15245,-0.09836,0.01405,-0.047746,-0.010868,0.16708
0.1988,-0.049438,-0.91361,0.32334,0.1698,0.24773,0.14007,0.010116
-0.080494,-0.13008,-0.1281,-0.59837,-0.22914,-0.097827,-0.14603,-0.070032
0.00095616,-0.16681,0.26615,0.17496,0.04437,-0.060329,0.021458,0.19196
-0.072343,0.18416,0.5421,0.11165,0.037676,0.017015,0.009685,-0.047832
0.011883,-0.16254,-0.54851,-0.11661,-0.030205,-0.0060696,-0.032998,-0.31282
0.10461,-0.17472,-0.43796,0.1308,0.075095,-0.012259,0.033864,0.02224
0.0018425,0.50806,0.0080748,0.1275,0.025167,0.12338,0.045945,0.16876
0.077616,0.14452,0.38857,0.022206,0.014835,-0.013403,0.010721,0.072643
-0.16113,-0.16313,0.15666,-0.23937,-0.11272,-0.16508,-0.048731,-0.046825
-0.05869,-0.3207,0.10243,0.038639,0.0013617,0.035285,-0.0077199,-0.01738
0.009802,0.1174,-0.12543,-0.12746,-0.026051,0.040595,-0.014867,-0.049821
0.068117,0.010845,-0.16174,0.25521,0.086197,0.053805,0.047005,0.10574
-0.047142,-0.085412,0.11314,-0.23473,-0.068032,-0.12056,-0.087564,-0.1057
0.039837,-0.069702,-0.57568,-0.0034804,0.011497,0.095434,0.027039,0.010778
0.064182,0.22954,0.79781,0.29988,0.082835,0.037437,0.0318,0.064173
-0.028262,-0.05588,-0.14971,-0.17762,-0.072628,-0.083964,0.028621,-0.039489
-0.010672,0.11129,0.52474,-0.070877,-0.040846,-0.050408,-0.005677,-0.011137
0.070113,-0.06843,-0.54844,0.25834,0.14676,0.27059,0.069697,0.063575
-0.0047109,0.066003,-0.18246,0.065655,-0.0022207,-0.22271,-0.11235,-0.041375
-0.10231,-0.25398,-0.30433,-0.18155,-0.08174,-0.0067719,-0.0048461,-0.05964
-0.066247,0.34442,0.46014,0.047986,-0.013683,0.059431,0.040748,0.017349
-0.0054747,-0.2021,-0.30706,-0.34562,-0.047806,-0.10934,-0.076965,-0.044169
0.0023948,0.099684,0.58155,0.031484,-0.0039196,0.058086,0.024992,-0.040786
0.098432,-0.098737,-0.69953,-0.11335,0.0014537,-0.015535,0.0029723,0.20702
0.071875,-0.25344,0.54841,0.27106,0.054909,0.053262,0.083502,0.081411
0.070932,0.29004,-0.42248,0.39117,0.13346,0.061623,0.055417,0.0032699
-0.10035,-0.12613,0.41033,-0.26717,-0.1456,-0.029715,-0.097313,-0.14571
-0.19294,-0.16859,-0.65383,-0.33768,-0.071694,-0.11202,-0.070522,-0.29619
0.2765,0.11115,0.46048,0.59039,0.22945,0.21217,0.11182,0.27781
-0.20859,0.36961,0.65978,-0.28492,-0.18849,-0.1832,-0.081971,-0.080091
-0.016071,-0.0054582,-0.59839,-0.12576,-0.0063065,-0.017799,-0.019346,0.013208
0.13507,0.042818,0.4231,0.45301,0.1657,0.098387,0.088709,0.097272
0.034011,-0.11791,-0.73296,-0.25559,-0.071475,-0.037907,-0.015464,0.039818
-0.092235,0.15319,0.8,-0.26846,-0.077278,-0.051351,-0.011239,-0.049378
-0.078982,-0.66586,-0.94177,-0.24018,-0.062146,-0.0037187,-0.04664,-0.05292
0.16036,0.28052,0.2331,0.28683,0.099913,0.10595,0.042834,0.1855
-0.16274,-0.10985,0.13188,0.037695,-0.027301,-0.065098,-0.0080412,-0.24038
0.17075,0.29059,0.051202,0.22261,0.065378,-0.0082162,0.019793,0.01328
-0.081348,-0.3647,-0.61615,-0.38645,-0.11311,0.011497,-0.021919,-0.022095
0.033814,0.25865,0.31864,0.30086,0.086346,0.080121,0.0075024,0.013188
0.062683,0.041852,0.48554,0.2784,0.070087,-0.021328,0.037686,0.182
-0.081104,0.028823,-0.34385,-0.33009,-0.068629,-0.090242,-0.064311,-0.03875
-0.0228,0.073861,0.56252,0.034047,0.020823,0.028965,0.02948,0.015204
-0.051413,0.083506,0.045749,0.076208,0.0091573,0.054379,-0.017021,-0.18733
0.0053441,-0.076946,-0.38768,-0.35817,-0.11254,-0.12391,-0.00079093,-0.0058702
0.10131,-0.16869,0.48404,0.32691,0.068989,0.071913,0.0078006,0.090554
-0.051687,0.015246,-0.12482,0.096155,0.037787,0.087069,0.016546,0.046821
0.070645,0.041531,-0.7383,-0.23203,-0.041906,-0.10174,0.009819,0.073351
-0.093541,-0.26438,-0.42844,-0.24325,-0.099164,0.013576,-0.020195,0.075867
0.026344,0.096141,0.31883,0.12727,0.062184,-0.090039,-0.034452,-0.28982
-0.038636,0.20111,0.62687,0.15652,0.036749,0.18934,0.03732,-0.086475
0.093668,-0.050193,-0.75007,-0.018805,0.043904,-0.038611,0.030988,0.2171
-0.030934,0.062358,0.71892,0.073409,-0.017701,-0.06277,-0.053544,-0.0196
