0.030625,-0.052672,0.0089347,0.0044673,0.012011,0.0062227,0.013991,0.024347
0.027979,-0.078525,-0.053647,-0.019109,-0.012434,-0.0090831,0.013212,0.062036
0.011743,0.045177,0.016668,-0.011009,0.0025823,0.01527,-0.096735,0.061397
-0.03466,0.12988,-0.0067195,0.0053074,-0.0054229,-0.03011,0.028249,-0.18032
0.051385,-0.028706,0.047919,0.02194,0.01038,0.01868,0.060205,0.10219
-0.013032,-0.11133,-0.022744,-0.015938,-0.0047804,-0.0026919,0.038102,0.2283
0.051829,0.02975,-0.015772,0.0086983,-0.0041252,0.014829,0.063163,-0.006442
-0.16911,-0.019708,-0.017199,-0.021498,-0.011171,-0.015001,-0.083858,-0.2205
-0.066717,0.014164,-0.0035371,0.0027154,0.013098,-0.0064683,-0.051887,-0.070926
0.17989,0.12451,0.056678,0.034376,0.0061664,0.0012659,-0.0052943,-0.034194
-0.14672,-0.34366,-0.094024,-0.043743,-0.024149,-0.015193,0.048109,0.039208
0.16621,0.15782,0.03694,0.01837,0.0080903,0.014636,0.022725,0.17466
-0.082516,0.028314,0.012417,0.0098205,0.0091023,-0.0027495,-0.2371,-0.22699
0.022911,0.10407,0.0044763,-0.022453,-0.0055699,0.003224,0.19901,0.016302
0.093103,0.079973,0.044348,0.015369,0.010811,0.0015185,0.003433,0.18748
-0.05887,-0.076314,-0.024472,0.00616,0.0033805,5.9816e-05,0.020092,-0.00969
-0.073773,0.0009551,0.00070669,-0.0031533,0.011026,0.02228,0.09242,0.20534
0.039787,-0.0098779,-0.029073,-0.00471,-0.0054384,-0.01787,-0.16317,-0.49748
-0.039802,-0.14086,0.0029016,0.0015458,-0.022589,0.012252,0.1507,0.17586
-0.10321,0.045628,0.010382,6.7136e-05,-0.0012348,-0.020331,-0.24051,0.11273
0.25411,0.019443,0.024559,-0.0090356,-0.011413,0.0092859,0.27175,0.028861
-0.086552,-0.092438,-0.040287,0.013445,0.0019492,-0.0082444,-0.039371,0.062744
0.13153,0.12648,0.0038081,0.0051781,0.015838,-0.010253,-0.38442,0.15114
-0.18581,-0.22775,-0.069108,-0.033663,-0.00062686,0.0035502,0.36268,-0.73624
0.055684,0.33871,0.069711,0.014251,-0.00033926,0.0022736,-0.085497,0.22347
-0.033212,-0.10334,0.022313,0.0083734,0.016733,0.001889,-0.0083421,0.19032
-0.10653,0.046825,0.015487,0.0033688,0.011345,0.0026486,0.13496,0.0044926
-0.0053501,0.10743,0.04134,0.022531,-0.0012409,0.035891,-0.27151,0.044791
-0.094259,-0.13542,-0.080184,-0.043785,-0.037119,-0.031312,0.24146,0.01687
0.34746,-0.11461,-0.0058938,0.0071725,-0.003022,-0.0039644,-0.31882,0.0073132
0.031583,0.073221,0.029228,0.018714,0.014711,-0.0075455,0.42894,0.045922
-0.050289,-0.019199,-0.022213,-0.0017961,-0.0076039,-0.0035659,-0.23634,-0.12846
-0.1111,-0.041073,0.0035272,0.0077473,0.031541,0.038649,0.18252,-0.020474
-0.13835,0.0081037,0.0048206,-0.01543,-0.023963,0.017053,-0.08284,0.25536
0.06731,-0.026348,-0.041594,-0.0011179,-0.0097511,-0.060847,-0.026719,-0.34467
0.11148,0.068765,0.028698,0.0039136,0.0042686,0.015826,0.14682,0.37926
0.076924,0.0068515,0.020813,-0.0078377,-0.0049167,-0.018352,-0.31951,-0.30853
0.031978,0.1261,0.0054584,-0.0046378,0.0021156,-0.0066844,-0.12685,0.17115
-0.22689,-0.071784,0.021966,0.014104,0.025586,0.03582,-0.045565,-0.33475
0.043849,-0.10141,-0.038942,-0.013502,0.0030265,0.0082837,0.4513,0.12381
-0.082525,0.20162,0.010151,-0.00098849,-0.026671,0.0050978,0.077859,-0.19784
0.030922,-0.14734,-0.026297,0.0051365,-0.0013462,-0.043561,-0.2888,0.16588
-0.033118,-0.22706,0.02327,0.020639,0.016052,0.0031906,0.10971,0.28043
0.01075,0.14121,-0.013364,0.0063566,0.0094383,0.02034,-0.0010765,-0.072434
0.10294,0.1361,0.027558,-0.0067797,0.0096849,0.0701,0.095167,0.39438
0.2211,0.0064626,-0.010428,-0.019236,-0.030285,-0.11368,0.17645,-0.35428
-0.13567,0.0011757,-0.018038,0.0075263,-0.0088765,0.04645,-0.65907,0.0050481
-0.063835,0.12705,0.04383,0.010524,0.01169,-0.044001,-0.015853,0.062105
0.049965,-0.30415,-0.059035,-0.041858,-0.030601,0.012732,0.54954,-0.45084
0.13129,0.0040587,0.0017342,0.022056,0.021095,0.14584,-0.018082,0.068359
-0.15151,0.082925,0.023274,0.014743,0.011105,-0.12924,-0.1162,0.25587
-0.46472,-0.028152,-0.017641,-0.024614,-0.005458,0.047019,0.25754,-0.66418
0.41762,0.038533,0.019711,0.029202,0.018446,0.050191,-0.54962,0.83782
-0.18321,0.080389,0.0024705,-0.026693,-0.026707,-0.33757,-0.16629,-0.4359
0.23484,0.0040769,0.055455,0.042291,0.046139,0.22861,0.34927,0.40059
-0.067945,-0.026109,-0.048157,-0.037145,-0.013673,0.10137,0.14129,0.12072
-0.011241,0.0055473,-0.019547,-0.014959,-0.0037463,-0.14033,0.18863,-0.24762
0.21105,-0.15091,0.023975,0.046304,0.012792,0.058541,-0.37542,0.062849
-0.18974,0.16871,-0.01127,-0.0097142,-0.026934,0.104,0.057086,0.05997
0.17647,-0.097824,-0.023425,0.004359,-0.021384,0.01088,0.32679,0.024913
-0.26174,0.034284,-0.027636,-0.036568,-0.04052,-0.16731,-0.24247,-0.86135
0.041331,-0.075075,9.368e-05,0.0081187,0.033499,0.036843,-0.171,0.47532
-0.00096406,-0.042617,0.029017,0.021331,0.029602,0.012751,0.31025,0.2216
0.27556,0.18664,0.075067,0.011096,0.011055,-0.045154,-0.40371,0.54398
-0.23738,-0.027901,-0.017989,-0.037906,-0.0294,0.011153,0.005342,-0.65391
-0.13935,0.15724,0.0073755,0.0074818,0.049077,0.18174,0.13832,-0.15399
-0.13105,-0.17246,-0.068118,-0.016486,0.0041396,-0.11884,0.48032,-0.096757
0.21171,-0.1347,0.012694,-0.00022297,-0.039692,-0.2258,-0.07626,0.29087
-0.11736,0.027944,0.0070038,0.06413,0.041913,0.16634,-0.66178,-0.18072
0.56163,-0.0050034,-0.007523,-0.018892,-0.040798,0.058242,0.42958,0.76483
-0.11206,0.1103,-0.0076621,0.00037375,-0.014939,0.090882,-0.65128,-0.67759
-0.41466,-0.016455,-0.016785,-0.034793,-0.021425,-0.1029,0.80827,-0.12112
0.32989,0.18546,0.1373,0.046972,0.033506,-0.031186,-0.36311,0.81848
-0.28055,-0.23661,-0.14646,-0.05166,-0.021739,0.126,0.091534,-0.74948
0.25105,-0.00098872,-0.00027985,0.020565,0.032043,-0.092523,0.27167,0.27652
-0.35029,-0.044833,0.0060852,-0.033342,-0.0077812,0.032134,0.041686,-0.23482
0.29839,0.1086,0.060579,0.021089,-0.0001839,-0.13225,0.2036,0.27552
-0.32457,-0.056372,0.046245,0.051318,0.039431,-0.022125,-0.69731,-0.051704
0.19779,0.084916,-0.075996,-0.04383,-0.029564,0.020077,0.13607,0.17801
-0.11563,0.016183,0.01392,0.0095105,0.011374,0.08939,-0.65328,-0.98146
0.089478,-0.08381,-0.05162,-0.046083,-0.041226,0.038289,0.47781,0.53341
0.025576,-0.044279,0.070618,0.055297,0.023175,0.10921,0.27659,-0.28412
0.20033,-0.014748,-0.065192,-0.022161,-0.014527,-0.11246,0.13069,0.52611
0.12758,0.18359,0.087397,0.026183,0.0094926,-0.16711,0.35617,0.37396
-0.062759,0.05807,-0.018767,0.012615,0.040473,0.15433,-0.4516,0.071221
-0.36609,-0.10993,-0.079081,-0.063196,-0.054294,0.10754,-0.20709,-0.59019
0.011894,-0.13993,0.055006,0.032749,-0.0011149,-0.28604,0.25953,0.13939
0.13259,-0.030461,0.032212,0.057918,0.051936,0.558,-0.047029,0.18779
-0.13606,0.048498,-0.06115,-0.07387,-0.066622,-0.59549,-0.19263,-0.42303
0.005423,-0.08857,-0.076273,-0.026772,-0.0048883,-0.16832,-0.09444,-0.098614
0.029697,0.19277,0.096477,0.027396,0.034225,0.33256,-0.20022,0.43068
0.0036884,0.13555,0.074336,0.010697,0.042936,0.22894,0.77737,-0.061672
0.18138,-0.17448,-0.02571,-0.014119,-0.010166,-0.039878,0.0013983,-0.55653
-0.090776,0.066125,-0.032218,0.054762,-0.00039171,-0.15958,-0.42702,0.09281
0.15682,-0.10567,-0.062955,-0.0012174,-0.014066,-0.026978,0.14059,0.47171
-0.014509,0.21387,0.061174,-0.03352,-0.028115,-0.093945,-0.23294,0.50903
-0.3812,-0.25111,-0.0040355,-0.042139,-0.034988,0.023087,0.10909,-0.85224
0.28683,0.09905,0.0068521,0.035354,0.019885,0.22272,-0.083084,0.55515
0.086304,-0.16628,-0.015378,0.011342,0.04278,0.11386,0.080798,-0.24472
-0.18273,0.17176,0.0079336,0.010694,-0.013049,-0.60149,-0.19743,-0.30834
-0.18022,-0.088847,-0.023912,-0.021388,0.0088199,0.34844,0.32203,-0.037846
0.45881,0.14754,-0.0082734,0.0087861,0.014801,0.17253,0.042144,0.35088
-0.21922,-0.077736,-0.0065284,-0.00032943,-0.010601,-0.14703,0.27963,-0.14761
-0.16603,-0.067129,0.013546,-0.0095688,-0.028227,0.012756,0.015955,0.21939
0.16037,0.071809,0.044769,0.0046915,0.0010593,0.03327,-0.7343,0.041719
-0.017238,-0.011397,0.032613,0.011444,0.030466,0.070215,0.42916,0.16908
-0.014722,-0.027509,-0.093613,-0.012497,-0.0023984,-0.13364,0.10548,-0.10081
-0.17953,0.014901,0.0011606,-0.035678,-0.034895,-0.225,-0.57943,-0.52195
0.030522,0.083048,0.050077,0.012305,-0.004362,0.18945,-0.098884,-0.19717
0.45295,-0.051639,0.028311,0.0063819,0.0034165,-0.18394,0.22279,-0.16501
-0.068608,0.14003,0.036121,0.09474,0.074491,0.44705,0.090842,0.38785
-0.090565,-0.070159,-0.036849,-0.043337,-0.025476,-0.0010258,-0.012024,0.6874
-0.14702,-0.24556,-0.12858,-0.033328,-0.046548,-0.37057,0.47748,0.12868
-0.26475,-0.01102,-0.012396,-0.0084996,-0.012339,-0.021036,0.28868,-0.45167
0.092132,0.22059,0.062328,-0.023851,-0.024694,0.061728,-0.34636,-0.58009
0.43683,-0.11125,0.041901,0.053344,0.087892,0.39072,0.25438,0.70626
0.010261,0.019212,-0.0022663,-0.026744,0.0046886,-0.10761,-0.34496,0.39203
-0.25787,0.082963,-0.0067174,0.0019231,0.0065449,0.040104,-0.88296,-0.74915
-0.14751,0.0035479,0.060414,-0.0085234,-0.024028,-0.34042,0.25729,-0.32531
-0.086079,0.063028,0.011819,-0.0027789,-0.024649,0.12476,0.40854,0.018523
0.21828,-0.11376,-0.082401,0.0040652,-0.018634,-0.28257,0.033257,0.49116
-0.10676,-0.1373,-0.050869,-0.0032823,-0.04468,0.23644,-0.20715,-0.61854
0.2376,0.21717,0.097985,0.053359,0.061819,-0.057533,0.44446,1.1748
0.0021108,-0.036975,-0.050476,-0.021564,0.0045981,-0.091251,-0.16076,-0.43182
-0.0091451,-0.042691,-0.020084,0.0058263,0.018565,0.33275,0.13972,-0.30425
0.16296,0.065105,0.079644,0.017694,0.025924,-0.019151,0.045601,0.5588
-0.41382,-0.051134,-0.040219,-0.064761,-0.043581,0.24276,-0.53468,-0.81821
0.054641,-0.19703,0.0035067,-0.023365,-0.018314,-0.58695,0.25861,0.065823
-0.11369,0.15063,-0.069906,0.0086885,0.015315,0.57453,0.34648,0.30605
0.25152,0.14076,0.044788,0.0625,0.048886,-0.37743,-0.10053,0.38087
0.12629,0.039988,0.027741,-0.0024709,-0.027597,0.062753,-0.20856,-0.27002
-0.12955,-0.33781,-0.027032,-0.01407,-0.04276,-0.41043,-0.28289,-0.36295
-0.11623,0.24333,0.083592,0.012501,0.026547,0.25844,-0.25321,0.22155
-0.121,-0.10559,-0.070346,-0.023814,-0.015007,-0.03798,0.052592,-0.5227
0.1394,0.077926,0.018491,-0.020916,-0.0031092,0.27337,0.68914,0.75641
0.24486,0.16248,-0.0020273,0.021695,0.008008,-0.0078383,0.39002,-0.051569
-0.045632,-0.14763,0.023818,0.00286,0.011099,0.13622,0.036409,0.17556
-0.34886,-0.11711,-0.091849,-0.022478,-0.01671,-0.1916,-0.44412,-0.36353
0.14723,-0.10477,-0.01325,0.031687,0.02661,-0.37387,-0.70189,-0.29162
0.15235,0.1161,0.079996,0.032417,0.039792,0.36224,0.17623,0.39316
-0.030489,0.084162,-0.030616,-0.044015,-0.04737,0.27338,0.32353,-0.2442
-0.082771,0.11091,0.069324,0.012933,-0.016192,-0.47775,0.0075367,0.42537
-0.0059709,-0.11774,0.0051804,0.0075254,0.015946,0.39667,-0.36266,0.0099953
0.019512,-0.025642,-0.097725,-0.05279,-0.04497,-0.69018,0.44257,-0.60554
0.32219,0.24455,0.073351,0.058298,0.074209,0.53469,0.52735,0.66246
-0.36189,-0.24637,-0.083008,-0.073383,-0.072109,-0.038193,-0.96624,-0.10658
-0.029913,0.047495,0.034803,0.060002,0.047072,-0.088419,0.98537,-0.20542
-0.19389,-0.18637,0.0048404,-0.010181,0.0096626,0.10285,-0.90023,-0.35505
-0.0063846,0.0061064,0.037864,0.020911,0.010811,0.066801,-0.039319,-0.2379
0.13711,0.048535,-0.022648,-0.049702,-0.058958,-0.28276,0.11987,0.03886
0.41765,0.2008,0.080791,0.090576,0.073776,0.40536,0.30057,0.53475
-0.11084,0.066413,-0.097458,-0.081651,-0.075293,-0.18171,0.022787,0.56805
-0.021654,-0.15014,-0.018599,0.011725,0.033048,-0.39571,0.033292,-0.17545
-0.069541,-0.12807,-0.018738,0.019093,0.00056714,0.6697,0.071636,-0.4072
-0.080507,0.061816,-0.011986,-0.036175,-0.047529,-0.61793,-0.23884,0.21954
0.057087,0.15249,0.095457,0.025547,0.045167,0.28882,-0.17976,0.35533
0.018557,-0.092487,0.022463,0.0089024,0.01309,-0.11734,-0.093816,-0.36204
-0.37041,0.11362,-0.019846,0.015436,0.028054,0.31238,0.17758,-0.30395
0.13224,-0.12979,0.015652,-0.025147,-0.035108,-0.39856,0.208,-0.012675
0.12226,-0.035236,-0.066022,-0.019039,0.0030703,0.18707,-0.23318,-0.32562
-0.076328,-0.017404,-0.04569,0.018243,-0.02167,0.31102,0.24843,0.045468
0.41615,0.04917,0.045888,0.024345,0.02339,-0.0035291,0.28921,-0.13676
-0.075088,0.0019692,-0.032998,-0.039614,-0.010118,-0.15479,-0.31849,0.34518
-0.43614,0.077775,0.014868,0.006246,-0.020376,-0.58713,0.21754,0.088999
0.22732,-0.13458,0.017701,0.0058618,0.0086567,0.10733,-0.81063,0.28784
0.058528,0.16471,0.076833,0.037516,0.014993,0.15719,-0.0095925,0.41555
-0.17551,-0.33439,0.051092,-0.031491,-0.00085662,0.19712,0.5759,0.44513
0.16596,0.2447,-0.083714,-0.0057888,-0.022859,0.13445,-0.13921,-0.67311
-0.2541,0.035159,-0.023694,0.028683,0.050756,0.1878,0.27378,-0.63368
0.28868,-0.034291,-0.050746,-0.053147,-0.037882,-0.066096,-0.055544,-0.27235
-0.052574,0.1123,-0.055864,-0.032678,-0.023489,-0.37182,0.17209,0.10883
0.077738,0.073473,0.12497,0.10548,0.054276,0.095978,-0.6285,0.66558
-0.1291,-0.31819,-0.054891,-0.014006,0.0071399,-0.32937,0.33182,-0.30804
-0.13008,0.13738,0.022091,-0.024348,-0.0094799,0.2799,0.33483,-0.16133
0.071484,0.0082325,-0.010937,-0.02756,-0.035402,-0.006915,-0.42985,0.1038
0.28572,-0.12861,0.072779,0.046234,0.038202,0.19286,0.10485,0.088762
-0.31669,0.14103,-0.023637,-0.053329,-0.062345,0.10633,-0.16294,-0.074143
0.045608,-0.087969,0.051235,0.048528,0.030255,-0.46078,-0.25416,0.37821
0.27247,-0.10294,-0.069969,0.03145,0.027375,0.21148,0.47653,0.08872
-0.34451,0.0042081,-0.051365,-0.088778,-0.039061,0.054058,-0.074254,-0.27171
-0.012933,0.039614,-0.0099545,-0.0071177,-0.027648,-0.15848,-0.24422,0.11356
0.19275,0.51972,0.054744,0.050364,0.062351,0.23885,0.40919,-0.28416
-0.28646,-0.20374,-0.02841,-0.0016987,-0.0028796,-0.12042,0.20961,-0.4938
0.25536,-0.0058901,0.014883,0.024753,0.011322,0.24079,-0.35734,0.86297
0.24961,-0.23042,0.0057408,-0.033873,-0.0044303,-0.50526,-0.15956,-0.12259
-0.1783,-0.13437,-0.0084021,0.0024364,-0.011347,0.33702,0.16794,0.041695
-0.29487,0.041815,0.04293,0.0088294,-0.0098718,-0.24005,-0.46379,-0.52441
0.28087,0.074154,-0.004635,0.024338,0.030752,0.20095,0.77021,0.51193
-0.07853,-0.1985,-0.042493,-0.060601,-0.03053,-0.067003,-0.046763,-0.37449
0.038427,0.023164,0.021985,0.011513,-0.037748,-0.083901,-0.7679,-0.15397
-0.16739,0.37303,0.0078155,0.021539,0.0090009,0.21136,0.3331,-0.016553
0.075855,-0.06388,0.04656,-0.0075041,0.00041357,-0.16733,0.5153,0.30662
0.21274,0.21719,-0.019027,0.064616,0.069485,0.43458,-0.25768,0.80052
-0.045609,-0.15578,-0.1192,-0.051475,-0.0023113,-0.15603,0.2993,0.13502
-0.18252,-0.032251,0.027239,-0.020018,-0.027271,-0.252,-1.0514,-1.1157
-0.2276,-0.29259,-0.016769,-0.020717,-0.0052478,-0.11028,-0.024199,-0.33901
0.27419,0.30944,0.093365,0.024698,-0.029913,-0.15846,0.68916,0.58569
0.019961,-0.07903,0.046204,-0.0084924,0.00030949,-0.010832,0.27779,-0.10228
-0.020281,-0.11259,-0.039954,0.044121,0.046324,0.52313,0.045592,-0.05257
0.25557,-0.3416,-0.054739,-0.035867,-0.0091258,-0.30422,-0.22948,0.10242
-0.10585,0.24012,0.033871,0.017445,-0.009876,0.070605,-0.044976,0.059481
-0.10535,0.16274,-0.047082,-0.014532,-0.0028865,0.57661,-0.28241,0.12521
-0.056505,0.049341,0.030682,0.032297,0.01959,-0.32745,0.37203,0.03563
-0.17126,0.028635,-0.022068,-0.037467,-0.05185,-0.28529,-0.32148,-0.38799
0.09658,0.031093,0.04421,0.010378,0.032806,-0.20638,0.047604,-0.044032
0.074846,-0.023745,0.033516,0.011553,0.015801,0.2115,0.17331,0.66047
0.091748,0.07012,-0.02371,-0.034158,-0.02465,0.076537,-0.4121,-0.46331
0.053854,-0.014137,-0.034531,0.029315,0.013126,-0.21249,0.18483,0.059748
0.094407,-0.033267,-0.0074414,0.0065369,0.019874,0.65085,0.76511,0.62703
-0.22365,-0.2273,0.002425,-0.024423,-0.04335,-0.75258,-0.76808,-0.79301
-0.22025,-0.1154,-0.036333,-0.016681,0.0032522,0.18971,0.31661,-0.64511
-0.10609,0.1141,0.087374,0.061071,0.050402,0.12902,-0.37492,0.51732
0.447,0.056729,-0.016671,-0.02544,-0.034643,-0.081054,0.082829,0.35982
0.11843,0.052326,-0.035385,-0.0026551,-0.0018461,0.2165,0.27837,0.18819
0.11083,0.11382,0.016265,-0.0032494,-0.01528,0.013233,0.11939,0.22923
-0.38901,-0.011246,-0.0095314,-0.019276,0.0031057,-0.20062,-0.55805,-0.3537
-0.10828,-0.21666,0.0049091,0.0040696,0.014105,0.025226,0.29176,-0.046347
-0.063032,0.14929,-0.010439,0.012181,0.0096857,-0.031197,-0.16169,-0.71745
0.21534,0.041257,-0.0086748,0.012899,0.020823,0.041172,0.054704,0.46002
0.070699,0.044898,0.033396,-0.0016266,-0.038719,0.0056772,0.41336,0.75145
-0.012391,-0.13071,0.02155,-0.0080523,0.026107,0.0095487,0.22238,-0.23301
0.075535,0.050537,0.0098556,0.0091128,-0.0036253,0.021564,-0.92849,-0.98387
-0.18129,0.061686,-0.010139,-0.0049617,-0.026397,-0.17582,0.13748,0.45424
-0.087961,-0.28041,-0.085846,-0.026959,-0.010851,0.2164,0.4501,-0.11958
0.018928,0.15415,0.032409,0.028984,0.012004,-0.20536,0.048873,0.58535
0.25584,-0.0195,0.016432,-0.001219,0.019045,0.16316,-0.087425,-0.21951
0.044079,0.17425,-0.0085963,-0.0081717,-0.012854,-0.027341,-0.56454,0.19946
0.016322,-0.053523,-0.0267,-0.023089,-0.0053455,-0.064509,-0.018738,0.082608
-0.1159,-0.092243,0.048481,0.0087346,0.010389,0.059841,0.3354,-0.34588
-0.31984,0.013292,0.0064018,0.016953,0.0029824,0.063769,0.41508,-0.22892
0.094368,0.070495,0.042661,0.024904,0.034649,0.086372,-0.043914,0.041249
0.020285,-0.10509,-0.076958,-0.014442,-0.027812,-0.17119,-0.057718,0.018644
0.046769,-0.026126,0.053846,0.00030439,-0.0051063,0.1017,-0.51913,-0.08564
0.12137,0.020797,-0.033678,-0.0012971,-0.0068919,-0.15883,0.24062,0.30716
0.14347,-0.0018308,-0.027029,-0.0036389,0.0058205,-0.00011924,0.42933,0.14305
-0.1533,0.10165,-0.0121,0.0012334,0.0097863,0.015856,0.021362,0.1802
0.072357,-0.021326,0.0033769,-0.056681,-0.041413,0.13264,-0.38237,-0.43296
-0.2068,0.11922,0.074181,0.049627,0.016936,-0.18702,-0.50735,-0.0013302
0.035939,-0.1439,-0.041826,-0.030913,-0.0097604,0.07424,0.22697,0.45149
0.37421,0.060886,0.045945,0.022446,-0.0036846,-0.019942,-0.3954,-0.83995
-0.29718,0.027237,-0.068904,0.014654,-0.0035177,-0.11792,0.47893,0.085933
-0.097504,-0.16129,0.027435,0.023849,0.068885,0.46664,0.66224,0.29257
0.035552,0.056611,-0.0091195,-0.012725,0.0022079,-0.088867,0.15163,0.10906
0.080319,-0.20959,-0.022681,-0.0096204,-0.0089597,-0.1312,-0.31597,0.29387
-0.30359,0.18974,0.041099,-0.014331,-0.028038,-0.21812,0.034324,-0.5512
0.16155,0.061234,0.049147,0.027205,0.0065559,0.31205,-0.21728,0.68312
0.34728,0.14917,-0.022102,-0.018326,-0.0074521,-0.29959,-0.48804,-0.19084
-0.30531,-0.32589,-0.086675,-0.026202,-0.023528,-0.021206,0.035192,-0.52439
0.073111,0.082486,-0.011552,0.0035703,-0.018131,0.1807,-0.017775,0.14432
0.076711,0.16371,0.031737,0.00093218,0.0014455,0.090936,0.29883,-0.29248
0.063586,-0.0044362,0.027986,0.02102,0.020388,-0.22373,0.034125,0.37023
-0.078193,0.11641,0.032288,-0.021558,0.0083674,-0.032581,-0.16156,-0.31135
0.031021,-0.075931,0.013725,0.05342,0.036527,0.152,0.37526,0.56942
-0.26024,-0.21434,-0.011861,-0.0036121,0.0038779,-0.090155,-0.47724,0.19092
0.1864,-0.032482,-0.036549,-0.059564,-0.034667,0.076654,0.69339,-0.55934
-0.10657,-0.15383,-0.036879,0.041916,0.014503,0.36123,-0.15799,0.21254
0.087808,-0.068576,-0.036323,-0.019544,-0.020927,-0.34945,0.0375,0.0092538
-0.0022194,0.52207,0.097854,0.013688,0.014669,0.073061,-0.097744,0.18558
-0.077265,0.056871,0.029591,0.024163,0.026869,0.015186,-0.30747,-0.26928
0.14673,-0.12809,-0.053791,-0.082168,-0.063048,-0.21372,0.27695,0.073744
-0.069916,0.059844,0.034969,0.061581,0.033554,0.213,-0.706,-0.45521
-0.092694,-0.31116,-0.10285,-0.05269,-0.066353,-0.51678,0.035023,-0.13315
0.04768,0.029592,0.063695,0.074757,0.05909,0.26299,0.31061,0.13919
0.16295,0.20426,0.034309,-0.017244,0.019398,0.16462,0.37873,0.6564
0.0090482,-0.14108,-0.035003,-0.024181,-0.013329,0.027127,-0.18216,0.086849
-0.010439,0.054506,0.043107,0.046032,0.047101,0.22017,0.3455,-0.067157
-0.085887,-0.061041,-0.051687,-0.048787,-0.049065,-0.30181,-0.18275,-0.071144
-0.15732,0.028446,0.032334,0.011805,-0.0047262,0.20348,0.13247,-0.43458
0.12514,0.19941,-0.0013599,-0.021928,-0.014985,0.12571,-0.28875,0.30092
-0.012522,-0.21795,-0.027264,0.0066307,-0.0015207,-0.50539,-0.39547,-0.17193
-0.061983,-0.10418,-0.029152,0.0041478,0.012403,0.097671,0.30756,-0.042482
0.0093865,0.058433,-0.00644,0.010081,0.0034894,-0.074097,0.034289,-0.17878
-0.085662,0.044813,0.033501,0.01692,0.02651,0.22873,-0.031988,-0.018245
0.2406,0.13679,0.036157,0.0013802,-0.0044535,0.045252,0.51189,0.53351
-0.018232,0.060519,0.024792,-0.0053046,-0.019135,-0.006794,-0.48424,-0.16343
0.2402,-0.083779,-0.01674,-0.018939,0.013618,0.065614,-0.0050459,0.35228
-0.29635,-0.094879,-0.042356,-0.024203,-0.031319,-0.28346,-0.02605,-0.20843
-0.018631,0.087691,0.017339,0.017591,0.0021678,0.20469,-0.18576,-0.20521
-0.16904,-0.11587,0.0052318,0.066997,0.012375,-0.17238,-0.0048532,-0.32592
0.080464,0.043503,0.0066216,-0.024759,0.022594,0.11701,0.7384,0.23394
0.081533,-0.11391,-0.025661,-0.05479,-0.029836,0.080689,-0.14858,-0.11167
0.04532,0.029929,-0.044638,-0.015394,0.003342,-0.062915,-0.38227,0.2699
-0.051463,0.17969,0.028277,0.030947,0.028184,-0.0019827,0.14052,-0.21562
0.041081,-0.13153,-0.024946,-0.0015757,-0.033623,-0.096791,-0.14957,0.39935
0.056846,0.13718,0.10121,0.043485,0.044334,0.18294,-0.37738,-0.11348
-0.090968,-0.0048597,-0.0065303,-0.013334,-0.027078,-0.10116,0.37816,0.07192
0.041819,-0.17381,-0.02722,-0.023371,-0.005625,0.073752,0.029122,-0.31975
-0.0069172,0.15423,-0.030759,0.021393,-0.0004984,-0.1207,0.11128,0.18705
-0.05067,-0.083283,0.0064746,-0.035096,-0.011383,-0.098463,0.018661,-0.14947
0.20687,-0.035249,-0.0092798,0.018284,-0.0066221,0.023728,0.44935,0.071235
-0.33585,-0.061772,-5.4779e-05,0.0020171,0.01422,0.15273,-0.37483,-0.12371
0.14209,0.23472,0.049526,0.0021847,0.020272,0.31263,-0.3088,0.44235
-0.12388,0.025233,-0.0092692,-0.012376,-0.011663,-0.40227,0.0057719,-0.65531
0.12538,-0.1441,-0.043928,-0.0026095,0.012213,0.16469,0.16456,-0.045451
0.070763,-0.094163,-5.2128e-05,-0.0077093,-0.033273,-0.38469,-0.23387,0.32866
0.041283,0.057504,0.004894,0.011108,0.0077554,0.082455,-0.034021,-0.057206
-0.17363,-0.025293,-0.0059298,0.022174,0.017593,0.13629,0.13158,0.41021
0.17587,0.016514,0.045301,0.032783,0.034732,0.44054,-0.12782,0.2243
0.034542,0.088617,-0.0058108,-0.020101,-0.027276,-0.22403,0.49057,0.11909
-0.17648,-0.17715,-0.034626,-0.027564,0.003101,-0.19382,0.154,-0.85871
