-0.040239,-0.056711,0.20525,-0.068894,-0.03069,-0.020762,-0.011652,-0.01648
-0.0074026,-0.016705,-0.079948,0.0189,0.018076,-0.0044416,-0.0040471,-0.006225
0.018218,-0.015656,-0.13208,0.036395,0.0039415,0.0038307,0.003442,0.01974
0.028477,0.086922,0.11849,0.02247,0.020403,0.011762,0.010905,0.014206
0.015116,0.056363,0.25711,0.062792,-0.0030189,-0.011955,0.00277,0.015887
0.02454,0.0954,0.12723,0.078917,0.019565,0.018611,0.010291,-0.0067779
-0.060825,-0.17135,-0.5132,-0.19505,-0.052382,-0.013675,-0.0056389,-0.030553
0.0010065,-0.033161,-0.2885,0.0064065,0.015744,0.0084752,-0.0060355,0.0070172
-0.024291,0.010022,0.54479,0.027153,-0.010097,-0.0085499,-0.022231,-0.018926
-0.034856,-0.064849,-0.058666,-0.085576,-0.035772,-0.025536,0.00039839,-0.014322
0.032293,0.0084916,-0.23012,0.074988,0.040627,0.020158,0.022761,0.029066
0.0058204,0.04328,0.19564,-0.014058,-0.007236,-0.011998,-0.0098189,-0.005493
0.050253,0.10265,0.12533,0.069567,0.039437,0.034283,0.012079,0.015219
0.072124,0.10103,-0.11325,0.12291,0.08676,0.041781,0.026031,0.068055
-0.069133,-0.086528,0.393,-0.080661,-0.092094,-0.052085,-0.053806,-0.049963
-0.029907,-0.054008,-0.34944,-0.072657,-0.0365,-0.020849,0.014866,-0.026328
-0.044831,-0.15338,-0.49033,-0.11121,-0.02796,-0.013029,-0.010028,-0.033012
-0.0048247,0.021141,0.21927,-0.0013155,-0.019731,0.0025838,0.0044246,-0.007699
0.035165,0.078506,0.099014,0.069318,0.042876,0.025991,0.019236,0.025924
0.035886,0.080839,0.18765,0.092726,0.050584,0.018151,0.011003,0.02848
0.012851,0.066889,0.26628,0.060984,0.019144,-0.0052899,-0.0046535,0.023025
-0.018361,-0.096416,-0.39953,-0.10413,-0.035723,-0.0052724,-0.012151,-0.0064825
-0.026488,-0.04987,-0.075444,-0.012043,-0.012421,-0.020889,-0.0037439,-0.029192
0.0041495,0.034624,0.48087,0.048207,0.0030893,0.010311,-0.010765,0.0092859
-0.0044794,-0.030275,-0.55048,-0.10289,-0.012679,0.0023372,-0.0020677,-0.00052819
-0.00539,-0.0098311,0.042211,0.011579,0.010552,0.0020307,-0.0090426,-0.0037837
0.02496,0.049613,0.080399,0.04053,0.010296,0.0015817,0.0071813,0.0077921
-0.014915,-0.023191,0.14353,-0.031121,-0.036812,-0.0067683,-0.0083318,-0.035387
0.039083,0.038005,-0.1109,0.093979,0.041236,0.023967,0.061326,0.023827
-0.039614,-0.039722,0.075872,-0.044792,-0.02102,-0.031049,0.059658,-0.04803
-0.0010336,0.025206,0.06362,0.0057658,0.0031471,0.000256,-0.12282,-0.015833
0.021988,-0.032756,-0.061938,-0.020153,0.0044861,0.0087057,0.092145,0.12864
0.021651,0.051836,-0.043802,0.041106,0.029923,0.0022694,0.017505,-0.013084
-0.072291,-0.049575,-0.031683,-0.084465,-0.053399,-0.050235,-0.34598,-0.097789
-0.02534,0.01393,-0.019317,0.039986,0.01999,0.069882,0.15109,0.10016
0.10798,0.022808,0.077603,0.030989,-0.00016645,0.081161,0.43935,-0.014176
0.0075178,-0.016002,-0.06276,-0.072993,-0.012646,-0.15737,-0.63678,0.026779
-0.13129,-0.072123,0.050525,0.024423,0.0055982,-0.0055418,0.36036,-0.17639
0.06661,0.1349,0.11193,0.072885,0.054177,0.059592,-0.11662,0.27415
0.069911,-0.10651,-0.12102,-0.0058946,-0.031291,0.053192,0.22023,-0.3483
-0.098096,0.023559,-0.022976,-0.063419,-0.032237,-0.064149,-0.083794,0.15965
0.14829,-0.0062196,0.039937,0.080317,0.074805,0.12148,0.18062,-0.084333
-0.17557,0.1326,0.0069153,-0.081911,-0.084897,-0.10074,-0.15966,0.021841
0.039413,-0.10609,-0.088604,-0.064912,-0.0030258,-0.13666,-0.4177,0.46288
0.011723,0.21647,0.068282,0.10103,0.024215,0.13156,0.16466,-0.58144
0.061448,-0.44493,-0.11391,-0.028446,-0.025889,-0.068725,-0.044273,0.31059
-0.085051,0.091299,0.05405,0.039647,0.034793,0.052325,0.24612,0.052801
0.032975,0.33481,0.27619,-0.02235,0.00353,0.11251,0.19362,-0.034567
0.0012862,-0.68959,-0.45548,-0.06597,-0.010245,-0.13788,-0.36472,-0.34188
0.015041,0.46397,0.24843,0.080225,0.04003,0.12923,0.36839,-0.016908
0.13664,0.2793,0.38583,0.071628,0.028726,-0.055269,0.017713,0.15226
-0.21204,0.2625,-0.27244,-0.030391,-0.044986,-0.043541,-0.44087,0.19793
-0.10114,-0.63588,-0.37741,-0.10204,-0.064777,-0.12534,-0.00039273,-0.074343
0.2431,0.15152,0.19375,0.035301,0.03113,0.11271,0.1431,0.0077861
-0.053799,-0.46402,-0.044735,-0.02535,9.6366e-05,0.037203,-0.065541,0.022455
0.086962,0.31231,0.070656,0.043844,0.037318,0.053961,0.13919,0.1959
-0.14637,0.2373,0.032322,-0.061621,-0.075734,-0.10289,0.21839,-0.37076
-0.010829,0.16267,0.06757,0.072903,0.098938,0.16038,-0.28852,0.056507
-0.029189,-0.15249,0.036783,-0.0048467,-0.062991,-0.20283,-0.013816,-0.10836
0.03339,-0.26846,-0.16836,-0.036086,0.025156,0.058041,0.25412,-0.13874
0.11454,0.0051444,0.070266,0.042603,0.028134,0.10786,-0.25744,0.54348
-0.07509,0.10896,0.22222,-0.018047,-0.069132,-0.22427,-0.11033,-0.21044
0.049745,-0.21194,-0.50091,-0.037897,0.022767,0.062574,-0.10111,-0.081115
-0.066669,0.036705,0.10452,0.014441,-0.00075114,0.023807,0.035592,-0.1326
0.15261,0.52769,0.36709,0.052872,0.032046,0.12846,0.81437,0.57833
-0.1529,-0.0050418,-0.12687,0.030138,0.0036158,-0.02215,-0.61821,-0.34902
-0.038754,-0.16466,0.013669,-0.069886,-0.016236,0.0086877,0.086918,-0.072812
0.0024448,-0.31285,-0.093648,0.010123,-0.020266,-0.084891,-0.065069,-0.10193
0.009782,0.18855,-0.05767,-0.042709,0.014426,0.031723,0.079881,0.024772
0.069626,-0.28751,0.044054,0.021427,0.017109,0.0057713,-0.088741,0.34797
0.026426,0.23421,-0.045792,0.022835,-0.020269,0.0083089,0.22629,-0.28561
-0.095579,0.034437,-0.022303,-0.03836,-0.03525,-0.19533,-0.51993,-0.47367
0.11061,-0.16806,0.028303,0.017692,0.034803,0.16076,0.097847,0.63176
-0.073157,0.15825,0.081648,-0.012031,-0.036412,-0.032095,0.19322,-0.027995
0.01756,0.1229,0.11268,0.052132,0.056106,0.10212,0.16893,0.096736
-0.03894,-0.094531,0.0021381,0.045948,0.031402,0.033224,-0.19021,-0.26616
0.030777,0.10711,0.060325,0.0082127,-0.024361,-0.10504,0.15705,0.10953
0.0078443,-0.13987,-0.26142,-0.10821,-0.048546,-0.05415,-0.12486,-0.051525
0.048346,0.10957,-0.003077,-0.014417,-0.0020398,-0.0012448,-0.092075,-0.064983
-0.035373,-0.16775,-0.039443,0.016198,0.037017,0.12403,0.45557,0.2059
-0.079361,-0.025479,-0.033222,-0.016133,-0.0095664,-0.045771,-0.53271,-0.15701
0.049128,-0.016574,0.12716,0.037401,-0.0090731,0.012286,0.31398,0.20978
-0.0093437,-0.099751,-0.03234,-0.010307,-0.0084979,-0.014929,-0.093932,-0.27469
-0.012728,0.18818,0.029604,0.012903,0.03109,-0.034324,-0.21207,-0.026162
0.015242,0.15368,0.095723,0.068051,0.0079972,0.0082146,0.13038,0.11122
-0.0040611,-0.046102,0.018001,-0.04814,-0.03883,-0.036171,-0.050529,-0.1039
0.10053,0.041756,0.22547,0.054606,0.038969,0.097911,0.38749,0.15837
-0.023348,-0.20122,-0.47863,-0.12416,-0.03988,-0.066152,-0.47498,0.11913
-0.048325,-0.011526,0.099136,0.0010684,-0.0018996,0.042048,0.075645,-0.21117
0.056377,0.069243,-0.027393,0.047174,0.02801,-0.030415,0.018176,0.16218
-0.076442,-0.0083235,-0.054905,-0.0015886,-0.01251,-0.03329,-0.005384,-0.1336
-0.032165,0.058346,0.27367,0.018927,-0.013928,0.010252,0.13803,-0.12806
-0.051891,0.15069,-0.0026577,0.030862,0.047342,0.1161,0.50225,0.19545
-0.0091678,-0.31768,-0.25054,-0.074758,-0.031707,-0.035814,-0.32055,0.016864
0.058473,-0.080613,0.023215,-0.00058288,-0.024434,-0.14054,-0.60561,-0.3832
0.1367,0.19139,0.1714,0.050756,0.045768,0.10687,0.28635,0.36879
0.062263,0.031534,-0.078111,-0.014041,-0.00076684,-0.0042232,-0.0045604,0.18479
-0.1256,0.074822,0.064902,0.01632,0.0078468,0.018679,0.0066136,-0.15643
-0.044475,0.010835,-0.062712,-0.014187,-0.069007,-0.097601,0.17295,0.11621
0.0079117,-0.11187,0.14898,-0.011745,0.010864,0.014277,-0.10501,-0.077121
-0.063253,-0.06568,-0.21392,0.0079106,0.044312,0.1199,0.30004,-0.3621
0.076895,0.0012926,-0.12827,-0.06489,9.9556e-06,-0.062258,-0.4849,0.035266
-0.072553,-0.020814,-0.032326,-0.043127,-0.067516,-0.095269,-0.013116,-0.16462
0.15183,0.22611,0.44765,0.25224,0.091477,0.12164,0.44249,0.72804
-0.015911,-0.19735,-0.16657,-0.12484,-0.007719,0.048459,-0.19657,-0.34687
-0.044518,0.14395,0.16216,0.012384,-0.029524,-0.042268,0.26382,-0.020329
-0.097781,-0.010277,-0.24765,-0.055448,0.033572,-0.0027927,-0.50634,0.11487
-0.018987,-0.0059224,0.0011014,0.030711,-0.052965,-0.091214,0.17823,-0.089789
0.1377,-0.12568,-0.0060789,-0.065028,0.031226,0.075505,-0.067631,0.18507
-0.11945,-0.018382,-0.11226,0.032788,-0.026068,-0.087835,-0.011818,-0.34325
0.13948,0.25425,0.45003,0.11401,-0.013424,-0.025417,0.28116,0.026868
0.016014,-0.32929,-0.44144,-0.17193,-0.0083686,0.13906,0.012799,0.33335
-0.091685,0.054061,0.029076,0.035308,0.020926,-0.13229,-0.2712,-0.3774
0.034685,0.10278,-0.080629,-0.029143,-0.011054,0.11449,0.038001,0.15274
0.050934,-0.086394,0.16145,0.11944,0.098981,0.14535,0.4015,0.24511
-0.1448,0.074735,0.029687,-0.019097,-0.039731,-0.17275,-0.78916,-0.48159
-0.005672,0.11859,0.21866,0.08588,-0.021336,-0.012367,0.42857,0.13048
0.10133,-0.040888,-0.14122,-0.090006,-0.01045,0.00061438,0.080254,0.14507
-0.018691,0.11065,0.18078,0.038169,0.039239,0.037152,0.035486,-0.031087
-0.10749,-0.24141,-0.42108,-0.12416,-0.068022,-0.036309,0.13259,0.21082
0.1087,0.064523,0.17435,0.024176,-0.051212,-0.12649,-0.45443,-0.20904
0.028398,-0.059828,0.026802,-0.032347,0.058418,0.078929,-0.044251,-0.23869
0.034197,-0.0068935,-0.075809,0.050589,0.034484,0.1737,0.37197,0.54044
0.016286,-0.027739,-0.2891,-0.069921,-0.021189,-0.099861,-0.0492,-0.28913
-0.12741,0.088271,0.35791,0.13826,0.040085,-0.030684,0.12159,-0.21466
0.055826,0.099285,0.095048,0.066438,-0.039342,0.021981,0.0084736,0.40268
-0.0043922,-0.14237,-0.16775,-0.10534,0.053082,0.066067,-0.21781,-0.18743
-0.010879,0.1299,0.11978,0.029142,-0.034233,-0.070119,-0.16001,-0.085099
-0.080118,-0.051637,-0.17265,-0.046072,0.0033483,0.0043412,-0.069203,0.06439
-0.070532,-0.061102,0.11256,-0.042421,-0.045121,-0.069497,0.31152,0.039035
0.12042,0.0006496,0.11608,0.055204,-0.046755,-0.048911,0.020396,-0.25731
0.071629,-0.0065512,-0.12416,-0.019226,0.068922,0.082272,-0.076248,0.07155
0.19756,0.058097,0.10079,0.062187,0.044316,0.12136,0.1066,0.27276
-0.21275,-0.11802,-0.26614,-0.11467,-0.018791,-0.00175,0.24771,0.22499
-0.065866,0.11312,-0.039854,0.0049981,0.012581,-0.068395,-0.55211,-0.1792
0.020614,0.29781,0.64486,0.19477,-0.03336,-0.078955,0.12083,-0.52574
0.015127,-0.47095,-0.69771,-0.20146,-0.047265,-0.049671,-0.19423,0.33967
0.011361,0.095192,0.20529,0.097605,0.056674,0.12025,0.33938,-0.070944
-0.021737,-0.0043427,0.0024616,-0.025295,0.00479,0.047203,0.17602,0.20624
0.01772,0.026935,-0.08672,-0.031295,-0.0079214,0.019499,-0.057786,0.15763
-0.15913,0.063863,0.36071,0.0089982,-0.052154,-0.088424,-0.23547,-0.44941
0.049088,0.21586,0.025631,0.15775,0.12168,0.027825,-0.2541,0.16845
0.071186,-0.39183,-0.64555,-0.2494,-0.11963,-0.14736,0.22319,-0.0092129
0.16335,0.10834,0.348,0.099816,0.075167,0.066024,0.0012659,-0.0013303
0.13582,0.08409,0.14735,0.041279,0.010579,0.082605,0.095109,0.034417
-0.21712,-0.22182,-0.25524,-0.088964,-0.10244,0.020255,0.33916,0.059632
0.07095,0.24594,0.21804,0.10001,0.080115,0.028116,-0.19049,0.17082
-0.11087,0.17546,0.23856,0.053994,0.0040131,-0.049406,-0.11315,-0.096166
-0.21601,-0.24518,-0.17078,-0.13266,-0.064473,-0.0086144,-0.016325,-0.61822
0.01437,-0.085786,-0.39305,-0.021761,0.047278,-0.083391,-0.19743,0.033001
0.082438,0.099385,0.2437,0.07486,0.027506,0.054802,-0.093204,0.71509
-0.0011964,-0.23628,-0.26782,-0.1235,-0.0841,2.892e-05,0.34515,-0.34863
0.13346,0.20409,0.1512,0.11002,0.056612,0.057149,-0.02817,0.19576
0.23868,0.1076,0.39204,0.080078,0.0044375,-0.070741,-0.34338,0.074484
-0.051244,0.028101,-0.20912,-0.041863,0.032589,0.069206,0.26854,-0.23878
0.076849,-0.082515,-0.16816,-0.029948,-0.054782,-0.046999,0.20648,0.39958
-0.40814,0.024303,0.39694,-0.0022544,-0.008461,-0.076414,-0.046418,-0.52409
-0.07653,-0.043449,-0.20242,0.0090829,0.053442,0.15183,-0.11793,-0.0077003
0.0092647,-0.028962,-0.15481,-0.020081,0.012803,0.019445,0.034992,0.20197
-0.048945,-0.15918,-0.19535,-0.12139,-0.139,-0.22461,-0.19325,-0.27281
0.2569,0.14437,0.10542,0.095744,0.089627,0.21569,0.26435,0.55192
0.16894,0.13277,0.35725,0.11603,0.042186,-0.066374,0.085806,-0.25167
0.077289,-0.012653,0.037584,-0.020896,0.015655,-0.00046161,-0.2127,-0.23443
-0.097272,-0.0087177,-0.094581,-0.017394,0.026133,0.062433,-0.14379,0.40572
-0.30937,-0.29096,-0.56923,-0.20082,-0.19121,-0.15003,-0.022627,-0.33331
0.040899,0.19693,0.39596,0.10139,0.052121,0.043334,-0.069292,-0.23531
-0.04802,-0.012769,0.012558,0.069353,0.014999,-0.058948,0.21499,0.1098
0.047631,-0.076185,-0.0085175,-0.031183,0.049891,0.075897,-0.047267,0.18797
0.2645,0.21675,0.26166,0.096401,0.040193,-0.011993,0.013941,0.38091
-0.069725,-0.034239,-0.13923,-0.025043,0.025108,0.1309,0.17155,-0.018179
-0.064461,-0.026949,-0.0019845,-0.068178,-0.081625,-0.089557,0.023157,-0.20235
-0.031844,0.079651,-0.10166,-0.0025606,0.0083576,0.052072,0.23376,0.033126
0.0054745,-0.13869,-0.095603,0.022733,0.059768,-0.00051185,-0.41613,-0.067217
0.0096223,-0.066298,-0.023101,-0.070745,-0.092377,-0.10065,0.14302,-0.24121
-0.096005,0.077782,0.17908,0.04518,0.027746,0.0078674,0.037039,-0.067638
-0.02065,-0.096048,0.020297,0.01934,0.0056461,-0.027629,-0.4412,-0.3177
0.12797,-0.015328,-0.19271,-0.030457,-0.025931,0.042399,0.27052,0.52095
0.11684,0.064948,0.07339,0.021476,0.011404,0.054114,-0.23069,0.42284
-0.12346,0.014852,-0.015713,-0.01177,-0.014675,-0.11668,0.084876,-0.34076
-0.10048,0.055475,0.19707,0.049855,0.037029,0.085867,0.10779,-0.13265
0.099455,0.063141,-0.030625,0.0033009,0.034224,0.0068194,0.13483,0.080684
0.053507,-0.07926,-0.26241,-0.050073,-0.030534,-0.055758,0.031514,0.095914
-0.060062,0.11934,0.41396,0.053398,0.022615,0.09435,-0.034484,-0.19891
-0.039827,-0.10086,-0.12858,-0.046132,-0.025086,-0.026719,0.078099,0.16838
0.0030575,-0.015719,-0.23564,-0.0053274,-0.0018856,0.010831,0.1094,-0.073297
-0.042451,-0.072848,0.052516,-0.019761,-0.040762,-0.074476,-0.13201,0.17215
0.13477,-0.024019,-0.022267,0.012069,0.030015,0.060655,-0.15085,-0.076403
0.0025188,0.028225,-0.0063352,0.0043476,-0.024015,-0.11559,-0.22493,-0.1968
0.036968,0.060304,0.085842,0.035439,0.054931,0.13059,0.21284,0.1072
-0.1601,-0.044404,0.052528,-0.035017,-0.0065712,-0.060702,-0.14387,-0.1706
0.021512,0.027625,-0.14414,0.0041145,-0.044441,-0.033644,0.032951,-0.011093
0.0049991,0.043221,0.12148,0.0044664,0.027257,0.10987,0.28337,0.18401
-0.067424,-0.012095,-0.017829,0.0050249,0.013173,0.041511,0.093329,-0.21343
0.087052,0.12824,0.39034,0.10716,0.0069874,-0.12943,-0.26217,0.36286
-0.0069174,-0.18352,-0.59262,-0.11905,-0.0070149,0.018994,0.10088,0.040104
-0.020588,-0.017239,0.13369,-0.025364,-0.028925,-0.036459,-0.13725,-0.22045
0.24127,0.12735,0.27942,0.044393,0.0036804,0.0013826,0.039117,0.24383
-0.073624,-0.31994,-0.46814,-0.073766,-0.02645,0.046897,0.22333,-0.038444
-0.21636,0.28931,0.21964,0.057864,0.021248,0.03784,-0.17897,-0.32039
0.093155,-0.013846,-0.09367,0.0020504,0.037325,-0.01785,-0.12933,-0.089179
0.0025406,-0.0032244,0.062036,0.024662,0.013869,-0.018635,0.0046316,0.2314
-0.15253,0.094051,0.21929,0.008656,-0.017985,0.027527,-0.019416,-0.32813
0.16742,-0.1836,-0.14442,-0.030332,-0.027078,-0.020186,0.28309,0.40454
0.010304,0.05383,0.065045,0.032582,0.033439,0.033386,0.14706,0.25112
0.0025418,0.1028,0.14441,0.04096,-0.02385,-0.077416,-0.21568,0.08864
-0.073073,-0.14622,-0.35998,-0.13039,-0.042486,-0.024349,-0.25703,-0.81503
-0.0042839,-0.083694,-0.050379,-0.0050508,0.016907,0.028777,0.1104,0.12039
0.037827,0.095433,0.095972,0.010674,0.0062584,0.043204,0.0053431,0.26376
-0.040446,0.071328,0.26602,0.12774,0.058723,-0.019863,-0.15684,-0.20444
0.09603,0.047527,-0.14999,-0.052236,-0.028576,0.02721,0.19485,0.34052
-0.023096,-0.092942,-0.089812,-0.036988,-0.013342,-0.0031184,0.14616,0.14719
-0.0015621,0.048321,0.15733,0.071986,0.041881,0.060827,0.078695,-0.12268
0.048862,-0.060198,-0.22119,-0.092436,-0.042756,-0.039052,0.068485,0.16104
0.0088132,0.042045,0.071384,0.0088787,-0.025302,-0.092095,-0.1605,-0.20713
-0.13886,0.010914,0.16775,0.024459,0.015871,-0.02035,-0.39209,-0.61138
-0.0040735,-0.0053993,-0.02598,0.032538,0.02586,0.090216,0.082496,0.20599
0.0074914,-0.10066,-0.18176,-0.044891,-0.011111,-0.041543,0.035329,0.16015
-0.032224,0.10039,0.26292,0.050084,0.029882,0.037673,0.18462,0.14365
0.13699,-0.018959,-0.19179,-0.057476,-0.054292,-0.0079056,0.069643,0.34608
-0.028991,-0.075313,-0.17839,-0.023827,-0.005778,0.017125,0.26156,-0.21523
-0.1291,0.041262,0.14728,0.049372,0.027049,0.003368,-0.38672,-0.20329
0.13559,0.057704,0.019985,0.0056734,0.012988,-0.010239,0.11099,0.19469
0.047542,0.060042,0.26031,0.047914,0.0067342,-0.01607,-0.23524,-0.091834
-0.0024616,-0.069143,-0.17076,-0.050813,-0.0152,-0.037759,-0.094752,-0.016472
-0.12462,-0.05692,-0.1171,-0.025226,0.001772,0.065171,0.47256,-0.26719
0.054406,0.072602,0.077265,0.015024,0.0028285,-0.027671,-0.11695,0.26505
-0.0066017,-0.0015937,0.060475,0.0072843,-0.035608,-0.011599,-0.30711,-0.19346
-0.013133,-0.10823,-0.19893,-0.025007,0.019158,-0.019375,0.10552,0.20843
0.0013454,0.025712,0.0098779,-0.0035724,0.0029914,-0.0040622,0.057236,0.08724
0.050656,0.11099,0.21816,0.095301,0.056502,0.12813,0.037493,0.0043356
0.00080095,-0.047689,-0.081838,-0.071794,-0.023379,-0.06809,0.16726,-0.0027048
-0.10963,-0.043886,-0.077601,-0.059191,-0.07247,-0.0068234,0.37927,-0.19334
0.032128,0.013314,0.12149,0.039663,0.003162,-0.078718,-0.68268,0.0090735
-0.0027409,-0.016376,-0.093984,0.029666,0.031856,0.02091,-0.037824,-0.12299
0.10744,0.10959,0.13538,0.051536,0.052893,0.088982,0.093323,0.31657
0.012734,-0.00686,-0.033984,-0.011926,-0.011662,0.00059711,0.24256,0.18009
-0.089839,-0.084085,-0.18761,-0.059239,-0.036672,-0.08004,-0.38409,-0.38219
-0.058067,0.0033478,0.1908,-0.0045664,-0.014248,-0.012136,0.20252,-0.12548
0.01561,-0.064401,-0.28072,-0.027674,0.024382,0.079476,0.10201,0.28145
0.069605,0.049081,0.14086,0.01202,-0.022375,-0.086312,-0.46097,-0.33015
0.073101,0.078569,0.17491,0.067611,0.040719,0.1234,0.581,0.18292
-0.091157,-0.10071,-0.15494,-0.071896,-0.052076,-0.080397,0.051322,0.072088
-0.087749,0.042483,0.15873,0.046501,0.019401,-0.033662,-0.27581,-0.10018
0.1059,0.046895,-0.11158,0.024165,0.044039,0.12295,0.074539,0.5942
0.10595,0.036979,0.095298,0.0014669,-0.0095835,-0.079356,-0.018524,-0.33982
-0.10427,-0.027032,-0.1127,-0.021833,-0.024415,-0.054666,-0.083516,-0.22608
-0.072503,-0.14585,-0.072788,-0.030262,-0.01615,0.00168,0.069239,0.033567
0.021004,0.094009,0.12047,0.030877,0.023045,0.0662,0.035989,-0.18066
-0.019286,0.020315,0.037146,-0.049159,-0.03172,-0.0096414,-0.1406,0.1377
0.017662,-0.077948,-0.23645,-0.020011,0.015043,0.031788,0.34162,0.059029
0.10873,0.072818,0.12865,0.032828,-0.00054111,-0.012896,-0.3616,-0.10295
-0.0035038,0.035421,0.11005,0.070705,0.031048,-0.050253,-0.069069,0.20064
-0.10774,-0.096035,-0.11154,-0.04673,-0.022949,0.044421,0.20684,0.026729
-0.0084653,0.038101,0.058332,-0.0069235,0.001466,-0.033771,-0.17788,-0.16165
0.036486,0.00045077,-0.044145,0.02588,0.018179,0.043226,0.33636,0.31681
-0.0044025,0.0096851,0.065179,-0.0033869,-0.012125,-0.044791,-0.12867,-0.41965
0.055875,0.1046,0.20601,0.029793,0.019657,0.0071446,-0.14747,0.21539
-0.025527,-0.14488,-0.39585,-0.093805,-0.050762,-0.011504,0.14146,-0.11402
0.024128,0.05773,0.11828,0.031709,0.026491,0.032523,-0.089613,-0.025503
-0.06139,-0.053505,0.03708,-0.015708,-0.022017,-0.040064,-0.12329,-0.0042555
0.014437,-0.0099262,-0.10815,0.029621,0.0069713,0.020995,0.32667,0.073566
0.032866,0.10269,0.12838,0.035131,0.027755,0.0048339,-0.17321,0.089306
-0.013489,-0.027747,0.083469,-0.014409,0.0093752,0.075383,0.40423,-0.029008
-0.09256,-0.064664,-0.1247,-0.04042,-0.024429,-0.025457,-0.35869,-0.017399
0.07019,-0.022942,-0.026391,-0.011208,-0.010893,-0.094911,-0.18317,0.068097
-0.03184,0.059101,-0.042775,0.026695,0.018925,0.069834,0.03148,0.093926
0.079031,0.018022,0.0061214,-0.0046445,-0.012994,-0.031402,-0.19052,-0.40075
-0.0026075,-0.012983,0.15129,0.027583,-0.020709,-0.047065,0.34046,0.10851
-0.018517,0.028664,0.032567,0.021627,0.050385,0.022999,-0.021183,-0.040625
0.015636,0.0020928,-0.00751,-0.015029,0.0048207,0.038417,0.016377,0.13051
-0.07251,-0.061972,-0.024999,-0.02028,-0.016967,0.038518,0.033282,0.0066633
0.028705,-0.023644,-0.16177,-0.041374,-0.015162,6.2134e-05,0.014735,0.034372
-0.0020935,0.030285,-0.035851,0.015161,-0.0055337,-0.037803,0.069647,-0.051805
0.021458,-0.0026156,0.071222,0.000744,-0.019416,-0.043873,-0.2332,0.067457
0.043613,0.09562,0.097264,0.040367,0.021286,0.020762,0.11969,0.18708
-0.030222,-0.034979,-0.03505,-0.014305,0.0071985,0.015251,0.032425,-0.20321
-0.067749,-0.0041037,0.026952,0.008771,0.00081767,0.0018449,-0.22312,-0.15259
0.024668,-0.085154,0.0032292,-0.0073962,0.025549,0.05844,0.23526,0.12647
0.020762,-0.027716,-0.10509,-0.031363,-0.028052,-0.065127,-0.0058859,0.11815
0.054007,0.090837,0.070064,0.046419,0.027425,0.0060871,-0.14792,-0.12934
-0.030926,0.005852,0.03709,-0.016097,-0.011219,0.0065178,0.085239,-0.10537
-0.076757,-0.031629,-0.02412,-5.7215e-05,-0.019008,-0.01679,-0.19403,-0.18116
-0.043447,-0.0050461,-0.043405,-0.022588,-0.042763,-0.063608,0.14209,0.18648
0.093193,0.031589,0.017824,0.0022552,0.034834,0.061592,0.017461,0.26672
0.036683,-0.022964,-0.052094,-0.019333,0.0030266,0.015181,0.057803,-0.10225
0.11513,0.057787,0.11315,0.068776,0.049504,0.086197,0.23891,0.1112
-0.15623,-0.062513,-0.065485,-0.0070403,-0.013086,-0.053666,-0.26169,-0.16481
-0.0046226,0.06859,0.16116,0.0029976,-0.036228,-0.029691,0.091945,0.0038279
-0.016733,-0.073132,-0.16849,-0.041955,-0.019931,-0.06874,-0.32087,-0.082776
0.0020967,-0.011895,-0.023509,-0.017074,0.020091,0.063349,0.26232,0.12498
0.074871,0.017267,-0.044544,0.030664,0.036808,0.030589,0.13609,-0.072983
-0.05637,0.0060608,0.12805,-0.015951,-0.016842,-0.026245,-0.29428,0.02269
-0.063373,-0.03799,-0.14595,-0.0084394,-0.023863,-0.028692,0.10442,-0.043306
0.10106,0.049054,0.094817,0.029829,0.023407,0.01589,-0.15052,0.26781
-0.031389,0.025015,0.030269,-0.0026443,-0.0079306,-0.0013884,0.18559,-0.28449
0.031838,0.015006,0.10575,0.026989,-0.0006806,-0.0019985,-0.072007,-0.087465
-0.01369,0.0036128,-0.022637,-0.014067,-0.0016172,0.022095,0.040051,0.066575
-0.042922,-0.07916,-0.097285,-0.01642,-0.010563,-0.0072577,-0.023564,-0.082994
0.037728,0.024931,0.037995,0.0043641,0.0039463,0.034658,0.19848,0.20283
0.0013505,-0.050776,-0.19471,-0.037531,-0.0047617,-0.055788,-0.20867,-0.033431
