-0.014107,0.040785,-0.18868,0.18638,0.072156,0.010495,-0.037993,-0.014347
0.018046,-0.041906,0.042224,-0.10711,-0.0086981,-0.021318,-0.015784,-0.0064945
-0.012301,-0.048921,0.012031,-0.053754,-0.13659,0.002133,-0.017363,0.0013447
0.027401,0.034793,0.0082819,-0.045922,0.093812,0.041709,0.051163,0.024807
-0.03494,-0.079737,0.19392,-0.24219,0.11901,0.026855,-0.0053689,-0.02989
-0.011931,-0.032306,0.045007,0.25333,0.047483,-0.0037066,0.02411,0.024674
0.010516,-0.040216,-0.24287,0.18043,-0.043167,-0.019063,0.045955,0.0008867
0.0091237,0.10144,-0.074805,0.25603,-0.1529,-0.081937,-0.10381,0.0002
0.015412,-0.035336,0.10583,-0.41133,-0.077836,0.018581,0.012431,0.038175
-0.017168,0.12099,-0.12032,-0.20405,-0.043148,0.0014283,-0.0036499,-0.057037
0.0054599,0.0083231,0.28857,-0.14374,0.15614,0.062283,-0.0034789,-0.01967
0.005433,-0.12384,-0.25096,0.59293,0.14695,-0.0015375,0.036486,0.0020857
-0.040537,0.12943,0.12229,-0.41215,-0.11597,-0.033376,-0.0087289,0.00072605
0.031608,-0.022844,0.065322,0.2824,0.0011274,-0.001722,-0.0064135,0.023415
-0.012678,-0.12956,-0.10197,-0.39834,-0.040726,-0.031527,0.0041242,0.015652
0.021597,0.088759,-0.053081,0.57099,-0.1017,0.056707,0.030326,0.00089416
0.048068,-0.040913,0.092275,-0.49682,0.29324,0.043847,-0.0063666,0.010226
-0.011845,0.090488,0.38572,0.27175,0.032794,0.023153,-0.012615,0.01208
-0.096029,-0.28211,-0.82424,0.076953,-0.23657,-0.091785,-0.012146,-0.040813
0.021837,0.13162,0.46767,0.20414,0.061682,-0.035673,-0.028494,-0.01601
0.04484,0.25522,-0.16975,-0.49882,-0.28434,-0.042996,0.0087883,0.023738
-0.034671,-0.18302,0.57584,0.24644,0.21737,0.097315,-0.0015232,-0.023216
0.033625,-0.0020127,-0.59113,-0.31151,0.12205,0.026196,0.058236,0.030726
-0.031125,-0.099387,0.15238,0.2495,-0.053702,-0.021587,-0.037985,-0.025133
-0.0176,0.10306,-0.24452,-0.24838,-0.043107,-0.030064,-0.024121,-0.026428
0.051047,0.018724,0.011484,-0.044497,-0.071727,-0.030285,0.021984,0.034938
0.018699,0.1464,0.41659,0.37198,0.18141,0.071498,-0.0089788,0.026341
-0.013104,-0.12476,-0.54971,-0.25439,0.052446,0.032897,0.078154,0.080648
0.0023656,0.016403,0.66851,0.85096,-0.11502,-0.013619,-0.045065,-0.12253
-0.04447,-0.10279,-0.17956,-0.73428,-0.1261,-0.060621,-0.0040471,-0.0052105
-0.0053565,-0.0057887,-0.15925,-0.12904,0.049992,-0.0068514,-0.057005,0.0027308
0.0024087,-0.043284,0.25633,-0.29696,-0.06365,-0.0086847,0.014513,0.010544
0.056944,0.10666,-0.1412,0.84496,0.27505,0.066798,0.046298,0.04943
-0.052604,-0.0070575,-0.45086,-0.4324,-0.13683,-0.069135,-0.063189,-0.036817
0.025462,-0.0074737,0.45554,0.54124,-0.056606,0.021512,0.061204,0.0019219
-0.013413,-0.041632,-0.65975,-0.96874,0.063329,0.034602,-0.0021644,-0.013879
-0.012904,-0.015361,0.59981,0.26545,-0.15114,-0.029369,-0.0030437,-0.0059381
0.0035303,0.023676,0.33551,0.40259,0.12899,-0.0060037,-0.011531,0.0024136
0.059191,0.19069,0.095588,-0.26489,0.013769,0.042295,-0.0040401,0.042441
-0.033652,-0.0015802,-0.4529,-0.17099,-0.019911,-0.0018267,-0.019573,-0.018761
0.029411,0.0060874,-0.21166,0.31224,-0.026929,-0.029403,0.043405,0.021739
-0.033128,-0.14089,-0.096751,0.061503,0.031019,-0.0097782,-0.010525,-0.0081901
-0.072999,-0.31184,0.16399,-0.21216,-0.050479,-0.029576,-0.04091,-0.054123
0.050392,0.25806,0.20976,0.41155,0.047218,0.051153,0.030165,0.0087282
0.024665,0.038288,-0.48548,-0.67188,0.087924,0.028726,0.0071724,0.02399
0.0063165,0.023155,0.41721,0.033766,0.0075069,-0.0034501,0.030549,0.022903
0.011306,0.067366,0.31641,1.0091,-0.12484,-0.04542,-0.040446,-0.017876
-0.022499,-0.083261,0.13894,-0.56132,0.018658,0.028114,-0.0027007,-0.012227
-0.024441,-0.15176,-0.46443,-0.07738,-0.030142,-0.016589,0.0032688,0.0010244
-0.0020481,-0.018082,-0.3055,-0.45258,-0.051004,-0.030199,-0.022308,-0.0013043
0.037051,0.32735,0.076966,0.096818,0.028532,-0.027324,0.022447,0.012279
-0.0086488,-0.060356,0.58261,0.15289,-0.046934,-0.030459,-0.026173,-0.0049
0.0014028,-0.072789,-0.33228,0.21224,0.14669,0.12514,0.066531,0.025427
0.0045069,-0.016719,-0.11496,-0.23697,0.025069,0.049098,-0.011695,-0.013844
-0.0074402,0.026934,0.12619,0.22922,0.081095,-0.016622,-0.01854,-0.013308
-0.011341,-0.069805,-0.10508,-0.1706,-0.13863,-0.057071,-0.016519,-0.012042
-0.015349,-0.036138,-0.27173,0.67826,-0.041462,-0.073221,-0.037031,-0.01791
0.042742,0.11042,0.51584,-0.17371,-0.027552,0.051043,0.044655,0.039304
-0.009161,-0.099803,-0.67333,-0.69231,0.033974,0.025688,0.017231,0.011021
0.024135,0.17706,0.90809,0.43072,0.14126,0.0062555,0.01308,-0.0013961
-0.07614,-0.26116,-0.16677,-0.61192,-0.12127,-0.062294,-0.046372,-0.029443
0.0025744,0.016759,-0.23371,0.37474,-0.02805,0.030996,0.02597,0.01254
0.041641,0.13749,-0.014011,0.14264,-0.063877,-0.0025934,0.0032485,-0.00072256
0.0021194,0.00094175,-0.18416,-0.10142,0.029132,-0.014061,-0.013102,0.00084358
0.0091087,-0.001356,0.078133,-0.18895,0.056115,0.044132,0.0082444,0.0092656
0.039235,0.1699,0.55583,0.72016,0.10368,0.0085632,-0.026179,0.008866
-0.055899,-0.18883,-0.46739,-0.84769,-0.014916,-0.01086,0.0090866,-0.015906
-0.0028159,0.015376,0.043634,0.24145,0.029244,0.033107,0.0052262,-0.017977
-0.0045646,-0.015339,-0.0693,0.74454,-0.10677,-0.078086,0.0018704,0.0029525
-0.014152,-0.055225,-0.228,-0.74725,-0.093965,-0.031902,-0.00050887,0.00035825
-0.015804,-0.010975,-0.05571,0.32493,-0.087659,0.023118,-0.01725,-0.0097963
0.06093,0.070546,0.33314,-0.36313,0.26462,0.086752,0.053253,0.050876
-0.018237,-0.068056,-0.042844,0.13841,-0.12232,-0.028815,-0.023578,-0.012798
-0.0033045,0.05828,0.14704,0.022841,0.14261,0.004173,-0.0059684,-0.021134
0.058761,0.16128,0.38119,-0.22592,-0.049937,-0.009965,0.019614,0.033558
-0.050941,-0.12552,-0.11263,0.30724,-0.11445,-0.040284,-0.025496,-0.028609
-0.012257,-0.028086,-0.28649,-0.11763,0.096642,0.022403,0.014517,0.0030932
-0.012795,-0.05384,-0.56866,0.0022761,-0.1288,-0.01726,-0.024651,-0.012129
0.0021123,0.016146,0.1368,0.14639,0.12971,0.012698,-0.010198,-0.0040507
-0.0065237,0.009956,0.16872,-0.018867,-0.019804,0.0031001,0.0034013,-0.003929
0.023937,0.067947,0.22559,-0.13254,0.023024,0.024502,0.01652,0.019541
-0.023537,-0.068182,-0.19771,-0.092435,-0.06292,-0.040048,-0.0094639,-0.019507
0.038672,0.030581,0.82217,0.38249,0.065846,0.028388,0.019609,0.035228
0.023111,0.058773,-0.80886,-0.2555,0.011252,0.018998,0.018105,0.011869
-0.015556,0.0078243,-0.061825,-0.0075896,-0.1085,-0.0056427,0.0018048,-0.027139
-0.014903,-0.068163,0.082691,-0.031252,0.098759,0.0013929,0.0019774,0.011872
-0.021878,-0.0054109,0.35387,0.13343,-0.1776,-0.037964,-0.028337,-0.0118
-0.036524,-0.1007,-0.20704,-0.17048,0.048645,-0.045518,-0.042399,-0.027873
0.050538,0.10736,-0.18333,-0.16994,-0.0101,0.017868,0.0065162,0.010558
-0.018472,-0.044585,0.28049,0.58799,0.27974,0.074101,0.032326,0.0020216
0.045531,0.10052,0.19035,-0.49067,-0.15228,-0.0096853,0.019255,0.024763
-0.030923,-0.089469,-0.65638,0.20303,0.020937,-0.007096,-0.025058,-0.0070364
0.0098571,0.073367,0.36822,-0.13629,0.024233,-0.0043472,0.031997,0.0082632
0.0035996,-0.012496,-0.0043501,0.12317,-0.16005,-0.001781,0.0026965,-0.0074427
-0.03435,-0.066132,-0.58045,-0.074393,0.18493,0.015894,-0.011601,-0.01513
0.012898,0.029033,0.529,0.23884,-0.13757,-0.037503,-0.026661,0.00074408
0.035718,0.022255,0.24329,0.08594,-0.073497,-0.0058204,0.0043629,0.024457
0.018347,0.069085,-0.30149,-0.46219,0.057021,0.0016381,-0.004371,0.0012382
-0.015735,-0.018441,0.41107,0.26032,0.08302,0.016338,0.0020374,-0.014272
-0.066286,-0.13886,-0.19884,-0.43882,-0.033189,-0.031734,-0.0073818,-0.029882
-0.015676,0.028491,0.20108,0.56932,-0.05574,0.029595,0.0067153,0.009151
0.011666,-0.054745,-0.69077,-0.37515,0.06352,0.036487,0.028919,0.016972
0.055396,0.10457,0.19105,0.15319,0.05979,0.0046732,0.004645,0.017102
0.022261,0.0073801,-0.18898,-0.328,-0.0041847,-0.018996,0.004182,0.0017863
-0.01714,0.045065,0.68166,0.53255,-0.019327,-0.050263,-0.042907,-0.028965
-0.015909,-0.039823,-0.33161,-0.19773,-0.10351,0.012275,0.011643,0.010746
-0.0055378,0.0026514,-0.049548,0.13203,0.047093,0.035662,0.01142,0.011468
0.021338,0.023592,0.3645,0.17876,0.080152,-0.0036263,0.011022,-0.003458
-0.021774,-0.055849,-0.40036,-0.19018,-0.036091,-0.043098,-0.044232,-0.02631
0.036449,0.068191,0.048688,0.28417,-0.14551,0.011061,0.0098278,0.020972
-0.07007,-0.16756,-0.34845,-0.66819,0.0021448,-0.0050943,-0.0063093,-0.010082
0.017765,0.048786,0.2386,-0.14207,0.21994,0.088271,0.048179,0.013348
-0.0048177,0.044949,0.31936,0.044755,-0.053928,-0.0055648,-0.0062322,-0.0024502
0.057595,0.086356,0.41825,0.49946,0.04059,-0.06771,-0.013214,0.0129
-0.029136,0.0089272,-0.71449,-0.059381,-0.22259,-0.058984,-0.027481,-0.026461
0.00092599,0.031559,0.24114,-0.12357,0.008254,0.012873,0.013333,-0.0032656
-0.0081437,-0.24389,-0.5122,0.11108,0.20946,0.085354,0.015258,0.027872
-0.001371,0.073623,0.50947,-0.17046,-0.096141,0.0020884,0.040528,-0.0033074
-0.017611,0.031492,-0.37363,0.38595,0.090494,-0.057492,-0.075178,-0.042094
0.036991,0.075549,0.37774,0.045653,0.010448,0.046864,0.019499,0.028683
-0.0016308,-0.020325,-0.009542,-0.56134,-0.1811,0.0022161,0.011956,0.013654
0.022673,0.048838,0.18355,0.13071,0.11664,0.011279,0.011583,0.022104
-0.069957,-0.12314,-0.30856,-0.039922,-0.026341,-0.019983,-0.020545,-0.039819
0.0093356,-0.036393,-0.69716,0.27286,-0.0082431,-0.036953,-0.0060803,-0.00033638
0.057219,0.20719,1.0248,0.080005,-0.12517,-0.039457,-0.0072594,0.015489
-0.05149,-0.17409,-0.31585,-0.27017,0.13966,0.027592,-0.00040716,-0.031425
0.026823,0.037999,0.19328,0.11149,0.037531,0.055352,0.038066,0.023006
-0.0048001,0.014848,0.034704,-0.14962,-0.039733,-0.018133,-0.016815,-0.016482
-0.0057565,0.01388,-0.41046,-0.043572,0.057156,0.018507,0.022335,0.022036
-0.015069,0.011452,0.098911,-0.21548,-0.13237,-0.022004,-0.0087717,0.0057825
0.053299,0.046671,0.26586,0.85423,0.032135,0.00093981,-0.0088489,0.012891
-0.042682,-0.11451,-0.22096,-0.31496,0.065669,0.001164,-0.017214,-0.019145
0.0018783,-0.01836,-0.038925,-0.39956,0.021951,0.0095368,-0.018402,-0.012204
0.015344,0.085921,-0.028523,0.1962,0.0014765,0.01783,0.03444,0.002489
-0.033286,-0.089861,0.18109,-0.019258,0.034582,-0.0055429,0.00082108,-0.006249
0.035904,0.095684,0.14801,0.23441,-0.17614,-0.045115,-0.001802,0.0085644
-0.019103,-0.021024,-0.53938,-0.36545,0.033401,-0.022697,-0.019947,-0.0076274
-0.01854,-0.049296,0.15887,0.11515,0.023152,0.0073008,0.0014584,-1.1452e-05
0.037555,0.026085,0.015132,-0.062451,0.059786,0.060922,0.023696,0.031502
0.008398,0.079275,0.12787,0.4332,-0.0038668,-0.0020153,0.015762,0.0010091
-0.012524,-0.0080448,0.78926,-0.026915,-0.11194,-0.071789,-0.030049,-0.029021
-0.017722,-0.057383,-0.71708,-0.38309,0.04104,0.062688,-0.012226,-0.0039863
0.047163,0.10213,0.19753,0.0043012,0.1349,0.034122,0.029962,0.021301
-0.068139,-0.19413,-0.48595,0.042725,-0.14346,-0.071898,-0.052256,-0.031427
0.026826,0.053811,0.11441,-0.022216,0.13431,0.048792,0.068823,0.025182
-0.011739,-0.036294,-0.13219,0.21312,0.0054488,-0.010643,-0.021308,-0.012138
0.02717,0.059985,0.052227,-0.3857,-0.032002,0.0070976,0.020689,0.020549
-0.020361,8.0552e-05,-0.084175,-1.4759e-05,-0.065675,0.00013962,-0.016426,0.0059463
-0.021338,0.0038344,0.32402,0.48455,-0.01847,-0.070615,-0.046868,-0.0404
0.016595,0.079813,0.33616,-0.30406,0.031385,-0.0017859,-0.00029583,0.02209
0.10138,-0.013901,-0.39711,0.18135,-0.071463,0.066492,0.037542,0.005912
-0.071617,0.0037027,0.31098,-0.069425,0.049733,-0.013618,0.004452,0.0048562
-0.049234,-0.11802,-0.42577,-0.029755,-0.063698,-0.0071748,-0.005467,-0.027875
0.012279,0.041915,0.29361,0.067876,0.12182,-0.0075398,-0.0075161,0.0015749
-0.019887,-0.0095907,-0.10718,0.12369,0.069157,0.032272,0.014171,0.015202
0.049593,0.0079387,0.038349,0.18751,-0.25964,-0.012938,-0.0027748,0.013128
0.025422,0.054945,-0.26576,-0.73555,0.31518,0.059485,0.01198,0.0032817
-0.014259,0.029722,0.11184,0.12799,-0.23862,-0.071404,-0.01975,-0.0064186
-0.030375,-0.11439,-0.12467,0.069841,0.092634,-0.039065,-0.012128,-0.023685
-0.0072849,0.013783,0.12942,-0.28043,-0.037269,0.046613,0.003496,-0.0015425
0.023787,0.040002,0.050563,0.27773,0.32224,0.068188,0.050501,0.028852
0.00038513,-0.027055,0.19069,0.79571,-0.36218,-0.10708,-0.066433,-0.033986
-0.030561,0.0087225,-0.21899,-0.64572,-0.0057678,-0.017834,0.012113,0.013113
0.024755,0.022926,-0.0031163,-0.17151,-0.069425,0.039711,-0.0028533,0.0060798
0.01012,0.015832,0.11372,0.16112,0.19037,0.042936,0.029356,0.02297
0.019288,0.026419,0.20218,0.49596,-0.036496,0.0082632,0.015006,0.0089687
-0.064974,-0.086359,-0.37939,-0.57889,-0.090723,-0.094922,-0.045957,-0.043901
0.022857,-0.0028658,-0.10175,-0.053281,0.030782,0.061849,0.018201,-0.0030052
0.024811,0.057342,0.18108,0.42804,0.025869,0.017627,-0.0036686,0.014306
0.010993,0.062211,0.3651,-0.33211,0.0288,0.0064147,0.028805,0.0078995
-0.057897,-0.13736,-0.37202,-0.39555,-0.030709,-0.0037119,-0.025259,-0.030138
0.028831,0.03632,-0.00039414,0.54549,0.13494,-0.052671,-0.0098199,0.0094934
0.020956,0.0049915,0.049565,-0.32458,-0.086384,0.030525,-0.01093,0.025173
-0.0035468,-0.020249,-0.58173,0.015191,0.14555,0.026356,0.049543,0.024668
0.002155,0.078204,0.5432,-0.0085402,-0.21982,-0.026629,-0.02356,-0.02329
-0.01652,-0.01155,0.51008,0.91233,-0.029345,-0.019234,-0.011203,-0.017107
-0.0046132,-0.046633,-0.76763,-0.41591,0.10562,0.025288,0.016703,-0.003553
0.0070512,0.020513,0.63093,0.045756,-0.12007,-0.033183,-0.033135,0.0019447
-0.020054,-0.051714,-0.40476,-0.7195,0.11501,0.017015,0.011612,-0.00033194
0.016201,0.033964,0.49951,0.34923,0.063328,0.028249,0.026312,0.013388
-0.032126,0.0042584,-0.43743,-0.24945,-0.24833,-0.061249,-0.05133,-0.034693
0.030601,0.0074649,-0.50339,-0.039904,-0.089824,0.022474,0.036491,0.019744
0.032578,0.035348,0.16347,0.53993,0.37791,0.068689,0.031715,0.028387
0.012652,0.05601,0.62888,0.12262,-0.038337,-0.00085144,-0.011424,-0.0088138
-0.037467,-0.13444,-0.72891,-0.54215,-0.017514,-0.061558,-0.015398,-0.0061454
-0.024697,-0.060176,0.2879,0.24817,0.025616,0.026604,-0.0042707,-0.0030445
0.050225,0.18443,0.96157,0.52397,-0.082701,0.013003,0.021416,0.023465
-0.063382,-0.12755,-1.0133,-1.0282,0.02996,-0.048206,-0.048068,-0.044278
0.055843,0.089732,0.5174,0.62209,-0.1469,-0.016734,0.029356,0.019881
-0.014237,-0.015071,-0.15273,-0.56479,0.18915,0.037011,-0.027413,-0.010906
-0.0236,-0.050876,-0.39424,0.45785,-0.18204,-0.035282,-0.030517,-0.011766
0.0046121,-0.040488,-0.13972,-0.0051074,0.020348,0.040113,0.07521,0.017338
0.00059415,0.032414,0.18697,0.22649,0.015632,0.029177,0.0011989,0.0062836
0.0040419,-0.011224,0.061355,0.051751,0.14882,0.010393,-0.0021248,0.017889
0.02342,0.11813,0.35042,-0.36446,-0.10188,-0.047189,-0.0047796,0.0057008
0.012425,0.053548,-0.039241,-0.029177,-0.078626,-0.010526,-0.0066142,-0.0063405
-0.051971,-0.16589,-0.044424,-0.65282,0.087072,-0.004453,-0.031039,-0.033303
0.010124,0.0065714,-0.17971,0.35822,0.14599,0.064897,0.046889,0.0035053
0.065875,-0.0074382,0.25946,0.80745,0.0046027,-0.052396,-0.046377,-0.0047735
-0.095884,-0.020676,-0.47497,-0.12005,-0.18889,-0.02817,-0.0062803,-0.026516
0.047892,0.075968,0.12715,0.19716,0.049373,0.028188,0.026406,0.032161
0.0045131,0.0087971,-0.16603,-0.76838,-0.15626,-0.0084165,0.0046377,-0.0086236
-0.046869,-0.066206,0.21018,0.5032,-0.025164,0.010267,-0.0014653,0.061514
0.080754,0.069444,0.14002,-0.67774,0.15303,0.021451,0.023514,-0.0083075
0.027631,0.10301,0.5143,0.67328,0.27624,0.071656,0.024691,0.023006
-0.12049,-0.19223,-0.73065,-0.51152,-0.14819,-0.11292,-0.09183,-0.095665
0.019226,-0.0038068,0.012136,-0.094585,-0.13627,0.029924,0.041084,-0.0058739
0.025153,0.027751,0.22386,0.71145,0.0071003,-0.023408,0.0016267,0.049654
-0.024165,-0.01139,-0.28642,-0.64169,-0.12435,-0.022901,-0.022516,0.1256
0.067099,0.12125,0.5017,0.2656,0.18836,0.047254,0.031432,-0.19933
-0.013043,-0.0037427,-0.19523,0.39801,-0.1169,-0.02358,-0.015907,0.12284
-0.061054,-0.12835,-0.51095,-0.52429,0.13217,0.046181,-0.0080086,-0.22681
0.032685,0.044359,0.42997,0.40395,-0.11879,-0.032241,0.016244,-0.0046038
0.018206,-0.0013089,-0.050347,-0.14058,0.13035,0.01476,0.033457,0.36094
0.0047076,0.0078516,0.40258,-0.41215,-0.050188,-0.023728,-0.026792,-0.10616
-0.01598,0.008989,-0.55914,0.053306,0.12066,0.031867,-0.024115,-0.1639
-0.036515,-0.021759,0.25599,0.83759,-0.13855,-0.0061663,-0.0057153,0.08517
0.044162,0.040187,-0.48414,-0.43725,-0.11691,-0.013073,0.035866,-0.0012034
0.045921,0.0617,0.40342,-0.39745,0.16237,0.018748,0.03781,0.30162
-0.05498,-0.03545,0.42874,-0.12847,-0.12834,-0.035827,-0.086056,-0.42225
-0.024281,-0.11045,-0.53209,-0.050132,0.081911,0.026324,0.031346,0.12275
-0.025945,0.01691,0.16143,0.84052,-0.12816,-0.068135,-0.047461,-0.14198
0.026247,0.0036526,-0.14815,-0.33608,0.13241,0.040344,0.060477,0.041869
0.062383,-0.00087325,0.27156,0.0088469,0.12131,0.055066,0.035077,0.3163
-0.018668,0.058866,-0.097439,0.182,-0.052682,-0.016026,-0.045269,-0.28539
-0.052463,-0.027485,-0.031148,-0.13594,-0.031183,-0.024451,-0.031853,-0.026515
0.031579,0.044943,-0.37586,-0.4138,-0.026304,0.037565,0.052127,0.079449
0.030451,0.072749,0.35807,0.15199,-0.039109,-0.04101,-0.019703,0.049736
-0.032431,-0.10098,-0.53523,-0.30011,-0.070282,-0.025894,-0.020656,-0.052403
0.0303,0.015018,1.0115,0.35158,0.14567,0.07506,0.041513,0.12435
-0.070618,-0.10366,-0.58333,0.36825,-0.10951,-0.050602,-0.036334,-0.23372
0.031791,0.026497,0.29369,-0.19296,0.071405,0.0035162,0.034795,0.19958
0.040465,0.061115,-0.25938,0.35762,-0.052458,-0.004559,-0.010847,0.10162
-0.029102,0.031114,0.29387,-0.58667,0.035897,-0.012095,-0.032794,-0.18607
-0.028546,-0.040095,-0.2194,0.080113,0.056399,0.0045215,0.007828,0.014512
0.026491,0.066475,0.08489,0.20877,-0.0058113,0.029715,0.0014407,-0.11778
-0.004594,-0.062779,-0.44572,-0.63562,-0.080199,0.0086704,0.041585,0.073504
0.026678,-0.044431,0.31978,0.79509,-0.003071,-0.019863,-0.020371,-0.027696
-0.0046442,0.02065,-0.15027,-0.20902,-0.0018998,0.0061573,0.018545,0.088248
-0.0282,-0.023103,-0.22326,-0.34057,0.031371,0.0080911,-0.029242,0.040618
0.02637,0.12957,0.23215,-0.15935,0.040529,0.032353,0.0081758,-0.074903
-0.036198,-0.09906,0.4933,0.10897,0.11005,-0.054163,-0.025295,-0.0069152
-0.0049186,-0.0057263,-0.17349,0.35239,-0.050281,-0.032747,-0.0043879,-0.036068
0.057749,0.073541,0.041796,-0.10836,-0.14414,0.042149,0.039979,0.25923
-0.027861,-0.02562,0.48573,0.39388,0.023945,-0.032127,-0.032484,-0.294
-0.0039397,-0.03802,-0.91817,0.060825,-0.25614,-0.020594,0.0050506,0.052546
-0.018962,-0.034467,-0.24614,0.091259,0.25913,0.061727,0.01991,0.078193
0.028569,0.054877,0.39591,-0.37136,-0.014692,-0.019081,0.027705,0.14051
0.013569,-0.020399,-0.12691,-0.64274,0.27524,0.088771,-0.0029659,-0.19932
-0.024989,0.02846,0.19365,-0.019228,-0.2218,-0.044446,-0.033287,-0.012145
-0.0090582,-0.0096833,0.31315,0.40308,0.095984,-0.036176,-0.024463,-0.1336
0.0066187,-0.0099071,-0.40526,0.41596,-0.17791,-0.058677,0.0076566,0.054598
-0.0092313,0.0043936,0.17536,-0.45024,-0.020633,0.051727,0.023875,0.1869
0.029338,0.041199,-0.14451,0.16573,0.21558,0.044744,0.00073096,0.046359
-0.010451,-0.055449,-0.37027,-0.014572,-0.21984,-0.056324,-0.030458,-0.12322
-0.003538,-0.0039079,0.48316,-0.23135,0.047761,0.021999,0.032002,-0.023865
0.0032801,0.016599,0.51631,0.58538,0.03389,-0.04042,-0.0070557,-0.022339
-0.0055264,-0.016897,-0.4921,-0.2946,-0.0035962,0.014498,0.0087504,0.068532
-0.014224,0.013192,0.0014422,-0.13653,-0.025544,0.046397,-0.0064303,-0.041299
0.031988,0.013367,-0.037729,0.13456,0.13995,0.016421,0.017752,0.11547
-0.030844,-0.016334,0.14554,0.059485,-0.10877,-0.051906,-0.043709,-0.064353
0.0083038,-0.013611,-0.7158,-0.43215,0.064017,0.021058,0.027901,0.0036761
0.024485,0.067983,0.29226,0.43248,-0.076332,-0.030483,0.0059671,-0.017432
-0.021359,-0.022136,-0.21997,0.020691,-0.030035,0.011955,-0.031446,-0.12026
-0.012087,-0.050226,0.99887,0.22526,0.14034,0.02306,0.0015278,0.093965
0.028765,0.069093,-0.19849,-0.39409,-0.09632,0.0025111,0.042296,0.0012292
0.0073064,0.0073355,0.0010324,0.046116,0.018134,0.012517,-0.018636,-0.01425
-0.053195,-0.13402,-0.73853,-0.62984,-0.16429,-0.072156,-0.025169,-0.052524
0.018951,0.028039,0.26214,0.45961,0.067781,-0.017296,0.02252,0.067378
0.020442,0.048648,0.43237,0.22089,0.058328,0.052004,0.0070716,0.010314
0.013624,0.022125,-0.25117,0.044648,0.16667,0.049779,0.0064692,0.18271
-0.0016131,-0.0040925,-0.029934,-0.12537,-0.013834,0.015137,0.020649,-0.048663
-0.033128,0.001682,-0.34786,0.21442,-0.054072,-0.04397,-0.067528,-0.23152
0.012862,0.0084323,0.0077577,-0.068454,-0.056191,0.0055289,0.023368,0.015928
-0.019782,-0.015075,0.39803,-0.40642,-0.098645,-0.039083,-0.011051,0.013046
0.025363,0.048182,0.56643,0.64844,-0.017274,-0.021014,0.0014691,0.0013076
-0.0077518,-0.091136,-0.77559,-0.41049,-0.0068228,-0.017776,0.030071,0.22251
-0.0017488,-0.011466,-0.042489,0.19126,0.17582,0.04152,0.00477,-0.1125
-0.011178,0.029082,0.28803,-0.40368,-0.046411,0.040096,-0.027363,-0.15982
0.02652,0.038078,0.06587,0.31641,-0.0085495,0.017151,-0.011618,0.073057
0.017573,-0.015916,-0.35919,-0.28277,-0.046006,-0.019698,0.044043,0.055231
-0.0068488,-0.00021931,0.065892,0.20598,0.059968,-0.00063453,-0.009116,0.052661
-0.023411,0.030402,0.31646,0.082574,-0.058373,-0.004483,0.0082175,-0.035961
-0.016566,-0.041249,-0.30351,-0.093816,0.19952,0.0070669,-0.013703,-0.046406
0.0058537,0.027093,0.12766,0.13504,-0.23795,-0.068198,-0.028289,0.013626
-0.0029748,-0.045645,-0.2022,-0.13222,0.018547,0.011485,-0.0044223,0.011429
0.019556,0.037694,0.37165,-0.14159,0.0148,0.02724,0.018878,-0.013784
-0.0045491,-0.042847,0.061116,0.10945,0.10953,0.041737,0.034008,0.00070125
0.010761,0.025612,-0.39045,0.16859,-0.0020475,-0.0071066,-0.021212,-0.022976
-0.0047652,0.032469,0.18222,0.05833,-0.132,-0.040598,-0.029241,0.048265
-0.0042565,-0.061116,-0.27439,-0.26283,-0.0059447,-0.019072,-0.0054032,-0.043188
0.0044042,0.065225,0.13902,0.147,-0.013299,-0.012327,0.0035882,0.0074072
0.0054747,-0.033963,0.18067,0.25279,0.073781,0.065902,0.044576,0.035836
-0.024621,0.0081864,-0.10285,-0.58961,0.037626,0.0047423,0.023567,-0.0051626
0.0077372,-0.0040998,0.3187,0.070137,0.035167,-0.0085161,-0.020798,0.0010023
-0.0069313,-0.024463,-0.46261,0.30061,-0.019352,0.0022499,-0.026531,-0.040159
0.02506,0.095051,0.3168,-0.14105,-0.071536,-0.0025889,-0.0019374,0.019019
-0.0056844,-0.067787,-0.25139,-0.16085,0.0029781,-0.01578,-0.0098713,0.013808
-0.005392,-0.02876,-0.012633,0.40618,0.10184,0.0091311,0.019852,0.060966
0.010372,-0.0065427,0.04771,0.11604,-0.025679,-0.045232,0.0014361,-0.058339
