0.070281,-0.0068065,0.012205,-0.45767,-0.029777,-0.043098,-0.41918,-0.11222
0.36123,-0.16221,-0.16762,0.25348,0.014192,0.071132,0.57241,0.32506
-0.18576,-0.18954,-0.054635,-0.07648,-0.080842,-0.025258,-0.010486,-0.18033
-0.25644,-0.16396,-0.16353,-0.69059,-0.033392,-0.027211,-0.19839,0.15865
-0.61421,0.16912,-0.00043554,0.45693,0.062925,0.057784,0.16604,0.15078
0.56331,0.33054,0.2101,0.03661,0.02836,-0.035708,-0.15037,-0.31052
0.097729,-0.18287,0.10267,0.41399,0.018817,-0.010815,-0.005834,0.1598
0.52806,0.30378,-0.04045,-0.045716,-0.060116,-0.031826,-0.071295,0.12694
0.79823,0.23668,0.15578,-0.14157,0.11877,0.072713,0.23981,-0.20977
-1.055,-0.51825,0.10452,-0.12563,0.070086,0.13819,0.068402,0.2262
-0.82282,-0.25289,-0.41445,-0.49163,-0.18364,-0.17967,-0.35112,-0.57204
0.32924,0.81049,0.12859,0.77533,0.028906,-0.0062862,0.19207,0.047426
0.17475,-0.97977,-0.20496,-0.48855,-0.097036,0.0019554,0.22914,0.5353
-0.11301,0.53046,0.068959,0.28047,-0.045382,-0.092279,-0.42726,-0.38326
0.16342,-0.20626,0.068004,-0.04852,0.18474,0.14115,0.15291,0.055798
0.56065,0.62371,0.18388,0.14398,0.031907,0.054427,0.1187,0.50589
-0.96736,-0.95362,-0.19149,-0.6319,-0.088811,-0.093961,-0.27147,-0.56914
0.96927,0.69012,0.028947,0.25868,-0.03606,-0.053464,0.068669,0.049873
0.15723,-0.55875,0.1036,0.85632,0.14359,0.12936,0.060753,0.40778
-0.69599,0.4666,0.0089258,-0.51768,-0.034375,-0.061082,0.008381,-0.3119
-0.28154,-0.31057,-0.052763,-0.081622,-0.062631,0.015528,0.30802,0.26075
0.17105,0.25778,-0.028124,0.016191,0.042498,-0.03981,-0.2305,-0.41079
-0.1835,0.14604,0.018737,-0.88065,-0.12596,0.0065235,0.014978,0.051845
1.0301,0.40535,-0.10905,0.51647,0.095448,0.075575,0.057648,0.34888
-0.31113,-0.43713,0.087301,0.51131,-0.035875,-0.020939,0.14619,-0.13783
-0.93792,-0.97893,-0.072587,0.078976,-0.082634,-0.14302,-0.60193,-0.54787
0.65411,1.0351,0.255,0.40498,0.28327,0.15425,0.22936,0.3792
-0.42128,-0.84162,-0.1012,-1.0675,-0.1959,-0.074544,-0.30958,-0.11862
0.26909,1.0162,-0.22594,0.6909,0.050343,0.030143,0.59803,0.52498
0.32072,-0.36674,0.030807,-0.83623,-0.055902,0.015605,0.00334,0.047696
-0.33725,-0.41068,0.03022,0.22641,0.0091048,-0.070674,-0.17624,-0.36839
0.45641,0.40934,0.11779,0.028793,0.0035702,0.045472,0.02985,-0.19079
-0.25601,0.61776,0.38092,0.93261,0.1155,0.060143,-0.13621,-0.15378
0.37944,-0.71471,-0.38244,-0.77832,0.025164,0.10694,0.4332,0.91367
-0.91563,-0.48657,-0.29675,-0.12527,-0.31365,-0.30559,-0.40563,-0.95882
0.42571,0.88802,0.075536,0.18215,0.11528,0.080986,0.12475,0.35157
-0.47248,-0.7001,0.1324,0.24573,0.070216,0.0092741,0.0048931,-0.12639
0.68063,0.9531,0.22444,-0.30262,-0.0033933,0.065355,-0.19038,0.39382
0.24085,-0.33031,0.053402,0.43367,0.066051,0.0537,-0.057164,0.027106
-0.57491,-0.86812,-0.14799,-0.33689,0.012211,-0.065348,0.059527,-0.06415
0.12281,0.82701,-0.1158,-0.29657,-0.040972,0.035419,0.12824,-0.43541
-0.55829,-0.95316,-0.085887,0.13044,0.022473,0.011152,0.39188,0.15582
0.18307,0.44925,-0.028069,0.051762,-0.040773,-0.037672,-0.24189,-0.14854
0.77053,0.36209,0.16646,0.63046,-0.083091,-0.057243,-0.021027,0.23157
0.39025,0.38432,0.1226,-0.25864,0.074843,0.084745,-0.51336,-0.069
-0.72771,-0.09818,-0.018763,-0.55238,-0.13717,-0.14303,0.1823,-0.14244
-0.027244,0.37728,-0.17117,0.13338,0.086065,0.087915,0.43592,0.64469
-0.39063,-0.80464,-0.005845,-0.18398,0.17494,0.090723,-0.15643,-0.37212
0.16761,-0.53119,-0.022093,0.2317,-0.13544,-0.12599,-0.23385,-0.061317
0.81446,0.56303,0.17141,0.57719,0.10866,0.1026,0.15715,0.3568
-0.74136,-0.70046,0.012808,-0.084218,-0.11579,-0.097905,-0.1016,-0.51739
-0.1866,0.25241,-0.075408,-0.61966,-0.0038758,0.069739,0.21426,0.10503
0.30266,0.66124,-0.037985,0.24375,0.053874,0.050951,0.14849,-0.19666
-0.19757,0.41432,-0.10874,-0.43235,-0.14562,-0.084042,-0.14606,-0.099687
0.75703,0.27411,0.19722,0.71836,0.13984,0.070817,0.054147,0.77428
-0.67063,-0.82633,-0.11179,-0.33592,-0.050616,-0.12528,-0.46379,-0.41501
-0.092376,-0.76782,0.081773,0.42046,0.079917,0.022853,0.13568,-0.18805
-0.067669,0.29428,-0.09692,-0.53528,-0.023192,-0.00039462,0.16631,0.12875
0.48166,0.8678,0.20363,0.11075,-0.016142,0.10975,0.06051,0.39482
-0.40064,-0.84493,-0.2513,0.14174,-0.062941,-0.076262,-0.12345,-0.42277
0.82639,0.71694,0.084565,-0.49487,0.00052995,0.051039,0.18065,0.039863
-0.33719,-0.67573,-0.023976,0.34344,0.033688,-0.078631,-0.36003,-0.073268
-0.29028,0.60638,0.062743,-0.16253,0.036534,0.065898,0.31886,0.3188
-0.32134,-0.4564,0.070302,0.58093,0.032442,-0.046815,-0.13405,-0.3278
0.47883,1.0459,0.052525,0.10377,-0.025617,0.075133,0.35784,0.31889
-0.34446,-0.79655,-0.23338,-0.29949,-0.067578,-0.10767,-0.38816,-0.17335
-0.00026336,-0.54824,-0.022008,-0.38167,-0.062517,-0.033116,-0.024363,-0.28965
0.56322,0.70461,0.18682,-0.043884,0.12979,0.20467,0.42965,0.38524
-0.85019,-0.8723,-0.22355,0.18064,-0.061397,-0.19152,-0.34188,-0.28634
0.68901,1.107,0.24762,0.22842,0.1369,0.18432,0.25299,0.34058
-0.46855,-0.83792,-0.17234,-0.39267,-0.10384,-0.12104,-0.65287,-0.1586
0.26796,0.54648,0.14218,0.2401,-0.018254,-0.021564,0.34086,-0.23969
0.28348,0.043942,-0.042865,0.31557,0.073313,-0.0013637,0.057889,0.51583
-0.42284,-0.50104,-0.024285,-0.32099,-0.13359,-0.020937,-0.13055,-0.54513
0.41123,0.59793,0.057127,0.003718,0.072499,0.092108,0.27935,0.14911
0.0072617,0.24451,-0.041064,0.087779,-0.034247,-0.060172,-0.1316,0.15261
0.070925,-0.23651,0.024702,-0.41948,0.046994,0.085098,-0.0030985,0.25968
-0.44891,-0.60618,-0.1284,0.67775,-0.018976,-0.10471,0.046613,-0.36192
-0.57014,-0.48404,-0.0079803,-0.43299,0.010525,0.026611,0.26479,0.10314
0.15263,0.27736,0.066021,0.075946,-0.004997,0.041354,-0.32894,-0.16268
0.37003,0.92068,0.039351,-0.24181,-0.0033217,-0.013942,0.2771,0.24268
0.84345,0.38526,0.02956,0.38556,0.077407,0.024439,-0.42804,-0.15214
-0.71215,-0.41972,0.10716,-0.29402,-0.068377,-0.054691,0.061873,0.042967
0.35527,-0.24819,-0.10286,0.64691,0.019344,0.022033,0.075304,0.13438
-0.35779,-0.40027,-0.14754,-0.35616,-0.0039341,-0.018682,-0.11212,-0.30394
-0.28724,-0.69147,0.027519,-0.21072,-0.021424,-0.012427,0.073397,-0.11075
0.50483,0.72627,0.093862,0.028484,-0.025256,-0.0056215,0.096762,0.16459
-0.59945,0.16825,-0.058221,-0.043367,-0.053971,-0.021257,0.00056352,-0.051412
0.17937,0.21307,-0.02281,-0.064008,0.073001,0.089398,0.021482,0.18167
0.34633,0.76465,0.23886,0.10335,-0.018277,-0.0408,0.058553,0.19252
0.32753,-0.33022,-0.062477,0.3928,0.11853,0.087899,0.016818,-0.0677
-0.3107,-0.46048,-0.14566,-0.51188,-0.039204,0.006244,0.041993,0.23293
-0.080038,-0.82743,-0.057433,0.16571,-0.10825,-0.16921,-0.36176,-0.46548
-0.42104,0.49424,0.054091,-0.088823,0.052039,0.045276,0.23923,-0.12906
0.16456,0.55739,-0.076257,-0.041942,0.011576,0.0085995,-0.064591,0.25373
0.39545,-0.55112,0.16133,0.62374,0.027462,0.017376,0.083965,-0.28027
-0.31268,-0.16415,-0.084468,-0.79174,-0.088727,0.02473,-0.057997,0.19084
0.37917,0.6521,0.19404,0.83879,0.11514,-0.00035899,0.025991,0.19254
-0.39223,-0.8018,-0.19898,-0.58413,-0.057167,0.0050065,-0.14624,-0.42792
0.33054,0.85122,0.0090617,-0.12774,-0.0048323,0.0022456,0.20192,0.37263
-0.75336,-0.45177,0.035857,0.11131,-0.056441,-0.14098,-0.19945,-0.1598
0.58537,0.5909,0.16947,0.25745,0.092541,0.16167,-0.11265,0.26666
-0.12104,-0.064786,-0.27048,-0.14057,-0.034302,-0.034904,0.44916,-0.23737
-0.068974,-0.041653,0.028263,-0.34442,-0.014705,-0.0041214,-0.043939,-0.10205
0.84785,-0.57105,0.089505,0.080876,-0.012183,-0.0039981,-0.18569,0.32684
-0.81266,-0.16329,-0.023329,0.21903,0.075434,0.0041467,0.085309,-0.30536
0.61619,0.29938,0.027053,0.23902,-0.063779,0.02765,0.025067,0.18533
-0.80768,-0.29649,-0.15623,-0.2933,0.031584,-0.051134,-0.1653,0.27236
-0.087252,0.35208,0.13141,0.56875,-0.075649,0.0018483,-0.089089,-0.48383
0.24565,0.25222,0.070836,-0.83963,0.083443,0.069323,0.35416,0.088212
0.083728,-0.44098,-0.071707,0.25252,-0.0067155,-0.090687,-0.33592,-0.1586
0.72052,0.5272,0.094456,0.13848,0.021042,0.045761,0.090923,0.17713
-0.83777,-0.43504,-0.21242,0.017373,-0.04424,-0.051841,-0.028764,-0.20528
0.45491,0.45238,0.27242,0.34643,0.14124,0.12518,0.13371,0.44061
-1.0042,-0.46288,-0.20987,-0.78343,-0.23485,-0.14112,-0.11678,-0.076875
0.43836,-0.12407,0.019402,-0.11596,-0.070707,-0.045464,0.05521,-0.28662
0.40993,0.78282,0.15483,0.62978,0.1886,0.12327,0.28133,0.37448
0.03435,-0.41183,-0.20242,0.25934,-0.050557,0.021038,-0.27604,-0.21196
0.2364,0.21811,0.041333,-0.71001,0.11014,0.037655,0.1156,-0.025312
-0.63268,-1.0156,-0.012227,0.41128,-0.048483,-0.11714,-0.30315,-0.069528
0.6904,0.57667,-0.027023,-0.40594,0.051047,0.10996,0.15432,0.15095
-0.45318,-0.054987,0.067209,0.48092,-0.021709,-0.0010744,0.066204,-0.024393
0.32628,-0.17006,-0.0033285,0.026633,-0.095505,-0.14648,-0.082029,0.065056
-0.61716,0.47206,0.31538,0.11543,0.11059,0.11093,0.094454,-0.10626
0.45003,0.65759,-0.040012,-0.61088,-0.16897,-0.048814,-0.057958,-0.031018
-0.8823,-1.1967,-0.50773,-0.018387,-0.15246,-0.1404,0.010469,-0.075186
0.92505,0.81546,0.15404,-0.0046618,0.22328,0.11093,-0.0023061,0.28735
-0.57844,-0.80078,0.023611,0.87614,0.14639,0.081608,-0.00051308,-0.53347
0.3213,0.21544,-0.015445,-0.64168,-0.054665,0.015009,0.032538,0.39605
0.56334,0.50645,0.12397,0.097211,0.034109,0.0056218,-0.098557,0.048316
-0.9555,-0.80146,0.044695,-0.36219,-0.095569,0.014557,0.050231,-0.10523
0.68879,0.89516,-0.11149,0.094509,-0.085053,-0.091358,0.085954,0.1086
0.18955,0.052779,0.14837,0.78417,0.13522,0.015257,0.04464,0.041157
-0.10686,-0.62766,-0.097294,-0.42191,-0.13062,-0.080593,-0.092597,-0.19968
-0.54337,-0.29411,-0.05961,0.15264,0.17195,0.096733,0.13225,0.039923
0.62295,0.79104,-0.020385,-0.36953,-0.17556,0.023043,-0.23604,0.22595
-1.0666,-1.0777,0.019559,-0.2158,0.054075,-0.059967,-0.0029694,-0.31604
0.90036,0.66883,0.035848,-0.14311,-0.0054162,0.058451,0.18358,0.20894
-0.80459,-0.024929,0.097892,1.0463,0.060963,-0.004425,-0.2605,-0.27042
0.34388,0.4328,-0.12316,-0.97242,-0.097616,-0.084217,0.05033,0.066176
0.87256,0.55395,0.13789,0.077977,0.011371,0.014827,0.22063,0.25856
-0.97279,-1.2689,-0.13457,0.65379,0.15338,0.074404,-0.090649,-0.25458
0.4591,0.3316,0.059943,-0.094271,0.0074706,-0.13171,-0.19419,-0.0032076
0.075883,-0.075993,-0.051123,-0.047915,-0.036717,0.19353,0.31688,0.50585
-0.1383,-0.557,-0.25567,-0.41022,-0.13649,-0.074964,0.06696,-0.57843
-0.17728,0.86134,0.35374,-0.095896,0.058834,0.039153,-0.070579,0.32208
0.097052,-0.34889,-0.15169,0.55817,-0.068426,-0.12067,-0.19162,-0.36329
0.25231,0.59647,0.095626,-0.27698,0.06768,0.085973,0.076771,0.40394
-0.3544,-0.12773,0.22047,0.39813,-0.016723,-0.028426,-0.15754,-0.18142
0.27555,0.036848,-0.098228,-0.987,0.046414,0.083298,0.22204,0.107
-0.22534,-0.41255,-0.24432,0.27861,-0.054364,-0.19545,-0.27625,-0.043055
-0.29405,-0.59392,0.023358,0.52307,0.064793,0.0424,0.20034,-0.34961
-0.17966,0.53307,-0.030278,0.18351,0.05319,0.094615,-0.03403,0.21973
0.32951,-0.32545,0.00081335,-0.28786,-0.08857,-0.053656,-0.032434,0.080304
1.0069,1.0845,0.2107,-0.29089,-0.0086275,0.16056,0.18292,0.10832
-0.10135,-0.38923,0.037653,0.3133,0.011761,-0.075216,0.14389,0.046763
-0.70751,-0.61081,-0.18919,-0.44573,-0.051133,-0.14423,-0.36837,-0.22127
-0.15645,0.48394,0.0078007,0.71983,0.0052624,-0.008305,0.15334,0.022653
-0.43274,-0.44883,-0.15951,-0.55771,0.031726,0.1126,-0.23719,-0.050443
0.83212,0.64391,0.4032,0.11276,0.050724,0.12337,0.24033,0.050402
-0.38247,-0.021872,-0.21024,0.48278,0.076806,-0.086658,0.022583,0.089387
-0.11929,-0.41802,0.0074723,-0.67174,-0.11764,-0.088843,-0.14881,0.15884
0.67307,0.16376,-0.038496,0.050666,-0.010047,0.053749,0.10862,-0.33617
-0.61838,0.2299,-0.060642,-0.050009,0.00062653,-0.080752,-0.088119,0.15823
0.40001,-0.68016,0.10324,0.47406,0.070547,0.10979,0.18268,0.04801
-0.012603,0.52949,-0.0096854,-0.3368,-0.1124,-0.13923,-0.39954,-0.18224
-0.34899,-0.38751,0.32553,0.25919,-0.0084092,0.087456,0.32098,-0.063202
0.075883,0.026237,-0.25153,-0.3653,0.016307,-0.076196,-0.10953,-0.023905
-0.062298,0.048184,-0.20195,0.51238,-0.013877,0.042471,0.30032,0.30332
0.39555,0.3218,-0.064008,-0.30802,0.097068,0.07655,-0.20789,-0.065827
-0.13393,0.33262,0.1171,0.12937,0.091688,0.17425,0.045362,0.10267
0.1493,-0.052751,-0.039214,0.0001427,0.001228,-0.016539,0.21702,0.065984
-0.14088,-0.023656,0.12559,-0.17449,-0.10426,-0.25421,-0.65996,-0.16081
-0.41982,-0.8949,0.12123,0.027654,-0.1001,0.0078405,0.33904,-0.19497
0.18849,0.33934,0.058182,-0.13258,-0.049012,-0.15198,-0.25922,0.065795
0.038788,-0.39243,-0.18053,0.045512,0.080292,0.18126,0.24392,-0.13473
0.042046,0.84693,-0.0017993,-0.12653,0.092767,0.032245,-0.02407,0.25257
0.13335,-0.41904,-0.14903,0.21782,-0.011158,0.058527,0.29713,-0.074604
0.05988,0.67679,0.22787,0.3737,0.050214,-0.074928,-0.1139,-0.04401
-0.52627,-0.9367,-0.21624,-0.35815,-0.18373,-0.16486,-0.18998,-0.0062828
0.37645,0.35581,0.09569,-0.17994,0.076129,0.23317,0.15009,0.15531
0.24376,0.47321,0.21776,0.093455,0.01705,0.046964,0.072624,0.11075
-0.06809,-0.7055,-0.17815,0.21454,-0.056872,-0.1324,-0.021457,0.013287
-0.19678,0.2922,-0.044588,0.33209,0.15038,0.16086,-0.33939,-0.1875
0.24265,-0.099741,0.010149,-0.73424,0.0049848,0.18966,0.57764,0.075371
-0.38807,0.35862,-0.012486,0.5388,-0.13459,-0.51653,-0.84818,-0.41141
0.13344,-0.12202,0.0062765,-0.34721,0.082589,-0.012762,0.11228,0.2418
0.0080766,-0.031603,0.21632,0.0263,0.0079944,0.14747,0.48687,0.13719
-0.34217,-0.36529,-0.27197,-0.33263,-0.13128,-0.10348,-0.17219,-0.24667
0.71784,-0.14729,-0.036401,0.82983,0.072145,0.28489,0.38271,0.42132
-0.36243,0.58387,0.0084455,-0.22951,-0.052048,-0.003775,-0.046826,-0.14458
0.18781,-0.46813,0.24394,-0.5331,-0.080335,-0.1925,-0.23069,-0.16782
-0.6104,0.12547,0.019442,-0.087308,0.13709,-0.020962,-0.29963,0.025831
0.2633,0.23595,-0.12867,0.037899,0.07751,0.097838,0.020354,-0.16396
0.46063,0.17616,0.17974,0.61371,0.0064373,0.12428,0.15021,0.37209
-0.18892,-0.33091,-0.36216,0.34514,0.0088137,-0.19371,0.16571,0.015384
-0.25645,0.074874,0.19761,-0.42622,-0.10452,0.14068,-0.18678,-0.27558
0.52872,0.55612,-0.023604,-0.2453,0.10196,0.076826,0.28352,0.21489
-0.50162,-0.5611,-0.12589,-0.058031,-0.11576,-0.20141,0.056003,-0.031882
0.30398,0.19896,0.033898,0.12612,-0.024624,0.13901,-0.10058,0.051993
-0.2935,-0.57593,0.07605,0.33739,0.038916,-0.25511,-0.31489,-0.21449
-0.28216,-0.052188,-0.1136,-0.50114,-0.073256,-0.0011648,0.11425,-0.065628
0.73407,0.48243,0.17826,0.4275,0.069591,0.21454,0.13222,0.023417
-0.52676,-0.38178,-0.015858,-0.43081,-0.015445,-0.051043,-0.28229,-0.0074743
0.32685,0.44728,0.1244,0.15472,0.11069,0.0095731,0.16346,0.18042
-0.14809,-0.10978,0.051106,-0.2775,-0.1054,-0.030473,-0.16667,0.050578
0.12995,0.13246,-0.33906,0.031172,0.071458,0.049917,0.28642,-0.051463
-0.38961,-0.071887,0.2645,0.61267,0.10236,0.056973,0.096471,0.039081
0.76629,0.54499,-0.33505,-0.67474,-0.24748,-0.047786,-0.0080952,0.024995
-0.85138,-0.68045,0.05672,0.48505,0.0054459,-0.12407,-0.49597,-0.16519
0.40128,-0.076937,0.10378,0.07636,0.1335,0.13172,0.77969,0.24039
-0.098721,-0.020722,0.0019097,0.11125,0.049656,-0.0084967,-0.59007,-0.28329
-0.25733,-0.42737,-0.0216,-0.38516,-0.059412,-0.03078,0.21975,-0.22184
0.25977,0.24052,0.13542,0.2908,0.0011932,-0.092909,-0.035745,0.29115
0.35534,0.52004,0.1607,-0.39881,-0.096529,0.10865,-0.13951,0.075746
-0.069319,0.5652,-0.13356,0.29915,0.077772,0.057644,0.16602,0.12423
0.15207,-0.21235,-0.32622,-0.17168,-0.092007,-0.10538,0.014883,-0.0083484
-0.37633,-0.33811,0.089465,-0.45037,0.0048017,-0.036253,-0.23115,-0.22773
-0.29895,-0.7351,0.28421,0.38138,0.16629,0.031452,-0.29571,-0.025483
-0.1018,-0.098441,-0.36809,-0.31127,-0.12232,0.028389,0.23008,-0.018095
0.54408,0.63602,0.32701,0.67283,0.092419,0.033621,0.52754,0.33422
-0.26457,-0.036884,0.11113,0.14282,0.013299,-0.006805,-0.020464,-0.35849
0.10955,0.15141,-0.22681,-0.24295,-0.063713,0.0090802,-0.0092124,0.091712
0.16361,0.40647,-0.20207,-0.13359,-0.046188,-0.0046145,-0.089881,0.020896
-0.45723,-0.73122,0.022121,-0.35258,-0.052802,-0.16536,-0.53909,-0.02438
0.6253,0.59001,0.20487,0.43894,0.2041,0.29197,0.3982,0.22073
-0.48568,-0.80273,0.27748,-0.13952,-0.13592,-0.18014,-0.18594,-0.19805
0.24864,0.4168,-0.19575,0.46176,0.082785,-0.019791,-0.0026511,0.12416
0.33426,0.39472,-0.15048,-0.10428,-0.053833,0.04594,-0.011714,-0.15771
-0.56758,-0.73071,-0.17095,-0.69021,-0.08426,0.01673,0.53903,0.11156
-0.17887,0.13212,-0.013582,0.0024043,0.0081778,-0.013795,-0.44161,-0.12327
0.22403,0.4347,0.35372,-0.25711,0.013857,-0.061197,-0.45133,-0.11996
0.24825,-0.12084,-0.0064277,0.80965,0.12161,0.10129,0.64423,0.31738
0.025437,-0.089425,-0.055736,0.098358,0.012248,-0.072933,0.072131,-0.19309
-0.18669,0.16247,-0.13171,-0.25418,-0.040063,0.11176,0.12868,0.15454
-0.059038,-0.13693,0.083775,-0.034837,-0.081923,-0.17247,-0.21088,-0.099396
-0.066449,-0.19591,0.057058,0.24875,0.019322,0.10586,-0.22164,0.10881
0.20728,0.13733,0.12965,0.024756,0.020998,0.032885,-0.31128,-0.16507
-0.11077,-0.055424,-0.38761,-0.11556,0.047441,-0.094346,0.15209,0.11113
0.066842,-0.16925,0.16069,-0.6358,-0.058282,0.09933,0.56669,-0.077495
-0.071846,0.57167,-0.030009,0.36811,0.14078,0.035981,-0.2468,0.0038945
-0.22284,-0.65218,0.056797,-0.2224,-0.19945,-0.1748,-0.12364,-0.0039285
0.48692,0.80649,-0.21033,0.40462,-0.032134,-0.017158,0.038538,-0.030937
-0.13294,-0.66479,0.23256,0.045927,0.08824,0.071574,-0.032975,-0.0076157
0.15649,0.04646,0.12098,0.014066,0.021381,0.060179,0.037351,0.1819
-0.11648,0.21585,-0.091371,0.01984,0.033248,0.042228,0.18734,0.12959
-0.0082967,0.59556,0.14233,0.10194,0.053725,-0.01394,0.10468,-0.28373
-0.38617,-0.77222,-0.20189,-0.56048,-0.13596,-0.10893,-0.53871,-0.083479
-0.099683,-0.23412,-0.14049,0.15703,-0.012661,0.076877,0.093134,-0.060326
0.3783,0.31865,0.075751,0.13684,0.11845,0.050646,0.25006,0.41754
0.23223,-0.065241,0.032176,-0.090108,-0.055762,-0.14905,-0.61523,-0.079797
-0.67372,-0.49925,-0.037102,0.093163,-0.012548,-0.030261,0.66048,-0.23922
0.31275,0.63091,0.17267,0.27242,-0.002518,0.11013,0.15397,-0.14531
0.73279,0.768,0.021227,-0.0681,0.044189,0.077002,0.13701,0.28196
-0.85118,-1.0675,-0.084572,-0.48309,-0.099206,-0.11371,-0.16545,-0.072442
0.68363,0.73765,-0.034523,0.18397,0.10642,0.038318,-0.44976,0.19979
-0.51032,-0.59493,-0.0073163,0.24622,-0.02609,-0.013502,-0.17693,-0.2591
-0.16416,-0.22763,-0.13468,-0.17019,-0.043029,-0.026765,-0.017705,0.036219
0.20978,0.18378,0.20158,0.18636,0.064182,0.10025,0.52998,0.023429
0.1078,0.02133,-0.24778,-0.2915,-0.062974,-0.054203,-0.09385,0.069148
-0.32404,-0.1625,0.21283,0.1406,-0.017404,-0.013383,-0.0040566,0.031603
0.18687,0.43336,-0.0341,-0.23399,0.060987,-0.027046,-0.0037159,-0.020351
0.2349,0.19471,0.34647,0.31299,-0.0069827,0.030154,0.11091,-0.056893
-0.13895,0.092853,-0.36549,-0.10032,-0.033583,-0.06792,-0.16831,0.0068463
0.13062,0.12303,0.08646,0.2214,0.12175,0.10105,0.33737,0.021956
-0.41397,-0.81154,-0.025342,-0.23851,-0.11943,-0.079754,-0.49814,-0.1676
0.19161,-0.14875,-0.25612,-0.14608,0.015831,0.12426,0.19154,0.12649
-0.10432,0.074973,0.16767,0.26944,-0.012124,-0.083818,-0.17979,0.0069274
0.028569,0.021138,0.051373,-0.31524,-0.016374,-0.063634,-0.11968,-0.15799
0.37261,0.57935,-0.11194,0.56576,0.041636,0.067087,0.30989,0.19495
-0.29108,-0.5483,-0.024601,-0.1914,-0.018173,-0.0048713,0.10147,0.11267
0.22383,0.44807,0.50908,0.021377,0.053953,0.040002,-0.15925,-0.17115
0.27489,0.36779,-0.28448,-0.65533,-0.046752,0.091579,0.30011,0.40468
-0.67896,-0.44632,-0.0074281,0.3109,0.023554,-0.13196,-0.24894,-0.59896
-0.21751,-0.27969,-0.098049,0.2972,0.0073237,-0.084023,-0.11358,0.1524
0.29096,-0.021849,-0.088233,-0.27201,-0.040344,0.032328,0.11761,0.048379
0.1662,0.20184,0.0999,0.28531,-0.0017658,-0.0013001,-0.0029835,0.057511
0.087696,0.22685,-0.095887,-0.091742,-0.079581,0.057822,-0.039368,-0.030541
-0.10882,-0.12578,0.12197,-0.11361,0.062495,-0.00067181,-0.10132,-0.15976
0.084033,-0.10292,-0.050342,0.21902,0.07299,0.081499,0.15573,0.17945
0.1811,0.30968,-0.026109,0.12325,0.037603,-0.023496,0.10097,0.059342
-0.28732,-0.3622,0.14818,-0.70782,-0.10674,-0.0030249,0.010761,-0.065227
-0.10346,-0.26104,-0.10573,0.5204,0.0923,-0.099233,-0.37706,-0.067996
-0.11957,0.47351,0.12555,0.024776,-0.07709,-0.038634,-0.051139,0.051641
0.43753,-0.68735,0.20038,-0.23485,0.032822,0.085142,0.45252,0.067011
-0.26006,0.53198,-0.50731,0.16327,-0.01584,-0.016768,-0.29363,-0.11642
-0.17264,-0.15745,0.017285,-0.061211,-0.043304,0.062115,0.25031,0.062524
0.69298,0.56123,0.28941,0.070044,0.052552,-0.029603,0.16202,0.031869
-0.7323,-0.351,-0.31577,-0.26087,-0.13357,-0.16691,-0.4195,-0.16328
0.55289,0.35161,0.27268,0.35499,0.12605,0.18903,0.22225,0.18639
-0.2937,-0.52605,0.0088027,-0.32975,0.03566,0.014323,-0.12602,-0.068888
-0.1455,0.20198,-0.051734,0.20272,-0.052269,0.0036063,-0.075532,-0.00021951
0.01467,0.26871,0.099783,0.54771,0.15182,0.038948,0.38836,0.19686
0.25853,-0.52051,-0.2,-0.90333,-0.23486,-0.20063,-0.49207,-0.43041
0.048082,0.35396,0.072836,0.26364,0.099771,0.065727,0.10445,0.17353
-0.15526,-0.34209,-0.034596,-0.0067761,-0.0012823,0.072338,0.17158,0.056764
-0.047036,-0.44861,0.032397,-0.17695,-0.031171,-0.03981,-0.30491,-0.021633
-0.3002,0.19692,-0.023291,0.65732,0.11847,-0.020028,0.16003,0.087887
0.4974,0.85154,0.071314,-0.29556,-0.10796,0.023182,0.10494,0.01889
-0.12558,-0.36941,-0.0047595,0.039643,-0.03931,-0.049939,0.24669,-0.032997
