-0.40148,0.066645,0.2678,-0.12443,-0.015049,0.025911,0.076878,-0.081266
0.31848,-0.15659,-0.20012,-0.09652,-0.014397,0.056631,0.05694,0.1278
0.10154,-0.0030452,0.066466,0.16616,0.017424,0.010871,0.063405,0.015969
-0.045939,0.15776,-0.31277,-0.032713,-0.0056877,-0.064811,-0.13204,0.019428
-0.27364,-0.25458,0.33584,0.16545,0.025498,0.00087504,0.085591,-0.10512
-0.058875,0.1643,0.34261,-0.23197,-0.037543,-0.019332,-0.22339,-0.022415
0.2154,-0.0086402,-0.35905,-0.060945,0.031748,0.045799,0.1502,-0.013759
0.17455,-0.039343,-0.42712,-0.024255,0.014723,0.0083276,0.11948,0.062074
-0.25885,0.18215,0.069139,0.34744,-0.049359,-0.02252,-0.25301,-0.012503
0.025339,-0.31938,0.24275,-0.29678,-0.027418,-0.085646,0.1041,-0.087533
0.012112,0.012646,-0.2054,0.0202,-0.0051064,0.01467,-0.033921,0.080776
0.0064369,0.031855,0.24669,0.18932,0.056877,0.036771,-0.071019,0.13448
0.21136,0.10731,-0.027863,-0.054961,0.041484,0.067104,0.19824,-0.058194
0.048396,0.42009,0.49101,0.029484,0.01904,0.0044602,-0.13049,-0.05136
-0.22509,-0.31819,-0.56168,0.012892,-0.033988,0.036477,0.33461,-0.0012108
-0.23439,-0.20913,-0.10033,-0.20625,-0.07088,-0.10255,-0.33582,-0.11906
0.043926,-0.15188,0.13807,-0.14331,-0.0058585,0.024669,-0.017299,0.063085
0.14155,0.016422,-0.09307,0.2177,0.0047019,-0.050891,0.085844,0.0911
0.13742,0.32545,0.54465,0.041191,0.054463,0.0064783,-0.1218,-0.012781
0.18109,0.25006,-0.50104,0.01479,-0.036344,0.0013011,0.19387,-0.054528
0.14886,-0.031675,0.46844,0.11479,0.075919,0.1288,0.046725,0.09742
-0.59068,-0.41935,-0.87013,-0.065717,-0.054228,-0.12671,-0.26782,0.0044708
-0.5206,-0.10868,0.34958,-0.074568,0.018302,0.078475,0.13988,-0.17792
0.58664,-0.083452,0.30851,-0.053379,-0.050485,-0.099484,-0.10552,-0.08299
0.27823,0.87667,-0.16225,0.028337,0.012638,0.050229,0.14471,0.23461
-0.14962,-0.60877,-0.2305,0.021828,0.10599,0.050904,0.11027,0.08785
0.60606,-0.076127,0.17829,-0.0023442,-0.12197,-0.027297,-0.17606,-0.092725
-0.56676,-0.39791,0.20835,0.3394,0.078945,0.026454,0.14709,0.069092
-0.57743,0.3104,-0.34898,-0.84243,-0.16594,-0.13162,-0.23834,-0.36275
0.46947,0.57272,0.46001,0.3596,0.10471,0.061044,-0.080153,0.23046
0.1576,0.20062,-0.4595,0.11828,0.055377,0.096826,0.16256,0.068901
-0.31894,-0.14394,0.53854,0.42618,-0.0089283,-0.078693,-0.01695,-0.15888
0.88381,-0.79188,-0.30668,-0.24042,0.013522,-0.0042498,0.053149,0.18034
-0.67793,-0.066296,-0.1777,-0.23398,-0.080406,-0.015452,0.19972,-0.070041
-0.22019,0.29623,0.2438,0.0067858,0.037243,0.028622,-0.07182,-0.090924
-0.1146,0.34126,-0.30064,0.26187,0.053698,0.065695,-0.1709,0.20953
-0.18595,-0.15815,0.04917,-0.45408,-0.08604,-0.052537,0.21156,-0.17882
0.50575,-0.2251,0.084298,0.069316,-0.015073,-0.083853,-0.60718,0.14797
0.26616,0.24277,0.0027123,0.20694,0.031999,0.065437,0.50349,0.047461
0.45382,0.012114,0.096062,0.14648,0.062854,0.020192,0.042596,-0.059301
-0.41803,0.34972,0.10837,-0.049226,-0.008483,0.030206,0.018317,-0.15626
-0.39154,-0.54787,-0.19411,-0.20787,-0.05695,-0.037585,0.06507,-0.069796
-0.13355,0.016014,-0.11686,0.35854,-0.004264,-0.050639,-0.61148,-0.02365
0.17479,-0.24624,0.23651,-0.54473,0.016999,0.0064053,0.24949,0.02456
-0.098896,0.27617,0.11319,0.30964,0.0071332,0.055192,-0.052253,0.12482
0.40704,0.34231,-0.028844,0.23508,0.044572,0.056477,0.46989,0.16993
-0.78047,-0.023583,0.026821,-0.43143,-0.057913,-0.091414,-0.15165,0.090313
0.41263,-0.21972,-0.39278,-0.14985,-0.042325,0.017741,0.098796,-0.27903
0.21566,-0.20742,-0.15433,0.29932,0.021068,-0.076939,-0.045202,0.028278
-0.034527,0.16859,0.32235,0.19759,0.03058,0.062188,0.0011592,-0.045806
0.19182,-0.22592,0.024796,0.052488,0.087483,0.068132,-0.16142,0.1279
-0.15589,0.34171,-0.027834,-0.19927,-0.058632,-0.027619,-0.42372,-0.078788
0.18279,-0.013155,0.12064,0.12871,-0.0097786,0.0017481,0.32431,0.17576
0.03841,0.37185,-0.043539,-0.4491,-0.0085187,-0.031018,0.02131,-0.32003
-0.60893,-0.46546,-0.07475,0.21479,-0.05506,-0.039753,0.12928,0.12234
0.10592,0.091498,0.14287,-0.13803,-0.016576,0.0069725,0.062483,0.044354
0.058756,-0.70715,-0.018313,0.39845,0.044664,-0.0079499,-0.36784,-0.17563
0.12808,0.5221,0.032163,0.019565,0.058733,0.063854,0.3197,0.083189
-0.26663,-0.10269,-0.08395,-0.094828,0.0026383,0.019022,0.31594,-0.058951
0.39638,0.58308,-0.11133,-0.26484,-0.037273,-0.010026,-0.41564,0.14201
-0.50251,-0.21764,-0.043431,-0.044986,-0.01382,-0.0081432,0.22152,0.13945
0.61051,-0.029299,-0.036366,0.26789,-0.0049763,0.00077762,-0.096311,0.2758
-0.013772,-0.095645,0.090872,-0.2326,0.0048702,-0.030441,-0.01829,-0.27182
-0.08045,-0.3245,0.090328,0.57819,0.015543,-0.0002919,-0.033884,-0.27996
0.11724,0.63483,-0.098335,-0.59716,-0.027964,-0.033542,-0.090003,0.02191
-0.16037,-0.55316,0.081297,-0.0091872,-0.0010681,-0.035965,-0.49018,-0.2277
0.1753,0.73872,0.19264,0.49802,0.11921,0.11024,0.049307,0.29834
-0.94208,-1.009,-0.1549,-0.38007,-0.10507,-0.016186,0.78025,-0.017059
0.48569,0.27142,0.21768,0.52149,0.036724,0.014883,-0.30599,0.20205
-0.041022,0.36713,-0.40938,-0.67055,-0.08058,0.00051792,0.36361,0.12117
0.33151,-0.44324,0.033322,0.022806,0.011804,-0.067205,-0.37732,-0.31276
0.15334,0.39839,-0.048462,-0.18471,0.0093843,0.022263,0.0031382,0.0034004
-0.079957,-0.34184,0.11874,0.5844,0.084338,0.026144,0.19737,0.024194
-0.29521,0.028348,0.10574,-0.18409,-0.059889,0.037504,0.28676,-0.18671
-0.052984,0.62751,-0.1024,-0.21699,-0.040215,-0.10837,-0.06848,0.24654
0.54593,0.25903,0.11998,0.13178,0.088854,0.088015,-0.51764,0.089983
-0.37376,-0.73583,-0.20334,0.35017,0.022727,-0.0064128,-0.22884,-0.054862
-0.21955,-0.038561,0.14637,0.26083,-0.051031,-0.063495,-0.33362,-0.19635
-0.12617,-0.19525,0.17658,-0.43872,-0.046383,0.05773,0.78357,0.039532
0.4665,0.39268,-0.14443,-0.010762,0.036869,-0.0484,-0.14115,0.042085
-0.17058,-0.35893,-0.0044978,-0.45744,-0.050957,0.017299,0.16874,0.23949
0.52285,0.82197,-0.098932,0.034574,0.065552,0.060294,0.027839,-0.16663
-0.43915,-1.0703,-0.24757,0.14873,-0.074118,-0.090613,-0.32245,-0.11505
0.26329,-0.0083222,0.35512,0.41447,0.085038,0.049411,0.23794,0.11992
-0.49376,0.7772,-0.086762,-0.44248,-0.042817,0.011763,0.14486,-0.12608
-0.47339,-0.8688,-0.13502,0.084423,0.0030518,-0.055315,-0.31045,-0.016822
0.75783,0.6054,0.13234,0.53124,0.058054,0.074221,0.53555,0.16727
-0.21779,0.36363,0.26928,-0.48266,-0.019242,0.001172,-0.23262,-0.025672
0.0019373,0.71334,-0.038181,0.22944,0.0045675,-0.048778,-0.091793,0.038651
0.52109,-0.88526,-0.0733,-0.20307,-0.074628,-0.021782,-0.34412,-0.083518
-0.073657,-0.34057,-0.35376,0.11284,0.00014369,0.073692,0.016923,-0.10949
-0.25213,0.14306,0.14223,0.14748,0.072067,0.018554,0.11146,0.2119
-0.21219,-0.54216,-0.015848,-0.30824,-0.038752,-0.12466,-0.046183,-0.25139
-0.097909,0.117,0.062787,-0.12619,-0.019647,0.011648,0.021403,0.14149
0.44647,-0.050055,0.20736,0.33162,0.083019,0.053188,-0.21584,0.12456
-0.57452,0.42943,-0.18966,-0.013231,-0.089361,-0.022612,0.60118,-0.029652
0.50065,0.3966,-0.0010267,-0.15877,0.042259,0.081978,0.32085,-0.1194
0.092206,0.46576,0.02552,-0.13255,-0.021184,-0.054236,-0.33703,0.0099346
-0.14428,-0.72665,-0.10029,0.12477,0.00239,-0.016804,-0.29683,-0.049559
-0.30238,-0.33495,-0.064742,-0.11644,-0.04266,0.0068101,-0.071704,0.2163
0.064071,-0.1479,0.24964,0.35871,0.086165,-0.030575,-0.16866,-0.24819
0.38608,0.59928,-0.04067,0.091871,0.029485,0.12047,0.43607,0.29867
-0.4442,-0.52461,-0.0076109,0.029348,-0.064545,-0.11111,-0.17835,-0.36953
-0.0659,0.42408,0.096642,-0.4778,-0.001078,0.023991,0.28762,0.052623
0.95204,0.42829,0.0041972,0.24857,0.055308,0.10331,-0.1142,0.37879
-0.77194,-0.88003,-0.26334,-0.16867,-0.091143,-0.17815,-0.27476,-0.44425
0.56808,0.82714,0.14461,-0.1223,0.05148,0.070279,0.12067,0.37405
-1.003,-1.0745,-0.30309,0.20607,-0.087218,-0.049496,-0.12672,-0.31339
0.20388,0.15067,0.082185,0.041505,0.00064994,-0.0056495,-0.034752,-0.09146
0.59683,0.94946,0.35695,0.27355,0.11992,0.13217,0.43376,0.57169
-0.41635,-0.38796,-0.054833,-0.28597,0.0050942,-0.0573,-0.36443,-0.30034
0.087156,-0.35349,-0.065363,-0.051402,-0.023488,-0.011135,0.035147,-0.14528
0.59161,0.51283,0.0063222,-0.022681,0.010645,0.067738,-0.014626,0.16915
-1.045,-0.93187,-0.11274,-0.09788,-0.064568,-0.0629,0.29775,-0.32647
0.48723,1.0903,0.038,0.21577,0.0084684,-0.020442,0.28966,0.23428
0.46589,-0.026408,0.04336,0.21582,0.034253,-0.0083312,-0.34769,0.47564
-0.61311,-0.86404,-0.18431,-0.47207,-0.10452,-0.066,-0.36852,-0.73596
0.54321,0.71474,0.23578,0.23858,0.13117,0.10303,0.067621,0.19247
-0.73226,-0.033915,0.12973,0.0044515,-0.086779,-0.025088,-0.025365,-0.06796
0.48079,-0.31271,-0.13697,0.091421,0.14793,0.10391,0.2121,0.22417
-0.18463,0.045065,-0.15129,-0.070688,-0.10213,-0.049418,0.086627,0.39624
0.35158,-0.22948,0.15693,-0.37249,-0.016604,-0.06353,-0.32062,-0.50555
-0.66499,-0.3104,-0.30524,0.13123,-0.048537,-0.040163,0.43127,-0.23946
0.2073,0.4407,0.31543,0.35428,0.052128,0.083193,-0.22515,0.14746
-0.1212,0.44235,-0.15852,0.14009,0.02764,-0.08387,-0.17102,0.12414
0.57148,0.36104,0.087685,-0.066406,0.034304,0.091854,0.1795,0.14417
0.099624,-0.44372,-0.06902,-0.57798,-0.068458,-0.037565,-0.16777,-0.026141
0.033622,-0.091008,0.15377,0.33969,0.055346,0.04405,0.26002,0.012491
-0.77638,-0.68559,-0.1969,-0.33663,-0.086392,-0.014347,0.30174,-0.37962
0.057797,0.26889,0.30002,0.65124,0.045503,-0.071708,-0.024302,0.1579
0.83018,0.7301,0.017982,-0.28231,0.068363,0.067567,-0.55059,0.26671
-0.93846,-0.99976,-0.41997,-0.41066,-0.1661,-0.065156,-0.060989,-0.13813
0.3904,0.72639,0.24995,0.70328,0.10004,0.053494,0.037995,0.014599
0.049856,0.10359,-0.14548,-0.31642,0.023064,0.024834,0.13145,-0.086865
-0.25733,-0.44537,0.088474,-0.13518,-0.045546,-0.065597,-0.11214,-0.027952
0.91468,0.56587,0.0067851,0.050138,0.06589,0.078589,0.39112,0.019674
-0.8234,-0.2034,0.10265,0.52727,0.044594,-0.011856,-0.024446,0.079304
0.014922,-0.60865,-0.17715,-0.39206,-0.0941,-0.032659,-0.4235,-0.052727
0.15109,0.13579,0.012778,-0.2389,-0.045737,-0.0075164,0.38585,0.18517
-0.21653,0.50293,0.040999,-0.15266,-0.02138,-0.045865,-0.21875,-0.24725
0.21198,-0.45699,0.049008,0.25173,0.072721,0.0086677,0.34161,0.10963
0.017311,0.36693,0.013517,0.086512,0.010093,0.070387,-0.16851,0.27019
-0.16608,-0.52623,-0.042632,0.19066,0.025237,-0.047928,-0.37671,-0.5869
0.28717,0.6957,0.2778,0.14494,0.040135,0.060194,0.15074,0.16267
0.094807,-0.16115,-0.40169,-0.67381,-0.14047,-0.027004,-0.020479,0.088867
-0.46432,-0.0034314,0.14398,0.22735,0.053749,-0.036085,0.057721,-0.011518
0.66102,0.41003,-0.047263,0.012003,0.05243,0.16569,0.59122,0.42412
-0.93181,-0.76467,-0.054101,0.42069,-0.10542,-0.21862,-0.54956,-0.43993
0.44019,0.2714,0.15476,-0.50235,0.087961,0.045317,0.006867,0.013886
-0.21957,-0.53897,-0.17011,0.18492,0.015352,0.020091,0.368,0.19241
0.15522,-0.04633,-0.020068,-0.052232,-0.026362,-0.036336,-0.50509,-0.23945
0.74111,0.85509,0.20735,0.18932,-0.044921,0.016846,-0.0632,-0.03056
-0.29967,-0.10946,0.044122,0.0089005,0.05356,0.086026,0.049427,0.13288
-0.021835,-0.010504,-0.040546,-0.039742,-0.058844,-0.00062492,0.27575,0.14277
-0.86073,-0.49674,-0.030819,-0.1982,0.055603,-0.024427,-0.24565,-0.24205
0.23492,0.40707,-0.12976,-0.316,-0.0091066,-0.04022,0.31067,0.088322
-0.056765,-0.36457,-0.024798,0.094315,-0.057455,-0.055987,-0.17664,-0.084988
0.28702,0.21454,0.0029605,0.34871,0.059137,0.029713,-0.073139,0.088762
0.4842,0.42637,0.13347,0.20811,0.043854,0.1153,0.59728,0.23316
0.14973,0.18405,0.077976,-0.27847,-0.017378,-0.017854,-0.43324,-0.091051
-0.80678,-0.84267,-0.092916,0.43674,-0.015245,-0.088265,-0.15253,-0.16686
-0.13466,-0.22679,-0.11343,-0.3653,-0.067022,-0.025299,-0.11136,-0.034675
0.48445,0.38825,0.071076,0.072098,-0.00093381,-0.00050799,0.069315,-0.046742
0.10884,-0.031536,0.038446,-0.71347,-0.035864,0.033201,0.20666,0.133
0.0062366,0.45654,0.014718,0.69844,0.14829,0.052403,-0.30323,-0.088367
-0.17346,-0.28299,0.038224,-0.13869,-0.050342,-0.029111,0.30376,-0.0064351
-0.42065,-0.19815,-0.18878,-0.21021,0.00061492,-0.00095725,-0.019974,0.036429
0.54885,0.72398,0.12966,0.59237,0.058475,0.089229,0.16303,0.24449
0.23979,-0.86281,0.0083184,-0.39594,-0.056927,0.0062613,0.087847,-0.037842
-0.61444,0.31302,-0.014405,0.15201,-0.056874,-0.15679,-0.55658,-0.26364
-0.15342,-0.17928,-0.02483,-0.35844,-0.027421,-0.040931,-0.064945,-0.097461
-0.093238,-0.19125,0.055168,0.81424,0.062841,0.025732,0.1515,0.076976
0.69476,0.60644,0.022901,-0.58006,0.026828,0.090486,0.11935,0.27419
0.48015,0.40364,-0.073867,-0.3767,-0.017677,0.060295,0.56047,0.14935
-0.56937,-0.65558,0.055198,0.26936,-0.023125,-0.071778,-0.42864,-0.32955
-0.70084,-0.090323,-0.20558,0.13327,0.057997,0.023269,-0.07253,-0.02217
0.66598,-0.60664,0.075023,-0.12687,-0.078493,-0.083499,-0.28415,-0.19378
-0.28799,0.57378,0.08577,0.20917,0.036467,0.022501,-0.055691,0.015926
0.58603,0.75194,0.14774,0.29846,0.035785,0.060258,-0.028989,0.47543
-0.93122,-1.1945,-0.16866,-0.67147,-0.05721,-0.017167,0.7232,-0.24359
0.60426,0.81298,0.13593,0.57995,0.054095,0.024272,0.048957,0.00062634
0.16711,0.1399,-0.041248,-0.23739,0.033421,-0.011266,-0.087002,0.029042
-0.16692,-0.59267,-0.20959,-0.32772,-0.11958,-0.054086,-0.33698,-0.04105
0.02166,0.64898,0.090156,0.19088,0.040123,0.035836,-0.24291,0.024313
-0.2692,-0.7348,0.0049321,-0.12738,-0.026745,-0.04667,-0.001378,-0.041281
0.131,0.0082967,0.11172,0.35026,0.015629,0.049658,0.16943,0.19088
0.05771,0.40526,0.034894,0.27249,0.096848,0.051292,-0.10328,-0.42864
-0.17614,0.00053052,-0.13967,-0.50865,-0.056607,-0.11198,-0.066346,0.19308
0.40717,0.28594,0.049475,-0.24259,-0.030783,0.060118,0.68988,0.21946
-0.59706,-0.85407,-0.131,0.43058,0.0023121,-0.041435,-0.2927,-0.23269
0.24247,0.20091,0.12498,-0.16056,0.034727,0.075949,0.16748,0.17246
0.5599,0.40033,0.084621,0.28887,0.011667,-0.0092481,-0.50707,0.0053494
-0.36271,-0.017211,-0.1334,-0.47908,-0.051277,-0.046767,0.0035117,-0.10083
-0.47045,-0.51702,0.011159,0.48047,0.0022105,-0.036492,-0.13026,-0.24706
0.48636,0.51227,0.018967,-0.36448,0.016052,0.052771,0.42554,0.25486
-0.15702,-0.28071,-0.047439,0.032064,-0.0094893,-0.013589,-0.026813,-0.047494
0.21569,0.60247,0.18632,0.50519,0.050898,0.037466,-0.028886,0.12775
0.24423,0.22149,-0.10906,-0.60198,-0.036857,0.056982,0.22961,0.21849
-0.9316,-1.0129,-0.060135,0.45256,-0.061586,-0.11966,-0.12003,-0.37663
0.21877,-0.033172,0.19865,-0.49501,0.05494,0.0070331,-0.1798,-0.18103
0.022849,0.010494,-0.30291,-0.053327,-0.0389,-0.024244,-0.37855,0.21139
0.55032,0.21178,0.098293,0.26292,0.10198,0.10666,0.17632,0.011337
0.4021,0.92378,0.17535,0.2828,0.039742,0.032629,0.22186,0.30437
-0.50048,-0.8897,-0.18077,-0.18053,-0.10882,-0.14446,-0.020436,-0.33967
-0.32159,0.087602,0.10902,0.17007,-0.0002773,0.013391,0.092104,0.02397
-0.32625,-0.16361,-0.14138,-0.26713,-0.025413,0.022424,0.021311,-0.089676
0.2526,0.13397,-0.032012,-0.29735,-0.012307,0.016092,-0.022347,0.14699
0.53431,0.49901,0.14941,0.33653,0.008026,0.03401,0.1939,0.1945
-0.60367,-0.92631,-0.025916,-0.045979,0.082813,0.021882,-0.089968,-0.2051
0.41902,0.13884,0.012563,0.054303,-0.061015,-0.059168,-0.50891,-0.16888
0.033552,0.80904,0.11594,0.066346,0.069014,0.048659,0.18565,0.16303
-0.17365,-0.73299,-0.1543,-0.0025392,-0.066009,-0.084491,-0.045662,0.057027
-0.007887,0.56882,0.020854,0.011626,0.010494,0.017685,0.18873,-0.10303
0.31063,0.3323,0.085477,-0.062502,0.056258,0.058022,0.38306,0.074639
-0.64977,-0.8555,-0.047176,0.22947,-0.0069357,-0.041877,-0.19427,-0.065128
0.3979,0.016049,-0.1507,-0.65736,-0.09319,0.030264,-0.24333,0.1348
-0.024666,0.18693,0.025462,0.037181,-0.014947,0.0086615,-0.16762,-0.098508
0.25325,0.056644,0.091835,0.45601,0.063887,-0.052088,-0.1449,-0.11664
-0.36253,0.043522,-0.043899,-0.047763,-0.0049321,-0.0035793,-0.0027933,0.12666
-0.12955,-0.60352,-0.067906,-0.0050815,0.0053134,0.01357,0.67927,0.059768
-0.023535,0.13916,0.13786,-0.12817,-0.03035,0.02282,-0.031561,-0.24112
-0.059025,0.4201,0.050073,0.49426,0.075428,0.00075149,0.0085633,0.034047
0.92918,0.75367,0.027439,-0.5947,0.0020043,0.072377,0.36485,0.42948
-0.20635,-0.37932,0.029565,0.55405,-0.03232,-0.082601,-0.9046,-0.26826
-0.10533,-0.063186,-0.078019,-0.12536,0.011044,0.0046044,0.10388,0.26714
-0.77468,-1.1036,-0.1641,-0.63487,-0.055801,-0.04094,-0.2269,-0.14462
-0.12758,0.066408,-0.081432,-0.029257,-0.045594,-0.070721,-0.19129,-0.57295
0.29769,0.52768,0.060002,0.13072,0.033794,0.11843,0.72293,0.25036
0.54053,0.83606,0.19772,0.45755,0.049648,0.03427,0.012965,0.18077
0.17854,-0.42223,-0.019344,0.16596,0.049035,0.0047546,-0.07469,-0.03495
-0.50081,-0.3799,-0.012244,-0.16998,-0.038133,-0.032905,-0.1626,0.0060636
0.18741,0.29222,0.055906,-0.031536,-0.0085186,0.038149,0.21018,0.065027
0.091639,0.17532,-0.017041,-0.18216,0.028695,-0.032358,0.0021388,0.065522
-0.35368,-0.4978,-0.27701,-0.40199,-0.106,-0.080487,0.11529,-0.086528
0.099162,-0.12342,0.18315,0.37927,0.040683,-0.012405,-0.28351,0.075315
-0.14462,-0.086199,-0.0264,0.37151,0.015798,0.03935,-0.081751,-0.18721
0.20447,0.56829,0.10281,-0.38819,0.014795,-0.0029603,-0.15763,0.050841
0.25765,0.35102,0.13369,0.37872,0.069014,0.13449,0.081567,0.22996
-0.52916,-1.1643,-0.32421,-0.44801,-0.11059,-0.071424,0.49666,-0.19291
0.14419,0.62567,0.041435,0.089543,0.01499,-0.0268,-0.15855,0.076579
0.12452,-0.47579,0.042642,0.29356,0.047185,0.041832,0.027756,0.022218
-0.24206,0.39264,0.014539,-0.48602,-0.061055,-0.092142,-0.44565,-0.46394
0.85821,0.68896,0.12791,0.42213,0.057257,0.032145,-0.11133,0.20719
-0.56671,-0.21155,0.045554,-0.28605,0.019117,0.039653,-0.057711,0.20387
-0.22082,-0.2025,-0.21038,0.03947,-0.074069,-0.061799,0.54644,-0.039772
0.042885,-0.3508,0.10903,0.29167,0.03541,0.024704,0.40443,0.097269
0.30093,0.33994,-0.051626,-0.11274,-0.0040413,0.041381,-0.19754,0.047193
-0.40903,-0.37339,-0.083166,-0.3118,-0.012707,-0.03522,-0.077339,-0.23602
0.45887,-0.011118,0.030354,0.07931,0.0016757,0.029187,-0.41372,0.12182
-0.55691,-0.3236,0.0475,0.15549,0.0079509,0.0078796,0.036318,-0.029905
0.20741,0.63801,0.047403,0.018335,0.0062128,-0.044666,0.009025,0.10271
0.34542,-0.46379,0.023312,0.22139,0.066858,0.027582,0.047304,-0.08505
-0.22119,0.53465,-0.031641,-0.32338,-0.067845,-0.03337,-0.022391,-0.11149
0.21043,0.43737,-0.030791,0.10011,-0.014987,0.022362,0.13637,0.17791
-0.21156,-0.47636,-0.0049214,0.0048102,-0.024446,-0.03963,-0.33363,-0.045464
0.028302,-0.2182,0.069636,0.068251,0.028929,0.077574,0.59419,-0.20274
-0.085493,-0.42674,-0.096144,-0.16389,0.028105,-0.032176,-0.13916,0.020289
-0.27908,0.44525,-0.0023722,-0.19941,-0.042425,-0.009362,-0.10843,0.00078939
0.44821,0.48277,0.022597,0.16595,0.043945,0.0368,0.1268,0.27209
-0.23888,-0.5581,-0.029384,0.15302,-0.0019104,-0.049777,-0.35291,-0.06278
0.074206,0.2424,0.091252,0.045603,-0.03172,-0.026751,-0.0066592,0.035754
0.043864,-0.56309,-0.045682,-0.028664,0.01677,0.027874,0.049628,-0.003109
0.52932,0.63311,0.11399,-0.059654,0.00266,0.028233,0.11343,-0.11035
-0.19621,0.072119,-0.11766,-0.061237,-0.003979,0.04465,0.3096,-0.061104
-0.68742,-0.26985,0.024745,0.31139,0.035772,-0.040113,-0.034611,0.072633
0.20469,-0.01741,-0.075968,-0.70713,-0.034336,-0.046467,-0.45985,0.14118
-0.13594,-0.17746,0.0023469,0.453,-0.026642,0.0098378,0.086451,-0.38732
0.2375,0.48558,0.033583,0.056136,-0.0033517,-0.011959,-0.038772,0.21383
0.060757,-0.8398,-0.028644,-0.15751,-0.0031655,0.044253,0.11504,0.078124
0.26427,0.58113,0.066014,0.15333,0.02112,0.022077,0.17824,-0.12938
-0.30857,0.099221,0.012924,0.41568,0.038446,-0.03958,0.086222,0.10012
-0.10466,-0.13122,-0.016344,-0.70108,-0.029341,-0.031502,-0.25617,0.017389
0.084314,0.39461,0.040091,0.051205,0.0049818,0.046166,0.1741,0.052457
0.63019,-0.022174,-0.0060504,0.14038,0.00030105,0.021451,-0.020569,-0.036899
-0.50908,-0.7287,-0.038292,0.22289,0.034135,-0.027541,-0.26769,-0.1416
-0.29648,0.1945,0.028893,-0.34847,0.0043319,0.016471,-0.11088,0.25365
0.056509,0.16852,-0.12475,0.014207,-0.050475,-0.025973,-0.015128,-0.17164
0.41048,0.29599,0.15763,0.22727,-0.013256,-0.013903,0.15594,-0.089218
-0.59894,-0.65472,-0.30265,-0.46497,-0.086979,-0.06408,0.022035,0.016977
0.37574,0.45314,0.25344,0.8922,0.12724,0.11299,0.67006,-0.055589
-0.15381,-0.40742,-0.024559,-0.3723,-0.0027779,-0.013606,-0.1742,0.084228
0.018508,0.18141,-0.0031074,-0.32093,-0.023233,0.0016495,-0.27073,0.1085
0.14405,0.28459,0.099165,0.15507,0.011774,-0.013122,-0.31776,0.095046
0.33152,0.14507,-0.022922,-0.15615,-0.014546,0.035643,-0.11507,0.10559
-0.05443,-0.18339,0.028096,0.47107,0.093284,-0.032063,0.0069462,-0.44692
-0.1582,0.34392,-0.11615,-0.25296,-0.08666,-0.036941,0.29687,0.28797
-0.24168,-0.61936,-0.027054,-0.10188,0.00010769,0.012807,0.10569,-0.19058
0.019861,0.010421,-0.056879,-0.1067,-0.04513,-0.039402,-0.058803,-0.10163
-0.070818,-0.25246,0.020746,0.07692,0.0038971,0.063984,0.077092,0.23482
-0.18574,0.076165,0.15928,0.22308,0.053176,-0.0053406,-0.13466,-0.078867
0.28598,0.44239,-0.02339,-0.097441,0.032166,0.13534,0.45492,0.31004
0.096982,0.18348,-0.10447,-0.15811,-0.035889,-0.17804,-0.7159,-0.39406
0.28162,0.050876,0.002829,0.056038,-0.026159,-0.023528,0.018044,0.09908
-0.47746,-0.5245,0.017917,0.17656,0.0065284,0.020955,0.1973,-0.076847
0.3612,0.17706,0.12079,0.061149,0.030821,0.049433,0.081403,0.078635
0.041474,0.1797,-0.040145,0.02844,0.0076125,0.04661,0.062667,0.057702
-0.52159,-0.52384,-0.082442,-0.28223,-0.055251,-0.057495,-0.021566,0.023936
0.15683,0.29348,0.12618,0.26149,0.10798,0.018668,-0.053255,0.18743
-0.017012,-0.086829,-0.15703,-0.5274,-0.13531,-0.044982,-0.055673,-0.34346
0.3393,0.60085,0.075231,0.11036,0.035453,0.040773,0.22843,0.031816
