0.23767,-0.012793,0.18122,0.017984,-0.021054,-0.027236,-0.018656,0.25907
-0.3376,-0.099705,0.020626,-0.013476,0.0038095,-0.0024896,0.006668,-0.24142
0.16079,0.21243,0.15057,0.025758,0.0051075,-0.0016892,-0.0068371,0.37028
0.11521,0.56423,0.15506,0.018444,-0.017465,-0.017212,-0.028307,-0.092438
0.054492,-0.50573,-0.35095,-0.074626,-0.0016296,0.021207,0.012281,-0.21618
-0.07999,0.20525,0.091513,0.043219,-0.0021568,-0.019131,-0.049267,-0.0031192
-0.0038828,0.072505,-0.05778,0.035829,0.027909,0.033896,0.044903,0.1682
0.21575,-0.69928,-0.033167,-0.011025,0.0028674,0.0087522,0.044968,0.082382
-0.56525,-0.4588,-0.028532,-0.019288,-0.045682,-0.055138,-0.080078,-0.14045
0.15126,0.61792,0.16977,-0.043598,-0.0079711,-0.0012043,0.021553,-0.083057
0.045016,-0.028102,-0.37218,-0.029104,-0.0086489,0.0067001,0.021874,0.21173
0.14902,0.8554,0.48236,0.063498,0.061884,0.046758,-0.00098189,-0.24278
-0.4401,-0.27832,0.018232,0.031337,0.016169,0.0094841,0.062255,0.39663
0.51525,-0.017542,-0.28532,-0.00037995,0.0024847,0.0040079,-0.030776,-0.3998
-0.11493,-0.30427,-0.028566,-0.00028372,-0.02636,-0.024679,-0.022417,-0.089714
0.24151,-0.40223,0.10843,-0.023035,-0.023887,-0.037825,-0.068975,0.14411
-0.11784,0.25261,0.014157,-0.013988,0.0017151,0.026845,0.056196,-0.028778
-0.41986,-0.15799,-0.19017,-0.0044669,-0.01233,-0.041707,-0.068565,0.27987
0.50651,0.65055,0.53725,0.021073,0.027601,0.03779,0.080451,-0.22995
-0.20674,-0.50425,-0.45784,-0.078069,-0.04253,-0.039258,-0.043408,0.0075597
0.19796,0.53295,0.23281,0.11208,0.050849,0.055367,0.075552,0.25962
-0.66941,-0.4478,-0.42709,-0.033611,-0.0045774,0.048257,0.046553,-0.16921
0.341,-0.17029,0.51988,0.00029478,-0.0055187,-0.052853,-0.13859,-0.28063
0.15299,-0.036564,-0.036966,-0.013026,-0.014373,-0.021574,0.043042,0.4538
0.026198,0.43514,-0.45584,0.019866,0.023563,0.0090512,-0.010688,-0.36791
-0.34304,-0.32769,0.22794,-0.081041,-0.032391,-0.023694,0.02788,0.12546
0.0059415,0.43038,-0.0031426,0.12929,0.036433,0.012876,0.010067,-0.0072878
0.36035,-0.082765,-0.063476,-0.021167,0.042479,0.071913,0.014077,0.066479
0.52949,0.050618,0.5472,-0.079284,-0.061088,0.0052036,0.0091003,-0.10909
-0.14674,-0.64368,-0.4292,0.017674,-0.063154,-0.13994,-0.16034,-0.067267
-0.30476,0.069526,-0.36963,0.074848,0.12254,0.11364,0.14736,0.18292
-0.63434,0.29086,0.21337,-0.063377,-0.11297,-0.09273,-0.098014,0.18803
0.2626,-0.31057,-0.40737,-0.068152,0.004181,-0.0083908,-0.0050208,-0.051253
-0.49513,0.95602,0.96654,0.10027,0.075861,0.093672,0.13769,-0.22848
0.43918,-0.25121,-0.25179,-0.12013,-0.061924,-0.044242,-0.052866,-0.0049405
0.32657,-0.27467,-0.05863,0.13021,0.074959,0.0463,0.031928,-0.45519
0.46622,0.051455,0.21232,-0.031775,-0.037488,-0.049503,-0.085751,0.44817
-0.039706,-0.55081,-0.10781,0.1199,0.092128,0.11262,0.13946,0.31042
-0.544,0.3616,0.10431,-0.11093,-0.091753,-0.062225,-0.043858,-0.17801
-0.23681,-0.55459,-0.68676,-0.022002,-0.027374,-0.035942,-0.066409,0.070444
0.019426,0.90677,0.31044,0.081299,0.06608,0.058095,0.063675,-0.17069
1.0581,0.23508,-0.19185,-0.090382,-0.053571,-0.10041,-0.12969,0.073721
-0.80138,-0.28992,-0.10851,-0.083742,-0.057733,-0.049899,-0.12184,-0.4647
-0.44881,-0.45065,0.063051,-0.015363,0.0075584,0.023223,0.12793,0.4213
0.10305,-0.30349,0.22447,0.13124,0.080823,0.057765,0.15262,0.27443
-0.18856,0.40625,0.32961,-0.0024455,-0.03229,0.0080483,-0.030757,-0.42505
0.88395,0.0013123,0.19456,0.10762,0.059519,0.070158,-0.038697,0.47567
-0.019461,0.30946,-0.4181,-0.13214,-0.02633,-0.0057566,0.081809,-0.24441
-0.19355,0.09292,-0.08891,0.035774,0.01459,-0.032709,-0.091997,-0.12491
0.23683,-0.12307,0.18099,0.0012391,-0.0059063,0.042931,0.08691,0.038585
-0.65969,0.059968,-0.2709,-0.080492,-0.057517,-0.11613,-0.17213,-0.56346
0.34043,-0.48342,0.030539,0.04735,0.030639,0.02003,0.059147,0.5574
-0.39925,-0.034027,0.35663,0.032343,-0.0078857,-0.0027674,-0.032746,-0.078874
0.18016,0.16856,-0.35554,0.022438,0.045196,0.05715,0.036202,-0.031133
0.66164,0.13776,0.48331,0.0020224,-0.036674,-0.0032382,0.094394,0.53104
-0.24584,0.57794,-0.29782,-0.083031,-0.026435,-0.02696,-0.044843,-0.1027
-0.91808,-0.40471,-0.30913,-0.020736,-0.0012935,-0.020606,-0.075612,-0.56604
0.96574,-0.076179,0.36874,0.018412,0.016491,-0.0061018,-0.035618,0.63142
-0.18658,-1.021,-0.70694,-0.042244,-0.026546,-0.013154,0.099849,-0.21534
-0.060186,0.34041,0.59474,0.18919,0.081562,0.084531,0.0505,-0.49043
-0.34779,0.49253,-0.33662,-0.09115,-0.025755,-0.0091211,0.012135,0.008947
-0.047054,0.09606,0.37924,-0.047167,-0.059374,-0.067406,-0.2497,-0.1619
0.7185,0.46353,-0.2249,0.00029951,0.011405,-0.004956,0.13156,0.45123
-0.48838,0.23881,0.74584,0.10478,0.099548,0.11452,0.18608,0.6149
0.32332,-0.71129,-0.24097,-0.086895,-0.077674,-0.054357,-0.17341,-0.56914
-0.10658,0.0095479,-0.38644,0.048553,0.056257,0.025665,0.098589,0.10148
-0.054573,0.024913,0.15217,0.06425,0.031151,0.032664,0.079097,-0.1405
-0.00030659,0.01599,-0.056677,-0.13463,-0.099291,-0.12042,-0.30284,0.16385
0.12418,-0.28469,-0.15428,-0.064107,-0.054145,-0.043366,-0.00039093,-0.22949
-0.64311,-0.18655,0.23655,0.088695,0.049821,0.068887,0.112,0.061153
0.31549,0.18486,-0.24547,-0.050189,-0.02849,-0.024767,0.035307,-0.2222
0.34568,-0.12169,-0.5752,0.075401,0.056214,0.060037,0.11448,0.022834
-0.041668,0.27082,0.54086,-0.0094976,0.0009294,-0.018751,-0.063431,0.46961
-0.37417,0.32312,0.030277,-0.014428,-0.013165,-0.0096191,-0.060036,-0.26292
0.13303,-0.21903,0.48431,0.022473,0.0071249,0.018163,0.015789,0.3268
0.40496,0.58061,0.17998,0.054634,0.030894,0.010308,-0.054602,-0.55709
-0.44669,-0.46351,-0.51451,-0.10579,-0.028157,-0.017842,-0.0058353,0.14037
0.56383,-0.040215,-0.1867,0.063729,0.047759,0.065662,0.16157,0.12188
-0.66458,-0.54281,0.0034082,0.0072752,0.0073003,-0.013856,-0.045265,0.18325
-0.15577,0.51893,0.14457,-0.12025,-0.088457,-0.085855,-0.12703,-0.52842
0.86257,0.12214,0.0049903,0.16436,0.056156,0.028197,0.071908,0.82928
-0.63483,-0.080454,0.21297,-0.053758,-0.05961,-0.047459,-0.034818,-0.19771
0.10736,-0.47891,-0.2735,-0.017085,0.032836,0.061926,0.036963,-0.38307
-0.53112,-0.31118,0.091527,-0.069106,-0.064528,-0.026203,-0.025238,-0.70288
0.69614,0.42168,0.051604,0.056535,0.071023,0.048178,0.11469,0.68764
0.78537,0.57135,-0.51483,-0.092266,-0.043834,-0.081266,-0.16019,0.13335
-0.75131,-0.19053,0.34257,0.016809,-0.001867,0.00037098,-0.029328,0.088033
-0.26024,0.3767,0.24687,0.17371,0.072611,0.035917,0.077763,0.19208
-0.18,-0.058387,-0.046058,-0.027304,0.023603,0.056933,0.059564,-0.50102
0.28702,-0.53979,0.00012165,-0.0079825,0.03062,0.055568,0.10352,0.74126
-0.48952,-0.13619,0.0063178,-0.010732,-0.031822,-0.030991,-0.11858,-0.54395
0.78309,-0.29995,-0.18954,0.050022,0.015389,0.0077757,0.0495,-0.11577
-0.35206,0.37512,-0.15763,-0.1854,-0.17194,-0.18785,-0.22019,-0.30246
-0.055596,-0.1512,0.25663,-0.045228,-0.03929,-0.024257,-0.067923,0.029971
-0.036287,0.41524,-0.23131,0.11912,0.14788,0.15494,0.29589,0.68068
0.84706,0.069728,0.38184,-0.10612,-0.055351,-0.064029,-0.11261,-0.011591
-0.39082,-0.0068408,-0.1826,0.12307,0.093643,0.092632,0.11317,-0.23953
-0.45491,0.15413,0.45294,0.18957,0.040485,0.0001469,0.012376,-0.46239
-0.1285,-0.0024283,-0.32536,-0.10997,-0.066346,0.0022649,-0.094938,0.15606
0.34466,-0.53041,-0.19226,-0.12768,-0.047431,-0.080965,-0.092108,0.4113
-0.1923,0.14376,0.054507,0.04977,0.049833,0.054671,0.090499,0.10508
-0.2546,-0.10615,-0.45104,-0.10184,-0.040824,-0.067963,-0.063433,-0.11811
0.44813,-0.26225,0.27048,0.11217,0.039359,0.050603,0.070533,0.034501
-0.02763,0.36024,-0.011793,0.050808,0.032147,0.035011,0.10145,-0.18248
0.6717,-0.23189,0.18966,-0.098454,-0.070399,-0.0054457,0.013701,0.36248
-0.36592,0.31216,0.14236,-0.0072051,-0.01806,-0.039272,-0.19233,-0.60283
-0.63078,0.31086,0.54184,0.036044,-0.021242,-0.065919,-0.094056,-0.28554
-0.16809,-0.075428,-0.40222,0.055443,0.084851,0.071633,0.17666,0.038819
0.054613,0.077271,-0.47306,-0.049818,-0.042756,-0.047655,-0.11359,0.3142
0.10008,-0.17582,0.61673,-0.021251,0.018461,0.037871,0.13751,0.56195
0.84999,-0.35055,-0.63328,0.024442,0.034498,0.047384,0.070874,0.059261
-0.07359,-0.017359,-0.36245,-0.037524,-0.033692,-0.019108,-0.1106,-0.25534
-0.63617,0.10547,0.31479,0.034936,0.0010449,0.0020146,0.037587,-0.15699
0.62524,-0.14498,0.12845,-0.024224,-0.0025505,-0.030699,-0.056059,0.022321
-0.76414,0.076429,0.011148,0.010875,0.009417,0.022318,0.013361,-0.33961
-0.1846,-0.01063,0.69857,0.14721,-0.0029011,0.0037334,0.010255,0.2755
0.64925,0.57017,-0.28681,-0.10042,0.022378,0.022037,0.058798,-0.050802
-0.084335,-0.34706,-0.46382,-0.084225,-0.032251,-0.04828,-0.060001,-0.079423
0.13919,0.27336,0.51436,-0.0076134,-0.026113,-0.027547,-0.064475,0.32865
0.19841,0.20048,-0.30257,0.04361,0.0099579,0.0065935,0.015139,-0.1393
-1.0338,-0.75781,-0.043467,-0.00030528,-0.017098,-0.015283,0.0083959,-0.083933
0.395,-0.19133,0.15734,0.064645,0.04979,0.071998,0.096547,-0.11306
0.15658,0.28014,-0.46425,-0.096449,-0.030799,-0.058577,-0.1409,-0.11544
0.24253,-0.078768,-0.028772,-0.029494,-0.0083172,0.039196,0.086013,0.48095
0.11952,0.28696,0.70488,0.15685,0.08619,0.05333,0.058796,-0.0021853
-0.27147,0.20667,-0.65418,-0.091774,-0.044329,-0.047365,-0.027719,-0.17327
-0.039015,-0.26332,0.080485,0.052616,0.0058625,0.010179,0.036303,0.12457
-0.20847,0.14423,0.069436,-0.05898,-0.013964,-0.024727,-0.070969,-0.24873
0.14552,0.0089664,0.61023,0.025675,-0.026469,-0.035747,-0.085546,-0.15973
0.16525,-0.011449,-0.54274,-0.00696,0.014555,0.038769,0.16298,0.10328
-0.10956,-0.61086,0.29088,-0.0094467,-0.024125,-0.036252,-0.20141,-0.076029
0.25142,0.1108,-0.0079598,-0.021622,0.013645,0.059059,0.15676,0.6546
0.21086,0.63184,0.13637,0.081111,0.042177,0.012076,0.034564,-0.36863
-0.53994,0.18848,-0.15226,0.033173,0.0073178,0.018309,-0.028168,-0.26316
0.068126,-0.34253,-0.50453,-0.15713,-0.058951,-0.10145,-0.084899,0.18886
-0.31465,-0.43625,0.039256,-0.027989,-0.030835,-0.034003,-0.079472,-0.076381
0.02724,0.14283,0.06068,0.03101,0.029883,0.041708,0.0599,0.17395
0.21732,-0.28445,-0.081238,0.06777,0.029955,0.071685,0.14696,0.094665
0.41868,0.97695,0.5531,0.1065,0.039887,0.017334,0.026267,-0.15898
-0.64399,-0.20705,-0.33839,-0.047747,-0.018603,-0.035244,-0.044064,0.061129
0.62699,-0.34657,-0.028021,-0.051347,-0.013177,-0.00028094,-0.064247,-0.40074
0.0063886,-0.29633,0.26362,-0.014228,0.00077487,-0.0032319,-0.081787,0.19098
-0.0071066,0.37738,0.18711,-0.046633,-0.047854,-0.044733,0.03523,0.24417
-0.49511,-0.048134,-0.19675,0.006676,0.012061,0.022959,-0.042356,-0.61463
0.19378,0.056202,-0.072471,0.12909,0.039296,0.042968,0.21566,0.63121
-0.48486,-0.10953,-0.30614,-0.10209,-0.03683,-0.039863,-0.097932,0.42715
0.47168,0.12459,0.42323,0.0079461,0.002312,-0.007037,-0.01515,-0.59475
0.34034,0.35967,0.1641,0.099646,0.063086,0.032045,0.0025675,0.03285
-0.468,-0.62958,-0.81444,-0.11583,-0.041704,-0.031821,-0.021497,0.066142
0.41985,0.0036195,0.23558,-0.059796,-0.046,-0.02645,-0.087129,-0.51967
-0.12926,0.27167,0.22835,0.12011,0.058497,0.064145,0.1031,0.47783
-0.51255,-0.15582,-0.32663,-0.11428,-0.048054,-0.04095,-0.004711,0.11339
0.30389,-0.35129,0.56517,0.073796,0.0097364,0.017887,-0.042459,-0.28411
0.19114,0.6042,0.077811,0.10681,0.075886,0.045475,0.14697,0.50527
-0.064833,-0.012687,-0.27168,-0.061804,-0.02916,-0.0050294,-0.076332,-0.31407
0.10345,0.010007,0.05617,-0.033626,-0.016326,-0.039899,-0.0713,-0.51466
-0.3228,-0.14941,-0.33745,-0.01984,-0.01849,-0.04352,-0.087798,0.099005
-0.12897,0.052468,0.25764,-0.028628,-0.043557,-0.00021895,0.10053,0.33859
0.39802,0.071636,0.34871,0.11933,0.049011,0.051077,0.071261,0.31157
-0.04637,-0.45685,-0.47035,-0.1153,0.0091547,0.016825,0.050182,0.26521
-0.24543,0.18823,-0.034356,0.032994,0.024341,-0.0011697,-0.05737,-0.42835
0.34362,0.40876,0.38539,0.0017558,-0.022633,-0.049558,-0.07255,-0.091545
-0.24576,-0.43873,-0.77077,-0.021369,-0.014588,0.020251,0.090009,-0.11544
0.24585,0.074476,0.28917,0.026297,0.017212,0.020797,-0.046391,-0.28724
0.25027,0.38691,0.56756,0.027683,-0.044447,-0.055834,-0.122,0.33471
-0.19733,-0.25628,-0.5283,-0.040656,0.026943,0.055731,0.10619,-0.22029
-0.55117,-0.19428,0.52441,0.016427,-0.0030834,-0.012082,-0.079457,0.31194
0.28472,0.11765,-0.081315,0.08144,0.052841,0.037137,0.11904,0.030606
-0.11397,-0.14253,-0.44278,-0.17412,-0.055449,-0.039279,-0.024034,-0.28775
-0.14581,0.093275,0.56098,0.13999,0.031255,-0.0073505,-0.047376,0.14572
0.18982,0.11839,-0.67524,-0.01554,0.00032822,0.0076904,0.095665,-0.00095579
-0.24813,-0.15097,0.15081,-0.04704,-0.031083,-0.017597,-0.0097194,0.28859
0.71696,0.4645,0.16345,-0.024672,0.0074128,0.034217,0.06508,0.3022
-0.14831,-0.52254,0.10608,0.012862,-0.0011724,-0.023905,-0.071674,-0.18023
-0.042261,0.37497,0.083166,0.027,0.013766,0.011767,-0.030207,-0.27535
0.47411,-0.20886,-0.36213,0.026096,-0.056823,-0.084691,-0.1937,-0.27583
-0.54487,-0.023105,0.024738,-0.067518,0.02952,0.06227,0.031806,-0.13369
-0.17775,0.09794,-0.095864,0.043302,0.038569,0.054564,0.2407,-0.23386
-0.14214,-0.05335,0.47426,0.046071,0.024984,0.0094672,-0.1833,0.32343
-0.08263,-0.14321,-0.34983,-0.075088,-0.034881,-0.018511,0.15909,0.17365
-0.42207,-0.046197,0.24312,0.062161,0.030504,0.017119,0.12787,0.12309
0.63799,0.068726,-0.10963,-0.089668,-0.08395,-0.11069,-0.26108,-0.15796
0.56952,0.50333,0.27449,0.10942,0.051086,0.050716,0.12498,0.55877
-0.061131,-0.43161,-0.11792,-0.036394,-0.025561,-0.0068518,-0.11267,0.012525
0.046724,-0.042234,-0.42488,-0.050868,0.014173,0.028877,0.1037,0.087264
-0.56438,-0.11977,0.22484,0.081594,0.053217,0.017178,-0.10905,-0.57715
0.093149,0.050701,-0.23285,-0.17783,-0.080042,-0.049767,-0.040298,-0.51252
-0.29006,0.10362,0.4764,0.10883,-0.0024587,-0.0078756,0.059696,0.16545
0.10155,0.061205,-0.26129,0.090593,0.036291,0.033472,0.057777,0.17241
0.067594,0.20073,0.55138,0.018031,0.0051776,0.05858,0.078474,0.25088
0.14902,-0.18715,-1.0561,-0.18654,-0.0098094,-0.057688,-0.089768,-0.16617
-0.1303,0.24955,0.28946,0.06305,0.014618,0.020429,0.099237,0.56699
0.46257,-0.24637,0.13165,0.016738,2.5529e-06,-0.058794,-0.12075,-0.64541
-0.23209,-0.055422,-0.097512,0.025766,-0.015038,0.0092443,-0.046956,0.23308
0.007233,-0.086452,0.42953,0.081778,0.039357,0.052706,-0.0074528,-0.1609
-0.24731,0.083436,0.44369,-0.08931,-0.016838,-0.0063468,0.09987,0.088574
0.16251,-0.22074,-0.35746,0.0040888,-0.035301,-0.026957,-0.020846,-0.057774
0.067905,0.14936,0.011883,0.002213,-0.0080454,-0.016487,-0.008842,0.37454
-0.041677,0.20317,-0.57107,-0.040293,-0.0049196,0.01777,0.067138,-0.0085095
-0.21342,-0.11229,-0.10979,0.017559,0.013829,0.013837,-0.12731,-0.25772
0.00015269,-0.13292,0.34824,0.074942,0.041179,0.026851,0.065354,-0.12676
0.032896,-0.3462,-0.64007,-0.14841,-0.039317,-0.052246,-0.080652,-0.26683
0.15581,0.6234,0.85135,0.0282,0.0072504,0.0032368,0.051993,0.15654
0.17908,0.19384,-0.20387,0.027495,-0.0064006,-0.0099178,0.0095312,0.33851
-0.47863,0.2636,0.41717,0.045221,0.0055094,0.025163,0.10307,0.045602
0.16986,-0.34178,-0.29881,0.096919,0.065901,0.037657,-0.013127,0.052841
0.29689,-0.53187,-0.16431,-0.02896,-0.029138,-0.019954,-0.060137,-0.38788
-0.12291,0.113,0.060584,-0.10687,-0.014902,0.0078925,0.01445,-0.10275
-0.031004,-0.094176,0.22352,0.033841,-0.032901,-0.043493,-0.088095,0.52716
-0.10439,-0.12585,-0.34417,-0.053277,-0.021336,-0.010515,0.013932,-0.27788
-0.01236,0.15875,0.048594,0.037146,0.019377,0.020643,0.054729,0.20208
0.40507,0.72407,0.2818,-0.0078543,0.018832,0.010922,0.027259,-0.20392
-0.0024357,-0.17374,-0.08281,-0.00080266,0.0084723,-0.0082001,-0.14501,-0.22186
-0.28075,-0.30033,-0.20762,0.011779,-0.0034806,0.010545,0.18848,0.31249
-0.36342,-0.17837,-0.12778,-0.016379,-0.016501,-0.018294,-0.22776,-0.109
-0.27537,-0.025956,-0.033053,0.0013671,0.0012083,-0.01609,0.12405,-0.28425
0.029771,-0.030872,0.051444,0.050069,0.050149,0.056678,0.050293,0.46458
0.56643,0.39865,0.68596,0.075599,-0.017705,0.020702,0.14574,0.088029
0.096569,-0.25741,-0.48505,-0.11694,-0.045791,-0.076848,-0.034564,-0.065501
0.45659,-0.068784,-0.28837,0.019604,0.067678,0.11581,-0.076837,-0.092997
-0.11476,0.23557,0.53222,-0.038006,-0.083392,-0.15895,-0.34899,-0.22378
-0.17879,-0.075986,-0.62908,-0.070895,0.008905,0.0052239,0.14012,0.016978
-0.056193,0.38793,0.85424,0.13973,0.055537,0.084957,0.17047,0.050881
-0.57509,-0.47444,-0.071881,-0.023374,-0.037303,-0.029195,0.06874,0.37923
0.17289,0.071253,-0.35961,0.017672,0.034907,0.045349,-0.018246,-0.26865
-0.49438,-0.075256,-0.32667,-0.10475,-0.056248,-0.059028,-0.14685,-0.42799
0.41629,-0.25434,0.0086296,0.022812,0.016948,0.016439,0.18135,0.54614
0.56506,0.33674,0.42785,0.15744,0.074324,0.067895,-0.011405,-0.31871
0.19993,-0.18432,-0.67529,-0.10782,-0.072112,-0.077266,-0.15542,0.26979
-0.055417,0.55999,0.53254,0.046845,0.038176,0.025675,0.030785,-0.19419
-0.45268,-0.30926,0.5889,0.15254,0.061224,0.040461,-0.037648,0.13352
-0.82293,-0.52188,-0.74983,-0.3685,-0.12791,-0.079712,-0.069784,0.16607
0.67276,0.57509,0.20161,0.047098,-0.0054298,0.017209,0.26488,0.30001
0.33184,-0.23315,-0.044837,0.049023,0.02303,0.011781,-0.13272,-0.41213
-0.21492,0.12668,-0.057124,0.037074,-0.01834,-0.040199,0.013051,-0.43315
0.12955,0.14861,0.094933,0.090513,0.050866,0.010847,-0.054096,-0.014279
0.25743,-0.057168,-0.10558,-0.063503,-0.026659,-0.029458,-0.075794,-0.054517
-0.14286,0.017226,-0.13024,0.082698,0.069551,0.097207,0.11931,0.50049
-0.030527,-0.20663,0.27474,-0.02645,-0.004506,0.015793,0.09218,-0.076469
0.27032,-0.18999,0.14374,0.02168,-0.015058,-0.01652,0.082742,0.2444
-0.93616,0.16069,-0.035894,-0.087075,-0.025421,-0.00082452,-0.075634,0.14045
-0.068811,0.079677,-0.13564,0.075468,0.010444,-0.016584,-0.11966,-0.37564
0.10491,-0.10515,-0.27593,-0.15576,-0.033124,-0.018219,-0.074394,0.068398
0.37375,0.2852,-0.067912,0.031461,-0.031473,-0.030158,0.0049068,-0.083871
0.057447,-0.10997,0.19915,0.043858,0.023232,0.0017974,0.0094195,-0.36368
0.72368,0.19171,0.6906,0.10129,0.061034,0.030857,0.096876,0.48102
-0.77399,-0.32011,-0.91929,-0.18539,-0.07374,-0.059557,-0.058843,-0.25678
0.43013,-0.21059,0.036692,0.091575,0.033618,0.028398,0.013029,-0.12675
-0.074647,0.29911,0.54639,0.081822,0.039913,0.061455,0.071856,0.22776
-0.16953,0.24638,0.019473,-0.04992,-0.038878,-0.029691,-0.030065,0.084219
-0.62676,-0.35378,-0.39248,-0.077095,-0.0073604,-0.0021341,0.1055,-0.016291
0.3213,0.030557,0.055332,0.093391,0.048352,0.035073,-0.085023,0.074176
-0.11083,0.26867,0.052382,0.07758,0.010707,-0.011905,0.0061328,-0.06137
0.34795,-0.10487,0.013864,-0.063404,-0.058239,-0.034109,-0.115,0.10361
-0.060805,-0.28898,-0.27105,-0.11212,-0.010449,0.022543,0.050061,0.32154
0.14037,-0.044804,0.45432,0.055456,-0.0024297,-0.030086,0.070706,-0.58429
0.438,0.053447,-0.40625,-0.068929,0.0048229,0.0028001,-0.13132,-0.16383
-0.24265,0.094233,0.34653,0.085154,0.034883,0.042776,0.13214,0.066652
-0.32664,0.3045,-0.15166,0.010501,0.0099066,-0.011764,0.0030761,0.28879
-0.37854,-0.13036,0.32014,-0.041984,-0.054138,-0.082511,-0.2199,-0.25909
-0.13405,-0.074246,-0.2358,-0.024455,0.014938,0.041798,0.20724,0.076418
0.11637,0.021309,-0.20699,-0.014226,-0.03266,-0.052547,-0.15146,-0.17659
0.58107,0.43851,0.051927,0.12983,0.060928,0.08784,0.26755,0.2976
0.098924,-0.32099,0.32908,0.11098,0.084658,0.14275,-0.10569,0.49994
0.091681,-0.52706,-0.49906,-0.14906,-0.078872,-0.11445,0.0019339,-0.3367
-0.17836,0.092287,-0.20216,-0.056828,-0.00020913,-0.019875,0.081766,-0.15334
-0.068791,0.030854,0.79574,-0.050098,-0.046707,-0.058064,-0.2189,0.076655
-0.18109,0.25395,-0.068816,0.035088,-0.038707,-0.041607,-0.041895,-0.034007
-0.53122,0.31473,0.10216,0.050386,0.047332,0.068598,0.16634,-0.19958
0.4828,-0.42039,-0.84053,-0.12898,-0.046217,-0.063266,-0.22017,-0.17933
0.59752,0.25842,0.32012,0.18473,0.087058,0.078541,0.15708,-0.019536
-0.32315,-0.13572,0.10405,-0.016234,0.025321,0.048708,0.18012,0.18052
-0.13129,-0.17768,-0.017972,0.0023568,-0.0050009,0.0033099,-0.073683,0.38504
-0.5591,-0.24169,-0.015453,-0.095859,-0.035453,-0.02674,0.06695,0.027203
0.67932,0.48302,0.39707,0.13383,0.02734,0.01283,-0.17955,0.0085692
0.098198,0.50033,-0.19274,-0.090486,-0.035703,-0.073656,-0.039575,-0.25441
-0.29512,-0.58578,-0.23024,-0.066213,-0.060691,-0.036375,-0.043625,-0.088267
-0.13404,0.13279,0.44024,0.10479,0.069631,0.070079,0.12215,6.3162e-05
-0.045328,-0.13063,-0.51716,-0.085249,-0.050678,0.0038853,-0.063925,-0.44236
-0.064095,-0.22384,0.28239,0.067153,0.039815,-0.031249,0.12665,0.86515
0.5062,0.14019,-0.031341,-0.023314,0.02137,0.043471,0.0081076,-0.65695
0.39049,-0.22611,-0.22384,0.042554,0.027324,0.0099086,-0.06672,0.50453
-0.60288,-0.00082677,-0.40918,-0.1251,-0.082591,-0.092451,-0.15199,-0.10688
0.24688,0.50611,0.55864,0.099337,0.012057,0.056838,0.10353,-0.11239
-0.37903,0.38345,0.41274,0.036548,0.029862,0.035699,0.050249,0.061996
-0.29881,-0.56157,-0.19183,-0.047796,0.0094814,0.0076947,0.053476,0.20963
0.31145,-0.10815,-0.37447,0.0022934,-0.002792,-0.035694,0.056264,-0.32785
0.0040639,0.096808,0.1811,0.030063,0.03927,0.053211,-0.021752,0.074462
-0.065142,-0.1955,-0.070415,0.034878,-0.028971,-0.062169,-0.14326,-0.20613
0.54255,0.26593,-0.37191,-0.1714,-0.059459,0.00061027,0.058066,0.23342
0.25158,-0.20555,0.64106,0.10602,0.010206,-0.016266,-0.034669,0.16509
-0.9111,0.015733,0.097031,-0.055093,-0.022901,-0.042121,-0.16223,-0.48989
0.6212,0.24258,0.10824,0.17325,0.09167,0.095573,0.099535,0.19715
-0.88153,-0.079854,-0.38474,-0.1308,-0.067366,-0.063346,0.057982,-0.22181
-0.048095,-0.085041,-0.48708,-0.084259,0.00058386,0.020904,0.059315,0.55246
0.81185,0.31182,0.1431,0.10217,0.053796,0.036315,-0.0041283,-0.20769
-0.1836,-0.38291,0.091786,-0.024421,-0.0090451,0.022103,0.11045,0.49315
0.29209,0.024494,0.61075,0.067409,-0.0082543,-0.068812,-0.19129,-0.71976
-0.023047,-0.006577,-0.12522,0.034033,0.032504,0.13807,0.21401,0.35523
-0.47121,-0.19628,-0.58936,-0.11665,-0.074647,-0.17044,-0.18379,-0.11178
