-0.0011267,-0.012462,0.0084995,-0.001513,-0.0077828,0.0021924,-0.0035256,-0.0081049
-0.0094978,0.010064,0.016475,0.0060183,-0.0001279,-0.0044905,-0.0038748,-0.00075226
-0.010143,0.00113,-0.015212,-0.018015,-0.00050615,0.004777,-0.020261,-0.0018093
0.012566,3.2291e-05,-0.0084659,0.0046151,0.0067246,0.0063901,0.017692,-0.0032696
-0.011658,-0.0085852,-0.010068,0.0037461,0.0059681,0.0079621,-0.0070264,-0.0048442
0.0031811,0.0067798,0.0036394,0.010795,0.0050734,-0.014143,0.0073996,0.0016097
0.010295,-0.00056623,0.0017296,-0.0053311,-0.0037264,-0.01321,-0.0090657,0.00077149
-0.0058394,0.0085056,0.00019369,-0.0054558,-0.01256,0.0028488,-0.0015027,0.0084778
-0.013874,0.0026712,0.014996,0.0026592,-0.0057289,0.0027648,0.0067777,0.016985
0.0096938,-0.018283,-0.023939,-0.012263,0.0012287,0.0022178,0.0079435,-0.012865
0.018007,0.015629,0.0084671,0.012171,0.0084008,0.016947,0.0096339,-0.0031946
-0.0046004,0.002458,0.026163,0.0054809,0.00023637,-0.0075832,0.0037386,-0.0012292
-0.011351,0.004321,0.0054191,0.014333,0.0080295,-0.0087093,-0.0022902,0.0082678
-0.0023792,-0.018152,-0.030755,-0.016166,0.00053397,0.0059121,-0.016606,-0.0063012
0.006537,0.0051774,0.0030949,-0.0080514,-0.0066615,-0.010464,-0.008203,0.0017007
-0.00036786,0.0039985,0.01277,0.007352,0.0020004,0.0047539,-0.0084187,-0.014683
0.00023637,-0.013695,-0.009868,-0.0089866,-0.0048152,-0.0030805,0.0062699,-0.00067059
-0.007334,0.0071208,0.0053492,-0.0022402,-0.0037575,0.012897,0.0048496,0.0049231
0.00035385,-0.011251,-0.027447,-0.0034372,-0.002718,0.0057487,0.0032758,0.002456
0.0077194,0.0019469,0.0091971,0.011118,0.0060483,-0.0090014,0.0097099,0.0079519
-0.00078181,0.015839,0.014128,0.0026018,-0.00095335,-0.0080417,0.0010066,-0.0016582
-0.0016133,0.0072208,0.0034452,0.0024313,0.0074771,-0.007127,-0.0070303,-0.0026609
-0.010302,-0.0082303,-0.01459,-0.0049596,0.0078604,0.0092503,0.0012603,0.0050859
0.020109,0.016228,0.015052,0.011618,-0.0076446,0.0097465,0.0023363,-0.0018627
-0.011887,-0.013435,-0.0011982,-0.010505,-0.0077926,-0.0057022,-0.0040176,-0.00021386
0.0031085,-0.0038269,0.0069689,0.0065584,0.0074455,0.0019333,0.0053581,0.0019707
-0.0052156,-0.0021837,0.00031869,-0.0077604,-0.016551,-0.006414,-0.0010697,-0.003428
0.010002,-0.00097776,-0.01363,0.0010023,0.0062563,-0.0072865,-0.0079104,-0.0010969
0.0018742,-0.00036817,0.003836,0.0014514,0.0056706,0.0071689,0.00031702,-0.0069337
-0.0061594,-0.015994,-0.0023029,-0.0064552,-0.002574,0.005759,-0.0076708,0.0022999
-0.0062604,0.0069488,-0.0010519,-0.0070293,0.0050357,0.0041789,0.0072645,-0.0047559
-0.006192,0.0061629,-0.00036038,0.0076891,0.0050854,0.0025145,0.0062222,0.018755
0.0097319,0.020943,-0.0080476,-0.001169,-0.0024631,0.00086974,-0.0027736,-0.0052343
-0.0053112,-0.0031954,0.0072457,0.0056524,-0.0098915,-0.016255,0.0039337,-0.0062915
0.011198,-0.011432,0.0066463,0.012681,0.0061048,-0.0018458,-0.0047181,0.00011428
-0.011089,-0.019353,-0.0096244,-0.011251,-0.0014954,-0.010449,0.0026486,-0.0014695
0.013665,0.019865,0.0055133,0.0041783,-0.0015723,0.012733,-0.0051651,0.012564
-0.008447,0.0045363,0.0053336,-0.0035914,0.0057866,0.0052499,0.0030632,-0.012323
0.016133,0.01263,0.013344,-0.0034092,0.0049331,-0.0016881,0.0038011,0.002114
-0.014347,-0.018503,-0.017341,-0.0031981,-0.011893,0.015216,0.0047196,-0.0065482
0.0015345,-0.0030264,-0.00086518,0.0047591,0.0023098,0.0010497,-0.0099657,0.0086004
-0.006592,-0.011278,-0.015482,-0.0030368,-0.0069619,-0.0053976,-0.0013411,0.00067658
0.008199,0.019306,0.016786,-0.0031712,-0.00043334,-0.0043856,0.0070428,0.0086991
-0.016435,-0.028327,-0.0057698,-0.0034447,0.0064722,-0.011727,-0.0083131,-0.0064623
0.0056828,0.025689,0.010474,0.011803,-0.0017203,0.0037623,0.0072715,-0.0058228
0.0045105,0.0096557,0.010734,0.011368,0.006305,-0.0047186,-0.016477,-0.0050809
-0.0040825,-0.021605,-0.02067,-0.0047035,0.0070761,-0.0057168,0.0064461,-0.0042978
0.0034991,0.017903,-0.0056245,-0.01293,0.00046369,0.0088667,0.0058004,0.012106
0.0038469,0.0031503,0.0012105,-0.0054601,-0.0059169,0.00027386,0.012897,0.0050321
0.0046576,-0.019102,-0.00010089,0.0021184,-0.0044772,0.015633,0.0043354,0.0057029
0.0056897,0.0056592,0.013968,0.0098366,-0.003235,-0.007414,-0.01205,-0.01716
0.0066274,0.0069145,0.012275,0.0020912,-0.002339,-0.0063651,-0.0049979,-0.0010852
-0.0084707,-0.015538,-0.0050624,-0.0054871,-0.0018588,0.010824,-0.005735,0.0070232
-0.0085918,0.008451,-0.014473,0.0027109,-0.0017826,-0.0029749,0.0014023,-0.00067273
-0.0094546,0.0084659,-0.00018881,-0.0046049,0.013593,0.0066114,-0.0069685,0.0070588
-0.010978,0.00011053,-0.0089361,-0.0040593,0.0053267,-0.0075973,0.0082722,-0.0010386
0.0027079,-0.0087373,-0.001518,0.0042678,-0.0030134,-0.014587,0.0081016,-0.017143
0.0085198,-0.0023053,-0.0012802,0.0046641,-0.011309,0.0011458,0.00033685,0.013461
0.0068414,0.0039937,0.015231,0.012673,-0.0038496,0.00055208,0.00056473,-0.0029298
0.0058104,0.0025945,0.0088673,-0.010827,0.0037815,0.0072064,0.00089906,-0.0037538
0.013435,-0.014072,0.002878,-0.0033565,0.011581,0.0057109,0.0090638,0.0032484
-0.0015077,0.0088792,-0.0030098,-0.011766,-0.0039301,-0.0036667,-0.014079,0.018152
-0.015717,-0.0065677,-0.0091043,0.0030813,0.0040569,0.0027668,-0.0060654,-0.013658
-0.0060227,0.0098959,0.0077511,-0.0055845,-0.0035895,-0.0060401,-0.013755,-0.013993
0.003803,0.019083,-0.0073218,0.017041,-0.0034816,0.0012726,0.00979,0.0015712
-0.0022013,-0.010485,-0.0075035,0.00074634,-0.0034444,0.0012756,0.0099709,0.001811
-0.00087488,-0.0087817,-0.016135,0.008097,-0.0034442,0.0095058,0.0024925,0.017973
0.0076098,-0.0073461,0.013888,-0.0077602,0.004406,-0.0054486,0.003019,-0.0046676
-0.00022925,0.0092199,-0.0030584,-0.0077783,-0.003233,-0.0047254,-0.0040971,-0.0036812
0.0069432,0.017365,0.027105,0.0080045,0.012798,-0.004148,-0.0033173,0.005214
-0.017551,-0.029759,-0.012529,-0.0073279,-0.0099352,0.0039399,0.0052256,-0.017146
-0.0031285,0.00082884,0.0032156,-0.0069306,0.0067087,0.0038296,0.0057597,0.0072707
0.0036334,-0.0077902,0.0040732,0.001371,0.00018057,0.0033409,-0.0018355,0.0080792
0.010814,-0.00061736,-0.010036,0.0097634,-0.0061934,-0.0052397,-0.0019929,-0.0069518
-0.0048364,0.014809,-0.00023398,0.0026219,0.0030506,-0.0061119,-0.018124,-0.0065883
0.011436,0.015217,-0.0058307,-0.0044408,-0.003525,0.00094334,-0.011055,0.0091755
-0.010748,0.00061505,-0.0036611,0.0041655,0.005145,-0.0072923,0.011571,0.0012951
-0.001266,0.0020984,0.0060164,-0.010681,0.0054717,0.0084134,0.010877,-0.0067714
0.0083492,-0.011871,0.0073612,0.0056278,-0.010449,0.0012607,0.010453,0.00843
0.0021521,-0.0025831,0.00022214,0.0061336,0.004249,0.010265,0.0025651,3.5734e-05
0.0032792,0.021816,0.0079628,-0.0014226,-0.0050458,-0.0038103,-0.0049864,-0.00069439
-0.019745,-0.032662,-0.0084693,0.014171,0.00088875,0.0056342,0.0033297,-0.0015563
-0.0045309,-0.009857,-0.017732,-0.033015,-0.0011656,-0.0007896,-0.011694,-0.010331
0.0020676,-0.0034476,0.0037746,0.0055206,-0.0031498,-0.0077645,-0.003335,0.0042846
0.0080062,0.018023,0.0093848,0.0048882,0.0029842,0.00011358,-0.0029647,0.011114
0.0057054,0.0079642,-0.00067526,-0.0035248,0.0096113,-0.0084848,0.0049801,-0.0053784
-0.0045565,0.0057307,0.0050545,0.011667,0.0012184,-0.0022208,-0.0029334,-0.0060359
0.0087481,0.019372,0.018928,0.011507,0.001267,0.0035287,0.0046049,0.0014136
-0.00883,-0.044723,-0.037075,-0.011769,-0.0059285,0.0013161,-0.0035634,0.0014054
0.013197,0.016605,0.0011486,-0.0113,-0.012684,-0.00063259,0.0039059,0.0017756
-0.011008,0.0079845,0.024203,0.0050216,0.01208,-0.0019346,0.0036474,0.0025031
-0.0032912,0.0074247,0.00077357,-0.0019943,-0.0021361,0.013313,0.0035105,0.0035214
-0.010562,-0.024264,-0.014544,0.0065585,-0.0086378,-0.0016431,0.0034971,-0.010899
0.013965,0.0065701,0.001592,0.0070862,0.015859,0.0078256,-0.0042254,0.0138
-0.00015472,-0.0094864,-0.0055927,0.0072744,-0.0068826,-0.013193,-0.011867,-0.0084553
0.0016001,0.013537,0.0029019,-0.016384,0.0011981,0.0052677,0.0040003,-0.0074801
-0.0043939,0.01324,0.011414,-0.0091986,0.0088447,0.00030211,-0.0034826,0.00099607
0.0051102,-0.018051,-0.011322,-0.002335,-0.015143,-0.012855,-0.0030352,-0.0065389
0.0065007,0.013561,0.012818,0.0043526,0.0074613,0.0045445,-0.0024403,0.016749
-0.015984,-0.040252,-0.017729,0.003231,-0.0091396,0.0054373,0.0061181,0.0083558
0.0078921,0.0080469,-0.0014053,0.0022855,-0.0022888,-0.010221,0.014784,-0.00043502
-1.6996e-06,0.025576,0.014893,0.0094585,0.0047241,0.012352,2.4276e-05,-0.0095435
-0.00053075,0.027782,0.0076949,0.0091894,0.0041979,-0.0047608,0.00076163,-0.011027
-0.0013685,-0.0090452,-0.0074203,-0.014152,0.011813,-0.0065963,0.0012217,0.0031027
-0.010143,-0.014907,-0.0070584,0.0018743,-0.0036896,-0.00067625,-0.01434,0.0018079
0.0045945,0.0020986,0.00093775,-0.0053201,-0.0033123,0.0054433,-0.0069131,0.00092962
0.0039563,-0.02072,0.00093742,-0.0045741,-0.010594,0.0041328,0.00010594,0.00065129
0.0036873,-0.013095,-0.0070369,-0.0037697,0.0056037,0.011107,0.0068475,-0.0067303
0.0038296,0.0094573,0.00049825,0.0048624,-0.0016887,0.0029261,-0.0099314,0.0022235
0.0043432,0.015926,0.0079757,-0.0021399,-0.0012818,-0.012667,0.00467,0.011764
-0.002692,-0.009011,-0.00017516,0.0064527,0.0068048,-0.0045249,0.01177,0.0060272
-0.0096093,0.0052567,0.0073333,0.0071705,-0.0086612,-0.011812,0.0036593,0.00031647
0.0068804,0.027703,-0.00073513,-3.8257e-05,0.0070488,0.0044598,0.0037817,0.0021014
-0.0080281,-0.011876,-0.00095282,0.0081976,-0.00070616,0.005188,-0.0035799,-0.0045398
-0.0075265,-0.011935,-0.024598,-0.022875,-0.0084562,-0.0018315,-0.0029621,-0.019794
0.00056078,-0.003844,0.0064187,0.00044894,-0.00057199,0.0068257,-0.010179,-0.0046367
0.0084515,-0.0034118,0.013933,0.015668,0.015103,0.0076906,-0.0019664,-0.005826
0.0083833,0.0047876,0.013537,-0.0084181,0.0072593,-0.0071129,-0.0018799,0.0081253
0.00040164,-0.0028522,-0.010413,-0.0092147,-0.0085527,0.0013821,0.0056596,0.014078
0.00015498,0.012625,-0.0032284,-0.0022212,-0.0011456,-0.0060008,0.0050562,0.012319
-0.015798,-0.011309,-0.0039415,0.0048761,-0.017421,0.0096931,0.0042133,-0.004746
0.0072039,-0.0042854,-0.012494,0.0043628,0.0051486,-0.0062977,-0.0045514,-0.0057537
0.014444,0.018192,0.010259,0.019723,0.011962,0.00069693,0.0023433,0.0093032
-0.0019071,-0.014019,0.0097233,-0.003743,-0.004662,-0.0083337,-0.014033,-0.0065224
-0.018397,0.00082655,-0.014018,-0.011409,-0.013321,-0.0020214,0.0089203,-0.0064642
-0.011532,-0.0074199,0.0094026,-0.0033586,0.017373,0.0041759,0.00094181,-0.006248
0.018778,0.0082283,0.0096892,-0.0031081,-0.0062342,0.0026312,0.0010901,0.0018768
0.0023366,0.0087431,-0.0053714,-0.0028894,0.0096324,0.0091409,0.0014936,-0.013352
0.0017559,-0.013742,0.0032242,-0.0027024,-0.0053876,-0.0074181,0.00205,0.01059
0.0014976,0.018759,-0.011477,0.013119,0.011092,-0.00010609,0.0026345,0.011238
-0.0062111,-0.003328,-0.010494,-0.0022336,-0.011397,0.0076393,-0.0046871,0.0042276
-0.0057632,-0.0099146,0.006099,0.0059886,-0.010517,0.00013914,-0.0043829,0.0051521
0.0027658,-0.0012067,-0.00082735,-0.016867,0.0057773,-0.007067,-0.012124,-0.0095112
0.011442,-0.0086006,0.0077306,-0.00050099,-0.0016658,-0.0062589,0.011162,-0.00082389
-0.0033178,0.022534,0.016092,0.015954,0.0061872,0.0024856,0.010847,-0.0079852
0.0052168,-0.0093226,-0.0070441,0.0089389,0.0059323,0.0034896,-0.0051641,0.00013752
-0.00994,-0.018095,-0.0070242,-0.0060712,-0.010158,-0.0032742,-0.0055118,0.0078497
-0.0019676,0.019861,0.008334,-0.0057902,0.0049088,-0.0021947,0.0020906,-0.00047662
0.0057128,-0.012408,-0.01562,-0.013772,-0.01124,0.0067088,0.0020895,-0.0091484
-0.010254,0.010317,-0.00849,0.0089939,0.0040096,-4.3872e-05,-0.0054859,0.013215
-0.010681,-0.0055568,-0.0014138,3.2539e-05,0.011672,-0.0069058,0.0027816,-0.011338
0.01238,0.018162,0.01354,-0.0014916,-0.0038505,0.0094462,0.0033863,0.011129
0.004339,-0.027944,-0.010415,-0.0032328,0.0042922,0.0019995,0.0040353,-0.02078
0.004293,0.020043,0.028312,0.0028054,-0.010849,0.0096814,-0.0032074,0.010243
0.012193,-0.0021562,0.004682,0.0089871,0.0053111,-0.014483,-0.0028344,0.010493
-0.003329,-0.0010429,-0.011094,-0.00017201,-0.0020283,-0.0080231,0.005068,0.0033722
-0.0033631,-0.00028604,-0.011329,-0.0011462,-0.0017129,-0.0021282,-0.010785,-0.0034169
-0.0036698,0.0077636,0.0038682,-0.0017147,0.0061961,0.0033622,-0.0034898,-0.0022266
-0.01213,-0.0082018,-0.0046113,0.005923,0.0060612,0.0086933,0.011417,-0.0010554
-0.0052745,-0.032493,-0.013294,-0.0095232,-0.025516,-0.0014627,0.0028193,-0.0078878
0.001409,0.028817,0.0091894,-0.0012289,0.013111,-0.0033625,-0.0056868,0.0005843
0.00032387,-0.0037067,-0.0073003,-0.0083065,0.0048683,-0.0045515,0.0016735,-0.0069591
0.0073387,0.003024,0.015547,0.00044756,-0.0032516,0.010782,-0.006237,0.008536
0.0070384,0.010187,0.0075671,0.0093592,0.0044749,0.0036497,-0.00593,0.0080504
-0.00045617,-0.0055027,8.3161e-05,0.010556,-0.0031461,-0.010373,0.010379,0.0072883
0.0082919,-0.012756,0.00088986,-0.0038531,-0.01049,-0.0080221,0.0035197,-0.0092767
-0.0059048,0.019592,-0.013553,0.0051033,0.01363,0.018242,0.012381,-0.01029
0.003607,0.0054172,0.011282,-0.0095451,-0.0012125,-0.0022301,-0.0023058,0.0043526
-0.010316,-0.0086549,-0.010725,-0.0088164,0.0073328,0.00051556,-0.0094841,0.0034939
0.0067554,-0.015076,-0.0094296,0.0072405,-0.0077626,-0.0050978,-0.0014764,0.0028399
-0.015684,-0.0062639,0.0072295,-0.0004448,0.00025119,-0.011509,-0.0095726,0.0024522
0.0003946,0.0019967,0.00011789,-0.0084015,-0.0077541,0.012389,-0.010267,-0.013257
0.0003116,0.01745,0.0082816,0.0068713,0.0072979,-0.0037282,0.004414,0.0025962
-0.00021068,0.0088711,0.00050189,0.0063878,-0.0013694,0.0027503,0.01125,0.0031116
0.022417,0.0076219,0.015909,-0.0019675,-0.01015,0.0007929,0.010457,0.0038551
-0.0097656,-0.032997,-0.02353,0.0052963,0.0046026,-0.0014985,0.0022026,0.0047351
-0.0028632,-0.011207,-0.0083349,-0.0030423,0.0040325,-0.01162,-0.0056208,-0.0021765
0.011975,0.018524,0.014722,-0.011353,0.003926,0.0019743,-0.0052216,-0.0091939
-0.012078,0.0016977,-0.016774,0.0037887,-0.0034515,0.01608,0.0032904,-0.00081229
-0.012519,0.0087527,0.0065998,0.0033022,0.0053104,-0.00041248,-0.0036909,0.0072468
0.010622,0.00066662,0.0067136,0.0027951,-0.001172,0.007217,0.0048971,-0.00069893
0.0026087,0.00083064,0.0069462,0.0022594,0.00031876,-0.007972,-0.0023606,0.0065922
0.0024529,-0.0064942,0.015009,-0.013923,-0.0061115,-0.014871,-0.002137,-0.0098972
0.0023037,0.0097968,-0.0004625,0.0089613,0.010518,0.0019609,-0.010094,-0.003197
-0.0056681,-0.0051172,-0.016115,0.0084551,-0.012514,0.0032713,0.0050545,0.0033892
-0.0058253,-0.02007,-0.016345,-0.0075703,0.0027923,0.012329,0.0043436,0.0022028
0.0018728,0.011802,-0.0088992,1.5702e-05,0.0017422,-0.0022394,0.0035291,-0.006605
0.017489,-0.003195,-0.0014513,-0.0077828,8.3076e-05,-0.0092542,0.0027473,0.0083396
-0.021403,-0.010271,0.013988,-0.0074763,-0.0019489,-0.00091634,-0.0056979,-0.0075735
0.0024446,0.014116,0.014136,0.024395,0.0037743,0.0071838,0.0017105,0.015988
-0.0046838,0.0075299,0.0068847,-0.0059385,-0.013653,-0.008325,0.0015719,0.00086192
0.011884,-0.0066072,-0.0078011,-0.0047983,0.00076999,-0.0083029,0.0016968,-0.013971
0.0052011,0.018474,0.0089864,-0.0035519,0.0082094,0.015129,-0.0057581,0.002632
-0.0014224,-0.011164,-0.013308,0.0054614,0.016574,0.0073232,0.0025975,-0.011941
-0.00033848,-0.001997,0.003164,0.0064536,-0.0054409,0.0073486,-0.0045394,0.012525
-0.0073441,-0.0089326,0.0034754,-0.00072061,-0.00335,-0.0082537,-0.0037846,0.0056427
0.0086685,0.0069352,-0.0047064,-0.0083477,-0.0087175,-0.0082689,-0.0030029,-0.0091977
-0.0070662,-0.0013235,-0.021393,-0.00083223,0.0015214,-0.016167,0.021189,-0.00077105
0.0001496,-0.01802,0.00041748,-0.0015606,0.011373,0.0070927,-0.0093898,-0.00033491
-0.00083039,0.019516,0.014087,-0.0025939,-0.010717,-0.00099507,0.0067632,0.0077383
-0.0098248,-0.013472,0.0042816,0.0040606,-0.0024396,0.014256,-0.0085293,0.0078324
-0.0031729,0.0082776,0.010345,-0.004834,-0.0029127,0.0059683,-0.00061552,-0.0078518
0.01153,-0.00094638,-0.01439,0.0099674,0.0035751,-0.0024338,-0.00075341,-0.0080449
0.0031955,0.013687,0.008302,0.0017195,0.0016035,0.0046607,-0.0011046,-0.0083448
0.010955,-0.002474,0.0080869,0.0017268,-0.00073051,-0.011813,0.0062012,0.014719
0.0035182,-0.002623,-0.0073475,-0.0056629,0.0047014,-0.004954,-0.017819,-0.0013175
-0.011438,-0.0025319,-0.0069381,-0.0049222,0.0025713,-0.0059421,0.012858,0.0060766
-0.0028626,-0.0023797,0.0013036,0.011617,-0.0068844,0.0087708,-0.0032578,-0.009953
0.0055959,0.021111,0.0015915,0.0047352,-8.1764e-05,0.00026061,0.019817,0.0052879
-0.025302,-0.033719,-0.0061622,-0.017898,-0.00041557,-8.4105e-05,-0.0038399,-0.002896
0.013714,-0.0028219,0.0014817,-0.009509,-0.000131,-0.007782,-0.011742,-0.0032724
0.0054399,-0.0033136,-0.0066434,0.0064165,0.016257,0.016275,-0.003916,-0.0036747
0.0046331,0.019617,0.016477,0.014255,-0.0061308,0.0095511,0.0039838,0.01932
-0.0041947,-0.0042087,-0.014941,-0.0015763,-0.012814,-0.012443,-0.011499,0.0032117
0.0025678,0.019055,0.01642,0.0058591,0.0038343,-0.01083,0.0043147,-0.012909
-0.013963,-0.012133,-0.006558,-0.010244,-0.0031963,-0.0014583,0.012361,-0.0055497
0.0088642,-0.0040823,-0.0057645,-0.0029469,-0.0027262,0.007627,0.0048213,-0.013692
0.0086523,0.0040091,0.010892,-0.0034493,0.013052,0.00059607,-0.010507,0.0018174
0.0010624,-0.0036548,-0.0036248,0.011721,-0.010505,0.008553,0.0054097,0.017613
-0.0061249,0.011826,0.0051749,-0.0042959,-0.0030084,0.00018672,-0.0021576,0.010287
-0.013002,-0.012155,-0.0097728,-0.0046234,0.012182,-0.0088374,-0.0098168,-0.0045704
0.019356,0.010322,0.0060786,0.010727,0.0038817,-0.0027478,0.0058258,-0.003625
-0.010772,-0.030029,-0.0098301,-0.0051371,-0.0044326,0.0030707,-0.0021418,-0.010473
-0.0019852,-0.00022018,0.0050397,0.0024587,-0.0049333,-0.0067037,-0.0024967,0.013762
0.0065172,0.014044,-0.0038664,-0.0055525,0.0023782,-0.0083148,0.0047465,-0.0092203
-0.0009871,0.0051815,-0.0050949,-0.0057233,-0.0059398,0.0063272,0.019589,0.006389
0.0067113,0.012432,0.0094015,0.0019693,0.0013689,0.013965,-0.0048188,-0.0097773
-0.0016128,-0.0031826,0.00078096,0.0097428,0.0087052,-0.00098293,-0.013734,0.0048136
-0.010243,0.013001,0.00045666,0.0020009,-0.0073207,0.0082494,-0.014876,-0.0044087
-0.0034058,-0.02507,0.00069233,-0.005614,0.00023252,0.0023567,-0.00030761,-0.0060131
0.0034595,-0.00038146,0.0014659,-0.00529,0.0080023,-0.01118,0.014489,0.0080272
0.0027315,0.0087572,0.010479,0.0029507,-0.015192,-0.0092754,0.0062139,0.014486
-0.0054286,-0.021247,-0.011502,-0.0043731,0.0088227,-5.0602e-05,-0.001595,-0.0020865
0.010327,0.011067,-0.0021753,0.011742,-0.0058813,-0.0071474,0.0067322,-0.010323
-0.0046771,0.0041032,-0.0085975,0.0043535,0.0031577,0.016241,-0.015703,-0.0023644
0.019791,0.01257,0.0003419,-0.0031617,0.012411,0.007691,0.001323,-0.0094841
-0.01799,-0.010346,0.0089374,-0.010847,-0.0016938,-0.016975,0.010796,0.015109
-0.0010383,-0.0020623,-0.0062693,-0.010905,-0.0080707,-0.0027847,-0.0030776,0.0087842
0.00011801,-0.0015629,0.0094363,0.012307,0.00092917,0.0036992,-0.001403,-0.0051775
-0.0068904,0.0068393,0.0014252,0.0041454,-0.0060812,0.0027652,-0.0077654,-0.011314
0.016881,-0.00026136,0.0010205,0.0037345,0.009875,0.010248,0.0011644,-0.0019613
-0.014541,-0.0072452,-0.0073285,-0.0044851,-0.013723,-0.0050072,0.0018874,0.0071388
0.0004519,-0.0063443,-0.0079287,0.002983,0.0091095,-0.003975,0.0022011,0.00028445
-0.0083401,0.010173,0.0070905,-0.0050666,0.00034964,-0.0024414,0.0021278,0.0008792
0.021735,0.010947,0.0065261,0.0026439,-0.00080039,0.0071512,0.0017164,0.0011157
-0.010726,-0.011957,-0.0017723,-0.0051254,-0.0020016,0.0010627,-0.0067821,0.0010299
0.0037879,0.0038429,0.0056628,0.0028687,0.004698,0.0024377,0.0001399,-0.0071337
-0.0049394,-0.0042399,-0.018018,-0.0046467,-0.0040319,-0.0045765,0.0069302,-0.0076834
0.010013,-0.0049926,0.013145,0.0035416,0.0031225,0.0033407,0.0058513,0.0072606
0.0017754,0.01724,-0.010204,0.011761,0.0027405,-0.012856,-0.0030184,0.014322
0.0015756,6.1766e-05,0.0056935,-0.0034784,0.00261,-0.0061417,-0.011784,0.0057417
-0.014052,-0.03292,-0.0016689,-0.0031606,-0.005135,-0.0075202,-0.012549,-0.010616
-0.0060634,0.01226,-0.0010737,-0.010756,-0.01275,0.014549,0.010385,-0.011256
-0.005717,0.010833,0.015231,0.0049725,0.003131,0.013459,0.018005,-0.0039226
0.010421,0.0020677,-0.0075295,-0.0028393,0.011198,0.0050198,-0.0053029,0.0036492
0.0032709,0.0017343,-0.006959,0.0048962,0.0035896,-0.0028889,-0.0048929,0.0037241
0.0040304,-0.0057312,-0.0066002,0.0047725,-0.0040988,-0.0025133,-0.0042945,0.0041706
0.012607,0.0030729,0.016897,-0.0031856,-0.0040655,-0.0096397,-0.003641,0.005002
-0.0023762,0.012396,-0.006834,-0.011155,0.0037006,-0.0010502,0.020352,-0.0094528
-0.0098067,-0.024832,0.00032939,0.019922,-0.0042052,0.0074048,-0.0027716,-0.00024338
-0.0097959,0.00052761,0.0071884,-0.0037201,-0.0042945,-0.0078948,-0.010619,0.0012109
0.01323,0.010108,-0.0095887,-0.0039703,0.011307,0.0076316,-0.011045,0.01033
-0.011007,0.0036885,-0.0029804,0.0035479,-0.0042146,-0.0085336,0.011612,0.0034675
-0.0042642,0.0045343,-0.011885,-0.012387,-0.00394,-0.0094505,0.0027806,-0.011734
0.0023976,-0.010897,0.010725,0.0029716,-0.0034792,0.0050038,-0.0061143,0.0036884
-0.0064317,-0.011379,0.0024551,-0.0049802,0.0049546,0.01154,0.00075812,-0.012765
0.016318,0.018768,0.018029,0.0029093,0.0056651,0.010299,-0.0076576,0.0015111
0.0082775,0.0015522,-0.0050963,0.011087,-0.0014594,0.0013923,0.0078435,-0.00016682
-0.007082,-0.0081469,-0.0045309,-0.0038559,-0.00093048,-0.0072928,0.0082564,0.0058837
0.0014223,0.0055241,0.0039506,0.00493,0.0071158,-0.0079002,0.0013488,-0.0035268
-0.0054238,-0.019699,-0.018864,-0.0017053,-0.0086759,-0.008218,-0.0052108,0.003054
0.0034311,0.010147,0.005035,-0.0082725,-0.0014761,0.0073947,0.0039838,0.017933
0.0043503,0.0092805,0.0052818,0.0085029,-0.0024998,-0.0079286,-0.0025698,-0.0057457
-0.010634,0.0090322,-0.010301,-0.0062288,0.0039997,0.0083046,-0.0094844,-0.0055588
-0.010354,-0.014048,0.00522,0.0020849,-0.0052192,-0.0064434,0.0065012,-0.012903
0.0051972,-0.0053761,0.0050532,-0.0057044,0.0013346,0.010247,-0.0015692,0.0032915
0.0048503,0.003621,-0.0029185,-0.0061843,0.0082805,0.0035612,0.0053969,0.0037879
-0.003451,0.0049058,-0.0030369,0.016309,-0.0076185,0.012405,-0.011527,0.0040752
0.0195,0.0060543,0.012492,0.0071828,-0.0071872,-0.0024445,0.0025603,0.0040774
-0.0042963,-0.00095606,0.012357,-0.0099841,0.0017556,-0.017673,-0.0067736,-0.0040251
-0.012261,-0.0084608,-0.01134,-0.003773,0.019074,-0.0098921,0.0075906,-0.012363
-0.0043724,-0.00089479,-0.011792,-0.0052569,0.0054545,-0.0024935,0.014594,0.0026036
0.019337,0.0061554,0.0031701,0.0013521,-0.0081801,0.012475,-0.0012859,0.0019365
-0.011526,-0.018433,0.0023505,0.00055248,0.0012652,0.0039697,-0.0009804,0.0013746
-0.0033226,-0.0041577,-0.021935,0.00021964,-0.013376,-0.012161,-0.0080144,0.0088086
-0.0030505,0.017938,0.00080191,0.0081535,-0.0054077,0.011145,-0.0069173,0.00082883
-0.0030181,0.0089738,0.016054,0.0086407,0.001699,0.0036809,-0.0056902,0.0086633
0.012299,0.0081337,0.0083289,-0.00628,0.0080655,-0.0033141,0.018915,-0.0068065
0.0037716,-0.0079781,0.016729,0.002276,-0.0094982,0.0056572,-0.0035758,-0.0065826
0.010446,-0.015957,-0.013502,-0.012735,0.0040181,-0.00087946,-0.0029621,-0.014151
-0.014507,0.0075476,-0.0044151,0.0032534,0.0098849,0.000238,-0.0027317,0.00172
-0.00065458,0.0077421,-0.010938,-0.0044955,0.00056975,-0.0068851,0.0049435,0.0019811
-0.025932,-0.023283,-0.0020808,-0.0046999,-0.0081235,0.00098186,-0.011108,0.0022846
0.02709,0.023786,0.014121,0.010552,0.0072943,-0.0075099,0.011741,0.018276
-0.013203,-0.015129,-0.0015363,-0.0054736,-0.00012538,-0.0010783,0.0033397,-0.0047394
0.0018547,0.00062685,0.0056064,0.0098663,0.00069503,0.0048126,-0.0048925,-0.0042991
0.0099195,0.00080637,-0.019045,0.0020005,0.0017163,0.0026128,0.0028212,0.0039103
0.011036,0.016745,0.0028349,-0.0055698,-0.0051026,0.00045592,-0.0046633,-0.0036086
-0.0026851,-0.013968,0.0012131,0.0027832,-0.0043177,-0.0013306,-0.011691,0.0043652
-0.00018263,0.010315,-0.00016717,-0.0042423,-0.0038405,0.00535,-0.0027071,-0.0033918
-0.0051565,0.0037288,0.0067861,0.0045139,0.0041375,0.012885,0.0064728,-0.0033525
-0.017898,-0.01023,0.014464,-0.0023035,-0.0037408,-0.0098887,0.0077288,-0.018816
0.0081972,0.0075391,-0.0082945,-0.0091684,-0.0039038,-0.016137,0.0084771,0.0050477
0.0025985,-0.036711,-0.01465,0.0072808,0.011607,0.0017782,0.00048361,0.013642
0.0042253,0.013215,-0.012574,-0.0076883,0.0038429,-0.011133,-0.0009765,-0.0086873
-0.01824,-0.014695,0.021124,0.0084115,0.004108,0.0072122,0.011749,0.00035617
0.013328,0.035567,0.00021354,0.00090713,-0.011057,0.0016312,0.015368,0.0013205
0.013043,0.030845,0.041602,0.0088954,0.0051384,0.018482,0.033845,0.024913
0.0044407,-0.013641,-0.0033523,0.001175,0.0056943,0.0026339,-0.095968,0.00021866
0.0032842,-0.020158,-0.064415,-0.022196,-0.017324,0.00071256,-0.03693,-0.0029655
