-0.017124,0.057181,0.090252,-0.020027,-0.011852,-0.009211,-0.012339,-0.25175
-0.030732,-0.066066,-0.055528,-0.011305,-0.004214,-0.024381,-0.19965,-0.040235
-0.0030507,0.030616,-0.16145,0.0056496,-0.012243,-0.007767,0.22996,0.087568
0.018787,0.11353,0.13954,0.022955,0.01102,0.017021,-0.19233,0.030699
-0.0047708,-0.29324,-0.19959,-0.037626,-0.012428,-0.020524,0.0022636,0.52988
0.074025,0.3108,0.18039,0.034704,0.026929,0.043495,0.079486,0.15223
-0.13628,-0.36325,-0.05667,-0.010211,-0.019205,-0.048831,-0.14808,-0.7079
0.17593,0.32494,0.22171,0.007168,0.0055265,0.03062,0.33514,-0.10134
-0.076103,-0.10209,-0.21149,-0.022668,-0.00039687,-0.030574,-0.20545,0.11758
-0.088367,-0.028643,-0.044368,-0.0060798,-0.0057793,0.017724,0.20637,-0.10679
0.060573,0.13704,0.019303,-0.013473,-0.018603,-0.019661,-0.26569,0.046803
-0.051342,-0.029097,0.057029,0.041009,0.023341,0.044856,0.010977,0.14334
0.0056239,-0.068091,0.08396,0.008855,0.0024743,-0.030937,0.059919,0.23282
-0.065174,0.26873,-0.095438,-0.01624,0.012097,-0.012834,-0.071537,-0.62723
0.27569,-0.55019,0.034591,0.020395,0.012713,0.028533,0.093927,0.53358
0.083402,0.31203,-0.041032,0.0016388,0.019621,0.030234,0.12754,0.34017
-0.30548,-0.15813,-0.055714,-0.041083,-0.068872,-0.055087,-0.24328,-0.85013
-0.10105,0.0032456,0.023111,0.025346,0.020796,0.045574,-0.080397,0.052816
0.18211,0.21355,0.11883,-0.064295,-0.054733,-0.043074,0.24917,1.0601
-0.10327,-0.25856,-0.071732,-0.0048729,-0.005785,-0.039834,-0.098651,-0.44987
-0.026339,0.40943,-0.17232,0.063376,0.074609,0.086786,0.12534,-0.53512
0.17166,-0.023689,0.31006,0.062568,0.046528,0.0013954,0.09973,0.21712
-0.11811,-0.69111,-0.13997,-0.04633,-0.04259,-0.029554,-0.12189,-0.38732
0.088777,0.47592,-0.093159,-0.076013,-0.043962,-0.044109,-0.2434,0.24885
0.40911,0.43595,0.18388,0.11377,0.081571,0.075997,0.2194,0.59186
-0.36875,-0.32146,0.064725,0.022583,-0.041118,-0.066706,-0.17049,-0.79759
-0.30028,-0.0017613,-0.24912,-0.10001,-0.029529,-0.0027979,-0.0057252,0.57819
-0.22219,-0.51271,0.014216,-0.058986,-0.048169,-0.044594,0.090007,-0.1206
0.38043,0.26244,0.056551,0.020499,0.035235,0.041855,0.047538,-0.44709
0.17079,0.33206,-0.013637,0.036872,0.009141,0.028918,0.00023569,0.44914
-0.031884,-0.5761,0.20948,0.068315,0.076035,0.1025,0.16656,0.017549
0.20849,0.27363,-0.29753,-0.033569,-0.0068927,0.22165,-0.2281,0.19023
-0.21123,0.24146,0.082946,-0.010992,-0.013604,-0.37321,0.095666,-0.20292
-0.16746,-0.26624,-0.062474,-0.0203,-0.069419,-0.04273,0.041961,0.55158
0.24522,0.98427,0.31396,0.11808,0.052212,-0.013949,-0.13333,-0.97137
-0.3715,-0.64855,-0.17741,-0.080251,-0.023358,0.0261,0.04507,-0.20955
0.13987,-0.46226,0.12845,-0.044858,-0.05323,0.078706,0.045632,0.16803
0.11754,-0.23014,-0.4238,-0.048814,0.026076,-0.0027496,-0.25584,0.33087
0.033155,0.43969,0.096282,0.049086,0.043775,0.03367,0.19712,0.29371
-0.094666,0.29157,0.14231,0.0073641,0.00087576,0.017748,0.071029,-0.16307
-0.1541,-0.5783,0.1128,0.022028,-0.023761,-0.018181,-0.16274,-0.13539
-0.026634,-0.0040348,0.10895,0.023282,0.040503,0.027799,0.29502,0.12229
0.28759,0.3663,-0.17475,-0.019926,0.0060128,0.0068979,-0.33527,-0.030081
0.16969,0.6326,-0.044077,-0.029668,-0.08878,-0.17555,0.13454,0.3116
0.054244,-0.52926,-0.054867,0.063779,0.075463,0.088561,0.11034,-0.083669
-0.08568,-0.35912,0.026291,-0.021739,-0.01025,0.047909,-0.088862,-0.91722
-0.40179,0.34777,0.097236,-0.0373,-0.0033651,0.052882,-0.0040599,0.11661
0.11147,-0.16428,-0.045319,0.055075,0.040404,-0.030142,0.12037,0.70622
-0.29665,-0.23524,-0.057361,-0.065856,-0.051509,-0.006163,-0.116,-0.21723
0.30437,0.67258,0.038256,-0.056982,-0.084049,-0.14059,-0.11309,0.67715
0.096269,-0.29062,-0.01552,0.089239,0.083621,0.043825,0.058076,-0.04338
0.034842,-0.24485,0.063351,0.060429,0.0068109,-0.022257,-0.047761,-0.86352
-0.18201,-0.049677,-0.013489,-0.0726,-0.016683,0.1075,0.0075499,-0.12415
0.17423,-0.023946,0.043575,0.058159,0.06889,0.058925,0.13123,0.32144
0.2999,0.2793,0.016193,-0.054044,-0.05574,-0.026922,0.050791,-0.33842
-0.15642,-0.24125,0.037451,-0.0017673,0.0009353,-0.048516,-0.061198,0.39837
-0.23429,-0.010063,-0.37686,-0.096333,-0.033909,-0.014137,-0.048208,0.13501
-0.26265,0.28672,0.10141,0.053882,0.011874,-0.002682,0.027147,-0.23839
0.08583,0.44317,0.1674,0.058905,0.0053785,-0.030661,0.055107,0.59436
-0.056752,-0.61748,0.0081507,-0.018579,0.024293,0.018304,-0.20698,-1.0784
0.43396,0.38493,0.24787,0.13361,0.060106,0.12802,0.20147,0.87114
0.05731,-0.21547,-0.34105,-0.09466,-0.059891,-0.14706,-0.086823,0.098313
-0.078056,-0.37243,0.091893,-0.001249,0.038498,0.060448,-0.024715,-0.48578
0.097543,0.46296,0.1162,-0.016854,-0.082835,-0.10049,0.083716,0.64682
-0.22871,-0.49264,-0.17463,-0.048517,0.036758,0.097529,0.075299,-0.48994
-0.29879,0.14534,0.05584,-0.034175,-0.032342,0.022643,-0.1505,-0.42583
-0.0024776,-0.11031,-0.12865,-0.028583,-0.071001,-0.12893,-0.14738,0.008811
0.17716,0.19271,0.070528,0.12471,0.14791,0.12786,0.21039,0.12062
0.061801,0.31971,-0.22758,-0.050559,-0.070366,-0.097306,-0.15503,0.094637
0.5431,0.31631,0.36912,0.031712,0.032388,0.11732,0.28733,0.83675
-0.56619,-0.96154,-0.20911,0.051142,0.04222,-0.0022267,-0.064957,-0.70759
0.11609,0.59711,0.6622,0.046448,0.013618,0.019817,-0.041287,-0.51569
-0.27877,-0.50141,-0.73736,-0.13916,-0.085112,-0.12995,-0.041526,0.48007
0.17683,0.223,0.26946,0.040616,0.050161,0.10236,0.12839,0.4152
0.31649,0.17013,-0.24191,-0.023982,-0.057643,-0.11974,-0.23544,0.016664
-0.22123,0.12913,0.36683,0.026354,0.013011,0.00039829,-0.14102,-0.0058479
-0.070584,0.22495,-0.077628,-0.042412,-0.0035956,0.06441,0.13079,-0.59955
0.049209,-0.5023,-0.34115,-0.049882,-0.052622,-0.068086,0.065115,0.14032
-0.11898,-0.11192,-0.00086769,0.067389,0.092834,0.12663,0.14714,0.08845
0.0047371,-0.23054,0.12486,0.044764,0.011328,0.00031498,0.11188,-0.2306
0.15736,0.46366,0.26498,0.031504,0.023593,0.053055,-0.12627,0.068233
-0.18936,-0.17328,-0.35953,-0.057834,-0.010656,-0.019855,-0.14535,-0.14537
0.084706,0.2637,0.29975,-0.05129,-0.12245,-0.17936,-0.031323,0.17721
0.20847,0.087173,-0.17853,0.066438,0.071105,0.035545,0.075241,0.45004
-0.13693,-0.40576,0.23642,-0.025605,-0.04722,-0.038972,-0.020715,0.10064
0.041092,0.30783,0.10587,0.070213,0.061477,0.058345,0.02503,-0.29709
-0.18775,-0.46161,-0.32153,-0.10002,-0.0014959,0.070021,-0.036935,0.19672
0.29234,0.21151,-0.10929,0.049075,0.03701,0.050998,0.082998,-0.13436
-0.33299,0.46138,0.18002,0.056352,0.043936,-0.0064268,-0.044549,-0.80241
0.19987,-0.13481,0.0083961,-0.038877,-0.066764,-0.078844,0.0022191,0.71392
-0.0015681,-0.21281,-0.2315,-0.064063,0.0018991,0.052398,-0.0038104,-0.43655
-0.19667,-0.26145,-0.021449,-0.13544,-0.16379,-0.14403,-0.0011469,0.51438
0.30095,0.29985,0.21911,0.12296,0.061705,0.034987,0.055732,-0.39037
-0.025008,0.17639,0.046393,0.032179,0.069544,0.073906,0.032516,0.13447
-0.29206,-0.52789,0.061998,0.076745,0.00071796,-0.074048,-0.11125,0.49035
-0.031543,-0.0053719,-0.13427,-0.017315,0.066169,0.12242,0.0062234,-0.43096
0.28778,0.55244,0.27449,0.030031,-0.015791,-0.063337,0.0016545,0.049156
-0.17786,-0.2011,-0.3569,-0.040706,-0.011618,-0.022183,-0.08567,-0.28343
0.3215,0.35749,0.20111,0.034343,0.069837,0.15959,0.26859,0.41821
0.043723,0.056462,-0.14943,-0.058731,-0.077082,-0.11996,-0.098138,0.047391
-0.18269,-0.68814,0.19035,-0.03936,-0.046747,-0.017349,-0.1059,0.42786
-0.30213,-0.33344,-0.17856,-0.086962,-0.065792,-0.071737,-0.11996,-0.75545
0.046404,0.46173,0.058098,0.08874,0.022575,-0.025184,0.064491,-0.21338
-0.033291,-0.085857,-0.28336,-0.049371,-0.0071574,-0.0023998,0.042338,-0.39606
0.25037,0.20895,0.10695,0.055668,0.096334,0.15321,0.18896,0.8895
0.1263,0.20174,0.1799,0.11693,0.084345,0.10598,0.074222,-0.0059018
-0.16951,-0.011803,-0.020648,-0.10618,-0.12808,-0.1205,-0.092041,-0.012464
-0.15995,-0.04923,-0.069772,0.051105,0.068925,0.012835,-0.116,-0.28798
0.32605,0.18092,0.15818,-0.020853,-0.059135,-0.14254,-0.1007,0.51556
-0.21356,-0.52795,0.1301,-0.026344,0.002715,0.038266,-0.031657,-0.35794
0.05413,0.21104,-0.09545,0.017179,0.011216,0.016118,0.04361,-0.40158
0.078693,-0.26943,0.0076865,0.021629,-0.019309,0.0018835,0.046826,0.67059
-0.15114,-0.12011,-0.27653,-0.038508,0.0035704,-0.0045292,0.032878,-0.32573
0.1509,0.1734,0.17297,0.014803,0.063104,0.15298,0.174,0.44794
-0.12617,0.74355,0.10436,-0.01469,-0.028955,-0.033614,-0.09195,-0.70866
0.064426,-0.50313,-0.27848,-0.03332,-0.0072148,-0.02544,-0.014633,0.58348
-0.072697,0.082494,-0.15204,0.014385,-0.0432,-0.10384,-0.070281,-0.29497
-0.011244,0.0092956,0.20743,0.036184,0.01244,-0.018694,-0.063151,-0.46923
0.041613,-0.30722,0.14166,0.026246,0.036059,0.050655,0.077647,0.38242
-0.12887,0.23635,0.070024,-0.099242,-0.080129,-0.028059,-0.07688,0.22344
0.12141,-0.31883,-0.16004,0.052258,0.071679,0.089513,0.028651,0.064564
0.060376,0.25584,-0.09416,0.029004,-0.022908,-0.088335,0.074426,-0.083868
-0.053598,-0.10842,0.13328,-0.043393,-0.019477,0.024534,-0.0019479,0.13135
0.028192,0.049839,0.15092,-0.016784,0.0037772,0.037301,-0.036834,-0.51591
0.1387,0.20626,0.12465,0.13892,0.13196,0.066548,0.023465,0.161
-0.093356,-0.055645,0.094583,-0.054715,-0.050484,-0.052704,0.01343,0.17576
0.19479,-0.044269,-0.46884,-0.0062224,0.0014388,-0.0011986,0.12667,0.064593
-0.28977,0.017232,-0.21061,-0.06168,-0.09704,-0.092399,-0.20876,0.12894
-0.088565,0.22616,0.14874,0.019106,0.035226,0.087098,0.052708,-0.51724
-0.092906,-0.42854,-0.030426,-0.046463,-0.040347,-0.0801,-0.10521,0.14686
0.057787,0.020443,0.14587,0.045791,0.043105,0.023491,0.075382,0.42433
0.12403,-0.043275,0.17469,0.0071787,0.0048015,0.039245,0.11092,-0.18492
0.093738,0.12552,-0.071428,-0.012694,-0.021293,0.0072855,-0.075274,-0.13246
0.17367,0.27384,-0.072099,0.050423,0.052375,0.022547,0.018612,0.21772
-0.32065,-0.51433,-0.0035638,-0.067046,-0.038021,-0.023233,-0.11331,-0.55179
0.12053,0.46217,0.24526,0.043186,0.0060697,-0.051077,0.12448,0.0094511
-0.033388,-0.36993,-0.29443,-0.10154,-0.10313,-0.099585,-0.063587,0.39846
-0.04857,0.086067,0.063347,0.0937,0.13506,0.20623,0.073214,-0.076453
0.081285,0.088414,-0.066704,0.0043324,0.0097211,-0.016913,-0.043235,0.13317
0.17443,0.10363,0.14856,0.051925,0.043627,0.042613,0.039524,-0.035989
-0.28693,-0.021315,-0.058998,-0.006672,-0.022178,-0.038131,-0.023475,0.36608
-0.031208,0.13715,-0.0036029,-0.10254,-0.1422,-0.16646,-0.054087,-0.58721
0.096632,0.033487,-0.037426,0.044068,0.049421,0.063058,0.078896,0.37228
0.041466,-0.1034,0.035447,0.080272,0.04389,-0.0062888,-0.024355,-0.21324
0.045809,-0.12053,0.021361,0.020862,0.075118,0.1177,-0.013234,-0.17498
-0.28785,-0.47918,-0.35078,-0.22811,-0.1302,-0.0020369,0.0025149,-0.17786
0.323,0.40927,0.39808,0.021272,-0.032303,-0.075664,-0.00029382,0.3889
-0.16721,-0.32512,-0.15972,0.066802,0.057356,-0.0241,-0.098985,-0.20578
0.11757,0.2379,0.15657,-0.043561,-0.055351,-0.041696,0.074792,0.43309
-0.048553,0.18229,0.034228,0.14424,0.099338,0.083261,0.014496,-0.22125
0.11584,0.48867,0.049796,0.060372,0.037643,0.03869,0.064986,-0.047775
-0.12387,-0.45876,-0.19784,-0.068727,-0.037296,-0.050459,-0.10114,-0.16123
-0.072939,-0.10691,-0.10261,-0.025031,-0.0088723,0.010575,0.070988,-0.084276
-0.013329,-0.10054,0.082083,-0.067498,-0.02659,0.025502,0.010712,0.54154
0.12454,0.23425,0.369,0.036955,0.017596,-0.014726,0.014106,-0.02044
-0.042779,-0.06186,-0.57971,-0.040939,-0.0026334,0.029248,-0.013642,0.039183
-0.0079963,0.044874,0.30561,0.049651,-0.0023739,-0.015495,-0.097065,-0.47809
0.11917,0.051114,0.002239,0.027321,-0.021216,-0.1105,-0.073019,-0.14519
-0.15362,-0.2,-0.18319,0.017557,0.050321,0.080122,0.15948,0.0049555
0.04082,0.0048219,0.29909,-0.095752,-0.076074,-0.021183,0.029945,0.37016
-0.086382,-0.29036,-0.21942,0.040463,0.054014,0.039766,-0.039471,0.12245
0.15259,0.35869,0.061537,-0.064293,-0.073424,-0.063777,0.014386,-0.2377
-0.1403,-0.26733,-0.14424,0.029065,0.051082,0.083699,-0.049706,-0.21772
0.24635,0.43954,0.094834,0.056085,0.022678,-0.055596,-0.027466,0.6511
-0.18702,-0.1023,0.091928,-0.060832,-0.095268,-0.058896,-0.027076,-0.35834
0.12251,0.085211,0.21358,0.15464,0.16617,0.17573,0.10096,0.24523
-0.27003,-0.054097,-0.30765,-0.087523,-0.076392,-0.1097,-0.064479,-0.4923
0.065211,-0.032147,0.11944,0.10182,0.15245,0.14668,0.11755,-0.15761
0.089125,0.082704,0.046687,-0.14619,-0.17229,-0.16548,-0.032805,0.65533
-0.0033622,-0.40356,-0.38782,-0.0049654,-0.013133,-0.0081556,-0.086508,-0.21713
0.11514,0.081105,0.24375,-0.014636,-0.027682,-0.015166,-0.021131,-0.10995
-0.025097,0.11008,0.003046,-0.019382,0.0019423,0.023634,0.083968,-0.12323
0.012367,0.19615,0.069918,0.035704,0.059802,0.060817,-0.030302,0.072867
0.0079748,0.23709,0.19547,0.041986,-0.033583,-0.083633,0.048966,0.19884
-0.23386,-0.79697,-0.41538,-0.030769,0.058304,0.12136,-0.030677,0.17826
0.21702,0.55794,0.22394,0.021588,-0.070026,-0.10551,-0.043178,0.075173
-0.20848,-0.45967,-0.14998,0.01234,0.058731,0.071682,-0.0042458,-0.96051
-0.071076,0.17805,0.050672,-0.011247,-0.0001582,-0.018877,0.016138,0.51792
0.14684,0.14693,-0.0089057,0.021086,-0.011976,-0.0098314,-0.0047935,0.24621
0.095434,0.26238,0.093332,-0.0082818,0.023385,0.02883,0.043223,-0.126
0.17424,0.0181,0.090845,-0.0062698,-0.019132,-0.058614,-0.010718,0.16786
-0.085261,-0.054441,-0.04169,-0.0048371,0.00098422,0.033263,0.06087,-0.24676
-0.019659,-0.39353,-0.025564,-0.051417,-0.080391,-0.10088,-0.13187,0.01276
-0.27872,-0.10986,-0.15256,0.056853,0.072747,0.094628,0.04444,-0.17182
0.018628,0.084177,0.059313,-0.0080498,0.023122,0.034756,0.019764,0.05685
0.12838,0.2341,0.13193,-0.011307,-0.025792,-0.045428,-0.041819,0.12534
0.0019555,-0.20823,-0.075781,-0.09286,-0.089222,-0.0049479,0.031312,0.12331
0.075498,0.50596,-0.078645,0.044931,0.051926,0.023322,0.051185,0.14756
0.12152,-0.21059,0.023676,0.14493,0.10097,0.038909,0.056244,0.044789
-0.13379,-0.10929,0.046333,-0.019,0.010996,-0.005884,-0.10261,-0.15787
-0.03393,0.011532,-0.11716,-0.040487,-0.077637,-0.11992,-0.066612,-0.31462
-0.14053,-0.55264,-0.01897,-0.044751,-0.032603,0.031584,-0.05499,0.019314
-0.014735,0.44698,0.13158,-0.055727,0.012667,0.11942,0.14287,-0.3184
0.14193,0.14222,-0.024587,0.0040147,-0.02844,-0.083909,0.01116,0.52752
0.096591,0.45434,0.37083,0.11805,0.085616,-0.0087452,0.01075,0.038709
-0.1419,-0.42929,-0.34067,-0.050389,-0.020719,0.039877,0.0088521,0.37691
0.051778,-0.1018,-0.021386,-0.0020493,-0.011919,-0.0318,-0.04129,-0.36685
-0.010373,-0.35848,-0.025728,0.012485,0.0024238,0.026526,-0.030062,-0.36828
0.068851,0.24852,0.026999,-0.022715,-0.047996,-0.081459,-0.027399,-0.1172
0.12372,0.15228,0.17504,0.10336,0.1027,0.11372,0.068756,0.34785
-0.15996,-0.2528,-0.30744,-0.10094,-0.099704,-0.10592,-0.06135,0.1584
-0.095958,0.42762,-0.058888,-0.056542,0.0095409,0.057259,-0.026568,0.1867
0.010606,-0.068955,0.11921,0.058211,0.064048,0.049179,0.095367,-0.00055405
-0.0037669,0.0096585,0.089778,-0.03642,-0.021286,0.010925,0.054632,-0.078781
0.089039,0.17235,0.051233,0.0047455,-0.034759,-0.080646,-0.055088,-0.28495
-0.029011,-0.74506,-0.080365,0.010898,-0.0070445,-0.022258,-0.038752,-0.1981
-0.16003,-0.19696,-0.023333,-0.0019,0.023096,0.076758,0.017311,-0.23914
0.20617,0.57203,0.33048,0.04414,-0.085002,-0.15082,-0.082617,0.32101
-0.069312,0.3006,-0.30282,0.061969,0.16045,0.15427,0.083018,0.14966
0.25646,0.42972,0.15922,0.049884,0.016585,0.0074982,0.021857,0.39818
-0.19183,-0.49068,-0.33394,-0.1269,-0.048715,0.002387,-0.00047176,-0.072351
-0.056165,-0.44166,0.15213,-0.0014536,-0.028489,-0.025373,-0.038486,-0.45742
0.044215,0.04977,0.060739,-0.0282,-0.040589,-0.029151,0.0096703,0.20963
-0.2916,-0.47162,-0.0071075,-0.082629,-0.093165,-0.13416,-0.066591,-0.15297
0.29327,0.88436,0.027596,0.14816,0.14976,0.16722,0.076797,0.051776
0.16376,0.19694,-0.19244,-0.1003,-0.0067602,0.038884,0.0025333,0.069311
-0.064653,-0.37526,0.12469,0.033033,-0.038707,-0.097472,-0.015942,0.38811
-0.18989,-0.071239,0.075732,0.049922,0.054539,0.086051,0.068017,-0.38456
-0.040332,0.12047,-0.063279,-0.016897,-0.054645,-0.067056,-0.081976,-0.076793
-0.084277,-0.069864,-0.095391,-0.03372,-0.022247,-0.025808,-0.021227,-0.24888
0.23402,-0.49048,0.073517,0.069892,0.050125,0.037691,0.023009,0.20484
0.040974,0.47056,0.15341,0.035487,0.052756,0.060793,0.073503,-0.33544
-0.013425,-0.021357,0.17344,-0.044426,-0.038358,-0.042456,-0.034342,0.55748
-0.021443,0.35399,-0.30668,0.0082917,0.0026878,-0.053177,-0.043028,0.2786
-0.12239,-0.27217,-0.094484,-0.12037,-0.082522,0.0054753,0.00052686,-0.2631
0.044219,-0.074423,0.057728,0.091899,0.04936,0.0088963,-0.036242,-0.043415
0.17461,0.20952,0.0080781,0.011752,0.038846,0.082539,0.10498,-0.12593
-0.25393,-0.49386,0.14724,-0.063754,-0.09042,-0.11691,-0.059499,-0.20838
0.032569,0.42237,-0.1563,0.030281,0.076107,0.074943,0.017961,0.33896
0.02657,-0.25383,-0.18928,-0.087647,-0.078094,-0.044811,-0.044704,-0.065161
0.11086,0.22795,0.32458,0.091783,0.08052,0.070754,0.065651,-0.11082
-0.019639,-0.083469,-0.096296,0.062172,0.044808,0.0075095,-0.025503,0.18463
0.071791,0.3228,0.21445,0.043327,-0.036265,-0.05499,0.018045,-0.1795
-0.17848,-0.69805,-0.18714,-0.11266,-0.021749,0.02375,0.0088638,0.11737
-0.05312,0.16206,-0.11338,-0.015206,-0.052159,-0.084473,-0.084412,-0.12693
0.086949,-0.21957,0.020722,-0.0086516,-0.041659,-0.051541,-0.035483,-0.043879
0.0057739,0.31381,-0.044606,0.031018,0.11102,0.16165,0.17872,0.0083519
0.16286,0.72926,0.25051,0.032276,0.022622,0.016067,-0.051598,0.24926
-0.16946,-0.51607,0.075078,-0.0061118,-0.049603,-0.05079,-0.062809,0.11639
0.17232,0.30714,-0.018783,0.071052,0.096889,0.046935,0.066585,-0.32067
-0.12415,-0.26721,-0.20472,-0.088491,-0.09311,-0.065894,-0.054316,0.18678
-0.018823,-0.13355,-0.21767,-0.055283,-0.057464,-0.053501,-0.0116,-0.19873
-0.064598,-0.17605,0.19313,-0.0087585,0.00054538,0.0058175,-0.03968,-0.017656
-0.18881,-0.38527,-0.11095,-0.0029673,0.034085,0.06502,0.064601,0.12753
0.15798,0.047814,0.060294,0.02543,0.019899,0.014551,-0.019035,-0.13839
0.22019,0.54328,0.26445,0.092871,0.020711,-0.0051702,0.053145,0.16959
-0.094405,0.123,-0.12106,0.020253,0.044506,0.029061,0.023241,0.02941
0.11311,0.096683,-0.079115,-0.067191,-0.064905,-0.015808,0.062998,0.25559
-0.095366,-0.0016535,0.17973,-0.021151,-0.065401,-0.13999,-0.22614,-0.57913
0.028652,-0.1016,-0.14991,0.07986,0.11317,0.10166,0.077689,-0.12068
-0.016879,-0.11172,0.016392,-0.045899,-0.021551,0.0059505,-0.017618,0.4222
-0.21851,-0.30162,-0.041986,-0.031655,-0.0087646,0.010397,-0.0040327,-0.16005
-0.039123,0.23019,0.079352,-0.088546,-0.075037,-0.0098945,0.048402,0.20316
0.19165,-0.052114,-0.10543,0.10381,0.084481,0.062481,0.093071,0.14356
0.10564,0.18362,-0.034718,-0.0089359,-0.029874,-0.029946,-0.057322,-0.23182
-0.047632,-0.27612,-0.029054,-0.0044353,-0.011372,-0.060126,-0.051079,-0.1371
0.075517,0.27052,0.26341,0.070958,0.054598,0.042875,0.049396,0.14291
-0.20429,-0.18433,-0.14108,-0.094826,-0.10487,-0.12649,-0.068291,0.21442
-0.05047,-0.19444,-0.12458,-0.009341,0.034069,0.080898,0.025685,-0.38579
0.14727,0.56993,0.28237,0.10872,0.049769,0.0093083,-0.035701,0.060049
0.11664,0.25928,-0.021281,0.017061,0.067221,0.096474,0.028938,0.028974
-0.070756,-0.49132,-0.24615,-0.065803,-0.038805,-0.032743,-0.014735,0.069609
-0.2417,-0.72649,-0.0015177,-0.062013,-0.065574,-0.035095,0.044087,-0.22164
0.089403,0.36041,0.017158,-0.042134,-0.029188,0.010517,0.056645,0.10359
0.15795,0.23164,0.051722,-0.014201,-0.023871,-0.045243,-0.0087947,0.38417
-0.058853,0.33287,0.12508,0.13875,0.074959,0.023348,-0.074658,-0.049352
0.056409,-0.0085434,0.010018,0.064917,0.056034,0.0047266,0.014813,0.0078689
0.0035168,0.018127,0.1278,0.0061761,0.012874,0.015764,0.0092984,-0.34946
-0.18686,-0.33157,-0.3579,-0.1159,-0.078084,-0.037265,-0.083471,-0.28518
0.093808,-0.059692,0.029477,-0.098459,-0.076236,-0.021235,-0.0055374,0.075205
0.071173,0.27796,0.12637,0.097447,0.073185,0.0096611,0.063706,0.46481
0.017783,-0.1464,-0.081911,-0.0047073,0.0031427,0.024705,0.054271,0.037806
-0.10616,-0.25269,0.030812,0.056222,0.065389,0.071204,0.044531,-0.075849
0.026917,0.05606,-0.081235,-0.071003,-0.06802,-0.04593,-0.035713,0.25332
-0.05988,0.080534,0.15297,0.012422,-0.02975,-0.0689,-0.084918,-0.44681
0.07074,0.26165,0.0069132,0.049023,0.094357,0.12706,0.053073,-0.10101
0.020187,-0.32039,-0.020084,-0.015634,-0.062832,-0.1225,-0.090584,0.17168
-0.18828,0.037605,0.039397,-0.040782,-0.016916,0.049232,0.030955,-0.37934
0.35132,0.55216,0.10554,0.059542,0.04462,0.024756,0.081814,0.46543
0.0058726,-0.16373,-0.25298,-0.06629,-0.026639,-0.008541,0.023086,0.47352
-0.30298,-0.34203,0.0016694,0.026911,0.0037087,-0.042734,-0.074687,-0.51637
0.12785,0.22272,-0.029395,0.026498,0.034123,0.031881,0.030962,-0.30568
-0.021659,-0.29413,0.091748,-0.059855,-0.10727,-0.10454,-0.050302,0.24958
-0.11802,0.073865,0.053843,0.064616,0.079469,0.071915,-0.036967,-0.23037
0.16008,0.21758,0.085279,-0.01422,0.016101,0.038171,0.094587,0.29593
-0.061206,-0.39148,-0.18688,-0.022949,0.030554,0.067773,0.016284,0.040809
0.070773,0.14972,-0.08886,-0.016249,-0.064913,-0.089463,-0.045426,0.18429
-0.091624,-0.16118,0.052603,0.029349,0.010702,0.019133,0.010734,0.053857
0.04568,0.28248,0.19902,0.004504,-0.0084083,-0.02892,-0.026589,-0.42991
0.076221,0.070294,-0.017133,0.0029801,0.026129,0.047027,0.029612,-0.01857
-0.063217,0.00069924,-0.097072,-0.068983,-0.041828,-0.011254,-0.0086408,0.020784
-0.0065149,0.18239,0.18399,0.11671,0.0927,0.038335,0.037955,-0.32872
-0.028298,-0.16047,-0.15245,-0.057168,-0.10107,-0.12421,-0.041751,0.52563
0.096953,0.12514,0.0013963,0.018774,0.033728,0.0018157,-0.044628,0.043803
-0.092357,-0.065196,-0.12095,-0.014759,-0.025701,-0.0045202,0.045181,0.32637
0.03648,-0.30332,0.043108,-0.024774,0.018138,0.092186,-0.014076,-0.38544
0.0074077,-0.15142,0.018035,0.043696,0.032901,0.01156,0.020358,-0.13922
-0.15511,-0.27153,-0.02264,-0.066822,-0.028053,-0.011485,-0.0071425,-0.20859
0.13622,0.065854,-0.04584,-0.020073,0.038345,0.070019,0.09152,0.27416
-0.18755,0.54318,0.082727,0.020091,-0.096387,-0.15834,-0.15191,0.013435
