0.077363,0.045945,0.016792,0.18689,0.089986,0.071243,0.013171,0.038774
-0.056826,-0.49526,0.010516,0.39513,0.074625,0.041753,0.02142,0.00050666
-0.020487,0.034398,0.64957,0.20105,-0.04991,-0.0036876,-0.017218,-0.015002
-0.0083218,0.68426,-0.44705,-0.77159,0.067647,-0.010809,0.022175,3.6601e-05
-0.027291,-0.80096,-0.99502,0.047019,-0.11201,-0.065854,-0.032307,-0.040155
-0.060863,0.44034,0.98734,0.10266,0.075082,0.0029438,-0.024388,-0.02589
0.07138,-0.15293,-0.56279,0.068563,-0.081922,0.00040544,0.022566,0.05104
0.16665,0.09135,0.6376,0.10298,0.026651,0.036266,0.022705,0.034756
-0.04868,0.14866,-0.5646,-0.25282,-0.067523,-0.013961,0.0073584,0.011452
-0.03628,0.40736,0.553,0.089046,0.042231,-0.009097,-0.023441,-0.042252
-0.16449,-0.75281,0.08735,0.52058,0.0046269,-0.026791,-0.022843,-0.048392
0.096586,0.17279,-0.85788,-0.42634,0.17124,0.089513,0.032508,0.047357
0.073791,-0.013914,0.9132,0.21703,-0.044171,0.035216,0.033112,0.041374
-0.030685,-0.25218,-0.81136,-0.54972,-0.12651,-0.10386,-0.044596,-0.01999
0.11091,0.48084,0.74733,0.10112,0.079845,0.054808,0.041472,0.058142
-0.21983,-0.52519,0.11724,0.38029,-0.13661,-0.09849,-0.075903,-0.13853
0.025039,0.84065,-0.58804,0.49896,0.059744,0.01401,0.0095765,0.030683
-0.051229,-0.64595,-0.48119,-0.98755,0.043879,0.016999,-0.0066549,-0.035445
0.34249,0.60356,0.95088,0.077868,0.073884,0.12898,0.10213,0.17932
-0.4714,-0.95503,-0.80112,-0.093081,-0.26382,-0.14241,-0.07797,-0.16803
0.35258,0.96972,1.1687,0.72636,0.28915,0.14024,0.03131,0.032613
-0.02829,-0.51892,-0.51376,-0.39434,-0.14171,-0.054337,0.015988,0.047456
-0.25456,-0.88142,-0.90154,-0.21519,-0.017037,-0.13227,-0.077037,-0.084149
0.079049,0.95133,1.0391,0.40091,0.085115,0.04725,0.010016,0.059601
0.21279,0.43692,-0.30595,-0.1443,-0.069808,-0.015512,0.0036304,0.032962
0.10497,-0.36758,-0.16015,0.44913,0.20536,0.14843,0.11462,0.093026
0.09648,0.17914,0.29994,-0.12743,-0.05067,0.00016738,-0.032177,-0.034506
-0.51062,-0.19631,-0.34485,-0.50902,-0.16627,-0.085288,-0.06975,-0.17859
-0.32758,-0.44621,0.14986,-0.3672,-0.23524,-0.16277,-0.13891,-0.16019
0.55886,0.77638,0.73882,0.48857,0.10195,0.1268,0.14299,0.24691
0.031891,-0.052925,-1.28,-0.44413,0.28301,0.15026,0.088285,0.089545
0.22581,-0.15707,0.69562,0.82594,-0.0043808,-0.061507,-0.0062344,0.03984
-0.22414,-0.84819,0.28328,0.094997,0.021045,0.006924,5.0687e-05,-0.042303
-0.1352,0.18253,-0.90756,-0.46667,-0.023661,-0.074093,-0.095837,-0.14051
-0.15236,0.28494,0.48219,-0.034424,-0.10743,-0.038542,-0.051368,-0.074149
0.36836,0.35553,-0.23579,0.041977,0.0040599,0.036186,0.079297,0.1656
-0.28895,-0.41503,0.4213,-0.20726,-0.056243,-0.028623,-0.023516,-0.092177
0.088415,0.54212,0.33391,0.44063,-0.084861,-0.028853,-0.023269,0.035985
-0.18682,-0.069276,-0.77439,-0.32529,-0.018905,0.036239,0.017929,-0.043479
0.19624,0.050443,0.43688,-0.052001,0.10275,0.026254,0.021976,0.06742
0.42166,0.25107,0.050633,0.38467,0.24859,0.11262,0.097823,0.15665
-0.28889,-0.69054,-0.16188,-0.0077388,-0.06658,-0.041722,-0.067876,-0.13677
0.043363,0.32236,-0.39696,0.41303,-0.023721,-0.063407,-0.023116,-0.017791
-0.063484,-0.45559,0.43941,-0.60607,0.063221,0.11607,0.074691,0.035304
-0.17599,-0.048111,-0.010852,-0.41566,-0.27569,-0.11424,-0.087885,-0.064635
-0.053938,0.14951,-0.7382,-0.12005,-0.0097417,-0.020963,-0.01913,-0.044627
0.068786,-0.19252,0.75882,0.43768,0.056766,-0.096413,-0.039241,0.017624
0.06224,0.27778,0.29324,0.28367,0.11263,0.1211,0.079045,0.092087
-0.1861,0.31185,-0.79193,-0.60273,-0.1136,-0.093465,-0.077196,-0.1632
0.17312,0.23171,1.0093,0.43567,-0.080602,0.0039955,0.024625,0.081867
0.3251,0.19546,0.053706,0.4198,0.31526,0.24357,0.13576,0.1807
-0.31936,-0.14604,-0.91074,-0.43054,-0.21362,-0.20128,-0.11006,-0.19349
0.27392,-0.42962,-0.049044,0.23304,0.2083,0.19384,0.10789,0.1787
-0.3863,-0.8057,-0.094656,-0.23669,-0.13033,-0.17244,-0.10114,-0.17159
-0.090095,0.15557,0.3772,-0.020127,-0.1292,-0.027231,-0.0033836,-0.0029784
0.2145,0.44009,0.058389,0.084917,0.092673,0.034586,-0.013881,0.050406
-0.038983,-0.12254,-0.093032,-0.43673,-0.013587,-0.090028,-0.047812,-0.1146
0.37143,0.61561,-0.041388,0.62117,0.1205,0.17548,0.12812,0.21135
-0.13678,-0.083894,0.24757,-0.28966,0.0092064,0.087515,0.044293,0.01909
0.065748,0.22342,-0.1236,0.028082,-0.051223,-0.058051,-0.02633,-0.020332
-0.42905,-0.54603,0.43781,-0.0068272,-0.27944,-0.19135,-0.11502,-0.15707
-0.18344,0.20014,-0.66465,-0.52082,-0.010652,-0.093443,-0.072892,-0.12491
0.19542,-0.15101,0.292,0.31301,0.20933,0.041085,0.030596,0.077362
0.18003,-0.26743,-0.32076,0.65634,0.19405,0.23675,0.11056,0.14666
0.016998,0.47344,0.033514,-0.30035,-0.11825,-0.013086,0.0039464,-0.024739
0.10118,-0.31859,0.43184,-0.30708,-0.039854,0.019114,0.039663,0.072301
-0.10332,0.3841,0.14839,0.40653,-0.00065504,-0.11131,-0.06318,-0.10052
0.17073,-0.26186,-0.18939,-0.39926,0.092677,0.0099685,0.031272,0.089656
-0.28777,-0.39301,-1.0466,0.19094,-0.0023162,-0.093678,-0.10714,-0.17025
0.10542,0.55221,0.61225,0.71016,-0.0041582,0.16341,0.13808,0.1499
-0.097838,-0.25366,0.58739,-0.75206,-0.37285,-0.086296,-0.077608,-0.076215
0.14594,-0.29412,-0.75221,-0.32195,-0.044223,0.039719,0.0029855,0.017264
0.13029,0.70404,0.57701,-0.29418,0.41351,-0.021186,0.035729,0.069914
-0.092828,0.11359,0.3995,0.65685,0.35403,0.13729,-0.0028542,-0.028242
-0.32988,-0.21086,-0.9315,0.30405,-0.54919,-0.19555,-0.081219,-0.12884
-0.089297,-0.3156,0.58426,-0.75898,-0.38156,-0.19126,-0.058201,-0.090852
0.44187,0.1026,0.29863,0.30993,0.37954,0.22857,0.14496,0.23495
-0.078845,-0.50595,-0.27082,0.38132,0.349,0.15778,0.02101,0.0057379
0.1238,0.80052,-0.54107,-0.59994,-0.05489,-0.15389,-0.046903,-0.019792
-0.15133,-0.4504,-0.23803,0.86957,0.13236,0.12888,0.011558,-0.06754
0.097689,0.61299,-0.42797,-0.35045,-0.28094,-0.041673,0.047674,0.10505
-0.041492,-0.59006,0.90333,0.2621,-0.087048,-0.025902,-0.032815,-0.025394
-0.33313,-0.10026,0.73974,-0.60636,-0.11554,-0.16059,-0.10553,-0.16216
0.22364,0.62864,-0.10741,-0.0094469,0.048273,0.10063,0.063324,0.10063
-0.11314,-0.39512,-0.64883,0.096531,-0.13993,-0.08611,-0.034543,-0.073407
0.070035,-0.20942,-0.014705,-0.11559,-0.051268,-0.056469,0.0068427,0.018287
0.27176,0.10131,0.32663,-0.37536,0.31853,0.26043,0.10147,0.15637
0.23213,-0.0084499,-0.39963,0.73096,0.48103,0.20903,0.077575,0.1137
-0.35599,-0.053762,-0.26647,-0.11615,-0.26442,-0.2646,-0.15048,-0.20396
-0.1199,0.51166,0.64443,0.18495,-0.16691,-0.12066,-0.043206,-0.062493
-0.22537,-0.12657,-0.89765,-0.25062,-0.27391,-0.13194,-0.061038,-0.079087
0.17059,0.036403,1.1106,0.079764,-0.032512,0.10054,0.069935,0.090296
0.060399,-0.37784,-0.65571,-0.26993,0.13298,0.077039,0.053157,0.047695
0.093529,0.041627,0.58061,0.15753,0.24336,0.11778,0.044943,0.020193
-0.017584,-0.18387,0.23866,0.27044,0.11657,0.097233,0.037244,0.031642
0.0020979,0.3983,-0.6508,0.18731,-0.13196,-0.11051,-0.048549,-0.0036844
0.10713,0.25832,0.55542,-0.097664,-0.081206,-0.069067,-0.002101,0.023585
-0.076351,-0.27243,-0.92577,-0.45552,-0.27786,-0.091983,-0.081765,-0.089828
-0.008385,-0.47827,0.062951,-0.3795,-0.04891,-0.02378,-0.022239,-0.01599
-0.22729,-0.072377,-0.72589,0.022847,0.209,0.041463,-0.03448,-0.09878
0.14266,0.42736,0.81109,0.55254,0.15408,0.080462,0.077103,0.12274
0.016294,0.12717,0.11008,-0.19922,-0.055764,4.4675e-05,0.070816,0.078426
0.19128,0.22542,0.76627,0.46788,0.29925,0.20736,0.080069,0.081067
-0.11292,0.12164,0.40017,-0.0050419,-0.1712,-0.20276,-0.09767,-0.14236
-0.29429,-0.88808,-0.5838,-0.62433,-0.29547,-0.16659,-0.12594,-0.14607
0.28,0.59241,0.028128,0.57807,0.23066,0.15296,0.10505,0.17199
-0.21093,-0.24471,-0.67548,0.20917,-0.24939,-0.10245,-0.068494,-0.14088
0.16913,0.35496,-0.26743,-0.98426,0.037797,0.060083,0.048855,0.079583
0.043184,-0.74471,0.18419,0.97118,0.20193,0.17987,0.05077,0.07551
0.26816,0.37517,-0.35196,-0.70814,-0.10805,-0.11838,0.0072926,0.0965
-0.20539,0.33677,0.36321,-0.54693,-0.063595,-0.054288,-0.082023,-0.14719
-0.059278,-0.59705,0.72032,0.58741,0.085357,-0.0041538,0.016643,0.023275
-0.31822,0.44583,-0.35005,0.5859,0.12739,0.077354,0.02927,-0.088218
0.17397,0.0249,0.33932,0.019454,-0.047893,0.0012155,0.0022272,0.048976
0.17625,0.4498,-0.66748,-0.072466,0.15972,0.070888,0.067985,0.10646
-0.2624,-0.65666,0.51437,-0.43967,-0.25899,-0.23778,-0.14857,-0.15783
0.14964,0.18116,0.0091614,-0.097656,-0.031646,0.12203,0.03238,0.037795
0.11792,-0.33276,-0.4121,-0.10856,-0.096223,-0.044415,0.0017971,0.014275
-0.097981,0.10129,0.29457,0.090886,0.078738,-0.0094325,0.017948,-0.0011599
-0.051943,0.14411,-0.14642,0.61907,0.0096385,-0.0060078,-0.020282,-0.047051
0.41204,0.027868,-0.2434,0.16502,0.24441,0.20943,0.14525,0.24405
-0.36335,-0.39809,0.03627,-0.98054,-0.16908,-0.13546,-0.094696,-0.12792
0.081293,0.28486,0.1956,0.36354,0.019765,0.014624,-0.021467,-0.046076
-0.068075,0.23559,-0.21468,-0.067393,-0.10309,-0.043415,0.0052724,0.0047336
-0.26578,0.040328,0.63711,-0.52331,-0.10857,-0.1617,-0.10085,-0.16351
0.22968,0.29086,-0.17653,1.0805,0.45536,0.31498,0.16749,0.17527
-0.050695,-0.6725,-1.1635,-0.20395,-0.11574,-0.099127,-0.073024,-0.041841
0.018079,0.56831,0.84519,-0.07595,-0.073086,-0.014867,-0.0025253,0.028564
0.15471,-0.56777,0.42229,-0.14957,-0.16734,-0.035125,0.0036701,0.018991
-0.0082282,-0.05062,0.30272,-0.05433,-0.054657,0.03449,0.0079189,-0.0083023
0.28667,0.36314,0.049057,0.3158,0.078478,-0.0016616,0.096243,0.14969
-0.56251,-0.26854,-0.97028,-0.60294,-0.10211,-0.16665,-0.19195,-0.32726
0.34271,-0.30831,0.42837,0.90962,0.34328,0.29839,0.15959,0.25657
-0.27815,0.28747,-0.97385,-0.93155,-0.16125,-0.22996,-0.13737,-0.184
0.060986,0.34242,0.12367,-0.33125,-0.051378,0.00014471,0.043145,0.086514
0.089233,0.13876,0.50101,0.63174,0.13499,0.084308,0.038057,0.0069455
0.090919,-0.028537,0.91616,0.26883,0.015346,0.078715,0.043485,0.063037
-0.50123,-0.20305,-0.89685,-0.47746,-0.21551,-0.15636,-0.12757,-0.22842
0.38541,-0.12553,0.55965,0.91072,-0.027557,0.058911,0.040565,0.12547
0.18149,-0.06856,-0.063321,-0.37217,0.18686,0.075431,0.10999,0.16384
-0.082531,0.25849,-0.14119,-0.43134,0.03508,0.0090466,-0.045162,-0.12179
-0.22185,-0.094106,-0.58311,0.10266,-0.18809,-0.13422,-0.058888,-0.060895
0.20456,-0.18287,-0.21391,-0.11235,0.1014,0.073368,0.028415,0.071178
0.0040162,-0.36632,0.84412,0.19911,0.066066,0.036326,0.012362,0.022311
0.30409,0.57758,0.2191,0.32184,0.087787,0.050267,0.079481,0.13427
-0.31352,0.38814,-0.3659,-0.51985,-0.34935,-0.21351,-0.14575,-0.18817
-0.20283,-0.75715,0.35315,-0.083819,0.17695,0.0029724,-0.030518,-0.094143
-0.090561,0.35805,-0.6309,0.13959,-0.019796,0.16147,0.097567,0.072823
-0.16207,0.0036712,-0.6043,-0.11216,-0.047538,-0.12738,-0.073106,-0.076819
0.36778,-0.2395,0.97648,0.49251,0.25936,0.17688,0.099159,0.12266
-0.043121,0.027744,-0.25073,-0.33239,-0.23045,-0.1511,-0.072106,-0.076856
0.26614,0.79648,0.35904,0.30585,-0.078349,0.037995,0.0389,0.091957
-0.075733,-0.74846,-0.80125,-0.59972,0.099123,-0.02112,-0.020495,-0.025957
0.37891,-0.43101,0.97104,0.96641,0.34121,0.31987,0.20292,0.31994
-0.68937,0.50268,-0.79647,-0.40269,-0.34448,-0.29887,-0.23637,-0.37824
0.086369,0.40845,0.24148,-0.66857,0.018216,-0.081066,0.012821,0.027412
-0.18548,-0.20837,0.88176,0.51245,-0.11799,-0.027266,-0.034259,-0.088797
0.26724,-0.098695,-0.17231,-0.10105,0.15293,0.1044,0.051794,0.09281
0.091624,-0.30065,-0.22317,-0.1248,-0.012769,0.079479,0.036482,0.048374
0.044252,-0.077075,-0.86645,0.09133,0.064822,-0.01591,0.0057668,0.0042895
0.022428,0.19346,0.12693,0.33766,-0.10615,-0.0095919,0.0066472,0.038715
-0.35771,0.63311,-0.97087,-0.91686,-0.25977,-0.20591,-0.12479,-0.19197
0.2544,-0.86272,0.95859,0.99827,0.5728,0.30949,0.15063,0.17951
-0.20477,0.23301,0.71364,-0.16994,-0.29618,-0.182,-0.10461,-0.12036
0.14649,-0.11717,0.43429,0.17584,0.062415,0.061815,0.070294,0.09564
0.16642,0.50769,-0.50099,-0.00031147,-0.00070055,0.0016857,0.0031757,0.037895
-0.07584,-0.35689,0.12588,-0.58528,-0.15054,-0.058006,-0.056363,-0.067739
0.051572,0.41613,0.029482,0.20757,0.23703,0.10111,0.07874,0.074873
-0.12375,-0.10227,-1.179,-0.17666,-0.14333,-0.044808,-0.04503,-0.058285
-0.10949,-0.55223,0.60385,-0.11079,-0.12783,-0.14453,-0.068548,-0.092455
0.11096,0.349,0.67053,0.36232,0.10395,0.14545,0.10189,0.089763
-0.046599,-0.13713,-1.1603,-0.064902,0.11493,0.020295,-0.010082,-0.0031263
-0.072004,0.081753,0.38578,-0.0909,-0.16458,-0.059071,-0.075924,-0.088795
0.099801,-0.031754,0.38262,0.1081,0.17242,0.040267,0.037759,0.052789
0.23676,0.089229,0.19418,0.53369,0.087586,0.13885,0.065983,0.15724
-0.34696,0.10734,-0.72958,-0.44731,-0.22311,-0.26296,-0.1313,-0.20416
0.068077,-0.23567,0.48982,-0.27431,-0.071591,-0.016286,0.040068,0.031536
0.11422,-0.53417,-0.31795,0.26095,0.058204,0.13717,0.064563,0.075143
-0.12411,0.56927,0.54172,-0.086241,-0.020952,-0.13028,-0.058026,-0.089714
0.21012,0.070538,0.34737,0.54195,0.15193,0.26758,0.10928,0.16072
0.043831,0.6895,-1.1472,-1.0811,0.1001,-0.067609,0.011094,0.035874
-0.18808,-0.20797,0.88192,0.49135,0.018469,-0.018797,-0.07209,-0.12982
-0.042283,-0.41397,0.048203,0.0822,-0.31226,-0.14878,-0.070562,-0.064085
-0.019722,-0.81506,-0.82256,-0.39946,-0.17391,-0.028274,-0.054957,-0.056618
-0.11233,0.47586,-0.8485,0.19698,0.30018,0.029812,0.052865,0.025429
0.017206,0.33894,0.92344,0.3956,0.054853,0.048494,0.026657,0.034268
0.41009,-0.094583,0.19647,-0.015937,0.08973,0.19144,0.14819,0.22881
-0.095241,0.31515,0.75912,0.48257,0.099825,-0.0026266,-0.011619,-0.045847
-0.30893,-0.58068,0.71937,-0.77735,-0.49316,-0.2683,-0.22565,-0.28837
0.19273,0.25654,-1.034,0.23894,0.17017,0.074071,0.092488,0.13521
-0.13614,-0.36164,-0.65045,0.020333,0.14469,0.11066,0.052465,0.030407
-0.029891,0.57107,-0.57474,-0.87191,-0.16297,-0.22836,-0.072182,-0.055531
0.37773,0.22461,0.75892,0.61011,0.1773,0.16701,0.085637,0.15071
-0.25876,-0.18417,-0.13594,-0.23383,-0.14662,-0.069782,-0.068125,-0.14052
0.027192,0.25767,-0.041017,0.24076,0.045174,0.030509,-0.010483,-0.016178
0.069296,-0.90276,0.45747,0.52974,0.096498,0.12432,0.093957,0.13189
-0.048312,-0.14003,0.69385,0.13566,0.061961,0.031829,0.010281,-0.002248
-0.14693,0.38534,-0.89847,-0.90155,-0.22259,-0.16142,-0.10568,-0.12277
-0.046818,0.16212,0.18108,0.26886,0.12568,-0.0028144,0.0036758,-0.01156
0.34687,-0.17283,-0.54661,0.31676,0.060163,0.11659,0.096246,0.18287
-0.2608,0.2034,0.2023,-0.21354,-0.34831,-0.18622,-0.14011,-0.20305
0.10905,-0.052658,0.49093,-0.23062,0.15095,0.057544,0.068651,0.05823
-0.28349,0.58799,-0.57171,0.013995,0.16806,0.0044377,-0.011169,-0.047626
0.17262,-0.066429,0.48277,0.39492,0.023818,0.053287,0.019508,0.011924
0.11864,-0.78665,0.44412,-0.38385,-0.12542,-0.01434,-0.0029497,0.050397
0.17901,0.23532,-0.48178,0.26547,0.063698,0.059461,0.038756,0.091727
0.039517,0.059498,-0.17219,0.15786,0.035586,0.024469,0.035002,0.042009
-0.35709,-0.10268,-0.65755,-0.67286,-0.17975,-0.2214,-0.1476,-0.21673
-0.044921,0.088382,0.01106,0.38478,0.14287,0.17267,0.083907,0.11115
0.051531,-0.50943,1.1126,0.42565,0.033405,0.11999,0.04115,0.016384
-0.0071168,0.70534,-0.86233,-0.98795,-0.16532,-0.27072,-0.096964,-0.10394
0.22361,-0.041117,1.0216,0.75165,0.17909,0.1565,0.067458,0.10078
0.025278,-0.063694,-0.2704,0.078953,-0.019045,-0.020092,0.018598,-0.018336
-0.23349,-0.13395,-0.079528,-0.080211,-0.040113,-0.0577,-0.024579,-0.031358
-0.058215,-0.90297,0.017156,0.15303,-0.15615,-0.017802,-0.092715,-0.093701
0.24926,1.0125,-0.4334,-0.28701,0.079834,0.16336,0.15105,0.24906
-0.33938,0.59349,-0.95504,-0.3942,-0.049297,-0.23953,-0.15159,-0.25937
0.35023,0.076405,0.87349,0.058298,0.1686,0.10261,0.078511,0.17153
-0.14899,-0.30969,0.87167,0.72109,0.10119,0.073059,-0.032867,-0.12116
-0.055331,-0.23092,-0.56324,-0.6522,-0.15817,-0.054993,0.02242,0.0037112
0.22412,-0.19912,0.45,0.26294,-0.12641,0.07689,0.072303,0.16319
-0.22675,-0.43743,-0.5279,-0.42024,-0.00078575,-0.11093,-0.063614,-0.12795
0.18293,-0.47408,-0.38913,0.29313,0.27113,0.12192,0.08233,0.1211
0.12182,0.55112,0.89671,0.83371,0.15598,0.10963,0.024527,0.064924
-0.37391,-0.17114,-0.78746,-0.68207,-0.33991,-0.25061,-0.17562,-0.24332
0.014052,0.60299,-0.22173,-0.014049,-0.15451,-0.05305,-0.018834,-0.023493
0.41786,0.5653,0.90827,0.29624,0.33016,0.19498,0.16661,0.22401
-0.5132,-0.2641,-0.62988,-0.44851,-0.40742,-0.23952,-0.1892,-0.28171
0.23878,0.22818,0.53238,0.00096544,0.1824,0.1142,0.11774,0.17135
-0.0573,-0.27353,-0.58135,-0.34675,0.0010466,0.0083483,-0.0051779,-0.009075
0.031926,-0.042629,0.23068,0.29946,0.17608,0.12457,0.02909,0.037964
-0.11516,-0.83822,0.49684,0.44222,-0.087824,-0.074917,-0.052023,-0.068994
0.12883,0.26214,-0.59939,-0.54123,0.076732,0.035261,0.040981,0.045888
0.014822,0.075759,0.35951,0.43605,0.051405,0.063899,0.026784,0.02341
0.15146,-0.058923,-0.2318,0.076423,-0.1035,-0.09974,-0.032643,0.011528
0.013076,0.61618,-0.039645,-0.41952,-0.01565,-0.098103,-0.020966,-0.029827
-0.02857,-0.3002,0.35008,0.49915,0.12498,0.12159,0.060838,0.038687
-0.21921,0.090781,-0.13808,0.32053,-0.14426,-0.020389,-0.05374,-0.073267
-0.11665,-0.49018,-0.48343,-0.86501,-0.34736,-0.064165,-0.037172,-0.02293
0.03485,0.41189,-0.17915,-0.52794,0.18037,0.013377,-0.01465,-0.053003
0.1799,0.023968,0.28987,0.75392,0.22959,0.056406,0.06095,0.12562
0.18643,-0.1871,0.41434,0.10786,0.1305,0.081612,0.057452,0.068209
-0.26395,0.64913,0.19836,-0.079774,-0.15389,-0.15167,-0.078935,-0.13834
0.11274,-0.38059,-0.20092,-0.14103,-0.0048285,0.061405,0.019962,0.046213
-0.15709,-0.26948,0.026492,-0.072756,-0.04651,-0.066598,-0.043406,-0.048882
0.015113,-0.09769,-0.22647,0.32195,-0.029021,0.028059,0.020635,0.01474
-0.16585,0.41377,-0.7017,0.081737,-0.047045,-0.083711,-0.045542,-0.067226
0.26125,-0.26051,0.991,-0.18635,0.16343,0.23852,0.12493,0.16593
0.13886,-0.16891,-0.28876,0.084244,-0.063685,-0.092213,-0.039054,-0.044452
0.11264,-0.0001559,0.71905,0.108,0.1523,0.063019,0.031624,0.065888
-0.079006,0.1116,-0.59752,-0.41573,-0.1983,-0.11819,-0.023749,-0.03591
-0.17447,0.26605,0.059498,0.28415,0.031655,0.11208,0.027963,0.00018789
-0.16931,0.10115,-0.60984,-0.29274,-0.06457,-0.11504,-0.10317,-0.1316
0.02823,0.27759,-0.14483,-0.26962,-0.04908,-0.10521,-0.026848,-0.0019989
-0.019439,-0.33331,-0.028857,0.60703,0.12622,0.10245,0.022882,-0.0012353
0.13484,-0.93804,0.89455,-0.064363,0.06474,0.00089348,0.02346,0.05931
0.2524,0.89069,0.099269,0.3071,0.065526,0.10721,0.10896,0.13439
-0.31061,-0.53561,-0.93732,-0.43813,-0.15828,-0.10803,-0.10984,-0.1648
0.11483,0.56489,1.023,-0.12468,-0.11256,0.036743,0.032388,0.069677
-0.091771,0.061405,0.5427,0.14795,0.071261,-0.050652,-0.025946,-0.043755
-0.11458,-0.11317,-0.46623,-0.080674,0.042303,0.037097,0.012457,0.011144
0.18078,-0.15789,-0.6224,0.61027,0.19102,0.081634,0.053718,0.062379
-0.19062,0.04114,-0.6663,-0.91451,-0.2258,-0.12825,-0.066859,-0.10181
0.21378,0.2541,0.26029,0.23987,0.055777,0.015967,0.0091021,0.017187
0.28005,-0.69467,0.98193,0.68634,0.12736,0.23186,0.10856,0.17548
-0.13028,0.51018,-0.96121,-0.51702,-0.16173,-0.22403,-0.082079,-0.1052
0.023958,-0.58345,0.13766,-0.093042,0.022515,0.030053,-0.016752,-0.0059674
-0.21505,0.35118,0.26658,-0.037233,-0.094734,-0.092466,-0.055203,-0.066694
-0.27191,0.38819,-0.12032,0.20291,0.22029,0.095806,0.037068,-0.014037
0.024975,0.48222,0.49669,-0.15481,-0.15721,-0.053177,-0.028445,-0.034853
-0.095753,-0.34311,0.27238,-0.024125,-0.038802,-0.038682,-0.00091707,-0.0029321
0.39325,-0.68913,-0.06565,0.37757,0.061327,0.10107,0.058028,0.098843
0.15302,0.41492,-0.60596,-0.14284,0.082359,0.069916,0.047548,0.053167
0.063297,-0.096089,-0.30563,-0.059265,0.033731,0.024504,0.022747,0.048657
-0.16893,-0.33016,1.028,-0.38448,-0.13013,-0.11328,-0.063187,-0.078127
-0.11926,0.28056,-0.90901,0.29038,-0.025634,-0.054748,-0.0073671,-0.022405
-0.29449,0.041419,-0.17348,-0.32946,-0.137,-0.073967,-0.11491,-0.16735
0.38304,-0.17045,0.6515,0.52287,0.32433,0.22673,0.13715,0.21292
-0.096116,-0.17364,-0.63019,0.12116,-0.08795,-0.12217,-0.048483,-0.085526
0.24989,0.28902,-0.032531,0.33215,0.20296,0.19126,0.11702,0.16304
-0.246,0.24437,0.85251,-0.5793,-0.18702,-0.15359,-0.12422,-0.18271
-0.086736,0.37114,-0.44403,-0.59047,-0.14944,-0.094139,-0.022052,-0.006105
0.24075,-0.59345,0.58181,0.52503,-0.0048737,0.057595,0.017519,0.044111
-0.15591,0.65539,-0.96109,-0.39649,-0.057572,-0.064806,-0.0052012,-0.039974
0.1835,-0.39874,0.66477,0.66916,0.20914,0.10988,0.081889,0.1323
-0.30321,-0.44306,0.41257,0.050764,-0.070609,-0.011304,-0.025833,-0.079601
-0.075803,-0.33407,-0.78146,-0.58752,-0.067451,-0.037215,-0.04727,-0.050568
0.039278,0.32497,0.058727,0.081689,0.086569,0.016584,0.0015989,-0.0070931
0.30163,-0.15213,-0.22894,0.28334,0.055623,0.087221,0.081234,0.12901
0.09556,0.40193,0.67385,0.64032,0.20635,0.11932,0.034912,0.03753
-0.054543,0.21743,-0.87908,-0.59934,-0.18881,-0.18474,-0.090814,-0.10163
-0.077963,-0.17157,0.99337,0.21948,-0.076257,-0.036487,-0.030365,-0.038049
-0.084072,0.22821,-0.96566,-0.87945,-0.097414,-0.084516,-0.017829,-0.005489
-0.22148,-0.083995,0.11284,0.13706,-0.033801,0.0074121,-0.044814,-0.081284
0.13468,0.23353,0.425,0.11592,0.060213,0.083738,0.092544,0.11038
0.085912,-0.33719,-0.17964,0.34185,0.036911,0.05155,0.019942,0.023274
-0.070924,-0.62583,0.86321,-0.2841,-0.071668,-0.080642,-0.066852,-0.084513
0.23438,0.023817,-0.32406,0.67627,0.11779,0.054647,0.097863,0.16181
-0.076585,0.67597,-0.58391,-0.18499,0.29274,0.18375,0.068438,0.0036997
-0.17623,-0.40066,-0.71459,-0.2312,-0.2506,-0.19408,-0.13235,-0.13024
