0.012421,0.023855,0.015172,-0.0086621,-0.0052824,-0.037302,0.16071,-0.09611
0.013089,0.052484,0.034022,0.023853,0.034506,0.087595,0.045011,0.22267
0.046136,-0.0018634,0.036892,0.0093243,0.0041705,-0.029443,-0.47926,0.48477
-0.044482,-0.0066156,0.023186,-0.0055376,-0.010498,0.0099564,0.33674,-0.43768
0.0068884,-0.01731,-0.062308,-0.013029,-0.017443,-0.036491,0.12682,-0.1018
0.08286,0.027113,0.0066708,0.018078,0.014512,0.034259,-0.51985,0.28799
-0.22327,-0.015867,-0.05888,-0.044956,-0.055264,-0.066877,-0.14508,-0.9399
0.16595,0.078223,0.030571,0.0011395,0.04673,0.074228,0.05399,0.42746
-0.039355,-0.13006,-0.0053896,-0.0075161,0.0080917,0.035837,0.53616,0.44028
-0.019732,0.10007,-0.0094629,0.030794,-0.030468,-0.16625,0.14143,-0.20995
0.1538,-0.01316,-0.0040486,0.030212,0.024825,0.069653,-0.18332,0.15254
0.10588,0.085561,0.035072,0.037594,0.0098399,0.0091819,0.16983,0.11665
-0.053993,-0.15658,-0.04022,-0.040908,-0.0052717,0.011522,-0.77986,-0.29263
-0.52043,-0.14285,0.090142,-0.056987,-0.012921,0.029398,0.59425,-0.48174
0.11401,0.13834,-0.012132,-0.018551,0.03354,0.077881,-0.44139,0.3522
0.0069581,-0.043458,0.17523,0.10564,0.0089586,0.070465,0.8567,0.49506
0.37054,0.40118,-0.28656,-0.082761,-0.055432,-0.17294,0.22604,0.25539
0.088142,-0.51766,0.077949,0.033612,-0.026661,-0.16022,-0.88988,-0.58173
-0.090486,0.0052852,-0.16948,-0.045034,0.0018419,-0.0081979,-0.65354,-0.035016
-0.19764,0.21851,0.15843,0.0095935,0.053941,0.33072,0.67426,-0.18415
0.35106,0.055982,-0.078781,0.072564,0.028514,-0.11126,-0.14931,0.23689
-0.32878,0.20786,0.18966,0.042246,-0.02722,-0.091057,-0.12413,-0.73067
-0.41022,-0.29284,-0.19982,-0.11282,-0.097462,-0.18615,0.76463,0.54161
0.16882,-0.030161,0.0031506,-0.072607,0.075547,0.18176,-0.22063,0.48718
0.66657,0.030325,0.18939,0.13911,0.069668,0.48888,0.29634,0.1641
-0.22044,0.43308,0.38241,0.045511,0.04854,-0.19527,-0.41303,-0.54246
0.16586,-0.43865,-0.44891,0.044886,-0.043003,-0.28583,0.21703,0.79842
-0.53963,-0.25335,-0.16354,-0.22212,-0.15851,-0.33074,-0.45206,-0.90676
-0.34265,-0.33335,-0.33107,-0.12254,-0.087334,-0.23717,0.19911,-0.51791
0.35991,0.24253,0.010421,0.13296,0.12353,0.86146,-0.044701,0.12793
0.48271,0.82507,0.80726,0.22428,0.1694,0.23827,-0.39679,0.46641
-0.24836,-0.3537,0.099236,0.010914,0.026935,-0.059778,0.30649,0.22139
0.024027,-0.11899,-0.34,-0.14,-0.15529,-0.6024,0.050516,0.37359
0.15615,0.28697,-0.1904,-0.07239,-0.056786,-0.3024,0.4229,0.035905
-0.12118,-0.21671,-0.061961,0.072946,0.12736,0.52186,-0.41073,-0.17864
0.0013885,0.099811,0.013338,-0.047837,-0.11816,-0.049019,0.22242,-0.66377
-0.15781,-0.049877,0.18328,0.080969,0.082038,0.026657,0.080269,-0.18619
-0.27089,-0.38912,-0.16201,-0.09505,-0.037273,-0.077011,-0.71268,0.20075
0.054397,-0.053866,0.13332,-0.059856,-0.030435,0.15687,1.0616,0.34438
0.42275,0.29839,-0.071688,0.17137,0.11055,-0.068727,-0.58148,-0.14092
0.025631,0.082244,0.26167,-0.025984,-0.12999,-0.2556,-0.26669,0.078242
-0.469,-0.051977,-0.3279,-0.026727,0.13043,0.35843,0.39791,-0.064171
0.22313,0.15606,0.28431,0.012896,-0.085298,-0.1611,-0.56228,0.012403
0.18949,-0.32238,-0.25336,0.0067551,0.065843,-0.046322,0.097073,0.65973
-0.0075627,0.21775,0.0045692,0.001407,0.051858,0.33787,0.60423,-0.4365
0.29438,0.019707,0.011706,-0.10508,-0.13568,-0.15373,0.07695,0.23625
-0.69635,-0.033535,0.08907,0.0072679,-0.036186,0.03861,-0.079469,-1.013
0.40025,0.23709,-0.090675,0.041287,-0.024663,-0.47593,-0.70348,0.10991
0.097553,-0.33356,0.10596,0.067098,0.11018,0.15689,0.34182,0.361
-0.48064,-0.28577,-0.09407,0.061166,0.15807,0.59092,0.067699,0.95875
0.1735,0.16062,0.10613,-0.09367,-0.16918,-0.86948,0.72785,-0.78347
-0.14999,0.35635,0.042147,0.05589,0.0044205,0.22949,-0.64961,-0.53596
0.14396,0.089972,-0.021001,-0.13045,-0.038886,0.54444,-0.7692,0.30461
-0.16251,-0.28717,-0.037131,0.019654,-0.017009,-0.31654,0.69796,0.20839
0.42261,-0.025072,-0.17872,-0.063648,-0.0075161,-0.39657,0.34864,0.14477
0.43685,0.11084,-0.047724,0.049672,0.0053506,0.085931,-0.6168,0.027498
-0.34905,-0.19168,0.22286,0.11746,0.11495,0.66689,0.26126,-0.019537
-0.032038,-0.17464,0.12518,0.0065139,0.046953,0.53561,0.12288,-0.16186
-0.66178,0.43532,-0.18452,0.012928,-0.035897,-0.62028,0.11596,-0.088128
0.22896,-0.12788,-0.1673,-0.067468,-0.12726,-0.94145,-0.049789,0.13895
-0.00014521,0.35366,0.58285,0.092416,0.12311,0.51098,-0.42375,0.028399
0.2234,-0.37115,-0.61417,-0.1019,-0.082597,-0.11852,0.21627,-0.22173
0.21581,0.024778,0.19431,-0.056825,-0.010274,0.35659,0.13699,-0.0058754
-0.026165,-0.20913,-0.02342,-0.037494,-0.011082,0.20371,-0.34294,0.10239
-0.51344,0.2554,0.16201,0.027506,-0.052787,-0.47966,0.5373,-0.3068
0.35187,-0.049336,-0.16354,0.0068027,0.053428,-0.22798,-0.86305,0.41791
0.072815,0.0035075,0.15647,0.097142,0.027646,0.32238,0.19517,0.089776
-0.10684,-0.1774,-0.23664,-0.051981,0.058395,0.52584,1.1835,0.089931
-0.1246,0.14488,0.072437,0.10672,0.068051,-0.49959,-0.70868,-0.030982
0.51018,0.33199,0.61664,-0.013038,-0.091938,0.2057,0.40482,-0.020915
-0.45531,-0.59117,-0.96912,-0.091943,-0.047235,0.10737,-0.4461,-0.36298
-0.31384,0.36801,0.52053,0.079517,0.052693,-0.032958,-0.085569,0.069282
0.4304,-0.27573,-0.22489,-0.070485,-0.12925,-0.79732,0.14545,-0.34666
0.038809,0.3271,-0.28994,-0.066661,0.10901,0.81142,-0.64967,0.53374
-0.039293,-0.0061907,0.29434,0.004261,-0.014536,-0.54382,0.0053298,-0.16677
0.083754,-0.24002,0.26108,0.032717,0.015358,0.48933,0.84798,-0.027083
-0.12503,0.47388,0.52944,0.15972,0.10502,0.17132,-1.1027,0.36745
0.076357,-0.47632,-0.75598,-0.20763,-0.21383,-0.76738,0.78614,0.22185
0.19721,0.17396,0.24437,0.087984,0.083063,0.22454,0.39928,-0.35136
-0.70479,-0.12933,-0.30905,-0.038234,-0.02674,0.15906,-0.16018,-0.058634
0.069724,-0.44646,-0.059119,0.016255,0.035916,0.10172,0.069699,-0.69901
0.1345,0.4448,0.025069,0.009977,-0.048385,-0.15698,-0.15946,0.062002
0.19652,0.31402,0.16387,0.14646,0.16631,0.62475,0.1025,0.41042
0.75839,0.0086499,0.21979,-0.081978,-0.046263,-0.36748,-0.32834,0.77347
-0.62427,-0.35135,-0.42818,-0.050366,-0.014211,-0.1756,-0.024144,-0.30631
-0.22559,0.12606,0.17704,-0.079115,-0.12058,-0.29476,0.14366,-0.44493
0.46029,-0.12171,0.085452,-0.027695,0.032673,0.22572,0.14705,0.4892
-0.73329,0.13822,-0.037135,0.033472,-0.062721,-0.13902,-0.69002,-0.73366
0.097207,0.122,0.2781,0.11199,0.18646,0.66543,0.63578,0.45226
0.15244,-0.29871,-0.2985,-0.097263,-0.17352,-0.76654,-0.74957,-0.63791
0.24281,0.13803,0.10537,0.15498,0.14571,0.24592,0.16533,0.98277
0.11662,-0.1573,-0.27928,-0.077631,-0.044119,0.12595,0.54737,-0.37017
-0.28997,0.015315,0.044272,-0.06974,-0.025023,0.030659,0.44249,-0.185
0.20184,0.35664,0.40144,0.16967,0.077351,-0.078744,0.046917,0.49651
0.11532,-0.11117,-0.25635,-0.11024,-0.018607,0.13324,-0.51264,-0.50652
-0.34565,-0.17709,-0.14831,-0.058218,-0.023762,-0.13906,-0.62408,0.040684
-0.030741,0.26204,0.038805,-0.041035,-0.14065,-0.029759,0.5145,-0.070857
0.15685,-0.0092797,0.52551,0.19242,0.17869,0.10835,0.18583,0.44336
-0.16963,-0.43167,-0.62323,-0.21558,-0.15807,-0.14755,-0.00045746,-0.27201
0.001843,0.031806,0.048358,0.033674,0.038044,-0.11821,0.23822,-0.12681
0.050018,0.10575,-0.10578,-0.081588,-0.067675,0.12614,-0.64055,-0.38299
0.26654,-0.16576,0.37692,0.24437,0.22855,0.1563,0.43472,0.65734
-0.089973,0.36886,0.20014,-0.0038804,-0.073387,-0.019137,-0.43581,-0.059433
-0.028583,0.0382,-0.0038595,0.032249,0.11157,0.022599,-0.38923,0.44276
-0.27125,-0.19154,-0.67412,-0.14882,-0.077407,-0.076917,0.48027,-0.001952
0.40388,0.41662,0.33572,0.075901,-0.095135,-0.082359,0.66658,-0.85707
-0.039889,-0.1052,-0.038975,-0.006506,0.033448,-0.02403,-0.46123,0.20274
0.024978,0.071613,0.26257,0.040014,-0.028546,0.083344,-0.28561,-0.52045
-0.29638,-0.6763,-0.0027619,-0.16791,-0.046919,0.029603,0.3941,0.2131
0.040436,0.27225,-0.24113,0.018642,0.06487,0.03404,-0.2326,0.53372
-0.22277,-0.41942,-0.38114,-0.13332,-0.059159,-0.098473,0.60646,0.36053
0.16572,0.54004,0.49315,0.12036,-0.089412,-0.12602,-0.51435,-0.3486
0.42807,0.045867,0.0090095,0.2427,0.29577,0.25534,-0.20959,0.53627
-0.22031,-0.13048,-0.04229,-0.084942,-0.058961,-0.049381,0.30448,-0.61944
-0.079242,0.0011224,0.020587,-0.017866,-0.036189,-0.026087,-0.27343,0.090869
-0.01134,0.0077383,-0.19219,-0.1029,-0.066032,0.02672,0.31175,-0.53262
0.05745,0.22793,0.20201,0.034191,-0.00099959,-0.0017537,-0.51895,-0.14753
-0.042241,0.068387,0.13965,0.04049,0.017101,-0.034298,0.055696,0.55977
-0.075032,-0.10526,-0.013709,0.10974,0.1278,0.046098,0.43628,-0.25216
-0.096202,-0.37407,-0.2286,-0.11889,-0.052407,-0.13492,0.37558,0.33244
0.13433,-0.077577,-0.24878,-0.15419,-0.17991,-0.060328,-0.24074,0.10974
0.16792,0.3198,0.10438,0.011249,-0.019835,0.11548,-0.46483,0.028436
0.13337,0.19812,0.33041,0.072961,-0.0086859,-0.019626,-0.10718,0.14224
-0.24676,-0.35055,-0.054895,0.094158,0.19071,0.12969,0.23993,-0.68687
0.42282,0.23591,-0.019707,0.060191,0.048277,-0.10757,0.17113,0.75908
-0.46106,0.052143,0.038417,-0.074796,-0.075808,0.026377,0.16335,-0.84313
-0.39026,-0.30618,-0.16859,0.010385,0.084371,0.14004,-0.23664,0.29977
-0.12045,-0.086481,0.016491,-0.089894,-0.1355,-0.01808,-0.08393,0.075417
0.46893,0.1827,-0.15558,0.015306,-0.0017625,-0.145,-0.050987,0.16237
0.20963,0.050435,0.15931,0.0056565,0.0080527,-0.031315,0.20533,-0.070631
-0.020579,-0.13051,0.18754,-0.0098086,-0.036826,-0.045179,-0.26871,-0.29052
0.28726,0.58498,-0.079499,0.054204,-0.0046145,0.031905,0.34661,0.48012
-0.5318,-0.44532,0.020856,0.063995,0.15069,-0.096477,-0.074402,-0.12122
0.050775,0.010197,0.025905,-0.0048992,-0.016845,0.34411,-0.20456,0.12469
0.31233,0.03405,-0.15995,-0.0050691,-0.031027,-0.098217,-0.22481,-0.46621
-0.33731,-0.61942,-0.28828,-0.25771,-0.1419,-0.047202,0.51939,0.041124
0.28567,0.77346,0.32734,0.10377,0.010156,-0.19715,0.22129,0.035323
-0.46171,0.093607,0.030383,0.11814,0.10533,0.14792,-0.77773,-0.080719
0.20113,-0.21416,0.33701,0.043285,0.042754,0.042944,0.21534,0.10049
0.0096536,-0.21135,-0.24353,0.012405,0.018504,0.081546,0.50328,0.1847
0.028839,0.081025,-0.02144,-0.091033,-0.12288,-0.11949,-0.30559,-0.15784
-0.011408,-0.16943,-0.40784,-0.063023,0.064672,0.08769,0.15612,0.34644
0.20495,0.14298,0.092664,0.003725,-0.058827,-0.024089,0.15572,0.33321
-0.23297,0.18631,0.029825,0.055622,-0.0084735,-0.29138,-1.0068,-0.5261
0.25533,-0.059702,0.25705,0.039014,0.075457,0.17578,0.26656,-0.10776
-0.12555,-0.20269,-0.15515,0.025047,0.036851,-0.060861,0.034935,-0.090916
-0.19537,0.069827,0.26023,-0.12638,-0.061892,0.20858,0.73197,-0.16608
0.10037,0.11545,-0.13319,0.014534,-0.041427,0.060838,-0.22575,0.58366
0.15948,0.41542,0.66777,0.14284,0.0039377,-0.30258,0.24059,-0.22285
-0.10487,-0.44037,-0.63069,-0.07021,0.0266,0.31982,-0.081015,0.25815
0.017303,0.15372,-0.016516,0.02293,0.017923,-0.15908,-0.42723,-0.55443
-0.23272,-0.50824,-0.53031,-0.055299,0.10989,0.44015,-0.12888,-0.60634
0.089485,0.10368,-0.18678,-0.040246,-0.081027,-0.36583,0.046059,0.4455
0.18613,0.24761,0.64996,-0.026492,-0.17252,-0.62137,0.12737,0.089584
-0.029742,-0.16838,0.015562,0.094738,0.1321,0.19286,-0.3229,0.65283
0.23764,0.38972,0.28959,0.10436,0.075173,0.15935,0.90658,0.47916
-0.52071,-0.21558,-0.14142,-0.16955,-0.15534,0.40717,-0.40196,0.031401
0.14733,-0.12204,0.24037,0.085743,0.09751,-0.068604,-0.012944,-0.44289
0.23326,0.40699,-0.49418,-0.027707,0.01422,0.045613,-0.01896,-0.68993
-0.013043,-0.32246,-0.080363,-0.063867,-0.052856,-0.11832,-0.34097,-0.0015532
-0.0050961,-0.028693,0.065859,0.071874,0.029753,-0.13342,-0.06443,-0.40819
-0.43697,-0.29029,-0.22193,-0.096145,0.0046793,0.19959,0.36514,0.18154
0.20874,0.50873,0.882,0.136,-0.018511,-0.23282,0.017028,0.13688
0.027842,-0.039751,-0.53072,0.011082,0.069501,0.05787,0.42051,0.74437
0.1316,-0.18025,-0.20392,-0.10347,-0.075298,-0.17316,-0.68501,0.042032
0.12298,0.0065147,0.072296,-0.0046715,-0.0001911,0.21343,0.21283,0.013186
-0.21621,-0.23202,0.031821,-0.013349,-0.033787,0.10831,0.079493,-0.016286
0.12155,0.61753,0.31535,0.10403,0.026535,-0.24521,-0.41596,-0.55816
-0.12268,-0.16514,-0.068795,0.033921,0.086551,0.25621,0.50585,-0.35262
0.05722,-0.064988,-0.1589,-0.01382,-0.026031,-0.20577,0.11775,-0.040122
0.12805,-0.1283,-0.24307,-0.071385,-0.03029,0.0034471,-0.46233,0.53401
-0.36525,-0.32205,0.18744,-0.11597,-0.098326,0.017903,-0.083847,0.22587
0.020974,0.036066,-0.085358,0.078751,0.066625,0.1741,0.14699,-0.27394
0.21513,0.23031,0.14207,0.020775,0.058301,0.050101,0.46065,0.79455
0.099274,0.20087,0.11192,0.046558,-0.0060311,-0.1437,-0.41221,-0.49621
0.16535,0.2464,0.28482,0.0162,-0.009037,0.021723,0.43851,-0.22115
-0.21906,-0.35909,-0.33965,-0.030444,-0.0051944,-0.22756,-0.87476,-0.41412
-0.084198,-0.0069542,-0.16792,-0.014508,-0.041109,0.11619,0.10304,0.049936
-0.43627,-0.089467,-0.090299,-0.029135,-0.030522,-0.024713,0.59109,-0.23263
0.69548,0.07874,0.12847,0.051104,0.11286,0.23341,-0.10704,0.95364
-0.32752,0.081526,-0.018122,-0.023556,-0.071546,-0.10834,0.25608,-0.15936
-0.027063,-0.051464,0.018078,0.012555,0.010311,-0.017658,-0.065277,-0.30877
0.058611,-0.31329,-0.1215,-0.067246,-0.0085466,-0.040631,-0.55932,0.071741
0.10891,0.17875,0.35213,0.072723,0.043841,-0.24731,0.028461,-0.093767
0.091207,0.28464,0.11751,0.0024342,-0.066957,0.35412,0.49283,0.7812
0.089245,-0.15864,-0.13985,0.041837,0.088568,0.04389,-0.42451,-0.42901
-0.25876,0.045558,0.14018,-0.10626,-0.10703,-0.10926,0.082338,-0.50686
0.045267,-0.14817,-0.66167,0.057954,0.11158,0.088178,0.14887,-0.36762
0.063083,0.29294,0.42214,0.0031917,-0.052728,-0.045172,-0.072845,0.44104
-0.06383,-0.14523,-0.12392,0.0030423,0.040544,0.020778,0.33523,0.52026
-0.21578,-0.23464,-0.17349,-0.098448,-0.10861,-0.28463,-0.55293,0.1589
-0.060913,0.15097,0.33045,0.081895,0.039026,0.070398,0.0075792,-0.72942
0.19398,-0.13599,-0.015672,0.020953,0.038375,0.14969,0.36186,-0.30193
-0.22099,-0.025087,-0.045437,-0.054551,-0.032175,-0.091941,0.04861,0.61932
0.50079,0.27963,-0.085506,0.027166,0.00724,0.0033762,-0.22335,0.17244
-0.0081445,-0.036451,0.2862,0.023537,-0.023053,0.10858,-0.028004,0.13562
-0.086379,0.11724,-0.29084,0.043309,0.11895,0.13017,0.20794,-0.36147
0.089726,-0.23193,0.095213,-0.093981,-0.082752,-0.14345,-0.52864,-0.43076
0.022644,0.23249,-0.13668,0.071852,0.043269,0.036442,0.74937,0.63736
-0.23008,-0.086337,0.22151,-0.022246,-0.042477,-0.042602,-0.15739,0.030781
-0.17971,-0.025847,0.2456,0.0063446,-0.004305,-0.022409,0.076894,-0.42008
-0.09307,-0.273,-0.34673,-0.053057,-0.014078,0.057535,-0.46199,-0.18003
-0.054907,0.057708,-0.15654,-0.020066,-0.024609,-0.091204,-0.28749,0.10751
0.32849,0.087874,-0.017614,-0.010842,-0.0040942,0.0018117,0.36237,0.088344
0.1315,-0.16937,-0.043713,0.02264,0.055955,-0.020355,0.14142,0.64183
-0.024727,0.23639,0.1286,0.050163,-0.039138,-0.19416,0.00055993,-0.3465
-0.074792,0.082419,0.2375,0.056798,0.078254,0.084043,0.22575,-0.14165
-0.10346,-0.082732,-0.13619,-0.035363,-0.013598,0.28382,-0.30502,-0.30773
0.13856,0.11509,-0.0070888,-0.046912,-0.072678,-0.087853,-0.2785,0.34713
0.0082742,0.047667,0.16295,0.03709,0.072453,0.12266,0.35854,0.10726
-0.04457,-0.16486,-0.19895,0.012606,0.038405,0.23174,0.39192,-0.087254
-0.0079323,0.12827,0.20823,-0.02753,-0.12071,-0.2182,-0.30752,-0.15536
0.0059163,-0.26537,-0.15841,-0.029363,0.071238,-0.20768,0.076524,0.28195
0.16738,0.47123,0.29945,-0.024564,-0.1438,-0.4267,-0.30252,-0.37124
-0.34343,-0.59265,-0.59202,-0.036647,0.10136,0.40552,0.11705,0.22078
0.046117,0.067815,0.010533,0.1299,0.095942,0.017266,-0.23358,0.0049994
-0.22265,-0.20805,-0.25132,-0.13393,-0.1364,0.099554,-0.20254,-0.39823
0.24541,0.4592,0.92099,0.18784,0.092006,0.024113,0.26935,0.21826
0.142,-0.090113,-0.58805,0.0095083,0.046838,0.0065319,0.36606,-0.047619
-0.13154,0.11598,0.54269,-0.16886,-0.14702,-0.32434,-0.12836,0.55773
0.24599,0.10222,-0.57787,-0.027093,0.025822,-0.036451,-0.041664,0.19315
-0.070461,-0.3041,0.040708,0.036104,0.041573,0.51907,0.11597,-0.27277
0.0096033,0.41789,0.59893,0.082886,0.024895,-0.010794,-0.05092,-0.89445
0.020882,-0.055565,0.078534,0.07387,0.045854,-0.011808,-0.0096199,0.30402
0.0057921,-0.17308,-0.32691,-0.038015,-0.028416,-0.057996,0.18641,-0.046068
-0.20324,-0.27266,-0.7111,-0.11994,-0.072699,-0.29354,-0.53856,0.40446
-0.1783,0.012599,0.27978,0.00024397,-0.023995,-0.10384,0.18733,0.074198
0.0027201,-0.065623,-0.053127,-0.036306,-0.045631,0.033482,0.20774,0.24814
0.11533,-0.066752,0.37386,0.067963,0.11323,0.20489,-0.45878,-0.21095
0.022088,0.32527,-0.09774,0.016853,0.0080337,0.076321,0.1776,-0.17431
0.17956,-0.066287,-0.049473,-0.0016389,-0.016979,-0.060598,0.061278,0.11303
-0.042264,0.4163,0.34894,0.075177,0.030482,-0.086084,0.17587,-0.62322
0.17851,-0.1102,0.11259,-0.0028641,-0.013977,0.087762,0.0117,0.3998
0.013956,0.10206,-0.31632,-0.048737,0.0051865,0.02431,-0.13047,0.061156
-0.21663,-0.49699,-0.14585,-0.0631,-0.053599,-0.1206,0.14132,0.57005
0.063184,0.12053,-0.1318,0.0080476,0.011791,0.19051,0.052442,-0.42561
-0.39061,-0.3918,0.064117,-0.015562,0.028622,-0.029171,0.060647,-0.39494
-0.0092064,0.2771,0.18769,0.014132,-0.034921,-0.04797,-0.44779,-0.28459
0.29242,0.13505,0.18986,0.081369,0.039753,0.037982,0.1007,0.32393
0.25612,0.081636,0.078638,0.014386,0.018554,0.024042,-0.14941,0.70561
-0.047647,0.095357,-0.38555,-0.022414,-0.050952,-0.34791,0.51794,-0.02413
-0.09498,-0.22,-0.34649,-0.12223,-0.04277,0.040244,0.13282,-0.22954
-0.14299,0.2393,0.33458,0.098464,-0.026072,0.041994,-0.46063,-0.25374
-0.19082,-0.57957,-0.32049,-0.023564,0.14086,0.26913,-0.15138,0.066937
0.25463,0.73112,0.83426,0.043786,-0.033286,0.013077,-0.22613,-0.12694
-0.047981,-0.47602,-0.34617,-0.058099,0.022294,0.12719,0.55188,-0.13072
0.12857,0.12782,0.037525,-0.01617,-0.0439,-0.21565,-0.073509,0.12986
0.081478,0.027298,0.17884,0.029172,-0.02911,-0.10905,0.34338,0.48965
-0.25181,-0.035449,-0.48107,-0.00038387,-0.01999,-0.053547,-0.58143,-0.2764
0.073545,-0.045265,0.18485,0.058603,0.052826,0.059249,0.31366,-0.25065
-0.044797,0.035994,-0.18141,-0.02145,0.055491,0.18909,0.1349,-0.17046
0.063983,-0.019665,0.18738,-0.01528,-0.020786,-0.079268,-0.105,0.086486
-0.12478,0.12955,0.13761,0.0053939,-0.051801,0.034471,0.068767,0.25901
0.16102,-0.096921,-0.029591,-0.0076195,-0.038078,-0.11097,-0.31245,0.32678
0.013834,-0.17057,-0.41738,-0.078794,-0.018901,-0.062708,-0.12147,-0.13851
-0.044069,0.32769,0.40447,0.072501,0.013602,-0.0080961,-0.3465,0.089574
0.048991,-0.22956,0.094753,-0.014802,0.11438,0.24086,0.64232,-0.27918
-0.097903,0.28107,-0.20168,0.034656,-0.0052426,-0.02605,-0.27545,-0.26178
0.039079,0.20292,0.17677,0.034156,0.0067284,-0.057999,0.57516,0.16423
0.093889,-0.54879,-0.59223,-0.093329,-0.068007,-0.10418,0.05432,-0.048222
-0.17385,-0.12758,0.25448,0.020657,-0.033685,0.023557,-0.43343,-0.3517
-0.18374,-0.0059912,0.088138,-0.0054203,-0.0070464,-0.11195,0.0065577,0.55167
0.24621,0.023723,0.16081,-0.029817,0.0045063,0.1142,0.041258,0.42062
0.071137,0.3643,0.15966,0.065471,0.0091138,0.01387,0.16583,-0.40065
0.057886,-0.012486,-0.25386,0.030852,0.11634,0.18743,-0.18589,0.1188
-0.17612,0.1054,0.55655,0.0069213,-0.048797,-0.069856,-0.070313,-0.20957
0.1261,-0.048778,-0.59383,-0.03018,-0.017696,0.052807,-0.31509,-0.41086
-0.029344,-0.09525,-0.084614,-0.042096,-0.0093694,-0.2273,0.23836,-0.010644
-0.011922,0.055457,0.065379,0.0015787,-0.024123,-0.14539,-0.015893,0.51205
-0.050572,-0.3747,-0.36376,-0.040627,-0.038798,0.20481,0.21472,-0.0095292
-0.030154,0.14153,0.42583,0.041494,0.016705,0.097722,0.10467,0.39075
0.040168,0.24987,0.17907,0.067707,0.056307,-0.0039411,-0.055874,-0.1799
0.050588,-0.12877,-0.19396,-0.0013697,0.025237,0.034912,0.21691,-0.46483
0.10321,0.0064277,-0.017299,-0.064256,-0.021873,-0.41616,-0.17253,0.2864
-0.25373,0.071919,0.65018,0.074508,-0.014747,0.051077,-0.12497,-0.28335
-0.06516,-0.42103,-1.0092,-0.15504,-0.0080901,0.54722,-0.44709,-0.24826
-0.047757,0.086145,0.083828,-0.002431,-0.064392,-0.1229,0.26633,-0.064276
0.355,0.50337,0.54631,0.16569,0.050769,-0.23378,0.50779,0.60182
0.12089,0.021047,-0.32663,-0.056442,0.024981,-0.0061949,-0.68207,-0.0036441
-0.13244,-0.10905,0.19645,0.073728,0.092752,0.080589,0.42572,0.57489
-0.10056,-0.11283,-0.052281,-0.060766,-0.081678,0.086273,0.0056732,-0.48251
-0.057693,-0.27195,0.18879,-0.069219,-0.099644,-0.022735,-0.34627,-0.19287
-0.12201,-0.08751,-0.068348,0.0014715,0.06256,-0.16186,0.14448,-0.39481
0.11181,0.45446,-0.46695,0.026212,-0.024467,0.16886,0.32144,-0.1072
0.041454,-0.07766,0.26515,0.020484,0.037959,-0.1463,-0.043646,0.76822
0.010202,-0.045378,-0.27024,0.03098,0.054677,0.082907,-0.10208,-0.22471
0.072473,0.05698,0.35808,-0.028463,0.0022661,-0.022713,-0.076114,-0.057396
0.095337,-0.069458,0.097806,0.013778,-0.088165,-0.3109,-0.06294,-0.13838
-0.30405,-0.059167,-0.16557,-0.037869,0.017485,0.073166,0.028499,0.2102
0.10089,0.016389,0.12521,-0.0039485,0.0063479,0.48298,-0.12355,0.18233
-0.025803,-0.015189,-0.1684,0.04505,0.0030176,-0.0031532,0.2388,-0.55069
0.026758,0.049371,0.17387,-0.015965,0.014911,-0.14477,0.24992,0.50372
0.15683,0.12492,-0.12825,-0.0073052,0.0026321,-0.023268,-0.73591,0.1205
-0.14371,-0.091903,0.035171,0.0086271,0.020635,-0.017792,0.27689,-0.51013
-0.015891,-0.14627,-0.16371,-0.046117,-0.063988,-0.1247,0.13557,0.2171
0.032068,0.09651,0.12681,0.039625,0.045695,-0.042656,0.13995,-0.45138
0.11705,-0.025818,0.0082816,0.031717,-0.017297,0.13262,-0.19237,0.3087
-0.042258,0.19133,0.13682,-0.0071352,0.036419,-0.013243,0.31125,-0.28109
-0.070579,-0.14962,-0.019198,-0.014301,-0.058413,-0.033657,-0.21683,0.59262
-0.19385,-0.11895,-0.20268,-0.075697,-0.043643,-0.12153,-0.30148,-0.087323
