0.015392,0.082461,0.29025,0.042588,0.01247,-0.0055986,-0.0060528,0.0070087
0.040603,-0.14801,0.122,0.10799,-0.0027889,-0.014089,0.01058,0.016215
-0.0020095,0.058619,-0.37195,-0.17281,-0.058003,-0.038558,-0.01856,-0.021082
-0.035384,0.0053703,0.3555,-0.11152,-0.020204,-0.0083535,0.0001682,0.0043886
-0.14668,-0.21523,0.015348,0.01988,-0.013995,-0.0089857,-0.0038239,-0.048081
0.069117,0.14615,0.05282,-0.089245,0.00022858,0.022465,0.039351,0.024564
0.024996,0.05812,-0.024447,0.16446,0.069881,0.031602,0.058857,0.011308
0.0013242,-0.17435,-0.81827,-0.038097,-0.0077848,-0.012757,-0.14898,-0.0098371
0.091226,0.3321,0.64753,0.17058,0.032961,0.037614,0.11848,0.054704
0.036542,-1.6061e-05,0.091043,0.22722,0.059101,0.018191,-0.12349,0.025022
-0.1862,-0.31065,-0.074777,-0.22924,-0.13294,-0.09509,0.031216,-0.10693
0.10298,0.26802,0.29683,0.049084,0.08126,0.072123,0.098278,0.057078
-0.079631,-0.44313,-0.8979,-0.51796,-0.11134,-0.051013,-0.0079615,-0.029916
0.079423,0.22823,1.0339,0.39633,0.046695,0.0039587,-0.052669,-0.0006864
-0.059292,0.032384,-0.32391,-0.23206,-0.015137,-0.0051463,-0.019633,0.0043239
0.0054963,0.14125,-0.18374,0.19869,-0.02337,0.0078925,-0.025388,0.00885
0.087485,0.21096,0.62635,0.0097149,0.08465,0.012313,0.001009,0.01325
-0.07018,-0.26652,-0.93877,0.022369,-0.011196,-0.077248,0.067895,-0.02118
-0.029403,-0.18965,-0.17247,-0.12187,-0.0060495,0.11474,0.15217,0.030858
0.061539,0.051231,0.35187,0.28062,0.037713,0.018366,-0.27733,-0.010113
0.022676,0.058443,0.56914,-0.035727,0.034261,-0.022435,0.091761,0.0044419
-0.060713,0.067507,-0.30514,-0.032,-0.14907,-0.04672,-0.030023,-0.042666
0.037021,-0.12338,-0.37739,-0.25522,-0.019839,-0.031188,-0.057308,0.020351
-0.060132,0.026034,0.38431,0.060337,0.10982,0.063019,0.32954,-0.0019675
0.068776,0.071147,0.024958,-0.16296,-0.064332,-0.029925,-0.24519,0.030822
0.01681,0.18384,0.267,0.28663,0.12222,0.049201,0.0069807,-0.0064736
-0.021046,-0.097655,-0.17638,-0.06655,-0.14267,-0.10595,-0.070598,-0.0046564
-0.075958,-0.20458,-0.4752,0.12977,0.055186,0.05927,0.084476,-0.026368
0.016605,-0.053103,-0.17372,-0.01473,0.012527,0.0057532,-0.019763,0.0064266
-0.0082436,0.23729,1.0293,-0.27375,-0.013269,0.0068738,0.062502,0.0077471
0.07689,0.0003619,-0.59371,0.34409,0.031805,0.031264,-0.027397,0.0010251
-0.047589,0.11727,0.021207,-0.18582,0.0062916,-0.038428,-0.054308,-0.0059215
-0.014075,-0.20974,-0.1534,0.064855,-0.035956,-0.0070688,0.0059189,-0.0052883
0.052429,-0.14466,-0.15914,-0.18638,0.0059417,0.054895,0.020979,0.049763
-0.012586,0.071335,0.15812,0.17674,0.045661,-0.032262,-0.032378,-0.043958
0.055703,0.065072,0.24084,-0.0025201,-0.088679,-0.065314,0.033149,0.0025361
0.02194,0.041924,-0.11102,-0.067844,-0.037321,-0.0049604,-0.033014,0.025129
-0.16949,-0.081776,-0.014002,-0.026519,0.051993,0.047571,0.35422,-0.030863
0.097945,0.23492,0.74872,0.13017,0.094186,0.069208,-0.44672,0.022146
-0.082235,-0.2255,-0.7174,-0.088838,-0.12083,-0.080363,0.1024,-0.01879
0.08709,0.19362,-0.026674,0.028539,0.071662,0.044371,0.032355,-0.012797
-0.073127,-0.14086,0.027135,0.0067529,0.00013882,-0.0096647,-0.078772,0.0013446
0.0082899,-0.073618,-0.14533,-0.059724,0.0083391,-0.016,0.12103,0.00044433
0.050959,0.065944,0.032626,-0.076824,-0.036893,-0.029533,-0.047096,0.039345
-0.014777,-0.012645,0.030405,0.22095,0.027925,0.027574,-0.035275,-0.014751
0.069198,0.040855,-0.24338,-0.081039,-0.032261,-0.0012448,-0.04567,0.017708
-0.025339,-0.063707,0.34739,0.016342,0.01629,0.016515,0.12553,-0.011978
-0.0019357,0.10261,0.14199,0.058951,0.0090591,0.010285,-0.021433,-0.033828
-0.017437,0.10979,0.37739,-0.14945,-0.030718,-0.020106,0.052267,0.03777
-0.056787,-0.31554,-0.96058,-0.023546,-0.0013949,-0.0044094,-0.068109,-0.023992
0.012459,0.12401,0.41737,0.053664,0.019245,-0.012877,-0.0006844,-0.00048668
0.0027424,-0.023873,0.5105,0.0043529,0.023906,0.017162,0.073881,0.014562
0.00026894,0.062147,-0.51837,0.19642,-0.057142,-0.031231,-0.12644,-0.041192
0.005564,0.00032252,-0.21738,-0.29888,0.011008,0.014097,-0.031736,0.012177
0.073967,0.13535,-0.02499,0.027263,0.033419,0.044026,0.029878,0.065556
-0.020461,-0.13361,0.097285,0.042801,0.041498,-0.0037631,0.051003,-0.029261
-0.12102,-0.14211,0.22728,0.1231,-0.019531,-0.011993,0.040119,-0.02993
0.10841,0.047362,0.052244,-0.067964,-0.087461,-0.043171,-0.072335,0.03236
-0.035474,0.075042,-0.045459,0.039231,0.056018,0.019811,0.073689,-0.029914
0.017157,0.041727,-0.058698,-0.025157,0.0041671,0.020576,-0.029144,0.009716
0.046795,0.06353,0.1758,0.24547,0.014344,-0.0019571,-0.0055987,0.010497
-0.025587,0.0064021,0.13397,-0.39209,-0.023168,-0.0088601,-0.027553,-0.012081
-0.036816,-0.13866,-0.60619,0.022502,0.0008258,0.0075719,0.14699,0.019994
-0.011045,-0.060083,-0.0050662,0.0048907,-0.023045,-0.030859,-0.22446,-0.010535
0.0044419,0.015118,0.086963,0.040018,0.053833,0.032057,0.029583,-0.0099396
0.040864,0.14955,-0.031649,0.081952,-0.026046,0.00098856,0.018059,0.0061808
-0.042046,-0.054547,0.58597,0.045805,-0.020126,-0.022514,0.0608,-0.024626
-0.0092359,0.0055387,0.19882,0.034019,-0.0061734,-0.022851,-0.061467,-0.00075653
0.030803,-0.0046856,-0.66129,-0.21851,-0.030792,0.038998,0.29135,0.054351
-0.0069253,-0.09151,-0.26002,0.18674,0.1249,0.053602,-0.21713,-0.023428
0.034678,0.10579,0.74585,-0.047427,-4.3116e-05,-0.025958,-0.094955,0.0079618
-0.054691,-0.17746,-0.98826,-0.03876,-0.07766,-0.043426,0.01733,-0.015713
0.037797,0.15283,0.65381,0.016761,-0.0066061,-0.014337,-0.012605,0.0069415
-0.00035526,0.057225,0.1944,0.0092028,-0.021478,0.0068143,0.097332,-0.0023116
-0.02102,-0.0043473,-0.18004,-0.007055,0.010375,0.0046883,-0.018975,-0.012223
-0.0091229,0.044747,0.14678,0.0070835,0.026386,0.018681,-0.01666,0.0085959
0.042459,-0.039323,-0.013145,-0.018313,0.050018,0.033482,0.0036537,0.013555
-0.0076136,-0.14079,-0.62069,-0.051341,-0.051441,-0.044428,0.0034744,-0.012572
-0.034961,0.012919,0.36388,0.096277,-0.0044122,-0.011833,-0.056194,-0.030268
0.01468,0.05451,0.32455,-0.090372,-0.027498,0.013998,0.081975,0.023399
-0.015105,-0.046593,-0.71396,-0.048326,-0.019013,0.0015651,-0.020514,-0.007504
0.032054,0.039027,0.36654,0.14437,0.099239,0.020793,-0.0056301,0.017778
0.00028615,0.10202,0.5429,0.13579,0.0069605,-0.0069033,-0.0076373,0.0053912
-0.0082828,-0.21547,-0.69342,-0.10603,-0.022451,0.011774,0.097209,0.0096911
-0.0086415,0.15789,0.29652,-0.0038887,0.034374,0.045228,-0.027778,0.022356
-0.031469,-0.027579,0.53382,-0.14463,-0.22108,-0.12546,0.039279,-0.011893
-0.060784,0.008747,-0.90583,-0.23211,0.0079602,-0.015869,-0.23201,-0.070176
0.12219,0.046647,0.022544,0.27227,0.22138,0.085186,0.034965,0.026767
-0.037628,-0.040997,0.63845,0.24332,0.043993,0.0062088,-0.11084,-0.010362
0.044944,-0.069069,-0.80746,-0.20173,-0.04007,-0.018023,0.1529,-0.025341
0.072019,0.1712,0.8901,0.23415,-0.054518,-0.0028127,0.21043,0.099158
-0.058993,0.037679,-0.23422,-0.3081,-0.14801,0.020748,-0.094153,-0.011615
-0.028538,-0.26692,-0.94967,-0.11714,0.054345,-0.033325,-0.019633,-0.068304
-0.039991,0.039488,0.83398,-0.028426,0.013539,-0.009018,-0.18547,0.038751
0.0086179,0.11516,0.19074,0.32571,0.19072,0.085494,0.045754,0.012918
-0.12388,-0.22456,-0.33008,-0.069941,-0.023161,-0.015805,0.40485,-0.036242
0.11079,0.19532,0.46757,0.37082,-0.088633,-0.00072365,0.12304,0.047642
-0.12187,-0.28661,-0.78461,-0.43,-0.1381,-0.056899,-0.62985,-0.063507
0.1948,0.29221,0.19176,-0.35524,-0.046222,-0.10614,-0.065134,-0.025971
-0.01702,0.14285,0.39245,0.24345,0.14029,0.09399,0.17805,0.089818
0.031164,0.029552,-0.21879,0.0065194,0.046337,-0.034342,-0.31905,-0.075719
0.10363,0.10603,0.43886,0.37116,0.109,0.040351,0.38528,0.055278
-0.12951,-0.29476,-0.70937,0.016654,-0.039557,0.052502,0.71733,0.11536
0.0097545,-0.05824,0.3177,-0.14334,-0.056346,0.22072,-1.1003,-0.12223
-0.0030851,0.0015672,-0.11418,-0.28096,-0.098208,-0.25995,0.52893,-0.001241
-0.074336,-0.0059879,0.1439,0.088259,0.045586,-0.045982,-0.21413,-0.037058
-0.15606,-0.33733,-0.24961,-0.16022,0.00036185,0.011051,0.38905,-0.057329
-0.074381,0.12701,0.036884,0.25565,-0.037714,-0.041656,-0.4989,0.047966
0.26688,0.42851,0.39805,0.016478,-0.020538,0.007496,0.080693,0.021674
-0.036265,-0.14199,-0.52157,-0.05668,0.021962,0.073464,0.023655,-0.026325
0.18174,0.33796,0.35933,0.2475,0.12212,0.18063,0.67907,0.24794
0.069689,-0.0072967,0.30056,-0.28203,-0.11012,-0.1624,-0.72068,-0.14002
-0.052961,-0.24968,-0.50187,0.0026152,0.1376,-0.041114,-0.12217,-0.057812
-0.25052,-0.31294,-0.087496,0.03028,-0.049628,-0.14304,-0.0024814,-0.084149
0.0059223,0.059221,0.44861,0.16719,-0.024772,0.14066,-0.049041,-0.024364
-0.043807,-0.11042,-0.45781,-0.33752,-0.094207,-0.003601,0.98074,0.11314
0.05142,0.24875,0.37892,0.20302,0.10762,0.24302,-0.63148,0.046608
0.0011644,-0.0029003,0.066645,-0.0005604,-0.053372,-0.04303,0.19263,-0.0055742
0.10165,0.042234,-0.87225,-0.12793,-0.046591,-0.30865,-0.97672,-0.20774
0.11858,0.080695,0.66327,0.2822,0.16709,0.13251,0.97731,0.25247
0.044901,0.043027,0.048182,0.00388,-0.099033,-0.048165,-0.28177,0.046943
-0.28203,-0.10159,0.079756,-0.20427,-0.062367,0.087156,0.13606,-0.17567
-0.09463,-0.095166,0.26657,-0.21634,-0.1431,-0.085446,0.10534,-0.039919
0.25008,0.26562,-0.56994,-0.0079731,0.1605,-0.095599,0.063371,0.09553
-0.14384,-0.10467,0.017071,0.35907,0.18579,0.20698,-0.45829,-0.080929
0.0071175,-0.47077,-0.05649,0.13525,0.0040671,0.019318,-0.044714,0.056678
0.11087,0.16846,0.27382,0.11755,-0.040559,-0.0088589,-0.030546,0.040479
-0.074051,0.071869,-0.029411,-0.35825,-0.16702,-0.064384,0.13258,-0.074227
-0.048033,-0.11169,-0.34033,-0.43314,-0.14154,-0.069138,0.62568,0.0096314
0.3124,0.81241,0.21567,0.37682,0.11306,-0.054987,-0.49574,0.065198
-0.22955,-0.72031,-0.12898,-0.061736,0.15817,0.28951,0.32325,0.029206
0.065369,0.42762,0.83324,0.30517,0.0081894,-0.10726,-0.59734,-0.083849
-0.079206,-0.19292,-0.35527,-0.078155,-0.095976,-0.051244,0.15595,-0.0018308
-0.056356,-0.21063,-0.49615,-0.16613,0.024141,-0.05131,0.30902,0.031827
0.061998,0.12946,0.15653,0.063193,0.0081291,-0.053427,-0.060514,0.12553
-0.03725,-0.11152,0.030021,0.15526,0.0506,0.10624,-0.30453,-0.18998
-0.088148,-0.097312,0.030412,-0.17222,-0.12213,-0.079979,-0.1029,-0.047535
0.14467,0.30678,0.15999,-0.0055752,0.021455,0.044544,0.41915,0.084566
-0.064047,-0.33383,-0.54556,-0.00054605,0.028994,0.089626,-0.090391,-0.097634
0.060338,0.17947,0.16955,0.023925,0.0031704,0.024381,-0.038624,0.094134
0.1593,0.49021,0.67074,0.11675,0.031208,-0.096278,0.065448,0.082314
-0.15743,-0.595,-0.71656,-0.59475,-0.24507,-0.061322,0.017353,0.015544
-0.030562,-0.14587,-0.020509,0.15708,0.13619,0.043354,0.081564,-0.059484
0.094256,0.49307,0.36868,0.69389,0.33949,0.10846,-0.031537,0.09116
-0.21297,-0.25821,-0.16086,-0.14811,-0.11174,0.0092469,-0.3919,-0.032997
0.071165,0.16809,0.7922,0.099072,-0.085075,-0.081996,0.22842,-0.19001
0.21273,0.33983,-0.38783,-0.36292,-0.17475,-0.20373,-0.34021,-0.02813
-0.20137,-0.51023,-0.51198,-0.074763,-0.045255,0.074391,0.28769,0.04706
0.025693,-0.28072,-0.31172,-0.076744,0.068902,0.065418,0.17719,0.13038
0.075459,0.38929,0.76535,0.18544,0.16788,0.18366,0.34579,0.066853
-0.034442,-0.14549,-0.30335,-0.068924,0.0020593,0.085194,-0.36182,-0.017294
-0.052174,0.033255,-0.25619,-0.0026377,-0.084305,-0.27748,-0.2426,-0.1211
-0.15608,-0.26533,-0.079384,0.049928,-0.059539,0.016581,0.17911,-0.072169
0.23252,0.4781,0.45267,0.11358,0.060964,0.013172,-0.074655,0.12168
0.011593,0.039102,-0.020936,0.032798,0.003713,0.023836,-0.067959,-0.0010541
-6.3852e-05,-0.097908,0.13711,-0.30977,-0.020735,-0.0067789,0.10396,-0.03524
-0.039266,-0.14595,0.24906,0.30351,0.049441,0.11639,0.29924,0.041035
0.07849,0.11778,-0.88907,-0.090146,0.010217,-0.14551,-0.4518,-0.031807
0.014214,0.22774,0.57886,0.077358,-0.037821,0.0049658,0.31896,0.11948
-0.13308,-0.21902,-0.10209,-0.12575,-0.11119,-0.09539,-0.34197,-0.10032
0.017844,-0.3353,-0.22654,-0.075957,0.13323,0.093414,0.088658,0.026652
-0.04111,0.28343,0.61427,0.25752,0.10145,0.18941,0.27478,-0.077891
-0.082378,-0.1751,-0.48222,-0.14025,-0.081272,-0.033353,0.060021,0.032017
0.13045,0.080108,-0.19815,-0.119,-0.14859,-0.14482,-0.50897,-0.13446
-0.040657,0.098946,0.37215,-0.097986,0.025642,-0.004256,0.24724,0.096345
-0.046298,-0.25603,-0.72342,0.12877,0.013068,0.013289,0.2034,0.11696
0.11544,0.3692,0.9079,-0.037849,0.0024773,-0.061077,-0.4375,-0.06317
0.11731,-0.032152,-0.11425,0.19265,0.1042,0.1162,0.66062,0.049206
-0.0019218,0.10944,-0.43615,0.023399,0.060844,-0.0019817,-0.27513,0.0013201
-0.13423,-0.20853,0.52163,0.085746,0.012815,-0.0018837,-0.15777,-0.0040541
-0.015999,-0.060139,-0.52967,0.048913,-0.095362,-0.11048,-0.38421,-0.12409
-0.016619,-0.07465,0.51097,-0.32473,-0.12425,0.038861,0.43022,0.093092
0.041722,0.23621,0.0019328,-0.17898,-0.0049168,-0.0076389,0.13115,-0.088233
-0.068715,-0.013086,-0.28418,0.17906,0.12072,0.21804,-0.21742,0.04169
-0.059141,-0.19839,-0.28505,0.044989,-0.045305,-0.15981,0.15089,0.099195
0.071081,0.1661,0.61743,0.090732,0.176,0.12389,0.11089,0.029188
0.10459,-0.0018107,-0.69189,0.051952,-0.1375,-0.28268,-0.27607,-0.16043
0.090149,0.12398,0.37585,-0.13158,-0.016823,0.05809,-0.15259,0.023071
-0.13423,-0.33226,0.050426,0.12115,0.046567,0.021638,0.50237,-0.020964
-0.082197,-0.31624,-0.2278,-0.17115,-0.07903,0.06961,-0.10262,0.036662
-0.049017,0.34255,0.23827,-0.060344,-0.079776,0.10123,-0.14914,-0.013971
0.052259,-0.07039,0.050466,0.04165,0.022202,-0.015585,0.21338,0.12476
0.096876,0.55546,0.20741,0.042157,0.12635,-0.19438,-0.59306,-0.14056
-0.017326,-0.040155,-0.34059,0.31597,0.037851,0.080759,0.31555,0.041466
0.16139,-0.058252,0.12932,-0.31812,0.045598,0.083368,-0.26976,0.15465
-0.27519,-0.42874,-0.56645,0.12171,-0.093331,-0.05379,0.43446,-0.16121
0.12382,0.30042,0.96713,-0.13337,0.026203,0.083269,0.13319,0.02276
-0.018667,-0.27744,-0.82701,0.13221,-0.018843,-0.10704,-0.16463,-0.044069
0.069188,0.24562,0.30795,0.16589,-0.034068,0.016016,0.12712,0.052118
-0.035305,-0.032037,0.34894,-0.26819,-0.082385,-0.17237,-0.14847,-0.0088224
-0.12896,-0.4541,-0.63215,-0.091988,0.062929,0.21087,-0.29729,-0.070139
-0.078125,0.044821,0.046795,-0.093308,-0.074039,-0.045039,0.10904,-0.076505
-0.006452,0.27426,0.37286,-0.082427,0.03107,0.028642,0.17876,0.10541
0.2047,0.27113,0.20019,0.37295,0.19167,0.11131,0.28614,0.1242
0.025273,-0.12329,-0.35201,0.017388,-0.075962,-0.14132,-0.50653,-0.036118
0.1512,0.29052,-0.11063,0.25091,0.017505,-0.026837,0.20718,0.061123
-0.12063,-0.2113,0.11226,-0.19147,-0.0046227,0.086879,-0.26755,-0.11647
-0.017193,-0.22126,0.31638,-0.16158,-0.02557,-0.12104,0.022945,-0.0075379
-0.20314,-0.18461,-0.49904,-0.035264,-0.10054,0.13818,0.73531,0.066842
0.071109,0.11666,0.39935,-0.071344,-0.01908,-0.088517,-0.55229,-0.018456
-0.014752,-0.0061779,-0.20043,-0.16136,0.03099,-0.0039091,-0.12921,-0.16903
0.024108,0.085889,-0.24461,0.31901,0.088534,-0.021481,0.44927,-0.06321
0.079142,0.21129,0.2192,0.072412,-0.03406,0.039096,-0.41124,0.20706
-0.0049166,-0.0070768,0.1748,-0.2062,0.045917,0.053374,-0.031617,0.042056
-0.016247,-0.21195,0.02019,0.32659,-0.0076176,-0.08769,0.25972,-0.0020384
0.02228,0.17295,-0.26845,-0.14982,-0.038591,0.069074,-0.45124,-0.057249
-0.022032,-0.056749,0.074194,-0.065259,0.046591,0.070312,0.88276,0.063854
-0.016755,-0.088854,0.2823,-0.052357,-0.064621,-0.068763,-0.62826,-0.045877
0.006035,-0.039803,-0.25353,-0.040242,0.034142,-0.043916,0.09468,-0.036402
-0.032939,-0.15006,-0.16595,0.026699,-0.016178,-0.011747,-0.20528,0.027946
0.091578,0.27806,0.084418,0.032373,-0.097931,-0.027087,0.097806,0.036014
-0.074816,-0.17485,-0.056713,-0.33475,0.015964,-0.0039023,0.028173,-0.076085
-0.033178,-0.16297,0.23913,0.51959,0.10719,0.11278,0.76606,0.089338
0.11426,0.64298,0.30812,0.0092902,0.074431,0.0030441,-0.89142,-0.06928
0.007952,-0.24132,-0.30277,-0.0071581,-0.019815,-0.082755,-0.022473,-0.066849
-0.12514,0.081634,-0.21853,-0.093656,0.0039311,0.027505,0.15375,-0.0036941
0.020614,-0.053732,-0.11094,0.0060664,-0.049956,0.013559,0.11313,0.074779
0.040326,-0.25058,-0.0033244,-0.23269,-0.21303,-0.10914,-0.028129,0.029307
-0.05659,-0.17415,0.59669,0.12692,0.053594,0.13559,-0.083771,-0.045396
0.012686,-0.059346,-0.58422,-0.54003,0.14046,0.012861,0.101,0.12449
0.015062,0.25803,0.22729,0.78277,0.086632,-0.0013356,0.22784,-0.031547
0.037242,0.28632,0.53096,0.041687,0.017152,-0.032478,-0.27473,-0.006359
0.055922,-0.01292,-0.58766,-0.13718,-0.083604,-0.049591,-0.10259,-0.058608
-0.0075178,-0.045486,-0.16804,-0.15912,-0.09847,0.0020271,0.34619,-0.048437
-0.060312,-0.1549,0.023927,-0.015624,-0.050908,-0.072624,-0.53635,-0.03881
0.075977,0.041686,0.058441,-0.0031271,0.11376,0.10982,0.54131,0.095218
-0.16241,-0.35416,0.21678,-0.066706,0.051774,0.026583,-0.20674,-0.07574
0.0047236,0.25912,0.10059,0.30932,0.044406,0.029861,-0.3787,0.058192
0.02976,0.1237,0.10067,-0.24235,-0.14272,-0.08299,0.21577,-0.0025094
0.068546,-0.018427,-0.24365,0.028038,0.0060303,0.0085899,0.17998,0.04709
-0.043127,-0.081799,-0.16618,-0.051804,0.05318,-0.046961,0.0061743,-0.035302
0.1088,0.12019,0.083998,0.25199,0.045668,0.070449,0.39568,0.077971
-0.030297,-0.10128,0.015906,-0.15488,-0.00076839,0.087007,-0.32686,-0.020061
-0.11665,-0.15403,-0.38478,-0.10895,-0.11724,-0.099287,-0.48631,-0.017679
0.021632,0.28837,0.82043,0.20957,0.040157,-0.066959,0.23275,-0.12644
0.04079,-0.05679,-0.7197,-0.31697,-0.059776,0.058704,0.6229,0.020537
-0.0044532,-0.0029148,0.43951,0.20163,0.075069,-0.042725,-0.47506,-0.045391
0.12822,-0.065723,-0.0082728,-0.024076,0.030326,0.089745,-0.062272,0.18406
-0.14686,0.14634,0.23928,0.013329,0.024217,0.026623,-0.22379,-0.040407
-0.047985,-0.31006,-0.10949,0.12599,0.016998,-0.10681,-0.027309,-0.022646
0.027067,-0.033701,-0.56459,-0.014413,-0.023261,-0.013366,0.38253,0.0037379
-0.01464,-0.044775,-0.11166,-0.087484,-0.011098,0.11189,0.072423,-0.03093
0.15593,0.48795,0.54612,-0.061391,-0.048149,-0.14496,-0.078838,0.006606
-0.030626,-0.23774,0.042746,0.19783,-0.040223,0.1067,0.072164,0.046265
-0.018791,0.21705,-0.2291,-0.37848,0.021443,0.015147,-0.30123,-0.021298
-0.16729,-0.27247,0.13151,0.13353,-0.049345,-0.029307,0.12142,-0.094683
0.086757,-0.011885,-0.30273,-0.32678,0.02225,0.058904,0.27668,0.099213
-0.0066005,0.20807,0.59502,0.81221,0.21398,-0.033068,-0.25893,-0.03386
-0.0024346,-0.25528,-0.4477,-0.20691,-0.10626,-0.063267,0.012767,0.013267
0.11404,0.22887,0.13161,-0.21298,-0.14154,-0.16456,-0.19103,0.005464
-0.049064,-0.35679,-0.39453,-0.082666,0.084112,0.21784,0.15989,-0.026829
0.061399,0.28342,0.57385,0.22075,0.14767,0.092005,0.16668,0.087491
-0.048373,0.023802,0.39421,0.085424,-0.014821,-0.049599,-0.03765,-0.027196
-0.059489,-0.10473,-0.79465,-0.21731,-0.17043,-0.066077,-0.093143,-0.066551
-0.01201,0.022607,-0.11901,-0.19657,-0.039106,-0.074427,-0.13974,0.031934
-0.0079338,-0.11792,0.014302,0.045758,-0.020007,-0.012072,-0.11449,-0.020396
-0.0080502,0.28563,0.63681,0.24468,0.12105,0.081867,-0.00964,-0.058719
-0.035178,-0.26766,-0.41465,-0.13756,0.040621,0.097822,1.01,0.074211
0.13033,0.14287,0.017436,0.19755,-0.0028303,-0.066073,-0.72121,0.043518
-0.057452,-0.015317,-0.15161,-0.11559,-0.070958,0.019529,-0.0019781,-0.087363
0.17577,0.28797,0.50895,-0.099212,-0.053511,-0.044083,-0.25621,0.065029
-0.2084,-0.43206,-0.14868,0.044324,0.12063,-0.038264,0.061406,-0.053734
0.032708,0.13763,-0.15543,0.28406,0.061483,0.021499,0.3173,0.13433
0.071395,-0.040264,-0.026872,-0.16129,-0.08981,-0.044105,-0.14446,-0.089995
-0.0059773,0.02151,-0.099023,-0.18251,-0.028216,0.046725,0.22441,-0.016456
-0.10516,-0.063964,-0.098572,0.0093107,-0.066024,0.013343,-0.3393,-0.020754
-0.045909,0.051005,0.45864,-0.046813,-5.0509e-05,0.020325,-0.043421,-0.017537
-0.062134,-0.23172,-0.16219,0.14909,0.091441,0.0054826,-0.072031,0.039718
0.19796,0.10564,-0.40714,-0.14534,-0.010685,0.0001205,0.80463,0.1275
0.023214,0.32121,0.39446,0.27254,0.091344,0.01185,-0.9969,-0.20715
-0.032406,0.0069489,-0.13397,-0.035687,-0.095573,-0.045663,0.39181,0.036104
0.14706,0.19827,0.74016,-0.15728,-0.0021791,-0.040121,0.048651,0.045129
-0.1899,-0.5003,-0.93011,0.13276,0.018918,0.0044889,0.042102,-0.07826
0.048956,0.22645,0.3854,0.051733,0.037184,0.048565,0.056449,0.17376
-0.12974,-0.25857,-0.3369,-0.15926,-0.072871,0.013487,0.032855,-0.089706
0.015613,0.026416,0.13834,-0.10999,-0.053476,-0.02306,-0.22842,-0.017665
0.0085465,0.057519,-0.069678,-0.065701,0.048917,0.016684,-0.075068,0.068869
0.13108,0.15683,0.29962,0.2247,0.00074063,-0.015974,0.34169,0.067667
-0.029586,-0.14077,-0.19608,0.059705,0.060855,-0.011752,0.0051029,-0.17793
0.0046727,0.021053,-0.16347,-0.043246,-0.0039924,0.11541,-0.18564,0.019607
-0.077047,-0.11825,0.57913,0.011359,-0.036511,-0.11845,-0.57968,-0.065759
0.070436,0.2896,-0.34231,0.0062573,0.057897,-0.0095387,0.41254,0.098211
0.03415,-0.025602,0.056534,-0.065275,-0.048308,0.052439,0.33413,0.044028
-0.19309,-0.23425,-0.32691,-0.13228,-0.081388,-0.15023,-0.11594,-0.086402
0.084122,0.14761,0.1541,0.18042,0.052423,0.078768,-0.075716,0.012624
0.076258,0.070919,0.31772,-0.15089,0.0091218,0.068289,0.62781,0.076009
0.032352,-0.17092,-0.39311,0.20124,0.092908,0.037415,-0.92752,-0.0057123
0.037002,0.29293,0.26148,0.079503,-0.032822,-0.021845,0.19438,0.0011316
-0.091003,-0.096339,-0.34559,-0.22052,-0.032901,0.069544,0.35088,0.017226
-0.095316,-0.30309,0.44028,-0.036156,-0.16591,-0.21285,-0.49138,-0.16982
0.015058,-0.095209,0.10247,-0.18902,0.16121,0.11421,0.25956,0.13388
0.1378,0.38581,-0.49203,0.54638,0.096375,-0.012811,-0.069446,0.02092
-0.032011,-0.0080152,0.36837,-0.080635,-0.0091406,0.038151,0.39597,0.021872
-0.07223,-0.25957,-0.66641,-0.11712,-0.12415,-0.022315,-0.60989,-0.066456
-0.0055994,0.22697,0.64007,-0.19554,-0.12349,-0.10818,0.22585,-0.13416
0.020425,-0.11648,-0.13953,-0.072895,0.16503,0.11697,0.35696,0.11667
0.092884,0.079211,0.12976,0.20502,0.0073845,-0.002406,-0.44235,0.031081
-0.068413,0.049815,-0.042691,-0.14201,-0.049273,0.011052,0.29741,0.0088216
-0.0094599,-0.047693,-0.39837,-0.074279,-0.051741,-0.10761,-0.38412,-0.019348
-0.03434,-0.1273,0.12493,0.26757,0.1014,-0.014237,0.083745,-0.0059193
