0.040237,0.133,-0.26024,0.00051993,0.0040134,-0.016316,0.13102,0.029499
-0.12751,0.2842,0.077514,0.0012188,0.0057347,-0.18371,-0.54453,-0.037978
0.10214,0.0020696,0.19133,-0.012987,-6.3907e-05,0.21489,0.23405,0.011504
0.065452,-0.074693,0.091006,0.01238,-0.0057746,-0.19711,0.020452,0.013619
-0.26071,-0.054708,-0.1271,-0.016655,0.0039999,0.054918,-0.092589,-0.0084077
0.13178,-0.13027,0.14119,0.048121,0.052461,0.42995,0.29255,-1.4938e-05
0.079253,-0.023501,0.0073045,0.0033752,-0.024676,-0.5267,-0.12928,0.046592
-0.18349,0.10633,-0.24647,-0.12765,-0.094776,0.30128,-0.029951,-0.12631
0.10962,-0.010229,0.2313,0.12361,0.099867,-0.32825,-0.19023,0.083025
0.084009,0.19945,0.056581,-0.032051,-0.034506,0.038828,0.015714,-0.0283
-0.056908,-0.0067082,-0.13196,0.014592,0.017826,0.099491,0.096718,0.032137
-0.047363,0.0334,0.14002,0.013459,-0.0085594,-0.1052,0.014641,0.022336
0.034466,0.29294,-0.0043992,-0.0042061,0.011632,0.26251,0.23102,-0.010704
-0.046061,-0.42719,-0.19919,-0.022671,-0.014984,-0.17891,-0.22276,-0.020044
-0.086286,0.018474,-0.18665,-0.041689,-0.0177,0.45382,0.21548,-0.021282
0.2647,-0.29318,0.081002,0.025055,0.011683,-0.47246,-0.27518,0.024677
-0.17358,0.10758,0.16792,-0.0094677,-0.020268,0.20541,0.085818,0.00070528
0.051191,-0.073068,0.27131,0.097429,0.081953,-0.28723,-0.10051,0.00065265
-0.077344,-0.080768,-0.30251,-0.067874,-0.056624,0.0093906,0.0014533,-0.014419
0.12785,0.47967,-0.029181,-0.036319,-0.022094,0.12553,0.06351,-0.01315
0.20578,-0.036551,0.091315,0.028142,0.028951,-0.1036,-0.02366,0.0045033
-0.43691,0.20058,0.034651,-0.023056,-0.028977,0.15742,0.10719,0.022837
0.013132,-0.12948,0.064893,0.059718,0.045725,0.041012,0.018553,-0.0052578
-0.021093,-0.28664,-0.1245,-0.028806,0.0024625,0.13288,0.1244,0.021385
0.086523,0.014748,0.011656,0.023147,0.012596,0.10492,-0.16905,0.0085025
0.18048,0.028657,0.0034827,-0.011745,-0.033595,-0.47215,-0.11163,-0.028834
0.081212,0.017191,-0.2118,-0.048214,-0.050282,0.051051,-0.038766,-0.012982
-0.13376,0.032429,0.23362,0.092968,0.040819,-0.18344,-0.0043245,0.008881
0.018717,0.0026531,0.059946,-0.080542,-0.009894,0.25574,0.18024,0.013284
-0.13477,-0.1739,-0.1684,-0.021682,-0.0065468,-0.090874,0.031575,0.0083154
0.021507,0.19102,0.24592,0.05912,0.059294,0.37918,-0.035571,-0.044519
0.064703,-0.096579,-0.56258,-0.017076,-0.014929,-0.29509,-0.17731,-0.0038032
-0.02104,0.2929,0.44615,-0.046292,-0.05692,0.41654,0.051115,0.0063483
0.16334,-0.40492,0.029963,0.058222,0.027286,-0.19081,0.054698,0.02583
-0.30263,0.2717,0.0082554,0.00021866,0.034572,-0.48644,0.20666,0.00058149
-0.15139,0.073098,0.051189,-0.0012055,-0.0039912,0.18399,-0.08092,0.016853
0.39254,-0.21172,-0.062076,0.038347,0.020678,0.045728,0.14329,0.019896
-0.020617,0.057653,0.049314,-0.02984,-0.055814,0.16854,-0.39529,-0.045388
0.04777,0.12322,-0.42067,-0.065641,-0.046263,-0.10356,-0.071886,0.015626
-0.09736,-0.24936,0.26974,0.039702,0.041309,0.027172,0.083064,-0.016651
-0.13634,-0.19267,-0.11331,0.012135,0.027096,-0.14113,0.0087127,-0.018078
0.077855,0.38744,0.056442,-0.01605,-0.026443,0.36168,0.23842,0.01059
0.098062,-0.078985,0.16335,0.071982,0.060375,-0.20526,0.032118,0.029731
0.023873,0.22069,0.036875,-0.059849,-0.017134,-0.083073,-0.061643,-0.0078349
-0.076101,-0.23711,-0.21284,-0.036479,-0.032415,0.025859,-0.073087,0.022858
-0.046734,0.047202,0.039189,0.017337,-0.0011119,-0.15159,-0.017548,-0.06546
0.0022514,-0.044014,0.10468,-0.01524,-0.016997,0.064119,-0.10631,0.016718
-0.0068109,-0.018886,-0.0020004,0.014596,-0.0097753,0.26618,0.25357,0.051236
-0.025922,0.11484,0.31161,0.075893,0.051793,0.031849,-0.22026,-0.055008
0.071414,-0.0094651,-0.15068,0.004757,0.042709,0.055486,0.13507,0.011092
-0.072688,-0.12511,-0.6624,-0.089416,-0.068255,-0.25738,-0.13477,0.0078185
0.042886,-0.19946,0.23043,0.01202,0.00020623,-0.17259,-0.0074283,-0.002062
-0.011081,0.18297,0.013761,0.012017,-0.0018094,-0.064696,0.031723,-0.0028957
0.1792,0.24202,0.017559,0.0041455,-0.011653,0.16891,0.16939,0.052
-0.082484,-0.12346,0.52458,0.0038967,0.025549,0.2562,0.20189,-0.033039
0.038571,-0.093607,-0.019209,0.011218,0.00061918,0.050072,-0.37875,-0.00061615
-0.013481,0.16616,-0.098597,-0.028538,-0.023767,-0.42509,-0.040996,0.0082806
-0.059644,-0.21338,-0.51967,-0.013683,0.030641,0.21374,-0.041824,-0.037816
-0.23273,0.11696,0.19212,0.055964,0.02328,0.16126,0.13567,0.017329
-0.032028,0.23303,0.081519,-0.030334,-0.022418,-0.38866,0.055511,-0.044856
0.090447,-0.2966,0.24047,0.0010378,-0.020572,0.31967,-0.046423,0.0024983
0.1358,-0.10559,-0.36338,-0.045117,-0.041585,-0.059936,-0.012733,0.050341
0.16714,0.087407,0.21507,0.073423,0.047241,-0.11588,0.016525,0.020766
0.02023,-0.0056616,-0.054707,0.028475,0.034834,0.14201,-0.0056432,-0.00026119
-0.048083,-0.055091,-0.054004,-0.062909,-0.039898,0.10315,0.13093,-0.020756
-0.047108,0.14398,-0.085433,-0.036851,-0.0052609,-0.021633,-0.082821,0.013576
-0.119,-0.00073127,0.2439,0.067379,0.036983,-0.37182,-0.078002,0.00067586
-0.061673,0.11327,-0.18896,-0.03948,-0.022743,0.023618,-0.0043522,-0.013058
0.015318,0.040989,-0.0074846,0.0017673,-0.0049295,0.0036461,0.043485,-0.035779
-0.12158,-0.1318,0.14839,0.0034649,-0.0034563,0.23559,0.026134,-0.0051184
0.32616,-0.14763,0.083186,0.020171,-0.0027586,0.30825,-0.079544,0.032152
-0.15494,0.071393,-0.016586,0.051784,0.036248,-0.36239,-0.05398,-0.017415
0.038823,-0.10743,-0.31652,-0.081444,-0.026962,-0.19754,0.072707,0.049727
-0.020555,0.10548,0.28315,0.026734,-0.0047257,0.41151,0.27826,-0.0316
0.12097,0.14838,-0.21147,-0.045493,-0.029661,-0.25576,-0.41289,-0.026639
-0.052214,-0.22789,0.065379,0.014509,0.031233,0.20435,0.17952,0.057056
-0.056599,0.14131,0.0033145,0.050675,0.02185,-0.15626,-0.077234,-0.030405
-0.073398,-0.0017155,0.047101,-0.030538,-0.026488,-0.17612,0.027393,0.023458
0.012679,-0.063685,0.040348,0.013263,0.026836,0.16624,0.16451,-0.01584
0.18406,0.13406,0.23327,0.010388,0.0020635,0.11975,0.067594,-0.0078087
-0.13127,-0.050527,-0.62364,-0.023381,-0.022772,0.0046994,-0.22506,-0.0072427
0.088903,0.029414,0.65788,0.037095,0.022574,-0.18579,0.036181,0.0092493
-0.19506,-0.19783,-0.49939,-0.058064,-0.041588,-0.028079,-0.13289,-0.020817
0.016913,0.079271,-0.0085609,-0.035321,-0.027675,0.026986,-0.03627,-0.01927
0.08485,0.079108,0.20937,0.066322,0.048839,0.30997,0.17858,0.037352
0.080144,0.044148,0.17067,0.012483,0.016266,-0.29411,-0.12023,0.016184
0.050959,-0.27478,-0.16342,-0.0094337,-0.015847,-0.017993,0.083344,0.010818
-0.11861,0.18598,-0.0038594,0.0081947,0.015113,-0.0014964,0.27339,0.020995
-0.060269,0.013631,0.047495,0.0026089,-0.00019562,0.18493,-0.21531,-0.047351
-0.0076298,0.013956,-0.17381,-0.042102,-0.030572,-0.069121,-0.079868,-0.0070199
0.0083839,0.1096,0.11313,0.030053,0.025436,0.0080569,0.029178,-0.014475
0.1204,-0.12876,-0.021601,-0.023291,-0.019811,0.094073,0.19587,0.0083343
0.015239,0.11137,0.031341,0.016543,-0.0023943,-0.024029,-0.12786,0.014607
-0.13634,-0.27181,-0.071699,0.0089719,0.03069,-0.32438,-0.27033,-0.034521
0.12527,0.15097,0.083503,-0.030246,-0.02221,0.19214,0.097548,0.048722
0.017475,-0.16759,-0.081037,0.0084541,-0.0049058,0.0098269,0.0168,-0.00099752
-0.17168,0.25645,0.075374,0.0080818,0.0044405,-0.011442,0.15407,0.0040864
0.09638,0.04769,0.07616,0.02349,-0.0098274,-0.22239,0.0042783,-0.013925
0.056239,0.018291,-0.047469,9.3878e-05,0.014754,0.26839,0.015092,0.023285
-0.09585,-0.24605,0.28262,0.00042843,0.031261,0.20356,-0.0071603,-0.024728
-0.045842,0.035811,-0.73814,-0.030223,-0.0072389,-0.22155,-0.10865,-0.0093428
0.098777,-0.03449,0.17172,-0.021623,-0.053927,0.31305,0.0072195,-0.024131
-0.089804,0.074497,0.19995,-0.01294,-0.0072765,-0.32585,0.050283,0.0013607
0.069576,0.097418,0.002865,0.066015,0.046773,-0.052416,-0.0046631,0.020295
-0.0082917,0.003276,0.62716,0.011984,0.0066967,-0.17093,-0.058198,0.0012889
0.00448,-0.051494,-0.63862,-0.0032847,-0.0024255,0.14772,0.098372,0.037743
0.059783,-0.13709,-0.14674,-0.02676,-0.011726,0.053356,0.017667,-0.027161
-0.0084954,0.14498,0.05518,-0.035039,-0.021056,-0.015174,-0.19259,0.0246
0.03934,0.02137,0.083796,0.026611,0.016627,-0.041314,0.036893,0.0047603
-0.049146,-0.015587,0.31388,0.0098778,0.015552,0.27979,0.3855,0.0064196
-0.025805,-0.10629,-0.3013,-0.038185,-0.047582,0.072425,-0.40407,-0.072373
-0.039909,0.13237,-0.058189,0.023237,0.014802,-0.16479,0.21627,0.03399
-0.051971,-0.1978,-0.0499,0.014611,0.030822,-0.24607,-0.29857,-0.064738
0.017788,0.16114,0.21643,0.029773,0.023822,0.084864,0.045687,0.038405
-0.054586,-0.13474,0.15544,0.0062271,0.0014448,-0.0089177,0.20418,0.016202
0.22616,0.13272,-0.36535,-0.048265,-0.052142,0.0036627,-0.12617,0.041446
-0.10578,0.0093708,0.044703,-0.0087798,-0.012137,0.15449,0.20395,-0.010111
-0.040351,0.017299,0.10412,-0.0081907,0.011932,-0.15672,-0.10228,-0.020825
-0.045151,0.14724,0.085877,0.0081626,-0.0034588,0.056024,0.024714,-0.0062187
0.18433,-0.11767,0.075379,0.02466,0.011983,0.083394,-0.049152,0.017859
-0.0017869,-0.22343,-0.0059752,0.010068,0.034848,-0.1436,0.065314,0.035322
-0.019991,-0.037105,-0.50224,-0.035615,-0.012923,0.26646,-0.16437,-0.040338
-0.091971,0.11412,0.1724,0.02038,-0.0062404,-0.19406,0.042313,-0.0065342
0.037179,0.060013,0.1039,0.013898,0.00032993,-0.025665,-0.017887,-0.03554
-0.12709,0.13073,0.089084,-0.023944,-0.024308,-0.14351,0.053916,-0.01037
0.054391,-0.10139,0.15116,0.016077,-0.0018443,0.09925,-0.053974,0.029905
0.073418,-0.048729,0.15686,0.032261,0.013224,0.099087,0.23743,0.046342
-0.12409,-0.046174,-0.4882,-0.077052,-0.018005,-0.028932,-0.36812,-0.03902
0.15074,0.015953,0.0044638,-0.015028,0.0061106,0.46318,0.27014,0.016129
-0.045642,0.13719,0.095474,0.046475,0.038659,-0.48863,-0.15291,0.008695
0.015144,0.11334,0.13651,0.021576,-0.014283,-0.18204,0.19769,-0.006702
-0.063829,-0.21334,-0.14525,0.035359,0.034496,0.1019,0.16437,0.02449
-0.00031878,-0.031951,0.087153,-0.044893,-0.04973,0.036323,-0.44174,-0.054119
0.11229,-0.086155,-0.039964,-0.031576,-0.0173,0.045186,0.02672,0.0073909
0.015986,0.076033,0.099812,0.012931,0.02997,0.013873,0.10824,0.029361
-0.118,0.047623,-0.14845,-0.0049874,-0.009592,0.1325,-0.056417,-0.058367
0.068903,0.023593,0.013176,0.0085586,-0.0031194,-0.057618,0.10383,0.033521
-0.025599,0.16804,0.085347,0.0068196,-0.01291,-0.023615,0.16063,0.024075
-0.011311,-0.16711,-0.025504,0.02895,0.023837,-0.12404,-0.29844,-0.02393
-0.099188,-0.012411,0.063139,-0.026564,-0.025353,0.023966,0.11902,-0.00093578
0.04709,-0.069999,-0.20413,-0.003467,0.027318,0.13069,0.00054962,0.038424
0.084422,-0.041724,0.1795,0.01228,0.018003,-0.086297,-0.043176,-0.02313
-0.041172,0.050423,-0.0058384,-0.018421,-0.0063235,0.082429,0.066715,0.0095022
-0.032285,0.2001,0.1841,0.021584,-0.0066091,-0.028834,-0.083768,-0.028027
0.11907,-0.091378,-0.33745,-0.055236,-0.037633,-0.17946,-0.034361,-0.011016
-0.079546,0.036376,-0.055378,0.016699,0.0020292,0.15265,0.15885,0.029036
0.089927,-0.15827,0.053563,0.049816,0.034109,0.021224,-0.029536,0.0060277
-0.11566,0.01218,0.13001,-0.010696,0.0037894,-0.027431,-0.015857,-0.0019664
0.0057856,-0.077908,0.072456,-0.00094754,-0.018716,0.022178,0.025809,-0.018321
-0.046648,0.070135,0.021487,0.0085428,0.0134,-0.0328,-0.031261,-0.0038181
0.054599,0.20431,-0.15592,-0.029307,-0.009281,0.13638,0.16362,0.010506
0.12193,-0.091995,0.024264,-0.020916,-0.024291,-0.30534,-0.41276,-0.021999
-0.062981,0.1003,0.038279,0.0023683,0.0074011,0.14304,0.13936,0.031664
-0.10075,-0.096447,-0.028079,0.0171,0.015434,0.013715,0.072192,0.0075472
0.056821,0.081328,0.16918,0.06242,0.038807,0.034,-0.080331,-0.0005764
-0.018428,-0.32054,-0.087984,-0.033385,-0.0084865,0.071492,0.1453,0.01505
-0.17663,-0.044067,-0.24367,-0.035717,-0.032739,-0.045668,0.032249,-0.047242
0.21608,0.209,-0.061979,-0.0068001,-0.018309,-0.12251,-0.18428,-0.015692
-0.019597,0.073762,0.16964,-0.001031,0.011473,0.12166,0.11245,0.02367
0.061232,0.13118,0.13999,0.020929,0.017747,-0.063798,0.14737,0.031734
0.34018,-0.35025,0.15446,0.020232,0.00079385,0.00030089,-0.1211,0.00069064
-0.5986,0.28048,-0.16987,-0.010812,-0.015636,0.24342,0.10111,-0.030358
-0.014968,-0.099676,0.033254,0.013739,-1.3219e-05,-0.24838,-0.2276,-0.03791
0.14382,0.14333,-0.26899,-0.031222,-0.022467,-0.044933,0.070748,0.056222
0.055956,-0.17749,0.08548,-0.0052705,0.026407,-0.23148,-0.012159,-0.0057318
0.33783,-0.085786,0.039893,0.028833,0.04489,0.30203,-0.038054,0.018424
-0.24487,-0.027681,0.029812,-0.022945,-0.022035,0.071593,-0.059776,-0.027587
-0.21467,0.073579,0.34273,0.010996,-0.018573,0.045849,0.042369,-0.0031903
-0.054196,0.16147,-0.44422,-0.0023908,-0.0077189,-0.033708,0.083503,-0.002183
0.12159,-0.016169,0.14522,0.0070343,0.025711,0.12084,0.36272,0.053538
0.065043,-0.0084821,0.095931,-0.0077001,-0.027954,-0.35898,-0.41541,-0.039128
0.0125,-0.10656,-0.48145,0.00027045,0.0030712,0.16634,0.03867,-0.045739
-0.011462,0.18037,0.43058,0.0075847,-0.0060858,-0.061612,-0.041092,0.025987
0.00098974,-0.12469,0.11547,0.0065849,0.0073924,-0.10529,-0.0074304,-0.011369
0.079961,-0.091294,-0.34645,-0.033764,-0.010745,0.19226,0.098937,0.029711
-0.018826,-0.053449,0.19506,0.011786,0.010277,0.074412,0.0027275,0.0085185
0.061406,0.022962,0.0068213,0.018476,0.016171,-0.11371,0.061569,0.010795
-0.14282,-0.022824,-0.059217,-0.013491,-0.00061613,-0.034891,-0.10875,0.020632
0.030644,0.18731,0.051209,0.017567,0.022502,0.077435,0.014358,-0.02478
-0.083159,0.10101,-0.030201,-0.036765,-0.03956,-0.24509,-0.084974,-0.039757
-0.14016,-0.077519,-0.00031907,0.018737,0.00048393,0.29418,0.023294,-0.024433
0.11107,-0.18457,0.31103,0.058894,0.017347,-0.063314,-0.058494,0.021217
0.30551,0.059341,-0.59768,-0.080601,-0.028326,0.064133,0.17066,0.01924
-0.2419,0.042009,0.17089,0.014054,0.0038425,0.29258,0.086731,0.016784
0.049169,0.025608,0.25685,0.03013,0.027752,-0.5272,-0.082908,0.021975
-0.069707,0.069147,-0.30846,-0.016899,-0.011351,-0.05945,-0.10331,-0.035208
0.042788,0.20091,0.24899,-0.002075,-0.0040617,0.10263,0.080568,0.0095242
0.10518,-0.4639,-0.0386,-0.011257,0.010667,-0.0085549,-0.054463,-0.023366
-0.024146,-0.090059,0.15805,0.026052,-0.0060613,0.17089,0.093348,0.0068116
-0.010728,0.049553,-0.3786,-0.030509,-0.022804,-0.045331,-0.21021,0.0063014
-0.12958,0.19087,0.14161,0.0068486,0.015308,0.0073941,0.050596,-0.0015241
0.13361,0.12508,0.094557,0.02901,0.014666,-0.077509,0.070997,0.030103
-0.15163,0.10443,-0.13646,-0.034158,-0.024661,0.26904,0.077206,-0.016137
0.084831,-0.11913,0.042289,0.012719,0.030124,-0.11108,0.037275,-0.015384
-0.12533,-0.12227,-0.072943,-0.0023044,-0.016383,-0.18094,-0.17482,-0.038086
0.10929,-0.12278,0.18851,0.029957,0.015354,0.19045,0.088177,0.017194
0.055161,0.075083,0.11408,-0.00013798,0.00017018,-0.099566,0.27823,0.072224
0.056726,0.14328,-0.11055,-0.030371,-0.030827,-0.34017,-0.45704,-0.029338
-0.12008,0.026863,0.028636,0.0015244,0.016033,0.3836,0.092983,0.0015056
0.11839,-0.094967,-0.21157,0.0016636,-0.0076847,-0.18441,-0.0010334,-0.030583
0.10765,-0.066673,-0.18295,-0.022149,-0.00033512,0.21564,-0.011574,-0.0083825
-0.37946,-0.053204,0.27137,0.0083212,-0.00084423,-0.031477,0.19558,0.021323
0.039242,0.045977,-0.011316,0.0073219,0.0065664,0.03668,-0.010768,-0.019454
0.082011,0.14384,0.040973,0.021938,0.0064005,-0.079034,-0.16031,0.017882
0.13912,0.17682,0.078347,0.013284,0.02998,0.0043703,0.052912,0.01628
-0.0083745,-0.16842,0.086506,-0.0029032,-0.02426,-0.033808,-0.010897,-0.039795
-0.024629,-0.20481,-0.28531,-0.057846,-0.039207,0.032245,0.03135,0.044997
-0.065867,0.083432,0.033429,0.028099,0.024065,-0.11087,0.030917,-0.002807
0.055551,-0.021621,-0.098162,0.028273,0.0013145,0.22345,-0.083346,0.0042449
-0.042911,0.051724,0.39741,-0.026198,0.0095277,-0.114,0.046654,-0.019816
-0.079601,-0.1167,-0.082233,-0.010437,-0.013995,-0.37385,0.0052841,-0.020281
0.078784,0.18573,-0.23322,0.0051386,0.016512,0.49803,0.0017997,-0.012686
-0.043829,-0.0083946,0.045339,0.012647,-0.00062305,-0.061297,-0.012261,0.026547
0.099836,0.05945,-0.14547,0.012065,0.012715,0.033695,-0.038189,-0.011806
0.049086,-0.16545,0.15503,-0.0043868,-0.0058507,-0.061003,0.06382,0.028606
-0.10226,0.042755,0.048245,-0.0053605,-0.016984,0.0061583,0.0044886,-0.00065508
-0.033969,0.073429,0.13562,0.0014914,-0.0046489,-0.20197,0.034275,-0.01378
0.089783,-0.043688,-0.036146,-0.022684,-0.030841,0.13572,-0.11133,0.0046045
-0.035786,-0.067897,-0.1938,-0.015158,0.0065106,0.028161,-0.032229,0.02292
-0.051287,0.046483,0.06094,0.016454,0.029688,-0.078027,0.14077,-0.0060449
-0.050337,0.048751,-0.021902,0.025389,0.023268,-0.080112,-0.16062,-0.027874
0.10791,-0.10025,-0.051479,-0.011806,-0.012819,0.1242,0.080996,-0.01927
0.025218,-0.095292,0.14454,0.021886,0.014822,0.22247,0.015189,0.019788
-0.0092162,0.39283,0.035537,0.0089752,0.011858,-0.15321,0.025085,-0.0042799
-0.057969,-0.2672,-0.13557,-0.027485,-0.03023,0.0036047,0.008515,0.0025484
0.0036384,0.16072,-0.055575,-0.017571,-0.026191,-0.24639,0.04217,0.0093251
0.018762,-0.27486,0.21363,0.014963,0.007807,0.18872,-0.094709,0.016309
-0.013445,0.075861,-0.12444,-0.0081891,0.016775,0.26843,0.087865,0.00021811
-0.054951,-0.028575,-0.10087,-0.016735,-0.014935,-0.34396,-0.060519,-0.023294
0.11971,0.02878,0.11232,0.044148,0.014471,0.17986,0.0056555,0.023798
-0.013877,0.11369,0.22572,-0.020602,-0.027402,-0.33088,-0.042229,-0.022761
-0.011064,-0.034306,-0.32374,-0.023173,0.00057165,0.086606,-0.047468,-0.014778
0.042118,0.088931,0.088361,0.028933,0.036373,0.075187,-0.040037,0.0084454
-0.033363,-0.036414,-0.085428,0.010984,0.017877,0.11354,0.10687,0.023279
0.013992,0.023171,0.091977,0.0091046,0.007808,0.14071,0.20768,0.0061833
-0.11043,0.0069218,0.17504,-0.0078469,-0.025009,-0.17858,-0.26716,-0.011578
-0.028905,-0.13318,-0.23467,-0.047645,-0.041552,0.053763,-0.0040707,0.0013949
-0.12933,0.0024703,0.027083,-0.0087345,-0.026295,-0.1244,0.036343,-0.0093024
0.14507,0.019074,-0.0081283,0.077599,0.090969,0.089854,0.095809,-0.019839
-0.071982,-0.20266,0.035054,-0.023066,-0.017963,-0.039816,0.095097,0.0092974
0.36724,0.19584,0.047548,-0.0060972,-0.0093713,0.0082466,0.0093018,0.016045
0.054174,-0.075184,-0.040835,-0.035621,-0.023873,0.0061715,-0.24901,-0.014885
0.086791,-0.13471,-0.13645,0.013277,-0.0067519,-0.031074,-0.056028,0.0026081
-0.54683,0.41164,0.27598,-0.0079558,0.0029458,-0.048758,0.0016234,0.021587
0.0089522,0.033373,-0.10875,0.025523,0.020814,0.063165,0.13476,0.010507
0.1344,-0.17041,0.083818,0.035391,0.023308,0.024595,0.078127,-0.0155
0.031846,0.16219,-0.029588,-0.025447,-0.021008,0.21977,-0.034836,-0.010163
0.014856,-0.25732,-0.27732,-0.0009389,0.020427,-0.31857,0.062246,0.010277
-0.038893,0.016199,0.20783,-0.00059402,-0.0088995,-0.050003,-0.15337,0.014059
-0.063234,-0.079358,-0.29269,-0.047876,-0.031089,0.1203,0.061082,-0.030392
-0.038674,0.075271,0.19005,-0.0020649,-0.015028,0.075786,-0.012714,-0.029414
0.23334,0.21904,0.34355,0.051097,0.023641,-0.03505,-0.054143,0.024947
-0.049924,-0.17965,-0.082509,-0.028767,-0.0087346,-0.0096075,0.093223,0.00020141
-0.028854,-0.055778,0.012859,0.032011,0.044282,-0.036476,-0.047105,0.0061347
-0.033054,-0.037286,-0.38661,-0.024215,-0.020196,8.3567e-06,0.079529,0.019718
0.13773,-0.094323,0.14051,0.021366,-0.0066083,0.03559,-0.058248,0.017841
0.018948,0.10031,-0.093241,0.020282,-0.00066767,0.068531,-0.046579,0.00070461
0.013296,0.076305,0.27214,-0.027565,-0.017822,-0.082303,-0.002929,-0.039431
-0.35067,0.20551,-0.066807,-0.028535,0.012358,-0.0037685,-0.0057666,-0.016659
0.22266,-0.079932,-0.030239,0.009498,-0.0038305,-0.00075811,0.030453,-0.0013889
-0.25064,0.032493,-0.077136,0.0084266,0.019534,-0.088321,0.042818,0.029692
0.08298,-0.084375,0.10693,-0.00038876,0.012068,0.24266,0.3669,0.013957
0.07031,-0.16091,-0.15614,0.022298,-0.010706,-0.24817,-0.56786,-0.0096439
0.081933,-0.045618,-0.021637,-0.032673,-0.033272,0.050655,0.019754,-0.0099515
0.3084,-0.040363,0.22926,0.022395,0.022404,0.078612,0.090824,-0.0026512
-0.3419,0.20962,-0.099652,-0.023313,-0.015621,-0.084659,-0.010612,-0.011209
0.014825,0.099013,0.036654,0.01771,0.008859,-0.12589,0.12197,0.019069
0.003397,0.0081151,0.041899,-0.01092,-0.013578,0.29854,0.035544,0.0022758
0.060182,0.16246,0.10857,0.023333,0.018562,0.18764,0.042485,0.00097096
-0.066558,-0.42175,-0.31287,-0.004912,0.019234,-0.31174,-0.20132,-0.00039302
-0.027251,-0.10172,0.10368,-0.0023385,-0.0038936,-0.037381,0.084945,-0.0017215
-0.042601,-0.038134,-0.11941,-0.00059859,-0.0040937,0.048192,0.010301,-0.018533
-0.036195,0.26529,0.03347,-0.0077941,-0.012727,-0.11071,0.020017,-0.011654
0.1859,0.078216,0.20393,0.007219,0.0014347,0.14196,-0.041783,0.034643
-0.017922,-0.033523,-0.036018,-0.002318,0.0072491,-0.068211,-0.033651,0.011063
0.047038,0.1118,-0.11394,-0.012634,-0.010665,-0.13074,0.022132,-0.0042242
-0.04908,-0.18056,0.19111,-0.01542,-0.036331,0.14317,-0.084102,-0.019027
-0.181,0.12761,-0.23611,-0.010105,0.016591,0.051432,0.023729,-0.01776
0.10516,-0.0045933,0.01999,0.042896,0.031276,0.024228,0.11965,0.015119
-0.0097088,-0.21234,0.077525,-0.0044914,0.0079612,0.03009,-0.0074011,-0.0064528
0.046263,0.033337,0.022712,0.0041026,0.0092019,0.029103,-0.045831,0.018921
0.079545,-0.011561,-0.074472,0.0060274,-0.04328,-0.081519,0.049688,-0.018335
0.01383,0.15972,0.19921,0.0087088,0.02987,0.0016805,0.37103,0.06907
-0.11017,-0.007725,0.21765,0.027241,0.0094552,-0.13624,-0.482,-0.054991
-0.16617,-0.060272,-0.77032,-0.063929,-0.019056,0.004421,-0.19817,-0.015646
0.057398,-0.035926,0.35144,-0.0074391,-0.0013765,-0.060401,0.11269,-0.00042658
0.052555,-0.011476,-0.05851,-0.030115,-0.031512,0.27944,0.060369,-0.0014478
0.15408,0.061286,0.077336,0.039877,0.023276,-0.15478,0.23973,0.012708
-0.14014,-0.035323,0.24282,0.030817,0.014659,-0.041932,-0.043002,-0.012425
0.24515,0.050863,-0.21886,-0.010136,-0.0024275,0.13409,-0.067464,0.024941
0.0099498,-0.031679,-0.027021,-0.027968,-0.027656,0.18581,-0.050975,-1.7536e-05
-0.036092,0.068114,0.067769,0.0323,0.017431,-0.31675,-0.031537,-0.0012634
-0.42614,-0.056906,0.11982,-0.00099516,0.015917,0.14155,0.014889,-0.010035
0.058007,0.0062523,-0.31618,-0.00274,0.014848,-0.088097,0.11187,0.012673
0.081387,-0.0090183,0.1665,-0.0041514,-0.024784,-0.12295,-0.069012,-0.019169
0.10726,-0.017436,0.053334,0.010385,-0.0014617,0.10759,-0.051878,0.0037253
0.13102,0.082384,0.0022125,-0.029456,0.0065801,-0.099041,0.045142,0.010999
-0.086048,-0.084228,-0.10987,-0.022095,-0.024225,0.28909,-0.005632,-0.0051434
-0.056424,-0.079047,-0.023054,0.055954,0.03101,-0.12592,-0.017884,-0.0055627
0.065949,-0.11994,-0.063713,-0.037424,-0.015283,-0.14074,0.038493,0.0020474
