0.11998,0.18937,0.071067,0.010077,-0.0016496,-0.0055216,0.014588,-0.021742
-0.14738,0.1048,-0.030623,0.00094391,-0.0020871,0.00050067,-0.029584,-0.011265
0.062572,-0.51339,-0.015187,-0.0075512,-0.0025826,-0.0016316,0.012399,-0.00055188
-0.079176,0.045106,-0.0075108,-0.0075026,0.0048622,-0.003754,0.015206,0.018018
0.051395,-0.032135,-0.023099,0.0010929,0.0047901,0.0023285,0.0097125,-0.01042
0.10169,0.060189,0.070935,0.0025163,0.0051182,0.016948,0.050274,0.0546
0.1176,0.33846,0.048032,0.012206,0.013672,0.0090683,0.027319,-0.0058175
-0.13596,-0.189,-0.068446,0.0064663,-0.0086934,0.0021755,0.011191,-0.051174
-0.12018,0.040306,-0.036424,0.00062971,-0.0074478,-0.019473,-0.27124,-0.050322
0.36073,0.26023,0.08149,0.010044,0.0094042,0.029804,0.016499,0.098217
-0.52006,-0.37378,-0.11319,-0.051441,-0.028632,-0.053461,0.13284,-0.082192
0.27858,0.35638,0.12175,0.027007,0.018932,0.019427,0.023596,0.10369
-0.16265,-0.68218,-0.088604,-0.020226,-0.012033,-0.0018655,0.063917,-0.031738
0.01038,0.32389,-0.025397,0.017919,0.011288,0.0073983,0.042562,-0.090119
0.0028157,-0.014294,-0.0011024,0.0010096,-0.012615,0.0001764,-0.12716,0.053474
0.018678,0.21979,0.054483,0.0073844,0.025715,0.038906,0.35059,0.14905
0.39334,0.1304,0.062959,-0.0018255,-0.014265,-0.071688,-0.69712,-0.19389
0.11694,-0.48327,-0.015138,0.012585,0.0081428,0.035717,0.31484,0.048396
-0.46998,-0.018249,0.13228,-0.0039903,0.007055,0.0019589,0.058014,-0.037634
-0.10558,0.20514,-0.27628,-0.028079,-0.025292,-0.00081599,0.071696,0.12684
0.21435,-0.025692,0.056114,0.0028284,0.004907,-0.0035494,-0.049565,-0.18388
-0.27086,0.036014,-0.026291,0.010619,0.011793,0.009698,0.086124,0.15608
0.030893,0.47186,0.086753,0.03439,0.003284,-0.015471,-0.19153,-0.0086949
0.21306,-0.043078,-0.0020822,-0.0039159,0.0029422,0.0071151,-0.11525,-0.044745
0.034482,-0.36413,-0.010459,-0.041706,-0.028169,-0.0083354,0.24619,0.0013788
0.38797,-0.040106,-0.14073,-0.032018,-0.019646,-0.014919,-0.074912,-0.050106
-0.48112,-0.2032,0.13074,0.0017472,0.02072,0.034132,0.22657,0.011145
-0.1236,-0.49085,0.0065255,0.03608,0.022533,-0.025491,-0.40444,-0.058176
0.027326,0.67234,0.063448,0.04732,0.040274,0.055849,0.27308,0.14658
0.11652,-0.28601,0.018392,-0.01961,-0.035735,-0.042595,-0.19582,0.0063047
0.39754,0.67809,0.18177,0.022278,-0.0027293,0.014677,0.24918,0.13621
-0.86963,-0.18253,-0.33889,-0.015055,-0.017294,-0.022704,-0.011305,-0.15287
0.11978,0.17117,-0.091631,-0.046123,-0.009357,0.0090915,0.067831,-0.018148
0.2071,-0.41985,0.009275,-0.0086643,-0.0024447,-0.030622,-0.28002,-0.13148
0.27005,-0.038664,0.21469,-0.012005,0.019157,0.0067109,-0.023586,0.031653
0.38741,0.17604,-0.036134,0.053583,0.016638,0.043228,-0.091522,0.0045347
0.41041,0.054719,-0.045574,0.0012024,-0.0018112,-0.0066458,0.1039,0.078758
-0.78567,-0.10184,0.071609,-0.0043294,-0.0045037,0.0059214,0.20542,-0.071312
-0.46377,-0.24825,-0.19028,-0.04037,-0.0457,-0.0046335,0.23058,0.079607
-0.00036774,0.077671,0.2093,-0.0047096,0.0077585,-0.084881,-0.67872,-0.1787
-0.20527,0.067122,0.067832,0.063996,0.054505,0.10132,0.44664,0.3797
-0.0018425,0.10833,-0.16183,-0.021661,-0.02264,-0.031906,0.0045201,-0.0049098
0.79028,-0.10511,0.034906,0.019329,0.018313,0.023194,-0.029882,-0.12436
-0.24201,-0.083222,-0.093532,-0.040126,-0.033949,-0.053891,-0.1271,-0.2551
0.47888,0.37348,0.13075,0.0023786,0.0075825,0.033415,0.14859,0.30352
-0.0034653,0.18113,0.13574,0.052326,0.033017,0.026952,-0.086973,-0.090508
-0.53147,-0.56684,-0.38463,-0.062824,-0.036215,-0.03456,-0.17815,-0.17138
-0.2004,0.0098973,0.16251,0.031505,0.010548,0.020493,0.19569,-0.077991
-0.10755,-0.038156,0.01905,-0.0085207,-0.014237,-0.050205,-0.089302,-0.057288
0.64891,0.30723,0.083643,0.0048906,0.014645,0.050274,0.10149,0.52732
0.19755,0.33748,-0.0024475,0.025494,0.027335,0.048737,0.043625,0.023436
-0.80857,-0.54604,-0.12113,-0.094294,-0.06148,-0.093473,-0.057734,-0.30787
0.16018,0.098284,0.1739,0.013614,0.0066926,-0.0086594,-0.068155,0.058984
-0.091367,-0.22376,-0.14765,0.0062,-0.0019206,0.0068032,-0.057052,-0.46123
0.50871,0.018855,-0.21009,0.0088238,-0.00099452,-0.023273,-0.016622,0.34151
-0.39644,0.10099,0.36979,0.11508,0.064225,0.088742,0.30216,0.21476
0.29742,0.15811,-0.09561,-0.0038428,-0.0096864,0.022347,0.0068307,0.14694
-0.01703,0.3498,0.041621,-0.067835,-0.0046101,-0.04328,-0.20192,-0.17116
-0.65149,-0.43762,-0.16477,0.0076991,0.0082911,0.016112,-0.18612,-0.072265
0.776,0.15857,0.20594,-0.012877,-0.026571,0.0043717,0.32524,0.017855
0.03632,-0.64776,-0.073957,0.033608,0.0072272,-0.032374,-0.13839,-0.17671
-0.84334,0.62231,-0.13036,-0.15002,-0.0861,-0.09462,-0.023196,-0.18783
0.55393,-0.084131,0.17696,0.077241,0.052737,0.05188,-0.024298,0.22796
0.91061,0.32782,-0.12838,0.028893,0.041238,0.087077,0.10176,0.2767
-0.8712,-0.5631,-0.045587,0.018889,-0.010573,0.0037764,0.075906,-0.17041
-0.50477,0.29796,-0.049954,-0.013626,-0.00027011,-0.056533,-0.17721,0.078512
0.58808,0.239,0.33665,0.057905,0.018391,0.055565,0.11885,0.05884
-0.8479,-0.54506,-0.21228,-0.077802,-0.070929,-0.15118,-0.2441,-0.41369
1.0435,-0.12524,0.2109,0.03306,0.02927,0.058343,-0.029634,0.053422
-0.5366,0.27069,-0.41622,-0.062602,0.0067864,0.043917,0.25538,0.069782
0.37076,0.054801,0.10217,0.001754,-0.013467,0.00082487,0.032435,0.055736
-0.22181,-0.28368,0.28935,0.060805,0.053977,0.084842,0.16704,0.42228
0.41518,0.93891,-0.22264,0.026895,0.013025,-0.017381,-0.0075366,0.23568
-0.60813,-0.31302,0.064763,0.054338,0.003346,-0.017846,-0.15843,-0.51615
0.54286,-0.22321,-0.053472,-0.061833,-0.030695,-0.06606,-0.17134,-0.11018
-0.0097381,0.18979,0.037651,-0.041796,-0.058615,-0.069155,-0.12648,-0.38447
-0.97287,-0.41092,0.023466,-0.042535,-0.041798,-0.035505,-0.095244,-0.22999
1.0402,-0.79749,0.11312,0.037634,0.058753,0.089371,0.21138,0.55758
-0.72411,0.42399,-0.038184,-0.011248,0.040201,0.086834,0.20031,0.31643
1.0677,0.79699,-0.13364,0.0078039,0.028104,0.090043,0.25543,0.47879
-0.80448,0.41964,-0.047188,-0.012521,-0.015899,-0.080183,-0.11433,-0.47645
-0.10672,-0.84542,0.0045311,0.015791,-0.052025,-0.11854,-0.29849,-0.46937
-0.34632,0.065767,0.047747,0.031946,-0.0015163,-0.07119,-0.1397,-0.0064504
0.57137,0.3167,-0.15675,-0.041162,0.011091,0.10166,0.15224,0.17883
0.38158,-0.31365,0.16703,0.030998,0.025103,0.080403,0.062952,0.071441
-0.11827,-0.39116,0.012896,-0.0022934,-0.037599,-0.087489,-0.14854,-0.070544
-0.16237,0.76798,0.49835,0.13097,0.096209,0.098356,0.2688,0.29963
-0.30535,-0.31592,-0.58072,-0.1101,-0.058229,-0.049462,-0.051603,-0.11546
0.14073,-0.17599,0.11742,0.077336,0.014246,-0.038944,-0.10975,-0.15274
0.052082,0.75028,-0.073907,-0.21447,-0.06965,0.0044528,-0.023509,0.045809
0.13422,-0.44117,-0.15733,-0.056698,-0.044697,-0.052755,-0.052055,-0.22451
0.28913,-0.65221,0.16966,0.12084,0.088807,0.054253,0.060531,0.065868
-0.674,0.43574,0.14789,0.045234,0.033807,0.090256,0.26521,0.33719
-0.26607,-0.12353,0.058256,0.13939,0.032425,-0.00019897,-0.018232,0.072423
0.32172,0.38743,-0.16889,-0.11888,-0.079353,-0.10049,-0.29138,-0.25281
0.06055,-0.62819,-0.016335,0.013868,0.058021,0.11728,0.17159,0.19718
0.1378,0.26904,-0.23183,-0.10973,-0.10984,-0.23737,-0.35554,-0.60817
0.68318,0.80418,0.18714,0.034555,0.042469,0.10954,0.24587,0.54374
-0.44975,-0.52751,0.086615,0.056518,-0.00018066,0.026041,0.03276,-0.14928
0.02049,0.43091,-0.0083169,0.042155,0.020508,-0.025999,-0.12502,-0.17644
-0.7108,-0.31293,0.020155,-0.047888,0.0033768,0.0089745,0.087524,0.07459
0.4124,-0.61777,0.14028,0.0045736,0.058048,0.17063,0.28167,0.30932
0.58166,0.10528,-0.11823,-0.012142,-0.041993,-0.079853,-0.13538,0.0057026
-0.76573,0.15913,-0.12475,-0.051974,-0.054711,-0.14101,-0.25745,-0.35956
-0.25139,0.22485,0.024507,0.0092953,0.01176,0.080539,0.17233,0.25933
0.23242,-0.3501,0.014796,0.069432,0.02417,-0.048572,-0.042922,-0.061549
0.60742,0.3531,-0.14774,0.026377,0.021087,0.057031,0.01683,-0.020125
-0.80646,-0.41126,0.3251,-0.010776,0.0020315,0.014032,0.04515,-0.041005
0.51194,0.49988,-0.051055,-0.10456,-0.041221,-0.037309,-0.084356,0.029651
0.018264,-0.42927,-0.064454,0.057746,0.016045,-0.019069,-0.013163,-0.12243
0.41455,0.99363,-0.18239,-0.007772,0.017455,0.099969,0.13348,0.29085
-0.25661,-0.25214,0.042263,0.035453,-0.0135,-0.10978,-0.10505,-0.18382
-0.54079,-0.62569,0.11136,-0.038427,-0.029731,-0.007493,-0.087429,-0.2491
0.55489,-0.06992,-0.036088,0.0056424,0.047222,0.08674,0.17939,0.47085
-0.21793,-0.2601,0.05397,-0.0036825,-0.032249,-0.069078,-0.21787,-0.44492
-0.23028,0.57675,0.069179,-0.0036162,-0.009964,0.032972,0.15876,0.20744
0.52489,-0.47073,0.11831,0.068321,0.059663,0.080386,0.18434,0.358
-0.75474,0.52492,-0.37011,-0.085081,-0.081065,-0.14569,-0.23528,-0.41505
-0.29093,0.086927,0.079059,0.051207,0.06779,0.073296,0.11795,0.23191
0.96912,-0.049487,0.034804,-0.03138,-0.0096299,-0.020657,-0.10832,-0.083944
-0.36743,-0.48508,0.074321,0.017962,-0.0011697,0.0019674,-0.0084478,-0.19037
0.62511,0.62368,0.10355,0.089255,0.022484,0.055147,0.089184,0.13228
-0.52863,-0.50661,-0.10364,-0.067798,-0.032725,-0.064213,-0.11988,-0.20836
0.31034,-0.3964,0.055434,-0.046842,-0.0028846,0.034667,0.052544,0.27371
-0.16664,0.44622,-0.40975,-0.10517,-0.06763,-0.085451,-0.095688,-0.16222
-0.13675,0.38462,0.26052,0.086178,0.054542,0.067938,0.12399,0.031584
-0.5195,-0.24454,-0.0023595,0.020367,0.012467,-0.0048481,0.040589,0.0034748
0.32128,0.15065,0.26364,0.073274,0.017539,0.0011283,-0.0093963,0.15855
0.70326,0.44999,-0.10539,-0.012344,0.023303,0.039128,0.013201,0.20571
-0.21767,-0.46617,-0.05577,-0.017627,-0.024621,0.015412,-0.040348,-0.16219
-0.09573,-0.33243,-0.22235,-0.06014,-0.032337,-0.046679,0.040327,0.021355
-1.044,-0.28601,0.14985,0.015579,-0.015493,-0.061363,-0.17512,-0.54187
0.90386,0.18069,0.1045,0.10693,0.033541,0.033688,0.078319,0.2653
0.15229,0.39948,0.060433,-0.060592,0.020705,0.04301,0.081471,0.1317
-0.42628,-0.18571,0.038749,-0.019127,0.00029063,-0.025712,-0.056534,-0.15896
0.81235,-0.14548,-0.18048,-0.050459,-0.020316,0.030533,0.10173,0.2321
-1.1853,-0.26987,-0.15165,-0.03749,-0.025897,-0.053994,-0.1781,-0.23168
0.61823,0.5943,0.041102,0.059182,0.014468,0.017444,0.033675,0.060442
-0.085495,0.58173,0.018031,0.037104,0.0068125,0.010313,0.026059,0.069213
0.79966,0.09781,0.040758,0.022114,0.021374,0.041628,0.16606,0.27712
-0.74761,-0.7273,0.089741,-0.039631,0.0035412,-0.013764,-0.054404,-0.10815
0.38532,-0.3107,0.18394,0.032269,-0.015211,-0.038771,-0.088769,0.050197
-0.10832,-0.3419,-0.088426,-0.0038767,-0.011093,0.013482,-0.038821,-0.16545
-0.64932,0.21035,-0.25764,-0.061867,-0.030541,-0.060008,-0.060848,-0.25738
-0.42097,0.26231,0.074377,0.030219,0.028479,0.06912,0.14224,0.0318
0.25498,0.357,0.023345,-0.001183,0.0023275,-0.012874,-0.046249,-0.0072092
0.58056,0.069374,0.12608,-0.0078768,-0.0071225,0.006868,0.10878,0.10557
0.58434,0.044323,0.098716,0.072335,0.039328,0.0036903,-0.13396,0.16367
-0.38029,-0.606,-0.28003,-0.088986,-0.006812,0.0482,0.16401,0.21864
-0.62813,-0.27955,0.026826,0.046945,-0.012956,-0.078129,-0.20729,-0.44429
0.95962,0.091748,0.010085,-0.0279,-0.0028804,-0.0079639,-0.090779,0.013415
-0.39929,0.60439,0.052013,-0.0089705,-0.0082059,0.024383,0.18595,0.20979
0.29352,0.47754,0.02001,0.025543,-0.0058226,-0.0045489,0.029275,-0.028037
-0.52442,-0.49279,0.01642,0.028752,0.004045,0.014498,0.03254,0.039488
-0.13859,0.33343,-0.08268,-0.030592,-0.002136,-0.0046312,-0.070792,-0.1539
0.16246,-0.47971,0.075343,-0.027499,-0.00090432,0.047128,0.069502,0.30939
-0.56134,-0.19249,-0.1259,-0.032341,-0.01559,-0.080603,-0.16534,-0.43411
0.51918,-0.24786,0.11082,0.056323,0.03207,0.033645,0.066867,0.13576
-0.10109,0.2207,0.1603,0.11331,0.040635,0.022298,0.13199,0.14191
-0.021835,0.48959,-0.25935,-0.13505,-0.060137,-0.052464,-0.17398,-0.2288
0.42773,-0.74908,0.11653,0.021994,0.01101,0.051335,0.093951,0.14932
-0.14077,0.32079,0.11508,0.045228,-0.0037884,-0.033575,-0.10301,-0.12042
0.47323,-0.13661,-0.22537,-0.12005,-0.010874,0.013164,0.07968,0.15188
0.1148,0.099972,0.071485,0.049722,0.013078,0.019844,0.080671,0.12508
-0.4591,0.70642,0.029407,0.031325,0.0054549,-0.044532,-0.18464,-0.2453
-0.15546,0.4388,-0.1632,-0.042144,-0.0025861,0.007837,0.10534,0.081708
-0.91821,-0.75539,0.018401,0.063961,0.0045225,-0.0024363,-0.024914,-0.017608
0.54648,-0.078072,0.1538,0.029554,0.011153,0.057722,0.065858,0.043299
-0.1514,-0.15085,0.15059,-0.004574,-0.013877,-0.022434,-0.051864,-0.016792
0.60101,-0.27006,-0.037049,-0.069537,-0.00010971,0.015024,0.12163,0.090772
0.23835,-0.11611,-0.18191,-0.024568,-0.041081,-0.1033,-0.20339,-0.20499
-0.38279,0.2153,0.020972,0.021137,0.035343,0.05228,0.019085,-0.014215
0.85867,-0.16328,-0.053467,0.028718,0.018489,0.08328,0.17094,0.29519
-1.1523,-0.050828,-0.038355,-0.0407,-0.028923,-0.080663,-0.13143,-0.24613
0.014469,0.4719,0.096996,0.0082948,0.026052,0.029144,0.041077,0.048854
0.22522,0.27395,0.078343,0.05065,-0.0040683,-0.03266,-0.061772,-0.062403
0.20478,-0.054288,0.0062073,0.02362,-0.0021999,0.015137,0.067929,0.14638
-0.11133,0.20467,-0.12845,-0.07322,-0.015425,0.00062526,0.024337,0.026521
-0.060768,-0.11944,0.20436,0.095525,0.018475,0.01751,-0.082539,-0.11754
0.2148,-0.60611,-0.090268,-0.080089,-0.010187,-0.012401,0.021482,-0.067285
-0.27694,0.59423,-0.17725,-0.022427,-0.015781,-0.02671,-0.061317,0.036441
0.30865,-0.68278,0.044545,-0.028694,0.0092435,0.036944,0.13057,0.22474
-0.41725,-0.12947,0.12203,0.065039,0.025629,0.014334,0.0037452,-0.16649
0.27428,0.073518,-0.13968,-0.01461,-0.029231,-0.032206,-0.027663,0.042565
-0.63776,0.48336,0.080382,0.013814,0.016532,-0.0090592,-0.057551,-0.18687
0.55953,0.13599,0.1033,0.049053,0.022394,0.029026,0.046598,0.12225
0.54688,-0.55705,-0.10928,-0.05696,-0.034879,0.019591,0.042263,0.12677
-0.1681,0.41639,0.12297,0.024306,-0.0065519,-0.052827,-0.11771,-0.20395
-0.3914,0.011743,-0.027524,-0.03484,-0.0016436,-0.0082634,0.027419,0.068108
-0.23455,0.13507,-0.09926,0.00041935,0.01147,0.036455,-0.022427,0.044841
-0.075056,0.1668,-0.10724,-0.033559,-0.0059416,-0.019847,0.045192,-0.015856
0.52997,-0.42802,0.1211,0.043255,0.016673,0.010678,0.058306,0.14369
0.37531,-0.20793,-0.022932,0.0045022,0.0091033,0.0267,0.024524,0.0388
-0.92345,-0.011639,0.039345,0.014256,-0.020889,-0.065463,-0.15024,-0.36212
0.030906,0.35535,0.042538,0.033254,0.020258,0.030944,0.033584,0.034349
0.1046,-0.081975,-0.068251,-0.032654,-0.00055732,0.05,0.16928,0.016987
0.17164,0.062992,0.073451,-0.066816,-0.021171,-0.00090379,-0.10291,0.093314
0.87154,-0.22779,-0.080414,0.055175,-0.010661,-0.028483,-0.017564,0.31764
-0.80478,-0.081123,-0.054794,-0.050055,-0.016182,-0.064412,-0.12932,-0.28709
-0.34284,-0.054032,0.27368,0.14048,0.063626,0.086315,0.14024,0.13789
0.48321,0.32602,-0.21366,-0.076644,-0.029174,-0.076447,-0.036501,-0.17359
-0.23271,0.20092,-0.041359,-0.076512,-0.0055675,0.025434,0.0050886,-0.1438
-0.33311,-0.15752,0.071335,0.031593,0.0016474,-0.014171,-0.015714,0.0083987
0.6141,-0.019251,-0.055055,-0.0098956,0.00035123,0.062726,0.088954,0.33007
0.081011,0.24234,0.064762,0.064986,0.014094,0.0062871,0.045801,0.024806
-0.5221,-0.30938,0.041676,-0.0012192,0.0039642,-0.027115,-0.1296,-0.22702
0.88713,-0.26683,-0.1146,-0.020689,-0.029855,-0.0061555,0.015691,0.044164
-1.1404,0.2635,-0.0036301,-0.016603,-0.0012211,-0.016718,-0.07322,-0.11391
0.10166,-0.2993,0.063917,0.058118,0.011956,0.0037665,0.041016,0.065219
0.23236,0.30206,0.0034635,-0.046354,0.0020652,-0.007088,0.10836,0.097923
0.4002,-0.16539,0.011021,-0.0017231,0.031773,0.052452,0.042995,0.16442
-0.56871,0.18381,-0.069726,-0.081247,-0.06287,-0.090831,-0.19392,-0.39125
0.6889,0.0091386,0.1198,0.058993,0.046302,0.0633,0.054218,0.13405
0.59759,0.25905,0.031362,0.067556,-0.0079265,0.03069,0.053394,0.16195
-0.76202,-0.42307,-0.15705,-0.032104,0.00090901,-0.032252,-0.03982,-0.042372
-1.0348,0.676,0.17003,0.017699,-0.013286,-0.031716,0.0013042,-0.081112
0.93303,-0.92623,-0.17639,-0.041126,-0.011649,0.0088031,-0.018629,-0.048774
-0.81927,-0.095248,-0.048934,-0.013679,0.013401,-0.012456,-0.0062593,-0.15717
0.64791,0.63926,0.012735,-0.017644,-0.0086864,0.029177,0.092409,0.18647
0.674,-0.15879,0.016245,0.07146,0.03905,0.023894,0.0030358,0.12168
-0.79977,0.18361,0.18045,0.018796,-0.0076318,-0.0053487,-0.0018902,-0.0010378
-0.043803,-0.29382,-0.010007,-0.043156,-0.00039001,0.026949,0.014359,0.09865
0.79516,0.41679,0.17183,0.010477,-0.0095149,-0.0045092,-0.057973,0.0062225
-0.29052,-0.7399,-0.34384,-0.046754,-0.034847,-0.099793,-0.14842,-0.44215
-0.22377,0.4691,0.029626,0.027699,0.009839,0.030354,0.13436,0.20772
-0.50647,-0.10678,-0.07403,-0.031242,-0.0079023,-0.0277,-0.099121,-0.1595
0.23434,0.11562,0.010318,-0.0041905,-0.0017591,0.007867,0.050866,0.060046
0.35621,-0.33575,0.072775,0.031321,0.036376,0.075127,0.0933,0.1421
-0.087475,0.57473,0.090702,0.013218,0.020712,0.018271,0.036746,0.057169
0.25421,-0.14044,0.056657,0.043246,-0.0097213,-0.014045,-0.024849,0.095173
-0.0093474,0.18059,0.13457,0.051015,0.02301,0.025034,0.064408,0.11528
-0.49469,-0.15042,-0.30892,-0.12782,-0.061071,-0.091265,-0.18062,-0.32113
-0.24761,-0.51517,-0.0011682,-0.03269,-0.01227,-0.0038713,-0.010855,-0.10641
0.31907,-0.090422,0.0336,0.070403,0.036358,0.068166,0.15096,0.17945
-0.043532,-0.082916,-0.033343,-0.029745,-0.0247,-0.062876,-0.11767,-0.20741
0.52459,0.4182,0.063315,-0.012955,-0.0079679,0.0091376,-0.012348,0.24744
0.30483,0.47158,0.096988,0.058267,0.039739,0.026368,-0.0018426,-0.011352
-0.70303,-0.38123,-0.15087,-0.034746,-0.037734,-0.050225,-0.039115,-0.18706
0.29776,0.8527,0.15603,0.044063,0.056574,0.11532,0.18854,0.24403
-0.13777,-0.79617,-0.067914,-0.017688,0.002393,0.0073559,0.095296,0.11059
-1.0008,-0.14972,-0.095825,-0.048041,-0.036223,-0.11636,-0.22507,-0.31321
0.76474,-0.34227,0.1115,0.054603,-0.0046305,0.0096804,0.0086207,-0.026614
-0.24633,0.21902,-0.14914,-0.045711,-0.020074,-0.0052597,-0.0083999,-0.013353
0.34099,-0.090908,0.059414,-0.020932,-0.0044764,0.0027563,-0.057384,0.086337
0.83747,0.5174,0.049013,0.042872,0.034317,0.080497,0.14303,0.13964
-0.78389,-0.20578,0.092234,0.043963,0.033793,0.032575,-0.00069452,-0.057002
0.44096,0.23906,0.07095,-0.010041,-0.037291,-0.094147,-0.050758,0.16749
-0.67228,-0.31387,-0.15625,-0.056811,-0.014846,-0.018339,-0.061544,-0.28155
0.81088,-0.22699,-0.042886,0.044183,0.030877,0.033634,0.09221,0.11855
-0.39091,0.66754,0.067535,0.0039046,-0.0015806,-0.0082225,-0.065882,0.047194
-1.2273,-0.64251,-0.24595,-0.1228,-0.049566,-0.026319,0.050188,-0.33896
0.56619,0.75302,0.21348,0.10968,0.035548,0.042268,0.034131,0.19556
0.16231,-0.35146,0.096059,0.006353,0.0039589,0.010401,0.010837,0.10554
0.26503,-0.214,-0.17459,-0.026188,-0.0035388,-0.01232,-0.066703,0.025671
0.31068,-0.043163,0.027802,-0.0033379,-0.025916,-0.041486,-0.12048,-0.18293
0.38038,-0.2481,0.05528,0.028109,0.030552,0.086788,0.20101,0.145
-0.87091,0.27946,0.094883,-0.017873,-0.021795,-0.080991,-0.14912,-0.12295
0.79384,0.2187,-0.081318,0.038175,0.035502,0.04061,0.10253,0.16116
-0.40654,-0.57236,0.016838,-0.038438,0.0067492,-0.0020912,-0.012813,0.011578
-0.48057,0.52775,0.066761,-0.0058416,-0.014703,-0.0064919,0.012554,-0.10489
0.54075,0.13737,0.0038898,0.034157,0.009876,0.0192,0.014423,0.16893
-0.90264,0.027789,-0.22788,-0.090431,-0.052513,-0.050217,-0.054239,-0.20017
0.1476,-0.19658,-0.019651,0.057925,0.016894,0.019656,0.0095747,-0.018313
1.0819,0.47335,0.12907,0.041874,0.015193,0.033748,0.033947,0.15142
-0.83259,-0.76579,-0.10853,-0.052433,-0.025986,-0.054411,-0.12951,-0.29228
0.22645,0.44827,0.20685,-0.013859,0.003183,0.0056655,0.097433,0.073366
0.16703,-0.38663,-0.0010659,0.048341,0.040616,0.042563,0.027386,0.16369
0.30256,-0.49604,-0.10574,-0.022091,-0.022784,-0.060561,-0.081792,0.018968
-0.31218,0.62375,-0.051504,-0.029989,0.0005632,0.055827,0.090158,0.030729
0.064697,0.12645,0.16201,0.071275,0.024583,0.032306,0.050902,0.066564
-0.25431,-0.34988,0.019002,0.015801,-0.0057201,-0.021965,-0.066922,-0.147
-0.41672,0.62031,-0.027921,0.014327,0.042079,0.025518,0.025642,0.022573
0.29843,-0.2745,-0.12778,-0.10505,-0.074568,-0.098974,-0.093217,-0.089031
0.60556,-0.13016,-0.023192,-0.021789,-0.012137,0.018433,0.0064782,0.057237
-0.43626,0.17353,-0.034657,-0.0010852,-0.0050382,0.018333,0.020529,0.0085773
-0.064631,0.32549,0.080064,0.051404,0.017199,0.010218,0.035452,-3.1071e-05
-0.017589,-0.21195,-0.014854,0.011262,0.007997,-0.029141,-0.12794,-0.23354
-0.12025,-0.31087,0.12587,0.011713,0.014569,0.048901,0.12433,0.23036
0.4257,0.21417,-0.10753,-0.0096343,-0.0018708,0.0022781,0.08896,0.086934
0.44803,-0.62775,0.01071,0.0094658,-0.0021213,-0.044041,-0.094049,-0.10985
-0.99274,-0.26204,0.17471,0.060619,0.045033,0.058186,0.050875,0.22461
0.13916,0.34088,-0.19502,-0.091338,-0.048092,-0.027299,-0.024303,-0.10673
0.64441,0.7108,0.056566,0.029334,0.0072913,-0.003992,-0.055017,0.003856
-0.96561,0.094937,-0.047851,-0.038977,-0.023467,0.0027956,0.036168,-0.12448
0.89883,0.45682,0.046397,0.015852,0.023497,0.039782,0.038184,-0.054492
-0.46888,-1.0551,-0.0035893,0.0063142,-0.0081322,-0.072651,-0.15002,-0.097891
-0.47001,0.55717,-0.063333,-0.035985,-0.024528,-0.029504,0.027326,-0.0029782
0.97145,-0.70143,-0.052468,0.030214,0.021379,0.044731,0.040401,0.20904
-0.28645,0.11966,0.047048,0.03381,-0.010787,-0.0055913,0.046958,0.087295
0.24799,0.16752,0.042013,-0.016623,0.019828,0.023221,0.0013825,-0.007046
-0.66688,-0.15917,-0.05061,-0.011109,0.011809,0.022199,0.037268,-0.03392
0.45499,-0.0072203,0.12878,0.019448,-0.0035711,-0.0085031,-0.0014528,-0.079155
-0.50073,0.3446,-0.03799,-0.049909,-0.0029748,-0.022137,-0.060488,0.028456
0.75112,0.64113,0.079823,0.046199,-0.0022147,0.019994,0.031216,-0.00914
-0.65214,-0.6545,-0.0048871,0.0026139,-0.0093184,-0.023258,-0.032056,-0.091756
0.051881,-0.64261,-0.0058898,0.037497,0.014601,0.0037987,-0.016919,0.021515
-0.093841,0.45028,-0.23803,-0.045046,-0.039911,-0.00087555,0.052434,0.11094
0.52267,0.013469,0.047341,-0.042347,0.022499,0.024915,-0.019712,0.019681
0.37104,-0.14329,0.037563,0.014099,0.0066757,-0.028285,-0.038067,-0.025893
-0.66694,0.80407,0.046175,0.0071026,-0.0012104,-0.0040761,-0.025794,-0.1663
