0.054554,0.14363,-0.11739,0.061074,0.064483,0.15467,0.47698,0.33035
-0.63655,-0.080742,0.05268,0.0048064,-0.027538,-0.036701,-0.59611,0.28459
-0.25315,-0.015981,-0.088018,0.021301,0.029024,0.10077,0.2631,-0.60429
0.066357,-0.11471,0.21137,-0.022495,-0.016106,-0.035232,0.39961,0.66186
0.02079,0.076784,0.11523,0.060254,0.024315,-0.11747,-0.1031,-0.43663
0.33219,-0.0033724,-0.26748,-0.051711,-0.021765,0.27515,0.83507,0.1716
0.37713,-0.026501,0.17924,-0.015664,-0.045023,-0.33438,-0.80171,0.13327
-0.11151,0.10151,-0.085495,-0.027796,0.0093195,0.053988,-0.014013,-0.16505
-0.35787,-0.048983,0.08465,0.044154,0.032096,0.050246,-0.63697,-0.018014
-0.28575,-0.048631,-0.038818,-0.04993,-0.015477,-0.078952,0.54403,0.013641
0.12219,0.0080927,-0.050958,-0.0050296,-0.00030788,0.019173,-0.72947,0.65894
0.42648,0.30766,0.047914,0.093612,0.070006,0.23633,0.80294,-0.7811
-0.63543,-0.47927,-0.07728,-0.089034,-0.062235,-0.18461,-0.13519,-0.33902
0.72699,0.14612,-0.096425,0.057339,0.0014018,0.022062,0.071175,0.07225
0.12452,0.15156,0.016736,-0.013372,0.018625,0.098001,0.34904,0.76839
-0.47103,-0.096479,0.22631,-0.035095,-0.041991,-0.1844,-0.43859,-0.68384
0.0092651,0.026701,-0.074126,0.031258,0.030277,0.18134,0.38968,0.29013
0.16261,-0.088148,-0.046481,-0.025678,-0.038239,-0.095157,-0.32252,0.25598
-0.16582,-0.057682,-0.033529,0.027635,0.010042,-0.077449,-0.37352,-0.25371
-0.14062,0.25959,0.097119,0.057276,0.081153,0.22611,0.66426,0.33849
-0.17915,-0.064899,0.038998,-0.023887,-0.043843,-0.23909,-0.5472,-0.16529
0.25773,-0.10024,-0.10919,-0.060649,-0.013509,0.0041603,0.22487,-0.39375
0.030576,0.037647,0.016275,0.0010035,-0.015374,0.074151,0.19835,0.024035
-0.0015308,-0.10322,0.1306,0.11406,0.052229,0.058121,-0.1191,0.43604
0.14952,0.0562,-0.20672,-0.15852,-0.060452,-0.034905,-0.30519,-0.16023
-0.0024273,0.06335,0.0023291,-0.0032382,0.0063308,-0.094679,0.023544,0.15611
-0.14518,0.01207,0.1868,0.034404,0.010836,0.13696,0.35987,-0.6848
-0.0742,-0.11369,-0.066556,-0.036337,-0.046502,-0.082389,-0.31153,0.28745
0.84774,0.13826,-0.15401,0.098272,0.061215,0.15283,0.78273,0.09081
-0.55742,0.032283,0.09946,0.048363,0.02946,-0.05679,-0.78718,0.52451
-0.069532,-0.11278,-0.17756,-0.037485,0.0066155,0.076889,0.79136,-0.56584
-0.5678,-0.03268,0.26836,-0.019128,-0.038822,-0.29834,-0.97303,0.28951
0.68997,0.13086,-0.0054024,-0.0068987,-0.021308,0.036113,0.11678,0.051641
-0.080003,-0.1384,-0.14582,0.0058177,0.0040243,0.049358,0.055662,-0.76436
-0.59374,0.081268,0.21432,-0.013393,0.021143,0.12494,0.21393,0.86416
0.10104,-0.16291,-0.13729,-0.065427,-0.04838,-0.1738,-0.37444,-0.27428
0.076136,0.020322,-0.031233,0.02112,0.037485,0.26321,0.73728,0.20319
0.32534,0.24108,0.1544,0.01968,0.013106,-0.14968,-0.54527,-0.24931
0.2545,0.031283,-0.036674,0.063467,0.019235,0.063902,0.49365,-0.3173
-0.17931,-0.12424,-0.13837,-0.018711,-0.01421,0.012711,-0.23714,0.55664
0.1332,-0.17835,-0.16812,-0.069818,-0.063497,-0.077555,-0.18977,-0.7651
-0.092782,0.21281,0.19359,0.028068,0.04357,-0.012457,0.24561,0.53258
0.32455,-0.1538,-0.037417,-0.005759,-0.020834,-0.097333,-0.29707,0.044979
-0.50363,0.2923,-0.00080055,0.05554,0.056028,0.20661,0.24753,0.20956
-0.4569,-0.26106,0.25017,0.047899,-0.0069487,-0.08486,-0.16985,-0.19412
0.55666,0.030405,-0.032913,-0.044545,-0.014417,-0.0884,-0.18921,0.35427
-0.79752,-0.090472,-0.20782,-0.07373,-0.028949,0.11079,0.60709,-0.11
0.86757,0.10354,-0.015252,-0.024439,0.011794,-0.049005,-0.3686,-0.75468
-0.043683,0.073893,0.022716,0.017036,-0.033044,-0.028109,-0.26473,0.31575
-0.095333,-0.069885,0.14947,0.042626,0.031574,0.0097458,-0.065036,-0.68168
0.1631,0.046901,-0.087138,0.052179,0.049104,0.12704,0.37134,1.0494
0.10961,0.056242,-0.22552,-0.0090551,0.0036408,0.2219,0.75415,0.37649
-0.72431,-0.16032,0.14859,-0.039507,-0.05035,-0.44833,-0.99801,-0.1837
0.29163,-0.057489,0.15199,-0.023489,-0.0036111,0.053414,0.28102,-0.77051
0.50418,0.15217,-0.099097,0.0078576,-0.012376,0.047168,-0.049711,0.34412
-0.07722,0.02189,0.034435,-0.0078333,-0.013986,-0.076475,-0.30521,-0.25234
-0.22464,0.17572,0.30078,0.023324,0.054331,0.11232,0.1274,0.21502
-0.32634,-0.33187,-0.60651,-0.023565,-0.02584,0.17628,0.71126,0.13794
0.50488,0.15611,0.41282,0.031243,0.0036491,-0.27505,-1.0601,-0.10812
-0.14578,-0.13989,-0.20427,0.031502,0.018083,0.11771,0.5487,0.070141
-0.31536,0.071798,-0.051098,-0.0071732,0.0098513,0.049747,0.38286,-0.00062168
-0.085488,-0.033859,0.12373,-0.022264,-0.020926,0.044258,-0.15675,0.028712
-0.06,-0.016242,0.1661,-0.021478,0.0039312,-0.18024,-0.58164,-0.43875
0.39157,0.04126,-0.16368,-0.020223,-0.017125,-0.053582,-0.057377,0.13266
0.69518,0.038506,-0.207,0.036496,-0.0059759,0.14301,0.79198,0.96641
-0.57718,0.076967,0.084702,-0.069749,0.021728,0.050344,-0.35844,-0.52563
-0.55168,-0.079485,0.13388,0.059703,-0.012212,-0.034425,0.012134,-0.094121
0.6506,0.03464,0.072456,-0.0048424,-0.03764,-0.18132,-0.44938,-0.79259
-0.61692,-0.13186,-0.094156,-0.044968,0.015475,0.10202,0.021319,0.36637
0.53723,0.26783,0.14599,0.16521,0.092018,0.20623,0.57054,0.37944
0.22348,-0.028488,-0.09435,-0.039323,-0.02732,-0.1814,-0.18832,-0.029496
-0.19621,-0.24287,-0.077367,-0.089325,-0.054104,0.01682,0.32473,0.33191
-0.18535,0.12302,0.18561,0.045499,0.073563,0.11288,0.038952,-0.61074
-0.071197,-0.21178,-0.09639,-0.026104,-0.090096,-0.21405,-0.7667,-0.14448
-0.14615,0.098589,-0.15751,-0.069902,0.0093727,0.07469,0.55271,0.48866
-0.03547,-0.028235,-0.11251,-0.015191,-0.010793,0.0023357,-0.49887,0.60763
0.37972,0.13864,0.02729,0.092011,0.029429,0.037657,0.27033,-0.69616
-0.7502,0.080129,0.31422,-0.020582,0.021234,0.040254,0.24048,-0.034509
0.66906,-0.10632,-0.23045,0.038889,-0.0034059,-0.075422,-0.074369,-0.29976
0.22891,0.12092,0.17157,0.060599,0.034422,0.066128,-0.088643,0.45291
0.15769,-0.17441,-0.14841,-0.11867,-0.067636,-0.073594,-0.23922,-0.65844
0.1723,0.062331,0.13885,-0.014057,-0.0042024,0.01381,0.13927,0.46172
-0.79449,-0.029268,0.1104,0.046477,0.014339,0.0085939,0.25936,0.21379
0.21975,0.17414,-0.072573,0.054976,0.035241,0.067514,-0.065039,-0.40877
-0.30713,-0.12618,0.015644,-0.0045291,-0.019449,-0.074644,-0.30191,0.7111
-0.40421,-0.18195,-0.17607,-0.10906,-0.01697,0.019901,0.22826,-0.40507
0.95562,0.091404,0.043921,0.029965,0.026783,-0.015921,-0.43672,0.23131
-0.30052,0.0054189,-0.15506,-0.025444,-0.029283,0.0053172,0.63836,-0.6346
0.42773,0.012574,0.046148,0.052385,0.0095163,-0.018238,-0.072912,0.27309
-0.28958,0.13581,0.1086,0.028626,0.01745,0.037895,0.21543,-0.15219
-0.44423,-0.086341,-0.037014,0.0043817,-0.0062483,0.0089075,-0.28812,0.085579
0.058312,0.040817,0.095039,-0.012999,0.0080056,-0.035813,-0.13154,0.64828
0.86755,0.01657,0.1388,-0.047392,-0.026338,-0.042609,-0.5015,-0.464
-0.41366,0.019943,-0.444,0.096161,0.030917,0.24532,0.89385,0.54052
-0.47914,-0.1995,0.50313,-0.15287,-0.062615,-0.32134,-1.0271,-0.69999
0.28213,0.16288,0.14417,0.11173,0.083748,0.20215,0.72528,-0.54509
-0.050111,-0.11904,-0.54452,-0.10209,-0.060945,-0.074991,0.14015,0.59215
0.095847,0.025939,0.085612,0.13567,0.035068,-0.066549,-0.1772,-0.35004
-0.12297,0.013086,-0.20705,-0.065192,-0.025992,0.095403,0.18921,-0.11523
-0.12075,-0.023468,0.17231,-0.0088664,-0.0012058,-0.0020984,-0.010668,0.64312
-0.093996,0.15968,0.29535,0.055157,0.047643,0.0094439,-0.083164,0.39977
0.96297,0.047843,-0.094445,-0.052313,-0.058509,-0.20456,-0.58559,0.17977
-0.23371,-0.14745,-0.22282,0.0051222,0.024542,0.26332,0.86201,-0.018281
0.040201,-0.090041,-0.0037245,0.0091097,0.0079698,0.031181,-0.33652,-0.54811
-0.81803,-0.0065489,0.26531,-0.047853,-0.03011,-0.1974,-0.26866,-0.31635
-0.12031,0.071487,0.16106,0.037547,0.035052,0.05418,-0.020984,-0.38201
0.30778,0.13581,-0.19312,0.070032,0.015498,0.043321,0.094102,0.02891
0.23582,-0.079725,-0.39256,-0.11461,-0.042498,0.011474,0.44411,0.15587
-0.26149,0.025847,0.36638,0.10047,0.040096,-0.018901,-0.44745,0.31936
-0.21189,-0.20431,-0.07277,-0.097736,-0.049845,-0.056694,0.27034,0.24669
0.89391,0.14332,-0.099943,0.024493,0.015299,0.068906,-0.15399,0.17117
-0.41402,-0.017759,0.12226,0.036753,0.0086358,-0.049292,0.18359,-0.036909
0.35267,0.0229,-0.052686,0.047709,0.023797,0.025469,-0.11794,-0.66798
-0.38194,0.014811,0.1427,-0.052609,-0.017251,-0.027619,0.11093,0.57702
0.28235,0.035673,-0.27459,-0.014589,-0.043929,0.03341,-0.4751,-0.24799
-0.49526,-0.0085567,0.047448,0.028865,0.014468,0.028939,0.56122,0.04262
-0.26391,-0.15699,0.13936,-0.11732,0.017767,-0.0016095,-0.34913,0.68254
0.69629,0.22352,0.077387,0.08649,0.02891,-0.026332,0.17171,-0.38817
-0.70372,-0.1319,0.19472,0.0004757,0.0014089,-0.028688,-0.12996,-0.87317
0.46549,0.020214,-0.25396,0.094343,0.013695,-0.0388,-0.26505,0.56031
0.29117,0.10337,-0.052761,-0.060629,-0.04338,0.092996,0.62271,-0.43011
-0.25664,-0.20872,-0.11763,-0.057339,-0.021217,-0.0071053,-0.18934,-0.51237
-0.42844,-0.031492,-0.074036,-0.027969,-0.013461,-0.064682,-0.073732,0.77835
0.35803,0.050373,0.33696,0.027799,0.026806,-0.032242,-0.30326,0.43524
-0.20205,0.013875,-0.21017,0.02397,0.0057938,0.10595,0.48793,-0.061342
0.019385,0.15525,0.014767,0.038218,0.024915,0.0056929,-0.18771,0.63017
0.95092,0.14461,0.15645,0.015063,0.013593,-0.037151,0.0090223,-0.29463
-0.38025,-0.098794,-0.054741,0.0081691,0.0027132,0.015043,-0.013153,-0.25287
-0.52599,-0.10927,-0.029927,-0.061658,-0.055008,-0.026895,-0.048614,-0.54504
0.50218,-0.10061,-0.1425,-2.8418e-05,0.0040988,0.04633,0.12471,-0.19593
-0.30372,0.089168,0.10753,0.059648,0.046908,-0.0010093,0.042907,0.5709
-0.36073,-0.15023,-0.047167,-0.17968,-0.090838,-0.052563,0.11911,-0.7051
0.09936,0.10347,0.17932,0.14941,0.067352,-0.022582,-0.70011,0.4342
-0.19722,-0.023148,0.03285,-0.077511,-0.025364,-0.059018,0.23688,-0.46411
0.26018,0.097267,0.13396,0.038689,0.037363,0.13606,0.42684,0.61659
-0.25923,-0.079502,-0.29478,0.022103,0.0056553,-0.014043,-0.65651,0.38681
0.61366,0.19119,-0.13895,0.060678,-0.0188,-0.031208,0.72566,0.60101
0.21304,-0.15908,-0.016848,-0.0173,-0.004636,-0.0077653,-0.14241,-0.59149
-0.25656,0.0035243,0.080077,-0.0088156,0.0013923,0.033919,-0.18153,-0.43512
0.34249,0.015125,0.16194,-0.078218,-0.031832,-0.061824,0.083888,-0.2624
-0.1053,0.078207,-0.010136,0.039785,0.052095,0.13473,0.11991,-0.61775
-0.62278,-0.15223,-0.065418,-0.030069,-0.035722,-0.13471,-0.16305,0.5794
0.065093,-0.0059316,-0.12586,-0.0066447,-0.013869,0.011795,0.059353,0.47268
0.11099,0.02315,0.11515,0.008536,0.024044,0.018486,-0.31746,0.50343
-0.11804,0.19117,-0.091955,0.039064,0.03123,0.16552,0.63464,-0.12814
-0.49395,-0.096983,0.45486,0.014822,-0.015714,-0.23551,-0.77943,-0.40011
0.17593,-0.092226,-0.26228,0.021915,0.0081968,0.14302,0.61426,-0.12476
0.75662,0.10351,-0.0040098,-0.072373,-0.045522,-0.11307,-0.29022,-0.99512
0.31529,-0.18928,-0.0072997,0.013216,0.034012,0.051291,-0.035577,0.88366
0.22949,0.12384,-0.12532,0.012984,-0.026691,-0.12888,-0.10219,0.6111
-0.76626,0.020455,-0.037889,-0.026318,-0.0089363,0.081542,0.059784,-0.54072
-0.20514,0.048565,-0.095062,0.082653,0.048137,0.12066,0.53751,0.29389
-0.2936,-0.14233,0.13566,-0.10558,-0.035288,-0.065975,-0.13861,-0.036028
-0.27775,0.15169,-0.021948,0.041634,0.021833,0.076103,-0.080796,-0.48778
0.86961,-0.084545,0.036963,0.00071756,-0.0073532,0.007184,-0.23094,0.018352
0.24623,-0.014993,0.06465,-0.0096918,-0.013828,-0.21114,-0.32859,0.38789
-0.049735,0.063313,-0.039775,0.041586,0.033285,0.17802,0.63673,-0.13218
-0.31006,-0.013948,0.26165,-0.040764,-0.022587,-0.099457,-0.62839,-0.3204
0.03394,0.12805,-0.033697,0.063671,0.029302,0.057794,0.4043,0.61347
0.02903,-0.041841,-0.08556,0.026996,0.024908,0.15014,0.52269,0.49801
-0.2138,-0.23413,-0.18656,-0.15041,-0.097999,-0.35273,-0.54572,-0.67384
-0.06627,-0.11212,-0.19887,-0.014908,-0.0029557,0.081812,0.20218,-0.28275
-0.23488,0.16099,0.0010059,0.066876,0.021693,0.10373,-0.29091,-0.34008
0.51173,0.0937,0.2881,0.048588,0.039242,0.065994,-0.088587,-0.026601
-0.37694,0.045553,0.093479,-0.014731,-0.012079,0.0085968,-0.25377,0.4557
0.82061,0.031612,0.013197,0.017634,0.0088705,-0.13851,-0.013985,0.17207
-0.1603,0.058385,-0.13756,-0.0029686,0.0085439,0.030409,0.57331,0.59488
-0.66422,-0.05566,-0.035998,-0.030149,-0.028837,-0.01709,0.22125,-0.36565
0.64284,-0.20314,-0.25059,-0.033333,0.0056224,0.19388,0.25686,-0.5882
-0.21006,0.12986,0.22727,0.049241,0.048715,0.036542,-0.35524,0.70502
-0.30265,-0.16703,0.22535,-0.009665,-0.033168,-0.19376,-0.23839,-0.79376
-0.26813,0.14827,0.07027,0.000392,-0.0063748,-0.029156,-0.48544,0.029906
0.19922,-0.024938,-0.13867,-0.014565,-0.019847,-0.11026,0.40515,0.20448
0.53909,0.14314,-0.10716,0.054922,0.027795,0.16538,0.16315,0.47634
-0.39425,-0.064056,-0.048363,-0.056387,-0.027343,-0.099041,-0.17489,-0.7692
0.18295,-0.2223,-0.018364,-0.043176,-0.020723,0.035938,0.015641,0.32712
0.26445,0.20958,0.037239,0.056254,0.0092638,0.064361,-0.18591,-0.15193
-0.46208,-0.079382,-0.11509,0.00047543,0.032071,0.096939,0.55078,0.53752
-0.22474,-0.065129,0.12792,-0.038037,-0.0064129,-0.022039,-0.26403,0.41062
0.30914,0.087866,-0.06758,0.05041,0.026936,-0.035103,0.41081,-0.28378
-0.052786,0.29222,0.23795,0.031399,0.022716,-0.084004,-0.853,-0.1238
0.081914,-0.30589,0.0070452,-0.0017323,-0.042868,-0.0063537,0.12469,-0.39561
0.48794,0.17368,-0.07187,-0.057508,-0.029817,0.00060421,0.53882,-0.62354
-0.47378,-0.28732,-0.10786,-0.019634,0.014226,-0.010346,-0.29917,-0.20284
-0.0035789,0.035568,-0.0073644,0.009404,0.0025433,0.068534,0.17969,0.81803
-0.0028001,0.078648,-0.028605,0.036615,0.0126,-0.037383,-0.096134,0.30589
-0.10448,0.076139,-0.023624,0.0067596,-0.0029131,0.054109,0.43527,0.14222
-0.28256,-0.025747,0.20248,0.013383,0.02618,-0.00066869,-0.88968,-0.18472
0.20237,0.001323,-0.21782,-0.037073,-0.024929,0.14283,0.64951,0.16916
0.31793,0.10501,0.15268,0.027846,-0.0072941,-0.20918,-0.47549,-0.13503
0.024476,-0.32151,-0.045745,-0.087831,-0.021717,-0.11711,-0.2924,-0.19632
0.024054,0.15378,0.037989,0.046672,-0.0047881,0.015238,0.56151,0.39341
-0.5452,-0.045554,-0.081151,0.018383,0.028784,0.088722,0.15109,-0.67562
0.054476,0.018688,0.04132,-0.070251,-0.0061641,0.034981,-0.14032,-0.32047
0.87901,0.17417,-0.17368,0.08595,0.031494,0.1051,0.19363,0.69284
-0.50978,0.020854,0.31977,0.026035,-0.01435,-0.099367,-0.037845,-0.032087
0.13596,-0.045259,-0.080712,0.015099,0.012325,0.18602,0.27032,-0.5619
-0.48358,-0.0034985,0.0071998,-0.033733,-0.014041,-0.15021,-0.55807,0.74045
0.24573,-0.0047748,-0.025818,-0.0044236,-0.016099,-0.14976,-0.50289,-0.097785
-0.092855,-0.1757,-0.077505,-0.015269,0.013104,0.1456,0.38742,0.19958
-0.22012,0.022413,0.033158,0.011017,-0.0053607,-0.13361,0.035144,0.19657
0.45627,-0.10484,-0.22331,-0.11347,-0.0018014,0.1908,0.61438,-0.57499
0.044822,0.077277,0.053338,0.041031,-0.0078311,-0.030149,-0.19166,-0.63055
-0.048744,0.15715,0.16919,0.068758,0.0077295,-0.092815,-0.33195,0.56139
0.36288,0.043367,-0.023679,0.01734,0.013834,-0.04268,0.18207,0.57962
-0.7592,-0.18429,0.1772,-0.018642,-0.043785,-0.033974,-0.40385,-0.80145
-0.18001,0.18578,-0.018985,0.031859,0.054168,0.22465,0.52988,0.16146
0.46872,-0.018679,0.080541,-0.080642,-0.043295,-0.13183,-0.66445,0.37541
-0.0147,0.068283,-0.13624,0.081597,0.039333,0.054506,0.39466,-0.37038
0.59012,-0.10965,-0.21048,-0.051769,-0.017889,-0.012224,0.28183,0.736
-0.85584,-0.093097,0.01318,-0.0044309,-0.0038332,-0.10529,-0.48496,-0.38492
0.50035,0.054438,-0.074083,0.035705,0.042445,0.23567,0.97037,-0.43806
-0.48098,-0.25324,0.076539,-0.088084,-0.066699,-0.20144,-0.81224,-0.15202
0.098953,0.21094,0.022619,0.053425,0.027862,0.07406,0.43489,0.33849
-0.22124,-0.0051167,0.29861,0.069225,0.013346,-0.10341,-0.76817,0.35209
0.71328,0.19354,-0.12385,-0.0018641,-0.0011299,0.17891,0.72701,-0.15165
-0.16234,-0.0749,0.06979,-0.066145,-0.01575,-0.10329,-0.59155,-0.18159
0.19568,0.033844,-0.20549,0.024982,0.00064972,-0.028498,-0.045231,0.17559
-0.35662,-0.18337,-0.12184,-0.09531,-0.014422,0.051887,0.57,0.021086
-0.63467,-0.055208,0.15536,0.0031754,-0.029638,-0.20534,-0.94007,-0.48898
0.84396,0.19093,-0.024503,0.10224,0.064481,0.20057,0.90844,0.32508
-0.038359,-0.0084051,0.10936,0.030478,0.010207,0.0046851,-0.23967,-0.41179
-0.069534,0.11944,0.10104,0.030399,0.026325,0.098106,0.22515,0.72188
-0.19221,-0.12905,-0.18474,-0.085409,-0.059061,-0.065897,0.55693,0.029884
-0.027693,-0.17567,0.031529,-0.067079,-0.027261,-0.065623,-0.63385,-0.30153
-0.28291,-0.0041758,-0.079002,0.061627,0.027892,0.0047914,-0.12083,0.42154
0.19402,0.0035695,0.077911,-0.051321,-0.034312,-0.073855,0.01835,-0.5598
0.41302,0.23922,-0.16797,0.070088,0.067297,0.18244,0.013058,-0.19914
-0.039846,-0.015179,0.17804,0.065896,-0.018925,-0.14838,-0.7087,0.089876
-0.12738,-0.0093456,0.095426,-0.072247,-0.0039988,-0.042863,0.2767,-0.41034
0.24069,-0.13424,-0.23332,-0.0010012,-0.0051859,0.132,0.67681,0.78626
-0.15855,0.031111,0.022068,-0.017442,0.0087138,-0.053137,-0.15886,0.25974
0.085226,0.071336,0.12043,-0.03556,-0.016987,-0.019788,-0.34183,0.13729
-0.35055,0.14909,-0.086999,0.11688,0.042786,0.24023,0.92126,0.27319
-0.21601,-0.29151,0.15594,-0.1064,-0.085247,-0.28054,-0.81267,-0.94598
-0.095067,-0.0012498,-0.012864,0.0062919,0.044467,0.01198,0.12823,-0.4761
-0.03875,0.011898,0.17673,-0.0052144,0.018163,0.0087346,-0.30481,-0.060974
0.9416,0.1546,-0.25501,0.031589,0.0080332,0.13972,0.93205,0.15736
0.052929,-0.033186,-0.16987,0.023327,-0.0090643,-0.086973,-0.78178,0.50429
-0.1085,-0.081563,0.056013,0.040359,-0.017278,-0.069634,-0.1837,0.34907
-0.46384,0.018461,-0.061407,-0.066036,-0.039926,0.035485,0.53667,0.072299
-0.62356,0.025693,0.26078,0.016106,0.040164,0.040664,-0.38736,-0.42673
0.29253,0.026746,-0.099823,-0.0029354,0.027511,0.062641,0.10654,0.30979
0.56977,0.14693,0.055011,0.048086,0.023369,0.0070198,0.073439,0.0029705
0.48519,-0.21534,-0.076729,-0.12036,-0.05862,-0.16602,-0.0019206,-0.36045
-0.46528,-0.044687,-0.02438,0.061807,0.0076379,0.10527,0.15385,-0.25221
-0.17535,0.11168,-0.052724,-0.053839,0.0029493,-0.023495,-0.11624,0.88388
-0.2402,-0.098136,0.21294,0.0329,0.0050911,0.025419,0.10042,-0.79661
0.1299,0.20841,0.15419,0.095735,0.02168,-0.01374,-0.28406,-0.36677
-0.20293,-0.13295,-0.23861,-0.076033,-0.025425,-0.0080103,0.15807,0.40178
0.14056,-0.05204,0.18112,0.0098931,-0.01888,-0.089832,-0.1606,-0.25211
0.30584,-0.11154,-0.61924,-0.029351,-0.020894,0.1163,0.57986,0.52779
-0.42942,0.118,0.30502,0.032597,0.047017,-0.0062716,-0.30696,0.40018
0.68745,0.33935,0.19641,0.015767,-0.010102,-0.058633,-0.41979,-0.363
-0.59314,-0.29944,-0.10022,0.029278,0.050226,0.23302,0.73028,-0.017983
0.38307,-0.017504,0.041584,-0.059809,-0.045246,-0.29513,-0.99939,0.096451
-0.15345,-0.025963,-0.072002,-0.024828,0.016074,0.099308,0.44434,-0.31484
0.1048,0.042509,-0.0023996,0.0017822,-0.015788,0.018048,0.090592,0.74061
0.051274,0.1572,0.1727,0.044084,0.0076134,-0.054342,-0.15043,-0.72091
-0.27875,-0.22003,0.031104,-0.014324,-0.023069,0.069852,0.48823,-0.61086
-0.57455,-0.095855,-0.25631,-0.016392,-0.0062097,-0.03103,-0.12799,0.48242
0.58649,0.030854,0.035518,-0.023973,0.0035852,-0.03652,-0.1444,0.075113
0.52785,0.27028,0.029847,0.049197,0.021997,0.029971,0.15096,0.35765
-0.23751,-0.088273,0.11557,-0.015732,-0.013501,0.0042268,-0.062063,-0.12654
-0.4689,0.040622,-0.10724,0.030669,0.014124,0.034313,0.092273,0.1819
-0.11288,-0.10989,0.040001,0.031173,0.034252,0.072783,-0.35995,-0.19727
0.37533,-0.018129,-0.091743,-0.038898,-0.047304,-0.17014,-0.26487,-0.026788
-0.27373,0.048265,0.067786,-0.016761,0.011131,-0.0077167,0.136,-0.32098
0.81646,0.11869,0.097187,0.018368,0.013741,0.12966,0.51009,0.075971
-0.50385,-0.15195,-0.033837,-0.020135,-0.024251,-0.055441,-0.059317,0.326
0.050366,-0.022028,-0.12082,-0.046494,-0.0015054,0.022625,-0.35543,-0.082402
-0.58957,0.024453,0.048789,0.0021889,-0.0039522,-0.026773,-0.060363,0.33026
0.53759,-0.042491,0.00014395,0.033031,0.0077175,-0.015812,0.34556,-0.35569
0.31471,0.029107,-0.030735,0.031582,0.018334,0.11083,0.61452,-0.16939
-0.4683,0.21032,0.30908,0.045986,0.0050589,-0.16159,-0.82357,-0.33472
0.19113,-0.30125,-0.5264,-0.10229,-0.047076,0.035135,-0.056107,0.48028
-0.2879,0.050931,0.21309,0.025126,0.026608,0.037934,0.2502,0.36705
-0.1631,0.033555,0.05835,0.014655,-0.0077824,-0.074255,-0.63449,-0.1199
0.8654,0.14674,0.094173,0.0069744,0.0062771,0.081846,0.58328,-0.10333
-0.40787,0.045849,-0.063945,0.025182,0.021931,0.11564,0.30655,0.093452
-0.2256,-0.2083,0.0039122,-0.064172,-0.031367,-0.12954,-0.26426,-0.64728
-0.25942,0.053984,-0.055662,0.042807,0.025628,0.0095791,-0.013954,0.34769
0.37339,0.017948,0.1857,0.048458,0.028294,-0.022669,-0.14666,-0.37263
-0.10228,-0.03705,-0.22557,-0.071281,-0.03174,0.046161,0.19706,0.30263
0.09057,0.13781,0.039264,0.050424,0.0091441,-0.034745,-0.21599,0.2321
0.44445,-0.12182,-0.096324,-0.11772,-0.052408,-0.047149,-0.071289,-0.080749
-0.58273,-0.15904,-0.16909,0.0026236,0.010185,0.14942,0.39144,0.52727
0.23756,0.17598,0.47973,0.068071,0.0018573,-0.23394,-0.73953,-0.48818
0.15539,-0.052506,-0.25714,0.039886,0.0089325,0.14691,0.80301,0.32504
-0.1968,0.00099406,0.051166,-0.050551,0.00056334,-0.051315,-0.42585,-0.65344
-0.3263,-0.099754,0.013946,0.023149,0.0082955,0.070239,0.47916,-0.33349
0.51957,0.27857,0.12202,0.057371,0.047854,0.066528,-0.32791,0.80588
-0.11445,0.057521,0.044874,0.0045324,-0.013695,-0.070152,0.22036,0.35074
-0.27413,-0.052987,-0.087575,-0.026746,0.010844,0.0039494,-0.23045,-0.5469
-0.10391,-0.14804,-0.23903,-0.12299,-0.050788,-0.078358,-0.27609,-0.14519
-0.058719,-0.080394,0.088476,0.067141,-0.0036338,0.058023,0.56731,-0.11263
0.11038,0.09458,0.15968,0.0047975,0.011461,0.007093,-0.45678,-0.16146
0.4799,-0.20897,-0.18127,-0.028089,-0.060227,-0.11356,-0.29844,0.30278
0.14028,0.19726,-0.042266,0.032002,0.03145,0.055893,0.65604,0.48475
-0.49215,-0.021355,0.11794,0.030005,0.068009,0.086166,0.17727,0.002784
