0.0065438,0.049306,0.13961,0.070194,0.021912,0.0060356,0.0028392,0.017463
0.020557,0.048936,0.29236,0.18449,0.029534,0.01438,0.025512,0.0014726
0.011265,0.033384,-0.075683,0.042186,0.013475,0.0070638,0.024461,0.0017205
-0.013255,-0.075439,-0.21085,-0.21577,-0.026194,-0.015966,-0.015734,-0.0052882
0.0018947,-0.035383,-0.23507,-0.057958,-0.019064,-0.023491,-0.032362,-0.011884
0.0021346,0.028448,0.19711,0.023396,0.011535,0.0079218,-0.017428,0.020792
-0.0047371,0.014337,0.27286,0.051502,0.0032091,0.01579,0.0292,-0.0090514
0.012394,0.015862,0.25528,0.10404,0.002928,0.0079614,0.021641,0.0077489
-0.00139,0.0094241,-0.055327,0.055412,0.010768,-0.0077118,0.0067448,-0.007092
0.00051228,0.0027321,-0.30506,-0.14976,-0.0044686,5.762e-05,-0.015588,-0.0067821
0.0022114,-0.043285,-0.022734,0.027,-0.0036896,5.1533e-05,-0.014259,-0.014757
-0.012118,0.035552,0.1001,0.046264,0.013112,0.00010896,0.002748,0.015929
-0.01914,-0.057398,-0.2665,-0.1154,-0.040017,-0.015373,-0.0037854,-0.0083581
0.020216,0.060987,0.065797,0.026773,-0.0068772,0.0083099,0.0129,0.014065
-0.018957,-0.085555,-0.095044,0.012516,0.018687,0.00084886,-0.017575,0.0051738
0.019732,0.042215,0.044959,-0.040222,0.028705,0.0012911,0.006332,0.011905
0.019225,0.061431,0.34276,0.17383,0.03077,0.02522,0.022131,0.003045
-0.036027,-0.098578,-0.46263,-0.33738,-0.05351,-0.036809,-0.0092161,-0.037001
0.010222,0.10059,0.24097,0.26943,-0.013473,0.0026132,-0.032996,0.0090101
0.025078,0.0017861,0.68846,0.11818,0.017842,0.018389,0.036747,-0.0072536
0.031854,0.07282,-0.34066,0.027605,0.016867,0.01043,0.0047114,0.031549
-0.071128,-0.22617,-0.65447,-0.33215,-0.032007,-0.029135,-0.035339,-0.038463
0.0364,0.17472,0.57119,0.34995,0.058894,0.032493,0.065064,0.017251
-0.036119,-0.11501,-0.44069,-0.39563,-0.061663,-0.046833,-0.061206,-0.0043409
-0.038489,-0.024347,0.49513,0.11095,-0.026047,0.0064172,-0.0078006,-0.017329
0.06865,0.088603,-0.59071,0.027155,0.049047,0.028308,0.022288,0.032787
0.012201,0.022315,0.10742,0.050402,-0.0077888,-0.0044595,-0.0020458,0.0050376
-0.0043953,-0.034019,0.14609,0.21464,0.030362,0.0019937,0.013078,0.0005228
-0.012165,-0.094526,-0.24618,-0.44602,-0.00038047,0.0008895,-0.010384,0.01093
-0.034459,0.037136,0.47086,0.39912,-0.045352,-0.023338,-0.0099212,0.05145
0.030215,0.13478,0.062665,-0.24027,-0.0032152,0.015276,0.02221,-0.15162
0.017581,0.0027482,-0.1442,-0.0040021,0.024071,0.0073575,-0.0078821,0.042332
-0.010187,-0.031876,0.47279,0.19344,0.028188,0.0075934,0.016807,0.016346
-0.03004,-0.1425,-0.70591,-0.3918,-0.030467,-0.023072,-0.036725,-0.018195
0.027947,0.15348,0.59205,0.68281,0.027296,0.02476,0.034493,0.072077
0.05407,0.034001,-0.96817,-0.65655,-0.025464,-0.020742,-0.019629,-0.0091698
-0.084703,-0.24461,0.49223,0.39111,-0.032705,-0.026727,-0.01941,-0.042757
0.0099759,0.074404,-0.44254,-0.11498,0.005558,0.022438,0.0039631,0.018425
-0.068107,-0.056426,0.17242,0.20581,-0.01989,-0.021746,-0.011899,-0.013105
0.05617,0.11278,0.35987,-0.53772,0.086559,0.051498,0.058118,-0.004719
0.14078,0.35575,0.39853,0.73389,0.075276,0.046593,0.042228,0.074499
-0.079754,-0.084631,0.071751,-0.78874,-0.17834,-0.075871,-0.082969,-0.07273
-0.06626,-0.5901,-0.92692,0.1958,0.044847,-0.0037602,-0.044054,0.0063264
-0.0061646,0.23924,0.10788,0.19258,-0.020464,0.0047952,0.033904,-0.008947
0.006835,0.10041,0.51122,-0.35628,0.0087847,-0.011338,0.025796,-0.0015256
0.074356,0.01867,0.13193,0.83358,0.14835,0.05719,0.048682,0.020774
-0.069147,-0.20747,-0.76743,-1.0808,-0.22678,-0.094146,-0.085066,-0.027843
0.053011,0.30599,0.92857,0.89868,0.1411,0.074048,0.054149,0.048186
0.073828,0.18457,-0.68525,-0.08399,0.056455,0.023168,0.028816,0.022612
-0.19394,-0.5485,0.61479,-0.20684,-0.14503,-0.090017,-0.10628,-0.096422
0.093773,0.32465,-0.42754,0.093717,0.098929,0.070935,0.11004,0.042945
-0.070518,-0.11927,-0.78308,0.21813,-0.14152,-0.056062,-0.12659,0.0034481
0.079088,0.055565,0.44764,-0.47781,0.094513,0.02144,0.012329,0.011793
-0.019775,-0.15262,0.04839,-0.17429,0.017972,0.030063,0.074022,-0.010117
0.14844,0.47329,0.63063,0.405,0.1133,0.055596,0.082127,0.047005
-0.22909,-0.61495,-0.26664,-0.50777,-0.221,-0.12886,-0.15085,-0.090478
0.058019,0.26131,0.12674,0.071118,0.015087,0.030913,0.023338,0.030269
0.08719,0.031113,0.31186,0.33628,0.21994,0.081268,0.13555,0.0026445
-0.11889,-0.20425,-0.36925,-0.10524,-0.31756,-0.1111,-0.15843,0.0059604
0.22034,0.60997,-0.076139,0.86643,0.28515,0.12529,0.15657,0.086732
-0.20807,-0.48677,-0.37484,-0.6398,-0.19103,-0.13166,-0.16978,-0.099085
0.0097729,-0.095307,-0.26807,-0.12717,0.19888,0.063323,-0.012634,0.010829
0.061547,0.37135,0.8834,0.2197,0.087462,0.046326,0.11245,0.0023849
-0.060038,-0.24956,-0.28796,-0.13561,-0.3925,-0.10421,-0.067761,-0.038347
0.036402,-0.1988,-0.53219,-0.10346,0.11081,0.07306,0.072032,0.05297
-0.062338,0.032765,0.056235,-0.56886,-0.06614,-0.077668,-0.053828,-0.035797
0.050783,0.18052,0.41248,0.64003,0.19455,0.068994,0.015798,0.031685
0.22011,0.55746,0.86816,-0.16263,0.21395,0.09926,0.10131,0.083906
-0.31187,-0.71146,-0.26236,-0.29477,-0.38228,-0.17424,-0.15666,-0.1679
0.18921,0.48273,-0.27464,0.88625,0.10941,0.10784,0.085549,0.14365
-0.14411,-0.51675,-0.83815,-0.85318,-0.092075,-0.085901,-0.070571,-0.067268
0.0080112,0.04758,0.52881,0.87665,0.12245,0.025528,0.023355,-0.05065
0.012147,-0.042915,-0.28963,0.096853,0.025962,0.012131,-0.02332,0.013724
0.18796,0.74362,0.69653,-0.44554,-0.02288,0.045461,0.11753,0.055332
-0.2308,-0.86525,-1.0346,-0.28428,-0.11084,-0.070096,-0.14781,-0.02772
0.20063,0.42854,0.81769,-0.27193,0.30815,0.14179,0.23533,0.07663
-0.18998,-0.13957,-0.48486,-0.07929,-0.26653,-0.16276,-0.20958,-0.085246
-0.035606,-0.20174,0.15341,0.48425,-0.10866,-0.046258,-0.099738,0.0096085
0.21072,0.40602,0.47246,0.29821,0.17241,0.12423,0.20547,0.063958
-0.11474,-0.14536,-0.10572,-0.11688,-0.10266,-0.026095,-0.083054,-0.06296
0.082341,0.071968,-0.40727,-0.30372,0.17607,0.065546,0.097148,0.027446
-0.06451,-0.13202,0.23639,-0.0097836,-0.06107,-0.061507,-0.066499,-0.047178
-0.070089,0.091358,-0.18953,-0.039508,-0.10256,-0.047621,-0.042819,-0.04394
0.042987,0.14555,0.6582,0.40965,0.10668,0.0371,0.074394,0.037985
0.048853,-0.26076,-0.1257,-0.11185,0.051206,0.052169,-0.019533,0.089999
-0.052055,0.058513,-0.16891,0.077933,-0.22217,-0.096114,-0.074522,-0.059216
0.045,-0.17827,-0.18644,-0.026804,0.22381,0.068752,0.073604,0.028046
-0.12132,-0.23623,-0.70611,-0.19656,-0.1659,-0.094039,-0.14537,-0.054664
0.12,0.45614,0.64219,-0.18427,0.037999,0.094911,0.12796,0.059263
0.1037,0.25976,-0.65651,0.25973,0.11642,0.041489,0.080988,0.0017982
0.015943,0.17634,0.46361,-0.45602,0.14732,0.057826,0.07285,-0.0014309
-0.19137,-0.55013,0.27066,0.45413,-0.3849,-0.20011,-0.22488,-0.045014
0.0043754,0.0042004,0.020668,-0.058956,0.051275,0.033196,0.02347,0.003289
0.056081,0.044732,0.50199,0.20555,0.13598,0.085982,0.099016,0.018284
-0.059241,-0.090034,-0.55957,-0.076223,-0.083425,-0.088296,-0.12315,-0.031065
-0.035861,-0.20999,0.31221,-0.70684,-0.028437,0.0030237,0.021334,-0.019199
0.065128,0.21051,-0.49783,0.83662,0.14478,0.040131,0.025159,0.015585
0.065514,0.26649,0.791,-0.4412,0.084393,0.070309,0.12326,0.042835
0.044662,0.14538,-0.53208,0.892,-0.10865,-0.023414,-0.074434,0.031955
-0.10603,-0.2013,-0.18195,-0.66214,-0.091411,-0.053555,-0.044075,-0.040109
-0.019192,-0.042175,-0.55522,0.1171,0.09629,-0.012536,-0.027603,-0.032679
0.12511,-0.029565,0.67681,-0.18061,0.0086273,0.06801,0.076577,0.077435
-0.041132,-0.11298,0.091012,-0.28309,-0.1123,-0.031111,-0.0051556,-0.014915
-0.12058,-0.30406,-0.81757,-0.071141,-0.070823,-0.068125,-0.0935,-0.060274
0.080937,0.69108,0.91631,0.47588,0.063507,0.050407,0.092236,0.011175
-0.046951,-0.36369,-0.55599,0.036981,0.11193,0.011812,-0.050187,-0.011853
0.1044,0.39064,0.45206,-0.4034,0.13004,0.066067,0.13476,0.018939
-0.12945,-0.56046,0.05133,0.36498,-0.24872,-0.11485,-0.15828,-0.013582
0.11866,0.29322,0.47985,-0.26995,0.11655,0.047403,0.10922,0.03141
-0.1041,-0.18543,-0.40387,0.37366,-0.11019,-0.064126,-0.13334,-0.01768
0.0075075,-1.9231e-05,0.13126,0.12293,-0.054415,0.027374,0.012497,0.0035
0.14953,0.53358,-0.19899,-0.11976,0.40824,0.14242,0.14859,0.048323
-0.052205,-0.48679,-0.72293,-0.51655,-0.31666,-0.10168,-0.068243,-0.023644
-0.057778,0.059281,-0.053273,0.61329,0.082866,0.021717,-0.027849,-0.016941
-0.10856,-0.30292,0.74157,-0.53354,-0.23715,-0.096712,-0.057501,-0.048638
0.1477,0.32514,-0.37871,0.061234,0.22344,0.097775,0.12488,0.045432
-0.030712,0.14479,0.11897,0.14443,-0.034908,-0.035363,-0.07378,-0.0080857
-0.096757,-0.18357,0.22177,0.14472,-0.074055,-0.05071,-0.028055,-0.045094
0.12121,0.14743,0.18915,0.13341,0.098831,0.059635,0.043394,0.059356
0.044455,0.11635,-0.52693,-0.61343,-0.02362,-0.0011792,0.015296,0.023852
0.023564,0.0066625,0.75613,0.33753,0.050901,0.048024,0.035495,0.027807
-0.18481,-0.47505,-0.75944,-0.15036,-0.076292,-0.074193,-0.053076,-0.085377
0.058801,0.23928,0.17233,0.25476,0.023938,0.0068964,-0.00911,0.01207
0.1128,0.03281,0.67052,0.51681,0.17119,0.087861,0.07287,0.046427
-0.031226,-0.044697,-0.39624,-0.49507,-0.15867,-0.02688,0.0048665,-0.02933
-0.13902,-0.22272,-0.23654,-0.29566,-0.15366,-0.11093,-0.15855,-0.058933
0.024153,-0.11249,-0.47903,-0.21334,0.014084,-0.00025153,0.0047728,0.028092
0.068382,0.19802,0.085606,0.33647,0.12584,0.078688,0.057928,0.060129
-0.021028,0.58834,0.16827,0.117,-0.021361,-0.030185,0.025096,-0.032871
0.084956,0.0062558,0.30082,-0.047122,0.25239,0.095179,0.1101,0.007094
-0.14423,-0.51686,0.084904,-0.23052,-0.34968,-0.11542,-0.1241,-0.038679
0.088611,0.1342,-0.11343,0.52305,0.063042,0.041124,0.010134,0.048436
0.033382,-0.20803,0.81261,0.44363,0.17011,0.017822,0.020401,0.018162
-0.021321,0.13991,-0.82015,-0.51859,-0.15364,-0.029288,-0.007863,-0.028317
-0.013691,0.049126,0.321,-0.32523,0.091701,0.024561,0.026248,-0.021082
0.11023,0.071158,-0.40628,-0.43505,0.039057,0.038556,0.051772,0.047369
-0.2595,-0.54615,-0.64177,-0.13213,-0.28779,-0.14363,-0.18179,-0.080921
0.087827,0.32108,0.71205,0.44988,0.1352,0.079662,0.067513,0.039439
0.050815,0.28199,-0.37753,0.61554,0.14473,0.036797,0.010679,0.018138
0.044079,0.15729,0.55041,0.090493,-0.1178,0.001618,0.046477,0.004135
-0.064362,-0.18492,0.089625,-0.34694,0.12176,-0.025375,-0.012078,-0.01753
0.031134,-0.20435,-0.27698,-0.11657,-0.13616,-0.035835,-0.015957,0.016365
0.018977,-0.016567,0.0012724,0.06199,0.23359,0.080097,0.074462,-0.018506
-0.15482,-0.36187,-0.074926,-0.60386,-0.40979,-0.15379,-0.16225,-0.059114
0.16636,0.41026,0.27336,0.66935,0.23787,0.12985,0.086671,0.082331
0.060627,0.5676,0.14306,-0.1096,-0.027331,0.0011858,0.024432,0.023005
-0.16776,-0.65349,-0.40922,-0.2527,-0.065765,-0.040168,-0.036581,-0.057735
0.1289,0.49868,0.23566,0.39735,0.26208,0.091082,0.12212,0.050428
-0.081589,-0.56048,0.13558,0.17896,-0.076119,-0.051164,-0.093552,-0.051768
-0.050239,-0.1817,-0.62619,-0.16086,-0.22967,-0.084894,-0.090203,0.017581
0.1986,0.41643,0.10616,0.14356,0.2072,0.11421,0.092804,0.085744
-0.25767,-0.36841,0.248,-0.60763,-0.16389,-0.1418,-0.083825,-0.16045
0.10395,0.25879,-0.93301,-0.52543,-0.037686,0.084434,0.035996,0.052033
0.11145,0.48247,1.0803,0.59353,0.23529,0.074306,0.13181,0.043429
-0.12566,-0.2326,0.16314,-0.054931,-0.22649,-0.11709,-0.10901,-0.037596
0.033639,0.0077235,0.32903,0.20795,0.047015,0.026463,0.00087778,0.020372
0.089935,-0.011284,-0.23822,0.78459,0.28343,0.075924,0.10197,0.02266
-0.15139,-0.5811,-0.44922,-0.16055,-0.2275,-0.069625,-0.12612,-0.045661
0.044798,0.3135,-0.17475,-0.73983,-0.079339,-0.019028,0.0041606,0.02701
-0.07863,-0.27105,-0.1817,0.12728,0.040135,0.0015188,-0.053892,-0.040028
0.18984,0.47359,0.81319,0.020434,0.075587,0.07812,0.12189,0.073921
-0.032237,-0.018082,-0.69236,-0.06602,0.065196,0.0076208,-0.03061,-0.0059402
-0.065007,-0.18632,0.56778,-0.12031,-0.14823,-0.092983,0.012421,-0.06865
0.0055419,0.2311,-0.59982,0.13738,0.090732,0.049456,0.024774,0.034104
-0.00047903,-0.083077,-0.13927,0.3643,0.01589,0.012744,-0.071397,0.028654
-0.08337,-0.26042,-0.24746,-0.86639,-0.18547,-0.094029,-0.0024615,-0.085302
0.14715,0.40939,0.86622,0.81629,0.15086,0.096099,0.051996,0.07471
0.0032061,-0.27131,0.13518,-0.23243,-0.013749,-0.0029633,-0.0095745,0.016144
-0.15618,-0.11078,0.29987,-0.17405,-0.03812,-0.063198,-0.046633,-0.073855
0.059242,0.31637,0.32346,0.25006,-0.023281,0.024675,0.018755,0.030932
-0.022762,-0.25188,-0.76168,0.14026,0.062357,0.0027333,-0.016831,-0.0057404
0.21464,0.53249,-0.24136,-0.24863,0.17198,0.10522,0.12747,0.089324
-0.22885,-0.59053,-0.35718,-0.19412,-0.3118,-0.16022,-0.15037,-0.10589
0.13094,0.20669,-0.35156,0.37766,0.18873,0.11256,0.0789,0.064873
-0.034139,-0.066756,0.57166,0.43997,0.040317,-0.0061558,0.0023803,-0.023209
0.041737,-0.07997,0.49593,-0.4618,0.023911,0.022794,0.033897,0.01303
-0.25818,-0.54029,-0.66375,-0.92825,-0.39179,-0.20656,-0.17034,-0.13061
0.074509,0.56365,0.64067,0.49715,0.14503,0.079625,0.061716,0.038608
0.25919,0.61724,-0.31135,0.39774,0.36142,0.17089,0.12105,0.16176
-0.20363,-0.37071,0.051018,-0.16585,-0.36706,-0.16674,-0.10907,-0.12023
0.092515,-0.16663,-0.12247,0.038243,0.14758,0.082631,0.043716,0.052017
-0.016562,0.024042,0.74821,0.099367,-0.0084931,-0.018503,0.0095191,-0.017082
0.0077727,-0.083013,-0.6928,-0.059936,0.024022,0.021806,-0.023871,0.023548
0.055523,0.29833,0.19452,0.30803,0.11975,0.046869,0.037435,0.017071
-0.1005,-0.25573,-0.091765,-0.66879,-0.19845,-0.09228,-0.025316,-0.076107
-0.0076272,-0.13615,-0.083296,0.61252,-0.056172,-0.013316,-0.040372,0.0093087
0.037141,0.18199,0.38784,-0.018809,0.16327,0.049064,0.062382,-0.00016517
-0.13004,-0.47027,-0.70746,-0.076173,-0.10288,-0.069292,-0.07667,-0.026145
0.1398,0.44985,0.42891,-0.1019,0.067245,0.092711,0.057844,0.072492
0.042625,-0.05415,-0.28901,-0.73691,0.0098202,-0.019259,0.035991,-0.0005191
-0.13188,0.059177,0.096912,0.32615,-0.11071,-0.060992,-0.048709,-0.072731
-0.008334,0.016983,-0.54627,0.21725,0.01858,-0.024232,-0.048012,-0.010948
0.17111,0.4663,0.71085,0.41115,0.093335,0.091341,0.069179,0.098988
-0.062654,-0.47097,0.56048,-0.20357,0.035615,0.020221,0.0058977,-0.02441
0.031938,-0.033206,-0.70068,-0.23974,-0.10769,-0.034569,-0.02694,0.032404
0.0088279,-0.01347,0.47593,0.60175,0.17892,0.059504,0.017607,0.0031275
-0.14823,-0.25074,-0.085738,-0.63219,-0.1828,-0.096352,-0.016551,-0.081656
0.099528,0.3551,-0.69142,0.48631,0.09616,0.052237,0.011466,0.043205
-0.09932,-0.24243,0.18631,-0.4753,-0.18719,-0.080834,-0.046451,-0.067756
-0.0098214,0.036843,0.44156,0.026747,0.014328,-0.0033498,0.013189,-0.0080729
0.17359,0.34462,0.18121,0.25556,0.25579,0.1052,0.089174,0.08998
-0.1653,-0.28405,-0.44503,-0.071579,-0.18118,-0.10643,-0.10728,-0.061932
0.083688,-0.0095998,-0.21195,-0.2283,0.031685,0.057351,0.02555,0.036934
-0.0008456,0.061555,0.48635,-0.15902,-0.0041589,0.026428,0.042362,0.0043605
0.057663,0.16563,0.057869,0.62221,0.03898,0.019577,-0.0022861,0.028163
0.024394,0.053216,-0.63253,-0.13287,0.11357,0.021039,-0.022701,0.01458
-0.093612,-0.40917,-0.26559,-0.32137,-0.093642,-0.078801,0.035498,-0.099203
-0.01602,0.042371,-0.070577,0.36983,-0.14576,-0.045826,-0.077994,0.037841
-0.040553,0.13966,0.28879,-0.41122,0.066247,0.041648,0.019377,0.0032061
0.08998,0.16088,0.80577,0.55297,0.11277,0.050739,0.05399,0.046287
-0.023169,-0.092627,0.17636,-0.35683,-0.15416,-0.041937,-0.060196,-0.013071
-0.044065,-0.092871,0.33124,-0.20554,0.078691,0.0059528,0.020515,-0.057932
-0.027169,-0.069347,-0.78825,-0.058185,-0.10192,-0.047609,-0.0085948,-0.017998
0.13724,0.10063,0.39869,0.63769,0.13282,0.070941,0.071186,0.060057
-0.10519,0.025,-0.47715,-0.43203,-0.044864,-0.028995,-0.060511,-0.042166
0.081721,0.10961,-0.54379,0.44287,0.091496,0.05092,0.01031,0.050734
0.065299,0.034915,-0.39679,-0.13562,0.14295,0.044855,0.049226,0.042242
-0.17006,-0.3299,0.22901,-0.77527,-0.36007,-0.14901,-0.13126,-0.08302
0.0084547,0.18229,0.98899,0.53439,0.081517,0.023763,0.070484,-0.012456
-0.016347,-0.24493,-0.64482,-0.27372,-0.02526,0.0083364,-0.0094525,0.027317
0.16186,0.40054,0.55766,0.42083,0.2019,0.093737,0.082264,0.059562
-0.066173,-0.21314,-0.20811,-0.02796,-0.11215,-0.063692,-0.060375,-0.040969
-0.067439,0.12045,0.13019,-0.18933,-0.053119,-0.01844,-0.030881,-0.03235
0.025424,-0.14362,0.020592,0.11583,0.074857,0.026624,0.030322,0.014883
-0.021843,-0.1223,-0.13464,0.2213,-0.079064,-0.037625,-0.032884,-0.00098204
0.0016894,0.2374,0.73367,-0.29023,0.017127,0.0077461,0.045157,-0.025323
0.017717,-0.091398,-0.65924,0.062105,-0.01093,0.0065582,-0.048143,0.019995
0.018083,0.035008,-0.5508,0.056593,0.048108,0.021245,-0.023928,0.025658
0.20546,0.54886,0.48844,0.12138,0.18655,0.090688,0.19563,0.046443
-0.22529,-0.39056,-0.53754,-0.49316,-0.15823,-0.058774,-0.092896,-0.065973
-0.032232,-0.29433,-0.026611,0.090396,-0.072431,-0.060133,-0.085081,-0.014568
-0.0044181,0.14913,0.75168,0.26673,-0.025082,-0.030608,0.01585,-0.0022702
-0.024261,-0.40221,-0.65047,-0.15452,-0.024161,0.014339,-0.063447,0.025867
0.16678,0.4621,0.54496,0.19079,0.14906,0.059438,0.10699,0.046726
-0.10224,-0.34592,-0.027306,-0.5688,-0.0052944,-0.019831,0.011944,-0.072143
-0.025684,0.10174,-0.47848,0.4275,-0.14332,-0.027673,-0.059112,0.013371
-0.024689,0.15399,1.0608,0.42077,0.063218,0.0050252,-0.0042854,-0.032371
0.15892,0.38419,-0.32395,0.032462,0.15338,0.086213,0.090644,0.06424
-0.11562,-0.16046,-0.23545,-0.14113,-0.13865,-0.065512,-0.047815,-0.024948
0.088514,0.28329,-0.0010679,-0.45746,-0.024186,0.010348,0.017585,0.012292
-0.13603,-0.73433,0.0091169,-0.33588,-0.019368,-0.054062,-0.096371,-0.043321
0.02965,-0.070465,-0.78805,0.54812,0.039284,0.045154,0.05516,0.010581
0.16222,0.41767,0.8115,0.37291,0.16684,0.072841,0.073284,0.094976
-0.10677,-0.1341,-0.55369,-0.42292,-0.14495,-0.057571,-0.057995,-0.041037
-0.075064,-0.1432,-0.43808,-0.28943,-0.13066,-0.073014,-0.065471,-0.031021
0.061763,0.21687,0.54832,0.0041796,0.23324,0.073357,0.074226,0.0073953
-0.00057832,0.047718,0.1819,0.21227,-0.17789,-0.040009,-0.021619,-0.035184
-0.057938,-0.10996,0.73233,0.24454,-0.011837,-0.014055,-0.0090156,-0.0098763
0.13337,0.52015,-0.17139,-0.014448,0.16186,0.081717,0.096759,0.060735
-0.1515,-0.73003,0.33469,0.12252,-0.085714,-0.056526,-0.063255,-0.072223
-0.028065,-0.082771,-0.57792,-0.018499,-0.058579,-0.037411,-0.10581,0.022133
0.11434,0.13815,-0.50498,-0.58128,0.087432,0.069277,0.086711,0.024535
0.049884,0.31162,-0.2356,0.6028,0.063398,0.021582,0.014645,0.029436
-0.018298,0.057743,0.36788,-0.31233,-0.10737,-0.024316,0.014168,-0.017609
0.026336,-0.12182,-0.12044,0.047636,0.035753,0.025012,-0.016195,0.047223
-0.036122,0.15598,0.5447,-0.11286,-0.0076561,-0.041846,0.017224,-0.026712
-0.12114,-0.45363,-0.34624,-0.048537,-0.034887,-0.061347,-0.088937,-0.06843
0.074573,0.1488,-0.068979,-0.028608,-0.01504,0.051974,0.063388,0.038308
-0.012591,0.046424,0.321,0.1935,0.020375,0.00086848,0.0049823,-0.012012
0.030733,0.025117,-0.81902,-0.1053,0.016484,-0.011799,-0.014663,-0.0090191
-0.030039,0.019119,0.4191,0.32668,-0.034671,0.013808,-0.0038481,0.00016421
0.14909,0.39256,0.16449,-0.01892,0.22615,0.11666,0.14641,0.07811
-0.22036,-0.68528,0.43053,-0.16832,-0.23245,-0.14857,-0.18911,-0.095165
0.049925,0.12744,0.19365,-0.12594,0.026929,0.038435,0.036478,0.019889
-0.00018285,0.23593,0.090463,0.25934,-0.034839,-0.033156,-0.0046935,-0.0058794
0.07531,-0.078644,-0.42323,0.084293,0.035385,0.035252,-0.023084,0.070192
0.003376,0.11427,-0.55378,-0.43577,0.018935,0.0016857,0.06004,-0.048435
0.026286,0.019525,-0.018695,-0.013252,0.072196,0.00702,0.010919,0.013397
-0.012426,-0.071355,0.025067,0.1182,-0.070308,0.0046273,-0.013698,0.013478
-0.12099,-0.41327,-0.34713,-0.2107,-0.088128,-0.052155,-0.060413,-0.056165
0.12978,0.4187,0.35058,0.34752,0.12822,0.055572,0.11296,0.046403
-0.12774,-0.24464,0.67612,0.26551,-0.0071283,-0.023693,-0.072004,-0.046285
0.012413,0.1455,-0.48549,-0.4926,-0.095691,-0.0087325,-0.022059,0.024886
0.073544,0.17581,0.059849,0.16092,0.11256,0.037834,0.027768,0.033146
0.047881,0.13477,0.60295,0.015173,-0.02298,-0.016988,0.084634,-0.037267
-0.087846,-0.41686,-0.039133,0.021643,-0.088192,-0.024969,-0.102,0.0089093
0.057245,0.22926,-0.13936,0.16184,0.010749,0.029329,0.022254,0.0076478
-0.016525,-0.070384,-0.77764,0.033903,0.12551,0.012975,-0.034801,0.013757
-0.050989,-0.19337,-0.19815,-0.38874,-0.10314,-0.034988,0.024012,-0.042881
0.08703,0.34284,0.48942,0.11053,0.12179,0.04178,0.019554,0.048922
-0.1412,-0.36094,0.30339,-0.00016862,-0.15271,-0.092475,-0.063117,-0.06994
0.069267,0.27382,0.24997,0.11613,-0.074997,-2.7401e-05,0.026669,0.030471
-0.00022668,-0.17337,-0.37989,-0.38192,0.10492,0.069331,0.031615,0.014397
0.18149,0.36987,-0.6597,0.1105,0.21507,0.08447,0.10042,0.0616
-0.2218,-0.57074,0.36223,0.15928,-0.17442,-0.087425,-0.095057,-0.093599
-0.015244,0.084998,-0.14326,0.47043,-0.10284,-0.048043,-0.078546,0.0017496
0.089686,0.33062,0.43925,-0.18061,0.12489,0.061782,0.07138,0.050503
0.045565,-0.0053567,0.73136,-0.15221,-0.061695,-0.0081748,0.026096,-0.002337
0.062892,0.11547,-0.35028,-0.053472,0.14206,0.038792,0.027353,0.022625
-0.23357,-0.44908,-0.27337,-0.46267,-0.26373,-0.1255,-0.12045,-0.093579
0.070237,0.31457,-0.36569,0.67462,0.1352,0.084963,0.012289,0.055201
-0.02541,-0.22062,0.037315,-0.39964,-0.028119,-0.040562,0.027227,-0.038812
0.073695,0.30323,-0.55544,-0.11551,0.090264,0.02944,0.041792,0.0386
0.13374,0.073052,0.74057,0.23722,0.068541,0.068672,0.064109,0.061121
-0.24318,-0.59022,-0.2604,-0.10852,-0.21836,-0.1336,-0.12426,-0.11941
0.18558,0.31512,0.47383,0.86844,0.21376,0.13365,0.078502,0.098836
-0.12661,-0.19284,0.30197,-0.70994,-0.17442,-0.090556,-0.061802,-0.080815
-0.031216,0.029155,-0.51304,-0.3549,-0.078447,-0.025144,-0.045105,-0.0020068
0.15131,0.46762,-0.014965,0.47713,0.29835,0.12649,0.12855,0.093065
-0.11057,-0.3295,-0.58499,-0.33359,-0.23948,-0.12035,-0.095665,-0.069155
