0.02295,-0.0083437,-0.018539,-0.023915,-0.0087061,-0.011634,0.012556,-0.011152
-0.23885,-0.12704,0.092834,-0.061166,-0.017249,-0.020028,-0.017666,-0.028727
0.15313,-0.014494,0.071346,0.043069,0.022127,0.026716,0.015549,0.025635
0.23757,0.049061,-0.0052174,0.014838,-0.0079413,-0.02761,-0.03653,0.0034907
-0.36198,0.0016486,0.11272,-0.052589,0.017256,0.012298,0.0054335,-0.032841
0.30514,0.10865,-0.083125,0.082602,-0.0041946,0.021378,0.039531,0.025685
-0.029821,0.0095248,-0.12442,-0.040757,-0.017953,-0.023917,-0.020467,0.0067521
0.15331,0.0069146,0.1371,-0.10244,-0.0086827,-0.0065447,-0.018511,0.019227
-0.30439,-0.026859,-0.017066,0.053817,0.015625,0.010828,-0.0093829,-0.038972
0.13473,-0.14937,-0.00018072,-0.032832,-0.023196,0.004597,0.014744,-0.019875
0.04913,0.30088,0.14227,0.28617,0.085895,0.052752,0.053967,0.083965
-0.56676,-0.19349,-0.14259,-0.0046363,-0.039684,-0.063537,-0.047813,-0.063611
0.42368,-0.17212,-0.50126,-0.37378,-0.087113,-0.03959,-0.024801,-0.017342
0.11106,0.38918,0.21626,0.085341,0.045519,0.054353,0.013782,0.051009
-0.50005,-0.61699,0.12002,-0.072162,-0.024297,-0.023769,-0.017891,-0.1083
0.55467,0.42155,0.56091,0.21668,0.086436,0.046502,0.075544,0.18478
-0.20772,-0.054598,-0.041303,0.014734,-0.020717,-0.039403,0.02845,-0.084961
0.36815,0.16829,-0.19773,-0.0059978,0.013421,0.0076205,-0.10454,-0.04211
0.013567,-0.13442,-0.42787,-0.1504,-0.061522,-0.023419,-0.0032089,0.032456
-0.25252,-0.024424,0.014707,0.026292,0.019598,0.039195,0.0042459,-0.056288
-0.14592,0.10717,0.22903,0.09356,-0.0015262,0.0077333,0.011492,0.03557
0.18079,-0.061467,0.018905,-0.0042709,0.015311,-0.00087077,0.049705,0.058043
-0.24357,0.0064679,0.057139,0.02089,0.0073509,-0.010256,-0.0061861,-0.020253
-0.16936,-0.12901,-0.075487,-0.1364,-0.033272,-0.020498,-0.023434,-0.035511
0.17071,0.16263,0.0077637,0.17195,0.042054,0.023191,0.0057399,0.043217
0.084409,-0.065573,-0.11826,-0.077338,-0.031921,-0.035142,0.0032349,-0.018718
0.23159,0.013683,-0.12109,-0.11012,-0.028117,0.0080835,0.00041523,0.028524
-0.14236,-0.029193,0.15109,-0.026762,0.014975,-0.018474,-0.049383,-0.072871
0.050644,-0.1152,0.21565,0.17419,0.011939,-0.012755,-0.028685,-0.049301
-0.25121,0.046122,0.041038,-0.060458,0.033465,0.095903,0.10971,0.052626
0.34208,0.14381,-0.078159,0.075258,-0.0062134,-0.012696,-0.0010994,0.061314
0.29774,-0.10203,-0.098959,-0.035023,0.010039,-0.026199,-0.0484,-0.015249
-0.57346,0.2001,-0.03393,-0.023845,0.0038548,0.02377,0.022576,0.057303
-0.10879,-0.074495,0.096576,-0.086851,-0.064197,-0.066433,-0.061668,-0.088441
0.17574,-0.051,-0.070646,0.079774,0.0085971,0.0073301,0.034614,-0.046642
-0.1177,-0.18305,-0.15505,0.11535,0.003094,0.025825,0.05331,0.10405
0.19193,0.20848,0.3274,-0.22388,0.012715,0.01215,-0.021574,-0.027492
-0.12825,-0.18145,-0.33269,0.068222,-0.0096659,-0.041668,-0.041987,-0.027627
-0.20238,0.10812,0.16466,-0.12711,0.052973,0.04407,0.022965,0.064391
0.031614,0.093325,0.034338,0.41544,-0.010388,-0.050788,-0.053554,-0.13418
0.88423,0.0017433,-0.25868,-0.039258,-0.027852,0.049015,0.095487,0.10359
-0.37457,0.17076,0.11699,-0.10843,0.071031,0.046909,0.016947,0.036129
-0.30367,-0.31195,0.26477,-0.45539,-0.15097,-0.1193,-0.11718,-0.1561
0.54616,-0.11659,-0.12775,0.14011,0.056545,0.097545,0.083984,0.15273
-0.42121,-0.030991,0.039408,0.35198,0.045601,-0.075775,-0.082361,-0.052272
-0.58077,-0.19556,0.16969,-0.13788,-0.050524,0.032766,0.040398,-0.036228
0.070274,0.36501,-0.15411,0.094364,0.03417,-0.0064583,-0.00053447,-0.017717
0.25578,0.47583,0.034177,-0.23121,0.010813,0.0409,0.068515,0.14367
0.38062,-0.039558,-0.21187,0.22963,0.0043766,-0.012774,-0.0023333,-0.083891
-0.36138,-0.30386,-0.19609,-0.070381,-0.016644,-0.066094,-0.072448,-0.084087
0.58154,0.15412,0.16243,0.055106,0.0098218,0.052605,0.029977,0.23584
-0.87416,-0.85715,0.086705,-0.098606,-0.010489,0.015001,-0.046713,-0.21099
0.81017,0.71538,-0.074754,-0.04879,0.0078698,0.00063316,0.025534,0.043477
0.037878,0.060513,0.2994,0.24226,0.0020301,0.0016275,0.035747,0.014539
-0.19562,-0.4738,-0.21021,-0.1481,-0.02037,-0.028846,-0.00826,0.030433
-0.051611,0.23612,0.10747,-0.19656,-0.051471,-0.08283,-0.028348,-0.11147
-0.52662,-0.14583,-0.28132,-0.027602,0.049595,0.082079,-0.016711,-0.01978
0.22809,0.43477,0.31377,0.19559,0.041014,0.028607,0.010959,0.087537
-0.46829,-0.20343,0.22991,0.0051586,-0.014293,0.030376,0.038893,-0.046695
0.68925,-0.048845,-0.32917,0.38608,0.04811,0.017159,0.05905,0.1794
0.13923,0.27441,0.0049993,-0.57566,-0.10746,-0.089207,-0.061674,0.062609
-0.28153,-0.47,0.040241,0.095894,-0.03561,-0.085768,-0.081411,-0.20994
0.64597,0.3698,-0.2567,0.032445,0.076046,0.08186,0.077657,-0.021601
-0.21947,0.52236,-0.04106,0.15444,0.0084446,-0.0086312,-0.076925,-0.044764
-0.53525,-0.94054,0.24567,0.085456,0.073616,0.1266,0.087435,0.063982
-0.31823,-0.18881,0.17183,-0.10523,-0.018044,-0.028663,0.0080612,-0.0079747
0.22768,0.40572,-0.53707,-0.19144,-0.12641,-0.13119,-0.1433,-0.073053
0.26659,-0.11318,0.3442,0.1242,0.11538,0.15462,0.21923,0.23614
0.57299,0.69043,0.023876,-0.21946,-0.066175,-0.061869,0.0019459,0.068266
0.023968,-0.62901,0.15338,0.037367,-0.084884,-0.11621,-0.13865,-0.23269
-0.97121,-0.25042,0.061495,0.45163,0.11445,0.078333,0.032287,-0.064955
-0.10419,0.51516,0.01239,-0.41992,-0.014366,-0.039639,-0.086071,-0.037731
0.066413,-0.088022,-0.30151,0.16642,-0.0019002,-0.015794,-0.031867,0.075703
0.44248,0.13017,0.1007,0.070753,0.043042,0.10408,0.14119,0.16608
0.7138,0.18081,-0.25301,0.035179,-0.019827,0.023852,0.035533,0.030335
-0.6581,-0.27583,-0.13862,-0.026963,-0.0029448,-0.03747,-0.027959,-0.073697
-0.62773,-0.59443,0.42661,-0.16364,-0.01589,0.044844,0.036831,-0.091262
0.79392,0.25349,-0.066034,-0.18074,-0.066896,-0.10493,-0.1063,0.024682
-0.12421,0.014815,-0.023239,0.17849,0.054414,-0.042502,-0.075182,-0.15525
0.13624,0.41956,0.21089,0.34283,0.073987,0.11379,0.13704,0.16618
-0.66395,-0.61694,-0.035955,-0.48536,-0.12595,-0.051197,-0.0098167,-0.1357
0.54172,0.9194,-0.16275,0.13849,0.13381,0.071077,0.061265,0.22046
-0.24114,-0.16336,-0.068415,-0.13806,-0.061083,-0.066765,-0.072563,0.023487
0.096676,-0.27049,0.059378,0.58247,0.0080908,0.035194,0.0020914,-0.063143
0.21328,0.10552,-0.16189,-0.17751,-0.033439,-0.044599,-0.043163,-0.048077
-0.14545,-0.37934,0.19835,-0.22355,-0.044571,-0.00078725,0.026224,-0.057218
0.15831,0.39332,-0.053755,-0.048309,0.045643,-0.0043737,-0.0001177,0.21338
-0.7449,-0.6432,0.21652,-0.096933,0.0034924,-0.023209,-0.090117,-0.32264
0.25941,0.3067,-0.12922,0.045459,0.0013933,0.068438,0.13211,0.13942
0.30772,0.24454,-0.033907,0.31772,0.070884,0.013149,-0.012352,-0.040733
0.1904,0.064742,-0.17489,-0.12233,-0.053705,-0.017234,0.031642,0.035895
-0.27389,-0.040011,-0.011046,-0.50763,-0.036814,-0.0075474,-0.040487,0.088583
0.027447,-0.41563,0.31851,0.3346,0.034982,0.017981,-0.018046,-0.12453
0.33746,0.43535,-0.34956,0.38115,0.012484,-0.035341,0.012532,0.20125
-0.29729,-0.17031,0.47665,0.022163,0.043408,0.058177,-0.011852,-0.17653
0.3732,0.10619,-0.33706,-0.086973,-0.075874,-0.053626,0.0098337,0.11668
-0.43038,0.17247,0.2616,-0.31424,0.021662,0.0040832,0.0382,-0.0054063
-0.2263,-0.50264,-0.5275,-0.11299,-0.077798,-0.057427,-0.067403,-0.050674
0.10393,0.59561,0.19035,0.19718,0.071687,0.059501,0.021445,-0.065601
-0.2548,-0.66697,0.30184,-0.2883,-0.068042,-0.034668,-0.038441,-0.104
0.52609,0.30199,0.068959,0.41735,0.10558,0.0049975,0.011465,0.085336
-0.15273,0.30609,-0.34724,0.097935,-0.00028485,0.0076577,-0.03126,-0.019786
0.29698,-0.28811,0.090334,-0.39289,-0.033433,0.12244,0.15422,0.13626
-0.21763,-0.16818,0.068533,0.0553,-0.0092163,-0.072335,-0.041223,-0.0086818
0.22348,0.20523,-0.34932,0.14525,-0.037145,-0.092563,-0.078637,0.06058
-0.72089,-0.22998,0.49528,0.039112,0.069778,0.12355,0.065021,-0.00082436
0.26058,0.088922,-0.1442,0.10871,0.0061029,-0.06558,-0.032716,-0.022597
0.34291,0.39608,-0.075953,-0.0092475,-0.0024895,0.010894,-0.020937,-0.14703
0.018635,-0.23895,0.040612,0.12665,-0.0037127,0.00049865,-0.017405,-0.094265
0.27863,0.26856,-0.12596,-0.47888,-0.076349,-0.027097,0.055602,0.11143
-0.33185,-0.38746,-0.10314,-0.061923,-0.0098482,-0.033128,-0.059912,0.071463
-0.20389,-0.12224,0.34606,0.049351,0.023813,0.076219,0.04234,-0.026179
-0.030925,0.35261,-0.089703,0.20794,0.071646,0.0044391,0.026637,0.085117
-0.22985,-0.2442,0.0032324,-0.060314,-0.014511,-0.013511,-0.036373,-0.085551
0.31683,0.087807,0.15432,0.10666,-0.04685,-0.039461,0.033388,0.033503
-0.11447,-0.32261,-0.18614,-0.031008,0.0061393,0.0053577,-0.044954,-0.048642
-0.066038,0.11865,-0.19333,0.11415,0.011812,0.0042632,-0.04453,-0.04975
0.54544,0.45812,0.12163,0.23023,0.12651,0.074741,0.10516,0.10106
-0.23619,-0.3367,0.18558,-0.55009,-0.12627,-0.040968,-0.025511,-0.11963
0.31165,0.71659,-0.26926,0.18674,0.0035707,-0.038354,-0.038228,0.11579
-0.23803,-0.22799,0.13074,-0.067558,-0.046258,0.011909,0.035519,0.001534
-0.5241,-0.71908,0.10366,-0.063136,-0.0020068,0.046852,0.0157,-0.026366
0.41547,-0.022875,-0.19442,0.23154,0.050765,-0.043385,-0.043381,0.13201
-0.1999,0.19757,0.017881,-0.20638,-0.020401,-0.017051,-0.0014644,-0.017053
-0.23712,-0.12554,0.19388,-0.07935,0.0034581,0.00053468,-0.030725,-0.27933
0.41296,0.42545,-0.13504,0.21464,0.044211,0.040442,0.071765,0.11032
0.20242,0.13556,-0.039104,0.23807,0.0391,0.0010798,-0.0065749,-0.019732
-0.30817,-0.53106,0.34111,-0.10334,-0.027958,-0.031507,-0.015699,-0.020199
0.42531,0.44311,-0.36132,-0.10741,-0.0012606,0.036652,0.0054936,0.17269
-0.16289,-0.43387,0.026096,-0.37687,-0.10788,-0.04414,-0.028664,-0.0021634
-0.45878,0.38345,0.18421,0.45437,0.034672,0.03896,0.03843,-0.12157
0.07419,-0.24053,-0.20559,-0.26297,-0.003414,-0.041834,-0.027206,0.10456
0.52061,0.57346,-0.22709,0.033121,0.01236,-0.012792,-0.0377,0.012841
-0.59604,-0.59224,0.32506,0.2097,0.097902,0.071596,0.046299,-0.1308
0.29594,-0.17016,0.14038,-0.17844,-0.074554,-0.030782,-0.017258,-0.02168
-0.1604,0.50999,-0.19384,0.29874,0.05784,0.0081488,0.029394,0.01959
0.38944,-0.35648,0.096301,0.024491,-0.059331,0.008539,0.05321,0.10185
-0.27822,-0.0024987,-0.044404,-0.63343,-0.050916,-0.029842,-0.055557,-0.025627
-0.52826,-0.16774,0.031047,0.21618,0.012781,-0.02912,-0.05514,-0.05906
0.96092,0.33818,-0.077871,0.11285,0.045674,0.049547,0.077531,0.08653
-0.55269,0.010055,-0.13138,-0.013484,0.0084065,-0.012747,-0.040573,0.082118
0.64887,0.45121,0.21192,0.28231,0.041203,0.002681,-0.018834,-0.15892
-0.6389,-0.82206,0.14535,0.077791,0.010814,0.033361,0.017956,-0.058804
0.2233,0.26016,-0.29334,-0.37011,-0.098754,-0.061208,-0.015749,0.046632
-0.046475,0.43116,0.19226,0.00018085,0.048242,0.055114,0.068035,0.04855
-0.27602,-0.54479,-0.27245,-0.046466,-0.071582,-0.078359,-0.081767,-0.013086
0.30955,0.30779,0.032465,-0.072914,0.049905,0.062067,0.074294,0.12065
-0.25632,-0.30852,0.31186,0.2178,-0.00082202,-0.031211,-0.072948,-0.15846
0.15364,-0.15921,-0.21356,0.10741,0.011262,0.016914,0.039002,-0.044728
-0.21694,0.46736,0.090803,-0.10637,-0.0069649,0.034539,0.042726,0.09536
-0.0088934,-0.16227,-0.054954,0.030643,0.038725,-0.0332,-0.054374,0.019886
0.39258,0.14798,-0.13453,-0.027154,-0.031123,0.00089151,0.020606,0.0020717
0.46724,0.054578,0.2817,0.041997,-0.013442,0.003619,-0.021958,-0.052524
-0.41616,-0.55229,-0.096116,-0.15097,-0.010124,-0.017597,-0.026331,0.081597
-0.084646,0.59964,-0.0036412,-0.19044,0.040786,0.015038,0.038346,-0.073404
-0.020566,-0.11631,-0.15338,0.16708,0.037079,0.070071,0.085914,0.10619
-0.52426,-0.32707,0.19535,0.070888,-0.084374,-0.1416,-0.16491,-0.1932
0.19308,0.22342,-0.09146,0.27116,0.043127,0.03641,0.059467,0.0824
0.58778,0.48707,-0.030036,0.30639,0.01308,0.057517,0.040601,0.010847
-0.72463,-0.67711,0.1453,-0.86366,-0.10418,-0.023205,-0.01015,0.022053
0.43576,-0.0028389,-0.16628,0.20467,0.082258,0.029039,0.0092491,0.030725
-0.13358,-0.097913,0.09896,-0.021736,-0.036534,-0.035374,-0.041364,-0.016862
-0.0034306,0.29775,-0.26058,-0.091728,0.016508,-0.013041,-0.0053417,-0.088322
0.19841,0.23351,0.10032,0.37547,0.046485,-0.013202,0.00040855,0.04406
-0.13556,-0.2571,0.19841,-0.13787,-0.024504,0.026614,0.038514,0.0062949
0.173,0.085371,0.049894,0.061398,-0.0089776,0.043723,0.007373,-0.013391
0.03401,-0.25392,0.092264,-0.044352,0.030321,-0.0012403,0.0083576,0.086911
0.082236,0.34996,-0.0030605,0.24645,-0.00074713,-0.014879,-0.0057016,-0.028808
-0.047982,-0.14292,-0.36952,-0.38721,-0.040105,-0.036583,-0.042951,-0.032874
-0.58862,0.03953,-0.077972,0.18796,0.036917,0.011538,0.029116,0.042735
-0.12134,-0.2606,0.050985,-0.3543,-0.12139,-0.1128,-0.11786,-0.099734
0.64949,0.36128,0.1657,0.19228,0.11787,0.15293,0.12536,0.077897
-0.47829,-0.63543,0.13331,0.23015,-0.010623,-0.011471,0.00090714,-0.14391
0.80256,0.99804,0.00042439,-0.33795,0.0014034,0.019162,0.079107,0.15612
-0.63741,-0.80173,-0.10082,0.21054,-0.025218,-0.059719,-0.11654,0.024464
0.0020239,0.13658,0.00036681,-0.043546,-0.027509,-0.021449,-0.046856,-0.054632
0.30167,0.46132,-0.17402,0.057144,0.065189,0.055901,0.069557,0.075218
0.10696,-0.18646,0.24945,0.22288,0.0030238,-0.022962,-0.0014895,-0.077746
-0.35499,-0.13389,0.058461,-0.24395,-0.018769,0.038837,0.021451,-0.028446
0.28261,-0.10596,-0.29485,0.09071,-0.023913,-0.055573,-0.025507,-0.018156
-0.33292,-0.17885,0.15015,-0.40215,0.0027753,0.0063264,-0.0094273,-0.0068234
-0.12502,0.016675,0.042345,0.17203,-0.001729,0.013636,0.015041,-0.0091919
0.24046,0.48232,-0.10922,0.18514,0.032368,-0.010156,-0.022479,0.092494
-0.14464,-0.24973,0.087933,0.37746,0.026514,0.013117,0.026268,-0.0063562
0.64748,0.34391,-0.067087,-0.46231,-0.066427,-0.010283,-0.026507,0.029755
-0.50993,-0.16753,-0.1267,-0.11419,0.019121,0.013364,0.021954,-0.042267
0.27236,-0.38741,0.30946,-0.059919,-0.029162,0.005859,0.030635,0.057644
-0.17831,0.33057,-0.16353,0.17292,0.031286,-0.0016498,-0.0086177,-0.038882
-0.47907,0.0078852,-0.021731,-0.060127,0.013467,0.021988,0.0055516,0.011002
0.43349,-0.25533,0.16422,0.072573,-0.05084,-0.056106,-0.067487,-0.15248
-0.19685,-0.10825,-0.14578,0.096799,0.034129,-0.0093734,-0.00093597,-0.0056986
0.13969,0.33192,0.13275,0.052256,0.042099,0.021619,0.018161,0.13175
0.18718,-0.13746,-0.02518,-0.16384,-0.042491,0.0057334,0.021666,-0.012534
0.14249,0.30471,-0.17557,0.031584,-0.0088666,0.013416,-0.021018,0.015669
-0.1574,-0.012558,-0.14741,0.10328,0.025428,0.044795,0.062567,0.014098
0.20217,-0.057174,0.28553,-0.17187,0.013042,-0.025028,-0.0084275,-0.0011833
-0.8879,-0.48463,-0.11105,0.28038,-0.030895,-0.078805,-0.061966,-0.03026
0.22092,-0.052148,0.046065,-0.066104,0.026004,0.024108,-0.004405,-0.026843
0.37224,0.19372,0.33543,-0.32952,-0.050917,0.033671,0.038903,0.015914
0.15156,0.51072,-0.32068,-0.25904,-0.027381,-0.01897,-0.0029011,0.018738
-0.090466,0.015508,-0.093895,0.43682,0.081064,0.037873,0.033582,0.097717
-0.066104,-0.17562,0.00027001,0.1365,0.0089962,0.00080893,-0.032023,-0.10735
0.1371,-0.3137,0.016491,-0.13285,-0.071437,-0.067983,-0.044077,-0.073402
-0.037054,-0.17301,0.13433,0.061726,0.035347,0.057724,0.036032,0.035693
-0.33959,0.13673,-0.029251,-0.06653,0.0092606,-0.012978,-0.010669,0.033181
0.15898,0.21733,0.041094,0.077254,0.022336,0.02443,0.042421,0.01402
0.10005,0.4213,0.0013524,0.20402,0.0043606,-0.025355,-0.030965,0.034375
-0.0070194,-0.57023,-0.047042,-0.45271,-0.044596,0.0019525,0.01188,-0.052671
-0.15239,0.19774,-0.03367,0.24644,0.0083573,-0.010398,-0.00023742,0.012025
-0.24821,-0.31183,-0.098772,-0.19209,-0.016355,-0.030551,-0.066569,-0.059674
0.2771,0.18423,0.10983,-0.0038371,-0.0092156,0.012488,0.05578,0.060728
0.29093,-0.086046,-0.063418,0.091519,0.014292,0.0021755,-0.031083,-0.041104
0.33918,-0.020433,0.085167,-0.10989,0.015195,0.063984,0.048123,0.03238
-0.40041,0.40407,-0.17076,0.25846,0.0091122,-0.02063,0.0121,0.15479
-0.086504,-0.017256,0.30134,0.29746,0.058406,0.006034,0.0088997,-0.066144
-0.75253,-0.4589,-0.06958,-0.56386,-0.1028,-0.067379,-0.071518,-0.14769
0.68603,0.33373,0.090453,0.174,0.032958,0.039725,0.059075,0.072882
0.33821,0.09178,-0.1571,-0.028178,-0.003411,0.0062502,-0.02987,-0.0771
-0.46715,-0.12498,-0.14889,-0.20919,0.022164,0.03454,0.020275,0.027172
0.0058784,-0.36516,0.075942,0.28014,-0.007697,-0.04012,-0.041003,-0.020176
0.04831,-0.090275,0.057057,0.011174,-0.03055,-0.015021,-0.018604,0.00037985
0.53713,0.37209,-0.055876,-0.17121,-0.0072523,0.0081617,0.071959,0.21478
-0.47135,0.11704,0.15276,0.11676,0.04676,0.014,-0.0032942,-0.086993
-0.30423,-0.025439,-0.26865,0.031802,-0.024522,-0.043919,-0.04844,-0.091736
0.23409,0.071697,0.14965,-0.13713,-0.0099256,0.0069072,-0.00025374,-0.048985
0.18997,-0.042535,0.064147,0.06232,0.012603,0.026525,0.017006,0.088346
0.16378,0.23567,0.13816,0.011651,0.027531,0.038958,0.050872,0.031213
-0.51806,-0.67724,-0.20027,0.10772,0.003613,0.0055546,-0.046588,-0.040797
0.56439,0.18992,-0.054983,0.099051,-0.0045165,-0.03444,0.0061826,0.012794
-0.72345,-0.22314,0.21219,0.086252,0.003073,-0.010753,-0.0094733,-0.050338
0.59374,0.084965,-0.088403,-0.62606,-0.10648,-0.048608,-0.038976,-0.0037275
0.20302,0.53615,-0.051856,0.19747,0.041821,0.062592,0.081457,0.019745
-0.69192,-0.14488,-0.069019,0.082214,0.026116,0.0021437,-0.015767,0.059073
0.11355,0.069349,0.095498,-0.14121,0.026106,-0.0037696,-0.026442,-0.081166
0.1217,-0.22494,-0.14996,0.29532,0.073015,0.028914,0.0020553,0.059792
0.11646,0.34909,0.02554,0.042136,-0.091051,-0.087513,-0.047929,-0.010468
0.28792,-0.18276,0.07807,0.014164,-0.0052743,0.076558,0.096654,0.043758
-0.63529,-0.43361,0.072664,-0.14051,0.0020916,-0.041325,-0.048855,-0.066756
0.34016,0.49386,0.11251,0.10007,-0.029989,-0.011331,0.015385,-0.0060743
0.17523,-0.33595,-0.24725,-0.18038,0.031252,0.018305,-0.015343,0.061961
-0.20943,-0.23877,0.21139,-0.039149,0.013947,0.024346,-0.00033006,-0.0028155
-0.13656,0.21373,-0.15389,0.029127,-0.0037222,0.006951,-0.0018968,-0.12164
-0.14081,0.10671,-0.032831,0.12402,0.0017675,-0.018165,-0.012,0.0265
0.039309,0.2432,0.21295,0.064571,0.030528,0.011519,0.024282,0.028094
0.4619,-0.036684,-0.16055,-0.048052,-0.050116,-0.068088,-0.064728,-0.03851
0.52135,0.15916,0.0019733,0.03662,0.033442,0.078902,0.11172,0.10766
-0.74627,-0.569,-0.04165,-0.21921,-0.062353,-0.031922,-0.032268,0.012672
0.025053,0.52529,0.076734,-0.0090279,0.02989,0.021309,0.026761,0.058062
-0.45256,-0.23474,-0.18816,0.013031,0.013477,-0.026984,-0.070556,-0.085761
0.18393,0.052018,0.1029,0.13802,0.0057085,0.010786,0.019611,-0.006068
0.073063,-0.38445,-0.13471,0.01594,-0.024661,-0.037132,-0.054112,-0.031824
0.096703,0.28894,0.20883,0.1555,0.031629,0.048149,0.067942,-0.045926
0.12892,-0.006897,0.25781,-0.060241,0.025918,0.024565,0.011133,0.046148
0.25358,0.010245,0.0026699,-0.08466,-0.04989,-0.053111,-0.052312,-0.07439
-0.03334,0.30378,-0.28558,-0.043204,0.030493,0.010474,0.026301,0.039754
-0.37102,-0.62283,0.023456,-0.1003,-0.022186,0.012185,-0.010749,0.023418
-0.041572,0.32788,-0.10323,-0.045154,0.02639,-0.0011606,0.02392,-0.012388
0.2178,0.16703,-0.017751,0.075438,-0.073685,0.0094083,0.051857,0.17541
-0.30031,-0.46248,0.12452,0.011544,0.0059188,-0.018727,-0.04461,-0.13199
0.22705,0.38555,-0.19771,0.03639,0.023261,-0.0075812,-0.031664,0.0097649
0.044344,0.32765,0.049699,0.18829,0.033217,-0.0041946,0.012033,0.059942
-0.13513,-0.50542,0.19791,-0.026297,0.0045796,-0.0087618,-0.054577,-0.10847
0.30093,0.094205,-0.063133,-0.070188,0.046576,0.064425,0.072916,0.018225
-0.19823,0.044875,0.088286,-0.14077,-0.067676,-0.034892,-0.019666,0.02444
-0.18981,-0.32876,0.12885,0.056971,0.01296,0.013335,0.011453,-0.098457
0.27063,0.30629,-0.22373,-0.087632,-0.032254,-0.041125,0.0023362,0.071378
-0.29253,-0.091136,0.0052963,0.13596,0.0073016,0.028148,-0.023387,-0.0044143
0.5453,0.38409,-0.03769,0.033008,0.037738,0.018018,0.036072,0.042618
-0.4148,-0.40869,0.0908,-0.11372,-0.05024,-0.0088544,-0.0065393,-0.0047111
-0.24571,-0.030998,-0.19641,-0.020763,0.0014601,-0.044326,-0.041581,-0.043247
0.33173,0.34723,0.053275,0.12695,0.037013,0.0058315,0.024983,0.061189
-0.036426,-0.44317,0.043005,0.027272,0.02566,0.040614,0.021577,-0.034201
0.1152,0.34323,-0.062829,-0.19274,-0.032124,-0.025362,-0.020242,-0.00087636
-0.17935,-0.17295,0.23604,-0.03184,0.01248,0.0036655,-0.014255,-0.026497
-0.11459,-0.16032,-0.060457,0.033573,-0.090299,-0.004857,-0.014927,-0.041455
0.43312,0.29788,-0.093431,0.19784,0.058025,0.0194,0.040362,0.17184
-0.13321,0.14099,0.05818,0.12306,0.035437,0.0058906,-0.028093,-0.13023
-0.16976,-0.34896,0.16697,-0.076108,0.013512,-0.0067643,0.013904,-0.019536
0.39635,0.21051,-0.22066,0.082183,0.030923,0.019939,0.048837,0.13536
-0.49464,-0.15072,0.06743,-0.34147,-0.053341,-0.016119,-0.017476,-0.080636
-0.13599,-0.13015,-0.12381,-0.10564,-0.052055,-0.013816,-0.037063,-0.042985
0.18823,0.28509,-0.10473,0.063628,0.034691,-0.020249,-0.018155,0.029769
0.070541,0.052916,-0.044473,0.082105,-0.011733,0.0036777,0.02333,0.029141
0.4409,0.0063213,0.28637,0.061511,-0.026972,0.0035469,-0.0064865,-0.074665
-0.43357,-0.13071,-0.016125,0.019816,0.020581,0.0032285,0.0096246,0.048265
-0.28485,-0.42266,0.064923,0.13061,0.045294,0.026639,0.0015317,-0.084635
0.39774,0.35579,0.013807,0.050788,0.039487,-0.01176,-0.0070636,0.02812
-0.023472,0.19625,-0.13966,-0.11084,-0.043819,0.0054371,0.0075591,0.090503
-0.35045,-0.12778,0.023904,-0.21528,-0.05653,-0.038985,-0.02467,0.0087828
0.48934,-0.068933,0.079563,0.039833,0.032079,0.050005,0.05266,0.032108
0.20849,0.061202,-0.10856,0.15975,0.049539,0.02192,-0.002577,0.002661
-0.77002,-0.048601,-0.082107,0.040612,-0.020314,-0.045709,-0.041971,-0.13622
0.50764,0.23619,0.086895,-0.13956,-0.037208,0.0106,0.012515,0.035379
-0.12994,0.12873,-0.11791,0.079463,0.0144,-0.012719,-0.034544,0.094002
-0.11214,-0.32919,0.18649,0.13549,0.033178,0.040386,0.09019,-0.031503
-0.11849,-0.59548,-0.0067261,-0.43891,-0.10536,-0.095616,-0.08209,-0.13015
0.24147,0.26252,-0.063295,0.10833,0.037008,0.040588,0.034546,0.0021322
0.029563,0.23144,0.13569,0.076485,0.031347,0.027711,-0.0051693,0.038814
0.0022098,0.42167,-0.048663,0.1554,0.034582,-0.00074979,-0.013653,0.052164
0.071299,0.059047,-0.2241,0.081344,-0.0075252,-0.020701,0.0013805,0.044075
