-0.42817,-0.026438,0.0069803,0.0064116,0.0051679,-0.029422,-0.10747,0.21899
0.089917,-0.019152,0.0064686,-0.0084774,-0.018138,-0.012668,-0.022761,0.026567
0.091306,0.035061,-0.0026375,-0.015839,-0.0027343,0.011621,-0.024152,-0.067927
-0.11944,-0.020012,-0.0045915,0.007735,-0.0032555,0.04335,0.24783,-0.034233
0.15289,0.0031479,0.0086084,-0.00022768,0.011683,0.027773,0.1136,0.18824
0.15033,0.010786,0.021573,-0.00058433,0.003203,-0.042935,-0.31734,-0.23892
0.083567,0.0028698,-0.004497,0.0067819,0.0027401,-0.028108,-0.05261,0.2129
-0.32109,0.0027859,-0.022456,-0.0092509,-0.013002,-0.029211,-0.068559,-0.091306
-0.0012096,-0.01296,-0.00080011,0.01393,0.0029113,0.024203,0.13501,-0.34821
-0.089285,-0.01316,-0.033071,-0.017353,0.011381,0.030713,0.12849,0.38731
0.25141,0.0021706,0.0058498,0.014109,0.0044675,0.0060503,-0.0414,-0.016417
-0.024762,0.017432,0.061264,-0.0010978,0.0054236,0.012768,0.062422,-0.049262
-0.056837,0.0014401,-0.015437,0.0072582,-0.0093854,0.0039848,0.017507,0.088919
-0.030669,0.0089839,-0.0058261,-0.015618,-0.016679,-0.035955,-0.17673,-0.19186
-0.022963,-0.014494,0.01153,-0.0073328,-0.00090502,-0.0055043,0.0027578,-0.05975
0.014022,0.001462,-0.034157,0.016413,0.014531,0.017256,0.063726,0.19923
-0.021242,-0.021136,0.036384,0.01653,-0.0093014,-0.022243,-0.1732,-0.15533
0.010894,0.019375,-0.019289,-0.022569,-0.0018892,-0.0066314,0.15976,0.11098
0.0068851,-0.033225,0.0019269,0.00077142,-0.0020779,0.0095997,0.00077561,-0.066338
0.1124,0.031931,-0.024729,-0.014875,0.013747,0.018785,0.061343,0.011917
0.21498,0.01153,0.018404,-0.014681,-0.009014,-0.018101,-0.10358,0.3872
0.10868,0.022461,-0.03992,0.03271,0.015549,0.062889,0.10751,-0.38408
-0.65366,-0.021576,0.019712,0.0023262,0.0013563,-0.019765,0.35054,0.090849
0.083797,0.0040591,0.072863,0.034722,0.0028676,-0.063323,-0.76556,0.073549
-0.044948,-0.010291,-0.067625,-0.034332,-0.0036134,0.017713,0.27446,0.12505
0.15795,-0.010081,0.0358,-0.0019415,-0.018318,0.035423,0.18912,-0.32322
-0.273,-0.042161,-0.031178,-0.0089781,-0.0023362,-0.018332,-0.12323,-0.086606
0.49345,-0.020423,0.066871,-0.0087763,-0.018216,-0.04999,-0.36571,-0.21232
0.1236,0.086633,-0.045718,0.014158,0.020035,0.073237,0.46157,-0.17609
-0.092617,0.013638,-0.072766,-0.010522,0.0031703,-0.0078821,0.10827,0.79578
-0.18701,0.018595,0.094503,0.010999,0.0251,0.019442,0.15982,-0.040979
-0.028453,-0.031216,-0.028699,0.0085483,3.8734e-05,-0.063136,-0.40002,-0.067163
-0.025425,-0.049854,0.018405,-0.0098655,-0.025018,-0.02859,-0.18887,-0.35537
-0.086269,-0.037359,-0.037533,-0.012767,-0.010927,0.021988,0.066688,0.61936
0.33449,0.10779,-0.055591,0.039143,0.02674,0.096815,0.09378,-0.14424
-0.37285,-0.075303,0.097475,-0.0023281,-0.0057254,-0.053815,0.37017,-0.28902
0.25347,0.10879,-0.015373,-0.011941,-0.006712,0.015564,-0.14145,0.25418
-0.18315,-0.050619,0.028145,-0.044152,0.00040547,-0.015346,-0.10303,-0.26279
0.31193,-0.037524,-0.029498,0.010612,-0.0077354,-0.068519,-0.39519,-0.27128
-0.41502,0.007916,-0.070973,0.01186,-0.0076251,0.09024,0.49964,0.067654
0.044276,-0.054446,0.075612,0.014299,0.016406,-0.047113,-0.34703,0.34714
0.13604,0.0023274,0.027386,0.017801,0.0018478,-0.027724,-0.16175,-0.41511
0.047223,0.037742,0.034287,-0.0091833,0.011118,0.09342,0.71804,0.15879
-0.036817,0.051568,-0.08338,-0.028048,-0.018439,-0.074631,-0.46861,0.086035
0.58355,0.011922,-0.075516,0.023144,0.0067108,0.045913,0.3441,0.36508
-0.75216,-0.027498,0.058072,0.0031752,0.0082081,0.00161,-0.020889,-0.0020061
0.25655,0.041508,0.059804,-0.010357,0.0014687,-0.028118,-0.30286,-0.24423
-0.088848,-0.00092449,-0.046716,0.02124,-0.013643,-0.027817,0.2603,0.2493
-0.13368,-0.061837,-0.011501,-0.019354,0.0019093,0.0024684,-0.11385,-0.73345
0.075649,0.030398,0.0010939,0.016436,0.01697,0.14096,-0.11111,0.66486
-0.099015,-0.17696,0.021717,-0.089736,-0.08545,-0.24493,-0.57073,-0.26803
0.35417,0.074863,0.03388,0.053363,0.077723,0.22797,0.80302,0.26549
-0.091192,0.076243,0.091291,0.016759,-0.0088792,-0.1118,-0.33385,-0.59025
-0.094296,0.039482,-0.14287,0.02771,0.022123,0.056517,0.15065,0.18729
-0.43238,-0.02652,0.073031,0.0086552,-0.0010636,-0.094791,0.058356,-0.024792
0.34237,-0.0040119,-0.081326,-0.047863,-0.0238,0.028313,-0.18708,0.29344
0.39462,0.052242,-0.011577,0.030133,0.0084371,0.011876,0.32657,-0.14928
0.29336,-0.022499,-0.013407,-0.02312,-0.021784,-0.019227,-0.14033,0.55926
-0.51119,-0.041845,-0.05402,-0.012651,-0.0053626,0.098707,0.32636,-0.30971
-0.41352,-0.038319,0.094722,-0.017075,0.01838,-0.056738,-0.54767,-0.71238
-0.15212,0.010358,-0.034689,0.041172,0.033623,0.11541,0.51089,0.7612
0.58181,0.05653,0.15212,0.03653,-0.014415,-0.15098,-0.48009,-0.43335
-0.058364,0.021841,-0.016867,-0.023662,-0.016326,-0.0045256,-0.10852,0.40059
0.50369,0.016066,-0.02686,0.0087273,0.0046259,0.070569,0.3698,-0.28379
-0.92022,-0.12387,-0.027584,-0.014812,-0.029383,-0.10478,-0.32073,-0.23768
0.28754,-0.021535,-0.012607,-0.062842,-0.00077446,-0.045309,-0.20326,0.20058
0.081527,-0.0269,-0.10804,-0.002131,0.020554,0.14062,0.3248,0.25408
0.081206,0.15837,0.052755,0.050703,0.0037117,-0.030551,0.0055173,0.27809
0.078478,-0.019434,0.016722,-0.020938,0.019242,0.019743,0.031314,-0.26294
-0.02511,0.025934,-0.012362,0.049046,-0.0031152,-0.0055064,0.36425,-0.31802
-0.41403,-0.03415,0.028973,0.010903,-0.00099323,0.033621,-0.060964,0.251
0.086162,-0.0055904,-0.08487,0.020859,-0.0059356,0.034405,0.11698,-0.4082
0.21941,-0.038549,0.076433,-0.093248,-0.026148,-0.059212,-0.29686,0.26798
0.16602,0.036931,0.059819,0.0040459,-0.0073634,-0.076643,0.010671,-0.20214
-0.19969,0.062834,0.044372,0.054371,0.050042,0.035874,-0.49685,0.19303
0.16723,-0.094963,0.036729,-0.013123,0.012981,0.043592,0.18629,0.59821
-0.26737,-0.030849,-0.21461,-0.050426,-0.071815,-0.037614,-0.071449,-0.53752
0.22746,0.036541,0.10137,0.067205,0.02222,-0.074134,0.13231,0.20281
0.062454,-0.048247,-0.12581,-0.050918,-0.0016601,0.099256,0.31863,-0.86656
-0.65576,-0.080799,0.11118,-0.0062231,-0.010422,-0.11773,-0.5462,0.77036
0.91487,0.34665,0.086078,0.13909,0.082135,0.22134,0.89337,0.17509
-0.97603,-0.25665,-0.075067,-0.13017,-0.051854,0.062573,-0.27503,-0.36562
0.86782,0.087035,-0.081569,-0.0088102,-0.013728,-0.28902,-0.19278,0.019793
-0.39504,0.011258,-0.017445,-0.0041435,0.0013661,0.064865,0.027925,-0.016624
0.28556,-0.030573,0.087908,-0.006361,0.0013432,0.053421,-0.32787,0.39557
-0.18786,-0.10108,-0.10002,0.047318,-0.013764,-0.011601,0.40755,-0.69331
0.0093866,0.057098,0.11481,0.078846,0.065382,0.11895,-0.10511,0.69746
-0.49346,0.005837,0.10724,-0.11504,-0.089447,-0.18072,-0.13336,-0.32514
0.76018,0.1038,-0.045533,0.043463,0.021584,-0.051876,-0.27892,-0.15252
-0.5089,-0.040292,-0.0090608,0.046134,0.062333,0.24729,0.52213,0.45076
0.19929,-0.020686,-0.011558,-0.10743,-0.037736,-0.13485,-0.43076,-0.57496
0.12449,0.01393,-0.14035,0.043399,0.018054,0.075346,0.77171,0.22776
-0.59771,-0.1708,-0.0525,-0.040586,-0.02824,-0.16071,-0.72694,-0.042099
0.76761,0.19097,0.16601,0.078127,0.034283,0.11073,0.37237,0.2537
-0.20232,-0.22075,-0.046679,-0.069078,-0.083361,-0.14096,-0.42914,-0.41906
0.49142,0.20365,-0.11918,0.064852,0.040872,0.10817,0.31394,0.41195
-0.52594,-0.035868,0.14499,-0.04338,0.00094547,0.077092,0.2336,0.2017
-0.056013,-0.03341,0.020168,-0.026556,0.015804,0.031334,-0.038838,-0.81545
-0.12299,0.29629,0.045777,0.07615,0.023061,-0.068588,-0.45039,0.82745
0.019001,-0.21945,-0.0050459,0.037929,0.022713,0.042323,0.30992,-0.62273
-0.55203,-0.09695,-0.039427,-0.086861,-0.063482,-0.15223,-0.21991,0.127
0.63525,-0.047479,-0.082031,-0.032925,-0.0013464,-0.066883,-0.37623,0.36966
0.053051,0.093244,0.02213,0.051064,0.021402,0.23556,1.0207,0.047384
0.1098,-0.12713,0.068952,-0.0068307,-0.01885,-0.13557,-0.74734,-0.044728
-0.30468,0.19885,-0.020137,0.043549,0.041874,0.16374,0.54667,-0.4223
0.33595,-0.091514,-0.033989,-0.055226,-0.030761,-0.1238,-0.34673,-0.35695
0.28809,0.042085,-0.10457,0.0021041,-0.0022092,0.064987,0.39313,0.59202
-0.31265,-0.0088718,0.13663,-0.02597,-0.0050053,-0.12845,-0.94448,-0.36855
0.057747,0.037183,-0.058832,0.064353,0.031509,0.062339,0.54674,0.56917
-0.2491,0.015934,-0.04888,-0.062313,-0.064191,-0.041631,0.13224,-0.0309
-0.47418,-0.096791,0.21445,0.047466,0.05193,0.036653,0.022455,-0.61512
0.35472,0.080781,0.09107,0.0030533,0.01284,0.055066,-0.072517,0.37526
0.16581,-0.077477,-0.34883,-0.024032,-0.048663,-0.064909,-0.14604,0.47318
0.038426,-0.041327,0.011252,0.012429,0.03129,0.082157,0.1052,-0.14133
-0.055357,0.016615,0.11547,0.002211,0.010164,0.0029385,0.13303,-0.41323
0.38897,0.12723,0.079581,0.061619,0.035964,-0.030366,0.022437,0.24531
-0.44416,-0.0063097,-0.12132,-0.075713,-0.047986,0.035836,-0.047229,-0.80925
-0.35533,0.01488,0.21458,0.05072,0.00017443,-0.22105,-0.70051,0.40839
0.8457,-0.14433,-0.22619,-0.08254,-0.046266,0.16754,0.67327,1.0517
-0.59016,0.040577,-0.069057,-0.014153,0.015875,-0.032397,0.0057692,-0.33916
0.070206,0.016067,0.23302,0.022248,0.054032,0.023754,0.025977,-0.9013
0.12813,-0.084018,-0.069177,0.019743,-0.017366,0.048087,0.15833,-0.28633
0.25815,0.084708,-0.13067,0.010397,-0.026053,-0.051922,-0.54009,0.36879
-0.54611,-0.001183,0.026597,-0.020906,-0.0029655,-0.048663,0.30771,0.064617
0.23987,-0.061193,0.013476,0.027449,0.0051742,-0.027397,-0.31252,0.68754
0.016305,0.14538,0.081144,0.053452,0.045192,0.11361,0.36538,0.40722
0.10702,0.1009,0.12089,0.056251,0.023093,-0.016625,-0.19802,-0.82317
0.34643,-0.071752,-0.2032,-0.12927,-0.05369,0.14361,0.54283,0.25784
-0.28695,-0.077478,0.22548,0.01936,-0.0058895,-0.16452,-0.50009,-0.35582
0.079805,0.012485,-0.3207,-0.02976,0.017716,0.018915,0.19409,0.59615
-0.71608,-0.24696,0.094414,-0.042373,-0.045546,-0.1193,-0.34604,-0.52117
-0.50707,-0.0028497,-0.030586,0.036663,0.030943,0.14715,0.19738,-0.56443
0.7809,0.22371,0.15461,0.052048,0.020898,-0.095567,-0.021444,0.40418
0.17308,0.0057864,0.086572,-0.034022,-0.05179,-0.018661,-0.19158,-0.07906
0.11256,0.064747,-0.086675,-0.0014811,0.032158,0.019332,0.053015,0.30641
0.78707,-0.050632,-0.20871,0.017984,0.0076137,0.081678,0.79746,-0.15715
-0.32429,-0.027013,0.1275,0.032927,-6.0544e-05,0.020384,-0.48217,0.39698
-0.5828,-0.028809,0.0014298,-0.034537,-0.021965,-0.086444,-0.55154,-0.75361
-0.19593,0.11445,0.024129,0.041891,0.051183,0.13571,0.62897,1.0162
0.097535,-0.06033,-0.09956,-0.058797,-0.030932,-0.03274,-0.21275,-0.10169
-0.17338,-0.06338,-0.032285,0.013983,0.012467,-0.030202,0.19103,-0.20696
0.50064,0.11868,0.20333,0.032579,0.0089649,-0.10743,-0.57882,0.10839
-0.18691,-0.15644,0.076048,-0.050924,-0.057566,0.00086151,0.035403,-0.27695
-0.10075,0.047963,-0.13369,0.0047934,0.015613,0.021383,0.4272,-0.45712
0.022865,-0.11173,-0.083635,-0.043086,-0.0060913,0.064152,0.11442,0.33773
-0.27689,0.099784,0.075885,0.039427,0.025716,-0.026111,0.035858,-0.37621
0.4771,0.17619,-0.071133,0.064657,0.040827,0.071983,0.3012,-0.15049
-0.10641,0.0020062,0.20024,0.0013411,-0.03868,-0.093758,-0.80883,0.52592
0.15713,-0.37431,-0.26732,-0.080104,-0.05631,-0.053998,-0.20149,-0.041704
-0.30855,0.15779,0.072738,0.031464,0.050672,0.12887,0.58289,0.70485
0.19863,0.075435,0.0098934,0.0082287,0.016825,0.063791,0.16012,-0.23694
0.65184,0.10511,0.084273,-0.0009434,-0.0093016,-0.17196,-0.86973,-0.031674
-0.82075,0.07425,-0.046352,0.020135,0.027023,0.11576,0.63219,-0.07487
-0.10668,-0.15881,0.010373,-0.037217,-0.038265,-0.03521,0.21073,-0.28738
-0.092537,-0.103,0.0061463,0.0074866,-0.0098579,-0.086855,-0.04254,-0.24545
0.0085551,0.068889,-0.010715,-0.0089828,0.01852,0.17889,0.44074,0.39203
0.46173,-0.057687,0.085803,0.0078996,0.0078894,-0.19129,-0.94997,-0.31013
-0.33366,-0.092087,-0.26635,-0.058459,-0.041608,0.060768,0.30106,-0.18783
0.28823,0.17706,0.049846,0.026614,-0.0047986,0.013984,-0.12486,0.38898
-0.03769,0.0082717,0.14296,0.083353,0.032551,-0.057101,-0.45128,-0.33651
0.16717,0.10543,0.081958,0.0097241,0.039316,0.12215,0.51306,0.46672
0.037381,0.11768,0.19331,0.023685,0.0077369,0.037192,0.54522,0.34858
-0.44117,-0.35284,-0.30592,-0.078859,-0.054396,-0.20178,-0.71162,-0.57208
-0.36879,-0.14947,-0.073343,-0.072305,-0.014348,0.10096,0.33711,0.29008
0.44302,0.22022,-0.13316,0.073826,0.018396,0.078254,0.40904,-0.091601
0.02612,0.060931,0.28027,-0.031546,-0.0031479,-0.082756,-0.70953,-0.0040286
0.013331,-0.010398,-0.097989,0.00992,0.014669,0.047003,0.26672,0.029446
0.67743,0.075986,0.022306,0.042195,0.0014431,-0.025407,0.076212,-0.78179
-0.72501,-0.024464,0.056556,-0.02803,-0.019479,-0.050731,-0.17466,0.5359
0.30441,0.015473,-0.13469,-0.0049135,-0.0013259,-0.0061615,-0.20615,0.017433
-0.37645,-0.12534,0.13684,0.018287,0.032344,0.076607,0.028803,0.29803
-0.36251,-0.072482,0.011993,-0.012764,0.0032655,0.0098287,0.43821,0.058724
0.56427,0.080066,0.07645,-0.019793,-0.04183,-0.11281,-0.18602,-0.18426
-0.22921,-0.011363,-0.13915,0.07527,0.014112,0.068106,-0.16879,-0.039735
0.39752,0.098828,-0.033958,-0.0012403,0.030371,0.083964,0.35221,-0.29533
0.18646,-0.096854,0.016397,-0.085583,-0.047785,-0.15885,-0.62887,0.66942
-0.5658,0.018977,0.019355,0.025037,0.014039,0.12886,0.49016,-0.3192
0.26546,0.1182,-0.11895,-0.029012,0.0128,0.0019195,0.31001,-0.27544
-0.06197,-0.041547,-0.007836,0.025573,-0.012299,-0.13329,-0.56211,-0.17125
-0.41485,0.03171,0.259,0.071607,0.040486,0.12185,0.37082,0.68043
0.55943,-0.12306,-0.068542,-0.070469,-0.031757,0.033219,-0.081884,-0.69563
-0.043815,0.041235,-0.014228,0.0058122,-0.010052,-0.14889,-0.1651,0.18669
-0.57425,-0.13886,-0.016097,-0.0039665,-0.011362,-0.0022496,-0.1774,0.48442
0.47002,0.17356,0.050254,0.02547,0.027012,0.12971,0.23237,-0.21025
0.19992,-0.11402,-0.27657,-0.046262,-0.0041556,-0.049646,-0.3334,0.34786
0.022638,0.085501,0.20643,0.046634,0.0045832,0.037889,0.43948,-0.6233
-0.28828,0.10118,0.077734,0.030802,0.0063292,-0.029676,0.28756,-0.48764
-0.32734,-0.19156,-0.083657,-0.085961,-0.045924,-0.11203,-0.82614,0.69228
0.31008,0.14457,-0.018587,0.071239,0.050712,0.18097,0.82665,0.22646
0.035646,-0.070929,0.0089852,-0.075902,-0.024399,-0.049694,-0.32325,-0.27937
0.2525,-0.026911,-0.053868,0.019264,-0.0060118,-0.062432,-0.43939,0.79655
-0.027311,0.14998,0.07567,0.098672,0.058609,0.14224,0.59542,-0.48433
-0.44818,-0.15132,-0.031013,-0.10355,-0.065256,-0.20947,-0.25825,-0.33797
-0.12308,-0.018194,-0.076727,0.029583,0.012773,-0.00053639,-0.25884,-0.40504
0.46066,0.13432,0.14104,0.05262,0.042605,0.1441,0.38979,0.10873
0.30895,-0.092536,-0.15269,-0.073538,-0.045983,-0.0018764,0.030688,0.072447
-0.4536,-0.018703,0.28972,-0.036319,-0.026158,-0.016219,0.0149,0.20179
0.018191,0.12245,-0.0032584,0.078511,0.039997,0.031245,-0.14213,0.11148
0.087194,-0.26919,-0.19062,-0.05694,-0.026703,-0.085491,-0.10418,0.18799
0.016708,0.15955,-0.063647,0.073214,0.03987,-0.0064559,0.27019,-0.19356
-0.55337,0.0038845,-0.022024,0.0082777,0.0057622,-0.004487,-0.69749,0.44669
0.68176,0.053888,0.082623,-0.040607,-0.035005,0.045952,0.68167,-0.58803
-0.19991,0.0052432,-0.029849,-0.034226,-0.0042176,-0.018803,-0.32552,0.071822
-0.22336,-0.001749,-0.037122,-0.01154,0.012086,0.0045561,0.23476,-0.24595
-0.11933,-0.014862,0.071091,0.050935,0.052711,0.12378,0.45623,0.84015
0.62804,0.019363,0.023793,0.02819,-0.031136,-0.14584,-0.7087,-0.27203
-0.1645,0.037187,0.096386,-0.032973,-0.028902,0.046767,0.19186,-0.5185
0.07412,-0.22796,-0.20996,-0.031133,-0.026871,-0.10374,0.094056,0.12867
-0.24382,0.16877,0.22222,0.033512,0.021577,0.073834,-0.33148,-0.5963
0.066313,-0.17877,-0.16233,-0.0033518,0.038175,0.071061,0.086212,0.73882
0.30697,0.19095,0.049292,-0.024817,-0.0083588,-0.011012,0.25282,0.36483
-0.4202,-0.033731,-0.034926,8.1634e-05,-0.016403,-0.055538,-0.019512,-0.30738
-0.002146,0.0074617,0.044674,0.047652,-0.009277,-0.047024,-0.23897,-0.4536
0.061232,-0.0050648,0.0060267,0.00052949,0.0053524,0.053681,0.20325,0.8191
-0.15556,0.11662,0.028689,0.0070997,0.019826,0.059374,0.14221,-0.51234
-0.27013,-0.080508,-0.089822,-0.018454,0.0030351,-0.099803,-0.4623,-0.011913
0.55467,-0.088764,-0.012249,-0.044571,-0.013643,0.029817,0.31807,0.48945
-0.31281,-0.041245,-0.1353,-0.031708,-0.006659,0.019093,0.083687,-0.73823
0.40026,0.022669,0.24589,0.028515,-0.0071622,-0.029943,-0.13494,0.30965
0.11229,0.21206,-0.047105,0.04289,0.016189,0.047112,0.06851,-0.080168
-0.24598,-0.22329,-0.099837,-0.019455,0.00097123,0.039489,0.062374,0.22423
0.22201,0.16956,0.14159,0.060341,0.0097319,-0.068427,-0.08066,-0.042089
-0.40161,-0.19548,-0.027972,-0.053867,-0.043465,-0.0033274,-0.20088,-0.29875
0.35534,0.087696,-0.0099944,0.0046115,0.0053769,-0.062314,-0.28632,0.21555
-0.042054,0.065795,-0.003399,0.01634,0.015492,0.07464,0.29217,-0.1278
-0.40833,-0.01919,0.16013,0.03528,0.064785,0.071273,0.26455,0.63646
-0.52481,-0.073713,-0.25658,-0.10323,-0.050142,-0.104,0.23435,-0.66762
0.36007,-0.012015,0.16686,0.022341,-0.017073,0.017218,-0.11086,-0.28748
0.51428,0.11114,-0.1161,0.029189,0.0075003,-0.010698,-0.47603,0.16834
0.39303,0.0067653,-0.15804,-0.019825,-0.0078106,0.0151,0.19019,0.78459
-0.29177,0.0033326,0.20882,0.040014,0.022932,0.078795,0.16478,-0.41071
-0.22815,-0.0548,-0.073421,0.022028,0.013941,0.0084384,0.021392,-0.35997
0.37104,-0.088643,-0.17973,-0.096388,-0.073565,-0.18808,-0.46271,0.86061
-0.60633,-0.089391,0.27659,-0.017691,0.026395,0.059776,0.311,-0.62989
0.15706,0.17044,-0.10842,0.078779,0.040744,0.11176,0.23137,-0.32861
-0.24772,-0.011702,0.18896,0.0054401,-0.030235,-0.094198,-0.40521,0.66759
-0.0181,0.036092,0.15132,0.0039257,0.0089109,0.012658,0.026977,-0.78276
0.28968,0.016282,-0.12313,0.010775,0.0018907,0.010803,0.13112,0.1109
0.50259,0.060384,-0.20882,0.040398,0.03443,0.072315,0.39388,0.80513
-0.27083,-0.083322,0.0074861,-0.10376,-0.034433,-0.084016,-0.42431,-0.25775
0.0080481,0.028677,-0.00054255,0.038245,0.021488,0.065135,0.20275,-0.02549
-0.066783,-0.034805,-0.11697,0.0049062,-0.024692,-0.027317,-0.15195,-0.42248
-0.26755,-0.11059,0.11188,-0.024051,-0.016906,-0.072563,-0.41573,0.21991
-0.20125,0.035588,0.039676,-0.016732,0.0057867,0.015085,0.23354,-0.23562
0.033968,-0.033104,0.013214,0.012391,0.02795,0.040096,0.39843,0.62672
0.028106,0.020498,-0.081422,-0.021174,-0.036023,-0.028971,-0.18676,-0.7478
0.93369,0.15883,0.10224,0.016851,-0.0060638,0.12021,0.37528,0.66246
-0.34735,0.031777,0.097032,0.026109,0.016601,-0.1297,-0.59722,-0.075303
-0.17971,-0.093871,-0.14381,0.030758,0.039982,0.096163,0.40095,0.16007
-0.34343,-0.076748,0.026812,-0.0003324,-0.021853,-0.085064,-0.26574,-0.4321
-0.18239,0.12252,0.05168,0.010495,0.026218,-0.0014716,-0.29501,-0.089208
0.40356,-0.16016,-0.0098542,-0.015803,-0.011449,0.026786,0.32694,0.03856
0.044513,0.11397,0.089087,-0.017876,-0.018058,-0.015643,0.005196,-0.36947
-0.34155,-0.032083,-0.19301,-0.043731,-0.033018,0.0591,0.25485,1.0312
0.72498,0.065246,0.13476,0.0072916,0.021573,-0.037657,-0.15848,-0.78941
-0.28444,-0.14926,-0.24778,-0.0059707,-0.010587,-0.032113,-0.16395,0.38869
0.055168,0.058248,-0.034504,-0.013344,-0.0043896,-0.017743,0.036302,-0.19957
0.1311,0.023161,0.089505,0.079132,0.048207,0.083716,0.17822,0.00023602
-0.74536,0.026199,0.16608,-0.0093426,-0.016576,-0.040262,-0.017321,0.18232
0.20835,0.090319,0.11965,-0.028202,-0.010968,0.055449,-0.0086612,0.43113
0.11319,-0.050457,-0.063587,-0.00031231,-0.012886,-0.11384,-0.43353,-0.66869
0.021514,-0.04469,0.015678,0.035766,0.024666,0.068694,0.24993,0.11676
-0.22472,-0.056249,-0.28324,-0.013321,0.023604,0.14174,0.41115,0.093014
0.46571,-0.053358,0.070133,-0.037922,-0.03172,-0.26997,-0.82377,-0.40957
-0.20073,0.089774,0.30905,0.040255,0.0070858,0.044335,0.31812,-0.10646
0.29227,-0.024406,-0.17703,-0.0678,-0.031895,0.16273,0.68612,0.16215
-0.096358,0.01112,-0.099926,0.020665,-0.0080573,-0.21944,-0.70026,0.5867
-0.21456,0.024923,-0.14768,0.0085797,0.023905,0.20257,0.69307,0.051461
0.4324,0.095128,0.078005,0.036237,0.0014767,0.022538,-0.19375,-0.17835
-0.48082,-0.067778,0.24124,0.064116,0.04961,-0.12674,-0.63836,0.14507
-0.20771,-0.034874,0.013986,-0.095819,-0.034918,-0.010923,0.18501,-0.7083
0.49279,0.06798,-0.049153,0.0090253,-0.017879,0.096531,-0.020354,0.031041
-0.57293,-0.11147,-0.15164,-0.020222,0.006816,-0.062116,0.052908,0.39862
0.22434,0.098353,0.065344,0.050563,0.015582,0.052402,0.23766,0.23567
0.63283,-0.052333,-0.047356,-0.036448,-0.022922,-0.090822,-0.061775,-0.34954
-0.45793,-0.13313,0.158,-0.0075935,-0.0071442,0.00085794,-0.26131,-0.059637
-0.1355,0.099173,-0.13161,0.020358,0.023928,0.085748,0.4018,0.35736
-0.13756,-0.049648,0.0054292,-0.037999,-0.0076769,-0.085724,-0.46779,-0.42357
-0.048187,0.13997,-0.016682,0.03663,0.015428,0.080445,0.43531,0.34348
0.5219,0.027716,0.22448,0.049386,-0.00029522,-0.017317,-2.607e-05,-0.61128
0.060315,-0.035197,-0.22329,-0.061943,-0.046858,-0.027758,-0.13701,0.55869
0.083221,-0.010628,-0.1088,-0.023834,0.0086521,0.032905,-0.035527,-0.44218
-0.082319,0.037617,0.10832,0.062046,0.0099767,-0.039247,-0.029344,0.83084
-0.6094,-0.17309,-0.016055,-0.0076747,0.042917,0.036166,0.24368,-0.37479
-0.044805,0.059221,0.14394,0.0167,-0.0021525,0.031788,-0.12631,0.09306
0.69225,0.19485,0.06526,-0.02135,-0.00055333,-0.060769,-0.34409,-0.24704
-0.43922,-0.28971,-0.072507,-0.051676,-0.038544,0.016075,0.10643,-0.46231
0.10916,0.098278,-0.31681,0.011645,0.016447,-0.0031443,0.18061,0.99054
0.19337,0.023803,0.32365,-0.0031356,-0.023176,-0.086643,-0.31349,-0.51529
-0.64101,-0.051113,-0.1209,0.013559,0.0067319,0.071077,0.51054,-0.11227
0.43379,0.015094,-0.065511,0.015049,0.0048524,0.02563,-0.38339,0.053566
-0.028146,0.18392,0.32494,0.040502,-0.012835,0.020072,0.49871,-0.33414
0.31505,-0.10708,-0.23913,-0.011688,0.032177,-0.030887,-0.32724,0.39341
-0.017027,0.08698,-0.054713,0.022348,-0.000411,0.044954,0.29402,0.49872
-0.20227,-0.19555,0.1128,-0.12332,-0.024464,-0.14305,-0.82687,-0.2957
-0.029934,0.052351,-0.15789,0.066565,0.030364,0.186,0.69868,-0.26091
-0.0094403,0.064494,0.071469,0.005739,-0.0079262,-0.038737,0.087817,-0.27122
-0.065091,-0.0030355,0.09067,0.0064401,0.0010383,-0.075709,-0.39448,0.055351
-0.20735,-0.071785,0.15019,0.029462,0.0022578,-0.011429,-0.0054395,0.69329
0.56911,-0.0081709,-0.42961,-0.065835,-0.035824,-0.0025743,-0.07924,0.077392
