-0.027599,-0.19065,-0.058206,0.024372,-0.0017524,-0.011105,0.029933,0.0051713
0.034705,-0.21343,-0.012547,-0.033474,0.0048253,0.0022268,-0.15606,0.061689
-0.0049688,0.12265,0.21263,0.10333,0.042543,0.022864,0.19017,0.039406
-0.029383,-0.053548,-0.32513,-0.12704,-0.029037,-0.034768,-0.080912,-0.069498
0.031895,0.16075,0.056658,0.15109,-0.0066168,0.040707,0.21752,0.08671
-0.031917,0.083324,0.26639,-0.030407,0.0083662,-0.039334,-0.34432,-0.054165
0.029342,0.12709,-0.27301,-0.15549,-0.0074765,-0.032351,-0.062816,-0.069876
0.028316,-0.027684,0.27403,0.11195,0.00050605,0.054028,0.13327,0.032115
-0.027071,-0.31606,0.061982,0.021819,0.055637,0.0088189,-0.11443,0.0020418
-0.011742,-0.14018,-0.068286,-0.043475,-0.05319,0.011426,0.11667,0.035253
0.019668,-0.041636,-0.2296,0.063886,-0.0058511,0.014491,0.26413,0.076859
-0.034382,0.078839,0.15283,-0.039679,-0.0056423,0.0018014,0.045964,-0.022
-0.041097,0.046278,-0.0095405,0.012225,0.017625,-0.0819,-0.32052,-0.066569
0.030694,0.46514,-0.21814,-0.031089,-0.014235,0.012954,0.053522,-0.03398
0.063646,-0.062577,0.13631,-0.013849,0.015971,0.020534,-0.028879,0.020623
0.034086,-0.078087,-0.015364,0.016874,0.0067474,0.0033908,0.04058,-0.012375
-0.034831,0.12532,0.055381,0.014301,0.0129,0.016494,-0.058581,0.046725
-0.057432,-0.50459,0.022784,-0.021213,-0.020096,-0.033464,0.096339,-0.020573
0.020796,0.011154,0.15472,-0.018826,-0.006104,0.025897,-0.17267,-0.0028848
-0.026727,0.058777,-0.17986,0.037708,-0.030846,-0.00026487,-0.019711,0.037861
0.011088,0.36214,-0.026812,0.094321,0.030888,0.013403,0.30739,0.008548
-0.0060856,-0.39981,0.043745,-0.10624,0.0073921,-0.026667,-0.18188,-0.074564
0.0080612,0.26624,6.9811e-06,-0.0088327,0.0081335,0.012335,-0.010167,0.078178
0.053892,-0.33249,-0.17482,0.027507,0.0096635,-0.0025754,0.0097415,-0.06398
0.014503,0.47136,0.25989,-0.09077,-0.035018,0.0064359,0.20465,-0.016311
-0.05526,-0.29535,-0.033489,0.081698,-0.0089558,-0.03129,-0.32594,-0.005232
-0.014743,0.057743,-0.001809,0.005731,0.0094164,0.024547,0.29844,0.070708
0.01097,-0.0064885,-0.036774,0.056042,0.058815,0.064338,0.14602,0.031422
0.021712,-0.042,0.040916,-0.064673,-0.048593,-0.068251,-0.4329,-0.069078
-0.021807,0.34924,-0.15892,0.018077,0.015055,-0.013752,-0.12596,0.0026935
-0.026111,-0.34188,0.09153,-0.024344,-0.016008,-0.029715,0.075746,0.0035574
-0.014952,0.039167,-0.13555,-0.0048604,-0.024591,0.079543,0.28365,0.018496
0.089446,0.13128,-0.08023,0.0059394,0.028531,-0.084027,-0.10905,0.046733
0.028912,-0.11365,0.54072,0.0079551,-0.0047925,0.034553,0.06416,-0.068452
-0.087504,-0.24304,-0.43532,-0.037813,0.00080357,0.036932,-0.10897,-0.038095
0.029033,0.094917,0.29695,0.06413,0.014444,-0.030191,-0.010498,-0.0025312
0.034711,0.065147,-0.13768,-0.053168,-0.01824,0.051503,0.28887,0.03885
-0.13283,0.17664,-0.029244,0.032406,0.0045299,0.00015819,-0.23576,0.055614
0.1127,0.33685,-0.16827,0.063229,0.028145,0.0026401,0.15565,-0.037308
-0.10322,-0.4689,0.10765,-0.069946,-0.033394,-0.058735,-0.17987,-0.028204
-0.0066002,-0.10721,0.16409,-0.023297,0.0072361,-0.0044888,-0.13504,-0.0024395
0.23897,-0.093522,-0.17213,-0.01555,-0.0064786,-0.021964,0.11683,0.040285
-0.10837,0.19687,0.019957,0.023603,0.011102,0.022159,0.14548,0.037492
-0.025036,0.23195,0.11496,0.039445,-0.010617,-0.019815,-0.16602,-0.065719
-0.10479,-0.11452,0.019246,0.008485,0.029701,0.016972,0.011387,-0.019708
0.058471,-0.031755,-0.24315,-0.022473,-0.024324,0.039418,0.32747,0.050118
-0.01201,-0.30304,0.10217,-0.030071,-0.016458,-0.022452,-0.42734,-0.028463
0.10545,0.31939,0.064224,0.0012448,0.037775,0.050058,-0.072197,0.033398
-0.042442,-0.041603,0.011392,0.016735,-0.041117,0.014346,0.11232,-0.037772
-0.0026232,0.041794,-0.063109,0.055439,0.043994,0.049447,0.63416,0.00035506
-0.0094542,0.060468,-0.010174,-0.085769,-0.07383,-0.19691,-0.35085,-0.016012
-0.094074,-0.16578,0.13133,0.054058,0.07435,0.048133,-0.35902,0.015013
0.048367,-0.066198,-0.13888,-0.1032,-0.042642,-0.028262,0.10107,0.015595
0.019572,0.17318,0.02221,0.10651,0.028249,0.06604,0.01325,0.024964
-0.0085488,-0.15619,0.16046,-0.027817,0.013374,-0.028166,0.0023361,0.011865
0.041988,0.019098,-0.21745,0.025011,-0.017263,0.048779,0.13103,-0.078575
0.045851,-0.04746,0.14529,0.046183,0.021938,0.039352,0.05608,0.042374
0.033822,0.24142,-0.095815,-0.011162,-0.017729,0.0062597,0.059409,0.038358
-0.15866,0.092127,0.01983,-0.11564,-0.019203,-0.081641,-0.35048,-0.05979
0.022716,0.093396,-0.031135,-0.016971,-0.013666,0.0022358,0.17078,0.028835
-0.0081633,-0.75261,-0.021713,0.074307,-0.00085406,-0.046815,-0.024878,-0.047549
0.045693,0.47742,0.072204,-0.052321,-0.0037982,0.036813,-0.093625,0.023491
0.036216,-0.23937,0.032617,0.095666,0.048273,0.073438,0.31579,0.054531
-0.067309,0.37004,0.024295,-0.00505,-0.00048568,-0.015035,-0.15673,-0.055812
0.0013169,-0.3522,-0.10061,-0.081188,-0.040435,-0.048861,0.14407,0.020825
-0.023052,0.38015,0.033382,0.07776,0.037866,-0.0045202,-0.41579,-0.03563
0.10985,-0.19463,0.19228,0.025868,0.0077205,0.039969,0.21726,0.017207
-0.014045,0.12191,-0.20946,-0.026581,0.0016458,-0.063702,0.050204,0.046651
-0.020012,-0.057997,-0.36676,-0.0098,-0.058864,0.13774,0.22325,0.021499
-0.080401,-0.082626,0.52548,-0.11155,0.028934,-0.16026,-0.3963,-0.09732
0.077661,-0.049259,-0.0011756,0.05888,-0.00088996,0.058049,0.075042,0.049528
-0.030717,0.024459,-0.071567,-0.013731,-0.015701,-0.011964,0.075924,-0.022361
0.031603,0.29452,-0.24051,0.069677,0.062597,0.035933,0.0219,-0.0082914
-0.016753,-0.65163,0.22592,-0.010525,-0.04714,-0.040558,-0.038536,0.037103
-0.058461,0.47025,-0.040319,-0.0037575,-0.0087689,0.10212,0.013314,-0.011081
0.039657,-0.15617,-0.001324,-0.026864,-0.032975,-0.075349,0.030207,0.0035361
-0.034375,0.14539,0.052383,0.029578,0.060165,-0.0028836,-0.096507,0.002976
0.079394,0.13702,-0.26363,-0.014361,-0.0026217,-0.0087941,0.070855,-0.01261
-0.0013156,-0.11515,0.18185,0.051803,0.020915,-0.007229,0.086651,-0.019638
0.036407,-0.10843,0.13743,-0.038108,-0.033336,-0.013802,0.098579,0.060145
-0.065002,-0.099058,0.04753,-0.042424,0.0063691,0.041871,-0.18343,-0.023167
-0.071091,0.030536,-0.041119,0.030671,-0.008577,-0.043263,-0.23704,-0.042981
0.033672,0.11552,-0.18237,-0.022112,0.0076073,0.035494,0.077227,-0.0071713
0.01465,-0.01003,-0.077453,-0.013231,-0.015493,0.028044,0.21139,0.037194
-0.019201,0.15116,0.13582,-0.0049912,-0.0075962,-0.050186,-0.093495,-0.027419
0.15811,-0.20892,-0.25015,0.065354,0.01571,0.073991,0.19267,0.048482
-0.094688,0.16402,0.2992,-0.020741,-0.0079946,0.025361,-0.0015478,0.037709
-0.02047,-0.30356,-0.13543,0.033696,0.030758,-0.13365,-0.12235,-0.044782
-0.033869,0.30769,0.064433,0.0020638,0.0070492,0.0033558,-0.092117,-0.0042684
-0.0337,-0.066191,0.29688,-0.084519,-0.040002,0.038331,0.034601,-0.028647
0.050243,0.0042888,-0.23692,0.039408,0.014643,-0.020329,-0.13982,-0.016459
0.038468,-0.011052,0.12391,0.022166,0.014764,0.038976,0.30011,0.032526
0.025209,-0.26636,-0.093177,-0.050314,-0.023975,-0.033156,-0.37038,-0.037404
-0.035689,0.05359,-0.11841,0.05648,3.5459e-05,0.068345,0.28809,0.063578
-0.010528,0.06875,-0.27499,-0.063431,-0.014716,-0.039252,0.034901,-0.030849
-0.038982,0.14075,0.24009,0.043446,0.01774,0.034429,-0.027334,0.055152
0.01265,0.099045,0.10613,0.0025079,-0.0041748,-0.015834,0.14087,-0.08397
-0.019019,0.037599,0.042711,0.0016073,0.04446,-0.05794,-0.39032,0.0053826
0.0069468,0.10416,0.020262,-0.013705,-0.016191,0.032355,0.2066,0.057802
0.035687,-0.34307,0.017601,0.0035141,-0.0066385,-0.003427,-0.0066892,-0.0048756
0.02744,0.061985,-0.0018398,0.0062617,-0.028661,0.029559,-0.14048,-0.034458
0.03573,-0.079737,-0.14497,-0.037039,-0.012141,-0.032957,0.21842,0.046797
0.02004,-0.36191,-0.20646,0.021559,0.011531,0.0044092,-0.040066,-0.027165
-0.1383,0.37234,-0.028416,0.017396,0.018845,-0.022082,-0.19776,-0.045809
0.075124,0.014445,0.60883,0.08268,0.033243,0.044334,0.21373,0.02179
-0.020061,0.38522,-0.30256,-0.079975,-0.023318,-0.030098,0.21768,0.019149
-0.080101,-0.26549,0.041173,-0.041186,-0.01006,0.04432,-0.38897,-0.03046
0.075405,0.13177,0.04459,0.0037101,-0.0048807,-0.0052833,-0.082483,0.021256
-0.020998,-0.28381,-0.2241,-0.023136,-0.023126,-0.061286,0.14536,0.01788
0.015146,0.064324,-0.0013566,0.058498,0.013638,0.048442,0.052836,0.037316
0.021459,0.018634,0.48454,0.069614,0.027574,-0.051051,0.1403,-0.053511
-0.0084483,-0.01526,-0.61899,-0.14534,-0.02016,0.046319,-0.2171,0.010754
-0.018974,-0.12312,0.11746,0.039231,0.0033497,0.043312,0.10549,-0.03573
-0.0020493,0.086606,0.053691,0.037718,0.004307,-0.076226,0.11547,0.041315
0.05753,0.10751,0.089001,-0.0092092,-0.0018593,0.015199,-0.28147,-0.008048
-0.0052961,-0.043242,0.12281,0.046629,0.0079688,0.012248,-3.0413e-05,-0.027324
0.019044,0.034118,-0.13312,-0.014005,-0.0056599,0.00027327,0.17796,0.030773
-0.0037206,-0.18301,0.0013538,0.0036175,0.01937,0.049156,-0.0057232,0.0027161
-0.16861,0.28219,0.0028362,-0.057286,-0.02662,-0.052247,-0.027804,-0.0015305
0.086,-0.023718,0.097614,0.021689,0.01246,0.00080668,0.11187,-0.020465
0.056662,0.039247,-0.22255,-0.064225,-0.027429,-0.072621,-0.22681,-0.022386
0.009198,-0.1781,0.026364,0.03671,0.0023484,0.048297,0.15237,0.039843
-0.063575,-0.35604,0.21927,0.012351,0.016185,0.067306,-0.054084,0.0021733
-0.027968,0.32541,0.0049601,-0.0040891,-0.032412,-0.069673,-0.12604,-0.018465
0.023175,0.1631,-0.18606,0.026769,0.044404,0.067539,0.10964,0.039923
0.043713,-0.084995,0.09278,0.042561,0.0046703,-0.044198,-0.072649,-0.026468
0.049686,0.08134,-0.18824,0.035408,0.004694,0.017076,0.2024,0.015994
0.0020775,-0.033039,-0.25417,-0.05741,-0.0025193,0.0090561,-0.073468,-0.013053
-0.036889,-0.06868,0.65391,-0.072105,-0.025041,-0.045078,0.0048054,-0.01252
-0.028619,-0.15061,-0.21354,-0.01672,-0.00070419,0.010588,-0.041124,0.02523
-0.020478,0.10388,0.18214,-0.00074875,-0.007959,0.0038288,0.052333,-0.063704
-0.0050136,-0.18044,-0.058686,0.046123,0.023259,0.012458,-0.091715,0.033654
0.017636,0.48829,-0.21901,0.069291,-0.0087317,-0.010646,0.14257,0.013316
-0.03055,-0.16383,-0.07421,-0.024885,0.013295,-0.042201,-0.36249,-0.037986
0.038217,-0.035726,-0.016704,-0.041001,-0.019846,0.11305,0.40143,0.044548
0.052438,-0.073117,0.077102,0.052254,0.01716,0.002021,0.068628,0.011465
-0.026593,-0.15122,0.2297,-0.0028812,-0.015927,-0.093855,-0.42114,0.027099
-0.065816,0.058146,-0.098494,-0.096964,-0.02497,-0.0024259,0.083191,-0.049209
0.091105,0.031884,-0.18111,0.027919,0.029404,-0.028011,-0.0018065,-0.0068319
-0.032477,0.17677,0.23969,0.012512,-0.0088879,0.056345,0.15387,0.028716
-0.061795,-0.0065789,-0.26559,0.02097,0.039816,0.024423,0.051052,-0.09163
0.010628,0.021494,0.26431,-0.0013829,-0.020024,-0.0063847,0.10332,0.068985
0.06722,-0.21502,-0.10765,0.031266,0.014324,-0.02044,-0.12071,0.049043
0.052925,-0.051573,0.041065,-0.037609,-0.029503,-0.0023147,-0.10026,-0.019096
-0.10286,0.13725,-0.069898,-0.013094,0.0042548,0.0085576,0.060055,-0.010706
-0.0096785,0.093961,-0.040941,0.041862,-0.0019834,0.035142,-0.14267,-0.050853
0.012149,-0.22034,0.035586,0.0018622,-0.0015696,-0.040218,0.19561,0.0090402
-0.029431,0.23339,0.083109,0.0073015,-0.0023372,0.032114,-0.027808,-0.0025902
0.092388,0.040853,-0.09995,-0.012105,0.019332,-0.052722,-0.13313,0.063108
-0.051794,-0.27491,0.097142,-0.09509,-0.037783,-0.013418,0.20908,-0.074673
0.0070418,0.19178,-0.043402,0.032394,0.022061,0.017481,-0.30362,0.061021
0.0034734,-0.075342,-0.17744,0.035201,0.0039949,-0.014302,0.10497,-0.013883
-0.0076947,-0.10043,0.21816,-0.015531,0.0099539,0.094805,0.17977,0.052382
0.012642,0.084483,-0.084233,0.052763,0.0089391,-0.068893,-0.23323,-0.052553
0.0098009,0.10351,0.11678,0.013937,-0.0067636,-0.0051957,0.22663,-0.0082632
-0.024018,-0.1693,0.037703,-0.046007,-0.02158,0.012446,0.0047944,-0.05681
0.0050077,0.2182,-0.08168,-0.0023532,-0.012247,-0.00056359,-0.15754,0.020713
0.011102,0.062058,-0.11862,0.042775,0.036605,0.080395,0.15183,0.06822
-0.036732,-0.2789,-0.0045412,-0.051968,-0.015939,-0.096695,-0.0616,-0.01574
0.0024425,0.062515,0.11897,-0.013886,-0.0061009,-0.024453,-0.0032138,-0.051482
0.011745,0.047846,-0.10754,0.02356,0.01901,0.02336,0.012757,0.04676
0.061707,0.0064764,0.16041,0.036467,0.0045455,0.023139,-0.13958,0.0051957
-0.050748,-0.15361,-0.07573,-0.053535,-0.026122,0.0061467,0.032034,0.0029971
-0.052368,0.061695,-0.071959,-0.012112,0.0051617,0.0038022,-0.057478,-0.0073177
0.032962,-0.041188,0.0096066,0.012426,-0.018682,-0.030487,0.10105,-0.018541
0.032678,0.1405,-0.071473,0.035926,0.027507,-0.010443,-0.0066301,0.007894
0.03186,0.27127,0.25642,0.027391,-0.0045431,0.056465,0.065804,0.0091877
-0.025077,-0.22738,0.033073,-0.059826,-0.0053168,-0.056033,0.053089,-0.038141
0.0095289,-0.059591,-0.31955,0.071331,0.033082,0.035087,-0.013845,0.022379
0.010196,-0.34391,0.33093,-0.071199,-0.0065146,0.025254,0.067325,0.019317
-0.077814,0.51989,-0.29754,-0.042023,-0.0382,-0.030813,-0.12619,-0.054545
0.011561,-0.00046284,0.13,0.04953,0.0082744,-0.015961,-0.0090816,0.051428
-0.0098672,-0.46796,-0.18434,0.023781,0.0078431,-0.00057059,-0.15946,0.048744
-0.031566,0.15654,0.26634,-0.0099214,-0.016109,0.015275,0.024987,-0.093437
0.057045,0.22521,-0.09692,0.0030572,0.022329,-0.023202,0.01439,-0.0077393
0.046021,-0.081281,0.045518,0.023596,0.013784,0.032336,0.22449,0.071394
0.0062448,0.050743,0.0056252,-0.026456,-0.0026522,-0.02917,-0.17129,-0.051658
-0.046631,0.013152,-0.16225,-0.0064235,-0.019112,0.010881,0.05462,0.067922
0.027515,-0.091309,0.16681,-0.017713,-0.027709,0.035137,0.12122,-0.039206
0.024649,-0.074101,-0.038247,0.0024463,0.026331,0.012187,-0.050193,0.017014
-0.025073,0.0812,0.13718,0.023158,0.010273,-0.042455,0.11732,-0.02166
-0.028933,-0.093723,-0.23576,-0.033325,0.0023029,-0.011627,-0.28399,-0.030425
-0.018931,0.15104,-0.038806,0.052074,0.010255,-0.012432,-0.028996,0.0064348
-0.018824,-0.10714,0.010447,-0.0095139,-0.028388,-0.005612,0.15468,0.01896
0.02622,-0.018223,0.14742,-0.04621,0.0035084,0.048161,-0.046042,-0.0079235
0.0073649,0.09525,-0.017789,0.0042681,-0.011324,0.00072387,-0.076583,0.0045366
0.026957,0.027387,-0.00047586,0.071186,0.059837,-0.06177,0.039789,0.017857
-0.01573,-0.037243,0.2383,-0.025719,-0.056536,0.10297,0.068914,-0.022234
-0.010618,0.19564,-0.2472,-0.0058348,-0.0011435,-0.075413,0.018645,0.017259
0.034917,-0.010073,-0.051263,-0.0025662,0.007213,0.020088,0.18561,0.034699
-0.011841,-0.45945,-0.049346,-0.039787,0.023197,-0.0092507,-0.29007,-0.048326
-0.0026859,0.1768,-0.085459,0.015115,-6.0397e-05,0.0081053,0.20818,-0.0056813
-0.0084139,0.034128,0.17627,0.0059638,-0.015648,0.024956,-0.20298,0.08405
0.0016101,-0.024431,-0.06104,0.011215,-6.5615e-05,-0.044887,-0.14875,-0.12327
0.011158,-0.041859,0.21038,0.00014667,-0.023543,0.017197,0.1992,0.03615
-0.019293,0.086672,-0.048741,0.020266,0.031199,-0.015338,0.19307,0.0075407
0.011591,-0.082328,0.1456,-0.044985,-0.0076344,0.021729,-0.34585,-0.037187
-0.04458,0.16975,-0.45702,-0.015397,0.0084511,-0.02758,0.28674,0.058336
0.031243,0.059498,0.1196,0.046854,0.0013456,0.055821,0.0061838,0.028603
0.0051573,0.090939,0.0080551,0.0090358,-0.013355,-0.055846,-0.2566,-0.048199
0.0027022,0.064282,0.036386,-0.011849,-0.0044718,0.03616,0.2417,0.038836
-0.014701,-0.27451,0.1499,0.015041,0.012271,-0.019505,-0.20894,-0.05416
0.031399,0.079934,-0.057703,-0.035848,-0.0023012,-0.019604,-0.03757,0.0085831
-0.022948,-0.31774,-0.031877,0.022391,0.014201,0.043665,0.24824,0.023774
0.040892,0.066334,-0.11662,0.025178,-0.00081009,-0.001684,-0.062679,-0.00088681
-0.019569,-0.052116,0.32843,-0.043466,-0.039582,-0.030842,-0.041348,-0.018535
-0.017232,-0.065603,-0.23595,-0.043047,0.0072347,0.073155,0.084486,0.056876
-0.022818,0.25024,-0.19247,0.026527,-0.0009853,-0.1196,-0.22578,-0.063485
0.01804,0.21964,0.34209,0.017093,0.037336,0.039145,0.096436,-0.051177
0.011419,-0.023446,-0.15497,0.038407,0.012844,0.025834,0.018113,0.03946
-0.0036147,0.042459,-0.12019,0.043998,-0.0041189,0.027897,0.10798,0.060291
0.0043482,-0.10295,0.24436,-0.090777,-0.060383,-0.056259,0.044515,-0.011931
-0.034732,-0.036333,-0.16981,-0.037533,0.016005,0.038981,0.014528,-0.0052912
0.020084,0.024868,0.12224,0.01637,0.014229,-0.04576,-0.43514,-0.0058352
0.020643,-0.041701,-0.066932,0.055321,0.020388,0.056698,0.26647,0.001853
-0.0094312,-0.082372,-0.081604,0.047972,-0.004394,-0.02084,-0.13728,-0.02934
0.00021899,-0.11994,0.092797,-0.052729,-0.02868,-0.012759,0.31608,0.017585
0.072925,-0.064699,0.10325,0.018639,0.017996,0.034074,-0.11407,0.017545
-0.12749,-0.035574,-0.059662,-0.10529,-0.03615,-0.044376,0.058076,-0.013782
-0.015423,0.27912,0.0088252,0.067575,0.051071,-0.03712,-0.28362,-0.060603
0.080625,-0.036166,-0.059501,-0.0018627,-0.0095074,0.07935,0.18183,0.033566
0.0040447,-0.039789,-0.10092,0.014559,0.00066131,0.0082334,0.23603,0.058012
0.043615,0.097371,0.025665,0.0075213,0.0031747,-0.062899,-0.31621,-0.05744
0.0038707,0.2088,0.10271,-0.015134,-0.0022746,0.061324,0.1111,0.070021
-0.12297,0.17974,0.1007,-0.0065582,-0.023783,-0.040923,-0.14599,-0.0050783
-0.0085688,-0.39541,-0.21276,0.0097188,0.0087486,0.01322,0.2174,-0.048659
0.034963,-0.016188,0.085979,0.049177,0.017087,-0.018387,-0.1188,-0.029851
0.031522,-0.18858,-0.18932,-0.028973,-0.022201,0.04399,-0.13097,0.0040653
0.036228,-0.095659,0.16493,-0.084255,-0.007452,-0.080871,0.087025,-0.0019719
-0.028747,0.1608,0.19514,0.023859,0.022435,0.052329,0.1518,0.053302
0.00075241,0.075849,-0.037534,0.029711,-0.010478,0.0060161,0.054372,0.060327
0.023038,0.014041,-0.027151,0.05053,0.018974,-0.0090216,-0.21481,-0.019994
-0.04031,-0.018267,-0.064799,0.031737,0.0015425,0.0069996,-0.079787,-0.1172
-0.033425,0.10237,-0.16778,-0.12024,-0.015821,0.022582,0.16026,0.0034268
0.043334,-0.087791,0.10825,0.055794,0.0059869,-0.0015599,0.47989,0.053339
0.056919,0.023535,-0.05707,-0.041413,0.0044995,-0.026495,-0.56755,-0.021534
0.015111,0.04616,-0.022369,0.05725,0.0032002,-0.0053341,-0.0683,0.045051
-0.16,0.0015569,0.080815,-0.061927,-0.044711,-0.031641,0.017615,-0.019839
0.047651,0.026496,0.027292,0.031029,0.0093014,0.0042944,-0.049972,-0.012778
0.0058459,-0.032387,0.091549,0.015955,0.032529,0.040395,0.22393,0.042843
0.027706,-0.047301,-0.31973,-0.0056207,-0.0062052,0.0067679,0.04553,-0.017242
0.019982,0.12601,0.44161,0.012944,0.010302,-0.041575,-0.16834,0.0018772
0.029806,-0.31194,-0.14089,-0.030322,0.0038665,0.090842,0.11561,-0.048759
-0.005385,0.20851,0.24423,0.059376,-0.033459,-0.08819,0.11712,0.025618
-0.054719,-0.20202,-0.58357,-0.038813,0.030952,0.077392,-0.11697,-0.0020435
0.0061747,0.052975,0.29734,-0.020663,-0.021856,-0.084583,0.013966,0.039759
0.043712,-0.022958,-0.20621,-0.019288,0.0032375,0.0193,-0.17128,-0.060143
-0.10695,0.3003,-0.030394,0.012085,0.00452,0.013734,0.044313,0.0028546
0.061308,0.088124,0.33437,0.065748,0.0053369,4.7623e-05,0.15906,0.041292
0.079271,-0.16555,-0.44613,-0.053345,-0.01778,0.0015344,-0.10968,0.00062126
-0.076719,-0.038348,0.59025,-0.040137,0.0055054,-0.044366,-0.13014,-0.017384
0.038734,-0.14802,-0.24363,0.058888,0.012755,0.057658,0.18298,0.057845
-0.011491,-0.050563,0.090767,0.0018921,-0.0037596,-0.012674,0.19659,-0.10935
-0.10958,0.2368,0.060919,0.0078857,-0.0048827,0.033747,-0.20651,0.028195
0.081171,0.13438,-0.20973,0.022336,0.017293,-0.013966,-0.049469,0.025431
0.053763,-0.27309,-0.097582,-0.071883,-0.007446,-0.054186,-0.13653,-0.015861
-0.097375,-0.048822,-0.017597,-0.0013362,-0.032121,-0.0086987,0.087569,0.021649
0.089128,0.017894,0.069051,0.054254,0.037133,0.060111,0.25619,0.067704
-0.042877,0.091292,-0.063881,0.0010879,-0.0026848,-0.0038671,-0.16929,-0.088656
0.021988,0.054535,0.16233,-0.05152,-0.01864,-0.0051753,0.022275,-0.010007
0.048807,-0.17801,0.10758,-0.017725,-0.0028195,-0.053058,-0.13792,0.0066787
-0.072514,0.33908,-0.087313,0.032011,0.0057687,0.063516,0.12328,0.0081799
0.0010257,-0.19907,0.022678,0.042771,-0.0007036,-0.030412,-0.085139,0.033476
0.010977,-0.011569,-0.016267,-0.024819,0.016723,0.032327,0.21299,-0.026884
-0.050881,-0.0050795,-0.22069,0.032003,0.0031698,-0.053031,-0.060643,-0.0089173
0.049694,-0.047047,0.1976,-0.013679,-0.025998,0.049333,-0.046457,-0.014282
0.0081556,0.096968,-0.019827,-0.037116,0.038309,-0.012282,0.053141,0.074091
-0.0032709,-0.0022522,-0.05287,0.016302,-0.015111,-0.011438,-0.21372,-0.048617
-0.023177,-0.13292,0.059678,-0.032961,-0.014567,-0.002908,-0.087593,0.00027275
0.019239,-0.11427,-0.025249,0.026406,0.00081085,0.028909,0.06603,-0.029352
0.015026,0.28921,-0.0019897,-0.0081861,-0.015791,-0.017507,0.17035,0.034315
-0.027712,-0.054393,-0.096023,-0.026773,-0.0095142,-0.056122,0.15558,0.081884
0.00053611,0.10547,0.17021,0.033664,0.027691,0.077249,-0.072542,-0.14442
0.037258,-0.098359,-0.069732,0.040649,0.017938,-0.039168,-0.046871,0.019547
0.012023,-0.0413,0.004829,-0.013552,-0.022957,-0.03033,-0.066718,-0.012088
-0.083151,-0.13042,0.1048,0.0036919,0.037924,0.095903,-0.088033,0.04196
0.040651,0.13319,-0.13738,-0.025198,-0.033774,-0.051233,0.034946,0.072281
0.047407,0.045184,-0.13639,0.0086469,0.011912,0.043683,0.30021,0.024086
-0.062873,-0.19263,0.18524,-0.043713,-0.012574,-0.010187,-0.08229,-0.055874
-0.024471,0.13723,0.04568,0.012636,0.0021187,-0.095816,-0.4873,-0.12081
0.014317,0.13517,0.12433,0.013403,-0.022106,0.044546,0.27405,0.055873
0.022374,0.019084,-0.055284,0.083561,0.032027,-0.018743,-0.077275,-0.0022307
0.038838,-0.070825,-0.35202,-0.097049,-0.030669,0.034767,0.070636,0.05673
0.024636,-0.12655,0.031862,-0.020318,0.0086706,0.02556,0.20449,0.014362
-0.02032,-0.13939,0.073867,0.025056,0.02511,0.00066882,-0.049025,-0.027418
-0.041475,0.087473,0.14971,0.0003624,-0.01263,-0.016362,0.0061822,-0.013633
-0.04677,0.13409,-0.037362,0.054306,0.028133,-0.017672,-0.10652,-0.014419
0.0027618,0.018065,0.15256,0.015137,-0.016882,0.004553,0.057487,0.017133
0.021121,0.02237,-0.18831,-0.078111,-0.022936,0.02686,0.059759,-0.0050191
0.070753,-0.047186,0.29725,0.024389,0.017533,-0.044505,-0.16306,0.051705
-0.043741,-0.073049,-0.29925,-0.04481,-0.028473,-0.045456,-0.19743,-0.063023
0.021264,0.061549,-0.034333,0.057747,0.034277,0.14125,0.15176,-0.01364
-1.0873e-05,-0.035121,0.036409,0.042737,-0.012936,-0.054606,0.22047,0.074484
0.0016897,0.057239,0.053942,-0.043143,-0.021541,-0.023566,-0.16324,-0.05677
0.0029058,0.039977,-0.089503,-0.043704,0.039915,-0.038975,-0.070048,0.0064647
-0.011856,-0.10421,0.0071299,0.033317,-0.015842,0.032037,0.32732,0.02195
-0.06574,0.021812,0.04229,-0.022832,-0.0089188,0.033225,-0.073942,0.052294
-0.017718,-0.027974,-0.19193,-0.024403,0.013955,-0.012042,-0.15028,-0.14444
0.031043,0.027678,0.33021,0.067908,-0.017475,-0.017981,-0.020143,0.057117
0.018284,0.033217,0.078579,-0.019165,0.006135,-0.0082597,-0.043579,-0.014532
