-0.15687,-0.079564,-0.036786,-0.013788,-0.013481,-0.0070315,-0.08484,0.037565
-0.029319,0.045238,0.010366,0.0067815,0.00074248,0.0067656,-0.09872,0.050121
0.011101,0.045628,0.0035093,-0.0041303,0.0068296,-0.011145,-0.3312,0.075416
-0.10776,0.038465,-0.0026741,-0.007061,-0.0027853,0.0020516,-0.13472,-0.26205
0.0022646,-0.039328,-0.023917,-0.0016055,-0.020012,0.0076653,-0.13445,0.076745
0.29153,0.045941,0.056751,-0.0030535,-0.0055246,-0.040832,0.88853,-0.017135
-0.1176,-0.042264,-0.018795,0.01223,0.033069,0.075545,-0.0032424,0.050927
0.14775,0.00042863,0.085018,0.020822,-0.0056922,-0.041583,-0.6931,0.094585
-0.31988,-0.13056,-0.17122,-0.0086993,-0.0046489,0.029525,0.13016,-0.088031
-0.06737,0.01847,0.032514,0.017087,0.0047917,-0.0083054,0.37871,0.035492
0.23461,0.15941,0.078898,-0.011604,0.0067429,0.0086058,0.13638,-0.057396
-0.20074,-0.042526,-0.047691,-0.024869,-0.0069239,0.0095834,-0.14538,-0.06936
0.16069,-0.070579,0.035715,0.00041108,-0.0052678,-0.044673,-0.24837,-0.0082686
0.071764,0.068296,-0.029984,-0.01407,0.011469,-0.013578,-0.41374,0.12527
-0.30894,-0.031734,-0.0022402,-0.013651,-0.034968,0.00148,0.51747,0.14267
0.019823,-0.01923,-0.021279,0.033021,0.0038592,-0.0069711,-0.34122,-0.043393
0.57361,0.073901,0.092979,0.048004,0.026511,0.039603,0.27279,-0.19992
-0.13331,-0.011231,-0.065363,-0.046623,-0.0058671,-0.014696,0.27026,0.093873
-0.22043,-0.018125,0.019594,0.03058,0.0085364,0.025633,-0.21262,-0.0062256
-0.096679,0.01286,-0.058226,-0.048362,-0.0081662,0.012108,-0.13526,-0.15618
-0.092642,-0.020886,0.021533,0.02135,-0.0011019,-0.024292,0.079874,0.059103
0.11031,-0.065284,0.032207,0.0054202,-0.0014132,0.033184,0.14892,0.26624
0.089694,0.02021,-0.0030355,-0.010164,-0.0012691,-0.058142,-0.010395,-0.28289
0.12728,-0.029601,-0.045558,-0.025384,-0.00073597,0.021619,-0.32492,-0.039633
-0.36144,0.10641,0.044718,0.014426,5.2956e-05,-0.024651,0.3645,0.30991
0.12553,-0.047302,0.040636,0.023257,0.008738,0.013977,-0.047698,-0.10071
0.14494,0.072781,0.035408,0.024417,0.009519,0.0049246,-0.27491,-0.091772
-0.0046325,-0.055927,-0.096337,-0.0057042,-0.0055576,-0.0045097,0.06516,0.015749
-0.087875,-0.018795,-0.010964,-0.036046,-0.013128,0.017448,0.059861,0.080047
-0.20634,-0.018715,-0.036424,0.011346,0.002444,0.0088068,0.17312,-0.19724
0.42032,-0.032353,-0.039487,-0.066778,-0.029061,-0.045671,-0.23179,0.14325
-0.10798,0.12739,0.12883,0.065462,0.017507,0.01044,-0.080604,0.006331
0.33185,-0.0010679,0.0081107,0.025257,0.032934,0.036426,0.23139,-0.015401
-0.48852,-0.13722,-0.026295,-0.015465,-0.029535,-0.038385,-0.47392,-0.0086702
-0.40619,0.046258,0.017909,0.0058899,0.017643,0.051055,0.54524,0.12771
0.48479,0.04088,-0.031283,-0.027746,0.0025296,0.0071709,0.20055,-0.27034
-0.10413,0.018023,0.052413,-0.0068485,-0.004719,-0.014478,0.14442,0.063108
0.21881,-0.022537,-0.020359,0.021884,-0.012138,-0.045682,-0.52593,0.011285
0.072161,0.0052215,-0.038827,0.019581,0.0034715,-0.024216,-0.040721,0.10588
-0.27726,-0.09362,-0.049809,-0.044808,0.0028471,0.026543,0.098173,0.10502
-0.055247,0.056593,0.001682,0.00076609,0.0015044,0.02886,-0.093043,-0.061431
0.25402,0.073872,0.061435,0.031434,0.0072732,0.014643,-0.048756,0.028475
-0.20916,-0.040915,-0.0341,-0.0074325,-0.0031228,-0.023107,-0.4983,-0.35957
0.23415,-0.029177,0.043593,-0.022108,-0.021576,-0.013244,0.92355,0.36052
0.090951,-0.015352,0.029023,0.049798,0.022617,-0.0097395,-0.3873,-0.34221
-0.28007,0.024245,0.00011764,-0.01845,-0.018553,0.011322,0.18978,0.17327
0.066163,0.034808,-0.043627,0.0073125,-0.011889,-0.0045864,0.21026,0.15741
-0.32323,-0.10133,0.0064448,-0.045004,0.0038058,0.012658,-0.42164,0.11062
0.07589,0.10724,-0.0066994,-0.011525,0.036416,0.054744,0.039676,-0.099479
0.14722,0.034592,-0.075933,0.0060279,-0.00014813,-0.0040354,0.5807,-0.089626
0.36029,0.047024,0.095175,0.046592,0.018756,-0.0081938,-0.5776,-0.22645
-0.096909,-0.1608,-0.024724,0.00068779,-0.032376,-0.06776,0.4434,0.061
0.21327,0.098361,0.1506,0.063547,0.0099671,-0.02689,-0.24083,0.15617
-0.50606,-0.17525,-0.15161,-0.10862,-0.042211,-0.0028669,-0.94165,0.0047813
-0.067381,-0.074741,-0.086621,-0.023615,0.021683,0.051389,0.039808,-0.033867
0.021706,0.28357,0.088917,0.084295,0.0061907,0.026911,0.91162,0.17235
0.06622,-0.052625,-0.13952,-0.058146,-0.010497,-0.0055091,0.014558,-0.20602
-0.035247,-0.043737,0.22889,0.0024264,0.01092,-0.0063874,-0.062137,0.11041
-0.048759,0.068079,-0.15713,0.0084589,-0.022964,0.0011041,0.61213,-0.0523
0.2665,-0.030155,0.15519,0.046121,0.036669,-0.022029,-0.32365,-0.024183
0.24404,0.027867,0.00079743,0.029646,0.01048,0.017849,-0.5605,0.060563
-0.0098887,-0.063597,-0.082733,-0.079932,-0.0075047,-0.004505,-0.19654,-0.15016
-0.46728,-0.016437,0.035764,-0.0091481,-0.017094,0.012188,0.21728,0.10193
0.18195,0.043755,0.011075,0.007596,0.0052651,0.013005,0.42032,0.13868
-0.086367,-0.070579,-0.032732,0.01711,-0.018493,-0.025607,-0.8621,-0.06095
0.057485,-0.015167,-0.11928,0.019297,-0.0024065,-0.025473,1.0501,-0.079919
0.00033372,0.17196,0.087978,0.014036,0.030087,0.0057951,-0.68507,-0.31361
-0.12678,-0.17973,-0.05033,-0.053508,-0.014794,-0.048693,0.47386,0.28747
-0.12142,0.056174,-0.0091895,0.011816,-0.012127,0.061361,-0.62656,-0.26729
0.054546,0.021516,0.041029,0.014529,0.014513,0.054905,0.87583,0.61607
0.10168,-0.032934,0.070132,-0.014281,-0.0053963,-0.028973,-0.50863,-0.0091136
0.069208,0.080496,0.10973,0.065867,0.045059,0.020488,0.22238,-0.14551
0.22935,-0.029292,-0.10619,-0.081081,-0.061003,-0.039236,-0.24936,-0.20277
0.092891,0.035088,0.054193,0.0057336,0.035458,0.0023738,-0.12511,-0.067152
0.15218,-0.05594,-0.12131,0.029399,-0.025235,-0.026967,0.15123,0.032076
-0.40658,-0.093051,-0.047939,-0.049143,-0.024563,-0.026009,-0.41972,-0.00032947
-0.42825,0.10976,0.062624,0.10608,0.068595,0.044133,0.62227,0.18711
0.0019071,0.0044728,-0.00069062,-0.082978,-0.027016,0.019369,-0.17841,-0.33413
0.48903,-0.011059,0.01263,-0.014661,-0.014395,-0.014259,-0.34969,0.25825
-0.045858,0.063234,-0.0057717,0.092426,0.020774,0.029392,0.68031,-0.13507
0.0090271,-0.076589,-0.10932,-0.10528,-0.030528,-0.013453,0.091832,0.011295
-0.3257,-0.046387,0.11725,0.056508,0.011813,-0.0096319,0.080964,0.37048
0.050289,-0.078831,0.10446,0.015569,0.0076211,-0.013436,-0.34206,-0.088355
0.45652,0.12474,-0.045867,-0.02469,-0.011436,-0.016638,-0.70311,-0.1546
-0.13185,-0.035715,-0.029415,-0.048385,0.01747,-0.0032225,0.10067,0.077229
-0.06152,0.16732,-0.073729,0.046223,0.00079212,0.02711,0.13676,-0.37807
-0.36091,-0.17223,-0.00052851,-0.04552,-0.030173,-0.01925,0.65511,0.080441
0.26742,0.077784,-0.069229,0.05123,0.041656,0.021694,-0.8899,-0.031924
-0.0062005,-0.013688,0.15614,0.023616,-0.018328,0.048088,0.99473,0.37071
0.4791,0.020298,0.15098,0.019549,0.0083032,-0.026487,-0.26253,-0.024154
-0.35112,-0.025271,-0.17122,-0.0397,-0.011611,-0.030741,-0.56438,0.14282
-0.14174,0.074573,0.17415,0.048441,0.015352,0.026934,0.88623,-0.37851
-0.18544,-0.22023,-0.44463,-0.12265,-0.036065,-0.057048,-0.74171,0.09137
0.20288,0.066666,0.060239,0.032886,0.0058477,0.0061233,0.51555,-0.22106
-0.048026,0.076447,0.14418,0.015268,0.016015,0.013321,-0.26195,0.26244
-0.039329,-0.072502,0.0047948,-0.0031268,-0.021189,0.035099,0.13126,0.011001
0.2225,0.12919,0.15161,0.048673,0.050526,0.0094008,-0.3713,-0.029472
-0.11231,-0.035655,-0.02399,-0.008349,-0.010968,-0.00070197,-0.20896,0.11058
0.028218,-0.081343,-0.022481,-0.040845,0.0053215,-0.018027,0.32174,-0.0757
-0.057781,-0.022722,-0.15019,-0.0094763,-0.02556,-0.026371,0.41047,-0.024759
-0.025912,0.1169,0.1216,0.038831,-0.041079,-0.056544,-0.30682,-0.134
0.22551,-0.084857,-0.07724,-0.021307,0.013464,0.040103,-0.34253,0.027152
0.18856,0.1366,0.070788,0.036017,0.020862,0.029102,0.36058,-0.040841
-0.48053,0.029998,0.19639,0.069382,0.05137,0.097526,0.14755,0.083745
0.0077354,-0.13243,-0.25608,-0.10167,-0.035734,-0.060035,0.26831,0.24369
0.068452,-0.023372,-0.044017,-0.0089633,0.017256,-0.030419,-0.46588,-0.13314
-0.1328,-0.025851,-0.048452,0.0035322,-0.016291,0.0057725,0.37273,-0.072636
0.13214,-0.037843,-0.063427,-0.024942,-0.0035435,0.0087412,-0.95238,0.0083618
0.13786,0.082274,0.14094,-0.0078875,-0.030288,-0.029734,0.69754,0.1698
-0.19371,-0.11738,0.067783,0.024265,-0.0024862,-0.070592,-0.92122,-0.26986
0.034442,0.19243,0.09441,0.11149,0.056818,0.097492,1.0651,0.02459
0.14742,-0.073558,-0.035925,-0.12822,-0.070701,-0.06387,-0.078909,0.17088
-0.038747,0.014332,-0.018842,0.016637,0.037201,0.071125,0.50513,-0.27453
0.2055,0.1976,-0.066758,0.046298,0.013556,-0.0045716,-0.46462,0.019143
0.22742,-0.18118,0.068118,0.015335,0.0068151,0.029943,-0.11295,0.086227
-0.2491,0.009456,-0.061908,-0.029773,0.0011453,-0.043736,-0.27429,0.29683
-0.66948,-0.098796,-0.036965,0.004163,0.011779,0.024484,-0.18003,-0.07332
0.00031695,-0.0065122,0.032337,-0.016255,-0.016468,-0.015502,-0.044674,-0.16349
0.26568,-0.0026258,-0.088675,-0.013387,-0.029407,-0.046745,0.76139,-0.028042
0.094509,0.0543,0.014618,-0.003155,0.0038054,-0.0070449,-0.82829,0.0042476
0.16575,0.0014965,0.030828,-0.0090828,-0.010824,-0.0060964,0.37572,-0.099282
0.11781,0.051376,0.023699,0.03142,0.020399,0.08078,0.73192,0.30005
-0.21829,0.080272,0.017615,-0.0064574,0.019463,0.011085,-0.62292,-0.1437
-0.10081,-0.18433,0.16134,-0.028772,-0.02902,-0.043598,0.023687,-0.1906
0.27908,0.05481,-0.061166,0.097406,0.039315,0.041498,0.32835,0.14953
0.19653,0.031788,-0.14317,-0.073231,-0.033037,-0.061876,-0.34871,0.1173
0.035015,0.05046,-0.0080105,0.037332,0.019816,0.021312,0.40181,0.12578
-0.40746,-0.038869,0.053789,-0.039827,-0.028493,-0.021223,-0.63237,-0.27834
-0.19034,-0.14393,0.033333,0.0076244,0.0018402,-0.025033,-0.61267,-0.039775
-0.2687,0.11661,0.063056,0.015532,0.040533,0.072884,0.84996,-0.032155
0.2101,0.0070852,-0.12216,-0.047325,-0.02964,-0.016007,0.099987,0.027708
0.2965,0.12037,-0.044359,0.045776,0.025605,-0.025624,-0.37701,0.12637
0.073571,-0.082981,-0.0061085,-0.017411,-0.02041,0.013078,0.0046317,0.094052
0.1011,-0.079327,0.034132,-0.010035,-0.027186,0.022048,0.48383,-0.091041
-0.30434,-0.13356,0.024063,-0.0021689,-0.010471,-0.061388,0.27223,0.0643
0.33618,0.1539,0.012382,0.014113,0.045243,0.06706,-0.19564,-0.13493
-0.15668,0.018748,0.0859,0.023127,0.0070273,-0.015038,0.043386,-0.071889
-0.20616,0.03254,-0.091604,0.016821,0.015394,0.0041939,-0.36106,0.01815
0.068002,-0.045962,0.033145,-0.036428,-0.039127,-0.0086276,-0.26645,0.15738
0.24881,0.080631,0.051609,0.034833,0.023092,0.0085856,-0.12194,0.078775
-0.23661,-0.017296,0.078238,-0.019761,-0.024505,-0.038085,0.42285,-0.10963
0.10243,-0.090014,-0.30369,-0.083236,-0.025581,0.0077212,0.13483,-0.033877
0.0080199,0.080796,0.28654,0.039721,0.035653,-0.0098831,-0.85045,-0.12424
-0.15121,-0.083393,-0.33973,0.036834,-0.0046445,0.019015,0.75901,0.08023
-0.02105,0.065642,0.16118,0.010075,0.017827,-0.014367,-0.2147,0.11135
-0.027903,-0.058,0.13402,0.006845,-0.0060905,0.038932,0.82973,0.016998
-0.16868,-0.071248,-0.09137,0.004261,0.0018908,-0.023866,-0.60238,-0.13126
0.31652,0.05751,-0.020673,-0.059678,-0.012832,0.039542,0.43796,-0.011945
0.43596,0.10981,-0.089353,-0.0049205,0.0044212,0.018091,-0.35857,-0.030451
-0.25712,0.062285,0.18852,0.035883,-0.024574,-0.072907,-0.33169,0.055651
-0.062697,-0.12443,-0.10035,-0.031106,0.0015501,-0.022942,-0.20187,0.058356
-0.15684,-0.091634,0.043868,0.067191,0.027826,0.042536,0.18012,0.062337
-0.16899,-0.0043823,0.018596,0.0020471,0.014848,-0.025311,-0.29198,-0.027993
0.021979,0.057999,0.017496,-0.047615,-0.0065036,0.031022,0.22232,0.082183
0.17899,0.24274,0.11682,0.034582,0.0024954,0.039479,0.56373,-0.085506
-0.0037719,-0.1543,-0.29448,-0.056754,-0.020895,-0.046858,0.095521,-0.15715
0.11481,0.038221,0.19663,0.068536,0.0013662,-0.0013292,0.38257,0.015639
-0.025725,-0.21867,-0.25381,-0.050603,-0.016546,-0.0033913,-0.77743,0.051156
0.0076588,0.060218,0.10491,0.0079738,0.019423,0.01761,-0.22848,0.045231
-0.20265,-0.029867,0.086737,-0.020728,-0.015274,-0.031667,-0.049425,-0.10887
0.19963,0.05204,-0.025284,-0.0030063,0.0048857,0.0054412,-0.26434,0.060239
-0.16374,0.12041,0.098737,0.054328,0.017899,0.027715,0.61079,0.031162
-0.15622,-0.073113,-0.16486,-0.035296,-0.014923,-0.034959,0.17734,0.023628
0.021284,0.042791,0.16895,0.010064,0.0081602,0.012737,-0.13532,0.0060544
0.064203,-0.03951,-0.10309,-0.012396,0.0011616,0.045595,0.17218,0.11748
0.4703,-0.0081686,0.049413,0.022216,0.018506,-0.014903,-0.31524,-0.011794
0.11016,0.057346,-0.038971,-0.0038176,-0.010538,-0.036453,-0.34102,-0.033058
-0.20968,-0.040048,0.052077,0.064898,0.015112,0.04293,0.53111,-0.277
-0.44882,-0.0053594,-0.038245,-0.069543,-0.029985,-0.011541,-0.051287,0.11406
0.12918,-0.051205,-0.060944,-0.040979,-0.028954,-0.036009,0.0052453,0.045946
-0.073485,-0.02257,-0.0086062,0.048189,0.033703,0.016453,-0.041048,0.12113
0.19942,0.18146,0.1581,0.025563,-0.0060124,-0.02572,-0.32182,-0.088011
-0.035456,-0.20477,-0.22403,-0.12462,-0.022884,0.0020397,0.17243,-0.15687
-0.063797,-0.001058,0.072827,0.082264,0.022449,0.014391,0.14672,-0.01227
-0.036798,0.098186,0.10474,0.037382,0.020911,0.035332,-0.20981,0.1059
0.15296,0.0081598,-0.056684,-0.039765,-0.0038242,0.0027755,0.36157,0.1911
0.1284,0.11288,0.073865,0.054774,0.01088,-0.012772,-0.04556,-0.014581
-0.26195,-0.10992,-0.057793,-0.06102,-0.0052486,0.0042677,-0.53416,-0.051654
-0.0305,0.043966,0.0093198,0.035414,-0.0053535,-0.016672,0.37755,-0.071006
0.035012,-0.13547,-0.068904,-0.030399,-0.02072,-0.005677,0.22518,0.14321
0.34026,-0.084948,0.027212,0.0075074,-0.020108,-0.017904,-0.010748,-0.107
-0.1482,0.15695,0.03126,0.0086501,0.019945,0.00086827,-0.5292,-0.19853
-0.058657,-0.034654,0.090852,-0.019217,-0.017705,0.026793,0.39359,-0.0071056
-0.08237,0.066398,-0.17761,0.040837,0.038839,0.020491,0.060936,0.061552
-0.066656,0.068555,0.053293,-0.030389,0.0020299,-0.0026018,-0.30026,0.18088
-0.014416,-0.060826,-0.045223,-0.014763,-0.0032771,-0.034723,0.023096,0.0015083
0.048941,-0.11246,-0.044086,-0.038046,-0.016386,0.010176,0.33943,-0.083561
0.14583,0.16983,0.1811,0.055173,0.0249,-0.0004504,-0.3152,0.052781
-0.24745,-0.082408,0.075078,0.068744,-0.0047203,-0.0036951,-0.099724,-0.025408
0.22877,0.052033,0.004602,0.041006,0.019524,0.032196,0.10777,0.018664
0.020337,-0.19237,-0.13985,-0.10664,-0.058709,-0.032867,0.03739,-0.14299
-0.059553,-0.049148,-0.13925,-0.077434,-0.028408,-0.010893,0.39413,0.16102
0.15393,0.17063,-0.0005995,0.019571,0.024718,-0.026526,-0.072061,-0.078076
-0.096119,0.046766,0.089882,0.036676,0.038502,0.02976,-0.54263,-0.0021593
-0.18363,0.088697,-0.0068665,0.037433,0.021119,0.064111,0.53402,0.1296
-0.044863,-0.11641,0.17167,0.015231,-0.01149,-0.0097702,-0.48648,-0.082523
-0.0067415,0.041486,-0.045074,-0.0053496,0.011204,-0.0049462,0.095208,-0.069341
-0.076167,-0.16421,0.062446,-0.031223,-0.051328,-0.054901,0.34609,-0.042655
0.2237,-0.031037,-0.39624,-0.085327,-0.019428,-0.011855,-0.27534,-0.018702
0.2517,0.22101,0.23461,0.12141,0.044268,-0.0013454,-0.23145,0.072431
-0.032578,-0.105,-0.038378,-0.044349,-0.0088997,0.046612,0.51644,0.17583
-0.005899,0.09852,0.1425,0.057059,0.023915,0.022557,0.054838,0.049245
-0.17768,0.040845,-0.021622,-0.020979,-0.0060279,-0.026475,-0.27113,-0.19779
-0.1893,0.0020349,0.029732,0.0091807,-0.013071,-0.021989,-0.068941,-0.01011
0.084835,-0.2918,-0.09574,-0.04125,-0.0052396,-0.010336,-0.32863,-0.07434
-0.0016017,0.13634,0.022847,0.045553,0.025182,0.0012659,0.27992,-0.014226
0.086,-0.071553,-0.09109,-0.082362,-0.023327,0.036831,0.16444,0.11705
-0.18752,0.1256,0.040079,-0.010701,-0.017767,0.0030815,0.14588,0.047551
-0.12334,-0.01984,-0.019074,0.042599,0.0030977,-0.0059311,0.013079,-0.13557
0.45252,0.064648,0.12486,0.031908,0.016187,-0.013555,0.061978,0.029272
-0.10058,-0.095828,-0.13443,-0.025695,-0.0015948,-0.019917,-0.36491,0.096687
0.050812,0.0073354,0.010541,0.0040176,0.0046994,0.0059222,-0.042079,0.011177
0.081702,0.061398,-0.086632,0.01281,0.01957,0.040081,-0.10289,0.076045
-0.029615,-0.059891,0.21554,-0.037689,-0.011697,0.003933,0.10902,-0.054116
0.062157,0.15704,0.11184,0.10268,0.020113,-0.0092454,0.070808,-0.18555
-0.28874,-0.22,-0.25897,-0.12895,-0.064936,-0.038884,0.13486,0.0009546
-0.09299,0.11898,0.13145,0.071311,0.029753,0.0085652,0.067478,0.083066
-0.045859,0.015696,-0.095354,0.014916,-0.0085652,-0.030966,0.095569,0.053238
0.10562,0.078329,0.15095,0.028883,0.054313,0.069259,-0.21839,-0.025188
0.030802,-0.20881,-0.12461,-0.06743,-0.031681,-0.018586,-0.0074682,-0.0026252
0.11115,0.006909,-0.056513,-0.048102,-0.024325,-0.020704,-0.12357,-0.026401
-0.037625,0.00097336,-0.012285,0.031931,-0.0016245,0.00074404,-0.22322,-0.13484
-0.10589,-0.059976,-0.014379,-0.045949,-0.0024782,0.022573,0.37299,0.12526
0.19802,0.1782,0.158,0.11711,0.020144,-0.0019632,0.055357,0.096968
-0.0089053,-0.01689,-0.062795,-0.056474,-0.003975,-0.018185,-0.12205,0.083601
0.012705,0.035415,-0.080295,0.011926,0.034537,0.044096,0.12106,-0.041639
-0.085679,-0.055808,0.021848,0.0023416,-0.020672,-0.04969,0.017846,0.016368
0.088753,-0.018609,0.02633,0.0008275,0.0020981,0.020561,-0.058006,-0.19671
0.14018,0.12123,0.14451,0.022915,-0.014532,-0.018752,-0.24037,-0.071731
-0.04434,0.0094643,-0.046048,0.013688,-0.00039023,0.01979,0.33745,0.056343
-0.41122,-0.15313,-0.030973,-0.066158,-0.010193,-0.012227,-0.089844,0.048998
-0.076048,0.069466,0.19603,0.025427,0.026487,-0.005304,-0.075743,0.057589
-0.081802,-0.065138,-0.31162,0.0072496,-0.022911,0.0094943,-0.25892,-0.047496
-0.0092861,-0.11826,-0.12491,-0.073538,-0.0017772,0.0089371,0.19111,-0.0055476
0.59182,0.092123,0.061002,0.064762,0.012154,0.0010107,0.13602,0.15426
0.20165,-0.040357,0.02821,-0.053897,-0.027646,-0.029816,-0.1568,-0.082832
-0.19424,0.018539,0.16859,0.055301,0.035289,0.025814,0.38381,-0.068832
-0.33164,0.193,-0.016629,0.033217,0.0056792,-0.011929,-0.18768,0.046091
0.239,-0.08618,0.028035,-0.01863,-0.015088,0.0051401,-0.15366,-0.061102
0.036338,0.16508,0.044911,0.047872,0.035127,0.037638,-0.10178,0.0046984
-0.13968,-0.1486,-0.060322,-0.056877,-0.039463,-0.031953,0.46614,0.1463
-0.034795,-0.1313,-0.1716,-0.067872,-0.0049836,-0.00076972,-0.2404,0.024725
-0.14277,0.14383,0.14713,0.084644,0.020957,-0.0095606,-0.27682,-0.15131
-0.15819,-0.107,-0.19929,-0.068455,-0.016582,-0.0035752,0.052394,-0.14847
0.21855,0.14571,0.30358,0.11333,0.038617,0.01745,0.17788,0.14292
0.085279,-0.11428,-0.0403,-0.096419,-0.05544,-0.00074015,0.02293,0.091654
0.087071,-0.10518,-0.051431,-0.0098883,-0.017122,-0.049802,0.018682,0.012841
0.071603,-0.036473,-0.21387,-0.017284,0.021231,0.042669,-0.15421,-0.14497
0.0025476,0.14845,0.066852,0.053643,0.028822,-0.0041621,-0.026856,-0.065973
-0.03293,-0.0016403,0.080717,0.023419,-0.0096591,0.020852,0.2358,0.17458
-0.20694,0.092705,0.10204,0.017021,0.0074379,-0.022971,-0.08681,-0.093253
0.01818,-0.036792,-0.056051,-0.020497,-0.005998,0.020286,0.22943,0.060846
-0.0081803,0.10941,0.02857,-0.01144,0.027753,0.017259,-0.2555,0.12049
0.17239,0.037904,0.12141,0.059345,0.014393,-0.00929,-0.043607,-0.1117
-0.052045,-0.31537,-0.29355,-0.1054,-0.062264,-0.05222,0.122,0.017544
-0.1214,0.0090108,0.12694,0.033224,0.031715,0.051991,-0.19568,-0.049852
-0.076863,0.025585,-0.094114,-0.079405,-0.06326,-0.05634,0.013135,0.089199
-0.0061917,-0.039552,-0.082031,-0.021115,0.020062,0.036819,-0.053173,-0.059863
0.51883,0.36846,0.25681,0.16945,0.04764,-0.0042277,0.054298,-0.10758
-0.2919,-0.22627,0.063048,0.00054141,-0.011249,0.0084789,0.15922,0.094693
0.17048,-0.11963,-0.045953,-0.019673,0.00026798,-0.0026096,0.092134,-0.021831
-0.44541,0.033198,-0.273,-0.062806,-0.050024,-0.052535,-0.091238,-0.12655
0.025479,0.053516,0.16364,0.035392,0.041476,0.046685,0.0069984,0.095991
0.2099,0.28588,0.084959,0.048537,0.071937,0.045349,0.017744,0.12516
0.024217,-0.2691,-0.078541,-0.093463,-0.044501,-0.017405,-0.14778,-0.029024
-0.060301,-0.048495,-0.060357,-0.077833,-0.050138,-0.016712,0.038493,-0.021618
-0.13511,0.010554,-0.023753,0.033198,7.1405e-05,0.00025205,0.081421,0.038117
0.11395,-0.013509,0.0162,0.036666,-0.019243,-0.068454,-0.14624,-0.022555
0.12522,0.18428,0.17685,0.13563,0.094617,0.10492,0.049529,-0.017652
0.015782,-0.23967,-0.034294,-0.068737,-0.088482,-0.089329,0.066938,-0.034871
-0.012063,0.019212,-0.071148,0.024452,0.071647,0.082983,-0.093344,0.017942
0.071763,0.093245,0.033905,-0.023198,-0.034769,-0.050103,0.10908,0.0068594
-0.13225,-0.073246,-0.079823,-0.087614,-0.017423,-0.019802,-0.050678,-0.17016
-0.10122,0.19018,-0.0073626,0.041376,0.037552,0.041203,0.093156,0.13543
-0.20224,0.053671,0.078342,-0.011672,-0.010506,0.015919,-0.15324,0.057036
0.034167,-0.10945,-0.1047,-0.028038,-0.013006,-0.025116,0.14873,-0.04524
0.18707,-0.034831,-0.0099565,0.0708,-0.0086646,-0.011361,-0.15655,0.040207
0.21029,0.081729,0.40947,0.14498,0.073351,0.033954,0.087372,-0.045617
-0.16179,-0.3765,-0.47106,-0.24201,-0.11789,-0.053066,0.0053066,0.1348
0.29649,0.076226,0.19285,0.04373,0.027631,0.001119,0.073396,-0.11418
-0.13537,0.012133,-0.26208,-0.051528,0.010468,0.06372,-0.068254,-0.02746
-0.26427,0.27696,0.18844,0.074437,0.018447,-0.037209,-0.084186,0.035019
0.048212,0.051927,0.099888,0.023376,0.012522,-0.004958,0.04088,-0.083424
-0.074652,-0.0060167,0.090086,0.060538,0.015791,0.011795,-0.052615,0.085773
0.014645,-0.10804,-0.17643,-0.096247,-0.042716,-0.010663,0.057156,0.011454
0.050436,0.049536,0.11322,0.082953,0.047078,0.021152,0.081142,-0.024796
0.15847,-0.12841,-0.18126,0.018553,0.018657,-0.0023284,0.019344,-0.038127
-0.089597,-0.057244,-0.09851,-0.079799,-0.034954,-0.010862,-0.11267,-0.043672
0.22201,0.082463,0.2213,-0.01762,-0.036014,-0.0043603,0.020944,0.15427
-0.24074,-0.13136,-0.15887,-0.084132,-0.039141,-0.021631,0.060682,-0.069116
-0.014921,0.34082,0.44883,0.1978,0.07338,0.023659,-0.11853,-0.041956
-0.059529,-0.20308,-0.39302,-0.17064,-0.064745,-0.0086423,0.053629,0.13403
-0.068098,0.027279,-0.044047,0.038695,0.031926,-0.0086933,0.053812,-0.049156
0.19518,-0.15438,0.018536,-0.024166,0.036279,0.062935,-0.063113,0.017837
0.0046602,0.080913,0.012433,0.040509,-0.035325,-0.074825,0.039006,-0.086632
0.087107,-0.040109,0.2097,0.045916,0.043972,0.046721,0.032247,-0.057321
-0.25333,0.29447,0.077502,0.11702,0.023965,-0.033682,-0.067639,-0.049683
0.27115,-0.15102,-0.28418,-0.075032,-0.041316,-0.019712,-0.13565,0.023057
-0.16939,0.035738,0.021728,-0.039247,0.011222,0.095713,0.27335,0.19275
-0.038061,0.063943,-0.029078,-0.026986,-0.022621,-0.047588,-0.090992,-0.063913
