0.0012698,0.014001,0.20844,0.15443,-0.034893,-0.014353,-0.053062,-0.0055071
0.0089391,-0.024339,0.011887,0.075064,0.0040492,-0.0067119,-0.32156,0.0099893
-0.022431,0.00059733,-0.10569,-0.37161,-0.012304,-0.022795,0.46394,0.0017355
0.03996,0.065054,0.059119,0.08856,0.03339,0.046965,0.0067941,0.032284
-0.046118,-0.11264,-0.0014642,0.31542,-0.014869,-0.023769,-0.13009,-0.031088
0.0083374,0.037382,0.017013,-0.042476,0.0072706,0.015199,-0.047694,-0.032016
0.00012863,0.030341,0.098433,-0.1417,-0.017118,-0.0079129,0.11396,0.021806
-0.00050906,-0.0090473,-0.093791,0.0092482,-0.0019242,0.0084129,-0.55864,-0.010145
0.021975,0.020668,-0.1072,0.011013,0.0060161,0.0092937,0.55201,0.036246
0.0050231,-0.021041,0.096749,-0.12173,-0.0012227,-0.021206,0.016171,-0.010909
0.0033047,-0.024489,-0.075949,0.1649,0.046422,0.025928,0.036492,0.0045578
-0.0065707,0.026448,0.17947,0.011068,-0.015447,-0.0058751,0.10435,0.0043888
-0.040094,-0.03167,-0.074072,-0.083286,0.0081421,-0.0074313,-0.24998,-0.027188
0.012333,0.012738,-0.093719,-0.00053421,-0.047127,0.0056422,-0.089813,0.011273
0.010379,0.019595,-0.011466,0.05711,-0.0016638,-0.036729,-0.2594,-0.005274
-0.030019,-0.057638,0.048477,0.0050267,-0.050681,-0.024722,0.46781,-0.0064719
0.047655,0.054516,-0.046114,-0.06145,0.071726,0.050057,0.0062387,0.015632
0.0091886,0.058896,0.15031,0.031195,0.037833,0.016339,-0.17475,-0.0012453
-0.020407,-0.045071,-0.0030428,-0.098407,-0.011294,0.007443,0.10519,0.0056505
0.0055987,-0.0081383,-0.1005,0.074149,-0.036206,-0.031019,0.0027988,-0.010305
0.00098651,0.012661,0.05242,-0.044643,-0.052259,-0.013088,-0.005074,-0.0020397
-0.011171,-0.045821,0.001727,0.099266,0.089082,0.02972,-0.074669,-0.0085151
-0.015639,-0.012096,-0.026742,-0.09722,-0.034144,0.0031305,-0.081209,-0.0063214
0.010666,0.020032,-0.04901,0.2074,-0.0081374,-0.0076099,0.045219,0.027808
0.012785,0.027391,-0.049464,0.065249,0.065151,0.035821,0.20256,0.015443
-0.0016295,-0.005132,0.019117,-0.26047,-0.072534,-0.04692,0.0075238,0.0030616
0.0064462,-0.014414,0.063557,0.056683,0.039335,-0.0062826,-0.14183,-0.033202
-0.017594,-0.023305,-0.017054,-0.10885,-0.005782,0.001325,-0.11282,-0.0077939
-0.0032575,0.015482,0.20757,0.071826,-0.036116,0.0073117,0.071242,0.00089888
-0.0049779,0.0083334,-0.027697,-0.0086358,-0.0046985,-0.01913,-0.10486,0.00059672
0.032221,0.05663,-0.15995,-0.073951,0.010616,0.00857,0.35949,0.046088
-0.016374,-0.035402,-0.12632,0.082087,0.0023886,0.020802,-0.33973,-0.034222
0.021363,0.051916,0.06575,-0.030078,0.0335,0.010393,0.21997,-0.0055418
-0.04188,-0.11176,-0.028788,0.075504,-0.01294,-0.014381,0.046856,-0.023637
0.012755,0.051202,0.0041759,0.070854,-0.011788,-0.0064202,-0.29633,0.021336
0.013412,-0.014117,0.14865,0.071814,0.036918,0.026425,0.18264,0.012553
-0.024359,-0.041957,0.059963,-0.1273,-0.038896,-0.017675,-0.14924,-0.0029216
0.032092,0.061896,-0.083621,0.13436,0.026087,-0.0063364,0.11389,-0.0016772
-0.01278,-0.0065302,-0.026073,-0.27924,-0.034103,0.0052496,0.14334,0.023856
0.004815,-0.043291,0.12144,-0.026891,0.022412,0.0087778,-0.10845,-0.0048585
-0.0013373,0.04613,-0.033118,0.1634,-0.023336,-0.043037,-0.017158,-0.025812
0.0075902,0.004493,-0.29511,-0.16163,-0.015204,0.013583,0.026003,0.023021
-0.023246,-0.01167,0.12477,0.1319,0.023375,0.01443,-0.057437,-0.014965
-0.00014388,0.0601,-0.022305,0.13965,0.037805,0.021985,-0.08003,-0.030566
0.0066471,-0.069586,0.085856,-0.26104,-0.018646,-0.0027306,0.075638,0.015317
-0.0027104,-0.018451,-0.017304,0.041514,0.0026289,-0.020495,0.1053,-0.0020935
0.018886,0.041004,0.22502,0.32265,-0.0075718,0.00015372,-0.30309,0.011296
-0.014249,-0.040265,-0.20111,-0.1742,-0.041265,-0.010853,0.47586,0.024619
-0.00032316,0.034119,-0.068083,-0.20629,0.018896,0.024874,-0.25295,-0.00084197
-0.0016566,0.0060129,0.14005,0.19505,0.024607,0.0060389,0.088611,-0.0023407
0.013103,-0.023163,-0.030154,-0.033207,-0.00059293,-0.020229,-0.21832,-0.034443
0.0049148,0.024751,0.02201,-0.0090556,0.021478,-0.0068275,0.068279,0.0044078
-0.018461,-0.053201,-0.35309,-0.038052,-0.034168,-0.00045312,0.13582,0.012541
-0.0024445,0.016664,0.22598,-0.019441,-0.026932,0.0068204,-0.0078521,0.013214
0.005949,0.047105,0.24221,0.061736,0.035323,0.015026,-0.057863,-0.0016013
0.0065696,-0.00072741,0.13966,-0.045033,0.011904,0.0084819,-0.060757,-0.0008626
-0.024161,-0.056388,-0.44197,0.019253,-0.026947,-0.020764,-0.039565,-0.031616
0.038642,0.083293,-0.010999,0.035576,0.028073,0.0052032,0.13891,0.023214
-0.023856,-0.058277,0.1123,0.035015,-0.018415,-0.023247,-0.13447,-0.016102
-0.000754,-0.035849,-0.12625,0.0096951,-0.010219,0.01861,0.2653,0.0067064
0.0063934,0.041144,0.40704,-0.055926,-0.0098881,-0.0023077,-0.16203,0.029204
0.0054603,-0.007005,-0.39621,-0.20065,0.029413,0.0075079,-0.25291,-0.018823
0.012183,0.061939,0.12897,0.27126,0.013902,0.024427,0.46858,0.011177
-0.035784,-0.056583,0.076962,-0.045887,-0.0095628,-0.037612,-0.18569,-0.021297
0.0023604,-0.0029901,-0.13011,-0.065577,-0.0097285,-0.0067683,0.0025993,0.016697
0.0096034,-0.0035825,0.17172,-0.060767,-0.017809,0.02327,-0.076069,-0.023149
0.0017075,-0.0033958,-0.11951,0.12507,0.01314,-0.0020225,-0.28085,-9.6114e-05
0.0021785,-0.025643,0.0035667,-0.062766,-0.010533,-0.004279,0.4122,0.0078104
0.018805,0.046959,0.040613,0.12544,0.020652,-0.0066392,-0.019673,0.016219
-0.018843,-0.012251,0.054087,-0.11549,-0.033848,-0.0087914,-0.13054,-0.0061673
-0.0015892,-0.016099,-0.10409,0.018605,0.036946,0.012983,0.17377,0.00303
1.853e-05,0.042692,-0.1988,0.097641,0.0064502,0.0042058,-0.16913,-0.0032404
0.024813,0.061897,0.23187,-0.019059,0.023027,0.019667,0.0046016,0.013884
-0.021129,-0.052894,0.11073,-0.088933,-0.046247,-0.042212,-0.07896,-0.031716
-0.0050727,-0.044376,-0.24908,-0.25183,-0.029616,0.029377,0.3061,0.0239
-0.012922,-0.061212,0.089967,0.18855,0.0025072,-0.0079726,-0.17681,-0.022432
0.010146,0.045157,-0.01348,-0.094986,0.050054,0.0095364,0.057743,0.0090292
-0.0059788,0.025187,0.28286,0.44493,0.011431,-0.012113,-0.27168,-0.0065846
0.0092323,-0.01106,-0.25743,-0.22309,-0.027426,-0.0028356,0.28039,0.0090255
0.0090773,0.023127,0.07438,0.056338,-0.0039971,0.0059683,-0.035484,0.016972
0.017079,0.026886,-0.10648,-0.093247,0.0036332,-0.0092025,-0.15597,-0.01386
-0.021472,-0.02272,0.105,-0.056404,-0.02792,-0.0092645,0.27925,0.0025279
-0.00514,-0.055161,0.0055338,0.040184,0.034213,0.013679,-0.3852,-0.019831
0.0033818,0.05449,-0.16944,-0.25009,-0.0052231,0.0050576,0.24185,0.0048813
-0.0039369,-0.006587,0.15253,0.32986,0.010068,0.0040571,0.0042552,0.021787
0.011778,0.018947,-0.1897,-0.0012561,0.017617,0.02641,0.018739,0.022839
-0.012088,-0.033478,0.010069,-0.016316,-0.037246,-0.037171,0.089029,-0.039068
0.010397,0.046665,0.25447,-0.018949,-0.013896,-0.01474,-0.17682,-5.5383e-05
-0.0065897,-0.037708,-0.16586,-0.22653,-0.02954,0.015638,-0.13959,-0.0086589
-0.00032199,-0.0052986,0.061686,0.15933,0.0564,0.0071449,0.40256,0.0054468
-0.001743,-0.027678,0.0059619,0.077532,0.032909,-0.0089215,-0.074632,0.02676
0.01292,0.04406,0.21106,-0.088,0.001447,0.0065297,-0.64173,-0.038255
-0.034162,-0.11772,-0.11563,0.10092,-0.045901,-0.009005,0.7251,0.029418
0.0056377,0.057621,-0.13395,-0.082091,0.00017678,0.014742,-0.11377,-0.0043178
0.015153,0.077922,0.051696,0.026774,0.0068797,-0.00043995,0.014942,-0.014218
0.0020171,0.052185,-0.052389,0.16911,-0.025686,-0.0077963,-0.56685,-0.00010563
0.020541,-0.0046925,-0.23514,-0.2574,0.012043,0.0081661,0.42359,0.014674
0.023332,0.070417,0.09887,-0.089465,-0.0046975,-0.0073595,0.18272,0.014496
-0.029235,-0.2234,0.17896,0.10975,0.033687,-0.0075782,-0.14826,-0.024151
-0.0048346,-0.035237,0.0083275,0.13659,-0.0054645,0.015302,0.20402,0.031422
-0.020955,0.048727,0.011808,-0.15779,0.010699,-0.0089813,-0.33136,-0.037677
-0.015134,0.0052708,0.12906,0.19503,-0.027282,-0.0021894,-0.060104,-0.02064
-0.010562,0.077177,-0.12322,0.0073738,-0.0024071,0.0045907,0.20416,0.027737
0.024484,0.046515,0.020585,-0.17396,-0.00086707,-0.011896,0.030718,-0.017628
0.0046799,-0.054582,-0.049755,0.057427,0.031762,0.018833,0.098485,0.054131
0.040025,0.009078,-0.27312,-0.15747,-0.021929,-0.012478,-0.2648,-0.030491
0.029491,0.13662,0.25522,0.080339,-0.0058234,-0.0042171,-0.21541,0.0018783
-0.081243,-0.22613,-0.012973,0.10748,0.017557,0.027954,0.47349,0.026184
0.012679,-0.03193,0.14787,0.10427,-0.029817,-0.033267,-0.20551,-0.059159
-0.009084,-0.054095,0.034134,-0.17879,0.00068589,0.046323,0.15425,0.027119
0.017331,0.1916,-0.2838,0.016378,0.0077493,-0.038155,-0.12665,-0.011788
0.0056472,0.032783,0.030572,-0.068025,-0.00056832,0.0021926,0.17067,0.011728
-0.013328,-0.023623,0.095412,0.20842,0.046238,0.0031851,-0.28974,-0.0037824
-0.0010357,-0.033491,-0.041311,-0.06871,-0.01579,-0.0039712,0.18743,0.019898
0.010751,0.025302,-0.034917,-0.13423,-0.022592,-0.0036246,-0.014986,-0.01094
0.037171,0.057822,-0.12715,-0.051091,-0.021141,0.0042995,-0.31095,-0.026011
-0.054987,-0.17109,0.33017,0.26628,0.011824,-0.0035486,0.47156,0.044905
-0.015977,0.049325,0.14068,-0.10429,0.0057708,-0.0036683,-0.23765,-0.02489
0.083826,0.016478,-0.19727,-0.030131,0.015147,0.035201,-0.047939,0.014454
-0.075741,-0.14346,-0.13878,-0.058183,-0.0071513,-0.027614,0.28275,-0.0012488
0.036934,0.23519,-0.052882,0.045982,0.024631,0.034357,-0.25369,-0.017372
-0.030736,-0.072351,0.051294,-0.014394,-0.022429,-0.028986,0.084566,-0.018269
-0.020287,-0.041047,0.056043,0.06552,-0.015529,-0.0067632,0.0080732,0.019604
0.061144,0.080283,0.024244,0.10616,-0.024883,-0.0083311,0.024369,0.01048
-0.012407,0.01096,-0.1054,-0.32209,0.043457,0.0054907,-0.45261,-0.022003
-0.029569,-0.077239,0.23921,0.23389,0.0022528,0.0036588,0.58498,0.047341
0.0098583,-0.044408,-0.11949,-0.11661,-0.0154,-0.0057557,-0.0033297,-0.015718
0.0355,0.08481,-0.085677,0.10279,0.029809,0.016566,-0.31103,-0.039231
-0.031081,-0.011396,-0.079476,-0.076925,-0.065072,-0.0073026,0.25592,0.023676
0.020544,-0.014294,0.025211,0.12516,0.028147,0.00085457,-0.22403,-0.014568
-0.02118,0.035611,0.24427,-0.064735,0.043794,0.0097506,-0.00052375,0.033407
0.038427,0.035636,-0.1339,-0.053159,-0.010469,-0.0042145,0.075169,-0.0044373
-0.066806,-0.13207,0.084534,0.0034519,-0.0098507,-0.0022366,0.15172,-0.011087
0.029916,0.024547,-0.26653,-0.16057,-0.001451,0.007567,-0.24735,-0.0023229
-0.015357,-0.033248,0.55294,0.2596,-0.06358,-0.021974,0.16697,-0.017323
-0.0073181,0.039009,-0.41197,-0.079462,0.061464,0.010469,0.027307,0.0063485
0.04637,0.11724,0.10335,0.27589,-0.0013378,-0.0046169,-0.065061,-0.0016304
0.020968,-0.02415,-0.33071,-0.34541,-0.025364,-0.012569,-0.032287,0.029085
-0.044144,-0.032716,0.1073,0.049904,0.028564,0.025756,-0.054283,-0.0030061
-0.039264,-0.095231,0.20839,0.11948,0.012151,0.0089574,-0.037445,-0.011881
0.059351,0.046657,-0.18142,-0.36169,-0.027581,-0.023689,0.18221,0.010373
-0.0058507,0.018313,0.28367,0.1704,0.01887,0.0061671,0.034313,-0.014251
-0.015925,0.046508,-0.16847,0.13091,-0.012452,-0.01064,-0.20777,-0.015316
-0.0098098,-0.024935,0.20465,0.0045808,-0.012102,0.019801,0.13553,-0.00051275
0.020357,0.022693,-0.16806,0.025157,-0.011304,-0.011787,-0.037438,0.0068131
-0.0035698,-0.092001,0.00081452,0.1441,0.036783,0.011805,0.023243,0.022322
-0.0035391,-0.048962,-0.2831,-0.4068,-0.03201,-0.0032265,0.051988,-0.00090397
0.03596,0.10456,0.18885,0.13498,-0.0069317,-0.025749,-0.1307,0.0073278
-0.064895,-0.053847,0.32092,0.27404,0.096142,0.037825,-0.024445,-0.015664
0.0062637,0.11581,-0.18511,-0.2346,-0.059006,-0.023627,0.19937,-0.0075802
0.030563,0.05035,0.021902,0.03681,-0.01951,0.016275,-0.28682,-0.0076569
0.015712,-0.032083,-0.28402,-0.10781,-0.012101,-0.030125,0.25966,0.03088
-0.014932,-0.10056,0.23463,0.19144,0.0022465,0.016754,-0.07495,-0.016966
-0.014552,-0.0065794,-0.13076,-0.34499,0.023656,0.016244,-0.064061,-0.018268
-0.022242,-0.093357,-0.033806,0.27767,0.021146,0.0074433,0.034203,0.019375
0.016677,-0.031891,0.16852,0.054658,-0.036158,-0.017343,0.14892,-0.0053269
0.04754,0.14758,0.0013345,-0.19852,-0.030661,-0.018861,-0.21288,0.0016603
-0.0077305,0.086508,-0.042619,0.34881,0.030189,0.01095,0.072929,0.0015089
-0.016242,-0.027205,-0.034382,-0.37972,0.0060144,-0.013583,0.1072,-0.0056457
-0.0482,-0.053161,0.1726,0.069848,0.029703,0.017152,-0.11836,0.011446
0.01371,-0.015644,-0.033706,0.10372,-0.0082302,-0.0060673,-0.025693,-0.0020522
0.013361,0.052779,-0.00772,0.1508,-0.0064938,0.010543,-0.067647,0.00045213
0.013336,-0.013465,-0.17375,-0.047886,-0.0045115,0.027815,0.10795,0.0029586
-0.0019733,-0.082934,0.021443,-0.17331,-0.01046,-0.016977,0.064396,-0.0027536
0.022056,0.070029,-0.062929,-0.12496,-0.0089966,-0.014762,-0.02563,-0.017056
-0.0084604,-0.0078997,-0.035056,0.096445,0.023178,-0.012739,-0.013008,0.022284
0.0078811,0.0042254,0.46671,0.0609,-0.023285,0.0044432,-0.14729,-0.0020313
-0.038426,0.014083,-0.44537,-0.12235,-0.023225,0.0053497,0.24354,-0.0039904
0.01663,-0.038794,-0.04183,0.19497,0.03141,0.013353,-0.14531,-0.0067743
-0.0065847,-0.10523,0.23437,0.082778,0.0080375,-0.010559,0.045158,-0.0099795
-0.021979,-0.05029,-0.068579,-0.05342,0.00055759,-0.011556,-0.099648,-0.020934
0.0018973,0.22131,0.11182,-0.19123,0.0089849,0.010563,0.13842,0.031159
0.010534,0.046028,-0.092912,0.035371,-0.0058685,-0.0064891,-0.084972,0.021694
0.019635,-0.092388,-0.028908,0.15664,0.010457,0.0077899,0.0031402,-0.010024
0.052565,0.10118,0.27745,0.062648,0.010828,0.022292,0.19153,0.021993
-0.039339,-0.11023,-0.32524,-0.23873,-0.036207,0.005852,-0.22301,-0.023014
-0.0064219,0.012709,-0.0033837,0.065803,-0.013535,-0.041492,0.048782,-0.012509
-0.036565,0.0064223,-0.023972,-0.24107,-0.0069993,0.0052693,-0.28961,-0.024986
0.026152,0.095664,0.089438,0.21747,0.014901,-0.01012,0.37948,0.017283
-0.02941,-0.21238,-0.083995,0.2089,0.021264,0.021706,0.079981,0.012364
0.023282,-0.018574,0.059186,-0.19495,-0.018795,-0.00083469,-0.031443,0.014629
-0.0031181,-0.016359,0.099425,0.053669,0.012196,0.0081512,-0.14982,0.0082264
0.040141,0.2188,0.023349,0.11114,0.028437,-0.0061061,-0.10311,-0.0069648
-0.010574,-0.075845,-0.11258,-0.18724,-0.024805,-0.020301,0.04623,-0.038761
-0.014147,-0.061834,-0.10425,-0.022311,-0.0071305,0.0044466,0.079399,0.0066993
-0.048213,0.074976,0.056255,0.073174,-0.020456,0.0054172,-0.1132,0.0046241
0.012652,-0.039952,0.063495,0.011765,0.028552,0.029257,0.2649,0.017783
0.035928,0.084789,0.3536,0.12028,0.0066934,-0.017978,-0.115,-0.0082228
-0.017346,0.025498,-0.30941,-0.28187,0.015244,0.03548,-0.027028,0.020617
0.048022,0.029707,-0.075414,0.1252,-0.016226,-0.029084,0.10628,-0.0048659
-0.0026819,-0.10048,-0.0937,0.021243,-0.040759,-0.031778,-0.19211,-0.022039
-0.060596,-0.1485,-0.028356,0.039556,-0.011208,-0.026912,-0.21137,-0.0074001
0.022103,0.02489,0.19956,-0.030025,0.01815,0.032879,0.33779,0.023428
0.018229,0.028691,-0.095995,-0.17096,0.047775,0.0074878,0.088818,8.9313e-05
-0.04933,0.019722,0.12577,0.31299,-0.015675,0.0067088,0.019154,0.0006361
0.029952,0.085238,-0.11013,-0.11642,-0.023493,-0.01611,-0.2061,-0.021902
-0.0097745,0.10981,0.072347,0.11184,0.047834,0.079613,-0.11717,0.0026778
0.026781,-0.021869,0.017238,-0.14233,-0.028388,-0.050182,-0.088169,0.011754
0.0069961,-0.23771,-0.19009,-0.30826,-0.033712,-0.015388,0.43611,0.0051916
0.0015752,0.073121,0.22248,0.13764,0.039261,0.011503,-0.11457,-0.0015272
0.026721,-0.025815,-0.020267,0.40616,-0.0052288,-0.0091603,0.024933,-0.0085473
-0.080908,0.13791,0.056324,-0.096907,-0.019141,-0.030948,-0.060378,0.0074406
-0.015837,-0.076298,-0.22904,-0.19269,0.028495,0.016233,-0.18426,-0.00052737
0.019553,0.081054,0.28675,0.063102,0.0047472,0.030852,0.10507,0.0144
-0.036677,-0.12537,-0.36513,-0.13531,-0.051258,-0.025888,0.072064,-0.025839
0.11259,0.060951,0.16764,0.40642,0.024766,0.018324,0.059668,0.011726
-0.017196,-0.080206,-0.11347,-0.42952,-0.02465,-0.015676,-0.088668,-0.013284
-0.020376,0.12158,0.074467,-0.018392,0.043067,0.013252,0.096078,0.016619
0.055244,0.079132,0.045437,0.18686,0.0095229,-0.0038411,-0.28372,-0.038882
-0.05705,-0.12253,0.11275,-0.13359,-0.031272,-0.019817,0.10908,0.015778
-0.0067173,0.03958,-0.067442,0.2007,-0.0010693,-0.011176,0.17428,0.05574
0.025818,-0.18456,-0.011779,0.08122,0.021986,0.068806,-0.165,-0.028379
-0.10036,-0.099299,0.098377,-0.077011,0.014319,-0.014577,0.084241,-0.018006
0.044625,0.20207,0.18303,0.13331,-0.00083744,-0.011779,0.015953,0.0084199
0.00048785,0.14184,-0.57967,-0.48202,-0.054946,-0.024854,0.03586,0.0036146
0.025956,0.0327,0.122,-0.10943,0.023696,0.00044506,-0.27127,-0.040664
0.012651,0.038724,0.14768,0.24407,-0.0071997,-0.014323,0.33515,0.086145
-0.03075,-0.16044,0.068931,0.0083769,-0.014852,0.0088161,-0.021575,-0.038086
0.07602,-0.041145,-0.073233,0.49542,0.032004,0.03864,-0.014711,-0.014998
-0.018374,-0.024591,-0.15942,-0.046232,0.00058302,-0.026228,-0.11372,-0.01635
-0.0093527,-0.023551,0.17947,-0.29054,0.015895,0.025464,0.0019429,0.012845
-0.045704,-0.090919,0.061843,-0.052256,0.0076162,-0.0012007,-0.057107,-0.0051188
-0.026335,0.079995,0.0738,-0.26297,-0.024273,-0.035473,-0.15599,-0.022915
0.048291,0.16284,-0.12149,0.060605,-0.0094544,-0.022243,0.11403,0.014525
-0.0018836,0.025895,-0.072725,0.31678,-0.010363,0.023223,0.18499,0.052739
0.018217,-0.018232,-0.047877,-0.21238,0.020009,0.046472,0.12888,0.021429
-0.047772,-0.15807,0.16936,0.29491,-0.011894,-0.04618,-0.22556,-0.040527
-0.012384,-0.028472,0.21758,0.0044319,-0.0043018,0.018582,0.19142,-0.024083
0.085293,0.21937,-0.54508,-0.51969,-0.035174,-0.017362,-0.16869,0.0078792
-0.043876,-0.011325,0.34213,0.34096,0.067428,0.033042,-0.16764,-0.015284
-0.03288,-0.028013,-0.25264,-0.16305,0.014364,0.036471,0.16071,-0.0078442
0.055498,-0.19215,0.039627,0.1557,-0.022711,-0.085686,0.024834,0.037972
-0.036922,0.0030725,0.362,0.3512,0.010572,0.0099507,0.047899,-0.010519
0.025418,-0.051534,-0.40019,-0.10888,-0.01894,-0.012752,0.064881,-0.0046102
0.031283,0.28603,0.23173,-0.39749,0.013477,0.064968,-0.17414,0.016994
-0.011626,-0.083501,-0.053384,0.039319,-0.056375,-0.053563,0.11322,-3.5816e-06
-0.048457,0.10059,-0.091119,-0.24398,-0.0097059,0.022624,-0.43829,-0.039619
0.015022,-0.057029,0.094428,0.26857,0.059934,0.012688,0.40032,0.031232
-0.078238,-0.34256,0.1424,0.15582,0.012221,-0.0361,0.17055,-0.02169
0.016461,0.019712,-0.050694,0.16074,-0.0040837,0.04063,-0.42257,0.0047007
0.081334,0.23418,-0.13525,-0.27073,-0.035602,-0.046028,0.27826,0.032053
0.031247,0.24624,0.082557,0.3383,0.011534,-0.02266,0.069874,-0.018164
-0.031744,-0.1172,-0.24958,-0.44172,-0.011174,0.12615,0.037165,-0.021485
0.048715,-0.053795,-0.045528,-0.0092668,0.021033,-0.045244,-0.13415,0.060559
-0.071416,-0.12128,0.3129,0.073151,0.006197,-0.045081,-0.071153,-0.014775
-0.056814,-0.072938,0.0069636,0.0086754,0.014158,0.0012557,0.0054486,-0.029159
0.052633,0.18201,-0.0083715,0.10201,-0.04929,-0.062748,-0.16359,-0.029677
-0.0018156,-0.038368,0.19834,0.21246,0.081157,0.15346,0.21006,-0.00066223
0.03674,-0.071289,-0.3871,-0.26961,-0.032088,-0.037436,0.11078,0.011295
-0.0043838,-0.081048,0.025319,-0.071282,-0.084117,-0.088171,-0.14047,0.037916
-0.039873,0.042435,-0.071972,-0.037054,0.050602,0.040906,-0.11295,0.0094661
0.00802,0.23028,0.047036,0.089882,0.013474,-0.0089037,0.32746,0.0046638
0.022017,0.023483,0.099632,0.16773,-0.030541,-0.072898,-0.20849,-0.030647
0.017956,-0.16954,-0.20558,-0.29694,-0.041541,0.15408,0.093027,-0.06481
-0.0036667,-0.12782,0.94095,0.46823,0.074822,-0.085604,-0.11056,0.082106
-0.12806,0.16642,-0.57323,-0.17809,0.029707,0.059449,-0.19331,-0.019535
0.098777,-0.034966,-0.086631,-0.22808,0.02602,0.0027942,0.31417,0.02075
0.021503,0.027276,-0.10844,0.10821,-0.0071734,-0.021956,0.029329,-0.0004817
0.023757,-0.16946,-0.45874,-0.058023,-0.078582,-0.039122,-0.27463,-0.060241
-0.026633,0.16394,0.23931,-0.099165,-0.017324,-0.057368,0.2844,0.067525
-0.051162,0.042316,0.44187,0.22992,0.019451,0.071059,-0.099426,-0.0083041
0.03619,-0.10633,-0.30066,-0.4196,0.0076487,0.033238,-0.16978,-0.014688
0.024271,0.043726,0.1946,0.47765,0.056315,0.039996,0.22795,0.0012646
-0.063967,0.013075,0.32828,-0.069828,-0.084531,-0.10377,0.037498,-0.0073522
0.0364,0.0097669,-0.1487,0.445,0.085433,0.00084895,-0.22684,-0.048174
0.012029,0.086047,-0.38509,-0.66749,-0.089504,0.018609,0.027839,0.04321
0.033907,0.15446,0.07094,0.15215,0.047551,0.012787,0.16842,0.048507
-0.055035,-0.4727,-0.31374,-0.34956,-0.041835,0.023203,-0.078207,-0.031799
-0.0054315,0.088625,0.24001,0.3475,0.080341,-0.019838,-0.023632,-0.0097793
0.057367,0.028507,0.44102,0.21727,-0.023109,-0.030015,-0.010266,-0.0023099
-0.046321,-0.10268,-0.26732,-0.14814,-0.0083455,0.039652,0.033781,0.014196
0.0041943,0.17539,0.082242,0.14938,-0.00047713,0.048362,-0.22587,-0.046235
-0.024754,0.19419,0.0044119,-0.39699,-0.038813,-0.058973,0.25115,-0.0041305
0.0005842,-0.020541,-0.055549,0.22284,0.040408,-0.087581,0.043767,0.077641
-0.043776,-0.0069551,-0.19828,-0.25353,0.0025387,0.14166,0.05068,0.0033033
0.20246,-0.13285,0.13274,0.22441,0.01146,-0.020188,-0.087781,0.022387
-0.15064,-0.34551,-0.43506,-0.15241,-0.06569,-0.026554,-0.11448,-0.09205
-0.016854,0.094234,0.41334,0.18882,0.036788,0.0131,0.047854,-0.012081
0.017785,0.3624,0.039265,-0.047664,-0.0012485,-0.080759,-1.5526e-05,0.020137
0.030876,0.23644,0.099895,0.21575,-0.015544,-0.034345,0.022549,0.043925
-0.0018686,-0.3574,0.15737,-0.16356,0.0096719,0.12935,-0.017634,-0.049687
-0.034618,0.12531,-0.063214,0.061467,0.058808,0.043571,-0.089484,0.013184
0.095625,-0.2227,-0.024934,0.16887,-0.055751,-0.096082,0.17412,0.006325
0.044221,-0.0022639,-0.47209,-0.50809,0.025114,-0.00045804,0.0074546,-0.0076267
-0.18938,-0.10939,0.015682,0.075902,-0.011447,0.017801,-0.19125,0.025878
-0.0037333,0.25652,0.53159,0.1316,0.0060605,0.028671,0.12453,0.043924
-6.4446e-05,-0.1502,-0.68956,-0.37898,-0.032062,-0.0073678,0.087119,-0.0087888
0.0097981,0.041677,0.38457,0.52262,0.014603,-0.0048597,-0.061751,-0.086063
0.11263,0.10852,0.31776,0.088516,0.0053818,-0.050157,0.099459,0.077146
0.067067,-0.11254,-0.49056,-0.23424,-0.028359,-0.0029071,-0.34337,-0.074184
-0.087193,0.24485,0.67872,0.16473,0.046449,0.035233,0.086649,-0.00098333
-0.02162,-0.095399,-0.42474,-0.034763,-0.012022,-0.0059661,0.23393,0.04711
-0.0016739,0.065869,-0.1768,-0.028601,0.015383,0.045602,-0.095881,-0.0073638
-0.058614,-0.25233,0.062066,-0.22406,-0.011553,0.018399,0.043603,-0.022938
0.041817,0.024193,-0.17787,0.041773,-0.022154,-0.13406,-0.13565,0.024695
-0.0052436,0.11153,0.42316,-0.044669,-0.031765,0.0574,0.046877,0.0034656
0.042188,0.11047,0.19336,0.18764,0.061341,0.085342,-0.033315,-0.01582
-0.02705,-0.35274,-0.57742,0.034947,-0.0006251,-0.081149,0.29576,-0.0017363
0.0055529,0.045334,0.22948,0.043718,-0.014668,0.011283,-0.38026,0.02994
0.022577,0.035586,-0.16519,-0.028428,-0.012308,-0.012249,0.14893,-0.0071442
