0.086133,0.082409,-0.20718,-0.1794,-0.057073,-0.0041021,0.00083803,0.0048183
-0.62421,0.077171,-0.27917,-0.20499,-0.058737,-0.053115,-0.062033,-0.13776
0.13354,-0.25124,0.6512,0.32013,0.082884,0.040852,0.016471,0.042426
0.2618,0.04349,-0.40746,-0.03239,0.070974,0.051335,0.041077,0.092231
0.27866,0.064282,0.22396,0.19101,-0.024603,-0.021994,-0.011746,-0.019968
0.098381,-0.069959,0.051407,-0.096181,-0.056302,0.0076567,0.014026,0.09578
-0.17198,-0.14631,0.12674,0.47963,0.17004,0.022149,-0.022563,-0.16295
-0.15415,-0.061127,-0.88153,-0.77096,-0.14359,-0.049834,0.010924,-0.0079818
-0.057155,0.5625,0.44497,0.11108,-0.07622,-0.0060292,0.020389,0.052087
0.27684,-0.22703,0.56395,0.061738,0.0044995,-0.018868,-0.041291,-0.014532
-0.30595,0.13376,-0.38668,-0.18558,-0.018595,-0.010396,-0.0023351,0.0028525
-0.12941,-0.27667,0.23174,0.22024,0.0033525,0.0039674,-0.011104,0.0027302
0.30529,-0.16965,-0.62875,-0.080427,0.05535,0.02471,0.026381,0.04791
0.14011,-0.030709,0.18006,0.27933,0.16147,0.036838,0.0010739,-0.040797
-0.46514,0.020901,0.28373,-0.076008,-0.060638,-0.013712,0.0070809,-0.020591
0.11965,0.35711,-0.20716,0.0013176,-0.071656,-0.0014378,0.0056533,0.054487
0.15802,0.0051473,0.2247,0.13574,0.034736,0.027102,-0.0029935,-0.018087
0.038212,0.14783,0.33915,-0.20398,-0.12427,-0.052965,-0.026587,-0.02689
0.01436,-0.14924,-0.45516,-0.14973,0.052934,0.00052157,0.012949,-0.018505
-0.38786,0.031872,-0.11641,-0.035342,0.0040193,-0.0078724,-0.017368,-0.071015
0.51905,-0.30334,0.01481,0.048528,0.065192,0.038879,0.054085,0.14345
0.02987,0.055998,-0.08939,-0.1367,-0.12262,-0.046884,-0.022978,0.022805
-0.33572,-0.32531,-0.074223,0.11547,0.065837,0.02377,-0.022259,-0.050899
0.21455,0.20555,0.48481,0.3543,0.099366,0.031994,0.024801,0.062135
0.043342,0.40417,-0.035734,-0.10693,-0.053433,-0.014456,-0.01468,-0.052896
-0.36859,-0.25486,-0.10444,-0.0036298,-0.03357,-0.021852,-0.015635,-0.091777
0.25793,0.092844,0.30862,0.17718,0.056847,0.02544,0.022127,0.070404
-0.22581,0.18516,-0.54916,-0.39632,-0.1656,-0.060045,-0.018303,-0.073847
0.040921,-0.13252,0.02162,0.11565,0.14228,0.042048,0.0040034,0.0308
0.021568,0.014624,-0.55378,-0.33732,-0.043375,0.0036282,-0.0044455,0.033585
0.16437,-0.19532,0.75882,0.27343,0.058477,0.0122,0.019003,0.013403
0.026692,0.024196,0.40751,0.032468,-0.036529,0.0052337,0.027485,0.05676
0.040088,-0.087618,-0.36241,-0.060448,-0.023474,-0.017336,-0.01819,-0.0079381
0.017911,-0.12754,0.46872,0.31574,-0.011318,-0.00090373,-0.0010718,-0.0010029
-0.047752,0.35469,-0.79651,-0.064055,0.0082809,-0.023675,-0.030823,-0.07107
0.022044,0.1612,0.076538,-0.22914,0.020256,0.015851,0.0094708,0.00033291
-0.42995,-0.16322,-0.065395,-0.067889,0.0016668,-0.0073597,-0.013208,-0.060486
0.29849,0.067465,0.01763,0.133,0.031,0.031686,0.018219,0.043163
-0.14485,-0.19417,0.3643,-0.0070557,-0.024378,0.0080049,0.017805,0.037717
0.24746,0.067983,-0.29847,-0.15805,-0.016044,-0.023673,-0.0065601,0.0089896
-0.024822,-0.17575,-0.095986,0.048447,-0.02231,-0.024223,-0.015676,0.011488
-0.00882,-0.087004,0.25861,0.36282,0.058073,0.022067,0.0062524,0.0137
-0.0017403,0.22775,0.33053,-0.20762,-0.064344,-0.0018927,0.0047162,-0.01595
-0.0743,0.044729,-0.20897,-0.023613,0.039722,-0.0022493,-0.004496,-0.023088
0.085632,0.092674,-0.3871,-0.14955,0.0027175,0.0054558,0.0021869,-0.0001162
-0.037747,0.036814,0.28987,0.20933,0.019677,0.0056463,-0.0063938,-0.0095657
-0.030221,-0.16966,0.18148,-0.034796,-0.042357,-0.017303,0.0010563,-0.0043682
-0.063111,0.081721,-0.35292,-0.023903,0.043194,0.030307,0.016721,0.015879
-0.0026747,-0.15586,0.047134,-0.14916,-0.059426,-0.031307,-0.014132,-0.026408
0.066321,0.084632,0.23628,0.18348,0.032923,0.024291,0.0099806,0.0099606
0.090399,-0.088942,-0.08448,-0.064008,-0.0074718,-0.0061587,-0.0047905,0.031697
-0.1091,0.10364,-0.35987,-0.10108,-0.023945,-0.029034,-0.035119,-0.046885
0.031,0.036965,-0.055766,0.058147,0.030703,0.01025,0.028257,0.063257
0.010885,-0.093402,0.65255,0.11792,-0.0074485,0.010056,0.013351,0.018084
0.017765,0.12737,-0.6441,-0.148,0.0021398,0.0094106,-0.0018122,-0.034452
0.097801,-0.13557,0.24611,-0.0058977,0.027896,0.0083184,0.013938,0.037901
-0.21096,0.11117,0.16991,0.17538,0.022448,0.0068367,-0.025377,-0.10911
0.0043672,-0.20958,0.27704,0.057502,-0.022585,-0.026164,-0.010371,0.00075514
-0.015252,0.14487,-0.15152,0.012877,-0.021767,-0.0045568,0.012158,0.047081
0.15869,0.010222,-0.25758,-0.16379,-0.022284,0.001596,-0.0045301,-0.0012528
-0.076416,-0.16144,0.39509,0.12016,-0.031988,-0.02305,-0.021196,0.0044813
0.028538,0.35462,-0.94402,-0.33795,0.027492,0.023328,0.048286,0.041216
0.17608,-0.029889,0.58526,0.11245,0.047261,0.015911,0.00096077,0.015568
-0.2668,-0.083053,-0.13996,-0.02512,-0.018957,-0.0061883,-0.022425,-0.072158
-0.018565,-0.18975,0.36772,0.2302,0.0091138,0.0037914,-0.014002,-0.01081
0.0779,0.086361,-0.55267,-0.34397,-0.032127,0.0065196,0.010594,0.020036
0.14117,-0.028109,0.14009,0.16963,0.0060066,0.0016137,0.004403,0.028207
-0.19418,0.0072762,0.27453,0.36627,0.061016,-0.019168,-0.0014687,0.0058135
0.019082,0.015313,0.090929,-0.23115,-0.054824,-0.0015319,0.0084078,-0.039487
-0.068856,-0.02428,-0.016421,0.0468,0.017474,-0.0004552,-0.020883,-0.021974
0.090157,-0.014513,0.13416,0.00099122,-0.0037903,-0.0082581,0.011988,0.042469
0.098235,-0.015172,-0.14344,-0.0057673,0.00597,0.021975,0.020871,0.052018
-0.021485,0.10824,-0.2065,-0.18064,-0.00040592,0.0045077,-0.0022001,-0.048248
0.050214,0.098311,-0.23854,-0.081275,-0.054279,-0.029094,-0.026045,-0.016297
-0.13364,-0.0067898,0.14991,0.0018453,0.016291,-0.00033108,-0.0037545,-0.008431
0.15948,-0.068283,0.15592,0.053252,-0.007255,0.020849,-0.0055029,0.014487
-0.079904,0.1381,-0.17715,0.12128,0.047195,0.003491,0.015807,-0.002044
-0.22007,-0.35856,0.26605,0.13006,0.023592,0.0024637,0.0057565,-0.01089
0.10576,0.041769,-0.10955,-0.066344,-0.0076514,0.0021911,0.0036796,0.019473
0.022903,-0.02877,0.014473,-0.098451,-0.038744,-0.02084,-0.0058167,-0.0044809
-0.022554,0.13314,-0.076306,0.043295,0.016128,0.011325,0.00086893,-0.012316
0.032849,-0.002961,0.32337,0.024027,-0.0072728,0.0047131,0.00038218,0.02722
0.13524,0.071746,-0.34147,-0.16368,-0.030996,-0.01747,0.00054085,0.01245
0.13662,0.16279,0.1141,0.065892,0.030773,0.007075,0.0090987,0.013501
-0.27547,-0.22163,0.045182,0.10271,0.006118,-0.0077354,-0.028737,-0.071387
-0.038865,0.0043069,-0.014442,-0.0073056,0.0044574,0.02396,0.0040874,0.038887
0.095916,-0.089754,-0.26549,-0.054256,-0.013148,-0.0072216,0.0058569,-0.03855
-0.098205,-0.020448,0.14673,-8.5379e-06,-0.015267,-0.015289,0.0076601,-0.0067824
0.081499,0.1798,0.25801,0.092304,0.021758,0.0076714,0.009333,0.048358
-0.044876,0.04893,-0.097,-0.13689,0.012216,0.014916,0.0029085,-0.0058167
0.053866,-0.070118,-0.042389,0.16428,0.011016,-0.024661,-0.0039286,0.033911
0.026234,0.0020422,-0.15316,-0.26906,-0.036341,0.014074,-0.011259,-0.035566
-0.04168,-0.023275,0.067829,0.032909,-0.012528,-0.0015813,-0.011286,-0.018997
0.10816,-0.17622,0.048531,0.13382,-0.0034123,-0.001248,-0.0039594,0.020986
-0.14114,0.16208,-0.52512,-0.059132,-0.0012014,-0.0083519,0.010833,-0.017349
-0.054806,-0.045408,0.17252,0.15776,0.056479,0.0083099,0.0097975,0.0064501
0.13332,-0.093622,0.73083,0.097099,-0.002475,0.0095708,0.016523,0.021937
0.0019648,0.17511,0.14287,-0.014893,0.040386,0.0030951,-0.023549,-0.025646
-0.065382,-0.0042936,-0.30407,-0.3429,-0.096518,-0.019103,-0.00095362,0.012162
-0.013419,-0.14013,-0.2547,0.065432,0.0083886,0.0053048,0.0062326,0.03392
0.03331,0.28956,-0.24587,-0.1267,-0.0045044,-0.0019567,0.0058302,-0.030462
0.028115,0.13424,-0.11195,0.056268,-0.025981,-0.0019306,-0.009994,-0.040069
-0.12294,-0.43648,0.28944,0.16772,0.045417,0.0053312,-0.01003,-0.010213
0.095176,0.028698,0.16396,0.17474,0.037726,-0.0036032,0.0056728,0.028124
0.10336,0.0053828,0.046572,-0.010663,0.013354,0.033827,0.029247,0.051651
-0.068361,-0.021874,0.11439,-0.07809,-0.035606,-0.046332,-0.025303,-0.033411
-0.046291,0.073164,-0.086523,-0.060531,-0.023269,-0.0017457,-0.025223,-0.0085309
0.082528,0.12061,-0.32056,-0.12286,0.019164,0.027131,0.045054,0.039977
-0.081021,-0.16638,0.18121,0.08706,0.0059688,-0.0063998,-0.017651,0.0022859
-0.021404,0.034461,-0.083779,-0.022351,-0.023385,-0.0084176,0.0053704,-0.043898
-0.027135,0.036821,0.10989,0.029126,0.0098163,0.01341,-0.0030894,-0.012913
0.074744,0.098642,-0.29302,-0.15229,-0.018726,0.012318,0.011669,0.032689
-0.073748,-0.046695,0.22995,-0.0070037,-0.030182,-0.050685,-0.028426,-0.047526
-0.03372,-0.080824,-0.33152,0.055174,0.046332,0.027551,0.0095349,0.0046549
0.10216,0.079674,0.61914,0.099496,0.015817,0.012635,0.00067912,0.033495
0.084433,-0.075583,0.2068,0.33754,0.018866,0.006069,-0.00016211,0.0004382
-0.087004,0.1232,-0.72012,-0.41203,-0.0074061,-0.023495,0.014956,-0.00038188
0.16533,-0.04382,0.37191,0.14395,0.0066369,-0.0058752,-0.0085561,0.015584
-0.12828,-0.060853,0.030609,0.047295,-0.025781,0.0040892,-0.00034351,0.0092093
-0.085997,0.050164,-0.29804,-0.16838,-0.0039331,0.021862,-0.0073006,-0.027594
-0.044439,-0.29413,0.44239,0.26555,-0.0066231,0.0082245,0.0095547,0.014136
-0.050716,0.065655,-0.51782,-0.29487,-0.018638,-0.021329,-0.0045937,-0.030116
0.14541,0.11691,0.061975,-0.022811,-0.0010213,-0.004392,0.0047833,0.0033208
-0.072696,0.1587,0.12809,-0.081508,0.015145,0.0043093,0.0062716,0.020431
0.20971,0.082472,-0.14456,-0.023104,0.014587,-0.0030259,-0.0080885,-0.017945
-0.17869,-0.096885,0.21699,0.093428,-0.033533,-0.018533,-0.022783,-0.0023704
0.11392,0.11852,-0.37659,0.084204,0.066463,0.020357,0.024624,0.012649
-0.045338,-0.16487,0.84405,0.39744,0.0023136,0.012143,-0.014321,0.0039209
-0.094341,-0.036048,-0.46245,-0.21517,-0.054014,-0.0040838,0.016661,0.0029376
0.09131,-0.052155,-0.22486,-0.081349,0.030265,0.0029247,0.0082547,-0.013552
-0.12972,-0.12859,0.44715,0.017057,0.020694,0.001892,-0.0082012,0.0092368
0.069997,0.031487,0.13848,-0.13197,-0.051537,-0.0072055,-0.016975,0.00098916
0.080433,0.24954,-0.47228,-0.099809,-0.014537,-0.0009224,0.013302,0.024121
-0.012971,-0.089684,-0.4874,-0.074632,-0.0088199,-0.026073,-0.0031804,-0.038687
-0.069891,0.016078,0.38993,0.24021,0.051735,0.019023,-0.0038047,0.0077417
0.08933,0.029852,0.074107,-0.13961,-0.020177,0.0017133,-0.0041009,-0.00857
-0.066261,-0.054584,0.018587,0.082838,-0.0056681,-0.0075184,0.0037964,0.013904
0.049934,0.23244,0.098167,0.14947,0.02498,0.0070993,0.0042596,-0.002925
-0.07671,-0.28072,0.41334,0.098643,0.032609,0.030033,0.020663,0.011361
-0.062142,-0.063156,-0.28002,-0.11754,-0.022032,-0.016819,-0.0096077,-0.029027
0.10276,0.12651,0.023471,0.0076389,0.0014638,-0.00068752,-0.0085748,0.032329
-0.033969,-0.22847,-0.1941,-0.12811,-0.053318,-0.023222,-0.015452,-0.023171
0.05188,0.2924,-0.34051,-0.12644,0.0088863,0.0014062,0.0086936,0.0077053
-0.037918,0.031382,0.029203,-0.064766,0.0006692,0.010584,-0.0065421,4.7552e-06
0.094641,-0.013042,0.072212,0.019177,-0.007448,-0.0036038,0.01692,0.024016
-0.035854,-0.092207,0.60301,0.32233,0.039478,0.0056218,0.00095021,-0.014099
-0.15745,0.15233,-0.26634,-0.13039,-0.0067744,0.00692,-0.015358,-0.036348
0.11099,-0.3032,0.17804,0.19323,0.01014,0.0002018,0.022739,0.027424
0.10383,0.13533,-0.14679,-0.050227,-0.019223,-0.014617,-0.0096795,0.012998
-0.047311,-0.046642,-0.31613,-0.12665,0.022087,0.024896,0.0046708,-0.0094461
-0.038304,-0.035093,0.14908,0.096201,0.0087128,-0.021925,-0.020036,-0.00875
-0.056486,0.0154,-0.014803,-0.17913,-0.0285,-0.0066392,-0.0055561,0.022859
-0.085361,0.098497,-0.11138,-0.070185,-0.027416,-0.0073214,0.0091562,-0.02398
0.063957,0.1527,0.038795,-0.12396,0.0039078,0.030816,0.0085588,-0.016389
0.049299,0.069063,-0.0037372,0.15956,0.041959,0.0063502,0.016128,0.030104
-0.034174,-0.21504,0.14005,0.17084,0.00091278,-0.018051,-0.015022,-0.0093897
0.11914,-0.15317,0.43352,0.19838,-0.0095703,-0.010962,0.00099043,0.0058591
0.009464,-0.042769,-0.17642,-0.086929,-0.0046992,0.0043479,0.0015833,0.0056175
-0.058953,0.068804,-0.055159,-0.19426,-0.023056,0.012384,0.0022983,-0.0022509
0.08483,0.15776,-0.066543,0.031282,-0.017299,-0.018033,-0.012552,-0.0020943
-0.044658,0.13793,-0.22811,-0.044109,0.028559,0.0068289,-0.011748,0.013912
-0.19052,-0.14709,-0.16369,-0.061397,0.028767,0.0087256,0.012524,-0.040162
0.029591,-0.15051,-0.48642,-0.11391,-0.016714,-0.012569,-0.0022193,-0.00025438
0.1236,0.088499,0.37993,0.22129,0.024667,0.012943,0.0065307,0.0086204
-0.11885,0.069872,0.44948,-0.015318,-0.011593,0.0067824,0.01532,0.017663
0.084403,-0.0033416,0.48517,0.123,-0.0010175,0.015482,0.0084719,0.018963
0.085771,-0.18594,-0.17421,-0.073619,-0.030048,-0.015896,-0.037529,-0.011066
-0.075107,0.11563,-0.25511,-0.065532,-0.013126,-0.01714,0.017854,-0.010106
-0.062222,-0.036459,-0.22075,0.014454,0.026122,-0.019407,-0.01295,-0.017399
0.11612,0.2245,-0.051406,0.025256,-0.013839,0.001028,0.01065,0.029421
-0.017606,-0.1333,-0.048011,-0.080732,0.023457,0.028977,-0.0050853,-0.0025061
0.019698,-0.040081,0.18458,0.10195,-0.010075,0.0024526,0.0024037,-0.011555
0.0080083,0.066302,0.066459,0.0023349,0.0031657,-0.015559,0.00196,-0.028804
-0.11618,-0.087581,-0.019515,-0.11427,0.016705,0.030004,0.01713,0.031941
-0.079967,-0.048153,-0.079334,0.041242,-0.031629,-0.040362,-0.03792,-0.024347
0.077661,0.10735,-0.28172,0.016219,0.022443,0.031122,0.016574,0.013524
0.083885,-0.17454,0.32248,-0.04011,-0.039741,-0.021415,0.00095819,0.028532
-0.013376,0.20903,-0.0052185,0.13889,0.070842,0.020359,0.0011524,-0.010532
0.0058951,-0.014238,-0.058766,-0.055071,-0.028761,0.0075027,0.017091,-0.0021959
-0.013253,-0.038938,0.054073,-0.12097,-0.034076,-0.013608,-0.0060098,0.014291
0.00065646,-0.060237,0.45845,0.20764,0.015591,-0.0043032,-0.0057537,-0.031616
0.032923,0.0073187,-0.41708,-0.21713,0.010625,0.003958,-0.0056555,0.00050143
-0.095525,0.13925,-0.074495,0.18302,0.02113,-0.012241,-0.0057428,0.0011341
0.099962,-0.12677,-0.1411,-0.20942,-0.023372,0.0020303,0.0096419,0.032755
-0.13852,0.12962,0.037178,0.05789,-0.029251,-0.02313,-0.014105,-0.06081
0.0088828,-0.10065,-0.072726,0.014868,-0.02003,-0.0013039,-0.006565,0.01746
0.11164,0.095723,0.16054,0.191,0.08235,0.02888,0.016731,0.025536
0.027974,-0.21883,0.306,0.021753,-0.019041,0.028641,0.016761,0.002599
-0.0012902,0.018864,-0.27043,-0.22148,0.0038773,-0.0019609,-0.0065065,-0.012261
-0.071291,0.021035,0.21105,0.10802,-0.0051544,-0.016223,0.0015117,0.012122
0.10585,0.093976,-0.39954,-0.092392,-0.0070173,0.0011209,-0.0062133,0.0052525
-0.18934,0.083019,0.083783,-0.072938,-0.024996,-0.020693,-0.014215,-0.025294
0.10549,-0.0028137,0.1598,0.08893,0.027105,0.019467,0.024266,0.029626
0.037808,-0.13168,0.023164,-0.050624,-0.06131,-0.011518,-0.015798,-0.0098349
-0.12561,0.0087821,-0.091542,0.15887,0.046063,0.0034274,-0.0015146,-0.01871
0.038706,-0.011961,0.2154,0.063449,0.021411,-0.013713,-0.0030109,0.0031142
-0.030086,0.10936,-0.19416,-0.20185,-0.010087,-0.0079568,-0.0044003,-0.030057
0.11475,-0.043064,0.1131,0.11488,-0.0093806,-0.0023283,0.0024136,0.03835
-0.057188,-0.041382,-0.2646,-0.17253,-0.0001241,0.011413,-0.0057633,-0.017899
0.071373,0.019059,-0.18191,0.061585,0.040732,0.033616,0.025901,0.028009
-0.039353,0.12153,0.17789,-0.018888,-0.020105,0.0097841,0.011475,0.012125
-0.0079553,-0.20315,-0.057387,0.053819,-0.011218,-0.013196,-0.010117,-0.018726
0.030963,0.0063193,0.7301,0.27018,-0.011066,-0.019849,-0.023511,-0.002238
-0.025968,0.12601,-0.60997,-0.247,-0.011947,-0.010431,0.0022146,-0.0011983
0.030746,-0.092436,0.26968,0.070252,0.025345,0.014774,0.027665,0.0075279
-0.026223,0.048193,-0.082236,-0.17076,-0.023806,-0.0069807,-0.017746,-0.0075527
-0.15773,-0.075238,0.085534,0.083228,-0.010422,-0.021168,-0.017,-0.015316
0.0043178,0.070021,-0.42817,-0.1293,0.034833,0.034648,0.014235,-0.0079326
0.18023,-0.022937,0.6149,0.24673,-0.020366,-0.0035689,-0.0020821,0.030373
-0.0031338,0.091411,-0.38029,-0.07657,0.003944,-0.026367,-0.011091,-0.02516
-0.043935,0.0063755,-0.55275,-0.18341,0.029621,0.028845,0.010868,0.005421
0.020217,0.064812,0.29688,0.13908,-0.0061564,-0.0019248,0.001512,0.02078
-0.0051217,-0.18746,0.16633,0.088036,0.021038,0.0063464,0.015705,0.0054277
0.028668,-0.056072,0.51441,0.094524,-0.03013,-0.016684,0.0066837,0.0062573
-0.082004,0.067786,-0.52142,-0.29377,-0.011924,0.0070335,-0.0098728,-0.03151
0.091562,0.0042727,0.061456,0.095204,0.0047939,-0.0085383,-0.010514,0.0091398
-0.10039,0.066095,0.27894,-0.027995,-0.027134,-0.0010005,-0.010863,-0.0048148
0.043802,-0.074511,0.30097,0.27335,0.017327,-0.0016813,-0.01091,-0.0032646
-0.063186,-0.003219,-0.78209,-0.27517,-0.0021077,0.0050078,0.020618,0.005817
0.054024,-0.048223,0.12731,0.098939,0.032326,0.026899,-0.0021913,-0.0011053
0.09771,0.17275,-0.12288,0.0043368,0.0041469,-0.0062337,0.0066005,0.022816
-0.026298,0.057129,0.16007,-0.23125,-0.054688,-0.023926,7.4329e-05,-0.02394
-0.091371,-0.044831,0.16256,0.16555,-0.0029586,-0.025966,-0.0062475,0.0071566
0.012425,-0.032889,-0.075958,-0.0082508,0.058158,0.03477,0.026541,-0.00094931
0.051721,-0.16586,0.3994,0.13039,0.011597,0.0022781,-0.018936,-0.009055
-0.12841,0.016778,-0.51803,-0.027808,-0.033412,-0.013869,-0.017862,-0.017039
0.051607,0.030978,-0.067172,-0.13138,-0.014744,-0.0057535,0.0061827,0.02986
0.10089,-0.091018,0.03646,0.10055,0.043635,0.03442,0.021875,0.014457
-0.073356,0.30852,0.092394,-0.012261,-0.046362,-0.0028695,-0.017645,-0.0086375
0.044865,-0.13595,-0.08534,-0.22829,-0.011844,-0.016317,-0.01072,-0.0083185
-0.068158,0.038104,0.21425,0.39714,0.029572,0.0015678,0.0037455,-0.023837
0.063236,-0.050898,0.37247,-0.19111,0.022935,0.011392,0.010309,0.02274
-0.0076391,-0.074028,-0.46501,-0.071323,-0.04746,-0.034002,-0.0064824,-0.0093698
0.084814,-0.038799,0.089019,0.15519,0.037238,0.021442,0.031627,0.059441
-0.15308,0.15617,-0.093776,-0.081236,-0.019598,-0.017672,-0.023734,-0.09112
0.20728,-0.083452,0.24193,0.032938,0.00894,0.020552,-0.00068559,0.054706
-0.25641,0.16338,-0.62381,-0.26667,-0.025196,-0.01222,-0.0008382,-0.010653
-0.020386,-0.13551,-0.018893,0.13054,-0.0044473,0.0013543,-0.016459,-0.029066
0.033542,0.058164,0.46431,0.13958,0.05586,0.030206,0.014861,0.0076194
0.10218,-0.052968,0.07776,0.042139,-0.0081419,-0.003604,0.0070987,0.013771
0.062192,-0.19557,0.38593,0.064624,-0.032316,-0.021759,-0.0085639,0.0052176
-0.038047,0.23998,-0.62533,-0.15307,0.030182,0.015001,0.014702,0.021084
0.021296,-0.074005,0.052522,0.036411,-0.031692,-0.033741,-0.016874,0.0065883
-0.12647,-0.027735,0.052271,-0.032131,0.0084734,0.0040998,0.0060876,-0.046316
0.1123,0.019511,-0.21269,-0.11743,-0.013544,0.0037042,-0.0023243,0.018297
-0.12248,0.11423,0.25654,0.092542,0.0036619,0.0042528,-0.018633,-0.02649
0.066519,-0.096081,0.23998,0.011837,0.020883,0.021384,0.019707,0.029937
0.076341,0.074731,-0.16976,0.023701,-0.0010798,0.0081046,0.011169,0.0076438
-0.039769,0.023577,-0.20001,-0.058673,0.023582,0.0032313,0.010471,0.0080607
-0.087782,-0.032104,-0.015038,0.031098,-0.045871,-0.040458,-0.029244,-0.054758
0.10327,0.0085301,-0.044008,0.035859,-0.006406,0.0016413,0.0014178,0.030236
-0.029504,-0.13561,0.20646,0.08106,0.024739,0.019777,0.00092012,-0.002373
0.23291,-0.010259,0.14436,-0.059622,0.016314,0.0058367,0.0083629,0.035185
-0.5149,-0.090007,-0.071946,-0.050162,-0.031619,-0.016918,-0.0074566,-0.044302
0.11123,0.1354,-0.11215,-0.078019,0.013877,0.013989,0.0003847,0.025056
0.17534,0.074626,-0.24767,0.2397,0.043607,0.0049407,0.0084857,-0.022161
0.10076,0.06547,0.29644,-0.21405,-0.067206,-0.028176,0.0012334,0.017286
-0.11927,-0.10987,-0.29944,-0.17351,-0.0058301,-0.0068904,-0.0057677,-0.012846
-0.054638,0.032841,0.30804,0.24414,0.0013728,0.006662,-0.012573,-0.018913
0.16156,0.1097,0.031249,0.0073157,-0.0064141,0.012791,0.011982,0.061381
-0.08874,-0.17792,0.17201,0.21683,0.087997,0.019504,0.0052934,-0.014431
0.0057021,0.13679,-0.43752,-0.47228,-0.059275,-0.0044,0.0063202,-0.0279
0.06855,-0.02596,0.050088,0.25873,0.051527,0.019112,0.0071663,0.012881
-0.12788,-0.12817,0.4123,0.23635,-0.0017574,-0.019527,-0.023462,-0.0094769
-0.053025,-0.16231,-0.18956,-0.22826,-0.086567,-0.026794,-0.0074329,-0.0013196
0.05074,0.15331,0.040221,0.020436,0.023518,0.004927,0.00062067,-0.0095021
-0.081963,0.02262,-0.49136,-0.22048,-0.015245,-0.010416,-0.0070317,-0.0026584
0.23686,0.094932,0.2573,0.081407,0.0082203,0.013098,0.024376,0.035009
-0.20325,0.073903,-0.20996,-0.03284,0.016001,0.0052222,-0.0066775,-0.03694
0.12926,-0.095144,0.32218,0.16576,0.039553,0.012946,0.024793,0.039461
-0.023417,0.048231,0.11559,0.023337,-0.022565,-0.018302,-0.021911,-0.001308
0.15096,0.042293,-0.045578,-0.12238,0.0015201,0.02094,0.017169,-0.010754
0.042673,0.034709,-0.0036859,0.06543,-0.0055024,-0.0021063,-0.01432,0.0033352
-0.44223,-0.3812,0.12388,0.055306,0.034292,0.0062964,-0.0070577,-0.021519
0.13388,-0.02564,0.054441,0.12728,-0.043369,-0.024214,-0.023525,-0.014968
0.013679,0.27389,-0.72966,-0.34559,-0.019884,-0.015579,0.014497,0.0074157
0.026149,-0.012906,0.37893,0.17352,0.018762,0.016506,0.013401,0.022251
0.141,0.091525,0.27711,0.041927,-0.036742,0.0016569,-0.011034,0.0061323
0.015363,-0.083974,-0.13741,-0.077771,0.0325,-0.0055159,0.003798,-0.0018937
-0.0924,0.10148,-0.39586,-0.006497,0.03916,0.018335,0.02668,-0.0019015
-0.057125,-0.055468,0.22113,-0.079842,-0.032246,0.0027995,-0.0049477,-0.0096389
0.035018,-0.15702,0.30818,0.039326,0.013672,0.0024728,-0.013086,-0.0096232
0.035077,0.014723,0.14738,0.19653,0.028483,0.0016762,0.0021138,0.021463
0.012742,0.068283,-0.29978,-0.14531,-0.042539,-0.02301,-0.014156,0.005442
0.069027,0.081114,-0.14252,-0.0078654,0.019315,0.014466,0.016194,0.0048629
-0.085436,-0.064307,0.20476,0.063191,-0.043771,-0.034117,-0.0083235,-0.0035442
-0.044376,0.14774,-0.70408,-0.32243,-0.013,0.011218,-0.0015832,-0.035134
-0.096533,-0.17281,0.48113,0.33462,0.01797,0.0023409,-0.025825,-0.027086
0.024193,0.02972,0.45378,0.13429,0.064856,0.033255,0.036412,0.020885
0.052555,-0.25903,0.18809,-0.003879,-0.044173,-0.020909,-0.041231,0.007362
0.012008,0.14195,-0.34969,-0.1997,0.0033499,-0.0039441,0.030377,0.010386
0.1286,0.33527,-0.73197,-0.23683,-0.0036408,0.0058033,0.032379,0.053039
-0.012808,-0.21757,0.45402,0.24244,-0.018461,0.00014957,-0.012073,-0.029335
0.062968,-0.079243,0.48957,0.26101,0.068061,0.025524,-0.0018211,0.035985
0.26084,0.18693,-0.452,-0.26621,0.021408,0.026818,0.039266,0.076465
-0.7169,0.048328,0.16334,-0.016766,-0.10375,-0.074389,-0.07666,-0.213
0.15323,-0.24667,-0.41848,-0.026545,0.0443,0.010879,-0.013836,0.019121
0.036279,0.073814,0.30656,-0.31532,-0.12009,-0.029726,0.0090325,0.015416
-0.019104,-0.1164,-0.0094621,0.40944,0.090954,0.015099,1.023e-05,0.011008
0.16105,0.096085,-0.11402,0.08003,0.03714,0.013028,0.021979,0.030246
