0.057106,0.06623,-0.022707,-0.0065645,-0.0062619,0.029048,0.046241,0.10664
-0.062652,0.023463,0.0020958,0.017864,0.010248,-0.048498,-0.05508,-0.20496
0.064167,-0.0048283,0.03571,-0.011306,-0.011733,0.037668,0.03239,-0.011562
0.10074,0.066683,0.21702,0.054104,0.044881,-0.040707,-0.051121,0.005836
0.093187,0.1045,0.020507,-0.020714,-0.05446,0.083313,-0.0013918,0.041966
-0.13083,0.029967,-0.032259,0.0059034,0.018147,0.10471,-0.0063631,0.011148
-0.04789,-0.38357,-0.61427,-0.077499,-0.010977,-0.054972,0.074247,0.016011
-0.087058,0.028477,0.18075,0.025541,0.006371,-0.1381,-0.056635,-0.17612
0.073293,0.056329,0.064965,0.017912,0.015306,-0.11333,0.061888,0.24931
-0.018041,0.060973,0.14993,0.0089588,0.0078728,0.36349,-0.031002,-0.080678
-0.0072434,0.036303,0.10231,-0.0011563,-0.031627,-0.26154,-0.11632,-0.094112
0.021946,0.038397,-0.028575,0.003513,0.006192,-0.018694,0.14218,0.06156
-0.030331,0.060162,0.095059,0.0077651,0.019858,0.10869,-0.067725,-0.019786
-0.061666,-0.093841,-0.19771,-0.026997,-0.037339,-0.011311,-0.0036487,0.075128
0.18554,-0.0026944,0.085346,0.016864,0.030136,-0.003155,0.021926,-0.02246
0.18663,-0.0039019,-0.15808,-0.016529,-0.0040287,-0.0073909,0.086949,0.17754
-0.11504,0.072586,-0.023033,0.013701,0.016674,0.030252,-0.074553,-0.22552
-0.09664,0.045395,0.23105,0.0060791,-0.0012702,0.085503,-0.0099045,-0.030433
-0.20534,-0.27417,-0.23349,-0.062924,-0.042043,-0.15522,0.03827,0.027167
0.065617,0.09001,0.19109,0.064237,-0.011762,-0.028958,-0.063159,0.025051
-0.096312,0.021076,0.089331,0.035597,0.042755,0.17428,-0.025244,-0.083092
0.30201,0.11382,-0.18818,0.014755,0.012104,-0.14768,0.058388,0.094689
-0.081515,-0.10686,0.069046,-0.05341,0.0055543,0.0049643,0.016191,-0.010134
-0.080931,0.071593,-0.15442,-0.03639,-0.016125,0.0073914,-0.041988,-0.012882
-0.0070401,-0.0056676,0.20469,-0.012416,-0.0062535,0.086604,0.032805,0.033348
0.047527,-0.13456,-0.23518,0.018619,-0.011889,-0.12404,-0.00115,0.012411
0.15341,0.15404,0.14469,0.025745,-0.0019241,0.039984,-0.018509,0.018421
-0.072657,-0.022982,0.048938,0.017141,0.0001091,0.024254,-0.0034745,-0.027052
-0.014587,0.028892,-0.029009,-0.022478,0.0019716,0.086562,0.020507,-0.015458
-0.10346,0.019453,-0.0024115,-0.0069473,0.011444,0.046967,0.014208,-0.010416
-0.03597,-0.060313,0.0040097,0.0090959,-0.0027579,-0.17302,0.00079287,0.010358
0.061845,-0.078577,0.036934,0.01771,0.02182,0.066926,-0.0044303,0.0068426
0.087859,0.065661,-0.13072,0.034255,0.022628,-0.045767,-0.056451,-0.05282
-0.090792,0.0051631,0.32071,-0.035336,-0.047235,0.036027,-0.0070825,-0.0047634
-0.13784,-0.15809,-0.37498,-0.027268,0.0075685,-0.23401,0.0263,0.041821
0.23631,0.21723,0.094341,-0.0041779,-0.04724,0.23079,0.027923,0.040515
-0.046034,-0.039971,-0.029298,-0.012899,0.022875,0.087409,0.0054659,-0.015909
-0.0081076,-0.054116,-0.0506,0.0014623,0.022787,-0.062072,0.0056665,-0.04095
-0.032938,0.089083,0.14756,0.015772,-0.00047369,0.02473,0.012767,0.0048748
0.0038538,-0.055904,0.018034,0.022529,0.015665,-0.019539,-0.020203,0.020206
0.023212,0.0025017,-0.0023204,0.0063298,-0.006975,-0.093774,-0.038562,0.028442
0.024092,-0.0099916,-0.0082258,-0.0093169,-0.01388,0.020141,-0.010942,-0.017541
0.0055799,0.06199,0.04602,0.022375,0.010312,0.024665,0.02385,-0.024383
0.02183,-0.040026,0.034297,-0.023804,0.002814,-0.03391,0.034937,0.023108
-0.10681,0.058726,-0.22387,0.03939,0.018078,0.062755,-0.024124,-0.023879
-0.051524,-0.15708,-0.05682,-0.10076,-0.037761,0.095719,0.018962,0.014109
0.0092683,0.02434,0.13743,0.040005,-0.00058636,-0.044335,-0.038591,-0.027041
0.053793,-0.052068,0.05525,-0.014856,-0.018615,-0.11493,-0.024711,0.0012477
0.0056902,0.029094,-0.0050374,0.02385,0.01788,-0.22497,0.091874,0.04458
0.12434,0.19084,0.028522,0.039127,0.015558,0.32139,-0.04056,-0.037284
-0.042226,-0.019267,-0.053454,-0.031338,-0.0095823,0.055894,-0.016067,0.037315
-0.063713,-0.046444,-0.0075158,8.6132e-05,0.036463,-0.060253,0.016531,-0.020316
0.052182,-0.047443,0.003095,0.00062654,-0.049349,-0.034861,0.056856,-0.01458
-0.02294,0.015847,-0.021322,0.017108,0.037562,-0.063533,-0.067244,0.031262
-0.063017,0.0094345,0.012743,-0.036527,-0.0077529,0.071963,-0.035566,-0.031162
0.0094849,-0.0913,0.018625,0.019253,0.0018502,0.011611,0.026974,0.016862
0.014263,0.040771,-0.020412,0.0046082,-0.012119,-0.04992,-0.027815,-0.02009
-0.072778,-0.016945,0.1443,-0.01808,-0.010897,-0.042856,0.042585,0.053129
0.02103,0.063259,-0.14481,0.0058147,-0.01028,0.016821,-0.0037094,-0.037108
0.14627,0.023408,-0.01391,0.021604,0.0053335,0.08993,-0.0024587,-0.03319
-0.049823,-0.081774,0.028447,-0.025346,0.028248,0.09068,0.061943,0.025621
0.025101,0.068211,0.028857,0.021307,-0.0038192,-0.18364,-0.052915,0.0063131
-0.020976,0.0049326,-0.090579,-0.025833,-0.0046671,0.0098554,-0.011477,-0.0053775
-0.0095021,-0.021141,-0.063605,0.0052008,-0.020918,-0.015449,-0.0016858,0.021593
0.074551,0.060953,0.21222,0.0050869,0.017933,0.061791,0.015129,0.016708
-0.22958,-0.14637,-0.12155,-0.0027368,-0.013011,-0.007398,0.023108,-0.02021
0.094741,0.061057,0.20153,0.036362,0.034682,-0.019017,-0.048071,-0.02679
0.018066,-0.026574,-0.23202,-0.010523,-0.0031544,0.027521,0.0049548,-0.018716
-0.02764,0.0058951,0.062537,-0.026312,-0.032946,0.0074203,-0.00487,0.027474
0.014679,-0.012537,0.014996,0.0045408,0.015407,0.022027,-0.014485,-0.0053174
0.006408,0.12955,-0.007496,-0.019558,-0.022368,-0.015205,0.031351,0.023677
0.050359,-0.044411,0.026168,0.010803,0.025429,-0.050508,-0.0075721,0.01306
0.0061392,-0.027159,-0.13422,0.025404,-0.005384,-0.01469,0.048612,0.0020727
-0.0099012,-0.022811,0.13605,-0.022505,-0.0054889,-0.010513,-0.01114,-0.063782
0.12549,0.014211,-0.0071065,0.01564,0.0016816,0.038984,-0.015321,0.042268
-0.15251,0.012187,-0.05637,-0.0084984,0.016188,0.06248,-0.034798,0.015767
-0.049453,-0.022401,0.0032774,0.0066941,0.014703,0.067037,0.00011885,-0.041472
0.049753,-0.012516,0.022675,-0.0090939,-0.04169,-0.064911,0.088862,0.019229
0.0031006,-0.013588,0.047932,0.014406,0.0034309,-0.15361,-0.11273,-0.012875
-0.088303,0.013087,0.031492,0.006808,0.0096131,0.059274,0.0045471,-0.043937
0.072923,0.051904,0.027606,-0.039786,-0.03081,-0.01908,0.073557,0.10569
0.042805,-0.037408,-0.18251,-0.00045915,0.030686,0.049977,-0.053854,-0.040733
-0.020483,0.042651,0.018816,0.023155,0.014419,-0.029266,0.021185,0.016462
0.041505,-0.011775,0.023198,0.0075624,0.014058,0.11915,0.017929,-0.0043664
-0.08157,-0.059087,-0.0038989,-0.00040666,-0.0096023,-0.019821,0.0071809,-0.0098505
0.049626,0.073626,0.10317,0.022661,-0.0098479,-0.086628,-0.057532,-0.0002757
-0.016739,-0.081378,-0.036925,-0.040421,-0.018051,0.066961,0.011547,-0.038266
-0.014439,0.015825,-0.0011963,-0.0021132,0.012628,0.01863,0.019178,-0.030018
-0.0061304,-0.032615,-0.16414,-0.018587,-0.042739,-0.154,0.0043105,0.048101
-0.023955,0.031311,0.12248,0.043083,0.034762,0.11118,0.021357,0.016661
0.11808,0.074528,0.17022,0.003342,0.010968,-0.014187,-0.00037858,0.01652
-0.035091,0.02601,-0.12402,-0.0048692,0.011076,0.0011777,-0.014426,-0.006881
0.037895,-0.013739,0.058227,-0.012697,-0.019485,-0.076916,0.010123,0.0089503
-0.032093,-0.045933,-0.1599,-0.020079,-0.010403,0.0017925,-0.083176,-0.029863
-0.16065,-0.017026,0.0013491,0.019866,0.022557,0.19065,0.057224,0.0014878
0.049747,-0.045067,0.11145,-0.010102,0.0010202,-0.104,0.033055,0.024691
0.059762,-0.044566,0.021927,0.038344,0.018421,0.024011,-0.053825,-0.022862
0.041625,0.05478,-0.055458,-0.022449,-0.034924,-0.027088,0.023495,-0.016167
-0.035094,0.042397,-0.095747,-0.0051514,-0.0029998,-0.015397,-0.00029782,-0.017601
-0.03649,0.043895,0.10614,0.019774,0.020346,-0.011502,-0.007813,0.012105
0.069876,0.044379,-0.11182,-0.018086,-0.027323,-0.046853,0.047875,0.041929
0.050779,-0.064779,0.10363,0.0062427,0.010456,0.065934,0.018225,0.0095525
-0.061504,-0.040682,-0.0043026,-0.047819,-0.014441,-0.040379,-0.1048,-0.0068083
-0.070783,-0.05457,0.033234,0.015134,0.015514,0.063852,0.061334,-0.038421
-0.02321,0.042521,-0.003388,0.023324,0.014672,0.066051,-0.0070893,0.0083573
0.12867,0.00094839,0.040381,0.023681,-0.0089946,-0.10423,-0.0055965,0.047434
-0.013184,0.01614,0.0060935,0.0083709,0.0070167,-0.033099,-0.028071,-0.046342
-0.05791,0.0019708,-0.069443,-0.0070807,0.015672,0.029257,0.019184,0.00036516
-0.052401,0.012624,-0.086527,-0.030635,-0.0067387,0.051445,0.0033563,-0.0077821
0.0030612,0.047337,0.078744,-0.015567,-0.0371,-0.029099,0.018219,-0.016047
0.16258,0.042725,-0.089396,0.045842,0.025866,-0.048281,0.0012959,0.022551
-0.082515,-0.087964,0.089567,-0.041721,-0.01334,0.040918,-0.00051384,0.053445
0.032296,-0.032768,0.015669,0.010919,0.0093036,0.027803,0.044088,-0.02482
-0.064512,-0.057425,-0.019969,0.00084526,-0.0076574,-0.032613,-0.075726,-0.0090517
0.00086055,0.064985,-0.023028,0.022084,-0.017119,0.0006829,-0.016001,-0.055478
-0.13199,-0.024149,0.031764,0.0046159,0.035902,0.026552,0.036073,0.039003
0.26275,0.043348,-0.010599,-0.027859,-0.027982,-0.048321,-0.044115,0.0087106
0.028494,-0.0049758,0.037858,0.0029708,0.049276,0.018669,0.056339,0.0098122
-0.12375,0.0035101,-0.010691,-0.0043841,-0.036878,0.032583,0.033092,-0.0046646
-0.17004,0.03792,-0.055703,-0.0031079,-0.0051902,-0.029726,-0.058968,0.0042455
0.077959,0.012223,0.13571,0.022228,0.011411,0.027237,-0.0089047,-0.010413
0.019727,-0.011595,-0.031865,0.0088106,-0.0029066,-0.038683,0.034619,-0.017441
0.1016,-0.057789,-0.16154,-0.0046856,0.006286,-0.0010651,-0.022587,-0.009041
0.035368,0.0054916,0.15956,0.012593,0.0074794,0.014741,0.014188,0.022611
-0.061257,-0.088333,-0.28021,-0.041249,-0.030792,-0.038706,0.042693,0.030666
-0.031815,0.066163,0.097075,-0.010162,0.0085251,0.064377,-0.054924,-0.023921
-0.048212,0.038675,0.27597,0.0277,0.0082079,-0.044135,-0.0057696,-0.039582
0.16287,0.078847,-0.1337,-0.0056296,0.007388,0.095691,0.025768,0.038356
-0.031407,0.022566,0.071759,-0.0082704,-0.0094007,-0.071757,-0.0072391,0.030192
-0.099591,-0.083008,-0.13046,0.051459,0.012752,0.070031,-0.02644,-0.017197
-0.056823,-0.073167,0.14313,-0.036903,-0.011838,-0.11202,-0.0079295,-0.025638
-0.003963,-0.017267,-0.23953,-0.015092,-0.0048016,-0.0082913,0.017665,0.012788
-0.01839,-9.9681e-05,0.050474,-0.0077571,-0.01282,0.022637,0.019768,-0.026753
0.11918,0.049762,0.10762,0.016543,0.018905,0.028872,0.022435,0.0043743
0.11197,0.00033551,-0.083123,-0.0047129,0.0044313,-0.019347,-0.020726,0.02041
-0.095209,0.0081739,-0.0058873,-0.0014621,-0.0016771,-0.0033385,0.015586,-0.02542
0.03559,0.07292,0.13603,0.041456,0.015973,0.039069,-0.04039,0.023104
-0.083123,-0.025177,-0.025179,-0.017198,-0.013234,-0.063256,-0.016833,0.0017359
0.0078516,0.0014866,0.0094983,0.0094151,0.0041351,0.096047,0.086073,0.074229
0.01002,0.065387,0.043619,0.0035299,-0.018134,-0.061703,-0.10695,-0.048854
-0.046583,-0.13948,-0.18165,-0.043039,-0.0099122,0.040485,0.052172,-0.024103
0.0014812,0.011197,-0.0028919,-0.013181,0.0053038,-0.012964,0.00055745,-0.023605
0.037083,-0.0058277,0.071929,0.0074134,0.019768,-0.012742,-0.0043997,-0.031759
0.076555,0.013678,-0.042713,0.027085,0.018029,0.016269,0.021276,-0.0015274
0.035204,-0.045622,0.060278,-0.031588,-0.030917,-0.0050608,0.014741,0.067387
-0.31975,-0.048678,0.0069861,0.027439,-0.0017966,-0.02243,-0.016422,0.0034442
0.31028,0.092596,-0.045259,0.0094684,-0.011543,-0.074618,-0.0019718,0.033481
-0.073107,0.098539,0.12315,-0.014819,0.010354,0.02675,-0.035537,-0.037668
-0.1484,-0.053634,-0.17483,0.024951,0.040567,0.048564,-0.023063,-0.030317
0.061625,-0.0049957,0.060824,-0.0042827,-0.030266,0.023456,0.020259,0.00072033
0.18192,0.016397,0.032824,-0.0092644,0.0009041,-0.031716,0.016784,0.023997
-0.038211,0.023914,0.18575,0.017193,0.0089429,0.047964,0.045057,0.0080672
-0.053122,-0.07878,-0.31723,-0.042723,-0.014115,-0.01057,-0.027454,-0.0081435
0.026326,0.0027785,0.054305,-0.0020104,-0.0059019,0.03476,0.018102,0.0065881
-0.12943,0.06368,0.11222,0.029673,-0.005558,-0.043091,-0.021472,-0.041388
0.06446,-0.084404,-0.057835,-0.025822,0.018153,-0.049484,0.0020774,0.027829
0.021507,-0.019341,0.020759,0.019219,0.010593,0.022709,-0.028656,-0.019853
-0.039477,-0.0054901,-0.057861,-0.006681,-0.012523,-0.061426,0.011153,0.011156
-0.0085347,0.0060228,0.074089,-0.0014673,-0.019835,0.072795,0.02768,-0.011757
0.013676,0.064395,-0.059295,-0.01153,0.012188,0.019052,-0.0024706,0.0599
0.020301,-5.0845e-05,0.03473,0.033834,0.021099,0.0040372,-0.05572,-0.0083645
0.012084,0.025291,-0.096641,0.0098556,-0.00092092,0.01239,0.032179,-0.037142
-0.026272,-0.014959,0.18722,-0.028731,-0.030511,-0.057137,0.0035688,0.012243
0.022243,-0.011454,-0.074957,0.0038802,0.0025008,-0.032373,-0.047749,-0.024685
0.06325,0.027146,0.06158,-0.017579,0.019805,0.063447,0.10469,0.01578
0.13492,-0.041228,-0.028831,0.01592,0.0055752,-0.011808,0.0074808,0.024038
-0.24804,0.031693,-0.12801,0.010263,0.014317,0.030805,-0.035071,-0.023402
-0.054989,-0.044837,-0.0097501,-0.0036171,-0.016592,-0.035577,-0.023406,-0.017028
0.0264,0.0012741,0.036878,-0.010321,-0.032501,0.0073532,-0.043855,0.020017
0.043376,-0.0026556,0.15278,0.0056725,0.0057156,-0.0049839,0.0048811,-0.0056143
0.05925,-0.0099404,-0.1303,-0.01811,-0.0033546,0.012851,0.013325,0.0080777
-0.049942,0.011058,0.047616,0.020037,0.026429,-0.0020224,0.05184,-0.0088339
0.037113,0.029917,-0.078556,-0.0046598,0.009336,0.036156,-0.012218,0.0064133
-0.014806,-0.014797,0.054063,-0.0060025,-0.015401,-0.060029,-0.0067491,-0.00078263
-0.017928,0.010817,0.054987,0.00063159,0.0070067,-0.024603,0.013802,0.0085283
0.058776,-0.025134,-0.060281,0.015432,-0.0015324,0.018012,-0.044091,-0.0050121
-0.011889,0.010776,0.043844,-0.00056162,0.013648,0.021642,0.015082,0.0050419
0.019224,0.032852,-0.00032694,-0.00046612,-0.02562,-0.028639,0.0039759,-0.0086715
-0.012771,-0.021516,-0.091778,-0.007797,-0.002179,0.055231,-0.0069742,-0.0075419
-0.03029,0.034782,0.019004,-0.014879,0.013658,0.039205,0.02138,0.0081034
-0.017784,-0.033161,0.04261,0.017184,-0.017135,-0.061054,-0.0046504,0.030324
-0.052931,-0.0071346,0.025759,0.002294,0.0070585,-0.011416,0.0087303,-0.026701
-0.017665,-0.028192,-0.015876,0.0028198,-0.0074743,-0.038914,-0.00874,0.009263
-0.02809,-0.010642,-0.0039266,-0.012574,0.0095651,0.043343,-0.017932,-0.064353
0.1824,0.014202,-0.023931,-0.020483,0.011207,0.023764,-0.018759,0.034357
-0.026235,0.02297,0.018362,0.041607,0.020707,0.011125,0.043566,-0.029927
0.017894,-0.0076577,-0.02496,-0.013756,-0.016872,-0.010656,-0.010565,0.063552
0.017299,0.094276,-0.036246,-0.0068136,-0.015864,-0.041825,0.0063825,0.010253
-0.075987,-0.14779,0.023878,0.0078216,-0.0077564,-0.01988,-0.038455,-0.010334
-0.099229,0.08638,0.093015,-0.0088404,0.0073027,0.032001,0.0032083,0.0090804
0.12601,-0.023641,-0.024265,0.013579,0.0058568,0.036166,0.092054,-0.0025528
-0.018366,0.014266,-0.00012156,-0.010797,-0.0041586,-0.0067687,-0.06913,0.016474
-0.024877,0.059538,0.0088488,0.01184,0.0087597,-0.025821,-0.0041497,-0.09076
0.059897,-0.067257,-0.0054527,-0.0122,-0.0019167,-0.012555,0.013215,0.034712
-0.099089,-0.10004,-0.16034,-0.0047284,-0.020175,0.01008,-0.017283,-0.005607
0.030736,0.055544,0.098935,0.010872,0.016854,0.0032907,0.0058155,0.0073142
-0.010081,0.040728,-0.02431,-0.004424,8.098e-05,0.013954,0.020077,0.027151
0.014157,-0.065921,-0.0064447,-0.011555,-0.0078341,-0.0050933,-0.0055142,-0.0079074
-0.0207,0.095073,0.090069,-0.0027653,0.016545,-0.0075333,-0.031534,-0.011237
0.026102,-0.039151,-0.031867,0.014015,-0.012883,0.0058763,0.012762,0.0098985
0.021058,0.030581,0.064738,0.022986,0.020773,0.026468,-0.028455,-0.022308
0.056474,0.060913,0.019816,0.00050609,-0.0078728,-0.024709,0.032652,0.025004
0.08353,0.050569,-0.003253,0.0167,0.0023449,0.00012564,0.06346,0.05006
-0.087321,-0.21248,-0.16897,-0.069177,-0.034857,-0.016599,-0.021952,-0.041285
-0.10622,0.083638,0.022642,0.0163,0.028727,0.042274,-0.036222,-0.022954
0.0024496,-0.076701,0.0095941,-0.015819,-0.01793,-0.088547,-0.026478,-0.0047778
-0.081626,-0.0366,-0.011872,0.014367,0.0049209,0.044715,-0.0086451,-0.010538
0.072233,0.072262,0.037529,0.029,0.011526,0.044486,0.040418,0.014276
0.067327,0.048099,0.065152,-0.0029169,-0.0056619,-0.072667,-0.0045366,0.014964
-0.016115,0.017131,0.024896,0.0047372,0.0083352,0.069126,0.012564,-0.016171
-0.02764,-0.011998,-0.10643,-0.010459,0.0069114,-0.0060204,0.005688,0.0069846
0.018654,0.023499,0.045829,-0.0094785,-0.025352,-0.047712,-0.0095477,0.0064743
0.06103,-0.0016247,0.05112,-0.00026051,0.0054142,0.053507,-0.033067,-0.0097743
0.036908,-0.0020672,-0.005808,0.0091953,-0.0023333,-0.015075,0.0055919,0.036403
-0.093589,-0.0098646,-0.055898,0.0030584,0.021645,-0.019529,0.020686,-0.019081
0.074509,-0.056947,-0.037688,-0.011046,-0.00092162,-0.0073166,0.01242,0.026853
-0.085197,-0.0265,0.040409,-0.0098254,-0.0077251,0.013125,0.0044065,-0.036753
0.019868,0.0033745,0.014299,0.0066354,0.0088499,0.056848,-0.042316,-0.045788
-0.14225,0.009617,-0.037349,0.01487,-0.029491,-0.06409,-0.010559,-0.0079417
0.14706,0.055313,-0.035411,-0.008538,0.0021333,-0.021839,0.037064,0.061332
0.028779,0.023859,0.06042,0.0067824,-0.0057092,-0.019624,0.0065827,0.0059508
-0.012051,-0.014059,0.017001,-0.0015855,0.025102,0.091031,0.046143,0.013513
-0.11538,-0.074041,-0.00063519,-0.010104,0.0086642,-0.056935,-0.055499,-0.025369
0.0082755,0.085718,0.0080195,0.0047713,-0.008087,-0.0024394,-0.01734,-0.0092711
0.069773,-0.027706,-0.050834,0.011901,0.0061813,0.043707,0.0042547,0.022508
0.037226,0.030054,0.0018931,-0.012051,-0.0031068,0.0034692,-0.0062817,-0.024067
0.089206,-0.031021,0.040173,-0.020132,-0.0045514,0.033169,0.037235,-0.00082209
0.044713,-0.0085402,0.023691,0.0033261,-0.013585,-0.078033,-0.021045,0.013943
-0.13641,0.058109,0.15435,0.042686,0.0012626,-0.017477,-0.016565,0.0045717
-0.0014394,-0.080864,-0.27191,-0.011496,-0.0066678,-0.0036722,0.012106,0.018081
-0.041967,-0.041894,-0.0055316,-0.034348,-0.013782,0.010554,0.049754,-0.031152
-0.06093,0.05901,0.016111,0.036469,0.034647,0.041117,-0.090878,-0.017673
-0.032208,-0.058023,0.012404,-0.010156,-0.0099369,-0.0055279,0.035543,-0.01128
-0.10893,-0.0088865,0.054619,-0.018115,0.031863,-0.012136,0.053797,0.011938
0.071135,0.13703,0.026592,0.020322,-0.0044428,0.036798,-0.044367,0.021048
0.27548,0.036336,0.030724,0.0035935,-0.0021527,-0.01525,0.006085,0.02393
0.090409,-0.061258,-0.080942,-0.029144,-0.024205,-0.012388,0.017006,-0.0030883
-0.10262,-0.039404,0.058855,0.016034,-0.00056971,0.021597,-0.035629,-0.037095
-0.05637,0.014774,0.090471,0.0065386,-0.001611,-0.054167,0.027452,0.022744
0.03805,-0.024983,-0.15843,-0.018332,-0.027122,0.0024222,-0.036093,0.035005
-0.072947,-0.011294,-0.024246,0.0041144,0.017073,0.027386,0.047318,0.030235
-0.11869,0.023944,0.031749,0.019303,0.0065251,-0.0025064,0.043744,-0.13264
0.055724,-0.013162,0.064128,-0.0040175,-0.0035232,-0.063576,-0.14772,0.015017
-0.05723,-0.012887,-0.12236,-0.0034605,0.02642,0.078721,0.012742,0.036002
0.020772,0.0020565,0.066191,-0.0026717,0.0028196,-0.036548,0.025837,-0.0065887
0.011166,0.032577,-0.049834,0.029342,0.003756,0.11386,0.079561,0.0052222
0.026198,0.0014264,0.13884,-0.032668,-0.017923,-0.072014,0.02565,0.0097368
0.013465,-0.028246,-0.032174,-0.017011,-0.00015392,-0.024331,-0.018896,0.023228
0.099045,0.014151,-0.00089385,-0.0018883,-0.005924,0.014259,-0.0076986,-0.0008094
0.01689,0.073778,0.16965,0.051812,0.026842,-0.065921,-0.06644,0.00015427
0.19484,-0.037419,-0.31776,-0.027616,-0.042749,0.078833,0.015114,-0.013235
-0.35434,-0.11717,0.068157,0.010086,0.019612,-0.04342,-0.044866,-0.057143
-0.016623,0.099166,-0.070532,-0.037914,-0.043746,-0.018103,0.065764,0.070885
0.15053,0.024687,0.063983,-0.0072824,0.025284,0.061741,0.0031621,-0.0048279
-0.1046,-0.067917,0.074436,0.031854,0.023944,0.001583,0.009664,-0.003591
-0.032318,0.055312,0.040093,0.024862,0.022889,-0.025962,-0.0081501,-0.011695
0.056091,-0.027495,-0.085099,-0.0049148,-0.0088854,0.042187,-0.0029719,-0.0057988
-0.00096705,-0.0033989,-0.058657,0.0047935,-0.024407,-0.10613,-0.052475,-0.048243
-0.075232,-0.020013,0.15814,-0.016637,0.0075247,0.044735,0.046857,0.033215
0.078921,0.0018781,-0.076237,-0.022652,-0.022637,0.025734,-0.025025,0.028122
-0.051138,-0.0068426,0.15094,0.0099274,0.033302,0.0081166,0.044473,-0.0083241
0.17728,0.017438,-0.21648,-0.012794,-0.012418,-0.0011842,0.005277,0.041511
0.015026,0.11464,-0.0079105,0.018549,-0.0037764,-0.011001,-0.002201,-0.017348
-0.022626,-0.066311,0.18987,0.018131,-0.0034311,0.016724,-0.017301,-0.020619
-0.022952,-0.14257,-0.24058,-0.029481,0.011987,0.049935,-0.024655,-0.0072378
-0.31601,0.0026633,0.076122,-0.014694,-0.012188,-0.044629,0.04589,-0.031826
0.22889,0.19675,0.00027633,0.039248,-0.0055414,-0.087261,-0.079122,0.03846
-0.038593,0.01681,0.072174,-0.0081534,0.0086389,0.016295,0.014491,-0.030752
0.13782,-0.069466,0.019669,0.022832,0.014898,-0.022117,0.030068,0.041741
-0.070988,-0.063028,-0.0076975,-0.016266,-0.010042,0.087689,0.0068962,-0.017617
-0.048356,-0.058286,-0.032629,-0.016153,0.0042585,-0.012547,0.05452,0.0097117
-0.083461,0.038236,-0.054861,-0.015981,-0.020237,0.029615,-0.045757,0.014047
0.034792,0.03135,0.03476,0.015431,0.01808,-0.035337,-0.012758,-0.020613
0.1739,0.023054,0.016834,0.0077446,0.009853,0.042631,-0.0029125,-0.00091418
-0.0095115,-0.040733,-0.023666,-0.0077753,-0.01367,-0.03373,-0.0086461,-0.0053429
-0.022782,0.067174,0.060581,0.007977,-0.0056206,-0.01507,0.016672,0.020525
-0.068442,0.0035409,-0.059633,0.00036404,0.0027426,0.027542,0.0025271,-0.024994
0.049643,0.034324,0.29453,0.016298,-0.0042159,-0.031574,-0.019959,0.014393
-0.10493,-0.12941,-0.43209,-0.022339,0.0047297,0.0024234,0.0273,-0.0095493
0.00037669,-0.018964,-0.012908,-0.021824,-0.0017236,-0.011284,0.0037378,0.0050662
-0.047157,0.05294,0.10724,0.017776,-0.0080458,-0.0023053,-0.020197,-0.011682
-0.035535,0.0078408,0.038534,0.0026149,0.0090597,-0.017246,0.0025673,0.0030883
0.19978,0.01718,0.12569,0.034147,0.033793,0.022361,-0.013687,0.0028093
-0.021271,0.088298,0.018042,-0.012727,-0.012148,0.054307,0.0015523,0.026713
0.14377,0.017627,0.08352,0.018191,-0.003905,0.024048,0.024986,0.0044917
-0.064974,-0.23422,-0.47428,-0.076207,-0.0431,-0.076264,-0.021473,-0.017141
-0.1969,0.059185,0.18078,0.024493,0.018752,0.050054,0.026157,-0.030666
0.065814,0.015143,0.017376,-0.0076612,-0.0056931,-0.058208,0.0036236,0.018231
-0.067853,0.094921,0.14454,0.015029,0.00098499,-0.018502,-0.019027,-0.011469
0.072875,0.0021499,0.030447,0.030238,0.023416,0.059618,-0.0030168,0.036136
0.0035977,-0.028186,-0.0366,-0.016631,-0.0006831,-0.027017,-0.0032739,-0.0032724
0.084727,-0.034509,-0.026105,0.00722,-0.00087664,0.010753,0.0035017,-0.0048076
-0.041204,-0.031826,-0.11052,-0.007707,-0.0084093,0.024701,0.0016904,-0.0074817
-0.27799,0.081969,0.053659,0.0087104,-0.007769,-0.078643,0.014892,-0.042323
0.15823,-0.044267,-0.0020979,0.0093955,0.024281,0.036946,-0.019087,-0.0073991
0.20726,0.019402,0.011894,-0.029242,-0.0062486,0.043577,0.0017194,0.089951
-0.019774,-0.031686,-0.051893,-0.021326,-0.01364,-0.0039168,-0.00037059,-0.015389
-0.021986,-0.010268,0.01845,0.0019394,0.0019608,-0.011752,-0.024958,-0.010439
-0.088384,0.020643,0.10652,0.032875,0.017078,-0.011247,0.021983,-0.043252
-0.039986,-0.010041,-0.076358,0.0013401,-0.030706,-0.01817,0.023354,-0.01203
