0.012352,-0.048688,-0.028971,-0.055918,-0.0013572,0.0020398,0.016004,0.0012409
0.014834,0.064068,0.28355,0.04377,0.012227,-0.0059669,-0.0071043,0.0030734
-0.021517,-0.074533,-0.42324,-0.028534,0.0025814,-0.014035,-0.0067701,-0.0022289
-0.018736,-0.041494,0.0078884,0.0089891,0.0013061,0.0015577,-0.014238,-0.0070871
0.022898,0.062695,0.02358,0.0083359,0.00083039,0.017674,0.009561,0.019392
0.032671,0.10598,0.32051,0.024375,0.0012382,-0.012307,0.0021215,0.014267
0.056984,0.16679,0.35286,0.080419,0.033692,0.021145,0.025904,0.016152
-0.021801,-0.075394,-0.36313,0.004201,-0.01923,-0.0069688,-0.0051075,-0.006567
-0.063352,-0.21487,-0.31168,-0.13451,-0.048487,-0.065588,-0.020717,-0.022821
-0.052053,-0.072629,-0.086713,-0.031575,0.015868,0.0011418,-0.013247,-0.055983
0.028078,0.061636,0.3896,0.070427,0.017249,0.044193,0.0015451,0.011453
0.013695,0.031242,-0.18,-0.02397,0.0022794,0.062843,0.031376,0.01594
0.038604,0.070342,0.0088159,0.044732,0.017698,0.04853,0.01371,0.020575
-0.0054736,-0.00081405,0.13532,-0.035611,-0.022434,-0.05405,-0.03577,0.0024501
-0.0081552,0.059999,0.089735,0.048019,0.0070199,-0.096774,0.00028736,0.00096963
1.6976e-05,-0.043983,-0.16735,0.0071373,-0.0030651,0.029848,0.02841,0.024018
-0.058844,-0.054744,0.12952,-0.048339,-0.021108,-0.079837,-0.029153,0.0010824
0.025853,0.035874,-0.26177,-0.024245,0.0001157,0.12204,-0.0079147,-0.0057384
0.042211,-0.013779,0.096675,0.024948,0.0062214,-0.042974,-0.0090344,-0.0047362
-0.019084,-0.054549,-0.13833,-0.018001,-0.0026034,-0.011202,0.014662,-0.027575
0.004184,-0.046555,0.049399,0.018442,0.043984,-0.008304,-0.0070275,-0.019797
0.055432,0.12035,0.30081,0.063338,-0.0025888,0.12238,0.035138,0.01081
-0.0075272,-0.053279,-0.14208,-0.048205,-0.017578,-0.041186,0.0079617,0.0020122
0.025415,0.042062,0.040369,-0.067093,-0.016909,-0.054391,-0.0032056,0.0011285
-0.017389,0.070072,0.12049,0.11525,0.0069889,-0.012038,-0.022479,0.032096
0.0061329,-0.0013828,-0.020128,0.099885,0.038401,0.10034,0.051074,0.017217
-0.065514,-0.10329,-0.65598,-0.050725,0.030572,0.023945,-0.032987,-0.012015
-0.29154,-0.041905,0.39206,-0.32046,-0.16461,-0.19491,-0.095126,-0.063424
0.0032766,0.032742,0.17876,0.1276,0.03143,-0.0015453,0.021076,0.0033253
-0.022231,-0.14643,0.072046,-0.017794,0.0019553,0.010838,0.026998,0.047072
0.44552,0.3335,0.034162,0.080484,0.090979,0.19478,0.056051,0.012426
0.45258,0.034376,-0.26915,0.063872,-0.029687,-0.15169,0.030725,0.086145
-0.27715,-0.27045,-0.023594,0.073165,0.069184,0.042814,-0.064111,-0.11522
-0.24751,0.10711,-0.19624,0.0062686,-0.0038435,0.044656,-0.0094156,-0.021733
-0.087531,-0.058253,0.11253,-0.067594,-0.023202,-0.036565,0.06986,0.015024
-0.1597,-0.077227,0.4032,0.037756,0.017989,-0.044952,-0.11552,-0.043631
0.057976,0.067946,0.11287,-0.17103,-0.14651,-0.051706,0.074729,0.068644
-0.012088,0.020001,-0.24402,-0.046203,0.053502,0.13721,-0.00045734,-0.022233
-0.016139,0.030653,0.1981,0.13098,0.0012781,0.1688,-0.029042,0.020607
0.033282,-0.031915,-0.69528,0.0017461,0.018038,-0.21609,0.019811,-0.0052047
0.076655,0.090199,0.20731,-0.089151,-0.043499,-0.12775,0.036416,0.025759
0.2175,0.005547,-0.0090042,0.046859,0.044353,0.066245,-0.080959,-0.03493
-0.0047486,0.025083,0.35081,0.059002,0.055857,0.053715,0.01143,-0.015815
0.10388,-0.11095,-0.06468,0.0022217,0.014792,0.062122,0.055916,0.035451
-0.084215,-0.099796,0.018286,0.071474,-0.039967,-0.15722,0.0059017,0.024117
-0.39247,-0.0602,-0.03265,-0.0075326,0.039385,0.084636,-0.052311,-0.050865
0.066981,0.35071,0.33778,0.037582,-0.052708,0.14057,-0.016755,-0.0028905
0.058107,-0.17183,-0.73683,-0.20032,-0.035844,-0.21505,0.050465,0.065913
0.065159,0.099546,0.37732,0.098705,0.073764,0.19785,-0.022183,-0.032052
0.12864,-0.13836,-0.37338,-0.14311,-0.059983,-0.23027,0.023363,-0.022916
-0.17843,-0.063213,0.22291,0.10654,-0.0070943,0.21864,0.05443,-0.030762
0.030151,0.006816,0.22115,-0.09611,-0.087198,-0.12835,-0.093024,0.0081749
-0.21097,-0.082621,-0.17624,-0.085404,0.052137,-0.014631,-0.028468,-0.045345
0.35095,0.20877,0.075778,0.29614,0.12266,0.18372,0.044763,0.059903
0.022168,0.12344,0.4353,0.072445,0.046769,-0.096524,-0.037717,0.035656
-0.040939,-0.081616,-0.37445,-0.0068557,-0.066067,-0.089945,0.043967,0.0071012
-0.011478,0.068425,0.16682,-0.091352,-0.075594,-0.061733,0.093975,0.0049954
-0.12609,-0.23345,-0.56022,-0.16702,0.0018097,0.10632,-0.06013,0.012636
0.12029,0.049378,-0.13433,0.10825,0.032352,0.03285,-0.09073,-0.0026682
-0.0015444,0.055488,0.77375,-0.055916,0.015018,0.024122,0.04871,-0.042409
-0.10298,-0.083648,-0.66924,-0.13682,-0.0041917,-0.098145,0.037804,-0.014065
-0.14603,0.029965,0.55604,0.1857,0.021011,-0.02055,0.0096257,-0.0042883
0.088024,-0.07201,-0.18695,-0.017712,-0.050218,0.10861,-0.089914,-0.060025
0.045339,0.088062,-0.011593,-0.027723,-0.061463,-0.11766,0.052565,0.045832
0.11793,0.066314,0.022653,0.093791,0.050283,0.072422,-0.054089,0.01741
0.041752,0.059581,0.1522,0.14424,0.059196,0.051537,0.036453,0.027801
0.029183,0.069221,0.065513,-0.079066,0.013,0.12952,0.028133,0.015658
-0.14524,-0.30998,-0.59674,-0.31791,-0.017154,-0.04769,0.030768,-0.010338
-0.074618,0.0085696,0.22718,0.22505,-0.014905,-0.1538,0.0052654,-0.0028832
0.045942,0.17349,0.15303,-0.066779,-0.018742,-0.048912,-0.1036,-0.032337
-0.072869,-0.15142,-0.28212,-0.059908,-0.020473,-0.084014,0.070382,0.025825
0.021409,0.056536,0.41139,0.019683,-0.012118,0.023946,-0.036593,-0.024485
0.2418,0.14777,0.08227,0.18011,0.029694,0.043264,0.027161,0.050202
-0.084867,-0.066636,-0.1396,-0.13345,0.010913,0.26599,-0.020978,-0.047847
-0.045926,0.075967,-0.038091,0.093939,0.079463,-0.16454,0.067899,0.016654
-0.0019637,-0.05052,-0.10726,0.025196,-0.054398,0.06613,0.01974,-0.0066141
-0.055301,-0.10279,-0.11349,-0.09108,-0.063297,-0.048919,-0.0092024,-0.023842
0.05962,0.013352,0.0061531,0.10313,0.020793,-0.088036,-0.19012,0.027898
-0.062716,-0.013194,0.16727,-0.1588,-0.0058463,-0.028977,0.025143,-0.0069261
0.016682,-0.024012,0.25491,-0.002262,0.051712,0.11859,0.11487,0.0053668
-0.012667,-0.055627,-0.58792,-0.05193,-0.025421,0.13382,0.0027822,-0.012487
-0.054831,0.11307,0.1408,0.16972,-0.0027588,-0.10242,0.010819,0.010515
0.14208,-0.0084818,0.34072,-0.046861,-0.0049699,-0.05244,-0.055213,0.0044351
-0.18637,0.0098099,-0.21452,-0.0048466,0.046559,-0.12302,0.047258,-0.030753
0.17088,0.057568,0.22439,-0.038879,-0.12105,-0.087235,-0.018126,0.037307
0.10338,0.29652,0.48434,0.062779,0.078689,0.27484,0.020918,0.043717
-0.10974,-0.50317,-0.77962,-0.066941,-0.0022533,-0.050794,0.029905,-0.028247
-0.072965,0.12365,-0.060286,0.055733,0.019158,-0.093663,-0.0086666,-0.046951
0.10901,0.064407,-0.1699,-0.039171,-0.075839,0.15542,-0.041835,-0.021276
0.042733,-0.034664,-0.1621,0.076439,0.11098,-0.15436,-0.031783,0.055829
-0.13311,0.19288,0.81605,0.22906,0.11051,0.24257,0.036578,0.051244
-0.05988,-0.43182,-0.46105,-0.38728,-0.18695,-0.12333,-0.039608,-0.073868
0.013042,0.10912,0.3269,0.031486,-0.023819,-0.1597,-0.040597,-0.0062445
-0.10007,0.022024,0.10047,-0.0065947,-0.048536,-0.0010458,0.066373,-0.025927
0.11115,0.11508,-0.12716,-0.031749,0.059413,0.17127,0.025208,0.017011
0.079172,0.14138,0.36767,0.15292,0.058181,0.098049,0.009375,0.0069217
0.04867,-0.13126,-0.78479,-0.17737,-0.028449,-0.245,-0.06588,-0.007977
0.06055,-0.0066725,-0.2734,0.25233,0.034116,0.10289,0.05003,0.074807
-0.063832,0.069451,0.61311,-0.088276,-0.02756,-0.053015,0.075801,-0.025607
0.058677,-0.02931,-0.0060323,0.074461,0.083176,0.054148,-0.043877,0.018676
-0.064232,0.046629,-0.025905,-0.0021462,-0.040299,-0.17547,-0.05219,-0.011861
-0.30005,-0.15788,-0.37231,-0.10816,-0.054638,0.15066,0.0028447,-0.071494
0.10875,-0.027231,0.39585,-0.088547,-0.022646,0.13592,-0.043887,0.018117
0.0056576,0.008009,0.13266,0.03994,0.00086859,-0.022995,0.064638,0.021251
0.18725,0.080591,-0.090513,0.065526,-0.01526,-0.059648,-0.054839,-0.0085797
-0.057942,-0.011997,-0.14918,-0.15286,-0.016112,-0.25523,0.02726,-0.0019513
0.18325,0.020325,0.24397,0.13473,0.061094,0.061436,-0.0014192,0.040611
-0.066959,0.014569,0.18029,0.2567,0.16971,0.26394,0.070352,0.0017876
-0.20844,-0.012817,-0.67073,-0.1614,-0.112,0.0065463,-0.046164,-0.040042
0.038686,0.0088173,0.23595,-0.12666,-0.088709,-0.12712,-0.022568,0.0016569
0.095261,-0.053586,-0.42881,-0.146,-0.02607,0.032521,0.02414,0.01837
-0.047055,0.072616,0.59256,0.21895,0.099332,0.092913,0.039372,-0.027961
-0.14603,-0.027832,-0.11388,-0.11697,-0.10311,-0.22054,-0.078403,-0.034767
0.080133,-0.0047105,0.076956,0.034181,0.038528,0.084205,-0.016683,0.030058
0.069761,0.078273,0.14128,0.10209,0.016479,-0.06224,0.029212,0.049893
0.105,-0.10781,-0.13274,0.094045,0.04948,0.013883,0.028034,0.0093161
-0.079028,0.061846,-0.074472,-0.037836,0.051493,0.1354,0.050108,0.0018995
0.11189,-0.076337,0.10388,-0.13076,-0.094849,-0.10905,-0.037356,-0.0040956
-0.31427,-0.060328,-0.19223,-0.14694,-0.069455,-0.052959,-0.08589,-0.079654
0.13456,0.041031,0.076331,0.19384,0.088414,0.12573,0.013923,0.047959
0.036259,0.010514,-0.065903,0.04723,0.034885,0.076291,0.090244,-0.0046635
-0.0079333,0.036847,0.00030775,-0.12589,-0.050377,-0.029587,-0.044397,-0.026972
0.11893,0.14412,0.035453,0.04989,-0.057928,-0.13047,0.01626,0.035576
-0.083184,-0.097417,-0.059226,0.012886,0.020166,0.068803,-0.024668,-0.027874
-0.067162,-0.016555,0.1796,-0.10309,0.012141,-0.066554,0.020313,0.0016805
0.011362,0.049692,-0.11375,0.031094,0.035232,-0.04628,0.041848,0.054275
0.13773,0.045509,0.53771,0.32254,0.14408,0.22962,-0.077186,0.020906
-0.13999,-0.1862,-0.79645,-0.30628,-0.138,-0.068007,0.0070757,-0.059024
-0.11741,-0.098909,0.13213,0.035549,-0.068956,-0.1505,-0.0020959,-0.028993
-0.059154,0.065421,0.14938,-0.026951,0.023031,-0.017681,-0.034262,-0.0060081
0.31653,0.16682,0.43267,0.01386,0.0052031,0.03418,0.066878,0.033447
0.040661,-0.059505,-0.49664,-0.014198,0.049628,0.11528,-0.0034419,0.026837
-0.11436,-0.058158,-0.13224,0.099429,-0.038718,-0.12516,0.0045642,-0.010357
0.068508,0.13996,0.20474,0.0027628,0.013911,0.2041,0.043714,-0.00023399
-0.092478,0.011289,-0.024925,-0.03899,-0.018806,-0.013812,0.0043284,0.010069
0.0021855,-0.030631,-0.12556,-0.18247,-0.0039506,-0.16163,-0.059083,-0.018748
-0.12574,-0.088125,0.090892,0.13447,0.081856,0.01845,-0.021469,-0.00090145
0.069544,0.041185,0.27344,0.075575,-0.019401,0.057752,-0.054377,-0.014556
-0.076392,-0.11977,-0.17121,-0.015648,-0.034563,-0.0043796,-0.016629,-0.028387
0.13978,0.085114,0.22605,0.11062,0.0048641,-0.073654,0.09242,0.0515
-0.0078999,-0.015792,-0.31553,-0.19413,0.01281,-0.024337,0.038942,-0.024749
-0.034276,0.015518,0.11116,-0.093871,-0.080989,-0.01192,-0.043973,-0.0070717
0.15522,0.085889,-0.055059,0.10697,0.02838,0.018845,0.077942,0.049768
-0.071392,-0.1167,-0.27341,0.15097,0.020947,0.16967,-0.072378,-0.026339
0.036769,0.10328,-0.049936,-0.12547,-0.024825,-0.012931,-0.026984,0.029876
-0.073916,-0.035588,0.17911,-0.026637,0.04752,-0.10014,0.041317,0.014902
-0.17558,-0.088479,0.14049,-0.028778,0.019206,0.10221,0.014484,-0.048124
0.045783,0.084467,0.458,0.11822,0.030573,-0.039883,-0.014331,-0.0030508
-0.033339,0.01364,-0.13661,-0.0076224,-0.036074,0.0039595,-0.045335,-0.02939
0.088235,0.018594,-0.4593,-0.039378,-0.07197,-0.23536,-0.031441,-0.0016888
0.22354,0.052003,0.26765,-0.0086771,0.039504,0.023644,0.027928,0.033833
-0.1512,-0.15956,-0.099014,-0.064334,-0.0067199,0.14108,0.016374,-0.02367
0.072162,0.0094793,-0.16957,0.098068,0.0627,0.071028,0.05971,0.045163
-0.069268,-0.033571,0.033678,0.072206,0.0058026,-0.029437,-0.060167,-0.040569
0.015981,0.0017649,-0.18151,-0.094879,-0.16128,-0.06611,0.032084,0.039436
-0.033614,0.1248,0.24387,-0.1606,-0.00037984,0.078111,-0.015111,0.0035412
-0.039962,0.01652,-0.13869,0.078728,0.15326,0.027636,0.016663,0.0073098
0.011799,-0.017487,0.3153,0.17838,-0.020148,0.00030332,0.017504,0.010843
-0.12818,-0.023744,0.13158,-0.14241,-0.051616,-0.028262,-0.020963,-0.056962
0.14255,0.060062,-0.048917,0.077531,0.12906,0.042857,0.033665,0.06115
-0.049638,-0.16513,-0.1184,-0.021247,-0.064469,-0.20834,-0.092182,-0.088132
0.038836,0.096629,-0.18925,0.014003,-0.031238,-0.0079513,-0.015489,-0.035829
0.1044,-0.022892,-0.10895,-0.090769,-0.076549,-0.042541,-0.017015,0.054579
0.022661,-0.001321,0.26726,0.14808,0.033489,0.28275,0.107,0.035446
-0.065687,0.03534,-0.22776,-0.15297,0.025185,-0.093644,-0.010045,0.024758
-0.059409,-0.093498,0.25545,-0.0023252,0.015728,0.0083837,-0.039684,-0.039365
-0.0058478,0.03325,-0.12794,0.091808,0.01315,0.049536,0.025854,-0.015997
0.032162,0.047739,0.012625,-0.050416,-0.029066,0.021142,0.022048,0.040103
0.054623,0.16824,0.15438,0.1492,0.0223,-0.070239,0.0027804,0.050405
-0.13337,-0.082016,-0.068683,-0.16062,-0.058942,0.00066166,-0.0094923,-0.056027
-0.070162,-0.17165,-0.41298,-0.088783,0.071236,-0.079629,0.023365,-0.037691
0.018483,-0.029783,0.23226,0.076232,0.0067463,-0.030229,-0.071161,0.0032708
0.11751,0.063306,0.23544,0.21792,-0.002358,0.10235,0.027074,0.0040068
0.10198,0.085441,0.48815,-0.11612,-0.04985,-0.094937,-0.064365,0.0035195
0.010326,-0.08704,-0.57134,-0.026786,0.0439,0.13721,0.046026,0.01765
0.06785,0.12514,-0.24707,-0.14627,-0.080539,-0.035536,-0.015553,-6.1892e-05
-0.20373,-0.13669,-0.046251,0.072711,0.068972,-0.049267,0.041233,-0.01787
-0.11873,-0.005222,-0.11688,-0.041579,-0.07012,-0.090574,-0.040366,-0.011891
0.1025,0.034592,0.29894,-0.012874,0.033343,0.18452,0.052762,0.025977
-0.0020195,0.10661,0.15378,0.22054,0.11358,0.0020849,0.0081413,0.017669
-0.0029704,-0.001571,0.16509,0.024626,-0.048379,0.017248,-0.034178,-0.036992
0.13126,0.1617,0.46382,-0.070892,-0.038715,-0.052725,0.11226,0.11164
0.0189,-0.27964,-0.54573,0.018453,0.017363,-0.060923,-0.10851,-0.068134
-0.10406,-0.099319,-0.68524,-0.21623,-0.059947,-0.032029,-0.018009,-0.045434
-0.048104,0.00013494,0.17788,0.06843,0.0028122,0.080121,0.031297,-0.023603
0.0093494,0.10611,0.27141,0.036967,-0.012971,-0.09173,-0.054704,-0.010433
0.047097,0.048712,0.21495,-0.020304,0.080407,0.093572,0.0054593,0.049014
-0.042299,-0.037196,-0.26183,-0.046924,-0.013742,-0.081776,0.0093977,0.014527
0.015941,0.04531,0.24254,0.076187,-0.0062467,0.063018,0.020672,0.027199
-0.058947,-0.038953,-0.23839,0.022488,0.016946,-0.0023135,-0.014279,-0.045371
0.14658,0.061258,0.28863,0.058524,-0.0067773,0.035351,0.046098,0.015837
-0.033098,0.00080488,-0.012661,-0.034398,0.0083516,-0.01136,-0.00079891,-0.0078446
0.0089951,-0.0037539,-0.32355,-0.077389,-0.070641,-0.064702,-0.014336,0.008476
-0.06601,0.021587,0.25981,0.19372,0.0061509,0.11674,0.01281,-0.0057768
-0.018912,-0.058365,-0.10121,-0.20721,-0.0034596,-0.069589,-0.0061651,-0.0040875
0.1634,0.012522,0.083227,0.030647,0.072504,-0.03866,-0.001986,-0.018091
0.057465,-0.063221,-0.063485,0.038874,-0.015778,0.068271,-0.030312,0.037811
-0.22761,0.066623,-0.026296,-0.011141,0.028809,-0.014569,0.033171,0.0071317
-0.11259,-0.15864,-0.10166,-0.08,-0.020017,-0.028958,-0.0070992,-0.032094
-0.024817,0.037009,-0.1166,0.099015,-0.021326,-0.067723,-0.064933,-0.0094851
-0.00022447,0.00018404,0.14115,-0.15216,-0.11544,-0.11398,0.040057,-0.0029505
0.26133,0.19435,0.031957,0.13706,0.11979,0.27895,-0.0036255,0.034705
0.075073,0.019631,0.20446,0.10117,0.020451,-0.012794,0.00042731,-0.02897
-0.026073,-0.054632,0.056404,-0.1102,-0.038478,0.0037116,0.029732,0.017294
-0.057417,0.010038,0.0082605,-0.0043122,0.0052485,-0.093246,-0.016663,0.0018602
-0.09028,-0.022268,-0.12902,-0.0032753,0.010505,-0.022835,0.025447,0.0029511
-0.048601,-0.098975,-0.051763,0.016991,0.015656,-0.012521,0.015088,-0.0029284
0.018047,-0.066094,-0.1426,-0.038722,-0.034782,0.022396,0.021803,0.007457
-0.010382,0.066526,0.014192,0.046587,0.045942,0.010238,-0.064809,-0.028703
0.10573,0.086416,-0.054892,0.05241,0.0072871,0.11378,-0.0036453,0.0054136
0.075403,0.023944,-0.2679,-0.022745,-0.025944,0.050789,-0.045659,0.015693
0.077343,-0.0039085,0.52732,-0.031434,-0.022266,-0.21054,0.027222,0.017456
-0.41181,-0.059215,-0.065072,-0.13808,-0.051329,-0.02957,0.027174,-0.020747
0.10908,-0.13323,-0.067811,0.032598,-0.018393,-0.022963,0.0089271,-0.028667
0.11851,0.19717,0.49417,0.098614,0.069846,0.12268,0.074412,0.056286
-0.084206,-0.11352,-0.40606,0.014241,0.019089,-0.036929,-0.0648,-0.046912
0.089255,0.13909,0.28924,0.015095,0.001886,0.022503,-0.056334,0.021448
-0.07792,-0.14562,-0.77651,-0.053951,0.010614,0.012386,-0.016476,-0.027309
0.15756,0.095353,0.3533,0.1361,0.05275,0.15145,0.040024,0.010315
-0.040088,-0.0051897,0.011758,-0.14853,-0.075607,-0.18578,0.027967,0.025248
0.054935,-0.049297,0.0024505,0.037791,0.015142,2.9318e-06,0.033781,0.009858
-0.13685,-0.030021,-0.17406,-0.062634,-0.058863,0.15341,-0.028299,-0.0045674
0.023602,0.020313,0.13247,-0.067022,0.014036,-0.13999,-0.033437,-0.025939
0.027128,0.17093,0.40107,0.28229,0.061501,-0.051962,-0.0055407,0.039286
-0.025539,-0.1103,-0.20934,-0.15562,-0.018042,-0.011545,0.039065,-0.059169
-0.079853,0.004252,0.28034,-0.029626,-0.013226,-0.0098501,-0.02544,-0.00911
-0.049386,-0.12603,-0.51046,-0.074736,-0.063917,0.071533,0.042308,0.0094611
0.058945,0.015024,-0.064139,-0.018337,-0.012944,-0.00073062,-0.03965,0.035308
0.15234,0.053364,0.081938,0.17764,0.085881,0.039537,0.017255,0.060353
-0.065384,-0.064534,-0.15685,0.13713,0.10039,0.059407,-0.01376,-0.017171
-0.0081431,0.1468,0.6187,-0.039303,-0.12539,-0.012219,-0.023246,-0.080179
0.15176,-0.0071197,-0.53671,-0.18828,0.033421,0.042134,-0.026494,0.011985
-0.21156,-0.049368,0.24326,-0.24754,-0.056479,-0.17742,0.047322,-0.037375
0.057028,0.12156,0.26948,0.25987,0.072944,0.046603,0.07379,0.045484
0.050306,-0.12755,-0.40548,0.0067329,-0.040043,-0.052233,-0.055897,0.034374
-0.005715,0.0074587,0.18495,0.080329,0.033544,-0.013173,-0.044407,-0.015647
-0.095352,-0.028616,-0.023507,0.0056056,-0.050525,0.054831,0.014814,0.012904
-0.15543,-0.11111,-0.26623,-0.16131,-0.018986,0.11359,0.020338,-0.036046
0.20582,0.087948,0.027018,0.09638,0.042376,-0.070158,0.011205,0.025046
-0.080673,0.029477,0.036667,0.045065,0.048045,-0.0031738,-0.0049067,-0.030461
0.040836,0.057218,-0.064158,-0.057145,-0.079514,-0.075261,0.057737,0.039461
0.14119,0.085144,0.81964,-0.030731,-0.027182,0.11244,-0.1292,-0.015389
0.01716,-0.090073,-0.77964,0.029971,0.033677,-0.09637,0.020046,-0.0077019
-0.035042,0.0078463,0.10734,0.0068615,0.048665,0.024407,0.028786,-0.0001254
-0.00073708,-0.10574,0.10557,-0.023062,0.049037,0.1224,0.01414,-0.008362
-0.11518,-0.063816,-0.26195,-0.0063287,-0.051408,-0.092397,0.038573,-0.0011633
-0.0038446,0.086728,0.23062,0.024652,-0.042186,0.004109,-0.030741,0.021537
-0.15885,0.15069,0.12939,0.029859,0.0058749,0.044111,0.0015089,-0.0026472
-0.032738,-0.004562,0.13684,0.23524,0.045464,-0.12102,0.010348,0.027989
0.31284,-0.19136,-0.46615,-0.39845,-0.03304,-0.014435,-0.043231,-0.058282
0.01925,-0.034647,-0.23431,0.004104,-0.057764,0.020859,-0.018516,0.019922
-0.085044,0.11395,0.33249,-0.095424,-0.012847,0.087436,0.014273,-0.01074
-0.00031221,0.051077,0.18753,0.35084,0.12556,0.11606,0.055193,0.013841
0.10072,0.049801,0.26827,-0.046686,-0.017078,-0.2205,-0.020779,0.015515
-0.16596,-0.062132,-0.56641,0.0019796,0.012819,0.0079623,-0.018466,-0.013632
-0.0047474,-0.050607,0.073233,-0.072842,-0.065687,0.07492,0.022818,-0.01908
0.091242,0.053147,-0.10305,-0.020814,-0.04934,-0.059195,0.0089877,0.038018
-0.05802,-0.047337,0.66915,0.0097053,0.030523,0.15934,-0.013438,-0.014431
0.001003,-0.077803,-0.32981,-0.01264,0.072028,0.041773,-0.021321,0.0030842
0.0038144,0.033179,-0.47513,-0.041202,-0.050329,-0.17885,0.024234,0.043596
0.0067461,0.13056,0.52303,0.03307,0.053441,-0.073938,-0.017386,-0.072563
-0.097765,-0.13621,-0.16156,0.014435,-0.0079397,0.058935,-0.013155,-0.03277
-0.019099,0.014666,-0.033829,0.058601,-0.00062896,0.094645,0.013872,0.0069121
0.14207,0.036171,-0.051196,-0.077272,-0.049903,-0.099187,-0.013936,0.038848
-0.012777,-0.010045,-0.17884,-0.050139,0.0083836,0.07208,0.013319,0.0006265
0.085539,0.13237,0.015834,0.19404,0.0028193,-0.054448,0.025792,0.05626
0.16935,0.24288,0.80786,0.20951,-0.018941,0.05371,0.0003923,0.041495
-0.31078,-0.51613,-0.99046,-0.44913,-0.016897,0.014827,0.0076271,-0.083002
-0.029256,0.088527,0.47817,-0.22686,-0.037039,-0.10782,-0.038403,-0.044045
0.011933,0.0096348,0.27257,0.27552,0.046244,-0.04822,-0.012794,0.017617
0.03835,0.029012,0.020993,0.26218,0.11595,0.38891,0.053005,0.016119
0.0033009,-0.03949,-0.39831,-0.14864,0.02336,-0.24209,-0.06003,-0.024834
-0.0059537,0.016845,-0.2233,-0.073271,-0.029066,-0.066808,0.0071394,-0.0032795
0.075299,0.098207,0.13003,0.10594,-0.04215,-0.015551,0.019751,0.026512
-0.093992,-0.059744,-0.017976,-0.1579,-0.086932,-0.042017,-0.0070012,-0.0054678
-0.011104,0.05914,0.19389,0.080104,-0.015372,0.048648,0.01237,0.01806
0.0059427,-0.014228,-0.11414,0.022312,0.024129,0.17797,0.085257,0.042248
0.099294,0.18004,-0.1104,0.081912,-0.014863,-0.17777,-0.030846,0.0042192
0.08981,-0.093859,0.73959,-0.093452,0.0011386,0.028048,-0.12514,-0.065264
-0.10888,-0.1889,-0.65557,0.10507,0.10405,0.11549,0.013414,-0.002591
0.0097909,-0.082663,0.049052,-0.23671,0.013064,-0.079707,0.088287,0.043518
-0.071593,0.099461,0.072149,0.029925,-0.029581,-0.049805,-0.048411,-0.059771
-0.097216,-0.07201,-0.040494,-0.016336,0.030461,0.025593,-0.028854,-0.030955
0.016945,0.083234,-0.048513,0.031412,-0.049644,-0.017285,0.030375,-0.0023896
0.19117,0.18312,0.045904,0.22835,-0.028482,0.025171,0.028156,0.073334
0.072771,-0.037418,0.21712,0.035603,-0.031761,-0.033927,0.050627,0.056051
-0.088807,-0.023454,-0.23987,-0.078294,0.041593,0.087309,-0.027264,-0.046155
-0.14507,-0.10323,-0.021688,-0.23101,-0.019545,-0.055885,-0.041722,-0.014512
0.021801,0.027589,0.042936,0.092471,0.027116,-0.056904,-0.016565,0.010142
-0.001125,0.0092666,0.11822,-0.022453,-0.0055987,0.060907,0.01656,-0.011618
0.11568,-0.033416,-0.27938,0.009797,0.0077525,0.016103,-0.036422,-0.017706
-0.10289,-0.0066504,0.28891,0.079706,0.020743,0.058245,0.043027,-0.016291
-0.0071998,0.0039735,-0.11287,-0.00017803,-0.0053174,-0.063269,-0.010818,0.039278
0.10664,-0.016611,0.094903,-0.02656,0.00014129,-0.0053219,0.005156,-0.022936
-0.011179,0.041596,-0.25061,-0.030464,-0.025248,-0.073139,0.028483,0.023721
0.021802,0.038503,0.20297,0.089917,-0.0033277,0.076691,-0.0032827,-0.015864
-0.0061191,0.060363,-0.0049869,-0.079232,-0.027885,-0.032494,-0.0041435,-0.00081872
-0.025579,-0.11154,-0.085592,-0.037651,0.049441,-0.0021253,-0.036525,0.014401
-0.11559,0.061608,0.4528,0.16025,0.025436,0.035282,0.0090476,-0.0091079
0.043536,-0.092512,-0.57022,-0.1493,-0.045302,0.02542,-0.00010855,-0.00098035
