0.034426,-0.11002,-0.0059834,-0.015115,-0.02922,0.016328,-0.082341,0.015897
0.055337,0.012355,0.033647,0.025681,0.0029779,-0.06567,0.13122,0.031128
0.088184,-0.0063059,-0.098289,-0.011497,-0.011911,-0.13393,-0.031064,0.0094663
-0.022673,-0.010384,0.10624,-0.0018951,0.035397,0.14662,-0.15427,-0.033246
0.011669,0.14022,-0.055741,-0.0082926,-0.019216,-0.044614,0.012596,0.004416
-0.1301,-0.2502,-0.021773,0.000294,-0.027318,-0.13698,0.001756,-0.073408
-0.051356,0.11495,-0.034342,-0.031028,0.050189,0.66731,0.0014138,0.076072
-0.19204,-0.037945,0.062216,0.046084,-0.044436,-0.73979,0.24618,-0.040631
0.41374,0.087891,0.095222,-0.0026782,0.0092083,0.033828,-0.10025,0.14533
0.083383,0.12528,0.11851,0.17451,0.031531,0.16139,-0.16388,0.04661
0.11908,-0.1365,-0.15762,-0.22658,-0.032064,-0.09836,0.069435,-0.033116
-0.1838,-0.056328,-0.022399,-0.033409,0.060698,0.45793,0.019845,-0.21141
-0.48157,0.085499,-0.17847,0.012539,-0.049475,-0.27182,0.13887,-0.089385
0.30566,-0.053346,0.062855,-0.0178,-0.034374,-0.054469,-0.14491,0.13111
-0.15454,-0.10382,0.0548,0.086818,0.020139,-0.10257,-0.050595,0.022276
0.29894,0.10805,-0.036789,0.044944,-0.0030703,0.29313,0.30531,0.062812
-0.078403,-0.15012,0.039508,-0.058282,0.028808,-0.087423,-0.39586,-0.0031338
-0.15643,0.23258,0.11246,0.049233,-0.0014923,-0.22149,0.067112,-0.0022767
0.27969,0.16311,-0.0058148,0.053338,0.015234,-0.077751,-0.05303,0.0034943
-0.40883,-0.4293,-0.074524,-0.024126,-0.061878,-0.046057,-0.081941,-0.064194
0.37108,0.20365,0.34953,0.16729,0.087208,0.32012,0.26314,0.16086
0.092782,-0.050376,-0.43133,-0.40392,-0.02994,0.31904,0.036953,-0.13533
-0.39756,-4.0782e-05,0.041815,-0.10417,-0.077545,-0.34491,-0.035564,-0.095015
0.010507,-0.079683,-0.24006,-0.025451,0.0225,-0.022258,0.14409,-0.00086908
0.73977,0.1981,0.30889,0.57689,0.075028,-0.32947,-0.013907,0.25554
-0.44214,0.22748,0.14284,-0.060087,0.0022212,0.40578,0.049158,0.025518
0.36754,-0.30708,-0.21279,-0.20741,-0.015795,-0.12099,-0.2007,-0.096694
-0.76901,0.085458,0.15859,-0.0039879,-0.048833,-0.0192,-0.35818,-0.078732
0.018466,-0.15623,-0.26386,-0.24599,-0.041727,0.28892,0.22629,-0.29416
-0.80327,-0.2863,-0.056144,0.066119,-0.0019492,-0.39258,-0.38966,-0.39792
0.91372,0.08385,0.30639,0.40726,0.03934,-0.080319,0.46201,0.67309
0.57488,0.5552,-0.14502,-0.23307,0.074086,0.13853,0.16034,0.59808
0.20092,-0.14583,0.15074,0.094892,0.047018,0.51254,0.32563,0.015988
-0.56557,0.011225,0.06619,-0.026505,-0.066148,-0.39724,-0.46242,-0.59916
-0.093186,-0.29639,-0.073745,0.048026,-0.00071588,-0.029561,0.092962,-0.046946
0.059162,-0.15953,-0.092617,-0.18367,-0.046544,-0.057125,-0.18937,-0.24349
0.088754,0.19518,-0.016479,-0.034792,0.014669,-0.1208,0.28995,0.31831
0.2318,-0.0010586,-0.16708,-0.020084,-0.02799,0.19384,-0.26818,-0.12632
-1.0086,0.11302,0.06501,0.10499,-0.080244,-0.18265,-0.045088,-0.48141
0.98252,0.63899,0.3219,0.10944,0.17132,0.086805,0.23978,0.79515
-0.88036,-0.3534,-0.4719,-0.35455,-0.092474,0.62841,-0.49145,-0.10609
0.95292,-0.058907,0.24936,0.28685,0.020082,-0.71299,0.6528,0.12987
0.2299,-0.13063,0.20771,0.13785,0.080158,0.14169,-0.25598,0.2936
-1.0275,-0.54614,-0.14883,-0.018857,0.017909,0.091683,-0.20913,-0.59097
-0.3444,-0.28699,-0.099734,-0.089364,-0.1354,-0.20605,0.0042993,-0.43047
0.59582,0.36353,-0.019436,-0.12937,0.002615,-0.00091698,0.32856,0.21944
0.45861,0.43604,0.075791,0.031174,0.056196,0.17624,0.23805,0.34174
-0.23491,0.030827,0.035795,-0.01623,-0.053782,0.25522,-0.32485,-0.0028108
0.20464,0.15205,0.069054,0.030819,0.077852,-0.63147,-0.16795,0.058765
0.35453,0.15198,0.00090186,0.12342,0.028211,0.242,0.15931,0.16493
-0.63879,0.019976,-0.2182,-0.16184,-0.047237,0.31983,-0.11003,-0.53793
-0.33891,-0.54639,0.073722,0.11156,-0.016101,-0.03994,-0.12404,0.18299
0.66216,-0.022722,0.01603,-0.017651,0.035722,-0.080748,0.63507,0.38167
-0.51243,-0.040579,0.045975,-0.033585,-0.047502,-0.25661,-0.65705,-0.30867
-0.1097,0.035825,-0.093572,-0.060505,-0.077357,0.13533,-0.081549,-0.21453
0.16681,0.32145,0.07537,0.058905,0.0019876,-0.26387,0.17123,-0.09889
0.24166,-0.081471,0.015586,0.044594,0.12136,0.49215,0.17584,0.48682
-0.62332,-0.38053,-0.067867,-0.12575,-0.038675,-0.14215,0.028725,-0.31354
0.72353,0.062362,0.014223,0.095632,0.12391,-0.29047,0.058614,0.48704
-0.045221,0.39409,0.10686,0.068634,-0.10969,-0.10039,-0.40014,-0.76624
0.37981,0.073997,0.0623,0.0043378,0.010032,0.52985,0.45378,0.51252
-0.094687,-0.18956,-0.12715,-0.019307,0.036953,0.21692,0.3191,0.048372
-1.1989,-0.34607,-0.15716,-0.17456,-0.10792,-0.063631,-0.16007,0.080767
0.86519,0.22334,0.065362,0.053754,0.012139,-0.32857,-0.74485,-0.049996
-0.38011,0.3466,0.16457,0.063639,-0.0096036,-0.57875,-0.17119,-0.83965
0.85239,0.20937,0.014592,0.034432,0.12355,0.3339,0.50659,1.0447
-0.58743,-0.59756,-0.12753,-0.073194,-0.096113,0.073613,-0.068982,-0.5006
-0.52038,-0.31992,-0.028016,0.045256,-0.012011,-0.038985,0.018758,0.20322
0.68776,0.21052,0.086213,-0.00097667,0.024698,0.58218,0.62371,-0.15609
-0.21697,0.20122,-0.074002,0.0067909,-0.0012206,0.069559,-0.57319,-0.11643
0.41263,0.50842,0.18679,0.092021,0.13709,-0.5543,0.16214,0.16772
-0.35936,-0.68315,-0.24051,-0.12795,-0.12269,-0.16558,-0.062738,-0.028212
0.096343,0.18667,0.011651,-0.082526,-0.069548,0.2268,-0.18832,0.37575
-0.60423,-0.28233,0.068544,0.064634,0.046519,0.012846,-0.24933,-0.70476
0.90674,0.57295,0.078728,0.032727,0.038025,0.0051692,1.1103,0.79402
-0.072283,0.20573,0.065541,0.056514,0.045639,0.22814,-0.46323,-0.064254
-0.55547,-0.50755,-0.17446,-0.043468,-0.078979,-0.55102,-0.81462,-0.61434
-0.26925,-0.14998,0.061399,0.014012,0.00023701,0.43533,0.59611,0.035745
0.049665,-0.029931,-0.063299,-0.06039,-0.05253,-0.27954,-0.58002,-0.22189
0.59079,-0.095683,0.07607,0.060942,0.067453,0.23568,0.91869,0.61404
0.60222,0.1341,-0.012861,0.025793,0.047583,-0.20558,-0.2938,-0.02608
-0.74195,0.23342,0.021538,-0.041527,-0.034317,0.31858,0.068403,-0.15039
0.21405,-0.05378,-0.12511,-0.086941,-0.069387,0.08085,-0.36559,-0.080701
0.25767,0.12343,0.024258,0.045374,0.05889,-0.38098,0.68084,0.41473
-0.95567,0.28553,0.14213,0.081805,0.052915,0.088007,-0.6028,-0.11273
0.69278,-0.11111,-0.0052302,0.014665,0.037072,0.34626,0.073163,-0.11184
-0.70592,-0.54816,-0.034431,-0.046239,-0.090539,-0.61421,-0.25305,-0.59338
0.76336,0.32936,-0.062171,-0.014251,-0.025142,0.39479,-0.091674,0.19067
-1.106,-0.62972,-0.11933,-0.099363,-0.078652,-0.43785,0.42831,0.19265
0.87202,0.4569,0.21622,0.10574,0.11717,0.053562,0.55163,0.8192
0.6886,0.17687,0.030506,0.047412,0.048046,0.63596,-0.087111,-0.42048
-0.88478,-0.20082,-0.16086,-0.11727,-0.17522,-0.065213,-0.21249,-0.99306
0.79629,0.46872,0.11067,0.080924,0.11262,-0.37104,-0.64155,0.79924
-1.1029,-0.40409,-0.084892,-0.037717,-0.048657,-0.11947,-0.1969,-0.38484
0.033251,-0.3081,-0.091782,0.0028222,0.10659,0.27245,0.42669,0.2303
0.49809,0.32884,0.18314,0.068688,0.046415,-0.026805,0.24827,0.37287
0.53636,0.19426,-0.026477,-0.021202,-0.10551,0.40148,0.023688,-0.10459
-0.34218,-0.07303,0.051978,0.02068,0.047532,-0.43711,0.54937,0.32968
-0.21336,-0.038814,-0.10574,-0.064895,-0.066559,-0.090205,-1.1433,-0.72252
-0.66744,-0.14477,0.030932,0.025712,0.0038134,-0.2756,0.48406,-0.1672
0.30877,0.25329,-0.015024,-0.059566,-0.00016514,0.21234,-0.12533,0.019326
0.53536,-0.25443,-0.040601,-0.031541,-0.09444,-0.13844,-0.32809,-0.06928
-0.032686,0.025267,0.040387,0.094868,0.13543,0.30095,0.18751,0.2458
0.59269,0.20925,0.033219,0.016115,0.081055,0.96361,0.53386,0.73588
-0.89603,-0.19315,0.040315,-0.024254,-0.08431,-0.97611,-0.4226,-0.58693
-0.52451,-0.29611,-0.16389,-0.040527,-0.085667,-0.43889,0.7131,0.39786
0.0017758,0.21673,0.085678,0.015278,-0.015289,0.45803,0.16314,0.060726
0.62473,0.17733,0.094568,0.065757,0.073296,-0.28648,-0.54422,-0.36734
0.66724,-0.028522,-0.1366,-0.04508,0.024498,0.14586,-0.36143,-0.33275
-0.14391,-0.00088997,-0.013774,-0.028362,0.018062,0.37738,-0.52458,-0.21651
-0.5999,0.21309,0.14268,0.052855,-0.0012335,0.014525,0.15813,-0.27973
-0.095314,-0.21653,-0.019146,0.010299,0.051556,0.054468,0.28234,0.72609
0.34157,-0.097308,-0.038837,-0.031843,-0.10605,-0.66903,0.92383,0.30758
-0.55967,0.12236,-0.0029079,-0.019573,-0.0064876,0.42883,-1.0905,-0.30326
1.0799,0.39311,0.025663,0.038852,0.075861,-0.18306,0.53338,0.88108
-0.8748,-0.56754,-0.062793,-0.075466,-0.15638,-0.38623,-0.3516,-0.96724
-0.56522,-0.439,-0.11993,-0.0030388,0.070165,0.52451,0.65692,0.032334
0.97036,0.39762,0.10427,0.029834,0.021464,0.19202,-0.20054,-0.21032
-0.00066165,0.093293,0.0082484,0.015601,0.018382,-0.11623,-0.18072,0.32311
0.12557,0.32245,0.11527,0.040318,0.053701,-0.016294,0.15126,-0.27879
-0.77361,-0.42874,-0.051676,-0.021136,-0.067423,-0.007938,-0.50593,0.010678
1.0382,0.51208,0.045791,0.049628,0.045895,-0.17756,0.49967,0.68816
-0.46841,-0.098221,0.00062011,-0.013536,-0.020379,0.075538,-0.17804,-0.013869
-0.19859,-0.097689,-0.078516,-0.047089,0.0070587,-0.17923,-0.48347,-0.65038
-0.6516,-0.44212,-0.07481,-0.043577,-0.067311,0.25282,0.37727,-0.33724
0.50852,0.12375,-0.035042,-0.0030568,0.037595,0.090236,0.67082,0.46728
0.39813,0.22308,0.11952,0.027909,-0.014205,-0.15101,-0.62174,0.079279
-0.1486,-0.1527,-0.039805,-0.0047114,0.019608,-0.06386,-0.22761,0.11204
0.94403,0.44998,0.089806,0.087486,0.076844,0.016934,0.26033,0.33487
-0.90472,-0.39703,-0.060711,-0.085116,-0.092026,0.037994,-0.3989,-0.81172
-0.14211,-0.081999,0.025327,0.0096966,-0.025495,0.070812,0.71687,0.17434
-0.31558,0.093156,-0.018548,0.021144,0.034847,-0.18072,-0.15168,0.50516
-0.15823,-0.04072,0.0032903,-0.011203,-0.0042185,0.11946,-0.094409,-0.54555
0.84072,0.21387,0.020432,0.045649,0.076427,0.033166,0.36657,0.68589
0.036849,-0.29026,-0.092574,-0.066274,-0.082467,0.0042714,-0.3401,-0.44988
-0.80016,0.18135,0.030733,-0.027132,-0.051389,0.030707,-0.70956,-0.57136
0.25462,0.11983,0.037894,0.060782,0.098856,-0.014891,0.25387,0.28062
0.17109,-0.12524,0.037331,0.024684,0.015925,-0.10353,0.37305,0.51008
0.495,0.22507,0.02816,-0.027047,-0.027739,0.083364,0.36886,-0.29987
-0.23782,-0.21421,-0.091877,-0.017268,-0.0019792,0.1543,0.14968,0.40993
0.38995,0.086789,0.020572,-0.017161,-0.064106,-0.44525,-0.42239,-0.067261
-0.61861,-0.34872,-0.04078,0.019486,0.011553,0.020266,-0.53086,-0.57848
-0.7437,-0.14482,-0.017792,0.01416,0.091581,0.41217,0.45499,0.31142
0.94277,0.24712,0.035471,-0.0097779,-0.082075,-0.2203,-0.41014,-0.1249
-0.40211,0.3369,0.13544,0.041674,0.076689,0.25796,0.61012,0.30911
0.044976,-0.053643,-0.084247,-0.018429,-0.03312,-0.1902,-0.18374,-0.28162
0.46026,-0.072479,-0.075986,-0.087718,-0.066819,-0.23549,0.095756,0.19403
-0.33133,-0.095454,0.027888,0.084768,0.086164,0.21613,-0.12455,-0.077802
-0.31824,-0.093449,-0.05373,-0.06248,-0.096282,-0.039057,0.027182,-0.24665
0.6734,0.28985,0.10079,0.018281,0.043376,0.10695,-0.54686,-0.49408
-0.051941,0.043197,0.022061,0.038596,0.021815,-0.050875,0.4526,0.75425
-0.30138,-0.50846,-0.048697,-0.0091058,-0.004049,0.21981,0.91697,0.59336
0.42872,0.20286,0.043615,0.031262,0.051889,-0.19994,-1.0609,-0.28331
-0.80428,0.16045,-0.022458,0.0029259,-0.029475,-0.16272,0.087108,-0.31023
0.22104,-0.064942,0.002169,-0.024572,-0.038023,0.034488,-0.19719,-0.29114
0.0081927,0.067592,-0.05488,-0.013023,0.017278,-0.052674,0.37913,-0.13224
0.2967,-0.071681,0.0017383,-0.041325,-0.028949,0.22598,0.16355,0.63565
0.88293,-0.096073,-0.0070991,0.022779,0.032944,-0.064919,0.050798,0.18636
-0.89525,-0.0014386,0.013356,0.007148,0.014378,-0.11864,-0.6574,-0.60076
-0.54914,-0.049583,0.040906,0.028996,0.016185,-0.050949,-0.064441,-0.44511
-0.25219,0.18431,-0.079454,-0.05985,-0.079103,0.17771,0.87608,0.72575
0.5653,0.28782,0.16112,0.061333,0.056846,0.37148,-0.045779,0.2601
-0.20698,-0.52797,-0.12734,-0.02106,-0.028428,-0.56481,-0.46042,-0.51568
0.77203,0.26691,0.078797,0.02151,-0.0057777,0.54667,0.034264,0.17849
0.028197,-0.017445,-0.064436,-0.029388,0.024466,-0.49119,-0.26813,-0.53407
0.006166,-0.095012,0.0049091,0.021761,-0.0067583,-0.10152,-0.042505,0.86692
-0.11774,0.13266,0.028303,0.0031754,0.0031965,0.12935,0.53574,-0.51466
-0.81735,-0.16524,-0.041846,-0.038247,-0.0074216,0.0065277,-0.13978,0.055158
0.3626,0.20481,0.059527,0.022484,-0.0070634,-0.12526,0.23666,0.018536
-0.34871,-0.34386,-0.074121,-0.0099509,0.01189,0.28978,-0.55482,0.15133
-0.0022875,0.13444,0.072861,0.044154,0.064413,0.025879,0.22477,0.2594
1.0943,0.17226,-0.10856,-0.088594,-0.053615,0.21604,0.45358,0.12521
0.033263,-0.033205,0.09312,0.068421,-0.030863,-0.46832,-0.52988,-0.40483
-0.84236,-0.050193,0.045793,0.015243,0.069027,0.12815,0.44149,-0.48948
-0.43071,-0.16591,-0.14831,-0.068446,-0.09862,-0.17526,-0.28413,0.19232
0.79263,0.23033,0.081612,0.036032,0.043764,0.3863,-0.30178,-0.18373
-0.30359,-0.032816,0.0092046,0.023833,0.035132,-0.17956,-0.12606,0.16191
0.50132,0.067776,-0.021953,-0.034968,-0.046052,0.049538,0.23044,0.50959
-0.21246,-0.086229,0.065711,0.031217,0.011863,-0.20648,0.15482,-0.040687
-0.24761,-0.18414,-0.048991,-0.0044759,-0.016729,-0.11784,0.38614,-0.039311
-0.27429,0.029627,5.1395e-05,-0.0016799,0.048888,0.35624,-0.36837,-0.16429
0.16179,0.10742,0.00080125,-0.015251,-0.055988,-0.20476,0.21451,-0.080702
0.10013,0.20335,-0.032059,-0.029609,0.020867,0.25443,-0.33255,0.13794
0.67304,0.15184,0.072728,0.017831,-0.0015021,-0.22757,-0.03307,0.080885
-0.38644,-0.21961,0.025919,0.056948,0.10336,0.33213,0.10377,-0.12383
-0.46315,-0.40259,-0.14094,-0.068258,-0.086902,-0.40466,0.067849,-0.12094
0.3626,-0.0046666,0.010354,0.025274,0.0050997,0.50475,0.26246,0.25862
-0.56734,0.21141,-0.027004,-0.03726,-0.090248,-0.6686,-0.69063,-0.8926
0.73035,0.21783,0.076196,0.072368,0.10279,0.26889,0.7131,1.035
-0.033244,-0.044527,0.08655,0.0025961,-0.0024064,0.08212,-0.59975,-0.5199
-0.044065,-0.026069,0.012564,-0.012281,-0.023425,-0.17378,0.086819,0.06932
-0.033472,0.056015,-0.020417,-0.019258,0.0083642,0.22922,0.33303,0.31977
-0.52848,-0.31377,-0.12957,-0.057506,-0.024041,-0.14417,0.3716,0.49822
-0.039789,0.21478,0.036433,0.036981,0.012612,0.12272,-0.75145,-0.73043
0.63276,-0.11883,-0.030615,0.029829,0.025187,0.03251,0.22187,0.11909
-0.37422,0.087983,0.067274,-0.00078961,-0.016883,-0.28757,-0.003972,-0.24106
0.58953,0.2607,-0.014118,-0.039194,-0.027026,0.17968,-0.2701,-0.23105
-0.48455,-0.19073,0.013813,0.016203,0.0030419,0.13022,0.69287,0.48707
-0.25629,-0.074425,-0.0056203,0.024745,0.011043,-0.35815,-0.43851,-0.46773
0.64329,0.044976,0.02093,0.03321,0.067214,0.26794,-0.065371,0.32723
-0.36386,-0.2314,-0.024053,-0.052296,-0.039753,0.092289,-0.14352,0.18374
-0.020375,0.20723,-0.0079768,-0.020993,-0.052651,-0.18454,0.68314,0.48989
0.29914,0.0045897,-0.0012245,0.001992,0.019975,0.19269,-0.48044,-0.50058
0.26134,0.063469,0.01193,0.05566,0.083655,0.0032044,-0.093444,0.098008
-0.59664,-0.08774,0.039566,-0.0084038,-0.041867,-0.011804,0.031304,-0.73472
-0.24948,-0.1161,-0.097616,-0.041662,-0.028768,-0.32858,-0.10097,0.53672
0.23022,0.12295,0.03051,-0.0048944,-0.02545,0.062312,0.37206,0.02001
-0.22748,-0.10255,-0.036594,-0.038553,-0.07842,-0.37556,-0.09549,-0.12029
-0.13681,-0.0029613,0.029473,0.06063,0.094204,0.7436,-0.18354,-0.092594
0.36208,0.3344,0.10381,0.050549,0.055695,0.0082846,0.56055,0.091503
0.82957,0.16439,0.014477,0.0093453,0.017771,-0.1347,-0.33915,0.085268
-0.81052,-0.43094,-0.027742,-0.031753,-0.026706,-0.17758,0.26872,0.61236
0.61181,0.19288,-0.069834,-0.049309,-0.053798,-0.075128,-0.53137,-0.47908
-0.33807,-0.28763,-0.033621,0.0036264,0.0071129,0.021249,-0.59646,-0.80279
-0.080622,-0.17894,-0.043821,-0.029022,-0.0079261,0.37344,0.57933,0.50282
0.15933,0.30009,0.048492,0.009245,0.018205,0.063655,0.51227,0.75899
-0.84114,-0.091478,0.040761,0.048371,-0.0084832,-0.27037,-0.64756,-0.79256
0.55718,0.28909,0.0037563,-0.013036,-0.025889,-0.090864,0.2805,0.15118
-0.36309,0.1783,0.047008,0.0594,0.090442,-0.037717,0.15467,-0.021889
-0.21586,-0.78963,-0.079767,-0.03921,-0.019518,-0.15499,0.21287,0.13022
0.71362,0.065072,0.036739,-0.012386,-0.036158,0.014816,-0.052547,0.14307
0.092374,0.13926,-0.081188,-0.071587,-0.061708,0.21116,-0.4803,-0.16615
0.44495,0.87515,0.15884,0.079514,0.082973,-0.045677,0.26067,0.10651
-0.21399,-0.23127,0.021145,0.042005,0.061602,0.23186,-0.093245,-0.33695
-0.44938,-0.16051,-0.081158,-0.043791,-0.10247,-0.072377,-0.25863,-0.18386
0.19693,-0.44639,-0.1484,-0.060747,-0.049694,0.0090279,0.15835,0.41865
-0.25356,0.31723,0.19487,0.06166,0.079748,0.043059,0.69374,0.49608
-0.65262,-0.38222,-0.13602,-0.012048,-0.0025901,-0.021696,-0.87244,-1.0118
0.37642,-0.1481,-0.006408,-0.023411,-0.0069361,-0.24464,0.085265,0.42835
0.15698,-0.073889,-0.031302,-0.010768,-0.01853,0.065633,0.63893,0.28649
0.69254,0.46608,0.088214,0.026562,0.017906,0.055249,-0.6698,-0.35888
0.040531,0.41637,0.11927,0.089096,0.11061,-0.1356,0.091507,0.53844
-0.77452,-0.25032,-0.04689,-0.065084,-0.11522,0.064752,0.26112,-0.55435
-0.02701,-0.12008,-0.043454,-0.037573,-0.034559,0.049486,0.23101,0.18875
-0.087068,-0.24422,-0.11399,-0.055262,-0.061682,-0.3112,-0.94406,-0.80498
1.0253,0.5724,0.11439,0.076571,0.11552,0.47751,0.96896,1.1105
-0.39781,-0.33665,0.029763,0.021202,0.012114,-0.012506,-0.3371,-0.14494
0.11569,0.50253,0.074965,0.059002,0.064888,0.078329,-0.0060284,0.052095
-0.90586,-0.81742,-0.15829,-0.07651,-0.094115,-0.19635,0.091808,-0.33033
0.044535,-0.13824,-0.022778,-0.042279,-0.043762,0.067876,0.086833,-0.057525
0.23384,0.67898,0.082878,0.044087,0.059108,0.0097149,-0.44371,-0.049903
0.65738,-0.3945,-0.090457,-0.036229,-0.012399,-0.19243,0.64973,0.12474
-0.44648,-0.16511,0.021454,0.045202,0.038592,0.070665,-0.60621,0.016589
-0.29255,0.070864,-0.016624,-0.03912,-0.06882,-0.16863,-0.13628,0.13709
0.30961,0.2835,0.016419,0.0085205,-0.0058436,0.029316,0.32316,0.028783
0.61148,0.53577,0.1851,0.079672,0.079966,0.01084,-0.51141,-0.44605
-0.80113,-0.50203,-0.13426,-0.090438,-0.068234,0.14541,0.95,0.94893
0.62506,-0.14683,0.0040959,-0.0011567,0.003574,0.43432,-0.21296,-0.98077
-0.39324,-0.1795,-0.033081,0.011923,0.046058,-0.34124,0.17007,0.49095
-0.74868,0.16324,0.049913,0.026912,-0.049839,-0.2687,-0.76476,-0.76267
0.7683,0.1035,-0.021972,-0.019065,0.0048554,0.28999,0.41333,0.78657
-0.19431,0.245,0.0073677,0.021771,0.014339,-0.19163,-0.12378,-0.49049
0.19224,-0.29309,-0.027594,0.015797,0.055951,0.20551,0.72575,1.0106
0.53897,0.25764,0.067533,0.032544,0.050653,0.010803,-0.67672,-0.62158
-0.17505,0.065763,0.050351,0.0011423,-0.041441,-0.034055,-0.14676,0.28055
-0.97006,-0.68227,-0.25048,-0.13328,-0.1271,-0.3186,0.042596,-0.45766
0.39186,0.1867,0.033381,-0.0032471,-0.0032489,-0.0591,-0.0032049,-0.18032
-0.10158,-0.097629,0.083092,0.032537,0.041464,0.15401,0.19918,0.33363
0.1458,0.070313,0.032905,0.037514,0.023482,0.15229,-0.076063,-0.6455
0.11131,0.31924,-0.01459,-0.042047,-0.071829,-0.06159,-0.077899,0.45101
0.39495,0.10462,0.089388,0.075829,0.11581,0.48248,0.21698,0.43435
-0.50731,0.12984,0.031899,0.03206,0.024446,-0.30955,0.071593,0.052272
0.093728,-0.35693,-0.14129,-0.064205,-0.080224,-0.31456,-0.62153,-0.50413
0.65174,0.3753,0.17768,0.083197,0.11381,0.19104,0.59683,0.42256
-0.69979,-0.36488,-0.21584,-0.11272,-0.12876,-0.14786,0.042003,-0.38771
0.10385,-0.22146,-0.033986,-0.0046903,0.011165,0.094975,0.30815,0.28838
0.012864,0.18659,0.097671,0.023427,0.016725,0.080804,-0.34758,-0.17865
-0.70678,0.039257,0.015218,0.033393,0.011903,0.089093,-0.65986,-0.24675
0.99533,0.0029763,0.0085387,-0.0063283,0.058599,0.025589,0.66961,0.40001
-0.67175,-0.13706,-0.053879,-0.033037,-0.093246,-0.37449,-0.63634,-0.14792
-0.21665,-0.063754,0.0013288,0.0086013,0.0021874,0.039372,0.41375,-0.13451
1.0392,0.21149,0.0036612,-0.013256,-0.0056627,0.28581,0.3611,0.54952
0.13972,0.25401,0.11035,0.027502,0.040768,-0.014476,-0.12588,-0.32862
-0.99059,-0.38065,-0.10008,-0.039954,-0.060261,-0.17829,-0.33046,-0.29727
0.77304,0.44677,0.051832,0.019532,0.012753,0.0161,-0.0042493,0.0067082
-0.51719,-0.2904,0.010591,0.03446,0.088696,0.25826,0.42104,0.34502
-0.045048,0.090907,-0.037491,0.035979,-0.01194,-0.3572,-0.69848,-0.56039
-0.21366,-0.28111,0.039074,-0.023331,-0.023959,0.24743,0.95241,0.43285
0.58194,0.26937,-0.065605,-0.034958,0.0048256,-0.093533,-0.99291,0.16052
-0.19279,-0.28347,-0.055511,-0.015526,0.010672,0.17207,0.58116,0.28458
0.51525,0.20053,0.092409,0.01841,-0.031136,-0.21665,0.28837,-0.034506
-0.53553,-0.2225,-0.043599,-0.011949,-0.020083,0.041827,-0.56339,-0.53527
-0.15482,0.27072,0.076084,0.057165,0.066658,0.085307,0.25525,-0.1433
0.091849,0.0044013,-0.05549,-0.086619,-0.11472,-0.11957,0.052377,0.23284
-0.45366,-0.10337,-0.0076374,0.018158,0.029998,-0.10526,-0.12819,-0.040061
0.55831,0.11491,0.040917,0.036358,0.032957,0.057747,-0.43603,-0.35114
-0.086482,-0.33068,-0.065298,-0.038912,0.020235,0.55767,1.0361,0.83379
-0.0034292,0.20121,0.049209,0.011951,-0.030568,-0.6665,-0.95917,-0.50519
-0.16301,0.12372,0.0095952,0.017696,-0.0093041,0.19194,0.011797,-0.12261
1.0232,0.38764,0.026626,0.025474,0.092194,-0.013187,0.046782,0.51507
-0.84383,-0.60406,-0.040757,-0.019518,-0.062116,-0.029653,0.38346,-0.13821
0.49196,0.12165,0.0099823,0.038508,0.042879,-0.074322,0.15644,-0.27065
-0.44745,-0.19616,-0.095217,-0.082397,-0.05452,0.3385,0.29537,0.084526
-0.52825,0.16701,0.064974,0.031062,0.01987,-0.12652,-0.38886,0.049646
0.29353,0.12454,0.044862,-0.0046001,-0.04712,-0.1101,-0.29728,0.043882
0.26962,0.13041,0.086475,0.091442,0.087888,0.058916,0.16906,0.20582
0.37502,-0.28197,-0.091362,-0.063715,-0.059485,-0.026781,-0.51521,-0.20754
-0.52888,-0.16418,-0.14461,-0.11044,-0.074848,-0.024663,0.7742,-0.17207
-0.40678,0.1826,0.075592,0.022106,0.026713,-0.053069,-0.68885,-0.42782
0.27668,0.10535,-0.00060746,0.022068,-0.0042339,0.058926,0.057861,0.16117
