-0.13986,-0.07896,0.13358,0.051784,0.00037304,0.0053357,0.046646,-0.35611
0.065232,0.01479,-0.087741,-0.037709,0.0067716,0.18885,0.30442,0.40837
0.066702,0.0044737,-0.024109,-0.0095855,-0.0091615,-0.26588,-0.098725,-0.022752
-0.066258,-0.062351,-0.15053,-0.012033,-0.023909,-0.0069056,-0.41529,-0.37888
-0.1,-0.043817,-0.003934,-0.0057769,0.017168,0.27852,0.27421,0.31325
0.051288,0.046042,0.12122,0.024938,-0.026739,-0.30021,-0.23682,-0.62908
0.34912,0.15417,0.15684,0.072306,0.070608,0.10039,0.19449,0.39352
-0.21307,-0.21808,-0.23138,-0.074744,-0.027164,0.16727,0.6927,0.4348
-0.407,0.25825,0.11354,0.028839,0.01538,-0.16292,0.38759,-0.31746
0.21452,0.020826,0.21467,-0.023546,-0.021009,-0.016291,-0.94455,-0.31507
-0.010988,-0.29019,-0.28869,-0.0057172,0.0038781,0.15275,-0.84845,0.14699
0.18295,0.14457,0.031092,-0.043023,-0.082106,-0.28211,1.0145,-0.0075246
-0.039862,-0.090171,-0.094013,0.043957,0.033454,0.13885,-0.28907,0.089861
0.030042,0.12155,0.23211,0.044139,0.069426,0.18814,-0.27635,-0.13097
-0.031668,-0.049461,-0.14084,-0.034661,-0.012944,-0.25198,0.9203,0.64923
0.24085,0.16169,0.051701,0.057729,0.068078,0.34979,-1.0017,-0.16549
0.18095,-0.22975,0.059646,-0.037704,-0.054062,-0.25586,0.30468,-0.24199
-0.75199,-0.098782,-0.15514,-0.054803,-0.050492,-0.051903,0.87464,-0.77047
0.020242,0.17981,0.12012,0.0070853,-0.068859,-0.13795,-0.20953,0.41128
-0.00051338,0.090668,0.012837,-0.015431,0.024371,0.042923,-0.51399,0.74816
0.44677,-0.22547,-0.29475,-0.035878,0.026567,0.35223,-0.69106,-0.43033
-0.0325,0.30928,0.24636,0.13349,0.062841,-0.31005,0.33288,0.68368
-0.59116,-0.48538,-0.25334,-0.085644,6.0137e-07,0.1192,0.2007,-1.1003
0.51506,0.36609,0.2449,0.087325,0.071543,0.022238,0.4754,-0.22193
0.2315,0.26097,0.082881,0.041949,-0.020666,-0.0088178,0.3897,0.41849
-0.28781,-0.23933,0.26509,-0.12933,-0.16085,-0.10917,-0.70102,-0.12749
0.21083,-0.15103,-0.10324,0.0096935,0.055952,0.52324,-0.5997,0.53309
0.11283,0.041614,-0.21367,0.059551,0.097601,-0.17629,0.79568,-0.09289
-0.54792,-0.16044,-0.17074,-0.066222,-0.090896,-0.70898,-0.2335,0.28693
0.4511,0.057008,-0.14743,0.0074665,-0.0013695,0.25348,0.26683,0.02433
-0.44682,0.18038,0.25586,-0.015541,-0.031301,-0.037347,0.049567,-0.50742
-0.18666,-0.21805,0.034628,-0.0090297,-0.0074362,0.2337,-0.23889,-0.67752
0.23413,0.22243,0.021886,0.067561,0.11863,0.5776,-0.1674,0.65407
0.093038,0.26005,-0.081558,0.020426,-0.034499,-0.7917,0.042463,0.48186
0.52758,-0.3089,-0.13002,-0.078879,-0.012709,0.073316,0.1097,-0.71131
-0.16098,-0.024919,0.020774,0.012599,-0.042137,-0.14667,-0.22918,0.85876
-0.2114,0.282,0.68488,0.11532,0.11916,0.72756,-0.1202,0.043233
-0.59039,-0.76503,-0.66976,-0.24778,-0.21718,-0.38406,0.24226,-1.0139
0.46827,0.25444,0.1961,0.18787,0.14278,-0.10185,0.39506,0.013494
0.026343,0.47252,0.0124,0.069289,0.064595,-0.023478,-0.26195,-0.29808
0.36338,-0.032401,0.10228,-0.050375,-0.03929,-0.19997,-0.23971,0.21183
-0.20252,0.084697,0.00029359,0.030695,0.048567,0.53676,0.79854,0.55077
0.076458,-0.080125,-0.33574,-0.11019,-0.10225,-0.12867,-0.29736,0.72776
-0.51998,-0.61744,-0.078904,-0.090334,-0.069829,-0.096205,-0.076566,-0.23175
0.32794,0.18735,0.18567,0.043994,0.013835,-0.20169,-0.49307,-0.27743
-0.22294,-0.084057,0.11668,0.059618,0.079903,0.0098127,0.33026,-0.18354
-0.12426,0.36784,-0.31379,-0.057584,-0.096342,0.19005,-0.72556,-0.65541
0.31342,0.067456,0.37414,0.13917,0.12759,0.077774,0.31795,0.8221
0.34188,-0.01766,-0.20766,-0.036526,0.0032011,-0.27531,0.51232,-0.41891
0.22787,0.21066,0.14503,0.025253,-0.023279,0.12756,-0.13655,0.34279
-0.89558,-0.13547,0.59586,0.050978,0.063926,0.063444,-0.21694,-0.29737
0.2364,-0.18694,-0.61465,-0.13966,-0.10295,-0.19209,0.63435,-0.10463
-0.37777,-0.23834,-0.39506,-0.094511,-0.071928,0.32224,-0.081134,0.027985
0.74416,0.088947,0.22895,0.1697,0.20236,0.1518,-0.29366,-0.27418
0.10762,0.40997,0.34172,-0.051176,-0.16446,-0.49556,-0.41148,0.65335
-0.41468,-0.34539,-0.26832,0.0076842,0.044967,-0.13961,0.74276,0.058573
0.058305,0.098596,-0.1789,0.0020418,-0.006297,0.28542,-0.63725,-0.0023923
0.12715,-0.1371,0.40016,0.080179,0.15002,0.44723,0.26083,-0.041405
-0.40345,-0.17308,-0.14691,-0.10931,-0.18131,-0.33698,0.13387,-0.3806
0.15493,0.276,-0.17822,-0.042618,-0.062182,0.095492,-0.50734,0.3796
-0.28993,0.1193,0.0022144,-0.03954,0.0083648,-0.4031,-0.3077,-0.24757
0.66988,0.069078,0.28486,0.1348,0.1096,-0.087768,0.39217,0.030559
-0.19096,0.085939,0.32503,0.10582,0.18011,0.76476,0.77363,-0.23573
-0.067215,0.066848,-0.36306,-0.079368,-0.21672,-1.098,-0.093337,0.30208
0.11895,-0.41187,-0.10891,-0.084697,0.013387,0.40729,0.14839,-0.044048
0.062002,0.21886,-0.27274,0.043013,0.01126,0.49525,-0.29368,0.1193
-0.19219,-0.42377,0.22372,-0.024273,-0.020085,-0.37945,-0.71203,-0.27945
0.019793,0.028886,0.13955,0.0026939,0.067467,0.93048,0.35205,0.68414
-0.10669,0.25128,-0.023006,-0.0086035,-0.039042,-0.69571,-0.26582,-0.82766
-0.29735,-0.11306,-0.003331,-0.042189,-0.090129,-0.12262,-0.11858,0.022051
0.11329,-0.038541,-0.34546,0.035058,0.046502,-0.49672,0.57818,0.43123
0.30648,0.14724,0.29667,0.027991,0.081311,0.30167,0.14837,-0.15969
0.50996,0.56761,0.33842,0.092805,0.045153,0.64358,0.040249,-0.16301
-0.51801,-0.39062,-0.46231,-0.11452,-0.156,-0.76211,-0.25265,0.053199
-0.2466,-0.13116,0.065168,0.11655,0.11059,0.5455,-0.11384,0.0077534
0.19033,0.14511,0.43433,0.0043555,0.040347,-0.15826,-0.24923,-0.17545
0.14303,-0.26169,-0.15438,-0.17014,-0.13977,-0.19031,0.61009,0.82643
0.212,0.107,-0.50059,-0.0085646,0.055189,0.19594,-0.049391,0.17674
-0.51723,-0.16246,-0.07537,-0.088902,-0.13972,0.083344,-0.56964,-0.71285
0.18238,0.16761,0.40862,0.13593,0.072967,-0.66437,0.31721,-0.38354
-0.29722,-0.452,-0.010599,0.095744,0.12327,0.72169,0.13809,0.64912
0.0614,0.39141,-0.0053866,0.0013094,-0.0045017,-0.24124,-0.046911,-0.90026
0.19753,-0.14769,0.088232,0.0083871,0.025051,-0.21755,0.06683,0.6247
0.20606,0.5677,-0.14359,0.02246,0.0079233,0.6264,-0.4792,0.17343
0.20427,-0.20316,0.35437,-0.066704,-0.072551,-0.056935,0.47603,-0.36413
-0.38704,-0.2822,-0.37797,-0.11139,-0.053248,-0.29553,0.017244,0.34871
0.21135,0.631,-0.073701,0.036474,0.0027279,-0.17186,-0.48849,-0.52348
-0.26868,-0.68827,-0.32497,-0.083991,-0.068827,0.17024,0.24003,0.39288
-0.07173,0.1521,0.72933,0.17613,0.15429,-0.02846,-0.024766,0.030825
-0.25437,-0.064233,-0.36238,-0.026169,-0.046005,-0.19704,0.12051,0.08531
0.93229,0.15148,0.080581,-0.026004,-0.028262,0.12784,0.41268,0.4431
-0.89488,-0.31885,0.12094,-0.01016,-0.026097,0.059146,-0.35162,-0.93363
0.31908,0.2999,-0.077863,0.099991,0.11727,-0.2352,-0.2063,0.41595
0.059227,-0.34787,0.16256,-0.062478,-0.019786,0.14656,0.21139,-0.00030786
0.12332,0.42262,-0.29228,0.0025093,0.062687,0.73774,0.16172,0.069237
0.11391,-0.18003,-0.0065725,-0.048803,-0.096435,-0.35171,-0.33726,-0.2852
0.0086959,0.22409,-0.17696,0.0023553,-0.052036,-0.55229,0.24094,-0.13437
-0.57379,0.20903,0.42241,-0.023588,-0.061988,0.12644,-0.95894,0.11017
0.024301,-0.42616,0.18216,0.061087,0.10822,0.35423,0.83403,0.57811
0.35157,-0.016965,-0.26422,0.030092,0.0057569,-0.16772,0.0089784,-0.46696
-0.48881,-0.3614,-0.46234,-0.12416,-0.064308,-0.46427,0.40901,-0.55851
0.75432,0.19415,0.19871,0.012484,0.015511,0.28411,0.15921,0.54209
0.1439,0.45052,0.22049,0.11955,0.13596,0.28026,-0.58327,0.32926
-0.35175,-0.034523,0.19794,0.016925,-0.00776,-0.10855,-0.23071,0.36541
-0.51502,0.17924,-0.071454,0.0086747,-0.048797,0.48514,-0.21793,-0.17169
0.34768,-0.27232,-0.048715,-0.085634,-0.089174,-0.54767,0.27867,-0.44118
-0.046862,-0.14283,-0.26577,-0.024512,-0.027816,-0.27673,-0.073575,-0.38325
0.088406,-0.2779,-0.0049447,-0.042844,0.064537,0.29086,0.38405,-0.038554
-0.037435,0.11179,0.1232,0.015385,-0.093686,-0.3909,-0.31624,0.053901
0.042867,0.075478,0.20354,0.095558,0.16917,0.78828,0.99654,0.34106
0.47685,0.44527,0.0010011,0.073003,0.079536,-0.17865,-0.4927,0.38031
-0.11832,-0.18009,-0.1018,-0.090834,-0.073576,-0.26,-0.43606,0.22165
-0.67911,0.0015012,-0.12791,-0.098495,-0.18075,-0.29947,-0.35304,-0.56173
-0.070553,-0.26296,-0.11543,0.011503,0.055005,0.601,0.018746,-0.43646
0.030597,0.069354,0.093186,0.091117,0.040167,-0.074876,0.57567,0.12978
0.47906,-0.053971,-0.024129,-0.039192,0.0093488,-0.16392,0.18425,0.066395
-0.08191,0.00035515,0.2993,0.081352,0.056496,-0.096793,-0.16277,0.73107
0.16938,0.12934,-0.17047,-0.055529,-0.076129,-0.046321,-0.40916,-0.48092
-0.15794,-0.076461,0.035009,-0.059908,-0.013618,-0.29467,0.24405,0.45731
0.34058,0.76913,0.16474,0.14555,0.10316,0.99325,-0.51335,-0.58438
-0.61149,-0.84668,-0.33736,-0.096118,0.086374,-0.19121,0.97709,-0.63479
0.34959,0.46998,0.1288,0.003678,-0.19712,-0.77061,-0.27492,0.58239
-0.31057,-0.37799,0.062088,0.015137,-0.013179,0.18422,-0.39276,0.21152
-0.14892,-0.48587,0.063438,-0.092714,-0.033728,0.25122,0.55483,0.46086
0.46638,0.084114,-0.58593,-0.030205,0.0069623,0.13374,-0.024112,-0.23288
0.23881,0.48207,0.38779,0.12533,0.18724,0.18402,-0.68979,-0.071279
-0.48634,0.265,0.21952,-0.00033817,0.007392,-0.34679,0.14653,-0.41729
-0.11292,-0.18998,-0.15295,0.038723,-0.1417,-0.71498,-0.090234,-0.27173
0.54937,0.024757,0.13747,-0.061854,0.021481,0.95615,0.61038,0.24184
-0.91863,-0.019986,-0.089548,0.04172,0.059716,-0.11302,-0.53916,0.73551
0.74299,-0.050937,-0.092762,-0.017906,-0.10476,-0.46814,0.077945,-0.76476
0.074464,-0.0058792,0.11904,-0.0065826,0.10665,0.63363,0.70124,-0.086448
-0.15862,-0.048686,-0.0094411,-0.072877,-0.14141,-0.51089,-0.6664,0.58807
0.050449,-0.061066,0.092215,0.1036,0.15951,0.76963,-0.10972,-0.46711
-0.20646,-0.27523,-0.41094,-0.086188,-0.083715,-0.83023,0.77808,0.55622
-0.13465,0.32745,0.092279,-0.0088957,0.035663,0.78283,0.0059075,-0.38203
0.59991,0.047176,-0.044177,0.031419,-0.044614,-0.84417,-0.8295,0.52617
-0.22274,0.066622,0.42435,0.058746,-0.043397,0.078704,-0.050521,-0.24879
-0.22002,-0.081027,-0.093826,-0.0047387,0.10912,-0.072126,-0.36707,-0.40801
-0.46926,-0.043795,0.097857,-0.057548,-0.0020286,0.072013,0.73243,-0.15797
0.43732,-0.088644,-0.45353,-0.029889,-0.034337,0.65269,0.1754,0.10349
0.20471,0.070506,0.12614,0.077293,0.05764,-0.017696,0.13978,0.53815
0.35795,0.33569,0.077299,0.020547,-0.086894,-0.20613,-0.15815,-0.12471
-0.55516,-0.31353,0.061666,-0.045285,-0.016018,-0.25885,-0.27728,-0.15135
0.090331,0.4542,0.44392,0.13628,0.11322,-0.12429,-0.24751,-0.19546
-0.19098,-0.65385,-0.57504,-0.20924,-0.10568,0.053676,0.18002,-0.28417
0.028737,-0.13981,-0.13737,-0.012086,0.022899,0.33473,0.14256,0.00036941
0.62215,0.15994,0.20946,0.055867,-0.0080229,-0.064423,0.24439,0.97239
-0.39755,0.090228,-0.17471,0.018596,0.0058798,-0.34017,0.22182,-0.46358
0.022187,0.48909,0.50048,0.10362,-0.043402,-0.19573,-0.65713,0.21787
-0.42476,-0.44567,-0.21632,-0.13322,0.10325,1.0807,0.52566,0.19449
0.2845,0.23355,-0.26081,0.0045965,-0.037505,-0.93119,-0.37129,-0.47619
-0.13869,-0.37781,0.0089896,-0.0053965,0.0037233,0.84132,-0.37653,-0.4804
0.346,0.033674,-0.04702,0.040594,0.016169,-0.79427,0.29752,0.47991
-0.10328,0.34324,0.43006,0.088151,0.015207,0.18087,0.41796,0.30552
0.21117,-0.027457,-0.037774,-0.042501,-0.077855,-0.33946,-0.55113,-0.51482
0.18274,0.14007,0.15685,-0.047016,-0.013753,0.038061,0.3152,0.28331
-0.71677,-0.19316,-0.30838,0.011683,0.089571,0.59634,-0.11474,-0.29147
0.0080266,-0.35454,0.12774,-0.03862,-0.073209,-0.15661,-0.25748,0.16139
-0.16332,-0.061346,-0.49573,-0.010556,0.03654,0.3559,0.19999,-0.058727
0.56835,0.21963,-0.044542,0.033499,0.035837,-0.50961,0.44823,0.073665
0.047787,0.1075,0.41371,-0.007678,-0.020528,0.14946,0.11821,0.25474
-0.2258,0.056686,0.03859,-0.00083392,-0.046284,-0.014356,-0.16265,0.02299
0.057319,-0.026416,-0.13554,-0.0080664,-0.03312,-0.50404,-0.61233,-0.14684
0.13485,0.15383,0.27621,0.056791,0.035144,0.48333,0.49728,0.13341
0.016844,-0.15499,-0.38189,-0.040669,0.026191,-0.3963,0.022179,0.23642
0.16631,0.24718,0.18587,0.019563,0.018481,0.44403,-0.62234,-0.87832
-0.50757,-0.34572,0.29723,0.04166,0.035565,0.50638,0.39072,-0.42194
-0.10948,0.27524,0.14421,0.025025,0.0070273,-0.72996,-0.036021,0.85655
0.1487,-0.62484,-0.62012,-0.14807,-0.11427,-0.10579,0.051277,-0.15052
0.12767,0.30672,-0.0058205,0.053274,0.077586,0.40519,-0.22684,0.24616
0.033656,-0.036986,-0.16211,-0.097608,-0.13647,-0.60873,0.25862,0.75107
-0.18383,0.097219,0.2399,0.14941,0.14176,0.55711,-0.059962,-0.39278
0.25306,0.29044,0.4131,0.044588,0.044921,-0.0031754,0.10628,-0.83331
-0.011109,-0.346,-0.60104,-0.16181,-0.15362,-0.31396,0.20648,-0.054221
0.37033,0.33672,0.29332,0.061593,0.038243,0.16946,-0.040684,0.43789
-0.6009,-0.40501,-0.12934,0.027197,0.081374,0.32683,0.033317,0.090205
-0.18203,0.097754,0.0837,-0.038786,-0.055611,0.076633,-0.25667,-0.32168
0.24377,0.32548,0.53223,0.14434,0.10368,-0.44351,0.012858,0.071316
0.19892,0.024203,-0.21616,-0.041238,-0.050317,0.014446,-0.30445,0.12168
-0.10696,-0.20768,-0.0002207,-0.056974,-0.1193,-0.44845,-0.19735,-0.23369
0.25447,-0.26231,-0.72825,-0.082801,0.045095,0.43437,0.23765,0.80767
0.13376,0.024933,0.1851,-0.024828,-0.01022,-0.069496,0.81181,-0.18752
-0.66496,0.1411,0.24878,0.094039,0.10548,0.51107,-0.44365,-0.29368
-0.12606,-0.19079,-0.24558,-0.030071,-0.052998,-0.4704,-0.01235,0.36847
0.31329,0.2374,0.40066,0.010009,-0.071485,-0.059776,0.075807,-0.73431
-0.1905,-0.08531,-0.30155,0.035399,0.0735,0.21146,-0.38047,-0.40646
0.47929,0.23504,0.39989,0.062251,0.077264,-0.033073,0.27731,0.51067
-0.061704,0.012281,-0.11941,-0.081159,-0.06802,0.46239,-0.69828,0.036689
-0.050567,-0.22329,-0.055778,0.0033911,-0.034197,-0.28859,0.96881,0.41034
0.0092348,0.095668,0.041654,-0.0049027,-0.0086346,-0.45144,-0.41428,-0.24757
0.11424,-0.168,-0.0174,-0.0050999,-0.022312,-0.11219,0.26377,0.60397
0.035415,0.25432,-0.25888,0.017832,0.042345,0.08992,0.097985,-0.61331
-0.21216,0.10831,0.22981,-0.022467,-0.02515,0.12623,-0.13764,0.098488
-0.35313,-0.2418,-0.10601,0.014467,0.064693,0.55475,-0.79482,-0.28765
-0.16438,-0.14853,-0.022527,-0.011854,-0.047174,-0.1915,0.39912,0.083227
0.30548,-0.079443,0.19408,0.031781,0.076919,-0.21911,0.52088,-0.20757
0.10209,0.17946,-0.31205,-0.033737,-0.039597,-0.19817,-0.040948,0.24176
0.44197,-0.016061,0.017037,-0.020285,-0.060944,0.41099,-0.21081,0.15392
-0.47628,0.072739,0.058459,0.017967,-0.0030322,-0.55634,-0.12447,0.11181
0.17568,-0.074075,0.12497,-0.028086,-0.0068637,0.43711,0.08227,0.012136
0.31666,0.11561,0.12088,0.099284,0.098992,-0.056732,0.19579,0.15179
-0.6137,0.0086228,0.057776,-0.084764,-0.10002,-0.049147,-0.20001,-0.25597
0.30711,-0.11624,0.24282,0.043974,0.051818,0.026398,-0.22347,-0.31563
0.07187,0.55726,-0.24365,0.078273,0.046201,0.072556,0.17994,-0.0041835
0.096658,-0.32716,-0.38276,-0.029688,0.023341,0.17239,-0.13738,-0.25778
-0.23107,-0.45357,-0.15356,-0.10091,-0.11856,-0.31639,0.69342,0.4724
-0.62997,0.057846,0.18634,-0.049706,-0.012289,-0.16731,-0.52836,-0.14856
0.34864,0.057689,0.03039,0.030464,0.053389,0.26182,0.020664,0.51858
0.35921,0.23473,0.21154,0.046629,-0.022511,-0.065055,-0.14807,-0.15608
0.14356,0.16255,0.06369,0.062421,0.065464,-0.12062,0.63354,0.029503
-0.032945,-0.27139,-0.29822,-0.053719,-0.017784,0.1695,-0.62246,-0.2732
-0.27337,-0.24937,0.177,-0.019402,-0.04492,0.035299,-0.099602,0.15466
-0.33931,0.31161,0.046447,-0.0056989,-0.054434,-0.17735,0.0021167,-0.43851
0.4813,-0.11594,-0.080301,0.026787,0.07113,0.0085157,0.16863,0.64829
0.061477,0.22,0.20124,0.015361,0.042614,0.36494,-0.014773,-0.60996
-0.017613,0.077263,-0.18241,-0.0093963,0.00019128,0.021879,0.394,0.052118
0.065379,-0.10854,0.16349,0.053075,0.013443,-0.047728,-0.32949,0.21416
-0.072204,0.065458,0.23554,0.053208,-0.035684,-0.58181,0.30723,0.11402
-0.14853,-0.48307,-1.0311,-0.17409,-0.023019,0.37015,0.24134,0.0071729
-0.29418,0.1712,0.32356,-0.059235,-0.082007,-0.075719,-0.76886,-0.028493
0.58159,0.2197,0.27647,0.061497,0.060462,-0.051452,0.14658,-0.084848
-0.31807,0.034498,0.039799,0.078805,0.068464,0.26571,0.032778,0.35001
0.2129,-0.042413,0.075966,0.0087011,-0.042051,-0.32373,-0.27238,-0.030135
-0.38276,-0.089623,-0.0045563,0.015817,0.049777,0.11397,0.47075,-0.63901
-0.06731,-0.043877,0.16577,-0.00080583,-0.014764,0.23098,-0.24589,-0.2016
-0.029566,0.057529,-0.10102,-0.10314,-0.12564,-0.42319,-0.17169,0.16665
0.67322,0.037366,-0.25128,0.060749,0.084878,0.24625,0.52917,0.52099
0.15348,-0.039134,-0.11441,-0.032416,-0.023529,0.30102,-0.25484,0.10946
-0.68999,-0.028776,0.10533,0.031372,0.064773,0.0043195,0.27579,-0.55
0.50783,-0.10144,0.0087552,-0.0059747,-0.0020969,-0.49131,-0.11389,0.41611
-0.47588,0.38465,0.25972,0.034788,0.0018187,0.0676,-0.13056,0.50286
-0.013332,-0.28134,-0.047668,-0.018751,-0.04926,-0.19043,-0.014287,-0.12501
0.17963,-0.022064,0.0015306,-0.00305,0.031369,0.47311,-0.10783,-0.33468
0.13822,0.20783,-0.13034,-0.0044225,-0.03037,-0.05374,-0.09771,-0.78923
-0.16308,-0.14036,0.019488,0.031699,0.046442,0.22003,0.24459,-0.087155
0.39292,0.087915,-0.15624,-0.019475,0.011878,-0.34587,-0.17885,0.32401
-0.73848,-0.27255,0.0086718,-0.094898,-0.13358,-0.35896,0.42694,0.31147
0.14189,0.27011,0.078474,0.024998,0.040592,0.26981,0.093761,0.52516
0.0076958,0.029024,0.19481,0.059904,0.027571,0.2084,-0.30816,0.26412
0.36395,-0.29906,-0.07206,0.010708,0.031475,-0.16409,-0.43767,-0.6803
-0.0039181,0.045611,0.042285,-0.01257,0.021825,-0.062746,-0.22555,-0.14962
0.17231,0.096239,-0.14411,0.045024,0.069351,0.67136,0.30423,0.05382
-0.47396,-0.059778,0.068892,-0.09012,-0.15407,-0.75724,0.58804,-0.30181
0.21204,0.35154,0.18591,0.089216,0.062093,0.12027,0.54499,0.23939
-0.14791,-0.1626,-0.35846,-0.050692,-0.032839,0.11521,-0.80664,0.28165
-0.10517,-0.19763,-0.082,-0.018739,0.021212,-0.17291,-0.27153,-0.34483
0.45236,0.32995,0.39701,0.051184,0.059304,0.48768,-0.32089,0.29841
-0.17565,-0.30908,-0.19479,-0.068398,-0.099036,-0.31202,0.27515,-0.10175
-0.12629,0.062669,0.0031385,0.043766,0.037786,-0.10577,0.87792,0.27267
0.26935,0.092178,0.15692,0.03586,0.0241,0.026226,-0.30028,-0.48062
-0.48216,-0.16612,-0.20741,-0.045114,-0.030829,-0.14403,0.031194,-0.32749
0.29167,0.093462,0.06919,-0.034633,-0.025334,-0.14867,-0.72654,0.94556
-0.10993,-0.041077,-0.081047,0.021123,0.056468,0.76191,0.24343,0.091669
0.13703,-0.027961,0.08603,-0.033301,-0.042884,-0.30292,-0.27116,-0.19712
-0.17395,-0.098733,-0.116,0.021588,0.0051126,0.22749,0.37094,-0.53136
-0.10872,0.24121,0.19571,0.10043,0.09146,-0.54452,0.30475,-0.22234
0.58663,0.25124,0.3327,0.031714,0.013405,0.14802,-0.0056459,-0.23554
-0.2022,-0.36499,-0.56614,-0.12194,-0.12711,-0.16173,-0.087977,0.74598
-0.20796,-0.0063912,-0.12013,-0.032395,-0.040584,-0.11197,-0.44654,0.046914
-0.07869,0.11483,0.4655,0.050297,0.039057,0.82335,0.13285,-0.31405
0.24746,0.059511,0.032846,0.071471,0.1201,-0.47048,0.34842,0.64058
-0.21534,-0.32253,-0.50497,-0.14063,-0.12516,-0.069594,-0.18793,-0.19218
0.35911,0.25625,0.31292,0.078274,0.076981,-0.058655,0.18224,-0.018532
-0.5627,-0.15851,-0.02841,-0.076277,-0.039019,0.17995,-0.054913,-0.18591
0.19655,-0.14581,-0.22296,0.020859,-0.0045673,-0.22139,-0.42925,-0.072153
0.040665,0.27805,0.348,0.041499,-0.0075377,0.23615,-0.041561,0.13437
0.33442,0.29222,0.04535,0.13376,0.12341,0.30861,0.12375,-0.4162
-0.31512,-0.18963,-0.16107,-0.10138,-0.11233,-0.63114,0.58119,-0.16514
0.29322,-0.050509,-0.036317,-0.00058772,-0.0043915,0.047412,-0.06218,-0.036706
-0.54505,-0.27458,-0.25235,-0.033366,0.024931,0.15453,0.026146,0.31822
0.41961,0.068557,0.42454,-0.020605,-0.055844,-0.069712,-0.74401,0.48154
-0.13245,0.081724,-0.014561,0.02959,0.050138,0.14627,0.20094,0.23568
0.12884,0.11029,-0.18037,-0.078057,-0.039798,0.16812,0.34101,0.047695
-0.23876,-0.039339,0.10548,0.047398,0.026114,-0.16147,-0.44466,-0.46912
0.18273,-0.12355,0.021688,0.023613,0.021481,0.00086897,0.62246,-0.33512
-0.14924,0.045978,-0.17435,0.069804,0.079167,0.24943,-0.045037,0.28158
0.058372,0.14113,0.025416,-0.08714,-0.1525,-0.67209,-0.47061,0.0039113
-0.18361,-0.034278,0.16098,0.052883,0.029327,0.059056,0.065995,-0.62865
0.12619,-0.11468,-0.18817,-0.025875,0.061796,0.3755,0.53663,0.074045
0.073057,0.15572,-0.0048664,0.027867,-0.00078056,-0.18855,-0.4527,0.23305
0.1699,-0.2251,-0.14715,-0.075268,-0.057109,0.05678,-0.24809,0.29735
0.34204,0.44448,0.65925,0.102,0.095874,0.50347,0.40625,0.80037
-0.37663,-0.13302,-0.21057,-0.041918,-0.065052,-0.46553,-0.47652,-0.64865
0.008953,-0.55861,-0.35093,-0.06146,-0.0081122,0.36766,0.50612,0.18211
-0.41893,0.19276,0.096408,0.0047851,-0.045029,-0.45164,-0.10471,-0.47731
-0.20103,0.068835,0.036269,0.0089974,0.0047848,-0.042294,0.15937,-0.55398
0.41316,0.048768,0.045353,-0.016973,-0.014086,0.00047806,-0.10281,0.23623
0.30872,0.29097,-0.14317,0.091349,0.047349,-0.11343,-0.23189,0.64724
-0.29228,-0.12529,0.21203,-0.04876,0.048568,0.37309,0.40704,0.20812
-0.081756,-0.11426,-0.1316,0.054599,0.036023,0.022,-0.10581,-0.14383
0.17737,0.0022896,0.12285,-0.021074,-0.045864,-0.1829,-0.31415,-0.21141
0.31468,0.081257,0.030571,0.020282,0.043927,0.36705,0.3418,-0.029807
-0.37289,-0.20839,-0.23576,-0.064322,-0.07077,-0.33672,-0.45864,-0.65616
0.16048,0.26345,-0.057926,-0.002026,-0.015826,0.080191,0.16924,0.087434
-0.32908,-0.0442,0.072909,0.027286,0.0052853,-0.28862,-0.028824,0.46433
0.18017,-0.15541,0.23575,-0.062075,-0.054042,0.28384,0.076446,0.18153
0.21829,0.21197,-0.084459,0.011788,-0.013294,-0.045096,0.043617,0.47474
-0.34779,-0.16623,0.22972,0.03883,0.074019,-0.094147,0.16427,-0.30598
0.037305,-0.21619,-0.32956,-0.026892,-0.025236,-0.056811,-0.17043,-0.20369
