0.062351,0.021834,-0.053414,-0.19392,-0.08702,0.018731,0.027914,0.088482
0.1394,0.021378,0.059131,-0.0071347,-0.051442,-0.03865,0.04844,0.27088
-0.015131,0.17907,0.45336,0.33626,0.022564,-0.017626,-0.00052828,-0.034851
0.04387,-0.1304,-0.34511,-0.14017,-0.10627,-0.0036159,-0.0091236,-0.039619
-0.01255,0.084382,-0.10918,0.24309,0.13324,0.011553,-0.031829,-0.11142
-0.052831,-0.037032,0.089585,-0.25666,0.030809,0.059241,0.048417,0.045232
-0.070527,0.082366,0.46705,-0.12447,0.024109,-0.024799,-0.018808,-0.040051
-0.051156,-0.21453,-0.50423,0.084312,-0.066878,0.0089777,0.0080645,-0.040634
0.059297,-0.013983,0.18689,0.025491,0.1086,0.034942,0.011166,0.089298
0.049819,0.090608,-0.29972,0.066181,-0.16155,-0.072576,-0.025721,-0.041343
-0.00097223,0.053378,0.32957,0.034889,0.058932,0.0061826,-0.0092223,-0.010536
-0.037469,-0.030436,-0.34895,-0.051924,-0.09822,-0.049414,-0.05662,-0.067638
0.011772,-0.08104,0.23469,-0.14618,0.20221,0.065302,0.066656,0.15547
-0.016209,0.090567,-0.012175,0.277,-0.14931,-0.055641,-0.021786,-0.05899
0.066953,-0.022429,-0.20457,-0.4138,0.11326,0.1117,0.037966,-0.0070813
-0.050765,-0.06822,0.30095,0.30599,-0.087145,-0.072655,-0.011363,-0.039885
0.0056604,0.093201,0.069917,-0.18807,-0.11616,-0.022107,0.018159,0.11614
0.024894,0.10884,-0.074377,0.19756,0.28592,0.09988,-0.013827,-0.10172
-0.0015854,-0.062381,-0.17609,0.079066,-0.12896,-0.065606,-0.029119,0.063918
0.097248,0.05385,0.22028,-0.0921,-0.062187,-0.0026569,0.042506,0.19074
-0.21847,-0.20861,-0.18796,0.11174,-0.02041,-0.054947,-0.056982,-0.37782
0.12096,0.031528,0.19446,-0.22536,-0.073607,0.050818,0.047126,0.053499
-0.15039,-0.2109,-0.84258,0.16867,0.011872,-0.021671,-0.036115,-0.062008
0.13935,0.29855,0.70864,-0.21448,0.35918,0.070755,0.021112,0.11188
0.076337,0.084117,-0.035925,-0.14008,-0.13607,-0.016411,0.023225,0.21602
-0.096877,-0.024702,0.3431,0.1898,-0.032003,-0.057461,-0.029987,-0.07774
0.034136,0.051977,0.021949,0.042062,-0.097696,0.056143,0.025402,-0.0666
-0.053768,-0.20732,-0.018922,0.089622,-0.093788,-0.043482,-0.029417,-0.063697
0.014572,-0.011502,-0.51743,0.012523,0.3141,0.057303,0.00088499,-0.030779
0.036048,-0.069613,-0.31193,-0.025681,-0.30354,-0.08687,-0.0086125,0.14853
-0.012886,0.1668,0.65153,-0.1122,0.28188,0.079049,0.0047128,-0.12017
-0.007405,-0.027826,-0.25099,0.29034,-0.1212,-0.022302,0.02538,-0.024715
0.036693,0.088966,-0.11067,-0.16336,-0.30476,-0.022659,0.022294,0.075576
-0.029111,0.024383,0.56808,-0.27101,-0.13078,-0.022352,-0.012191,0.032756
-0.040674,-0.19958,-0.34405,0.40517,0.40524,-0.043627,-0.038819,-0.0038189
0.088219,0.15716,0.077607,-0.41448,-0.13142,0.047257,0.028584,0.053085
-0.063836,-0.17357,-0.49357,0.069668,0.48616,0.11797,0.0027997,-0.044967
-0.074377,0.094655,0.48133,0.079806,-0.095814,-0.042485,-0.06899,-0.24162
0.072812,0.13132,-0.038686,0.041221,-0.26468,-0.036306,0.032242,0.089658
-0.028067,-0.13575,0.036692,0.105,0.036177,-0.005179,0.0097958,-0.0031661
0.037223,0.026817,0.015561,-0.18071,-0.19927,-0.020721,0.004293,0.11311
0.088823,0.14243,0.29181,0.1289,0.28961,0.048584,0.054571,0.14891
0.12621,-0.21755,-0.35704,0.14883,-0.16419,-0.017073,0.058619,0.39192
-0.28892,-0.051183,-0.39401,-0.14787,-0.0063796,-0.023022,-0.14043,-0.72249
-0.14186,0.066019,0.66544,0.086237,-0.25043,-0.070961,-0.082309,-0.3374
0.17584,-0.058462,-0.52777,0.11291,0.076591,0.034783,0.11516,0.49786
0.1087,0.11692,-0.14898,-0.52379,0.36281,0.12309,0.10776,0.078066
0.046769,0.047029,0.32281,0.08119,-0.034871,-0.047215,-0.073453,0.15956
-0.05712,0.037219,0.15846,0.28784,-0.12773,-0.068842,-0.037754,0.11672
-0.14822,-0.11605,-0.14582,-0.29226,-0.022592,0.0044562,-0.073778,-0.55789
0.11767,0.14844,0.076103,0.22692,-0.0003022,0.040542,0.069182,0.074689
-0.016386,0.047685,0.56625,0.091131,0.023323,-0.0071333,0.0091969,0.040294
-0.041391,-0.099652,-0.36501,-0.11056,0.13077,0.017642,-0.01844,0.10763
0.0049773,-0.27907,-0.59601,0.20994,0.083227,0.059818,0.06519,0.0065176
0.0068937,0.040381,0.36176,-0.2043,-0.25658,-0.10775,-0.028437,0.091394
-0.06579,0.0076882,-0.5339,-0.13503,0.20927,0.037693,-0.033509,-0.28423
0.16255,0.2568,0.73845,0.15042,-0.44313,-0.059159,0.018537,0.20839
0.012236,0.0078058,0.092235,-0.069294,0.38763,0.10902,0.041228,0.16993
-0.10332,-0.097608,-0.12808,-0.01607,-0.31236,-0.090846,-0.099053,-0.26909
-0.036907,0.019165,-0.32696,0.072507,-0.086933,-0.026045,0.034223,0.036418
0.10833,0.021897,-0.017622,0.3811,0.20812,0.069109,0.072861,0.13727
-0.05216,-0.13731,-0.064746,-0.4595,0.27138,0.00723,-0.038738,0.045359
-0.01212,0.11026,0.21333,0.065496,0.20666,0.014985,-0.012207,-0.12502
0.031965,0.12998,0.63,-0.035607,-0.44612,-0.048211,0.01145,-0.12544
-0.037685,-0.22054,-0.84649,-0.33913,0.11723,0.044177,-0.014636,0.012926
-0.064745,0.057412,0.063101,0.46238,-0.12822,-0.051665,-0.051006,-0.10666
0.092132,-0.021196,0.11335,-0.065315,0.018701,0.047034,0.051515,0.24538
0.059191,0.035996,0.089422,0.10438,0.032699,-0.0034317,0.028277,0.2213
-0.08387,0.019007,0.45628,0.04434,0.084288,0.00024516,-0.010273,-0.34681
-0.0072741,0.070044,-0.20292,-0.15004,-0.077181,-0.027538,-0.016252,-0.025843
-0.092365,-0.27771,-0.21725,-0.20474,-0.4126,-0.14101,-0.059171,0.0069107
0.16971,0.173,-0.19472,0.24703,0.64889,0.22284,0.10363,0.21333
-0.095633,-0.037197,-0.20973,-0.022553,-0.14197,-0.060538,-0.059032,-0.19632
0.025392,-0.071418,-0.43654,-0.21842,-0.11267,-0.00647,0.0071759,0.11954
0.12558,0.40641,0.79488,0.31361,-0.091003,-0.021136,0.035899,0.23569
-0.10119,-0.15123,0.17713,0.024656,0.25113,0.043721,-0.028543,-0.38308
-0.015947,-0.11269,0.27571,-0.047795,-0.070976,-0.038851,0.008069,0.087521
0.020419,-0.041818,-0.073275,-0.13118,-0.14363,-0.0037445,0.019736,0.027248
0.045927,-0.041362,-0.38021,-0.20985,0.27514,0.078195,0.021369,0.020366
-0.07258,-0.033922,-0.20441,0.23269,-0.18942,-0.059088,-0.049814,0.20752
-0.084664,-0.0040612,0.27674,-0.020748,0.010305,-0.0017771,-0.045155,-0.44081
-0.0048203,0.095349,-0.3169,0.1176,-0.17917,-0.046763,0.004789,0.0081689
0.012254,-0.0086587,0.39369,-0.16309,-0.28774,-0.037614,-0.023953,-0.066676
0.13224,0.10622,-0.0073283,0.12264,0.54506,0.072836,0.057264,0.31503
0.051754,-0.028574,-0.37898,-0.3297,-0.024173,0.034856,0.061955,0.16407
-0.064434,-0.0538,-0.10188,0.40873,-0.05865,-0.049864,-0.032652,-0.10399
-0.013231,0.061393,0.37415,0.32059,0.44769,0.092025,-0.015439,-0.051877
-0.021936,-0.081956,-0.12691,-0.57296,-0.28887,-0.03979,0.019519,-0.032956
0.025378,0.0313,0.093355,0.014759,-0.32566,-0.0082581,0.0089786,0.043587
-0.083748,-0.11476,0.59953,0.13649,0.15555,-0.0091575,-0.055871,-0.23971
0.016387,-0.074906,-0.55292,-0.09166,-0.30728,-0.066258,-0.012007,0.12965
0.16053,0.19004,-0.17679,0.11154,0.012568,0.015661,0.092812,0.30561
-0.12857,0.024029,-0.35122,-0.25284,0.31945,0.033674,-0.077916,-0.37691
-0.0072376,0.067879,0.67257,0.21554,0.16222,0.0038778,-0.016537,0.09811
-0.0061891,-0.0063707,-0.067384,0.12063,0.17592,0.044127,0.042825,-0.1114
-0.03061,-0.065739,0.061146,-0.20701,-0.62948,-0.087013,-0.032044,-0.034074
0.038083,-0.18028,-0.28566,0.16439,0.35725,0.064309,0.025291,0.20027
0.084185,0.10353,-0.029369,-0.060618,0.0047322,0.014314,0.020381,0.16475
-0.12537,-0.041871,-0.26334,-0.24864,-0.053199,-0.025678,-0.046017,-0.287
0.06658,0.11853,0.49683,0.42035,-0.40189,-0.071177,0.021925,0.041317
0.06666,0.0071883,-0.11675,-0.15631,0.40404,0.057322,0.044718,0.22764
-0.062849,-0.047433,0.18322,-0.15217,-0.21409,-0.039096,-0.02465,-0.17463
-0.057078,0.048432,-0.17637,0.13384,0.32841,0.068521,-0.038171,-0.089473
0.0125,-0.11965,0.03544,-0.065951,0.0608,0.027702,0.0035351,-0.011605
0.0038877,0.025688,0.11215,0.035726,-0.14444,-0.0062473,0.021655,0.02519
0.12667,0.06158,0.051277,0.047037,-0.13379,-0.026333,0.046819,0.27658
-0.065571,0.049414,-0.26508,0.092563,-0.11291,-0.040882,-0.046401,-0.18856
0.043711,0.011632,-0.054071,-0.10844,0.12723,-0.0031054,-0.00034068,0.027709
-0.14709,-0.013364,0.3524,0.031396,0.13258,-0.0063588,-0.041396,-0.19126
0.026697,-0.064778,-0.64118,-0.31391,0.051767,0.036111,0.034011,0.085725
-0.027532,-0.087452,0.097272,0.045662,-0.19197,-0.054299,-0.015663,0.024945
-0.011412,-0.056925,0.090141,0.25309,0.013121,0.0047911,-0.049099,-0.066343
0.15469,0.12974,0.27992,0.020981,0.0060145,0.081507,0.098347,0.22838
-0.027987,-0.002641,0.05151,0.052955,0.016559,0.0045188,0.020765,-0.096786
-0.035334,0.039203,0.31754,-0.1909,-0.31165,-0.054267,-0.024021,-0.087654
-0.00015097,0.021367,-0.10635,0.22479,0.53133,0.053097,-0.028507,0.083934
0.014407,0.052986,-0.38343,-0.070138,-0.35208,-0.080554,-0.0010673,0.010764
-0.031901,-0.030876,0.12689,-0.14927,0.43601,0.098311,0.010738,-0.098014
0.023519,-0.043985,-0.16057,0.14859,-0.059396,-0.036485,-0.017197,0.052169
0.030756,-0.042345,-0.18046,-0.22527,-0.27858,-0.048415,0.023986,0.10729
-0.042657,-0.050418,0.26835,0.24438,-0.0058907,0.0072383,-0.022246,-0.098943
-0.041214,0.071941,0.0072591,-0.07414,-0.08793,-0.025906,-0.030903,-0.04474
0.027108,-0.073521,-0.15537,-0.17045,0.11383,0.055615,0.021694,0.073746
-0.040396,0.11556,0.3014,-0.017637,-0.097016,-0.020926,0.042223,-0.16528
0.022791,-0.054874,-0.43702,0.14589,0.27947,0.018839,-0.01567,0.12975
0.038159,0.033821,0.18119,0.19066,-0.30276,-0.058486,-0.026468,0.0073256
0.077272,0.015843,0.53428,-0.1389,0.22029,0.068266,0.041511,0.039757
-0.093124,-0.076496,-0.47828,-0.13114,0.16303,0.063779,-0.0067539,-0.059959
0.012189,0.022977,0.19697,0.072294,-0.25368,-0.095066,-0.038331,0.045933
-0.036003,0.017298,0.10392,0.015715,-0.02774,0.021443,0.0092279,-0.078732
0.0045667,-0.016147,-0.40986,0.15634,-0.086896,-0.040038,-0.0049074,0.019869
0.047668,0.0072597,-0.082847,-0.056891,0.11729,0.0091595,0.0205,0.068306
0.0067626,0.070178,0.12846,-0.065389,-0.11735,0.012299,0.014741,-0.027811
0.0060405,0.061372,0.36259,0.19049,0.11564,0.0079338,0.00084375,0.035055
-0.033531,-0.083366,-0.068488,-0.34521,0.32337,0.0659,0.0018957,-0.057055
-0.042527,-0.12313,-0.29655,-0.17191,-0.25349,-0.064194,-0.037022,0.061518
0.032977,0.019532,-0.16306,0.18921,-0.054578,-0.015424,0.001213,-0.13403
-0.04978,-0.10851,0.21792,-0.024075,-0.12918,-0.030096,-0.023912,-0.019731
0.12292,0.22771,0.045017,0.18417,0.020408,0.040261,0.044117,0.17728
-0.081839,0.021324,0.071246,0.15323,0.197,0.023931,-0.005277,-0.13685
0.086089,-0.0077567,0.12699,-0.044303,0.063505,0.014912,0.023597,0.28045
-0.044788,-0.084966,-0.13013,-0.24341,-0.11481,-0.025572,-0.017368,-0.29663
-0.083238,-0.053042,0.089556,0.063391,-0.28276,-0.065991,-0.026382,0.015779
0.026223,0.12012,-0.01851,0.23417,0.29522,0.065769,-0.0033517,-0.038946
0.042311,0.013372,-0.055868,-0.32656,-0.15261,-0.020753,0.043875,0.12631
0.028438,-0.021087,-0.38177,0.1217,0.27411,0.057335,0.013593,0.043783
-0.077108,-0.15454,-0.081935,-0.08632,-0.047798,-0.020289,-0.03972,-0.082808
0.038715,0.15263,0.70299,0.12699,-0.25745,-0.042766,0.0087178,-0.0033114
-0.0067099,-0.099145,-0.32461,-0.16785,0.091441,0.0054029,-0.020963,-0.0071187
-0.010456,-0.042424,-0.22916,0.053331,0.053885,-0.0009234,0.0039355,0.069101
0.050336,0.11177,0.071822,0.20554,0.090457,0.024046,0.013063,0.013424
0.034162,0.058245,0.39377,-0.31198,-0.16705,-0.037021,-0.017,-0.011143
-0.052205,0.053898,0.33254,0.2199,0.014179,0.034483,0.023162,-0.083656
-0.037917,-0.16815,-0.32838,0.035353,-0.10213,-0.019394,-0.0070465,-0.048523
-0.0019402,0.10163,-0.061926,0.11798,0.44301,0.082474,0.025182,-0.0076159
0.00051269,-0.14587,-0.48687,-0.21307,-0.14111,-0.058431,-0.01301,0.070344
0.039616,0.096171,0.20319,0.048739,-0.16802,-0.043679,-0.0045034,0.16222
-0.0093884,-0.00086608,-0.072599,-0.23051,0.026308,0.017441,-0.011862,-0.083096
-0.01313,0.031825,-0.11125,0.065623,-0.1899,-0.031134,-0.019494,-0.079104
0.044777,-0.016122,0.3929,0.15558,0.18541,0.084287,0.035114,0.018505
-0.11609,-0.18281,-0.25514,0.031603,-0.055985,-0.057896,-0.035483,-0.1413
0.083162,0.14225,0.012897,0.061205,0.034091,0.042559,0.018797,0.13725
0.057174,0.053893,0.31638,-0.09111,-0.19824,-0.04388,0.041787,0.11227
-0.084351,-0.017383,0.21598,-0.16704,0.30306,0.026584,-0.044573,-0.091056
0.041442,0.07728,-0.14514,0.10732,0.18643,0.035141,0.017566,-0.0040002
0.012458,0.0097515,0.28028,0.10748,-0.14325,-0.041794,0.0016498,0.0061084
-0.038909,-0.15002,-0.4764,-0.11916,-0.1728,-0.032543,-0.022013,-0.045343
-0.035066,-0.082335,-0.14011,0.26392,0.047943,0.0080029,0.00126,-0.018013
0.054673,0.1027,-0.37042,-0.28161,-0.007325,0.040604,0.0089693,0.017473
0.003232,-0.017544,-0.089152,-0.02056,-0.028274,0.010445,0.016749,0.084221
-0.025743,0.071835,0.40194,-0.037963,0.062131,-0.012229,-0.030079,-0.060324
0.037783,0.14365,0.58398,0.2373,-0.21256,-0.035232,0.016921,-0.002507
-0.048503,-0.25572,-0.52282,-0.17862,0.18791,0.011799,-0.0063325,-0.047438
0.0044877,0.09223,0.069092,-0.0279,0.070103,0.011762,0.0094894,0.054492
0.032862,-0.0077759,0.19643,0.14974,-0.071647,-0.011817,0.0018193,0.1077
0.013468,0.0071493,-0.12698,-0.10024,-0.18076,-0.019816,0.0018286,0.041799
-0.045512,-0.10446,0.25915,0.079513,0.31436,0.050267,-0.013993,-0.23671
0.0047806,0.11934,-0.0091769,0.069414,-0.10147,-0.012568,-0.0066284,-0.031955
0.024154,-0.015619,-0.045313,0.078057,0.094785,0.018136,0.016104,0.078794
-0.010426,0.0074392,-0.3356,-0.26357,-0.16039,-0.013974,-0.00043624,-0.012859
0.0029344,0.0489,-0.36353,0.07492,0.061383,0.016053,0.014158,0.092416
-0.01367,-0.054569,0.054433,-0.14836,-0.10049,-0.079218,-0.033731,-0.0032368
-0.0054778,-0.036993,0.36179,0.14624,0.14232,0.051971,0.0044802,-0.041893
0.011796,-0.14848,-0.22375,-0.16387,0.070965,0.011493,0.019546,0.10105
-0.016793,0.1963,0.23336,0.1742,-0.37642,-0.075291,-0.050953,-0.17681
0.056796,0.027544,0.42409,0.046009,0.082574,0.049746,0.050803,0.1313
0.0055145,-0.0077585,-0.26062,-0.069736,0.12116,0.019587,0.035672,0.14935
-0.038319,0.088794,0.25451,0.12501,0.15454,0.037311,-0.026184,-0.38123
-0.012625,-0.082723,0.0034434,-0.01808,-0.16833,-0.045805,-0.017763,0.14082
-0.0036171,0.0078687,-0.43386,0.086147,0.20696,0.043194,-0.0017405,0.051667
-0.05826,-0.20235,-0.28924,-0.27464,-0.14261,-0.040023,-0.032921,-0.1168
0.096974,0.05259,-0.12858,-0.078625,-0.0078832,0.0086776,0.044912,0.18322
0.0013725,-0.0075773,0.32068,0.03986,0.030954,-0.029851,-0.010379,-0.047355
-0.055699,0.12637,0.25547,0.31397,-0.2155,-0.046389,-0.042435,-0.081246
0.051075,0.057441,0.22602,-0.179,0.28266,0.10762,0.073872,0.042828
-0.068645,-0.1038,-0.51344,-0.087966,-0.13131,-0.067462,-0.051972,-0.026786
0.11663,0.096424,0.13482,0.063488,0.058726,0.038277,0.064483,0.20944
-0.010102,-0.021507,0.048757,0.15047,0.041737,0.027004,0.0092129,-0.014797
-0.14398,-0.098679,-0.043777,0.0092735,-0.26599,-0.085091,-0.10839,-0.34865
0.097953,0.10631,0.10664,-0.16422,0.10694,0.03055,0.047641,0.16048
-0.073227,-0.071471,-0.12732,-0.017643,0.10061,0.014789,-0.0070205,-0.042289
0.061319,-0.062421,0.32109,-0.096949,0.076502,0.039507,0.016762,0.058809
0.0015898,0.094011,-0.13036,0.075381,-0.057943,-0.012698,0.0018763,0.042312
0.020891,-0.0006048,-0.0089431,0.05482,-0.17765,-0.048465,-0.0047564,-0.020922
0.025188,-0.0021509,-0.28624,0.16992,0.13814,0.0098382,0.012475,0.10402
-0.064067,-0.050655,-0.16674,-0.094981,0.20765,0.044513,-0.0012079,-0.0981
0.0026025,0.0029556,0.10753,0.017379,-0.24531,-0.062084,-0.022543,-0.095836
-0.048797,-0.083044,0.21766,-0.15801,0.12793,0.017825,0.0029137,0.016982
0.039021,0.066452,0.11888,0.096406,-0.12051,0.010595,0.0045661,0.013441
0.062509,0.18547,0.21968,-0.18159,-0.062665,-0.02134,-0.0022473,0.072625
-0.0020274,-0.047049,-0.31396,0.124,0.11333,0.054901,0.029108,0.060936
-0.021795,-0.030548,-0.1291,0.14495,-0.013821,-0.018308,0.0047391,-0.0068412
0.026917,0.069982,0.16571,-0.010084,-0.075314,0.017129,-0.0050378,0.0014019
-0.058425,-0.23821,-0.22598,0.0022572,0.11091,-0.033732,-0.02348,-0.04752
-0.034752,0.060526,0.19598,-0.14608,-0.24156,-0.061092,-0.042419,-0.16912
-0.026008,-0.095608,0.025422,0.061066,0.25257,0.060488,0.0011328,0.020045
0.023556,0.028964,0.0046039,-0.16435,0.1577,0.026719,0.029584,0.10696
0.067913,0.091897,-0.022612,-0.016312,-0.28296,-0.037106,0.027782,0.02254
0.013754,0.13349,-0.22014,0.20194,0.11819,0.0097709,0.0038461,0.010117
0.03287,0.013852,0.14651,0.22614,0.016622,0.026667,0.012541,0.05485
-0.055038,-0.13411,0.053933,-0.16924,-0.22969,-0.033538,-0.016612,-0.1086
-0.00098668,-0.014059,0.041094,-0.14756,0.26031,0.047511,0.0019641,0.11326
0.037566,0.044931,-0.064137,-0.060052,0.031686,-0.027536,-0.033771,0.0010057
-0.042093,0.12773,0.17543,0.046433,-0.23746,-0.040405,0.00068788,-0.17285
-0.022078,-0.20403,-0.021698,0.13264,-0.14207,-0.01493,0.0033464,0.10633
-0.051258,-0.028928,-0.24929,0.041974,0.4578,0.08769,-0.0026702,-0.1623
0.050087,0.012452,0.00075131,-0.061977,-0.10207,-0.02169,0.029342,0.1847
0.0089503,-0.02475,-0.19295,-0.12508,-0.079122,-0.014851,-0.0022115,0.053231
-0.0099429,0.14135,0.32641,-0.038576,-0.011606,-0.00090715,0.0043206,-0.11149
0.064429,-0.019986,0.066954,0.27497,-0.10934,-0.03417,-0.013375,0.081302
-0.032974,-0.03205,-0.018362,-0.193,0.01176,0.0029752,-0.015975,-0.13368
-0.036179,-0.020228,-0.039698,-0.021458,0.08724,0.017171,-0.0031746,0.033096
0.078341,0.092716,0.02507,-0.055011,-0.085173,-0.0069322,0.033159,0.1291
-0.080153,-0.030362,-0.12251,0.15083,0.1511,0.047949,-0.031669,-0.14971
0.089697,0.062472,0.17236,0.36108,0.1161,0.025462,0.036969,0.087902
-0.0060145,0.0032334,0.025897,-0.27603,-0.1363,-0.035597,-0.0029329,0.022205
-0.10946,-0.11439,-0.3277,-0.33828,0.04119,-0.026214,-0.041908,-0.096339
-0.0094612,-0.16454,-0.020558,0.10506,-0.25108,-0.048313,0.021599,0.084153
0.044437,0.057658,0.19095,-0.092851,-0.0063054,0.022832,-1.8865e-05,-0.029946
-0.033157,0.093582,-0.035043,0.11673,0.18112,0.046456,-0.013209,-0.094992
0.05511,0.00035123,0.029921,0.24338,0.20166,0.030387,0.020814,0.037073
0.036031,0.061192,0.31709,-0.11795,-0.28817,-0.064281,-0.0076503,0.084344
-0.0045935,0.019328,-0.078798,0.056635,0.024787,0.0049004,0.049502,0.069358
-0.028248,-0.031686,-0.43089,0.063636,0.08679,0.011687,-0.034583,-0.087051
-0.028008,-0.015179,0.080812,-0.019805,0.06301,0.011091,-0.041347,-0.034344
0.034108,0.058563,0.11174,-0.31996,-0.13133,-0.012235,0.013526,0.039169
0.055477,-0.016616,0.020041,0.083823,-0.049848,-0.011232,0.0051324,0.039324
-0.058475,-0.040599,0.046413,0.034365,-0.01202,0.0063454,0.011823,-0.072847
-0.034725,-0.047038,-0.1624,0.0076712,0.22479,0.048222,0.002658,-0.077976
-0.013804,0.1268,0.36843,0.18317,-0.17538,-0.042079,0.0014075,-0.060973
-0.018565,-0.10502,-0.22989,-0.14238,0.075956,-0.007084,-0.01508,0.17471
0.045694,-0.15525,-0.036769,0.15586,-0.13945,-0.050331,0.00025693,0.13027
0.023841,0.095617,0.10325,-0.25835,0.27076,0.10119,0.016223,-0.12307
-0.020581,-0.0058253,-0.31784,0.059774,-0.030871,-0.0060428,0.0092962,-0.05358
-0.00087639,0.058797,0.059642,0.070456,-0.24099,-0.052004,-0.020724,-0.028457
0.067669,0.14314,0.064554,0.0072975,0.15507,0.049098,0.01964,0.10811
-0.03381,0.0060866,0.19002,0.11963,-0.14775,-0.069881,-0.026147,-0.043092
-0.016756,-0.07121,0.25737,-0.11633,0.022621,0.020972,0.021366,-0.045498
-0.030346,-0.0038936,-0.1854,0.0027504,0.14346,0.017349,-0.025464,-0.0016247
0.026188,-0.12962,-0.20726,-0.014397,-0.14365,-0.017783,0.013035,0.064277
0.035003,0.034086,0.052901,-0.080171,0.091983,-0.0058366,-0.0036573,0.050089
-0.051159,0.071507,0.01136,0.010817,0.023048,0.037943,0.0106,-0.0991
-0.044834,-0.08095,-0.43872,-0.082634,-0.021828,-0.01121,-0.014246,-0.047209
0.038651,0.052898,0.35357,0.18873,0.21537,0.05771,0.0079989,0.049987
0.0045287,0.012441,0.19474,0.029766,-0.23413,-0.05225,0.007232,-0.017727
0.017518,-0.060806,-0.35993,-0.15259,-0.28444,-0.083444,-0.024243,0.094248
0.046986,0.099995,0.48537,0.16453,0.43947,0.12019,0.046393,-0.0038802
-0.047241,-0.019523,0.032555,-0.13006,-0.054426,-0.027455,-0.023156,-0.10829
0.00065769,-0.16051,-0.3709,0.27336,-0.29708,-0.081166,-0.0065214,0.10959
-0.035967,0.091684,-0.04996,-0.27692,0.23521,0.06056,-0.0055106,-0.1079
0.022226,0.08866,0.70986,0.083096,-0.13713,-0.032004,-0.0047486,0.0046836
-0.012807,0.0017664,-0.7193,-0.18041,0.12472,0.031699,0.0033667,-0.014132
0.084858,0.13474,0.0524,0.2592,0.11386,0.056236,0.034326,0.069219
0.0020945,-0.16202,0.010912,-0.18422,-0.13162,-0.044512,-0.013465,0.13656
-0.10533,-0.15518,-0.25417,-0.040863,0.066777,0.0026968,-0.022738,-0.11781
0.043579,0.076378,0.19955,0.08982,0.0127,-0.0054116,-0.0011137,0.063119
-0.066763,-0.077015,0.033343,0.14805,-0.099169,0.0092626,0.0048082,-0.19604
0.063954,0.15041,0.17298,-0.19926,-0.034426,-0.039072,0.010972,0.12047
-0.024705,0.040345,0.057807,0.042615,0.043628,-0.0016549,-0.029189,-0.11946
0.050648,-0.031619,0.42157,0.039533,-0.22301,-0.010859,0.040809,0.04623
0.017091,0.13037,-0.27772,-0.0045284,0.19077,0.0040857,0.0023309,0.06411
-0.046918,-0.22331,-0.49775,0.1134,-0.0025008,0.012272,-0.035288,-0.025648
-0.047542,-0.084719,-0.079644,-0.092126,0.26859,0.068509,0.02151,0.043251
0.015036,0.061655,-0.075118,-0.091536,-0.050267,-0.0070546,-0.0151,0.020874
0.077906,0.090434,0.5668,-0.01963,-0.33447,-0.050785,0.010725,0.047303
-0.00010216,0.079189,0.039346,0.23106,0.31336,0.061714,0.02044,-0.058136
0.014845,0.058577,-0.063983,-0.11442,-0.19414,-0.053014,0.0058766,0.000269
-0.018266,0.028179,-0.007187,0.044585,-0.014767,-0.020502,-0.0097534,-0.028507
-0.068279,-0.16828,-0.42758,-0.40151,-0.1499,-0.044184,-0.049926,-0.098218
-0.033368,-0.13961,0.17166,0.30554,0.14935,0.039969,-0.0051082,-0.0058388
0.001129,-0.0096739,0.045859,0.1432,0.17913,0.036867,0.02347,0.092784
-0.0030409,-0.089434,-0.088723,-0.090524,0.017205,-0.014018,0.012804,-0.028156
0.087761,0.26332,0.288,-0.089825,-0.094136,0.012818,0.018034,0.046278
0.047611,0.12011,-0.14138,0.1306,-0.013665,0.039755,0.023918,0.098111
-0.0060051,-0.018622,0.18657,0.055754,-0.099583,-0.073384,-0.047413,-0.059641
-0.057567,-0.090787,-0.2371,-0.20462,-0.0064116,0.033123,0.0072668,-0.075211
-0.021603,-0.0038637,-0.14188,-0.087941,0.11956,-0.0076696,-0.0074085,0.035706
-0.0082023,-0.025195,0.60089,0.24163,-0.21936,-0.062825,-0.013493,-0.063082
0.013076,-0.062836,-0.41959,-0.075573,0.18982,0.047355,0.019994,0.049959
0.018036,0.061411,0.011187,-0.063399,0.043881,0.041507,0.014608,0.0072889
