0.0092139,0.024278,0.063587,0.011964,0.023021,0.010031,-0.00072701,0.014847
-0.022648,-0.024201,0.033176,0.10565,-0.0014735,-0.0063557,-0.009222,-0.0080673
0.03136,0.045055,0.24517,0.26,0.060968,0.024279,0.013677,0.0083119
-0.055132,-0.12691,-0.54277,-0.64211,-0.16443,-0.069695,-0.033455,-0.05328
0.04617,0.092951,0.17681,0.25882,0.095749,0.063425,0.044786,0.049221
0.0072302,0.017052,0.10655,-0.013629,0.0052618,0.0095618,-0.0015939,0.01096
0.0076982,0.074643,0.24592,0.27504,0.047939,0.002912,0.0070038,0.01143
0.055222,0.077477,0.086651,0.26555,0.16059,0.074418,0.039155,0.034824
-0.084826,-0.17065,-0.30108,-0.40917,-0.23559,-0.1044,-0.06942,-0.075231
-0.0064726,-0.045554,-0.23729,-0.23319,-0.039562,-0.026052,-0.014241,-0.014066
0.016625,0.03819,-0.0024518,-0.04194,-0.048456,-0.01103,0.001418,0.0074917
-1.385e-05,0.018023,0.021697,0.22774,0.10495,0.042192,0.03218,0.0052935
0.021771,0.019391,0.22678,-0.2204,0.014672,0.01654,0.015568,0.034321
-0.089725,-0.10527,-0.23045,0.27021,-0.053324,-0.056535,-0.048329,-0.053572
0.072014,0.059232,0.20445,0.019752,0.065345,0.049754,0.020312,0.038712
0.061989,0.11561,0.86638,0.47305,0.15997,0.077791,0.04977,0.05347
-0.0023077,0.041401,-0.47272,-0.13608,-0.058365,-0.04258,-0.0066658,-0.0093031
-0.089362,-0.2097,-0.85329,-0.70619,-0.18319,-0.061225,-0.06289,-0.063761
0.058824,0.13584,-0.0025906,0.17754,0.12179,0.076694,0.053143,0.046228
-0.1436,-0.21149,0.11879,-0.084594,-0.26,-0.16769,-0.095908,-0.10912
0.092365,0.12231,0.64503,0.44762,0.20348,0.096494,0.060389,0.063873
0.024315,0.042121,-0.29687,-0.69944,-0.072844,-0.013337,-0.0091776,-0.0051172
0.0034092,0.022893,-0.16572,0.10926,-0.0023865,0.018602,0.02344,0.011996
0.1463,0.28966,0.30587,0.56966,0.34481,0.14544,0.087724,0.10732
-0.11009,-0.25242,0.095568,0.15674,-0.25809,-0.13297,-0.074448,-0.070831
-0.13343,-0.16612,-0.19467,0.28069,-0.077486,-0.082606,-0.072798,-0.09296
0.11512,0.11962,0.22411,-0.52512,0.25269,0.17112,0.092373,0.095449
-0.10652,-0.30744,-0.56261,-0.65779,-0.36258,-0.16909,-0.10255,-0.068232
0.084924,0.20373,0.3352,0.74371,0.24748,0.11515,0.084612,0.056591
0.041765,0.14824,-0.54424,-0.49732,-0.035113,0.015811,0.021222,0.032499
-0.086665,-0.11195,0.18057,-0.071195,-0.24976,-0.16246,-0.097093,-0.10907
0.0051883,0.081102,0.35905,0.38091,0.20521,0.088262,0.03475,0.014953
0.18519,0.33717,0.51926,0.29811,0.2443,0.16665,0.11245,0.13142
-0.14006,-0.33696,-0.038285,-0.15198,-0.15527,-0.12234,-0.09024,-0.071939
-0.079987,-0.17014,-0.57599,0.16869,-0.1334,-0.10654,-0.057574,-0.055908
-0.049161,-0.10312,-0.23872,-0.17861,-0.18167,-0.027973,-0.024009,-0.039252
0.029643,-0.045896,-0.4044,-0.74879,-0.026238,-0.0038101,0.017942,0.009093
0.31927,0.72436,1.0355,0.69271,0.66889,0.38766,0.25524,0.22939
-0.12696,-0.25651,0.090388,-0.50277,-0.26843,-0.18202,-0.11746,-0.081939
-0.044662,-0.061012,-0.21181,0.46778,-0.11218,-0.1117,-0.085192,-0.073818
-0.059734,0.013287,-0.14561,0.37363,0.097979,0.027985,0.0078466,-0.0044026
-0.14122,-0.46224,-0.70243,-0.87081,-0.50559,-0.20064,-0.12755,-0.10036
0.0081302,-0.078569,0.22076,0.44206,0.2879,0.1713,0.079178,0.029113
0.27215,0.66844,0.5702,0.38359,0.37707,0.18319,0.15987,0.18135
-0.2696,-0.46644,-0.30363,-0.42282,-0.47976,-0.25036,-0.18935,-0.19773
0.20472,0.38077,0.49343,0.434,0.23368,0.1056,0.10271,0.11907
-0.014448,-0.051952,0.023499,-0.24386,0.072771,0.017227,0.0055593,-0.00053196
-0.027709,-0.14533,-0.12401,-0.48061,-0.10245,-0.022869,-0.0037045,-0.0093321
-0.10024,-0.15688,-0.64428,-0.094235,0.06798,0.001203,-0.026401,-0.04005
0.11164,0.31828,0.0073975,0.64007,-0.063826,0.00362,-8.5027e-05,0.040016
-0.033131,-0.097495,0.17174,-0.41636,-0.16923,-0.078135,-0.042244,-0.035006
0.13664,0.2878,0.8384,0.42127,0.18971,0.13863,0.12009,0.086157
-0.13754,-0.24788,-0.43072,-0.51173,-0.057016,-0.10412,-0.083945,-0.081126
-0.09061,-0.41815,-0.023754,0.26932,0.020284,0.0058347,-0.0064645,-0.037028
0.073958,0.30656,-0.012315,0.57693,0.2493,0.12432,0.06297,0.069917
-0.22998,-0.3947,-0.91681,-0.94957,-0.58973,-0.28044,-0.18857,-0.17443
0.37238,0.72825,1.0276,0.81153,0.47811,0.27524,0.20732,0.23757
-0.18965,-0.40997,-0.74723,-0.82523,-0.26813,-0.17044,-0.12472,-0.13972
0.13013,0.30046,0.55884,0.11614,0.16888,0.092488,0.072809,0.083755
0.041657,-0.12479,-0.04387,0.65605,0.25511,0.094257,0.072991,0.063461
-0.096893,-0.084652,-0.040006,-0.62458,-0.36346,-0.11915,-0.093225,-0.084267
0.025862,-0.017452,-0.074652,0.35383,0.0693,0.022025,0.019291,0.022644
-0.082985,-0.04125,-0.18058,0.34252,0.10769,0.0099115,-0.011295,-0.045895
0.092167,0.34345,0.80798,-0.054832,-0.028344,0.017009,0.010681,0.030556
-0.16658,-0.36312,-0.60286,-0.74808,-0.38277,-0.17411,-0.10158,-0.12225
0.18155,0.26212,1.0213,0.46523,0.54875,0.21192,0.14512,0.15325
-0.14231,-0.34111,-0.84527,-0.46701,-0.54102,-0.20542,-0.099583,-0.094313
-0.033897,-0.036991,-0.53761,0.18729,0.24393,0.068367,0.0092974,-0.01152
0.10306,0.021523,-0.23785,-0.18167,-0.021438,0.050837,0.019692,0.051738
0.075159,0.36866,0.72063,0.74646,0.24408,0.11823,0.065123,0.057569
0.031765,-0.048286,-0.42886,-0.21693,-0.052266,-0.04166,-0.010431,0.014229
-0.058638,-0.049113,0.088446,-0.12225,0.13509,0.03145,0.003676,-0.023972
-0.16624,-0.27565,0.16467,-0.46859,-0.43941,-0.21084,-0.11209,-0.12068
0.050316,0.042748,0.18997,0.25713,-0.022835,-0.020655,-0.015161,-0.0042117
0.15055,0.31619,0.45731,0.66651,0.262,0.12305,0.082133,0.11242
0.045439,0.0012363,-0.033256,-0.2323,0.089346,0.10075,0.068972,0.078687
0.11516,0.2658,-0.1677,0.29499,0.24383,0.090253,0.061273,0.056899
-0.30612,-0.43965,-0.43531,-0.49264,-0.3788,-0.15966,-0.12155,-0.23532
0.023261,-0.01425,0.096494,-0.29457,-0.029069,-0.016467,0.0045219,0.037681
-0.20066,-0.44093,-0.41943,-0.72878,-0.41624,-0.21392,-0.1462,-0.09226
0.047344,0.018002,0.05491,0.58203,0.23654,0.085325,0.044304,0.024621
0.15244,0.26528,-0.080863,0.18905,0.019518,0.031568,0.038153,0.069754
0.1951,0.32853,0.52746,0.38626,0.35875,0.18916,0.11009,0.099593
-0.002537,0.21076,0.16399,0.31055,-0.047386,-0.049837,-0.027842,-0.032896
-0.0019876,0.0068619,0.0025606,0.0033926,0.18523,0.080906,0.039133,0.040254
-0.12343,-0.40115,-0.21443,-0.30808,-0.27987,-0.12963,-0.079415,-0.094939
0.11704,0.25005,0.56606,0.031708,0.20376,0.099047,0.077182,0.12351
-0.22668,-0.38626,-0.93256,-0.73608,-0.29633,-0.11699,-0.085422,-0.1256
-0.24123,-0.023787,0.082655,-0.23706,-0.22814,-0.091398,-0.044513,-0.022882
0.33855,0.07769,0.23285,0.63053,0.24228,0.088997,0.097685,0.071552
0.0046661,0.089231,0.17895,0.62537,0.098421,0.03311,-0.026475,-0.061397
0.17897,-0.12174,-0.37787,-0.49372,-0.27668,-0.13405,-0.089072,-0.015402
-0.2401,0.14886,0.21011,-0.18712,0.22742,0.12697,0.027119,-0.086926
0.15362,0.44135,0.19338,0.24783,0.37789,0.18398,0.15042,0.24023
-0.2808,-0.63375,-0.41892,-0.57333,-0.56583,-0.27485,-0.1564,-0.11153
0.042144,0.1431,0.30478,0.581,0.13204,0.063592,0.099102,0.053418
0.38752,0.076987,0.0072232,0.53562,0.18344,0.059161,0.018656,0.039788
-0.1983,0.14451,0.13577,-0.11884,-0.059423,-0.037841,-0.085122,-0.11362
0.018672,-0.27168,-0.62021,-0.64217,-0.057175,-0.00070475,0.022219,-0.0010125
-0.2116,0.14854,0.56896,-0.14377,-0.0050108,0.014342,-0.0029845,0.025559
0.072145,-0.19655,-0.18602,-0.25426,-0.16854,-0.047457,0.0034612,0.043791
0.081534,0.24772,0.16283,0.38211,0.24904,0.0872,0.018301,-0.095025
-0.080942,-0.073344,0.022745,0.19236,-0.15871,-0.081877,-0.020761,0.077765
0.015365,-0.30044,-0.38659,-0.24058,-0.056312,-0.039316,-0.051059,-0.10967
0.18372,0.3786,0.35758,0.42229,0.25072,0.081734,0.036831,0.069328
-0.091085,-0.14628,-0.43149,-0.39678,-0.10607,-0.00040769,0.047465,0.052356
-0.082543,0.16298,0.066958,0.58076,0.090449,0.034049,0.0039333,0.011299
-0.056741,-0.022934,0.23569,-0.54102,-0.17716,-0.088898,-0.063062,-0.053899
0.29025,0.08395,0.31625,0.62182,0.12846,0.075533,0.088002,0.14576
-0.20651,-0.34508,-0.067541,-0.39816,0.0061015,0.019149,0.0033517,-0.15534
-0.016557,0.073048,-0.018634,-0.15239,-0.052472,-0.023802,-0.020622,-0.027319
-0.11699,0.042745,-0.64759,-0.26707,-0.11698,-0.16249,-0.21067,-0.14164
0.17174,0.16792,0.78724,0.6513,0.20484,0.19742,0.21467,0.22103
0.10768,0.022016,-0.70604,-0.87492,-0.26416,-0.11508,-0.079999,-0.0089524
-0.16791,-0.38366,-0.17322,0.30446,0.080702,0.0026601,0.031204,0.051815
0.041195,0.024451,0.66054,0.10622,0.10978,0.10644,0.072728,-0.088444
0.12661,0.34242,0.062008,0.30536,0.18521,0.048819,0.0065309,0.078225
-0.27793,-0.10857,-0.23417,-0.029366,-0.17553,-0.091399,-0.072781,-0.065509
-0.11715,-0.16546,-0.23681,-0.61511,-0.33119,-0.18893,-0.14122,-0.15286
0.36679,0.34857,0.56742,0.81802,0.3347,0.13883,0.08261,0.19835
-0.25648,-0.13345,-0.16853,0.11331,-0.00025411,-0.015117,-0.034489,-0.16891
0.3632,0.062838,0.098644,-0.15486,0.059284,0.16835,0.2566,0.27575
0.11455,0.0024855,-0.21232,-0.27266,0.025222,-0.023261,-0.061055,-0.08573
-0.29348,-0.12342,-0.23618,0.09995,0.042277,0.033429,0.026638,-0.011853
-0.19841,-0.19219,-0.30134,-0.74054,-0.37702,-0.2255,-0.19271,-0.18272
0.20384,0.030608,0.61698,0.3821,0.10919,-0.027525,-0.071744,0.12042
-0.15643,0.33651,0.060476,0.62584,0.26611,0.18186,0.092207,-0.016049
0.050751,-0.26229,-0.092633,-0.54207,-0.20974,-0.034245,0.080637,0.033746
0.17968,0.036528,-0.29245,-0.080853,0.051302,-0.01049,0.011623,0.091236
-0.30569,-0.26951,0.23658,0.26243,-0.22087,-0.14359,-0.1135,-0.2174
0.026936,0.042463,-0.32509,-0.51797,0.1022,0.06828,0.02708,0.061946
0.18681,0.60721,0.87331,0.67094,0.24218,0.11102,0.02848,0.00018715
-0.0058916,-0.27906,-0.72499,-0.23042,-0.11948,-0.037874,-0.0067698,0.027027
0.10324,0.14612,0.26779,0.39348,0.048796,0.020171,0.062353,0.1653
0.53444,0.32317,0.30193,0.25562,0.12862,0.073538,0.032503,0.023262
-0.79431,-0.63615,-0.8199,-0.6056,-0.12453,-0.066606,-0.058008,-0.1896
-0.074179,-0.11145,0.13618,-0.2541,-0.16675,-0.097259,-0.061824,-0.076277
0.075066,0.12902,0.3512,0.14598,0.13969,0.081468,0.051149,0.057438
0.050963,0.030565,0.086106,0.1679,-0.090235,-0.055174,-0.016926,0.062583
0.1748,-0.091743,-0.33427,-0.14219,0.0095682,-6.7441e-05,-0.00099233,0.025277
-0.089859,0.0010052,0.13431,-0.077608,0.064321,0.043698,-0.0026737,-0.084858
-0.051774,0.017319,0.18433,0.11881,0.0051805,-0.0012583,-0.029336,0.030467
0.050986,0.31374,-0.1412,-0.0044506,0.029864,0.046037,0.10737,0.029218
0.034654,-0.13753,-0.29328,-0.16408,-0.24939,-0.17222,-0.13054,-0.047827
-0.059029,0.063112,0.34509,0.36712,0.1936,0.095522,0.031422,0.019489
-0.19765,-0.20279,-0.51006,-0.49921,-0.17814,-0.094837,-0.054355,-0.088312
0.36826,0.22543,0.61282,0.22255,0.26922,0.19485,0.13596,0.12104
0.29289,0.28842,0.62116,0.82609,0.29325,0.10516,0.047572,0.10777
-0.4191,-0.55773,-0.60934,-0.59406,-0.41997,-0.15367,0.00017412,-0.043598
-0.083803,0.15955,-0.20214,0.054109,0.088259,-0.0203,-0.11657,-0.10052
-0.14204,-0.14789,-0.051993,-0.13807,-0.12208,-0.11328,-0.10064,-0.041534
0.16153,-0.12862,-0.22256,-0.12488,0.0013837,0.11301,0.14069,0.022267
0.10686,0.25051,0.1084,0.11098,0.11323,0.016992,0.0050748,0.03498
-0.0092365,-0.077578,-0.25006,-0.26887,-0.14677,-0.081528,-0.046953,-0.0039228
-0.11545,-0.015413,0.48879,-0.013104,0.018185,-0.0029616,0.015813,0.054191
0.0086378,0.15117,-0.10758,-0.0003227,0.061752,0.049786,-0.032927,-0.094542
-0.010073,0.041313,0.12022,0.19715,0.078481,0.045845,0.049463,-0.011363
0.17392,0.085058,0.00068003,0.0069984,-0.0089458,-0.030014,-0.033401,0.055169
-0.094374,-0.062567,0.3518,0.30092,0.011041,0.017831,0.015768,-0.088908
0.099791,-0.036657,-0.0572,0.050126,-0.040831,-0.013547,0.056583,0.15899
-0.055995,-0.0117,0.019118,0.23943,0.14042,0.040052,-0.08278,-0.013082
-0.093289,-0.1383,-0.39907,-0.41335,-0.17142,-0.039956,0.074147,-0.0035047
-0.020357,-0.15977,-0.38258,-0.39387,-0.16328,-0.073586,-0.082138,-0.10168
0.060859,0.095958,-0.092629,0.00048111,0.1813,0.064653,0.073336,0.090299
0.095535,0.26307,0.25794,0.14554,0.0040544,0.016067,0.13452,0.0094155
-0.25213,-0.1563,0.10648,0.059273,-0.0063887,-0.038866,-0.25743,-0.13367
0.2604,-0.027034,0.26517,0.073104,-0.028782,-0.0056431,0.085797,0.20795
-0.28056,-0.042605,-0.40116,-0.29394,-0.10955,-0.1181,-0.24102,-0.33251
0.10178,0.040074,0.37496,0.18717,0.12609,0.13173,0.14592,0.10486
0.18076,0.27545,0.40372,0.50936,0.19283,0.14198,0.21606,0.098727
0.065239,-0.02525,-0.21941,-0.28966,-0.067065,-0.01777,0.024258,0.063414
-0.0972,0.14385,0.35647,0.33367,0.079021,0.010809,-0.031501,0.084678
-0.17478,-0.47709,-0.7526,-0.59404,-0.28455,-0.18742,-0.13975,-0.13502
0.13625,-0.09276,-0.3275,0.21911,0.044307,0.019469,0.049693,0.082981
-0.1569,-0.094574,-0.27894,-0.60629,-0.16901,-0.13461,-0.22247,-0.27815
0.14881,0.22069,0.55635,0.44227,0.12296,0.17062,0.2925,0.1711
-0.024249,0.1819,0.19657,0.18364,0.046369,-0.0097975,-0.085991,0.10185
0.043698,0.2042,0.4124,0.024291,0.20421,0.12937,0.047949,-0.056507
-0.091267,-0.18008,-0.54772,-0.18254,-0.089705,-0.091012,-0.10241,-0.12403
-0.10728,-0.04035,0.3224,0.14405,-0.05323,-0.045486,0.0026012,0.056285
0.41121,-0.071161,-0.18298,0.32007,0.11094,0.094341,0.051408,0.055871
-0.26117,-0.10777,-0.23997,-0.62716,-0.20661,-0.1011,-0.025214,-0.045833
-0.2565,0.014608,-0.081312,0.0093247,0.0094322,0.016649,0.062872,0.049346
0.3941,0.12487,0.17558,0.029757,0.078934,0.017946,-0.042792,0.022197
-0.10669,0.075333,0.68511,0.39748,0.048364,0.035691,0.064702,0.021929
-0.025562,-0.11779,-0.69634,-0.57397,-0.12162,-0.10181,-0.10647,-0.15423
0.034424,-0.032399,0.39501,0.68507,0.13136,0.09787,0.068772,0.063956
-0.1082,-0.028149,-0.36427,-0.14017,-0.1224,-0.083781,-0.050387,-0.02715
0.20099,0.16753,-0.14825,-0.1314,0.1015,0.048688,-0.011217,0.095009
-0.21155,-0.079629,0.034265,-0.082011,-0.10322,-0.020401,0.013835,-0.031678
-0.026795,0.13476,0.18354,0.15217,0.052293,0.044578,0.031867,-0.0022981
0.1685,-0.027308,0.27723,0.075428,0.13007,0.09459,0.081128,0.072437
-0.0087214,-0.22407,-0.6755,-0.68174,-0.24567,-0.18371,-0.15174,-0.12113
-0.065962,0.074111,0.51379,0.41878,0.15841,0.052439,0.090232,0.025551
0.06791,-0.14167,-0.12358,-0.083735,-0.096455,-0.057374,-0.084302,-0.042566
-0.051193,0.214,0.38,0.21785,0.11339,0.10312,0.058487,0.073071
-0.085865,0.063033,-0.32931,0.11358,0.044554,0.033248,0.026127,-0.048872
0.0904,-0.078562,0.057903,0.11183,-0.038205,-0.017316,0.006135,0.045572
-0.091404,-0.061678,-0.36797,-0.70154,-0.096128,-0.056261,-0.032393,-0.017623
0.11959,0.13015,0.28063,0.50869,0.011814,-0.036114,-0.03411,-0.010956
-0.15134,-0.15054,-0.39697,-0.2663,-0.10385,-0.018344,0.0019019,0.0038267
0.20478,0.081739,0.69199,0.34767,0.12117,0.045272,0.0064073,0.019402
0.022959,0.039222,-0.116,0.23348,0.111,0.078088,0.074254,0.043781
-0.08866,-0.16725,-0.22488,-0.49019,-0.24917,-0.15288,-0.12171,-0.10277
0.2516,0.26085,0.58826,0.34418,0.24597,0.087853,0.012957,0.10301
-0.41006,-0.11224,-0.42074,-0.34389,0.020084,0.1291,0.16612,-0.034387
0.027999,-0.17542,-0.74473,-0.48488,-0.19128,-0.12268,-0.099742,-0.038482
-0.027066,0.018115,-0.047973,0.061589,0.057668,0.035414,0.058783,0.028345
-0.019047,0.1647,0.7623,0.48973,0.055778,-0.0065364,-0.030729,-0.0054519
0.18661,-0.00096725,-0.10605,0.046057,-0.15093,-0.17116,-0.15797,-0.10033
-0.010202,-0.034121,0.29377,0.45005,0.14708,0.12662,0.082707,0.048876
0.0084354,-0.092486,-0.27499,-0.3954,-0.08326,-0.020273,-0.020155,0.028452
0.0079054,0.13417,0.30662,0.049514,0.10133,0.082628,0.12677,0.057171
0.14328,0.080554,0.13149,0.095544,-0.012147,-0.026374,-0.070645,0.03311
-0.095082,0.0015993,-0.16953,-0.025472,0.066673,0.058309,0.06698,-0.013209
0.056447,-0.18334,-0.68356,-0.31499,-0.12449,-0.085695,-0.070011,0.050059
-0.38038,-0.046331,-0.11269,-0.27185,-0.039464,0.0022947,0.0025484,-0.2156
0.085636,-0.088049,0.19583,-0.008595,-0.084435,-0.083945,-0.035749,0.024913
0.040276,0.30131,0.46852,0.38926,0.1632,0.085591,0.041704,0.091345
0.10131,-0.025297,0.41929,0.26105,0.032797,0.011446,-0.014899,-0.055559
0.090076,-0.23769,-0.74364,-0.48168,-0.1695,-0.055706,-0.017747,0.037444
0.01551,0.10393,0.18897,0.27634,0.1749,0.10356,0.072611,0.073823
-0.051153,0.079771,-0.042448,0.040494,-0.034453,-0.064889,-0.06373,-0.070961
-0.078104,-0.15234,-0.44854,-0.083589,-0.0078224,0.017471,0.042354,0.01765
0.0051397,0.33809,0.74729,0.29704,0.059693,0.038327,0.0083572,0.019832
0.026586,-0.15205,-0.20411,-0.44983,-0.10553,-0.064813,-0.063944,-0.017071
0.017241,-0.076542,0.10204,-0.012493,-0.066433,-0.049878,-0.026006,-0.069164
0.062849,0.016657,0.15449,0.25583,0.16862,0.098566,0.090922,0.059314
0.022781,-0.17055,-0.692,-0.23275,-0.15871,-0.065005,-0.025769,0.025035
-0.21209,0.16538,0.36247,0.17626,0.10743,0.060774,0.0065398,-0.070095
0.030574,0.00016599,0.032731,0.036454,-0.0019039,-0.0086252,0.0079116,0.031937
-0.18622,0.020729,0.26195,-0.12895,0.028876,0.023581,0.017155,-0.028257
0.32536,-0.046648,-0.051253,0.1652,-0.10477,-0.10826,-0.10656,0.022484
0.096507,0.040144,-0.49792,-0.19662,0.034913,0.049008,0.058498,0.066424
-0.084303,-0.023535,0.11431,0.06131,0.010714,0.01888,0.020121,-0.006573
0.094377,0.0046005,-0.25529,-0.21482,-0.013072,-0.011105,0.0049086,0.0057566
-0.25939,-0.03159,0.22771,0.05517,-0.0051077,-0.0097194,-0.041744,-0.077072
0.064093,0.063309,0.2168,0.38808,0.089187,0.069793,0.052118,0.017809
0.048345,-0.11684,0.011572,-0.20844,-0.097693,-0.07747,-0.065029,-0.053573
-0.033433,0.24846,0.67432,0.27184,0.13691,0.079461,0.083349,0.091771
-0.087049,-0.19989,-0.74333,-0.41611,-0.16065,-0.084697,-0.057536,-0.069065
0.068198,0.038585,0.23003,0.19278,0.079496,0.03921,0.019978,0.019379
-0.011657,0.0036192,-0.28668,-0.077203,-0.010087,0.013594,0.026664,0.061084
0.081015,-0.093012,-0.01794,0.090878,-0.069991,-0.083349,-0.076677,-0.075991
-0.074536,0.023045,-0.25723,-0.21936,0.032921,0.04549,0.030211,-0.00066637
0.16301,0.13388,0.43813,0.42084,0.088285,0.041096,0.042695,0.10764
0.043879,-0.15055,-0.58116,-0.76133,-0.16881,-0.049234,-0.031229,-0.024547
-0.19773,0.15436,0.42755,0.65796,0.20767,0.095233,0.035307,-0.022474
-0.046599,0.0014638,0.49666,-0.068281,-0.1254,-0.087648,-0.038542,-0.034966
0.028047,-0.063047,-0.20836,-0.249,-0.027022,-0.011686,-0.033575,-0.054615
-0.052381,-0.04021,-0.0063741,0.3225,0.10448,0.034175,0.027195,0.051044
0.07104,-0.11094,-0.43483,-0.43655,-0.13731,-0.059462,-0.027796,-0.022947
0.077491,0.20791,0.61775,0.5075,0.17688,0.082243,0.043755,0.020071
-0.04149,-0.022239,-0.54103,-0.078256,-0.023772,0.0058918,0.030778,0.054886
-0.060151,-0.052151,-0.17305,-0.20118,-0.10698,-0.046666,-0.028041,-0.020307
0.20029,-0.030582,0.069743,-0.15081,0.0049889,0.033607,0.038612,0.005151
-0.089094,0.042676,0.011821,-0.061312,-0.01614,-0.011358,-0.012074,-0.017451
0.055578,0.20745,0.59384,0.65121,0.14223,0.021447,-0.016582,0.028885
-0.17811,-0.40216,-0.46411,-0.6721,-0.15241,-0.078856,-0.076816,-0.090243
-0.039365,0.12172,0.18847,0.34081,0.0065938,0.00044974,0.018096,0.094106
-0.018936,0.038673,0.032554,-0.12554,0.018045,0.001859,-0.0050734,-0.073894
0.10382,-0.0091043,-0.015267,0.10592,-0.00069889,0.035047,0.049392,0.00010478
-0.091016,0.088824,0.070087,0.23649,0.12213,0.076769,0.05697,0.019898
0.24192,0.035865,0.12652,-0.023478,-0.004511,-0.029212,-0.052227,-0.013906
-0.029295,-0.13738,-0.52997,-0.47772,-0.053111,-0.0096314,0.0033269,0.047551
-0.11558,-0.026209,-0.088827,-0.15499,-0.10248,-0.067932,-0.041916,0.0091021
0.083725,0.14051,0.34135,0.32341,0.10463,0.037699,0.046304,0.050288
-0.065765,-0.022763,0.12314,0.11011,0.0054638,0.033479,0.025535,-0.048031
-0.058215,-0.003115,-0.20745,-0.23643,-0.087402,-0.073028,-0.065509,-0.075445
-0.0050131,-0.13876,-0.59063,-0.12792,-0.071972,-0.008509,-0.00063089,-0.024691
0.099913,0.21736,0.90737,0.74059,0.15395,0.078584,0.047977,0.080317
-0.041545,-0.020857,-0.23493,-0.3049,0.0050969,-0.0070106,-0.029294,0.0048526
-0.00030245,-0.14911,-0.080824,-0.15147,-0.10401,-0.054292,-0.021633,-0.040369
0.059632,0.030394,0.60062,0.32809,0.12364,0.061774,0.055307,0.046094
-0.13454,-0.11957,-0.0475,-0.2783,-0.070048,-0.041637,-0.032789,-0.040504
-0.034874,-0.095221,-0.64044,-0.31143,0.05647,0.018242,-0.0045456,0.035754
0.11777,0.052246,-0.20652,0.022686,-0.06015,-0.00081579,0.030837,-0.021998
0.10598,0.55191,0.62669,0.58307,0.19646,0.05746,0.0032565,0.090978
-0.053392,-0.15766,-0.24964,-0.23738,-0.2055,-0.095862,-0.063615,-0.16426
-0.015649,-0.15512,-0.33195,-0.2702,-0.062994,0.023867,0.057037,0.087528
-0.061413,-0.059637,-0.3253,-0.18943,0.038499,-0.00482,-0.025152,0.0029347
-0.26072,-0.27264,0.48793,0.14352,-0.071985,-0.017374,0.033813,0.012117
0.38638,0.22585,0.20749,0.2881,0.13016,0.017929,-0.054923,-0.056262
-0.081444,0.26061,0.47001,0.20021,0.021053,0.0076905,0.013467,-0.0063459
-0.039856,-0.23362,-0.13763,0.01309,-0.0078596,0.022357,0.020279,-0.032986
0.16657,0.0070339,-0.1955,-0.24384,-0.018766,-0.031956,-0.018924,0.16881
-0.064559,0.17733,-0.16856,0.20733,0.1678,0.10999,0.075374,-0.018053
-0.19483,-0.2923,-0.38202,-0.37936,-0.22224,-0.11488,-0.07208,-0.11714
0.056663,0.053153,0.30813,0.25856,0.099343,0.042851,0.007175,0.011874
-0.075654,-0.002315,-0.15573,-0.46649,-0.11044,-0.034526,-0.0074444,0.009177
0.1117,0.1069,0.54584,0.21915,0.030714,-0.011349,0.016679,0.03836
0.033299,-0.077219,-0.63283,-0.10444,-0.032012,-0.020425,-0.029913,-0.057283
0.0021691,0.080407,0.42829,0.50335,0.068833,0.04791,0.05595,0.073419
0.081167,-0.0049461,-0.10295,-0.094732,0.075986,0.037906,-0.006818,-0.022955
-0.057689,0.057367,-0.44155,-0.55219,-0.15833,-0.081091,-0.061714,-0.026282
-0.070696,0.063123,0.53253,0.3902,0.077439,0.027415,0.0087371,-0.0069535
0.041983,-0.10681,0.25018,0.36492,0.096159,0.059133,0.056359,0.074102
-0.063594,-0.1658,-0.65663,-0.62232,-0.18024,-0.079536,-0.043679,-0.11118
-0.098538,-0.085046,0.090423,0.29993,0.037015,-0.013724,-0.017917,-0.039282
0.13231,0.2348,0.52583,0.26799,0.1223,0.092106,0.071,0.1492
