-0.038457,-0.0041871,0.032392,0.022778,-0.0070358,0.0014223,0.012294,0.0098104
0.11806,0.081526,0.13369,0.055679,0.0089648,0.0097548,-0.020371,-0.054278
-0.21705,-0.052723,-0.35374,-0.029685,0.0086621,0.017666,0.032351,0.077383
0.10471,-0.063385,-0.024846,-0.069435,-0.031369,-0.037427,-0.071471,-0.086939
0.19256,-0.012908,0.026006,0.0067623,-0.0094025,0.0085566,0.020043,-0.0077805
0.015004,0.036559,0.15044,0.019451,0.0045428,0.0073051,0.041586,0.10415
0.01705,0.077836,0.34141,0.023723,0.010832,-0.0097121,0.0012369,-0.055868
-0.12181,-0.12262,-0.41532,-0.018978,0.0098253,0.012465,0.024161,0.12902
-0.50311,0.014187,-0.0085283,0.024676,0.0018,-0.027456,-0.053663,-0.19334
0.46713,0.059358,-0.045476,-0.0011285,0.018141,0.019174,-0.013561,0.070035
-0.17171,-0.033471,0.0071595,-0.033595,-0.019312,-0.0037966,0.019287,0.0042813
0.31496,0.056148,0.11202,0.036777,0.0064389,0.036404,0.02901,0.1478
0.028594,-0.015822,0.1295,-0.0088119,-0.0221,-0.016655,-0.0081094,-0.21075
-0.12505,-0.015693,-0.19034,-0.022117,0.011896,0.00080863,0.001404,0.030112
-0.092033,0.00086385,-0.059422,0.027814,0.00651,-0.013097,-0.044255,-0.051225
0.16588,-0.053224,0.17659,0.01563,-0.022929,-0.027425,-0.020271,-0.0011428
-0.32063,0.070922,0.31199,-0.035601,0.02494,0.020102,0.034183,0.21221
-0.075102,-0.096399,-0.61697,-0.063737,-0.014041,0.02001,0.087834,-0.17625
0.69984,0.17072,0.26999,0.04807,0.00076685,-0.012048,-0.0076848,0.091694
-0.42443,-0.12797,-0.091462,0.010443,0.0069671,0.0022007,-0.049064,0.086549
-0.14178,-0.015748,-0.11615,0.010597,-0.0030809,-0.0073343,-0.036013,-0.11351
-0.12254,0.062679,0.42292,0.12644,0.017715,-0.024774,-0.10097,-0.016304
0.33772,-0.024531,-0.28521,-0.11084,-0.031967,0.036051,0.10019,-0.098398
-0.36969,0.03636,0.082232,0.033254,0.043433,-0.012192,-0.0025454,-0.11755
0.63788,-0.018916,-0.12024,-0.1049,-0.052722,0.010264,0.044048,0.26226
-0.14061,-0.017186,0.094753,0.0066719,0.046968,0.056532,0.075771,0.13484
-0.19913,-0.10584,-0.19998,-0.0061398,-0.040144,-0.04534,0.04539,0.04705
-0.055426,0.082922,0.10646,-0.048672,-0.024899,-0.076706,-0.24288,-0.41529
0.08542,0.010061,0.1392,0.15319,0.06927,0.040465,0.046434,0.075813
-0.23114,0.12808,0.02188,-0.0096758,-0.015549,0.017052,0.069311,0.090528
0.11925,-0.11113,-0.091987,-0.037587,-0.0061177,0.009282,-0.057103,0.058469
0.035171,0.064233,0.15337,0.029573,-0.019895,0.0093462,0.058047,-0.059419
0.15019,0.011725,0.19169,0.17502,0.09126,0.032886,0.0089517,0.22135
-0.2456,-0.19215,-0.48795,-0.24307,-0.12604,-0.09977,-0.039777,-0.19272
0.083214,0.068623,0.29244,0.040015,0.04676,0.048894,0.0061546,-0.082511
0.082736,0.074825,-0.52955,-0.13239,-0.015394,-0.0054869,0.01436,0.08375
0.23785,-0.017018,0.11825,-0.017862,-0.0077617,0.010527,0.016312,-0.076208
-0.22459,0.0050128,0.24686,0.16562,0.046372,0.010997,-0.019273,-0.046345
0.078542,-0.0060056,0.11782,0.067596,0.0065946,-0.011896,-0.04581,0.12655
-0.54752,-0.1186,0.00019119,-0.045146,-0.0096755,0.012159,0.045563,-0.0032344
0.19502,0.098679,-0.11932,-0.062306,-0.033482,-0.010575,-0.011434,-0.014821
0.72156,0.022266,0.096108,-0.022447,-0.0099842,-0.0019389,0.18876,0.27001
-0.59134,0.035849,0.17711,0.1213,0.029643,-0.04001,-0.28413,-0.22859
-0.085863,-0.047893,-0.14373,-0.08469,0.0072554,0.047133,0.10857,-0.12157
0.36425,0.036148,-0.3063,-0.016284,-0.046017,-0.060805,-0.062915,0.097826
-0.31847,-0.025614,-0.023926,-0.010475,0.049303,0.089263,0.060994,-0.039378
-0.11076,0.023207,0.25618,0.13483,0.027323,-0.018393,-0.050474,-0.087128
0.50191,-0.037629,0.17361,-0.049896,-0.010667,0.03795,0.18144,0.19838
-0.26373,-0.02972,-0.26394,-0.088497,-0.049254,-0.062189,-0.11757,-0.063453
-0.04317,-0.0008135,0.092675,-0.019944,-0.0025958,-0.022059,-0.14222,-0.19836
0.46531,0.064367,-0.18493,-0.015564,0.019991,0.017668,0.16261,0.15511
-0.39726,-0.037128,0.021937,0.073955,-0.020351,-0.021091,-0.023239,0.17801
-0.2501,-0.015635,0.019325,-0.031631,0.0095022,0.010209,-0.028071,-0.18401
0.015137,0.035955,0.47216,0.098271,0.039581,0.057005,0.01481,0.052662
0.062612,-0.10021,-0.39282,-0.05915,-0.047006,-0.044693,-0.0047327,0.042527
0.3855,0.13912,0.1036,0.035408,0.031172,0.017604,0.021757,-0.029317
-0.38187,-0.042525,-0.11767,-0.047897,-0.038359,-0.029659,0.046501,-0.14203
0.38716,0.011115,0.12189,0.065473,0.080203,0.055514,-0.024946,0.28021
-0.20445,-0.012856,-0.20219,-0.13294,-0.043087,-0.0083373,-0.036639,-0.13133
0.0083077,0.04112,0.089067,0.0593,-0.010113,-0.026051,-0.019626,-0.15843
-0.26327,-0.085586,-0.020209,-0.030289,-0.0086801,0.010165,-0.020048,0.02762
0.32441,0.028166,0.017027,0.058766,-0.015577,-0.055784,-0.02112,0.037787
-0.159,-0.00089288,0.13094,0.013682,0.008157,0.018627,-0.013658,-0.00071284
0.066806,0.030333,-0.10752,-0.056263,0.015684,0.015116,0.081766,0.16452
-0.10084,0.028568,0.14605,0.10682,0.046221,0.043575,0.047354,-0.12847
0.21205,-0.020849,-0.12337,-0.04372,-0.048434,-0.043972,-0.030558,-0.073582
-0.073254,-0.14001,-0.16531,-0.16377,-0.033637,0.010604,-0.011574,0.04846
0.066744,0.03978,0.14561,0.090834,0.028359,0.027726,0.10353,0.32322
-0.046656,0.051216,0.036164,0.056473,0.012737,-0.023976,-0.16294,-0.18789
-0.05987,0.098484,-0.0091999,0.0069547,-0.0023014,-0.027637,-0.0075112,-0.15816
-0.18088,-0.036703,0.07975,0.028467,0.014449,0.024083,0.045363,-0.073381
-0.070258,-0.065558,-0.04877,0.0039289,0.0003284,0.021266,0.026306,0.057631
0.28327,0.0030895,-0.12166,-0.097939,-0.01366,0.025883,0.083638,0.24224
-0.062985,0.026985,-0.037786,-0.011656,-0.0043677,-0.040625,-0.17289,-0.16784
-0.13911,0.12132,0.10859,-0.018709,-0.034585,-0.061363,0.038689,-0.10952
0.21813,-0.20817,-0.011262,0.052458,0.012627,0.002599,-0.14013,-0.019532
0.3575,0.091425,0.031673,0.037388,0.035516,0.057518,0.27574,0.28242
-0.35048,0.057888,0.10389,0.021575,-0.0050887,0.0097347,-0.18217,-0.25037
0.12012,-0.13743,0.025107,0.12178,0.062664,0.039056,0.15771,0.17853
-0.32966,0.021343,-0.21281,-0.2248,-0.097085,-0.057534,-0.041462,-0.064754
-0.094588,0.050818,0.030846,0.020835,-0.0075927,-0.014322,0.023654,0.072921
0.096391,-0.094378,-0.12616,-0.039504,-0.0045106,-0.010905,-0.0077656,-0.097581
0.38362,0.20471,0.16876,0.086954,0.092213,0.1091,0.058458,0.23492
-0.23118,-0.12047,0.010661,-0.013021,-0.052959,-0.068152,-0.19216,-0.34422
-0.44783,-0.037186,0.088396,0.075573,-0.0021364,-0.065778,0.053421,0.017006
0.76917,0.088409,-0.11252,-0.0839,-0.005002,0.046336,-0.039168,0.14829
-0.26317,-0.016609,-0.044514,-0.084582,-0.037915,-0.020386,-0.11601,-0.10417
-0.34546,-0.039761,0.034739,0.12843,0.055429,0.0079741,0.16938,-0.073342
0.50984,0.018479,-0.00025397,-0.038877,0.0092962,0.053671,-0.00077289,0.0014399
0.10939,0.008858,0.060381,0.061207,0.010932,-0.008087,0.14876,0.16141
-0.59311,-0.030577,0.027655,0.029135,-0.010331,0.017996,0.16553,0.21226
0.14384,0.01627,-0.084496,-0.10516,-0.023638,-0.040204,-0.51363,0.083295
-0.017561,-0.031346,0.011382,-0.014852,-0.029355,-0.058151,0.054665,-0.57098
-0.080143,-0.064994,0.056235,0.095859,0.026925,0.018211,0.12528,0.0904
0.41354,0.10988,-0.1615,-0.18774,-0.050287,-0.007178,-0.024094,0.11875
0.37376,0.10212,0.030202,0.017025,0.028008,0.083637,0.45447,0.1747
-0.99209,-0.072813,0.16358,0.24968,0.074347,-0.0069659,-0.33282,-0.11193
0.41481,0.030612,0.11539,0.065906,0.073238,0.087616,-0.052109,0.10049
-0.055316,-0.15719,-0.28386,-0.24373,-0.13914,-0.15634,-0.094643,-0.25143
0.17606,0.036874,-0.031431,-0.044533,0.015699,0.050365,-0.2328,0.059381
0.40033,0.090977,0.2582,0.15774,0.0148,-0.026033,0.4188,0.26138
-0.94104,-0.18841,-0.47521,-0.33807,-0.1491,-0.087617,-0.22994,-0.32988
-0.085194,0.13784,0.38691,0.32895,0.11043,0.0075532,0.074994,0.070644
0.41053,0.055224,-0.046024,-0.0905,0.028093,0.096752,0.18882,-0.095632
0.40968,-0.1078,-0.056712,-0.081188,0.025754,0.10293,-0.096701,0.29193
-0.70278,0.08559,0.23473,0.27715,0.040499,-0.10614,-0.022402,-0.18619
0.51787,0.0087591,-0.058562,-0.041641,-0.0065981,0.047578,-0.041454,0.12715
0.0056696,-0.028188,-0.14425,-0.11908,-0.1166,-0.14756,0.11054,-0.13599
0.34081,0.10482,0.15312,0.15071,0.12343,0.14313,-0.044932,0.14718
-0.38203,-0.094767,-0.24776,-0.25088,-0.10776,-0.027219,0.11498,0.082756
0.0025478,0.0040413,-0.051483,-0.060019,0.0017597,0.019499,-0.14593,-0.028247
0.08374,0.10373,0.33621,0.31673,0.092539,-0.014895,-0.28974,-0.12673
-0.53838,-0.23243,-0.30884,-0.30685,-0.10058,0.00945,0.21445,-0.19956
-0.13532,0.036711,0.12658,0.11872,0.024862,-0.087231,-0.078358,-0.060506
0.28224,-0.20301,-0.26704,-0.18436,-0.014313,0.04728,0.14493,0.11087
-0.10715,0.19232,0.37409,0.27968,0.04877,-0.046673,0.20514,0.22207
0.53934,0.014565,-0.16537,-0.064188,-0.058228,-0.093994,-0.37423,0.11111
0.21936,0.21065,0.15547,0.043881,0.11077,0.25078,0.48445,0.030445
-0.10318,0.11655,0.2116,0.15147,0.040475,-0.034359,-0.26668,-0.158
-0.3814,-0.2068,-0.29564,-0.22642,-0.14424,-0.073527,-0.13662,-0.36598
-0.094581,0.16754,0.14634,0.17413,0.079572,0.055331,0.26414,0.31468
-0.044338,-0.21684,-0.27085,-0.31326,-0.14045,-0.046755,-0.50256,-0.10699
0.2714,-0.26928,-0.2852,0.0041714,0.030669,-0.052796,0.21935,0.03343
-0.33279,0.12511,0.51433,0.23348,0.099718,0.0044138,0.039558,0.047668
0.45079,-0.081705,-0.24143,-0.17406,-0.012447,0.12316,0.27896,0.082217
-0.0060241,0.36023,0.39982,0.2022,0.029194,-0.073197,-0.24154,0.071567
0.13166,-0.12631,-0.14737,-0.099179,-0.026074,0.031211,0.048778,-0.15206
-0.58808,0.2259,-0.037494,0.04699,-0.0067671,-0.072254,-0.099931,-0.045645
-0.42758,-0.18276,-0.15042,-0.061509,-0.04566,-0.016607,0.15603,0.19997
0.61009,-0.053213,-0.076004,0.014389,0.045292,0.089232,0.097814,0.059164
0.25688,-0.14105,-0.0051202,0.065878,-0.014111,-0.050554,-0.17292,-0.35139
-0.052447,-0.014401,0.058834,-0.08421,-0.027088,0.010881,-0.11664,-0.030401
0.092439,0.15677,0.20552,-0.066052,0.015884,0.040982,0.12695,-0.037391
-0.1652,-0.0010383,-0.17205,-0.056932,-0.031926,-0.067747,-0.2611,0.14738
-0.29294,0.11458,0.20019,0.093365,-0.0050267,0.014538,0.38479,0.1222
0.77959,-0.019691,-0.038457,0.12782,0.097473,0.023551,-0.10585,0.25058
-0.69832,-0.084142,-0.21139,-0.079016,-0.060188,0.0069593,-0.17741,-0.41755
-0.10273,-0.095643,0.16131,0.096179,0.044825,-0.074168,0.1781,0.009999
-0.20831,0.045657,-0.0505,-0.060294,0.028391,0.13117,0.092804,0.15038
0.73349,0.033057,0.022999,0.096589,0.005886,-0.050133,0.080888,0.22868
-0.35735,-0.080913,-0.060194,-0.22577,-0.1341,-0.08073,-0.35182,-0.39046
0.21977,-0.024975,0.0013124,-0.0070592,-0.0028746,0.060776,0.12846,0.016491
-0.077482,0.38635,0.31514,0.2739,0.10111,-0.041763,-0.050484,0.040223
-0.096713,-0.2549,-0.61103,-0.42313,-0.026294,0.21137,0.22717,0.10005
0.43152,0.034439,0.16165,0.12839,-0.026064,-0.14992,-0.3829,0.01455
-0.67602,-0.15241,0.14344,0.19507,0.023953,-0.07155,0.38517,-0.076385
0.38288,0.083257,0.1499,0.012949,-0.008227,0.017013,-0.19418,0.14787
-0.1583,-0.062176,0.020095,-0.0096223,-0.019815,-0.039427,-0.041252,-0.36615
0.21698,-0.063553,-0.21187,-0.12823,0.0062566,0.042084,0.095792,0.20373
-0.39487,0.15937,0.08128,0.026466,0.040204,0.052674,0.04689,0.039353
0.08034,0.12441,0.096527,0.089232,0.020855,-0.060273,-0.12398,0.10371
0.10801,-0.088262,-0.16506,-0.11798,-0.035102,0.095603,-0.14246,-0.17975
0.012583,0.02299,-0.031005,0.023274,-0.0097545,-0.025439,0.24947,0.14293
0.054956,-0.16567,0.05357,0.0059685,-0.027755,-0.016754,0.18417,-0.11573
-0.13057,-0.098897,-0.14583,-0.14619,-0.06569,-0.058375,-0.19875,-0.097152
0.65891,0.25469,0.42506,0.36338,0.15732,0.067487,0.029208,0.30666
-0.48449,0.019735,-0.12508,-0.075519,0.023437,0.031346,-0.070579,0.00026177
0.32743,-0.046775,-0.24252,-0.15944,-0.061963,-0.051117,-0.014453,-0.072675
-0.86874,-0.08671,-0.037787,-0.069596,-0.068598,0.021826,-0.013553,-0.21814
0.16724,-0.086022,0.097227,-0.0028936,-0.044316,-0.094663,-0.3411,-0.030634
0.090592,0.13318,0.13776,0.20325,0.064697,0.0050085,0.43296,-0.072849
0.44797,0.092442,0.1138,0.071056,0.1093,0.062815,-0.18342,0.21012
-0.41656,-0.13969,-0.18664,-0.18933,-0.059438,0.0086135,0.17657,0.021792
0.23968,0.083765,-0.13146,-0.078246,-0.035484,0.022523,0.3088,0.19059
0.46397,0.082195,0.15414,0.068556,0.024972,0.0035472,-0.077243,0.19324
-0.51679,-0.074241,-0.016942,0.04075,-0.026141,-0.055535,-0.28769,-0.40774
0.00097069,-0.16607,-0.10467,-0.043542,-0.016308,0.033324,-0.089081,-0.19815
-0.20064,0.027069,0.072056,0.051145,0.0084471,-0.002846,-0.122,0.0020511
0.33299,0.10122,0.077436,0.044651,0.017826,-0.0074156,-0.064973,0.060724
-0.43504,-0.12845,-0.08684,-0.054245,-0.018501,-0.034783,0.17779,0.22878
0.38846,0.22345,0.14319,0.1068,0.064284,0.063689,0.24157,0.18689
-0.26427,-0.13785,-0.23925,-0.22166,-0.077086,-0.055644,0.097381,-0.15008
0.16343,0.01539,0.16469,0.14823,0.065354,0.00566,-0.27666,-0.26594
0.21936,0.066143,-0.074893,-0.095887,-0.032018,0.020935,0.065272,0.10516
0.035851,-0.0021308,0.017677,0.0067933,0.0053244,0.013416,-0.057053,-0.075945
-0.17021,-0.0037009,0.050323,0.057423,0.0048334,0.014086,0.011187,0.19039
-0.59724,-0.05022,-0.01005,0.00056714,-0.034259,-0.055468,0.018064,-0.01828
0.89142,0.051262,0.022056,0.046092,0.043541,0.1014,0.094396,0.070849
-0.41954,-0.045038,-0.019294,-0.041705,-0.043672,-0.085751,0.043256,-0.035016
-0.010926,-0.059263,-0.0027613,0.048242,0.039538,0.015935,-0.20656,-0.16443
0.0041422,0.031433,0.016101,-0.005741,-0.035276,-0.085548,-0.014415,-0.0050602
0.24006,-0.022763,-0.17381,-0.11099,0.028599,0.086627,0.034655,0.10722
-0.10941,0.036746,0.068633,-0.01817,-0.042302,-0.061048,-0.096889,-0.21801
-0.26312,-0.054568,-0.036848,-0.00088173,0.033325,0.065269,0.20206,0.17562
0.31941,0.024712,0.050034,0.042762,-0.010044,-0.0033272,-0.098282,0.06142
-0.23394,0.16608,0.16645,0.051016,0.0074099,0.053041,-0.028389,0.10295
0.21366,0.073181,0.14163,0.18123,0.070241,-0.031906,0.17724,-0.013095
-0.1064,-0.20692,-0.24221,-0.16677,-0.055655,-0.0010843,0.23634,-0.1001
-0.079668,-0.06482,0.00027305,-0.030403,0.028582,0.019897,-0.35267,-0.018113
-0.16231,0.038557,0.034213,0.029666,-0.059238,-0.10988,0.025684,-0.18129
0.56364,-0.052847,-0.30318,-0.21119,-0.044856,0.047254,-0.25495,0.2626
-0.30547,0.15357,0.1223,0.053542,-0.0054477,-0.023672,0.20327,-0.13813
-0.13585,0.033411,0.21814,0.20811,0.091183,0.014351,0.11939,-0.022075
-0.0063585,-0.20954,-0.18679,-0.13738,-0.043264,0.029815,-0.12263,-0.10577
0.24483,0.0033807,0.11053,0.079346,0.021303,0.0084004,-0.060202,0.26116
0.11427,0.16463,0.25741,0.18515,0.089505,-0.0097729,0.10535,0.04861
-0.14429,-0.030649,-0.35767,-0.29872,-0.10485,0.014975,0.070851,-0.25115
-0.20687,0.010696,0.059265,0.054566,-0.015882,-0.050111,-0.069044,0.11072
0.001061,0.092354,0.26285,0.21073,0.081703,0.013201,-0.0095363,0.046026
0.10967,-0.12283,-0.2342,-0.16893,-0.024369,0.11015,0.061197,-0.049772
0.031558,-0.097012,-0.13717,-0.14114,-0.077481,-0.10435,-0.045644,0.18736
0.25857,0.1688,0.23261,0.25401,0.093358,0.040156,-0.050437,0.13754
-0.66187,-0.21667,-0.3668,-0.33498,-0.090441,0.018937,0.24052,-0.45089
0.044798,0.097871,0.26906,0.18669,0.019535,-0.098621,-0.33028,-0.1329
0.44228,0.08124,0.087597,0.094189,0.0017616,-0.031721,0.048961,-0.0010413
0.2582,-0.063152,-0.19003,-0.16509,-0.0025293,0.094693,0.050103,0.20478
-0.05362,0.11039,0.28219,0.24678,0.085507,-0.0079569,0.056517,0.22178
-0.33644,-0.085255,-0.11894,-0.082592,-0.022491,-0.010782,-0.087097,-0.17392
-0.081994,-0.0090823,-0.12667,-0.11298,-0.029046,0.032388,0.050008,0.074313
-0.086436,0.04242,0.11886,0.093749,0.01162,-0.026102,-0.0078255,0.068929
0.049748,-0.016214,-0.023035,-0.048144,-0.025152,0.0018247,0.13057,-0.026202
0.054503,0.026561,-0.013696,0.00028038,0.0093188,0.046159,-0.081568,-0.07147
0.21052,-0.11756,-0.041202,-0.026917,-0.017613,-0.033699,-0.011724,0.03326
0.089291,0.013205,-0.035835,-0.020778,-0.019922,-0.058277,-0.012007,-0.24468
-0.30069,-0.064701,-0.076243,-0.059897,-0.0054367,0.057979,0.034154,0.093622
0.2281,0.18841,0.26684,0.2146,0.033507,-0.091651,-0.17844,-0.069699
-0.24682,0.030625,-0.014732,0.020942,0.080983,0.13299,0.092095,0.11662
0.10155,-0.061617,-0.12429,-0.14917,-0.043122,-0.010662,-0.013633,0.1525
-0.032941,-0.041969,-0.046304,-0.038322,-0.026789,-0.03846,0.043652,-0.048052
0.012201,0.034091,0.094321,0.072044,0.012373,0.0027407,0.25657,0.13213
-0.069217,-0.068679,-0.061495,-0.02895,-0.035249,-0.019569,-0.24143,-0.17407
0.29189,0.086488,0.10394,0.096557,0.01788,-0.0032348,0.15203,-0.075663
0.15726,-0.00085213,-0.064956,-0.043001,0.023673,0.029142,-0.35111,0.053206
-0.30144,-0.057332,-0.090922,-0.11089,-0.056316,-0.015223,0.054918,-0.043878
-0.50565,-0.090491,-0.0046169,-0.0047512,-0.010383,-0.049458,0.12892,-0.076
0.014268,0.048597,0.084864,0.072925,0.029399,0.020906,0.035591,-0.0099045
0.67343,0.063554,0.036696,0.020809,0.001048,0.032138,-0.084431,0.17177
-0.12885,-0.006274,-0.079596,-0.036409,0.014071,0.0074984,0.13522,0.0012789
0.17028,0.073381,0.14088,0.10348,0.052498,0.016582,0.0053716,0.0019962
-0.25759,-0.088677,-0.10055,-0.07659,-0.025104,0.019147,-0.038843,0.032004
-0.10851,0.06908,0.17075,0.14035,0.045744,0.02155,0.038959,-0.16893
0.20249,0.022026,-0.22667,-0.20843,-0.10342,-0.063626,-0.0059371,0.271
-0.1378,-0.074738,-0.028387,0.0084039,0.0028306,-0.0423,-0.18322,-0.19075
-0.051412,-0.018938,0.10108,0.10245,0.035562,-0.0089802,0.076554,0.012962
-0.029976,-0.060922,-0.033159,-0.02015,-0.013325,0.036179,-0.046555,-0.10459
0.24812,0.049536,-0.047092,-0.1009,-0.010745,0.0076953,0.019297,0.11172
-0.34033,-0.014936,0.037601,0.017824,0.0050171,0.015907,0.15938,-0.048731
0.50356,-0.018854,0.004165,-0.0059472,-0.027406,-0.016028,-0.029559,0.17351
-0.53094,0.17966,0.10449,0.10313,0.033893,-0.016417,-0.067915,-0.13285
0.17455,-0.035392,0.0041657,0.057676,0.041681,0.031614,-0.17958,-0.12065
0.065683,-0.1318,-0.1396,-0.10199,-0.049988,-0.019438,0.074873,-0.052014
-0.02222,0.047374,0.0016951,-0.023654,0.0094106,0.041866,0.33698,0.1308
0.18277,0.0025045,0.029448,0.003713,0.0090066,-0.050074,-0.23717,0.070462
-0.11053,-0.016268,0.21655,0.18284,0.081272,0.071517,0.17942,0.19743
0.064394,0.07694,-0.1643,-0.16667,-0.071303,-0.047233,-0.1885,-0.14512
-0.059997,-0.077435,-0.10605,-0.061253,-0.051052,-0.032261,-0.093117,-0.013593
-0.20356,-0.0031245,0.0078828,0.021745,0.00064838,-0.017351,-0.013137,-0.17595
-0.046091,-0.028643,-0.041698,-0.019885,0.012878,0.059125,0.15896,0.099695
0.014849,0.03301,0.13555,0.11024,0.032106,0.016809,0.015522,0.045627
0.3011,0.024955,0.039407,-0.010103,-0.0043667,-0.043151,-0.069314,-0.08172
-0.21688,0.032369,-0.088218,-0.05307,-0.01845,-0.0037102,0.075935,-0.064122
0.20454,-0.062787,0.080442,0.082696,0.0055481,-0.028822,-0.15028,0.051792
0.050468,0.10582,0.029337,-0.032628,0.013053,0.045887,-0.0054502,0.055873
-0.32757,-0.10316,-0.08568,-0.055329,0.011999,0.025553,0.20626,-0.027416
0.20244,0.0051568,-0.030471,0.014706,0.025949,0.012264,-0.10822,0.14666
0.08453,0.032288,-0.00031934,-0.00975,-0.038701,-0.04812,0.020626,-0.030506
0.0048178,-0.036942,0.0051104,0.035786,-0.0020702,0.0011778,0.20308,0.090024
-0.38942,0.0015019,-0.021391,-0.012247,-0.027958,-0.026871,-0.39574,-0.34302
0.2918,0.031702,0.061549,-0.036175,-0.0066681,0.032178,0.084712,0.076779
-0.029664,-0.062084,-0.042211,-0.020007,-0.015992,-0.040172,0.067569,0.013637
-0.12671,0.026213,0.10539,0.098908,0.053725,0.037423,-0.047577,0.053603
0.040634,0.02423,-0.073498,-0.031108,0.030762,0.077393,0.03701,0.024845
0.12185,-0.0049765,0.014836,0.058329,0.024475,-0.045483,0.20451,0.13821
0.078793,0.00882,-0.090873,-0.13332,-0.082514,-0.042457,-0.20155,-0.12217
0.068364,0.025815,0.17137,0.12773,0.02198,-0.01543,-0.041399,-0.0066829
-0.16687,-0.0021501,-0.081834,-0.026209,0.017279,0.035302,0.15238,-0.046978
-0.20486,-0.021992,-0.054112,-0.11103,-0.05789,-0.054531,-0.11401,-0.040287
0.024803,0.03497,0.019794,0.045136,0.054047,0.074337,0.056282,0.16941
0.22532,-0.027939,-0.032165,-0.018387,-0.014213,-0.0078177,0.099415,-0.12888
0.23274,-0.02406,0.040004,0.0035216,-0.012669,-0.011931,-0.23547,-0.021084
-0.45286,-0.047329,0.033284,0.10353,0.0040734,-0.0083268,0.066954,0.039742
-0.042404,-0.011339,-0.01313,-0.030479,-0.0029417,-0.051762,-0.01652,-0.040183
0.32331,0.061456,0.025864,0.0079581,0.036673,0.04511,-0.063421,0.12176
-0.22335,-0.038637,-0.068447,-0.10148,-0.033328,0.039852,0.15354,0.0095378
0.17622,0.064612,0.032039,0.062879,0.013532,-0.020978,0.072461,-0.15084
0.052167,0.01279,0.07728,0.055403,0.036475,0.065409,-0.0094352,0.23377
-0.23747,-0.021687,-0.15929,-0.11645,-0.074058,-0.084075,-0.068703,-0.1965
-0.022227,0.1019,0.11145,0.1017,0.041155,-0.039868,-0.12901,-0.09035
0.39191,-0.046389,0.030336,-0.0090679,-0.0085768,0.010603,0.12965,0.15392
-0.36316,-0.16232,-0.13674,-0.081586,0.011183,0.05201,-0.05075,-0.056907
0.16529,0.081772,0.063691,0.032718,-0.00092124,-0.0011066,0.048602,0.09052
-0.10059,-0.048838,-0.0086843,-0.0096623,-0.036743,-0.030971,0.0062399,0.0035416
-0.066125,0.015961,-0.0099203,-0.020954,-0.0021172,0.025519,-0.067686,-0.10575
0.16074,0.065132,0.067802,0.069385,0.017441,-0.0108,-0.03929,-0.095701
-0.19952,-0.034223,-0.0022911,0.019298,-0.0011489,-0.030178,0.10047,0.12821
0.026663,0.061484,0.037217,0.047564,0.06734,0.069138,-0.030013,0.066318
0.37192,0.00042125,-0.048532,-0.080218,-0.027022,0.013719,0.085847,0.054444
-0.30351,-0.014635,-0.080292,-0.06718,-0.034314,-0.055947,-0.074833,-0.11112
0.18035,-0.054323,0.0041605,0.02427,0.0062221,0.016166,-0.035489,0.01404
-0.21581,0.021803,0.071981,0.030283,-0.015008,-0.074878,-0.15611,-0.063351
0.015246,0.018515,0.0062127,0.0058678,0.018978,0.069129,0.26518,0.077535
0.091535,0.0065296,-0.020823,-0.0017547,-0.0091701,-0.0051341,-0.085865,-0.10325
-0.057933,-0.099393,-0.047623,-0.047006,-0.013631,0.022469,0.11681,0.0030682
0.11322,-0.0014962,-0.01893,0.0030105,-0.0023121,-0.012307,0.035194,0.13834
0.15159,0.13704,0.15165,0.13251,0.032488,-0.039363,-0.1059,0.12283
-0.60696,-0.081552,-0.059066,-0.049559,-0.0031415,0.019159,-0.12786,-0.30891
0.20469,0.030495,-0.026061,-0.020358,0.023393,0.030135,-0.023018,0.10126
0.32859,-0.019263,-0.0073715,-0.0071381,-0.028797,-0.022392,0.053114,-0.044709
-0.15762,0.026195,-0.026852,-0.057403,-0.0037278,0.025335,-0.069832,0.042619
-0.090718,0.0015845,0.00089522,0.0080824,0.0046439,0.0090395,0.17256,-0.011507
