-0.015231,0.021102,-0.10155,-0.044775,-0.015965,0.0023008,-0.0026258,-0.046824
0.0322,0.0095026,0.0021863,0.088452,0.022848,0.018031,0.012679,0.28089
0.033039,0.036023,0.18649,0.096527,0.014759,0.010038,0.012251,-0.2985
-0.028524,-0.055314,-0.095701,-0.13833,0.014298,0.0017029,0.011704,0.041984
0.0035621,-0.014055,-0.32135,-0.046324,-0.041187,-0.022633,-0.035798,-0.081268
-0.019299,0.035417,0.3217,0.091075,0.020088,0.0073583,-0.0051573,0.050166
0.012195,-0.015564,0.012971,-0.069712,-0.0049692,-0.0019829,0.0022005,0.069293
-0.019106,-0.056921,-0.25524,-0.012469,-0.022433,-0.003611,0.0098637,0.054911
-0.003685,0.060345,0.0017174,-0.040987,-0.0085578,-0.020724,-0.0054852,-0.04664
0.0039702,0.055283,0.080957,0.0019698,0.021411,0.02507,0.010889,-0.077882
-0.0037538,-0.064356,0.052764,0.11721,-0.010294,-0.006609,0.004243,0.032745
0.05921,0.068159,0.36978,0.039516,0.0059367,0.0015822,0.0056691,-0.018351
-0.033691,-0.087061,-0.27366,-0.051592,0.015442,0.010603,0.014929,0.027417
-0.032582,-0.06237,-0.293,-0.11776,-0.013252,-0.018746,-0.038552,-0.04056
0.046677,0.10193,0.2087,0.15242,0.036587,0.030438,0.016876,0.082226
0.016291,0.099956,0.073815,0.16395,0.023737,0.0093296,0.0013943,0.035734
-0.038073,-0.045822,-0.050112,-0.31077,-0.028978,-0.019984,-0.022494,-0.0091948
-0.030657,-0.10939,-0.23366,-0.0066624,-0.051718,-0.018799,3.4238e-05,0.10246
0.0072631,-0.012589,0.36738,-0.0095421,-0.005636,0.0048532,-0.0011006,-0.37268
0.028955,0.065528,-0.15985,0.087655,1.1336e-05,-0.01938,-0.0021863,0.064335
0.026903,0.0090036,0.26459,0.14567,0.03597,0.033656,0.043898,0.076833
-0.045371,-0.00083212,-0.3337,-0.18542,-0.0064733,-0.015416,-0.0033108,0.086226
6.0027e-05,-0.055926,-0.01497,0.033459,-0.0015664,-0.002129,-0.010953,0.11576
-0.000496,-0.053067,-0.44918,-0.063734,0.0044972,0.011435,-0.0025273,0.056145
7.867e-05,0.071432,0.53669,0.04689,-0.0034349,0.00219,-0.025048,-0.20162
0.017467,-0.0022695,0.23177,0.00554,-0.0095692,-0.0062003,0.015068,-0.12553
0.028084,0.13171,0.1818,0.21718,0.048429,0.025396,0.0082928,0.15273
0.000343,0.050331,-0.13883,-0.077955,0.006034,-0.012482,-0.0064137,-0.076293
-0.03497,-0.15441,-0.46717,-0.17124,-0.051478,-0.026304,-0.013468,0.063981
0.0075705,-0.031398,0.14731,0.19294,0.023598,0.014878,0.010578,-0.042211
-0.036575,-0.059078,-0.1567,-0.19807,-0.050651,-0.022087,0.0032677,-0.011151
0.019722,0.042366,0.0026521,-0.1889,0.022163,0.01872,-0.0041066,0.024442
-0.01908,-0.001266,-0.069893,0.22824,0.007422,0.019837,0.011907,0.04805
0.026626,0.12251,0.82182,0.061976,0.0066992,-0.011116,-0.019036,-0.082798
0.063153,0.04719,-0.46935,0.21209,0.035855,0.01953,0.027987,0.10592
-0.049936,-0.15568,0.089352,-0.28854,-0.053154,-0.044418,-0.019002,0.27552
0.00016537,-0.054844,-0.73498,-0.0946,0.021405,0.031607,0.019583,-0.091944
-0.051745,-0.062742,0.64494,-0.048531,-0.052482,-0.056759,-0.020373,-0.43525
0.052668,0.1814,-0.05876,0.15524,0.069364,0.05028,0.0017806,0.042706
0.017127,-0.02461,0.061221,0.25153,-0.0033615,0.0094403,0.00023077,0.0078555
-0.024941,0.11637,0.63861,0.18577,0.026409,0.0008585,-0.024803,0.002499
0.0051463,0.0024062,-0.89611,-0.38578,-0.036571,0.001469,0.028526,0.12438
-0.056278,-0.15651,-0.26888,-0.2833,-0.036085,-0.027555,-0.0035527,0.26026
-0.052828,-0.033525,0.059555,0.0092588,0.0043256,-0.015851,-0.0036067,-0.28988
0.11685,-0.04402,0.15102,0.094128,-0.0092498,-0.018276,-0.0027501,0.10059
0.061546,0.22489,0.70666,0.46417,0.094857,0.081943,0.045881,0.02532
0.022524,-0.11827,-0.61308,-0.52873,-0.027367,-0.028343,-0.037572,-0.064408
-0.0091589,-0.11306,-0.024283,0.16976,-0.11062,-0.029659,-0.034675,0.1094
-0.2534,0.060739,0.71701,0.44126,0.032225,0.030187,0.022902,-0.3402
0.093529,0.098647,-0.11371,-0.5365,0.04138,0.025295,0.017507,0.18392
0.10136,0.055843,-0.37206,0.25753,0.096148,0.0096492,0.034637,0.13869
0.035604,0.018989,0.034739,-0.038352,-0.022506,-0.040547,-0.027613,0.12255
0.013845,-0.034413,-0.61683,0.16004,-0.0021686,0.015425,0.025887,0.00097532
-0.14275,-0.29075,-0.10875,-0.53085,-0.1864,-0.087478,-0.12516,-0.60117
-0.042375,-0.022233,0.68645,0.022222,0.026882,-0.020132,0.035105,0.19254
0.097584,0.31134,0.41334,0.23479,0.091562,0.054663,0.046123,0.11137
0.05186,-5.3705e-05,-0.89356,-0.023769,0.02417,0.075713,0.041201,0.080635
-0.0066541,0.075273,0.24278,0.46764,0.020862,0.0207,0.013048,0.1898
-0.0696,-0.30654,-0.025406,-0.4686,-0.089635,-0.039299,-0.053465,-0.12053
-0.035451,0.033517,0.37069,0.10646,0.0053926,-0.033658,-0.0016472,-0.098133
0.095162,0.16467,0.43231,-0.18934,0.063525,0.02187,0.0048182,0.031729
0.032048,0.11686,-0.038416,0.22208,0.091933,0.0017919,0.0053062,0.058511
-0.17934,-0.22825,-0.51447,-0.23019,-0.215,-0.10244,-0.039016,-0.18211
0.32674,0.4567,-0.10086,0.71078,0.24329,0.16147,0.075087,0.23894
0.01009,-0.53153,0.04575,-0.995,-0.1669,-0.066685,-0.066518,-0.077491
-0.41894,-0.21576,-0.81276,0.37836,-0.071132,-0.05324,-0.050081,-0.16328
0.14137,0.31922,0.98871,0.18211,0.13205,0.10752,0.10035,0.27798
-0.18317,-0.29245,-0.8261,-0.091406,-0.12735,-0.13941,-0.10832,-0.53538
0.22594,0.53612,0.59382,0.19115,0.10445,0.10427,0.1665,0.34143
0.14354,-0.054253,0.52154,-0.3289,0.0001594,-0.020765,0.040715,0.13407
-0.093266,-0.1113,-0.61529,0.0053419,-0.025378,-0.014318,-0.041528,-0.041619
0.039539,0.1601,0.78004,-0.18097,0.012764,0.061385,-0.073249,0.15622
-0.059691,-0.11733,-0.33957,-0.0056567,0.013219,-0.066762,-0.14067,-0.17303
-0.024468,-0.24261,-0.79726,0.60773,-0.047642,-0.023402,-0.0090628,-0.11747
0.050346,0.23589,0.91828,0.1643,0.14216,0.059009,0.11159,0.016533
-0.13335,-0.3853,-0.44741,-0.76903,-0.21498,-0.076998,0.050763,0.0093809
0.10307,0.33223,-0.022742,0.7184,0.1771,0.11577,0.083436,-0.0058751
0.079308,0.13267,-0.15309,-0.37595,0.028808,0.020403,-0.023326,0.1909
-0.11095,-0.42661,-0.30681,-0.42795,-0.19129,-0.13628,-0.13553,-0.15568
0.009437,0.32126,0.86968,0.68088,0.079567,0.04436,0.021087,-0.10493
-0.019363,-0.097892,-0.24568,-0.9366,-0.12671,-0.062501,0.025082,0.49513
-0.024025,0.13774,-0.39212,0.5373,0.12834,0.074465,0.0015331,-0.68798
0.16882,0.23948,0.5576,0.63199,0.23632,0.15053,0.090831,0.27829
-0.16617,-0.41057,0.026375,-1.0297,-0.33317,-0.17045,-0.098139,-0.073037
-0.17682,-0.23598,-0.36113,0.49407,-0.032837,-0.12327,-0.08951,-0.11664
0.2226,0.24532,-0.20016,0.15059,0.13721,0.14305,0.11587,0.66958
0.14037,0.21041,0.59297,0.33005,0.027848,0.010552,-0.037636,-0.24064
0.027763,-0.0073013,-0.64828,-0.52516,0.13789,0.072109,0.058327,-0.34347
0.16378,0.12128,0.38641,-0.19328,0.067434,0.076865,0.059012,0.17704
-0.60999,-0.74128,-0.195,-0.22703,-0.53657,-0.33527,-0.16146,0.20746
0.32207,0.69345,0.74777,0.99262,0.26221,0.16342,0.083779,-0.5989
-0.11874,-0.3634,-1.0499,-0.58634,0.072507,0.02605,-0.0024325,0.35813
-0.025627,0.15168,0.51573,0.46223,0.042786,0.049923,0.048821,-0.061698
0.087306,-0.033218,-0.043919,-0.37089,-0.099721,-0.084435,-0.074335,0.13581
-0.020016,0.0056174,0.12689,-0.82694,-0.056955,-0.05559,-0.066197,0.047603
0.029609,0.18415,-0.45966,0.65193,0.094447,0.051755,0.011994,-0.23656
0.027031,-0.16766,-0.19834,0.42989,-0.073664,0.0043724,0.013078,0.083947
0.13732,0.32688,0.78811,-0.042088,0.18226,0.11565,0.12561,-0.050333
-0.18633,-0.46347,-0.11742,-0.19593,-0.11335,-0.090497,-0.048213,0.08896
0.078755,-0.021681,0.012477,-0.21439,0.00096241,0.0031717,0.022957,-0.037018
-0.10004,-0.049708,-0.52989,-0.047293,-0.084137,-0.041215,-0.05192,0.015632
0.25232,0.5547,0.49154,0.47869,0.28721,0.14285,0.10135,0.14256
-0.27171,-0.66165,-0.3361,-0.43384,-0.3701,-0.18767,-0.12758,0.30889
0.0068487,0.2924,0.97358,0.59554,0.075819,0.021015,-0.028717,-0.42657
-0.052607,0.039721,-0.83307,-0.83562,0.053588,0.033725,0.0066001,-0.37151
0.12101,0.061643,0.5794,0.20507,0.077774,0.052943,0.048303,0.19115
0.19308,0.63587,-1.0438,0.52449,0.16303,0.093881,0.088538,0.28481
-0.34268,-0.83474,-0.21202,-0.31249,-0.20704,-0.093612,-0.067762,-0.088934
-0.04737,-0.19642,0.05925,-0.02134,-0.18915,-0.19692,-0.12331,-0.07572
0.2674,0.33108,0.35608,0.20747,0.21664,0.19056,0.10205,-0.00019538
0.023711,-0.25922,0.64509,-0.33008,-0.11435,-0.071242,-0.016306,0.094229
0.12722,0.64456,0.4751,0.44561,0.22479,0.16672,0.14685,0.030696
-0.26703,-0.65701,-0.34386,-0.47742,-0.18692,-0.14964,-0.12722,-0.18908
-0.059078,-0.026936,-0.021034,-0.39851,-0.036038,-0.04328,-0.049598,-0.041365
0.10104,0.55418,-0.7287,0.54001,0.21738,0.1736,0.10605,0.33211
0.079191,-0.19227,0.025015,-0.28109,-0.15257,-0.084861,-0.027709,0.12434
-0.10977,-0.16371,-0.062898,0.66594,-0.0518,-0.060951,-0.068203,-0.30838
0.0027013,0.3344,0.37974,0.062942,0.004062,0.0028568,0.0079936,0.0072772
-0.08304,-0.22374,-0.091557,-0.35595,0.077141,0.05147,-0.0099389,-0.33781
0.079004,-0.044715,-0.61341,0.031971,0.033949,-0.0093244,0.018825,0.39653
0.052131,0.062955,0.99985,-0.065977,0.053322,0.06221,0.078874,-0.032829
0.040156,-0.13864,-0.48741,-0.55221,-0.021836,-0.023345,-0.0015052,0.038363
-0.042407,0.090101,0.54779,0.68691,-0.16873,-0.070853,-0.065973,-0.1778
0.10933,0.20886,-0.21085,0.0082203,0.096736,0.052564,0.049562,0.15648
-0.067058,-0.28989,-0.089685,-0.60528,-0.069004,-0.043396,-0.0377,0.22323
-0.032414,0.158,-0.55792,0.76798,0.045569,0.0168,-0.0074037,-0.38919
-0.22394,-0.39788,0.1868,-0.94183,-0.097776,-0.10214,-0.078204,-0.12384
0.19487,0.42847,0.6018,1.0473,0.19712,0.13943,0.093785,0.25545
-0.01742,-0.11774,-0.42654,-0.21676,-0.11597,-0.015892,0.016506,0.12478
-0.031898,0.020446,0.78509,-0.13191,0.056947,0.0022921,-0.020915,-0.12503
0.15199,0.24254,-0.86066,-0.6664,0.17665,0.092171,0.051786,0.052192
-0.21564,-0.60018,-0.42879,0.96133,-0.33553,-0.18429,-0.11713,-0.18099
0.27095,0.76427,0.1575,-0.31089,0.31658,0.19565,0.12047,0.21241
-0.1862,-0.31477,0.60894,-0.38111,-0.3521,-0.20618,-0.07169,-0.051134
0.012905,-0.066275,-0.10514,0.54035,0.10325,0.039342,0.0091455,-0.044033
0.038344,-0.17188,0.36789,-0.76454,0.1199,0.025691,-0.012313,-0.056902
0.0056286,0.14087,-0.34553,0.93163,-0.13018,-0.00497,-0.0034275,0.065797
0.2807,0.25496,0.092367,-0.065608,0.2752,0.18976,0.14515,0.22279
-0.55884,-0.63302,-0.21444,-0.5368,-0.28857,-0.22568,-0.17584,-0.31904
0.088835,0.18207,-0.6535,-0.02052,-0.016408,-0.024304,-0.03647,-0.13576
0.10763,0.12421,0.6772,0.092725,0.099751,0.067734,0.071393,0.14227
0.061667,0.34348,0.093877,0.068186,0.036524,0.019463,0.015243,0.072148
0.1169,-0.14384,-0.46271,-0.12635,0.11408,0.088807,0.076575,0.14007
0.0095066,0.13052,0.94714,0.52322,-0.019439,0.02571,0.013333,-0.012456
-0.28253,-0.36617,-0.16019,-0.20367,-0.34872,-0.24814,-0.17446,-0.21383
0.21043,0.1687,-0.80899,0.30851,0.27445,0.13422,0.083434,0.19863
-0.034725,-0.048262,0.71713,-0.13652,-0.056209,0.0085082,0.0056481,-0.050728
-0.12762,-0.24533,-0.74952,-1.1167,-0.074909,-0.062917,-0.048579,-0.12863
0.18104,0.33429,0.20043,0.29142,0.18745,0.09959,0.069055,0.095142
-0.094171,-0.14551,-0.20412,0.48878,-0.10466,-0.027371,-0.0087684,-0.05341
0.022103,-0.051367,0.85108,0.24405,-0.068019,-0.053077,-0.024355,0.049442
-0.018239,0.15683,-0.63229,-0.04167,-0.046114,-0.024269,0.0065714,0.15346
0.072796,0.24604,1.1371,0.13341,0.29708,0.16076,0.052704,-0.2874
-0.064947,-0.3527,-0.69601,-0.16766,-0.10885,-0.068124,-0.050008,0.056729
-0.056861,-0.12252,-0.4297,-0.53919,-0.13916,-0.077942,-0.02802,-0.085212
0.034581,0.093824,-0.076958,0.45492,0.010537,0.0065132,0.0094974,0.1878
0.053558,0.17205,0.23591,-0.10119,0.035278,0.021396,0.023767,0.065611
0.047692,0.15943,-0.012488,0.025048,0.14584,0.084106,0.030734,0.034364
-0.11488,-0.41274,-0.58382,0.30865,-0.23594,-0.11769,-0.086495,-0.22536
0.035591,0.22097,0.61168,-0.34533,0.13226,0.080139,0.070709,0.067645
-0.062481,-0.20555,-0.18236,-0.11743,-0.069712,-0.080272,-0.05231,-0.04069
0.036891,0.096135,0.58591,-0.078662,0.048967,0.049294,0.036474,0.026128
0.044979,0.1096,-0.53715,0.067041,-0.011592,-0.0081001,0.000767,0.055117
0.094542,0.17773,0.57539,0.27946,0.06891,0.082986,0.058819,0.11448
-0.064835,-0.30186,0.077424,0.41635,-0.029991,-0.052999,-0.024297,0.21026
-0.097888,-0.048617,-0.1683,-0.51648,-0.042922,-0.049382,-0.085011,-0.61182
0.033666,0.13239,-0.43131,0.15868,-0.024854,-0.0081002,0.016979,0.148
0.047844,0.13181,0.19377,-0.23153,0.12554,0.086311,0.047226,0.021618
-0.055904,-0.17494,-0.60169,-0.39852,-0.14656,-0.08637,-0.033136,-0.013079
-0.0044499,-0.11515,-0.27713,0.19762,-0.028625,-0.010192,-0.020551,0.20962
0.069341,0.23412,0.69706,1.02,0.14355,0.08097,0.062124,-0.035335
-0.084378,-0.2354,0.25985,-0.8029,-0.043853,-0.031052,-0.034494,-0.10631
0.12842,0.35221,0.17136,0.1392,0.089108,0.06055,0.041699,0.13761
-0.15915,-0.42444,-0.067466,-0.43049,-0.24641,-0.16723,-0.068297,-0.030611
0.053171,0.16109,-0.37279,0.054566,0.10597,0.074911,0.010658,-0.11196
0.12488,0.35811,-0.071083,0.55058,0.16187,0.099453,0.083151,0.10325
-0.13934,-0.3737,-0.094589,-0.41747,-0.16479,-0.08604,-0.077706,-0.042375
0.041606,0.096949,0.12865,0.47823,0.063228,0.049234,0.027609,-0.057379
0.011232,-0.028338,0.87914,-0.55355,-0.021557,-0.018709,0.0079216,0.050281
-0.011969,-0.063212,-0.34455,0.45234,0.01806,-0.0013369,-0.027909,-0.10174
-0.0047644,0.14024,-0.11304,0.21029,-0.021243,-0.024047,0.02128,0.018757
0.001503,-0.011494,-0.72849,-0.35421,0.040165,-0.016711,-0.032236,0.069206
0.045947,-0.025202,0.33894,-0.28345,-0.063243,0.0050963,0.014639,0.13667
-0.082173,-0.20398,-0.52535,-0.14947,-0.057814,-0.020875,-0.0020204,-0.090549
-0.015364,0.00086733,0.17654,0.063289,0.06452,0.038548,0.011791,-0.041822
0.027974,0.098811,0.25654,0.29357,-0.0085391,0.0040398,-0.02957,-0.029888
0.063784,0.21588,0.99488,0.26988,0.10589,0.047754,0.038229,-0.00078624
-0.071768,-0.30406,-0.6975,-0.38862,-0.07664,-0.064539,-0.034617,-0.018103
0.17611,0.60063,-0.16279,0.41333,0.17804,0.12813,0.11919,0.12005
-0.083195,-0.25138,0.38649,0.067163,-0.17712,-0.093035,-0.047178,0.053114
-0.1935,-0.54959,-0.5068,-0.59094,-0.14221,-0.11868,-0.104,-0.1807
0.079502,0.34475,0.66784,0.1499,0.040724,0.027794,-0.012158,0.058868
0.063882,0.086604,-0.44584,0.18811,0.098586,0.057422,0.048768,0.1549
-0.013848,-0.17597,-0.10868,-0.31989,0.055307,0.048473,0.024224,-0.36826
0.080613,0.1435,-0.97745,-0.0065675,0.052029,0.047945,0.039338,0.13138
-0.090364,-0.12553,0.91081,0.26903,-0.18427,-0.10036,-0.03083,0.13977
0.035529,0.19842,0.64614,0.14756,0.12008,0.041033,-0.014439,-0.13074
-0.065382,-0.34372,-0.49274,-0.23859,-0.15216,-0.082693,-0.036634,0.086389
-0.0027262,0.28087,0.48401,-0.054411,0.12374,0.043911,0.035159,0.064749
0.027968,-0.028407,-0.67657,0.2067,0.0098024,0.0065769,-0.0024834,-0.1182
0.13595,0.11148,0.31043,0.33273,0.060102,0.055104,0.037634,0.17682
0.03217,-0.042116,-0.60758,-0.62201,0.024059,0.017455,0.014633,-0.083203
-0.3066,-0.0292,0.28853,0.37446,-0.16125,-0.075208,-0.056002,-0.11091
0.11222,-0.17901,0.05199,-0.36329,-0.035043,-0.043189,-0.041443,0.15496
-0.023308,0.062127,0.76551,-0.20697,0.020027,0.027681,0.035059,-0.11416
0.03741,0.0060442,-0.73184,0.4801,0.051255,0.012585,-0.01367,-0.15214
0.10739,-0.058511,0.22624,-0.40005,-0.011117,0.021099,0.047152,0.15959
0.093164,0.45438,0.087194,0.6704,0.2475,0.11588,0.069489,0.02612
-0.26307,-0.64271,-0.71642,-0.87896,-0.28191,-0.19518,-0.14947,-0.13642
-0.039748,0.040846,0.29627,0.31616,-0.08364,-0.0059009,0.0076318,0.14241
0.21569,0.48917,0.7331,0.76581,0.22494,0.12105,0.072009,0.050978
-0.09125,-0.11079,-0.60856,0.1344,-0.075361,-0.025541,-0.011248,-0.082763
0.10898,0.07616,0.078385,-0.42199,0.13208,0.061834,0.038724,-0.0022554
-0.15308,-0.32568,0.063319,-0.71486,-0.20022,-0.10929,-0.04418,0.13418
0.03617,0.058326,-0.64152,0.29852,0.0054013,-2.8194e-05,-0.010432,-0.035269
0.074992,0.18934,0.73368,-0.39801,0.061191,0.03807,0.045861,0.12776
-0.044246,-0.1739,-0.042391,0.2769,0.084366,0.028638,-0.031713,-0.3861
-0.1648,-0.16263,-0.49973,0.39199,-0.19821,-0.098271,-0.071198,-0.061725
0.16718,0.21722,0.78264,0.11156,0.16707,0.071871,0.052701,0.15625
-0.016281,-0.063759,-0.080964,-0.43109,-0.10048,-0.054229,-0.026768,0.058514
-0.019183,-0.027716,-0.2901,0.41194,-0.031596,0.023765,0.034603,0.030067
0.14333,0.2711,0.26003,0.20841,0.19437,0.09505,0.057484,0.23721
-0.091052,-0.011595,-0.36413,-1.0156,-0.086573,-0.027991,-0.012638,-0.35732
-0.066137,-0.18192,-0.78199,0.66975,-0.038643,-0.048821,-0.050813,-0.018061
0.045923,0.16446,1.1548,-0.24579,0.033094,0.016441,0.028661,0.20048
-0.11465,-0.34164,0.081005,0.24142,-0.09841,-0.090562,-0.055826,-0.030471
0.084507,0.11068,-0.74961,0.28224,0.074175,0.074991,0.046902,0.061299
0.056962,0.10647,0.5738,-0.48063,0.058271,0.036176,0.0083928,-0.033529
-0.049311,-0.17463,-0.73314,-0.083744,-0.091654,-0.043127,-0.038748,-0.12885
0.062133,0.28368,0.91946,0.34378,0.069695,0.024597,0.022613,0.055622
0.0003315,-0.064251,-0.2001,-0.30985,-0.066866,-0.018256,-0.018362,-0.089846
-0.039593,-0.20138,-0.54382,0.36109,-0.024407,-0.015059,0.010425,-0.072812
-0.15138,0.04551,0.63019,-0.34521,0.064744,0.026882,0.023344,0.13867
0.17302,0.09143,0.070644,-0.16819,0.013616,-0.0012316,0.0051066,0.24076
0.027786,0.21021,-0.10691,0.51296,0.088333,0.033995,0.010725,-0.18771
-0.1412,-0.33276,-0.607,-0.2589,-0.20289,-0.12474,-0.10016,-0.15422
0.10418,0.12578,0.38215,0.14461,0.030841,0.069794,0.055465,0.14577
-0.024624,-0.016938,-0.72539,-0.21158,0.10993,0.047445,0.040169,-0.030561
-0.027217,-0.035689,0.57863,0.51754,-0.059471,-0.043446,-0.028895,0.11274
0.041877,0.083955,0.56015,-0.45705,0.030174,0.046779,0.019989,-0.058155
0.065413,0.067758,-0.28106,-0.011382,-0.0043919,-0.026177,-0.016563,-0.0049927
-0.14436,-0.13135,0.45229,-0.27229,-0.069969,-0.036414,-0.029497,-0.064069
0.084055,-0.098811,-0.70266,0.37509,0.05161,0.03102,0.035536,-0.0007509
-0.023191,0.15874,0.07979,0.053218,0.094197,0.027119,0.014173,-0.064152
-0.068028,-0.24767,-0.76534,0.033109,-0.19257,-0.11881,-0.070371,0.0049153
0.21491,0.55881,1.0957,0.10966,0.26928,0.19469,0.12554,0.07522
-0.15886,-0.45919,-0.43285,0.12542,-0.16072,-0.11038,-0.085559,0.070086
-0.087735,-0.12084,0.632,-0.73234,-0.16968,-0.072721,-0.031662,0.084268
0.061238,0.16008,-0.78141,-0.087776,0.063276,0.01912,-0.0094058,-0.23346
0.053878,0.1094,0.25555,0.45134,0.10907,0.056292,0.043984,0.046209
0.015348,0.15505,0.17961,-0.011507,0.038484,0.031417,0.03501,0.015979
0.00041215,-0.16642,-0.52513,0.18161,0.015784,-0.0083844,0.0029162,0.15875
0.1028,0.25154,0.59489,0.17222,0.11117,0.085349,0.041535,0.058809
-0.23229,-0.39833,0.15826,-0.42253,-0.31637,-0.18756,-0.1382,-0.40249
0.073159,-0.031787,-0.59799,-0.025439,0.11542,0.055388,0.026116,0.2113
0.011206,0.11634,0.29888,0.12768,-0.0080615,0.016969,0.010938,-0.029914
-0.035411,-0.1171,0.23689,0.39479,0.015846,-0.014065,0.034865,-0.0087191
0.12076,0.25436,-0.69202,-0.29535,0.093133,0.07926,0.043057,0.088178
-0.059363,-0.10233,-0.099047,-0.54432,-0.08874,-0.085954,-0.042761,-0.011515
-0.013325,-0.043515,0.32543,0.21915,-0.013969,0.0059666,-0.019584,-0.13468
0.024479,-0.0040196,-0.033036,-0.0031744,0.083432,0.04269,0.0031477,0.10259
-0.039703,-0.013299,0.48927,0.50183,-0.10074,-0.022402,0.017637,0.10726
0.01293,0.077735,0.26359,-0.013711,-0.0034413,-0.0093174,-0.022887,-0.15166
-0.01281,0.057614,-0.46688,-0.49345,0.032049,-0.0036918,-0.0088665,-0.018213
0.10203,0.31548,-0.023387,0.56363,0.10765,0.057225,0.059929,0.053749
-0.16571,-0.62724,-0.45414,-0.34207,-0.1593,-0.10766,-0.081895,0.031953
0.082712,0.18838,0.12365,-0.16373,0.074896,0.072004,0.050223,0.055939
0.050709,0.19052,0.98612,0.035834,0.075607,0.041427,0.026692,-0.03924
-0.074001,-0.23089,-0.50886,0.225,-0.11067,-0.058985,-0.043127,-0.0040196
0.0055387,-0.021033,-0.8668,-0.034142,0.039104,0.0048386,0.012512,-0.041339
-0.054524,-0.14784,-0.13683,-0.14048,-0.084811,-0.03307,-0.02536,-0.11129
0.10489,0.28818,0.96994,0.08509,0.14235,0.084785,0.046108,0.03751
-0.0088882,-0.024631,-0.2884,-0.084764,-0.13106,-0.063707,-0.023363,-0.093326
0.095767,0.10151,0.36071,0.052066,0.055947,0.013536,0.00037188,0.22425
-0.16763,0.0020653,0.125,0.088118,-0.038646,-0.011553,-0.0078142,0.030281
0.067731,0.11346,-0.197,0.42055,0.15571,0.072196,0.045837,0.028116
-0.034194,-0.18282,-0.051765,-0.34246,-0.06383,-0.055141,-0.041637,-0.06408
0.011197,0.080792,-0.26291,-0.47527,-0.064179,-0.018064,0.0034978,0.11181
-0.076835,-0.52599,-0.38184,-0.25196,-0.032581,-0.034795,-0.052748,-0.34428
0.0070689,0.12975,0.27415,0.58482,-0.054778,-0.018947,0.0087696,0.01907
0.068237,0.23617,0.45847,-0.0044865,0.048994,0.06099,0.047732,0.16915
0.083664,0.16139,-0.19166,0.53406,0.1927,0.10344,0.056464,0.034624
0.02219,0.11712,0.63413,-0.17552,-0.037998,-0.040376,-0.035425,0.083752
-0.13209,-0.25568,-0.86954,-0.5014,-0.15139,-0.066358,-0.017286,-0.097452
0.0030668,-0.019699,-0.24087,0.087125,0.0082327,-0.006521,-0.022369,-0.070878
-0.010569,0.011998,0.53003,-0.24553,0.010631,-0.010075,-0.0042928,0.00047358
0.10757,0.20593,-0.35857,0.33028,0.06633,0.039531,0.036498,0.016402
-0.01797,-0.24298,0.010467,0.35631,0.018872,0.0090942,-0.0018662,0.033049
-0.05139,0.13414,0.74903,-0.48421,-0.06138,-0.023337,-0.025754,-0.018601
-0.093985,-0.26342,-0.49304,-0.28121,-0.049123,-0.034092,-0.027267,-0.082967
0.034536,0.034553,-0.31726,0.28909,0.048345,0.024198,0.040733,0.14495
0.053736,0.20957,0.93926,0.22124,0.0051004,0.0037468,-0.0088767,-0.0070812
0.058201,-0.080294,-0.92065,0.078574,0.063984,0.045876,0.027446,0.061557
-0.076408,0.049155,0.53083,-0.093027,-0.11039,-0.059731,-0.03742,-0.17392
0.072126,0.051672,-0.18401,0.0085108,0.037019,0.038948,0.038993,0.16785
-0.035307,-0.0027159,0.24741,-0.22214,0.0063156,-0.025034,-0.024413,0.070024
-0.039737,-0.1464,-0.95477,-0.015723,0.039532,0.013965,-0.016683,-0.40563
0.073801,0.17351,0.16493,0.29577,0.026923,0.022961,0.03084,0.11579
-0.0079525,-0.0060015,0.87471,-0.063945,-0.00075613,-0.013977,0.00080423,0.11135
-0.035692,-0.13229,-0.63619,-0.1197,-0.07527,0.0043528,0.010201,0.035127
