-0.1171,0.012753,-0.050976,0.12002,0.0038872,0.02053,0.060176,0.25698
0.02359,0.10374,0.13315,-0.070988,-0.0043456,-0.025708,-0.094648,-0.061602
0.25515,-0.078282,-0.10486,-0.027076,0.0032645,-0.018103,0.022937,-0.042573
0.26942,0.029013,0.01673,-0.044666,0.0033659,0.012025,0.05346,0.032306
0.014291,-0.012103,0.053201,0.0016412,0.0038058,0.0022813,-0.010845,-0.1502
-0.11948,0.032524,-0.041804,0.065227,-0.011075,-0.015818,-0.068231,0.057524
0.0063566,-0.13412,-0.0023289,0.021115,0.0054867,0.0049793,0.030039,0.0062727
0.2468,0.10514,-0.0080153,-0.0059683,0.0064436,-0.013044,0.0030773,0.078272
-0.47385,0.0082665,0.018971,-0.016593,0.007212,0.02421,-0.0081306,-0.015873
0.41727,-0.010393,0.046776,-0.019375,-0.0080343,0.023206,0.035763,0.02068
-0.87302,-0.012956,0.051147,0.01603,-0.00038019,-0.0082069,-0.021336,-0.13212
0.50448,-0.030249,-0.11723,-0.012779,-0.0089398,0.00014751,0.015886,0.07313
0.0416,0.039691,-0.0059593,0.049847,0.0054184,-0.014498,-0.016776,-0.06599
-0.057115,-0.05282,0.025144,-0.015049,-0.019614,-0.013404,-0.010181,-0.009633
0.39074,0.12991,-0.00049451,-0.058757,0.0099996,0.010951,0.066678,0.18826
-0.19728,-0.005839,0.026929,0.044493,0.032096,0.0036861,-0.051997,-0.041965
0.28415,-0.1555,-0.063666,-0.071321,-0.038942,-0.0039958,-0.030287,0.011125
-0.66904,0.12594,-0.013459,0.024869,0.015883,-0.011988,0.014793,-0.066124
0.32152,-0.036995,0.084811,0.084398,0.017003,0.026817,0.036735,-0.015574
-0.40546,-0.14504,0.013185,-0.087046,-0.043433,-0.027901,-0.0499,-0.086974
0.52687,-0.0038971,-0.12638,-0.035918,0.014066,-0.003965,-0.0023949,-0.053667
-0.060629,0.15852,0.072254,-0.043789,0.025105,0.012911,0.031255,0.10758
-0.30956,0.059343,0.092835,0.24764,0.059585,0.022808,-0.011226,0.021086
0.50402,0.071828,-0.042225,0.15703,-0.070413,0.010008,0.049771,0.13872
-0.34274,-0.1024,0.01741,-0.33319,-0.044926,-0.02576,-0.020555,0.044594
0.30132,0.074862,-0.065364,0.056426,0.02645,-0.014587,-0.035449,-0.24784
-0.55358,-0.16176,0.0054733,-0.1363,-0.012592,-0.0038246,-0.0036985,0.087347
0.11119,-0.060633,-0.067311,-0.021156,0.041163,0.021688,-0.0044976,-0.053163
0.76102,0.0062863,0.05243,0.3086,0.023857,0.022518,0.07053,0.1969
-0.4958,0.066616,-0.079899,-0.23169,-0.04081,-0.017163,0.0018734,-0.091942
0.55333,0.17193,0.10708,0.008184,-0.035384,-0.027032,-0.070215,-0.22291
-1.0012,-0.51712,0.091134,0.022247,0.063808,0.032219,0.065314,0.05654
-0.44151,0.37769,-0.06412,-0.01609,-0.00086697,-0.042081,-0.090918,0.070001
0.30288,-0.17357,-0.029664,0.089412,-0.010537,0.031914,0.0090208,0.078725
0.65381,0.32807,0.007572,0.09674,-0.027629,-0.034217,-0.03198,-0.093988
0.17964,0.23085,-0.053757,0.044444,-0.0052258,0.010087,0.053062,-0.00084983
-0.1404,-0.23597,-0.0028396,-0.23251,0.017633,0.016759,0.030906,0.077485
0.51303,-0.062682,-0.011996,0.13976,0.033146,0.040582,0.0585,0.14015
-0.64552,-0.37986,0.089921,-0.31625,-0.052441,-0.035834,-0.074954,-0.080623
0.065165,0.26925,0.02853,0.14892,0.034285,0.029233,0.036383,0.068506
-0.11178,0.015478,-0.033173,0.089804,-0.011422,-0.030472,0.0010459,-0.189
-0.82306,-0.07044,-0.018112,0.045639,-0.025598,-0.01249,-0.072654,-0.16048
0.48175,-0.048368,-0.059986,-0.069216,0.022869,0.020123,0.048605,0.097613
0.83178,0.070237,0.028128,-0.02796,0.016612,-0.011101,-0.0032029,0.1706
0.070671,0.016722,0.035116,0.23196,0.025746,0.0031523,-0.041051,-0.097291
-0.43297,0.084576,-0.015326,0.022905,-0.043671,-0.04627,-0.010315,-0.001632
-0.69252,-0.051088,0.010274,-0.46014,-0.027725,0.03639,0.042446,0.053129
0.32566,0.072189,-0.0043134,0.05589,0.011,0.0016996,0.00062945,-0.024867
0.0061567,0.11811,-0.042347,0.15654,0.017827,0.014294,0.021196,0.023843
0.59959,-0.22002,-0.016786,0.052437,0.047544,0.019954,-0.0045366,0.012933
-0.34797,0.085887,0.12016,0.52463,0.0065867,0.0033417,0.0021106,-0.033565
0.49735,-0.077168,-0.076248,-0.74722,-0.12824,-0.051084,-0.036647,0.0093663
-0.31248,-0.197,-0.012118,0.026204,0.049602,0.020631,0.019911,0.039703
-0.32678,0.21586,0.030975,0.18141,0.032543,0.015109,0.0075734,-0.11523
0.33603,0.20668,-0.0023958,-0.046354,0.00046671,-0.021115,-0.019329,0.051364
-0.80775,-0.25621,0.035176,0.086171,0.015957,-0.025909,-0.02225,-0.055327
0.43987,-0.00021518,-0.044952,0.080086,-0.022586,0.0081912,0.0060142,0.024569
0.098855,-0.10182,0.006166,-0.25117,0.0018749,0.049639,0.080467,0.11821
-0.11478,0.06617,-0.02318,0.16333,0.018815,0.0044675,-0.01037,-0.017401
0.71786,0.56866,0.046355,0.081555,-0.011046,-0.0024356,-0.001241,0.039044
-0.50116,-0.75618,-0.011639,-0.22338,0.0058766,-0.033566,-0.064132,-0.12676
-0.13715,0.10122,-0.063724,0.060206,-0.047673,-0.03411,-0.050424,-0.092769
0.34885,0.32951,0.016088,0.017028,-0.0075976,0.019603,0.063781,0.11032
-0.52934,-0.17238,-0.005427,0.12217,0.040272,0.018488,-0.017744,-0.0087615
0.40494,0.18137,0.052511,-0.024356,0.002314,-0.0059112,0.0025748,-0.034827
-0.36757,-0.039469,0.034457,-0.080132,0.003609,0.024757,0.047213,0.18175
0.72765,-0.21066,-0.090481,0.33675,0.036333,0.009048,0.030613,-0.061044
-0.68733,-0.24705,0.044714,-0.57083,-0.040261,-0.021799,-0.031506,-0.074802
0.24493,0.40531,0.025326,0.088169,-0.031078,0.0024049,-0.014323,-0.03074
0.10191,0.019196,-0.0012065,0.0022892,0.0089342,-0.035722,-0.0276,-0.014441
-0.34246,-0.14041,0.0030553,0.024455,0.056093,0.027665,-0.0015124,0.036624
-0.08689,0.027369,0.052742,0.48417,0.0008658,0.012687,0.0087619,0.0049331
-0.028236,0.045205,-0.14966,-0.2581,-0.039583,0.012962,0.034068,0.046033
0.88159,0.20144,0.051976,0.056141,-0.010423,-0.041879,-0.035239,-0.036438
-0.45862,-0.29356,-0.084146,-0.24472,-0.028542,-0.0033761,0.011664,0.068718
-0.19802,0.060014,0.013116,-0.059164,0.023648,0.011362,0.0029384,-0.077403
-0.072676,-0.018831,0.17293,0.089133,-0.0018729,0.0024431,-0.0065723,0.047322
0.24332,-0.099628,-0.064638,0.059214,0.043671,0.024658,0.014625,-0.081563
0.068198,0.10788,-0.019155,-0.0087034,-0.011419,-0.015663,-0.019123,0.02758
0.36163,-0.027726,0.012838,0.12708,0.020331,0.022154,0.017476,0.085707
-0.73556,0.11209,-0.015641,-0.018353,-0.017545,-0.0024841,-0.00032054,-0.10189
-0.080771,0.028396,0.027735,-0.093979,-0.016012,-0.034848,-0.0019961,0.012747
-0.014049,-0.12196,0.009437,-0.022107,0.0089245,-0.0045552,-0.026487,0.0091789
0.46167,0.07522,-0.071314,-0.045158,-0.04463,-0.0052545,0.027807,-0.0017076
-0.22653,-0.021016,0.034809,0.055636,0.01842,0.010048,-0.026672,-0.041999
0.13675,-0.10661,-0.02421,-0.01635,0.018312,0.025826,0.020869,0.084573
-0.047226,0.012941,-0.014186,0.012726,0.0097931,-0.012564,0.013958,-0.020029
0.19871,0.11021,0.025862,0.08862,0.00083461,0.012022,-0.0086018,0.026808
-0.2757,-0.050006,0.0023788,-0.046105,0.0072759,0.0057044,0.0076221,0.0056045
0.29127,0.047224,0.0093541,-0.055285,-0.03316,-0.0082787,-6.4401e-05,0.032487
-0.027629,0.057608,0.03136,0.022072,-0.010905,-0.014528,-0.016122,-0.065559
-0.57423,-0.17545,0.029438,-0.0094457,0.042923,-0.0054405,-0.017065,-0.086363
0.63806,0.15256,-0.090151,0.068705,-0.012244,-0.0046073,0.0050986,0.078882
-0.71554,-0.27089,0.024125,-0.064026,-0.012368,0.011327,-0.011862,-0.038665
0.46367,0.14794,-0.033993,0.014041,0.019021,0.011102,0.033906,0.045723
0.15129,-0.012903,0.07151,0.045004,0.0036648,-0.020861,-0.021424,-0.065737
0.22328,0.19167,-0.010723,-0.11952,-0.019511,0.0092659,0.017579,0.033954
-0.27073,0.081592,0.00089573,0.11441,0.01189,0.01564,0.041514,0.079809
-0.25622,-0.20289,-0.080706,-0.10448,-0.027176,0.029616,-0.0044686,0.017505
-0.29834,-0.13073,-0.0050791,0.028814,0.01176,-0.042445,-0.065929,-0.082623
0.54581,0.19669,0.056269,0.077034,0.011605,-0.020724,-0.0025032,0.013499
-0.094066,-0.11055,0.017589,-0.022218,0.0037401,0.0011782,0.01372,-0.0071495
-0.37885,0.0034173,0.074136,0.012235,-0.0038837,0.023417,0.021683,0.0032689
0.45803,-0.08491,-0.086906,-0.007343,-0.018975,-0.01637,-0.025506,-0.010466
0.34476,-0.014693,0.002694,-0.026613,0.02882,0.030341,0.03629,0.03723
-0.12082,0.051077,-0.024867,-0.045967,-0.024599,-0.016131,-0.01936,-0.049066
-0.31104,0.23777,0.032958,0.012344,0.0081501,0.0003763,0.018637,0.012033
0.21399,0.099627,0.035116,0.054254,0.017511,0.0093753,-0.037075,0.0099152
-0.55028,-0.17705,-0.081083,-0.014239,0.011081,-0.012803,-0.0067019,-0.062802
0.002753,-0.11731,0.0047389,-0.013629,-0.026968,0.011719,0.031691,0.083363
0.38037,-0.14465,-0.01182,0.016907,-0.010847,-0.0032069,0.01561,0.011228
0.16232,0.16162,0.057163,0.0070165,-0.0031207,-0.01084,-0.00028777,0.0021967
-0.54658,0.10565,0.024639,-0.027606,-0.0037528,-0.01121,-0.016047,-0.014051
0.66402,-0.10138,-0.030895,0.030437,0.042072,0.011385,-0.016072,0.0014185
-0.62367,-0.075759,0.0079667,0.09559,0.0095473,0.0024242,-0.00035446,-0.037508
0.33593,0.043196,-0.061864,-0.19877,-0.054232,0.0011925,-9.4887e-05,-0.0059827
0.10751,0.045928,0.071976,0.015254,0.0071905,0.0079228,-0.0074057,-0.021279
0.035741,0.027317,-0.020465,0.035298,-0.0091572,-0.00061756,0.024654,0.018154
0.18291,0.03486,0.0042414,0.01049,0.021794,-0.0086556,-0.013272,0.03423
-0.43632,0.076359,0.012978,0.10536,0.037514,0.015135,0.019384,0.066059
-0.081047,-0.2863,-0.04916,-0.047147,-0.016805,-0.015183,0.013113,-0.050385
-0.43226,0.18021,0.028687,-0.048854,-0.0085307,-0.0059229,-0.0088438,-0.018213
0.6494,-0.041007,-0.019031,0.013673,-0.023789,-0.0040792,-0.023256,-0.024924
-0.21242,0.0097971,0.003213,-0.0010993,0.015401,0.013626,-0.0068597,-0.047084
0.75412,0.097376,0.033221,0.022964,-0.023835,0.0079463,0.0011874,0.048116
-0.53887,-0.036444,0.024441,-0.04799,0.0226,0.0021263,0.0087005,0.018466
-0.24975,-0.21173,-0.10879,-0.04297,-0.0014247,-0.019638,-0.0076619,0.03579
0.59607,0.1895,0.047754,0.099929,-0.017623,0.01282,0.030389,0.037508
-0.784,-0.11277,0.056575,0.083617,0.052293,0.0056627,-0.01758,-0.038962
0.25811,-0.015645,-0.059053,0.017687,-0.025935,-0.025508,-0.018571,-0.060849
0.27008,0.1383,0.044314,-0.30034,-0.041332,0.013106,0.035375,-0.035934
-0.36342,-0.048685,-0.02434,0.052381,0.037306,-0.0033871,-0.019714,0.0046367
0.26654,0.017196,0.031481,0.0614,-0.0010895,0.0032861,0.0036928,0.053188
0.13167,0.13219,0.016189,0.071578,0.015176,0.017662,0.0040094,0.031698
0.00037998,-0.079828,-0.062495,0.13063,0.015599,-0.014797,-0.018826,0.010481
-0.57834,-0.13587,-0.063813,-0.12824,-0.046847,-0.0080348,0.013228,-0.010592
0.16214,0.0018409,0.028185,-0.095781,-0.0081696,0.006776,-0.0014841,-0.0083268
0.43244,0.12147,0.049868,0.055577,0.014485,0.0062279,-0.00054887,-0.037708
-0.33946,-0.14449,0.032908,0.25466,0.013448,-0.0018796,0.0081469,0.025996
0.27325,0.0089186,0.008847,-0.35887,-0.018872,-0.0019684,0.0011095,-0.028326
0.19684,0.16063,-0.014419,0.07352,0.019329,-0.0097331,-0.021697,0.0024165
0.092102,-0.0085194,-0.083906,0.019999,-0.020182,0.0059972,0.025649,0.032386
-0.59,-0.10665,0.081312,-0.0040586,0.018964,-0.0017292,-0.028729,-0.031974
-0.076443,0.031421,0.0042498,0.1108,0.0039507,0.0139,0.010489,-0.010749
-0.2406,-0.031028,-0.034259,-0.064761,-0.01066,-0.0018416,0.02612,0.057197
0.50688,-0.020294,0.02016,-0.0067973,0.013971,-0.017711,-0.036522,-0.0076986
-0.0014244,0.016412,-0.04357,0.0040184,-0.00055514,0.02101,0.04131,0.021174
-0.12049,0.10159,0.0089856,-0.039583,-0.0076206,-0.026234,-0.03726,-0.074943
0.37959,-0.0083629,0.0061961,-0.019986,-0.0074083,0.012533,0.016842,0.039875
-0.49974,-0.057288,0.018738,0.063064,-0.015609,0.004613,-0.0072825,-0.024954
0.67045,0.17981,0.0001414,0.0064992,-0.00090548,0.0048085,0.0076287,0.043204
-0.33925,-0.23569,0.021078,0.068006,0.029069,-0.0024192,0.0069962,0.0024104
-0.53316,-0.022912,-0.019763,-0.072966,-0.0035586,-0.0092193,-0.024672,-0.053251
0.3337,0.029585,-0.044147,-0.049488,-0.012588,-0.0078071,0.0065068,0.0015846
0.32686,0.024741,0.03383,0.0054521,0.002199,-0.006099,-0.016549,-0.020283
-0.057346,0.12862,0.065578,0.1387,0.017497,0.034788,0.046824,0.084406
0.077579,-0.21905,-0.066314,-0.18086,-0.021363,-0.0025766,-0.014362,-0.028225
-0.70574,-0.039685,-0.010523,0.023546,0.018341,-0.0012759,-0.02058,-0.053932
0.087043,0.16809,0.02962,-0.091611,0.0036193,-0.0084432,-0.0033396,0.0065368
0.39718,0.060935,-0.071021,0.18467,-0.018878,-0.0086459,0.021407,0.097527
0.11208,0.1148,0.046872,0.11002,0.0053146,-0.017592,0.0064416,0.0070756
-0.10746,-0.10151,0.047376,-0.097252,-0.01773,0.01946,0.013971,0.046812
-0.023387,-0.066614,-0.0382,-0.13309,0.0056417,0.016766,-0.010864,-0.16658
0.014948,-0.016978,0.032419,0.11902,0.036366,-0.009734,-0.028991,-0.0080459
-0.25759,-0.18087,-0.029735,0.057019,0.0042262,0.0028513,0.006681,-0.016035
0.40004,0.11258,-0.037067,-0.20207,-0.051536,-0.023188,-0.028444,0.021526
0.071389,0.10539,0.041755,0.068553,0.0099361,-0.0015401,-0.0010233,0.043548
-0.38721,-0.13938,-0.019778,-0.052368,-0.01424,0.01338,0.042618,0.051434
0.16192,0.1684,-0.0029115,0.061033,0.02458,0.0060647,0.0013798,-0.0083958
0.028993,0.037828,0.0063529,0.1128,0.024962,0.0077012,0.016164,-0.025971
0.080094,-0.10019,0.062565,-0.036941,-0.020889,0.0024222,-0.014544,-0.0012919
-0.27836,-0.033726,-0.029782,-0.059605,0.027561,0.0054718,0.010637,0.018212
-0.24828,-0.043415,-0.044344,0.021435,-0.025179,-0.014852,-0.018012,-0.023095
0.29711,0.05846,0.026502,-0.020691,-0.0074509,-0.0042996,-0.0071675,0.037737
-0.062451,0.029547,-0.012678,0.00091045,-0.013215,-0.0022822,-0.0041179,-0.0034437
0.58793,0.088134,-0.036907,0.022942,0.01205,-0.0089985,-0.0013744,-0.069244
-0.38492,-0.063302,0.047642,-0.025772,-0.0098803,-0.0010383,-0.0069448,0.019717
0.35337,-0.06607,0.014565,-0.036664,0.0068866,0.013917,0.01817,-0.033311
-0.48862,-0.10827,-0.0031086,0.052117,0.023283,0.0048653,0.011507,0.022125
-0.20253,0.12217,0.018301,0.068293,0.0002575,-0.0044539,-0.026839,-0.032135
0.40491,0.09378,-0.038147,0.0039584,-0.015309,0.0018811,0.0047941,0.038776
-0.23767,-0.084132,-0.023781,-0.15627,-0.0077947,0.00066987,0.020536,0.063191
-0.012826,-0.013083,-0.0009089,0.025697,-0.0084546,-0.0079438,0.0047841,0.033123
0.17469,-0.052368,0.022782,0.050679,0.021775,0.0073281,-0.019044,-0.028507
0.16331,0.079324,0.016066,0.0055908,0.02042,0.0073642,0.02715,0.01822
-0.23138,0.030458,0.017915,0.063254,-0.020271,-0.00015273,-0.012884,-0.092965
-0.021788,-0.0036498,-0.0031258,-0.095886,-0.022063,-0.015388,-0.029707,-0.010852
0.1934,-0.038585,-0.03953,-0.049524,-0.00043156,-0.007251,-0.015367,-0.00095068
-0.4665,0.058606,0.017767,0.077353,0.013549,0.024132,0.045962,0.015482
0.35892,-0.11021,0.020051,0.057772,-0.003387,-0.015058,-0.033,-0.023039
-0.088451,-0.021096,-0.056302,-0.0074658,0.011397,0.00017404,0.021363,0.017498
0.24449,0.076558,0.023015,-0.0021296,0.003283,0.0073738,0.013817,0.060072
0.0034494,-0.01191,0.015865,-0.03654,-0.0043053,-0.016813,-0.01663,-0.03519
-0.35402,-0.043787,0.00051965,0.044835,0.011978,0.013646,0.015759,0.036626
0.16863,0.051505,0.00061544,-0.15678,-0.026144,0.0050893,-0.0065083,-0.0060922
0.068547,0.078575,0.00072903,0.038425,0.0061495,-0.0033579,0.0021515,-0.0079627
0.086246,-0.05676,-0.038042,0.037184,-0.00069297,0.011779,-0.02108,-0.0092352
-0.30181,-0.003634,0.040637,0.0042777,0.0078708,-0.011982,0.025154,0.02009
0.030937,0.010579,0.0023821,0.065425,-0.015131,-0.0043197,-0.015428,-0.046039
0.095234,0.0085679,0.0033462,-0.021037,0.0083862,0.0035304,0.01359,0.018304
-0.24575,-0.14302,-0.019137,-0.028337,0.015938,-0.011844,-0.035878,-0.044801
0.43374,0.063355,0.02067,0.066833,0.015404,0.0042745,0.00070096,-0.00055581
-0.16002,0.01833,-0.041483,0.1469,-0.024358,-0.0027825,0.014454,0.073749
-0.0096906,0.011132,0.0051983,-0.36678,-0.040717,0.013848,0.0058063,-0.078654
0.15803,0.01853,0.051267,0.064374,0.013336,-0.00058345,0.014068,0.027626
-0.39334,0.025033,-0.028262,0.018115,0.020723,0.0084954,0.01581,0.057419
0.3167,0.061895,-0.030172,0.048911,0.012746,-0.013764,-0.028272,-0.0045411
-0.18562,-0.10536,0.030076,0.12542,0.02064,0.010583,0.014181,-0.025543
0.32087,-0.015915,0.02769,-0.010156,-0.010356,-0.012377,-0.013658,0.017337
-0.074939,0.0099002,-0.044912,-0.0061732,-0.017852,0.0031769,0.012624,-0.0095055
0.10799,0.11289,0.023433,-0.0968,-0.0019462,-0.005292,-0.0012043,0.01024
-0.63145,-0.19091,-0.048337,-0.055131,-0.025191,-0.0064837,-0.039808,-0.072639
0.31763,0.05229,0.052401,-0.029119,-0.0094473,0.0075464,0.029581,0.014783
0.20932,0.054177,0.0053719,0.067737,0.037545,0.0057418,-0.011586,0.037961
-0.48942,-0.012634,-0.025428,0.025033,0.02214,0.019578,0.016781,-0.0029229
0.25182,-0.0069717,0.014522,0.093144,-0.016501,-0.02103,-0.0098011,0.0097896
0.033461,0.0010714,-0.031274,-0.0090489,-0.0080053,-0.014322,-0.0048556,-0.0091909
0.02476,0.026947,0.024388,-0.06293,-0.01487,0.0086005,0.0086399,-0.020112
0.16603,0.077919,0.024959,-0.021969,0.017537,0.0087553,0.015367,0.0010652
0.11355,-0.15152,-0.037618,0.0039985,0.010981,0.0017703,-0.015815,-0.031196
0.013198,0.056437,0.055263,-0.055811,-0.019052,-0.004618,0.016568,0.078559
-0.3817,0.083756,-0.047957,0.0013125,-0.0024015,0.0050701,0.0028866,0.041143
0.15003,-0.20299,-0.034608,0.018794,-0.0017066,-0.016237,-0.041591,-0.057837
-0.0609,0.12564,0.04875,0.10578,0.014174,0.017179,0.038999,0.046811
-0.096807,-0.023986,-0.055279,0.019936,0.0061135,0.0035373,-0.021315,-0.082826
0.024006,0.075193,0.052175,0.050325,-0.010268,-0.010468,-0.0040403,-0.048612
0.011403,-0.10736,0.0042895,-0.24041,-0.0036676,-0.0015263,0.0047474,-0.022576
-0.10312,0.038552,0.020033,0.054308,0.0025917,-0.0087587,-0.010601,0.081175
0.22056,0.044913,-0.033378,-0.049402,-0.014766,0.0069068,0.028112,0.043869
0.14007,-0.087744,0.0079575,0.058404,0.022574,0.0064736,-0.003981,-0.0095775
0.039542,0.0079773,-0.035964,0.12042,-0.010194,-0.0021438,-0.012964,0.030021
0.11541,0.1366,0.076638,-0.011455,-0.0035267,0.0046083,0.016955,0.013959
-0.55316,-0.06175,-0.060911,-0.055945,0.0036319,-0.0044095,-4.1251e-06,-0.065837
0.16775,-0.072221,0.011961,-0.013295,0.019148,0.0021447,-0.032457,-0.045428
-0.19705,0.11213,-0.0018764,0.0066302,-0.011679,-0.0069112,0.0056449,0.0049806
0.53371,-0.1267,-0.016595,-0.043663,-0.018615,-0.00028264,0.020632,0.023276
-0.45869,0.062248,0.069407,0.053946,0.02166,0.022057,0.020367,0.025709
0.022296,-0.032243,-0.11089,-0.06045,-0.02381,-0.033627,-0.049825,-0.033829
0.18031,0.019594,0.091193,0.042488,0.024516,0.020179,0.028783,0.040727
-0.016399,0.069736,-0.019364,0.050148,-0.0053648,-0.0040107,0.0061328,-0.0078406
0.2431,-0.10772,-0.012613,0.032997,0.011443,0.003201,-0.024113,-0.015156
-0.17641,-0.027596,-0.005542,-0.094489,-0.026691,-0.0050348,0.0082454,0.034369
0.019197,0.12336,0.0097648,-0.034801,-0.010429,0.0025603,-0.0062919,-0.047156
0.030605,-0.068281,-0.01357,-0.013743,0.013343,-0.0052405,0.018084,-0.002598
-0.21401,0.0072216,0.025912,0.047554,0.021188,-0.0049894,-0.0046751,0.057807
-0.12886,0.060904,0.034283,0.0090212,0.013114,0.018928,0.03473,-0.0074552
0.13898,-0.024579,-0.074609,0.01931,-0.026499,-0.0038374,-0.035591,0.0039832
0.060835,0.0004523,0.011535,6.3162e-05,-0.011701,-0.0030358,-0.012452,-0.048987
0.06968,-0.028442,0.019125,0.0052863,0.0028474,-0.010001,-0.012904,-0.010233
-0.057747,-0.0022133,0.010592,0.026143,0.02501,0.0064221,-0.0055157,0.01114
0.14212,-0.046079,-0.029674,0.07709,-0.0076324,-0.00073661,0.033337,-0.0077156
-0.2746,-0.066398,-0.023452,-0.22575,-0.016852,0.0075042,0.010034,0.01991
0.21548,0.16333,0.068476,0.077848,-0.010345,-0.0079746,-0.020712,-0.030211
-0.029769,-0.028861,0.011924,0.026728,0.011995,0.007492,0.019122,0.030016
-0.059934,0.0052753,-0.044466,-0.034996,0.018997,-0.0085776,-0.0034947,0.021182
0.30906,0.015435,-0.0067446,0.065421,0.0028831,0.0063764,-0.0029059,0.036944
-0.34822,0.055943,-0.02317,-0.061426,-0.0051118,-0.0022371,0.0049877,-0.040301
-0.097327,-0.16258,0.031399,-0.015757,-0.020667,-0.01086,-0.0034386,0.023206
0.15335,0.07062,0.024227,0.06304,0.010828,0.0040701,-0.0047818,-0.015352
-0.13616,-0.064695,-0.021257,0.043072,0.0033592,0.0036013,-0.02233,-0.054874
0.18286,0.041143,-0.019224,-0.075195,-0.004067,0.011245,-0.0010792,0.0060416
0.0023629,0.0058066,0.030116,0.036329,0.0041488,0.003589,-0.0031055,-0.027727
-0.0037193,0.0017288,-0.014153,-0.021292,-0.011049,-0.019394,0.018897,0.039618
-0.10642,0.045053,0.019511,0.032342,0.012867,0.0047252,0.0027577,0.021229
0.056077,0.018975,-0.025474,-0.038196,-0.017818,0.005531,0.026745,0.027124
0.079723,0.048699,0.0068717,-0.030873,0.0062921,-0.0014664,-0.018612,-0.043788
0.028813,-0.20168,0.014826,0.0064491,0.014874,-0.0085657,-0.00081815,0.0039909
-0.39223,0.041172,-0.01725,0.010499,0.00788,-0.00023581,0.0093378,0.014064
0.66895,0.042686,-0.0032736,0.043299,-0.01477,0.0078309,0.011329,0.056305
-0.56078,0.029183,-0.013264,0.010966,0.0015164,-2.5428e-05,-0.026551,-0.073042
0.14505,0.10978,0.054738,0.085602,0.0019621,0.015259,-0.010837,-0.0074717
0.028163,-0.15326,-0.056643,-0.13064,-0.0056793,-0.0087764,-0.027517,0.041499
0.025255,-0.0023102,-0.003254,-0.10562,-0.021425,-0.017367,0.017344,-0.051491
0.15867,0.070328,0.04332,0.068,0.0016232,-0.0025912,0.022554,0.033792
-0.32297,-0.075995,-0.018366,-0.014928,0.040083,0.012238,0.0042026,-0.046195
0.070893,0.04313,0.006904,0.099627,0.00026993,-0.0040073,0.0018042,0.0058439
0.04154,-0.041014,-0.0061706,0.029367,-0.024002,-0.0043619,0.0079001,0.049818
0.03234,-0.031577,-0.018998,-0.046012,0.0063846,0.019029,-0.0085595,-0.0074998
0.072654,0.086935,0.038173,0.013605,-0.0022775,0.0036471,-0.0084787,0.021804
0.23121,0.095531,0.00073214,-0.027074,-0.0030741,-0.011514,0.015846,-0.026091
-0.50079,-0.0060773,0.0088805,-0.0051156,-0.00378,-0.003121,-0.021728,0.012941
0.29848,-0.13999,-0.039142,-0.0075693,0.0034547,-0.002529,-0.0042519,-0.040871
-0.10426,-0.032806,-0.0026178,-0.027506,0.010852,0.0058052,0.013359,0.046678
0.0042256,0.065714,0.017286,0.020512,-0.0049996,0.0062197,0.015307,-0.029296
-0.1462,-0.078279,-0.056918,0.027067,-0.0050225,-0.032523,-0.037577,-0.034596
-0.036001,0.082811,0.033348,0.047241,0.018597,0.01463,0.01873,0.093137
0.34652,0.034111,0.0075712,-0.082282,-0.027903,0.014934,0.0045466,-0.091525
-0.25322,-0.090977,0.022549,-0.087119,0.011705,-0.00030107,-0.0097903,0.0050476
0.16675,0.0046758,0.031644,0.11962,-0.0032403,-0.0076144,-0.00082876,-0.00011873
0.052094,0.16464,-0.035582,-0.00032523,-0.0024733,0.0085973,0.023603,0.064625
-0.090783,-0.080419,0.0078999,-0.009,0.006133,-0.006418,0.00095368,0.058372
-0.10082,-0.020491,-0.0026898,0.038984,-0.00092978,0.0019387,-0.021979,-0.097291
0.04902,-0.015985,-0.029115,0.018316,0.030952,0.017957,0.017227,0.034919
0.025766,-0.06003,0.01378,0.061212,-0.023286,-0.020919,-0.014294,-0.052867
0.043274,0.042041,-0.007422,-0.26275,-0.030871,-0.020943,-0.014986,0.030137
-0.27776,0.086887,0.00069107,0.06136,0.008193,0.010119,0.015201,-0.05163
0.32512,-0.081479,0.030276,0.040774,0.023628,0.017668,-0.0017588,-0.00076653
0.20973,-0.0092379,-0.035596,0.10483,0.0076848,-0.0060098,0.004569,0.011405
-0.24082,-0.023515,-0.0011187,-0.020036,-0.023933,-0.013964,0.0030555,0.06345
-0.21959,0.025245,0.0093441,-0.036842,-0.00083984,0.017269,0.0016066,0.022775
