-0.040448,-0.10602,-0.066819,0.033507,0.021351,-0.016376,-0.035977,-0.020696
0.17448,-0.063305,0.044164,0.051595,0.015427,0.0074579,-0.003376,-0.013288
-0.0069242,0.52239,0.0087441,0.0097206,-0.0058716,-0.0076748,0.028922,0.010117
-0.020806,-0.70433,-0.0094678,-0.038103,0.027429,0.024113,-0.017255,-0.0049911
0.031818,0.68112,0.13722,0.032074,-0.010021,0.032415,0.045639,0.074302
-0.029112,0.12493,-0.059874,-0.023097,-0.032575,-0.045381,-0.040095,-0.056724
0.01399,-0.28802,-0.085941,-0.14211,-0.0013295,-0.0062434,0.022574,0.00017349
0.057905,0.041136,-0.16029,0.018161,-0.010027,-0.022087,0.022891,0.033721
-0.070988,-0.24285,0.11531,0.035678,0.0040098,0.024309,-0.04678,-0.011189
-0.09287,0.012318,0.037852,0.020058,0.0098321,0.01586,-0.014412,-0.025596
-0.047598,-0.0093497,0.068645,0.096798,0.015607,-0.016041,-0.036171,-0.0098161
0.080458,0.18175,-0.0028113,-0.014777,-0.0017777,-0.0087497,0.083235,0.075075
0.21397,-0.087725,-0.098015,-0.09543,-0.0030313,0.0065862,-0.015728,-0.083347
-0.16908,0.11939,0.041079,0.042652,0.0041256,0.029994,0.033829,0.046455
0.034637,-0.16508,0.047362,0.0011473,-0.0037912,-0.024521,-0.049758,-0.11321
-0.31378,0.13046,0.13957,0.014401,0.0043139,0.0069725,0.029941,-0.0071709
0.31047,-0.10171,-0.18232,0.027634,0.004795,0.0071148,0.014735,0.24
-0.013856,0.093366,-0.16043,-0.045148,-0.025986,-0.024257,-0.048706,-0.12141
-0.04486,-0.079391,0.056935,-0.00076837,0.013393,0.022126,0.042783,0.057143
0.091235,0.084771,0.040287,-0.026553,-0.0021142,-0.017816,-0.10112,-0.10721
-0.037222,0.032577,0.15693,-0.059744,-0.0099609,0.0044455,0.027935,0.02602
0.26279,-0.039487,-0.077554,0.0014562,-0.010028,-0.0046573,0.032125,0.019204
-0.3077,-0.17737,0.016261,0.10245,0.03689,0.001988,0.037043,-0.049625
-0.015672,0.14302,0.11767,0.055586,-0.025338,-0.014444,-0.011585,0.0069922
-0.18173,-0.023319,-0.047149,0.040145,0.029901,0.024348,0.019195,-0.10786
0.046599,-0.098417,-0.11899,-0.061638,-0.0083724,0.0090581,-0.019198,0.23073
0.179,0.13577,-0.12893,-0.070651,-0.015285,-0.00569,0.0056666,0.022547
-0.047765,0.068523,-0.045229,-0.073206,-0.014463,0.0033517,0.007335,-0.068654
0.18115,-0.12236,0.085949,0.055688,0.032957,-0.01878,-0.08503,-0.074486
-0.0075042,0.2483,0.24181,0.10552,0.017432,0.02136,0.056273,-0.026523
-0.18329,-0.27505,-0.11639,-0.14947,-0.037689,-0.0093009,-0.022136,0.028175
0.067426,-0.053994,0.089339,0.073014,-0.023012,-0.017178,0.031248,0.042738
-0.32726,0.01919,0.061504,0.063099,0.014711,-0.010112,-0.0022068,-0.045137
0.26291,0.24834,-0.11484,-0.045538,0.013192,0.03545,0.018378,0.030526
0.35038,-0.1711,-0.22185,-0.088376,-0.0038826,-0.01307,-0.016037,0.012342
-0.43531,-0.073962,0.060159,-0.018604,0.018415,0.0087037,-0.0035165,0.049183
0.29374,0.088694,0.0044217,0.030348,-0.005672,-0.016092,-0.021823,-0.092949
0.24691,0.13218,0.18931,0.44022,0.025513,-0.0090505,-0.015949,-0.015339
-0.80999,-0.072999,0.068568,-0.16532,-0.036469,0.014381,0.10029,0.11029
0.36746,-0.1874,-0.21639,-0.43601,-0.058898,-0.00044051,-0.10265,-0.16136
0.28339,0.14383,-0.031938,0.033375,0.044,0.032317,0.054958,0.14614
-0.94733,-0.20168,0.075692,0.031297,0.053262,-0.020391,-0.01292,-0.022155
0.85304,0.30887,0.083433,0.54197,0.023343,-0.0026277,-0.040861,-0.018161
-0.27131,0.034919,-0.039936,-0.61414,-0.061597,-0.016285,0.05677,0.0014462
-0.1453,-0.17362,0.049023,0.16477,-0.014218,0.00085398,-0.017278,-0.034078
0.48945,-0.28114,-0.20496,-0.043041,-0.022096,0.0095448,-0.0056013,-0.015764
0.15411,0.019837,0.18955,0.31711,0.039786,-0.0058928,-0.010162,-0.022078
0.023658,0.63723,-0.026049,0.026314,-0.015979,0.0014882,0.031204,0.13422
-0.39236,-0.23231,-0.1962,-0.16548,0.045121,0.016237,-0.0067209,-0.047004
-0.17828,0.046,0.26453,0.031049,-0.011151,-0.023912,0.02444,0.043611
-0.096976,0.28849,-0.0034664,-0.54728,-0.067493,0.014096,-0.047068,-0.085948
0.035938,-0.3341,-0.10166,0.42918,0.055859,-0.017972,-0.041268,-0.044683
0.28993,-0.49912,-0.07651,0.079696,0.015211,0.012821,0.02662,0.042966
-0.27919,-0.4351,0.018023,0.062823,0.0059387,0.012751,0.00078536,-0.025439
0.12788,0.67112,0.073483,-0.21313,0.0047163,0.0051878,0.03004,0.024251
0.4203,0.50109,0.028363,0.19851,-0.019519,0.01343,0.083358,0.13796
-0.49307,-0.6471,-0.030493,-0.20193,-0.035251,-0.033,-0.10485,-0.13703
0.37407,0.5536,-0.0086485,-0.040447,-0.042183,-0.0092484,0.0043251,-0.0037201
0.077446,0.11422,-0.0073042,-0.038035,-0.071325,-0.016967,-0.019078,0.0064587
-0.64823,-0.71603,-0.042091,0.40355,0.11958,0.014134,0.082439,-0.0053881
0.29077,0.8162,0.10537,0.31946,0.16317,0.021595,-0.058574,0.030378
0.16788,-0.32759,-0.018715,-0.55977,-0.034793,0.028935,0.010883,0.034839
-0.063485,-0.53901,-0.079292,-0.2059,-0.076538,-0.026251,-0.013826,-0.04749
-0.0041913,0.1027,0.039862,-0.081504,-0.10342,-0.011057,0.00034909,0.017104
-0.27036,0.26934,0.017517,0.28231,0.032389,-0.019146,-0.0009033,-0.0061698
0.27202,-0.044951,-0.037714,-0.0032296,-0.028803,0.027679,-0.017152,-0.031447
-0.040142,0.30501,0.037715,0.010397,0.10364,0.020104,0.03792,0.043128
-0.097071,-0.27472,-0.022046,0.35843,-0.038703,-0.049643,-0.038593,-0.070882
0.077282,0.42196,0.02526,-0.4472,-0.056873,0.013763,0.05017,0.033625
-0.0030071,-0.19263,-0.046598,-0.11382,0.018461,-0.0084559,-0.0085685,0.013824
0.073648,-0.58638,-0.0027276,0.17367,0.062801,0.039879,0.058132,0.065848
0.2261,0.16518,0.071545,0.07274,0.12335,0.010211,-0.10974,-0.075363
-0.27519,-0.11464,-0.034122,0.05178,-0.11228,-0.011674,0.065321,-0.12055
0.2629,0.083668,-0.053623,-0.062963,-0.15977,-0.065001,-0.073458,0.20351
-0.33231,0.12605,0.0055218,0.014471,0.074465,0.029766,0.043958,0.021254
-0.25519,0.37418,0.096502,-0.094739,0.082413,0.030324,-0.035563,-0.074397
0.075029,0.349,-0.054268,0.058646,-0.034553,-0.016526,0.11012,0.087556
0.10751,-0.32371,0.076359,0.26824,0.012501,-0.0014303,-0.10443,-0.21239
0.096492,-0.10738,-0.074451,-0.34302,0.036018,0.028765,0.032319,0.087804
0.28003,-0.20133,-0.046015,0.20099,-0.018656,-0.011799,-0.010223,-0.09012
0.19958,-0.49981,0.044399,-0.30947,-0.018592,-0.013619,-0.0049407,0.16028
-0.64425,0.41737,-0.053069,-0.08274,-0.13549,-0.039029,0.032917,-0.10594
0.10677,-0.22198,0.036919,0.064193,0.076116,-0.0019113,-0.052774,0.056974
0.012421,0.52411,0.0023166,0.064278,0.046003,0.05884,0.065961,0.10248
0.20967,-0.1259,0.070146,0.36522,0.094398,0.026159,-0.02534,-0.023882
-0.016445,0.15832,-0.063927,-0.0007744,-0.021161,-0.021769,0.024309,-0.079828
-0.18529,-0.056567,-0.001298,0.23135,-0.082355,-0.053694,-0.020104,-0.080918
0.098697,-0.48378,-0.023274,-0.71364,-0.042801,0.024092,-0.01852,0.1292
0.0058068,0.32845,0.041756,0.12282,0.04239,0.0084141,-0.026006,-0.12117
-0.16717,0.23857,0.091816,0.20731,0.10268,0.024239,0.058895,0.043199
0.19053,-0.13714,-0.12357,-0.1568,-0.096233,-0.029991,-0.005812,0.013155
-0.035623,-0.27669,-0.073608,0.17099,-0.038365,-0.013613,-0.071231,0.038787
-0.060936,-0.15136,0.085122,-0.191,-0.066831,-0.004684,0.05077,0.041848
0.079265,-0.046573,0.047756,-0.2095,0.15508,0.04373,0.024934,-0.071794
-0.072511,0.4923,0.0096089,0.50069,0.010946,-0.016788,-0.070027,-0.0058784
-0.068311,0.33158,-0.036965,-0.003681,0.01696,-0.01441,0.047496,-0.018974
0.17925,-0.20368,-0.068246,-0.58083,-0.21724,0.0038492,0.018174,0.091283
0.021786,-0.19635,0.002038,0.23001,0.10508,0.022138,0.013589,-0.019463
-0.042009,-0.16761,0.064816,0.4742,0.069346,-0.022335,-0.037157,-0.062454
-0.15517,-0.13065,0.0030941,-0.022722,0.049727,0.010746,0.013605,0.024914
0.054257,0.19922,0.027836,-0.060615,0.04527,0.027358,0.024453,0.0088139
0.23938,0.037929,-0.032991,0.1002,-0.10114,-0.027358,-0.03652,-0.055133
-0.078976,-0.060967,-0.03907,-0.7212,-0.10878,-0.028426,0.0099979,-0.017309
-0.10554,0.12949,0.10297,0.13196,0.0926,0.024304,-0.054762,0.045379
0.0031903,-0.053225,-0.099422,-0.033369,-0.090278,-0.0016711,0.027362,0.040203
-0.072009,-0.028824,0.001954,0.075262,-0.00027193,-0.035619,0.03826,0.053728
-0.23523,0.072174,0.032024,0.10984,0.051198,0.040102,-0.060336,-0.070195
0.1099,-0.27169,-0.032533,0.43237,0.041684,-0.00066439,0.044856,-0.082009
0.37971,0.26905,0.019495,0.0047853,0.10464,0.014233,0.026325,0.033001
-0.41676,0.077761,-0.014654,-0.08797,0.0058446,0.014589,-0.021847,0.21895
0.4311,0.091716,0.0529,-0.16884,-0.13006,-0.023111,0.0097145,-0.21292
0.23381,-0.37744,0.0037222,-0.4914,-0.085057,-0.020975,0.011331,0.080081
-0.51185,0.16905,-0.021355,0.72199,0.10865,-0.010597,-0.048774,-0.043336
0.04199,-0.20764,-0.092569,-0.57057,-0.042074,-0.00018413,-0.0071582,-0.10673
0.0093185,0.04592,0.094721,0.23878,0.071358,0.048927,0.06528,0.11689
0.1227,0.34282,0.016932,0.03284,-0.082831,-0.0042359,-0.027203,-0.15287
-0.15675,-0.083184,-0.029268,0.00043139,0.057642,-0.027121,-0.026988,0.22573
0.06399,-0.083854,-0.005035,-0.035855,-0.030579,0.011386,0.03475,-0.019664
-0.30461,0.067661,0.011316,0.067299,0.0044054,0.0019214,-0.052608,-0.052237
0.28185,-0.19816,-0.003776,-0.078166,0.045929,-0.00066567,0.016117,0.01914
-0.14783,-0.16132,-0.065978,-0.017133,-0.053818,-0.058582,-0.008523,-0.063262
0.11377,0.19532,0.059114,0.24372,0.033944,0.055113,0.030205,0.012747
0.068934,0.05301,0.0122,-0.26417,0.028569,0.0048867,0.03886,-0.0034622
0.25651,0.31156,0.0043012,0.20077,-0.17101,0.0020398,0.025318,0.11384
0.0020019,-0.14523,0.004232,0.051407,0.11521,-0.0078482,-0.1278,-0.15972
-0.23027,-0.29333,-0.042665,-0.23711,0.074846,0.014425,0.05566,0.081214
0.12482,0.078434,0.019866,-0.22861,-0.026551,-0.017073,-0.010778,-0.023489
-0.32038,0.095012,0.0043202,0.26336,0.013876,-0.0086984,0.062933,0.056874
-0.05373,-0.12664,0.027901,0.12874,-0.11674,0.0081099,-0.020594,-0.076403
0.04029,0.13182,-0.010902,-0.070374,0.034334,0.0096837,-0.074223,-0.024843
0.071273,-0.16152,-0.057303,0.087702,0.037059,-0.012027,0.026885,0.1494
-0.23258,0.11741,0.029446,-0.23306,0.00056058,-0.0025514,0.0015538,-0.17025
0.74825,0.092352,-0.016163,0.15481,0.0028251,-0.0011295,0.076636,0.18893
-0.4449,-0.035045,0.024674,-0.10024,-0.0030532,-7.8405e-05,0.0025954,-0.13926
0.033383,0.0071249,0.01127,0.15813,-0.009212,0.023962,-0.15749,-0.052231
0.41042,-0.02464,-0.040962,0.016086,6.8571e-05,-0.007159,0.073532,0.10721
-0.49357,0.079787,0.062939,-0.27597,-0.021987,-0.0074725,0.024338,-0.019591
-0.28084,-0.27343,0.033473,-0.076774,-0.020625,-0.015955,0.023454,-0.14322
0.20393,0.080489,-0.075105,0.74733,0.097909,0.030031,0.024205,0.19716
0.24113,0.0023248,0.010333,-0.59168,-0.01801,-0.017769,-0.043741,-0.0068365
-0.19326,0.017322,0.0084458,-0.092658,-0.016931,-0.018528,-0.0087371,-0.037421
0.7835,0.20542,-0.080581,0.1752,-0.047408,0.0045088,-0.027428,0.11982
-0.75781,-0.22103,0.071822,-0.1622,-0.007951,0.028054,0.016874,-0.18474
-0.37862,0.012138,-0.025906,0.45033,0.11708,0.005305,0.0064314,-0.0067858
0.26637,0.17828,0.033167,-0.25288,-0.13315,-0.0012583,0.065701,0.035924
0.093027,0.026587,0.015257,-0.24917,0.038426,-0.038631,-0.055808,-0.0020469
0.27488,-0.084876,-0.032381,0.14754,-0.00078072,0.002359,-0.045985,-0.06574
0.063102,-0.079411,0.030969,0.1306,0.03848,0.035512,0.048044,0.017231
-0.20588,-0.083225,-0.013647,0.17433,-0.031202,-0.0097628,-0.00036096,0.13805
0.022354,-0.018917,-0.026066,-0.26245,-0.0067554,-0.00091061,0.043281,0.023745
-0.057783,0.15243,0.032152,0.16239,0.033482,0.015006,-0.039487,-0.036365
-0.27573,0.017107,-0.019347,-0.067441,0.018857,-0.024595,-0.0060204,-0.026535
-0.00023308,-0.14296,0.014165,-0.35771,-0.019781,-0.002477,-0.097937,-0.14201
0.50926,0.13393,-0.0083346,0.16824,-0.059364,-0.012212,0.10725,0.17206
-0.09259,0.012433,0.014581,0.052019,0.024866,0.0011689,0.031989,-0.052748
-0.15096,0.00071719,-0.018499,0.32785,0.068806,0.030187,-0.018607,0.020061
0.13002,-0.073041,-0.036852,-0.42335,-0.044526,-0.0029572,-0.02087,-0.13228
-0.25004,0.048801,0.03823,0.30827,-0.0021959,0.011365,-0.060741,0.037747
0.15465,-0.055887,-0.011368,-0.3045,-0.061411,-0.036083,0.11155,-0.024154
0.20488,0.065834,-0.0054107,0.18324,0.01287,-0.0046749,-0.082554,0.18979
-0.394,0.054592,0.025182,0.027665,0.041549,0.011704,0.036114,-0.063213
-0.16271,-0.19873,-0.013305,0.10124,-0.0062434,0.036247,0.0060513,0.028251
0.15148,0.032909,0.035105,-0.013063,0.057068,-0.0094759,-0.016975,-0.0059865
0.1444,0.023537,0.037076,-0.067988,-0.018772,-0.00076226,0.037038,-0.050135
0.4811,0.062748,-0.062718,-0.37025,-0.015535,-0.023774,0.019597,0.04323
-0.3389,0.049284,-0.007066,0.57139,0.050487,-0.016106,-0.13938,-0.062141
-0.15339,-0.063768,-0.022935,-0.57876,-0.07135,0.030121,0.076235,-0.0063175
-0.1762,0.082573,-0.0010583,0.08672,-0.061217,-0.025508,-0.0047394,-0.13168
0.29242,-0.059228,0.0040996,0.13983,-0.0052745,0.012624,0.0090803,0.0090266
0.014856,0.056947,0.039913,0.19161,0.065265,-0.019222,0.016798,0.13659
0.06672,-0.077386,-0.025767,0.25895,0.033456,0.027648,0.018842,0.096449
-0.23311,-0.12673,0.010869,-0.23562,0.0090174,0.012725,-0.039383,-0.0011084
-0.1973,-0.020967,0.0019396,-0.073263,0.00010392,0.0062648,-0.0097353,-0.078064
0.19073,0.154,-0.0053631,-0.19945,-0.032086,0.0002342,0.036825,-0.041785
-0.08284,0.12482,0.012414,-0.036199,-0.040531,-0.021328,-0.0178,0.05896
0.20296,-0.12414,-0.0075188,-0.091239,-0.017394,-0.019731,0.0050488,0.010957
0.33941,-0.053964,-0.011006,0.40142,0.076321,0.004698,0.018469,0.0073293
-0.17931,0.085019,0.040342,-0.01082,0.037371,0.012688,0.052985,0.030801
-0.164,0.019003,-0.002588,0.024171,-0.0015486,0.019809,-0.07143,-0.16161
-0.28507,-0.010069,-0.030966,-0.055664,-0.040497,-0.012889,-0.073401,-0.069722
0.029131,-0.049002,-0.021662,-0.29694,-0.08725,-0.022653,0.008583,0.041919
0.32663,-0.0035281,-0.013751,-0.035557,-0.032304,-0.0013264,0.034792,0.13591
-0.16518,-0.01327,0.063347,0.52518,0.14795,0.028025,-0.0015654,0.010983
0.11648,-0.076845,-0.086773,-0.39638,-0.11665,-0.028022,0.033235,0.051554
-0.24304,0.033827,0.059879,0.23821,0.15827,0.033878,0.038237,-0.06162
0.34847,0.10133,0.019426,-0.11866,-0.035231,0.0028578,-0.001987,-0.08598
-0.056773,-0.20167,-0.012489,-0.12402,-0.041213,-0.027415,-0.0095215,0.10317
0.030221,0.28893,0.042356,0.27607,0.038386,0.013152,0.02295,-0.049662
-0.11281,0.0019722,-0.042742,-0.043942,-0.070222,0.014882,-0.053614,0.16539
-0.31735,-0.025068,-0.0103,-0.31884,-0.046951,-0.022553,-0.075672,-0.29177
0.46069,-0.020771,-0.032621,0.029238,-0.0090414,-0.0056869,0.042411,0.14055
-0.31179,-0.24499,0.030487,-0.20304,0.074876,-0.0050302,0.011533,-0.084941
0.083194,0.089681,0.014613,0.80437,0.040977,0.0184,0.011559,0.070782
-0.0024231,0.08385,0.0054978,-0.050371,0.053622,-0.0056669,-0.019727,-0.0091989
0.26875,-0.01261,0.0031322,-0.15813,-0.03532,0.0010364,0.058556,-0.051041
-0.046163,-0.011532,-0.039169,-0.55008,-0.12399,-0.0081504,-0.042537,0.09408
0.12642,0.064931,0.035216,0.11029,-0.0089918,0.013896,0.051932,0.020172
-0.81117,-0.12533,0.00022322,0.23819,0.098975,0.03617,0.052685,0.11015
0.29376,0.075621,-0.073278,-0.031956,0.004767,-0.050491,-0.048365,-0.089084
0.53908,0.036466,0.057417,-0.073458,-0.11968,-0.027188,-0.12644,-0.12438
-0.50136,0.00044999,0.0098729,0.091625,0.18648,0.020209,-0.017562,-0.14402
0.38578,-0.11004,0.0030015,0.081161,-0.09264,0.021353,0.083061,0.1335
-0.25955,0.072104,0.013265,-0.10507,-0.012106,0.0073503,0.058482,0.091323
-0.016209,0.061937,-0.0065687,0.30528,0.036993,0.0092118,-0.012872,-0.06719
0.26977,-0.024311,-0.057053,-0.40821,-0.039529,-0.012431,-0.036989,0.16581
-0.045716,-0.039332,0.048652,0.13541,0.00019892,-0.018836,0.0019008,-0.053643
-0.2715,0.023575,0.036464,-0.057579,0.038866,0.0053513,0.033478,-0.022825
0.2757,-0.078696,-0.047259,0.15266,0.0062743,0.013085,-0.028347,-0.031248
-0.25162,-0.026457,0.00030757,-0.1165,-0.058177,-0.019102,-0.01195,-0.079227
-0.028242,0.078424,-0.023988,-0.098271,-0.021177,0.018281,0.0042596,-0.018371
0.084661,0.040611,-0.0027147,0.021795,-0.03842,-0.046398,0.0044112,-0.035914
-0.10896,0.0087137,0.033334,0.019397,0.12495,0.044998,0.10555,0.2671
0.2427,-0.048225,-0.016826,0.084085,-0.0073562,0.003753,-0.16109,-0.19464
0.14069,-0.020476,0.027076,0.06872,0.049073,0.0020521,0.024963,0.063808
0.078908,0.061099,-0.0063507,-0.28435,-0.10444,-0.022378,-0.015734,-0.082188
-0.45598,-0.037455,-0.0074225,0.35186,0.0082578,0.016514,0.05306,0.10963
0.16378,0.0046247,0.023961,-0.024909,0.066362,0.0093501,0.051928,0.014026
-0.28532,0.008124,-0.037299,-0.05826,-0.071173,-0.036165,-0.026786,-0.041363
-0.026896,-0.11243,-0.003957,0.030009,-0.021804,0.020402,-0.058069,-0.018116
0.57428,0.11211,0.037703,0.0030802,0.050336,0.0069392,0.028251,-0.049717
-0.089832,0.08826,-0.014251,-0.29657,-0.081214,-0.022125,-0.0024447,0.035106
-0.37091,-0.1683,-0.019522,0.014058,0.075943,0.018902,-0.0020082,-0.10788
0.15121,0.037563,0.013831,0.21777,0.076719,0.020441,0.12305,0.26318
-0.018838,0.025701,-0.015895,-0.13604,-0.070917,-0.033277,-0.18992,-0.17227
0.17736,0.045455,0.00063569,-0.10706,-0.0075537,0.0061209,0.035626,-0.00028129
0.25111,-0.036774,0.0087779,0.29925,-0.037972,-0.0097839,0.018565,0.083778
-0.21523,0.05168,0.024248,-0.13449,0.0016932,0.0050403,0.0091455,-0.052852
-0.23158,-0.03353,-0.015342,0.43553,0.048685,0.027309,0.038913,0.011878
-0.14161,-0.073935,0.015124,-0.36682,0.024632,-0.013107,0.037827,-0.0029606
-0.12273,0.10247,-0.0014306,0.29248,0.062171,-0.022271,-0.11893,-0.12032
0.21989,-0.12876,-0.057086,-0.60425,-0.15123,0.007786,-0.0016079,0.14478
0.33679,0.053581,0.035759,-0.042994,-0.029493,-0.00095331,0.069403,-0.019426
-0.39967,-0.036979,-0.01187,0.38956,0.07613,0.029676,0.070474,0.12216
0.31151,0.077106,0.026649,-0.14231,-0.0058146,-0.0097283,-0.092412,-0.22667
-0.13681,0.029347,-0.0049201,0.15929,0.0063629,-0.017693,-0.02891,0.020552
0.13818,-0.0081147,0.002755,-0.016647,0.034887,-0.0021531,0.018559,-0.010916
-0.084288,-0.066739,0.002705,-0.020083,-0.013815,0.013321,0.010797,0.13981
0.075059,0.071595,-0.020824,-0.20123,-0.06165,-0.010444,0.057171,-0.0042491
0.033952,-0.015885,-0.013279,0.25329,0.06304,0.012426,-0.08439,-0.061054
-0.17238,0.013615,0.02523,-0.16398,0.031793,0.0038017,0.023833,0.062131
-0.093584,-0.067282,0.032146,0.35929,-0.015112,-0.020627,0.014929,-0.057666
-0.13714,-0.032535,-0.039392,-0.41964,-0.046677,0.017386,-0.0014467,-0.030794
0.23628,0.063011,0.013838,0.20162,-0.00047622,-0.014811,-0.017252,0.03271
-0.18291,-0.069534,-0.04237,-0.37925,-0.11076,-0.0233,0.0067039,-0.01581
0.21644,0.085856,0.026571,0.31365,0.14621,0.046744,0.039167,0.081733
0.084197,-0.025036,-0.0056868,0.13917,-0.010444,-0.015541,-0.052818,-0.15832
-0.11816,0.0044501,0.017271,0.15941,0.052399,0.016397,0.019547,0.093177
0.038455,0.06519,0.0017624,-0.55563,-0.055713,-0.0059775,0.029359,-0.045461
0.25556,0.016637,0.018051,-0.068732,-0.069211,-0.020331,-0.07062,-0.010725
0.04669,-0.14126,-0.035591,0.3464,-0.043073,0.0043815,0.094298,0.18245
-0.44166,0.052362,-0.0031541,0.11136,0.17847,0.0054565,-0.054218,-0.20788
-0.14809,0.050586,0.029162,0.13215,0.03233,-0.0094581,-0.031843,0.19308
-0.072521,-0.1387,0.014266,0.064921,-0.036713,0.02204,0.013114,-0.15435
0.41141,0.094059,-0.024515,-0.75419,-0.11495,-0.0016263,0.073134,0.15528
-0.18618,-0.016531,-0.016839,0.1754,-0.030539,-0.017883,-0.085737,-0.19137
0.18429,0.060992,-0.0094116,0.28433,0.029333,0.0046698,0.029177,0.031624
0.11132,-0.017016,-0.025401,-0.11378,-0.012832,-0.019705,0.019918,0.02704
-0.20776,-0.039657,0.044861,0.22422,0.11719,0.018583,-0.027184,-0.0098286
-0.013867,0.00068901,0.021907,-0.1308,-0.079864,0.010346,-0.010328,0.085341
0.39673,0.025597,-0.023878,-0.085201,0.021523,0.0025831,0.054894,-0.022968
-0.55398,0.042538,0.024572,0.18842,0.023058,-0.0046732,-0.042652,-0.13119
0.29018,-0.042534,-0.0049235,-0.084588,0.018229,0.0041383,0.024742,0.089112
-0.36781,-0.0423,0.0043988,-0.14782,-0.079523,-0.018006,-0.056015,0.03648
0.049949,-0.003661,-0.010407,0.075656,0.0649,-0.0010034,0.034693,-0.047064
0.32432,-0.035873,-0.026262,0.14766,-0.010312,0.0080351,0.046161,0.072457
-0.11584,0.10347,-0.012093,0.037083,-0.0089993,0.001067,0.0012255,0.035142
0.11082,0.016179,0.016527,-0.24718,0.013754,0.0091533,-0.0067533,-0.11263
0.01005,-0.047545,0.013004,0.070231,-0.059225,0.0087388,-0.09506,0.011625
-0.053462,0.02179,0.0012407,-0.21913,-0.047824,-0.031448,0.025604,-0.060832
-0.12912,-0.072665,0.020866,0.22324,0.079947,0.0058717,-0.019216,0.076597
0.15599,0.012794,-0.029103,-0.0068617,-0.010953,0.01934,0.083753,0.010505
0.097603,0.12185,-0.01536,0.17749,0.078771,0.0014474,0.038511,-0.0082915
-0.38236,-0.065868,0.015557,-0.24762,-0.048665,-0.031815,-0.075979,-0.041505
0.29552,0.0043443,0.0090833,0.12203,-0.025744,0.01368,-0.024656,-0.033893
-0.47589,-0.089306,0.019792,0.15812,0.045943,0.0054475,0.013232,0.030334
0.19673,-0.010737,-0.022971,-0.17466,-0.083958,-0.017235,0.022202,0.18212
0.21424,0.08395,-0.010351,-0.020979,0.0449,0.023806,0.041146,-0.10271
0.1095,-0.0082953,0.017963,0.34255,0.049,-0.0043908,-0.086639,-0.075157
0.2032,0.048404,-0.0089835,-0.49978,-0.048915,0.015024,0.099112,0.12309
-0.22423,-0.011802,0.009808,-0.0007627,0.00059746,-0.012187,-0.089895,-0.1494
-0.065052,-0.048649,-0.019814,0.052785,0.0018923,0.0071624,0.064282,0.17733
-0.44614,0.0077664,0.034785,0.016179,0.001787,-0.013407,-0.056255,-0.24026
0.65454,0.055535,-0.029453,0.042315,-0.015128,-0.0040082,-0.0067154,0.020471
-0.54475,-0.061776,-0.0090942,0.04166,-0.01717,0.011692,0.079806,0.10125
0.4489,-0.015993,0.0026041,0.12669,0.019656,-0.013172,-0.054516,-0.098322
-0.042373,0.036913,-0.0015747,-0.060599,0.049045,0.0075883,-0.011009,0.18829
-0.305,-0.12137,0.002403,0.11205,-0.014475,-0.027144,0.015459,-0.038514
0.1092,0.095589,0.015032,-0.17792,-0.092491,0.0081925,-0.037029,-0.044558
-0.031662,0.039717,0.013192,0.042683,0.10412,0.03605,0.097793,0.15379
-0.023008,0.062746,0.012611,0.051471,0.020523,0.0022312,-0.063824,-0.11641
0.22106,-0.08542,-0.025876,0.1578,-0.038928,-0.030442,-0.021346,-0.16874
0.081624,-0.022287,-0.016584,-0.50749,-0.051219,0.0084501,0.077192,0.074118
0.016437,0.095473,0.008909,-0.0073801,-0.016792,0.0016081,-0.11954,0.010282
-0.13487,-0.091893,0.034658,0.21382,0.056153,0.0034207,0.099446,0.07746
-0.024983,0.024797,-0.033338,0.13473,0.034517,0.029093,0.015288,0.049775
-0.063636,-0.038753,-0.031164,0.070419,-0.0037239,-0.031207,-0.09885,-0.16555
-0.14351,-0.02438,0.0098816,-0.10173,-0.058583,-0.0060137,0.061322,0.065343
0.11796,-0.0018659,0.003878,-0.10658,-0.020562,-0.012805,-0.012489,0.0011006
-0.058916,0.068413,0.03679,0.048779,0.032446,0.0029768,-0.008305,-0.10002
0.16477,0.038436,0.0070433,0.067073,0.069497,0.017928,0.018678,0.20719
