0.11681,0.046664,0.022377,0.017982,0.013143,0.015069,0.0078008,0.025388
-0.048712,-0.031398,-0.010373,0.0020669,0.0050434,0.0070271,-0.023704,-0.077841
-0.0269,-0.030504,-0.033132,0.026471,-0.010606,-0.01655,-0.0083784,0.22484
0.04829,-0.013032,0.079214,0.0052659,0.013294,-0.016549,-0.016515,-0.31009
0.035114,0.12256,0.091911,0.086597,0.037807,0.038291,0.05347,0.095842
-0.1063,-0.10046,-0.12086,-0.11289,-0.054261,-0.023946,-0.0093444,0.18896
0.12382,0.067529,-0.021155,0.01548,0.025996,0.023218,-0.017457,-0.26125
-0.14898,-0.061448,0.053904,-0.0055293,-0.0029447,-0.0078319,0.0056756,0.13236
0.045398,0.027674,-0.12329,-0.043655,-0.032054,-0.02346,-0.033736,-0.2889
-0.072264,-0.032821,0.087212,0.041434,0.039883,0.023128,0.059577,0.33342
0.14883,0.045727,0.021136,0.070061,0.025089,-0.00089686,-0.026921,-0.10935
-0.25002,0.020943,0.046023,-0.043389,-0.021894,0.006097,0.034887,0.064789
0.09214,-0.02896,0.029947,-0.024895,-0.030725,-0.018239,-0.020588,0.17971
0.17583,-0.033289,-0.088272,-0.029948,-0.016818,-0.026813,-0.091695,-0.72119
-0.12479,-0.046094,-0.22893,-0.042118,-0.034512,0.011864,0.063883,0.50714
0.30536,0.07406,0.17205,0.11119,0.080676,0.035499,0.016604,-0.076703
0.10379,0.007702,0.17062,0.04764,0.024447,0.005156,0.032222,0.17061
-0.62363,-0.033503,-0.1935,-0.1154,-0.023233,-0.0088502,-0.014185,-0.1482
0.14326,-0.01002,0.087387,0.02031,-0.015382,-0.022273,-0.028846,0.33347
-0.035468,0.13296,0.066965,0.024573,-0.0067603,0.0037046,0.01164,-0.30835
0.065536,-0.12042,-0.0221,0.0060262,-0.0054009,0.0062646,-0.025617,-0.069062
0.21204,0.041735,0.060247,0.041981,0.027448,0.01632,0.023341,0.22732
-0.047672,-0.061082,-0.11783,-0.047982,0.013333,0.017951,0.0021391,-0.42286
0.0075731,-0.0079518,-0.13621,-0.037795,-0.048021,-0.059354,-0.019058,0.18038
-0.072254,-0.057631,-0.011512,-0.052618,-0.016164,0.010898,0.0064474,0.042491
-0.10411,0.21876,0.2093,0.13433,0.046355,0.0022121,0.00031889,0.19332
-0.09262,0.13317,0.019317,-0.031109,-0.016641,0.016336,0.017009,-0.13325
0.074111,-0.41616,0.029657,-0.0090995,0.0059449,-0.0011581,0.0015988,0.18039
0.22568,0.10224,-0.16357,-0.11133,-0.018494,-0.010934,0.0086021,-0.30196
-0.0128,0.024921,0.098559,0.13163,0.050871,0.034122,0.053585,0.23423
-0.18947,-0.037836,-0.13453,-0.053245,-0.012363,-0.022081,-0.10553,-0.41151
0.30255,0.21969,0.021999,0.12307,-0.0049784,0.00020863,-0.0074808,0.45907
-0.25091,-0.17031,-0.11051,-0.16806,-0.075411,-0.055295,-0.0033577,-0.3152
0.11554,-0.089954,0.10045,0.033363,0.034056,0.061295,0.02461,0.17427
-0.13229,0.070467,0.21554,-0.016149,0.0029198,-0.0017394,0.022284,-0.20394
-0.10564,0.20938,-0.0028025,0.057006,0.034029,0.028896,0.029119,0.18306
0.11677,0.0062448,0.16788,0.21252,0.072385,0.02031,-0.032882,0.16212
0.082656,-0.15639,-0.37041,-0.26915,-0.069787,-0.082137,0.0079797,-0.11302
-0.080923,-0.036394,0.12106,0.11978,-0.0019997,-0.0048092,0.018441,0.15909
0.2227,-0.16475,-0.14085,-0.11978,-0.013217,-0.012997,-0.033383,-0.43114
-0.3391,0.21698,0.047275,-0.0094225,-0.017116,0.034329,0.031515,0.33232
0.15871,-0.054501,0.0395,0.0081362,-0.028666,0.0047238,-0.045253,-0.20044
0.10146,-0.06451,-0.1442,-0.0017053,0.015452,-5.0298e-05,0.025031,0.27545
-0.43136,0.046419,-0.053174,-0.05195,0.014489,0.019943,0.047022,-0.12885
0.29461,-0.011524,-0.0024645,0.015378,0.00028818,-0.021611,-0.1118,-0.5665
0.074662,0.13495,0.28542,0.11466,0.035544,0.038688,0.025685,0.33331
0.17929,0.15517,0.17185,0.064856,0.0027496,0.0046808,0.0070442,0.0035898
0.18273,0.069539,0.039128,0.17555,0.033883,0.016109,0.028269,0.32928
-0.59885,-0.58581,-0.43596,-0.22918,-0.036349,-0.084023,-0.0038913,0.11541
0.018358,0.25722,0.11695,-0.1069,-0.045293,-0.046186,0.074838,0.040107
0.14123,-0.066488,0.27835,0.11655,0.052606,0.02795,-0.063786,-0.29029
-0.12959,-0.017443,-0.29289,-0.11624,-0.024864,0.044901,0.0095232,-0.03574
0.24571,0.13275,-0.053934,-0.024918,-0.035915,0.020873,-0.026121,-0.05897
0.042826,-0.034789,-0.16327,0.14163,0.058789,0.042619,-0.0072566,-0.2059
-0.18023,0.12426,0.019476,-0.090204,-0.036697,-0.0060963,0.034379,0.54645
0.049086,-0.04243,0.37086,-0.0051648,-0.016232,-0.030516,-0.018673,-0.58187
-0.14834,3.9712e-05,-0.090532,0.034467,-0.010894,-0.09216,-0.033609,0.18522
0.13675,-0.096969,0.48282,-0.076015,0.043535,0.075452,0.099168,0.3041
0.062508,-0.30039,-0.72535,0.034191,-0.039056,-0.12082,-0.16685,-0.40194
-0.050241,0.15581,0.077849,0.093597,0.039007,0.077089,0.067179,-0.032516
0.086735,0.33296,-0.034087,0.04747,0.035585,0.098596,0.059339,0.5065
0.018381,-0.0060136,0.026933,0.05008,-0.01098,-0.025841,0.0050074,0.049814
0.078074,-0.060314,-0.089828,-0.050518,0.015136,-0.01625,-0.01008,0.16526
-0.35399,0.20464,0.66967,-0.078977,-0.036257,0.03985,0.0058362,-0.68914
0.2513,-0.41071,-0.42316,-0.039651,-0.0029211,-0.015398,0.044406,0.26536
-0.21674,-0.050209,0.0037118,-0.014258,-0.011412,-0.058306,-0.12142,-0.41785
-0.047496,0.04245,0.11889,0.057443,0.015373,0.0041388,0.039345,0.19123
0.29073,0.11775,-0.36166,-0.090829,-0.06352,-0.078051,-0.035734,0.14907
-0.13083,0.27182,0.76361,0.010567,0.056981,0.14122,0.13036,0.067816
-0.10028,-0.54621,-0.84123,-0.026905,-0.059642,-0.11007,-0.11785,0.036387
0.31263,0.13689,0.083302,0.057327,0.0489,0.037011,0.0096958,-0.13029
-0.27487,-0.065264,-0.50686,0.20361,0.040301,-0.064226,-0.040716,0.24095
0.13665,0.38959,0.75859,-0.13253,-0.037296,0.11103,0.067634,-0.11566
0.28845,0.1045,0.46025,0.058395,0.020109,0.047868,0.022624,-0.13911
-0.3829,-0.31952,-0.53374,-0.15255,-0.021492,-0.081889,-0.027449,-0.019463
0.090811,-0.072386,0.32249,-0.015419,0.033075,0.064698,0.041749,0.17772
-0.51681,0.076479,-0.32545,0.11753,0.011385,-0.013714,0.033821,0.066617
0.53739,0.107,-0.19261,0.073361,-0.0092168,-0.029628,-0.083774,-0.23794
-0.10432,0.077445,0.50559,-0.13344,-0.02954,0.01553,0.093988,0.051843
0.38041,-0.030968,-0.23476,-0.058566,-0.034606,-0.058908,-0.13692,-0.087434
-0.38144,-0.26661,-0.18183,0.10196,0.014289,-0.073599,-0.03471,0.080005
-0.28671,-0.089941,-0.00037053,-0.13661,-0.0078916,0.049896,0.064864,0.17387
0.37642,0.12643,-0.0016057,0.13191,0.00065246,0.023362,-0.0093853,-0.15415
0.029833,0.034717,-0.15918,0.01704,0.032499,0.082311,0.071701,0.083786
0.047665,0.24876,0.76528,0.018972,0.025546,-0.014297,-0.0032263,-0.24201
0.14706,-0.10999,-0.23955,-0.065249,-0.027744,7.8501e-05,0.0090641,0.23791
-0.62716,-0.24923,-0.49787,-0.032417,0.013328,-0.045929,-0.070356,-0.18645
0.13694,0.15304,0.25885,0.078397,0.015806,0.0039752,0.024498,0.16397
0.57032,0.041927,-0.35856,-0.0063033,-0.036248,-0.053735,-0.073647,-0.0099772
-0.42202,0.040452,0.33719,-0.04438,-0.01042,0.061447,0.080012,0.084885
0.15942,0.22333,0.37552,0.034499,0.030414,0.067322,0.07056,-0.024825
0.088424,-0.18704,-0.090437,-0.027358,-0.023387,-0.052718,-0.024933,0.031
-0.5792,-0.3042,-0.22851,-0.010978,0.023388,0.0051607,-0.035671,-0.31451
0.28319,0.15752,-0.050106,-0.0098384,-0.040121,-0.11118,-0.079754,-0.01758
-0.041306,0.078852,0.16092,0.0075501,0.012872,0.098026,0.10006,0.61583
0.37865,-0.18914,-0.41675,-0.029019,-0.020461,-0.046731,-0.07449,-0.51495
0.052037,0.1046,0.092649,0.091283,0.03205,0.04879,0.029741,0.13994
-0.2081,0.18109,-0.12104,0.055609,0.014369,-0.044358,-0.03183,-0.14905
0.074792,-0.11283,0.42206,-0.12878,0.012531,0.088756,0.069918,-0.086857
-0.31063,0.023043,0.17076,0.037493,0.018708,-0.011917,0.00796,0.31723
0.017851,0.029338,-0.16885,0.053864,-0.021859,-0.040865,-0.021356,-0.024813
-0.29209,-0.14612,-0.12613,-0.11905,-0.031097,-0.020837,-0.017205,-0.09316
0.72736,0.021713,-0.15363,0.096921,-0.016776,-0.03727,-0.049388,-0.12802
-0.22189,-0.0057085,0.083861,-0.094677,-0.025603,-0.0039742,0.030669,0.0027654
-0.094547,0.09912,0.29552,0.056933,0.059885,0.094629,0.082084,0.24125
0.59197,0.068908,-0.18517,-0.025392,-0.017817,0.00816,-0.044192,0.0038501
-0.83597,0.034002,-0.064026,0.02652,-0.00065836,-0.053154,-0.020921,0.27596
0.13591,-0.22724,-0.062332,-0.0053052,0.0098651,0.019087,-0.021017,-0.53538
0.33511,0.040144,-0.049252,-0.0033027,0.0057681,-0.018436,0.040411,0.32945
-0.56618,0.021269,0.21623,0.048015,0.041316,0.044085,0.01402,-0.21162
0.44104,0.13649,0.1792,-0.055143,-0.048168,-0.052125,-0.061766,-0.29257
-0.055387,-0.052119,-0.16744,-0.024817,-0.0055731,0.0047769,0.054959,0.33833
-0.02197,-0.082925,-0.25185,0.11421,0.020023,0.011427,-0.018504,-0.24446
0.41074,-0.07141,0.084275,0.040312,0.004739,0.014909,-0.0082244,0.17566
-0.53655,0.062922,-0.070967,-0.13816,-0.035937,-0.054458,-0.030599,-0.035932
-0.25304,-0.013289,0.15137,0.00802,0.015397,0.054281,0.055966,0.37592
0.46513,-0.11029,-0.22445,-0.067809,-0.03603,-0.048372,-0.075667,-0.30405
0.10227,0.23432,0.36366,0.057124,0.021494,0.029337,0.051914,0.11302
-0.41271,0.11464,0.10927,0.017041,0.016943,0.0071135,0.048663,0.14991
0.6297,-0.20446,-0.12315,-0.037988,-0.0020467,0.018415,-0.014877,-0.28154
-0.43633,0.080019,0.04619,0.034186,-0.01152,-0.045881,-0.045085,-0.09063
-0.034418,0.083149,-0.1742,0.047155,0.035569,0.05626,0.027921,0.13358
0.1934,-0.15799,0.027131,0.032622,0.0062129,-0.011593,-0.0074209,-0.072475
-0.30054,-0.043146,-0.24732,-0.064363,0.0014631,0.0076491,0.027883,0.24258
0.18683,0.075796,0.31791,0.044376,-0.018443,-0.027441,-0.06212,-0.42999
-0.36735,-0.30823,-0.46015,-0.064335,-0.038614,-0.094165,-0.051369,0.01893
0.63948,0.15792,0.18147,0.045574,0.034095,0.11942,0.091068,0.13618
-0.25242,0.15587,0.18492,-0.01779,-0.011616,0.0036249,0.0056874,0.21069
0.2159,0.14054,0.0062627,-0.028744,-0.011747,-0.019718,0.020648,0.17945
-0.29833,-0.16817,0.2788,-0.057965,-0.0051437,-0.020736,-0.0045098,0.010458
0.010368,0.081617,-0.046574,0.035324,0.0086164,-0.0068853,-0.061707,-0.34384
-0.0058362,-0.001245,-0.31811,0.064191,-0.0090253,-0.024608,0.0056466,0.038298
0.059697,-0.074097,0.23181,-0.048687,0.02833,0.035889,0.01043,-0.22504
-0.082004,0.11178,0.026977,0.088166,0.035063,0.049921,0.023335,0.18074
0.068699,-0.21812,-0.3982,-0.032326,-0.027766,-0.037038,-0.00218,0.1104
-0.12978,-0.0097151,0.20386,-0.0033873,0.027278,0.032819,-0.0033795,-0.31517
0.039697,-0.044321,-0.088467,-0.027867,-0.057818,-0.053144,-0.027031,0.28254
0.1843,0.14718,-0.022303,-0.027595,0.0057572,0.0095567,0.028388,-0.16432
0.3641,0.034078,0.047744,-0.033973,-0.024413,0.0097808,0.0064466,0.20435
-0.42313,0.03083,0.0022787,0.069886,0.015575,-0.060431,-0.030645,0.035667
-0.053701,-0.034367,-0.067551,0.017942,0.031902,0.056669,0.033948,-0.0017881
0.04276,0.04129,0.31072,-0.018412,0.0011324,0.01735,0.0045649,0.017014
-0.061673,0.069698,-0.087982,0.02283,0.0014413,-0.014247,-0.0096964,0.20417
-0.184,-0.098236,0.21975,-0.0072046,-0.0061655,0.0088646,-0.0089882,-0.36663
-0.077776,-0.072336,-0.15983,-0.054129,-0.029432,-0.014755,-0.040182,-0.20599
0.28476,-0.13391,-0.19997,0.022581,0.017635,0.00094378,0.029687,0.10746
-0.16343,0.068952,-0.038446,0.05899,0.025699,-0.0064467,-0.0022498,0.020858
0.55562,0.13066,-0.062545,-0.10081,-0.036471,-0.013432,-0.0028879,0.045775
-0.24652,-0.096526,0.091614,0.02025,0.010806,0.019063,0.020208,0.15578
0.044177,0.16127,0.078519,0.016469,-0.012192,-0.0027542,0.004682,-0.14431
0.09493,0.013455,0.093307,0.08366,0.042911,0.046015,0.059921,0.04774
-0.35716,-0.16547,-0.10502,-0.12159,-0.034909,-0.053528,-0.11106,0.0074264
-0.0039443,0.053325,0.0013455,0.033631,-0.0035666,0.0031289,0.022813,0.055023
-0.051208,0.12197,-0.022388,0.041372,0.01184,-0.0029413,0.039453,0.36041
0.024027,-0.12442,-0.048425,0.0028524,0.011235,0.021864,-0.03005,-0.47046
0.14535,0.08727,0.15227,0.04263,0.0024084,-0.0084879,0.0017146,0.11308
-0.15264,-0.18009,-0.20748,-0.027202,-0.0067823,-0.015905,-0.03713,-0.22863
0.17329,0.012068,0.19371,-0.074079,-0.0083954,0.023087,0.064431,0.025112
-0.11506,-0.053355,0.13747,-0.051129,-0.033477,-0.016414,0.0018404,0.33402
0.086832,0.22708,-0.22021,0.049701,0.0276,0.014177,-0.0060011,-0.32505
0.28036,-0.05116,-0.012717,-0.013363,-0.0046029,-0.009962,-0.013638,0.15108
-0.59737,0.019306,0.1031,0.11949,0.034172,0.012915,-0.028778,-0.078981
0.65486,-0.11594,-0.22476,-0.090464,-0.035672,-0.026405,-0.020124,-0.090816
-0.25489,0.011127,0.19891,0.044356,0.020198,0.020634,0.059159,0.29732
-0.15001,0.062929,-0.25857,0.047219,0.021928,-0.017801,-0.0020027,0.086592
0.0060448,0.052793,0.19209,-0.0979,-0.022931,0.022304,0.030537,-0.32454
0.086903,0.04068,0.18384,0.022531,-0.013116,-0.015448,-0.062269,0.0082329
-0.25897,0.22743,-0.033456,0.040793,0.0042158,0.0093252,0.031768,0.21599
0.15727,-0.6463,-0.19464,-0.11385,-0.018025,-0.0052446,-0.0079297,0.093637
0.025322,0.19243,0.058891,0.058375,0.0059757,0.0030176,-0.040894,-0.38389
0.12889,0.017781,-0.070626,0.041792,0.021502,0.033828,0.050057,0.14976
-0.42846,0.042427,0.14251,-0.022838,0.0051615,-0.022368,0.0072716,0.18704
0.55747,0.26875,0.1039,-0.018089,-0.019511,-0.032779,-0.02831,-0.39561
0.23499,-0.19913,-0.2649,0.025064,0.010107,0.010572,-0.0015693,0.15418
-0.7643,-0.14026,-0.15918,0.013125,0.023832,-0.0091586,0.0020411,0.011141
0.58113,0.16563,0.28859,-0.038086,-0.040707,0.0022499,-0.024823,-0.15794
-0.3011,-0.0074402,0.071081,0.012188,0.0041206,0.029693,0.058841,0.46148
-0.13133,-0.019214,-0.053418,0.023412,0.010001,-0.0044783,-0.020176,0.018753
0.26933,0.16035,-0.076721,0.011292,0.00049119,0.001643,0.019423,-0.24428
-0.4114,-0.32206,-0.11582,-0.031866,-0.00086652,-0.029916,-0.041252,-0.14943
0.23377,0.16443,0.2903,-0.027749,0.006009,0.033591,0.024066,0.12913
0.21413,0.14935,-0.12395,0.055154,-0.010084,-0.019046,-0.019403,0.0028551
-0.28133,-0.26697,0.055679,-0.079723,-0.0022626,-0.00075514,-0.0080537,-0.015107
0.35001,0.063408,-0.0063383,0.036672,0.013816,0.048894,0.042042,0.12019
-0.086799,0.046971,-0.23894,0.029551,0.0068322,-0.034657,-0.025756,-0.13928
-0.27183,-0.041957,0.022935,0.00053299,-0.015501,-0.033051,-0.024231,-0.035946
0.23927,0.02447,0.19442,-0.011462,-0.014236,0.014429,0.046472,0.040099
-0.17201,0.0054318,-0.11428,-0.0067739,-0.0051183,-0.0094115,0.0066815,0.11343
-0.085072,-0.0041915,-0.0044685,0.053177,0.04299,0.036252,-0.018413,-0.23645
0.45225,0.089989,0.27333,-0.0040161,-0.0028153,0.0033498,-0.005024,0.17144
-0.51354,-0.094835,-0.29795,-0.077263,-0.025404,-0.045155,-0.046431,0.025425
0.46323,-0.043664,0.08419,0.012804,0.014274,0.039651,0.029769,-0.13525
-0.14758,0.14083,0.034331,0.0082604,-0.016556,-0.03871,-0.0024907,0.21235
-0.26608,-0.034899,0.11245,-0.028305,-0.0084346,0.016882,0.02903,0.012439
0.00046105,-0.0017769,0.0041841,0.028336,0.0075018,0.0033424,-0.00051239,-0.087865
0.075941,-0.073148,-0.23649,0.030021,0.007932,0.014234,-0.020897,-0.19132
0.094585,0.19612,0.12557,0.047288,0.024194,0.025736,0.037859,0.18581
0.24423,-0.38088,-0.25891,-0.10726,-0.021802,-0.017353,0.0033766,0.043696
-0.55425,0.12682,0.12136,0.050682,0.0027289,-0.021829,-0.046796,-0.25714
0.37648,0.033417,0.020399,-0.010317,-0.011679,-0.011598,0.019621,0.42592
0.24401,0.059394,0.1217,-0.0092971,0.012966,0.01304,-0.0087003,-0.49835
-0.033444,0.081097,0.084244,0.045634,-0.0094329,-0.0026827,-0.022572,0.1992
-0.12313,-0.11181,-0.1456,-0.033243,-0.0087194,-0.019558,-0.014161,-0.22153
-0.37855,0.12882,0.07966,0.027441,0.014975,0.02524,0.040162,0.42027
-0.27639,-0.14352,-0.094416,-0.061239,0.0068817,-0.0084845,0.023493,0.085262
0.46633,0.061554,0.054358,-0.0020506,0.0060482,0.012521,-0.0091868,-0.0094728
0.16539,0.03102,0.091144,0.025854,-0.003079,0.0026854,-0.018579,-0.38243
-0.10477,0.02081,-0.028165,0.046546,-0.012525,0.009115,0.026708,0.1503
0.10525,-0.040681,0.012715,-0.025291,-0.0064224,0.0006328,-0.029536,-0.16497
-0.25588,-0.17729,-0.26503,-0.056361,-0.031353,-0.069713,-0.038906,0.074847
0.20446,0.11936,0.091721,0.039509,0.037971,0.079139,0.092274,0.46915
-0.17738,-0.055524,0.16344,-0.0033909,0.0064587,-0.013994,-0.050119,-0.50627
0.21469,0.065692,-0.068962,-0.005813,-0.0086149,0.0022094,0.0026499,0.23529
-0.043565,0.086732,-0.16229,0.078361,0.016107,-0.013062,0.031897,-0.15547
0.24794,-0.10771,-0.12612,-0.072157,-0.0055705,-0.020842,-0.055979,-0.089146
-0.48428,0.061755,0.40437,0.0025283,-0.0037289,-0.013312,-0.010761,0.032164
0.053916,0.040874,-0.15288,0.074935,0.013357,0.033048,0.042791,0.22044
-0.23318,-0.0066989,0.19602,-0.066492,-0.017251,0.0011671,-0.0045042,-0.11462
0.34871,-0.1602,-0.04961,-0.054752,-0.0099353,0.00052591,-0.019745,-0.15068
0.088485,0.16474,-0.080092,0.032333,0.011737,0.0077377,0.020436,0.049959
-0.052394,-0.033581,0.053341,-0.038867,-0.0068228,-0.00065324,-0.001389,0.18865
0.27872,-0.069186,-0.22467,0.037387,-0.018417,-0.016909,0.00034113,0.10567
-0.32286,0.095864,0.10442,0.074771,0.03995,0.044812,0.079876,0.32776
0.012086,-0.11713,-0.010226,-0.058436,-0.018628,-0.034304,-0.060053,-0.52475
0.03604,-0.0050472,-0.0478,-0.0020096,-0.013879,-0.035504,-0.060307,-0.22913
-0.3342,0.034128,0.11562,0.057061,0.015616,0.025686,0.00097715,-0.20169
0.17747,0.1027,-0.011785,-0.021703,-0.00016574,0.0010135,0.0068505,0.33857
0.088719,-0.11105,-0.14731,-0.050969,0.0013292,-0.023353,0.0046186,0.25273
-0.13865,0.002939,0.23465,-0.015518,0.012089,0.046561,0.041673,-0.010713
0.26806,0.10131,-0.12136,0.060663,0.016075,-2.4191e-05,0.0012952,-0.0023743
0.032878,-0.003313,-0.010055,-0.041785,-0.034149,-0.014618,-0.014644,-0.2571
0.065864,-0.021981,-0.031349,-0.0031704,-0.01419,-0.0051008,0.0095519,0.041364
0.049688,-0.040839,0.011034,0.027478,0.020707,0.0049147,-0.0044101,-0.033926
-0.27814,-0.013169,0.28144,-0.0050763,0.0076226,0.0073743,0.0056078,0.057513
-0.16334,-0.048347,-0.18913,0.031492,0.0010221,-0.0057945,0.0078954,0.32343
0.27533,-0.021176,-0.26058,-0.035097,-0.022536,-0.011383,-0.037058,-0.26891
-0.21922,0.099949,0.33221,-0.0020132,-0.0081652,-0.0095533,-0.0045838,-0.0033349
-0.081608,0.13575,-0.028191,0.013405,0.013237,0.015244,0.011419,-0.03152
0.051906,-0.2494,-0.23223,-0.0044534,0.026479,0.01614,0.057884,0.27602
0.20961,0.038418,0.087855,-0.031967,-0.030511,-0.030241,-0.091512,-0.49768
-0.10424,0.077217,-0.074891,0.040578,0.014494,0.0090041,0.016707,0.22338
0.18341,0.007287,0.13195,-0.051985,-0.010167,0.008961,0.0079093,-0.015051
0.18267,0.10938,0.029284,0.042431,0.012753,-0.00688,0.015195,-0.080348
-0.37344,-0.054564,0.12503,0.050927,0.020662,0.039618,0.054324,0.35624
0.051222,-0.20373,-0.12035,-0.065047,-0.033515,-0.054695,-0.038818,-0.29006
0.031,-0.018033,-0.028157,-0.00035028,0.021847,0.038266,0.001175,0.099383
0.085678,0.13538,-0.19347,0.011028,-0.024421,-0.040903,-0.02914,0.065155
-0.20148,0.030247,0.21042,0.0084574,0.0072115,0.028118,0.018346,-0.28977
0.18405,0.12798,0.11974,0.031227,-0.00049409,0.0031991,0.0027624,0.19207
0.032116,-0.19586,-0.26328,-0.076785,-0.0084165,-0.01399,-0.0056783,0.081874
-0.42051,0.043686,0.12348,-0.0030769,-0.00079098,-0.023306,-0.038153,-0.20573
-0.021877,-0.035667,-0.032281,0.041261,0.014741,0.030087,0.046192,0.32162
0.25515,0.0040297,0.028008,-0.030051,-0.0085471,0.0056913,-0.017941,-0.29718
0.17918,0.045902,0.055601,0.063699,0.015356,0.0051452,0.0198,0.046806
0.032929,0.066654,0.01301,0.0014873,-0.0073214,-0.010602,-0.027791,-0.24862
-0.066836,-0.05098,-0.066838,-0.014366,0.017053,-0.0025376,0.034776,0.72208
0.33861,-0.11201,-0.1668,0.0075353,0.0023617,0.0058056,0.0043961,-0.44795
-0.51978,-0.062341,-0.12955,-0.066266,-0.028152,-0.016939,-0.017495,0.11588
0.065174,0.14406,0.31872,0.0060265,-0.0043332,0.0072418,-0.02333,-0.21143
-0.13627,0.16237,0.32598,0.044654,-0.0043864,0.02357,0.049083,0.070526
0.40525,-0.039804,-0.30437,-0.0048219,0.0029484,-0.0227,-0.034941,0.048447
-0.48238,-0.1667,-0.035117,-0.040331,0.0099471,-0.01441,-0.017852,-0.12832
-0.0087459,0.01523,0.053589,0.024725,0.0089324,0.017178,0.029861,0.087817
0.45364,-0.025665,-0.15714,-0.035536,-0.0077642,-0.013884,-0.032512,-0.060721
-0.19385,0.031081,-0.051119,0.052908,0.014666,0.0017509,0.013784,0.13647
-0.30009,0.029912,0.26217,0.056086,0.0059945,0.048408,0.043819,0.20151
0.60547,-0.028053,-0.31028,-0.017999,-0.018111,-0.014602,-0.0047848,0.054337
-0.14062,0.038243,0.22509,-0.075584,-0.010758,-0.015457,-0.030305,-0.57284
-0.24205,0.003634,-0.091104,0.0082323,-0.0031964,-0.008856,0.029947,0.34155
0.19037,-0.01346,0.015914,-0.0088644,-0.0032422,-0.025989,-0.073817,-0.18797
-0.1732,-0.035568,0.093788,0.029293,0.012529,0.019224,0.017991,0.11202
0.13452,0.078429,0.056592,0.03676,0.028467,0.0019882,0.0086796,0.0082891
0.14409,-0.054227,-0.10421,-0.056702,-0.017973,0.016292,0.046801,0.15142
-0.49574,0.019234,0.094526,0.014646,-0.0018532,0.0076672,0.0073777,-0.23704
0.099092,-0.022181,0.018581,-0.038151,-0.0091859,-0.0080997,-0.015921,-0.044788
0.14911,-0.023124,-0.38011,0.050566,-0.0087939,-0.023128,-0.015435,-0.050509
-0.21117,0.015408,0.20246,-0.023977,-0.00074117,0.0016076,-0.030411,0.25531
0.2223,0.014317,-0.014996,0.05048,0.014924,0.026905,0.040551,0.17007
0.27732,0.027471,0.17905,-0.0076854,0.014736,-0.0099566,-0.029213,-0.20533
0.0693,-0.00037459,-0.081499,-0.019239,-0.0091266,0.0079385,0.025898,0.1352
-0.2563,0.086834,-0.029701,-0.00025029,-0.001954,-0.013439,-0.020633,-0.31061
0.10946,-0.093498,0.07018,0.0020591,-0.0027518,0.011605,0.010967,0.15803
-0.57115,-0.12669,-0.1635,-0.059358,-0.019235,-0.03429,-0.012026,-0.070165
0.16818,-0.043096,0.098228,0.018655,0.011233,0.020677,0.012007,-0.019788
0.31086,0.11922,-0.034903,0.048813,0.010684,0.01247,0.020563,0.09794
-0.0018322,0.11889,-0.047391,0.0080157,0.0027151,-0.011916,-0.0098596,-0.091514
-0.11926,-0.0046205,0.12267,-0.025242,-0.012545,0.018023,0.0065682,0.19404
0.14947,-0.11083,0.13841,-0.04283,-0.0037729,-0.014669,-0.024025,-0.21622
-0.27746,-0.028582,-0.11062,0.0023196,0.0055911,-0.015998,-0.015797,-0.048072
0.30741,0.10034,-0.09409,0.047748,0.0076476,0.014256,0.015584,0.065949
-0.11536,0.024603,0.085847,0.062108,0.017857,0.0059491,0.015458,0.20358
-0.28481,0.00086972,-0.33656,-0.0094542,-0.026501,-0.0095709,-0.00045501,0.059173
0.30874,0.03628,0.24837,-0.010824,-0.00067082,0.030207,-0.0085747,-0.056003
-0.1469,-0.20504,-0.033882,-0.098247,-0.0064432,-0.046665,-0.00092063,-0.11179
0.21407,-0.04252,0.04366,-0.044953,0.010692,0.025294,0.02267,-0.085243
-0.040964,0.10353,0.16852,0.047901,0.011576,0.011518,-0.047048,0.024021
0.021413,-0.014969,-0.034846,0.040198,0.011827,-0.010078,0.016551,-0.18111
-0.017529,0.033539,-0.22373,0.049594,-0.027525,-0.0084436,0.018133,0.12166
-0.20921,0.078498,0.13952,-0.033024,-0.02819,-0.014996,-0.018986,-0.026449
0.028537,-0.020266,0.045737,0.0032198,0.025665,0.001394,0.014353,0.10284
