-0.0034453,-0.019929,0.10629,0.033043,-0.021711,0.0080149,0.067093,-0.018993
-0.0037465,-0.010651,-0.039005,-0.020903,0.00082201,-0.024285,-0.11278,-0.015936
-0.0036871,-0.029346,-0.19705,-0.043885,0.0074579,0.013754,0.065793,0.010627
0.027986,0.049014,0.11047,0.081173,0.021789,0.012712,0.03262,0.036964
-0.010329,-0.0028992,-0.2706,-0.0052313,0.012722,0.011618,-0.0010141,0.00030323
-0.040568,-0.061685,0.1852,-0.12348,-0.043033,-0.044221,0.035681,-0.02925
0.0075096,0.096918,0.19832,0.10146,-0.0047217,-0.021957,-0.30996,-0.028366
0.040081,0.063964,0.37919,0.0057387,0.010571,0.10192,0.44676,0.026392
-0.036685,-0.030357,-0.77968,-0.12906,-0.012717,-0.10219,-0.31912,-0.036747
0.0193,-0.031804,0.096321,0.11151,0.026982,0.053317,0.25937,0.055826
-0.010843,0.004074,-0.056243,-0.076876,0.0046037,0.037259,0.09587,-0.00038229
-0.010093,-0.039237,0.15194,0.048167,-0.0096751,-0.095632,-0.32572,-0.017692
0.083858,-0.096904,0.64912,0.11161,0.015206,0.060897,0.025545,0.01966
-0.10418,0.069242,-0.35501,-0.089947,-0.022528,-0.0088195,0.21996,0.010201
0.050621,-0.082957,-0.39249,0.044624,-0.0058864,-0.023607,-0.39839,-0.046019
-0.0065008,-0.18927,-0.0024646,0.0070307,0.018117,0.047683,0.24922,-0.00053521
-0.064595,0.36379,-0.082648,-0.16404,-0.028699,-0.021618,0.0072085,-0.025215
0.10304,0.16472,0.040162,0.062522,0.033389,-0.020673,-0.045828,0.051804
-0.011129,-0.18443,0.62537,0.046208,-0.0064374,0.027014,0.21521,0.019545
-0.09424,-0.1697,-0.41937,-0.02512,-0.015185,-0.027015,-0.12413,-0.020498
0.088529,0.37728,0.078647,0.020899,-0.000462,0.020394,-0.072486,0.017525
-0.024856,-0.21217,0.064769,0.028492,0.022298,-0.01037,-0.0059432,-0.022716
-0.03553,-0.044463,-0.32899,-0.017626,-0.017078,-0.0020122,-0.066223,-0.024074
0.033393,0.13408,-0.025991,-0.07047,-0.016963,0.029963,0.30834,-0.0021483
0.0023975,-0.069919,0.44055,0.10419,0.030431,-0.039337,-0.19511,0.011909
0.027709,-0.50118,-0.056456,-0.0018321,0.015619,0.032344,0.025242,0.057325
-0.054959,0.24727,-0.24545,-0.021866,-0.0068788,0.0028288,-0.17038,-0.0532
0.0039938,0.099243,0.22381,-0.034582,-0.029436,-0.096696,-0.16352,-0.014773
0.055606,0.15096,-0.23505,-0.040439,-0.0053404,0.069555,0.29725,0.024347
-0.017875,0.13909,0.10508,0.069654,0.010613,0.07947,0.36157,0.025215
-0.03728,0.010604,-0.12143,-0.03249,0.010583,-0.075062,-0.44643,-0.019945
0.043885,-0.061786,-0.029489,-0.010785,0.010239,0.058761,0.11542,-0.0096306
-0.071426,-0.26538,0.24289,0.088212,-0.013757,-0.12872,-0.18015,-0.029949
0.0153,0.27472,0.057569,-0.047582,-0.030028,0.049801,-0.014079,-0.010862
0.077829,-0.16805,-0.27107,-0.050543,0.024039,0.016162,0.41682,0.055072
0.046393,0.062779,0.07043,0.025026,0.0078883,0.020497,-0.16222,0.034612
-0.17207,-0.71993,-0.019629,-0.015916,0.015278,0.078753,0.04496,-0.0023581
0.0794,0.3746,0.12944,0.037681,-0.0085386,-0.074193,-0.031735,-0.032745
-0.034492,0.41614,0.28125,0.037328,-0.0011614,-0.05489,-0.1722,-0.017654
0.0022557,0.19222,-0.59004,-0.048423,-0.0017618,0.0045525,0.039979,-0.0038794
-0.0056713,-0.010674,0.13821,0.0067154,-0.018226,-0.043648,-0.53299,-0.053575
0.027186,0.054411,0.35485,0.0071586,-0.0036815,0.035339,0.19735,0.029148
0.11549,-0.037075,-0.2378,-0.016022,0.010701,0.077565,0.50574,0.073113
-0.093655,-0.60673,-0.076916,0.015274,0.025079,-0.050102,-0.06159,-0.014734
0.10137,-0.16929,-0.012646,-0.039425,-0.030655,0.10472,0.4691,0.02397
-0.18364,0.28627,-0.011522,0.031109,-0.0078491,-0.0059151,-0.21929,-0.076099
0.026913,-0.078707,-0.10228,-0.054025,0.031168,-0.05501,-0.5227,-0.064961
0.092058,0.21038,0.15476,0.033584,0.0005485,-0.020098,0.60886,0.12734
-0.12062,0.34632,0.19846,-0.034082,-0.05285,-0.097056,-0.67889,-0.031103
0.10092,-0.20652,-0.057015,0.13345,0.07396,0.050011,0.16881,0.11508
-0.054219,-0.12711,0.13718,0.027932,-0.033327,-0.078438,-0.52473,-0.15381
-0.013861,-0.05052,-0.143,-0.077848,0.007785,0.080893,0.40194,0.028521
-0.0028137,0.073096,-0.42375,-0.12214,0.0016438,0.13046,0.08773,-0.026064
0.07402,0.073158,0.21407,-0.0040949,-0.036437,-0.030533,0.49904,0.041521
-0.0092207,0.22403,0.11194,0.080456,0.0026832,-0.065706,-0.2513,-0.010783
-0.018216,0.12146,0.11222,0.053138,0.017325,0.025033,0.13427,-0.01057
0.077522,-0.48802,0.042689,0.078097,0.046572,-0.078844,-0.10421,0.01958
-0.098288,-0.30003,-0.17402,-0.11766,-0.026592,0.067591,-0.33037,-0.036459
0.007535,-0.038138,0.0028991,-0.033323,-0.022158,0.049892,0.23177,0.072433
0.0029729,0.52205,-0.18186,-0.0037395,-0.0021746,-0.046232,-0.047697,-0.058961
0.14487,-0.62032,0.15737,0.02707,0.033901,-0.041057,0.070033,0.038922
-0.21555,0.52574,-0.046986,-0.017726,-0.038364,0.026674,0.044901,-0.063105
0.015845,0.23836,0.23062,0.050449,-0.0075383,-0.12375,-0.37139,0.088215
-0.011503,0.034799,-0.094613,-0.10372,-0.02956,0.062948,-0.26844,-0.085498
0.047532,0.20243,-0.06182,0.1057,0.036225,0.087238,0.7893,0.055772
0.014684,-0.65399,-0.0081284,-0.079825,0.017614,-0.0038535,-0.20732,-0.02793
0.016047,-0.2752,0.19723,0.1508,0.054554,0.015986,-0.21334,-0.0017444
0.02867,0.80078,-0.2607,0.0066592,-0.0023402,0.091444,0.29115,0.094137
-0.03365,-0.13487,0.26414,-0.037694,-0.029117,-0.12208,0.394,-0.10852
0.093726,-0.42948,-0.3082,-0.11683,-0.034517,-0.10981,-1.0696,-0.032397
-0.020381,-0.01362,0.03691,-0.013133,-0.0034994,0.25263,0.92839,0.12669
-0.10421,-0.02613,-0.028723,0.11687,0.024792,-0.30061,-0.84425,-0.10791
0.012613,0.0369,-0.059019,-0.16364,-0.066343,0.082223,0.3163,0.029754
0.0087647,0.1884,0.35361,0.092164,0.0053333,-0.020204,0.36291,0.055982
-0.10048,0.29309,-0.03923,0.0035181,0.038009,0.0099702,-0.32969,-0.1142
0.19304,-0.22247,0.2328,0.10387,0.06432,0.22804,0.50473,0.16874
-0.21134,0.33287,-0.53202,-0.050178,-0.047368,0.13437,-0.092293,-0.14881
0.093856,-0.069667,-0.082635,-0.25424,-0.093196,-0.48971,-0.51402,-0.042486
0.10208,-0.67857,-0.074709,0.23422,0.12227,0.14464,-0.14262,0.11326
0.095653,-0.055491,0.47612,0.070799,-0.0030571,0.14645,0.33842,-0.017378
-0.25287,0.36236,-0.10277,-0.058571,-0.040599,-0.24251,-0.33739,0.057404
0.056784,0.0043415,-0.094044,0.10957,0.094097,0.35241,0.80761,-0.022607
0.0088308,0.33023,0.42222,-0.091193,-0.069307,-0.26433,-0.46694,-0.10234
0.040325,-0.38881,-0.32944,-0.076928,-0.016567,-0.030363,-0.10518,0.051254
0.088155,-0.054685,0.18845,0.10424,0.056096,0.030863,-0.34219,0.11661
-0.17643,0.23433,-0.59511,-0.25887,-0.19533,0.17722,0.59198,-0.16506
0.10546,0.2778,0.17974,-0.001359,0.065506,-0.067767,0.12023,0.080776
-0.089897,-0.29647,-0.11824,0.10494,0.050506,0.01481,-0.11115,-0.03645
0.089078,0.2105,0.22413,0.17925,0.073468,-0.098276,0.21337,-0.031713
-0.052687,-0.48507,0.34981,0.082929,0.018562,-0.086398,-0.85001,0.010178
0.00082448,-0.24303,0.0028573,-0.080921,-0.019294,0.28524,0.96549,0.13754
-0.031228,0.33668,-0.23767,-0.20204,-0.093988,-0.15472,-0.72099,-0.11684
0.0077002,0.2027,-0.18438,-0.077167,-0.080181,-0.17141,0.34417,-0.079697
0.10206,0.30468,0.18514,0.34009,0.19388,0.17304,-0.52094,0.12503
0.087596,-0.48564,-0.31838,-0.17782,0.016738,-0.019668,0.089553,0.0057211
-0.22359,-0.20332,0.27167,0.070991,-0.057706,0.0080564,0.21562,-0.062645
0.043002,0.38112,0.13276,-0.094425,-0.061597,0.13844,0.50719,0.044377
0.058777,0.34741,-0.026132,0.17641,0.074537,-0.066886,0.10639,0.091424
-0.0046542,-0.51517,-0.018879,-0.36726,-0.18902,-0.1636,-0.42319,-0.18056
-0.022261,0.11278,-0.041287,0.15704,0.10829,0.12085,-0.2449,0.12562
-0.056186,-0.17669,-0.26464,0.1556,0.1148,-0.034391,-0.1786,-0.045821
0.11296,0.044032,0.30495,-0.035306,-0.0052912,0.097188,0.47149,-0.14091
-0.10776,0.34312,-0.18924,0.084911,-0.017256,-0.10893,-0.17686,0.18379
0.048038,-0.27351,0.099756,-0.2018,-0.10028,-0.13618,-0.09172,-0.032562
-0.036255,-0.2058,-0.012364,0.035009,-0.019406,0.19634,0.5557,-0.016119
0.022333,0.29527,0.0082697,-0.063291,-0.00056179,-0.1258,-0.70287,-0.016289
0.012512,0.10428,-0.24311,0.14458,0.1365,0.14048,0.42958,0.0066138
0.034973,0.073064,0.62413,-0.0049862,-0.045285,-0.059195,-0.31281,-0.025018
0.049376,-0.18804,-0.36821,-0.089902,-0.0066351,0.17329,0.14743,0.061001
0.01521,-0.19301,-0.074705,0.077227,-0.013173,-0.24115,0.18435,0.03817
-0.11571,0.052559,0.070939,-0.043059,-0.049479,0.039846,-0.2187,-0.10932
-0.0083022,-0.10505,-0.03717,0.079865,0.095025,0.092866,0.3124,0.06349
0.032577,0.20375,0.27671,-0.023497,-0.04104,0.049403,-0.16021,0.017111
-0.078404,0.16051,-0.31059,-0.10389,-0.01282,-0.11481,-0.29244,-0.061344
0.003803,0.086428,0.1137,0.041187,-0.031677,-0.095214,0.041891,-0.00025445
0.09344,-0.34687,-0.051388,-0.080891,-0.019841,0.10877,0.34466,0.020622
-0.042027,0.007678,-0.11602,0.21717,0.13178,-0.1267,-0.46781,-0.014219
0.028666,-0.00064228,-0.021818,-0.11153,-0.084854,0.059235,0.10664,0.028309
-0.01378,-0.022999,-0.092553,-0.012112,0.017606,0.08985,0.28835,-0.031114
0.080912,0.62543,0.16813,-0.0077446,-0.02188,-0.0025753,0.077984,0.018838
-0.054908,-0.37774,0.49782,-0.027751,0.0075916,0.055826,0.16269,0.045714
-0.0082388,-0.056948,-0.31265,0.045448,0.012329,-0.0085848,-0.61496,-0.028306
0.032024,-0.22431,-0.091276,0.13412,0.039372,-0.0089898,0.52467,0.047024
-0.07617,-0.23754,-0.0737,-0.16764,-0.051623,-0.040031,-0.46684,-0.11873
0.048826,0.28088,-0.066822,-0.086079,-0.041507,-0.10249,0.089075,0.060535
-0.039016,-0.064925,0.09868,0.058732,0.015518,0.037558,0.27787,-0.086986
-0.027383,0.29707,0.15486,0.14196,0.057483,-0.033903,-0.61133,0.040247
-0.033182,-0.039274,-0.095243,0.02306,0.022399,0.089828,0.53902,0.051424
0.092603,0.11951,-0.23046,-0.14949,-0.089304,-0.13743,0.057361,0.039919
-0.00092684,-0.04266,0.17918,0.077416,0.074232,0.23814,-0.23604,0.028639
0.03052,0.14147,0.05667,-0.077457,-0.057186,-0.056448,0.29113,0.04043
-0.015894,-0.39515,0.052093,0.0030867,0.00074205,-0.15395,0.052036,-0.17522
0.016085,0.0081911,-0.098452,-0.0012703,0.060243,0.21869,-0.44655,-0.040466
0.016871,0.04555,-0.26862,0.026579,-0.035392,-0.14234,0.17735,0.085329
-0.076326,-0.30524,0.14372,0.016101,-0.075829,0.090206,0.25931,-0.070954
-0.021541,0.3423,0.15364,0.060645,0.12574,-0.084512,-0.63803,0.13183
0.0093042,0.17325,0.14232,0.019032,-0.0095126,-0.010854,0.18905,0.022376
-0.014876,-0.30625,0.10721,-0.10155,-0.029065,-0.071928,0.092774,-0.070735
0.078124,0.065807,-0.15774,0.02645,-0.0349,-0.041139,0.089205,-0.061337
-0.039429,0.25475,-0.11607,-0.089533,0.019713,0.19897,0.32672,0.08957
0.015607,-0.17463,-0.081928,0.089467,-0.021311,0.039434,0.23447,-0.032422
-0.037859,-0.019316,-0.14927,0.0011686,0.045621,-0.066217,-0.63358,-0.0059881
0.057913,0.10893,0.16757,0.060137,-0.0053563,0.10897,0.14404,0.074487
0.044817,-0.090981,0.0038531,-0.084501,-0.06406,-0.26278,-0.24485,-0.025936
-0.093224,-0.046128,-0.26246,-0.096063,-0.020345,-0.017051,-0.3302,-0.08885
0.041728,0.1366,0.50417,0.13548,0.10294,0.18247,0.53855,0.096677
-0.050754,-0.00045399,-0.061687,-0.022274,0.0013758,-0.031056,0.090451,-0.086172
0.0040734,-0.0071514,-0.06891,0.016729,-0.020413,-0.047955,0.14803,-0.0038838
0.034299,-0.22044,0.15359,0.072555,0.029341,0.10068,-0.39668,0.031925
-0.03021,-0.11583,0.049458,-0.097516,-0.0844,-0.061753,0.24559,-0.016951
0.037445,0.090701,-0.50035,-0.080108,0.028228,-0.035462,-0.019907,0.029784
-0.035766,0.22334,0.073057,0.1241,0.022777,0.0072805,-0.14046,-0.030826
0.039601,-0.10435,0.073915,0.014638,-0.0074956,0.0034679,0.13139,0.019612
-0.017433,0.34569,0.28419,0.021025,0.023171,0.05412,0.027486,0.078698
-0.019256,-0.21291,-0.27875,-0.067422,-0.0022362,-0.020939,-0.19642,0.074978
0.026256,-0.23195,0.0515,-0.10944,-0.091026,0.067016,0.028743,-0.086445
-0.0061035,0.13236,-0.12894,-0.080707,-0.015908,-0.17432,-0.078509,-0.054841
0.0005653,-0.10544,0.072294,0.24629,0.098925,0.098974,0.30278,-0.080467
0.053797,0.22464,0.2105,-0.010505,0.019801,0.035738,-0.13861,-0.053508
-0.057521,-0.0046595,0.089577,0.024232,-0.010646,-0.12905,-0.010547,0.034896
-0.0052682,-0.13156,-0.25359,-0.016871,-0.00014428,0.073985,-0.21799,0.14707
-0.047058,-0.095552,0.14657,-0.072015,-0.050559,-0.018679,0.22416,-0.051559
0.04404,0.15653,0.27871,-0.064154,0.0015336,0.022906,0.026685,0.0024549
-0.044022,-0.11062,-0.83702,0.10703,0.022457,0.089274,0.040094,0.09846
0.056359,0.11821,0.4455,0.0028363,0.050336,0.0080959,0.12975,-0.11558
0.04075,-0.03981,-0.077921,-0.033886,-0.03287,-0.15105,-0.31593,0.031091
-0.028336,-0.068862,0.15553,0.0041932,-0.024652,0.032845,-0.025595,0.021338
0.028544,0.070353,-0.0010932,0.03118,-0.01903,0.12929,0.42123,0.088014
-0.062503,-0.028237,-0.2174,-0.085174,-0.00024649,-0.21386,-0.49913,-0.19974
0.010465,0.0026577,0.11075,-0.00013289,0.016586,0.12813,0.36293,0.024724
-0.026531,0.15534,0.1733,0.076612,0.040094,-0.0086861,-0.099375,0.01946
0.083913,0.023853,-0.20747,-0.04116,-0.038119,-0.037928,-0.28855,-0.019261
-0.064642,-0.070811,0.31353,0.06952,0.0095007,0.025458,0.11998,0.027205
0.0044228,-0.20558,-0.27862,-0.12188,-0.04276,-0.013045,0.052149,-0.0035873
-0.013289,-0.097501,0.055401,0.056755,0.040059,0.011429,-0.067148,0.038207
0.023305,-0.033606,-0.082875,0.081716,0.039452,0.20897,0.48993,0.036289
-0.0024482,0.32399,0.2049,0.030447,-0.0056352,-0.22456,-0.53527,-0.016961
-0.019738,0.04704,-0.42507,-0.12924,-0.033137,-0.11688,0.15904,-0.0048729
0.034307,-0.12956,0.33187,-0.0076874,-0.035898,0.09466,0.38869,-0.0066562
0.027052,0.06709,-0.079072,0.01928,0.063453,0.003759,-0.43745,-0.00025443
0.0053348,0.0026675,0.013689,-0.01758,-0.024866,0.14914,0.28511,0.028594
-0.077952,0.12817,0.17986,0.076937,-0.0045593,-0.063575,-0.205,-0.093038
-0.012249,-0.082064,0.066945,0.029662,0.022451,-0.049292,-0.33892,0.040563
0.045731,-0.36427,-0.21684,-0.15104,-0.045512,-0.066812,0.37641,-0.093984
0.001759,0.1789,-0.19624,0.0042783,-0.020845,0.13289,-0.38419,0.011707
0.02727,-0.0075068,0.033721,0.074398,0.034215,-0.013467,0.46176,0.22574
-0.026518,0.069104,-0.13757,0.01291,0.026248,-0.045426,-0.34672,-0.1696
-0.0035535,-0.059312,0.55438,0.10122,0.049319,-0.064596,0.092744,0.037528
-0.0054099,-0.017203,-0.10238,-0.12962,-0.083846,-0.0080859,0.43877,-0.003833
0.05405,0.12518,-0.038317,-0.0082217,0.017495,0.11708,-0.034797,0.058122
-0.074772,0.27349,0.035338,0.058509,0.0017889,-0.01617,-0.12624,-0.065807
0.030555,-0.2452,-0.3341,-0.047283,0.0017798,-0.016035,-0.18979,0.0067537
-0.1059,0.11477,0.1594,0.048885,0.0095528,-0.0064037,0.037079,-0.013894
0.14144,-0.28021,0.24467,-0.020433,-0.014054,-0.09576,-0.19834,-0.042521
-0.023883,-0.094223,-0.63794,-0.075497,-0.014421,0.14612,0.30539,0.07644
-0.031382,0.14255,0.15509,0.0012044,0.024054,-0.093162,-0.54597,-0.079453
0.032875,-0.044455,0.25879,0.069536,0.0076369,0.10788,0.59195,0.13003
0.051307,0.05832,-0.068158,0.012823,-0.008943,-0.15001,-0.23274,0.040678
-0.046961,0.10195,0.3687,-0.027928,-0.025647,0.053884,0.059426,-0.18335
-0.075032,0.010414,0.019929,-0.044751,-0.042463,0.11665,0.25847,-0.041672
0.052532,-0.12148,-0.2901,0.14974,0.11246,-0.095831,-0.18997,0.1617
-0.023938,0.088864,0.04401,-0.069766,-0.0219,0.11853,0.20589,-0.025473
0.06272,-0.11782,-0.10595,0.038508,0.030948,-0.16271,-0.45324,0.007173
-0.054456,0.24825,0.055397,-0.1039,-0.080619,-0.017659,-0.051239,-0.012797
0.0312,-0.12049,-0.24468,-0.036179,-0.012827,-0.02382,0.18435,-0.068897
-0.031384,-0.031435,-0.042401,0.062119,0.031338,0.077746,0.1435,0.011338
-0.038641,0.021314,0.17437,-0.050794,-0.0025588,0.06969,0.29478,0.0015397
0.056561,-0.041056,0.019848,0.039698,-0.020435,-0.10127,-0.40056,0.049859
0.004208,-0.053712,0.2404,0.091976,0.048366,0.089464,-0.13703,0.053941
0.022724,-0.11611,-0.16927,-0.0028901,0.0088127,-0.029281,-0.077523,-0.081201
0.0021472,0.10292,0.056768,-0.064997,-0.053006,-0.019839,0.26369,0.041345
-0.0035545,-0.15899,0.02587,-0.10221,-0.0042973,-0.031017,0.059744,-0.0018699
0.036197,0.37445,0.070137,0.12737,0.060991,0.069199,-0.086902,0.037797
-0.097776,0.064345,0.067592,-0.0095595,-0.02937,-0.0093086,-0.027438,-0.082726
0.031999,-0.096833,-0.24425,0.017653,0.013235,0.029222,0.35515,-0.0043051
-0.042791,-0.055597,-0.28301,0.013094,0.00083108,-0.15212,-0.40848,-0.015549
-0.032232,-0.017497,0.18396,-0.14094,-0.059181,0.11788,0.14967,-0.0060277
0.12729,-0.3529,0.12582,0.023927,0.028224,0.010793,-0.13514,0.010062
-0.063112,0.11447,0.0058357,0.077861,0.020745,-0.12952,-0.21647,0.010783
-0.00097171,0.51433,-0.23476,0.052174,0.0043879,0.11921,0.49927,0.067696
0.056329,-0.24946,0.79119,0.072155,0.010638,-0.00023686,-0.28481,0.0096797
-0.055425,0.048334,-0.81841,-0.14296,-0.01484,-0.026315,-0.092188,-0.069394
-0.0010551,-0.10799,0.0021464,-0.076897,-0.048202,-0.0054092,0.11598,0.040927
0.022872,-0.19376,0.25457,-0.018016,-0.03438,-0.030994,0.26107,0.0037717
0.046067,-0.019102,0.0012413,0.018701,0.089404,0.10789,0.28773,0.052392
-0.01894,0.10665,0.23243,0.11961,0.049827,-0.042103,-0.66404,-0.12673
0.045389,0.19474,-0.22718,0.042574,-0.059433,-0.051623,-0.078932,0.03607
-0.12875,0.12332,0.086854,0.021644,0.04265,0.086776,0.074494,-0.021812
0.03692,-0.097327,-0.095469,-0.037596,-0.058296,-0.11152,0.18763,-0.010832
-0.089488,-0.036011,0.0034814,-0.11253,-0.050064,0.048778,0.12882,0.05436
0.048262,-0.53604,0.037787,0.069527,0.090587,0.036701,-0.10066,0.02658
0.061405,0.28483,-0.16476,-0.0388,-0.0035739,-0.0066011,-0.25763,-0.06166
-0.024828,0.47204,-0.14955,-0.12515,-0.090244,-0.17419,0.12715,-0.060945
0.025294,0.11727,0.17233,0.12321,0.041743,0.15184,0.18627,0.1073
0.040543,-0.53198,0.12497,0.05051,0.025478,-0.051404,-0.11241,-0.041508
0.0051288,-0.056408,0.21227,0.071397,0.033078,0.13038,0.30791,0.085479
-0.0037421,-0.23193,-0.12497,-0.087017,-0.021253,0.048598,0.086512,0.0024569
-0.050019,0.32208,-0.11887,0.0053584,-0.0046955,-0.21133,-0.6994,-0.018829
-0.049434,0.3225,-0.041889,-0.065329,-0.034563,0.076339,0.12191,0.043454
0.051135,0.017866,-0.066197,-0.002183,0.013916,0.012252,0.17616,-0.12437
0.00050822,-0.30377,-0.013524,0.085272,0.031085,-0.068521,-0.51964,-0.15559
-0.022245,0.052563,0.1373,0.0014477,-0.014583,0.11461,0.70794,0.12974
0.0063178,-0.11568,0.22727,-0.043084,-0.0061305,-0.024642,0.26636,0.060675
-0.0226,0.13062,-0.223,-0.048723,-0.029637,-0.080038,-0.46902,0.0057442
0.056069,-0.010519,-0.12996,0.062266,0.024233,0.01123,0.048032,0.099179
-0.022064,-0.13709,0.27827,0.0083156,-0.00070296,0.046573,0.019102,-0.12656
0.0098816,0.21586,0.071637,0.031412,0.020717,-0.043672,-0.1048,-0.0066582
0.020178,-0.29151,-0.43648,-0.024732,0.026234,0.077063,0.15849,0.0060024
-0.076346,0.17988,-0.064451,-0.066217,-0.06198,-0.043846,-0.20854,0.020498
0.1191,-0.18845,-0.1457,0.032297,0.022031,0.00015967,0.058582,0.051757
-0.10448,0.47859,0.47059,-0.033391,-0.0026451,0.013873,0.053325,0.012944
0.025847,-0.18789,0.26255,0.081027,-0.010715,0.05974,0.12794,-0.10462
-0.014169,-0.019277,-0.14455,-0.037982,-0.025416,-0.081129,-0.14569,0.0031505
0.016607,-0.027668,-0.25188,-0.077517,0.0158,-0.049506,-0.030949,0.062649
0.046707,-0.092559,0.024248,0.14231,0.042477,0.052948,0.13893,-0.0039062
-0.034343,0.047753,0.29048,0.0043,0.023021,-0.070677,-0.070737,-0.055075
-0.016501,-0.039068,-0.025866,-0.023035,-0.0040118,0.13431,-0.0792,-0.02723
0.037187,0.083529,-0.14485,-0.080684,-0.047019,-0.035223,0.053117,0.026141
-0.006185,0.0023289,-0.52723,-0.044077,-0.028434,-0.032456,-0.16475,0.02789
-0.060274,-0.1709,0.21149,0.08635,0.051319,0.033101,0.15799,0.017569
0.039846,-0.010893,0.019303,-0.05699,-0.042347,-0.049698,0.20783,-0.044073
-0.048368,0.040661,0.35228,0.11148,0.018724,0.054832,0.2171,0.10767
0.043636,0.08838,-0.037302,-0.017935,0.031664,-0.0051271,-0.67641,-0.052179
-0.05004,0.11062,0.0077776,-0.062679,-0.042164,-0.089173,0.1335,0.052588
0.030986,0.0059516,-0.0052846,0.039567,0.00088075,0.052532,0.12809,0.0059731
0.17008,-0.18813,0.24967,-0.015937,0.0285,0.037087,-0.078052,-0.20142
-0.14835,0.14271,-0.19096,-0.0025273,-0.0057435,-0.057399,0.12265,0.015426
0.0049353,0.14346,-0.54068,-0.07619,1.6889e-05,0.089441,0.35437,0.13299
-0.0037024,0.05321,0.57388,0.11504,0.022491,-0.022267,-0.39822,0.050479
-0.058098,-0.43468,-0.4882,-0.045535,-0.024265,-0.048566,-0.25881,-0.16029
0.059446,0.14058,0.20396,0.0050776,-0.023197,0.034264,0.22794,0.065131
0.0042512,-0.16452,0.12917,0.0016868,-0.021401,-0.10156,0.095967,0.010123
0.002174,0.020646,-0.17081,-0.0085199,0.051163,0.028694,-0.25356,0.0047517
-0.017517,0.075294,0.2986,0.08399,0.030143,0.065962,0.15027,0.042703
0.031002,-0.012258,-0.1096,-0.1036,-0.037857,0.026066,0.19146,-0.047047
-0.023967,0.096514,-0.0281,-0.079247,-0.020251,0.026251,-0.216,-0.037816
0.02112,0.12863,-0.12215,0.11772,0.020306,-0.011687,0.37194,0.093256
-0.059708,0.26968,0.41071,0.088537,0.0056162,-0.0801,-0.26559,0.0012755
0.0076499,-0.16393,-0.18217,-0.049953,-0.017429,-0.02293,-0.013773,-0.057437
0.051952,-0.22407,-0.21569,-0.094922,-0.0018709,0.034649,-0.046448,-0.014165
-0.0044269,0.037529,-0.089873,-0.015326,-0.010082,-0.071579,0.026024,-0.042236
-0.020563,-0.15615,0.31996,0.071566,0.044009,0.087906,-0.11635,0.12286
0.0036034,-0.017466,-0.31338,-0.013912,-0.011361,0.098814,0.11397,-0.011736
0.028854,0.079618,0.09018,0.033009,0.011377,-0.10948,-0.11639,-0.11806
0.015806,-0.072643,-0.15448,-0.076661,-0.028382,0.017327,-0.093619,0.022901
-0.067182,0.053755,0.33764,-0.030413,-0.052534,0.010111,0.32542,0.0054761
0.076377,0.0027431,-0.15868,0.1326,0.071688,0.048277,0.13439,0.08821
-0.11633,0.0909,0.60682,0.060634,0.0082873,-0.16514,-0.57294,-0.040683
-0.02054,0.11755,-0.58556,-0.082435,0.015033,0.073131,0.56916,0.017805
0.097972,0.14559,-0.11256,-0.070166,-0.04871,0.052566,0.073572,-0.025039
-0.003124,-0.24057,0.21123,-0.019693,-0.0032139,-0.054373,-0.34433,0.034048
0.043203,0.10459,-0.030085,0.022387,0.0031878,0.042057,-0.10195,-0.0080822
-0.021041,-0.21302,-0.18921,0.033124,0.0018994,-0.048112,0.17306,-0.089024
-0.024143,0.014424,-0.00078369,0.0053245,0.016537,0.050646,-0.38014,0.048955
-0.020852,-0.035493,0.16085,-0.02133,-0.015239,-0.0050832,0.37111,-0.0082119
0.035836,-0.0040708,0.070481,0.063021,0.031678,0.10512,0.084135,0.059891
-0.033385,-0.06245,0.16735,-0.077316,-0.014572,-0.079764,-0.090707,-0.0043413
-0.016932,0.15058,-0.28105,0.034167,-0.044697,-0.17721,0.020775,-0.020933
0.0079125,0.18433,-0.1168,-0.040376,0.019256,-0.015759,-0.20416,-0.0755
-0.028244,0.010046,-0.018276,0.10474,0.052054,0.19308,0.06444,0.05101
