0.03738,0.12113,-0.056501,0.0098871,0.0052671,0.0058809,0.0041736,0.10866
0.030404,-0.043675,0.066463,0.010522,0.0056292,-0.0010666,-0.011549,0.13495
-0.066149,-0.021676,0.0035413,0.0037186,0.013982,-0.0080149,0.0037332,-0.050542
-0.0047794,-0.031732,-0.011655,0.0050017,-0.0087796,0.0084445,0.018806,-0.024272
0.055238,0.035742,-0.01908,0.0063951,-0.00023638,-0.0064045,-0.013126,0.15247
-0.021849,-0.060752,0.050655,-0.015723,-0.0073619,0.0021016,-0.013808,-0.23842
0.18362,0.054996,-0.014245,0.0009955,0.0010092,0.0026963,0.0013128,-0.040537
-0.048045,-0.20136,-0.050409,-0.021643,0.0092063,0.0031858,0.0090003,0.15218
-0.35683,0.031225,0.058909,-0.013289,-0.021828,-0.019863,-0.029618,-0.14502
0.01727,0.12118,-0.163,0.049628,0.0017075,0.027314,0.049647,0.48934
-0.039536,-0.16551,0.13562,-0.051453,-0.0060478,-0.019328,-0.042256,-0.63263
0.078159,0.26401,0.18963,0.027408,0.025293,0.0042926,0.014848,0.019967
0.28006,0.024596,-0.25795,0.020709,0.0098348,-0.0033741,-0.013714,-0.05331
-0.15029,0.089336,0.090838,0.0065957,0.0022623,0.012363,0.074755,0.49065
0.3424,0.0088105,0.01853,-0.0072224,-0.020912,0.0046239,-0.040549,0.1275
-0.071093,-0.39279,-0.12191,-0.036577,-0.020703,-0.018793,-0.0085179,0.012318
-0.41671,0.061304,-0.0010417,-0.0036108,0.026243,0.0045961,0.0064695,-0.6765
0.23978,0.36986,0.24935,0.067962,0.010489,0.012281,-0.01911,-0.14325
-0.097103,-0.4351,-0.40153,-0.056462,-0.028924,-0.026993,-0.038194,0.37677
-0.34423,-0.093046,0.069473,-0.0020174,0.009591,0.019592,0.019966,0.41428
0.38709,0.14236,0.27838,-0.0030912,-0.0067098,-0.0042013,0.0075455,-0.29642
0.017658,0.30714,0.13729,0.081057,0.039465,0.011018,0.034582,0.18257
-0.13253,-0.21134,-0.18437,-0.10091,-0.031448,-0.0050428,9.4392e-05,-0.29622
0.28046,0.17636,-0.1266,0.029451,0.0072344,0.010139,-0.0017753,-0.043685
-0.34448,-0.066921,0.44139,0.027147,-0.0084459,-0.013725,-0.0099582,0.27052
0.22777,-0.31601,-0.74707,-0.068463,-0.015926,-0.021927,-0.024595,-0.38995
0.16231,0.39643,0.44881,0.055312,0.016045,-0.0066415,0.016436,0.31369
-0.24241,-0.18997,-0.43065,-0.038983,0.0014571,0.016491,-0.012406,-0.20192
0.11745,0.52337,-0.20374,0.11728,0.026095,0.063048,0.067963,0.088435
-0.23938,-0.62255,0.98327,-0.10895,-0.043073,-0.070174,-0.10239,0.029102
0.28462,0.018812,-0.19594,0.11793,0.067144,0.069858,0.10893,0.38487
-0.71277,-0.26422,-0.10743,-0.20236,-0.073171,-0.087235,-0.095129,-0.72146
0.63136,0.54444,0.31173,0.20343,0.059269,0.0601,0.066789,0.70683
-0.29792,-0.34299,-0.59465,-0.14908,-0.043381,-0.027119,-0.02995,-0.14659
0.37452,0.1532,-0.23274,-0.040989,-0.029448,-0.036228,-0.072268,-0.53545
0.060321,0.14366,0.35881,0.12175,0.030992,0.025181,0.049883,0.099665
-0.14397,-0.097615,-0.20984,0.019169,0.021074,0.024521,0.016813,0.30365
0.21553,0.32745,0.3201,-0.012514,-0.011994,-0.014612,0.0086399,-0.064758
-0.48641,-0.41823,-0.058432,-0.082501,-0.013242,0.0015786,0.025496,0.049833
0.17995,0.023094,0.3188,0.10609,0.033121,0.033937,0.012497,0.19628
0.091304,-0.16272,-0.54891,-0.15001,-0.044758,-0.042755,-0.062093,-0.31774
-0.12289,0.21836,0.22748,0.14894,0.057688,0.044649,0.043257,-0.090065
0.029646,-0.045222,-0.041854,-0.036443,-0.01914,-0.02445,-0.0080634,0.055138
0.3886,0.46074,0.085677,0.012311,-0.0098923,-0.015882,-0.021279,-0.050297
-0.51561,-0.68476,-0.02547,-0.033108,-0.016389,-0.015646,-0.027918,0.13557
-0.025268,0.11342,-0.23698,-0.024286,-0.0075645,0.0076148,0.026734,0.27054
-0.3959,0.33349,0.59803,0.077984,0.032129,0.022896,-0.0054418,-0.32515
0.6083,-0.40588,-0.65377,-0.13228,-0.030088,-0.024165,-0.022371,-0.051673
-0.13093,0.083773,0.22691,0.032718,0.024647,0.022995,0.06246,0.25191
0.42842,0.060376,-0.0084417,-0.0049572,-0.014453,-0.022911,-0.047331,-0.059005
-0.019722,0.41372,-0.11545,0.12966,0.016806,0.033467,0.046987,0.066128
-0.42607,-0.17813,0.17393,-0.087205,-0.029944,-0.02679,-0.021754,0.029965
0.49023,0.048435,0.29166,0.062601,0.0093364,0.014712,-0.019436,-0.46682
-0.28012,-0.48654,-0.64334,-0.031051,0.017345,0.01687,0.014405,-0.050219
-0.058071,0.32529,0.46366,0.11552,0.056411,0.033873,0.055748,0.4912
-0.18551,-0.23468,0.034713,-0.21686,-0.061143,-0.075296,-0.075648,-0.03623
0.31956,0.53809,-0.54003,0.096878,0.02395,0.032926,0.049513,-0.30212
-0.88532,-0.77581,0.42604,-0.13016,-0.063295,-0.055437,-0.029834,0.21931
0.15728,0.14687,0.1352,0.0015367,-0.010215,-0.019716,-0.086953,0.022137
0.69549,0.52758,0.047894,0.18085,0.042851,0.078141,0.10517,0.15445
0.18054,-0.41309,-0.1715,-0.10648,-0.013134,-0.026859,-0.062239,-0.25052
-0.20337,0.58311,0.056404,0.17967,0.056508,0.064289,0.059914,-0.005447
0.29599,-0.30518,-0.50843,-0.1945,-0.052735,-0.077716,-0.0044184,0.32667
-0.040265,-0.23656,0.2381,0.060014,0.02632,0.023821,-0.0049552,-0.62968
-0.74533,0.059336,-0.59248,-0.049638,-0.0033913,-0.0062359,-0.012018,0.35181
0.34197,0.0090335,0.81311,0.11604,0.037492,0.058319,0.075673,0.20873
-0.031197,-0.046284,0.48476,-0.030304,-0.038918,-0.040819,-0.07048,-0.33196
0.16423,0.58724,-0.37041,-0.044786,-0.022035,-0.0072887,-0.0057155,-0.027539
-0.52612,-0.65292,0.054205,-0.084913,-0.029284,-0.044647,-0.035223,0.16927
0.31911,0.062744,-0.092067,0.12186,0.040812,0.034332,0.028134,0.024122
0.059113,-0.12256,-0.32348,-0.13582,-0.022612,-0.020443,-0.018948,-0.1119
0.091997,0.091227,0.13679,0.16552,0.054065,0.041109,0.050096,0.29922
0.14353,0.28536,0.27193,0.0029151,-0.0023492,0.00043914,0.016666,-0.13453
-0.11559,-0.43629,-0.66549,-0.24782,-0.066608,-0.064069,-0.079928,-0.21934
0.53223,0.59136,0.50244,0.32843,0.072441,0.090035,0.057484,0.020235
-0.53064,0.086522,-0.41109,-0.079695,-0.0069125,0.0020475,0.038592,0.24779
-0.41264,-0.60113,0.025098,-0.11163,-0.0233,-0.038774,-0.065973,-0.12213
0.24053,0.35374,0.23338,0.06184,-7.449e-05,0.0067994,0.02535,0.13073
-0.37146,-0.31747,0.34444,-0.13654,-0.03093,-0.040774,0.00035644,-0.30375
0.16296,-0.054834,0.00089596,0.012527,-0.0064699,-0.02512,-0.086019,-0.25866
0.49734,0.61653,0.075879,0.18097,0.034215,0.046021,0.047635,0.52668
0.080721,-0.52265,-0.19353,-0.077007,0.0050812,0.00076413,0.0028975,-0.17207
-0.21835,0.10632,-0.22059,0.081331,0.046565,0.065539,0.092107,0.20869
-0.049765,-0.26073,0.15149,0.0061232,-0.021285,-0.033347,-0.0053967,0.2077
0.19959,0.089049,-0.40363,-0.030777,-0.011265,0.00062897,-0.047912,-0.39553
-0.19498,0.36853,0.11815,-0.18707,-0.079898,-0.067285,-0.067226,-0.22113
-0.052601,0.39185,0.29398,0.11432,0.03824,0.036022,0.037738,0.20382
-0.059079,-0.5039,-0.13247,-0.0020208,0.030557,0.013474,0.024459,0.32074
0.47648,-0.37273,-0.040726,-0.012417,0.0064544,-0.0021542,-0.0056364,-0.47558
-0.36974,0.48104,0.018515,0.1465,0.020751,-0.0029143,-0.013408,0.20243
-0.40165,-0.56749,0.0020634,-0.18018,-0.03571,-0.011969,0.0013961,-0.1005
0.2668,0.31752,0.29525,0.063758,0.0092221,-0.0055253,-0.0077421,0.14578
-0.070396,0.43249,-0.14793,0.03606,-0.0082133,0.032395,0.053305,0.20704
0.13908,-0.5985,0.02321,-0.16056,-0.040859,-0.038561,-0.065152,-0.29032
0.16565,0.27779,-0.068583,0.099489,0.020873,0.0082909,0.0042523,0.039176
0.11411,0.15318,-0.25449,0.058269,0.020823,0.024448,0.027148,-0.042803
-0.1238,-0.18538,0.31389,-0.035078,-0.0020157,-0.013776,0.011184,0.14039
0.13854,0.2211,0.2746,0.17736,0.069318,0.065121,0.049828,-0.085689
-0.19496,-0.33958,-0.8271,-0.16559,-0.054583,-0.051771,-0.09943,-0.39558
-0.025733,0.2495,0.29743,0.051519,0.0087127,0.018032,0.070964,0.43378
-0.028403,-0.54974,0.1176,-0.14138,-0.045799,-0.069369,-0.056279,-0.16511
-0.25177,0.73356,0.18171,0.098873,0.016094,0.022055,0.026766,0.43351
0.10018,-0.75707,-0.21938,-0.16498,-0.02432,-0.035498,-0.070203,-0.32651
-0.081863,0.4815,0.11148,0.068104,0.020696,0.039706,0.036104,0.012199
0.33543,0.42858,0.3478,0.19029,0.034329,0.045065,0.049332,0.15545
0.18063,-0.62498,-0.30592,-0.18731,-0.0455,-0.026797,-0.022263,-0.097897
-0.21814,0.21196,-0.29379,0.13995,0.039394,0.027493,0.024703,-0.1207
0.22449,-0.38186,-0.052256,-0.014362,0.00018229,-0.010804,0.0027414,0.19959
-0.344,0.25541,0.3727,-0.095154,-0.03027,-0.03253,-0.025886,-0.32753
-0.19017,0.31591,-0.1355,0.030144,0.018213,-0.0068118,-0.038176,-0.14073
0.40421,0.21796,-0.12364,0.11076,0.020341,0.034645,0.043454,0.36214
0.14255,-0.36983,0.40772,-0.026254,-0.0086393,0.0054711,0.054402,0.29239
-0.63808,-0.37164,-0.24585,-0.13983,-0.022235,-0.039976,-0.099527,-0.44109
0.1814,0.19609,0.030951,0.050363,0.0026781,0.01532,0.042338,0.031749
0.17353,-0.087726,-0.29532,-0.010895,-0.020022,-0.0083271,-0.020062,0.18998
-0.26113,0.021279,0.54676,0.012233,0.011192,0.0064314,-0.0053352,-0.26917
0.63671,0.22138,-0.084816,-0.0049586,0.010483,0.0051765,0.0165,0.32738
-0.18704,-0.10945,-0.17472,0.039651,0.017112,-0.0039654,0.014561,0.050519
-0.3109,0.054527,-0.11258,-0.0017322,7.4754e-05,0.010549,-0.010796,-0.34172
0.19378,0.081628,-0.17738,-0.042604,-0.016948,0.0020645,0.0032082,0.23674
0.052213,0.26859,0.04803,0.058022,-0.0025021,0.0097633,0.017669,-0.16687
-0.20545,-0.51072,-0.011178,-0.035689,-0.011137,-0.02103,-0.022068,-0.098742
0.045273,0.28889,0.50703,0.090182,0.035338,0.0033546,0.032374,0.16867
-0.046926,0.0095982,-0.060055,-0.064674,-0.019329,-0.010974,-0.037868,-0.051091
-0.31707,-0.63866,-0.18158,-0.11782,-0.011135,-0.0095045,-0.029779,-0.10101
0.73608,0.40641,-0.21901,0.14134,0.036386,0.038831,0.040942,0.21437
-0.23003,0.090673,0.55859,-0.06087,-0.025315,-0.0067596,0.018032,0.09745
-0.18352,0.032285,-0.41531,-0.021422,-0.02447,-0.029227,-0.05941,-0.24245
-0.085476,-0.14273,-0.254,0.025298,0.023204,0.026019,0.05087,0.26263
0.063031,0.37882,0.352,0.048085,0.0082573,0.010497,0.044249,-0.10094
0.46328,-0.27784,0.057309,-0.046774,-0.022497,-0.036728,-0.087057,-0.12485
-0.41048,-0.17542,-0.4818,0.045414,0.032446,0.017209,0.00066011,-0.21743
0.43947,0.5607,0.74412,0.02774,-0.0066568,-0.0072952,0.010399,0.17473
-0.55895,-0.43689,-0.51979,-0.13889,-0.030484,-0.024206,-0.01119,0.0044201
-0.14879,-0.089815,0.035057,0.061143,0.023428,0.052506,0.076209,0.28003
0.26388,0.33718,0.15506,0.065452,0.01445,0.0041687,0.0066178,-0.1065
-0.13239,-0.38102,0.13328,-0.016367,-0.010499,0.0027178,-0.017156,-0.075104
0.2499,-0.24278,-0.37862,-0.051147,-0.012248,-0.037724,-0.06562,0.0015717
0.091939,0.15952,-0.15206,-0.030618,0.0015639,0.00010839,0.0018624,-0.12389
-0.30836,0.54518,0.50882,0.014469,-0.015716,-0.016493,-0.0019456,0.051099
0.39311,0.35106,0.16552,0.068947,0.014279,0.014165,0.040647,0.028778
-0.25711,-0.53406,-0.090544,0.015961,0.013646,0.029712,0.0053095,-0.18146
0.40431,-0.18322,-0.25481,-0.066236,-0.0096518,-0.008812,-0.036924,0.2491
-0.60779,-0.052646,-0.39344,-0.021511,-0.00087739,-0.007613,0.0083296,-0.039524
0.026433,-0.020157,0.38065,0.063835,0.008646,-0.0057885,0.0086791,0.20093
-0.044583,-0.072288,0.0097236,-0.045143,-0.012519,0.0043596,0.0033005,-0.15716
0.14058,0.34437,-0.047621,0.041473,0.021291,0.014839,0.023211,0.078561
0.31702,0.010635,0.29302,0.010443,-0.0074183,-0.013631,-0.0024558,-0.21181
-0.20203,0.012733,-0.031568,0.0017282,-0.0051845,-0.0031514,-0.0041729,0.16519
0.20115,-0.15632,-0.51342,-0.055473,-0.0034692,-0.00079573,-0.014073,-0.22855
-0.30916,-0.15936,0.54377,-0.0364,-0.025808,-0.014525,-0.025169,-0.064216
0.11083,0.30985,-0.26448,0.066782,0.045013,0.041516,0.055669,0.14432
-0.10922,-0.27819,-0.060761,-0.050359,-0.040869,-0.035812,-0.060933,0.032165
0.17912,0.40655,0.04831,0.12039,0.044877,0.034786,0.039128,0.14059
-0.2349,-0.032405,0.2373,-0.092414,-0.03347,-0.035662,-0.01877,-0.028826
0.031811,-0.64007,-0.47596,-0.079012,-0.03355,-0.020483,-0.05431,-0.18648
-0.020438,0.3039,0.23008,0.12958,0.060338,0.049179,0.081706,0.32335
0.45238,0.11315,0.081971,0.025619,0.013776,0.0015296,-0.00059884,-0.18827
-0.323,0.077148,0.070529,-0.062865,-0.024953,-0.030581,-0.0037454,0.0736
0.091043,-0.0076339,0.099446,0.020199,0.01424,0.023157,-0.0054878,-0.18987
-0.0084308,-0.040878,-0.076733,-0.0066233,-0.0016851,0.0064586,-0.005732,-0.081806
-0.21485,-0.024443,-0.16443,-0.088737,-0.049452,-0.033839,-0.0359,0.13909
0.16757,0.20364,-0.041188,0.11767,0.034965,0.035055,0.052059,0.0039265
-0.23565,-0.12415,0.19027,-0.027786,-0.0061376,-0.0134,-0.00018226,0.0053572
0.14606,-0.50122,-0.18817,-0.087226,-0.024086,-0.030702,-0.013488,0.10522
-0.39855,0.59555,0.26346,0.064797,0.0048675,0.014508,-0.019599,-0.070407
0.84028,-0.067578,-0.38059,0.045895,0.034159,0.012977,0.0045688,0.073306
-0.061389,-0.37197,-0.12344,-0.065502,0.0015274,-0.0039319,-0.003648,-0.14235
-0.14536,0.23888,0.00039434,0.082298,0.01647,0.034172,0.033917,-0.068108
-0.15666,-0.092676,0.77566,-0.04983,-0.022585,-0.028933,-0.023135,0.27335
-0.3319,0.26736,-0.24901,-0.0089887,-0.0063864,0.0098651,-0.0025588,-0.10951
0.31231,-0.17293,-0.097387,-0.006447,-0.013244,-0.021355,-0.013289,-0.059803
0.15945,0.32795,-0.09976,0.03556,0.011328,-0.0054645,0.015428,0.024617
-0.17096,-0.40344,0.029463,-0.039537,-0.0031549,0.0027913,0.0058397,-0.18392
-0.24561,0.11524,0.10664,-0.044475,-0.025563,-0.012269,-0.010558,0.17421
0.1038,-0.071253,-0.30156,0.083116,0.037787,0.043051,0.013202,-0.018338
-0.087552,0.0040732,0.020878,-0.02398,-0.0006212,0.012447,0.022376,0.0034631
0.40968,0.0979,-0.021302,0.024912,0.023289,0.005249,0.0246,0.20727
0.073074,-0.16517,0.10281,0.018964,-0.015445,-0.048879,-0.081931,-0.12714
0.042273,0.043276,0.35469,-0.018247,-0.030836,-0.017112,-0.0084216,-0.032598
-0.27141,0.13805,-0.48335,-0.11783,-0.022828,-0.0087826,-0.012941,0.005086
0.16716,0.12795,0.36329,0.056255,0.032064,0.03867,0.068333,-0.17134
-0.74786,-0.48602,-0.20597,0.011826,0.0088613,0.00028967,-0.022645,0.070497
0.40149,0.33606,0.098621,0.045632,0.0091071,0.024508,0.034197,0.019783
0.35447,-0.045787,0.019618,0.0089614,0.001488,-0.013742,-0.019186,-0.096417
-0.1327,0.26742,-0.16947,0.081115,0.024975,0.03386,0.059197,0.48815
0.057053,-0.012821,0.14839,-0.09769,-0.045519,-0.067191,-0.10576,-0.53849
0.050101,-0.54981,-0.32408,-0.051206,-0.0069167,-0.0044992,0.001607,0.15983
-0.26019,0.087235,0.17809,-0.052982,-0.015444,0.010961,0.014304,0.13772
-0.057515,0.071597,0.044567,0.022132,0.0071217,-0.0051436,-0.012627,-0.14417
0.11569,0.44388,0.25066,0.18234,0.068753,0.064489,0.093147,0.28267
-0.095528,-0.38046,-0.22061,-0.1421,-0.056927,-0.045603,-0.066325,-0.31609
0.015687,0.16194,0.16089,0.072888,0.020876,0.016321,0.0094004,-0.017959
0.20951,-0.22567,0.035394,-0.086181,-0.025839,-0.038639,-0.030909,0.092457
0.048998,0.22927,-0.20566,0.068626,0.029538,0.031823,0.047296,-0.0062783
0.1421,-0.24073,0.010406,-0.079682,-0.016155,-0.022243,-0.013798,0.024217
-0.45187,0.1506,-0.13283,0.023494,-0.0067953,0.0022448,-0.011244,-0.024522
0.13763,0.056088,-0.0053237,0.0027755,-0.012895,-0.0042278,-0.031309,-0.27552
-0.063186,0.097065,-0.383,0.1466,0.059045,0.067483,0.10526,0.48311
0.065812,0.13733,0.76217,-0.053639,-0.02562,-0.032912,-0.078574,-0.33508
0.12996,-0.5366,-0.2311,-0.13777,-0.024941,-0.032273,-0.020785,0.072424
0.079743,0.25364,0.051463,0.049815,0.021849,0.0066599,0.020431,0.14722
-0.28884,-0.27296,0.19322,-0.014642,-0.025936,-0.0099871,0.021376,0.22041
-0.14665,0.20561,0.18139,0.11422,0.034898,0.050629,0.028829,-0.2522
0.50915,0.11412,-0.4827,-0.11006,-0.022015,-0.037859,-0.027448,0.11547
-0.38751,0.1437,-0.0088801,0.00077938,-0.0010694,-0.0094929,-0.061286,-0.35149
0.2544,0.0091515,-0.16077,0.025769,0.0043358,0.0033326,0.013609,-0.060164
-0.29426,-0.51251,-0.067314,-0.026356,-0.01327,-0.0067739,0.041401,0.26448
-0.067996,0.22226,0.44949,0.04046,0.0088843,0.0074016,0.022496,0.19654
0.53013,0.035715,-0.14106,7.4128e-05,0.016259,0.014792,-0.027155,-0.53997
-0.26424,0.061504,-0.11012,-0.030317,-0.014591,0.015378,0.002024,-0.009615
-0.13168,0.229,0.022284,0.081698,0.033356,0.016753,0.0085322,0.55057
-0.067379,-0.12713,0.35366,-0.047406,-0.027689,-0.036139,-0.023323,-0.20741
0.31468,-0.27443,-0.4328,-0.0044341,-0.010578,-0.010922,0.015676,0.31943
0.10273,0.066256,0.017235,0.022304,0.014036,0.0060633,-0.023115,-0.44013
0.041371,0.12745,0.40872,-0.045877,-0.00097845,0.0067257,0.024165,0.14392
-0.27995,0.1032,-0.21067,0.009597,-0.0010459,-0.0012175,0.0089233,-0.010527
-0.27766,-0.014768,-0.10659,0.0014856,0.0060767,-0.0020367,0.024826,0.30331
0.095204,-0.48396,-0.084435,-0.085212,-0.041894,-0.026707,-0.092184,-0.58204
0.052021,0.56374,0.19066,0.070645,0.027253,0.018902,0.048606,0.26121
0.22206,-0.33149,-0.21229,0.024551,0.0029599,0.010182,0.0020254,-0.10451
-0.28017,0.042172,0.096025,0.011438,0.01057,0.0099507,-0.0052069,-0.16185
0.0033724,-0.17457,0.10648,-0.023247,-0.012189,-0.012879,0.011403,0.10777
0.41229,0.4938,-0.20551,0.021699,-0.002765,-0.003645,-0.010598,0.30162
-0.0047394,-0.10346,0.48732,0.051727,0.030894,0.021819,0.030303,0.05577
-0.12303,-0.063442,-0.29194,-0.051423,-0.013084,0.00066995,-0.0066491,-0.18994
-0.13221,0.13343,0.19929,0.03927,0.0055077,0.01063,0.01117,0.21397
0.11282,-0.21956,-0.31893,-0.11458,-0.038785,-0.058043,-0.064875,-0.37351
-0.23545,0.078194,-0.43819,0.11158,0.048951,0.052209,0.054107,-0.032172
-0.00069883,-0.35691,0.46928,-0.16501,-0.059683,-0.064961,-0.07732,0.094688
0.29122,0.28889,0.085951,0.024942,0.025835,0.020209,0.040767,0.050602
-0.23581,-0.14522,-0.01571,0.049511,0.00089178,0.011045,0.025505,0.12882
0.35588,0.41584,0.0089233,0.14407,0.037595,0.040631,0.048734,0.21648
-0.65896,-0.42863,0.01843,-0.065499,-0.035585,-0.023572,-0.045829,-0.42371
0.39354,-0.024664,-0.067818,-0.047307,-0.015129,0.0061536,0.023063,0.23759
0.16403,0.39803,0.13694,0.058324,0.029039,0.012761,-0.033596,-0.40964
-0.3768,-0.1183,0.1125,-0.076722,-0.027762,-0.050564,-0.059413,0.15877
0.32706,0.20112,-0.29399,0.023921,0.03343,0.034925,0.070849,0.16353
0.13548,-0.49589,0.038983,-0.022851,-0.013869,-0.027686,-0.048764,-0.07219
-0.28769,0.0069653,-0.11704,0.017051,0.0099758,0.019355,0.042985,0.087733
0.0021186,0.018222,-0.082421,-0.02066,-0.0045714,-0.0037086,0.010385,-0.0096569
0.11341,0.18913,0.19926,0.059188,-0.0030501,0.012424,0.0019748,0.091705
-0.079503,0.27201,0.14511,-0.01691,-0.0091421,-0.010451,-0.021359,-0.18395
-0.084683,0.0038091,-0.11616,-0.038048,-0.0074387,-0.0021023,0.018326,0.0087888
-0.04253,-0.26037,-0.041792,0.011366,0.017528,0.013957,0.0035817,-0.02445
0.16472,0.0081454,-0.019326,0.037504,0.010984,-0.0014002,0.027893,0.16186
-0.0091513,-0.16755,0.00020728,-0.022283,-0.019279,-0.0091486,-0.080809,-0.26872
-0.071547,-0.2308,0.15058,-0.027597,-0.018558,-0.017109,-0.010109,0.10447
-0.030396,0.072406,0.033306,-0.04905,-0.018075,-0.0096303,0.005655,0.068661
0.2385,0.6458,-0.00077667,0.16303,0.075923,0.052399,0.044724,0.074596
0.014951,-0.20025,0.14114,-0.0010445,-0.0022262,-0.010644,0.036923,0.11182
-0.40605,-0.0074825,-0.59639,-0.10397,-0.026036,-0.01119,-0.0098403,-0.080043
0.29385,-0.56117,-0.05736,-0.059842,-0.01122,-0.019491,-0.056486,-0.33126
-0.01191,0.43756,0.29749,0.02996,-0.012532,0.0035726,0.014107,0.18497
0.0039984,0.2622,0.11708,0.04865,0.0090925,0.01117,0.014314,-0.00040272
0.029379,-0.065598,0.18308,0.051478,0.022495,0.018959,0.022123,0.058681
-0.043633,-0.31468,-0.090438,-0.046847,-0.011192,-0.012095,-0.0094376,0.30135
-0.2437,-0.17669,0.0069926,-0.011324,-0.0057586,0.011776,-0.017886,-0.79364
-0.051897,0.26579,-0.21308,-0.060185,-0.023383,-0.050038,-0.034391,0.401
0.3867,-0.038348,-0.072181,0.080345,0.03,0.021226,0.011532,0.059127
-0.3548,0.25893,0.069085,0.02756,-0.0016118,0.02244,0.026351,0.049165
0.37357,-0.22762,0.22529,-0.062429,-0.0087077,-0.0073575,-0.0053498,0.27769
0.040508,0.1259,-0.15902,0.0053297,0.008696,-0.005731,0.010313,-0.28712
-0.082269,-0.055056,0.10318,0.042806,0.011362,0.003774,0.018676,-0.0058609
-0.21654,-0.12012,-0.14462,0.0025031,-0.0010213,-0.010243,-0.02723,-0.12222
0.25898,-0.05826,-0.11354,-0.07714,-0.02886,-0.0010859,0.013037,0.15928
-0.13593,-0.10765,0.20399,0.053327,0.028976,0.038877,0.022073,-0.34987
0.080279,0.13431,-0.036299,-0.020578,-0.015408,-0.015505,-0.047186,0.38878
-0.35958,0.3275,-0.11647,-0.025679,-0.0060603,-0.031507,-0.030787,-0.31254
0.013219,-0.19748,0.27488,0.037919,0.0021744,0.0065045,0.01657,0.17105
0.3016,-0.017796,-0.10556,0.014009,0.0014802,0.020516,0.040269,0.29251
0.047003,0.24874,0.10859,0.043381,0.023252,-0.0048888,0.016995,-0.12028
0.072575,-0.29825,-0.02015,-0.014315,-0.010372,-0.014747,-0.0062551,-0.059684
-0.064215,-0.099112,-0.13905,-0.088392,-0.028744,-0.0087656,-0.060648,-0.11939
-0.26736,0.007014,-0.026795,-0.0065341,-0.00026156,0.013311,0.041334,0.09965
0.01924,0.21233,-0.39837,0.028603,0.020699,0.0047724,-0.012863,-0.1981
0.0147,-0.36081,0.41473,-0.021621,-0.0047041,0.012536,0.011023,-0.010649
0.20268,0.44197,-0.16918,0.093101,0.017379,-0.0025486,-0.004337,-0.0074742
0.25337,0.26809,0.3608,0.052585,0.024427,0.021827,0.0503,0.39974
-0.51524,-0.51524,-0.29895,-0.14323,-0.030549,-0.031766,-0.012637,-0.20122
0.58183,-0.18829,0.233,0.02106,-0.014893,-0.0073033,-0.075934,-0.12194
-0.76224,0.27425,0.093415,0.021696,0.00093812,0.0013095,0.016801,0.13725
0.34965,-0.20329,0.057856,0.014586,0.0012304,-0.0059764,0.00017668,0.035762
0.12048,0.10051,-0.23957,-0.024011,-0.0062212,0.0021442,0.015082,-0.1478
-0.15181,0.38339,0.023164,-0.016187,-0.0057525,0.0023594,0.0070392,-0.018324
0.058331,-0.28245,-0.43195,0.03013,0.01832,0.0026231,-0.0082509,0.061256
-0.074539,0.088495,0.15071,-0.025702,-0.0042823,0.0030345,0.00034862,0.025218
0.014803,0.0044613,0.38106,0.050756,0.020162,0.027045,0.079416,0.5587
-0.046514,0.043453,-0.003391,0.0018125,0.013424,-0.003556,-0.029279,-0.63626
0.078432,-0.3653,-0.075611,-0.047371,-0.032467,-0.018626,-0.044915,-0.15299
-0.1421,-0.042772,-0.14173,-0.018486,0.0073098,-0.018374,0.0009458,-0.31776
0.53205,0.088348,0.070513,0.018342,-0.015829,0.0048186,-0.048039,0.35666
-0.12106,0.39419,-0.28459,0.055479,0.015237,0.027391,0.042684,0.4204
-0.26151,0.037435,0.28157,-0.02411,-0.0088351,-0.013176,0.00010205,0.11865
-0.13506,-0.42109,-0.11977,-0.071876,-0.025412,-0.023026,-0.011142,-0.11673
0.19321,0.46989,0.29185,0.099747,0.03602,0.037118,0.040808,-0.34705
-0.23866,-0.4007,0.06781,-0.040477,0.0038169,-0.027758,-0.031051,-0.033023
0.35913,-0.04971,0.070083,-0.016014,0.0031838,0.0092357,0.031371,0.090514
-0.37827,0.19422,-0.35584,-0.006625,-0.012611,-0.015664,-0.029741,0.14767
-0.0099375,-0.13728,0.081166,0.02664,-0.004448,0.0071333,0.0040837,-0.32359
