0.034143,0.096367,0.27352,0.081281,0.007305,0.012236,0.0051902,0.011999
0.0053957,-0.025646,-0.24347,-0.1643,-0.043835,-0.054029,-0.041126,0.0058061
0.0013318,0.041255,0.28064,0.22313,0.062912,0.029272,0.0068273,-0.015646
-0.025549,-0.039677,-0.31198,-0.21072,-0.056596,0.0033009,0.01575,-0.0058495
-0.036887,-0.089674,-0.14015,-0.13081,-0.036576,-0.031406,-0.030375,-0.027692
0.013551,0.038892,0.25569,0.1812,0.051475,-0.013168,-0.030185,-0.003368
-0.023139,0.025191,-0.093988,-0.087024,-0.027539,0.01067,0.016338,0.020065
0.063749,0.087862,0.49828,0.33088,-0.00029673,-0.045886,-0.04686,-0.0042885
-0.01483,-0.11653,-0.45112,-0.18896,0.016529,0.083127,0.10082,0.017452
-0.0086494,-0.017015,-0.18286,-0.16868,-0.046336,-8.6381e-05,0.014336,-0.01603
-0.018895,-0.073673,-0.07786,-0.1305,-0.054717,-0.068154,-0.040517,-0.010678
0.0095693,0.13619,0.1549,0.18424,0.1178,0.067256,0.037853,0.072888
0.022492,0.050647,0.34498,0.28356,0.042727,-0.038446,-0.086588,-0.077545
-0.042271,-0.12703,-0.31963,-0.23932,-0.068242,0.021501,0.062556,0.022618
0.057691,0.15748,0.31659,0.098675,0.027276,0.0051603,-0.014889,-0.0092954
-0.052555,-0.15912,-0.4514,-0.2746,-0.092977,-0.032802,-0.037786,-0.032619
0.017536,0.10179,0.3893,0.26386,0.070143,0.0089275,0.01728,0.04634
0.041212,0.056331,0.17954,0.11859,0.085807,0.028377,0.017574,0.02431
0.018236,-0.030656,-0.13768,0.02302,0.015318,0.071949,0.057006,0.026076
-0.1063,-0.16723,-0.51658,-0.42113,-0.1892,-0.14986,-0.090789,-0.08923
0.026827,0.037638,0.15284,0.07659,0.018483,0.034484,0.019692,0.021914
0.0035098,0.014677,0.036889,0.018605,0.060091,0.023214,0.013587,-3.8967e-05
0.011296,-0.039348,-0.017218,-0.045198,-0.040656,-0.027503,-0.015318,0.0010645
0.034669,0.15056,0.18967,0.20839,0.060604,-0.0004956,0.0031963,0.0017619
-0.027805,-0.054905,-0.050101,-0.015428,-0.010386,0.041709,0.022024,0.0020806
0.019291,-0.037806,-0.086214,-0.13788,-0.042007,-0.033795,-0.021681,0.0098888
0.011962,0.10033,0.23758,0.24625,0.12245,0.12437,0.090429,0.056503
-0.081019,-0.063083,0.099047,-0.0062057,-0.063728,-0.069982,-0.071712,-0.076753
0.060656,0.017565,-0.33332,-0.13323,-0.030363,-0.054575,-0.031808,0.00083617
0.030724,0.12194,0.64737,0.4082,0.050318,0.01422,0.014741,0.031573
-0.045829,-0.21242,-0.77511,-0.57266,-0.079945,-0.058843,-0.041317,-0.031273
-0.012758,-0.033617,-0.064247,-0.085513,0.0081074,0.046828,0.01907,-0.015671
0.0049232,0.040491,0.075945,0.041303,0.040727,0.050446,0.055681,0.047267
-0.0084511,0.041061,0.068213,0.07489,-0.021292,-0.01617,-0.0091908,-0.022069
0.025149,0.031013,0.063213,0.13514,0.017386,-0.027442,-0.01115,0.0028663
0.02743,0.018919,0.2826,0.15499,0.03974,0.048365,0.04219,0.020384
-0.033095,-0.049011,-0.13011,-0.18278,-0.10242,-0.069686,-0.060067,-0.01662
0.030802,0.039011,-0.00079453,0.12417,0.067763,0.040369,0.010114,0.024371
-0.023324,-0.013207,-0.15622,-0.11818,-0.035407,-0.051314,-0.044326,-0.036634
0.0074829,0.021353,0.1384,0.059133,0.057009,0.068937,0.06545,0.011052
-0.025246,0.0022991,0.11709,0.061694,0.0013589,-0.013507,-0.012343,0.0032244
-0.019808,-0.125,-0.4631,-0.29141,-0.069531,0.013199,0.0033626,-0.021058
0.031905,0.084682,0.60003,0.34217,0.086482,0.06249,0.049958,0.032093
-0.018143,0.014031,-0.57713,-0.27324,-0.085363,-0.16299,-0.13039,-0.048012
0.017979,0.0066241,0.20789,0.087916,0.039868,0.063108,0.071782,0.035816
0.0469,0.054482,-0.022029,-0.035963,-0.014438,0.0064789,0.00038182,0.018264
-0.05612,-0.15503,-0.087823,-0.051562,-0.02176,0.019055,0.022817,-0.014473
0.03715,0.10454,0.32994,0.16579,0.010036,-0.039214,-0.024756,0.00026821
-0.024906,0.075344,0.19881,0.16261,0.073047,-0.042674,-0.064036,-0.015593
-0.039363,-0.21921,-0.56077,-0.28809,-0.035993,0.14208,0.12381,0.023809
0.01691,0.088054,0.049763,0.03197,-0.020393,-0.03925,-0.047178,-0.030129
0.034165,0.1299,0.38093,0.19276,0.025901,-0.055267,-0.03809,0.0098545
-0.011426,-0.14068,-0.35667,-0.26672,-0.061338,0.031371,0.049272,0.018489
0.028222,0.096442,0.3064,0.22421,0.061546,-0.021925,-0.027575,-0.012303
0.0044204,-0.018407,-0.21407,-0.16957,-0.035127,0.01085,-0.0032999,-0.0046214
-0.012611,-0.024611,-0.048238,-0.017113,0.0003198,0.058781,0.05936,0.033578
-0.069643,-0.078734,-0.036707,0.058036,0.0040312,-0.11303,-0.097545,-0.04618
0.028938,0.061147,-0.21549,-0.12243,0.030969,0.10446,0.049411,0.014006
-0.036733,0.043297,0.34734,0.19247,-0.020117,-0.10914,-0.062155,-0.051277
0.054158,-0.077659,-0.027055,-0.020353,0.022964,0.11358,0.12267,0.1411
0.052058,0.073353,0.13699,0.012164,-0.034798,-0.031557,-0.028625,-0.072544
-0.042741,0.051259,0.25884,0.14837,0.017798,-0.036068,-0.023532,-0.035559
-0.034843,-0.088822,-0.18851,-0.13655,-0.053421,-0.11795,-0.11174,-0.044472
0.060006,0.06001,-0.12287,-0.0471,0.064157,0.16096,0.11324,0.057196
-0.024096,-0.095138,-0.31281,-0.17802,-0.027909,0.012026,0.018751,0.0038652
0.095326,0.0092274,0.02936,0.095356,0.013986,-0.025586,-0.028018,0.037548
-0.16016,-0.016532,-0.017651,-0.046945,-0.037003,0.016594,0.0040648,-0.029646
-0.03295,0.01587,0.30631,0.24757,0.076535,-0.033907,-0.010236,0.020493
0.070616,0.075556,0.19225,0.12077,0.033828,0.079927,0.061591,0.1327
-0.029159,-0.095501,-0.62168,-0.48082,-0.12651,-0.14273,-0.1167,-0.26382
0.10524,0.11121,0.34419,0.2093,0.04829,0.039595,0.048383,0.072852
-0.018424,-0.0010774,-0.056946,-0.058578,-0.035722,0.0092828,-0.013641,-0.060407
-0.025247,0.0033166,0.057469,0.05108,0.0042402,0.024022,0.056544,0.086652
0.02211,0.020961,0.28679,0.19341,0.019883,-0.025353,-0.037884,0.069135
-0.01711,-0.051258,-0.036747,0.030827,0.089598,0.072592,0.02354,-0.010917
-0.064818,-0.13613,-0.20657,-0.20411,-0.067531,-0.048627,-0.016763,-0.03588
0.035357,0.063125,-0.05484,-0.028637,-0.0058383,-0.021013,-0.017873,-0.036676
-0.044429,-0.030895,0.017299,0.064067,-0.021875,-9.2028e-06,0.01272,0.010327
0.055584,0.036309,-0.34248,-0.21518,-0.029455,0.022879,0.028451,0.019248
0.015485,0.10239,0.28124,0.18909,0.034057,-0.045653,-0.056365,-0.0099818
0.0074513,-0.026264,-0.030251,-0.010609,0.020195,0.013253,0.00059647,-0.022856
-0.038702,-0.004501,0.094467,0.031434,0.022504,0.050874,0.043065,0.019412
0.025364,0.0044882,0.19882,0.07503,0.001541,-0.019411,-0.0072887,0.038344
0.011843,-0.053706,-0.23703,-0.12039,-0.035386,0.027953,0.021025,-0.013325
-0.017226,-0.038741,-0.1641,-0.092959,-0.018507,0.0042779,0.0024834,-0.026605
-0.031108,0.048671,0.11324,0.040264,-0.018605,-0.075981,-0.055684,-0.0018192
0.055664,0.10601,0.43723,0.27077,0.10465,0.067486,0.033472,0.037388
-0.0072295,-0.063028,-0.16375,-0.019952,-0.0081447,-0.011159,-0.0039116,-0.026226
-0.063648,-0.068651,-0.19323,-0.13819,-0.044202,-0.046283,-0.027437,-0.051923
0.027165,0.018319,0.017278,-0.085443,-0.088861,0.0017438,0.04103,0.054314
0.023374,-0.0053576,-0.15967,-0.065903,0.014966,-0.045727,-0.056079,0.011612
-0.019831,-0.0065912,0.079567,0.060683,0.065097,0.093897,0.056686,-0.015533
0.0074938,-0.016067,-0.0848,-0.0022326,-9.9343e-05,0.00015224,0.020541,0.012366
0.012126,0.0841,0.26305,0.16029,0.038743,-0.028843,-0.038852,-0.013702
-0.013342,-0.02575,-0.32759,-0.16154,-0.044707,0.015595,-0.003655,0.00028323
-0.006191,-0.0092208,0.13005,0.056805,0.014965,-0.022417,-0.029559,-0.0080315
0.025782,0.0010496,0.15321,0.042649,0.0062008,0.028816,0.016633,0.0082526
0.019908,0.036176,0.16429,0.030627,0.029644,0.035801,0.041317,0.041227
-0.031929,-0.060489,-0.12655,-0.081108,-0.07201,-0.072835,-0.025958,-0.057746
0.0027189,-0.0082668,-0.1976,-0.090176,-0.018523,-0.0014837,-0.0059305,0.0079269
-0.0015094,0.075025,0.39432,0.26022,0.079913,0.037636,0.030413,0.0035275
-0.052736,-0.053386,-0.27459,-0.085668,-0.058466,-0.042528,-0.034944,-0.024449
0.028479,-0.0033298,-0.27575,-0.097456,0.042736,0.069722,0.062773,0.056416
0.0075601,0.013974,0.15646,-0.025658,-0.038194,-0.040071,-0.020917,-0.0042531
0.0093165,-0.056271,-0.17219,-0.136,-0.058644,-0.028104,-0.044299,-0.027087
-0.028952,-0.010912,0.16973,0.13429,0.091351,-0.011092,-0.03874,0.026765
0.15037,0.072047,0.34039,0.19974,0.053069,0.074279,0.042896,-0.038061
-0.085688,0.013094,-0.20559,-0.11099,-0.047865,-0.044405,0.013709,0.020769
-0.049632,0.093704,-0.084699,-0.055275,-0.023401,-0.014495,-0.016109,0.00048571
0.071239,0.017324,0.3357,0.14065,0.025351,0.047816,0.032461,0.026632
-0.16011,-0.2312,-0.38277,-0.20268,-0.088759,-0.044204,-0.011655,-0.064187
0.069493,0.036304,0.27435,0.17277,0.064205,-0.016673,-0.030687,-0.013471
0.0030337,-0.04655,-0.28778,-0.16238,-0.0078082,0.052361,0.022512,0.030934
0.0084054,0.083571,-0.046335,0.050079,0.03896,0.0063756,0.0072535,0.014707
0.039179,-0.041433,-0.056109,-0.064367,-0.030003,0.016697,0.032548,0.031653
0.056336,0.19589,0.19887,0.088453,0.011584,-0.018939,-0.019369,0.0033569
-0.042084,-0.048474,0.094081,0.071266,0.0070631,-0.030928,-0.024158,-0.023902
-0.014662,-0.12689,-0.12015,-0.14727,-0.051873,-0.012044,0.0097553,-0.011845
0.01264,0.10787,0.079531,0.08078,0.037373,-0.017347,-0.027456,0.023084
-0.031426,-0.11906,0.11446,0.028027,-0.022576,0.015526,-0.0032043,0.0098866
0.0086963,0.10504,0.054147,0.1231,0.08817,0.047571,0.027834,-0.051854
-0.039169,-0.080218,-0.33659,-0.16627,-0.075987,-0.038228,-0.012265,-0.037215
-0.034252,0.0043697,-0.011285,-0.090838,-0.054218,0.00050769,0.0096157,0.014993
0.031803,0.015159,-0.0087933,0.036643,0.02857,-0.047027,-0.054637,0.019339
0.10511,0.070026,0.39057,0.23218,0.118,0.14734,0.10774,0.0702
-0.040027,-0.11114,-0.38194,-0.25321,-0.051061,0.013273,0.020361,0.011945
-0.020002,0.019927,-0.011963,0.0038359,-0.017,-0.042983,-0.019831,-0.037742
-0.053025,0.011498,0.16644,0.044098,-0.075928,-0.16198,-0.13,-0.055101
0.033008,-0.025873,-0.18119,-0.12297,-0.031754,0.015888,0.017981,0.0068726
0.034873,0.12733,0.50068,0.37887,0.124,0.037862,0.033505,0.023135
0.014692,-0.012984,-0.15502,-0.090382,-0.014474,0.099695,0.057221,0.032568
0.0031535,-0.040784,-0.21913,-0.13241,0.013844,0.022089,0.026639,-0.011976
-0.078484,-0.058214,0.010489,-0.083956,-0.072602,-0.13223,-0.10514,-0.048316
0.058301,0.058931,-0.25642,-0.016726,0.061435,0.082002,0.06023,0.048228
-0.032165,-0.041742,0.2523,0.13003,0.0087255,-0.030822,-0.024241,-0.019499
-0.014077,-0.071909,-0.074037,-0.051849,-0.013093,0.075633,0.063173,-0.0017081
-0.0045387,0.061601,0.099178,0.021739,-0.036329,-0.091486,-0.076095,-8.2715e-05
0.020119,0.084938,0.4815,0.32582,0.071006,0.037467,0.018799,0.032222
0.028927,-0.056874,-0.56122,-0.40626,-0.066533,-0.014608,-0.019365,-0.029741
-0.0091341,-0.0046712,0.016738,-0.034226,-0.011446,-0.0058304,0.020363,-0.01398
0.0076055,-0.03206,-0.09787,0.036017,-0.013306,0.0169,0.020842,0.0093425
-0.014645,0.040515,0.15728,-0.053925,-0.040124,-0.055543,-0.033514,-0.0065013
0.0098888,0.087986,0.22014,0.28327,0.11992,-0.0039507,-0.0098815,0.0089122
0.002858,-0.077106,-0.22862,-0.08375,0.014511,0.10974,0.060457,0.024384
0.0031232,-0.040505,-0.16422,-0.099011,-0.035429,-0.026407,0.0055587,0.008651
-0.020674,-0.012781,0.15692,0.05081,-0.0061971,-0.013504,-0.018394,-0.0070971
-0.045072,-0.04812,-0.16252,-0.16527,-0.077566,-0.062204,-0.050497,-0.03856
0.023839,0.041541,0.19053,0.17432,0.054766,0.038514,0.010857,0.0079596
0.0066137,0.11608,0.28627,0.15477,0.054281,-0.023961,-0.021705,-0.023796
0.020696,-0.081973,-0.34479,-0.19361,-0.017142,0.046983,0.039518,0.022465
0.019408,0.041243,0.20249,0.065816,-0.0037529,0.016617,0.01507,0.029632
0.065338,0.13406,0.22398,0.10446,0.0082783,-0.0060404,0.022357,0.021227
-0.091545,-0.23349,-0.64018,-0.28066,-0.04341,0.017806,-0.0087716,-0.033931
-0.052927,-0.069553,-0.069351,-0.09654,-0.064542,-0.083815,-0.05479,-0.042053
0.024766,0.094284,0.14075,0.087836,0.0082184,-0.045162,-0.029755,0.012484
0.016348,0.046797,0.17155,0.19588,0.097723,0.087201,0.066258,0.028082
0.046657,0.053388,0.25929,0.072674,-0.02169,0.0090134,0.037792,0.035923
-0.001608,0.0045208,-0.21955,-0.19504,-0.052536,-0.02148,-0.037227,-0.034382
-0.026927,-0.037385,0.095177,0.12717,0.05223,-0.050841,-0.057469,-0.01884
-0.013618,-0.064487,-0.054412,0.007364,0.065723,0.12417,0.054954,0.012204
0.046306,0.064018,-0.044096,0.053717,0.049706,0.011225,0.026398,0.019717
-0.042174,-0.12029,-0.19539,-0.25863,-0.16087,-0.0775,-0.041727,-0.043086
-0.028666,0.054943,0.21701,0.092485,0.0032973,-0.0018467,0.0067533,-0.0041822
-0.014305,0.082421,-0.12041,-0.050005,-0.036744,-0.051366,-0.015661,0.027223
0.024724,0.0017218,0.40121,0.21993,0.054448,-0.0077308,-0.02296,0.02785
0.080854,-0.0070551,-0.32744,-0.13635,0.034573,0.10531,0.070909,-0.010003
-0.0099339,-0.029582,-0.10258,-0.00075618,0.013236,0.0063532,0.00045172,-0.0081723
-0.036886,-0.026706,-0.063839,-0.090892,-0.048163,-0.078097,-0.054525,-0.03701
-0.016008,-0.029767,-0.014844,-0.030661,-0.0084392,0.023897,0.031067,0.028371
-0.018128,0.031271,0.27947,0.2119,0.062609,-3.9676e-05,-0.016159,0.00029426
0.01869,-0.008119,0.045665,-0.011546,-0.029981,0.022129,0.014743,0.011349
-0.0076554,0.023296,-0.11563,-0.11573,-0.067359,-0.04224,-0.024694,-0.024656
0.011768,0.0075555,-0.057755,-0.0082614,0.028426,0.01794,0.013903,0.0092075
0.053216,0.19384,0.58416,0.39497,0.13975,0.023091,0.013255,0.026754
-0.055325,-0.22325,-0.65324,-0.41582,-0.13241,-0.018904,-0.01112,-0.034722
0.0064953,-0.025468,-0.15472,0.0029623,0.094105,0.056049,0.042237,0.035581
-0.03456,-0.064525,-0.10113,-0.14667,-0.11873,-0.11922,-0.092375,-0.051449
0.017152,0.089495,0.19487,0.15055,0.025675,0.080292,0.069391,0.024555
0.029222,0.12464,0.80438,0.34826,0.10551,0.029629,0.019761,0.021555
-0.01357,-0.12242,-0.56016,-0.27889,-0.14443,-0.075848,-0.053661,-0.021154
-0.0093204,-0.033716,-0.24051,-0.12761,-0.035954,-0.0017008,-0.010095,-0.009539
0.018758,0.078888,0.11711,0.093157,0.10368,0.0099375,-0.0056189,0.002013
-0.015182,-0.026387,-0.15695,-0.059945,-0.0059608,0.029406,0.022417,0.013778
0.029452,0.049014,0.30645,0.18038,0.057648,0.0098207,0.011602,-0.0052734
0.011919,0.023692,0.0087778,-0.051897,-0.01765,0.044907,0.047884,0.023129
-0.067923,-0.13394,-0.22103,-0.060895,-0.044326,-0.045016,-0.02503,-0.018135
0.016385,0.036656,0.14838,0.067405,-0.00699,-0.041098,-0.027501,-0.011876
0.014818,0.042932,0.022702,-0.0347,0.047101,0.049093,0.03268,0.010617
0.0055729,0.040938,0.12748,0.10854,-0.0074515,-0.055285,-0.047461,0.010228
0.020058,-0.06307,-0.12446,-0.13658,-0.045951,0.029105,-0.0019982,-0.0052771
-0.050896,-0.050127,-0.36711,-0.18497,-0.052926,-0.025323,0.0054158,-0.020309
0.0038454,0.04108,0.28139,0.16583,0.018485,-0.069734,-0.063859,-0.019273
0.020349,0.01569,5.0795e-05,0.032439,0.058966,0.12255,0.071722,0.021217
-0.016998,-0.032135,-0.047448,-0.015292,-0.025193,-0.042528,-0.017495,-0.0004944
0.07136,0.085383,0.21679,0.17061,0.1097,0.13745,0.10568,0.063877
-0.042967,-0.030117,-0.043281,-0.10563,-0.067781,-0.072938,-0.028174,-0.028058
-0.0087737,-0.019386,-0.054257,-0.024043,0.0045995,-0.010817,-0.021512,-0.018704
0.0016962,0.039161,0.10585,0.0011309,-0.017158,-0.060051,-0.047176,-0.017615
-0.0040458,-0.073593,-0.40641,-0.10807,-0.05506,-0.010382,0.003406,-0.0014389
0.0050878,0.048243,0.19067,0.070749,0.031579,0.0052382,-0.0030324,0.0064251
0.0056719,-0.017489,-0.039837,-0.0084572,0.032094,0.03412,0.019453,0.013955
-0.048988,-0.11472,-0.058417,-0.15723,-0.11559,-0.055651,-0.014606,-0.017654
0.013282,0.15488,0.46324,0.34406,0.12022,-0.044182,-0.080944,-0.0099909
0.028756,-0.044669,-0.25632,-0.22278,-0.033554,0.14776,0.10268,0.029373
0.0055291,0.020925,-0.022346,0.032968,-0.0064919,-0.04153,-0.033107,-0.016616
0.021879,0.10937,0.26601,0.29059,0.11528,0.021097,0.027969,0.023899
-0.023772,-0.17789,-0.49347,-0.30228,-0.090587,0.022929,0.051785,0.0023103
-0.0066029,-0.028478,-0.043339,-0.0357,-0.015392,-0.028872,-0.016542,-0.0035451
0.034027,0.17472,0.28831,0.09715,0.043263,0.0054146,0.0099301,0.0059941
-0.058472,-0.15422,-0.16225,-0.16234,-0.08712,-0.05481,-0.064872,-0.039695
-0.003155,0.0082388,0.10544,0.060312,0.0071242,-0.030547,-0.038594,-0.00019719
0.035708,0.084139,0.3183,0.25708,0.075894,0.038828,0.017849,0.015043
0.011172,-0.0044455,-0.13297,-0.11108,-0.029056,-0.0028238,0.018184,-0.0017093
-0.0063697,0.031761,-0.38928,-0.12995,-0.018239,0.0090311,0.017067,0.0044277
-0.032332,-0.064851,0.033108,-0.057123,-0.00046987,0.0047731,0.014727,-0.0053536
0.003902,-0.051906,0.031728,0.013859,-0.029855,-0.014861,-0.019681,0.0082642
0.03236,0.086382,0.45712,0.31754,0.11286,0.036682,0.023699,0.029859
-0.048205,-0.095192,-0.21512,-0.16157,-0.056337,-0.035535,-0.057786,-0.049825
0.03588,0.036213,-0.11851,-0.1108,-0.021621,0.081083,0.05657,0.019247
0.034729,0.12114,0.16086,0.17325,0.060826,0.0035709,0.023295,0.0261
-0.043862,-0.12965,-0.32952,-0.28541,-0.10588,-0.096501,-0.063706,-0.037146
-0.0047025,0.049202,0.16188,0.14686,0.056391,0.014904,0.014353,0.0091328
0.042643,0.12619,0.27019,0.21341,0.047674,-0.045301,-0.023836,0.00085142
-0.034831,-0.1801,-0.32197,-0.22505,-0.038154,0.074296,0.055971,0.0083541
-0.0028956,0.013152,-0.03344,0.0047009,-0.060283,-0.040411,-0.019851,-0.022963
-0.010054,-0.036036,-0.18975,-0.15094,0.012718,0.032464,0.014098,0.0085721
-0.0015967,0.024253,0.31227,0.089843,-0.0065572,-0.035222,-0.053373,-0.0063183
0.014746,0.061612,0.20714,0.21122,0.069292,0.037667,0.011844,0.010531
-0.015617,-0.025206,-0.069081,-0.04571,-0.010089,0.016514,0.014165,0.0043828
0.04019,0.045153,0.18381,0.098398,0.043737,0.018166,0.039271,0.021961
-0.013157,-0.047793,-0.48332,-0.24175,-0.059116,-0.012423,0.0010085,-0.0072815
0.0039265,0.039286,0.08172,0.064028,0.024218,-0.044272,-0.022634,-0.013305
-0.018107,-0.030112,-0.030819,-0.033467,-0.050778,-0.014947,-0.039491,-0.011983
0.02991,0.079405,0.20798,0.10483,0.051361,0.013255,0.02869,0.019957
-0.031904,-0.070009,-0.062057,-0.037193,-0.013165,0.025181,0.010306,-0.011271
-0.031805,-0.064296,-0.19171,-0.11511,-0.056436,-0.048805,-0.031751,-0.027443
0.030165,-0.012431,0.047771,0.0056742,0.00051274,-0.0048314,-0.003283,0.0029016
0.029065,0.070724,0.30793,0.13242,0.033804,0.06401,0.033631,0.025339
-0.027146,-0.032604,-0.23586,-0.10695,-0.010048,-0.029354,-0.022261,-0.0067531
0.041433,0.076992,0.19314,0.1341,0.057517,0.051105,0.040119,0.039612
-0.038383,-0.076325,-0.27756,-0.071989,0.026286,0.0082459,0.0097738,-0.0073785
-0.00070645,-0.0079029,-0.18574,-0.1382,-0.064426,-0.049134,-0.03541,-0.022779
-0.024993,0.024157,0.21062,0.052458,-0.07426,-0.035869,-0.025487,-0.030172
0.013924,0.065866,0.33167,0.20945,0.074151,0.02377,0.023506,0.017126
0.014543,0.029966,0.025945,0.0020818,0.0281,0.0040293,0.0096206,0.0095518
0.023665,-0.014792,-0.046249,0.0131,0.0049677,0.029336,0.018504,0.017269
-0.0057979,-0.12461,-0.25589,-0.16702,-0.0044598,-0.025647,-0.028126,-0.0066779
0.0039471,0.043066,0.018987,-0.0097482,-0.017021,-0.043815,-0.052165,-0.015418
-0.056871,-0.098365,-0.17637,-0.10272,-0.056982,0.029664,0.024612,-0.024506
0.022294,0.06044,-0.11536,0.014653,0.031611,0.031058,0.038313,0.020871
0.045816,0.13724,0.32859,0.17147,0.038127,0.015516,0.036011,0.027119
-0.017725,-0.015323,0.14256,0.033877,-0.013107,-0.016403,-0.036788,-0.013418
-0.019876,-0.098995,-0.1547,-0.12189,-0.026981,-0.0015721,-0.00021548,0.000958
-0.015109,-0.0028899,0.0023036,-0.0037682,-0.017468,-0.025239,-0.018148,-0.015586
0.028216,0.040053,0.17835,0.11755,0.04839,0.038332,0.034635,0.030774
-0.0222,-0.06274,-0.37521,-0.2246,-0.062257,-0.044478,-0.021275,-0.016164
-0.0017493,0.072302,0.35758,0.24436,0.073581,-0.0073369,-0.037113,-0.023554
0.011923,-0.023339,-0.13949,-0.037977,0.0033218,0.017507,0.018708,0.0086223
0.0035186,-0.014055,-0.1098,-0.064715,-0.023145,-0.024326,-0.017602,-0.0055789
0.0043913,-0.0022535,-0.15652,-0.064113,-0.014374,0.023346,0.033759,0.011923
0.030032,0.096795,0.39058,0.14136,0.036193,0.050631,0.032038,0.037593
-0.0058411,0.0083096,-0.094956,-0.052061,-0.021461,-0.0059543,-0.0075642,-0.014666
-0.041214,-0.0736,0.065579,0.064684,0.0063003,-0.05404,-0.054509,-0.043504
0.00932,0.014329,0.17653,0.07633,0.016381,0.0063069,0.0074566,0.0055221
-0.0031572,-0.11093,-0.68354,-0.44716,-0.093978,0.032795,0.060113,0.022783
-0.0086933,-0.03488,0.033418,0.033786,0.010445,0.031776,0.016554,0.015866
0.0081364,0.18093,0.67286,0.43443,0.095101,-0.099326,-0.10833,-0.038837
-0.0073935,-0.12631,-0.41174,-0.19678,-0.03496,0.068796,0.07575,0.030465
0.046381,0.075886,0.17978,0.14956,0.066401,0.028701,0.014267,0.012863
-0.064712,-0.0084713,0.057933,-0.048703,-0.091822,-0.13255,-0.12021,-0.060237
0.065849,0.019408,-0.39412,-0.19701,0.0073884,0.11805,0.1188,0.061449
0.00087303,0.04986,0.27618,0.048592,-0.017354,-0.053294,-0.032833,-0.020123
-0.024938,-0.035157,-0.010677,0.015884,-0.047584,-0.074027,-0.065721,-0.023246
-0.034695,-0.025929,0.0011096,0.094665,0.089509,0.096849,0.060624,-0.0021505
0.018772,0.037163,0.33267,0.14317,0.042814,-0.0081062,-0.012165,0.020106
-0.059624,-0.15952,-0.57287,-0.29296,-0.06279,0.017783,0.020991,-0.026568
0.058343,0.070799,0.095244,0.074206,0.0064049,0.0098913,0.019143,0.029708
0.052292,0.09508,0.26576,0.12668,0.085246,-0.017627,-0.03434,0.0090101
9.3476e-05,-0.062946,-0.24105,-0.19058,-0.069768,0.10497,0.093381,0.035891
0.0028935,0.019291,0.020954,0.083549,0.0088237,-0.054395,-0.029173,-0.0074202
-0.088252,-0.047908,0.12356,-0.019105,-0.070651,-0.09953,-0.091237,-0.066843
0.0074067,-0.029214,-0.13449,-0.028929,-0.027587,-0.0086519,0.007392,-0.0022621
0.039468,0.12304,0.35026,0.10967,0.051886,0.014315,0.015962,0.01413
0.0077047,-0.012517,-0.21744,-0.055688,0.027361,-0.0070281,-0.034312,0.0056928
0.0058486,0.0095412,-0.078666,0.12382,0.047782,0.029924,0.029097,0.011646
-0.020601,-0.084449,-0.22519,-0.17997,-0.026835,0.048731,0.035501,0.001077
-0.024418,0.0096984,0.14727,-0.014432,-0.0396,-0.042368,-0.021429,-0.017768
-0.020773,-0.03678,0.037536,-0.04446,-0.060299,-0.030496,-0.0073612,0.0024328
0.061121,0.095793,0.3734,0.23671,0.12237,0.062483,0.032131,0.03862
0.026368,0.04755,0.090114,0.062407,0.00079452,-0.035888,-0.027048,-0.018318
-0.038789,-0.13487,-0.51759,-0.21656,-0.034339,0.080926,0.042062,-0.0041863
0.037694,0.11893,0.25195,0.15737,0.016974,-0.064029,-0.057531,-0.0049144
-0.064456,-0.14374,-0.40628,-0.28413,-0.064002,0.012686,0.032975,-0.012769
0.021893,0.038791,0.1494,-0.016478,-0.019375,-0.0027016,0.031438,0.026807
-0.023688,0.042426,0.20253,0.24332,0.018199,-0.12719,-0.11788,-0.042577
0.0017822,-0.10068,-0.37656,-0.21365,0.0020489,0.13798,0.10742,0.021142
0.074709,0.21957,0.65758,0.38798,0.11988,-0.0050229,-0.027903,0.022558
-0.039439,-0.1058,-0.30168,-0.16123,-0.02661,0.013602,0.0068289,0.00067821
-0.0048827,-0.061223,-0.28396,-0.2355,-0.085798,-0.024944,0.0004647,0.0023622
-0.040522,0.024697,0.29684,0.14164,-0.0030497,-0.034302,-0.039023,-0.042685
