0.041808,0.00065245,-0.046182,-0.045699,0.0088332,0.0033102,0.063919,0.039364
-0.33723,-0.044064,0.02019,0.035371,0.016963,0.0035568,0.016217,-0.049471
0.25897,0.043549,0.0072544,-0.018021,-0.006619,0.011475,0.053143,0.29422
0.033304,-0.072631,-0.046201,-0.0027921,-0.046263,-0.043084,-0.13044,-0.30468
-0.23281,-0.02548,0.023869,0.018821,-0.00022175,0.019815,0.051496,-0.032532
0.27371,0.060071,0.022406,-0.0073283,0.014649,-0.010485,-0.1659,-0.13688
-0.31361,-0.0033099,0.0045841,-0.010191,-0.0012377,0.0068852,-0.054697,-0.23145
0.052774,0.034586,0.041357,0.026661,-0.00061458,0.0095596,0.26182,0.50012
0.091801,-0.036993,-0.11659,-0.067922,0.01678,0.0053003,-0.0037476,-0.14199
0.29518,0.047691,0.015699,0.034669,-0.0037045,-0.029602,-0.20181,0.00035533
-0.43211,-0.023838,0.040146,0.037677,0.039251,0.06843,0.13666,-0.11206
-0.045049,-0.18133,-0.082313,-0.082664,-0.081428,-0.084063,0.0031021,0.37775
0.69646,0.27825,0.18696,0.13381,0.07886,0.098158,0.075412,0.17643
-0.54519,-0.15304,-0.106,-0.087448,-0.035365,-0.033964,0.093283,-0.072852
0.71386,0.1654,0.02989,0.025727,-0.02638,-0.090202,-0.21165,-0.38306
-0.70494,-0.039805,0.054384,0.081553,0.066265,0.10125,0.12697,-0.12524
-0.43134,-0.32312,-0.095975,-0.076981,-0.030992,-0.037387,-0.11116,-0.066748
-0.20286,0.1752,0.039293,-0.012508,-0.0053376,-0.0054018,-0.074829,-0.20699
0.75153,0.18216,0.015118,-0.0056429,0.0033569,0.041977,-0.15376,0.51126
-0.19608,-0.14554,-0.09718,-0.094085,-0.058496,-0.11285,0.1774,-0.22083
0.44181,0.028335,-0.1475,-0.057196,-0.033377,0.023388,0.21013,0.32702
0.056195,0.1179,0.44431,0.31801,0.10335,0.029573,-0.2719,0.19685
-0.33209,-0.3224,-0.45256,-0.31046,-0.077152,0.023165,0.3347,-0.21904
0.068662,0.23037,0.077459,0.03503,0.07389,0.089774,-0.25815,-0.17805
-0.15446,0.12698,0.3319,0.26863,0.087391,-0.044936,0.1449,0.053695
0.39017,-0.24288,-0.13497,0.0065516,-0.11571,-0.038517,-0.035003,0.13159
-0.66238,0.057331,-0.019939,-0.12807,0.056953,0.013844,0.099426,-0.43728
0.39549,-0.051392,-0.051836,-0.04388,-0.013313,0.0015282,-0.23424,0.049921
-0.44462,0.16472,0.11826,-0.032378,-0.030973,-0.060604,-0.26342,-0.12538
0.24123,0.072622,-0.059024,0.045055,0.042164,0.11642,0.49588,0.75599
0.15249,-0.2102,-0.069903,-0.0081131,-0.13008,-0.19333,-0.31557,-0.21181
0.11476,0.0045703,-0.22776,-0.18434,-0.047302,0.050416,0.34173,0.0026359
0.21161,0.062023,0.43634,0.32169,0.13514,0.060167,-0.14879,-0.13207
-0.36472,-0.10648,-0.37332,-0.23872,-0.019135,0.0015191,-0.075727,-0.46007
-0.22801,0.00080582,0.13408,0.073594,0.022145,-0.014982,0.1002,0.33846
0.076584,0.15101,0.15582,0.080591,0.079979,0.065879,-0.14458,0.24742
0.61148,-0.029945,-0.19695,-0.060089,-0.032921,0.056361,0.087844,0.11012
-0.72666,-0.12005,0.022422,-0.042788,-0.10586,-0.18512,-0.039268,-0.65976
0.074607,0.12996,0.28344,0.219,0.12626,0.16027,0.098075,0.29674
0.83933,0.16394,0.11772,0.06934,0.014419,-0.010716,0.0223,0.11977
-0.95253,-0.19975,-0.29484,-0.25713,-0.11364,-0.082405,-0.079908,-0.011566
0.42933,0.036937,-0.13357,-0.14279,-0.023549,-0.016805,0.18948,0.16766
0.25521,-0.072939,-0.12431,-0.0010868,-0.050812,-0.048717,-0.37252,-0.20262
-0.91415,-0.077193,0.046372,0.11399,0.04751,0.048683,-0.030817,-0.083951
0.47575,0.024047,-0.011263,-0.070523,0.0066481,0.018407,0.33296,0.085864
0.40272,0.075152,0.25775,0.19527,0.092903,0.0022489,-0.2876,-0.091548
-0.59964,0.030389,-0.061428,-0.027123,-0.0059733,0.056133,0.39011,0.12647
0.096655,-0.046411,0.16969,0.065059,0.022218,-0.037633,-0.23448,-0.19678
0.40088,0.017828,-0.10691,-0.069932,-0.034287,-0.012708,-0.098375,0.2366
0.04229,0.098943,0.089114,0.025876,-0.004781,0.053086,0.27493,0.20895
-0.16448,0.03324,0.27734,0.2561,0.054819,-0.012192,-0.20883,-0.32554
-0.20233,-0.17153,-0.58412,-0.44343,-0.1143,-0.013553,0.12923,-0.22535
-0.093814,0.06238,-0.1213,-0.088664,-0.043902,-0.06862,-0.20391,0.25245
-0.096307,-0.085828,-0.028489,-0.014376,0.016042,0.033125,0.36135,0.10833
0.59491,0.023991,0.056591,0.055204,0.027042,-0.021137,-0.56606,-0.032566
0.081139,0.07897,0.28641,0.22457,0.044698,0.010583,0.35743,0.063988
-0.73971,-0.11644,-0.014501,0.019959,-0.00027776,-0.012447,-0.05567,-0.30562
0.30358,0.10171,0.10267,-0.0096667,0.025819,0.08158,-0.05528,-0.063999
0.014933,0.022445,0.038515,0.042931,-0.009223,-0.012084,0.28047,0.3817
0.10456,-0.033832,-0.050082,-0.025463,0.0042286,-0.020056,-0.29075,-0.071011
0.095232,0.10498,0.094098,0.081173,0.027074,0.049853,0.12928,0.30364
-0.0058112,0.0018572,-0.3349,-0.21639,-0.050267,-0.060033,0.11072,-0.38544
-0.27717,-0.20965,-0.041484,-0.03616,-0.032701,-0.021257,-0.10418,-0.19294
-0.086454,0.088659,0.22354,0.066985,0.0093385,-0.0051492,0.00066405,0.053474
0.026724,-0.10208,-0.21964,-0.10953,-0.04131,-0.034456,-0.19104,-0.098537
0.17874,-0.015284,0.074717,0.060362,0.05767,0.047767,-0.47497,0.38304
0.10272,0.076075,-0.088174,-0.10189,-0.037358,-0.031424,0.80635,-0.103
9.1875e-05,0.02317,0.12776,0.11531,0.017324,0.0093202,0.099176,-0.049144
-0.099827,0.051144,0.09676,0.20392,0.065161,0.075806,-0.064803,0.12167
0.59805,0.18105,0.15293,0.061004,0.019605,0.034215,-0.17796,0.18913
-0.58709,0.050543,0.0044237,-0.0032783,-0.026463,-0.030975,0.079343,-0.25468
-0.20999,-0.12464,-0.0629,-0.24178,-0.01933,-0.0042484,-0.72356,0.062502
-0.33195,-0.23746,-0.005073,0.15526,0.01668,-0.019981,0.64665,-0.28146
0.033616,-0.1484,-0.36302,-0.27508,-0.083096,-0.079317,0.16551,-0.24661
0.44411,-0.01328,-0.14488,-0.15076,-0.045399,-0.010874,-0.12108,0.45022
0.40207,0.2479,0.2054,0.24748,0.10661,0.068413,-0.050033,0.20218
0.5422,0.11466,0.096821,0.0072296,-0.048257,-0.059268,-0.19267,-0.25389
-0.46258,0.15298,0.47041,0.38862,0.10812,0.084074,0.14523,-0.11932
-0.72117,-0.18842,-0.40459,-0.32459,-0.01697,0.0078988,-0.59223,0.3253
-0.38971,-0.17229,-0.08763,-0.067697,-0.10227,-0.04402,1.1172,-0.2176
0.28964,0.1096,0.024905,-0.13599,0.0013868,-8.8886e-05,-0.30584,-0.0077661
-0.034884,-0.14651,0.066637,0.19008,0.021012,-0.0079219,-0.064983,0.19423
0.90157,0.12946,0.091819,0.027698,0.042643,0.05779,-0.11316,-0.036472
-0.027589,0.10025,-0.026057,0.13403,0.034826,0.0093906,-0.12075,-0.053876
-0.16854,0.044854,-0.00021832,0.16429,0.036196,0.0026331,-0.022294,0.14857
-0.13352,-0.12553,-0.37243,-0.46849,-0.094405,-0.064709,-0.094814,-0.46
-0.14379,0.10161,0.1905,0.016199,-0.021536,0.0098228,0.1979,0.20846
-0.25547,-0.12035,0.38146,-0.0068717,-0.019001,-0.063385,-0.13936,-0.116
0.0082084,-0.16872,-0.45758,-0.068717,-0.032306,-0.0034844,-0.063867,-0.1246
-0.1008,0.15037,0.37558,0.24522,0.047864,0.032976,0.44942,0.15522
0.25674,0.078564,-0.032921,0.099443,0.11994,0.14727,-0.084847,0.41347
0.62381,0.01464,-0.0019681,-0.037227,-0.10521,-0.16097,0.056336,0.10387
-0.42552,-0.048196,-0.26336,-0.13397,0.028516,0.076518,-0.25772,-0.34543
-0.060261,-0.030339,-0.44645,-0.012004,0.013036,0.015398,0.18488,-0.015911
-0.27104,-0.00039091,0.49941,0.24938,0.043365,0.0066871,-0.50557,-0.099564
-0.0031222,0.019956,0.022922,-0.29624,-0.083852,-0.028096,0.39171,-0.10889
0.14051,-0.037979,0.29044,0.014442,-0.024916,-0.034258,0.2402,0.13958
0.41504,-0.032131,-0.18171,0.064095,0.0016213,0.0043021,-0.070551,0.19011
0.12956,0.29656,0.011672,-0.045151,0.0040302,-0.05989,-0.39037,0.0028989
-0.45392,0.01949,0.055626,0.24261,0.084532,0.079194,-0.12129,-0.014564
-0.19804,-0.33105,-0.16253,-0.29752,-0.021748,-0.006631,0.086379,-0.34356
-0.44119,-0.11346,-0.013344,-0.062186,-0.056294,-0.042549,0.051755,0.020348
0.39338,-0.030012,0.10202,0.25487,-0.0029514,-0.004162,0.7341,0.066505
0.80532,0.13858,-0.25557,-0.10317,-0.0021004,0.030707,-0.50255,0.15886
-0.14233,0.26724,-0.15679,0.027933,0.086787,0.10065,-0.22603,-0.066552
-0.6124,0.073812,0.53968,0.022449,-0.025791,-0.022127,0.33727,0.086692
0.22503,-0.24823,-0.10238,0.0038315,-0.028057,-0.034693,-0.3849,0.10165
-0.11221,-0.23278,-0.37066,-0.0065512,0.00098082,-0.024983,0.46342,-0.02528
-0.11386,0.29676,0.68898,0.31724,0.029182,-0.026089,-0.12193,-0.32275
0.11308,0.0091414,-0.44661,-0.511,-0.037944,0.030981,-0.17618,0.33627
-0.28104,-0.020058,-0.25444,-0.10181,-0.052422,-0.096505,-0.33527,-0.25645
0.43933,-0.011117,0.20196,0.11493,0.055956,0.1465,0.78191,0.45837
0.59474,0.1218,0.48381,0.36647,0.05308,-0.066918,-0.53567,0.027272
-0.331,-0.2292,-0.2459,-0.11925,-0.037023,-0.0083295,0.12753,-0.35926
-0.48731,-0.17836,-0.19851,-0.22324,-0.088535,-0.066144,0.28972,-0.36702
-0.1486,0.082988,0.071941,0.22044,0.16509,0.16026,-0.73347,-0.48005
0.17674,0.19193,-0.24526,-0.1616,-0.11903,-0.10079,0.26398,0.64611
-0.18331,-0.035244,0.11825,0.053638,-0.033946,-0.059174,0.26832,0.041778
0.14633,0.044548,-0.20938,0.05418,0.061325,0.074258,-0.31384,0.093051
0.25145,0.025678,0.22776,-0.10545,-0.0051074,0.048626,0.81295,0.66569
0.029741,-0.16358,0.20477,0.066186,0.0085191,0.01845,-0.073024,0.13635
0.26877,0.27046,0.30764,0.27101,0.11707,0.051764,-0.82717,-0.22347
-0.095974,0.14373,-0.098202,-0.21892,-0.016348,0.0055477,0.63263,-0.51869
-0.43375,-0.29063,-0.60196,-0.20184,-0.1505,-0.16132,-0.90749,-0.39229
-0.2929,-0.23204,0.0031748,-0.085063,-0.059584,-0.090824,0.64477,-0.30454
0.61525,0.043344,0.18952,0.2088,0.076249,0.06815,-0.24943,0.476
-0.18499,0.15175,0.22689,0.12471,0.0068925,-0.012106,0.46614,-0.072818
-0.23072,-0.0075095,0.1129,0.11571,0.068464,0.028829,-0.37024,0.3896
0.082162,-0.010174,-0.2392,-0.26333,-0.027749,0.10634,-0.013981,0.2448
0.13893,0.0064379,-0.20355,0.0035435,-0.031352,-0.020531,0.20082,-0.25807
-0.011797,0.03026,-0.10585,-0.0050574,0.02674,0.055344,0.032899,0.10598
0.34929,0.05666,0.28397,0.063064,0.0061351,-0.056242,0.20087,-0.0019433
-0.32534,-0.0057878,0.05586,0.028953,0.016346,-0.011506,-0.43682,-0.16447
0.1111,-0.023056,0.041766,-0.020687,0.0027764,-0.021554,-0.26431,-0.47343
0.09411,-0.12788,-0.044351,-0.05389,-0.034462,-0.008398,0.67042,0.38453
-0.46399,0.077299,-0.099087,-0.046645,-0.087368,-0.073511,-0.21116,0.12036
0.06878,0.09877,0.11245,0.079526,0.055287,0.03353,-0.0019902,-0.30553
0.17717,-0.018359,-0.16042,-0.089345,0.026679,0.086901,0.12042,0.59031
0.065928,-0.049138,0.40885,0.3216,0.053757,-0.029642,-0.37945,-0.15412
-0.15302,0.083421,-0.29122,-0.031688,0.0040504,-0.033884,-0.059534,0.06177
0.27331,-0.24615,-0.33312,-0.30576,-0.044078,0.059339,0.30377,-0.4814
-0.23046,-0.037659,0.28121,-0.032049,-0.067087,-0.085476,-0.23059,-0.06502
-0.22484,0.076761,-0.16851,-0.046465,0.005288,0.039448,-0.18333,0.17052
0.43149,0.20732,0.40257,0.24495,0.079101,0.050748,0.5397,0.014633
-0.18418,0.034344,-0.13111,-0.040354,-0.010044,-0.029158,0.23311,0.10013
0.13674,-0.020103,0.14435,0.23846,0.073355,0.06399,0.079732,0.34036
-0.23434,-0.26891,-0.3254,-0.34829,-0.13213,-0.12445,-0.36431,-0.18045
0.19057,0.091709,0.05419,-0.0039625,-0.0098044,0.013424,-0.50439,-0.16021
0.50114,0.16215,-0.067209,0.020945,0.049304,0.054559,0.23124,0.085338
-0.57145,-0.011879,0.17134,0.069509,0.013649,-0.0018201,-0.052999,-0.13477
0.064834,0.13131,0.029251,0.25813,0.047142,0.023718,0.15547,0.01991
-0.62904,-0.31475,-0.1796,-0.28899,-0.053341,-0.09513,-0.17582,-0.48477
-0.22189,-0.15426,-0.15755,-0.080345,-0.0533,0.009526,0.54723,0.45041
0.94485,0.1842,0.26723,0.024211,-0.0072009,0.018374,-0.033378,0.40958
0.28751,0.045807,0.50781,0.1651,0.085215,0.065341,-0.39217,0.008739
0.0028669,-0.021237,-0.53138,-0.024764,-0.0023777,-0.036032,0.03569,-0.39313
-0.26813,0.054196,-0.016803,0.040898,0.011442,0.019747,-0.02857,0.24371
-0.45582,0.068997,-0.3026,-0.21548,-0.084186,-0.071526,0.0034223,-0.48494
0.10275,-0.008896,0.14802,-0.011952,0.038855,0.088728,0.11836,0.19015
0.27393,0.037868,0.39593,0.2069,0.021125,0.03162,0.18552,0.016226
0.10471,0.043698,0.06551,0.066776,-0.0046255,-0.10254,-0.34011,0.14785
-0.20816,-0.062833,-0.030115,-0.056689,0.016279,0.03746,0.1212,-0.041317
-0.14616,-0.25852,-0.42025,-0.15516,-0.033252,-0.040838,0.20367,-0.013969
0.10719,-0.011231,-0.0079528,-0.056348,0.011081,0.021834,-0.45862,-0.10127
-0.11552,0.079316,0.17183,0.17756,-0.022223,0.030241,0.29173,0.1293
0.11166,-0.054799,-0.2828,-0.1173,-0.0076851,-0.031028,-0.036499,-0.056279
-0.13043,0.19806,0.17882,0.22313,0.047381,0.002358,0.20589,0.035097
0.30724,-0.02004,0.14496,-0.13724,-0.028486,-0.017828,-0.19946,-0.16371
0.0086289,0.025413,0.1002,-0.08942,-0.0085048,0.064708,-0.29953,0.11424
0.14117,0.10653,0.21429,0.12386,0.0056891,-0.031476,0.11583,0.38492
-0.15302,-0.0057813,-0.26701,-0.021569,0.013677,-0.01778,0.45135,-0.15588
-0.37333,-0.11156,-0.154,-0.1906,-0.016546,0.026975,-0.037505,0.18891
0.37962,-0.049734,0.023954,0.13144,0.038998,-0.015236,-0.17407,-0.77974
-0.040139,0.044827,0.097642,0.1545,0.061982,0.018798,-0.29778,0.15611
-0.14342,-0.03939,0.094855,0.018207,-0.011179,0.081495,-0.1466,-0.18896
-0.20385,-0.19973,-0.39184,-0.22359,-0.18913,-0.14788,0.61211,0.47851
0.015556,-0.0040066,0.2169,-0.024596,0.019893,-0.036555,0.02268,0.02353
0.19936,0.074562,-0.15375,0.091634,0.05344,0.040861,-0.041274,-0.13417
0.38523,0.22682,0.1259,0.22708,0.12298,0.085136,-0.2905,0.39281
-0.10733,0.056881,0.13921,-0.25002,-0.036185,-0.0042365,0.13641,-0.29892
-0.20121,-0.004352,0.055136,0.052538,0.014655,0.0083234,-0.17859,0.057182
-0.24223,-0.035381,-0.013073,-0.07414,-0.082537,-0.03222,0.01984,0.022825
0.0628,-0.13175,0.0073262,-0.0888,-0.10769,-0.085721,-0.42624,-0.35706
-0.12009,-0.10872,-0.2578,0.11214,0.08875,0.043964,0.68444,0.08698
0.41954,0.13997,0.050351,0.045761,0.04663,0.021361,0.052007,0.32918
-0.20422,-0.0057337,0.031564,0.040788,0.063106,0.057425,-0.04727,-0.14003
0.19076,0.10052,-0.15273,-0.004783,-0.033963,-0.04362,-0.10511,-0.024685
0.097447,-0.096937,0.50999,0.10293,-0.034421,-0.0092499,0.10315,-0.06702
0.1879,-0.058774,-0.16321,-0.091384,0.029313,0.010831,-0.23093,0.014919
-0.49023,-0.057032,-0.19868,-0.11368,-0.062867,-0.031711,-0.22172,-0.1527
-0.54383,-0.1051,0.010715,-0.10701,0.00022229,0.07261,0.55512,0.51732
0.66495,0.3778,-0.18477,0.23921,0.092508,0.010049,-0.22576,-0.31003
-0.1919,-0.0041944,0.40214,0.025372,-0.067942,-0.087434,-0.13878,-0.2751
0.31802,-0.17087,-0.18083,-0.15504,-0.036039,-0.009248,0.071032,0.12149
0.058845,-0.11308,-0.22111,-0.17646,-0.038118,-0.020814,0.042828,0.28445
-0.49483,0.1618,0.47101,0.26699,0.12172,0.081691,-0.2001,-0.054132
0.13953,0.09865,-0.29739,0.12227,0.014618,-0.0053661,0.36663,0.21247
-0.079821,-0.0849,0.26501,-0.01514,-0.0069652,-0.0073183,-0.17717,-0.21503
0.23351,-0.25766,-0.4181,-0.25293,-0.12968,-0.047959,-0.0012241,-0.19756
0.19048,0.10975,0.076301,0.082147,0.069031,0.053412,0.076523,0.014717
0.064121,0.22642,0.16257,-0.071436,-0.0041567,-0.022825,-0.17594,-0.092367
-0.33507,-0.088984,-0.08183,0.028964,0.0259,0.02834,0.26711,0.070093
-0.049013,0.08422,0.16187,0.16449,0.034063,0.0037436,0.079648,0.14674
0.17722,-0.067089,0.016407,0.02202,-0.011283,-0.010996,-0.78336,-0.0064573
-0.088163,-0.22254,-0.16143,-0.11825,-0.032506,0.0227,0.5155,0.13794
0.07582,0.071695,0.0086983,0.039285,-0.0066728,-0.044125,0.12563,0.12977
-0.29913,0.090273,0.28278,0.032457,0.018932,-0.032235,0.086416,-0.49827
-0.094359,-0.024738,-0.28532,-0.19442,-0.049682,0.0033556,-0.2119,-0.012139
0.13728,0.056146,-0.3046,0.0064714,-0.025076,-0.0078723,-0.051655,0.14844
0.18633,0.013598,0.22644,0.048977,0.061584,0.066759,0.22181,-0.051696
0.6157,-0.026959,0.05227,0.1129,0.015144,-0.0072574,-0.19813,0.265
-0.55995,0.004616,0.17542,0.14389,0.038882,0.027716,-0.024384,0.069105
-0.14758,0.02172,0.012207,-0.12328,-0.015541,-0.016054,0.11617,0.14388
0.11523,0.0077861,-0.099905,-0.11002,-0.046538,-0.006005,-0.067121,-0.16375
-0.16559,-0.022515,-0.12131,-0.073739,0.00054413,-0.028284,-0.13796,-0.43446
0.20222,-0.023047,0.18191,0.095295,-0.022799,-0.028305,0.39503,0.1054
-0.1741,-0.15824,-0.16033,-0.032341,-0.022894,-0.0060292,-0.32791,-0.25995
-0.022028,0.025041,0.021955,0.09036,0.054874,0.03872,0.13862,0.3654
0.11977,0.16774,0.08598,0.018063,0.03075,0.020273,0.092076,-0.035457
0.25288,0.012506,0.014065,0.1725,0.045314,-0.0063858,-0.23205,0.16899
-0.0029429,0.044167,0.062369,-0.29026,-0.042064,0.021509,0.15227,0.08564
-0.45701,-0.049397,-0.34825,-0.026591,-0.090687,-0.059906,-0.026337,-0.079138
0.019128,0.044628,0.22726,0.026025,0.024615,0.038558,-0.1249,-0.17608
0.038097,-0.12656,-0.1012,-0.085382,-0.024025,-0.01897,0.0072871,0.02774
0.18064,-0.031309,0.32382,0.3191,0.091817,0.048803,-0.057577,0.20103
0.12026,-0.036288,-0.15223,-0.072821,-0.01822,-0.047135,0.24415,-0.019585
-0.017628,-0.039373,-0.16015,-0.1439,-0.033672,-0.025445,-0.040497,-0.14585
-0.15561,0.20212,-0.010379,-0.027052,0.006383,0.020256,0.048601,0.037926
0.23603,0.040042,0.033395,0.066508,0.015812,0.012007,0.072279,-0.25894
-0.039881,0.044751,0.13678,0.050471,0.04115,0.043725,-0.03409,0.12754
-0.1726,-0.049581,-0.058572,0.026044,-0.027388,-0.040715,-0.24142,0.0032418
-0.3665,-0.040161,0.064906,-0.022603,-0.033935,-0.038152,-0.22342,-0.06739
-0.044156,-0.29453,0.030429,-0.025095,-0.0021883,0.0044539,0.27644,0.30042
0.63007,0.11669,-0.11587,0.026791,0.020901,0.039994,-0.23481,-0.056025
-0.18783,0.068147,-0.031359,-0.13184,-0.019229,0.02121,0.62527,0.17621
0.19692,0.067191,-0.11581,-0.1251,-0.036358,-0.021156,-0.073177,-0.081567
-0.076046,0.14431,0.012102,0.13379,0.032376,-0.0095443,-0.1271,-0.28378
0.023124,-0.029721,0.36648,0.19997,0.046688,-0.0069902,-0.39583,-0.19765
-0.26488,-0.14375,-0.18703,-0.067298,-0.00099709,0.017356,-0.11351,0.24572
-0.27727,-0.050736,-0.063924,0.034314,0.014403,0.032077,0.59539,0.272
0.39149,0.076263,-0.038822,-0.13716,-0.071238,-0.056447,-0.15892,-0.15801
0.014861,-0.075918,0.059468,0.13546,0.01536,-0.021208,0.1091,0.050116
0.13268,0.10995,0.29347,0.053892,0.047451,0.02914,-0.24755,-0.15694
-0.050401,0.017544,-0.10153,-0.1639,-0.03759,-0.013889,0.007126,-0.1914
-0.12604,0.062539,-0.27998,0.060285,0.041464,0.053738,-0.086171,0.19083
-0.16203,-0.27627,-0.27061,-0.34287,-0.090288,-0.064094,0.15371,0.077253
0.2818,0.097402,0.2028,0.18303,-0.0029781,0.0002525,-0.045642,-0.15634
-0.18269,0.0063024,-0.0057824,0.085259,0.037964,0.043685,0.23799,0.38825
-0.069207,-0.03986,0.32371,0.13891,0.056091,0.0189,-0.31621,-0.19653
0.11537,0.10049,-0.098099,-0.053613,-0.018959,-0.020258,0.048228,0.079402
-0.012091,0.091167,0.17985,0.015272,-0.0077435,0.0032091,0.18859,-0.036406
0.27329,-0.08493,-0.1116,-0.046382,-0.020067,0.0021405,-0.014842,-0.21027
-0.19541,0.061935,0.046705,-0.029708,-0.0017737,-0.0089316,-0.025596,0.024968
0.10939,0.13037,-0.091413,0.31301,0.093495,0.039544,-0.017837,0.17648
-0.2067,-0.20277,-0.16934,-0.13728,-0.047136,-0.07147,-0.27447,-0.46643
0.16554,-0.0021145,-0.1332,-0.38933,-0.10349,-0.068303,0.0083229,0.11277
-0.29169,-0.21397,-0.036387,-0.075696,0.0027169,0.034111,0.072702,0.42301
0.13183,0.052579,0.14771,0.094093,0.014086,0.057079,0.27088,0.082475
0.054063,0.072348,0.21241,0.19247,0.056204,0.025136,0.072813,0.076234
-0.0073742,0.097394,-0.017541,0.19824,0.0672,0.048661,-0.066749,-0.18119
-0.12782,0.067416,-0.10093,-0.1212,-0.077379,-0.0747,-0.14576,-0.25962
-0.13239,0.054589,0.11302,-0.0462,0.0056688,0.022724,0.017942,-0.21287
0.67696,-0.057046,0.062561,0.14972,0.043118,0.0052075,0.03657,0.46042
-0.064836,-0.0091535,-0.034351,-0.0030807,-0.011849,-0.017865,-0.2275,-0.17546
-0.37982,-0.043984,-0.26556,-0.23243,-0.049899,-0.0075567,-0.06064,-0.087401
-0.064147,-0.15416,0.14766,-0.023972,-0.047691,-0.10472,0.05459,-0.047486
-0.11764,0.073775,-0.00040649,-0.073912,0.025883,0.041894,0.063747,0.24933
-0.063946,-0.07173,-0.29797,0.0079591,0.022186,0.064622,0.19944,-0.0026788
0.40889,0.080596,0.41729,0.29196,0.058108,0.048758,0.37967,0.10031
-0.028147,0.19422,-0.16043,-0.096705,-0.007404,0.032534,-0.28389,-0.046768
0.20193,-0.020496,0.17924,-0.017211,-0.042083,-0.078744,-0.15685,-0.025865
-0.23033,-0.025048,-0.032457,-0.016433,0.023774,0.0030698,-0.07303,0.0035023
-0.24801,-0.13234,-0.10763,0.12415,0.0099064,0.011639,0.13554,0.023901
0.12448,-0.084714,-0.15485,-0.11144,-0.021604,-0.053378,-0.21197,-0.27691
-0.074277,0.00076414,0.053527,-0.082932,-0.031852,-0.004348,0.081762,-0.037109
0.15565,0.022931,0.081241,0.1236,0.049639,0.034349,-0.14242,-0.010244
0.02547,0.18546,0.14831,-0.15574,-0.065701,-0.030022,0.08334,-0.066185
-0.034756,0.020163,-0.0019472,0.063953,0.036946,0.038155,-0.26462,0.2452
-0.23568,-0.074053,-0.33738,0.0022407,-0.016524,-0.0020512,0.57048,0.23191
0.42273,0.012515,0.36137,0.074119,0.040403,0.014489,0.022981,0.098078
-0.1535,-0.087108,-0.10067,0.061725,0.0053336,-0.013073,-0.25701,-0.26734
0.23828,-0.036859,-0.12969,-0.11239,-0.019718,0.00928,0.24463,0.053564
-0.44933,0.038328,-0.11651,-0.072877,-0.0033947,-0.01239,-0.17946,0.00066016
-0.068362,-0.010021,0.28215,0.063046,-0.0084389,0.0072735,0.12885,-0.095922
0.22458,0.099145,-0.028229,0.12309,0.042731,0.012729,-0.016511,-0.12403
-0.33632,-0.064306,-0.0095938,-0.073156,-0.030318,-0.043873,-0.30861,-0.016731
0.56909,-0.024527,-0.02255,-0.050112,-0.017473,0.016219,0.022269,0.13885
-0.0045922,0.045654,-0.10747,-0.12136,-0.021072,-0.018688,-0.12688,-0.17965
-0.1433,0.027999,-0.039016,0.10268,0.044226,0.038438,0.0026269,0.35108
0.20794,0.14031,0.27561,0.1055,0.029654,0.039041,0.54623,0.024519
-0.29382,-0.17271,-0.093814,0.11311,0.02115,-0.016637,-0.07831,-0.20891
-0.40499,-0.04392,0.11059,0.062919,-0.043442,-0.065529,-0.14833,-0.11754
0.13414,-0.12118,-0.34489,-0.40395,-0.085362,-0.028723,-0.05879,0.084276
0.091234,0.034204,0.0019278,-0.08334,-0.025665,-0.0069236,-0.17428,-0.11589
0.49131,0.15035,0.012055,0.080902,0.058354,0.063118,0.20972,0.41631
-0.094698,0.08045,0.32005,0.16846,0.065781,0.02561,-0.0394,-0.18655
-0.26908,-0.11166,-0.1741,0.094692,0.012541,0.0056049,0.061732,-0.059276
-0.11201,0.04358,0.20259,0.079051,0.039127,0.041775,0.050261,0.12282
0.49844,-0.047482,-0.17436,-0.19884,-0.08157,-0.06194,-0.13885,-0.29304
-0.5037,0.028641,-0.07843,0.018054,0.0090007,0.0060182,0.10882,0.063435
