0.019846,0.02481,0.012199,0.015139,0.016275,-0.027686,0.0091255,-0.0060177
-0.083789,-0.058414,-0.042727,-0.0035793,-0.028583,-0.066875,-0.045168,-0.028811
-0.17694,-0.032892,-0.015796,0.0080879,0.020041,0.02623,0.010056,0.018299
-0.1117,-0.046058,-0.14897,-0.043885,-0.025598,-0.0061728,0.0027854,0.0026115
0.49399,0.25471,0.41832,0.12955,0.037478,0.046915,0.010974,0.049268
-0.040488,-0.21568,-0.39016,-0.15102,-0.056359,-0.017542,-0.0046257,-0.036923
-0.11448,-0.019298,-0.1192,-0.041352,-0.010084,0.011488,0.018314,-0.013723
0.044772,0.038953,0.12362,0.037347,0.020323,-0.0065454,-0.0062751,0.0329
-0.26615,-0.018363,0.23771,0.023217,-0.0038669,-0.024706,-0.015949,-0.069031
0.062385,0.1901,0.11358,0.0808,0.042658,0.01956,-0.0028599,0.13348
0.077995,0.029699,-0.070296,-0.0084741,0.011685,0.024758,-0.0059308,-0.039362
0.10205,0.084556,0.30906,0.12241,0.02831,-0.03245,0.0063179,-0.048512
-0.27847,-0.51395,-0.82097,-0.26925,-0.10282,-0.019121,0.018553,-0.065747
0.35119,0.13193,0.092263,0.01111,0.00092877,0.025838,-0.0001647,0.049767
-0.20424,0.053632,0.16462,0.048529,-0.0044451,-0.045858,-0.041733,-0.022013
-0.070518,0.017782,0.067539,0.0061471,0.044787,0.062774,0.042512,0.023848
0.26653,0.19003,0.21544,0.13311,0.054504,0.031455,0.010519,0.078112
0.12532,0.017517,0.17963,0.053735,-0.0069169,-0.053948,-0.028303,0.015762
-0.36322,-0.31838,-0.70263,-0.25582,-0.085117,-0.013918,0.011917,-0.069615
0.19018,0.11336,0.093569,0.0091168,-0.0084487,-0.020585,-0.017416,-0.014207
-0.082015,0.13388,0.37433,0.098992,0.051147,0.066371,0.016285,0.0098739
-0.18678,0.0091085,0.047221,0.030383,-0.0077632,-0.050234,-0.035697,0.018109
0.034144,0.028052,0.074438,0.078143,0.041731,0.043407,0.029453,-0.098882
-0.025798,-0.12986,-0.17557,-0.084066,-0.026381,0.0033968,0.0082936,0.018398
0.24578,-0.035147,-0.17016,-0.094882,-0.0082531,0.025067,0.04116,0.081078
-0.00014591,0.062139,0.092154,0.01638,-0.0046339,-0.047613,-0.028423,0.058091
-0.012067,-0.072202,-0.18409,-0.022136,-0.069411,-0.097035,-0.075573,-0.097329
-0.071115,-0.055087,-0.13862,0.0013857,0.048059,0.10392,0.063793,0.044517
0.040167,-0.011374,0.064366,-0.022554,-0.026892,-0.022275,-0.0085946,0.022625
0.10058,0.35558,0.60292,0.26412,0.08063,-0.0064017,0.0044385,-0.030287
-0.23677,-0.25972,-0.073176,-0.1801,-0.051854,-0.02793,-0.021726,-0.051785
0.071746,0.0084786,-0.023366,0.086819,0.066786,0.077061,0.014878,-0.073135
-8.095e-05,0.1036,-0.073415,0.053485,0.021137,0.034621,0.0052321,0.10881
0.10838,0.031373,-0.16591,-0.033319,-0.0026848,-0.015427,0.00428,0.064358
-0.072263,0.07905,0.10961,0.050796,0.017633,0.019745,0.012136,-0.073749
-0.064843,-0.39516,-0.54508,-0.42137,-0.2232,-0.1185,-0.018114,0.02241
-0.023849,0.10853,0.21504,0.066855,0.04832,0.022422,0.014918,-0.022489
0.092343,0.075319,0.26068,0.11957,0.051652,-0.041961,-0.06874,-0.036973
-0.13522,-0.032161,-0.12968,0.091754,0.022346,0.032436,0.05088,0.12701
0.24155,0.046128,0.10402,0.026023,0.024242,0.058812,0.029673,-0.046406
-0.025194,0.02341,0.044634,-0.027858,-0.0039785,-0.016628,-0.015491,0.0052648
-0.26233,-0.10623,-0.14838,-0.013544,0.016567,0.033585,0.016721,-0.077044
0.26463,0.25995,0.50292,0.14726,0.039201,-0.016369,-0.03004,0.027601
-0.10149,-0.065219,-0.26747,0.0002438,-0.01455,-0.041024,-0.03072,-0.10965
0.020322,-0.10566,-0.07045,-0.066064,-0.036055,-0.0089961,0.02269,-0.0035302
0.010586,-0.065554,-0.22053,-0.038392,0.0050333,0.048262,-0.0023215,0.19823
0.2341,0.12412,0.10868,-0.067118,-0.048341,-0.049425,-0.019486,0.042857
-0.49089,-0.045678,-0.076007,-0.0517,0.029879,0.08007,0.073043,-0.063512
0.068631,-0.14618,-0.22786,-0.11701,-0.049473,-0.017156,-0.021445,-0.051117
0.20902,0.11902,0.28643,0.097511,-0.012668,-0.11529,-0.060758,-0.030177
-0.04587,-0.07036,0.076999,0.078063,0.06274,0.089747,0.06433,0.05307
0.078608,0.2236,0.39443,0.17818,0.052441,0.019462,-0.013631,-0.052166
-0.079797,-0.053039,-0.20645,-0.014616,-0.0038725,-0.037163,-0.0058789,-0.049504
0.16074,-0.079031,-0.31189,-0.14793,-0.043256,0.029482,0.032648,0.11561
-0.25229,0.14666,0.2962,0.090659,0.051668,0.0011717,-0.046606,0.01371
0.065796,-0.28124,-0.35957,-0.15137,-0.094167,-0.05885,-0.0092036,-0.10477
-0.23531,-0.10412,-0.27229,-0.031922,-0.020115,-0.0012847,-0.003331,-0.059618
0.18062,0.1471,0.16632,0.064109,0.054611,0.04189,0.002651,0.11835
0.16428,0.21431,0.62664,0.19698,0.066931,0.0088329,0.0091777,0.030908
0.14325,-0.075526,-0.22158,-0.18233,-0.093172,-0.045417,-0.0068214,0.076422
-0.18238,-0.044675,-0.10766,-0.020873,0.0033443,0.019722,0.032975,-0.13606
-0.019283,0.030846,-0.081596,0.039554,0.051216,0.063173,0.019154,0.0024071
0.18389,0.13265,0.34584,0.092311,0.042202,-0.0017911,-0.0094946,0.069544
-0.46588,-0.24162,-0.4211,-0.14337,-0.086392,-0.043333,-0.022171,-0.083236
0.40549,0.086319,0.10162,0.044814,0.017105,0.015702,0.011855,0.083332
-0.16987,0.13994,0.41591,0.1512,0.040645,-0.028573,-0.048512,-0.078601
-0.23628,-0.30563,-0.57541,-0.24333,-0.093115,-0.0046825,0.054224,-0.083774
0.092845,0.057512,0.0013504,0.059552,0.038731,-0.061019,-0.062845,0.029737
0.19676,-0.03195,-0.095918,-0.015352,-0.00016835,0.045069,0.014469,0.11433
0.055907,0.071256,0.18768,0.065618,0.041275,0.072169,0.059917,0.022019
-0.11598,0.011874,0.015101,-0.063208,-0.039216,-0.017857,-0.019835,-0.067628
0.13547,0.081723,0.20294,0.1454,0.016625,-0.052243,-0.029043,0.055631
0.12231,0.094102,0.040783,-0.043823,0.01346,0.047834,0.032649,0.062522
-0.31351,-0.12426,-0.1466,-0.023523,-0.0023497,-0.0062973,-0.0064201,-0.11081
0.067501,-0.0064391,0.040309,0.01598,0.007328,-0.042735,-0.036846,0.018774
0.098416,0.13808,0.21753,0.016833,0.010045,0.031934,0.019327,0.0051087
-0.11386,0.030507,0.13321,0.054164,0.012333,-0.0016924,-0.0023077,-0.08957
-0.070953,-0.29502,-0.6275,-0.26502,-0.11198,-0.019479,0.014965,-0.13991
0.05468,0.048459,0.0074461,0.065646,0.026845,0.008875,0.0081328,0.29242
-0.12724,-0.034557,-0.1052,0.022358,0.045467,0.074684,0.047067,-0.12742
0.29053,0.13599,0.26211,0.13695,0.045348,-0.025819,-0.040359,0.14854
-0.026738,0.070248,0.16818,0.043551,-0.01229,-0.027279,-0.011915,-0.035081
-0.12487,-0.17327,-0.13088,-0.13893,-0.072166,-0.085769,-0.054717,-0.021488
0.020119,-0.13691,-0.24549,-0.088374,-0.0006649,0.041523,0.0038141,-0.076113
-0.076198,0.17594,0.29925,0.10305,0.046844,0.058694,0.039582,-0.058405
0.19491,0.089114,0.14847,0.077137,-0.014747,-0.087817,-0.063683,0.12514
0.14493,0.12025,0.17954,0.045496,0.018356,0.024915,0.077546,-0.03362
-0.20378,-0.14445,-0.40417,-0.13233,-0.0096745,0.030446,0.018272,-0.019424
-0.25052,0.05142,0.14586,0.066877,0.034126,0.069666,0.016117,0.026719
0.14499,-0.083836,-0.21183,-0.11512,-0.045657,-0.021758,-0.0077474,-0.028413
-0.048248,0.071514,0.012314,0.032141,0.00068926,-0.002383,-0.015351,0.0022158
0.17051,-0.032605,0.14419,0.10203,0.016535,-0.084186,-0.06266,-0.014736
-0.080502,-0.21123,-0.3412,-0.12441,-0.021935,0.052055,0.036609,0.05296
0.13727,0.11226,0.22713,0.048083,0.017805,0.022646,0.023727,0.040656
-0.23782,0.046942,0.15343,0.072724,0.026238,-0.024444,-0.00018239,-0.044344
0.21655,0.015428,-0.031349,-0.05815,-0.027858,-0.018845,-0.027188,0.016396
-0.062053,0.050499,0.016142,-0.0084626,-0.019309,-0.014669,-0.0097526,-0.081833
-0.12861,0.036895,0.13907,-0.004726,-0.018168,-0.03439,-0.024926,0.051928
0.40702,-0.093747,-0.13203,0.03891,0.0070674,-0.022201,-0.016738,0.019913
-0.50257,-0.10541,-0.28215,-0.065321,0.02529,0.085402,0.055117,-0.20822
-0.0062323,0.09677,0.09461,0.041499,0.020815,0.03906,0.011911,0.14196
0.25514,0.083546,0.04519,-0.039697,0.001149,0.04983,0.072903,0.16506
-0.10139,-0.043746,0.0075618,0.041908,-0.0029926,-0.03114,-0.043168,-0.075823
0.16635,-0.020275,0.11534,0.074611,0.031154,-0.0093718,-0.0008388,0.013302
0.02712,0.1528,0.27576,0.026514,-0.037712,-0.12027,-0.074339,-0.059841
-0.25345,-0.24452,-0.46323,-0.16527,-0.038241,0.01799,0.016666,-0.045574
-0.0035011,0.036666,0.016648,0.0070721,0.0058893,0.037499,0.0057078,0.016614
-0.035503,0.0972,0.2867,0.067412,0.016675,-0.0074136,-0.006287,0.016937
0.22873,-0.14911,-0.48032,-0.092778,-0.013215,0.039542,0.035021,-0.021488
0.10188,0.0010852,0.059969,-0.019245,0.0029379,0.0068614,0.0045767,-0.0051145
-0.11101,0.18902,0.4157,0.15644,0.042648,-0.026746,-0.019302,0.12066
-0.15932,0.087445,0.26654,0.060428,-0.01029,-0.0059217,-0.012818,-0.042602
0.098514,-0.13074,-0.28618,-0.056326,-0.006571,-0.023795,-0.014605,-0.049488
0.0074995,0.0042442,-0.094335,-0.013483,-0.0080647,0.029477,0.030432,0.014223
-0.29817,-0.24101,-0.47844,-0.17007,-0.037905,0.021327,0.0054107,-0.077824
0.26088,-0.037672,-0.071305,-0.018255,0.0054012,0.022064,0.035493,0.088645
0.068208,0.25525,0.57248,0.1292,0.035469,-0.031039,-0.019929,-0.0096595
-0.024667,0.16102,0.28885,0.099846,0.043709,-0.01337,-0.035956,-0.036797
-0.018794,-0.1101,-0.1881,-0.0525,-0.017752,-0.011331,0.01069,-0.032035
0.091617,0.018865,-0.15585,0.0070313,-0.017183,-0.017566,-0.028598,0.13699
-0.086802,-0.062775,-0.083944,-0.027389,-0.010258,0.030039,0.03354,-0.046002
0.083541,0.0031368,0.14407,0.022882,-0.013334,-0.0015995,-0.013929,0.019783
-0.22046,-0.17485,-0.2535,-0.11638,-0.026776,0.0045672,0.00081267,-0.049196
0.061681,0.043607,0.17646,0.07004,0.043207,0.032918,0.023045,-0.01908
0.11659,-0.013148,-0.16726,-0.058546,-0.021719,-0.0023345,0.021507,-0.054089
-0.078659,0.11638,0.028365,-0.009708,-0.017753,-0.054016,-0.027226,0.12732
0.1575,0.096903,0.15435,0.11538,0.048085,0.0033111,-0.02153,-0.02882
-0.070408,0.11639,0.40605,0.074898,0.028112,0.029565,0.038723,-0.021415
-0.071284,-0.26248,-0.42791,-0.12307,-0.061467,-0.021538,-0.033755,-0.067955
-0.64625,-0.078935,-0.16869,-0.048746,0.0062421,-0.0010003,0.0035045,0.035905
0.54343,0.0025186,-0.012689,0.03225,-0.0030758,-0.041205,-0.044496,-0.076079
0.51477,0.18443,0.23438,0.088653,0.066655,0.10025,0.072526,0.15124
-0.32641,0.020925,0.095252,-0.035677,-0.034888,-0.037613,-0.028064,0.030252
0.10354,0.10537,0.14788,0.081495,0.020068,-0.0019963,-0.010317,0.013377
-0.089624,-0.25761,-0.46662,-0.17635,-0.057814,0.026873,0.047455,-0.048928
-0.13667,0.0026778,-0.028293,-0.011361,-0.0030192,-0.014178,0.0042581,-0.040744
0.044566,-0.08953,-0.0511,-0.031786,-0.002968,-0.0399,-0.015404,-0.056967
0.03754,0.16999,0.33401,0.08376,-0.0027459,-0.011831,-0.035495,0.018806
-0.08805,0.024595,0.073948,0.046933,0.044802,0.053973,0.021648,0.053453
-0.13551,-0.056027,-0.072488,-0.0093328,-0.055428,-0.10054,-0.055226,-0.06225
-0.054929,-0.016724,-0.13647,0.047162,0.063783,0.094889,0.046264,-0.046583
0.20457,0.017329,-0.04857,-0.0036537,0.011607,0.0075332,0.0058808,0.069781
0.053297,0.10001,0.11143,0.00046177,-0.0014476,0.0047632,0.01136,0.052942
0.072642,0.073779,0.1851,-0.012791,0.016243,0.0087023,0.00054834,0.075012
0.13167,-0.16439,-0.19696,-0.099865,-0.076513,-0.074101,-0.026159,0.010968
-0.050622,-0.10797,-0.16942,-0.035396,-0.0066985,0.022324,0.01757,-0.12375
-0.24887,0.17194,0.2979,0.12553,0.03803,0.017115,-0.0007228,-0.024645
0.11283,-0.082525,-0.16222,-0.061951,-0.012479,0.012248,0.0051822,0.042675
-0.12446,-0.0034546,0.029459,-0.0028659,-0.01714,-0.030938,-0.027028,-0.06213
-0.064923,-0.034803,4.9811e-05,0.031094,0.0090977,-0.033972,-0.019152,-0.072877
-0.038916,0.051697,0.033585,0.057528,0.035746,0.065886,0.052207,0.034564
0.366,-0.023536,-0.1951,-0.077934,-0.014614,0.026552,0.015022,0.18268
-0.109,0.037619,0.089963,0.0011964,0.014798,-0.01921,-0.029394,0.012452
-0.03462,0.055983,0.13252,0.014543,-0.032004,-0.040328,-0.011035,-0.030891
0.042441,-0.062573,-0.14543,0.0091126,0.032446,0.033238,0.030715,-0.1119
-0.11928,-0.022408,0.028021,-0.046969,-0.04217,-0.056643,-0.045053,-0.05953
0.020525,0.080872,0.2124,0.048141,0.017037,0.056892,0.027067,0.13305
-0.028649,0.010792,0.11468,0.066158,0.02188,-0.017088,-0.010864,-0.050718
0.1414,0.10923,0.0041478,0.013031,0.0028864,-0.044491,-0.0026336,0.052522
-0.053269,-0.25785,-0.45072,-0.08165,-0.017152,0.052542,0.020541,0.06747
-0.1344,0.018692,0.076317,-0.0080787,-0.0074582,0.00033011,-0.027195,-0.10725
-0.21027,0.049066,0.14793,0.022421,0.023924,0.033033,0.018326,-0.12721
0.37562,-0.12594,-0.28059,-0.11472,-0.047969,-0.0057554,0.032223,0.11804
0.028735,0.027129,-0.018023,-0.0043343,0.011518,-0.014525,-0.0088174,-0.042105
0.075525,0.096357,0.21337,0.042597,-0.015909,-0.11038,-0.073406,0.057607
0.32619,0.075449,0.042464,0.074469,0.049965,0.081913,0.057369,0.043006
-0.70606,-0.042908,-0.012585,-0.0091233,-0.016921,0.00021669,-0.014746,-0.046592
-0.031044,0.13908,0.26759,0.073599,0.018198,0.027779,0.0073208,-0.024108
0.13909,-0.028603,-0.008921,0.0021472,-0.0006909,-0.014654,-0.0012416,0.023471
-0.10216,-0.040236,-0.079144,0.0023288,0.028067,0.021721,-0.0012213,0.016548
0.12856,-0.061854,-0.086832,-0.067527,-0.043976,-0.011285,0.015277,0.13322
0.51201,-0.14164,-0.19864,-0.052155,-0.037185,-0.058882,-0.022067,0.0049784
-0.58342,-0.053306,-0.13459,-0.038103,0.0093349,0.019512,-0.019615,-0.25957
0.062143,0.11023,0.043259,-0.00199,0.017445,0.020592,0.030227,-0.066638
0.22303,0.038157,0.14157,0.064497,0.018402,0.022204,0.017778,0.07678
-0.014051,0.068546,0.092975,0.0060028,0.004385,0.024015,-0.0026387,0.086142
0.17193,-0.054416,-0.021372,-0.0045665,-0.024672,-0.013367,-0.0079607,0.025546
-0.5776,-0.09494,-0.19914,-0.075707,-0.029855,-0.035505,-0.014142,-0.009892
-0.0039358,0.27564,0.49039,0.16028,0.058916,-0.065965,-0.03704,0.027471
0.096839,-0.052439,-0.047012,0.047165,0.046046,0.074957,0.048243,-0.081145
0.24075,0.029081,-0.01625,-0.009188,-0.0062323,0.012401,0.0073718,0.1947
-0.0022205,-0.20787,-0.31834,-0.14228,-0.082473,-0.042495,-0.011042,-0.068228
0.17918,-0.077315,-0.22166,-0.063793,-0.018642,0.012021,-0.014533,-0.074597
-0.14685,0.099246,0.19328,0.053738,0.021344,0.043247,0.020679,-0.0053784
-0.021963,0.0085649,0.10443,-0.032325,-0.024739,-0.019135,-0.014415,-0.033114
-0.0033859,-0.068444,-0.043939,0.052739,0.046554,0.0044418,-0.0022843,-0.079522
0.016447,0.063431,0.075821,0.035299,0.01672,0.012229,-0.0051458,0.03606
-0.30681,0.09942,0.026042,0.0010713,-0.012609,-0.042833,0.0084442,0.080835
0.17611,-0.038835,-0.076083,-0.003394,0.013103,0.026651,0.038577,0.033184
-0.071682,0.17951,0.32428,0.091804,0.038811,0.0019586,-0.0085061,0.0041382
-0.015915,-0.22259,-0.29592,-0.11999,-0.06096,-0.069855,-0.054769,-0.07548
0.37013,0.067043,0.064124,0.064131,0.018022,0.038071,0.0090196,0.052517
-0.27008,-0.23275,-0.30514,-0.10575,-0.029234,0.021401,0.026437,-0.057637
0.13569,0.18339,0.12947,0.0037068,0.00035703,0.021075,-0.010513,0.13974
-0.013446,0.035494,0.073411,0.026285,0.0054978,-0.017398,0.0073576,-0.044526
-0.046209,-0.018408,0.11498,0.025774,-0.0054593,-0.00023672,0.0017368,-0.034184
-0.0032991,-0.085663,-0.11105,0.0035912,0.0072626,-0.013521,-0.027555,-0.096532
-0.21519,-0.023717,-0.05663,-0.031161,-0.0024679,0.020599,0.020881,0.032857
0.20609,0.14548,0.22369,0.063062,0.028464,0.023657,0.029729,0.087832
0.11734,-0.022654,-0.044452,-0.041509,-0.016784,-0.012477,-0.0010823,-0.064224
-0.21022,0.018608,0.019934,0.014192,0.010219,-0.0099082,-0.0090411,-0.070929
0.018691,-0.036511,-0.10113,-0.012987,-0.023724,-0.093739,-0.072165,0.10802
0.17821,-0.025802,-0.11323,-0.015175,0.0056763,0.017291,0.020682,0.044358
-0.3958,0.0093347,-0.010751,0.037045,0.035004,0.05762,0.027567,-0.12
0.35207,0.019557,0.056239,0.040222,0.0086069,0.042905,0.026879,0.053427
0.11858,0.080772,0.18833,0.063026,0.027219,0.0043303,-0.012416,0.033913
-0.15667,-0.1446,-0.14604,-0.20817,-0.11282,-0.034858,0.0035593,-0.037884
0.021143,-0.048031,-0.11855,-0.015988,0.0024234,0.034441,0.020143,0.040785
0.0065563,0.25332,0.45109,0.17898,0.060733,-0.014608,-0.025234,0.089598
-0.37707,-0.36473,-0.53005,-0.19256,-0.11694,-0.1431,-0.070215,-0.16558
0.044814,0.09143,0.087369,0.074011,0.095234,0.11777,0.041262,-0.0065495
0.32093,0.21726,0.22614,0.08975,0.0653,0.049586,0.027734,-0.050816
0.061173,0.053517,0.1371,0.067193,0.020523,0.012307,0.037414,0.12348
0.014443,-0.17179,-0.34304,-0.13301,-0.077708,-0.071384,-0.039287,0.00092838
-0.13445,-0.0044796,0.01296,0.0055861,-0.010485,-0.020897,0.00057077,-0.050974
0.071474,-0.061145,-0.083288,-0.079185,-0.043528,-0.061957,-0.0071933,0.10086
0.026113,0.12719,0.33762,0.16726,0.06507,-0.022108,-0.00010972,-0.12942
-0.079565,-0.0020166,-0.028307,-0.036763,0.0024378,0.12225,-0.0093583,0.015871
-0.053583,-0.0036663,-0.11785,-0.027778,-0.020859,0.073857,-0.019155,0.098828
0.016409,-0.049869,-0.00053489,0.029543,0.04957,0.07402,0.033217,-0.037395
-0.033449,-0.039252,-0.18335,-0.084032,-0.036435,-0.058193,0.0073618,-0.049732
-0.013617,0.028063,0.12356,-0.0016014,-0.028871,-0.1288,0.012855,0.084634
0.040267,0.066047,0.19421,0.057989,0.0099225,-0.068605,-0.02047,-0.048762
-0.039589,-0.12077,-0.25245,-0.07712,-0.013538,0.027986,0.0090303,-0.0046737
-0.069603,0.045373,0.095704,0.030569,0.0026026,0.020249,-0.015806,0.02192
0.093754,-0.022081,-0.059293,0.068406,0.019504,0.017971,-0.032488,-0.14016
0.076835,0.0040531,-0.094247,-0.065542,0.0059893,0.060967,0.037085,-0.0056064
0.11363,0.24762,0.34005,0.11252,0.040075,0.0016803,0.005392,0.059383
0.45222,0.043412,0.21756,0.078466,0.027738,0.036233,0.036491,0.36034
-0.75392,-0.21883,-0.20623,-0.1214,-0.047003,-0.030071,-0.025848,-0.2975
-0.015542,-0.15661,-0.44859,-0.12797,-0.067296,-0.048412,-0.040947,-0.046762
0.063554,-0.035139,0.052403,0.0042177,0.013515,-0.010807,0.0068996,-0.012573
-0.033337,-0.01736,-0.062027,-0.013259,0.0078859,-0.0031788,-0.0072253,0.05468
0.1237,0.16391,0.19401,0.062751,0.009684,-0.0099991,0.010483,0.029474
-0.026533,0.11968,0.22878,0.08487,0.0035028,0.031057,0.020945,-0.034087
0.11941,0.00753,-0.049531,-0.024142,0.013004,0.041619,0.039673,0.027486
-0.13973,0.06256,0.10276,0.0487,0.038327,-0.041123,-0.035107,-0.059779
0.080204,-0.24641,-0.29791,-0.071623,-0.03772,0.024655,0.0072608,0.008327
-0.032816,0.10352,0.23296,0.012816,-0.0043583,-0.027051,-0.04446,0.051692
0.20822,-0.029186,-0.1175,0.019895,0.028761,0.022154,0.028219,0.085567
-0.065184,-0.03624,-0.18589,-0.043623,-0.0090074,0.0079294,-0.0014526,-0.20287
-0.1829,-0.020301,-0.012122,-0.030333,-0.047659,-0.046453,-0.024195,0.053308
-0.021699,-0.029246,0.020058,-0.027036,-0.01711,-0.031659,-0.016592,0.057072
0.0029509,0.076662,0.16738,0.035988,0.027844,0.044573,0.060445,0.089648
-0.015941,-0.015843,0.030217,0.01783,0.0090931,-0.0051052,-0.027416,-0.15348
0.046641,0.27075,0.34954,0.14508,0.075206,0.085124,0.055812,0.085906
0.082052,-0.22018,-0.35993,-0.12098,-0.039207,-0.036092,-0.01011,-0.097746
0.34158,0.034855,0.081262,0.024978,-0.021311,-0.03259,-0.021921,0.13247
-0.5403,-0.072928,-0.13852,-0.048909,-0.011305,-0.021303,-0.041877,-0.050371
-0.038378,-0.096973,-0.22806,-0.044592,-0.032122,-0.017557,-0.0071081,-0.051217
0.16154,0.034852,0.02686,-0.0076442,0.010523,0.03367,0.004733,-0.040721
0.021731,0.051269,0.21611,0.03192,0.015564,0.0077217,-0.0058551,-0.010148
0.066392,-0.029968,-0.008081,0.028184,0.022425,0.006456,0.039671,0.10339
0.11589,0.11312,0.036716,0.05974,0.023441,0.014436,0.024351,0.057381
-0.2523,-0.010789,-0.023524,-0.037621,-0.044014,-0.062062,-0.020604,-0.12582
0.054308,-0.058147,0.059988,0.0087571,0.014972,0.018987,0.0060512,0.036398
0.10443,-0.014551,-0.067647,-0.060237,-0.034604,0.0072335,-0.013418,0.12779
0.013617,0.15701,0.19801,0.07412,0.056496,0.058426,0.021887,-0.025759
-0.15702,-0.069386,-0.015814,0.0039903,0.0062607,-0.01551,-0.021484,-0.10575
-0.033406,-0.016463,0.0044991,0.0093465,0.0015594,-0.0041834,0.0044243,-0.027264
0.16538,-0.068903,-0.26803,-0.098032,-0.051733,-0.025192,-0.017797,0.08475
-0.013565,0.0067127,-0.061137,0.0021439,0.0025883,-0.024036,-0.017762,-0.096645
-0.19462,-0.031705,0.11106,0.037103,-0.014873,-0.024089,0.012672,-0.069327
0.14644,-0.09717,-0.23195,-0.077904,-0.025433,-0.0094418,-0.019753,0.067775
-0.04434,0.069788,0.079208,0.033551,0.041912,0.043753,0.026102,-0.0030631
0.085051,0.072512,0.20636,0.060285,0.023756,0.018721,0.017822,0.032619
-0.012204,0.076469,0.052463,0.042255,0.037758,0.064201,0.033712,0.10539
0.12455,0.0041838,0.018356,-0.020281,-0.01746,-0.01499,0.0033856,0.011688
-0.098913,0.042893,0.21321,0.044125,-0.024842,-0.062645,-0.026574,0.10145
-0.15955,-0.15223,-0.33446,-0.10928,-0.031652,-0.016431,-0.025336,-0.16688
0.090996,-0.020245,0.011406,0.010381,0.008437,-0.0093677,-0.040202,-0.15546
-0.049996,0.12475,0.12833,0.042424,0.016735,-0.026011,0.0066207,0.078532
0.17622,-0.038691,0.027203,0.017148,0.024043,0.089788,0.068094,0.10374
-0.20558,-0.049921,-0.12309,-0.034529,-0.0089205,-0.01354,-0.01982,-0.12726
0.071706,0.060607,0.044182,0.036271,0.027306,0.031288,0.0087087,0.058061
-0.13905,-0.10368,-0.23427,-0.081741,-0.069994,-0.048975,-0.025671,0.044208
0.31139,0.038046,-0.0083708,-0.011768,-0.011079,-0.019683,-0.0053556,-0.033601
-0.17071,-0.026829,0.087426,0.0060493,0.0095718,-0.0055069,0.015399,0.030431
-0.023684,-0.092452,-0.089106,-0.034247,0.00057724,0.0095123,0.0057221,-0.11281
0.28987,-0.02425,-0.025431,0.0091711,-0.0062269,-0.0056008,-0.018489,0.015017
-0.34163,0.24835,0.35854,0.1443,0.083101,0.043042,0.013196,0.086584
0.1107,0.020718,0.045721,-0.0283,-0.044236,-0.032118,-0.0086586,0.015594
-0.019356,0.10222,0.20319,0.083023,0.040675,0.018636,0.009464,0.066242
-0.037972,0.058901,0.081575,0.014511,0.0085892,0.015138,0.020313,0.056624
0.069858,-0.27783,-0.4912,-0.11964,-0.040176,0.0036538,-0.015632,-0.11736
0.023242,-0.052476,-0.1316,-0.0094336,0.010458,-0.00081623,0.0027206,-0.051763
-0.21563,-0.079971,-0.062961,-0.12515,-0.074622,-0.069109,-0.026591,-0.091969
0.21449,0.022003,-0.0052466,-0.0060387,0.0012471,0.032828,0.013349,0.042647
-0.13732,0.028337,-0.018671,0.036496,0.011841,-0.0075703,-0.0025621,0.0087459
0.082568,0.051407,0.10496,0.051458,0.028278,0.0052041,-0.0039417,0.034147
0.071091,0.087262,0.17694,0.072753,0.028204,0.024683,0.0094231,0.04245
0.024505,-0.032053,0.0868,-0.021994,-0.018486,-0.026725,-0.0090341,-0.027098
-0.1117,0.040482,0.097929,0.050586,0.029826,0.046859,0.02697,0.022177
-0.0021012,0.064818,-0.036065,-0.012897,-0.013666,-0.043116,-0.01505,0.011289
0.078874,-0.091048,-0.21226,-0.047998,-0.015827,0.00061324,-0.0020121,0.041754
-0.034048,-0.0056625,-0.056371,-0.008285,-0.00014456,0.022027,0.0037711,-0.012128
-0.021711,-0.016312,0.046575,-0.0041622,-0.0060272,-0.010065,-0.0054136,-0.05772
-0.10376,-0.077983,-0.070575,-0.013512,0.0050461,-0.0020073,-0.0061094,-0.025908
0.063041,0.096441,0.21389,0.032657,0.0090246,-0.0087,0.0094502,0.035468
0.14263,0.020894,-0.063909,-0.0073779,0.013148,0.016444,0.0099223,-0.030334
