-0.00019691,-0.24831,0.038023,-0.032217,-0.047829,-0.0018607,-0.017015,-0.017882
0.13495,0.1826,0.04505,0.10917,-0.016276,-0.0063056,0.02214,0.052985
-0.16759,-0.16102,0.11609,0.15834,0.054286,0.043214,-0.0011876,-0.055852
-0.03323,0.14185,-0.041186,0.33946,0.077839,0.036923,-0.00097335,-0.00063386
0.029959,-0.034303,-0.15637,-0.60022,-0.1019,-0.064542,-0.0083706,-0.0078789
-0.13446,-0.25201,-0.090837,-0.38974,-0.06301,-0.026921,-0.038911,-0.03846
0.23892,0.17666,0.20185,0.18015,0.014938,-0.01415,0.024661,0.048302
0.0090776,-0.091292,-0.36299,0.38229,0.0070987,-0.010237,0.010476,0.010218
-0.12142,0.085645,0.084565,-0.22811,0.007333,0.00098155,0.0043913,0.0034439
0.19834,0.19261,0.15739,0.26446,0.10157,0.066971,0.014035,0.012157
-0.0087343,-0.082415,0.18709,0.033921,0.00059023,0.0085535,6.9969e-05,-0.0029822
-0.23503,-0.059633,-0.25347,-0.18296,-0.053738,-0.033327,-0.022198,-0.026638
0.043269,-0.020509,0.1961,-0.071202,0.047591,0.058594,0.032866,0.034715
-0.055632,-0.19205,-0.17597,-0.042469,-0.14106,-0.075205,-0.030258,-0.037753
-0.061427,0.034581,-0.005031,-0.039927,0.044192,0.018099,-0.016315,-0.040806
0.2074,0.28384,0.3615,0.23504,-0.0059883,-0.013407,0.0045059,0.041488
0.096357,0.09435,-0.15065,0.010148,0.0602,0.017478,0.0090634,0.022084
-0.26827,-0.33881,0.11933,-0.096899,-0.022478,0.0012135,-0.0022267,-0.020366
0.22348,0.24222,-0.2443,0.2965,0.090178,0.01593,0.017971,0.02401
0.0010933,-0.28718,-0.38163,-0.66208,-0.14045,-0.078825,-0.023673,-0.016283
-0.092629,0.13622,0.045962,0.17432,-0.042138,0.021927,0.013771,-0.016045
-0.082589,-0.13507,0.21472,0.39748,0.19008,0.084153,0.021069,0.016896
0.052949,0.17339,0.035908,-0.36999,-0.084254,-0.055903,-0.0096234,0.012009
0.085785,0.062457,0.1546,0.44743,0.025603,0.016032,-0.023805,-0.01546
-0.11821,-0.014225,0.097052,-0.64507,-0.042736,-0.020278,0.025116,0.035584
0.12767,0.11535,0.14502,1.069,0.11712,0.085114,-0.011619,-0.022829
-0.1221,-0.34591,-0.30498,-0.91209,-0.18215,-0.074199,-0.0014855,-0.042657
7.7717e-05,0.085865,-0.15537,-0.35449,-0.096676,-0.068745,-0.015002,0.01491
0.096708,-0.011804,-0.12226,0.95319,0.10789,0.062173,0.0024157,0.0091563
0.0597,0.462,0.60921,-0.26094,0.1343,0.052683,0.035145,0.033891
-0.14076,-0.52459,-0.25468,-0.42425,-0.080771,-0.058407,-0.0183,-0.020094
-0.10492,0.0044052,-0.08429,0.23151,-0.02299,-0.044825,-0.040624,-0.05884
0.051003,0.017121,-0.27913,-0.43967,0.14195,0.030596,0.022949,0.058464
0.10867,0.15349,0.13062,0.83735,0.060809,0.089346,0.031824,0.0038049
0.12247,0.1783,0.24954,0.33674,-0.064583,0.021646,0.0015685,0.019381
-0.1507,-0.26094,-0.24618,-0.90274,-0.1879,-0.094746,0.0023582,-0.012075
0.16273,0.16301,0.1796,0.25065,-0.06649,-0.056949,-0.051932,-0.028199
-0.14197,0.01199,0.11748,-0.017058,0.06681,0.095927,0.049449,0.033384
-0.066241,-0.089162,-0.24134,-0.30111,-0.012239,-0.010928,-0.013936,-0.0227
-0.048531,-0.33526,0.168,0.20193,0.0036989,-0.080209,-0.015543,-0.032342
0.059295,0.25927,-0.12251,0.092662,0.062321,0.044943,-0.0021331,-0.0032002
0.1326,0.20397,-0.035554,-0.20778,0.25115,0.060544,0.026535,0.072775
-0.20272,-0.25696,-0.057611,0.27659,-0.14029,-0.056158,-0.038584,-0.054154
0.10135,0.15185,0.23022,0.38915,-0.14399,0.046976,0.0059949,0.038105
0.022545,-0.029048,0.090266,-0.36225,0.082126,-0.067157,0.012153,-0.033137
0.038326,-0.025372,0.050706,0.22637,0.012425,0.046942,0.019167,-0.0022658
0.016408,0.11602,0.0076677,-0.43685,0.043167,0.037691,0.027105,0.052454
-0.074336,-0.22283,-0.91509,-0.66131,-0.053869,-0.071665,-0.026619,-0.017659
0.062786,0.0034849,0.33695,0.7132,-0.14665,-0.015816,-0.040659,-0.041022
-0.095982,0.23056,0.42845,0.308,-0.0083984,0.025166,0.0081224,-0.010096
0.011582,-0.074914,0.02428,-0.56882,0.080784,0.011813,0.025646,0.067118
0.088513,-0.039849,-0.31266,0.59229,0.107,-0.0093722,-0.019642,-0.051622
-0.075967,-0.056252,0.5032,0.04082,-0.013775,0.0785,0.02827,0.03223
0.026323,0.25808,-0.068424,-0.55429,0.024772,-0.037249,0.028617,0.029881
-0.096354,-0.25275,-0.26363,0.34108,-0.12011,-0.03633,-0.073317,-0.097333
0.025085,-0.13437,-0.11532,-0.24801,-0.073259,-0.059225,0.0038068,0.0026102
0.046898,0.1074,0.17251,0.48465,0.21144,0.027153,0.017984,0.041082
0.11704,0.037349,-0.18088,0.033783,-0.0097376,0.035642,0.016333,0.026198
-0.10929,-0.0064702,0.39703,-0.66636,-0.020074,0.013413,-0.00089274,0.012736
-0.024195,0.039907,-0.48833,0.071141,-0.024883,-0.023763,-0.01785,-0.046351
0.089364,-0.049605,0.06658,0.18593,-0.10421,0.0099766,0.0046641,0.012572
0.19858,0.29471,0.29399,-0.24726,0.053168,0.059637,0.035447,0.048262
-0.33035,-0.10828,-0.01179,0.28514,0.0093241,-0.047147,-0.034921,-0.049358
0.025875,-0.033933,-0.40933,-0.18756,0.046046,-0.021872,-0.011249,-0.0075076
-0.091167,-0.19494,0.14217,0.58167,-0.093095,0.056839,0.020367,0.0014429
0.015776,-0.10808,0.21988,0.064561,0.086079,-0.061314,0.0050756,0.0085058
0.20092,0.21083,0.015339,-0.7147,-0.21888,-0.040421,-0.018198,-0.0096932
-0.024997,-0.12802,0.053688,-0.093429,0.22851,0.026038,0.012964,0.025326
-0.026529,0.13474,-0.12573,0.30818,0.078335,0.0057601,-0.0030197,-0.018663
-0.028345,0.12601,0.64134,0.68159,-0.027861,0.079075,-0.0036023,-0.008126
-0.029668,-0.17592,-0.83105,-0.88329,-0.097751,-0.065869,0.0034966,0.018607
-0.038826,-0.066857,0.47687,0.43082,-0.10849,0.0089628,-0.020672,-0.039408
0.043967,0.031438,-0.84156,-0.29956,0.18878,0.0070407,0.0099344,0.013533
0.012789,-0.069547,-0.10392,-0.011829,-0.12142,-0.0011958,-0.0061818,0.0056522
0.29395,0.34692,0.52285,0.12377,0.15475,0.031056,0.048181,0.085177
-0.0065571,0.20786,0.14596,-0.14797,-0.11676,-0.044858,-0.0066953,-0.029606
-0.44617,-0.48168,-0.08145,-0.011848,-0.069625,0.036397,-0.0067979,-0.034615
0.067248,0.0026445,0.030622,-0.0051206,0.10827,-0.053604,-0.022465,-0.0085718
-0.14614,-0.098118,0.45855,-0.026061,-0.1064,-0.033879,-0.022414,-0.03786
0.22741,0.044424,0.20778,0.28286,0.23219,0.056284,0.016899,0.033571
0.096489,0.15066,-0.17807,0.70713,-0.26587,0.013559,-0.021555,-0.020768
-0.059437,-0.24552,-0.28728,-0.12485,0.12676,0.033057,0.026452,-0.005264
0.028121,0.35117,-0.65094,-0.95913,-0.018998,-0.026067,0.012589,0.041447
0.049002,-0.025131,-0.10927,-0.1102,-0.015409,-0.015611,0.014966,0.026041
-0.096872,-0.13013,0.039613,0.65722,0.027944,0.0016975,-0.029076,-0.02773
-0.041821,-0.10347,0.15551,-0.88729,-0.09276,-0.060262,0.012971,-0.010366
0.073086,0.14049,0.37889,0.059415,0.082329,0.040593,8.4102e-05,-0.0078954
0.035708,0.10808,0.30053,0.55914,0.22382,0.069885,0.0021588,0.018462
-0.093139,-0.11703,0.0066852,-0.13972,-0.15382,-0.058205,-0.012405,-0.009831
-0.0497,0.024988,0.46914,0.8572,-0.059083,0.055008,0.0030635,0.016141
0.1252,-0.023038,-0.665,-0.36375,-0.038787,-0.043219,-0.0061301,-0.021221
0.078615,0.11202,-0.079363,-0.19605,-0.060749,-0.02427,0.0070925,0.034052
-0.065324,-0.32076,-0.1532,-0.066792,-0.0060528,-0.036027,-0.019386,-0.036879
-0.20528,0.08492,-0.052898,-0.083695,-0.020923,0.0236,0.01649,0.00048309
0.073165,0.0096644,-0.034997,-0.018013,0.12343,0.0065703,-0.025397,-0.04105
0.075544,-0.037321,-0.0079709,-0.39717,-0.063465,0.0067924,0.011623,0.034277
0.0060712,0.32043,0.092594,0.43319,0.23953,0.12568,0.057492,0.055069
0.061174,-0.087804,0.068693,-0.59726,-0.053776,-0.074705,-0.020568,-0.017305
-0.10978,-0.0035045,0.20856,0.45009,-0.19466,-0.024723,-0.019607,-0.034106
0.21261,0.011063,0.027483,0.3578,0.16651,-0.014183,0.0053459,0.004799
-0.23699,-0.098815,-0.12394,-0.099893,-0.066117,-0.067197,-0.01645,0.029054
0.049281,-0.12224,0.18173,0.41298,-0.058386,0.042327,-0.015105,-0.047472
-0.014654,-0.019995,0.073496,-0.14297,0.016762,0.056397,0.032481,0.032736
0.078788,0.059875,-0.81329,-0.13483,-0.13771,0.014205,-0.014513,0.011525
-0.0065765,0.20387,0.6555,-0.31892,0.09604,-0.013518,0.031386,-0.0020599
-0.11474,-0.12657,-0.50422,-0.76999,0.0083075,-0.049577,-0.017177,-0.0082805
0.027492,-0.087409,0.36319,0.18897,0.037946,-0.015092,-0.034923,-0.061994
0.013584,0.10241,0.18594,0.55621,0.029775,0.012572,0.017581,0.016419
0.12444,-0.010897,-0.13202,0.19663,-0.023547,0.0027978,-0.0077179,0.070721
-0.062219,0.079406,-0.070234,0.23096,0.11993,0.041919,0.014513,-0.01621
0.0078759,-0.026391,-0.26489,-0.066879,-0.087524,-0.010608,0.021987,0.0057119
0.029704,0.12367,0.89789,0.2378,0.063904,0.055911,-0.00086638,-0.043105
-0.12188,-0.27588,-0.75654,-0.48567,-0.051823,-0.032476,-0.015088,0.0093174
-0.0092359,-0.029842,-0.050158,-0.7681,-0.091498,-0.065509,-0.005288,0.022478
0.0868,-0.036108,0.41516,1.0156,-0.01589,0.026413,0.012601,0.035598
-0.020617,0.15176,-0.30472,-0.22741,-0.066297,-0.02296,-0.016427,-0.060496
-0.065109,-0.035147,-0.23862,-0.21302,-0.10073,-0.02659,-0.022327,-0.054636
0.079019,0.2014,0.27284,-0.022038,0.2416,0.085568,0.041594,0.076842
0.029438,-0.075083,0.01402,0.17345,0.11796,0.00092909,-0.01224,-0.017443
-0.026175,-0.028195,-0.043968,0.37546,-0.033906,-0.014812,0.0036894,0.037589
0.013586,-0.087711,0.52174,-0.23253,0.058778,-0.0083406,-0.019904,-0.023744
-0.07827,-0.090146,-0.5629,-0.52837,-0.20697,-0.034068,0.010857,-0.014143
0.057056,0.112,-0.081291,0.20432,0.026385,0.025529,0.0023494,0.011386
0.020564,-0.029282,0.3931,0.49426,0.030505,0.0067521,0.0015491,0.013395
0.13999,0.17231,-0.018234,-0.29469,0.022862,-0.00411,0.024137,0.014952
-0.28791,-0.14367,-0.18547,-0.081261,-0.012616,0.0010562,-0.01581,-0.070168
0.049603,0.045372,0.2177,0.034551,-0.13793,-0.016602,-0.0089323,0.070394
-0.011058,-0.081311,-0.63697,-0.11924,0.046721,-0.025743,-0.025564,-0.078954
0.0072746,-0.015835,0.4162,0.49486,0.066695,0.036095,0.012418,0.021047
0.23793,0.18774,-0.151,-0.00082139,0.049077,0.075015,0.034731,0.066029
-0.13917,-0.14133,0.009006,-0.64077,-0.059017,-0.042005,-0.0054288,-0.013948
-0.053857,-0.032727,0.23585,0.26708,0.05607,-0.033914,-0.022009,-0.062274
-0.037959,-0.023769,-0.053549,-0.15515,-0.050684,-0.010198,0.0085768,0.022892
0.095149,0.15288,0.31412,-0.019005,0.034177,0.021361,0.00055597,0.022958
0.18039,-0.10299,-0.23939,0.44753,0.06711,-0.040618,-0.030287,0.0082519
-0.32226,0.021901,-0.05149,-0.34213,-0.10994,-0.00053827,0.033356,0.017724
0.21154,0.0040477,-0.32767,0.39337,0.063654,0.016894,-0.011596,-0.01915
-0.27317,-0.10284,0.10122,-0.087289,-0.054295,0.011868,0.0066713,-0.079196
0.028469,0.058736,0.39663,-0.39953,-0.074107,0.023426,0.0020417,0.040445
0.20292,0.18149,-0.32643,0.27956,0.18374,0.043481,0.013292,0.050478
0.032173,-0.018792,0.28205,0.031473,-0.12388,-0.06129,-0.0068098,-0.01802
-0.029837,-0.084095,-0.38829,-0.37453,-0.1208,0.028759,-0.0039517,0.014534
0.017621,0.030113,0.029307,-0.021079,0.20228,0.00044422,0.013724,-0.00032656
-0.082659,-0.14627,0.34731,0.1877,-0.11424,-0.099934,-0.055579,-0.05475
-0.088036,-0.058652,-0.16835,-0.10743,-0.053855,0.031961,0.022414,-0.015832
0.017406,0.012921,0.27195,0.44274,0.19607,0.044486,0.005545,0.046224
-0.00060217,0.086345,-0.35433,-0.010378,0.056755,0.0081403,0.018956,-0.0013044
0.22502,0.031775,0.1025,0.049971,-0.051253,-0.021979,-0.0074507,0.021298
-0.14983,0.24304,-0.05121,-0.094437,-0.067067,0.03281,-0.0031184,-0.011012
-0.00065897,-0.17528,-0.21969,0.026671,-0.0077718,0.0012737,0.024386,0.034483
5.3489e-05,-0.040959,0.35701,-0.23888,-0.053906,-0.029988,-0.034085,-0.045447
0.14085,-0.10212,-0.15507,-0.21149,-0.025703,-0.021275,0.0091752,0.0069661
-0.14886,0.025154,0.011145,-0.11383,0.0076204,0.012351,-0.0018953,-0.026962
-0.056485,-0.033902,0.090643,0.045718,0.032402,0.047908,0.011001,0.001405
-0.03469,0.095083,0.051817,0.17477,-0.0035911,-0.047122,-0.014482,0.01426
0.042302,-0.097217,-0.14569,-0.022124,-0.0041655,-0.022639,-0.015718,-0.011459
0.13632,0.22285,0.011725,0.24366,-0.0064603,0.02749,0.022999,0.033975
-0.056534,0.036814,0.31079,0.40591,0.13895,0.024795,0.0079393,-0.013254
0.03449,-0.095827,-0.34451,-0.019537,-0.013428,0.0078062,0.0015492,0.010994
-0.14534,-0.15438,-0.15906,-0.52829,-0.050864,-0.00070375,-0.011924,-0.0027649
0.012791,-0.023676,0.22548,0.14701,-0.10844,-0.032686,-0.0014188,-0.031377
0.28126,0.24843,-0.0035494,-0.41508,0.084476,0.020598,0.017212,0.049758
-0.19287,-0.19723,-0.056491,0.0047176,0.017193,-0.013206,-0.018769,-0.025421
-0.043827,-0.070304,0.075614,0.35342,0.030994,-0.024989,-0.0080207,0.0005096
0.047422,0.076592,0.11295,-0.24046,-0.078924,0.0086409,0.0023943,0.0022757
-0.068415,0.066164,0.025695,0.74432,0.014918,0.0018813,0.020145,-0.028047
0.014609,-0.083737,-0.38024,-0.72364,-0.062033,-0.0059641,-0.017365,-0.012281
0.12491,0.16758,0.18499,0.41201,0.0041304,0.040053,0.014806,0.034134
-0.17417,-0.10881,-0.20804,-0.59562,0.020164,-0.00048226,-0.0083588,-0.0057286
0.048273,0.063528,0.4559,0.4842,-0.0037784,-0.010251,-0.0087114,0.016837
0.10616,0.13686,-0.097598,-0.28142,0.14545,0.049872,0.03725,0.039555
0.00090656,-0.20256,0.020695,0.25268,-0.022607,-0.054442,-0.026615,-0.054614
-0.086566,-0.0028363,-0.14391,0.090342,-0.045917,-0.010604,-0.0048375,0.0078396
0.024332,-0.05391,-0.045893,-0.070407,-0.017852,-0.029378,-0.0066028,-0.015267
-0.10342,-0.12177,-0.0064439,-0.46271,-0.048024,-0.03237,-0.023895,-0.045851
0.045835,0.14529,-0.064803,0.053677,-0.004331,0.051046,0.037221,0.06444
0.15916,0.052396,0.31079,0.84394,0.11222,0.080537,0.012814,0.010803
-0.045499,0.10001,-0.32393,-0.65778,-0.17609,-0.053081,-0.011129,0.011839
-0.053561,-0.18819,0.055788,0.20051,0.027971,-0.0060146,-0.0033911,-0.026365
0.04793,0.26579,0.10745,-0.11698,0.098239,0.049748,0.035925,0.013226
-0.12481,-0.28851,0.074171,0.31533,0.080549,-0.081336,-0.049569,-0.04919
0.029082,0.19516,0.073583,-0.58368,-0.088422,-0.0011261,-0.010005,0.005092
0.017086,-0.010258,-0.32409,0.083084,-0.0029047,0.024456,0.029522,0.043285
0.018885,-0.053343,0.14624,0.47238,0.10272,0.026403,-0.0091558,0.010794
0.050345,-0.05868,0.022896,-0.17904,-0.16162,-0.042355,-0.016662,-0.029744
-0.11474,-0.20499,0.023856,-0.24232,-0.068255,0.0055553,-0.00078524,-0.031303
0.13337,0.2122,-0.19516,-0.14226,0.04062,-0.0096217,0.01505,0.014069
-0.087911,-0.047898,0.33451,0.75917,0.033929,0.083976,0.046455,0.051795
-0.012819,0.054813,-0.16791,-0.56436,0.085155,-0.018297,-0.023803,-0.011804
0.10086,0.028522,-0.013819,-0.10894,0.015766,-0.074144,-0.031719,-0.020431
-0.035893,0.20092,-0.029643,0.49514,-0.080015,0.018187,0.01486,0.018142
0.163,0.1021,0.15388,-0.35296,0.086559,0.055835,0.037835,0.018044
-0.34115,-0.37105,-0.12516,0.32223,-0.071496,-0.093697,-0.079879,-0.083124
0.069459,-0.19666,-0.34939,-0.74,0.006735,0.015217,0.0056374,0.0038216
-0.0027866,0.1319,0.2008,0.62003,0.038146,0.054693,0.021143,0.021168
0.052326,0.090596,0.23583,0.053035,-0.02597,-0.0064283,0.013673,0.015806
0.12606,0.04659,0.11297,0.099759,-0.077788,0.0036231,0.02235,0.050109
-0.054821,0.086251,-0.054327,-0.58189,0.037843,-0.0014029,-0.0075936,-0.016842
-0.053175,-0.12572,-0.044327,0.22127,-0.0077688,-0.0063621,-0.013883,-0.037048
-0.018412,-0.033991,-0.21381,-0.12014,0.027496,0.0038017,0.018776,0.05148
0.071442,0.2291,0.034161,0.39121,0.0033611,-0.010527,-0.011544,-0.0095453
-0.019732,-0.15651,0.46996,0.21565,-0.0092138,-0.018533,-0.019214,-0.079835
-0.012407,-0.19081,-0.36031,-0.80911,0.068752,0.0029943,0.0033955,0.01237
-0.072037,0.11043,-0.25949,0.93055,0.03514,0.046266,-0.0062171,-0.0062381
0.29279,0.0438,0.011176,-0.78534,-0.069838,-0.044683,0.014634,0.067811
-0.32412,0.28093,0.012583,0.30952,-0.057402,0.035344,0.011602,0.016261
0.015647,-0.21738,0.16582,-0.33784,0.011339,-0.05674,-0.030503,-0.035336
0.063771,-0.1307,0.032164,0.12579,-0.088773,0.015728,-0.0096731,-0.023952
-0.060391,0.0023889,0.14791,0.03647,0.049768,0.026862,0.035406,0.0039755
0.082911,0.13583,0.29697,0.20403,0.13881,0.024064,0.034661,0.040931
-0.06694,-0.096461,-0.49721,-0.08118,-0.055673,-0.047047,-0.050898,-0.053574
0.084937,0.0097757,0.16129,0.24818,-0.041775,0.016694,0.013002,0.0173
0.0074358,-0.036713,-0.30229,-0.010215,0.09361,0.011942,-0.00043526,0.018989
0.059066,0.092649,-0.081108,0.039784,-0.018172,0.00076048,-0.0055932,0.013683
-0.089956,-0.016424,0.32655,-0.58228,-0.058555,-0.0096163,-0.0028135,-0.022434
0.21457,0.041375,0.016459,-0.044245,-0.0058333,-0.027633,-0.0002189,0.019627
-0.31838,-0.00894,-0.12554,0.50344,-0.025512,0.016426,-0.013675,-0.063587
0.13012,0.31513,0.73325,0.14789,0.037709,0.03614,0.042605,0.079259
-0.11232,-0.49606,-0.68181,-0.23846,-0.027469,-6.1601e-05,-0.018937,-0.05975
-0.060874,-0.108,-0.22901,-0.052149,-0.0020979,-0.061065,-0.018591,-0.011846
0.066945,0.18947,0.0011944,-0.18551,-0.010535,-0.0062073,-0.0031483,0.027759
0.061863,0.076032,-0.017453,0.0037057,0.096554,0.031872,0.027509,0.02015
0.089582,0.021131,0.23648,0.089318,-0.039249,-0.0090768,-0.012425,0.027975
0.034131,0.096291,0.057575,-0.31567,-0.026481,0.043089,0.017796,-0.018953
-0.018015,-0.11884,0.051544,0.74371,0.041706,0.040179,-0.014535,-0.026791
-0.14518,-0.067915,0.040724,-0.50747,-0.092212,-0.072289,-0.0077735,-0.026722
0.14402,0.15689,0.17317,0.35459,0.087369,-0.0050682,0.0068957,0.020364
-0.18286,-0.20868,-0.5771,0.1241,-0.021413,-0.015793,-0.0095401,-0.026135
0.029119,0.070734,0.39526,-0.40871,-0.028433,0.0051008,0.013267,0.075955
0.11472,-0.027847,0.1404,0.42653,-0.035848,0.0031209,-0.010601,0.0062598
-0.06758,0.050054,-0.47856,-0.52105,0.10421,0.02532,-0.0030229,-0.063459
0.01297,-0.0089747,0.15281,0.043884,0.039745,0.0093276,0.0047249,-0.031794
0.01252,0.15291,0.10393,0.59104,-0.04188,0.017706,0.012597,0.038583
0.10323,0.080637,-0.12409,-0.84386,-0.085779,-0.035495,0.02054,0.069395
-0.15961,-0.18873,0.26841,0.38816,-0.028876,0.0059,-0.010544,-0.0019484
-0.017374,-0.13343,-0.52713,-0.27139,-0.010918,-0.030105,-0.033784,-0.066065
0.046466,0.011114,0.31381,0.12936,0.062863,0.004775,-0.010074,-0.0447
0.032746,0.064996,0.068278,0.35584,0.052791,0.024419,0.0059819,0.015515
-0.050093,-0.041526,-0.019208,0.016845,0.061088,-0.010459,0.02229,0.036772
0.11077,0.14584,0.32531,-0.47585,-0.14641,-0.0063849,-0.00014765,0.027206
-0.094081,-0.043317,-0.46982,-0.03339,0.023733,0.020694,0.0011651,-0.012932
0.069407,-0.021614,-0.071611,0.56302,0.047301,0.046997,0.010507,0.0024102
0.085085,-0.06912,0.31291,-0.048538,-0.014339,-0.068415,-0.019183,-0.020561
-0.27417,0.096188,-0.070334,0.11202,0.032857,0.0023607,0.0056045,-0.011724
0.15524,0.20123,0.494,0.11021,-0.023225,0.040513,0.029935,0.059879
-0.1035,-0.26962,-0.5117,-0.55025,0.050935,-0.024133,-0.016696,-0.056076
0.082368,-0.0040207,-0.43134,-0.46557,-0.12004,-0.034993,-0.040623,0.0073147
0.19736,-0.033489,0.072688,0.035685,0.010919,-0.01502,0.012887,0.038934
-0.34424,-0.04577,0.10499,0.15,-0.039907,0.036329,-0.0044359,-0.039381
0.082776,0.091692,0.20033,0.42617,0.025348,0.0023465,0.0092168,-0.008768
0.11137,0.073879,0.04142,0.39704,0.06712,0.0083445,-0.00058331,-0.017441
0.069678,0.12689,0.45027,0.10216,0.023797,0.015332,0.013246,0.03644
-0.065792,-0.1249,-0.096572,-0.34993,0.059971,0.038757,0.035189,-0.010943
-0.13107,-0.096271,-0.38982,-0.16414,-0.035179,-0.031119,-0.028504,-0.018824
0.1785,-0.022297,-0.14315,-0.23309,-0.090025,-0.038485,0.0017752,0.083104
-0.16818,0.0027076,-0.09402,-0.16747,-0.011275,-0.014981,-0.022521,-0.025624
0.032312,0.10342,0.11417,0.10299,0.028706,0.015734,0.0079033,0.0063111
0.038284,0.061086,0.542,1.0172,0.084245,0.038033,-0.016332,-0.079157
0.084668,-0.069307,-0.65517,-1.0004,-0.071365,-0.049433,0.022046,0.045926
-0.14834,-0.10745,0.10106,-0.11054,-0.14117,-0.019733,-0.025241,-0.024712
0.13646,0.19753,0.54627,0.39308,0.16414,0.049415,0.02949,0.013763
-0.13902,-0.24709,-0.46595,-0.31528,-0.092676,-0.013534,-0.0011079,-0.0024314
0.032692,0.1066,0.035708,0.5076,0.14325,0.025947,0.00021923,0.012986
0.064967,0.025071,0.20247,0.13461,-0.01092,-0.0041019,-0.021277,-0.017804
0.073996,0.04007,-0.35354,-0.10026,-0.016365,0.0053856,0.020145,0.030381
-0.097619,-0.043716,-0.004993,-0.059181,-0.045367,-0.0007398,-0.0086416,-0.0065367
0.0099623,-0.094022,0.16377,-0.43252,-0.035892,-0.015164,0.016981,-0.019409
-0.15877,0.14593,0.27831,0.058644,0.027281,0.008581,0.0028852,0.0069728
0.45832,0.22168,-0.21662,-0.35265,-0.02016,-0.015646,0.0034597,0.072072
-0.41981,-0.33694,-0.010226,0.34105,0.0014132,-0.025291,-0.020502,-0.074664
-0.034547,0.00016713,0.11375,0.28852,-0.040692,-0.035674,-0.029884,-0.043073
0.084076,-0.056732,-0.20698,0.49045,0.13503,0.055247,-0.00099424,0.057197
0.039034,0.078273,-0.069061,-0.083619,-0.010169,0.029266,0.019704,-0.023883
0.11287,0.273,0.29854,-0.7219,0.031914,0.058739,0.048326,0.057668
-0.15448,-0.32291,-0.33238,-0.24365,-0.17582,-0.12945,-0.055279,-0.049252
0.08881,0.081109,0.10001,0.25873,0.0076982,0.050735,0.02175,-0.031524
0.029859,0.0022894,0.24445,0.34163,0.12199,0.021072,0.0061631,0.01778
0.027107,0.0045007,-0.054019,-0.24319,-0.059088,-0.0077829,0.0073141,0.060228
0.0011878,-0.11451,-0.16049,0.43553,0.074201,-0.012769,-0.037512,-0.044318
-0.16633,0.090756,0.1856,-0.48055,-0.11078,-0.041162,0.019756,0.0012832
-0.023281,0.14314,-0.16888,0.2354,0.042182,0.062937,0.014612,-0.021703
0.054826,-0.075815,-0.338,-0.22972,-0.029714,-0.036657,-0.014322,0.074
0.15395,0.25252,0.41526,0.06804,0.11047,0.04275,0.041974,-0.008888
-0.13949,-0.44388,-0.055864,0.12666,-0.061457,-0.034763,-0.058889,-0.067747
0.011172,0.12271,0.163,0.0062304,-0.038571,-0.026881,-0.012236,0.0062932
0.028649,0.029829,-0.22633,0.42304,0.1314,0.058786,0.018043,0.017498
-0.062943,-0.073815,0.23426,-0.55482,-0.099144,-0.035346,0.0088224,0.012463
0.11961,0.062878,-0.06082,-0.58533,-0.10563,-0.027828,-0.0004551,-0.0011126
-0.1346,-0.10533,-0.34272,0.36951,0.033685,0.042408,-0.0016202,-0.031004
0.12728,0.14211,0.33729,0.26239,0.11589,0.034778,0.02121,0.032315
0.092314,-0.060524,-0.047697,0.64816,-0.046039,-0.011704,-0.0099824,-0.0062551
-0.052424,0.23294,0.18798,0.019825,0.079802,0.004423,0.021938,0.025372
-0.13521,-0.10248,-0.088322,-0.63676,-0.068337,-0.073208,-0.03947,-0.060142
-0.046421,-0.27073,-0.53838,-0.57706,-0.067823,-0.0024985,0.00083372,0.0028976
-0.074444,0.20325,0.13877,0.17853,0.035172,0.021191,-0.0058816,0.03477
0.11761,0.03637,0.2218,0.08663,0.0068591,0.021287,0.026074,0.050969
-0.055252,-0.062324,0.19268,0.3926,-0.011728,0.02904,0.010609,-0.03463
0.2592,0.014962,-0.30338,0.35641,0.088982,-0.002428,-0.013241,-0.026905
-0.017039,0.025026,0.57245,-0.10734,-0.019171,0.020616,-0.0063104,-0.011916
-0.12662,-0.18867,-0.85099,-0.60935,-0.062991,-0.089341,-0.030881,0.0025197
