-0.23877,0.14333,0.049017,0.02989,0.026322,0.076213,0.21325,0.13453
0.12422,-0.096214,-0.033921,-0.015314,-0.012938,0.00079377,0.16781,0.44656
-0.20827,0.062004,0.015347,-0.013842,-0.025377,-0.062724,-0.4804,-0.13486
-0.034543,-0.061473,0.016835,0.026209,0.12081,0.065244,0.34455,-0.47758
-0.058979,0.056621,0.0015591,-0.020348,-0.013228,-0.075501,-0.015532,0.10022
0.47373,0.0015074,0.00066156,-0.012928,-0.069517,-0.03813,0.21145,0.4316
0.14467,-0.017124,-0.056101,-0.02173,-0.064767,-0.14092,-0.62338,-0.4763
-0.1476,0.092909,0.011225,0.031613,-0.030786,0.11047,0.51179,0.11943
0.38347,0.13478,0.015578,-0.001028,0.016849,0.12409,-0.31114,0.23535
-0.80553,-0.18158,0.0043835,0.0056533,0.039633,0.018126,-0.10548,-0.12087
0.1866,0.065665,0.040702,0.020636,0.030595,0.081577,0.733,0.079591
0.15993,-0.2942,-0.085937,-0.026289,-0.017245,-0.11637,-0.86357,-0.27054
-0.13108,0.014634,0.030994,-0.010159,0.021676,-0.015171,0.38006,0.045656
-0.64922,-0.035886,0.0087061,0.0063651,0.014673,-0.039071,-0.21508,-0.16525
0.29249,0.073319,0.050085,0.038667,0.047346,0.051866,0.25685,0.18092
0.71777,0.40774,-0.0015782,-0.0072581,-0.02942,0.0059816,0.33348,0.53297
0.049023,-0.16354,-0.029677,-0.030054,-0.052363,0.025668,0.051932,0.25296
0.13827,0.12565,0.012087,-0.014199,-0.022142,-0.13094,-0.68333,-0.33471
-0.13904,-0.19433,0.021707,0.040327,0.053145,0.029585,0.68928,-0.33163
-0.78206,-0.086315,-0.1573,-0.10072,-0.099718,-0.1628,-0.90016,-0.38064
0.070273,0.0096781,0.029735,0.062831,0.051248,0.13757,-0.10615,0.36635
0.18633,-0.018318,0.098609,0.054597,0.077452,0.15872,0.22235,-0.46289
0.12449,-0.039816,-0.0051371,-0.015961,-0.043318,0.026236,0.82234,0.17798
-0.25952,-0.017619,-0.031299,-0.039487,-0.075645,-0.11187,-0.44515,-0.22548
0.81162,0.15628,0.14525,0.10109,0.082594,0.18054,0.12302,0.38889
-0.3076,-0.050243,-0.092622,-0.11003,-0.10003,-0.17651,-0.2328,0.56305
-0.47506,0.17489,0.0051785,0.030152,0.070762,0.041725,0.59341,-0.050533
0.49656,0.042737,-0.053332,-0.033117,0.014969,-0.095636,-0.72272,0.14632
-0.50391,-0.25057,-0.05682,-0.0028973,0.050448,-0.0027989,0.3229,-0.27825
0.28596,0.030977,0.065597,0.066288,0.11208,0.086915,0.16533,-0.13573
0.080661,0.038352,-0.060453,-0.044096,-0.013265,-0.16816,-0.39909,-0.53628
-0.23403,-0.17832,-0.020411,-0.02917,-0.13927,-0.01535,-0.658,0.18435
-0.16311,0.17359,0.076503,0.025222,-0.13279,0.024489,0.34463,-0.087492
0.67955,0.042623,0.089336,0.025285,-0.015156,0.046966,0.54976,0.21921
0.27486,-0.26442,0.0016336,0.072399,0.12357,0.36519,0.50728,0.53272
-0.86334,-0.15353,0.046587,-0.060273,-0.032106,-0.099785,-0.60134,-0.42391
0.046477,0.045051,-0.081744,-0.029249,-0.023926,-0.1313,0.013285,0.41338
-0.35261,0.69398,0.0141,-0.0065652,-0.011434,0.049045,0.72527,-0.403
0.65463,0.39622,-0.22879,-0.023448,0.08653,-0.14758,-0.88086,-0.22449
-0.23888,-0.35535,0.033649,0.014085,0.067751,-0.1141,-0.37666,-0.15991
0.20679,-0.34825,0.091431,-0.0029366,0.0088871,0.046629,0.47943,-0.18712
-0.15993,-0.43792,0.055294,0.043157,0.039084,0.01421,-0.67984,0.39942
0.35149,-0.070046,0.036019,-0.0034368,-0.050064,-0.0073334,0.41124,0.27584
-0.17994,0.055618,-0.0043594,0.0060201,-0.022386,0.17102,0.55693,0.43154
-0.41176,0.11735,0.020634,-0.045577,-0.12583,-0.097472,-0.17385,-0.11186
0.098206,0.37316,-0.068809,0.029106,0.056855,0.27465,1.0134,-0.51785
0.50178,0.096457,0.039099,0.034372,-0.0005908,-0.070826,-0.80594,0.35966
-0.15129,-0.058286,-0.039574,-0.02252,-0.025497,-0.14094,-0.40737,-0.020564
-0.27966,0.0058586,-0.01704,-0.07188,-0.12605,-0.27892,-0.71313,-0.34509
0.41004,-0.06264,0.019585,0.057557,0.13016,0.16398,1.0209,-0.34193
-0.59176,-0.079,-0.08682,-0.0097157,0.059232,0.016081,-0.7792,0.11909
0.4965,0.21785,0.2805,0.085339,0.10245,0.089796,0.57926,0.30738
-0.47916,-0.4039,-0.29248,-0.11835,-0.080556,-0.013781,-0.133,-0.15096
0.27412,0.082139,0.069738,0.019927,-0.018478,-0.092507,-0.21739,-0.22071
-0.098475,-0.069897,0.047684,0.023895,0.016805,0.13338,1.0686,0.51663
0.10279,0.005055,-0.068563,-0.035695,-0.075672,0.0058422,-0.23879,-0.19422
-0.14206,0.17358,0.10483,0.052623,0.047659,0.14028,-0.86405,0.73965
0.30953,0.21752,0.029656,0.023766,0.011096,0.0041879,0.45928,-0.47574
0.41878,-0.22905,-0.059178,-0.012403,-0.01445,-0.19185,0.51373,-0.40365
-0.71386,-0.18808,-0.16153,-0.094568,-0.084675,-0.23602,-0.5096,0.47605
-0.027767,0.029246,0.042632,-0.011561,-0.0051772,-0.22001,-0.68151,-0.59102
0.45958,0.33014,0.11515,0.11169,0.14518,0.46843,0.908,0.44585
-0.26081,-0.042543,0.12543,0.0016435,-0.040418,-0.019195,-1.0226,-0.2596
-0.41565,0.013307,0.049069,0.040909,0.039219,0.23371,0.81006,-0.2313
0.22242,-0.032744,-0.2397,-0.10673,-0.084869,-0.15428,-0.68572,0.28215
0.1391,-0.14022,0.055697,0.019419,0.0013412,-0.20664,0.20874,0.17412
0.0073081,-0.19755,-0.10347,0.0051263,0.063607,0.23137,0.89532,-0.099027
-0.11825,-0.11587,0.0025033,-0.055898,-0.054035,0.055623,0.38776,0.20773
0.12805,0.48303,0.046887,0.04734,-0.0074427,-0.23703,-0.35222,-0.38824
0.33663,0.055159,-0.015722,0.01806,0.016302,-0.0012444,-0.77301,0.29301
-0.08311,-0.40551,0.12049,-0.0030663,-0.03715,-0.020768,-0.34805,-0.242
-0.089444,0.10105,-0.083138,-0.00047953,-0.0035855,-0.00023086,0.5047,0.5901
0.024047,0.11182,0.052557,0.017797,0.062191,0.18506,0.12021,-0.67501
-0.62823,0.11471,0.026131,0.0045565,0.026958,0.059446,0.056647,0.14653
0.43785,0.11152,0.24174,0.029731,0.03851,-0.039172,0.1507,-0.17517
-0.11905,-0.26407,-0.43575,-0.11795,-0.083582,-0.21742,-0.42796,0.4588
-0.21609,0.059228,0.10104,0.037891,-0.0040337,-0.15188,-0.4511,-0.35953
0.7309,0.068119,0.022749,0.059783,0.042404,0.28548,0.72585,0.34564
-0.64698,-0.068648,0.055762,0.0026715,-0.045805,0.14385,0.27903,-0.15996
0.23336,-0.2027,-0.16618,-0.10175,-0.088517,-0.35683,-1.1015,-0.14902
0.1404,0.051965,0.046281,0.028317,0.032247,0.079954,0.8179,-0.081343
-0.1209,0.14669,0.04706,0.0027691,0.028358,0.19445,0.1648,-0.198
-0.021554,0.058208,0.018261,0.009495,0.010027,-0.071359,-0.19562,0.65809
0.61402,-0.040787,0.18063,0.14241,0.1731,0.46583,0.90254,0.30762
-0.56288,-0.57219,-0.10521,-0.051693,-0.060463,-0.28421,-0.92436,-0.40581
-0.080286,0.53202,-0.04205,-0.080909,-0.13629,-0.64529,-0.95935,-0.89673
-0.042881,0.11778,-0.060091,0.0074887,0.06996,0.45086,1.0934,0.77184
-0.20167,-0.074516,-0.051185,-0.091592,-0.09872,-0.34749,-0.85142,-0.33011
0.077381,0.19961,0.14707,0.098068,0.12259,0.51606,1.1705,1.0241
0.2192,-0.099482,-0.084334,-0.0097154,-0.047831,-0.18184,-0.80374,-0.78223
0.079336,0.073147,0.10446,0.01458,-0.016414,0.055128,0.7182,-0.41968
-0.15849,-0.049525,-0.084774,0.022414,0.0060512,-0.10467,-0.68348,0.4416
0.12613,-0.30252,0.034642,0.0059134,0.019962,0.163,0.29936,0.046031
0.36484,-0.11092,-0.076534,-0.011486,-0.0053834,-0.11542,0.28838,0.01338
-0.26984,-0.043954,0.12905,-0.014076,0.0087001,0.1557,0.10918,0.48694
-0.25483,0.14569,-0.12883,-0.032911,-0.046716,-0.21833,-0.64663,-0.76513
0.2761,0.35679,-0.044085,-0.0051652,0.023908,-0.097417,-0.20772,-0.053227
-0.23277,-0.24477,0.056673,-0.00072443,0.025218,0.21217,-0.19412,-0.12599
-0.21217,-0.10279,0.018534,0.012126,0.0037845,-0.08097,0.49921,0.4622
0.071194,0.040182,0.20963,0.080684,0.099739,0.42654,0.84994,0.71029
0.20165,-0.006766,-0.18215,-0.060379,-0.13279,-0.59652,-1.0968,-0.86082
-0.40938,0.43686,-0.06322,-0.012507,-0.022396,0.10466,0.67807,-0.21588
0.64037,-0.037827,0.057987,0.036725,0.01657,0.14455,0.44137,0.30435
0.18937,-0.18604,0.024306,-0.045752,-0.023712,-0.12747,-1.0485,-0.18814
-0.049592,-0.029976,0.030051,0.052171,0.083561,0.16201,0.48311,0.58289
-0.042899,-0.2636,-0.066303,-0.060595,-0.067438,-0.17543,-1.0308,-0.18357
-0.35658,0.07668,-0.10136,-0.0095376,0.015969,0.10221,0.68924,-0.5214
-0.045611,0.12842,0.065103,0.056456,0.052976,0.25336,0.62922,0.67025
-0.29384,-0.34358,0.15954,-0.0036072,-0.042045,-0.32985,-0.88632,-0.71645
0.14844,-0.041426,-0.14609,0.0053391,0.027917,0.12068,0.83639,0.28316
-0.13031,0.48233,-0.031254,-0.018351,-0.0027863,0.04588,-0.34381,-0.090982
0.55318,0.073757,0.12152,0.0035505,-0.017095,-0.050047,0.049047,0.34755
-0.064157,0.078474,0.03913,0.0010333,-0.0073623,-0.23282,-0.557,0.051255
-0.34993,0.036572,-0.043669,-0.0019914,0.0419,0.1347,0.76406,0.4175
0.33955,-0.34857,-0.16549,-0.044,-0.11158,-0.26448,-1.1974,-1.1341
-0.03663,-0.35841,0.1039,-0.0072029,-0.0069035,0.055472,0.54115,-0.3033
0.32776,0.42084,-0.0083817,0.054213,0.11369,0.57013,0.91179,0.77024
-0.35014,0.090701,-0.017408,-0.015709,-0.046777,-0.16943,-0.1014,0.045055
0.043979,-0.30949,-0.032155,0.025235,0.058348,0.16695,-0.21904,0.007726
0.1253,0.24419,0.21317,0.075215,0.045953,0.01755,0.24467,0.82958
-0.23046,-0.060284,-0.13313,-0.085002,-0.068665,-0.12445,-0.51456,-0.53841
-0.49525,-0.027459,-0.016765,-0.049745,-0.082629,-0.48303,-0.82861,-0.68419
0.30853,0.092299,-0.0086433,0.063265,0.066483,0.079966,0.82649,0.77498
0.10737,-0.16293,0.038992,-0.019778,-0.043064,-0.044119,-0.82602,-0.59496
-0.19358,0.27565,0.00050468,-0.0099515,0.01094,0.085849,0.70526,-0.24724
0.2252,-0.054658,-0.10899,-0.047798,-0.0054443,0.1395,0.42797,-0.037184
0.26771,-0.046143,0.10077,0.038786,0.033183,0.029214,-0.35465,0.10478
0.0070537,-0.16088,-0.042301,0.0078695,0.0098675,0.057125,0.55646,0.43708
-0.18216,0.218,0.024135,0.015864,0.01052,0.015576,-0.40827,0.39731
0.52495,-0.1901,-0.020408,0.023686,0.019217,0.13185,0.51515,-0.047673
-0.4548,-0.17281,-0.027747,-0.00013699,-0.027047,-0.11928,-0.47293,-0.28539
-0.47837,-0.18919,0.072101,0.0065317,0.0039614,-0.030544,-0.63265,-0.31561
0.15298,0.43445,0.036605,-0.027002,-0.028874,0.049728,0.31656,0.23461
0.29625,0.51968,0.053059,0.024013,0.022626,-0.10156,0.024691,0.10395
0.068621,-0.38608,-0.0034282,-0.051343,-0.05242,-0.12037,-0.30171,-0.27413
-0.67623,0.060761,-0.13227,-0.033977,-0.0036298,-0.12525,0.31039,-0.45826
0.44014,-0.28089,-0.10581,0.0064462,0.028998,0.079703,-0.010348,0.34502
0.046444,-0.25505,-0.031864,0.0082513,-0.0084878,0.028023,0.19875,0.39858
0.12229,0.31053,0.044353,0.042574,0.072098,0.36373,0.88975,-0.033972
0.16934,0.17486,0.11645,0.01629,-0.041244,-0.16711,-0.92556,0.038476
0.00021773,-0.1992,0.052383,0.02343,0.034535,0.16578,0.1376,0.45208
0.10608,0.11256,0.06295,-0.0064444,-0.020913,-0.017148,0.08051,-0.088025
-0.41295,-0.15332,0.076771,-0.019143,-0.059412,-0.41654,-0.91506,-1.0855
-0.40941,-0.19855,-0.20479,-0.046658,0.0045843,0.008263,0.50646,0.11407
0.34345,0.25823,0.020959,-0.0038735,0.030024,0.085966,0.17975,-0.12252
0.18316,0.28576,-0.013386,0.10067,0.094658,0.13622,0.36374,0.28973
0.1126,-0.22863,-0.090166,-0.085091,-0.090835,-0.085224,-0.49338,0.45713
-0.35689,0.022906,0.0091703,-0.037916,-0.073456,-0.042858,-0.63798,-0.64299
0.11401,0.10532,0.043131,0.015736,-0.0094527,-0.038412,0.6051,0.55551
0.03547,0.036932,0.067763,0.084024,0.17938,0.81307,1.0115,0.93437
-0.17785,-0.46737,-0.063721,-0.043508,-0.10061,-0.53314,-0.46516,-0.39353
0.37875,0.27809,0.025217,-0.030425,-0.029048,-0.18324,-0.80207,-0.56587
0.13906,0.024031,0.10128,0.029932,0.058105,0.032017,0.68679,0.016596
-0.12883,-0.17943,-0.038219,0.03625,0.020135,-0.16071,-0.32009,-0.60405
-0.063873,0.29021,-0.018562,-0.019212,-0.033712,0.0071885,0.14599,0.48846
-0.46874,-0.28705,-0.082762,-0.034972,-0.048865,-0.12286,-0.25707,-0.33721
0.23029,-0.060742,0.010206,0.020041,0.01368,0.26861,-0.088342,-0.37888
0.15601,-0.025119,0.25132,0.020626,0.028958,0.11849,0.055322,0.36489
0.30107,0.56586,-0.32917,-0.033381,0.028343,0.10477,0.55396,0.45671
-0.28458,-0.1614,0.01811,-0.040501,-0.073908,-0.33107,-1.1195,0.07933
-0.29106,0.034148,0.050825,0.053955,0.050544,0.19499,0.70145,0.33794
-0.040018,-0.1164,0.11299,-0.023384,-0.043426,-0.076404,0.28979,-0.3579
0.24859,-0.039558,-0.02922,0.055696,0.066176,0.22584,0.85347,0.46452
0.049,-0.23261,-0.086036,-0.029046,-0.01906,-0.13025,-0.88617,-0.36736
-0.073074,-0.028479,0.15414,-0.0041449,-0.017951,-0.11924,-0.67764,-0.30855
0.10135,-0.12639,-0.15972,0.013185,0.045931,0.12082,0.56661,0.1179
0.19432,0.52551,0.027374,-0.03182,-0.061958,-0.27321,-0.75228,-0.20742
-0.12791,0.058313,-0.0032818,-0.029892,-0.029281,-0.0063382,0.17473,-0.63159
-0.14604,-0.020918,0.17782,0.10478,0.09695,0.17154,0.89264,0.76283
0.41377,-0.19642,-0.1328,-0.065457,-0.058376,0.043359,0.15068,-0.18735
-0.47012,-0.58446,-0.11534,-0.025124,-0.026608,-0.083525,-0.85596,-0.040904
0.0037321,0.76965,0.09687,-0.00095163,-0.0031746,-0.010844,-0.088187,0.26057
-0.10189,-0.19445,-0.035774,0.053762,0.082089,0.38904,1.0791,0.4371
0.26383,0.14287,0.072207,0.0060442,-0.020993,-0.38196,-0.96302,-0.32667
-0.24377,-0.075181,-0.0561,-0.027039,-7.9973e-05,0.1069,0.20034,0.33686
0.024525,-0.29923,0.12601,0.032604,0.035375,0.01217,0.46181,-0.38832
-0.024342,0.11351,-0.037632,-0.025865,-0.062975,-0.18198,-0.67518,-0.14088
0.13194,0.063144,0.0080758,-0.022491,-0.0057485,0.16467,0.72416,0.19792
0.18427,0.20686,-0.1814,-0.01153,-0.026762,-0.026318,-0.73202,-0.18145
-0.14938,-0.14269,-0.034641,-0.031493,-0.031526,-0.10652,-0.090849,-0.077997
-0.022383,-0.0018311,0.11372,0.051017,0.066689,0.19785,0.33496,-0.42029
0.60389,-0.23128,0.077454,0.041198,0.01075,-0.1672,-0.16691,0.40505
-0.32739,0.39376,0.045071,0.0018869,0.02763,0.072676,0.29043,0.318
-0.2712,-0.15205,-0.08446,-0.027747,-0.0076336,-0.058144,0.02028,-0.15154
-0.18803,-0.10474,-0.061194,-0.024405,-0.0016468,0.089549,0.41042,0.14275
0.10608,0.16741,0.13767,0.042814,0.02928,0.047401,-0.02981,0.27507
-0.005036,-0.10945,-0.074929,-0.045331,-0.095427,-0.2394,-0.82492,-0.47177
-0.016073,-0.0052324,-0.059789,-0.0003378,-0.017332,0.12685,-0.34461,-0.24709
-0.020154,0.066996,0.087812,0.028799,0.075219,0.14483,0.51001,0.32888
-0.01534,0.077243,-0.055435,-0.020918,-0.013739,-0.085704,0.54978,-0.19396
-0.078567,-0.55162,0.032729,0.0063568,-0.0033583,0.0347,0.11107,0.44405
0.18717,0.063379,-0.04695,-0.0068448,-0.018772,-0.19924,-0.79496,-0.6856
0.43282,0.38198,0.033251,0.040897,0.041706,0.15585,0.88547,0.551
-0.046506,0.19049,-0.062596,-0.022283,-0.016886,-0.073395,-0.85246,-0.47734
0.15008,0.15672,0.18152,0.030346,0.02474,0.049677,-0.072315,0.70874
-0.45378,-0.083354,-0.13995,-0.074328,-0.035866,0.04838,0.46228,0.090438
-0.17853,-0.20558,0.0677,0.062588,0.036417,0.13428,0.012894,-0.61415
-0.24163,0.0068236,-0.10847,-0.074,-0.10924,-0.36316,-0.72914,-0.20743
0.04846,-0.14812,0.035885,0.016423,0.04341,0.10478,0.26165,0.40186
0.52723,-0.032829,0.0957,0.029572,0.049448,0.14968,0.70261,0.33105
-0.18543,-0.36583,-0.13892,-0.010928,-0.020727,-0.12472,0.2597,-0.87115
0.14207,0.24573,0.10625,0.035471,0.02793,-0.029009,-0.84344,0.094242
-0.085611,-0.18808,-0.098094,0.012178,0.015141,0.10997,0.52674,0.24363
-0.4092,0.33294,0.06051,-0.0031984,-0.020836,-0.011949,-0.24119,0.043648
0.19179,0.45344,0.034692,0.012223,0.01291,-0.020071,-0.13464,0.25377
0.32169,-0.12445,0.034514,-0.043544,-0.0014955,0.17055,0.40676,0.41819
-0.08185,0.1011,-0.027082,-0.014399,-0.025345,-0.074331,-0.34327,-0.1493
0.06478,-0.067217,-0.049722,-0.0095174,-0.042942,-0.18591,-0.86555,-0.37951
0.14799,0.038681,0.020218,-0.051812,-0.038174,0.014218,0.74538,-0.071078
0.053308,-0.63916,-0.154,0.023502,0.044435,0.0017871,-0.00048835,0.048928
-0.69282,-0.1561,0.14591,0.068716,0.041703,0.04212,0.53384,-0.6502
0.13267,0.20994,-0.017675,-0.0093944,-0.0065621,0.010358,0.064518,0.20404
0.0047336,0.29476,0.10541,0.062776,0.017242,-0.046209,-0.7311,0.26842
0.12691,-0.20263,-0.070401,-0.035334,0.06622,0.3026,0.91785,0.70976
0.16523,0.2319,-0.028985,-0.046525,-0.078814,-0.25527,-1.1244,-0.46809
-0.16657,0.019822,0.0036896,0.020567,-0.004528,-0.0085652,0.23238,-0.35482
0.32183,-0.13648,-0.026419,0.0088569,0.02263,0.042966,0.33572,0.52197
-0.30491,0.128,0.084471,-0.0041792,-0.029294,-0.030129,-0.13969,0.094986
0.11052,0.23084,-0.092711,-0.042292,-0.02009,0.014642,-0.26263,-0.12542
-0.10384,-0.11569,0.036291,0.0039734,0.0033328,-0.0098063,0.30269,-0.37914
0.17601,-0.27159,-0.028199,-0.036824,0.0022476,0.068902,0.23392,0.023502
-0.035782,-0.40301,0.026391,0.046916,-0.014935,-0.13153,0.19911,-0.57181
-0.045346,0.35419,-0.018906,0.04497,0.038421,0.014301,-0.63504,0.50797
0.060495,0.23871,0.077603,-0.01082,0.01449,0.029982,0.2101,0.31734
0.0082652,-0.026497,-0.012905,0.020499,0.023023,0.14966,0.44789,0.1197
-0.51371,0.16463,0.044734,-0.064185,-0.053115,-0.1508,-0.94159,0.066943
0.12876,-0.27653,-0.17985,0.023902,0.020174,0.018132,0.10944,0.16856
0.32765,-0.031331,0.10978,0.034262,0.0079771,0.069067,0.70973,-0.62147
-0.017938,0.017063,-0.031784,-0.018061,0.0033781,-0.062055,-0.48329,0.22155
-0.017986,-0.13019,0.0051143,-0.0085921,0.013539,0.060815,0.4079,-0.33066
0.22391,0.38106,0.010114,-0.039253,-0.071407,-0.12592,-0.18363,-0.1632
-0.16268,-0.10171,-0.03167,-0.016422,-0.0017012,0.033457,-0.42613,0.41205
-0.0095725,-0.25382,-0.064829,0.028764,0.019582,0.085956,0.66036,-0.28903
0.070716,-0.19594,0.14554,0.049734,0.024006,-0.045697,-0.65578,0.64531
0.12352,0.38796,0.1856,0.007846,0.03551,0.030605,0.74449,0.15948
-0.28777,-0.070297,-0.36667,-0.026139,-0.015626,-0.066002,-0.67705,-0.4499
-0.11268,0.11699,0.097645,-0.044004,-0.050697,-0.052092,0.44663,-0.1909
-0.44683,0.072992,0.01538,0.024861,0.032341,0.12132,0.12244,-0.30654
0.3654,-0.1043,0.096741,0.01656,-0.0083801,-0.036195,-0.6432,0.38862
0.22937,0.14289,-0.10423,-0.014212,-0.008687,0.02334,0.41379,0.21103
-0.053039,-0.33106,0.02922,0.0027197,0.015682,-0.059167,0.010724,-0.30654
0.21527,0.10223,0.067285,0.028025,0.009714,0.075028,0.27928,0.10802
0.016681,0.064621,-0.083561,-0.032395,-0.027084,-0.14588,-0.99229,-0.072908
0.41605,-0.43757,-0.086831,-0.014856,0.0062634,0.072834,0.3361,0.47991
-0.31306,0.36927,0.12856,0.056863,0.062306,0.28335,1.0141,-0.15595
-0.4992,0.080438,-0.092806,-0.051862,-0.062538,-0.25116,-0.97439,-0.075285
-0.0086571,-0.098494,0.13261,0.033863,0.045569,0.12364,0.8079,0.0029438
0.23247,0.34316,-0.054141,-0.0062206,-0.035174,-0.21051,-0.42839,-0.22422
-0.50316,-0.28701,-0.11394,-0.070342,-0.062185,-0.10511,-0.97235,-0.75234
0.28691,0.19342,0.17941,0.084017,0.051133,0.15976,1.0045,0.48836
0.2638,-0.51778,0.090837,-0.003696,0.00089521,0.023611,-0.14571,1.0467
0.26159,0.34715,-0.21646,-0.059679,-0.024628,0.074866,0.35146,-0.48784
-0.34684,-0.35853,-0.10274,0.025713,0.029803,-0.06689,-0.16702,-0.29827
0.10691,0.39762,0.23605,0.026032,0.01594,-0.0091771,-0.41097,-0.10669
-0.12486,0.45197,-0.13015,-0.011916,-0.0039728,-0.032299,0.097237,0.09084
0.13764,-0.75053,0.095575,0.044444,0.039711,0.097987,0.19451,-0.030651
-0.052732,-0.070552,-0.047341,-0.000556,-0.010209,-0.033553,-0.11843,0.64825
-0.0038629,0.32576,-0.050472,-0.092623,-0.045386,-0.0070124,0.088411,-0.36322
-0.032077,0.16221,-0.030291,0.017891,0.0036361,0.034624,0.28353,-0.11886
-0.11764,-0.064384,0.12324,0.026057,-0.0042397,-0.051507,-0.67463,-0.45402
0.080254,-0.14636,-0.065995,-0.021345,-0.014263,-0.0092008,0.12639,0.17862
0.1067,-0.10235,0.081884,0.063237,0.036698,0.075066,0.33286,0.45123
0.078484,-0.075413,-0.019178,-0.016889,-0.0064954,0.01457,0.1064,-0.12061
-0.52697,0.22982,-0.025768,-0.03488,-0.025275,-0.13391,0.0072504,-0.42042
0.49536,0.055105,-0.016448,0.025228,0.0051508,0.031173,0.23704,0.6909
-0.20358,0.065294,-0.030685,-0.015892,-0.039237,-0.11162,-0.9466,-0.53126
0.18357,-0.050067,-0.0062442,-0.017285,0.013716,0.042469,0.31727,0.28497
0.0029247,-0.13149,0.025547,0.0056728,-0.00073009,0.0031919,0.21951,-0.1685
-0.087463,0.00494,-0.013348,-0.001587,0.017268,0.020442,-0.016387,0.15989
-0.078781,0.020207,0.049131,0.039012,0.057255,0.083756,0.044673,0.29918
-0.017731,-0.37013,-0.029012,-0.0055656,0.02229,0.03169,-0.13921,-0.68107
0.095093,0.17355,0.010156,0.0049361,0.057671,0.11491,-0.11931,0.1733
-0.0071527,-0.11244,-0.013046,-0.0080561,0.012623,0.098906,0.12866,-0.049018
0.11922,0.82621,0.049722,-0.0059189,-0.01989,0.078073,0.11794,0.06232
-0.074434,-0.13044,-0.020447,-0.028054,-0.085404,-0.014829,-0.14949,-0.034863
-0.12882,-0.25276,-0.020561,0.011307,-0.070894,-0.60261,0.13004,0.28105
-0.068631,-0.17922,-0.020967,-0.020624,-0.11915,-0.44734,0.055235,-0.2366
0.16012,0.069146,0.0018852,0.040428,-0.12183,0.42759,0.62307,0.29669
0.20581,-0.042784,0.032633,0.015113,0.0058246,0.43942,-0.40199,-0.14268
-0.22788,-0.23532,-0.029931,-0.033675,0.0031718,-0.0088983,-0.47044,0.068403
-0.13205,0.18006,-0.02921,-0.0040038,0.46606,-0.31981,-0.33219,-0.25286
0.057175,0.019071,0.027198,0.01065,0.23672,0.50005,0.15146,-0.039884
0.067798,0.18461,0.014261,-0.0052095,0.0054338,-0.044223,0.18689,0.19579
0.033864,-0.32667,0.025388,0.026509,-0.13384,-0.20991,0.23407,-0.11155
0.096783,-0.019394,-0.0025558,-0.0037559,-0.32246,-0.25869,0.066621,0.098301
-0.10262,0.052587,-0.015703,-0.018179,-0.19319,-0.073166,-0.20728,0.042814
-0.010053,0.49661,0.032008,-0.0014806,-0.016995,0.19592,0.094826,-0.075085
0.0063982,-0.067094,0.022822,0.0069537,0.079,0.32639,-0.52204,-0.043713
-0.093533,-0.19987,-0.027729,-0.0087318,-0.083653,0.12776,0.30793,0.0055857
0.0873,0.044368,-0.056609,0.0060576,0.17085,-0.10409,0.59286,-0.034669
0.039931,0.42561,0.023307,0.020138,0.14485,-0.17947,0.13306,0.10314
-0.0099086,-0.66029,-0.12224,-0.028775,0.0081765,-0.38123,0.17187,-0.024498
-0.023524,-0.46165,0.055494,-0.023172,0.07046,-0.20695,-0.44521,0.036885
0.01487,0.48081,0.034667,-0.0017439,0.046085,-0.025917,-0.48636,0.030287
-0.042494,0.14578,0.066172,0.074914,-0.063215,0.44283,-0.26113,-0.067471
-0.07737,-0.0093582,-0.037672,-0.042945,-0.14006,0.38663,-0.12754,-0.022194
0.028676,-0.75386,0.010796,0.019791,-0.22444,0.14761,-0.11024,-0.014034
0.07369,0.57031,0.021573,-0.010348,0.080447,-0.28616,0.38631,-0.0045101
0.019451,0.49185,0.093012,-0.031962,0.13983,-0.22625,0.50456,0.044865
0.045976,0.15907,0.026503,0.04845,0.092205,0.14631,0.29045,-0.0070195
