0.018669,0.0042146,0.012345,0.00037524,-0.01022,-0.009008,0.0066962,-0.0049058
-0.012969,-0.011391,-0.08898,-0.023978,-0.0024158,-0.00989,-0.015395,-0.0061342
-0.005304,0.035334,0.036596,0.0065328,0.013566,0.028544,0.017039,0.016478
-0.01296,-0.011772,0.0063035,0.013969,-0.0013875,-0.010747,-0.013389,-0.0072332
0.010985,0.0036392,0.031125,0.0062655,-0.00049283,-0.002684,0.010363,0.0087286
-0.0037618,-0.012104,0.0016976,0.0068809,0.00050156,0.0058469,-0.005524,-0.006004
0.013081,-0.019904,-0.035157,-0.0077151,-0.0063573,0.014749,-0.0063379,0.010905
0.0067437,0.011467,0.021987,0.0091628,0.0022302,-0.015203,0.008033,-0.0032869
0.00053035,0.011612,0.0010442,-0.01304,0.0027118,0.0017342,-0.0012877,0.0058365
0.0020928,0.027263,0.02676,0.01138,0.01064,-0.0049347,0.012807,-0.0010245
-0.027791,-0.019876,-0.057372,-0.011494,-0.013067,-0.011912,-0.027564,-0.016206
0.012316,0.010665,0.029689,0.004219,-0.0058664,0.004165,0.0028145,-0.0084819
-0.010472,-0.02183,-0.024676,-0.027351,0.001085,0.0042289,0.018158,-0.0089988
0.0053985,-0.00015192,0.013896,0.0033412,0.00010387,0.011769,-0.0049096,0.013695
0.013091,-0.0022712,0.028315,0.010579,0.006953,0.0034375,0.011696,0.012967
-0.0029499,-0.01229,-0.028109,0.010188,-0.0016868,-0.0050397,-0.018103,-0.0031508
-0.0114,-0.0064271,0.0011128,0.0022906,0.005509,-0.013567,0.0070433,0.012355
0.0034262,0.023469,-0.000959,0.018133,-0.0026922,0.0013653,0.00094774,-0.010805
0.010314,0.0073418,-0.010673,-0.012723,-0.0028911,0.00073645,-0.0053798,-0.0024063
0.0014659,0.0077948,0.0033652,0.011075,-0.0029796,0.0079891,0.019123,0.01394
0.015957,0.0013168,0.033397,0.0033615,0.020386,0.0074702,-0.011583,-0.0010332
-0.016497,-0.0045185,-0.0065502,-0.043847,-0.011001,-0.00087087,-0.027186,-0.016252
-0.025521,-0.0022478,0.008427,0.0022085,-0.01124,-0.0092784,0.011472,-0.008379
0.0046165,-6.435e-05,0.0078989,0.00098622,-0.003754,-0.0021693,0.0029898,-0.00084962
-0.0040796,-0.021737,-0.070725,0.0073775,-0.0040965,-0.0029897,0.010058,-0.0013741
0.018829,0.0028264,0.014711,0.013835,0.011276,0.003921,0.0094066,0.013656
0.0031093,0.003236,0.014236,0.0049866,0.011223,0.0030183,0.0011496,0.0053706
-0.0043656,-0.020453,-0.0095867,-0.019004,-0.011991,-0.0055829,-0.022489,-0.0026321
0.011933,0.02566,0.029238,0.0043962,-0.003659,0.0094987,0.0087641,0.0053648
0.0049519,0.016769,0.0057176,0.0282,0.0049109,0.0015127,0.0088783,-0.0018853
-0.0099006,-6.2891e-05,-0.0098957,0.0053105,0.013595,-0.0060089,-0.0066411,-0.0010256
-0.001574,0.0065689,0.021351,-0.017667,-0.0012073,-0.013022,0.0011575,-9.8442e-06
-0.001441,-0.0022866,0.02122,-0.0019014,-0.00059626,-0.0039232,0.00095121,-0.014631
-0.0095071,-0.03436,-0.065026,-0.017829,-0.0081215,0.021193,-0.015089,0.0018278
-0.017838,-0.01146,0.0048621,-0.018542,-0.0081817,0.0074801,-4.1994e-05,0.0023674
0.012849,0.019603,-0.011109,0.01177,-0.00069315,0.0094185,0.014935,0.010356
-0.0031202,-0.0036177,-0.018894,-0.0047292,-0.0089135,-0.012272,-0.001285,0.0023474
0.012607,0.020467,0.01307,0.026022,0.0064556,-0.018718,0.0061055,-0.005988
0.013285,0.0059015,0.045959,0.010522,-0.001231,-0.0022308,-0.0018615,0.0010695
0.0067116,-0.0083232,0.017338,0.003567,0.01506,-0.0019134,-0.017325,0.00020953
0.00054325,0.0011084,0.0051807,-0.0027132,0.00067311,0.0057168,0.0065832,-0.01624
-0.013293,-0.012831,-0.02993,-0.016347,0.010182,0.0051424,0.007299,0.0065393
-0.0038467,0.0043881,0.013077,0.0014055,0.0042758,0.012126,0.0003355,0.0061441
-0.0026266,-0.0098734,-0.053818,-0.004507,-0.017378,0.0033662,0.0011738,0.0060545
-0.017607,-0.0010344,0.026751,-0.0031642,-0.0082471,-0.0054028,0.0018487,-0.0015625
-0.0019433,0.0073991,-0.011134,-0.0026193,0.0001378,-0.006294,-0.005588,0.0066508
0.021022,0.0075806,0.0042947,0.0048232,-0.00018922,-0.014893,-0.0056054,-0.00067434
-0.0032124,0.01513,0.0027927,0.011367,-0.0014108,0.0078748,-0.0060509,-0.015854
0.011514,-0.0089922,0.0079967,-0.0062895,0.012261,0.0073153,0.016544,0.0078815
-0.0049055,-0.010049,0.020181,0.0067733,-0.0057616,-0.00096563,0.007584,-0.0076529
0.0023644,-0.003586,0.016204,-0.0038421,-0.0082434,0.0064442,-0.017169,0.0078526
0.00214,-0.012931,-0.050524,-0.014387,-0.0026333,-0.0095434,-0.010679,-0.015867
-0.013407,0.0011018,-0.0078711,0.0066835,0.019186,0.0057406,0.003771,0.0072009
0.0025142,0.0073852,0.050641,0.0049206,-0.0050871,-0.0023947,0.018495,0.0068203
-0.0049111,0.037267,-0.015411,0.0039195,0.010547,-0.0026813,0.002322,0.0064785
0.011046,-0.026379,-0.049602,-0.011889,-0.0042933,0.0049216,0.0021513,0.0061847
-0.0044401,0.0039689,0.026339,0.012135,-0.0029071,-0.0029635,-0.0054775,-0.0019035
-0.0046062,-0.0045028,0.017198,-0.002276,-0.0089696,-0.010645,-0.012805,-0.0022132
0.010481,0.0028867,0.0089585,0.0071751,-0.007109,0.0053746,0.0035432,-0.018231
0.0017516,-0.0051045,0.0094117,0.0011956,0.0024447,0.013874,-0.0033674,-0.0031016
-0.0073021,-0.012822,-0.0284,-0.012616,0.0038853,-0.016408,-0.0023362,0.011945
0.0068803,-0.0046024,-0.003051,-0.010986,0.0049018,0.016025,0.006591,-0.0042817
-0.010209,0.011769,-0.00065128,0.0059933,-0.0023866,-0.0061274,-7.7687e-05,0.0029911
-0.0036667,-0.0027927,-0.013588,-0.00076354,0.0054373,0.010734,0.0088339,0.010411
-0.0045222,0.021933,0.028237,0.0078391,0.0049563,-0.019487,-0.005833,-0.013208
0.010846,-0.00016191,-0.023834,0.00061177,0.0040408,-0.011001,0.0105,0.010289
0.0034823,-0.006805,0.0253,0.0010518,-0.020651,0.028275,-0.0047683,0.002765
-0.0031793,0.017394,0.066091,0.009198,0.0013233,-0.0032691,-0.0048299,-0.0045699
-0.0014524,-0.021497,-0.081249,-0.0061897,-0.00018779,-0.011861,-0.0053164,-0.0039585
0.0084243,-0.0063576,0.0051588,-0.006063,-0.0015737,-0.0052256,-0.0061618,-0.0032655
0.010511,-0.0074177,-0.02612,0.0017411,0.012955,0.016785,0.00058107,0.005286
-0.0033373,-0.0088227,-0.010795,-0.0062339,0.0044669,-0.00033007,0.0072803,-0.0017579
-0.0099737,-0.0024269,0.020157,0.0012606,-0.011339,-0.0094932,-0.0014993,-0.0087757
-0.017397,0.027755,0.027909,0.0086191,0.004608,-0.002703,0.0056512,-0.00014936
-0.0022157,-0.019542,-0.010866,-0.015371,-0.010258,-0.0032507,-0.0024246,0.00065493
0.0044158,0.027714,0.0053323,0.0074605,0.014247,0.0045652,0.013346,0.017011
0.010525,0.013248,0.013769,0.0068449,-0.0079866,-0.0027033,-0.0096101,0.0019423
0.0085799,-0.00064361,0.068786,0.014068,0.00096648,0.021717,-0.0011149,0.010018
-0.0089412,-0.029915,-0.1034,-0.017716,0.0018493,0.0073373,-0.00039739,-0.013557
0.0050802,0.0031839,0.020411,0.0052693,-0.0055027,-0.022627,-0.0076193,-0.014149
0.0039313,0.00457,-0.028523,-0.01069,0.010051,0.0019138,0.00052857,0.00046011
0.0033029,-0.018164,4.7183e-05,0.0047657,0.0016012,-0.012968,0.0005317,-0.00084795
-0.012453,-0.010404,-0.010593,-0.0029948,-0.0073632,-0.0048742,0.00017993,-0.0022268
-0.0043666,0.020105,0.010443,-0.010483,-0.008894,0.018368,-0.00050302,0.0044091
0.003995,0.0032204,0.0089889,0.0057654,0.0050261,0.0021423,0.0063514,0.0037047
-0.0031363,0.0016498,0.032232,0.022293,0.0033924,-0.0065484,0.013005,0.011493
0.005356,0.0077728,0.033301,-3.7569e-05,-0.0057362,0.0080792,-0.0038934,-0.01119
-0.0018879,0.0061001,-0.019374,-0.014482,0.009095,-0.00069471,-0.020815,0.0059282
0.0063036,-0.011113,-0.0013728,0.0022333,-0.0066765,-0.0093065,0.0092168,0.00017303
-0.0013627,0.010839,-0.022757,0.0030657,0.0016568,-0.0020524,0.00037534,0.0025109
-0.0014564,-0.0061679,-0.021653,-0.0043071,0.0027532,0.0054656,-0.00035124,-0.0030268
0.00605,-0.0074189,0.0015276,0.0034808,0.019862,-0.0024102,-0.0084844,-0.0089726
-0.010037,-0.024086,-0.031443,-0.020437,-0.017578,0.013305,0.0073012,9.2122e-06
-0.01839,0.006462,0.035911,0.0099682,-0.0082673,-0.0099891,0.00015886,0.0002944
0.012319,0.014079,0.00095338,0.016724,0.0085057,0.013544,0.0091184,0.015263
0.011846,0.014541,0.028394,-0.015604,-0.0064673,-0.0099155,-0.00498,-0.017506
0.019296,0.00012809,0.009527,0.014735,0.0014584,-0.010072,0.0045866,0.01156
-0.020009,-0.021364,-0.016009,-0.0092884,-0.0067192,-0.002508,-0.0014291,-0.014443
-0.0045204,-0.0032005,-0.040012,0.0061775,-0.0074205,-0.0027531,-0.0075901,-0.0014382
-0.0045745,0.023106,0.015798,-0.016964,0.0073524,0.0049371,-0.0062451,0.011827
0.0032503,0.010333,0.0028908,-0.0006331,0.022161,0.0050449,0.0024964,0.0099883
0.011147,-0.0028354,0.038134,0.023804,0.0059049,0.0054413,0.010776,-0.0067816
-0.0042915,-0.016735,-0.019589,-0.0063182,-0.010071,0.0061121,-0.0048216,0.00064765
-0.0039532,-0.00034686,-0.0068093,0.010374,-0.0022947,-0.00084505,0.0026539,0.000993
-0.019039,-0.01625,0.0055576,-0.012239,-0.02547,4.9621e-05,0.0020689,-0.0058608
0.0051631,-0.0096727,-0.037708,-0.019612,-0.0015221,-0.0069922,-0.0064441,-0.0044598
0.01394,0.011796,0.019252,0.0037998,0.014787,-0.014295,-0.014946,-0.0028154
0.015009,0.025026,0.019976,0.011107,0.023366,0.01713,0.0079087,0.0066811
0.00039782,-0.00090819,0.011318,0.010168,-0.014949,-0.006455,0.015298,-0.0074123
-0.014476,-0.011038,-0.053441,-0.022365,-0.0065175,-0.0068324,0.015034,0.017235
0.00143,0.018272,0.029116,0.015177,0.0094977,0.00052336,-0.016365,-0.005449
0.0010808,-0.014438,0.0093773,-0.0021001,-0.013856,0.00015337,-0.0086559,0.010379
4.3382e-05,0.00023164,0.0049602,0.019654,0.0093233,5.0732e-06,0.0068448,-0.021259
-0.0094214,-0.00024729,-0.0071479,-0.013218,0.0087425,0.02358,-0.0089663,0.0012257
-0.0036658,-0.015922,-0.0031279,-0.006872,-0.0077052,-0.0072767,-0.0092147,0.0076098
0.0020058,0.015663,0.0017028,-0.00026457,-0.0086348,0.0010678,0.013951,-0.0019537
0.00015752,-0.014902,-0.023694,-0.016715,-0.0016892,-0.0062533,-0.001905,0.0039845
0.0067765,0.0095374,0.01453,0.014211,-0.010135,-0.0059976,-0.002028,-0.0056036
-0.0013004,-0.0048229,-0.016455,-0.0089527,0.013037,-0.0061389,0.013632,-0.0070648
0.0073058,0.0044248,0.062903,0.015402,0.0053866,0.0088621,0.006034,0.007592
0.0012975,0.013701,-0.036687,0.0013021,0.0059384,-4.3644e-05,-0.0092072,0.0072322
-0.0039192,-0.00061765,0.012615,0.0033094,0.014561,-0.0014909,-0.0086839,-0.0081087
0.014741,0.0081464,-0.016046,0.00559,-0.0080077,-0.0030947,-0.00024429,0.0083963
-0.013453,-0.014864,0.0020781,-0.0077422,-0.007295,0.0032009,-0.0073567,0.001939
-0.0029766,-0.0072397,-0.019128,-0.0057048,-0.014727,0.0020154,0.001207,-0.0042133
-0.008848,-0.0080207,-0.0094492,-0.011962,0.0008597,-0.006453,0.0098027,-0.0024371
-0.0078306,0.022005,0.015456,0.012404,-0.0073862,0.0013466,0.0027795,-0.0085354
0.0078394,-0.026281,0.0086992,-0.0029657,-0.00027279,0.0097934,-0.0042801,0.00078567
0.014818,-0.0041276,0.03275,-0.0033262,0.014586,0.0031542,0.019814,0.0019912
-0.010133,-0.0049827,-0.053092,-0.0041664,0.0061554,-0.0031487,-0.018759,0.0028426
0.0035576,0.041686,0.032313,0.018135,0.013682,-0.0015624,0.0049371,0.01114
0.0014683,0.018775,0.023227,0.0012718,-0.017411,-0.00016802,-0.010701,-0.012166
0.0072682,-0.0191,-0.017898,-0.015521,0.006648,-0.007006,-0.0031787,0.0032714
-0.010122,-0.017456,-0.020665,0.0069482,-0.015765,-0.0066,-0.0037178,0.0028096
-0.0037308,-0.0078327,0.0073825,0.0062539,0.0011592,0.008815,0.011174,0.002133
0.003036,0.017276,0.0042111,-0.0019543,0.0025672,-0.0075826,0.01031,0.001316
0.0023434,-0.020512,-0.045186,-0.0098815,0.0039072,0.006843,-0.0062587,-0.0073633
0.017578,0.0036375,0.0004833,0.0058643,0.0050162,0.013216,0.0005636,-0.015991
-0.02163,-0.0040832,0.0089829,-0.009467,-0.0020466,-0.011698,-0.00046165,0.0067822
0.0018651,0.026684,0.050956,0.006554,0.0060774,0.0025971,0.0062917,0.014163
-0.0057033,-0.013317,0.0013693,-0.00083524,-0.0096958,-0.0062559,-0.01042,-0.0016211
0.0025444,0.001075,0.0082125,0.0073503,-0.010268,0.00089005,-0.0036982,-0.0015179
0.0031814,-0.00028512,-0.023089,-0.00021591,0.0044444,0.0084321,-0.0047406,0.0065939
-0.011613,-0.0094371,-0.023295,-0.0079775,-0.012326,-0.014916,0.0021523,-0.00083088
0.0049872,0.012795,0.053335,0.0074532,0.025472,0.024515,0.009255,-0.0082915
0.013812,0.0039842,-0.020741,0.0069956,0.0085588,-0.01401,0.0088375,0.0075396
0.014708,-0.0045775,-0.019595,-0.0093247,-0.00049833,-0.0056022,-0.0068506,-0.0080928
-0.0003167,-0.012869,-0.021506,-0.010184,-0.0094668,0.0027662,-0.0065271,-0.0083215
-0.00016184,0.018186,-0.002675,-0.0032767,-0.010499,-0.0045911,0.0098065,-0.00090543
-0.023965,0.0026719,0.022092,0.011539,0.0042589,0.019183,-0.0047566,0.014255
-0.024813,-0.035945,-0.039835,-0.0046567,-0.012011,-0.011822,-0.011211,-0.0017816
0.0052684,0.011741,0.031507,0.0029365,0.0032584,-0.011607,0.0059901,-0.0020325
0.011847,0.012935,0.034066,0.018752,0.0032542,0.0121,-0.00012574,0.0057612
0.010837,0.0066823,0.0076535,-0.011903,0.0036318,-0.0031203,0.0015757,-0.0018214
0.010305,-0.0070772,-0.031799,-0.010974,0.012183,-0.0025222,0.00315,-0.0013829
0.0025933,0.01061,0.024928,0.0058004,0.0053915,0.0060962,0.0044567,-0.00082322
0.0033518,-0.002897,0.0054162,0.0070364,-0.0090572,-0.0085555,-0.0024518,-0.0080696
-0.0031494,-0.0086858,-0.028624,-0.007394,0.007753,0.0081173,0.0057533,0.0080099
-0.009298,0.0087423,0.031319,0.0092839,-0.014621,0.016922,-0.01005,0.0082549
-0.0075253,-0.0053797,-0.057715,-0.021116,-0.0059528,-0.0057172,0.0048339,-0.0073921
-0.0058793,-0.019825,-0.022856,0.002945,-0.013141,-0.013037,-0.012012,-0.007687
-0.0045486,-0.0033197,0.026214,-0.0044685,-0.0049075,-0.0050921,-0.0057495,-0.00039453
0.0041542,0.005115,0.019119,0.019152,0.026614,-0.0052985,0.00037496,0.006765
0.0045392,0.013317,0.010658,0.011307,0.0033435,-0.0057517,0.014373,-0.0017153
0.020026,0.029078,0.032298,-0.012397,0.026856,0.017123,0.012976,0.0055338
0.0037523,-0.0023625,-0.01728,0.0027017,-0.020066,-0.0068434,-0.0037036,-0.010455
-0.0051771,-0.010801,-0.020645,-0.0059143,-0.01248,0.0083904,0.0034391,0.0050561
-0.006689,-0.027592,-0.0010053,-0.0069793,0.0026892,0.0081732,-0.020303,0.0051855
-0.016293,0.0097159,0.01062,0.0152,-0.013636,0.00027598,-0.0046795,-0.0023183
-0.0025751,-0.0003989,-0.032402,-0.017373,0.0010866,0.00022123,0.01116,-0.0019396
0.003415,-0.003103,-0.0048171,-0.0029598,7.9551e-05,-0.0077429,-0.0041204,0.0061886
0.0018934,-0.0059765,0.031121,0.0039492,0.0069102,-0.0080963,-0.0037246,-0.0014995
0.016492,0.0068815,0.0053034,0.011346,0.0060809,-0.00088049,0.012287,-0.0016613
0.00047232,0.012295,-0.011834,-0.0040872,0.0054925,0.0061372,0.012626,-0.0099617
0.0007597,-0.0051676,0.018792,0.0045538,-0.0026426,-0.01035,-0.010538,0.0048748
-0.013943,0.0092649,-0.012282,-0.0018707,-0.0027429,0.0045337,-0.010319,-0.011753
0.0031015,-0.0069418,0.011958,0.0077131,0.0050946,-0.0036948,-0.0023089,0.010594
-0.010817,0.00076429,-0.041531,-0.013817,-0.0105,0.012006,-0.0098943,0.0095614
0.014366,0.0087523,0.030146,0.0035756,0.0050575,-0.002967,0.013853,0.0009044
0.0080867,0.0012018,0.008043,0.004949,0.0048357,0.013866,0.0064694,0.00034721
-0.006435,-0.029843,-0.014211,-0.0098852,-0.011152,-0.00012095,-0.00079347,-0.0076792
0.001904,0.0093168,0.010225,0.013672,-0.0037586,-0.0060712,-0.00016353,0.00027622
-0.0060107,0.0015421,-0.027971,-0.010291,-0.0041029,-0.0042253,0.0082811,0.00075377
-0.0066862,-0.0061594,0.011945,-0.011327,-0.0042268,-0.018249,-0.0068071,-0.0062955
3.2198e-05,0.0098211,0.012931,0.002964,0.01942,0.0063698,-0.0064574,-0.0053156
-0.009067,-0.0050504,-0.0092567,0.0015839,0.0043837,-0.00078409,-0.0063544,0.01142
0.020958,0.011809,0.007957,0.016022,0.0053075,0.0071365,0.0013039,0.0047498
-0.0034101,0.005688,0.0020618,0.0073975,0.0064449,0.0067251,0.0087476,-0.002
-0.0038805,-0.0001119,-0.0036091,-0.0085644,-0.01581,0.005863,0.00043728,-0.001129
0.011805,0.0019945,-0.0014284,-0.0084213,0.00087858,-0.010988,-0.0078948,-0.00054986
-0.00326,-0.011701,0.0083686,-0.0078748,-0.013918,0.0031396,-0.00052045,-0.00033324
-0.0023203,-0.010207,-0.0057102,0.0085655,-0.0055451,0.0014673,0.0070101,-0.00050339
-0.0011747,0.0062864,-0.0048062,0.0094887,0.0026104,-0.00027777,0.0069145,0.0067847
-0.0078236,-0.0091854,-0.012485,0.0025506,0.0028478,-0.0019845,-0.00082547,-0.017442
0.001007,0.013716,0.0024756,-0.012375,0.010921,-0.011346,-0.00064359,0.0050752
0.0095807,0.0048039,0.032338,-0.011933,0.011303,-0.0048076,-0.0082452,-0.0036359
-0.013401,-0.0044732,-0.0086696,0.0038454,-0.0037906,0.00992,-0.0080848,0.0034395
-0.0054268,-0.01389,-0.026569,0.0037159,-0.0031619,0.017276,0.0075914,0.0029585
0.010114,0.015829,0.017955,0.018958,-0.0025622,-0.0061622,0.0075078,0.010573
0.0098489,-0.016721,-0.038928,-0.012896,-0.0099698,-0.0057517,-0.0083254,0.0027994
0.001648,0.021359,0.021704,0.0019313,0.0057027,0.0027901,-0.00080569,-0.0048416
0.0011733,0.0050802,0.02025,-0.0068574,0.005277,-0.0040987,0.0066872,0.0031449
-0.014998,-0.010924,0.02702,0.015442,0.0043427,-0.0031122,-0.0014101,-0.012419
0.0078253,0.004518,0.0028877,-0.0014493,-0.0048504,0.005635,-0.0016074,-0.0047226
-0.00066783,-0.0033483,-0.020968,-0.0027781,-0.014335,-0.001374,-0.0016828,-0.0050081
-0.0092105,-0.0032881,-0.0055008,-0.019684,-0.0082666,-0.008548,0.0061877,0.0024289
-0.0021419,-0.003058,-0.044376,0.002672,0.0057861,0.0075617,-0.0014443,0.0099054
0.01278,-0.010347,-0.012407,0.0019603,0.01241,0.0079398,-0.0011705,0.0097532
0.0043691,-0.0015585,0.035961,0.0095883,0.019551,-0.0073458,-0.0086576,-0.0057199
-0.011686,0.0078245,-0.016261,0.0022207,-0.0040131,0.00083745,0.015109,-0.005199
0.0037303,0.0022404,0.0341,-0.0045065,-0.0036743,-0.014333,-0.015859,-0.0043172
0.011586,0.012872,0.030602,0.0049309,-0.010846,0.017473,-5.0006e-05,0.012469
-0.019362,-0.007378,-0.050648,-0.0087398,-0.010106,-0.0053329,-1.4188e-05,-0.0018579
0.0046169,0.011436,0.055296,0.016689,-0.0016528,0.0031115,0.015452,-0.00059735
0.0053537,0.0063567,-0.0039081,0.0027677,0.014364,-0.0041826,0.015065,-0.0073655
-0.0015952,0.00035961,-0.018037,-0.0039276,-0.0012026,0.0039026,-0.0089991,0.0011237
-0.00069266,-0.01474,-0.050072,-0.01142,-0.0014842,0.019434,-0.017653,0.0013318
0.00014788,-0.023512,-0.014196,-0.019787,-0.00986,-0.01235,-0.018641,-0.0067804
0.00082159,-0.0024863,0.027386,0.010104,0.01284,-0.021137,0.0037727,0.00024759
0.0012318,0.0095389,0.012847,0.0081493,0.012064,0.00097786,0.010655,0.0068664
-0.0065087,-0.0026118,0.013434,-0.0019157,-0.019859,-0.00051683,0.017753,0.0053773
0.016624,0.024113,-0.032328,0.0036778,-0.0046776,0.013677,0.0095316,0.0037305
-0.007487,-0.0034832,0.02494,0.0017931,0.010834,0.0047429,-0.0061598,0.0020769
-0.0084674,0.0088168,0.014061,0.016089,0.0032995,-0.011485,-0.013708,-0.015051
-0.0018314,-0.016798,-0.017734,-0.008007,-0.0038253,-0.0036364,0.0024626,0.0071901
-0.0030571,0.0057441,0.023281,-0.015801,-0.0027551,0.012672,-0.012398,-0.016993
0.0036398,0.0060858,-0.019512,0.00043806,-0.0013713,0.0060768,0.0041492,-0.0015494
0.0027781,-0.0081494,0.032957,0.017131,0.015848,-0.0001979,-0.0026384,0.014517
0.010085,-0.013814,-0.054436,-0.012762,-0.013726,0.0013897,0.0062518,-6.1005e-05
0.009981,-0.0034341,-0.0011849,-0.0034605,-0.012109,-0.005058,0.0073258,0.0092955
-0.013176,0.022646,0.020198,-0.0019711,0.0049253,-0.019762,0.0083245,0.0033326
-0.01258,0.0094284,0.0014394,0.0072342,0.013801,-0.0037857,-0.0064651,-0.0025724
0.0038589,-0.019901,-0.010846,0.00065474,-0.0012293,0.011601,-0.0137,-0.00086511
-0.0030367,-0.003013,-0.01674,0.0016902,0.0066218,0.0030436,0.0099734,-0.007386
0.013498,0.0053183,0.046307,0.002507,-0.0017459,0.017569,0.0020015,-0.0066373
-0.0091329,-0.002717,-0.032517,-0.012531,-0.01849,-0.022764,-0.0063713,-0.0064445
-0.00069658,0.0042117,0.012564,0.011258,0.011187,0.015033,-0.0072824,-0.0067097
0.0075,0.0028098,0.033262,-0.0042431,-0.0062828,-0.0017128,0.0071836,0.016183
0.0076109,0.016701,0.014096,0.026921,-0.00034497,-0.010418,-0.0018928,0.0077559
-0.0081829,-0.039847,-0.091658,-0.035834,-0.0019882,-0.0032429,0.012525,-0.00055464
-0.016421,0.013057,0.013059,-0.0049526,-0.0031631,0.011974,-0.0040928,0.0069958
0.0063853,0.011532,0.031606,0.0024493,0.011921,0.0039218,-0.012553,-0.0086258
0.013441,-0.013036,0.0033237,0.0098758,0.0042599,-0.0040396,0.010671,-0.00060437
-0.0029715,0.017556,0.0066489,0.0095595,-0.0027726,-0.0041681,0.0031116,-0.00031712
0.0041274,0.001763,0.0028337,0.0015085,0.0062723,0.0034928,-0.0040035,-0.0079238
-0.019851,-0.021393,-0.015646,-0.014311,-0.00010813,-0.020124,-0.018568,-0.00014093
0.011114,0.018322,-0.0016815,0.01672,-0.0065654,0.01877,0.013977,0.0072932
0.0033277,0.0036196,0.013629,-0.0070379,0.0022819,0.0030578,0.0075283,-0.0012944
-0.0041255,-0.018725,-0.047794,0.00028982,-0.020604,0.0031409,0.0087789,0.01319
0.0043606,-0.0019224,0.032717,-0.00037747,0.010658,-0.012147,-0.0058792,-0.011642
-0.0025218,-0.00072963,0.020565,-0.024624,-0.013258,-0.0036882,-0.01314,-0.0053003
0.0063863,0.0082332,0.0013365,0.013585,0.0093352,0.0050912,0.010369,-0.0066247
-0.0080911,-0.0063419,-0.033236,0.0050117,0.016102,-0.001482,-0.0056475,0.0002373
0.00079941,0.025789,0.041351,0.0044894,0.0071983,0.015547,-0.0064027,0.0076657
-0.00612,-0.01264,-0.0097459,-0.0034897,-0.0094459,-0.014293,-0.015172,0.00015181
0.0023049,0.0032903,0.0006153,0.012386,-0.002514,0.01819,0.022922,0.016771
0.010383,0.0032075,-0.029314,-0.010394,0.0045788,-0.01218,0.0064907,-0.005077
0.0024643,-0.036342,-0.029202,-0.0015948,-0.011608,-0.0039693,0.0059645,-0.0030864
-0.0058086,0.033121,0.040222,-0.000408,0.0036081,0.0037027,-0.017681,-0.0087624
0.0012574,-0.014858,0.0074307,0.008638,-0.0044549,-0.012566,0.0058203,0.0010663
-0.0074738,0.0073733,0.005639,-0.0058536,-0.004525,-0.0057819,-0.0017738,0.0027317
-0.00060335,-0.0093878,-0.027289,-0.0049343,-0.0043881,0.0086109,0.00626,-0.0039234
-0.0092176,-0.0024892,0.01827,-0.0042938,0.019407,0.015187,0.006337,-0.0033398
0.013708,0.012542,0.009593,0.003869,0.0043442,-0.0093103,-0.009457,-0.0033046
-0.0020334,-0.0033392,-0.022145,-0.0038498,-0.0027611,0.013369,-0.0098994,0.011905
0.0060949,0.027931,0.03223,0.0038619,-0.0020041,-0.0026579,-0.0027451,-0.0044472
0.0068002,-0.010958,0.024031,0.019263,-0.0013129,-0.010529,0.0043231,0.01029
-0.0078452,-0.026402,-0.054765,-0.012266,-0.0086093,-0.0024949,-0.0041524,-0.0062495
0.0088693,0.01273,0.014507,0.0030782,-0.00053325,-0.002084,0.0032374,0.00071874
-0.013548,0.0048229,-0.0024404,0.0028377,0.0072636,0.014051,0.010971,1.6855e-06
-0.004945,-0.018836,-0.050662,-0.028581,-0.00081402,-0.0088532,0.011252,-0.0083827
-0.0044968,0.0043708,0.018643,0.01822,-0.0090633,-0.0083476,-0.011625,-0.0010086
0.0033659,-0.01914,-0.00511,-0.013004,0.0060592,-8.898e-05,0.0046837,0.0064694
0.0030169,0.035795,0.03455,0.010543,0.0055985,0.0002761,-0.0025143,0.0062034
0.01012,-0.010409,0.028231,0.010684,-0.010363,0.016163,-0.0021428,-0.0018363
0.0013016,0.014127,0.022519,0.0029584,0.0050859,0.00066744,-0.0099339,-0.0020384
7.1715e-05,-8.3964e-05,-0.01435,-0.0049296,0.0050525,0.0084457,-0.010273,-0.0022065
0.0065124,0.0092506,-0.0048687,0.018162,0.012908,-0.0073977,0.012558,-0.0023071
-0.018347,-0.028439,-0.05115,-0.029407,-0.010505,-0.015603,0.00404,-0.0101
0.0037247,0.0037891,0.018354,-0.0070295,-0.0027818,-0.00049255,-0.0043721,0.013534
-0.013091,0.0041989,-0.030732,-0.00059144,-0.010864,-0.008843,-0.004682,0.0061433
0.0094509,-0.011647,-0.010574,-0.0021659,-0.011332,0.0063448,0.011039,-0.0088213
0.0011397,-0.012439,-0.014332,0.011836,0.019289,0.0061276,0.011559,-0.0079515
0.0010951,0.025428,0.06806,0.010319,0.0029573,0.0062076,-0.0032106,0.008673
0.0093112,0.0084392,0.018475,0.016846,0.0022798,0.0065902,-0.010002,0.017492
0.010086,0.0071602,0.017006,-0.0075609,0.0017374,-0.00061337,-0.0012148,-0.012894
-0.012344,-0.025061,-0.029984,-0.015988,-0.022025,-0.0077354,0.0073237,-0.0045036
-0.011277,-0.0021324,-0.0054846,-0.0084203,0.016976,0.0084836,-0.0079671,0.0034843
0.013108,0.0056966,-0.011446,-0.00048246,0.0015543,0.001004,-0.0080767,-0.012424
-0.017456,-0.0094244,-0.017104,1.4154e-05,0.0098006,-0.022467,-0.00076815,0.0024745
0.0063197,0.030499,0.0083314,0.00087874,-0.013032,0.00055484,0.0062814,0.0092059
0.0062944,-0.0075456,0.0020207,0.0099043,-0.0045119,0.0076536,0.0054459,0.00010588
0.0059613,0.0090232,0.0028606,0.011415,-0.0037597,-0.0088205,-0.003083,-0.0012044
-0.010193,-0.013763,0.003056,-0.010307,0.0048092,0.006024,0.004284,0.0054645
0.0048558,-0.021382,0.010591,0.0071087,0.013364,0.021133,0.0041877,-0.010972
-0.0034238,-0.013919,-0.0055133,-0.014621,-0.017162,-0.010224,-0.011195,-0.0035222
-0.0036421,0.016439,0.0019213,0.0024689,-0.00082827,-0.0020485,0.0049165,0.0044208
0.0042968,0.015074,-0.052772,-0.012071,0.0076744,-0.0012463,0.0054931,0.0050102
-0.0030126,0.013355,0.033715,0.019791,0.0083284,0.0076967,0.0059825,0.013758
0.0056381,0.011424,0.066136,0.012083,-0.006712,-0.014448,-0.017211,-0.016388
