0.51468,0.30801,0.013785,0.035258,0.023205,0.039616,0.038391,0.07841
-0.28451,0.15747,-0.14357,-0.072561,-0.016709,0.0080685,0.015494,-0.0054006
-0.013112,-0.45354,-0.029084,0.0073541,0.0055907,-0.02443,-0.023865,0.0028073
0.07157,-0.10345,-0.11095,-0.029631,-0.026911,-0.041985,-0.064047,-0.0922
-0.40344,-0.48662,0.0962,-0.0037756,-0.012437,-0.020679,-0.034465,-0.094538
0.15881,0.22699,0.085705,0.038024,0.041418,0.047896,0.057558,0.074849
0.035515,0.32082,0.061658,0.017488,-0.0057956,0.0080754,0.0094836,0.08107
-0.027708,-0.016253,0.0089517,0.012416,-0.0055472,-0.0068977,0.0015211,-0.02813
0.17453,-0.0033295,0.044709,0.037968,0.010898,0.018758,0.026162,0.068014
0.10363,0.20076,-0.066052,0.031128,0.0043565,0.014556,-0.0025496,0.010023
0.039341,0.59924,-0.1368,-0.12573,-0.001939,0.0034438,0.01659,-0.046485
0.095612,-0.52448,0.026676,-0.05782,-0.031668,-0.046542,-0.026427,0.014681
-0.22396,-0.089779,0.0093314,0.047423,0.0086871,0.01224,0.00044443,0.012733
-0.34551,-0.43601,-0.0098946,0.041947,0.017388,0.022824,0.010537,-0.10013
0.23538,-0.18865,0.054495,0.035759,-0.0056587,-0.030904,-0.051362,-0.027592
-0.17836,0.452,0.077353,-0.0094373,0.0098672,0.02277,0.041104,0.097477
0.1478,-0.42256,-0.011526,-0.077238,-0.029685,-0.050326,-0.071284,-0.13081
0.77065,0.59308,-0.016507,0.14554,0.039919,0.047212,0.06508,0.14756
-0.79831,-0.11933,-0.093342,-0.06717,-0.038922,-0.035421,-0.0022261,-0.035435
-0.26538,0.11699,-0.030464,-0.090094,0.01525,0.015113,0.0088261,0.063002
0.25707,-0.13347,0.032192,0.022082,0.0072848,0.027697,0.0051991,-0.041147
0.03101,-0.14543,-0.0062836,0.0269,-0.023682,-0.036195,-0.036018,-0.04311
-0.17527,0.58483,0.034308,-0.013689,0.0082539,0.04241,0.041697,0.041366
0.54509,0.051579,0.13865,0.087032,0.02482,-0.010047,0.0039706,0.032391
0.15921,-0.57129,0.025594,0.054687,0.017977,0.024764,-0.016617,-0.031099
-0.52388,-0.31926,-0.17988,-0.15074,-0.028157,-0.033458,-0.028275,-0.086538
0.31938,0.57186,-0.016869,0.040232,0.019017,0.0021161,0.0075865,0.030454
-0.11248,-0.17733,0.014697,-0.060409,-0.020286,-0.001919,0.051438,0.070406
-0.43244,-0.44482,-0.022495,0.047209,-0.036633,-0.053786,-0.053366,-0.091066
0.51376,0.35412,0.020244,0.12121,0.01707,0.033833,-0.010242,0.023118
-0.87559,-0.31293,-0.0053596,-0.22836,0.00052868,0.010974,0.0087512,0.030374
0.36951,0.29321,-0.021268,0.10102,-0.023399,-0.020609,-0.0042904,-0.069522
0.43068,0.61926,0.19862,0.016586,0.078377,0.07997,0.091221,0.29302
-0.07315,-0.54069,-0.07312,0.0036305,-0.022158,-0.046406,-0.09535,-0.24258
0.38231,0.23625,-0.017317,0.14871,-0.0047975,-0.0089162,0.02193,-0.013701
0.28121,0.40145,0.060129,-0.26667,0.020768,0.044118,0.060246,0.14219
-0.86193,-0.43822,-0.20899,-0.00050171,-0.070928,-0.098197,-0.11321,-0.2137
-0.736,-0.43999,-0.051834,0.1498,0.024287,0.025069,0.0094194,-0.02752
0.53289,0.29719,0.094041,0.089676,0.03252,0.046696,0.07662,0.20826
0.62415,-0.5004,0.11194,-0.025479,0.015978,0.0057148,-0.02869,-0.060709
0.44484,0.35962,0.16682,-0.10265,-0.0097607,0.027114,0.068642,0.12746
-0.87024,-0.41033,-0.30264,-0.064085,-0.099159,-0.12345,-0.13117,-0.25705
0.38511,0.85798,0.071931,0.11373,0.10764,0.12441,0.10653,0.16252
-0.3711,-0.0494,-0.14592,-0.16242,-0.044947,-0.049487,-0.030386,-0.072835
-0.80649,-0.27758,0.091395,-0.032298,-0.056209,-0.059038,-0.080583,-0.10969
0.80933,0.22042,0.19818,0.14563,0.082296,0.072477,0.057904,0.21755
0.49448,-0.36437,-0.067996,0.082984,-0.011847,-0.045463,-0.036491,-0.10577
0.24148,-0.041135,0.089063,0.037827,0.020813,0.048096,0.066055,0.12373
-0.8503,-0.081599,-0.19094,-0.076064,0.031567,0.024934,0.0060577,-0.13357
-0.074556,0.24626,-0.088634,-0.025044,-0.066087,-0.02139,0.0019018,0.027262
0.41391,0.47634,0.012452,-0.028836,0.039606,0.0026321,-0.001684,-0.036342
0.38937,-0.18668,0.26822,0.05224,-0.050562,-0.067298,-0.05228,0.0092589
-0.47477,-0.12322,-0.11029,-0.23562,-0.0013027,0.026463,0.029104,0.11484
0.035959,-0.27337,-0.075733,0.27142,0.022901,0.018217,-0.0080972,0.0049086
-0.0094308,0.23976,-0.025764,-0.035779,0.0062916,-0.013881,-0.031406,-0.071947
-0.50725,-0.6546,-0.05325,-0.11748,-0.058796,0.008396,0.045067,-0.0068487
0.28218,0.21271,0.1473,0.19918,0.070203,0.0070622,-0.020632,-0.08828
0.4992,0.5937,-0.009479,-0.069118,0.018817,0.021325,0.021972,0.044772
-0.53539,-0.0063657,0.093806,-0.17137,-0.024861,0.012253,0.009453,0.043233
0.013893,-0.3388,-0.019555,-0.060036,-0.036819,-0.051285,-0.04967,-0.027448
0.25347,-0.24949,-0.21719,0.10106,0.045945,0.01833,0.024965,-0.054978
-0.081119,0.038006,0.062807,0.2413,-0.010563,0.0024714,0.038594,0.11144
0.046261,0.24918,-0.10988,-0.061973,-0.11236,-0.075297,-0.086566,-0.12057
0.33205,0.65161,0.36579,0.22146,0.24063,0.12106,0.071443,0.18657
-0.029857,-0.18722,-0.15116,-0.48749,-0.20168,-0.11935,-0.081329,-0.077809
-0.13537,-0.46932,-0.012463,0.295,0.068263,0.10965,0.1031,0.036992
0.092775,0.11636,-0.077421,-0.22791,-0.0045945,-0.0046125,0.045935,0.082443
-0.56188,-0.24502,0.013564,-0.20406,0.0089683,-0.0093171,-0.066052,-0.28084
-0.069287,-0.57871,-0.036111,0.17987,0.0068716,-0.053259,-0.085133,0.069068
-0.11357,0.6308,-0.16379,-0.13026,-0.081718,-0.019619,0.019394,0.09869
0.56243,0.63569,0.38819,0.50588,0.11772,0.099107,0.098785,0.11955
-0.46933,-0.55918,-0.27137,-0.24907,-0.074893,-0.11915,-0.17512,-0.40699
0.85564,0.71776,0.34871,0.28206,0.066751,0.13806,0.24475,0.5052
-0.35273,-0.7421,-0.24501,-0.075723,-0.051181,-0.074467,-0.12559,-0.29731
-0.22165,-0.33251,0.11036,-0.043987,0.024551,-0.014283,-0.035654,-0.20167
0.36832,-0.00015783,8.2965e-05,-0.061823,-0.018238,-0.0091531,-0.0083666,0.28782
0.17401,0.3014,-0.17724,-0.52723,-0.069688,-0.0039712,0.034848,-0.04458
-0.76909,0.30588,-0.10007,0.40633,0.081724,0.079787,0.11778,0.16246
0.13543,-0.0044326,-0.00060583,-0.20166,-0.0009024,-0.070065,-0.12655,-0.30925
0.077144,-0.25903,0.21772,-0.095221,-0.043619,0.0075835,0.028526,0.22687
0.011539,0.08147,-0.090651,0.35646,0.094547,0.047114,-0.049838,-0.028326
0.48868,-0.22792,0.14698,0.03277,-0.047203,-0.037562,0.013257,0.062593
-0.37772,0.35421,-0.060242,-0.0097165,-0.039244,-0.012335,-0.001099,-0.13672
-0.0040129,-0.038808,-0.056072,0.20453,0.040081,0.036531,0.094395,0.15955
-0.68044,-0.1805,-0.060638,-0.070421,-0.028281,-0.031893,-0.067668,-0.16032
0.94422,0.50011,0.31416,-0.1292,0.083481,0.071227,0.082805,0.011933
-0.28601,-0.62711,-0.39582,-0.095178,-0.17176,-0.15421,-0.18874,-0.33118
0.39517,0.35767,0.26702,0.24495,0.18238,0.12776,0.11755,0.39785
-0.12061,-0.4034,0.11233,-0.40937,-0.1354,-0.035838,-0.0061829,0.029569
-0.37097,0.29778,-0.29928,-0.21577,0.070173,0.003641,-0.013099,0.0042475
-0.26797,-0.39061,-0.27317,0.0063162,-0.083703,-0.058297,-0.0047525,-0.15208
0.40193,0.11052,0.1522,0.11879,0.02791,0.036275,-0.0045796,0.047009
-0.092464,-0.12022,0.45497,0.8906,0.16268,0.092031,0.065536,0.11838
0.15848,0.64994,-0.15175,-0.16721,-0.070231,-0.047435,-0.013165,-0.015674
0.29081,0.11925,-0.056325,-0.23954,0.00077992,0.039491,0.017155,0.066459
-0.75531,-0.47866,-0.14744,-0.41839,-0.16357,-0.1475,-0.093411,-0.261
0.3968,0.25059,-0.040959,-0.0778,0.0616,0.055375,-0.00093187,-0.046001
-0.28366,0.23823,0.16212,-0.037738,0.012265,-0.0083125,-0.017655,0.04622
0.51489,-0.52271,0.11786,0.71729,0.1261,0.091074,0.075438,0.16287
-0.053531,-0.22591,-0.13543,-0.3289,-0.088776,-0.044804,-0.041762,-0.025429
-0.27338,0.046306,0.073049,-0.33351,-0.0070157,0.013977,0.10738,0.081676
0.12503,0.050032,0.046994,0.34274,0.028025,-0.036907,-0.055357,-0.032554
-0.033821,0.44218,-0.22203,-0.21572,-0.037954,-0.0016841,-0.0067598,0.045088
-0.018472,-0.33737,0.023751,0.47402,-0.0092773,-0.012654,-0.059631,-0.24831
-0.22126,-0.058833,-0.08225,0.16092,0.067494,0.032251,0.035751,0.024881
0.46699,0.56213,0.11723,-0.76462,-0.049584,0.047513,0.083893,0.24821
0.16478,-0.07379,0.16238,0.049773,-0.008812,-0.06817,-0.10274,-0.13967
-0.79722,-0.91087,-0.30535,0.12946,-0.013304,-0.056957,-0.094388,-0.23896
-0.02513,0.33971,0.15959,-0.21037,-0.0085142,0.026223,0.070058,0.04525
0.16393,0.73145,0.28324,0.65816,0.18496,0.16523,0.14073,0.38552
0.23325,-0.44039,-0.25586,-0.70787,-0.22237,-0.14847,-0.1245,-0.13226
0.68376,0.74469,0.30642,0.70836,0.10493,0.068623,0.078977,0.053696
-0.39942,-0.86218,-0.49227,-0.22636,0.0022949,-0.012423,0.024424,0.020295
-0.24517,-0.61169,0.042444,-0.25625,-0.13232,-0.056305,-0.038328,-0.15558
-0.0051901,0.50615,-0.081784,0.22464,0.15382,0.085118,0.023468,0.1737
-0.58133,-0.52137,0.36223,-0.27232,-0.092678,-0.13492,-0.20412,-0.31217
0.50008,0.84755,-0.038362,0.20947,0.026488,0.049694,0.099535,0.036215
-0.0049541,0.24726,-0.24303,0.42411,0.12066,0.038191,0.0051989,-0.084075
0.4812,0.27117,0.14795,-0.46674,-0.067873,-0.0044745,0.052337,0.094651
-0.032744,-0.53607,-0.13031,-0.27629,-0.12487,-0.04625,0.014582,0.16011
-0.53672,-0.54524,0.2112,0.07471,-0.0031688,0.0071351,0.0011649,0.019467
-0.16798,0.44287,-0.094041,0.096738,0.11785,0.0933,0.027201,0.11771
-0.078674,0.15174,0.17896,0.23097,0.0041201,-0.014626,-0.0331,-0.054555
0.71207,0.21284,0.03613,-0.18269,-0.0081643,0.026449,0.061565,-0.038867
-0.17469,-0.90419,-0.26648,0.29679,0.018673,-0.088995,-0.14268,-0.21305
-0.24398,-0.0479,-0.24562,-0.2733,-0.11057,-0.0023805,0.049091,0.10012
0.48207,0.91899,0.22348,0.28818,0.14323,0.051361,0.011947,-0.0071315
-0.5282,-0.35805,0.16509,-0.51062,-0.14954,-0.10764,-0.058221,-0.066299
0.23093,-0.078143,0.12002,0.48596,0.097154,0.083347,0.050486,0.19719
-0.65811,0.010777,-0.28442,-0.16073,-0.030636,-0.054796,-0.043606,-0.22218
0.7219,0.22848,-0.00667,-0.21001,-0.024979,0.025576,0.012146,-0.0089053
0.41262,0.056077,0.072602,0.00060485,0.09858,0.12993,0.23416,0.34018
-0.48191,-0.6291,-0.30306,-0.061809,-0.16777,-0.16297,-0.22879,-0.2503
-0.34141,0.76783,0.34312,0.23385,0.11335,0.037819,-0.017438,-0.020667
0.11969,0.31069,0.15069,-0.0047818,0.0042428,0.044831,0.070778,0.045351
0.17303,-0.5913,0.078367,0.37691,0.067119,0.021854,-0.043093,-0.029467
0.23298,-0.60425,-0.05643,0.049572,-0.010788,-0.0081333,0.085351,0.096796
-0.14341,0.085799,-0.30351,-0.5653,-0.12027,-0.045637,-0.029054,0.13242
-0.33468,0.49141,-0.0245,-0.34188,-0.058211,-0.052004,-0.01961,-0.097434
0.30548,0.17445,0.15462,0.44853,0.12091,0.081932,-0.0035746,-0.07202
-0.41968,-0.5679,-0.24222,-0.097041,-0.051317,-0.081296,-0.11339,-0.10574
0.69132,0.59198,0.26338,0.025221,0.034888,0.028871,0.034509,-0.035292
-0.79394,-0.30972,-0.09155,0.42824,0.082984,0.092497,0.12855,-0.032125
0.51049,0.025203,0.00047804,-0.61209,-0.063117,-0.069714,-0.072533,0.16301
-0.090013,-0.2966,-0.20058,0.045626,-0.12223,-0.05121,-0.013377,0.013051
0.35586,0.58553,0.25933,0.46268,0.11626,0.093455,0.095371,0.059178
-0.14026,0.37326,0.23116,0.081346,0.050295,0.012653,0.0035549,0.053138
-0.0055814,-0.47495,-0.01361,-0.21198,-0.031662,-0.01262,-0.01595,-0.1368
-0.22236,0.094219,-0.12622,0.0077948,-0.013009,-0.053075,-0.10462,-0.080681
-0.2409,-0.79249,-0.039138,-0.1851,-0.02701,0.00017989,0.049029,0.15063
0.20866,0.82448,-0.13708,-0.2384,-0.081703,-0.07994,-0.11072,-0.11598
-0.14893,-0.44159,0.27495,0.62093,0.1042,0.041973,-0.006748,-0.08543
0.084643,-0.23026,-0.78594,-0.64467,-0.00029338,0.1154,0.14908,0.11521
0.18393,-0.15414,0.29265,0.061525,-0.019748,0.038295,0.1372,0.26505
0.11957,0.6834,0.33487,0.13372,0.015062,-0.041293,-0.058684,-0.098718
0.042185,0.40463,0.031788,0.1533,-0.075119,-0.12358,-0.16551,-0.36025
-0.08501,-0.34,0.049875,0.41934,0.13972,0.057135,0.043318,0.22993
-0.0096899,0.01719,-0.18846,-0.3174,-0.074623,-0.061254,-0.087893,-0.11683
-0.2138,-0.85994,0.38564,0.27067,0.0084828,0.068893,0.059162,0.038393
-0.24167,0.59337,-0.23095,-0.31785,0.076541,0.073632,0.12671,0.16664
0.12794,0.015452,-0.1672,-0.61575,-0.12043,-0.061424,-0.031759,0.16928
0.36586,0.76023,0.24489,0.55545,-0.0042034,-0.038135,-0.11738,-0.34105
0.22326,-0.38224,-0.10697,-0.26575,-0.012103,-0.011634,0.020076,-0.10335
-0.59692,-0.5822,-0.48977,0.2331,0.059225,0.026685,0.061639,0.05697
-0.2997,-0.12451,0.20616,0.052126,0.0068423,-0.024421,-0.07017,0.016691
0.90822,0.4444,0.0606,0.027199,-0.028585,0.06916,0.061968,0.057521
-0.40789,-0.22961,0.18525,0.15778,0.023065,-0.013747,0.019513,0.06899
0.16022,-0.0036198,0.29332,0.20067,0.020709,-0.0089138,0.027238,0.32192
0.25528,0.10538,-0.24634,-0.68909,0.0027154,0.035031,-0.034338,-0.32808
-0.32254,0.36464,-0.011119,0.01084,-0.055198,-0.047835,0.051079,0.10686
-0.12246,0.097618,0.077009,0.22964,0.017993,0.0064341,-0.12499,-0.21324
-0.55029,-0.9659,-0.25601,0.48318,0.041898,-0.0065079,0.021723,-0.025845
0.62384,0.38692,0.16099,-0.75874,-0.085454,-0.016906,0.029463,0.09717
-0.19592,0.06957,-0.18812,0.50558,0.13593,0.045762,-0.0079292,-0.094085
0.3725,0.023626,-0.10812,-0.58131,-0.12944,-0.067546,-0.034801,0.058254
-0.13238,0.46846,0.20593,0.13081,0.017735,0.0041104,0.0051687,-0.060345
-0.11839,-0.19997,0.09037,0.39305,0.00050958,0.020468,0.028055,0.12352
0.11406,0.21677,0.19403,0.11188,-9.7708e-05,0.0069578,0.043735,0.15182
-0.29269,-0.54472,-0.2485,0.020921,0.048436,0.027833,0.0071549,-0.04348
0.51205,0.065101,0.17691,-0.24055,-0.024755,0.021858,-0.017828,-0.19537
-0.36557,-0.16831,-0.076549,0.24007,0.069962,-0.0025484,0.0086234,0.12631
0.014975,0.081689,-0.33682,-0.78821,-0.15957,-0.092367,-0.077381,-0.10212
0.2889,0.16725,0.16995,0.62766,0.12988,0.071947,0.044094,0.095173
0.052802,-0.37059,-0.17289,-0.44105,-0.078321,-0.049959,-0.026214,-0.087458
-0.19687,0.46282,0.18204,0.21834,0.026957,0.024682,0.007432,-0.096268
-0.43814,0.013068,0.38335,0.63911,0.23329,0.10668,0.026538,0.19294
0.25162,0.1791,-0.2177,-0.75511,-0.30448,-0.094531,0.061033,0.052995
0.054719,-0.087209,0.081165,0.13034,0.053199,-0.0019551,-0.030878,0.022539
-0.36118,-0.32777,-0.43226,0.26398,-0.0067521,-0.069273,-0.086004,-0.41435
0.45263,-0.14033,0.13906,-0.30099,-0.0078033,0.070769,0.082703,0.22646
-0.087697,0.33009,0.11413,0.18291,0.034907,0.0047624,-0.016925,0.17902
0.28345,-0.045498,0.023274,0.25155,0.036305,-0.00058256,-0.040677,-0.041493
0.14198,0.11283,0.15513,-0.34049,-0.010366,-0.068971,-0.065892,-0.12323
-0.15668,-0.39143,-0.20107,-0.18968,-0.049366,0.0039637,0.017723,-0.074776
-0.25774,0.62223,-0.028926,0.28833,0.037389,0.039478,0.085999,0.13433
-0.071271,-0.39792,-0.0537,0.10122,0.039604,0.10055,0.053551,0.14409
0.29924,0.17791,-0.0081525,-0.15583,0.012328,0.015249,0.014296,0.001165
-0.37975,-0.19894,0.33596,0.051217,-0.044336,-0.068506,-0.016352,-0.27846
0.13754,-0.44407,-0.26213,-0.2193,-0.028921,-0.0031002,0.00019614,0.087534
-0.36972,0.19006,-0.16089,-0.23706,-0.07448,-0.141,-0.20225,-0.07881
0.089425,0.019107,0.26482,0.25879,0.068643,0.056074,0.032094,-0.017503
0.18489,0.43369,-0.001293,0.19954,-0.014056,0.040721,0.12481,0.11747
0.52967,0.64124,-0.070023,0.27238,0.098765,0.054925,-0.04133,-0.031348
-0.14141,-0.69287,-0.0058086,0.0064494,0.00025587,0.051925,0.18228,0.20132
0.25464,0.29034,0.22051,-0.11726,0.01794,-0.053843,-0.11028,0.073537
-0.44411,-0.60463,-0.22882,-0.22736,-0.13775,-0.11338,-0.14517,-0.3607
-0.25258,0.57726,-0.12056,-0.14695,0.025096,0.014599,-0.023517,0.022083
0.11128,-0.6975,0.20913,0.060387,-0.0091344,0.018228,0.059727,0.0011191
0.12646,0.10429,-0.090482,-0.10431,0.056788,0.093331,0.15949,0.19919
-0.46764,-0.5038,-0.2052,0.11186,0.0047639,-0.0019841,-0.013231,0.067362
0.7433,0.77536,0.27343,-0.0058438,0.007512,0.021385,0.025834,-0.0054112
-0.28444,-0.034124,0.027394,0.046611,-0.043439,-0.10238,-0.19228,-0.48114
-0.26433,-0.13645,-0.20707,-0.12633,-0.037907,0.024794,0.050912,0.20223
0.34914,0.48752,0.20393,0.41372,0.032484,-0.0037619,-0.10417,0.10732
-0.14077,-0.045348,0.065191,0.10272,0.066379,0.030293,0.13136,0.031513
-0.32263,0.30025,-0.14759,-0.28961,-0.053625,-0.076501,-0.016064,0.0067417
0.52534,-0.37991,0.12649,-0.073128,0.031225,0.066247,0.1409,0.18218
0.028488,-0.40437,-0.25518,0.082615,0.0074899,-0.0025454,-0.077597,-0.17581
-0.19055,-0.4573,0.08043,0.16517,-0.00092455,0.0061194,-0.046701,0.0039311
0.1214,0.49082,0.0067539,-0.60166,-0.034138,0.02193,0.0069743,-0.15256
-0.0026053,0.34753,0.077581,0.023945,-0.069535,-0.017539,-0.041459,0.043544
-0.47505,-0.39899,0.21472,0.51289,0.10338,-0.018383,-0.012005,0.054737
0.63628,-0.017143,-0.096695,0.22872,0.078398,0.050897,0.048927,-0.00015089
-0.29692,-0.080335,-0.40203,-0.69032,-0.15963,-0.082807,0.016855,0.06783
-0.064469,0.65658,-0.2228,-0.035414,-0.047337,-0.059762,-0.1078,-0.2091
-0.16435,-0.43117,0.63049,0.27653,0.041312,0.050032,0.042341,0.24741
0.37663,0.57557,0.11258,0.38962,0.11516,0.098307,0.13118,0.038311
-0.31824,-0.18777,-0.221,0.086597,-0.05939,-0.039983,-0.044902,-0.10351
0.062495,-0.53231,-0.13598,-0.48464,0.025879,0.04895,0.036807,-0.10208
0.41563,0.2467,0.29633,0.15013,0.10528,0.028714,0.0083408,0.21972
-0.36368,0.027523,-0.27733,-0.54397,-0.142,-0.10121,-0.084022,-0.29695
-0.2812,-0.51205,-0.054274,0.20997,-0.076094,-0.067832,-0.11551,0.10334
0.44339,0.48066,0.20576,0.50897,0.075516,0.027008,0.007825,0.1844
0.0797,-0.22493,-0.10811,-0.26059,-0.031784,0.019192,0.075648,-0.17989
0.027681,0.158,0.1439,0.39773,0.13258,0.041667,0.02623,0.064835
-0.21264,-0.18465,-0.25703,-0.45598,-0.080193,0.016561,0.039977,-0.11997
0.092834,0.62779,0.15854,0.013332,0.033019,0.022293,-0.01549,0.09509
-0.25046,0.013613,-0.022122,0.064296,-0.042995,-0.058053,0.00048577,0.14945
0.02599,-0.66553,0.03866,0.035367,0.020678,0.064813,0.087545,0.022091
0.51394,0.55149,0.0068225,-0.72585,-0.12647,-0.085486,-0.059612,-0.2999
-0.65254,-0.74322,-0.069049,0.72268,0.055794,-0.00097694,-0.043198,0.04557
0.32768,0.44713,0.070129,0.36199,0.076302,0.0216,-0.082446,0.0062516
-0.40602,-0.38181,-0.1766,-0.2965,0.0060572,-0.017665,-0.044718,-0.017634
0.24796,0.45232,-0.0047664,-0.28186,-0.029771,0.029674,0.12484,0.17004
0.21152,0.24094,0.33459,0.23458,0.062153,0.022882,-0.003064,-0.079532
0.20231,-0.22434,-0.058756,-0.084168,-0.023806,0.024211,0.072078,0.32585
-0.44689,0.091263,-0.14015,-0.12322,-0.093649,-0.12296,-0.13369,-0.45228
0.37537,-0.45542,0.010005,0.44249,0.109,0.10438,0.12986,0.23925
-0.44861,0.096457,-0.024254,-0.46834,-0.089028,-0.0051138,-0.035724,-0.16514
0.1565,0.76537,0.07628,0.15725,0.022278,-0.022055,-0.052512,0.027295
0.03001,-0.43512,-0.094714,-0.057376,0.028486,0.01442,0.047948,0.096175
0.15883,-0.42656,-0.012792,0.38763,0.031412,-0.012679,-0.05492,-0.1074
0.014288,-0.23085,-0.058854,-0.22502,-0.069652,-0.024742,-0.0018566,-0.098366
-0.032947,-0.042115,0.074241,-0.0095854,0.054741,0.057069,0.13692,0.21088
-0.14974,0.16208,0.060896,-0.58715,-0.14072,-0.16486,-0.20075,-0.044588
-0.18853,0.57219,-0.042072,-0.01612,0.025195,0.091475,0.055925,-0.065446
0.14074,0.74893,0.21201,0.62863,0.11618,0.076587,0.07937,0.18176
0.05923,-0.62669,-0.24676,0.12976,0.023476,-0.029729,-0.10652,-0.24668
-0.070575,0.11505,0.057609,-0.12323,-0.042062,0.02218,0.060963,0.040672
-0.15206,-0.6231,0.06128,0.10806,0.09065,0.028431,0.011405,0.14527
0.28534,-0.11715,-0.11258,-0.1511,-0.13439,-0.051046,0.025584,-0.043192
-0.03154,-0.038496,-0.15345,-0.0015382,0.093739,0.063966,0.079308,0.01282
0.68505,0.38328,0.37435,-0.15329,-0.10925,-0.10391,-0.047067,0.077096
-0.59079,-0.32686,0.039743,0.41954,0.03675,-0.06292,-0.1747,-0.21931
-0.15871,0.15685,-0.32211,-0.44998,0.038976,0.077594,0.070778,0.12225
-0.013099,0.60806,-0.047274,-0.58983,-0.17287,-0.072573,-0.037489,-0.14892
-0.38917,-0.51897,0.075662,0.53419,0.11267,0.057551,0.031808,0.068792
0.58101,-0.098758,0.0085215,0.067811,0.021456,0.085842,0.1306,0.080796
-0.076953,0.062424,0.23673,0.51726,0.085714,0.020657,-0.053025,-0.072597
-0.26644,0.11631,-0.098133,-0.017346,-0.0061614,-0.004882,0.083223,0.30546
-0.086325,0.1566,-0.026605,-0.10845,0.0043472,-0.014141,-0.10049,-0.2444
0.35565,-0.1559,-0.056131,-0.55623,-0.10103,-0.14782,-0.17369,-0.16607
0.1298,-0.48322,-0.17102,-0.19362,-0.040791,0.023633,0.07527,0.025866
0.14062,1.0033,0.18327,0.17611,-0.010139,0.047017,0.084398,0.011589
0.32263,-0.19593,0.24088,0.3964,0.1393,0.086372,0.14296,0.48624
-0.86666,-0.67324,-0.16243,0.19959,-0.10049,-0.11609,-0.18676,-0.48077
-0.14093,0.30169,-0.15954,-0.15225,0.020117,0.0099378,-0.030402,0.046462
0.35017,-0.037999,-0.12528,-0.17938,0.070895,0.08941,0.12661,0.081446
-0.40819,-0.28428,0.18286,-0.089895,-0.034728,-0.02627,-0.029489,-0.050072
0.71162,0.19989,0.19499,0.432,0.085404,0.022041,0.039057,0.19646
-0.39583,0.14682,-0.3073,-0.73413,-0.18645,-0.10185,-0.11415,-0.36058
0.30506,0.25011,0.19174,0.46497,0.07907,0.10966,0.12743,0.44946
-0.45536,-0.46929,0.035752,0.17051,-0.032138,-0.093506,-0.17373,-0.40501
0.18475,0.35961,-0.056917,-0.34159,0.066144,0.093415,0.17826,0.17831
0.44473,-0.20665,-0.17274,-0.33315,-0.10993,-0.13403,-0.16697,0.0057653
-0.63775,0.30858,0.35181,0.85649,0.19815,0.10731,0.04988,-0.24053
0.3717,-0.033448,-0.20242,-0.58887,-0.17299,-0.096329,-0.036817,0.23913
0.10169,-0.11742,-0.12462,-0.010048,-0.0040258,0.03651,0.042937,0.0022073
-0.10064,-0.35918,0.00722,0.21908,0.072577,0.083919,0.11012,0.035409
-0.13746,-0.088096,0.01374,0.19132,0.056882,-0.0012659,-0.093167,-0.12068
0.0046104,0.26558,0.20784,-0.14308,-0.11383,-0.047669,0.0729,0.034458
0.19245,-0.07168,-0.058606,0.16481,0.11472,0.10037,0.13042,0.086283
-0.84569,0.10324,-0.043277,-0.24125,-0.078312,-0.15139,-0.27369,-0.099354
0.71373,0.14155,-0.035273,-0.13883,0.0097451,0.032761,0.01548,-0.00089418
-0.21906,0.5189,0.19966,0.35993,0.066097,0.0045247,0.067478,0.067155
0.5551,-0.02389,-0.10419,-0.69893,-0.20619,-0.055851,-0.016155,0.11091
-0.12495,-1.0665,-0.12641,0.48258,0.12276,0.086886,0.054418,0.027802
-0.30464,-0.032046,-0.2339,-0.038111,-0.0014059,-0.042799,-0.11002,-0.29938
0.0002776,0.24239,0.22214,-0.03084,0.031045,0.024804,0.0079047,-0.025919
-0.086686,-0.11896,0.0076202,-0.04662,-0.029622,-0.022126,-0.011995,-0.095409
