0.083393,0.042913,-0.025253,-0.03739,0.01868,0.03729,-0.028272,-0.10898
0.068428,0.10391,-0.05291,-0.029617,-0.035569,-0.032783,-0.042874,-0.075288
-0.006846,0.0026613,0.072992,0.072239,0.019693,0.014309,0.059249,0.059408
-0.063954,-0.3417,-0.19397,0.049377,0.05153,0.053387,0.05109,0.19246
0.006315,0.32352,0.19251,-0.043714,-0.049627,-0.032949,-0.098916,-0.26258
0.00025478,0.25726,0.019892,-0.019853,-0.002748,-0.033958,0.015358,-0.10228
0.12018,-0.46954,0.082598,0.042469,0.020105,0.018993,0.050267,0.48701
-0.22065,-0.20711,-0.090994,-0.083619,-0.035854,-0.014713,-0.056346,-0.49288
0.10994,0.33667,0.22298,0.070489,0.024717,0.036962,0.04763,-0.06326
-0.028955,0.15952,0.014792,0.028318,0.014496,-0.020986,-0.051176,0.16063
-0.090409,-0.14442,-0.65368,-0.12385,-0.058399,-0.047508,0.030789,0.25814
0.17594,-0.048781,0.085593,0.044252,0.040791,0.075048,0.059842,-0.13005
0.036239,-0.32222,0.023808,0.002045,0.0077809,-0.027887,-0.10411,0.11978
-0.2121,-0.15441,0.27322,0.039262,-0.016466,-0.035689,-0.023297,-0.2684
0.048474,0.39749,0.33674,0.023594,0.030764,0.05177,0.091296,0.10813
0.14621,0.20469,-0.25208,-0.052544,-0.037986,-0.0077907,-0.010737,0.11262
-0.15348,0.50359,-0.070116,-0.01739,-0.01973,-0.019364,-0.0098194,-0.17267
0.14889,-0.56521,0.19529,0.097371,0.08523,0.047827,0.038392,-0.086467
-0.048949,-0.089192,-0.33943,-0.03707,-0.012582,-0.0098985,-0.015604,0.2214
-0.028979,0.22643,0.090134,-0.093387,-0.07143,-0.036831,-0.032154,0.071588
0.028528,0.0050923,0.10766,0.13078,0.041091,-0.0021504,-0.004158,-0.15869
0.076425,-0.49563,-0.17077,-0.060473,-0.011256,-0.023296,0.044622,0.11257
-0.2758,-0.11817,-0.12085,-0.019015,-0.0098653,0.024676,-0.096638,-0.39853
0.019181,-0.078843,0.25702,-0.0339,-0.0015992,-0.0065515,-0.0055573,0.11065
0.12608,0.19528,0.056413,0.020169,0.013687,0.039508,0.068631,0.28621
0.061135,0.6979,0.18344,0.034306,0.0049679,-0.00092405,0.001778,-0.031537
0.066892,-0.18871,-0.40902,-0.030001,-0.0040714,-0.018199,0.021193,-0.19172
-0.012922,0.17293,0.19272,0.077727,0.02585,0.0035268,0.010189,0.25883
-0.061538,-0.41006,-0.11342,-0.032822,-0.014483,-0.013725,-0.0076065,-0.096374
-0.20465,-0.0068808,-0.38274,-0.064676,-0.046858,-0.030819,-0.055742,0.011477
0.19762,0.26654,0.72005,0.08363,0.05375,0.05382,0.05296,0.084081
-0.050628,-0.41508,-0.1416,-0.025632,-0.017357,-0.0098429,-0.033478,-0.29151
0.15977,0.055401,0.047531,-0.0021083,0.0054186,0.0046983,0.0048851,0.23782
-0.13176,-0.086553,-0.29849,-0.04914,-0.0029353,-0.011981,-0.0040558,-0.090644
0.052315,0.33519,0.3209,0.028487,-0.011148,0.0026036,0.002179,-0.12348
-0.13796,-0.31335,-0.43676,-0.011367,0.0042821,-0.006188,-0.015274,0.2952
0.057249,-0.37595,0.024151,0.081476,0.043453,0.047698,0.092399,-0.09804
0.022903,0.87362,0.14332,-0.1068,-0.073207,-0.077749,-0.10401,-0.22858
-0.11416,-0.16036,0.039972,0.017807,0.0059601,-0.0073281,-0.018098,-0.02027
0.029915,0.33008,0.11393,0.017937,0.030988,0.024752,0.030164,0.12704
0.18156,-0.81872,-0.02508,0.010768,0.0018106,0.02637,0.040882,0.19588
-0.082679,0.45342,0.083022,0.035153,0.011988,0.02088,-0.0017644,-0.10605
-0.12513,-0.21723,-0.28243,-0.049914,-0.0091012,-0.023234,-0.020157,-0.1591
0.29237,0.17944,0.29783,0.051954,-0.014978,0.0029891,0.02401,0.052339
0.048226,-0.22944,-0.17894,-0.01128,0.025191,-0.0025204,0.0048596,0.22897
-0.13502,0.28547,0.0036861,0.002237,-0.0061401,-0.0090102,0.023128,0.17113
-0.10384,-0.16238,-0.061948,-0.071649,-0.015447,-0.0012437,-0.078037,-0.35317
-0.085591,-0.16099,0.077082,0.009457,0.0050474,0.0049623,-0.0019995,0.041205
-0.13346,0.29716,-0.10942,-0.050842,-0.04604,-0.029398,-0.037633,-0.1191
0.13118,-0.38814,0.099406,0.076239,0.050415,0.052239,0.10472,0.014542
0.15105,0.46552,-0.0045484,0.047656,-0.017565,-0.046473,-0.050608,0.050621
-0.083636,-0.45072,-0.035434,-0.0031609,0.0084211,-0.012362,0.0052273,-0.041031
0.073188,0.79701,0.29859,0.057034,0.08208,0.084973,0.046652,0.078146
-0.12441,-0.56033,-0.36756,-0.1778,-0.13202,-0.081947,-0.089613,-0.20557
0.23959,0.090867,0.15472,0.12829,0.093035,0.073302,0.12032,0.43946
-0.11655,-0.12847,-0.15027,-0.095202,-0.055047,-0.042784,-0.073481,-0.21822
-0.023798,-0.06711,0.059927,0.01862,-0.021587,-0.031804,-0.015111,0.18257
-0.15884,-0.48935,0.048462,0.024029,0.013511,-0.0034641,-0.025562,-0.38108
0.25361,0.21346,-0.016179,-0.0013487,0.0029446,0.018193,0.034861,-0.026979
-0.089487,0.76468,-0.067635,0.020052,0.039853,0.032355,0.032307,0.27472
0.12679,0.37745,0.44482,0.048593,0.053201,0.061544,0.036111,0.1708
-0.023088,-0.31508,-0.36496,-0.033426,-0.028052,-0.02792,0.02209,0.16777
-0.13417,-0.57107,0.18068,-0.0076177,-0.024814,-0.025755,-0.064789,-0.35974
0.0058333,0.32867,0.011193,0.0087091,-0.031168,-0.041641,-0.068125,-0.27795
-0.41959,-0.80854,-0.69977,-0.15616,-0.10961,-0.1067,-0.065387,-0.13149
0.18886,-0.016014,0.027954,0.091928,0.083943,0.084315,0.053844,0.19215
0.19677,0.74672,0.67571,0.042629,0.065716,0.063495,0.079851,-0.092906
0.35988,0.19512,0.014189,0.024678,0.00047094,0.019322,0.037202,0.43747
-0.3098,0.086099,-0.27254,-0.016104,-0.017382,-0.031669,-0.018615,-0.0053041
0.1116,0.021815,0.20907,0.022153,0.012648,0.012763,-0.0091576,-0.0011059
-0.0090571,-0.57478,-0.039989,-0.0089204,-0.0029388,-0.0032774,0.0028724,0.18066
-0.18196,-0.17184,-0.16907,-0.046972,-0.032897,-0.040731,-0.037861,-0.10576
-0.0045788,-0.35629,0.045877,-0.0063582,-0.02277,-0.013985,-0.015111,-0.49072
0.11263,0.59483,-0.00024228,0.0031887,0.027046,0.037318,0.0075784,-0.095895
0.10326,0.018151,0.016871,0.051637,0.0066734,0.01088,0.02924,0.42755
-0.17619,0.62909,0.21878,-0.040977,-0.0062944,-0.008143,0.0022519,-0.084996
0.0071331,0.1081,-0.061028,0.022052,0.034527,0.018596,0.004306,0.12588
-0.089011,-0.39052,-0.32371,0.021913,0.035015,0.020248,-0.011564,-0.32723
-0.16662,-0.16666,-0.092472,-0.11166,-0.1144,-0.10502,-0.084196,-0.033997
0.27609,-0.6288,0.063705,0.12148,0.07071,0.072503,0.068116,0.24401
0.076898,0.13719,-0.056384,-0.044126,-0.042193,-0.040582,-0.0071781,0.17414
0.14338,0.11118,0.90072,0.040158,0.023947,0.048486,0.057677,0.047471
-0.32867,0.15924,-0.67304,-0.10207,-0.050572,-0.042401,-0.025915,-0.088521
0.23068,0.0020172,-0.12092,0.029312,0.031744,-4.1832e-05,0.0079832,-0.11724
0.015799,0.77654,0.23645,0.059336,0.037021,0.027693,-0.012341,-0.19627
-0.044701,-0.29259,0.031035,0.081742,0.035858,0.017701,-0.0087006,0.27442
-0.045238,-0.042045,-0.13651,-0.10664,-0.034216,0.0091054,-0.020128,-0.20653
-0.30601,-0.42487,0.13953,-0.044887,-0.04842,-0.037358,0.00030656,0.10211
0.15839,-0.54207,-0.14064,0.017008,0.039718,0.034173,0.021467,-0.042451
0.060684,0.40357,-0.31977,-0.022437,-0.035919,-0.050211,0.0044553,-0.10168
0.012318,-0.018477,0.3772,0.086888,0.028878,0.013737,-0.034931,0.025246
0.015106,0.41514,-0.086967,0.016955,0.046233,0.030393,0.020619,0.055854
-0.047128,-0.18505,-0.14832,-0.13846,-0.11688,-0.070687,-0.047636,0.22274
0.263,0.48272,0.45934,0.13621,0.094181,0.069935,0.11953,0.54726
-0.16516,-0.44776,-0.33497,-0.057663,-0.03137,-0.016272,-0.025054,-0.80061
0.11155,-0.0098441,0.28717,0.037459,-0.02453,-0.032118,-0.020895,0.13904
-0.11245,0.31631,-0.1927,-0.0084279,0.044703,0.038339,-0.040346,-0.38332
0.082583,-0.18344,0.1207,-0.054997,-0.026515,-0.0077837,-0.0057297,0.048555
-0.3046,-0.33821,-0.22075,-0.024352,-0.019248,-0.014138,0.020116,0.52444
0.101,-0.12182,-0.070363,0.091207,0.050914,0.019194,-0.017677,-0.30235
0.1131,0.39489,0.37626,0.026073,0.01979,0.013824,0.052745,-0.083044
-0.31309,-0.010613,-0.39521,-0.10242,-0.034739,-0.022838,-0.041938,0.20226
0.35604,0.11483,-0.061848,-0.012771,-0.058291,-0.052203,-0.012449,-0.037495
-0.18229,-0.35909,0.051627,0.053164,0.073857,0.089336,0.032108,0.034294
0.15097,-0.31193,0.22995,0.048883,0.0021696,0.0030074,0.045153,0.40056
0.19919,0.24289,0.11661,-0.0095984,-0.01552,-0.022254,-0.051127,-0.66066
-0.062674,0.60179,-0.028791,-0.02033,-0.018038,-0.017563,0.0092104,0.26824
0.011421,0.26839,0.01303,-0.029817,-0.012757,-0.037196,-0.015695,-0.098545
-0.23729,-0.32025,-0.14132,0.024762,0.039956,0.013234,-0.023961,0.14898
-0.052961,-0.35582,0.092782,-0.12199,-0.093682,-0.029588,-0.0074979,-0.13278
-0.12399,-0.40775,-0.29407,0.069072,0.055556,0.045984,0.026053,-0.15638
0.12023,0.3827,-0.0065489,0.058705,0.042582,0.052963,0.053259,0.062262
-0.02989,-0.047887,-0.13189,0.0027174,-0.0077193,-0.031897,-0.043286,0.09418
0.13068,0.13634,0.4226,0.064466,0.013553,-0.0056398,-0.029653,0.089124
0.31487,0.74169,0.56224,0.024336,0.02751,0.021861,0.062267,0.071959
-0.24135,-0.8373,-0.83101,-0.16541,-0.052696,-0.0047924,0.020793,0.098578
-0.013504,-0.039295,0.031144,-0.021046,-0.040436,-0.062924,-0.092302,-0.4005
-0.016809,-0.097087,0.093436,0.09772,0.063641,0.073378,0.081787,0.25486
0.0065206,0.032369,0.035262,-0.051206,-0.053266,-0.049416,-0.066613,-0.29446
-0.38912,0.018823,0.020773,0.017014,0.0073798,-0.0095213,-0.0062055,0.21737
0.38958,0.42339,0.20669,0.0062144,0.011665,0.029215,0.05247,0.14224
-0.071936,-0.2321,-0.30461,-0.035947,-0.055331,-0.081202,-0.053954,-0.19112
0.007001,0.0028614,-0.12148,0.063082,0.07281,0.07383,0.04258,0.33541
0.21946,0.30386,0.16341,-0.0087633,-0.017263,-0.013002,-0.055467,-0.4019
-0.16964,-0.23316,0.097926,0.061145,0.081213,0.10396,0.082366,-0.15941
0.065621,0.0097788,0.19844,-0.024223,-0.029949,-0.051721,-0.03559,0.29084
-0.043931,-0.022269,-0.089316,-0.038654,-0.022613,-0.034789,-0.010714,-0.15955
-0.15464,-0.54136,-0.23401,-0.052884,-0.021946,0.021751,0.07089,0.21615
-0.063134,0.13028,-0.22804,-0.075107,-0.098516,-0.069827,-0.072501,-0.059506
-0.14401,-0.0023998,0.02183,0.066283,0.028652,-0.044094,-0.050949,-0.19951
0.4937,0.66606,0.53825,0.18365,0.14836,0.15351,0.1582,0.74633
-0.071829,0.16978,-0.11732,-0.082385,-0.044331,-0.086499,-0.14896,-0.62379
0.088676,-0.16086,0.12424,-0.044227,-0.026216,0.040477,0.065972,0.2496
-0.11153,-0.16711,-0.37103,-0.053245,-0.031907,-0.051677,-0.049054,-0.3309
-0.17341,-0.43115,-0.088349,0.0080197,0.024319,0.043017,-0.0021565,-0.10025
0.050656,0.1702,0.2845,0.030506,-0.02178,0.0038812,0.034671,0.04416
0.068095,-0.010542,0.068193,0.084841,0.064054,0.049257,0.10053,0.15162
-0.16773,0.030291,-0.38472,-0.094355,-0.054145,-0.11028,-0.13252,0.20196
0.062723,-0.20164,0.044296,-0.0069634,0.014312,0.048519,0.015519,-0.090464
0.11223,0.2533,0.21603,0.011013,-0.0038486,0.033536,0.045089,-0.035252
-0.11949,-0.31767,0.092476,-0.0094517,-0.014629,-0.0063641,-0.035411,-0.23204
0.15775,0.66004,-0.13058,0.056165,0.021334,-0.0078957,0.071605,0.40583
-0.047533,0.14139,0.062244,-0.0037106,-0.0050218,-0.06373,-0.08618,-0.21577
0.14773,-0.13997,0.021647,-0.033522,0.0081391,-0.0085849,-0.00012185,0.29254
-0.17848,-0.24148,-0.0035357,0.028604,-0.063991,-0.11476,-0.10696,-0.42244
-0.049948,-0.56546,-0.014398,0.018192,0.083355,0.22795,0.16417,-0.010739
-0.021705,0.50909,-0.1444,-0.02577,0.012637,-0.011421,0.0088385,0.073316
-0.078315,-0.3257,-0.15909,-0.079515,-0.057534,0.026167,0.0050492,0.12604
0.28026,0.45949,0.16893,0.0061185,0.04452,0.042928,0.042941,0.17095
-0.023857,0.12983,0.33333,0.075901,0.0061024,-0.048379,-0.07357,-0.33824
-0.19344,-0.32947,-0.24999,-0.048713,-0.11043,-0.21011,-0.11885,-0.064767
0.092141,-0.17444,-0.04014,0.031776,0.062051,0.056456,0.02335,0.24214
-0.081024,0.21431,0.026834,0.036906,-0.0076852,-0.0073925,0.055283,-0.096822
0.19315,0.19827,0.014151,0.03737,0.11794,0.23069,0.14812,0.07436
-0.1406,-0.24459,-0.086275,-0.076297,-0.076609,-0.088713,-0.081487,0.059424
-0.083301,-0.23112,-0.04151,-0.054631,-0.099089,-0.12154,-0.086961,-0.088528
0.051086,0.1595,-0.049471,-0.00791,0.027042,0.015534,-0.001204,0.089472
0.0030333,0.15925,0.089407,0.039291,0.043858,-0.0049829,-0.011566,-0.19761
0.30207,0.38978,0.66797,0.1092,0.083959,0.1769,0.13233,0.25177
-0.12347,-0.38687,-0.36443,-0.049297,-0.03261,-0.024184,0.0013723,-0.15694
0.022721,0.37334,-0.033884,0.047376,-0.0014095,-0.084317,-0.091202,-0.15796
-0.1338,-0.44003,-0.34891,-0.054245,-0.010071,-0.0030682,0.035127,0.14045
-0.3021,-0.28636,-0.31565,-0.14298,-0.12884,-0.16287,-0.15004,-0.080069
0.10675,0.10437,0.24957,0.094477,0.087909,0.13192,0.09622,-0.012409
-0.020735,0.0046474,0.14145,-0.067184,-0.03902,0.029927,0.024435,0.38503
0.32688,0.16495,0.13959,0.045337,0.014392,-0.023508,0.033221,-0.088577
0.019571,0.195,-0.00057315,0.12083,0.10022,0.13545,0.083308,-0.11109
-0.027296,-0.00036216,0.16987,-0.050797,-0.03125,-0.048324,-0.044617,-0.15789
-0.095515,-0.39459,-0.20737,-0.024021,-0.012839,-0.028559,-0.046666,-0.13478
-0.17963,0.065887,-0.047912,-0.041538,-0.10271,-0.18087,-0.14246,0.051585
0.075959,-0.10117,0.019493,0.043967,0.096958,0.12702,0.096916,0.001478
0.25264,0.64922,0.23188,0.066922,0.022883,0.011968,0.038086,0.48611
0.135,0.17969,-0.2131,0.033565,0.041484,0.020731,0.0088902,-0.14592
-0.29617,-0.13997,0.054749,-0.08084,-0.050967,0.012759,0.024941,0.0082807
-0.12095,-0.40703,-0.11623,-0.11296,-0.10633,-0.0586,-0.054164,-0.046606
0.043559,0.027449,-0.17259,0.030953,0.039536,0.049152,0.014161,-0.46912
-0.14427,-0.45552,0.073982,-0.08588,-0.058249,-0.077712,-0.043017,0.37264
0.11616,0.054557,0.24306,0.14717,0.13225,0.13926,0.071706,-0.028419
0.032553,-0.081266,-0.38867,-0.0106,-0.013187,-0.10437,-0.055254,-0.14664
0.07024,0.32172,0.36179,0.075026,0.037401,0.027541,0.021767,0.10723
0.13883,0.33964,0.26265,0.037899,-0.027963,-0.035233,-0.0017486,-0.22404
0.036829,0.18737,-0.25494,-0.074561,-0.044946,-0.0036352,0.022606,0.6051
-0.2517,-0.27583,0.074912,-0.051384,-0.021344,0.044092,0.024291,-0.15298
0.083587,-0.31319,-0.20947,-0.041389,0.011387,-0.0016395,-0.067378,-0.41917
-0.054516,-0.13884,-0.1406,0.001638,0.0059998,0.015134,-0.0028559,0.14188
0.04087,0.24704,0.053592,0.030027,0.024512,0.0081698,0.045528,0.28596
0.23308,0.70057,0.15333,0.08203,0.042958,0.00064304,0.014891,-0.38838
-0.23078,0.13949,0.49404,0.047544,-0.040729,-0.10135,-0.071585,0.30283
-0.10995,-0.60277,-0.58822,-0.089625,0.030847,0.10062,0.051623,0.12187
-0.021332,-0.54048,-0.22556,-0.087649,-0.10976,-0.14333,-0.07636,-0.26199
0.10732,0.0048356,0.16899,0.0064671,0.045168,0.14361,0.099358,0.048355
-0.088093,-0.22037,-0.036278,0.028741,-0.0042664,0.00071513,0.016591,-0.29846
0.067926,0.50352,0.50324,0.1044,0.054661,-0.040578,-0.058657,0.11333
0.086579,-0.14844,-0.024607,-0.024066,-0.004309,0.035412,-0.00097577,0.091242
-0.029611,0.17034,-0.44039,-0.043832,-0.0011644,-0.0057624,-0.013097,0.21689
0.10341,0.6006,0.26295,0.029798,-0.084031,-0.14864,-0.071248,-0.13904
-0.077025,-0.4245,-0.29059,-0.021601,0.10676,0.19251,0.14512,0.30775
0.076198,0.14822,0.015134,-0.0258,-0.014459,-0.013701,-0.0045048,-0.30771
-0.056194,0.00045821,0.35891,0.041033,-0.0020676,-0.017264,-0.020144,-0.18724
-0.2343,-0.18883,-0.26772,-0.047255,-0.019808,0.0023564,-0.011297,0.060098
0.14927,-0.038172,0.0098324,-0.01685,-0.075155,-0.094987,-0.064085,0.05873
-0.094288,-0.25831,-0.011814,-0.0003004,0.019697,-0.0039241,0.032229,-0.036498
0.19862,0.15409,0.0969,0.049334,0.030561,0.010683,-0.0037917,0.46762
-0.010726,0.19857,0.1328,0.10063,0.019915,-0.042697,-0.023889,-0.31438
-0.13543,-0.51981,-0.17747,-0.11247,-0.004726,0.10972,0.057691,-0.10414
0.044576,0.28677,0.0179,0.026651,0.088867,0.10064,0.037623,-0.16239
0.030657,0.0014482,0.039808,-0.0060866,-0.043849,-0.04709,-0.037437,-0.015154
-0.082309,-0.078715,-0.21236,-0.039352,-0.013103,0.0014674,0.004188,0.43704
0.21416,0.77132,0.34083,0.028075,-0.038389,-0.067351,-0.00951,0.1225
-0.23612,-0.49969,-0.29124,-0.053892,-0.057676,-0.067139,-0.055117,-0.42809
0.14445,0.1631,0.21336,0.074284,0.0070477,-0.061188,0.0080948,-0.21439
-0.01239,-0.4151,-0.25342,-0.040196,0.046651,0.11419,0.024083,0.38205
-0.043964,-0.059927,0.0045351,0.009298,0.030384,0.029373,0.016538,-0.011666
0.0091554,0.25322,0.25281,0.0043151,-0.0020712,0.0050767,0.0013149,0.029119
0.0049718,0.25179,0.091976,-0.00033679,-0.018885,-0.004956,0.017616,-0.008011
-0.065356,-0.45323,-0.19858,0.018665,0.042869,0.015586,0.010776,-0.30723
-0.069557,0.25064,0.073954,0.021916,-0.043156,-0.065465,-0.066166,-0.068576
0.39864,0.14193,0.024009,0.032361,0.051161,0.064913,0.075696,0.56206
-0.24617,-0.43615,-0.21031,-0.098973,-0.10405,-0.12418,-0.087244,-0.093343
-0.16704,-0.11502,0.033175,-0.020967,0.029996,0.10962,0.062071,-0.065384
0.10604,0.49097,0.10501,0.047377,0.062327,0.039719,-0.007669,-0.26858
-0.074102,-0.22393,-0.10419,-0.034564,-0.085498,-0.11534,-0.069889,0.022131
0.067046,0.048634,0.15644,0.077215,0.070635,0.065995,0.04735,0.077782
0.14726,0.24148,-0.049041,-0.015254,0.022749,0.013008,0.023811,0.14521
0.057158,-0.17438,-0.062381,-0.022303,-0.033881,-0.0090654,0.023609,-0.08395
-0.22727,0.091502,0.1811,0.0020369,-0.021025,-0.0083429,-0.023557,-0.012075
0.011752,-0.29607,-0.27743,-0.035364,0.014687,0.022824,0.007287,0.07578
0.19501,0.3821,0.31393,0.053488,-0.020138,-0.064001,-0.0088965,-0.042383
-0.18618,-0.41257,-0.35585,-0.10611,-0.054781,-0.049922,-0.04088,-0.0016043
0.10998,0.43008,0.26108,0.11089,0.082999,0.088723,0.012907,0.11917
-0.18187,-0.49519,-0.20206,0.016793,-0.036243,-0.061908,-0.081876,-0.25735
0.048543,-0.077968,0.098249,-0.029438,0.07193,0.13114,0.14356,0.058825
0.11511,0.2761,0.12216,0.041995,0.024579,0.027267,0.048606,0.095034
-0.12905,0.17615,0.032461,-0.019401,-0.045741,-0.084515,-0.077689,-0.21429
0.090879,0.20674,-0.047385,-0.049909,-0.0065162,0.014482,0.022464,0.13571
-0.075799,-0.32998,-0.18928,-0.057456,-0.076731,-0.081975,-0.096261,-0.13988
0.081995,0.023568,-0.019637,-0.010674,-0.014306,-0.037796,-0.027588,0.20383
0.15738,0.076375,0.093251,0.067275,0.055782,0.045722,0.095725,0.34737
-0.046175,0.083309,0.078333,0.043881,0.016447,0.051689,0.00029829,-0.46046
-0.13178,-0.31669,-0.12731,-0.041599,-0.038469,-0.03531,-0.016976,0.19155
-0.10086,-0.11583,0.15585,0.076464,0.086353,0.065999,0.036053,0.026085
0.14715,0.24229,-0.025281,0.038499,0.047054,0.058538,0.042122,-0.21875
-0.16155,-0.11428,0.040447,-0.085494,-0.0628,-0.042445,-0.0457,0.09422
0.12179,0.20107,-0.099668,-0.061448,-0.032452,-0.026446,-0.016442,-0.045006
-0.087929,-0.15946,0.086295,-0.022357,-0.072918,-0.12037,-0.080867,-0.20735
0.069679,0.15086,-0.29919,0.0083535,0.011209,0.019418,0.019151,0.21753
0.079906,0.079119,0.16684,0.046509,0.048321,0.064904,0.02619,0.15371
0.037024,0.039723,0.0089131,0.053364,0.038806,0.00080714,0.0030993,-0.059942
-0.11366,-0.22609,0.14984,-0.0020005,-0.0013018,0.030694,0.051624,-0.11563
-0.021129,-0.0092938,-0.042602,-0.041204,-0.024795,-0.024704,0.0076289,0.044098
0.10276,0.1252,0.080194,0.021819,0.023193,0.053654,0.058272,0.12436
-0.039942,-0.21578,-0.17732,-0.0082594,-0.005784,-0.031011,-0.078239,-0.16291
-0.028359,0.043535,-0.10474,-0.037819,-0.041604,-0.052235,-0.043134,-0.05215
-0.12097,-0.16142,0.11754,-0.03582,-0.037731,-0.025906,-0.047878,-0.1226
0.15074,0.31609,0.012217,0.10686,0.099147,0.071052,0.071272,0.45196
0.013608,0.24818,0.10204,-0.024095,-0.0064433,0.019497,0.033002,0.12225
-0.047316,-0.014423,0.003638,-0.0070473,-0.011199,-0.0090485,-0.029692,-0.23921
-0.046697,-0.1594,-0.11931,-0.029683,-0.03266,-0.022645,-0.022702,-0.41585
0.024322,-0.45172,-0.12638,-0.0061806,0.014905,0.0098522,0.023156,0.059579
-0.0051908,0.18835,0.16212,0.00093125,-0.056032,-0.091189,-0.040155,0.061289
0.076382,-0.064952,-0.12865,0.046401,0.067188,0.072857,0.084518,0.32355
0.1053,0.16619,0.3375,0.013195,0.0098801,0.017878,-0.0089693,0.16704
-0.25441,0.017305,-0.18127,-0.059391,-0.032222,-0.021491,-0.039435,-0.4311
0.082836,0.20923,-0.051703,0.0086436,0.011668,0.025249,0.00073373,0.16258
0.069658,-0.053775,-0.031085,0.022352,0.0092049,0.0019212,-0.005906,0.011221
-0.044494,0.056506,0.092183,0.013379,-0.00014001,0.002236,0.034166,-0.26734
0.052416,-0.21074,-0.048345,-0.041339,-0.031681,-0.020797,-0.035438,0.34321
-0.085223,-0.17724,-0.061328,0.0069336,0.024134,0.026443,0.019654,-0.023581
-0.059093,0.030343,-0.05563,-0.021344,-0.012367,-0.027999,-0.034814,-0.27317
0.0058264,0.035298,-0.015514,0.014392,-0.016346,-0.059121,-0.018945,0.18897
0.039293,-0.0077045,0.19139,-0.0033583,0.011859,0.03473,0.02842,-0.11302
0.2054,0.51714,0.17339,0.088909,0.056132,0.050567,0.068379,0.25107
-0.034957,-0.10218,-0.0085615,0.0013875,-0.0013008,-0.0036755,-0.0084044,-0.093451
-0.14285,-0.35848,-0.32497,-0.055798,-0.028232,-0.018576,-0.069225,-0.22467
-0.071521,-0.10335,0.0037954,-0.059945,-0.064252,-0.033274,0.010678,0.091613
0.10084,0.22643,0.085968,0.027489,0.046522,0.061404,0.043483,0.011311
-0.094474,-0.29743,-0.078895,-0.020258,-0.01637,-0.039534,-0.057079,0.25283
0.053639,0.18631,0.0016734,0.031335,0.028411,0.030761,0.021213,-0.0043427
0.045358,0.046796,0.094174,0.06554,0.03273,0.014187,0.051635,0.044585
-0.025442,0.12169,0.027976,-0.065394,-0.04982,-0.050349,-0.051763,-0.49051
0.14594,0.23246,0.1404,0.014326,0.0078771,0.016881,0.0080426,0.047434
-0.22186,-0.32348,-0.12191,-0.022651,-0.020184,-0.010423,-0.01866,-0.23132
0.16783,0.10217,-0.054661,-0.01163,0.0070902,-0.0068155,0.0091247,0.32998
-0.036768,-0.45997,-0.070959,0.024342,0.01187,-0.01082,-0.0019757,0.49665
-0.20301,0.15308,-0.091985,-0.0084013,-0.029217,-0.045367,-0.043853,-0.178
0.11434,0.025777,0.10138,0.014899,0.039892,0.077385,0.063323,0.1474
0.032474,0.27337,0.16539,0.039044,0.039114,0.037207,0.022638,-0.45979
0.059268,0.081053,0.083995,0.00086303,-0.00080961,0.013586,0.029207,-0.0024187
-0.031774,0.0088532,-0.22956,-0.0065633,-0.017853,-0.0017078,0.012449,-0.08414
0.025053,0.10142,0.1299,-0.03842,-0.020118,-0.024792,-0.059106,0.16137
-0.051369,-0.54895,-0.20599,-0.040209,-0.046644,-0.048254,-0.083955,-0.0075693
0.1064,0.36224,0.050759,0.0038757,-0.003306,-0.033189,0.00055924,-0.058033
-0.032476,-0.27306,0.094576,0.024035,0.016816,0.00493,0.030724,0.17647
-0.23302,-0.16313,-0.11416,-0.04151,-0.016712,0.027462,0.030405,-0.035767
0.021075,0.34401,0.19777,0.065792,0.029668,-0.011906,0.0077696,-0.21579
0.02728,-0.15433,-0.047627,0.002766,0.0079842,0.02797,0.048883,0.37257
0.17654,0.15707,-0.013919,0.035301,0.043265,0.022384,-0.018307,-0.26962
0.13282,0.13102,0.057559,0.0070501,0.025679,0.025974,0.016657,0.20179
-0.018505,0.063784,-0.21485,-0.051159,-0.037824,-0.01636,-0.057841,0.013308
-0.23926,-0.35935,-0.071988,-0.014954,-0.0077138,-0.0037473,0.0074796,-0.19466
