-0.072705,-0.032349,0.014507,-0.0065075,0.012915,0.0033975,0.034019,0.02638
0.004373,-0.022234,-0.0067201,-0.015429,-0.00356,0.018411,-0.0062848,0.13351
0.02121,0.002783,-0.028604,-0.0083534,-0.0044521,-0.020909,0.00082555,-0.1065
-0.014721,0.074179,0.019016,0.006988,-0.0052931,-0.005179,-0.022869,-0.020356
-0.010201,-0.026527,-0.0045444,0.015018,0.0018481,0.018671,0.024053,0.040864
-0.090856,0.013417,0.017945,0.00011233,0.001471,-0.0041457,-0.014787,-0.063932
0.18801,0.014513,0.016306,0.0091021,0.0014932,-0.011248,0.0011656,0.054602
0.25557,0.023749,-0.0014307,-0.0049763,0.0097886,0.0050703,-0.0062052,-0.066298
-0.50568,-0.12291,-0.058423,-0.026617,-0.0048941,-0.002139,-0.0212,0.16509
0.060449,0.0041658,-0.0059258,0.0065433,-0.0035629,-0.0016581,0.026581,0.098473
0.047838,0.0063615,0.046981,0.00061125,-0.0019775,-0.0091077,-0.042518,-0.1269
-0.074531,0.055236,0.022399,0.0023183,0.0074935,0.0067856,-0.017656,-0.55077
0.2638,0.033132,-0.040492,0.027151,-0.0066017,0.0069802,0.093098,0.38159
-0.13257,-0.021482,-0.016725,-0.026581,-0.0053935,-0.016338,-0.023152,0.0067101
0.032809,0.078291,0.070082,0.020712,0.010964,0.038366,0.14097,0.22392
0.09521,0.058552,-0.038191,-0.0028988,0.011133,-0.00083127,-0.024222,0.057524
0.061708,-0.29176,0.025258,-0.011459,-0.012708,-0.0089687,-0.31562,-0.038666
-0.27917,0.074561,-0.099343,-0.012683,-0.0057932,-0.017296,0.1969,-0.39232
0.0099881,0.0021455,0.087664,-0.0063954,-0.014841,-0.025748,-0.12644,0.17655
-0.11719,-0.0076971,0.023552,0.015445,0.0072278,0.012683,0.090583,0.13698
0.1841,0.19505,-0.080816,-0.001603,0.0059436,0.004429,0.15394,-0.088776
0.1809,-0.0051832,0.048098,0.020797,0.020557,0.019989,-0.17747,0.054427
-0.16434,-0.10702,-0.026931,-0.010967,-0.0034964,0.012627,0.050066,-0.12042
0.055945,-0.086073,0.014835,-0.010917,-0.011486,-0.025416,-0.09329,-0.18326
-0.15738,-0.020165,0.017696,0.013072,-0.0034493,0.0073627,0.079007,0.24094
0.078772,0.0043045,0.076028,-0.0016529,0.0048865,0.01705,0.26836,0.12832
0.15469,0.13447,-0.18452,-0.00061015,-0.002238,-0.043471,-0.35562,0.071644
-0.17273,-0.04583,0.096042,-0.015274,-0.0015237,0.020833,0.032679,-0.055527
-0.068885,0.046636,0.0041441,0.0010271,-0.00089783,0.0065682,0.079411,-0.14552
0.24593,0.22142,0.016645,0.024707,0.0073777,0.022901,0.29851,-0.2078
-0.034461,-0.12573,-0.038324,-0.03025,-0.0079735,-0.024035,-0.39671,0.13125
-0.17689,-0.3327,-0.11424,0.023665,-5.861e-05,-0.024862,-0.18554,0.073903
0.075781,0.021643,0.19441,0.014659,0.0077343,0.012727,0.26948,-0.10675
-0.12808,0.062962,-0.02752,-0.049306,-0.015781,0.0030124,-0.037057,0.30045
0.27458,0.15263,0.1405,0.050708,0.023203,0.0087723,0.061882,0.077516
-0.16048,-0.010976,-0.17794,-0.067918,-0.023714,-0.0087655,0.23339,-0.10241
-0.041305,0.15391,-0.17165,0.024664,0.015347,0.028782,-0.42608,-0.55002
-0.015022,-0.20055,-0.0056575,0.023864,0.007548,-0.0033932,0.14017,0.40876
0.060003,-0.11794,0.32733,0.031262,-0.015908,-0.019244,0.12072,-0.23142
0.027979,0.13069,-0.086717,-0.0078897,0.01524,-0.018749,-0.039027,0.3521
-0.040988,-0.039457,-0.020594,-0.031188,-0.0084145,-0.0097773,-0.22278,-0.041926
0.071017,-0.13656,0.058189,0.00033806,-0.0087406,0.015356,0.0051801,-0.099939
0.026807,0.25931,-0.20012,-0.014907,-0.0013098,0.072091,0.42371,0.092158
0.082887,0.12138,0.097332,0.0090643,0.013977,-0.019478,-0.055811,-0.15417
0.058619,-0.093764,-0.047006,0.002067,-0.0096238,-0.10333,-0.27974,-0.09091
-0.31187,-0.08615,0.0019428,-0.0044807,-0.0016662,0.023461,-0.10953,0.18556
-0.23888,0.085153,0.058343,0.020819,0.014521,0.11074,0.43797,0.12542
0.18523,-0.27071,-0.16624,-0.023535,-0.015697,-0.036904,-0.020264,0.2181
0.071574,-0.21026,0.12431,-0.0048078,-0.0064069,-0.10697,-0.78035,-0.56202
0.038944,0.57892,0.17777,0.053325,0.026659,0.11152,0.47167,-0.020846
0.11948,-0.37817,-0.22817,-0.044832,-0.018247,-0.12353,-0.3875,-0.15848
0.4068,0.42929,0.28493,0.059623,0.038328,0.16455,0.9717,0.64329
-0.5846,-0.10411,-0.12332,-0.07128,-0.046049,-0.08663,0.0032294,-0.074552
0.40131,-0.17699,0.27007,0.054268,0.0096572,-0.0020077,-0.31624,0.0029803
-0.68433,0.0042557,-0.48993,-0.079552,0.0021785,0.035659,-0.41687,-0.38702
0.21152,-0.11098,-0.043564,0.027297,-0.013847,-0.0048392,-0.22134,0.047059
0.25982,-0.23053,-0.052146,0.039144,0.024129,0.0093597,0.4805,-0.09116
-0.16456,0.33471,0.0984,-0.059178,-0.0322,-0.13262,-0.33544,0.30108
0.11872,0.10015,0.09352,0.053207,0.028288,0.10055,0.49446,0.17701
-0.022031,0.23557,0.0013676,0.0096957,-0.005139,-0.041074,-0.17838,-0.33947
0.047374,-0.098667,0.17011,-0.017322,0.0083424,0.09875,0.55251,0.21825
-0.10921,-0.032159,-0.030729,-0.0040275,0.01422,0.082467,-0.16352,-0.012092
0.10311,-0.19453,-0.10127,-0.028337,-0.02642,-0.23848,-0.84811,-0.30701
-0.057042,-0.5739,0.23732,0.026962,-0.011891,0.04204,-0.045335,0.11978
-0.03455,0.86654,-0.097122,-0.0023385,0.018854,0.12705,0.55302,0.3288
-0.055988,-0.32679,-0.22654,0.047537,0.003401,-0.038156,0.044327,-0.32922
0.065697,-0.13713,-0.014772,-0.081604,-0.042574,-0.086305,-0.40461,-0.025772
0.056218,0.46908,0.15206,0.078566,0.052798,0.03746,0.27742,0.014176
-0.062162,-0.7398,-0.16521,-0.089549,-0.030884,-0.04944,-0.26283,0.19934
0.037329,0.43413,-0.14617,0.015258,0.018696,0.16106,0.56392,-0.084543
0.15026,0.32864,0.50764,0.088022,0.021563,-0.018327,0.3524,-0.39709
-0.14625,-0.32102,-0.37316,-0.090195,-0.038268,-0.10305,-0.39762,0.60781
0.077066,0.61013,0.33922,0.1055,0.026302,-0.022734,-0.33442,-0.16213
-0.2967,-0.81599,-0.39972,-0.16084,-0.042915,-0.058639,-0.3229,-0.19869
0.27255,-0.068819,0.18494,0.103,0.050654,0.25784,0.90834,0.52871
-0.23702,0.16379,-0.015873,-0.024769,-0.029094,-0.19076,-0.76346,-0.65326
-0.12044,0.20231,0.10636,0.026299,0.014713,0.048286,0.26955,0.28467
0.5302,-0.17922,-0.043903,-0.0014428,-0.020868,-0.072414,-0.3662,-0.13618
-0.057427,0.2544,0.24203,0.032842,0.020764,0.13408,0.23025,-0.011516
-0.12514,-0.15239,-0.37384,-0.050256,-0.0083386,-0.020258,-0.51779,0.25861
-0.024885,-0.17283,0.099307,-0.031636,-0.0060478,0.011043,0.68481,-0.18633
-0.21075,0.36448,0.036295,-0.012442,-0.018666,-0.20188,0.25355,-0.19076
0.13636,-0.11204,-0.32743,0.046832,0.016808,0.10668,0.51304,0.54202
0.14027,-0.19807,-0.036635,0.021598,0.038237,0.085551,-0.12241,-0.29234
0.19856,-0.1147,0.41133,-0.017525,-0.024516,0.063486,-0.42814,-0.013289
-0.47047,0.33099,0.050264,0.02336,0.00821,-0.075917,-0.30409,0.036772
-0.046521,0.37136,0.10074,-0.035484,-0.020048,-0.15215,-0.50691,0.0002123
0.02533,-0.33068,-0.20211,-0.0067945,-0.0080907,-0.047297,-0.1329,-0.48042
0.19839,-0.34542,-0.085325,0.023084,0.004568,0.15315,0.46029,0.22947
0.081896,-0.046506,-0.15196,-0.0088742,0.025255,0.035213,0.01987,0.52959
0.15953,0.029531,0.1973,0.013929,0.0066364,0.15325,0.36481,-0.13429
-0.21052,0.11249,-0.016656,-0.026291,-0.036052,0.084704,0.58703,0.057642
-0.15471,0.22127,0.1569,-0.012891,-0.0093399,-0.53063,-1.0518,-0.56784
0.41159,0.10074,0.044234,0.069306,0.039739,0.32992,0.83225,0.15921
-0.46546,-0.11472,-0.10559,-0.037825,-0.021662,-0.25603,-1.0361,-0.075816
0.12844,-0.010748,-0.29239,-0.037561,0.0018443,0.20358,0.54272,0.63153
-0.024128,0.052459,-0.022695,0.031056,0.016662,0.10743,0.56456,-0.032366
-0.022472,-0.23139,0.33066,0.019779,-0.023879,-0.20027,-0.34085,-0.10662
0.081553,-0.22361,-0.23757,-0.031993,0.00544,0.077947,0.013234,-0.58223
0.017374,0.26138,0.032862,0.016821,0.0032682,0.020788,-0.49587,-0.15222
-0.09548,0.10476,0.31561,0.0026918,0.016661,0.1131,-0.23793,0.28008
0.17405,0.21159,-0.12285,0.0043147,-0.01674,-0.13696,-0.58865,0.13932
-0.0567,-0.42659,0.11583,-0.048066,-0.0030806,-0.057295,0.70903,0.020986
0.21903,0.35423,-0.07076,0.0648,0.010838,0.024074,0.66785,0.3235
-0.21951,0.023414,-0.17597,-0.0082547,0.0016385,0.036852,0.7263,-0.087959
-0.10927,-0.59746,-0.2322,-0.032604,0.00062686,0.02,-1.0256,0.025164
-0.062274,0.27464,0.11909,0.0074487,-0.015576,0.090454,0.59969,0.29907
-0.11993,0.10274,0.15858,-0.044474,-0.015662,-0.24442,-0.85368,-0.93436
0.34099,0.099777,0.065581,0.045667,0.023844,0.12409,0.58806,0.18942
0.19443,0.25951,-0.027602,0.066411,-0.014244,-0.023603,-0.39611,-0.12701
-0.25515,-0.62819,-0.059243,-0.076647,0.0028315,0.053695,-0.74055,0.26648
-0.054035,0.10836,0.31328,0.022045,0.028077,-0.012171,0.59368,0.13117
0.38513,0.42887,-0.34108,0.096232,0.076952,0.45771,0.37626,0.5106
-0.81839,-0.30176,-0.14868,-0.15922,-0.13197,-0.67763,-0.66714,-0.9579
0.36913,-0.2663,0.17067,0.013339,0.018342,0.058581,0.65111,0.28411
-0.026406,0.68783,0.23369,0.0437,0.0043557,0.089099,-0.18516,0.21553
0.12195,-0.42753,-0.2406,-0.059953,-0.041152,-0.03781,0.18861,-0.030203
0.26051,-0.022017,0.03016,0.054459,0.077133,0.242,0.83753,0.19427
-0.1031,0.2534,-0.15534,0.012465,-0.0079759,-0.17147,-1.1757,-0.44945
-0.12648,-0.12588,0.30679,0.056683,0.015991,0.14477,0.38962,0.32434
-0.13211,-0.22192,-0.245,-0.093887,-0.054167,-0.25411,-0.96068,-0.33956
-0.020999,0.27212,0.19935,0.092067,0.062701,0.24096,0.38873,0.38366
0.25139,-0.33553,-0.33511,-0.065226,-0.016299,-0.034994,0.60859,-0.25077
-0.11349,-0.0013038,0.24597,-0.011226,-0.025552,-0.075571,-0.45782,-0.11943
0.00090648,0.43579,0.012357,-0.011689,-0.035274,-0.069808,0.11916,-0.050963
0.024822,-0.20748,0.0014223,-0.0041701,0.017245,0.31687,0.72238,0.61133
-0.20409,0.017448,0.14816,0.01918,0.0073042,-0.35395,-0.58568,-0.31096
0.24645,0.15146,0.059125,0.050657,0.044605,0.105,0.054238,-0.14404
-0.011141,-0.13321,-0.19005,0.027896,0.012244,-0.016801,-0.14702,0.18481
-0.16146,-0.08745,-0.21026,-0.15838,-0.081795,-0.15585,-0.46286,-0.079462
-0.069563,0.076034,0.0061329,0.062141,0.02813,0.30639,0.58338,-0.027708
-0.070542,-0.019981,0.022934,0.0096429,-0.0018885,-0.019382,0.25724,-0.071244
0.33479,-0.026196,-0.071405,0.035394,0.023143,-0.23364,-1.0358,-0.067248
0.24549,0.00067098,0.54662,0.092091,0.06373,0.2814,0.98391,-0.037959
-0.2173,-0.11292,-0.22137,-0.14108,-0.11498,-0.20086,-0.63968,-0.069528
0.082515,0.13956,-0.091537,0.022902,0.025667,-0.048144,0.44127,0.69556
-0.4375,0.14771,-0.14055,0.021223,0.040066,0.27762,0.83996,-0.33207
0.18822,-0.32369,-0.17305,-0.036819,-0.017154,-0.13098,-0.55613,0.18681
-0.1121,0.29493,0.42673,0.036504,0.0026324,-0.040693,-0.26369,-0.28393
0.11527,-0.23921,-0.093969,-0.031724,-0.025143,-0.085152,-0.4839,-0.35795
0.060314,0.12821,0.15178,0.017053,0.0095106,0.071188,0.21823,0.56344
-0.046602,0.4051,0.050557,-0.027265,-0.048963,-0.079396,-0.9384,-0.55968
-0.044807,-0.2281,-0.37011,0.070483,0.057889,0.041719,0.81308,0.29736
0.015202,-0.58236,-0.15194,-0.079745,0.01021,0.20873,0.84007,0.067372
0.0038523,0.11804,0.25084,0.022316,-0.0043375,-0.19471,-0.88385,0.059438
0.20418,0.15708,0.30767,0.017175,-0.0093623,-0.035009,0.78224,-0.13553
0.022583,0.22493,-0.43215,0.060603,0.04153,0.18846,0.37281,0.20604
-0.22981,0.026741,0.18356,-0.027841,-0.032041,-0.10982,-0.62066,-0.28687
-0.0085594,-0.045976,-0.0048571,-0.030281,-0.0042682,-0.015528,-0.16183,0.10724
0.081799,-0.2125,-0.4618,-0.010032,0.0070028,-0.012915,-0.48747,-0.063546
0.077485,0.42369,0.44901,0.063571,0.0091636,0.015201,0.40254,0.3801
-0.1409,-0.39043,0.12797,-0.13003,-0.060387,-0.032871,-0.30811,-0.26674
-0.1371,-0.00224,0.036114,-0.0047671,-0.013926,-0.032429,0.33432,-0.21012
0.14344,-0.071653,-0.1252,0.049148,0.016202,0.14881,0.33424,0.17128
0.21715,0.46065,0.1565,0.086996,0.069643,-0.13839,-0.80923,0.13132
-0.34414,-0.37629,-0.28669,-0.023436,-0.017129,0.11271,0.77874,-0.20107
0.21134,0.064979,0.13535,-0.031682,-0.017191,-0.083497,-0.87183,-0.14179
-0.18508,-0.011986,-0.24417,-0.015619,0.014873,0.092026,0.76654,0.369
0.12398,0.12113,0.034388,0.016952,0.016409,-0.018014,-0.28988,-0.08439
0.11557,0.029685,0.34622,0.042406,0.0026923,0.015485,0.5109,0.21641
0.039446,-0.47815,-0.2916,-0.048949,-0.042335,-0.065198,0.28101,-0.25107
-0.10518,0.28876,-0.0019395,-0.015276,-0.0018825,-0.11856,-0.74317,-0.31256
-0.030267,0.0053954,-0.032682,-0.013139,-0.0090218,0.17733,0.71515,0.15272
-0.017975,0.15829,-0.12454,0.0041132,-0.001321,-0.12848,-1.0329,0.086732
-0.068847,0.1311,0.59783,0.067609,0.029153,0.052296,-0.46117,0.3926
-0.018863,-0.053214,0.039779,-0.025801,-0.011093,-0.059452,0.51528,-0.58948
-0.031708,-0.35711,-0.41775,-0.049515,-0.0045563,0.11589,0.093444,0.2608
0.22913,0.25639,0.058861,0.05905,0.03342,0.06322,0.15054,-0.26607
-0.13432,-0.066401,-0.040179,-0.035948,-0.021979,-0.038321,0.49941,0.39968
0.088962,0.016604,-0.020592,0.04059,0.0089772,-0.11219,-0.11363,0.075759
-0.1171,-0.2924,-0.1555,-0.078434,-0.037872,0.05804,-0.50999,-0.14835
0.19186,0.36581,0.064561,0.083626,0.032574,0.04001,0.32729,-0.12957
-0.063563,-0.25043,0.040718,-0.027838,0.009105,-0.035997,-0.26104,-0.13133
-0.056474,0.30507,0.21355,0.009133,0.0086431,0.078087,0.76644,0.33356
0.048196,-0.12304,-0.062561,-0.04756,-0.0315,-0.1109,-0.59576,-0.14469
-0.21066,-0.026246,-0.06688,0.036548,0.013618,0.014389,0.26649,0.26046
0.15981,0.11134,0.013892,-0.019708,-0.019963,-0.052566,-0.33289,-0.38779
-0.12795,-0.30419,0.023047,-0.0053311,-0.030425,-0.25492,-0.9025,-0.39131
0.14684,0.31252,0.1622,0.071888,0.060717,0.61306,1.0313,0.84031
0.041129,-0.094068,-0.35207,-0.045885,-0.011759,-0.36792,-0.45954,-0.5704
-0.091505,-0.079654,0.12634,-0.02277,-0.0053074,0.069795,0.43381,0.25678
-0.062177,-0.043666,0.032884,0.039595,0.025638,0.028944,-0.19835,0.021402
0.059284,0.0443,0.045911,-0.054175,-0.036008,0.017492,0.50563,0.069727
0.084849,0.089928,0.1259,0.024002,-0.002806,-0.066939,-0.29162,-0.043097
0.028689,0.24149,-0.32827,0.016301,0.023477,0.070989,0.26335,-0.11549
0.099634,-0.23508,-0.049815,0.016504,0.02691,0.1325,-0.23811,0.24007
-0.20468,-0.01857,0.18932,-0.014395,-0.047545,-0.25925,-0.40344,-0.207
-0.081748,-0.30295,0.062416,-0.021628,0.0028974,-0.0041826,0.025087,0.10954
-0.017569,-0.047492,-0.22657,-0.012931,-0.0095444,-0.025011,0.51559,-0.18094
-0.059871,0.42912,0.35359,0.027365,0.024311,0.25618,0.17765,0.13025
0.32256,-0.012528,0.044188,-0.017941,0.0027973,-0.32437,-1.0022,-0.52797
-0.10397,0.057798,-0.23452,-0.0083272,-0.027237,0.14795,0.66848,0.54031
0.067991,-0.063287,0.13278,0.056008,0.020164,0.048675,-0.052729,0.14934
-0.14439,-0.0016874,-0.15237,-0.020523,-0.01121,0.03428,-0.10073,0.051598
0.018356,-0.024264,-0.15329,0.019596,0.0036742,-0.051636,-0.041205,-0.32824
0.057812,-0.13221,0.20841,-0.0035664,0.033591,0.15762,0.24105,0.090761
-0.24345,-0.02169,-0.073724,-0.043251,-0.0073689,-0.15107,-0.49,-0.079449
0.13888,-0.22435,0.018159,-0.036884,-0.033211,-0.040687,0.41964,-0.23521
0.17382,0.29884,-0.044528,0.07049,0.042125,0.13721,0.66962,0.48429
-0.099973,0.12617,0.19392,-0.08008,-0.062401,-0.31208,-1.1905,-0.13126
0.050894,-0.031349,-0.061386,0.058769,0.012884,0.16742,0.30118,-0.12901
0.05472,0.037138,-0.19999,0.026549,0.010524,0.038423,0.29235,0.2087
0.058476,0.26891,0.16089,0.0032606,0.0011924,-0.056519,-0.18777,-0.13552
-0.43906,-0.60182,0.13739,-0.0031642,0.024245,0.14993,0.40461,0.086267
0.27231,0.16719,0.071437,0.022818,0.01735,-0.036441,-0.49678,-0.10458
-0.10445,-0.29081,-0.32046,-0.098735,-0.042935,-0.14664,0.064868,-0.037965
-0.053394,0.35303,0.014202,-0.001003,-0.023986,-0.0016923,-0.27413,-0.074519
0.23073,0.060436,-0.051397,0.065585,0.050406,0.21709,0.24751,0.2538
0.037533,-0.058673,-0.0341,-0.0087814,-0.0077382,0.10119,0.32079,-0.20949
-0.14052,0.0035811,0.34677,0.002058,-0.019272,-0.35191,-0.5427,0.035665
0.0012077,0.23105,-0.041594,0.035274,0.0309,0.089779,0.89583,0.21594
0.14988,-0.14289,-0.11282,-0.018726,-0.021722,-0.036471,-0.33454,-0.19993
-0.077754,-0.44767,-0.2412,-0.081883,-0.0055418,0.1434,0.086302,-0.181
0.08361,0.69828,0.4804,0.10371,0.040309,-0.0033264,-0.34709,0.52215
-0.51447,-0.84663,-0.39251,-0.094481,-0.063702,-0.10842,-0.69203,-0.38815
0.35497,0.56553,0.19547,0.042668,0.010911,-0.076281,0.63723,0.063799
0.13017,0.075384,-0.23971,-1.9741e-05,-0.00097086,0.064095,-0.14715,0.16636
-0.039538,-0.11347,-0.14348,0.020071,0.026211,0.072817,0.14338,-0.11987
-0.1377,0.031122,0.67096,-0.0060976,-0.00077653,-0.0091494,-0.038852,-0.26343
0.094005,0.19788,-0.29758,0.062301,0.020014,0.061576,0.52864,0.19736
-0.1569,-0.65867,0.058794,-0.12625,-0.044037,-0.11314,-0.49821,0.1622
0.28095,0.31447,0.16059,0.084395,0.041426,0.15365,0.68094,-0.17979
-0.21066,-0.17841,-0.49302,-0.063807,-0.036309,-0.16276,-0.72253,0.016917
0.10134,0.39457,-0.034773,-0.00087158,0.011466,0.1079,0.36052,-0.050607
0.19218,0.15058,0.17717,0.061872,0.020262,-0.051649,-0.00055976,0.43959
-0.36885,-0.020543,0.15284,-0.0087997,-0.01815,-0.056771,-0.84404,-0.15166
0.1444,-0.44819,-0.057904,-0.0023239,-0.018169,0.029297,0.22431,-0.51061
0.0057886,0.1318,0.1107,-0.0048998,0.012197,0.081507,0.61751,0.30126
-0.1272,0.085336,-0.1039,0.053716,0.033861,-0.10267,-0.1001,-0.043539
0.14575,-0.22903,-0.066519,-0.099725,-0.038953,-0.045603,-0.43244,-0.33402
-0.087237,0.15719,0.060109,0.035254,0.0050105,0.019599,0.33642,0.47597
0.027456,0.087971,-0.30222,-0.040619,-0.0056892,0.094104,-0.20249,0.15822
-0.063397,0.016963,0.27455,0.025095,0.015368,0.053715,0.71322,0.10869
0.11732,0.015102,0.06843,0.01452,0.0061376,-0.030964,-0.26432,-0.3787
0.084742,-0.26083,0.03578,-0.0091594,-0.025216,-0.019551,-0.28846,0.0447
0.1421,0.048918,-0.10225,-0.0065448,0.0074284,0.040424,0.096204,-0.27178
-0.31423,0.31954,0.21918,0.045687,0.0024874,-0.14097,-0.49123,0.092591
0.026047,-0.034724,-0.01232,0.037585,0.030037,0.060425,0.14606,0.3021
0.06733,0.0098766,-0.20576,-0.063052,-0.027534,-0.027935,0.055767,0.11601
-0.16805,-0.24912,-0.087944,0.0082497,0.024542,-0.015802,0.065693,-0.4477
0.26505,0.21283,-0.10165,0.039413,-0.0096321,0.088915,0.64264,-0.034742
-0.31238,-0.75905,-0.038706,-0.095473,-0.021208,-0.041799,-0.57653,0.16983
0.15562,0.50868,0.19357,0.032751,0.0050483,0.092268,0.60598,0.13636
-0.063903,0.2672,0.047747,-0.01349,-0.017006,-0.12586,-0.60507,-0.080131
0.092723,0.0013124,0.053706,-0.022912,-0.0014396,-0.086664,-0.43449,-0.058863
0.11043,0.14,-0.19031,0.044197,0.020662,0.23333,0.95661,0.44005
0.059362,-0.17785,0.26276,0.055811,0.041771,0.0059411,-0.34861,-0.45356
0.063675,-0.22043,0.1305,-0.042002,-0.054958,-0.20639,-0.78001,0.27307
-0.40909,-0.045281,-0.14559,-0.0064631,0.0042542,0.065087,0.59456,-0.24922
0.061719,0.1027,-0.23515,0.01434,0.032216,0.1252,0.44395,0.02604
0.029856,0.080727,0.082069,-0.010741,-0.025511,-0.072572,0.25891,-0.048221
0.0027022,0.0046211,0.042357,-0.0036871,0.0031399,-0.074535,-0.97692,-0.35962
0.18348,-0.16522,0.0084085,0.011825,0.032367,0.018444,0.00098698,0.26775
-0.005404,0.20427,-0.02223,-0.050432,-0.062734,-0.089813,-0.098854,0.20518
-0.10998,0.0046397,-0.17471,0.035837,0.030395,0.12464,0.48444,0.19822
0.0035545,-0.0048366,0.20921,0.036065,0.0070844,0.16194,0.43069,0.092434
-0.070057,-0.18168,0.047256,-0.065468,-0.054574,-0.25168,-0.48189,-0.37776
0.13884,0.33558,-0.23413,0.059369,0.07188,0.15637,0.61594,0.090667
-0.040902,-0.53681,0.25256,-0.050277,-0.012165,-0.099538,-0.97866,-0.16144
-0.14786,0.21102,-0.23872,-0.0036544,-0.0022596,0.026046,0.57797,0.026456
0.2557,0.28394,0.12281,0.019681,-0.00023699,0.031755,-0.46325,-0.13829
-0.025525,-0.3012,0.13502,0.043272,0.0092773,0.14314,0.58052,0.35687
-0.18704,0.41711,0.11749,-0.026577,-0.0051432,-0.17149,-0.22993,0.21282
0.028675,-0.33464,-0.1429,-0.0023545,-0.043556,-0.22438,-0.78394,-0.43097
0.11345,0.028815,-0.16483,0.014359,0.026925,0.20414,0.9457,0.12863
-0.019051,-0.21241,-0.02984,-0.054589,-0.035699,0.052984,-0.3717,-0.30262
-0.087989,0.33082,0.0089407,0.048592,0.057875,-0.059084,0.034906,0.13655
0.0077035,-0.23389,0.13654,-0.074565,-0.028065,0.025606,-0.072346,0.09689
-0.02164,0.075898,-0.17209,0.013381,0.0034862,0.0033196,0.40263,0.14313
0.065434,0.18006,0.14485,0.07793,0.035336,0.022802,-0.087102,0.019211
0.10402,-0.11085,0.10312,0.009498,-0.026419,0.044634,0.011015,-0.1489
-0.031708,0.11564,0.18787,0.0031184,0.013268,-0.010189,0.045174,0.045221
-0.061173,-0.11022,-0.59956,-0.019633,0.0056521,0.060321,0.25421,0.046383
0.1169,-0.054178,0.22691,-0.074625,-0.041723,-0.24492,-0.75455,-0.068208
-0.21596,-0.043479,0.19264,0.017713,0.0038035,0.042104,-0.30903,-0.24491
-0.012023,-0.0059516,-0.26294,0.015249,0.009433,0.093018,0.57011,0.38254
-0.058958,-0.10308,0.19003,0.027585,0.014417,-0.029375,-0.057413,0.14933
0.1527,0.058654,-0.18149,-0.023043,-0.012163,-0.0040293,0.39284,-0.64818
0.11673,0.52101,0.42803,0.043478,-0.0073891,-0.00966,-0.40883,-0.080773
-0.064149,-0.52644,-0.29364,-0.045868,0.0057195,0.17348,0.33929,0.56973
-0.030067,0.19868,-0.018579,0.029581,0.011884,-0.14911,-0.85272,0.044725
-0.039108,0.048033,-0.16927,-0.019002,0.0034991,-0.00034019,0.44385,0.00728
0.024943,-0.19809,0.15966,-0.043089,-0.0037735,-0.0050777,0.60747,0.058031
-0.065939,-0.025846,0.17809,0.058825,-0.010072,-0.038559,-0.0017799,-0.24096
0.32722,-0.07832,-0.19328,0.013111,0.023383,0.14082,0.22455,-0.029761
-0.32055,0.26664,0.14588,-0.016455,-0.020965,-0.15528,-0.98797,-0.2284
-0.057186,-0.13458,-0.32915,0.0010418,-0.0028831,0.087742,0.21282,0.25224
0.093396,0.19185,0.20069,-0.012836,0.0069681,-0.029616,-0.41185,-0.24776
-0.01702,0.048492,0.062403,-0.011449,0.00052447,0.1401,0.72296,0.22132
0.065494,-0.089102,0.11448,0.020704,-0.014528,-0.232,-0.93517,-0.0085874
-0.064128,-0.14234,-0.11233,-0.041372,-0.0069335,0.080225,0.83726,0.20558
0.11885,-0.085642,-0.071043,0.044614,0.039051,0.061108,0.37457,-0.15131
-0.09536,0.092494,0.036041,-0.01805,-0.024809,-0.015515,-0.23068,0.24736
-0.049712,-0.11099,0.13244,-0.0026331,-0.0029554,-0.055117,0.41064,-0.28922
0.052975,-0.19108,-0.31076,0.02068,0.026743,-0.0019486,-0.73494,-0.046766
0.040626,0.34091,0.060766,0.012889,-0.013601,-0.018859,-0.5299,0.11052
-0.017081,0.32367,-0.078384,0.020866,0.0012117,0.12973,0.30272,0.053137
0.035211,-0.28914,0.13333,-0.080433,-0.022419,-0.02386,0.16331,-0.2381
0.25126,0.04758,0.21268,0.02144,0.0093447,-0.072615,0.15333,0.093845
-0.42438,0.033168,0.1595,0.013951,0.0027666,0.015141,0.43417,-0.25685
