-0.25133,-0.10196,0.064324,0.050612,0.018485,-7.5791e-05,-0.0069665,-0.046792
0.45821,0.17888,-0.0017323,-0.040203,0.034691,-0.0087274,0.061852,0.058902
-0.3212,-0.025274,-0.0294,0.0016485,-0.003859,0.021616,-0.041995,-0.017102
0.34185,0.051983,-0.033319,-0.12876,-0.05831,-0.041805,0.06451,0.052992
-0.11301,0.15348,0.34687,0.044821,-0.0038393,0.027616,-0.063695,-0.051088
-0.42565,-0.36094,-0.4272,0.037574,0.026635,0.011172,-0.043533,-0.047691
0.34363,0.11835,0.16034,0.10681,-0.029393,-0.036397,0.062739,0.03264
-0.22527,-0.033558,-0.047148,0.080136,0.046919,0.041229,-0.0024912,-0.0045173
0.22022,0.066082,0.21503,0.004103,-0.0020688,-0.029302,0.042177,0.0058296
0.35206,0.25304,-0.062292,-0.19158,-0.01207,-0.00571,0.024983,0.080117
-0.70574,-0.42607,-0.083751,-0.068883,0.017165,0.033963,-0.12429,-0.062337
0.38873,0.051942,-0.14758,-0.095448,-0.039119,-0.035236,0.031978,0.00059063
0.32835,0.30403,0.10471,0.16774,0.0067895,-0.002387,-0.0061,-0.012439
-0.50663,-0.021489,-0.10838,-0.027655,-0.024642,0.0074101,0.0037717,-0.023692
-0.016884,-0.26054,0.33871,0.14011,0.038529,0.0017766,0.061632,0.059965
0.07726,0.30571,0.16606,0.085989,0.0322,0.050762,-0.012294,0.019037
-0.20147,-0.75231,-0.64782,-0.17422,0.0031006,-0.0099872,-0.062015,-0.069112
0.39706,0.51843,0.11038,0.13235,-0.033377,-0.024472,0.06828,0.0057761
0.08465,0.062784,-0.049141,-0.36266,-0.07751,-0.016274,-0.059495,0.0088178
-0.27019,0.043892,0.18815,0.15956,0.057924,-0.016626,0.022741,-0.0055873
0.18569,0.43699,0.14386,0.13491,0.083629,0.021531,0.04872,0.064074
-0.56956,-0.70467,0.27919,0.29636,0.030696,-0.010866,-0.067997,-0.10233
0.86394,0.27412,-0.28936,-0.52898,-0.24938,-0.050963,0.12548,0.081494
-0.86434,-0.20491,-0.032026,0.041195,0.14967,0.09684,-0.12856,-0.032383
0.35554,0.18749,-0.23198,0.26474,-0.02991,-0.012644,0.014165,0.0019224
0.32826,-0.15559,-0.12564,-0.31101,0.063536,-0.0045065,-0.031442,0.020926
-0.10294,-0.043093,0.050622,0.15054,0.031626,0.011576,-0.037735,-0.068601
0.1549,0.2087,0.27144,-0.12348,-0.078754,-0.035148,0.082324,0.069686
-0.54743,-0.068433,0.011472,0.2891,-0.03325,0.011115,0.032759,-0.017088
0.047412,-0.25491,0.43293,0.060018,0.074373,0.0094057,0.0093858,-0.00073459
-0.029361,0.14961,-0.30956,-0.27214,0.0097712,0.029946,-0.058118,0.0092482
0.41016,0.22882,-0.32647,0.42487,-0.047243,-0.052038,0.048478,-0.0030544
-0.17243,-0.13923,-0.039816,-0.4196,0.012939,-0.040687,-0.015501,-0.053683
0.082847,0.45267,0.18429,-0.09446,-0.028109,-0.0055312,0.061314,0.075625
-0.15963,-0.58141,-0.0034047,-0.036454,-0.013772,0.069925,-0.15187,-0.05313
0.060924,0.39168,0.048824,0.11502,0.071894,-0.0010595,0.070629,0.067413
0.16564,0.0070205,-0.14745,0.13474,-0.02094,-0.022709,0.017408,-0.00059899
-0.40925,-0.49568,0.20821,-0.21065,-0.13608,0.012814,-0.069371,-0.11676
0.16269,-0.06822,-0.16274,0.33699,0.17144,-0.0043288,0.052873,0.039168
0.043614,0.10701,0.022254,-0.1838,0.080712,0.057778,0.0098283,0.021932
0.20827,-0.094739,0.028351,0.27264,-0.17463,-0.044233,-0.01019,0.0035631
0.21778,0.43778,-0.021685,-0.14673,0.092147,0.016529,-0.0064194,0.070215
-0.39715,-0.035781,0.14188,-0.075825,-0.041382,0.0046418,-0.017358,-0.043485
-0.026537,0.22706,0.33483,0.055453,-0.03635,-0.080533,0.074459,-0.0013117
-0.098239,-0.47928,-0.47856,-0.3612,0.091897,0.042161,-0.027866,-0.029492
-0.34376,-0.06685,-0.043996,0.028071,-0.12465,-0.056493,0.026964,-0.02607
0.40429,0.40048,0.066472,0.10128,-0.013005,0.046317,-0.011442,0.048454
0.39899,-0.23007,-0.29513,0.16606,0.06867,0.0080404,-0.080978,-0.016423
-0.48264,0.25386,0.39733,-0.26785,-0.01135,0.0095861,-0.010054,-0.048473
0.15833,0.1183,-0.054824,0.37781,0.036671,0.036328,0.037133,0.085301
0.21132,-0.65184,-0.068045,0.13228,0.040938,-0.043949,0.013718,-0.060471
-0.068357,0.0232,-0.066565,-0.070877,-0.061618,0.026679,-0.0020888,0.045124
0.1209,0.23281,0.063529,0.067857,0.08725,-0.0099572,0.028856,0.042123
-0.31741,0.060659,0.2548,-0.37863,-0.10767,0.017299,-0.065304,-0.078031
0.13862,0.45965,-0.14043,0.015195,0.055257,-0.079962,0.19193,0.10577
-0.67482,-0.89679,-0.11575,0.14568,-0.026755,0.11141,-0.22299,-0.12584
0.61161,0.29897,0.052111,-0.52581,-0.018455,-0.073375,0.080495,-0.015392
-0.34222,0.60544,0.25697,0.49573,0.0020061,0.013688,0.055555,0.062139
0.56178,-0.18405,-0.63139,0.097671,0.0040062,0.005344,-0.071012,0.021206
0.093365,-0.573,0.382,-0.35532,-0.12852,-0.074704,-0.056587,-0.090644
-0.18974,-0.0028634,0.035136,0.26667,0.10581,0.039674,-0.002167,0.055528
-0.098695,0.091832,-0.073157,0.06886,0.075495,0.028759,0.085016,0.023
-0.4311,0.39242,0.35304,0.14675,0.070606,0.025899,0.049145,0.023284
0.12262,-0.077705,-0.22434,-0.15612,-0.064565,-0.0076106,-0.0784,-0.060563
0.034083,-0.19539,-0.24782,-0.20102,-0.095597,0.022105,-0.016643,-0.0099492
0.77317,0.23903,-0.29136,0.048192,0.086524,0.013405,-0.00067277,0.073021
-0.4725,-0.16181,0.2827,0.24453,-0.057872,-0.065163,-0.0081341,-0.08594
0.27375,0.28471,0.18205,-0.27105,0.01741,-0.026313,0.18624,0.12154
-0.55715,-0.37884,0.082009,0.21053,-0.016373,0.036075,-0.10635,-0.055525
0.48376,0.11024,0.015427,-0.29578,-0.065962,-0.049878,0.027149,-0.00069327
-0.45595,-0.28031,0.020914,0.030699,0.079219,0.059696,-0.12469,-0.026837
-0.20942,0.34119,0.088371,0.042624,-0.0029814,0.0056012,-0.046098,-0.055725
0.32334,-0.11609,-0.19193,-0.11033,0.030937,-0.00107,0.021579,0.014781
0.29171,0.078583,-0.37848,0.38521,0.055723,-0.014947,0.064055,0.04499
-0.38035,-0.1874,0.30666,0.029373,-0.046049,-0.0048685,0.036053,-0.026495
-0.14426,0.043231,0.166,-0.037859,-0.063602,-0.0023283,0.040678,0.059202
0.07016,0.18754,-0.06685,0.24485,0.010875,0.070436,-0.092737,-0.017397
0.5803,-0.089065,-0.2038,-0.63933,-0.017714,-0.068239,0.081833,-0.0058059
0.37216,0.25997,-0.03238,-0.034895,0.030772,0.018769,-0.021386,0.047215
-0.43843,0.053219,-0.15224,0.011334,-0.022704,-0.0047297,-0.012079,-0.014783
-0.36289,-0.21181,0.39139,0.14864,0.096057,-0.068497,0.05444,-0.028128
-0.42174,-0.3111,0.091545,0.23002,-0.080934,0.085408,-0.21321,-0.087027
0.0047852,0.011165,0.31528,-0.039839,-0.021786,-0.066146,0.15299,0.0034194
0.43503,0.08203,-0.28999,0.15294,0.078618,0.047578,0.019668,0.078828
0.15335,0.11222,-0.45227,-0.32353,-0.1077,0.059866,-0.066701,0.013967
0.22574,-0.23386,-0.040088,0.093678,0.075333,-0.060076,0.065537,0.019593
-0.28925,0.41923,0.2896,-0.10319,-0.0055527,-0.030618,-0.0056217,-0.013839
0.21442,0.11855,-0.017701,0.093534,0.063003,0.062581,-0.1006,-0.01621
-0.35931,-0.15961,0.28127,0.097752,-0.087013,-0.069394,0.069473,-0.065866
0.28559,-0.119,-0.25702,-0.14529,-0.011104,0.003149,0.051192,0.016629
-0.052922,0.044392,-0.28671,0.21605,0.11037,0.030049,-0.062113,0.043508
-0.48115,-0.40422,0.28803,-0.52121,-0.13706,-0.012456,0.07282,0.0066911
0.11509,0.41814,0.070426,0.49456,0.035557,0.023595,0.0024004,0.062192
0.069696,0.027862,0.16301,-0.19778,0.0034208,0.036069,-0.039319,-0.04015
0.63851,-0.011281,-0.22311,-0.091095,-0.02991,0.0087538,-0.099277,-0.050367
-0.70495,-0.36971,-0.010462,0.25868,0.061119,-0.08228,0.0181,-0.069883
0.37811,0.11792,-0.27845,0.021664,0.058311,0.0048606,0.10245,0.089114
-0.45561,0.20232,0.2603,-0.07766,-0.092563,-0.018911,-0.056325,-0.049486
0.72151,0.37561,0.057056,-0.11158,0.0072302,0.034162,0.042712,0.10859
-0.35239,-0.37088,0.34451,0.35596,0.045324,0.055197,-0.02919,-0.037689
0.12221,-0.093335,-0.29263,-0.48799,-0.072041,-0.087989,0.041255,-0.019138
-0.0005091,0.16743,-0.22992,0.076043,0.08473,0.034931,-0.042276,0.039585
-0.35741,-0.44954,-0.13894,0.0030898,-0.07824,0.010417,-0.068575,-0.11131
0.20569,0.2891,0.17673,0.21778,0.087374,-0.036226,0.10296,0.028268
-0.11555,0.27364,0.14065,-0.22995,-0.090376,0.066902,0.0032965,0.059845
-0.10755,-0.30792,0.12187,0.053144,-0.0099663,-0.032022,-0.016464,-0.0089136
-0.063035,0.10811,0.028335,-0.040693,0.0082549,0.0024545,0.027488,-0.0063799
0.41333,0.14844,-0.26382,0.16052,0.065775,0.021286,-0.045097,0.035877
-0.21345,-0.41933,-0.0589,0.124,0.014006,0.00043475,-0.094074,-0.069988
0.17624,0.15674,0.0098286,0.17495,0.024578,-0.044933,0.08333,0.027268
0.090509,0.23758,0.26921,-0.40909,-0.10594,-0.01348,0.072827,0.030516
-0.19126,-0.30873,-0.22018,-0.13969,-0.026327,-0.022352,-0.071033,-0.076025
0.56179,0.34598,0.1643,0.097411,0.060018,0.053738,-0.028037,0.05133
-0.88122,-0.25232,0.10783,0.36323,0.059158,-0.0035164,0.029827,-0.040544
-0.086877,-0.097528,-0.22743,-0.41221,-0.036761,0.017314,0.055541,0.031193
0.51216,0.40193,0.1028,0.16382,-0.0010512,0.038539,-0.021373,0.055619
-0.077621,-0.11559,-0.088871,-0.12389,-0.020922,-0.064539,-0.021365,-0.021968
0.15999,-0.13627,-0.17611,-0.1851,-0.10376,0.0050838,-0.030419,-0.053173
-0.31961,0.11237,0.054344,0.5392,0.18062,-0.018268,0.060955,0.024466
0.026235,-0.26009,0.10529,-0.36935,-0.11261,0.013639,-0.028179,8.2367e-06
0.0063829,0.099246,0.13566,0.26328,0.055995,0.0067274,-0.039502,-0.024916
0.023329,-0.19804,-0.17293,-0.031162,-0.016488,-0.0081453,0.027628,0.043591
0.19746,0.28802,0.13337,0.0040107,0.04494,0.070183,-0.029248,-0.020816
-0.055392,0.0361,-0.0085581,-0.16479,-0.064606,-0.047684,-0.0064543,0.0086852
-0.00861,-0.12459,-0.045834,0.10004,0.037357,-0.025996,0.065053,-0.03171
-0.070119,0.13378,0.27684,-0.14987,0.0066982,0.025884,-0.0022807,0.022271
0.12417,0.11411,-0.1681,0.17664,-0.055355,-0.024613,-0.0057613,-0.0089453
-0.22665,-0.1084,-0.19512,-0.2425,0.022856,-0.0051617,0.030435,0.038699
-0.087832,-0.0059658,-0.094143,0.16218,0.038149,-0.0011159,-0.019597,-0.030243
0.271,-0.089721,-0.0054014,-0.046797,-0.071871,-0.004061,-0.023922,0.0027401
-0.028206,-0.17459,0.033493,0.060881,0.052398,0.017745,0.0168,0.035786
0.41911,0.08992,0.13389,0.24401,-0.0028272,0.048947,-0.10867,-0.017342
-0.63703,0.15747,0.18044,-0.44167,-0.057601,-0.03548,0.076316,-0.055327
0.016129,-0.032448,-0.31014,0.12983,0.091364,-0.0092912,-0.0058903,-0.0080056
0.061627,0.062319,0.19338,0.17808,-0.016851,0.041019,-0.010844,0.069888
-0.20708,-0.29675,0.080536,-0.03065,-0.030815,-0.057104,0.062229,-0.05598
0.31622,0.15962,0.1933,-0.01924,0.025778,0.023795,0.0030807,0.044174
0.49493,0.26261,-0.21237,-0.13094,-0.050521,-0.013691,0.015334,0.042345
-0.80115,-0.25135,0.088903,0.01754,0.044658,-0.013605,-0.049194,-0.053529
0.25684,-0.037691,-0.83253,-0.10464,0.037636,0.024047,-0.034232,-0.040193
-0.13714,0.059334,0.32946,0.0027176,-0.10295,0.013602,-0.018072,0.035627
0.37318,0.14752,0.40559,0.23007,0.036995,-0.0053746,0.04587,0.025668
-0.021193,-0.025447,-0.085398,0.076791,0.059215,-0.04006,0.040052,-0.022988
0.15957,-0.1028,0.078091,-0.1223,-0.11413,0.019572,-0.012449,0.007072
-0.30712,-0.024447,0.046329,0.084562,0.071954,-0.029057,0.028671,-0.032373
-0.064113,-0.018777,-0.15689,-0.061796,0.063089,0.064393,-0.094631,0.038534
-0.3459,-0.071213,0.021893,-0.28109,-0.093636,0.0031107,0.00033106,-0.053574
0.091687,0.16174,0.11133,0.40292,0.055012,-0.033435,0.04791,0.034982
0.20524,-0.18678,-0.2827,-0.2437,0.00121,0.048056,-0.037789,0.022714
-0.001235,-0.0067701,0.1017,-0.16519,-0.075467,-0.042061,0.040165,-0.0048422
0.31949,0.35081,0.26898,0.085196,0.012284,-0.023122,0.0083548,0.0143
-0.33056,-0.15275,-0.11135,0.040071,0.045462,0.026281,0.015179,-0.021963
0.58005,0.060751,-0.2903,0.28634,-0.046524,-0.026926,0.0058669,0.034346
-0.45801,-0.024424,0.23277,0.26183,0.20481,0.059424,-0.050913,-0.059238
-0.0099176,-0.29109,-0.16501,-0.36963,-0.22417,-0.066028,-0.02236,-0.029297
0.007319,0.31579,0.23069,-0.077423,0.041439,-0.012304,0.076009,0.038483
-0.096146,-0.077888,-0.15418,-0.33101,-0.013925,0.017876,-0.052424,0.011764
-0.25114,-0.22064,-0.042086,0.095637,-0.0072402,0.06392,-0.040085,0.016146
0.47233,0.23313,0.13296,0.24904,0.054008,-0.030222,0.058795,-0.018083
-0.26794,-0.042796,-0.064294,0.11332,-0.0016854,0.001095,0.010281,-0.027951
-0.094611,-0.2188,0.023058,0.031853,-0.0021107,0.032722,-0.036861,0.025855
0.37754,0.20574,0.042364,-0.16788,-0.017359,-0.068408,0.073757,0.018308
-0.14645,0.066205,-0.12621,-0.11968,-0.00049866,0.033373,-0.072022,0.011616
0.0063268,-0.068907,0.26357,0.097125,-0.037593,-0.0058854,-0.029213,-0.010336
0.015569,0.14129,0.12156,0.20005,0.074186,-0.022196,0.076673,-0.016874
0.068039,0.15433,-0.3374,-0.21812,-0.056214,-0.015492,0.0028372,0.0071065
0.22519,-0.18144,-0.17094,0.42816,0.11761,0.022213,-0.009136,-0.0012293
-0.13879,-0.0011252,0.1429,-0.65761,-0.10792,0.020826,-0.006596,0.012744
-0.50065,-0.46965,-0.098936,0.080481,-0.022161,0.0039772,-0.028852,-0.06792
-0.016139,0.17937,-0.0044142,0.19905,0.02322,0.003026,0.0022566,0.038523
-0.082764,-0.12227,0.24127,0.091043,0.00492,-0.013274,-0.037955,-0.026665
0.20637,0.15948,0.172,-0.12414,0.02486,0.0096751,0.015091,0.010576
0.53057,0.57415,-0.1082,-0.11674,-0.033632,0.0014309,0.044805,0.080387
-0.22153,-0.27483,-0.20671,0.067053,0.017523,-0.030307,0.012656,-0.05144
0.055769,-0.19147,-0.036197,0.18465,-0.03207,0.039427,-0.026324,0.0055507
0.36544,0.19101,0.19323,0.1175,0.060188,-0.047104,0.052952,0.055581
-0.69591,0.066818,-0.15871,-0.011259,-0.0023606,0.030603,-0.062197,-0.066064
0.24295,-0.40897,0.18925,-0.094011,-0.040035,-0.039691,0.010652,-0.016315
-0.13973,0.18485,-0.22417,-0.13952,0.025077,0.015722,-0.002437,0.0089591
-0.15482,-0.10465,-0.040158,-0.13184,-0.026146,0.032978,-0.00039585,0.0094546
-0.055473,-0.081078,0.099792,-0.17861,0.024582,-0.0034918,0.00077117,-0.022633
0.087186,0.28064,0.30393,0.29329,-0.0029022,0.015563,0.039941,0.045821
0.17184,-0.30689,-0.24941,-0.080162,-0.015272,-0.011723,-0.062525,-0.050269
0.28419,0.29025,-0.10073,0.25056,0.010591,-0.046722,0.053018,0.049119
-0.53104,0.0017986,0.16266,0.028903,0.012,0.042883,-0.081742,-0.06165
0.39291,0.10001,-0.015038,-0.17549,-0.065789,-0.0011908,0.018076,0.031935
0.078823,-0.018949,-0.079807,-0.076281,0.058529,-0.0074376,0.04824,0.04099
-0.2505,-0.26416,0.10878,0.3924,0.010083,-0.015129,-0.014393,-0.04243
0.42237,0.11162,-0.38652,-0.29832,-0.031271,-0.0086636,0.041168,0.046878
-0.35488,0.11429,0.16919,0.096171,0.028394,0.02774,-0.027462,-0.027647
-0.34673,-0.21759,0.16712,-0.20979,0.0017551,0.0084498,0.029313,0.014554
0.51981,0.15622,0.26399,-0.0077976,-0.0094399,-0.034885,-0.023389,-0.014625
-0.31284,-0.042744,-0.071207,0.31141,0.026269,0.015364,-0.029802,-0.021822
-0.39205,-0.31834,-0.45555,-0.3123,-0.086182,0.018993,-0.060591,-0.054006
0.61968,0.30248,0.20483,0.11774,0.020683,-0.0080084,0.071591,0.084349
-0.25135,0.073451,-0.05064,-0.087922,0.089351,0.020576,0.0074294,-0.051609
0.33404,-0.21412,0.067843,-0.17305,-0.11428,-0.043513,0.0049773,0.054343
0.19114,0.017945,0.11619,0.20378,0.081848,0.01074,-0.0057247,-0.0034449
-0.48289,0.19692,-0.11491,0.3198,0.013727,-0.035444,0.030407,0.002083
-0.30462,0.2557,0.040514,-0.26101,-0.076572,0.067803,-0.081565,-0.053775
0.61615,0.047658,-0.19683,0.13227,0.045035,-0.046938,0.088357,0.071241
-0.15922,-0.30845,0.12012,0.012173,-0.043769,0.057509,-0.084616,-0.037076
0.00072316,-0.14591,0.3207,0.17119,0.078344,-0.048921,0.063674,-0.011845
0.047994,-0.084866,-0.38371,-0.55164,-0.018892,0.024007,-0.013669,0.037153
0.075949,0.038587,-0.11872,0.027068,0.0077489,0.01814,-0.035533,-0.031125
-0.57893,-0.05421,0.27025,0.21707,-0.013992,-0.074564,0.068164,-0.013915
0.19418,-0.17894,-0.14926,-0.22492,-0.10773,0.042693,-0.08569,0.0025958
0.23326,0.40428,0.24419,0.34222,0.062546,0.01063,0.072891,0.049551
-0.084518,0.044301,0.16542,0.1155,0.067424,-0.0064331,-0.011097,-0.029253
0.015962,0.080692,-0.2018,-0.17623,0.016736,-0.00031074,-0.017594,0.00074223
0.28553,-0.047465,-0.2587,-0.49159,-0.096787,-0.01745,-0.032694,-0.032046
-0.14322,0.20628,0.04805,0.42893,0.047719,-0.01057,0.076389,0.044618
-0.1151,-0.15213,0.17982,-0.070192,-0.033637,0.036266,-0.033986,0.0045454
0.16522,-0.25006,-0.32999,0.17463,0.042317,0.013839,-0.074524,-0.050369
-0.33497,-0.19892,0.20182,0.25566,-0.0211,-0.03101,0.11134,0.020736
0.20369,0.14095,0.076262,-0.11047,0.049563,0.0030689,-0.06978,0.014831
-0.1642,-0.12085,-0.054147,-0.31642,-0.058345,0.021962,0.015235,-0.0056543
0.26524,0.2825,0.31383,0.14433,0.053327,-0.029461,0.061935,0.021542
-0.33474,0.16508,-0.34132,-0.60328,-0.10017,0.020229,-0.070213,0.0022903
0.13122,-0.19843,-0.097344,0.45768,0.058879,0.0066023,-0.021895,-0.04044
0.047209,-0.18262,0.31027,0.0014381,-0.009006,-0.015885,0.034796,0.0022332
0.054447,0.28205,-0.17545,-0.01607,-0.022951,-0.031666,0.021393,0.0048593
0.26972,0.2484,0.14567,0.40773,0.15737,0.037497,0.031239,0.013966
-0.29269,-0.33306,-0.17483,-0.18638,-0.1323,-0.026903,-0.029816,0.021537
0.26357,0.089592,0.21188,-0.1103,-0.0091544,0.0020115,-0.021454,-0.034957
-0.49355,-0.30622,-0.53213,-0.18493,0.0035364,0.046427,-0.029755,0.0086896
0.082115,0.040722,0.37345,0.21326,0.0077125,-0.010597,0.023461,0.012163
-0.17531,0.099198,0.069283,0.043172,0.0039096,-0.0048524,-0.017812,-0.039723
0.40484,0.15954,0.025105,-0.064474,-0.0072584,-0.022238,0.034295,0.025421
-0.0061329,-0.088485,-0.10119,-0.25215,-0.009585,0.0075105,0.0083148,0.0049916
0.16996,0.037614,-0.12007,0.1116,0.012988,0.01398,-0.032902,0.0088187
0.27757,0.025089,0.25193,0.12764,0.045027,-0.018562,0.035859,-0.0096462
-0.81481,-0.092336,-0.24089,0.24899,-0.0073196,0.0035477,-0.019743,-0.011191
-0.050614,0.022972,0.36426,-0.26605,-0.066313,-0.029104,0.05015,0.004139
0.009857,-0.20647,-0.2515,-0.018084,0.039311,0.039748,-0.075061,-0.0029498
0.22807,0.015694,-0.24358,-0.2089,-0.034923,0.038298,-0.012916,0.029667
0.23054,0.45344,0.13815,0.35051,0.17121,-0.041152,0.05655,-0.0078375
0.064648,-0.09883,0.15086,-0.088314,-0.15534,-0.010949,0.015896,0.016902
-0.0045578,0.05921,0.043046,-0.18037,-0.069583,-0.011549,-0.025599,-0.044903
0.23246,-0.21555,-0.211,0.23139,0.053487,0.019707,-0.020954,0.025309
-0.63216,-0.09651,0.49533,-0.20446,0.050104,-0.010821,-0.0089115,-0.069324
0.17383,-0.013429,-0.45018,0.30052,0.0067219,-0.017179,0.057911,0.054212
-0.13093,0.082055,0.1453,-0.23155,-0.044783,0.0083282,-0.030799,0.0056353
0.079666,-0.15103,-0.21979,0.010008,0.052444,0.057624,-0.071278,-0.0037169
-0.21566,-0.013925,0.17295,-0.070659,-0.13081,-0.0024902,0.046375,0.034344
0.54043,0.35599,-0.05049,0.19636,0.15572,-0.024026,0.056828,-0.0048991
-0.2825,-0.17188,-0.036395,0.20025,0.029257,0.00041439,-0.05558,-0.035363
-0.034614,-0.14384,0.046325,-0.42677,-0.12754,-0.04664,0.029065,-0.041426
0.26053,0.32936,-0.15067,0.15961,0.036588,0.022241,0.036601,0.070524
-0.35978,-0.099115,0.32085,-0.070116,0.0057042,0.011922,-0.041725,-0.035703
0.59349,0.41029,0.20517,0.043075,0.021722,-0.022504,0.082151,0.069253
-0.32118,-0.63122,-0.58268,-0.23185,-0.063946,0.036717,-0.17077,-0.068086
-0.21721,0.10072,0.13663,0.1631,0.061192,-0.028545,0.058294,-0.010557
0.26924,-0.23991,-0.052585,0.035207,-0.071504,0.0088418,0.011302,0.04626
-0.50445,0.010402,0.089185,0.1123,0.03815,0.032099,-0.0068969,-0.03062
0.27386,0.3372,0.33984,0.18309,0.046597,-0.044527,0.058876,0.016558
-0.074345,-0.11657,-0.12444,-0.16062,-0.038207,0.0054541,-0.040664,-0.023096
0.28926,0.11287,-0.087946,-0.12514,0.096305,0.06454,-0.031267,-0.0088261
0.016169,0.051638,-0.2167,-0.018887,-0.12019,-0.063085,0.048801,0.020484
-0.070052,0.045543,0.18421,0.068622,0.030998,0.0047821,0.051781,0.018157
0.24456,-0.19325,-0.33694,-0.11536,-0.083049,0.009706,-0.07651,0.039069
-0.63902,0.038816,0.40254,0.26365,0.068799,-0.025426,-0.038896,-0.049417
0.16389,-0.055257,0.03186,-0.30218,0.02546,0.016165,0.039718,-0.036198
0.091868,-0.038402,-0.45219,-0.085006,0.013314,0.0092497,0.049851,0.039829
0.004407,0.034224,0.35307,0.30802,0.039958,0.031921,-0.047836,-0.047741
0.36157,0.045103,0.021026,-0.026767,-0.066714,-0.056299,-0.003768,0.037165
-0.30725,0.11916,-0.040756,-0.17297,-0.0491,0.0027022,0.009648,0.013381
-0.11407,-0.15744,0.088903,0.13665,0.014522,0.014016,-0.023804,-0.0018971
0.18798,-0.073184,-0.030145,0.019829,0.038148,0.0015298,0.04372,-0.0087502
0.064529,0.46657,-0.20677,-0.039637,-0.0016383,0.0047497,0.039806,0.047355
-0.28403,-0.22451,0.093067,0.15205,0.051514,0.016249,-0.067208,-0.052529
0.14824,-0.32482,0.16115,-0.15715,-0.06785,-0.026175,-0.019748,-0.019533
-0.045707,-0.23946,0.086964,-0.094308,-0.00013325,0.018301,0.0024732,0.0055684
0.064296,0.2979,-0.24165,0.26873,0.036177,0.0091578,0.015275,0.014878
0.13618,0.16994,-0.17704,-0.25616,-0.0055123,-0.037958,0.034667,0.016192
-0.18673,0.48479,0.2196,-0.0043994,-0.062427,-0.0059042,0.022111,0.0095481
-0.0025754,-0.35362,-0.10322,-0.083778,0.006279,-0.0041567,-0.053051,-0.03624
-0.057702,-0.2703,-0.1098,0.054931,0.013229,0.053066,-0.049611,-0.0039214
0.12002,0.16103,0.36104,0.43782,0.15373,-0.006316,0.064176,0.028417
-0.22465,-0.21108,-0.092444,-0.36237,-0.15832,-0.010668,-0.00041693,0.013898
0.28453,0.2128,-0.31067,-0.078272,0.014321,0.016317,-0.040149,-0.039711
-0.11843,-0.2714,0.40336,0.079897,0.030694,-0.058411,0.062042,0.0081298
0.18947,-0.022722,-0.028612,0.057018,-0.015773,0.022762,-0.022318,0.016688
-0.092041,0.30402,-0.084855,0.093758,0.0074849,0.025322,-0.0046747,-0.0063319
0.11094,0.50796,0.16151,0.039329,0.014409,-0.019573,0.051921,0.032738
-0.35435,-0.65024,-0.26151,-0.29656,-0.065292,-0.018227,-0.048312,-0.092702
0.21161,0.043547,-0.13819,0.067734,0.0029081,0.029312,0.0068586,0.086124
0.072151,0.084836,0.24007,0.18465,0.063003,-0.0098225,-0.01693,-0.0010115
-0.1639,-0.26539,-0.3313,-0.13469,0.021529,0.020553,-0.080324,-0.04148
-0.081227,0.081455,0.20182,-0.054607,-0.03529,-0.0046251,0.043736,-0.027327
0.010425,-0.060495,0.12849,0.16794,0.0021774,0.016185,0.019869,0.002498
0.021016,0.12925,0.0037311,-0.28548,-0.022109,-0.03414,0.043843,0.048045
0.30605,0.30539,0.2186,0.46278,0.040451,0.00083642,0.068992,0.054587
-0.24818,0.074049,0.031388,-0.16241,-0.044414,0.0042475,-0.1001,-0.040487
0.0014264,-0.077123,-0.32291,-0.40814,-0.057928,-0.054725,0.03615,-0.010759
0.22797,-0.22349,-0.28093,0.12635,0.070138,0.050964,-0.046288,-0.0204
-0.13107,-0.29162,-0.12276,0.2783,0.066133,0.0092578,0.0034796,-0.022541
0.23588,0.097743,0.41069,-0.15546,-0.054674,0.0079827,0.036442,0.029821
-0.43046,-0.018223,0.10184,0.12826,-0.0036866,0.031654,-0.057141,-0.034932
-0.01443,0.4151,0.16238,0.1736,-0.015791,-0.044794,0.035146,0.02572
