0.097739,-0.076047,0.023768,0.023207,-0.015318,0.0083904,-0.007029,-0.14293
-0.19606,0.029098,0.012823,-0.0092457,0.00022288,0.00082489,0.0176,0.095162
0.081281,0.026317,0.031318,0.005731,0.00033186,-0.014033,0.013155,-0.11103
0.27171,0.024381,0.0099532,-0.017707,0.024104,0.0026609,-0.0044513,0.17622
0.3184,0.085102,0.075007,0.029802,0.0089939,-0.019685,-0.011884,-0.0039523
-0.48393,-0.1515,-0.16282,-0.00028896,0.0095705,-0.0032145,-0.040817,-0.089027
-0.0042033,-0.021722,-0.1165,-0.053468,-0.029015,0.012803,0.0018783,-0.0087122
0.038049,0.091591,0.097374,0.010682,-0.013167,-0.0029884,0.021755,-0.075512
-0.3255,-0.10813,0.11148,0.012264,0.010141,0.019721,0.0025326,-0.031614
0.32866,0.028065,0.049796,0.068279,0.0018399,-0.028356,0.045237,0.19323
-0.090618,-0.061819,-0.042632,-0.063603,-0.0067258,-0.0064425,-0.11613,-0.11211
-0.10382,0.028719,-0.027558,-0.0084761,0.00024268,0.030947,0.088573,0.10662
0.15898,0.088548,0.15505,0.022689,0.0073303,-0.0019572,-0.028179,-0.04966
0.28568,0.17165,-0.16865,-0.063844,-0.0087104,-0.011271,0.033749,0.066695
0.011614,0.097224,0.039431,0.091346,0.02255,0.026538,-0.014472,-0.084194
-0.0070709,-0.35471,-0.10304,-0.082,-0.02388,-0.029101,-0.02411,-0.065512
-0.57595,-0.021081,-0.039408,0.080228,0.01595,-0.014098,-0.0026575,-0.010498
-0.071366,-0.13673,-0.0086011,-0.015682,0.01683,0.016865,0.011131,-0.013014
-0.065132,0.0095498,-0.030075,-0.064993,-0.0215,-0.022161,0.0019038,0.075575
0.94911,0.48909,0.19701,0.15115,0.017901,0.040666,0.055814,0.16198
-0.2643,0.045644,0.22266,-0.031143,-0.013579,0.009975,-0.045738,-0.081294
0.34048,-0.38139,-0.52958,-0.18188,-0.037861,-0.044011,-0.021416,-0.036263
-0.90129,-0.047937,0.080708,0.011781,0.031079,0.027033,0.0037921,-0.069247
-0.35705,-0.21805,0.41859,0.042386,-0.017494,-0.034834,-0.024865,-0.14029
0.34826,0.24196,-0.20712,0.058584,0.011994,0.012447,0.033076,0.13424
0.12109,0.097643,0.27718,0.075976,0.0026077,0.035956,-0.01797,-0.0732
0.89907,0.27754,-0.24247,-0.046389,0.0092111,-0.011254,0.04036,0.3314
-0.31783,-0.087672,-0.13691,0.019032,0.03187,0.011436,0.0044773,-0.16773
0.36111,0.0071654,-0.20507,-0.025347,-0.031022,-0.044342,0.045787,0.046107
-0.84479,-0.39367,0.091953,-0.078617,-0.0077099,-0.0065507,-0.047023,-0.074644
-0.9419,-0.088914,0.16986,0.038493,0.015736,0.03911,-0.071003,-0.17126
0.47058,0.24896,-0.030959,0.0056195,-0.0076412,-0.016449,0.036444,0.13862
0.62206,0.19898,0.0084888,-0.036271,-0.015329,0.014561,-0.044612,0.0032871
0.085432,-0.11932,0.09595,0.038483,0.00060266,-0.0082604,0.022373,-0.045908
0.67472,0.078745,0.092927,0.027583,-0.022163,-0.014486,0.066237,0.07724
-1.0944,-0.52319,-0.14033,-0.068174,0.0024947,-0.0041629,-0.045155,-0.064513
0.76876,0.21139,-0.065127,0.025222,0.019982,-0.00095151,0.071525,0.083622
-0.37876,0.24621,0.10629,0.065781,0.030227,0.041629,-0.03657,0.021509
-0.53186,0.28554,0.036213,-0.0092343,0.0017151,-0.0019392,-0.0022373,-0.040285
0.27592,-0.28866,-0.1052,-0.07547,-0.0034903,0.00060065,-0.013197,0.0070839
-0.10546,-0.18248,-0.084792,-0.032286,-0.017152,-0.013741,-0.085482,-0.094754
0.22153,-0.064733,0.011073,0.16619,0.038398,0.0015989,0.038181,0.099048
0.24861,0.18355,-0.051601,0.16757,0.05352,-0.023741,0.052468,-0.10711
0.29561,0.30588,0.11104,-0.38019,-0.19832,-0.034823,0.050443,0.11482
-0.65386,-0.34446,0.10979,-0.016066,0.025423,0.031368,-0.046714,-0.071059
-0.42139,-0.053478,0.039817,-0.012917,0.014403,0.019278,-0.075573,-0.09431
0.62413,0.012146,-0.050792,0.075557,0.058382,0.0077757,0.096201,0.11545
-0.10518,0.55563,-0.14565,0.17236,0.072028,0.0053268,0.0074405,0.10509
0.45921,-0.42,-0.072616,-0.034005,-0.022429,-0.018874,-0.021435,0.038546
-0.33215,-0.61206,0.1837,0.082108,0.0093976,0.013459,-0.091503,-0.084249
0.48985,0.5576,-0.018014,-0.20567,-0.10625,-0.038444,0.1184,-0.11478
-0.49429,-0.14437,-0.022583,0.03212,0.059756,0.043746,-0.093744,0.0098172
-0.90497,-0.045418,-0.034448,-0.048854,-0.032291,-0.014025,-0.00012809,0.0090401
0.71746,0.29092,0.085603,0.011576,0.054531,0.037538,0.01757,-0.022333
-0.13505,0.032748,0.0081331,0.19694,-0.00045375,-0.013168,0.014873,0.088722
0.099415,0.14183,-0.096001,-0.18106,-0.064494,-0.088527,0.10151,0.015086
0.059031,-0.28259,0.03046,0.048754,0.073618,0.10026,-0.12115,-0.055138
0.69924,0.59846,-0.034344,0.049977,-0.077743,-0.056165,0.09614,0.010854
0.0187,-0.57278,0.046117,-0.12294,-0.0022115,-0.018471,-0.044656,-0.053273
-0.76085,-0.75601,-0.047376,0.030013,0.027533,0.041917,-0.06834,0.040193
-0.19373,0.15205,0.10065,0.095057,0.012086,-0.038546,0.031566,0.055096
0.26594,0.62293,-0.14891,-0.075774,-0.0092122,0.029665,0.066487,0.17707
-0.32815,0.10596,0.1506,-0.028732,0.033813,0.059367,-0.057962,-0.16569
0.75075,0.73154,-0.077957,0.20565,0.054674,0.0038081,0.0018667,0.088562
-0.19033,-0.75903,-0.0607,-0.26251,-0.06468,-0.066765,-0.058267,-0.30982
-0.18537,0.017945,0.10843,0.0050308,0.0028768,-0.043181,0.15318,0.023425
0.078442,-0.50505,-0.001037,0.29803,-0.048262,0.011789,-0.1282,-0.010937
0.010641,-0.23748,0.070572,-0.16417,0.03126,0.051003,0.03644,0.13663
-0.50017,0.60771,-0.147,-0.045221,-0.0087924,0.027381,-0.031395,0.015293
0.63941,0.11462,0.12602,-0.20434,-0.011954,-0.004496,0.0050897,0.056038
-0.75797,-0.52425,-0.1975,0.077048,-0.0010538,-0.044622,-0.049084,-0.045994
0.81496,0.67054,0.037993,0.18112,-0.0064691,-0.046001,0.19645,0.15279
-0.37076,0.12106,0.14491,0.13807,0.089945,0.061886,-0.040352,-0.0068307
0.093925,-0.24551,0.0065709,0.10273,-0.070323,-0.025404,-0.041935,-0.12219
0.72466,0.35536,-0.055716,-0.34831,0.013349,0.0048459,-0.012732,0.076757
-0.84041,-0.83178,-0.11095,-0.060157,-0.010312,0.051211,-0.063262,-0.17799
0.3633,0.25038,-0.01713,-0.025858,0.014879,0.0043359,0.032301,0.0033934
-0.83312,-0.39421,0.055109,0.2153,0.026036,-0.042127,-0.10905,-0.096802
0.76102,0.70119,0.23943,-0.070592,-0.047764,-0.018051,0.16145,0.13346
-0.51422,-0.59625,-0.11224,-0.046605,0.027131,-0.0017851,-0.12419,-0.16925
0.62778,0.86345,-0.054784,0.14014,-0.023417,0.01427,0.19121,0.4054
-0.17363,-0.47959,-0.10443,-0.13397,0.01877,0.0065148,-0.13365,-0.19367
-0.17659,0.018336,0.042619,0.13224,-0.010733,0.05299,-0.035583,0.082901
-0.3965,-0.2492,0.065036,-0.19318,-0.049551,-0.096301,0.1029,-0.13104
0.96391,0.47027,0.032197,0.17919,0.089919,0.043111,0.055178,0.17182
-0.57946,-0.46225,-0.11914,-0.10228,-0.052982,0.0026461,-0.1713,-0.18995
0.17651,0.43833,0.14179,0.094708,0.014322,0.0012826,0.14947,0.21079
-0.5653,-0.57048,-0.11486,-0.10566,0.011,0.015836,-0.20962,-0.2772
0.59324,0.33047,0.095437,-0.04027,-0.031305,-0.055009,0.17286,0.046702
0.76931,0.62377,-0.16444,0.10247,0.043977,0.046758,0.054547,0.21972
-1.0052,-0.57546,0.090421,0.1578,0.041768,0.00094881,-0.14258,-0.18097
-0.15041,-0.38632,0.06372,-0.14017,-0.1081,-0.036169,0.066252,0.024294
-0.32004,0.033523,-0.0018732,-0.15063,0.0085163,0.036865,-0.10747,-0.11694
0.56753,0.48816,-0.035744,0.017798,0.016617,-0.030167,0.063423,0.16203
-0.26531,-0.27207,-0.10032,0.12406,0.048968,0.059291,-0.061235,-0.11429
0.87214,0.87129,0.10114,-0.041414,0.011708,-0.046704,0.17497,0.10949
-0.29924,-0.98586,0.029241,0.069509,-0.079715,-0.0047972,-0.056303,0.020974
0.0024867,0.42489,0.097657,-0.073554,0.016652,-0.026285,0.088126,0.080548
-0.90313,-1.073,-0.2096,-0.15791,0.019271,0.06825,-0.13473,-0.072189
0.75527,0.83575,0.060381,0.19863,0.021584,-0.018215,-0.061598,-0.00091331
-0.49421,0.13757,-0.053351,0.064888,-0.023591,-0.027866,0.11943,-0.058097
0.25853,-0.081198,0.097855,0.12625,0.055367,0.02383,-0.013712,0.02161
0.25111,0.53736,-0.040307,-0.34628,-0.077638,-0.011267,-0.070097,-0.1206
0.19746,-0.64292,-0.029892,0.16063,0.022681,-0.031184,-0.033384,0.001042
-0.53204,-0.24394,0.020125,-0.065602,-0.034166,0.011423,0.034913,-0.009942
0.48066,0.68211,0.031887,0.13851,0.064604,0.077958,0.010805,0.17668
-0.43084,-0.4556,0.099241,-0.062273,-0.055618,-0.08899,0.051326,-0.077945
-0.14188,0.41745,-0.09817,-0.07224,0.082173,0.057744,0.070887,0.078771
0.68543,-0.34881,-0.029203,-0.021262,-0.07629,-0.020754,-0.1182,0.014078
-0.99941,-0.64443,-0.006433,-0.22627,-0.030682,-0.03543,0.038064,-0.069792
0.54394,0.46286,0.024865,0.04242,0.039486,0.013563,0.046444,0.067739
0.68187,0.66466,-0.067958,0.33385,0.087339,0.06345,-0.086417,-0.012764
-1.1176,-0.40928,0.090346,0.32058,-0.027932,-0.081443,0.029052,-0.10219
0.19872,0.22224,-0.039065,-0.44371,-0.0879,0.070672,0.01713,0.024681
0.40095,-0.52287,-0.02643,0.022899,0.0007766,-0.0509,-0.059957,-0.12498
0.061693,0.17046,0.018688,0.037417,0.034556,0.030087,0.02454,0.081703
0.24318,0.38148,-0.013574,0.22928,0.07558,0.0087437,-0.11945,0.098472
-0.91664,-0.67146,0.12603,-0.34945,-0.095153,-0.075942,0.13381,-0.097245
0.58545,0.56455,0.12414,-0.020359,0.030061,0.033894,0.1288,0.13598
-0.31107,-0.35863,-0.21536,-0.072201,-0.033113,0.0024559,-0.11828,-0.091988
0.6532,0.37584,-0.072607,-0.065754,0.028003,0.056495,0.017864,0.093943
-0.38694,-0.024639,-0.11169,0.19689,0.033995,-0.022557,-0.048648,-0.095576
-0.4831,-0.22714,0.17568,0.1872,-0.046065,-0.031428,-0.0054351,0.0030533
0.76777,0.055497,0.048116,0.079199,0.0068852,0.029974,0.061395,0.18631
-0.22952,0.15882,-0.13406,-0.2667,-0.010035,-0.033619,0.0033002,-0.17869
-0.83419,-0.56437,0.11429,0.047693,0.0048732,0.0043644,-0.10937,-0.083733
0.63489,0.51353,0.043598,-0.025835,0.043807,0.0032923,0.090788,0.026779
0.37525,-0.17433,0.036673,0.12788,-0.041788,0.017844,-0.044331,-0.049062
-0.45434,-0.29631,0.0072059,0.014561,0.060387,0.024583,-0.029969,-0.052219
1.0003,0.47847,-0.10005,-0.12518,-0.071783,-0.038964,0.10293,0.22128
-0.82856,-0.16114,-0.19971,-0.026308,0.045866,0.022567,-0.098662,0.037196
-0.070779,0.63606,0.23917,0.01494,-0.047739,-0.048565,0.076046,0.066723
-0.50435,-0.85849,-0.11161,-0.15595,-0.040135,0.0055326,0.001621,-0.10564
0.49156,0.56312,0.060663,0.096265,0.076539,-0.0025916,0.060246,-0.067654
0.34254,-0.43059,0.0062838,0.024086,-0.010119,0.052051,-0.076903,0.10075
-0.44826,-0.0064558,-0.055727,-0.081574,-0.003131,-0.0025101,-0.043248,-0.14858
0.10539,0.083953,0.1716,0.15492,0.019453,-0.0023852,-0.034481,-0.081721
0.13626,-0.010905,-0.030655,0.24052,0.042049,0.036587,0.043076,0.059587
0.1342,0.21836,-0.20191,0.0089001,-0.083757,-0.10454,0.072474,0.096896
-0.46005,-0.15514,0.12606,0.089754,0.040511,0.066321,-0.10207,-0.054064
0.44869,-0.2374,-0.00035303,-0.65301,-0.061635,-0.05239,0.074717,-0.00098147
0.040588,0.24826,0.020042,0.004486,0.00053554,0.008222,-0.02942,0.085576
0.0037744,-0.055204,-0.0081829,0.11543,0.024005,0.037456,0.023448,0.073474
-0.42544,0.071823,-0.045778,0.125,0.016638,-0.026917,-0.008637,-0.076366
0.19472,0.089306,-0.068827,0.16712,0.03308,0.026278,0.046211,-0.020782
-0.19106,-0.22426,0.040566,0.15002,0.026296,0.025329,-0.046554,0.0049565
0.27125,0.18947,0.17385,-0.38478,-0.011764,0.0015526,-0.07629,-0.085988
-0.16333,0.2476,-0.10568,0.049595,-0.096983,-0.052872,0.066035,0.002619
0.1291,-0.14815,-0.047342,0.064748,0.043883,0.010438,0.028527,0.083033
-0.37556,-0.45427,0.021214,0.06088,-0.0032993,-0.0038892,-0.03284,-0.055533
0.1181,0.17146,-0.0326,0.054782,-0.019705,-0.017782,0.02237,-0.068924
0.41142,-0.043779,0.088086,-0.19521,0.026109,0.023399,-0.032501,0.082362
0.32665,0.058828,0.015867,0.084217,0.017209,-0.0054213,0.029119,0.0079511
-0.39471,-0.0089541,-0.077749,-0.084235,-0.0071062,0.020631,0.019833,0.082733
-0.20863,0.1324,-0.013548,0.071574,0.00020019,0.015421,-0.036738,0.017134
-0.19735,-0.020654,0.059507,-0.043894,-0.015512,-0.021316,-0.030984,-0.095912
0.39257,0.19929,-0.14822,0.19221,0.03163,-0.0039334,0.068595,0.10206
-0.0049917,0.03648,0.14392,-0.097435,0.016479,0.028243,-0.14404,-0.13189
-0.0016296,-0.35209,-0.017894,-0.11818,-0.076762,-0.081212,0.15158,-0.1106
-0.32439,-0.029291,-0.025007,0.0031689,0.017386,0.058288,0.041415,0.12704
0.020077,-0.05095,0.059323,0.32807,0.064474,0.017177,-0.091744,-0.035444
0.026301,0.31575,0.10161,-0.10442,-0.076097,-0.055831,0.072342,0.090546
0.11121,-0.24341,-0.20331,-0.26972,0.033284,0.050595,-0.091368,0.014123
0.53527,0.30118,0.027243,-0.0014839,0.0021655,-0.022466,0.04218,0.041246
-0.74655,-0.2316,0.027938,-0.13259,-0.044269,-0.0011325,-0.089351,-0.15517
0.53995,0.0086484,-0.059888,0.21531,0.058191,-0.002227,0.045522,-0.0041553
-0.20712,-0.017951,0.0695,0.19366,0.036175,0.0057246,0.009517,0.025701
-0.0044894,-0.0071813,-0.059248,-0.1721,-0.071288,-0.00067112,0.052725,0.043383
-0.1896,0.19704,0.062851,0.040562,0.016925,0.009688,0.026584,0.087015
0.064218,-0.13181,0.014875,0.06515,-0.0040819,0.0052338,-0.053657,-0.094816
-0.27545,-0.11853,0.039622,0.11827,-0.0017437,0.0011544,-0.016721,-0.058526
0.62659,-0.036356,-0.034529,-0.18583,0.031493,0.020405,0.066365,0.19406
-0.019081,0.28678,0.018931,-0.10807,-0.053048,-0.070274,-0.070727,-0.22155
-0.30636,0.069744,-0.058048,0.0051162,0.017875,0.010019,0.0089517,0.068397
-0.29002,-0.41398,-0.07828,-0.019913,0.0019411,0.026705,-0.038645,0.078894
0.42036,0.16378,0.082927,0.16776,0.039721,-0.012459,0.044312,-0.08055
-0.44133,0.10002,-0.012226,-0.07982,-0.01718,0.03323,0.031587,0.044131
0.7178,0.0903,-0.03595,-0.0035013,0.034521,-0.0079259,-0.044987,0.0014968
-0.2674,-0.1306,0.058183,0.086106,-0.07052,-0.018498,0.026284,-0.065572
-0.054279,-0.24964,0.035188,-0.10585,-0.019412,0.0017836,0.027481,0.00954
0.16113,0.077448,0.03492,-0.069783,0.0086141,-0.009305,-0.024973,0.057455
-0.12102,0.31199,-0.060658,0.12527,0.0061951,0.010999,-0.060103,-0.060387
-0.29786,-0.16319,0.0054886,0.10491,0.059617,0.023872,-0.030594,-0.084903
-0.17935,-0.12196,-0.040618,-0.068449,-0.010641,-0.017359,0.087135,0.10131
0.51143,0.45039,0.019618,-0.02041,0.029743,0.012469,0.01946,0.13012
-0.31544,-0.56455,-0.079123,-0.056556,-0.10075,-0.058402,0.070572,0.046405
0.32786,0.37883,0.1014,-0.0059162,0.034936,0.04352,-0.064939,-0.16041
0.092133,-0.05638,-0.015877,0.091766,0.061305,-0.0099063,-0.067576,-0.016809
0.025039,-0.11272,-0.054768,-0.13884,-0.037748,-4.3815e-05,0.022841,0.036945
-0.60098,0.085282,0.10303,-0.0024004,-0.028211,0.018208,-0.07551,0.030072
0.313,-0.20324,-0.033844,0.02477,0.0037921,-0.0023326,0.090175,-0.069617
0.26299,0.078382,-0.11338,0.075774,0.0035865,0.00046924,0.019838,-0.12124
-0.20113,-0.31759,0.059691,0.010121,0.018235,0.026241,-0.036361,0.095242
-0.31879,0.46248,0.23492,0.054234,-0.03008,-0.065956,0.062515,-0.050958
0.45213,0.30288,-0.15878,-0.081377,0.0074259,0.01275,-0.0034457,0.16897
-0.095355,-0.20207,-0.075424,0.032371,0.052942,0.035773,-0.085373,-0.039799
-0.16688,-0.099503,-0.054939,0.0042637,-0.010497,0.026699,-0.03441,0.08202
0.26805,-0.29664,0.0035797,-0.048871,-0.049973,-0.1001,0.087311,-0.097631
0.070022,0.2208,0.13099,-0.064506,0.020447,0.022949,0.022251,0.085368
-0.49993,-0.14236,-0.055653,0.20782,0.044424,0.036892,-0.018496,-0.11163
0.23506,0.057761,0.053104,-0.36389,-0.056295,-0.0032562,-0.042718,-0.10343
-0.031292,0.01514,-0.011277,0.14318,-0.039656,0.019875,0.011996,-0.00018585
0.13744,0.25187,-0.053188,0.03455,0.062981,-0.003096,0.075163,0.19745
-0.24467,-0.20213,0.013638,0.14657,0.03279,0.0057695,-0.10342,-0.065663
-0.078943,0.065925,0.080168,0.14318,-0.075584,-0.055406,0.061997,-0.024179
0.72331,0.27373,-0.17358,-0.14814,0.089403,0.063016,0.040027,0.14994
-0.67367,-0.57148,0.057354,-0.15811,-0.08163,-0.037727,-0.17722,-0.27767
0.12609,0.1007,0.085684,-0.083123,-0.01837,-0.014099,0.089921,0.044649
0.35231,0.16612,-0.033815,0.1462,0.06042,0.016649,0.060176,0.1717
-0.055724,0.024769,0.050394,-0.040992,-0.001546,-7.4841e-05,-0.039935,-0.076095
-0.17468,-0.047838,-0.091498,0.12084,-0.0012093,0.014075,0.055119,0.082559
0.052309,-0.010399,0.055966,-0.078894,-0.016788,-0.010918,-0.021986,-0.055435
-0.34755,0.11572,-0.030802,-0.053563,-0.017133,-0.027878,0.033306,-0.060388
0.092425,-0.33977,-0.031562,0.13525,0.036735,0.03376,-0.12283,-0.080754
-0.26852,0.28022,0.061533,0.0041802,0.019786,0.041331,-0.0059972,0.10217
0.18023,-0.047767,-0.016999,-0.17236,-0.06012,-0.067635,0.040189,-0.0039333
0.7531,0.23795,-0.032563,0.083012,0.00028204,0.0036493,0.094058,0.045977
-0.32931,-0.29376,-0.023971,-0.049485,0.076218,0.06751,-0.055112,-0.0063491
0.035956,0.15228,0.14181,0.039668,-0.082028,-0.055962,-0.047782,-0.059929
-0.040876,0.1057,-0.074145,-0.009225,-0.021038,-0.023235,0.037989,0.087741
-0.44203,-0.46594,-0.023374,0.13898,0.040681,0.01707,0.014659,-0.040415
0.044078,0.21799,-0.034119,-0.14191,0.064195,0.017959,0.053977,0.086629
0.31695,-0.19414,-0.0050696,0.23265,-0.0051983,0.010631,-0.0786,-0.16373
-0.2547,0.25883,0.039946,-0.29342,-0.081732,-0.012708,-0.0082201,0.04518
0.26077,-0.00098718,0.084806,-0.11968,-0.0094524,-0.012926,-0.01622,-0.082347
0.15447,0.15144,-0.074175,0.2767,0.031582,0.025715,0.0067614,0.064544
-0.51701,0.043946,-4.301e-05,0.044101,0.087873,-0.021652,0.045144,0.057661
0.26338,-0.011377,-0.013553,-0.19967,-0.090887,-0.0064542,-0.049449,-0.023664
-0.24583,-0.41324,-0.005581,0.16375,0.018564,0.0011047,0.019892,-0.069397
0.4631,0.11202,0.078564,-0.043722,-0.0056478,0.0010853,0.081281,0.12353
0.13938,0.065335,-0.13585,-0.1171,-0.022709,0.01692,-0.013756,0.1325
-0.37457,-0.012584,0.031372,0.10953,0.022415,0.025097,-0.054303,-0.18444
-0.0021158,0.18511,0.041801,-0.057624,0.0051565,-0.0292,-0.01687,-0.032001
-0.20559,-0.18306,0.021111,-0.023857,-0.042812,-0.0054963,-0.057542,-0.021119
0.24051,0.041055,0.0089521,-2.4166e-06,0.019436,-0.0054891,0.066138,0.026651
-0.13323,-0.22742,-0.048954,0.067768,0.035752,0.009802,-0.036135,-0.037879
-0.053846,0.23017,0.058517,0.013597,0.029431,-0.01432,0.089044,0.089787
0.447,0.17804,-0.098359,0.17092,-0.046764,0.00033543,-0.011304,0.027141
-0.2094,-0.034822,0.089566,-0.18181,0.017606,0.022639,-0.055977,-0.068895
-0.12543,-0.075799,-0.026508,0.23408,0.081406,-0.0019489,0.040706,-0.017771
0.26046,0.13761,0.021744,-0.52075,-0.18388,-0.010785,0.0048857,0.017338
-0.33387,-0.15525,-0.094228,0.21704,0.073153,0.011862,-0.070196,0.013746
0.051995,-0.28418,0.093954,-0.059824,-0.053658,-0.035515,0.041537,0.0032284
0.13686,-0.022805,0.0078847,0.080004,0.045392,0.011135,0.050657,0.025098
-0.00037037,0.17701,-0.16511,0.17018,0.089519,0.050185,-0.058619,0.055924
-0.076909,0.059793,0.19212,-0.16943,-0.08485,-0.027844,0.018498,-0.05289
0.0030985,0.18308,0.040571,-0.030139,0.030505,0.003502,0.03237,-0.11406
0.21079,0.088728,-0.12735,0.058601,0.01397,-0.012112,-0.055494,0.090962
-0.35001,-0.28346,0.048073,0.20711,-0.017179,-0.0044031,-0.08817,-0.07075
-0.19332,-0.072549,-0.088952,-0.22521,-0.047381,-0.020209,0.067783,0.03355
0.31417,0.26914,0.0089846,-0.012505,0.040377,0.010872,0.053412,0.060045
0.148,-0.25828,0.0064709,0.05492,-0.0041406,0.010826,0.040679,0.00078976
-0.038151,0.079089,0.16174,-0.024347,-0.0093096,0.018808,-0.033218,-0.019466
0.11899,0.0068908,-0.095284,0.014022,0.032453,0.0036082,0.034199,0.0067281
0.26326,-0.030858,-0.038051,0.020634,-0.027476,-0.026992,-0.015741,0.03988
-0.5628,-0.020139,0.051949,-0.0050077,0.021712,0.03629,-0.082354,-0.076675
-0.19831,0.0059513,-0.067899,-0.10201,-0.015371,-0.033235,-0.033536,-0.046376
0.30084,0.20171,0.070625,-0.043536,-0.029386,-0.0091293,0.052188,0.021241
-0.28302,-0.036264,-0.040847,0.10052,-0.028173,-0.00085925,0.034171,0.040261
0.44403,0.071822,-0.0043828,0.064874,0.058539,0.022787,-0.0091294,0.018685
0.24471,-0.060719,-0.039137,-0.0097608,0.019732,-0.0084825,0.063525,0.12091
-0.8831,-0.54309,0.073362,0.017066,0.05061,0.0069599,-0.083025,-0.16822
0.58949,0.39931,-0.010781,0.3403,0.018257,0.0067082,-0.010461,-0.012215
-0.5754,-0.11437,0.075609,-0.61073,-0.17111,-0.016952,-0.069612,0.00362
0.58557,0.23076,-0.10486,0.12474,0.021633,-0.024878,0.14631,0.036195
0.46313,0.17926,0.0026973,-0.015659,-0.0048567,0.022037,-0.003039,0.015814
-0.4995,-0.32947,-0.10926,-0.00025743,0.077848,0.037849,-0.033317,-0.010155
-0.24356,-0.083385,0.10643,0.18709,0.03571,-0.024368,0.0083135,0.052338
0.52326,0.27706,0.064045,0.0077398,-0.0216,-0.00064077,-0.034873,-0.062269
-0.67999,-0.34265,0.076221,-0.085112,-0.007951,-0.00044579,0.00062721,-0.026039
-0.09888,0.18099,-0.09137,-0.0058582,-0.048272,-0.016055,-0.0029151,-0.0034553
0.67096,0.3382,-0.079356,0.065114,-0.009794,-0.0084539,0.016553,0.10643
-0.073793,-0.27927,0.0029105,-0.084008,0.029227,0.014547,-0.011597,0.005987
-0.019404,0.1707,-0.024156,0.17099,0.060801,0.021743,0.029635,-0.079058
-0.44491,-0.42995,0.13653,-0.1234,-0.055883,-0.018036,-0.062964,-0.12613
-0.011831,0.12199,-0.045986,-0.13888,-0.00066546,-0.010942,0.077767,0.074853
0.157,-0.063108,-0.024466,0.11763,-0.00019813,0.027506,-0.071614,0.038727
0.094048,0.094472,-0.0094981,-0.071175,0.015825,0.003659,0.043577,0.069484
0.55705,0.11992,0.014843,0.0074287,-0.022837,-0.019885,0.024903,0.096307
-0.049051,0.07712,-0.021559,0.019211,-0.014495,-0.027419,0.020842,-0.076304
-0.29672,0.16209,0.021973,0.15292,0.033169,0.027995,-0.04661,-0.057429
-0.69605,-0.55502,0.035945,-0.12223,-0.036015,-0.0098694,-0.044385,-0.096181
0.21997,0.35456,0.0044313,0.0057922,0.035748,0.007392,0.02792,-0.026991
0.3412,-0.063671,-0.12773,0.090301,0.021759,0.024991,-0.032287,0.066188
-0.19914,-0.11588,0.084144,0.027719,-0.00010393,-0.0041175,0.033393,-0.025386
0.48311,0.39205,-0.016934,-0.098294,-0.045773,-0.033279,0.045818,0.1222
-0.11779,-0.36862,0.013552,-0.21171,0.0094617,-0.00023567,-0.041495,0.018269
0.00054505,-0.053996,0.073262,0.35002,0.063842,0.032288,-0.0018244,-0.05519
-0.51101,0.055508,-0.057201,-0.093452,-0.093602,-0.014002,0.039714,0.018826
0.076254,-0.10129,-0.0032372,-0.18245,0.0060341,-0.0063781,-0.02663,-0.026354
0.36553,0.25832,-0.022699,0.068571,0.02714,0.016112,-0.013926,-0.0049717
-0.38458,-0.083253,0.16606,0.08322,-0.014225,-0.040166,-0.016597,-0.059825
0.40383,0.015238,-0.31115,-0.15218,0.030828,0.028112,0.04282,0.017714
-0.028294,0.030272,0.078061,0.18442,-0.0092058,0.010256,-0.00028302,0.04579
0.15291,0.14868,-0.024405,-0.030827,-0.0091131,-0.023163,0.0021922,0.069494
0.12468,0.13513,0.17948,0.014942,0.02331,0.0062087,-0.0045256,-0.068634
-0.76377,-0.60502,0.010851,0.02442,0.0097656,0.020409,-0.067135,-0.033177
0.24361,0.037061,-0.014359,0.01216,-0.034437,-0.011728,0.025686,0.074509
-0.38546,0.12385,-0.068222,0.0080031,0.01532,0.011365,-0.0068162,-0.08845
0.41123,0.0072606,-0.034172,-0.21601,-0.005396,-0.011939,0.054587,-0.059727
