-0.0078029,-0.013695,-0.28739,-0.084154,-0.020711,-0.0056005,0.020824,-0.010088
-0.0085241,-0.039081,0.13459,0.0082813,-0.0064503,-0.0046875,0.0019097,-0.0033682
-0.0092276,0.0050234,-0.039209,0.0065777,-0.00041961,0.012125,0.022565,0.011175
0.021356,0.009602,0.058235,0.035841,0.013268,-0.010071,-0.026124,0.0024197
0.0051018,0.0064197,0.075582,0.010274,0.0036473,-0.0011623,-0.026615,-0.013886
-0.003308,0.019483,-0.049049,0.008172,0.01004,-0.00036447,0.013453,-0.0063872
-0.01168,-0.0053987,-0.088121,-0.024965,0.0013863,5.6275e-05,0.05497,0.0093595
-0.004358,-0.02886,-0.02479,0.0048182,-0.014406,9.9409e-05,-0.011717,0.0099361
-0.012533,0.0037943,0.040657,-0.050711,0.0017267,-0.00016468,-0.030825,-0.004699
0.010749,0.014105,-0.0078824,-0.035131,-0.0049868,-0.00061381,-0.010752,-0.0034008
0.010884,0.0014003,-0.013517,0.05946,-0.0034397,0.014525,0.024459,-0.0019548
0.011369,0.050683,0.031561,0.0377,0.014003,-0.0092869,0.058655,0.0072538
0.0044147,-0.010981,0.087564,0.040008,0.0080931,-0.0094278,-0.12728,-0.0072313
-0.017815,-0.051784,0.12188,-0.0042786,-0.021344,-0.001443,0.029007,0.0012825
-0.0085171,-0.0099775,-0.1094,-0.07214,0.0036711,0.0068802,0.051013,0.017045
-0.0068628,0.0047315,-0.16273,-0.015521,-0.0029111,0.01551,-0.02195,-0.0068563
-0.0051804,0.047235,-0.023834,0.0012697,-0.0021015,-0.0068869,-0.033268,-0.023483
0.027619,-0.03794,0.14251,0.025067,0.021686,-0.0057395,0.01747,0.0063937
-0.0023841,-0.093239,-0.21044,-0.0064519,-0.0096818,0.0031947,0.060346,0.0048992
0.0062179,0.15649,0.21504,0.016438,-0.0024328,-0.019274,0.033207,-0.0042359
0.014253,0.095999,0.1782,0.00042503,0.0044239,0.0048738,-0.055837,0.018337
-0.0017444,-0.16335,-0.31928,-0.0071941,-0.0046482,0.0052469,-0.050274,-0.013092
-0.041689,-0.10417,-0.0024017,-0.0061199,0.009537,0.028671,0.011073,0.010975
-0.019438,-0.068856,0.13001,-0.0040713,-0.015369,-0.03425,-0.074721,-0.026656
0.010621,0.30267,-0.069989,-0.032459,-0.016702,0.027424,0.11432,0.030123
0.025389,-0.23186,-0.040239,0.025488,0.0056848,-0.028461,-0.039028,-0.022069
0.017353,0.33447,0.054057,0.075409,0.012831,0.0012802,-0.0037907,0.019558
-0.021115,-0.015562,0.086144,-0.016198,0.020397,0.0073649,0.0086306,-0.0015958
0.01157,-0.18249,0.4681,0.015683,0.0049002,0.021162,0.2242,0.023537
0.02932,-0.15297,-0.53618,-0.016802,0.0053012,0.0037497,0.025139,-0.014619
-0.0072202,0.016086,-0.037054,-0.066747,-0.025407,-0.044727,-0.41709,-0.053626
-0.051549,-0.021096,-0.24537,-0.086819,-0.017035,0.0086808,-0.032294,0.0081682
-0.018114,-0.055418,-0.19122,-0.013715,-0.01654,1.2737e-05,0.046861,-0.0087278
0.045873,0.43483,0.5648,0.10665,0.022914,0.01525,0.15663,0.044368
-0.016084,-0.21607,0.095137,0.11109,-0.0080572,-0.00032678,0.18793,0.011421
0.0068059,0.13096,-0.11406,-0.046731,0.031155,0.015671,-0.14043,-0.0058759
0.028563,-0.040859,0.14919,-0.015148,0.0076932,0.0005763,0.08543,0.015938
0.0023654,-0.39603,-0.02114,-0.0054546,-0.023839,-0.014547,-0.025494,-0.0091268
-0.040395,0.3474,-0.18804,-0.010524,0.030206,-0.006407,-0.21575,-0.018645
-0.029178,0.0040575,-0.086727,-0.023354,-0.025565,0.024938,0.10827,0.010799
0.09882,0.046369,-0.34311,0.017844,-0.0036633,-0.03764,-0.10011,-0.06134
-0.062291,0.065278,0.43261,0.011062,-0.0055513,0.0091582,0.042509,0.030757
-0.0043099,-0.17555,0.13816,-0.10629,-0.015387,-0.0063016,0.17756,0.013927
-0.015933,-0.72495,-0.15687,-0.01365,-0.0016128,-0.021284,-0.1238,0.013456
0.0047008,0.46097,0.22638,0.16445,0.036115,0.026846,-0.032786,-0.017322
0.034333,0.2364,-0.48652,-0.063663,-0.026903,-0.010388,-0.033487,0.023215
-0.0051332,0.35097,0.52376,0.044643,0.028267,0.05426,0.19427,-0.0056869
0.0033649,0.019624,-0.20457,-0.041662,-0.0092891,0.025037,0.13432,0.0050339
0.0048953,-0.31132,-0.21103,-0.0022789,0.0087123,-0.051716,-0.37816,-0.01538
0.061658,-0.064646,0.19986,0.0063353,0.0038475,0.011015,0.06227,0.010703
-0.10006,0.40691,-0.0022968,0.030753,-0.008643,-0.044862,0.040947,-0.0030987
-0.011707,-0.23229,0.20749,0.031627,-0.005715,0.015074,-0.012735,0.036656
-0.04055,-0.31487,-0.68436,-0.19434,-0.026762,0.0037494,0.18255,-0.11233
0.024351,-0.075864,0.30876,0.071581,-0.0016914,-0.0077636,-0.25564,-0.004642
0.073661,-0.23865,0.36076,0.040451,0.022531,-0.010695,0.048263,0.1022
0.068324,0.29665,-0.12068,0.032773,0.0068662,-0.027527,0.13388,0.083629
-0.069839,0.021999,-0.09593,0.03309,0.013925,0.067464,-0.060878,-0.098948
-0.012803,0.20246,0.043941,0.0024171,0.0047991,-0.0066795,0.03443,-0.054442
-0.010669,0.18724,-0.3118,-0.082739,-0.028152,0.0075984,-0.09604,-0.048116
-0.00096772,0.23695,0.38166,-0.035058,-0.022265,0.0079129,0.078401,0.076484
0.00074999,-0.12478,-0.018722,0.059255,0.022604,-0.007009,-0.02119,0.045908
-0.067844,-0.38406,-0.17937,-0.018851,0.0050063,-0.015235,-0.012955,0.00053553
0.027833,0.14425,0.25718,0.08192,0.018783,0.020846,-0.0071828,0.010228
0.045739,-0.29945,-0.14769,-0.013601,0.0093179,-0.0014228,-0.020186,-0.066205
0.024927,0.12035,-0.25344,-0.063232,-0.038949,-0.012216,0.057133,0.075371
-0.003573,-0.32173,0.36278,0.019178,0.014685,0.019987,0.21726,-0.049813
0.006696,-0.0062727,-0.35974,0.038747,-0.0093784,-0.13034,-0.38259,-0.043441
0.10989,0.33456,0.026591,-0.18361,-0.040728,0.077504,0.24363,0.016556
-0.23355,0.10808,0.44589,0.14183,0.061339,0.020491,-0.28471,-0.002154
-0.00054194,0.61013,-0.19387,-0.023439,-0.015655,-0.080735,0.12863,0.010465
0.082256,-0.29555,-0.27468,0.024032,0.0094778,0.10339,0.08755,0.023848
-0.024031,-0.32538,0.25015,0.065449,0.0037636,-0.051486,-0.093761,-0.023958
0.087279,-0.29059,0.33264,-0.0089751,-0.0017937,0.071564,0.16345,0.062648
-0.012901,0.24,-0.48204,-0.074942,-0.015299,0.057311,-0.11813,-0.013241
-0.011383,-0.26199,0.36673,0.077664,0.025461,0.044584,-0.057918,-0.025397
-0.024662,0.35712,-0.84136,-0.044088,-0.012546,-0.070206,-0.0031706,-0.052493
-0.028673,0.035016,0.73654,-0.089126,-0.059126,-0.17167,0.27615,0.084523
-0.030736,0.079396,-0.05589,0.043979,0.041979,0.0046071,-0.060413,-0.036808
0.031933,-0.19964,-0.11634,-0.066428,0.0096415,0.0051308,0.1239,-0.0028391
-0.0047252,-0.11532,0.11126,0.1192,0.015943,0.041257,-0.34528,-0.032498
0.054284,-0.23018,-0.14478,0.062407,0.014262,0.059317,-0.17162,0.022731
0.013024,0.39284,-0.038964,-0.087817,-0.034197,0.013728,0.052756,-0.008732
0.065965,-0.18577,0.078554,-0.018565,-0.019811,0.046346,0.18296,0.037599
-0.1003,0.51396,-0.10397,0.03598,0.010752,-0.068484,0.067617,-0.0018851
-0.056891,-0.0074954,0.28055,0.013306,0.026393,0.029066,-0.0066729,-0.025249
0.031633,-0.44787,-0.16732,-0.024251,-0.0040639,-0.00475,-0.042804,-0.016652
0.0010673,-0.046419,0.1991,0.0090012,-0.010318,-0.037457,0.11138,0.031729
9.6378e-05,-0.3956,-0.18488,-0.066881,-0.0080984,0.0085571,-0.12805,-0.0053006
-0.0019961,0.95835,-0.063676,0.021316,-0.0054138,-0.039103,-0.057892,0.004713
0.0032721,-0.03826,0.045267,0.046854,0.020902,0.037922,0.06229,0.053514
0.0087234,-0.32846,-0.21854,-0.021653,-0.0075997,0.005071,0.080842,-0.06245
0.069502,-0.0094766,0.33218,0.057869,0.025927,0.0030057,0.13427,0.00026828
-0.032939,-0.51986,-0.083192,-0.042811,-0.042892,-0.014927,-0.19584,-0.039693
-0.0095936,0.25115,0.028928,-0.034718,0.020086,0.021932,-0.10869,0.020903
0.037731,-0.0056229,0.13135,0.043024,0.019444,0.0045926,0.0022236,0.026106
-0.11786,0.51117,-0.32852,-0.051785,-0.021325,-0.027529,0.11978,-0.0080518
0.0076801,0.025025,-0.01275,0.055905,-0.00043135,0.0039433,0.025212,-0.026475
0.070355,-0.34262,0.064603,0.014645,-0.019067,0.013173,-0.037957,0.057077
-0.054997,0.15369,0.068499,-0.1129,-0.014271,-0.015537,-0.18461,-0.015078
0.045599,-0.19489,0.25681,0.11878,0.037864,0.019129,0.16618,-0.0086301
0.020526,-0.028013,-0.035314,-0.032285,-0.0029,-0.016037,0.20475,0.021503
-0.0052523,-0.001934,-0.21552,-0.019043,0.0042835,-0.012145,-0.19155,-0.026558
0.04637,0.2654,-0.019901,0.025851,0.0047375,0.10062,-0.021117,0.010948
-0.12926,-0.14141,0.010883,-0.022503,-0.001742,-0.084428,-0.033305,-0.022423
0.069551,-0.052246,-0.12437,-0.03125,9.7051e-05,-0.012872,-0.048739,-0.0094998
-0.021011,-0.07852,0.22214,0.062095,-0.0058298,-0.012907,0.22834,0.034277
-0.017762,-0.034867,-0.184,-0.01597,0.011283,0.017183,-0.00061683,-0.015736
0.048507,0.33446,0.18101,8.6565e-05,-0.019212,-0.016013,-0.25307,-0.026272
0.0063939,-0.10515,-0.025938,0.0086029,-0.0037155,0.059831,0.31308,0.018752
-0.049941,0.1607,0.10208,0.025128,0.01095,-0.043876,-0.27195,0.018132
0.0047705,-0.37626,-0.2937,-0.13006,-0.053101,0.032639,0.13222,-0.0045182
0.022157,0.01893,0.1856,0.066473,0.038862,-0.030673,-0.17683,0.021072
0.033305,0.12911,-0.084695,0.052259,0.02941,0.0084766,0.099199,0.0087102
-0.032481,-0.082311,0.19246,0.006993,0.0047952,0.025027,0.055969,-0.034195
-0.0038739,0.1376,-0.099994,-0.069364,-0.026986,-0.012451,-0.1718,0.0090745
0.024742,-0.37232,-0.016679,0.026205,0.012209,-0.026084,0.22982,-0.033793
-0.041001,0.31202,-0.080984,0.0044602,0.012881,0.022927,-0.082297,0.016558
0.01714,0.098044,-0.41795,0.01362,-0.0017571,0.009344,0.063288,-0.0041261
-0.019907,0.11836,0.76911,0.0144,-0.039773,-0.090457,-0.037978,0.0056693
0.074327,-0.15197,-0.04369,-0.0089923,-0.0076418,0.059322,0.17423,0.03819
-0.075029,-0.035732,-0.48984,-0.0097449,0.031985,0.036701,-0.28694,-0.039263
-0.0067228,-0.16087,0.44548,-0.042473,-0.014709,0.021278,0.021508,-0.0078156
-0.0015723,0.15725,-0.28536,-0.0054096,0.024162,-0.06514,0.0041723,0.02325
0.019005,-0.075855,0.22348,0.015808,-0.023214,0.082106,0.30095,0.01492
0.031972,-0.14292,-0.19191,0.029319,0.015127,-0.091627,-0.45502,-0.017167
0.014174,0.2133,0.031797,0.02759,0.014282,0.023188,0.12814,0.012924
-0.0029955,-0.092889,-0.24457,0.0029887,-0.0022152,-0.0028682,0.067994,-0.027596
-0.042942,0.24405,0.37933,-0.0053608,-0.018641,-0.0053771,0.11669,-0.0058433
0.034922,0.030054,-0.071103,-0.028753,-0.019269,-0.0073886,-0.12221,0.023635
-0.050698,-0.46779,-0.12549,-0.067302,-0.0039955,0.022684,0.055865,-0.0092774
-0.018581,0.33799,0.12338,0.0429,0.027267,-0.016516,-0.020256,-0.010607
0.037514,-0.098027,-0.13699,0.020432,0.019882,0.0391,-0.085059,0.012038
-0.015252,0.030082,0.24089,0.021361,-0.026157,0.048744,0.23567,0.0041075
0.04178,-0.13617,-0.01829,0.014245,0.0062584,-0.081638,-0.21556,-0.010934
0.036543,0.036401,-0.19037,-0.040164,-0.0080223,-0.0086647,0.13028,0.013689
-0.078141,0.13354,-0.035789,0.022046,0.0089241,0.040772,-0.095073,-0.00037521
0.041102,-0.025212,0.12278,-0.0023306,0.0099996,-0.011669,0.18599,0.024689
-0.020178,0.22309,0.010139,-0.058578,-0.020625,-0.064487,-0.38578,-0.04427
0.0033297,-0.23995,-0.015245,0.048762,0.010655,0.03083,0.15913,0.019011
-0.013544,0.20979,-0.10173,-0.00036497,-0.0055912,0.00099789,-0.068757,-0.0044108
0.015164,-0.55289,0.13452,-0.010318,0.0010022,0.025849,0.10359,-0.0052074
-0.027502,0.3711,-0.015661,0.042689,0.014973,0.05075,0.22386,0.0089224
0.030744,-0.055835,-0.21409,-0.051978,-0.018115,-0.041562,-0.13747,-0.024274
0.01856,-0.15988,0.11188,-0.028488,-0.012027,-0.0091065,-0.16068,-0.0029053
-0.024422,0.13119,0.24556,0.058537,0.0022779,-0.00060031,0.11388,0.018674
-0.01175,0.06874,-0.21786,-0.001937,-0.0062235,0.022748,0.043943,0.0094801
-0.06024,0.028066,0.066038,0.02422,0.040703,-0.064241,-0.004983,0.016536
0.11151,0.32853,0.011088,0.011651,0.010212,0.043095,0.14555,0.016412
-0.043471,-0.43042,-0.094653,-0.11036,-0.027557,-0.014472,-0.23934,-0.045694
0.021347,-0.048653,0.020658,0.024992,-0.0025643,-0.017895,-0.14359,-0.0059026
0.00075392,0.16587,0.15197,0.050219,-0.0010575,0.025398,0.0043794,0.002781
0.034786,-0.18055,-0.1558,0.043272,0.0079338,0.02987,0.042324,0.011462
-0.056763,0.065998,-0.021556,-0.050567,-0.0070306,-0.027577,0.144,-0.0033591
-0.016396,0.16202,0.084684,-0.043689,-0.02258,0.009532,0.2718,0.020852
-0.023832,-0.1348,-0.033035,0.032885,0.00040393,0.00066351,-0.15953,-0.017357
0.038379,0.020401,0.094064,-0.00022725,0.023015,-0.038595,-0.22051,-0.031895
-0.0011399,0.051627,-0.17398,-0.0098816,0.0063975,0.071309,0.14256,0.0086283
0.014463,-0.085036,0.085906,0.043288,0.021074,-0.044821,-0.063963,0.049606
-0.039266,0.082598,-0.062257,-0.00455,-0.026532,-0.012203,0.01782,-0.018362
-0.013545,-0.14507,-0.02307,-0.036068,-0.0034944,-0.010733,0.1055,-0.015744
0.099472,0.19608,0.22845,0.011278,-0.01133,-0.0015392,-0.12959,0.03375
-0.02083,-0.18832,-0.10332,0.012458,0.0046322,0.077711,0.039278,-0.049921
0.039019,0.046914,0.20125,0.014262,0.0052597,-0.046569,-0.14489,0.03755
-0.11236,0.11295,-0.43553,-0.038115,0.0060685,-0.022947,-0.016848,-0.024481
0.024288,-0.18654,-0.060558,-0.019815,0.006928,0.02348,0.18244,0.013765
-0.0047442,0.38852,0.34136,-0.0091339,-0.00010347,-0.016715,-0.053984,0.0037926
0.03463,-0.1491,-0.066574,0.056214,-0.0073152,0.051801,0.16474,0.00042114
-0.02941,-0.24002,-0.059018,0.027531,0.0086802,-0.036486,-0.091548,-0.027274
-0.0089892,0.14409,0.261,-0.017352,-0.030226,-0.023556,0.1527,0.014943
0.010574,-0.061532,-0.31893,-0.024034,0.0010493,-0.0028622,-0.20532,0.010473
0.030018,-0.12389,0.30937,0.0072667,0.016694,0.041573,-0.13538,-0.024446
-0.020242,0.16752,-0.18288,-0.0094725,0.0012207,-0.038334,0.096418,0.020105
0.032263,0.031831,-0.17056,-0.011658,0.0094237,0.023336,0.099727,0.01952
-0.023029,0.0090777,-0.098105,0.024425,0.0022833,0.00019348,-0.21822,-0.026029
-0.029756,0.0067786,0.14534,-0.041428,-0.020241,-0.014007,0.19091,-0.015063
0.019737,-0.067491,0.24895,-0.0056138,-0.0035816,0.027434,-0.10104,0.028634
5.8001e-05,0.037465,-0.12172,0.038554,0.020829,-0.02426,0.024273,-0.012697
0.043446,-0.083646,0.12016,0.028864,0.0059124,0.025772,0.16892,0.016459
-0.061705,0.054216,-0.28314,-0.04242,-0.0016406,-0.010456,0.043446,0.0059313
0.019863,-0.025132,0.12077,0.019863,-0.017572,-0.0083723,-0.29867,-0.021587
-0.0015088,0.10814,0.064856,0.035696,-0.0028398,-0.015145,0.1642,0.019264
-0.0090607,-0.030362,-0.085509,-0.010955,-0.0042256,0.055066,0.07067,-0.051517
0.043883,-0.01881,0.14443,0.0045428,0.0097096,-0.055429,-0.12793,0.039518
0.024581,-0.0056444,-0.14522,-0.11334,-0.0076606,-0.018195,0.090642,0.066148
-0.12131,0.0092495,0.052629,0.033827,0.0064174,0.0031379,-0.21143,-0.1585
0.044297,-0.11456,0.003769,0.024374,0.00527,0.0090243,0.099257,0.092966
0.022149,0.037107,-0.10318,0.014884,0.0046267,0.038901,0.078809,-0.022338
-0.0072599,-0.12964,0.093076,0.021338,0.0044735,0.022668,-0.036482,-0.011437
0.019305,0.10326,-0.17075,-0.026313,-0.018752,-0.0084048,-0.16644,0.040288
0.00082774,0.17973,0.17017,0.028274,0.020685,-0.01541,0.34697,0.070577
-0.046799,0.10553,-0.22607,0.0053153,-0.0024396,-0.01423,-0.15129,-0.09254
0.04825,-0.21564,0.40706,-0.0094944,-0.010193,-0.020773,0.034572,0.011483
-0.0034491,0.19031,-0.016496,0.030417,-0.0026833,-0.043079,-0.056671,-0.0085643
-0.014998,-0.19413,-0.14632,-0.086146,-0.011154,0.067154,-0.11342,-0.012711
0.036302,-0.088359,0.05485,-0.0077519,-0.0042424,-0.010423,0.10524,0.021879
-0.037788,0.094518,-0.094658,0.0547,0.018247,0.052358,0.1604,0.024446
0.012129,-0.025695,0.020668,-0.015787,0.0018457,-0.017853,-0.22257,-0.028684
0.0060041,-0.14814,-0.27986,-0.023621,-0.014193,-0.07251,0.14299,-0.0047036
-0.024966,0.13816,0.37855,0.062724,0.024926,0.044744,-0.0088068,0.018456
-0.025849,-0.037186,-0.25363,-0.037813,-0.0057955,-0.017559,-0.24802,-0.052628
0.0038296,0.06382,0.058821,0.02637,0.0029156,0.021896,0.097914,0.016784
0.025587,0.1072,0.1995,0.0051544,0.0040061,0.014704,0.12361,0.016053
0.0008991,-0.047747,-0.21403,-0.039211,-0.018354,-0.031332,-0.13896,0.015641
0.047326,0.081267,0.25551,0.049203,-0.0018474,0.016555,0.15427,0.023322
0.00092727,-0.0015512,-0.080195,-0.065854,-0.0090897,0.009856,0.081179,0.031075
-0.03687,-0.16776,0.066742,0.021632,-0.0010504,-0.028078,-0.1325,-0.03171
-0.019535,0.047151,-0.093905,0.014665,0.030134,0.0042282,0.051108,-0.055929
0.013422,0.12429,-0.13323,-0.0086182,-0.0091759,0.0051268,0.021391,-0.0026569
0.030305,-0.28967,-0.12948,-0.016849,-0.0094648,-0.025462,-0.042876,0.026611
-0.078599,0.20365,0.08196,0.02922,0.0059662,0.060823,-0.25916,-0.053783
0.069355,-0.33965,0.095944,-0.010838,-0.0018387,-0.032961,0.26366,0.045646
-0.049243,0.090437,0.062205,0.042832,0.0062451,0.0056385,-0.1138,0.0050514
0.026745,0.18366,0.11471,-0.083105,-0.001021,0.0438,0.10242,0.051382
0.047644,0.043034,-0.019207,0.041071,-0.015858,-0.090297,-0.054447,-0.033899
-0.033038,0.28591,0.027918,0.024705,0.016352,0.033164,0.19083,0.046083
-0.035249,0.012594,-0.25185,-0.022893,-0.013852,-0.0074935,-0.21513,-0.091693
-0.029019,-0.38074,-0.16357,0.023217,0.018439,0.0067193,0.01732,0.0055315
0.056108,0.064272,0.25324,-0.024489,-0.0040391,0.029164,0.028543,0.016984
0.016988,-0.10755,0.10758,-0.025343,-0.011027,-0.002475,0.0049239,0.00468
0.017498,0.11084,0.031988,0.028577,0.0052672,-0.03342,-0.094445,0.015037
-0.020786,-0.11559,-0.19241,-0.01101,-0.0020221,0.014428,0.16558,-0.0070124
-0.020082,0.043873,0.15317,-0.026761,-0.0016119,-0.015328,0.055905,0.016391
-0.0041183,-0.070959,-0.28263,0.043928,-0.0012739,0.041124,0.019498,0.0070095
0.019138,0.2475,0.19582,-0.0020598,0.006834,-0.011842,-0.18756,-0.027273
-0.012789,-0.30902,0.16703,0.030482,-0.00072483,-0.033925,-0.17546,-0.023694
-0.029388,0.36432,-0.22022,0.00072358,-0.00055175,0.044907,0.22016,0.010381
0.00090695,-0.035432,-0.20788,-0.036901,0.0072735,-0.025522,-0.077431,-0.0025957
-0.01532,-0.14892,0.39945,-0.074821,-0.032046,0.012562,0.26218,0.039577
0.070611,0.13935,-0.054603,0.082104,0.037624,-0.028221,-0.10976,-0.0031137
0.016582,-0.20486,-0.023365,0.019746,0.0052542,-0.0069859,-0.21374,-0.020797
-0.036927,0.064684,0.11013,-0.019665,-0.012001,0.021934,0.038779,-0.0053519
0.019134,-0.016908,-0.41201,-0.035993,-0.0062731,0.012047,0.12624,-0.0035774
0.035916,0.05455,0.33222,0.025634,-0.0086518,0.0027595,-0.059915,0.0077831
-0.10415,-0.12225,-0.28967,-0.0064664,-0.0032551,-0.021317,0.06581,-0.010756
-0.0028586,0.21644,0.13679,0.016295,-0.0053875,0.0024106,-0.06073,0.041746
0.035085,-0.094182,0.010343,-0.0075613,0.0087153,0.034819,0.11253,-0.022951
0.025522,-0.038162,0.15126,0.046964,0.015882,-0.018041,-0.0034889,0.01315
9.775e-05,-0.02048,0.09034,-0.062389,-0.0071834,-0.015843,0.20533,0.032214
-0.025082,0.023309,-0.22795,-0.0076147,0.009814,-0.021435,-0.33374,-0.09119
-0.010506,-0.084188,0.25003,0.015843,-0.011438,0.027344,-0.23135,0.0099871
-0.018366,0.15151,-0.27364,0.015686,0.014673,0.013012,0.1532,-1.4604e-05
0.076426,0.091721,-0.24501,-0.00034207,0.0018086,-0.017758,0.047798,0.066766
-0.023169,-0.19969,0.11677,0.0068111,-0.019183,0.028687,0.048358,-0.039012
0.010593,0.020095,0.31952,-0.025306,0.0060549,-0.035123,0.11051,0.019331
0.028762,-0.20218,-0.0036682,-0.0028426,-0.016429,0.0018987,-0.052525,-0.05438
-0.078553,0.41399,-0.00080023,-0.0037863,-0.0085608,0.02282,0.24845,0.060722
0.039821,0.0080794,-0.10102,0.018886,0.014122,-0.018909,-0.32157,-0.010043
-0.045967,-0.12427,-0.17089,0.026244,0.012745,-0.013566,0.018861,-0.024445
-0.038943,0.00036408,0.19662,-0.012866,0.0031651,0.0079102,-0.13688,-0.0061523
0.092474,-0.18867,0.049257,-0.035896,0.0012365,0.0066784,0.085492,0.028741
-0.018429,0.012135,-0.29172,0.011836,-0.00066624,0.01408,0.15386,0.0014932
0.0038479,0.072597,0.11984,-0.0025315,-0.010222,0.01444,-0.010788,0.0051962
0.0034727,0.072283,-0.074904,0.0068517,0.01172,0.0075827,0.12204,0.054906
-0.0193,-0.14369,0.35067,0.032063,-0.012906,-0.037992,-0.27636,-0.12318
0.060588,0.050506,0.044435,0.010484,0.0018901,-0.020991,-0.10482,0.048971
-0.053861,0.037565,-0.32285,-0.050177,0.0014778,0.011482,0.17552,-0.02999
-0.011348,0.21475,-0.05744,-0.040627,-0.014081,0.020213,0.025451,0.01538
0.0080935,-0.013779,-0.09073,0.078144,0.017765,0.0051419,-0.070862,-0.0096642
-0.034975,0.029095,0.49755,-0.045469,-0.020158,0.0053524,0.21436,0.028217
0.030953,-0.36218,-0.24693,-0.0052663,0.012725,-0.049391,-0.041286,0.004371
0.025856,0.18576,0.065894,0.050226,0.014723,0.05195,-0.12743,0.012612
-0.0036737,-0.11656,-0.18877,-0.011932,0.0012494,-0.042092,-0.060188,-0.0098
0.02028,-0.11191,0.036993,-0.012207,-0.0045238,0.043547,0.074318,0.022585
0.019487,0.045662,-0.1066,0.049266,0.020563,0.0042058,-0.028351,0.031046
-0.13103,0.3122,0.21084,-0.046322,-0.048727,-0.019498,0.17942,-0.063083
0.053276,-0.1374,0.030794,-0.033281,0.0062139,-0.027584,-0.32463,-0.033562
0.033636,0.043131,-0.18359,0.0026705,0.0056747,0.02681,0.13283,-0.013199
-0.0255,-0.035279,0.31155,-0.00061489,0.0044467,0.010894,0.029885,0.0061611
0.048158,-0.012864,-0.24064,0.027607,0.01836,-0.020584,0.071004,0.040763
-0.026252,-0.0075712,0.058423,0.009636,-0.022634,0.0027899,0.07745,0.013235
0.017205,0.002351,-0.057562,0.0083088,-0.0010756,-0.0048017,-0.20035,0.01024
-0.024382,0.061516,-0.17592,0.015992,0.020767,0.019256,0.065582,-0.014552
-0.02591,-0.11378,0.27169,-0.045444,-0.011637,-0.026525,-0.0395,0.0016329
0.0048107,0.083575,-0.013966,-0.012122,0.0033392,0.029736,0.0067044,-0.011561
0.044252,-0.20765,0.003639,-0.0015576,-0.004642,-0.015171,0.085554,0.015851
-0.040562,0.17537,0.040868,0.040521,0.0033867,-0.020798,-0.10145,-0.033868
0.070463,0.028858,0.08798,0.027736,0.01948,0.036036,0.053466,0.0183
-0.02134,-0.006651,-0.3562,-0.00906,-0.018994,-0.0012146,0.033251,0.015421
-0.058374,-0.063609,0.067473,-0.077975,-0.010577,0.0077934,0.19625,-0.0040457
-0.0017371,0.069637,0.031569,0.0083367,-0.017826,0.00035261,-0.35647,-0.032728
0.023469,-0.066849,-0.040573,0.031125,0.013933,-0.039241,0.015798,0.038518
0.017192,0.059437,0.14982,0.013958,0.022215,-0.0015329,-0.061278,-0.016874
-0.036225,0.074987,0.15943,-0.0038837,-0.00077789,0.019957,0.20243,-0.019018
0.035049,-0.073178,-0.10375,-0.0065185,-0.00036352,-0.029123,0.019102,0.016824
-0.0034422,-0.10193,-0.1696,-0.00151,-0.007828,0.023463,0.077433,-0.018277
0.027878,0.021885,0.19713,0.034797,0.008018,0.013954,-0.13723,0.032397
-0.02735,0.0031391,-0.3156,-0.038041,-0.023206,-0.010609,-0.04609,0.020826
0.0026923,-0.11,0.1673,0.014501,0.015638,0.027891,0.062199,-0.029222
-0.014756,0.27679,0.059661,-0.034011,-0.0082758,-0.011344,-0.046524,0.015289
-0.0091812,-0.1025,0.040644,0.011853,0.014466,-0.0035932,0.26068,-0.0095779
0.0041402,0.016404,-0.046758,0.019374,0.013646,-0.0038419,-0.41453,-0.056912
0.025668,0.068762,-0.031623,-0.0035802,-0.034032,-0.020122,0.16235,0.045121
-0.030048,-0.11227,0.0068583,0.0054866,-0.0034015,0.017819,-0.032067,-0.0082802
0.0092772,-0.013954,-0.096463,-0.00038046,0.00414,-0.0070738,0.049054,0.017072
-0.035821,0.087777,0.14178,-0.029157,0.012155,-0.0085431,0.061691,0.0037319
0.029914,-0.090019,0.017615,0.028293,0.012886,-0.0095914,-0.057206,0.021708
0.057675,-0.032329,-0.086706,0.0076089,-0.0093346,0.0058555,0.01968,-0.03087
-0.023512,0.16764,0.078595,-0.036846,-0.0077648,0.014702,0.15078,0.017617
0.012066,-0.28543,-0.033155,0.027431,0.017387,0.0014491,-0.094492,-0.012665
0.022899,0.12627,-0.11661,0.012687,-0.0044345,-0.0028085,-0.24022,-0.012344
