-0.0033113,0.00079411,-0.0012566,-0.014914,-0.0036353,-0.0012226,0.014879,-0.0067225
-0.0031329,-0.0061296,0.014018,0.015344,0.0048987,0.0061555,-0.0088083,-0.0066526
0.0053088,-0.0056374,0.0061673,0.0064021,-0.0023597,-0.0023449,0.0064571,0.0010763
0.0063146,-0.0055313,-0.0091856,0.0053056,-0.009818,-0.018842,-0.0017984,0.00079164
-0.0080679,0.0098905,0.0069632,-0.0034015,0.0059972,0.0036739,-0.0022752,0.0081105
0.0010444,0.0016884,-0.0079951,-0.01958,-0.017327,-0.0049327,-0.0027251,-0.015989
-0.0055986,0.0012516,-0.0073293,0.011544,0.014069,0.010211,0.012535,-0.008924
-0.0047243,-0.0069202,0.016619,-0.0037564,0.014342,0.0023784,-0.0033295,0.021608
0.0035494,0.0006943,0.0012153,0.004778,-0.0008261,0.0028992,-0.0034264,-0.002398
0.011353,0.0084964,-0.0067574,0.0057779,-0.00018656,0.0039459,-0.011207,0.0050985
-0.0047414,0.00082759,-0.007325,-0.00092791,0.00058397,0.013224,0.0045373,-0.0027105
0.0022106,0.0010434,0.0073726,0.0079044,-0.0064124,-0.016318,0.012496,-0.01018
-0.0067338,-0.0065891,-0.0094251,-0.0069676,-0.02127,-0.0067689,0.012601,0.0060981
-0.00017265,0.0012616,0.0049417,0.001201,0.010619,-0.013023,-0.018641,-0.00082087
-0.0013816,-0.0067309,-0.011856,-0.022331,0.0032664,0.011622,-0.0031333,0.00021118
-0.0024008,0.00065544,0.010641,-0.0072215,0.01134,-0.0032647,-0.0033624,0.001263
0.0046909,0.0078227,0.01002,0.015385,0.0035991,0.0047552,-0.0036434,-0.0055994
0.0043207,-0.0085902,0.0097293,0.014389,-0.0042981,0.0044187,0.011744,0.0029514
0.004289,0.0062129,0.0018965,0.0055787,-0.012304,0.011379,-0.0039631,0.011205
-0.0032866,-0.0023372,-0.021402,0.004725,0.0030755,0.0022654,0.0040202,-0.012141
0.0049223,-0.0028857,-0.005603,-0.011495,-0.0049758,-0.015006,-0.0033074,0.0032192
-0.010267,0.012453,0.0023124,-0.011751,0.010468,-0.0090399,0.0053074,-0.005178
-0.0020829,-0.0031641,0.0022869,-0.003807,0.0025636,0.0047277,-0.0014458,0.0096217
-0.0018367,0.0049396,0.0021321,0.0045453,-0.0052458,0.0030751,-0.00024788,-0.0069578
0.0060849,-0.017968,0.0097099,0.0054877,0.0026376,-0.0059652,0.00093031,-0.0079143
-0.0017209,0.0061692,-0.0061492,-0.0010198,-0.0050941,0.0012311,-0.0058965,0.0068752
-0.0095645,-0.00085309,-0.0062961,0.00056426,0.0027274,0.0013413,-0.005262,0.0062594
0.013874,-5.7429e-05,-0.0062882,-0.0055158,0.0025706,0.002188,0.010528,0.0059209
-0.0094776,0.00065766,0.017341,0.011817,-0.0056549,0.019286,0.0023545,-0.0097573
0.014146,0.0012063,-0.0057383,0.0054885,0.0014178,-0.010088,0.0014838,-0.0017534
0.0065988,0.0015054,0.010348,-0.0012585,0.0081298,-0.0081125,-0.0076158,-0.0013972
-0.0087368,0.0092948,-0.0048018,-0.00076888,-0.0011274,0.0014412,-0.0013455,-0.00097858
-0.00067531,0.0010863,-0.0044025,-0.024379,-0.0028411,0.002646,-0.010745,0.0072099
-0.016146,-0.01532,0.0036716,0.0060411,-0.0046892,0.0031006,0.011289,0.0074562
-0.00048977,-0.00082068,-0.01184,-0.0031609,-0.0064891,-0.012904,0.002471,-0.00029005
-0.00057614,0.0056216,0.0037973,0.010688,-0.00021877,0.0015724,0.0098393,-0.0082178
0.014875,-0.0036495,-0.011819,0.0087392,0.0065135,-0.00014305,-0.0055817,-0.016277
0.006842,0.0028094,0.0039293,-0.00097555,0.0060601,0.0056912,-0.012546,-0.00094207
-0.0011987,0.0017631,0.012082,-0.0026426,0.0063286,-0.0040138,0.0044783,0.0066424
-0.001408,-0.0066129,0.0048805,-0.0039374,-0.0082998,-0.0054933,0.0062604,0.014376
-0.0093958,-0.0065795,0.0057437,0.0030287,0.0011514,0.0014965,0.00039573,-0.0011398
-0.001717,0.017515,-0.0088541,-0.0051642,-0.0045476,0.017072,0.0022766,0.0069465
-0.0018017,0.0030991,0.015638,0.0027018,-0.0021846,0.0021396,0.0038772,-0.00051395
-0.0018273,-0.0031157,-0.01468,-0.0046919,0.00017381,0.011224,-0.010589,-0.0080217
0.0060312,0.0064572,-0.013987,0.0038122,0.010089,-0.018433,-0.0099617,-8.125e-05
0.013973,-0.0074923,-0.0057829,0.0046717,-0.0039098,-0.016811,-0.0020618,-0.015852
-0.0014319,-0.013936,0.0021281,-0.0022211,-0.010734,0.0080095,0.013171,0.0071307
-0.0089286,0.0025942,0.0098094,-0.0013429,0.02078,-0.0066721,-0.0032163,-0.0014095
-0.0085163,0.00297,0.009539,-0.0084079,-0.018741,0.0015385,0.011403,0.013316
-0.0080093,-0.0049681,0.0014018,0.0077631,0.0036039,0.0091914,0.0024647,-0.0032336
0.016021,0.01795,-0.0067356,0.0080596,0.0098597,0.0085387,-0.0064935,-0.0040248
0.0010527,-0.0062438,0.0085794,-0.0075402,-0.01537,-0.00030374,-0.0075852,0.0032758
-0.0060825,-0.0070607,0.00045721,3.3029e-05,0.0063016,-0.0015683,-0.00076103,-0.0046632
0.010173,0.0078467,-0.0076871,-0.00043503,0.0048204,-0.010731,-0.0016143,0.0034592
0.0028588,-0.0082762,-0.00023274,-0.0010693,-0.0039658,0.0036018,0.0055005,0.0041948
-0.0046819,0.0071363,-0.0083969,-0.0017867,-0.0042769,-0.0053197,0.0049709,-0.0025261
-0.0047182,-0.00059687,-0.0086691,0.0053188,0.011764,0.0016692,-0.0031962,-0.009009
-0.012927,0.0075408,0.0068616,-0.010913,-0.010565,0.016827,-0.0033752,0.0080334
0.0097445,-0.01541,0.0070391,0.012093,0.006729,-0.014501,0.0044287,0.0015627
0.0008345,0.0085712,0.0075429,-0.0037432,0.0009361,0.0014296,-0.0032328,-0.005141
0.0072985,-0.006556,0.00054652,0.0040911,0.0030495,-0.0057401,-0.0029393,0.0034135
-0.0020006,0.0016204,0.0015808,0.0043261,-0.0028224,0.0029719,0.0052853,-0.0041195
0.0043194,0.0017886,-0.005145,-0.010895,-0.0091046,0.011834,-0.002028,0.0034631
-0.0048535,0.0017299,0.0035983,-0.0025661,-0.00034732,-0.0027084,-0.0014819,-0.0050811
-0.0059516,0.0014421,-0.011462,0.0058183,-7.9972e-05,-0.0017082,-0.00093639,0.0093743
-0.0066788,-0.0068641,-0.0036213,-0.0014129,0.015134,-0.00088301,0.015181,0.0078836
0.00084923,0.0081038,0.011402,-0.00085276,-0.0093111,-0.015916,-0.01568,-0.017204
0.016654,-0.00047279,0.0023605,0.0074844,-0.0029548,0.0078656,0.00018422,-0.0031962
-0.0061776,-0.0012804,-0.0072076,0.000159,-0.012485,0.0079842,0.00024536,0.0032344
0.0025709,-0.009879,-0.0014916,-0.015013,0.024797,0.00011796,0.0079302,0.0022734
0.0036961,0.0050412,-0.003689,0.0010281,-0.00030036,-4.2431e-05,-0.0079994,0.0018737
-0.002963,-0.0033465,0.0020819,0.001394,-0.0095014,-0.0080591,-0.00063427,0.0021032
-0.0019299,0.011865,0.00824,0.0094876,0.0051089,-0.00044766,0.0066412,-0.0048722
-0.0011229,0.011629,-0.00066864,0.0096308,-0.011105,0.0071903,-0.00173,0.0042707
-0.0083957,-0.019679,0.0066933,-0.0060503,0.0043575,0.007042,0.0055792,0.0059002
-0.00028207,-0.0039428,-0.0087401,0.001456,-0.0032334,-0.00090946,-0.010415,-0.00022853
-0.00013284,0.0041391,-0.00017807,-0.0069305,0.0051021,-0.0088733,0.005047,0.0012535
0.0077943,-0.0032568,0.0087989,7.4307e-05,0.0058144,-0.0012378,-0.010481,-0.013315
0.00017508,0.0051063,-0.013232,-0.016501,-0.001227,-0.0014348,0.0055256,-0.0050257
0.00052269,-0.0020432,-0.0039478,-0.001833,-0.00053039,-0.0016259,-0.0016388,0.0026241
0.0088533,0.0065088,0.0052446,0.012979,-0.015652,-0.0017706,0.0070224,0.0096747
-0.0061325,-0.0005412,-0.0014073,0.0046259,0.015823,0.013797,0.0079597,0.00063137
-0.0054767,0.0001756,-0.00055828,0.01224,0.00010334,-0.0095842,-0.0067837,-0.00087318
0.0028742,-0.0070411,0.015548,0.004566,-0.00029769,0.0062105,0.0095167,0.00539
-0.0046491,0.0011769,1.336e-05,-0.018479,-0.0087509,-0.0013487,-0.013577,-0.011601
0.0031059,0.0091544,-0.0080832,0.0054747,-0.0017074,-0.0010652,-0.0058245,-0.0047741
0.010477,-0.0065667,-0.00087558,-0.0018447,0.0053467,0.0069998,0.0015269,0.0025676
-0.013749,0.00090205,-0.0095209,-0.0093078,0.0047432,-0.00064019,0.0007414,0.010481
0.00085281,-0.01527,-0.0026448,-0.0013565,0.0044187,-0.016191,-0.0080457,0.0033094
0.0075762,0.0074814,0.01208,0.006383,-0.018983,0.0072463,0.014393,-0.003433
-0.016817,0.0067273,-0.012092,-0.0094676,0.0048714,-0.00057665,-0.0020979,0.0057063
-0.0018274,0.0059657,0.010878,0.021504,0.0056233,-0.00050782,0.012918,-0.0085358
0.013619,0.0052387,0.010725,-0.0021528,0.014413,-0.0080836,-0.0029909,-0.015103
0.0061327,-0.011057,0.0030643,-0.010025,-0.0079765,0.0080031,-0.010749,0.0092853
0.0069102,0.0039648,-0.012159,0.005766,0.00077893,0.00087697,0.0052353,0.0098488
0.00017533,-0.012186,-0.0037782,-0.0094465,-0.01417,0.0095302,-0.017598,0.0021886
-0.01429,0.0030148,-0.0031304,0.00681,0.0017479,0.010393,0.014428,-0.0058379
0.00234,0.0027341,0.0053406,-0.00022475,0.0016038,-0.0045151,-0.0081349,-0.0063182
-0.0048303,0.0026558,-0.017469,-0.0072212,0.0010439,-0.011917,0.0083922,-0.0069318
-0.0046832,0.0028451,0.014362,0.0091289,0.0079686,-0.011922,0.0014408,0.0080869
0.010562,-0.0044525,0.014896,0.009631,-0.0009218,0.0032557,-0.0056196,0.007609
-0.0058956,0.0042354,-0.015868,-0.013643,-0.0020257,-0.0053804,0.010582,0.0073396
0.008606,-0.010155,0.015807,0.0017302,-0.0029921,0.0013766,-0.0047028,-0.00050577
-0.0082149,0.0070151,-0.015102,-0.0067765,-0.0036831,0.0159,-0.004641,-0.023763
-0.001439,0.00096164,0.00074113,-6.5492e-05,-0.0040094,-0.00069098,0.010751,0.015629
0.0056977,-0.0050215,0.00079857,0.0063313,0.003867,-0.001384,-0.013195,-0.0074168
-0.0022965,0.004514,0.00066622,0.0047426,0.012089,0.013888,-0.0061137,0.0085722
-0.0019444,0.0059419,0.00033444,0.0031534,0.0049255,-0.017383,0.00082652,-0.0067935
0.014505,-0.00091081,-0.00018005,-0.0060653,-0.0021462,-0.0015186,0.0077184,0.0089368
-0.0077861,-0.00054527,0.0069812,-0.0071151,-0.009281,0.0066879,-0.0009757,0.0010611
0.0012845,-0.00082583,-0.0015455,0.00014541,-0.0087928,-0.016316,0.021687,-0.014773
0.0024264,-0.0095257,-0.01004,0.00018097,0.0070636,0.0074999,-0.010189,0.00055318
-0.012375,-0.01089,-0.010585,0.00082508,-0.00076666,0.0077601,-0.0028283,0.0080513
0.0036187,0.010909,0.020357,0.0098332,-0.0009545,6.9877e-05,-0.010904,-1.2843e-05
-0.0043319,0.0092332,0.0047368,0.0036345,-0.0011834,7.3742e-05,-0.010961,-0.00013979
-0.0049364,-0.0078801,-0.010535,-0.010152,-0.0091216,1.1183e-05,0.012649,-0.00011249
0.0097337,0.0066153,-0.0020343,0.0073126,0.014414,-4.5886e-05,-0.0025543,5.6809e-05
0.0085933,-0.0018852,-0.0010777,-0.0066913,0.0069863,-0.015647,0.013743,0.00031381
-0.00036412,0.0056636,0.0078481,0.0023488,-0.00016476,0.000144,-0.016618,-0.0072409
-0.0013465,-0.0020962,0.0011638,0.0030804,0.00068891,0.0082909,0.015657,0.016354
-0.0098491,-0.0018968,0.0021562,-0.012325,-0.0062142,0.0087736,0.0010676,0.00069166
-0.0023563,-0.0017396,-0.0049341,-0.0047388,-0.0054039,0.0093348,-0.0058501,-0.015225
0.0055263,0.0060253,-0.0045779,0.0025252,-0.0048291,0.0020547,0.0025624,-0.0001557
0.0059476,-0.0099505,-0.0046292,0.0018006,0.0032359,-0.013186,0.0027459,0.0068889
-0.0089959,-0.0028027,0.0027421,0.016655,0.010958,-0.013047,-0.013174,-0.0096095
0.0074406,-0.0037038,0.0019803,0.008108,-0.0050508,0.0024216,-0.0061218,0.0051796
0.00041774,0.0031185,0.0010029,-0.016001,-0.013438,0.0019841,0.0005525,-0.003283
0.0010353,0.0022204,0.0077415,0.0068024,0.0093692,0.0013395,0.0069911,0.0041851
-0.0064571,0.0094004,-0.0011271,-0.0094686,0.0088215,0.00060086,0.0055487,-0.0036046
0.001298,0.0013495,-0.0020702,-0.0023583,-0.0071553,-0.00011109,0.0041979,0.012397
-0.0069696,0.0015658,-0.0028314,0.0046846,0.00056899,0.014927,0.01088,0.013042
0.0078463,-0.0055885,-0.0033692,-0.0039284,0.008569,-0.0089207,-0.0055694,-0.017436
-0.0010279,0.0032499,0.0041441,-0.01249,-0.0066345,0.0064721,-0.013856,-0.001073
0.0056153,-0.011094,-0.011551,0.010359,-0.0060628,-0.0092526,-0.013966,-0.008325
-0.0033058,-0.0018696,0.012015,0.010043,0.0023648,-0.0092912,0.0097141,-0.0080391
-0.0041856,0.0073702,-0.0033362,0.010083,0.0029142,0.014096,0.0024721,0.0075627
0.0031209,0.00090743,0.0048301,-0.00511,0.0033058,-0.001644,0.01114,0.0072569
-0.0047234,-0.0057003,0.013005,-0.019931,-0.0043332,-0.0018383,0.0044065,-0.0010718
-0.0042422,0.0031257,-0.010124,0.0046095,0.0034136,-0.0020844,-0.0021831,0.0061112
0.012344,0.0039149,-0.0099087,0.0058948,-0.0046859,-0.0023171,-0.016534,0.013284
0.005869,-0.0033592,-0.0019786,-0.0005895,-0.012957,-0.0024489,0.00031811,-0.018521
-0.016022,0.01253,-0.0019311,0.0084491,0.0099159,0.0054186,0.0092187,-0.011098
0.016781,-0.018748,-0.0097161,-0.0061835,0.0093124,-0.0020925,-0.005537,0.01218
-0.0053094,0.012175,0.01378,-0.0055258,0.00090937,-0.0015335,0.010678,-0.011147
-0.012164,-0.0040622,0.021715,-0.0052603,0.0081748,0.01486,-0.0046768,0.0048667
0.0039017,-0.0049193,-0.0015372,0.010232,-0.015756,-0.0077039,-0.0047399,0.0055053
-0.0040389,0.0018601,-0.0091366,0.0019364,-0.00056978,0.0087574,0.0026871,0.0063205
0.01092,0.00074461,-0.0089484,0.0011969,-0.00095417,-0.014032,0.0020168,-0.00061333
0.0020087,-0.00034464,-0.0088356,0.0003347,-0.0012737,0.0019263,-0.0066879,0.00018902
-0.014985,0.0065145,0.0067981,-0.0083055,0.0063055,-0.0059403,0.0079064,-0.0070402
0.0070073,-0.0020199,-0.0011059,0.0066887,-0.0094397,0.0014273,-0.00097859,-0.0067942
0.0056831,-0.002443,-0.0012637,-0.017039,0.0062008,0.00065803,-0.0019927,0.0086707
-0.0031572,-0.010351,0.01419,0.006549,0.0063597,-0.00031409,-0.0028567,0.00029003
0.0040568,0.005491,-0.0015657,0.0071696,0.0066482,0.014287,-0.0035007,-0.00061781
-0.0038472,0.013773,-0.0094259,0.00039223,-0.0085937,-0.010075,0.0039246,-0.0017351
-0.0034151,-0.0012264,0.0062545,0.0016993,-0.0081666,0.0048527,0.0037887,-0.010704
0.0053109,-0.0083765,-0.0092159,0.010879,6.1131e-05,-0.01116,0.0038538,0.01172
-0.001202,1.2957e-05,0.014451,0.0042529,0.0082247,0.0044203,-0.0037813,0.0031965
-0.0074678,-0.0074116,-0.0087193,-0.01059,-0.0071557,0.0046986,0.0042087,-0.0049146
0.0019672,0.008346,-0.0084556,-0.010365,0.00076514,0.0052404,-0.011353,0.0030507
0.003475,0.0082068,0.015206,-0.010741,0.0085318,-0.001852,0.0041297,0.0036179
0.0046743,-0.0077931,-0.00026168,-0.0038319,-0.0073,-0.01667,0.0037341,0.0044932
-0.0024247,-0.00050866,-0.015808,0.010536,0.0079613,0.015394,0.0030967,-0.010103
0.0054781,-0.0088891,0.0076306,0.0091536,-0.0003542,-0.0072786,-0.013333,-0.0090957
-0.0029412,-0.001564,-0.00025022,0.0078742,-0.008775,0.0012253,0.0092654,-0.00046716
-0.0042339,-0.0018697,0.0074387,-0.0087519,-0.001624,0.0018443,-0.007065,0.015646
0.0017073,0.021502,-0.00053852,0.0062385,0.0055428,-0.0054037,0.00035749,9.6453e-05
-0.0083551,0.0060501,-0.0085445,-0.0018504,0.0049914,0.0029395,0.016069,-0.00026413
-0.0028999,-0.0014041,0.0068699,-0.0018568,-0.011014,0.0034463,-0.0066964,-0.0088272
0.0027522,-0.016579,-0.0089686,0.0060848,-0.00335,0.0039193,-0.013216,0.005769
0.0088896,-0.0083287,0.014273,-0.0094139,0.0045747,-0.0034865,0.0042663,-0.0031836
0.00010995,0.007639,-0.0093133,-0.0093939,0.012749,0.004617,-0.0012736,-0.0042344
-3.2784e-05,3.1518e-05,0.0062468,-0.0017117,0.0054944,-0.010887,0.0089983,0.0028213
0.00063812,0.007919,-0.0093183,0.013654,-0.017279,0.0046435,0.011364,-0.0052812
0.0019868,-0.0077093,-0.0090983,-0.010095,0.0068213,-0.0035032,-0.0022789,0.0028141
-0.0040347,0.00010028,0.0069249,0.013082,-0.0082471,0.0037399,-0.00093127,0.0036822
0.0057197,0.00017955,0.015302,0.0051609,-0.0078793,-0.0048438,-0.023819,0.012856
-0.00029459,0.00040175,-0.0074508,-0.010346,0.015692,0.0098653,0.0071412,-0.0011026
-0.006699,0.00078692,0.0088969,-0.0021609,0.0077752,-0.0067501,-0.0017141,-0.0071955
-0.0058394,0.0091171,-0.0060687,-0.0015623,-0.0081521,6.9649e-05,-0.0033111,-0.0056939
-0.005579,-0.0059361,-0.0055729,-0.00081592,-0.008581,-0.00086278,0.0026156,0.0031639
0.0097613,0.0023915,0.0024969,-3.9967e-05,-0.0012317,0.0061231,0.0085298,-0.0042197
0.0012541,0.0027313,-0.020952,0.016253,0.0061798,-0.010198,0.0068504,0.0033522
0.00032799,-0.012828,0.033481,0.0010577,-0.0018879,0.0048681,-0.0022753,-0.0053108
0.0071633,0.0025338,-0.013819,-0.0066595,0.0058707,0.012253,0.0046393,0.0011967
-0.0015306,0.0019453,-0.0064915,-0.014746,0.0060372,-0.0036746,0.0041202,-0.0081609
-0.010039,0.0010928,0.00089744,0.00027368,-0.0092181,-0.0038452,-0.011733,0.0059053
0.0051025,-0.0077299,0.0084554,0.0072621,-0.00087804,-0.01167,-0.0039574,0.012338
0.0047987,0.0068546,-0.007184,-0.0092428,0.0075609,0.0041463,-0.011685,0.011261
-0.0032075,-0.0019069,0.0086874,0.0056265,-0.0073967,-0.0032147,-0.0036898,-0.012909
-0.0033742,0.0051404,0.0091621,0.0051516,-0.0067346,0.0053508,0.020051,0.0022939
0.012042,0.01242,-0.013648,0.0050553,0.0095156,-0.0092179,-0.002911,-0.0057132
-0.011682,-0.011317,0.0026564,0.0053569,-0.013355,0.015517,0.0055947,-0.013594
-0.004218,-0.0036048,-0.012337,-0.0096272,0.010566,0.0091066,-0.0012904,0.0019992
-0.0045703,-0.0035584,0.011605,0.0068622,0.0031169,-0.0052131,-0.0079759,0.0097621
0.002977,-0.0034186,-0.0036942,-1.9102e-06,0.0032983,-0.012054,0.0088881,0.0096786
0.010708,0.0045889,-0.0035604,-0.014721,-0.0045968,0.0039814,0.002296,-0.006042
0.0030739,0.012635,0.0042054,0.0016818,0.0027794,0.011481,-0.0044647,-0.0061007
-0.0042698,-0.010525,0.011817,-0.0055134,0.0019154,-0.013048,-0.011537,0.0017533
-0.0035347,-0.0023728,-0.019762,-0.0050448,-0.0072194,0.0007929,0.0044089,0.001959
0.0052014,-0.0019486,0.01105,0.018746,0.0066632,-0.0014563,0.0042542,0.010193
-0.0016148,0.0063855,-0.0051213,0.0033841,-0.0031906,-0.011642,0.0036312,-0.020394
-0.00067652,-0.00081539,0.009842,-0.0042621,-0.013142,0.0096988,-0.0052046,0.0039418
8.4849e-05,-0.00014921,0.0012406,0.0035723,0.00050813,-0.0073635,0.0013033,-0.0027858
-0.0072276,0.00050719,-0.0074881,0.0033719,0.0067881,-4.2166e-05,-0.00012951,0.0062098
0.00078851,-0.0067456,-0.00069449,-0.0049444,0.0059478,0.016162,-0.0015237,0.022995
0.00071433,0.017059,-0.0017578,0.0020118,-0.0018428,0.0099268,0.0050919,-0.007252
0.016053,-0.0062894,-0.0027739,-0.014807,0.0069072,0.012236,-0.0035902,-0.014343
-0.015598,0.0012782,0.0041824,0.0071945,-0.0069448,-0.016379,-0.0040485,-0.0061727
-0.00037891,-0.014935,-0.0042143,-0.0099346,0.003271,-0.013887,0.0037438,0.0016113
-0.0006876,-0.00019682,-0.0044427,-0.0034725,0.0060052,-0.0041625,0.0041273,0.0012433
-0.00082406,-0.0012889,0.003528,0.011182,-0.0069002,-0.0031484,-0.0029897,-0.0071725
0.014873,0.013166,0.019661,0.01077,-0.0045321,0.004632,-0.0021176,0.0077508
-0.00047701,0.004241,-0.0030242,0.0031927,-0.0027935,0.0035944,0.0065846,0.0070878
-4.3203e-05,-0.0045018,0.0056355,-0.0037649,-0.0018659,0.0017585,-0.008289,0.0065717
-0.022956,0.0026549,-0.017024,-0.0024291,0.005997,-0.0083647,0.0078231,-0.001549
0.0088324,-0.0054866,-0.0086406,-0.0086503,-0.0025957,0.012661,0.00016186,-0.0016386
0.0093129,-0.0054774,-0.00054441,0.008553,0.0037482,-0.0051226,-0.0078352,-0.0093511
0.0018657,0.0026584,0.0072551,-0.0057684,0.0017992,0.0088809,0.0073455,-0.001301
-0.013549,0.0032439,-0.0086244,0.0028644,-0.00038817,0.00797,-0.0088416,-0.00098288
0.0021057,0.0040216,0.014412,-0.012546,-0.0025692,-0.015614,-0.0015267,-0.0084491
0.0097559,-0.0028996,-0.0016605,0.010483,0.0032915,-0.0072427,-0.0017747,0.015318
-0.0062291,-0.0019724,-0.0020771,0.009537,0.0017516,0.0016906,-0.0016293,-3.3333e-05
0.0010275,-0.0010775,0.0053809,-0.0074005,0.00075439,0.0031733,0.014598,0.007957
0.0081002,-0.00026719,0.005072,-0.0010381,-0.015253,0.004797,-1.2618e-05,-0.0076244
-0.00060555,0.00042689,-0.0030552,-0.010191,0.00061538,0.0063508,0.0012627,6.5149e-05
-0.001594,0.008807,-0.01125,0.0044303,0.0092437,-0.0079641,0.0025614,-0.00024053
-0.0025849,-0.014179,0.0038824,0.0039284,0.002707,0.00079916,0.0036093,-0.0085319
-0.011266,0.0018077,-0.0045369,0.0040054,0.0042798,0.0013455,-0.0036575,-0.001331
-0.0040571,0.017745,0.0026021,0.0046338,-0.0018584,-0.0062992,-0.019408,0.0058068
0.0035492,-0.013197,-0.0058593,-0.0021249,-0.00028487,-0.0064253,-0.0046265,0.01297
0.011641,0.0027807,0.0092581,-0.00084669,-0.0068031,0.0010868,0.0095284,-0.010998
-0.0032112,-0.0045969,0.0011929,0.00041998,0.00971,0.0085478,-0.0079837,-0.0035182
0.0057801,-0.0040581,0.0012771,-0.0063628,-0.013302,0.0082417,0.021247,-0.0035999
-0.00063259,-0.0034239,-0.0060865,-0.0057419,-0.0055073,0.00021667,-0.0040387,0.0043936
0.0085488,0.0050696,0.0025015,0.002195,0.0019253,-0.0077225,0.0023604,0.0048049
0.001805,0.0057037,0.0035025,0.0096456,0.009116,-5.1154e-06,-0.0062482,0.0053727
-0.013277,0.013971,-0.0032329,0.0010872,0.00056709,0.0076647,0.0014635,-0.0018174
-0.005571,-0.0015293,-0.00225,-0.007683,0.0076359,-0.0082261,0.0098438,-0.0090618
-0.0063151,-0.009683,0.014104,-0.0086446,0.0069554,-0.00084826,-0.012472,0.014799
0.00027111,-0.0027604,-0.0089754,0.006218,-0.0092547,-0.0092631,-0.0031569,-0.016222
-0.0089824,-0.012008,-0.0012219,0.0058142,-0.017552,0.0056439,-0.0014717,-0.0005565
0.020934,0.0017423,-0.0094765,0.0058529,0.013309,0.0049026,0.015828,-0.00064526
0.0043871,0.0074419,-0.0023786,-0.0014851,-0.010422,0.0042502,-0.013921,-0.00076521
0.0040971,-0.0024551,-0.0032023,-0.0084827,0.012838,-0.0040193,-0.004901,0.0070049
-0.003286,0.0035857,0.011668,0.0081349,-0.0028169,-0.0042034,0.011567,-0.00068534
-0.01001,0.002376,0.011136,0.0012977,-0.0026554,0.011542,0.0042094,-0.00036157
-0.00064593,0.0018952,-0.0047038,-0.0057434,-0.002263,-0.011489,-0.0035159,0.0079468
0.0088958,-0.0056165,0.0032279,-0.005316,0.0061959,0.00476,-0.0037447,0.00070733
0.010482,0.0032066,-0.0041852,0.0025139,-0.00072006,-0.002314,-0.0042144,-0.0065968
-0.011804,0.0047441,-0.0036101,0.0021398,0.00038937,0.0062327,0.0029734,0.001502
-0.011291,-0.0012642,-0.0029815,-0.0063434,0.0094537,0.0068494,0.0022797,-0.0063816
-0.0036875,0.00051708,0.0054069,0.00064938,-0.020501,-0.023989,0.0015904,0.00092316
0.0032458,-0.005804,-0.0019475,0.0076588,0.0041589,0.0074204,-0.0068539,-2.1733e-05
0.0018657,0.0030133,-0.0094322,-0.0086058,-0.0026311,0.0073267,0.0082239,0.0064942
0.0080446,-0.004377,-0.0013872,0.014454,0.0058826,-0.0086043,-4.8161e-05,-0.0028058
0.0064326,-0.012335,0.0066265,-0.0012537,0.01397,0.0065733,-0.00043555,-0.0042736
-0.0027197,0.0105,0.006864,-0.001073,-0.0018803,0.0060691,0.0070381,-0.005499
-0.0036027,-0.0060127,-0.00062776,-0.00070944,-0.010441,-0.0022226,-0.016711,0.0015245
-0.011749,0.016441,-0.00021229,-0.0080783,-0.0038608,-0.010424,-0.001384,0.0091105
0.0040805,-0.0001031,0.0080857,0.00016173,0.01016,0.0049421,-0.0016699,0.0016659
0.012532,-0.0086682,0.00078085,0.00050598,-0.015076,-0.0029869,0.013684,0.0025576
-0.0021963,0.014213,-0.014364,0.00074075,-0.0012217,0.0048365,-0.0021973,0.0038143
-0.0012583,-0.0096175,-0.0061291,0.00087848,0.0050788,0.0049401,0.0053652,-0.0025894
0.0073195,-0.0021075,0.002051,0.00095677,-0.0037892,0.0050934,-0.0027102,-0.0012489
-0.015698,0.005415,0.0023976,-0.0067947,0.019173,-0.010367,-0.0030095,-0.0079702
-9.4078e-05,-0.010541,-0.0050396,0.0010875,-0.0041385,-0.010211,-0.0033625,-0.015047
0.0072494,-0.0031087,0.018843,0.0089724,-0.003495,0.0055652,0.0040434,0.00094147
-0.017021,0.0043137,-0.004071,0.0090061,0.0053056,0.0057413,-0.0042036,0.016621
0.013183,-0.0038228,-0.011324,0.001121,-0.0013963,-0.0018256,-0.0046151,0.00086048
-0.0035174,0.0038183,0.012618,-0.014756,-0.00038483,-0.0014659,0.0028779,0.0084816
0.011178,0.011681,-0.010502,0.0003876,-0.015271,-0.00096421,0.0027242,0.00054312
0.002717,-0.0036448,0.020742,-0.0081428,-0.0070846,0.0074888,0.010611,-0.0072469
-0.0053934,-0.0031223,-0.010952,-0.0012334,0.016365,0.00041464,-0.0046735,-0.00704
-0.0053368,0.0053608,-0.011887,0.013408,0.00047591,-0.014452,-0.0040627,-0.00666
0.0028335,-0.0095527,0.0023415,-0.0031425,-0.007736,0.017474,-0.011024,0.0016547
0.0034047,0.0067114,-0.007209,0.0039505,0.0075109,-0.0054795,0.013444,0.017824
-0.0037211,-0.0084391,0.0065294,-0.0042512,0.0072896,-0.0052846,-0.001057,-0.0051252
-0.0030032,0.007447,0.0047279,0.0035797,-0.008313,0.010186,6.1553e-05,0.0030214
-0.002311,-0.0003128,-0.0045713,-0.011605,0.0076048,-0.013762,0.0010706,-0.004695
-0.0016688,-0.016036,0.010063,0.0048272,0.00032428,0.0010442,-0.0059399,-0.004888
0.0067387,0.01506,0.0018548,0.013702,-0.014602,0.0078372,-0.0054265,-0.0053766
-0.00050872,-0.0084785,-0.013571,-0.00075766,0.0096059,-0.00105,0.010365,0.0016947
0.0078572,0.015005,0.010565,-0.0074657,-0.0052707,-0.0098295,0.0023425,0.0086009
-0.0072187,-0.0081827,0.0037838,-0.0065644,0.0031857,0.0050889,-0.0060535,0.0076485
0.001129,8.6032e-05,-0.010679,0.0096645,-0.011964,0.0047584,0.0086521,-0.0010305
-0.006188,0.0085081,0.0060421,-0.013495,0.0039173,0.0048636,-0.00034293,-0.017311
0.0020432,-0.014265,-0.00089445,0.0099318,0.011728,-0.0024139,-0.0094966,-0.0098461
0.017969,0.009766,-0.0081363,-0.005903,0.0036208,-0.0015174,-0.010869,0.013605
-0.020945,-0.0054595,-0.0078788,-0.014012,0.0030064,-0.00037654,0.0034895,0.013977
-0.0053522,0.010272,0.015562,0.024769,-0.0057471,-0.014762,0.010265,0.0068305
0.01005,-0.013407,-0.0080257,0.0011262,0.00082684,0.017675,0.0095512,-0.0079455
0.0018256,0.0016327,0.0074045,0.0010018,-0.0084426,-0.0047675,0.0013996,-0.014867
0.0012389,-0.0070531,-0.00056287,-0.0069074,-0.0099842,0.0037395,-0.0063732,0.0015518
0.0083147,0.0075102,-0.00064021,0.00074581,-0.0036221,-0.0037513,-0.0059883,0.0021351
-0.0081612,0.0063816,-0.00065578,0.00042873,0.018647,-0.011646,-0.0053147,-0.0053692
-0.016891,-0.0025046,0.0071448,-0.00010963,-0.0055111,0.0035035,0.0033959,0.010281
0.021247,0.0043929,0.0070616,-0.00087074,0.0099467,0.018303,0.0044585,0.010072
-0.010863,-0.004101,-0.00096348,-0.0017787,0.0025361,0.001576,-0.0099918,-0.0059032
0.004042,0.0033082,-0.016942,-0.010498,-0.0043853,-0.0075155,0.014686,-0.0062729
