0.0107,0.071026,0.089497,0.013343,-0.0081766,0.002913,-0.0018006,0.0083885
-0.02029,-0.036622,0.035481,-0.024839,0.0181,-0.014479,0.0046331,-0.0011862
0.0028665,-0.0037925,0.14313,-0.0076585,-0.0020988,-0.024146,-0.0047847,0.012203
-0.013554,-0.0025434,0.15,0.0099683,0.01672,0.036708,0.0013853,-0.0056765
0.00089661,0.02941,-0.049623,0.0043283,-0.027495,0.004358,-9.3045e-05,-0.0074748
0.007376,0.03718,-0.20836,0.0063857,-0.0023926,-0.019345,-0.0012105,0.01503
-0.0094739,-0.065299,-0.29521,-0.0075559,0.0057314,-0.010805,-0.025233,-0.0082059
0.020915,-0.020199,-0.081152,0.0013684,-0.011127,0.022138,0.021709,0.008832
-0.0028305,0.024232,0.1653,-0.0060149,0.0095412,0.032378,-0.0087819,-0.012117
-0.0025085,-0.033198,0.10689,0.0015348,-0.0023527,0.00389,0.00041963,0.0067356
0.0062026,0.073636,0.11762,0.0084855,0.023921,-0.0091309,0.025705,0.0023986
-0.015939,-0.037529,-0.1171,-0.00060627,0.010811,-0.038412,-0.003501,-0.01008
0.0011082,-0.030264,0.10152,-0.017686,-0.025393,-0.037436,0.0062397,0.0077865
0.017965,0.041072,0.10225,-0.0034277,-0.04495,0.024882,0.0077523,0.024271
-0.020354,-0.03437,0.070282,0.018976,0.0074222,0.023601,-0.046061,-0.023423
0.010936,0.040091,0.0010359,0.0028329,0.0071276,0.021487,0.00095021,-0.010344
0.010188,0.0061819,-0.23637,0.010739,0.04023,-0.004473,-0.015234,0.001234
0.00093158,-0.0039407,-0.093196,-0.011998,0.020582,-0.030332,0.0071087,0.0039767
0.030307,0.024614,-0.066538,-0.026413,-0.028915,0.038186,0.091635,0.037609
-0.088772,-0.0025779,0.10614,0.029824,0.02376,-0.025008,-0.089564,-0.084635
-0.019881,-0.10163,0.087958,0.00025595,-0.017609,-0.024247,0.041781,-0.041781
0.010873,-0.02278,-0.049726,-0.021577,-0.0054387,0.0093978,-0.068978,0.080691
0.011608,0.085588,-0.0074742,0.01883,-0.010675,0.005568,0.070271,0.056371
0.20114,0.044042,0.046218,0.011978,-0.010178,0.018651,0.021866,0.11164
-0.12387,0.0013927,0.060139,-0.010939,-0.0038628,0.0012229,-0.026886,-0.16022
-0.0029381,-0.073239,-0.087761,-0.034278,-0.014736,-0.008412,0.0097965,-0.033257
-0.061627,-0.023332,0.034214,0.02016,0.020368,-0.0033158,-0.071258,-0.031514
-0.058327,0.034038,0.08321,-0.0037701,-0.0071773,0.062516,0.050371,0.047686
0.10806,0.051943,-0.081548,-0.0044036,0.028294,-0.10071,-0.062552,0.040076
-0.11744,-0.1651,-0.0078674,0.041766,0.041305,0.10811,0.12161,-0.038656
0.21818,0.30463,0.1154,0.0097645,-0.022639,-0.108,-0.076402,0.10084
-0.14282,-0.046688,-0.19752,-0.030103,-0.02298,0.0090257,0.070358,-0.11131
0.057549,-0.070248,-0.010279,-0.0075377,0.00096611,-0.0011774,-0.14099,0.012887
-0.024176,0.02383,0.04358,-0.016278,-0.021449,-0.028481,0.047411,-0.018352
-0.036077,-0.31006,-0.044102,-0.00158,0.0032045,0.037263,0.010354,-0.0016513
-0.048074,-0.12508,0.093791,0.013223,0.0043846,0.071696,0.067729,-0.030765
0.088659,0.33015,0.035399,-0.010807,-0.010207,0.067423,0.11741,0.16747
0.046327,0.056416,0.030677,0.028011,0.014114,-0.1238,-0.13022,-0.024651
-0.12796,0.16293,0.040387,0.020378,0.022722,0.029309,-0.05058,-0.045219
0.073709,-2.5955e-05,-0.1076,-0.018061,-0.015553,-0.059154,-0.026572,0.0193
0.02633,-0.13781,-0.054145,-0.017026,-0.0069124,0.0015725,-0.042325,-0.089173
0.026681,0.082811,0.021022,-0.0078322,0.017392,0.063385,0.035518,-0.026782
-0.050361,-0.34857,0.01654,0.0016305,-0.013011,-0.04505,0.012324,-0.003988
-0.07209,0.066151,-0.067112,0.0034793,-0.0044658,-0.010557,0.10745,-0.035687
0.0083091,0.076161,0.036359,0.021092,0.019488,0.011297,0.055602,0.16014
0.057994,0.15842,0.14801,-0.0080848,-0.011539,-0.0023959,-0.080732,0.029368
-0.016831,-0.068438,-0.15338,-0.03724,-0.019446,0.057978,-0.059764,-0.08404
0.033707,0.03059,0.1405,0.035103,0.011431,-0.057732,-0.061858,0.038422
0.0062307,-0.14362,-0.048184,0.013515,0.0030612,0.071787,0.099664,-0.010125
-0.037142,-0.0029109,-0.10217,-0.031842,-0.013177,-0.038743,-0.01352,-0.050852
-0.0031329,0.048013,0.064398,0.047303,0.025344,-0.015433,-0.011478,0.0091028
0.06091,0.072216,0.029445,-0.022653,0.0015341,-4.6812e-05,0.0037644,0.067466
-0.056318,0.0066484,-0.19953,-0.038721,-0.006443,-0.032629,-0.022643,-0.12615
0.043463,0.05288,0.21295,0.022457,-0.022054,0.1127,0.14386,0.068862
-0.030252,0.060259,-0.093072,-0.026636,0.0092974,-0.11121,-0.10555,0.012241
-0.050494,-0.20013,0.069131,0.032802,0.0093521,-0.0089493,-0.012189,-0.045416
-0.086948,0.12919,0.11276,0.029011,0.009214,0.021465,-0.098363,-0.033102
0.18924,-0.030885,-0.19739,0.0012317,0.0087631,0.01187,0.082455,0.13574
-0.057211,-0.20352,0.20834,0.0043935,-0.0076822,-0.0059174,0.00011193,-0.030659
0.056969,0.089292,-0.1859,-0.078381,-0.024461,0.0075294,-0.032142,-0.00090494
-0.061818,-0.064199,-0.067364,0.018904,-0.0023769,0.07568,0.079653,-0.032925
-0.0074801,0.018254,0.072572,0.0075838,-0.011527,-0.12213,0.022571,-0.0098323
0.032084,0.049719,-0.030521,0.0052164,0.018647,0.038432,-0.016916,-0.025755
0.025113,0.21099,0.030982,0.027702,-0.0053912,0.025256,-0.024633,0.020528
-0.028871,-0.021612,0.055216,-0.018593,0.025853,0.15004,0.083776,0.042868
-0.052053,-0.079317,-0.011614,0.022505,0.018617,-0.12679,-0.13057,-0.013463
0.018003,0.15266,0.15117,0.002292,-0.011627,-0.063051,0.050189,-0.023318
-0.060703,-0.062651,-0.17537,-0.017145,-0.018257,-0.040926,-0.11632,-0.0098394
0.11064,-0.20379,-0.030933,-0.028478,-0.032819,-0.035765,0.073566,0.0039116
-0.045674,-0.091856,0.044547,0.022503,0.030358,0.032157,-0.0040183,-0.0051348
0.0019769,-0.023038,-0.067044,-0.0052164,0.0070315,0.062936,0.027406,-0.0054681
0.05846,0.035935,0.17257,0.013107,0.0065209,0.065734,0.036529,0.034236
-0.0090806,0.15819,-0.12775,0.0070679,-0.033595,-0.029027,-0.053553,0.035704
-0.044641,-0.012796,-0.02294,-0.023274,0.004064,0.036426,0.046944,-0.032672
0.021709,0.048543,-0.083317,0.0082009,0.018209,0.003502,-0.0056023,0.023931
-0.0057535,0.053967,0.19126,-0.023258,0.0091413,-0.011925,0.054005,-0.044998
-0.041439,-0.051928,-0.0428,0.0076006,0.0083929,-0.12077,-0.064121,-0.013314
-0.015259,-0.03687,-0.011962,0.0072157,-0.022879,0.019315,-0.032856,-0.021869
0.033639,0.033635,-0.013106,0.014734,-0.014232,0.11041,0.037483,0.01528
0.050596,0.054811,0.0709,0.04575,0.018733,-0.1292,-0.025685,0.067109
-0.034616,-0.015076,0.0916,0.0063936,0.0056171,0.0036817,-0.050864,-0.022237
0.012473,-0.17753,-0.26337,-0.072231,0.00091873,0.048614,-0.022497,-0.033527
-0.034635,-0.0028551,0.029774,-0.026166,-0.011264,0.061024,0.17674,0.018098
0.042837,-0.012962,-0.051858,0.0039444,-0.0078355,-0.067725,-0.14045,-0.0075746
-0.01292,-0.080189,0.093926,0.010374,-0.0047941,-0.0089577,0.065097,0.022546
-0.045655,0.19707,0.1239,0.040153,0.036554,0.10477,-0.011354,-0.047679
0.061854,0.024836,-0.024184,0.023142,0.0065141,-0.039086,0.020584,0.031678
-0.010618,0.037921,-0.10048,-0.032714,-0.032642,0.020155,0.12151,0.041626
-0.044168,0.033838,0.04289,-0.017982,-0.010693,-0.10064,-0.22453,-0.057271
0.039542,0.011801,0.014462,0.020435,0.01774,0.012377,0.060465,0.00016744
-0.0092505,-0.0067221,0.0007911,-0.0034951,0.013835,0.031074,-0.023391,0.025992
-0.080944,-0.24315,0.047947,0.011669,-0.02202,-0.036468,-0.0069115,-0.0036135
0.15275,-0.075264,-0.1414,-0.012308,-0.0033958,0.044621,0.048083,0.0048469
-0.081529,0.29147,0.12027,0.0026431,-0.0078859,-0.014102,0.0095855,-0.026838
0.036465,-0.0038138,-0.22119,-0.037217,0.011878,-0.0010999,0.011185,0.01861
-0.048116,-0.086529,0.13205,-0.0068063,-0.014032,-0.025308,-0.0011943,-0.030441
0.0082246,0.0049677,0.095217,0.062751,0.063046,0.093136,-0.042827,0.013856
0.025509,-0.024519,-0.010247,0.0075317,0.00096513,-0.02872,0.034783,0.011258
-0.019984,0.05393,0.019653,-0.0082844,-0.036334,-0.024121,-0.010766,-0.0066426
0.027764,-0.10082,-0.13496,-0.0315,-0.033474,-0.010898,0.038859,0.054153
-0.042333,-0.087939,0.064917,-0.023037,0.0014087,0.0023903,-0.019994,-0.032795
0.027484,0.18802,-0.0062969,0.0092458,-0.0023543,-0.024053,-0.062871,-0.017486
-0.043988,-0.084768,-0.029262,0.018364,0.025186,-0.02835,0.0034807,-0.017209
0.055875,0.18691,0.11197,0.035409,0.021172,0.098426,-0.0010283,-0.0086826
-0.016496,0.032738,-0.060447,-0.017941,-0.014737,-0.042405,0.063921,0.03916
0.012547,-0.049547,0.0539,0.0065598,0.02654,0.010071,0.034049,0.024583
0.010412,-0.10918,-0.069197,-0.024046,-0.02709,0.013859,-0.059535,-0.013493
-0.053938,-0.05426,-0.055003,-0.0082526,0.01178,-0.0072178,-0.037199,-0.082977
-0.016238,0.036198,-0.020397,-0.00068863,-0.020845,-0.076047,0.093291,0.081714
0.10025,-0.071877,0.035443,-0.0089975,-0.030985,0.034591,-0.035079,-0.0037841
-0.063704,-0.1115,0.1137,0.029565,-0.0026508,0.020692,-0.062623,-0.026919
0.031056,0.1381,-0.042101,-0.0097358,0.025529,0.0078757,0.011095,0.0045758
-0.037313,0.014875,-0.0088324,0.0061304,0.030535,-0.0033851,0.014712,-0.0029651
-0.042286,0.17653,-0.051146,0.0069726,0.020509,0.034053,0.02687,0.0052262
0.062884,-0.03281,0.01119,-0.015031,-0.012171,-0.0282,0.0089496,0.029218
0.043604,-0.0046144,-0.040538,0.025915,-0.012769,0.012823,-0.0075033,0.0065714
-0.045744,-0.13927,0.09006,-0.042322,-0.028227,-0.030692,0.040121,-0.031403
0.0054111,0.099652,0.050487,0.014306,0.0038195,-0.034159,-0.082642,-0.006512
-0.022074,-0.017124,-0.090187,0.00014233,-0.018361,0.0019485,0.014564,-0.028063
-0.011386,-0.13244,0.057324,0.032069,0.037868,0.069321,-0.012432,0.028985
0.037164,0.12749,-0.094122,-0.015128,-0.015178,-0.020034,0.0077129,-0.022904
-0.032896,-0.065363,0.040566,-0.0087158,-0.0058275,0.022488,0.043152,0.0036145
0.028322,0.063837,0.023557,-0.018932,0.018825,-0.037868,-0.016092,0.053547
0.0020798,-0.037081,-0.035522,-0.02211,0.011679,0.017413,0.087266,0.0092626
0.0057067,-0.068076,-0.0030629,0.052417,0.011606,0.047666,-0.10807,0.042124
-0.023021,-0.1431,0.044016,0.0019464,-0.012742,-0.07191,-0.016283,-0.090533
0.025681,0.068674,-0.056947,-0.0090268,-0.022243,-0.020571,0.026903,-0.029644
-0.011731,0.38921,-0.046793,-0.0035635,0.0068015,-0.063336,-0.024883,0.00599
-0.033105,-0.009255,0.16927,0.0029809,-0.0032716,0.10515,0.016608,0.016623
-0.03004,-0.16669,-0.14257,-0.036143,-0.020605,0.024536,0.019431,0.026224
0.060466,0.0010222,0.10355,0.0040295,-0.021122,-9.6825e-05,-0.023401,-0.0035583
0.027802,-0.1958,-0.0070505,0.052987,0.01913,0.0079191,0.021564,-0.0016468
-0.026391,0.11582,-0.10049,-0.014603,0.02226,-0.037541,0.021842,-0.022053
0.014876,-0.018608,0.19689,0.019591,0.019352,-0.0119,-0.030414,0.021632
-0.028533,-0.044989,-0.20219,-0.040173,0.0098007,0.0061563,0.028471,-0.011023
-0.024441,0.013402,0.044921,0.0088659,0.0082474,-0.023013,-0.028732,0.020501
0.057695,0.094675,0.023543,0.010229,-0.0021245,0.017289,0.00028186,0.014287
-0.0093481,-0.15989,-0.063295,-0.043953,-0.022478,0.032987,0.020932,0.0010684
0.00050012,0.21879,0.11296,0.033935,0.016627,0.023974,-0.014358,-0.019701
0.0088883,0.042894,-0.095305,-0.03712,-0.04143,-0.064319,-0.020112,-0.017218
-0.046594,-0.20419,0.0082442,0.040043,-0.024516,-0.020624,0.0035167,0.00045374
-0.017114,0.12443,-0.028512,5.5066e-05,-0.0098893,0.022725,0.0098105,-0.01357
0.012011,0.019151,0.10771,0.014949,0.011591,-0.011848,0.022637,0.011223
0.010242,-0.091916,0.011096,-0.0011798,0.025834,0.079305,-0.043328,-0.034222
-0.037412,0.040302,0.0020065,-0.0015347,0.026468,-0.031542,0.046978,-0.001156
0.11164,0.079928,-0.052644,-0.0018798,0.0067416,-0.047298,-0.057367,0.1106
0.012168,-0.21402,-0.036129,-0.017973,-0.0016039,0.0085982,0.058186,-0.027124
-0.062659,0.012267,0.019817,-0.018627,-0.0065355,0.034371,-0.027981,-0.0083506
-0.0040103,0.066438,-0.010174,-0.019428,-0.0087925,-0.001608,-0.0033828,-0.021032
-0.031332,-0.13431,-0.0012765,0.057888,0.045162,0.017367,0.037951,-0.018803
0.0031202,0.25649,0.030906,-0.0052252,-0.025681,-0.073269,-0.045096,0.0057212
0.028478,-0.0094591,0.00059375,-0.0054358,-0.042866,0.054168,0.043739,0.0054281
0.028799,-0.07239,-0.084208,-0.012902,-0.030755,-0.053761,-0.024294,-0.0040361
-0.042825,0.066664,0.05006,-0.0041348,0.025796,0.1028,0.00028233,-0.03021
0.016973,-0.0085829,0.067431,0.020795,0.0095954,-0.085492,-0.031304,0.013301
-0.03354,-0.043255,-0.0088568,-0.0086168,0.0069943,0.022202,0.029299,0.002029
0.017141,-0.0013374,0.031817,0.02454,0.026503,-0.0034736,-0.013058,0.030199
-0.025733,0.0052521,-0.013996,-0.02067,-0.0091767,-0.029305,-0.0095563,0.03563
-0.028915,-0.071913,-0.099618,-0.0038985,0.0023157,0.054482,0.040326,-0.0597
0.14064,-0.0065658,0.024991,-0.0034556,-0.00086645,-0.0096004,-0.0034584,0.033169
-0.01708,-0.055566,-0.030481,-0.0037693,-0.010482,0.0052113,-0.02318,-0.006325
0.0055691,0.048651,-0.023328,-0.020377,-0.034172,-0.057286,-0.018402,0.0090229
-0.041667,-0.011737,0.07046,0.02505,0.021729,0.037182,0.034593,-0.02259
-0.10429,0.22673,0.01695,0.015594,0.031916,0.069645,0.018721,-0.06221
0.052034,0.11772,0.066276,-0.017221,-0.0040767,-0.06174,-0.027025,0.054277
-0.033478,-0.50147,-0.094324,-0.01067,-0.0086688,-0.029123,-0.0012912,-0.0088805
0.061331,0.2446,0.0032616,0.011944,-0.0058303,0.011038,-0.029385,0.0063851
0.024259,-0.089832,0.037827,0.042847,-0.0038019,0.0039584,0.052402,0.045624
0.0039388,0.087764,0.11781,-0.0039385,-0.0028356,0.035604,-0.021907,-0.016016
-0.007462,0.049042,-0.2185,-0.065994,0.0048456,-0.034513,-0.010441,-0.030085
-0.018028,-0.028359,0.044157,0.020662,-0.01183,0.012564,0.0084231,0.026728
-0.020454,0.0098154,-0.008182,-0.0096435,-0.005639,-0.04951,0.0032603,-0.0020605
0.039286,-0.0568,-0.031171,-0.0006726,0.016049,0.068504,-0.0025886,-0.046437
0.027669,0.1302,0.10896,0.031955,0.022424,-0.0083062,0.01429,0.018292
-0.095004,-0.27313,-0.039799,-0.0055224,-0.025225,0.0090918,-0.016382,0.012164
0.014555,0.069757,-0.0076402,-0.011605,-0.017343,-0.035695,-0.047649,0.013095
0.020194,0.02724,0.042162,0.0057606,0.014799,-0.0022733,0.069031,-0.0024734
0.007914,0.085201,-0.022809,0.0073099,0.024097,0.023145,0.021276,-0.018941
0.056183,0.049793,0.0083501,-0.0071985,0.0023531,0.016855,-0.018914,0.034089
-0.037532,-0.054428,-0.021029,0.0088768,0.0037925,-0.036982,-0.027977,-0.01507
0.016624,-0.0472,-0.025694,0.0006785,-0.01889,0.0021363,-0.037032,-0.0098861
-0.061678,0.10269,0.040436,-0.0084099,-0.019115,-0.006433,0.016541,-0.028143
-0.021481,-0.027181,0.02037,-0.018295,0.018669,0.015522,0.031279,-0.006989
0.028708,-0.023694,0.030745,0.0025148,-0.022553,-0.0021418,0.015049,0.030432
-0.0042207,-0.19263,-0.13183,-0.00030833,0.0060557,0.026739,0.038163,0.02961
0.02065,0.082146,0.0092456,0.020523,-0.012153,-0.0069609,-0.071307,-0.032873
0.087565,0.12005,0.055832,-0.0049161,0.0093237,-0.01706,-0.016567,0.053783
-0.038403,0.076753,-0.0072586,-0.01384,0.031883,-0.026782,0.022606,-0.015369
-0.022201,0.030179,9.5216e-05,0.009501,0.0010891,0.02653,0.046145,-0.014068
-0.02896,-0.17568,0.015694,0.010358,-0.012764,-0.036732,-0.063172,-0.051955
-0.020693,0.03021,0.031812,0.011936,0.0056676,0.03341,-0.00066777,-0.0041959
-0.0061379,-0.20259,0.0014385,0.006065,0.0012075,0.025896,0.022726,0.027603
0.0062217,0.12731,0.033665,-0.0076559,0.0045171,0.026466,0.022641,0.0044392
0.023826,0.13854,-0.090577,-0.060844,-0.024037,-0.011979,-0.00093087,0.020176
0.015347,0.011987,-0.035577,0.025925,-0.0067744,-0.027125,0.0066833,0.0046104
0.035657,0.021855,-0.0045132,0.0025285,0.0091863,-0.042493,-0.024845,-0.0031304
-0.016397,-0.042572,0.026194,0.0017982,-0.023046,-0.050234,-0.056455,-0.010849
-0.015213,-0.13473,0.064647,0.039497,0.021716,0.051354,0.060307,0.036115
-0.014717,-0.052227,-0.01381,-0.016969,0.018811,0.043695,-0.002652,-0.041953
-0.037487,0.18834,0.025499,0.020159,-0.0001043,0.036295,-0.010927,-0.03411
-0.027955,1.3639e-05,-0.1063,-0.044158,-0.011185,-0.0020675,0.019875,-0.002797
0.069344,0.053811,0.12209,0.0012723,-0.0062683,-0.040231,0.0038186,0.052082
0.0049607,-0.057047,-0.094136,-0.023019,-0.00071572,-0.023678,0.011218,0.0056343
0.01348,-0.13732,0.072959,0.023743,0.02908,0.023966,-0.0047781,-0.0092533
0.00096753,0.0087039,-0.056573,0.024425,0.0050796,-0.022436,-0.051914,-0.0081955
0.021543,0.092749,0.017006,0.018034,-0.033632,0.0089572,0.033994,0.016552
-0.066279,-0.056125,0.027834,0.0044134,-0.024584,0.0010328,-0.035964,-0.021089
0.009928,-0.015257,-0.086792,-0.04792,-0.006916,0.0086415,-0.0038423,-0.0041226
0.01479,0.035988,0.024504,-0.014229,0.01923,-0.014895,0.021037,-0.010882
-0.021274,0.058164,0.033403,0.011491,0.038006,0.0087114,0.038591,0.020936
0.057447,0.15166,0.095937,0.029039,0.01785,0.0092214,0.032955,0.028681
-0.077343,-0.26353,-0.1397,-0.032029,-0.033814,-0.013422,-0.050918,-0.018978
0.043328,0.068102,0.060634,0.031342,-0.00020878,0.018715,0.044387,-0.02828
0.021603,0.050463,-0.014127,0.00039247,0.0011136,0.027219,-0.0095803,0.0087002
-0.032275,-0.091823,0.0032409,-0.015461,-0.0066457,-0.027299,-0.1036,0.0062357
-0.023521,0.14011,0.05053,0.015114,0.0077137,-0.020118,0.0045728,0.019299
0.048924,-0.11314,-0.043549,-0.032762,-0.018146,-0.013899,-0.028558,-0.029913
-0.024946,0.0011796,-0.028139,0.012933,-0.02137,0.030434,0.10205,0.0073447
-0.010108,0.0010409,-0.10533,0.011731,0.014147,-0.043175,0.037353,-0.0014982
-5.9194e-05,-0.05564,0.08531,0.002843,0.026418,0.039062,0.0041425,-0.0094324
-0.010638,0.0066859,0.099328,-0.013616,-0.0075424,0.0041528,-0.013145,0.030416
0.043413,0.14473,-0.054988,-0.0063335,0.021946,0.0088213,-0.053635,0.0085382
0.012597,-0.076033,-0.0026921,0.016879,-0.0021815,0.0066218,-0.01588,-0.0049947
0.059699,-0.11466,0.05247,0.0012681,-0.0096646,-0.033365,0.014114,-0.0026626
-0.089991,0.22472,-0.070297,0.0014041,-0.00068702,-0.0015703,0.036391,-0.031622
-0.023437,-0.066574,-0.013042,0.0015151,-0.014558,0.00047685,-0.058245,-0.0061502
0.00097474,0.0015629,0.074309,-0.014169,-0.020275,0.011702,0.035172,0.01895
0.037923,0.012121,-0.051735,0.0089276,0.013213,-0.0072593,-0.019003,0.0046012
-0.052653,-0.069462,0.037633,-0.007378,0.0076392,0.021271,0.0059998,-0.017885
-0.027552,-0.035407,-0.017273,-0.00057971,0.0097861,-0.0048173,0.00082575,0.0062758
0.091045,0.049228,-0.09114,-0.017492,-0.0038574,0.0076404,-0.011316,0.061547
-0.078436,-0.059393,0.035646,0.012293,-0.0021245,-0.012216,0.13316,-0.039516
0.11343,0.020916,-0.010687,0.018564,0.0070631,-0.0023188,-0.11329,-0.023467
-0.020322,0.079558,0.068079,0.009226,0.00013454,-0.025424,0.006451,0.015916
-0.01089,0.016073,-0.047186,0.0077887,0.0082046,0.012173,-0.0082289,-0.038609
-0.054026,-0.12891,0.10526,-0.032559,-0.015705,0.0012627,-0.0014151,0.016019
0.021365,0.029103,-0.052387,0.0054423,-0.0013141,0.0046874,-0.0043313,0.039116
-0.01223,-0.031807,0.0031347,-0.0031127,0.0045653,0.022919,0.0068767,0.0072053
0.039577,0.12694,0.0056664,-0.019044,-0.021335,0.0096252,0.0095167,0.037468
0.0041845,0.068346,-0.053316,0.012458,0.0071795,-0.026826,-0.057973,-0.12786
-0.0016267,-0.043566,0.067682,0.021168,0.020107,0.015653,0.024103,0.073838
-0.079456,-0.13898,-0.14748,-0.016337,-0.013491,-0.073429,0.014317,-0.036962
-0.04931,0.015734,0.058726,0.001415,0.0082119,0.034378,0.045891,-0.038198
0.13624,0.029205,-0.0012456,0.011718,0.01508,0.057992,0.048489,0.093728
-0.022166,-0.0054003,0.047686,0.0064623,-0.0084393,-0.033864,-0.079901,0.0073365
0.030757,0.028811,0.041571,0.00093442,-0.015507,0.00077724,-0.019741,-0.0083313
-0.024904,0.0068779,0.035157,0.0026407,-0.014059,0.013077,0.040534,-0.015888
-0.032754,0.015092,-0.049702,-0.012056,0.019155,-0.013114,-0.048414,-0.0076831
0.0070794,-0.055318,-0.072448,-0.019757,0.0057901,-0.0080554,0.033026,-0.038564
0.00049464,-0.07077,0.04499,-0.0046912,0.015936,0.0042746,-0.012402,0.039804
-0.013946,0.07114,-0.048934,-0.0056248,-0.013106,0.0078202,0.010597,-0.038233
0.072586,0.25405,0.020883,0.0090703,-0.018987,0.017939,-0.014842,0.039865
-0.060699,-0.27911,0.0046104,0.016317,-0.0018007,-0.035759,-0.017836,0.00073538
0.031198,0.081662,0.019604,0.0085487,-0.00064563,-0.020365,0.017928,-0.022744
-0.01897,-0.092886,0.034717,0.0014536,0.023548,0.0018556,0.0071716,0.024134
-0.015658,-0.044734,-0.028184,0.018332,-0.0073171,0.023389,0.012894,0.016325
-0.020858,0.1088,0.0026547,-0.01143,-0.0072758,0.044534,0.0041008,-0.022837
0.028649,-0.023484,0.017658,-0.010093,0.00024837,-0.020409,0.051088,-0.015356
0.00085275,0.0026345,-0.022444,-0.017088,0.015259,-0.0072172,-0.096393,-0.016041
0.0058741,0.10743,-0.0084114,-0.0092378,0.0065132,0.0060773,0.030013,0.092233
0.0051909,-0.015786,-0.049633,0.0055541,-0.0025114,-0.02734,0.015808,-0.081138
-0.0009741,0.068354,0.0259,0.0039409,-0.0039084,0.0019754,-0.045631,0.0030343
-0.051837,-0.29056,0.046571,0.0096023,-0.036579,-0.0074282,0.040767,-0.014414
0.09427,0.077871,0.028331,-0.0083806,0.0012541,-0.0085239,-0.03757,0.030849
-0.040028,-0.0067609,-0.051929,0.020651,0.0082558,0.037925,0.016324,0.0062826
0.067736,0.10416,-0.02207,-0.0045721,0.00023015,0.022702,0.046423,0.0058537
-0.075584,0.13832,0.0086791,0.0020859,0.031931,-0.038469,-0.0094678,-0.017196
-0.087966,-0.20702,0.009064,-0.01398,-0.0061052,-0.020581,-0.041631,-0.016003
0.053541,0.094203,0.025798,0.0097059,0.026499,0.01376,0.020571,0.032728
0.051939,-0.080007,-0.027352,0.0027264,-0.019058,0.017453,-0.017911,-0.011876
0.024663,0.023405,0.099235,-0.011637,-0.010367,-0.0020164,0.0071468,0.01394
-0.043357,-0.19446,-0.12607,-0.010123,-0.025899,0.0096412,-0.013614,-0.0073257
0.012716,0.072922,0.022999,-0.0085381,-0.01899,-0.018303,0.029027,-0.0056168
-0.040621,0.15429,-0.00058131,0.024193,0.025963,0.01534,-0.013696,-0.012342
0.016232,0.033212,0.045419,0.0097788,0.031007,-0.0068853,0.060864,0.0037073
0.012099,0.17626,-0.073159,-0.012871,0.0042926,-0.022598,-0.075991,-0.019902
-0.013518,-0.0604,-0.0044136,0.018618,-0.022483,0.022947,0.020478,0.018525
-0.013639,-0.15693,0.10359,-0.013015,-0.009772,-0.026282,0.0060331,-0.021494
0.073982,-0.15572,-0.084757,0.0016086,-0.0039961,0.0097441,-0.025879,0.055459
-0.024659,0.018977,0.06355,0.0079091,0.0030043,0.022055,0.065304,-0.0083911
-0.0056514,0.022389,-0.045209,-0.048589,-0.0042127,-0.020203,-0.079588,0.0056888
0.01299,0.073676,0.018517,0.012097,0.013397,0.0082965,0.024267,0.019545
-0.031946,0.12761,0.020086,0.026235,0.032169,0.029652,-0.013128,-0.044922
-0.039339,-0.12584,-0.072092,-0.0058788,0.0048262,-0.018532,0.019875,-0.039142
0.037599,0.019152,0.038517,0.017513,-0.030078,-0.019062,0.014584,0.021522
-0.027408,-0.091228,0.015696,-0.012923,-0.018387,0.012373,-0.012822,-0.018826
0.03967,0.068148,-0.031348,-0.011383,-0.023064,-0.025883,0.023946,0.03549
0.01304,-0.0020584,0.045797,0.006213,0.010244,0.037943,-0.0078137,0.0050449
-0.020568,0.1274,0.012887,0.008214,0.034497,-0.014995,-0.022278,-0.00073118
0.0019989,-0.037055,-0.043863,0.009812,0.018444,0.002704,0.011499,0.025765
-0.051691,0.026056,-0.022503,0.010636,-0.0065177,-0.010644,-0.016297,-0.040936
0.0762,0.033449,-0.047594,-0.020786,-0.040125,-0.055213,-0.02023,0.056324
-0.075616,-0.086779,0.092203,-0.014151,0.011711,0.071876,0.053872,-0.011285
0.125,-0.21821,0.014357,-0.0083014,0.00092954,0.010928,-0.028836,-0.041235
-0.049399,-0.048137,-0.031045,-0.018448,-0.0017941,0.027206,0.02814,0.0051953
-0.021572,0.072892,0.026171,0.018426,0.01947,-0.020253,-0.0098283,-0.036049
0.035889,0.20885,-0.017458,0.0090717,-0.0053845,-0.01448,-0.0022046,0.030723
-0.057053,0.072091,-0.013968,0.016344,-0.013782,-0.025795,-0.011397,-0.0047425
-0.0034035,0.022977,0.0048751,0.0012975,0.002027,-0.022691,-0.029326,0.014657
-0.029137,-0.063207,0.0073662,0.02628,0.010606,0.010981,0.022541,-0.019602
