-0.038671,-0.07927,-0.069442,-0.11747,-0.060574,0.040317,0.010726,-0.017272
-0.070561,-0.16524,-0.24756,-0.032112,-0.03874,-0.038146,-0.028032,-0.019445
0.014961,0.047714,0.12092,0.049758,0.016567,0.0019903,0.0023838,0.0099532
0.022447,0.090279,-0.058917,0.11842,0.050712,0.012183,0.00030569,0.024216
0.092394,0.22721,0.71042,0.22614,0.078957,0.054607,0.012778,0.039084
-0.079965,-0.27688,-0.64487,-0.41083,-0.079105,-0.050894,-0.037895,-0.062575
-0.057136,-0.1104,-0.019234,-0.044582,-0.025997,-0.03139,0.0051548,-0.015137
0.028149,0.061924,0.068206,0.01109,0.0028773,0.011112,0.0098051,0.0016541
0.035413,0.13828,0.099355,0.12307,-0.0012103,0.021627,0.015742,0.02675
0.042961,0.071954,-0.051777,0.14366,0.047042,0.015665,0.031205,0.044364
-0.066219,-0.19899,-0.04855,-0.081795,-0.032296,-0.05358,-0.03741,-0.047268
-0.018565,-0.0096436,-0.091822,-0.11358,-0.020282,0.0015942,-0.0027778,-0.021815
0.037534,0.10973,-0.01411,-0.011743,0.021186,0.025205,0.025261,0.026747
0.031718,0.011665,0.14165,0.038526,-0.01636,0.017501,-0.0008409,0.020098
-0.036155,-0.053045,-0.011435,0.039045,0.00094737,0.0099006,-0.019344,-0.018454
-0.041306,-0.099558,0.0060597,-0.079472,-0.05088,-0.0288,-0.023153,-0.042079
0.078492,0.2003,0.17223,0.14399,0.11019,0.041954,0.041864,0.058649
-0.067672,-0.12259,-0.341,-0.041443,-0.046679,-0.059236,-0.027717,-0.044254
0.043378,0.10285,0.39477,0.13605,0.040975,0.034646,0.010286,0.040049
0.0051954,-0.046274,-0.14605,-0.083403,-0.017932,-0.012471,0.0077243,-0.00068172
0.0051891,-0.00078875,0.10436,-0.11594,-0.005431,-0.013146,-0.019247,-0.017737
-0.026922,-0.089843,-0.61396,-0.12736,-0.031838,0.0092173,0.015988,-0.003049
-0.028477,0.02955,0.40072,-0.040716,-0.004316,-0.0077764,-0.026484,-0.018917
0.024221,0.083567,0.10116,0.19813,0.013912,-0.0014911,0.0023966,0.020717
-0.024762,-0.11527,0.0036527,0.12045,-0.016626,-0.0030609,0.0093041,-0.0013284
0.059242,0.14437,-0.070104,0.039137,0.0759,0.05788,0.049077,0.032022
-0.02824,-0.12899,-0.18866,-0.17796,-0.075385,-0.021823,-0.01905,-0.027902
-0.013682,-0.051612,-0.030039,0.0089992,0.030112,-0.015708,-0.0001652,-0.0095429
0.063807,0.22909,0.50063,-0.039735,-0.013103,0.0057783,-0.012022,0.024238
-0.022482,0.0032585,-0.088567,0.090809,-0.063633,-0.043417,-0.031804,-0.012839
-0.0071111,-0.048406,-0.15775,-0.14534,0.0041486,0.016348,0.010245,-0.0038527
-0.054303,-0.21405,-0.15398,0.12763,0.11248,0.052318,0.01216,-0.0036385
-0.0078874,-0.055501,-0.27518,-0.05056,0.01137,-0.029089,0.0049979,0.0034222
0.046211,0.2088,0.61609,0.18766,0.044276,0.014574,0.012219,0.0096481
0.0065145,-0.015173,-0.23371,-0.12636,-0.062776,-0.042943,-0.012843,-0.015973
-0.0096867,-0.0018234,-0.070244,-0.18034,-0.11509,-0.0060266,-0.015173,-0.002835
-0.041395,-0.034109,0.18163,0.0096178,-0.035088,-0.015086,-0.033459,-0.028773
0.036363,0.080996,-0.03478,0.13816,0.036216,0.031504,0.026385,0.047068
0.11409,0.25503,0.33476,0.40763,0.16895,0.071107,0.070838,0.068568
-0.097479,-0.24084,-0.49737,-0.39363,-0.050976,-0.013795,-0.0172,-0.065811
-0.043853,-0.18936,-0.39478,-0.24276,-0.045308,-0.020537,-0.011209,-0.020196
-0.01424,-0.012733,0.26525,0.078738,-0.02478,-0.058977,-0.051944,-0.036888
0.038218,0.055761,0.27873,0.063119,0.018697,0.02676,0.0088888,0.032433
0.035534,0.096618,0.40321,0.30451,0.030769,0.0334,0.038387,0.039242
-0.0063817,0.066254,-0.45574,-0.024594,0.0040061,-0.054543,-0.033744,-0.016497
-0.024634,-0.18013,-0.10484,-0.31408,-0.068994,0.028991,0.034822,0.0058662
-0.034398,0.032684,-0.12647,0.11653,0.046548,-0.012213,-0.029105,-0.01858
0.042883,0.12122,0.081643,0.0023591,-0.031841,-0.02114,0.0013465,0.0040636
0.027861,0.039765,0.0013542,-0.093546,0.0085475,0.057615,0.017102,0.019302
-0.040221,-0.10268,0.26757,-0.069406,-0.011959,-0.033246,-0.028497,-0.042973
-0.012956,-0.011033,0.18435,0.19169,0.062669,0.018962,0.0052369,-0.0029022
0.015643,0.10862,-0.19597,0.11858,0.01323,-0.0047258,0.00097,0.014596
-0.017418,-0.13797,-0.19639,-0.1495,-0.051527,-0.0033621,0.036465,0.0094639
0.082502,0.22209,0.73639,0.42481,0.078641,0.029917,0.017426,0.043979
-0.06819,-0.22848,-0.76345,-0.57428,-0.15159,-0.062292,-0.025536,-0.038493
0.045359,0.00026648,-0.30787,-0.093472,0.09326,0.062567,0.0085231,0.034994
-0.038434,-0.014553,0.05775,0.23362,-0.0073363,-0.026249,-0.029302,-0.040764
-0.038732,-0.038298,-0.044222,-0.077478,-0.054893,-0.016995,-0.022042,-0.031835
0.028733,0.15698,0.26886,0.17686,0.036778,0.027489,0.0069448,0.038066
0.01575,0.0031324,0.44312,-0.20553,-0.044465,-0.04891,-0.0123,0.0048222
-0.014655,-0.098815,0.049196,0.26088,0.03767,-0.0034089,0.014519,-0.02201
0.024204,0.072487,0.015612,-0.063306,0.10376,0.063404,0.033335,0.012654
-0.0074213,0.050622,-0.090463,0.018477,-0.025733,-0.011316,0.0056582,-0.0078234
0.0085436,-0.0062891,-0.39131,-0.055008,-0.046048,-0.023141,0.025685,0.026554
-0.028671,-0.12818,-0.48748,-0.14181,-0.011794,0.013517,-0.015687,-0.0086061
-0.0090871,0.021641,0.20656,0.0016478,-0.039974,-0.040991,-0.040218,-0.011232
0.020765,0.029295,0.34531,0.04073,0.03382,0.032705,-0.016669,-0.0044182
-0.0093837,-0.019609,0.18351,0.054596,-0.01648,0.023861,0.00017712,-0.003655
0.017396,0.014729,0.58402,-0.018774,-0.088762,-0.044328,0.0023541,-0.0090398
0.014654,-0.0017692,-0.94281,-0.046866,0.067436,0.054076,0.028716,0.033798
0.036396,0.069902,0.097382,0.10977,0.09296,-0.025572,0.0086826,0.014991
-0.0431,-0.045523,0.09788,0.23045,0.050195,0.036038,0.020054,-0.011368
-0.044789,-0.021758,-0.01542,-0.28884,-0.037889,-0.035469,-0.031279,-0.014625
0.0074396,0.10833,0.54483,0.16663,-0.039207,-0.0064325,0.0027675,-0.0030922
0.035244,-0.015788,-0.41594,-0.045813,-0.040527,-0.0022403,0.012534,0.015101
-0.06293,-0.16028,-0.51175,-0.51335,-0.12073,-0.10105,-0.049018,-0.061699
0.033388,-0.0046725,-0.011069,0.21682,0.10242,0.088018,0.036851,0.032261
0.004096,-0.016939,0.27159,0.16082,0.042684,0.0029097,-0.026582,-0.0074166
0.0056026,-0.023995,-0.0022199,-0.039653,0.012516,0.034717,0.010964,0.0071372
0.084836,0.20991,0.37418,0.54635,0.074567,0.051009,0.024848,0.05284
-0.0004451,0.16263,0.15959,-0.25963,-0.052096,-0.010488,0.007632,0.012777
-0.070652,-0.18825,-0.053984,-0.33147,-0.10142,-0.079388,-0.024729,-0.034767
-0.032091,-0.10762,-0.16895,0.019309,-0.026033,-0.030732,0.021754,-0.027239
-0.025327,-0.032559,-0.12788,-0.16731,0.033942,0.033828,-0.040304,-0.019347
0.012346,0.0058548,-0.21689,0.25793,0.094566,-0.010815,-0.0077957,0.012284
0.018735,0.04665,-0.11131,0.076858,0.03895,0.014907,0.025372,0.01288
0.017589,0.034871,0.13283,-0.030649,-0.070302,0.0014671,0.019861,-0.0020418
0.0013013,0.0090572,0.29775,-0.096179,-0.061409,0.0033339,0.0065611,0.014262
0.02457,0.023116,0.089549,0.090345,-0.0049534,0.028032,-0.014914,0.0069429
0.024693,0.02139,0.028072,0.33237,0.10649,0.028355,0.017595,0.014894
-0.0065042,-0.067458,-0.76491,-0.5199,-0.086903,-0.027247,-0.021135,-0.016719
0.00088824,0.052555,0.30056,0.18081,0.07852,-0.037397,-0.013964,-0.0020365
-0.070621,-0.025388,0.40674,-0.17559,-0.0069472,0.01355,-0.023258,-0.034782
-0.041432,-0.16076,-0.31291,-0.081453,-0.077856,-0.053827,-0.017475,-0.013248
0.0652,0.22498,0.70264,0.4323,0.037677,0.05785,0.058439,0.039368
-0.015937,-0.062608,-0.54206,-0.19617,-0.066409,-0.041392,0.0095265,-0.0016441
-0.010859,-0.14735,-0.21542,-0.13798,0.055538,0.0085052,0.00010465,-0.0032011
0.026271,0.057907,0.34225,0.2403,0.060188,0.036242,-0.00096849,0.0036405
0.041137,0.062017,0.072775,0.001627,-0.020776,0.034367,-0.0015427,0.026774
0.049492,0.19375,-0.49443,0.05247,0.047401,0.042031,0.021682,0.027103
-0.089424,-0.14051,0.070464,-0.27111,-0.14905,-0.089366,-0.064272,-0.073619
-0.0087771,-0.019189,0.0037222,0.030977,0.03066,-0.0086148,0.0060902,-0.0021185
-0.013727,-0.083625,0.081804,-0.064545,0.039682,-0.044297,-0.0016508,-0.00074817
0.0046083,-0.045649,0.19857,0.0753,-0.0049375,0.029673,0.029733,0.00066215
0.0067417,0.031299,-0.11217,0.20061,0.044924,0.0097181,-0.016848,0.017623
0.054876,0.14636,0.29921,-0.016815,-0.037768,0.051684,0.02277,0.042223
-0.03082,0.0019955,-0.31766,-0.2101,0.0042318,-0.0088356,-0.0076074,-0.019374
-0.015953,-0.066302,-0.08168,0.10462,0.014101,-0.015858,-0.0064493,-0.018809
-0.0019267,-0.011784,0.32512,-0.002943,0.0070098,-0.0086018,0.0026807,-0.0030129
0.027157,0.032934,0.29909,0.13074,0.021799,0.036372,0.027392,0.012372
-0.029927,-0.064452,-0.51229,-0.072731,-0.058626,-0.044807,-0.026306,-0.027309
-0.024395,-0.076642,-0.18629,-0.24611,-0.077583,-0.025181,-0.02582,-0.02042
0.036232,0.044062,-0.18111,0.10323,0.082823,0.0098779,0.028697,0.040951
0.01933,0.10307,0.015219,-0.094305,-0.0062448,-0.00148,-0.011234,0.016273
0.010888,0.06179,0.15726,0.49021,0.046648,0.042934,0.026342,0.0071792
-0.043864,-0.11875,0.27208,-0.40038,-0.031358,0.0029697,-0.022445,-0.025353
0.011136,0.029931,0.15029,-0.023519,-0.044753,-0.011773,-0.0088813,0.0046377
0.02722,0.046372,0.25935,0.20668,0.053082,-0.032635,-0.0029755,-0.0043801
-0.034893,-0.10911,-0.43604,-0.022731,0.027088,0.0024796,-0.012266,-0.013279
0.0043377,0.078584,-0.043548,-0.06402,0.0090861,0.03822,0.025934,0.0093028
0.019875,0.0076436,0.0081076,0.0038594,0.013599,0.042523,0.041375,0.016638
-0.027272,-0.024967,0.0018477,-0.13236,-0.061912,-0.047927,-0.01289,-0.030181
-0.0041353,-0.081329,0.035126,0.058019,-0.046211,-0.015047,-0.012042,0.0017768
-0.0042773,-0.020197,-0.11203,0.10593,-0.009769,-0.015461,-0.034446,0.0031665
0.034955,0.088726,0.2654,0.011313,0.039961,-0.010113,-0.010028,0.020766
-0.019188,-0.051071,-0.85145,-0.14756,0.010023,0.032622,0.01414,0.0074626
0.0051026,0.021272,0.30924,0.035823,0.01867,-0.027197,-0.00113,-0.013667
0.068578,0.22704,0.62895,0.21021,0.082652,0.037854,0.053483,0.035076
-0.039971,-0.03637,-0.066673,0.0009488,-0.11737,-0.029166,-0.017326,-0.026403
-0.094269,-0.25454,-0.30572,-0.52913,-0.11198,-0.02442,-0.041627,-0.057781
0.022639,0.0011046,-0.017404,0.32344,0.1225,0.044708,0.0041099,0.034575
0.091886,0.19088,0.71038,0.18403,0.12493,0.061101,0.034071,0.047651
-0.019313,-0.060171,-0.07132,0.20147,0.011925,-0.014577,0.0015272,-0.026035
-0.037345,-0.12623,-0.87442,-0.38941,-0.11578,-0.065678,-0.023048,-0.029727
-0.032224,-0.037078,-0.04614,-0.25216,-0.055932,-0.014753,-0.016053,-0.01752
0.035483,0.12319,0.23966,0.16844,-0.028053,0.0047145,0.014842,0.018969
0.0099104,0.0048503,-0.056341,0.17753,-0.0092279,-6.0531e-06,0.0072397,0.017675
0.008577,0.031267,0.20767,0.079999,0.10967,0.048869,0.0080527,0.033498
0.0082712,0.046985,0.10393,-0.014882,0.039575,0.0027943,-0.0062037,0.0038807
-0.022172,-0.04959,0.087369,-0.11544,-0.039643,-0.052181,-0.012228,-0.032426
-0.0046923,-0.0092978,-0.2863,-0.027202,-0.0026926,0.01704,0.0053914,-0.005607
-0.0098053,-0.083612,0.04525,-0.016817,-0.02109,0.015539,0.015141,-0.00999
0.0090517,0.069394,0.088459,0.063105,-0.024127,-0.0172,0.0011227,0.0085663
0.012433,0.025997,0.30986,0.024161,-0.019207,-0.010489,0.0021626,0.0027703
-0.023503,-0.082543,-0.72267,-0.28273,0.025315,-0.0031322,-0.052206,-0.027601
0.080558,0.21152,0.73888,0.50934,0.12541,0.090912,0.056728,0.065885
-0.042859,-0.16243,-0.30628,-0.037079,-0.078061,-0.048729,-0.022509,-0.029077
-0.065776,-0.11802,-0.1699,-0.50747,-0.11623,-0.047255,-0.016274,-0.046512
0.019632,0.033312,0.27538,0.23951,0.01081,0.0012973,0.028849,0.029634
0.033854,0.074253,-0.8184,0.0016086,0.076227,0.049739,0.0038122,0.012283
-0.0071883,0.014105,0.56831,-0.017246,0.032654,-0.035027,-0.020764,-0.004474
-0.017194,-0.059987,-0.14711,0.10537,0.012252,0.0046057,-0.013393,-0.0048238
0.012004,0.11828,0.34162,-0.044468,0.029935,0.020098,0.018232,0.011244
0.033822,0.11143,0.40096,0.18133,-0.016483,-0.0041591,0.011593,0.020133
0.0015723,-0.073244,-0.09724,-0.2023,-0.088306,0.0022814,0.013405,-0.0018746
-0.029986,-0.11636,-0.53295,0.038152,-0.044899,-0.030664,-0.023478,-0.02386
-0.029631,-0.14394,-0.16971,-0.1059,-0.034268,-0.0011433,0.0099885,-0.022684
-0.0052886,0.022805,0.30762,0.013557,0.084997,0.0052092,-0.019339,-0.0063627
0.058501,0.21922,0.059685,0.0059579,0.095132,0.035529,0.021087,0.032844
-0.018149,-0.015886,0.20283,0.2469,0.03619,0.01186,-0.0095117,0.001242
0.0067318,-0.010578,-0.66713,-0.11412,-0.059764,-0.026688,-0.017401,0.00054787
-0.031124,-0.11609,0.26703,-0.14603,-0.14536,-0.064579,-0.010284,-0.01591
0.024359,0.066504,0.31656,-0.0036091,-0.017396,0.069853,0.027672,-0.0010568
-0.0066224,-0.016864,-0.62846,-0.068359,0.09723,0.0013167,0.010785,0.014015
0.024329,0.071934,0.45423,0.184,0.088388,0.010733,0.017432,0.021581
-0.031175,-0.11964,-0.16501,0.11299,0.025335,-0.0037585,-0.022488,-0.0095942
-0.01675,0.041712,0.3283,-0.18828,-0.046242,-0.026733,-0.030708,-0.03268
0.013119,0.032851,0.30028,0.10686,-0.049298,0.0042584,0.016271,0.014748
0.019607,0.010141,-0.44036,-0.066045,-0.0080109,0.0034046,0.0012477,0.0076087
0.0029455,-0.00307,-0.032061,-0.05296,-0.016343,-0.005571,0.017884,-0.0072887
-0.0054307,0.024203,0.12047,0.23005,-0.01142,-0.030093,-0.012091,-0.014363
-0.013224,-0.080306,-0.3088,-0.1325,-0.023611,0.016174,0.02052,0.01761
-0.0047936,-0.043622,-0.15227,-0.25837,-0.036114,0.00071862,-0.017285,-0.0051404
0.01197,0.094707,0.34549,0.15752,0.11631,0.056472,-0.0084819,0.01111
0.021283,0.045146,-0.38644,0.11643,0.059576,0.0036375,-0.007877,0.01945
-0.047384,-0.15367,0.40274,-0.075053,-0.049663,-0.048736,-0.015527,-0.05048
0.055736,0.16977,0.28493,0.053947,0.03845,0.023883,0.046698,0.04347
-0.013322,-0.016004,-0.26917,-0.14304,-0.090781,-0.0055681,0.0069805,-0.011217
-0.035963,-0.1017,0.21118,0.054185,0.0070211,-0.0125,-0.0095802,-0.01921
0.011178,0.076864,0.12651,0.20098,0.033988,-0.0049532,-0.010673,0.0039198
-0.028131,-0.13623,-0.70837,-0.1247,-0.026322,-0.029799,-0.035226,-0.019876
0.041522,0.079833,-0.17369,0.013724,0.0053176,0.0069351,0.0028217,0.018856
0.040603,0.077192,0.29583,-0.041463,-0.042995,0.027504,0.033242,0.042039
-0.038522,-0.065453,0.24187,-0.065354,0.016626,0.0089088,0.0013737,-0.028447
-0.015986,-0.0038995,0.20542,0.22959,0.067688,0.037489,0.0087286,0.0026661
-0.024443,0.012118,-0.054892,-0.33744,-0.099918,-0.066152,-0.0073077,-0.020947
0.029978,0.04514,-0.1412,0.068975,0.069278,0.034073,0.015617,0.017822
0.030159,-0.030009,-0.19604,0.19892,0.036787,0.017867,-0.016377,0.0095443
-0.039517,-0.033982,0.082305,-0.079763,-0.025248,-0.044536,-0.025228,-0.030156
0.0083979,-0.037531,0.10432,0.085584,0.0081003,0.0029912,0.004729,0.0081554
0.033171,0.091695,0.21787,-0.0068522,-0.043227,0.019702,0.011139,0.015212
-0.012216,0.025146,-0.48672,-0.35573,-0.023561,-0.010123,-0.0057753,-0.016664
-0.04198,-0.081267,0.08939,0.22758,0.035166,-0.024057,-0.0067107,-0.0014103
-0.0015866,-0.024651,0.022422,0.05631,0.0072815,0.0090767,0.0085238,0.0063652
0.015076,-0.00044141,0.28798,0.052482,0.017218,0.0032298,0.0087592,0.01448
0.023508,0.069447,-0.098373,-0.0031681,0.0098946,0.036349,0.01737,0.0072325
0.015788,0.044405,0.043853,0.01323,-0.030489,0.0066206,0.002905,-0.0077141
-0.015989,-0.052083,-0.14316,-0.17334,-0.057004,-0.0081322,-0.0036809,-0.0071112
-0.025012,-0.055893,-0.23529,-0.0021405,0.0087367,-0.016015,-0.01833,-0.022397
-0.0034775,-0.021629,0.17647,0.056415,0.06559,-0.032866,-0.017866,0.0087804
0.017424,0.066457,0.040599,0.13388,0.0046945,0.011563,-0.0024304,0.016031
0.037836,0.1148,0.46979,0.096816,0.045344,0.04708,0.020168,0.014987
-0.05139,-0.15758,-0.41544,-0.16397,-0.038493,-0.050997,-0.020244,-0.025514
-0.0077759,0.023146,-0.033804,-0.10838,-0.051014,0.0068648,0.0093782,-0.011566
0.0049386,0.0012373,-0.10905,-0.20338,-0.054296,0.018102,0.031175,0.010152
0.026129,0.02732,0.18137,0.26422,0.030105,-0.024539,-0.0093034,0.016408
-0.014267,-0.030729,-0.47376,-0.10951,-0.0085848,0.020037,-0.0025065,-0.0082373
0.024528,0.069944,0.37864,0.3805,0.18116,0.034943,-0.0030282,0.0066672
-0.021528,-0.07638,0.4946,-0.17076,-0.049339,-0.026609,-0.010848,-0.0091141
-0.011919,-0.063183,-0.62954,-0.012961,-0.083353,-0.039762,-0.0025624,-0.00088264
0.021878,0.085989,0.19611,-0.045041,-0.046446,0.010763,-0.0016728,6.2537e-05
-0.0063764,-0.012242,-0.074247,-0.17442,-0.032972,0.046347,0.0073674,0.0014365
0.020163,0.08641,0.1225,0.18329,0.10495,0.0039246,0.016663,0.010921
-0.039459,-0.056964,0.076548,-0.11418,-0.0081269,-0.038929,-0.012932,-0.01851
-0.02146,-0.022097,0.15008,0.0097719,0.033739,0.011095,-0.026821,-0.0088847
0.066147,0.087896,-0.39364,0.1945,-0.0039557,0.020917,0.029585,0.031835
-0.0033124,-0.048522,0.21975,0.048473,-0.027403,-0.040765,-7.1494e-05,-0.0058592
-0.018918,-0.033564,-0.35696,-0.2491,-0.028541,0.0058843,0.0090991,-0.0048882
-0.058735,-0.14062,-0.23365,-0.0029727,-0.046032,-0.057591,-0.021131,-0.020017
0.04142,0.084205,0.37225,-0.048797,-0.048153,0.042594,0.010726,0.0034019
0.016076,0.03284,0.26707,0.067102,0.098346,0.056748,-0.0047302,0.010682
0.021652,0.042852,-0.11914,0.18913,0.096882,0.031937,0.0028517,0.017495
0.0427,0.13151,-0.015233,0.02884,0.033472,0.0072741,0.025772,0.01612
-0.10028,-0.23101,-0.18487,-0.13981,-0.12326,-0.095422,-0.045168,-0.040179
0.014773,0.12035,0.76867,-0.066437,-0.037635,0.0049998,0.0011819,0.0050337
-0.010355,-0.032633,-0.71432,-0.11017,0.0010076,-0.011837,-0.014662,-0.019905
0.0042268,-0.057132,0.046446,0.16668,0.070609,0.033766,0.032442,0.0024068
0.043052,0.077697,-0.082232,0.10014,-0.024177,-0.022158,0.017529,0.025264
-0.026621,-0.082012,-0.092486,-0.091041,-0.072287,0.00021537,-0.0048203,-0.0059357
0.0060899,0.06436,0.44704,-0.078803,0.035882,0.022889,-0.011401,0.0025285
0.016,0.023622,-0.092286,-0.050792,0.027139,0.030309,0.013093,0.027071
0.010638,0.037051,0.28887,0.21159,0.057919,-0.0087848,-0.0097965,-0.010668
-0.002513,-0.075716,-0.91496,0.01295,-0.0045304,0.014915,-0.0022071,-0.0093938
-0.023749,0.0053041,0.26203,-0.029432,-0.043088,-0.031486,-0.018947,-0.0083978
-0.029835,-0.040135,0.091955,-0.1027,-0.042286,-0.038657,0.010361,-0.015626
-0.01303,-0.055359,0.23012,-0.057766,0.013314,-0.0065658,2.9076e-05,-0.015458
0.034534,0.077486,-0.13789,-0.05781,0.029821,0.018021,-0.010483,0.015658
0.034872,0.054448,0.022963,0.11684,-0.0084506,0.027429,0.018354,0.031046
-0.011851,0.040207,0.28395,0.013772,0.015731,-0.001671,-0.006761,-0.00032712
-0.027383,-0.089888,-0.37255,0.00036263,0.0087429,0.0088495,0.0082577,-0.0079701
0.019573,0.03135,0.58806,0.13861,-0.013626,0.0041624,0.0088802,-0.0074186
-0.011658,-0.049562,-0.69171,-0.14307,-0.074682,-0.023838,-0.012765,-0.014319
-0.0040181,-0.02859,0.42261,0.044037,-0.049401,-0.020875,-0.025696,0.0024498
0.0345,0.10123,-0.1366,-0.083551,0.12456,0.059466,0.03996,0.034862
-0.0056488,0.026494,-0.3412,0.13603,0.06402,-0.0098018,0.0039881,-0.0032697
-0.030825,-0.10516,0.12067,-0.11144,0.018463,-0.041477,-0.0013208,-0.018433
-0.01759,-0.013034,-0.046077,-0.029951,-0.020486,0.003402,-0.0076317,-0.010792
0.026383,0.099575,0.17776,0.20881,-0.053247,0.0077909,-0.015166,0.0039743
0.023242,0.037647,-0.015797,-0.11258,-0.095549,0.034574,-0.0082801,0.010324
-0.01101,-0.049609,0.36989,-0.20275,0.0013606,-0.032849,-0.017964,-0.0071625
-0.0447,-0.16884,-0.27095,-0.035346,0.0038212,-0.021898,0.010912,-0.032564
0.024133,0.025115,0.14982,0.14263,0.061236,0.036889,0.032,0.04382
0.0082924,0.033632,-0.6484,0.13058,0.018337,-0.027764,-0.0010812,0.011344
0.025107,0.20937,0.5055,-0.0231,-0.014753,-0.0045494,-0.0098505,-0.012602
-0.019228,-0.119,-0.077899,0.05686,0.079475,0.028459,-0.0019776,-0.012319
-0.015599,-0.029692,0.12225,-0.091513,-0.035091,0.016275,0.006821,-0.0034952
0.01994,0.078096,-0.14685,-0.0015064,-0.0075094,0.0051552,0.01625,0.0058654
0.00091581,-0.062494,0.15925,0.082138,-0.010559,-0.013556,0.010258,0.0076708
0.0048943,0.047087,0.062341,-0.061821,-0.060831,-0.0095255,-0.042863,0.017228
0.00013218,-0.055462,-0.53182,-0.021226,0.0049128,-0.014824,-0.0028734,-0.0048262
-0.044971,-0.050841,0.4713,-0.21111,-0.0013508,-0.014383,-0.018452,-0.043091
0.0022416,-0.017656,-0.23101,0.040453,0.021781,0.038496,0.019727,0.0038822
0.032449,0.044197,-0.057901,0.16404,0.043251,0.019077,0.033674,0.026737
0.02246,0.10408,0.056124,0.02041,-0.0067885,-0.017273,0.00023919,0.0099879
-0.011705,-0.0089261,0.54335,-0.029671,0.020731,-0.030497,-0.0177,-0.0070778
-0.022694,-0.12186,-0.46172,0.10079,-0.084447,-0.058522,-0.019743,-0.024194
-0.010013,0.00064649,0.064712,0.029433,-0.0013909,0.024705,0.0022761,-0.0020455
0.0033332,0.031147,-0.52688,-0.22827,0.043804,0.032421,0.0017317,0.012682
-0.0057816,-0.037937,0.35475,0.037968,-0.0033048,0.011732,0.0099707,0.012267
0.02528,0.10562,0.48728,0.13195,0.044778,0.079457,0.019105,0.012317
0.049589,0.08606,-0.21154,0.013766,0.00030981,0.00029353,0.013274,0.012717
-0.026839,-0.035147,0.3091,-0.090559,-0.059005,-0.016121,-0.023502,-0.017955
-0.048115,-0.071593,-0.24272,-0.079552,0.0069542,-0.049301,-0.013499,-0.040812
-0.0068446,-0.11789,-0.6571,0.015937,0.010195,-0.053533,-0.003961,0.0065122
0.0028168,-0.0025719,0.082639,-0.014238,-0.049677,0.001759,0.0048456,-0.0010468
0.03523,0.063526,0.12014,0.12778,0.10053,0.014963,0.0049896,0.03027
0.0042479,-0.0049363,-0.048118,0.01321,-0.062686,-0.028982,-0.0034851,-0.0010371
0.011364,0.14451,0.91833,0.056769,-0.0080158,0.035005,0.010861,0.014495
-0.037095,-0.14339,-0.80487,-0.30382,-0.00089584,0.036285,-0.014181,-0.024607
-0.00028902,0.030686,0.33141,0.20468,0.052669,0.022914,0.01548,-0.0010875
0.012735,0.073625,0.069873,0.11297,-0.011126,0.0036171,-0.0092123,0.0069737
-0.013251,-0.06895,-0.30927,-0.087505,-0.012366,-0.021108,-0.0020716,-0.0082211
0.0080984,0.017041,0.23885,-0.030231,-0.029002,-0.027771,-0.0020339,0.00018788
-0.016611,-0.051423,-0.045787,-0.082836,-0.045312,-0.032346,-0.0091181,-0.014721
0.022241,-0.0090452,-0.45405,-0.018799,0.055917,0.03484,0.023386,0.017286
0.023188,0.089146,0.33345,0.18572,0.087141,0.032366,0.0092582,0.017984
0.0017976,0.024123,-0.050517,-0.085695,0.0014007,-0.0015188,0.0028399,0.010703
-0.010875,-0.048026,-0.14435,0.019467,-0.092011,-0.036271,-0.01183,-0.012457
-0.038553,-0.080475,0.30281,-0.10729,-0.060323,-0.025522,-0.011564,-0.020281
0.019998,0.0049083,0.19777,-0.11388,0.010546,0.038291,-0.0042792,0.0028918
-0.023057,0.028406,-0.22526,0.21057,0.065982,0.014552,-0.013345,-0.020955
0.0038429,0.021066,-0.26422,0.076171,0.043564,-0.018374,0.00052674,0.0020836
-0.0011605,-0.064462,-0.0069628,-0.088909,-0.056666,-0.028839,-0.0014014,-0.0059703
0.024165,0.052282,0.090877,0.10395,0.046505,0.030506,0.020283,0.025284
0.071781,0.21403,0.53448,0.19957,0.040454,0.03512,0.050248,0.048959
-0.022521,-0.049042,0.0091682,-0.30369,-0.1297,-0.053689,-0.036326,0.0024342
-0.024374,-0.018983,-0.24404,-0.14096,-0.034485,0.01431,-0.0050249,-0.02073
-0.097665,-0.36014,-0.72481,-0.21815,0.060224,-0.010816,-0.027812,-0.059793
0.031413,0.13102,0.2094,0.27861,0.07607,0.034913,-0.0033119,0.0023046
0.0040094,0.0025075,0.18682,0.093547,-0.034038,-0.0049396,0.02136,0.0014807
