0.28735,0.097152,0.015133,0.00013668,0.0083105,0.025309,0.096309,0.066801
0.27355,0.25405,0.071265,0.17302,0.0781,0.035579,-0.017525,0.079803
-0.48929,-0.24042,0.026557,-0.091891,-0.00093073,-0.024251,-0.061142,-0.081103
-0.1188,-0.26155,-0.07962,-0.036952,0.0058825,0.040625,-0.019539,-0.04179
0.034495,0.027172,-0.075092,-0.044998,-0.01839,0.010973,0.036484,0.048961
-0.18312,0.0098053,-0.053434,-0.053403,-0.034485,-0.074468,0.052014,-0.12884
0.44286,0.13321,0.063403,0.070902,0.012419,-0.012637,-0.10565,0.011706
-0.044596,0.10184,0.13434,0.046963,-0.010415,0.024834,0.024862,0.073616
0.053283,-0.005583,-0.052463,-0.023421,-0.0014101,-0.0084202,-0.040147,0.0038266
-0.089278,-0.017578,0.048597,0.039517,0.008122,-0.017996,0.036001,-0.00090205
-0.2762,0.064483,0.12355,0.0012863,0.018039,0.020165,0.027363,-0.017751
0.17124,-0.19893,-0.34459,-0.068081,-0.010947,-0.026345,-0.018874,0.0081877
0.33642,0.34628,0.31515,0.057611,0.030251,0.069082,0.12375,0.20135
-0.19061,-0.30148,-0.29584,-0.043858,0.00070703,0.017017,-0.10777,-0.12703
-0.015595,0.021314,0.041853,0.017924,-0.013893,0.05112,0.012285,-0.13487
-0.24406,-0.16101,0.0093856,-0.022687,-0.029313,-0.11076,-0.048295,-0.07398
0.43353,0.15384,0.038453,-0.0014401,-0.022103,0.046169,0.068998,0.13998
-0.43744,-0.054203,0.13907,-0.003915,0.007908,-0.064583,-0.050457,0.099668
0.19797,0.14052,-0.014843,0.0093879,0.014132,-0.0055849,-0.00050607,-0.023469
-0.072464,-0.11791,-0.054556,0.031069,0.028151,0.051755,0.094281,-0.033762
-0.27696,-0.11619,-0.04167,-0.0010795,0.011206,-0.086946,-0.1558,-0.11759
0.22082,0.21672,0.031801,-0.0088168,-0.013054,0.048265,0.016134,0.031518
0.47106,0.2078,0.0090867,0.023406,0.01015,0.044537,0.11931,0.056349
-0.11747,-0.098942,-0.079681,-0.014015,-0.0051435,-0.0034406,-0.095023,-0.040847
-0.39502,-0.10601,-0.02517,-0.051089,-0.066861,0.014156,0.022465,0.04655
0.3104,-0.036692,0.0066022,0.013412,0.051385,-0.027845,0.0033117,-0.031769
-0.18188,-0.31702,0.036923,0.015138,-0.0021816,-0.020855,0.050256,0.021378
-0.18608,0.65148,0.22772,0.016386,-0.016864,0.041658,-0.040859,-0.0057144
0.061278,-0.45306,-0.0087736,0.009244,0.0070709,-0.021546,0.10346,0.017997
0.15953,-0.33368,-0.20506,-0.014107,0.02247,0.084868,-0.088815,0.050937
0.1223,0.558,0.013523,-0.022348,0.021251,-0.038782,0.013539,0.004331
0.14335,0.021433,-0.086673,0.00026158,-0.035855,-0.17445,-0.090646,-0.030714
-0.11401,-0.096576,-0.027314,0.030408,0.030752,0.12316,0.074661,0.021995
-0.36831,-0.11324,0.045725,-0.064618,-0.060073,0.050024,-0.037229,-0.05711
0.084859,0.38829,0.065031,0.082429,0.059194,-0.13479,-0.027064,-0.1191
0.028919,-0.48043,0.048936,-0.005004,-0.01712,0.05468,-0.0029839,-0.013815
-0.088143,0.18843,-0.0396,-0.022242,-0.038252,0.065372,0.04418,-0.043336
0.25187,-0.0027536,0.13638,0.030719,0.020082,-0.031002,0.1078,0.26404
-0.1445,-0.47575,-0.12634,-0.041356,-0.04447,0.078998,-0.014486,0.036012
0.48898,0.85469,0.04622,-0.035158,-0.028243,-0.11988,-0.16618,-0.045818
-0.51258,-0.66126,-0.050698,0.033984,0.11579,0.0049701,0.066486,-0.090019
0.051715,0.42748,0.002952,-0.013243,0.043589,0.17948,0.057847,-0.096985
-0.071394,-0.053354,-0.0053842,0.018847,-0.02682,-0.26913,-0.0054506,0.15058
0.3175,0.065734,-0.01433,0.021162,0.02075,0.25197,0.078931,0.072357
-0.035146,-0.20934,-0.047849,0.0016146,-0.049147,-0.15644,-0.13481,-0.0998
-0.29618,0.15948,0.019053,-0.016499,-0.081176,-0.018213,0.00172,-0.047972
-0.10778,-0.46836,-0.086794,-0.049213,-0.04467,0.033746,-0.1126,-0.047469
0.19411,0.064507,0.080156,0.035633,0.052367,0.069974,0.14021,0.10376
0.17348,0.25992,0.082316,0.010644,0.030397,-0.15916,-0.11389,-0.070968
0.12226,0.28396,0.20818,0.046795,0.069457,0.018509,0.12589,0.054095
-0.37754,-0.11171,-0.16043,-0.036431,-0.033185,0.071755,0.063041,0.011696
0.16285,-0.12937,-0.055971,0.0025498,0.019652,0.054867,0.0020965,0.0069155
-0.25216,-0.24575,-0.057617,0.0072498,0.017196,0.084207,-0.11233,-0.0050192
0.13903,0.076973,-0.040901,-0.014294,-0.056132,0.018048,0.10154,-0.13937
-0.0047031,0.25862,0.017828,-0.030132,-0.0050205,-0.16815,-0.060514,0.066275
0.22394,-0.039276,-0.0054117,-0.093867,-0.048187,0.0092086,0.11945,0.19082
-0.21479,0.27457,0.016051,0.10048,0.033246,-0.059388,-0.28073,-0.22666
0.24716,-0.39549,0.05299,0.02294,0.012953,-0.060814,0.012736,0.2115
0.27834,-0.019057,0.076171,0.041687,0.047504,0.23286,0.17262,-0.1445
-0.7186,-0.18156,-0.076794,-0.0067928,-0.011186,-0.17646,-0.15139,0.039518
0.40947,0.25945,0.024881,-0.052181,-0.045604,0.064844,0.20602,0.035228
-0.45656,-0.33385,-0.040267,0.022205,0.0069988,0.02898,-0.12141,-0.14328
0.50313,0.38549,0.0087608,-0.0032679,0.0061328,0.0298,0.085441,0.10453
-0.3668,0.061113,-0.0085281,-0.0046721,0.014305,0.060093,0.045103,-0.096805
-0.15058,0.16398,0.031683,0.0013176,-0.0076729,-0.13038,-0.040063,0.17477
0.48943,-0.086006,0.010835,0.045109,0.018083,-0.027053,-0.038313,-0.13477
-0.23492,-0.50133,-0.11932,-0.116,-0.025943,0.048065,-0.044509,0.045858
-0.066425,0.24518,0.077467,0.0022363,-0.007303,-0.047802,-0.11426,-0.086991
0.18006,-0.23101,0.014284,0.064068,0.018955,0.018952,0.064322,0.04575
0.29759,0.31017,-0.03611,-0.031638,-0.0021575,0.082028,0.061267,0.10881
0.25822,0.35077,0.09784,0.067203,-0.00053186,0.10833,0.048409,0.047827
-0.41864,-0.25195,-0.029125,0.01735,0.015943,-0.12209,0.025839,-0.11372
-0.57915,-0.20276,-0.057194,-0.047963,-0.015171,0.0076406,0.0093224,-0.024411
0.22214,-0.17435,0.092544,0.059087,-0.015553,-0.23618,-0.016599,0.042157
-0.19941,0.35691,-0.18822,-0.090947,0.0072771,0.14019,-0.090764,-0.078124
0.0050875,-0.24836,0.093935,0.0099429,-0.0010337,-0.0016611,-0.017527,-0.017938
0.49035,0.19164,-0.0051402,-0.02872,-0.0011178,0.090728,-0.038612,0.066739
0.11406,0.078052,-0.023585,-0.042805,-0.039651,-0.010083,0.08092,0.035586
-0.39255,-0.15657,0.062494,0.076982,0.070903,-0.052464,0.076035,-0.048712
0.53557,-0.06431,0.026411,0.041287,0.0022676,0.050266,-0.0058739,0.0012738
0.26584,0.1849,0.023709,0.029271,0.011941,0.047895,-0.070697,0.060141
-0.78146,-0.15016,-0.056135,-0.014449,-0.017666,-0.013742,0.030153,-0.060333
-0.34335,-0.2416,0.027724,0.0031512,-0.040065,-0.042464,-0.094021,0.021732
0.60076,0.3076,0.047504,0.0112,0.03823,-0.039979,0.0096252,0.11008
-0.2172,0.36211,-0.12261,-0.11551,-0.040658,0.0157,0.16096,-0.077274
-0.049007,-0.081209,-0.029709,-0.025152,-0.0031309,0.029946,-0.070249,-0.087488
0.080619,-0.31464,-0.024931,0.0095357,-0.020717,-0.091123,0.010751,0.05629
-0.016904,-0.21588,0.03328,0.052067,0.039837,0.082789,-0.0027642,-0.098176
0.25089,0.20561,0.13049,0.048829,0.046143,-0.017448,-0.12672,0.020777
-0.12552,-0.08961,-0.083756,-0.02275,-0.024935,-0.11693,0.037271,0.0397
0.30491,0.16491,0.024139,0.017449,-0.0014087,0.12168,0.075311,0.10064
-0.63967,-0.15422,-0.006523,-0.010381,-0.016176,0.058758,0.081521,-0.04542
0.69532,0.056419,0.081749,-0.013148,-0.0069837,0.030616,-0.092071,0.031505
-0.68294,0.22021,-0.071192,0.031538,0.04146,-0.064656,-0.093433,-0.098721
0.45294,-0.068395,0.033652,-0.0025296,-0.027427,-0.056185,0.023107,0.039313
-0.1602,0.018417,-0.034362,0.047624,-0.018587,-0.0079166,0.062412,0.076763
-0.48727,-0.27069,-0.12747,-0.13122,-0.018083,0.016043,0.055674,-0.10545
0.49199,0.023153,0.10568,-0.0079861,0.020981,0.17831,0.057288,0.092417
0.039971,0.053778,-0.01433,0.0036484,0.012807,-0.13152,-0.1207,-0.065478
0.035266,0.28775,0.028782,0.037369,0.020115,-0.0935,-0.017842,-0.056599
-0.19993,0.01272,0.0015395,0.039628,-0.011542,0.0036289,0.060733,0.025073
0.13098,-0.083852,-0.02484,-0.011863,-0.019447,-0.057908,-0.19774,0.039334
0.088111,-0.19559,0.044114,0.032243,0.035619,0.18425,0.13635,0.026208
0.33927,-0.029862,-0.033401,-0.054129,-0.041577,-0.0026872,0.016249,-0.044248
-0.57358,-0.050256,0.031666,0.049321,0.014576,-0.015704,0.21561,0.016904
0.063533,-0.0085381,-0.018896,-0.048524,-0.014776,-0.03343,-0.19492,-0.046773
-0.065636,-0.13323,-0.037341,0.0030444,-0.012643,-0.047556,-0.011868,0.054939
0.060317,0.15825,0.10049,0.038927,0.05194,0.035529,-0.078567,0.10415
0.058533,0.3288,-0.11405,-0.02783,-0.0088698,-0.05836,-0.04305,-0.047024
0.055832,0.017903,0.10747,0.0051064,-0.031374,0.060157,0.11067,-0.12486
-0.29612,-0.028722,-0.10251,0.082632,0.062232,0.077033,0.039063,-0.051116
0.28793,0.11968,-0.017423,-0.17802,-0.048567,-0.017134,0.062516,0.056989
0.2964,-0.38866,0.058398,0.051784,0.026835,0.0028786,-0.061263,0.13686
-0.50158,-0.10064,-0.0072487,-0.00054809,-0.04729,0.04251,0.17534,0.047697
0.16991,-0.045986,0.028586,0.017571,-0.0048864,-0.22646,-0.27472,-0.20293
-0.00041503,0.41995,0.010418,0.060242,0.0062046,0.0013177,-0.052164,-0.013762
-0.012597,-0.28955,-0.029855,0.0031974,0.010078,0.016173,-0.055403,0.067926
0.20246,-0.024005,-0.021504,-0.028216,0.015131,0.06187,0.11403,0.041676
-0.17768,0.095924,0.043406,-0.010642,0.013942,0.12428,0.096649,0.047584
-0.25727,-0.0022478,-0.1244,-0.022677,-0.016825,-0.0064754,0.11862,-0.016493
0.038856,0.031106,0.10734,-0.0025689,0.00074229,-0.095591,-0.023881,-0.1199
0.39532,-0.033325,-0.0043791,0.064442,0.042717,0.177,-0.058359,0.018043
-0.20599,-0.0046047,0.031604,-0.049026,-0.047823,-0.10351,-0.11073,0.060886
0.52215,-0.029812,0.018952,0.062662,0.017472,-0.10215,-0.017588,0.02381
-0.69459,0.10125,0.074008,-0.061736,-0.035453,0.023945,0.002135,-0.12482
0.24552,0.29241,-0.13962,-0.031536,0.02738,-0.05389,-0.035579,0.11466
-0.34376,-0.084655,-0.090599,-0.041658,-0.03632,-0.015468,0.081032,-0.00023344
0.070819,-0.1192,-0.0048437,0.033521,0.039276,0.17854,0.056193,-0.00096892
0.10093,-0.50894,0.064065,0.1322,0.0046346,-0.096359,0.023851,-0.012655
0.10008,0.12801,0.03933,-0.065324,-0.022417,-0.003695,-0.093164,-0.035217
0.3818,0.15947,0.086277,-0.019585,-0.0021276,-0.0040132,0.057351,0.041042
-0.2962,-0.029893,-0.083235,-0.011726,0.0036165,0.082512,-0.063393,-0.033279
-0.15385,0.093553,-0.03129,-0.018486,0.0030491,0.029192,0.036739,0.00050516
0.16639,0.086612,0.1326,0.061295,0.011944,-0.062724,0.068405,0.0028401
0.2565,0.24743,-0.060893,0.0083408,0.0067083,-0.060786,-0.039092,0.053005
-0.72834,-0.291,-0.057944,-0.060687,-0.028719,-0.035576,-0.12988,-0.12917
0.64953,0.18147,0.0077501,0.0022447,0.053469,0.083141,0.06917,0.082147
-0.71767,-0.039605,-0.059841,0.0016302,-0.013062,-0.071687,0.010993,-0.023513
0.50881,-0.34613,0.051368,0.031287,-0.025824,0.031488,0.015757,0.04603
0.066831,-0.29359,0.067869,0.052469,0.0069267,0.088331,0.020823,0.079379
-0.29024,0.49292,-0.03355,-0.13745,-0.03997,-0.033673,-0.028705,-0.080535
0.22126,0.19365,-0.08061,0.0089902,0.0055049,-0.029696,-0.00031496,0.010605
-0.32756,-0.15139,0.020885,0.031357,0.0031214,0.029886,0.10562,-0.015349
0.30431,-0.010011,0.083777,0.039347,0.015924,-0.073951,-0.10974,-0.03413
0.49659,-0.17844,-0.0089736,0.064237,0.028845,0.025521,-0.029512,-0.10081
-0.44266,0.093439,-0.015267,-0.058323,-0.0045405,-0.00041428,0.04146,0.11269
0.075434,0.094216,0.0021155,0.0070647,0.0097744,0.050713,-0.0061324,-0.0027516
-0.36746,0.018215,0.011544,-0.0058899,-0.0062974,-0.017044,-0.031375,0.01414
0.085384,0.036026,-0.057639,-0.043123,-0.029472,0.069236,0.091211,0.054319
0.12106,-0.025509,0.06,0.035558,0.010282,-0.11263,-0.059667,0.016418
0.085287,-0.30797,-0.049565,-0.051239,-0.020172,-0.0079584,-0.022481,-0.076088
-0.20552,0.34454,-0.011067,0.0013389,0.011678,0.00074341,-0.0076754,0.0032825
-0.31662,-0.091083,-0.027201,0.037461,0.019677,0.031284,0.094435,-0.034656
0.43677,-0.24664,0.004049,0.018626,-0.0040922,0.0142,-0.083266,0.013135
0.0666,0.15275,0.098639,0.0079005,-0.004934,0.012952,-0.0018927,0.0060242
0.36424,0.14769,-0.016789,-0.033319,-0.013983,-0.0027532,0.088172,0.014403
-0.18572,-0.033958,-0.037771,0.0046084,0.00020955,-0.06333,-0.047951,0.038407
-0.34288,0.085128,0.13677,0.02017,0.014454,0.058417,0.0032899,-0.05463
-0.0010054,-0.065312,-0.15006,0.01322,0.036828,0.042556,0.0071159,0.0088401
0.17204,-0.22814,-0.0082346,-0.032145,-0.041789,-0.09518,-0.09137,-0.0055111
-0.23368,-0.0062494,0.00716,0.00093005,-0.010251,0.074732,0.059405,0.035105
0.15381,0.2314,-0.010221,-0.020675,-0.0090422,0.0049974,0.006503,0.029043
0.12147,0.06874,0.017999,-0.0034314,0.0087565,-0.13316,0.015805,-0.00037006
-0.40217,-0.01964,0.029865,0.044744,0.02745,-0.028124,-0.029697,-0.084496
0.26213,0.042753,-0.0051571,0.014488,0.0077768,0.17062,-0.03629,-0.0046858
0.051908,-0.37013,-0.016016,-0.031591,-0.027143,-0.022505,-0.012144,-0.11261
-0.055988,0.077326,-0.0099129,-0.015204,0.00040485,0.078807,0.034247,0.13846
0.38422,0.057408,-0.0099127,-0.037741,-0.019407,0.0047645,0.18791,0.13112
0.0060836,0.11797,0.054365,0.06499,0.045804,-0.1828,-0.067692,-0.033363
-0.50948,-0.10689,-0.028252,0.0039691,0.016012,0.078524,0.048104,0.011933
-0.027747,0.24353,0.12458,-0.0099325,-0.030844,-0.10913,-0.16778,-0.13156
-0.14764,-0.032674,-0.15961,0.0153,-0.04006,0.060129,-0.058161,-0.018388
0.21988,-0.13761,-0.0064218,-0.022139,0.019843,0.087975,-0.05091,0.047253
0.28099,-0.031353,0.0055548,0.010308,0.0086533,-0.078469,0.10646,-0.05104
-0.19624,-0.15057,-0.014611,-0.012562,0.020655,0.046793,-0.028694,-0.062336
0.12533,0.013406,0.12827,-0.020544,-0.029532,-0.1367,-0.086926,0.13919
-0.12963,0.30522,-0.12048,-0.021432,-0.00080821,0.23078,0.19082,-0.031937
0.16205,0.014868,0.036079,0.055218,-0.017873,-0.04653,0.10904,0.13515
-0.10432,0.018309,0.051153,0.053369,0.059961,-0.087012,-0.076131,-0.039881
-0.0028332,-0.26947,-0.043972,-0.065791,0.0059454,0.13892,0.10108,-0.073792
-0.060786,-0.2851,0.00069909,-0.0364,-0.024061,-0.15177,-0.22237,-0.038243
-0.054864,0.47211,-0.017984,0.0089117,0.024125,-0.0074772,0.028012,0.042058
0.067477,0.041668,-0.006281,0.01555,-0.037498,0.070843,0.013415,-0.083797
0.039887,0.079779,0.059303,0.046001,-0.013994,0.043978,-0.0098843,0.052599
0.03501,-0.31261,0.0070553,0.014213,-0.014909,-0.087409,-0.026192,0.037485
-0.062226,-0.20711,-0.12367,-0.064372,-0.016743,-0.2048,-0.11983,0.020197
0.016934,0.19901,0.17539,0.020985,0.066711,0.23259,0.07917,-0.029171
-0.059786,0.31725,-0.14213,-0.0033002,0.024928,0.007691,0.10544,-0.030937
-0.085631,0.035294,-0.013131,-0.012274,-0.032253,0.035858,0.079473,-0.061721
0.18461,-0.10299,0.062903,0.0097714,-0.010642,-0.065131,-0.13669,-0.0031546
-0.12217,-0.47523,-0.046475,-0.022901,-0.019267,0.079492,0.091371,0.17665
0.11951,0.3933,0.088535,0.0228,0.020213,-0.078132,-0.071829,-0.061426
0.10386,0.025364,0.030252,0.014354,-0.0015218,0.12456,0.19337,0.055351
0.031565,-0.0003557,-0.065536,0.0066898,0.0091691,-0.095336,-0.12227,-0.036772
-0.32733,-0.29931,0.003632,-0.023499,-0.018297,-0.067388,-0.23936,-0.089326
0.10154,0.13888,-0.059874,0.0018995,0.01724,0.059047,0.16829,0.021177
0.0021563,-0.026647,-0.022406,-0.018846,-0.017524,-0.18501,-0.09632,-0.0033619
-0.065696,0.042692,0.099805,0.015518,0.0097033,0.18527,0.14512,0.00037479
0.38865,0.25508,-0.013977,0.026464,0.020321,0.01462,-0.053692,0.024387
-0.2599,-0.16981,0.0032243,-0.0098866,-0.0016521,0.007438,0.025312,0.014322
0.044676,0.14291,-0.0048329,0.031072,0.0061135,-0.030328,0.10049,-0.013467
-0.23414,-0.14357,-0.014495,-0.038435,-0.026637,-0.011717,-0.078298,-0.050217
-0.16331,0.024239,0.0058869,-0.030993,-0.013678,0.05609,-0.096835,0.022231
0.33097,0.012435,-0.099412,-0.016794,-0.040482,-0.022038,0.18598,0.040643
0.072062,-0.4452,0.11551,0.051346,0.018502,-0.097903,-0.20559,0.060272
0.015058,0.37013,0.026188,0.0097918,0.038778,0.13261,0.01864,-0.035812
0.22305,0.083957,-0.093489,-0.047256,0.020693,-0.034371,0.047456,-0.02888
-0.34384,-0.1545,0.061421,0.03682,0.026859,-0.021558,0.014957,-0.059776
-0.023477,0.17101,0.053481,-0.011206,-0.0053466,-0.11877,0.00032364,0.035239
-0.013702,-0.15025,-0.12525,0.027428,-0.02934,0.1343,0.027628,-0.025425
-0.090559,0.20162,0.024962,0.0041161,-0.029833,-0.020565,0.050096,0.00011509
0.32191,-0.08684,0.066258,-0.01112,0.016355,0.064859,-0.088962,0.12724
0.034859,0.0064801,-0.017362,-0.0029729,-0.02367,-0.031266,-0.05449,-0.019214
-0.27237,-0.12132,0.00032281,-0.018569,0.006467,-0.027416,0.08988,-0.10341
-0.099091,0.091263,-0.084078,-0.026769,-0.025759,-0.024648,0.077381,-0.047219
0.087529,-0.22337,0.065203,-0.0040746,0.020635,-0.014449,0.032104,0.10254
0.039615,0.23981,0.0027816,0.034093,0.044393,-0.011624,-0.2183,0.025681
0.25163,0.052203,0.0099123,0.03333,0.022228,0.054967,0.044971,-0.043293
0.0068023,-0.12045,-0.038342,-0.060768,-0.01467,-0.0014746,-0.16191,-0.026168
-0.41228,0.14574,0.10812,0.05669,-0.027505,-0.032049,0.22443,-0.016693
0.072947,-0.2722,-0.12087,-0.0048451,-0.0010557,0.11964,-0.0060261,0.016253
-0.022486,0.033683,0.024849,0.01238,-0.0060831,-0.023149,0.069324,0.033348
0.33891,0.0097661,-0.0013874,-0.055874,-0.019542,-0.11715,-0.017948,0.07329
0.060996,0.11718,-0.0040304,-0.022359,0.012994,-0.069301,0.0054682,-0.028373
-0.33562,0.1833,0.017177,0.011082,0.013308,0.096111,-0.079671,-0.10008
0.083739,0.019057,0.12499,0.067623,0.012727,0.034433,-0.031854,0.053379
0.0042895,-0.1354,-0.17253,0.022053,-0.011971,0.026017,0.046705,-0.020964
0.20598,-0.1415,0.015417,-0.024187,0.0020162,-0.01588,-0.13351,-0.0023275
-0.45186,-0.0712,-0.014163,-0.071111,-0.030914,0.056576,0.20861,-0.054072
0.23512,-0.0035562,0.01216,-0.017053,0.030171,-0.077222,-0.036144,0.090245
-0.12924,0.17064,0.062974,0.044438,-0.0019946,-0.1281,-0.039217,-0.013924
0.036112,-0.15759,0.044189,0.043298,0.021154,0.20915,-0.034388,-0.03008
0.077928,0.082721,-0.099374,-0.051489,-0.0097498,-0.095791,0.0024109,0.081074
0.29571,0.17333,0.13171,0.02586,-0.032306,-0.16681,-0.014235,-0.024341
0.050758,-0.01844,-0.15372,0.0097692,-0.015452,0.15348,0.06441,0.012579
-0.42931,-0.071067,-0.010794,0.0095562,0.056204,0.11605,0.019585,-0.074515
-0.027037,-0.00089115,0.068096,-0.0061583,0.0027322,-0.02072,-0.055296,-0.052117
-0.00065972,0.027186,-0.01861,-0.053145,-0.01201,0.024587,0.011038,0.071062
0.031658,-0.26875,0.026158,0.071618,-0.0037817,-0.17013,0.061594,0.020744
0.068457,0.11886,-0.016038,-0.061588,-0.019498,0.089938,-0.021524,-0.024089
0.33442,0.073136,-0.043295,-0.015211,-0.027852,-0.062983,-0.012252,0.068868
-0.26641,0.14967,0.054054,0.015535,0.025967,0.034593,-0.098247,-0.028747
-0.017634,-0.072038,0.010578,0.022928,0.017108,-0.00060827,-0.0058307,-0.035577
-0.10122,-0.090258,0.0060565,0.014805,-0.0074398,-0.028297,0.085896,0.048883
-0.065966,-0.020311,0.063958,0.030158,0.038308,0.076299,0.013667,-0.055693
0.18052,-0.13385,-0.16725,-0.056175,-0.05662,-0.061984,-0.034204,0.019159
0.25479,0.32836,0.1016,0.060291,0.059251,0.12704,0.083541,-0.045379
-0.51482,-0.13284,-0.098032,-0.073732,-0.020417,-0.07547,-0.12498,-0.11501
0.29459,-0.064296,0.038847,0.018274,-0.030015,-0.17738,-0.01146,0.20211
-0.049553,-0.13874,0.059472,0.03175,0.022747,0.22761,0.1189,-0.015223
0.11922,0.22804,-0.0045833,-0.079872,-0.025943,-0.016611,0.038702,0.029863
-0.18849,0.049309,0.050023,0.051036,-0.011658,-0.097293,-0.042105,0.016293
-0.0089019,0.1193,-0.073533,0.0030743,0.011323,0.024971,-0.101,-0.088581
-0.050463,-0.18156,-0.094134,-0.020238,-0.0035346,-0.024441,0.033254,-0.0053118
-0.22548,0.11387,0.097284,0.020362,0.022056,0.036059,0.0010469,-0.032687
0.55266,-0.33857,0.039331,0.02324,0.017682,0.003568,-0.017683,0.077585
0.049111,0.016798,-0.041972,-0.0041533,-0.00924,0.018747,0.032425,0.019573
-0.011151,0.14316,0.040318,8.5051e-05,0.0031535,-0.082638,0.035142,-0.066698
-0.21631,0.09039,-0.018969,0.0039799,0.030656,0.17562,-0.031915,0.0063902
-0.029697,-0.22436,-0.048279,-0.032236,-0.044654,-0.15223,-0.050613,-0.025983
-0.32833,0.013767,0.061675,0.023713,0.011066,0.081829,0.010954,-0.0062135
0.16778,0.27454,-0.079572,-0.047179,-0.0055002,0.018173,0.10616,0.043956
0.17691,0.04944,0.036175,0.012986,-0.047266,-0.14004,-0.046436,0.063819
-0.050708,0.047067,-0.0046337,0.024926,0.011351,0.068468,0.005711,-0.030915
0.32925,0.029466,-0.0061638,-0.018524,-0.016319,-0.058808,0.019577,-0.027994
-0.35446,-0.4762,0.00074275,0.00059416,0.02686,0.096073,-0.029194,-0.035957
0.047092,-0.0128,0.06316,0.036152,0.040064,-0.067748,0.014819,0.054855
0.065354,0.26061,-0.014265,-0.0049996,0.023716,0.028314,-0.20056,-0.05273
-0.15131,-0.10267,0.080719,-0.020935,-0.0065387,0.071824,0.074286,0.023246
0.14682,0.13978,-0.16787,-0.019386,-0.027623,-0.039163,0.089227,-0.03107
-0.20476,0.01312,0.020889,0.02289,0.0067053,0.022692,0.10208,0.048215
0.19194,-0.018719,0.045209,0.035157,-0.01366,-0.032711,0.050475,-0.014279
0.039655,0.055957,-0.024631,-0.0065897,-0.019056,-0.026767,-0.073177,0.068595
-0.0055442,-0.14132,0.014635,-0.024839,0.0057182,0.016182,-0.14348,0.053021
0.0096371,-0.23901,-0.047676,-0.05141,-0.025395,-0.068475,-0.0035793,-0.10113
0.15612,0.1417,0.069954,0.02262,0.02841,0.094173,0.042656,-0.042578
-0.52597,0.39432,-0.0072829,0.0016418,0.0034805,0.051388,0.027416,-0.09888
-0.011806,-0.22965,0.048784,0.04177,0.017524,-0.071054,-0.024982,0.043837
0.16096,0.082292,-0.066652,0.018015,0.00072593,-0.084643,-0.082685,0.067185
0.14185,-0.28858,-0.010098,0.016454,-0.023117,-0.097715,0.065383,0.043608
0.29068,0.022118,0.014992,-0.056421,0.032078,0.24995,0.20787,0.053181
0.15395,0.46385,-0.015143,-0.044032,-0.044724,0.044744,0.015743,-0.10578
-0.66001,-0.25649,0.039875,-0.0085085,0.011777,-0.13522,-0.15278,0.028395
0.11302,-0.11933,-0.046633,0.034889,0.021409,0.045538,-0.080041,0.0025421
0.042031,-0.002907,0.037874,0.063014,0.0070549,0.031538,0.053578,-0.019982
0.094893,0.067111,-0.018906,-0.025528,0.0072676,-0.076516,-0.041035,0.092463
0.013532,-0.097868,0.056788,0.019288,-0.032992,0.017536,-0.050749,-0.044296
-0.13139,0.15061,-0.094022,-0.029192,0.011172,0.024255,-0.0056565,-0.04871
-0.057893,-0.09279,-0.0099989,-0.0070565,-0.0084833,-0.14225,0.11904,-0.070144
0.039522,0.071835,0.051359,-0.0081858,-0.013354,0.049713,-0.0036375,0.039398
0.17699,-0.072593,-0.011357,-0.0091959,-0.018376,0.093002,0.033169,0.022186
0.049801,0.069215,0.028352,0.0055916,0.0084789,-0.02728,-0.059794,0.14438
0.14164,0.053108,0.045212,0.0050723,0.036674,0.08006,0.060221,-0.13226
-0.46275,-0.2062,-0.06278,0.00506,0.019843,-0.06907,0.0087629,-0.05679
0.086717,0.11957,0.0085709,-0.0020946,0.0050705,-0.0059715,-0.020801,0.043519
-0.031597,0.1083,0.06353,0.01493,-0.015582,0.0033981,-0.038111,-0.072926
0.61895,-0.060766,-0.17939,-0.037679,-0.034728,-0.010208,0.010219,0.25816
-0.46173,0.1042,0.092319,0.074245,0.0016764,0.023005,-0.071606,-0.080628
-0.2572,-0.34217,0.011731,-0.0011804,0.014763,-0.030181,-0.0018687,-0.15237
0.038874,0.15521,-0.014465,-0.10027,-0.0040093,-0.005908,0.095768,0.010835
