0.02584,0.046036,-0.067006,0.069062,0.033385,0.022022,0.020611,-0.0075833
-0.0049164,-0.011059,0.26048,0.0096476,-0.0073268,-0.018037,-0.10898,-0.031894
-0.0047942,-0.014003,0.242,0.059754,0.007565,-0.09082,0.001148,0.0058368
0.018347,0.022089,-0.11478,-0.062338,0.0077722,0.053339,0.10074,0.082368
-0.0057797,0.019565,-0.13014,0.033487,0.0086957,0.031527,-0.044284,-0.02861
0.0088572,0.056886,0.39922,0.11241,0.017726,0.007894,0.051277,0.0090948
-0.023532,-0.1158,-0.69832,-0.25551,-0.020342,0.045137,-0.0020559,-0.023061
0.01442,0.063963,0.3276,0.062501,-0.012246,0.010681,0.039177,0.023497
-0.025546,-0.060308,-0.04605,0.011997,0.018254,-0.087437,-0.081657,-0.038675
0.02078,0.018857,-0.08453,-0.023797,-0.046099,-0.014656,-0.012101,0.0091504
-0.010579,0.051066,0.34525,0.11186,0.0058522,-0.028654,-0.0095144,-0.012799
0.021004,-0.010912,-0.053418,-0.057119,0.0027095,0.050338,-0.034915,0.035959
0.037329,0.027999,0.047772,0.14151,-0.00020611,0.12079,0.247,0.030248
-0.03986,-0.019741,-0.22585,-0.026338,0.029009,-0.043839,-0.18054,-0.053566
-0.015399,-0.06019,0.056072,-0.13068,0.020575,-0.076342,-0.014277,-0.012542
-0.0065985,-0.030427,-0.44134,-0.022735,-0.0095898,0.0077648,0.056735,0.020364
0.0020935,0.023244,0.40044,-0.014614,-0.022434,-0.03349,0.10147,0.02163
0.0028484,0.046728,0.18434,-0.066866,-0.018279,0.034599,-0.17003,-0.00094171
0.011312,0.0014221,-0.17463,0.031649,-0.0055244,-0.014135,-0.047101,-0.031671
0.0040702,0.028137,0.316,0.20263,0.061946,-0.007435,0.017521,-0.0079518
-0.0032577,-0.013918,-0.57102,-0.031162,-0.0041773,0.031541,0.0013666,0.0078346
-0.010728,-0.05494,0.02981,-0.069357,-0.040556,0.040416,0.10889,-0.007653
0.020617,0.037104,0.24881,0.039664,0.0069869,0.011335,0.021218,0.054997
0.028152,0.089448,0.57515,0.18502,0.028883,0.014469,0.013061,-0.015194
-0.027288,-0.062802,-0.46298,-0.15002,-0.037194,-0.083139,-0.14902,0.00041407
-0.044178,-0.11557,-0.46972,-0.32519,-0.042285,-0.047154,0.090171,-0.023323
0.0087965,0.032447,0.10801,0.035051,0.030028,0.036619,0.004102,-0.00059731
0.0068107,0.021972,0.34016,0.19769,0.040042,0.020045,-0.032584,-0.017416
0.043877,0.087825,0.14958,0.086535,0.0042689,0.0050829,0.002879,0.019995
-0.020327,-0.05839,-0.47725,-0.03079,-0.014101,-0.02353,-0.031003,0.010195
-0.0058261,0.021597,0.1969,0.019252,-0.014699,0.051579,0.05233,0.0002636
-0.013973,-0.030856,-0.059212,-0.10615,-0.036607,-0.074378,0.087921,-0.0095544
-0.0056159,-0.0042152,0.10888,0.0070858,0.029151,0.11378,-0.12027,-0.0033918
0.019181,0.023778,0.25813,0.029954,0.049054,-0.079994,-0.072737,-0.012308
0.0055102,-0.02487,-0.25075,0.085834,0.037855,0.085535,0.097548,0.0028594
0.015518,0.021598,-0.13618,0.00082659,-0.013111,-0.039034,0.062616,0.034282
-0.02154,-0.0090264,-0.23476,-0.03177,-0.018544,-0.04045,-0.067699,-0.0041052
0.018904,0.054657,0.75673,0.0020821,-0.10372,-0.052019,0.0041809,0.012483
-0.027563,-0.07694,-0.49181,-0.16406,-0.041927,-0.011338,-0.049021,-0.041204
0.0029385,0.041026,0.05645,0.032424,0.018882,0.066265,-0.015484,0.0064868
0.0010577,-0.029266,0.086947,-0.094931,0.032505,-0.0061028,0.097778,0.0069745
0.0061023,0.04801,-0.23784,0.30716,0.12456,0.077032,0.010123,-0.0085202
-0.01275,-0.055161,0.40943,-0.0014272,0.068863,-0.027251,-0.051544,-0.00084763
-0.0080891,-0.041604,-0.29136,-0.15149,-0.12675,-0.013494,0.022205,-0.0010811
0.0050008,0.018777,0.15323,-0.1336,-0.048481,-0.08419,-0.018846,0.0066227
0.026963,0.087334,-0.14525,0.39699,0.04539,0.097053,0.035805,0.014655
-0.0044442,-0.007484,-0.25431,-0.56729,-0.040873,-0.078905,-0.08787,-0.0002807
-0.018883,-0.038941,0.32124,0.51991,0.19251,0.059792,-0.02337,-0.014704
0.077184,0.13359,0.01376,0.16522,-0.12155,-0.073105,0.13482,0.033822
-0.10727,-0.24782,0.059439,-0.78918,-0.33417,-0.040724,-0.090634,-0.081421
0.052248,0.10566,-0.041086,0.38147,0.094366,0.17945,0.2058,0.076844
-0.02292,-0.040573,-0.13226,0.17552,0.36006,-0.030921,-0.3203,-0.030699
0.0027155,0.055409,0.24496,-0.08805,-0.083469,-0.016779,0.072727,0.0019578
0.0038503,0.041811,-0.11534,0.074329,0.10767,0.056773,0.13457,0.018369
0.027245,0.019986,0.15859,0.029686,-0.090219,-0.021843,0.123,0.010607
-0.012953,-0.088359,-0.54587,-0.32305,-0.20113,-0.24488,-0.23515,-0.044781
-0.030542,-0.0020719,0.19027,-0.037574,-0.06954,0.091357,-0.0096086,-0.014892
0.0061199,-0.010224,-0.025946,0.02801,0.10063,0.03487,-0.035462,0.030135
-0.004073,0.0044645,0.47571,0.328,0.12116,0.024602,0.039864,0.0045915
0.025254,0.096865,-0.24323,-0.050926,-0.01645,0.077638,0.14706,0.025901
0.016321,-0.045271,-0.15957,0.071087,0.093516,0.0076667,-0.048978,-0.022914
-0.0072371,-0.015399,0.31317,-0.064195,-0.10401,-0.028344,-0.03211,-0.0010776
-0.021962,-0.031964,-0.089177,0.058084,0.031482,-0.014595,-0.083423,-0.025692
-0.004564,0.014692,-0.020456,-0.28161,-0.070061,-0.013905,0.12503,0.036073
-0.0022078,-0.070518,-0.39152,-0.10719,-0.12673,-0.011315,0.045963,-0.0033174
0.02379,0.15003,0.02007,0.18289,0.096894,-0.038917,-0.11021,-0.018943
0.010516,-0.011164,-0.0086934,-0.0046633,0.10205,0.019626,-0.0080397,0.02034
-0.034596,-0.054255,0.64995,0.17465,-0.070909,-0.016111,-0.069749,-0.041842
0.020972,-0.002959,-0.34645,-0.083017,0.016589,0.040837,0.0091796,0.020947
0.0051896,-0.029531,-0.14683,0.027768,0.084019,0.06518,0.135,0.044518
-0.058503,-0.079726,0.31685,0.046618,0.022281,0.033472,0.0344,-0.04155
0.072251,0.15848,-0.14648,-0.11204,-0.20003,-0.1087,-0.026805,0.043917
-0.02412,0.020583,0.37318,-0.11204,0.041549,-0.02484,-0.056212,-0.050677
0.012157,-0.017259,-0.48713,0.17957,0.11342,-0.042321,-0.077042,-0.0049918
-0.045056,-0.072489,-0.19843,-0.19028,-0.11817,-0.011871,0.028078,-0.022074
0.0077513,-0.020167,0.17642,0.012694,0.048855,0.13755,0.024883,0.03101
0.030234,0.046143,-0.10319,0.32718,0.066606,-0.0076849,0.02272,0.037208
-0.0087309,0.017497,0.11432,-0.38817,-0.12837,-0.080396,-0.017694,0.0044678
0.047065,-0.07423,0.14537,0.28748,0.12718,0.059545,0.03603,0.0032275
-0.029142,0.052923,-0.0062915,-0.061247,0.020209,0.059656,0.081749,-0.044512
-0.05016,-0.10818,-0.18167,0.09556,-0.058913,-0.057788,-0.084284,-0.029239
0.030529,0.17733,0.41726,-0.10258,-0.086614,0.0029225,-0.0016436,0.025754
0.025095,0.06599,-0.42108,-0.062515,0.054808,-0.0013062,-0.069027,0.0034118
-0.027661,-0.16879,0.1839,-0.22173,-0.040068,-0.08655,0.073017,0.020997
-0.034143,0.011842,0.0258,0.014169,0.036037,-0.026155,-0.13762,-0.038709
0.036852,-0.033122,0.0072434,0.31817,0.096681,0.11797,0.11217,0.027246
0.021305,0.070917,-0.093693,0.19155,-0.091582,-0.09859,0.05733,0.038851
0.0052663,-0.0045251,-0.12286,-0.26292,0.0188,0.082986,-0.14551,-0.012144
-0.042364,-0.04876,-0.010596,-0.18496,-0.040561,-0.023968,0.042708,-0.032469
0.027018,0.055286,0.25179,0.34007,0.12882,0.049804,0.066822,0.00088124
0.010458,0.06545,-0.19297,-0.28133,-0.090431,0.030974,0.17603,0.0094941
-0.037205,-0.088443,-0.10767,0.18516,0.012253,0.028697,-0.0603,-0.022336
0.009154,-0.062443,0.33086,-0.29194,-0.079174,-0.11367,-0.017868,0.014919
-0.006647,0.010818,-0.13293,0.2948,0.0020623,-0.044946,-0.30623,-0.011198
0.0091385,0.022022,-0.17758,-0.062874,0.068094,-0.0074857,0.028287,-0.0064438
0.0095443,-0.021174,-0.029867,-0.037339,0.0092397,0.022244,0.096345,0.029716
0.025645,0.18549,0.8243,0.2069,0.043999,0.12272,0.079387,-0.0038113
-0.028727,-0.10083,-0.53941,-0.13517,0.031561,-0.072749,0.018296,0.0026782
0.018062,0.048756,-0.10821,-0.17304,-0.12193,-0.055882,-0.069877,-0.0053708
0.001766,-0.053958,-0.22834,0.03086,-0.072754,0.017352,0.10458,0.026658
-0.046436,-0.034409,0.012582,-0.15605,0.061976,0.037535,-0.044603,-0.034293
0.014157,-0.22071,0.19221,0.41489,0.1183,0.06674,0.043782,-0.008903
-0.019357,0.25482,0.39716,-0.014064,-0.091212,-0.052067,-0.11665,-0.022592
0.033047,0.033758,-0.72248,-0.23997,-0.0040617,-0.030841,0.081153,0.025798
0.038937,0.023598,0.62458,0.28361,0.03586,0.051227,0.15847,0.073436
-0.048204,-0.055582,-0.32487,-0.41265,0.012669,-0.041131,-0.1909,-0.059571
-0.0015565,-0.14787,-0.052943,0.17854,-0.019278,-0.027181,-0.1394,-0.0060796
0.0071211,0.10702,0.29371,0.15846,-0.021229,0.038381,0.040043,-0.015954
0.0012129,-0.032598,-0.30713,0.011594,0.014445,-0.015771,0.020797,0.020486
-0.0038721,0.12073,0.098204,-0.18331,0.009655,-0.0011005,0.11747,-0.013511
0.030582,0.019579,0.24407,-0.12828,-0.011838,0.0056318,-0.011424,-0.00027109
-0.0052239,-0.055827,0.17686,0.13903,-0.0025414,-0.048807,-0.0045544,-0.001845
-0.057032,-0.14585,-0.79958,0.065435,-0.031909,0.0087372,-0.040357,-0.010103
0.070104,0.13871,0.21213,0.074075,0.11198,0.061931,0.10027,0.068822
-0.038125,-0.039388,-0.078452,-0.4359,-0.21056,-0.013972,-0.075391,-0.022999
0.0010031,-0.048423,0.32695,0.58235,0.1418,0.069683,0.040778,0.003174
-0.031196,0.056181,0.16057,0.010777,0.044358,-0.024043,-0.021603,-0.056256
0.013907,0.016276,0.021496,-0.5662,-0.18283,-0.077797,-0.029803,0.0013146
0.042831,0.035073,0.10259,0.54476,0.13129,-0.02278,-0.0085667,0.066036
0.0011747,0.003707,-0.53562,-0.24427,0.15729,0.10061,-0.036745,-0.042121
-0.0092377,-0.053483,0.26222,-0.13033,-0.075118,-0.013221,-0.0050096,0.012631
-0.011639,-0.025893,-0.39401,0.1667,-0.044012,-0.036439,0.087221,-0.0040183
-0.021512,-0.037085,0.21643,-0.15053,-0.055185,-0.039016,0.0065957,-0.021494
0.0081069,0.015964,0.1514,0.12136,-0.070036,-0.035686,-0.058188,-0.00032482
0.038201,0.048577,-0.13222,0.24877,0.083604,0.045077,-0.004483,0.028715
-0.024967,-0.032161,0.27541,-0.31406,-0.17143,-0.068921,-0.019078,-0.012054
-0.032968,0.031805,-0.12293,-0.097161,0.033387,0.099854,-0.0080612,-0.020743
0.029791,0.060371,0.002357,0.048978,0.2307,0.11438,0.074994,0.018418
0.022633,0.036916,-0.18467,0.093866,0.10125,-0.0020179,0.041617,0.027238
-0.023264,-0.09462,-0.052578,0.10817,-0.12007,-0.062434,0.2343,0.04453
0.01701,0.031492,0.50557,0.31064,-0.081774,-0.044313,-0.30914,-0.070701
-0.020705,-0.031309,-0.099125,-0.43172,-0.073453,-0.073538,-0.097389,-0.014164
0.0041194,-0.088517,-0.2836,-0.087799,0.083806,-0.010131,-0.083843,-0.0049421
-0.010173,-0.0075865,-0.0892,0.030079,0.029886,0.0050162,0.099065,0.011445
-0.0089807,0.024213,-0.15779,0.00059241,-0.032593,0.050135,0.077235,-0.0041229
0.015429,0.085567,0.29178,0.0042838,0.0056066,0.06311,0.10182,0.0031109
0.023921,0.020902,0.14331,0.049875,-0.034963,-0.025873,-0.013605,0.025483
0.024255,0.080816,0.062669,0.052075,0.0024847,0.010225,-0.057322,0.00066899
-0.030462,-0.07022,-0.16665,0.17507,-0.053258,0.03895,0.04914,-0.00086341
-0.015186,-0.088252,-0.050131,-0.17544,0.1109,-0.080104,-0.069269,-0.0024315
-0.046987,-0.035725,-0.13257,-0.00055436,-0.043755,-0.0030713,-0.014441,-0.027386
0.030567,0.063912,0.0094206,-0.051783,0.021807,-0.011147,-0.036825,0.018099
0.014563,0.015348,0.10304,0.083396,0.15095,0.020707,0.050661,0.0091095
0.038002,0.099877,0.5073,0.044324,-0.09448,0.0065848,0.028967,0.0082566
-0.039628,-0.20585,-0.87302,-0.34166,-0.098004,-0.014451,-0.00049178,-0.046823
0.016044,0.074813,0.42847,0.2612,0.0069837,0.012217,-0.068985,0.00026224
-0.0060395,0.027875,0.22916,0.025155,-0.11576,0.00047387,0.02666,0.016806
-0.012352,0.0048682,-0.15364,-0.033377,0.080656,0.012518,0.020863,0.026278
0.028081,0.036905,-0.14426,0.063151,0.11211,0.0088774,0.022974,0.020788
-0.02564,-0.032506,0.14644,-0.11399,-0.052284,0.035966,-0.045263,-0.046739
-0.0018529,-0.031784,-0.32068,-0.048439,0.12688,-0.070711,0.050305,-0.004731
0.013394,0.046606,0.018208,0.07274,-0.14708,-0.061464,0.035977,0.021448
0.012308,0.030613,0.51719,0.22619,0.00093118,0.14171,-0.041596,0.023628
-0.028403,-0.048531,-0.30487,-0.11174,0.06305,-0.054851,-0.073137,-0.03754
-0.014745,-0.1438,-0.28849,-0.12109,0.054841,0.0054156,0.027372,0.009665
-0.0011105,0.073213,0.22515,-0.060041,-0.22686,-0.11455,-0.060123,-0.01443
0.036224,0.10283,-0.10641,-0.10073,-0.008624,0.054497,0.086629,-0.00026435
0.019354,0.015623,0.31809,0.12394,0.10801,0.098907,0.05396,0.021237
0.0030858,0.0070282,0.051433,0.25463,0.15429,-0.012311,-0.056252,-0.0042089
-0.043824,-0.079245,0.14525,-0.013172,0.0051072,-0.021296,-0.0016646,-0.029327
0.0035335,0.0066394,-0.39609,-0.21827,-0.13654,-0.021948,0.014574,0.024319
-0.019059,0.0066592,0.22919,0.014703,-0.067656,-0.0067225,9.9121e-05,-0.0071771
0.03665,0.0065799,-0.41014,-0.11846,0.024246,-0.0071526,-0.014108,0.032391
0.0064161,-0.0092921,-0.22791,0.1953,0.1081,0.062514,0.0029224,-0.013463
-0.03179,-0.0096474,0.41854,-0.12937,0.043687,-0.016481,-0.019348,-0.020127
0.031301,-0.0099436,0.063747,0.2361,-0.09807,-0.048628,-0.018548,0.027575
0.00032949,0.068164,0.078618,-0.10649,-0.089939,-0.025753,0.036544,-0.003579
-0.015313,-0.064193,-0.18204,-0.18076,-0.048555,-0.041189,0.013163,-0.012286
-0.015555,-0.00066933,0.21348,0.29396,0.049723,0.0069484,-0.033922,-0.014205
-0.015912,-0.014766,-0.24222,-0.43343,0.063926,0.11873,0.004735,-0.0091037
0.022788,0.080786,0.21527,0.20586,0.18056,0.082951,0.058855,0.011307
0.014687,-0.050314,-0.018085,0.15525,-0.031619,-0.061937,-0.051257,0.016422
0.014497,0.091528,0.24218,-0.024786,-0.043199,-0.051132,0.04156,-0.008684
0.014372,-0.017445,-0.48339,0.19516,-0.012106,-0.010464,-0.022087,0.022535
-0.032632,-0.13515,0.15471,-0.14709,-0.072189,-0.026475,-0.046859,-0.037977
-0.0093955,0.035493,-0.41466,-0.075226,-0.09847,0.002198,-0.0014298,-0.018302
-0.0018783,-0.005005,0.28545,-0.38512,-0.089819,-0.049167,-0.018502,0.010884
-0.0022255,0.04878,0.30322,0.2614,0.15901,0.08576,0.034844,-0.013677
-0.0025208,-0.068002,-0.27381,-0.07005,0.0022779,-0.021733,0.072735,0.063191
0.012993,0.020246,0.086864,0.15521,0.059847,0.051245,0.071735,0.24028
-0.0337,0.02468,0.19822,0.096507,-0.08027,-0.085103,-0.12444,-0.31166
0.06056,0.085639,-0.16685,0.06061,0.14545,0.030619,-0.039286,-0.0074442
-0.03242,-0.039849,-0.12698,-0.17044,-0.099175,-0.023477,-0.07123,-0.026993
0.03875,0.014259,0.16744,0.066861,0.11415,0.095887,0.10008,-0.010536
0.03165,0.15295,0.22234,0.11465,0.025394,0.075407,0.045042,0.13662
-0.10083,-0.40612,-0.44786,-0.20899,-0.08672,-0.10147,-0.040986,-0.029525
0.0083599,0.13328,0.13341,-0.04698,-0.13072,-0.068375,0.006049,-0.023219
0.023244,0.044471,-0.14962,0.05184,-0.11603,-0.075768,0.084485,-0.0073056
-0.024801,0.0076278,0.35434,-0.14042,0.011367,0.071646,-0.14959,0.034667
0.028531,0.054918,-0.2415,0.22714,0.32202,0.053997,0.092719,-0.014158
0.027298,7.6855e-06,-0.034501,-0.0018029,-0.073738,-0.0029493,0.014427,0.064798
-0.036,-0.038726,-0.028755,-0.14726,-0.080745,-0.043617,-0.11102,-0.088417
0.057642,0.033492,-0.19056,0.34593,0.19317,0.065588,0.068066,0.033187
-0.050998,-0.016993,0.5744,-0.24049,-0.20367,-0.042033,-0.026182,-0.0087648
-0.033758,-0.080473,-0.10269,0.054868,-0.027935,0.032033,0.020587,-0.043157
0.023328,0.061722,0.07929,-0.25203,-0.044507,-0.025075,0.028945,0.02323
-0.0049574,-0.044008,-0.14238,-0.012509,-0.073508,-0.010963,-0.00096687,-0.012985
0.045119,0.10935,0.047354,0.28137,0.23624,0.042157,-0.076987,0.02787
0.0012763,-0.010453,-0.44196,0.020237,0.11034,0.0082795,0.08193,-0.0024894
-0.035349,-0.029457,0.34769,0.11028,-0.046315,-0.027511,-0.016756,-0.049149
0.028613,0.0045835,-0.17825,-0.2454,-0.063358,-0.042315,0.0093428,0.10686
-0.018032,-0.010448,0.25494,0.12526,-0.12961,-0.0050012,0.034824,0.036041
-0.011295,-0.059034,-0.48261,-0.23036,-0.042772,-0.0011924,-0.096843,-0.097415
-0.013539,-0.015822,0.26906,0.0089247,0.032987,0.063537,0.028323,-0.019933
0.006816,-0.03634,0.037019,0.10203,0.12171,-0.013037,0.0042071,-0.020409
0.01899,0.12251,0.26142,0.026612,-0.14263,-0.089335,-0.043871,0.026366
5.9662e-05,0.024133,0.060644,0.072472,0.14769,0.11674,0.064194,0.019054
-0.018263,-0.0026741,-0.19843,-0.11964,0.0019226,0.051105,-0.0071376,-0.01873
0.011213,-0.051296,0.053012,0.13713,-0.0084979,-0.090614,-0.0075974,0.038071
0.010479,0.050166,-0.24957,-0.088362,-0.086074,-0.034993,0.031633,-0.021601
0.0028692,-0.05009,0.15758,0.030002,0.073908,-0.0088911,0.0010309,0.028507
0.019348,0.0069279,-0.15643,0.11495,-0.04473,0.03404,-0.029408,-0.0073847
-0.018605,-0.029186,-0.090239,-0.20279,-0.013332,-0.00063384,-0.036639,-0.028251
-0.0098377,0.0052985,0.15369,0.04395,0.0026892,0.026951,0.11961,0.027907
-0.024988,-0.0070355,0.029714,-0.028356,0.017492,0.0066767,-0.099951,-0.018949
0.013899,0.035231,0.46887,0.025805,0.06878,0.023865,-0.039064,-0.020499
0.0052749,-0.047704,-0.64499,-0.05813,0.038344,-0.015604,0.029044,0.023411
-0.011608,0.01745,0.040142,0.0027758,-0.11337,-0.064892,0.065705,-0.035247
0.026059,0.11329,0.25844,0.12457,-0.058041,0.0091585,-0.084854,0.022868
0.0014469,-0.018259,0.024787,0.0045268,0.048949,-0.034948,0.054384,0.026548
-0.0069895,0.013159,0.34595,0.11306,-0.033103,-0.016593,-0.016251,-0.0079624
-0.030264,-0.24576,-0.84157,-0.33764,-0.0289,0.14335,0.031508,-0.033322
0.041101,0.10338,0.41473,0.30944,0.21973,0.016058,0.056983,0.044457
0.0039281,0.0373,-0.35405,-0.093795,-0.066783,-0.061929,-0.065036,-0.0012063
-0.024785,0.032832,0.19618,-0.10983,-0.074836,-0.06699,-0.037972,-0.022133
0.0015408,0.035659,0.11292,-0.12179,-0.14001,-0.061881,-0.057454,0.0046788
-0.011198,0.022736,0.64688,0.11193,-0.020622,0.08552,0.079353,-0.0072355
0.038212,-0.028988,-0.67795,0.18417,0.32104,0.09293,-0.010621,0.019725
-0.0067774,-0.11914,-0.2909,-0.062508,-0.04671,-0.033075,0.016126,-0.0086252
-0.021364,0.033869,0.40977,0.089258,0.045651,0.05784,0.018701,-0.0066299
-0.0056263,0.031924,-0.22434,-0.19789,-0.17757,-0.08061,-0.0031883,-0.021267
-0.006397,0.015874,0.23644,0.03578,-0.022796,-0.066104,-0.034208,0.0022194
0.0077133,0.0014332,0.11236,0.21144,0.095101,0.038996,0.066041,0.024963
-0.017787,-0.011499,-0.29198,-0.2491,-0.15174,-0.053594,-0.077525,0.0081614
0.042313,0.031464,0.093569,-0.18111,-0.082368,0.0089718,0.097727,-0.016676
0.02414,-0.042022,-0.16866,0.30726,0.21144,0.071953,-0.13439,0.005338
0.0059832,0.040927,0.038265,0.022222,0.0053064,-0.066378,0.0079753,0.019629
-0.035451,0.076657,0.3078,-0.28481,-0.12074,0.024624,0.0021187,-0.028472
-0.037516,-0.13835,0.014599,0.30117,0.20168,0.095245,0.051902,0.0016093
-0.023494,-0.02613,-0.26348,-0.22749,-0.050592,-0.042465,0.056358,0.00041139
-0.032301,-0.00067463,-0.089013,0.065987,-0.0031965,0.047923,-0.023238,0.014732
0.15491,0.11017,0.57733,0.49266,0.045708,-0.010004,-0.014974,0.021108
-0.039963,-0.099498,-0.65438,-0.3868,-0.18667,-0.045751,0.026217,-0.035101
-0.015478,0.019089,0.060646,-0.081894,0.024883,-0.060299,-0.087615,-0.013137
-0.0062151,0.067659,0.21582,0.070431,0.09363,0.016355,0.010169,-0.0065558
-0.0046329,0.085242,-0.21127,-0.23446,-0.06639,-0.065344,0.053385,0.023918
0.0046299,0.016938,0.1939,0.2078,0.045578,0.03163,-0.09909,-0.015299
-0.048939,-0.29382,0.063734,-0.13186,0.055887,0.050904,0.091398,-0.014769
0.022056,0.097978,0.013987,0.0070479,-0.27604,-0.03737,0.062045,0.048871
-0.0011422,-0.0032375,-0.10609,0.017613,-0.026883,0.056865,-0.038902,0.09728
0.022151,0.050829,-0.11178,0.29213,0.42141,0.052667,-0.086506,-0.11985
0.013895,0.088245,0.28324,-0.11429,-0.10303,0.019894,0.044316,-0.024701
0.028853,0.015267,0.29576,0.094311,0.016029,0.0043062,0.049106,-0.0081584
-0.050109,-0.074289,-0.41088,-0.076316,-0.035604,-0.097146,-0.079584,-0.0078441
-0.012022,-0.063098,-0.60931,-0.21483,-0.041258,-0.051591,-0.013174,0.062195
-0.0052931,-0.013426,0.27301,0.043164,-0.096615,0.014808,0.045689,-0.0010346
0.0091817,0.004741,0.051671,0.046913,0.11733,0.054592,0.06619,-0.0020251
0.047089,0.13242,0.42509,0.052778,0.01427,0.020981,-0.045097,-0.01088
-0.03993,-0.11437,-0.026342,-0.033411,-0.1395,-0.09314,-0.030177,0.0038327
-0.0096038,0.069429,-0.075315,-0.023595,-0.1784,-0.036668,0.025043,-0.02026
0.013146,0.027812,0.16787,-0.072707,-0.014555,0.066624,-0.05923,0.0028469
-0.018498,-0.12188,-0.41627,0.078819,0.50234,0.13186,0.052731,-0.0049645
0.036125,0.050083,0.2396,0.18283,0.022045,-0.035568,0.001273,0.026579
0.012958,0.028017,-0.039158,-0.05592,-0.18153,-0.052648,0.036089,0.027098
-0.0098819,-0.016342,-0.035417,-0.22213,-0.10876,-0.0055466,-0.046242,-0.026911
-0.04022,-0.0050785,0.032165,0.20057,0.067463,0.019255,-0.011587,-0.041742
0.007873,-0.024398,-0.076539,-0.18601,-0.021346,-0.033588,0.014891,0.037293
-0.045296,0.066011,-0.1468,0.11793,-0.024821,-0.00060445,0.017493,-0.01633
0.089319,-0.085754,-0.1347,0.14311,-0.084421,-0.069684,-0.050653,0.00056829
0.0054161,0.13716,0.25374,-0.25191,-0.028623,0.087157,0.044864,-0.01355
-0.047105,-0.093677,0.14747,-0.05246,0.095777,-0.053437,-0.047493,0.011578
0.017544,0.034009,0.25167,0.17012,0.062577,0.06344,0.023803,0.01329
-0.0352,-0.19868,-0.38715,-0.046082,0.083172,0.031797,-0.0069944,-0.0086858
0.036666,0.20041,0.33763,0.35287,0.095498,0.054972,0.10992,0.078119
0.029863,0.059417,-0.46933,-0.29751,-0.23602,-0.14035,0.022772,-0.015688
-0.047883,-0.074694,0.18612,-0.075245,-0.075116,-0.05418,-0.18266,-0.079388
-0.0012518,-0.0064817,0.016728,-0.034393,0.062898,0.047751,0.032695,-0.0036141
-0.0020121,-0.079531,-0.3109,-0.21288,-0.056048,0.0089552,-0.018487,-0.022495
0.0047121,0.09699,0.60575,0.28133,0.037024,0.094722,0.023543,0.020692
0.019157,-0.0079218,-0.33663,0.08238,0.099966,-0.015648,0.026452,0.024998
-0.028756,-0.042442,0.12805,0.058387,0.0075606,-0.0021953,0.061038,0.0066566
0.017407,0.017119,-0.27888,-0.016896,0.071827,-0.0448,-0.036367,0.013011
0.0014931,-0.016525,0.087504,-0.11258,-0.090678,0.0050744,-0.0077034,-0.0025907
0.032873,0.052077,0.10753,-0.010829,0.027273,0.022901,-0.0013196,0.014471
-0.029174,0.019857,-0.025766,-0.056588,-0.043398,-0.037345,-0.0094359,-0.0064444
-0.020737,-0.08977,-0.22939,0.061426,-0.13073,-0.096428,0.022532,-0.034588
0.011142,0.012173,0.26567,-0.024959,-0.038894,-0.0047581,-0.10085,-0.00020839
0.027263,0.11463,0.49986,0.16804,0.13919,0.090137,0.081218,0.010252
-0.027144,-0.087194,-0.98077,-0.22689,0.052853,0.11053,0.013931,0.0042479
-0.019285,-0.046549,0.50065,0.087395,0.054346,-0.061076,-0.045061,-0.010571
-0.0038177,-0.021351,0.033638,-0.060387,-0.082638,0.035266,0.044656,-0.010734
0.019309,0.03515,0.0039582,-0.044517,-0.038059,0.015202,-0.0062644,0.027394
0.042323,0.13842,0.31334,0.29974,0.14826,-0.044909,0.012784,0.010359
-0.012892,-0.063316,-0.64307,-0.15213,-0.11069,-0.052928,-0.023542,-0.030259
-0.021356,-0.039023,0.21145,-0.056181,-0.073888,-0.064659,0.001657,0.0073933
0.016903,0.031419,-0.16923,-0.029712,0.046756,0.028867,0.0022696,0.0063385
-0.023118,-0.13334,0.15508,0.01286,0.070934,0.040507,-0.006091,0.0057366
-0.0007436,0.091739,-0.085118,0.14131,-0.071802,-0.0053099,-0.01545,0.0055734
-0.017428,0.027122,0.13003,-0.16843,-0.084222,0.0099908,-0.0098705,-0.0098803
0.012918,-0.014432,-0.13354,-0.073247,0.17506,0.05664,0.034485,0.0060938
