0.042252,0.020666,0.11475,0.023428,0.029805,0.016622,0.018924,0.022617
-0.047435,-0.062243,0.064037,-0.0022994,-0.017535,-0.0086545,0.012672,-0.0085038
0.044098,0.038891,0.045026,0.043736,0.0061093,0.0067896,-0.054221,-0.020841
0.075003,0.16851,-0.01338,-0.026053,-0.0010882,-0.0073066,0.02862,0.069795
-0.040834,-0.18127,-0.13696,-0.048045,-0.031664,0.011293,0.018187,0.026807
0.086557,0.21535,0.28805,0.11772,0.03124,0.015194,0.11668,0.30107
-0.035979,-0.28338,-0.25776,-0.084113,-0.054775,-0.058772,-0.18456,-0.5545
-0.065721,0.047817,0.011293,0.0021763,0.030567,0.054335,0.020098,0.076419
-0.081617,0.028056,0.0069729,-0.014232,0.021778,-0.028866,-0.003976,-0.016873
0.04091,0.023568,-0.12311,-0.039424,-0.010548,0.050658,0.0089764,-0.0049271
-0.018388,-0.09137,-0.073522,-0.057298,-0.05045,-0.082142,0.035997,0.12214
0.061302,0.14363,0.27497,0.12028,0.050818,0.026109,0.015299,0.0698
-0.023925,-0.11569,-0.05916,0.0095256,0.0043847,0.008719,-0.021062,-0.019225
0.078363,0.0989,-0.0025283,-0.0063945,0.0055788,-0.024307,-0.017642,-0.026287
-0.037303,0.099317,0.049116,0.0022012,0.0073548,0.013593,0.033961,0.088288
0.012459,-0.15405,-0.082011,0.011497,-0.0062378,0.021323,-0.022142,-0.11322
-0.076712,-0.16934,-0.14499,-0.080716,-0.059045,-0.0087294,0.040713,0.032395
0.11717,0.2723,0.41483,0.13109,0.051665,-0.006373,-0.082295,-0.030745
-0.054346,0.1013,-0.1455,-0.033354,0.013106,0.05141,0.061637,-0.006993
-0.044476,0.10829,0.094769,0.027329,0.036113,0.023378,-0.0044931,0.0088706
0.06856,-0.29032,-0.11547,-0.045943,-0.027629,-0.0051936,0.023516,-0.02294
-0.20754,-0.52907,-0.72235,-0.29146,-0.16217,-0.1286,-0.081368,-0.13411
0.087958,0.16068,0.37522,0.057504,0.031388,-0.019029,0.00075711,0.081325
0.12657,0.36734,0.36454,0.24423,0.14728,0.050077,0.05082,0.091863
0.15772,0.20146,0.15952,0.081986,0.021805,0.016457,0.013907,0.1159
-0.25693,0.2327,0.28333,0.11786,0.045769,0.091446,0.038325,0.14523
-0.040202,-0.47902,-0.61598,-0.25801,-0.1559,-0.076088,-0.063455,-0.25017
0.13512,-0.18787,-0.24196,-0.093517,-0.052225,0.006402,-0.0022954,-0.10153
-0.028507,0.42927,0.19424,0.12561,0.090765,0.0032149,-0.028015,-0.056736
0.078066,-0.16369,-0.018291,-0.039456,0.022645,0.031652,0.015905,0.0182
-0.029179,0.23266,0.56601,0.16028,0.086817,-0.0020008,0.036041,0.16402
-0.18521,-0.39127,-0.49792,-0.1663,-0.11534,-0.097729,-0.02977,-0.047052
0.0020548,-0.1365,-0.24915,-0.12844,-0.052567,0.049202,0.021902,0.0038753
0.14372,0.28879,0.31957,0.18081,0.056634,0.017018,0.050671,-0.025821
-0.23516,-0.25163,-0.019555,0.012506,-0.013908,-0.037892,-0.06048,-0.034353
0.36657,0.059757,0.090879,-0.046224,-0.013745,0.040856,-0.006763,0.071218
-0.081922,0.18842,0.16404,0.0056362,0.034048,0.011155,-0.030321,0.07037
-0.010793,0.0045744,-0.13849,-0.042251,-0.0031921,-0.0098276,-0.0061642,-0.039339
0.039631,0.17316,-0.084287,0.044524,0.03064,0.032462,0.081261,0.075369
-0.11997,0.12249,0.12281,0.11696,0.033533,-0.010656,-0.010378,0.06841
-0.10099,-0.24437,-0.29752,-0.091604,-0.073321,-0.092631,-0.0078711,-0.38987
-0.038109,-0.17372,-0.069109,-0.043395,-0.0094425,0.012723,-0.052137,-0.034225
0.40316,-0.067992,0.023249,0.057241,0.044792,0.070627,0.051806,0.19863
-0.37174,0.062093,0.21912,-0.024906,-0.036058,-0.044332,-0.047932,-0.041057
0.12141,0.22321,0.17221,0.014652,0.029191,0.073703,0.054631,0.2022
0.047235,-0.099388,-0.073953,-0.050081,-0.048164,-0.067788,-0.039115,-0.076904
-0.14784,-0.059208,-0.11018,-0.0225,0.037316,0.07787,0.061421,0.045671
0.29558,0.16026,0.14264,0.067948,0.021041,-0.020564,-0.02645,0.040244
-0.30033,-0.44435,-0.27755,-0.10491,-0.08023,-0.058111,-0.06808,-0.30333
0.097613,-0.1348,-0.23319,-0.086266,-0.038912,-0.0029292,0.054108,0.046174
0.0068732,0.68502,0.53671,0.2264,0.098821,-0.065109,-0.081328,0.048906
-0.024171,-0.12535,-0.082804,0.020561,0.020694,0.06102,0.065059,0.12527
0.013288,0.11155,0.1056,-0.0095692,0.031086,0.032639,0.032576,-0.062662
0.10397,-0.0069568,0.034366,0.094959,0.035478,0.022319,0.055634,0.39694
-0.065018,-0.0018673,-0.18278,-0.082369,-0.037497,0.0069177,-0.014385,-0.40436
-0.041695,-0.33935,-0.3048,-0.16892,-0.13424,-0.037174,-0.12316,-0.13239
-0.038818,0.19548,0.24796,0.099227,0.056881,0.022237,0.010103,0.024278
-0.011881,-0.20359,-0.020454,-0.059856,-0.027123,-0.050173,-0.044758,-0.0049061
-0.041719,-0.13694,-0.21355,-0.10656,-0.019097,0.064809,0.17281,0.16343
0.16577,0.25848,0.30031,0.16386,0.089131,-0.040107,-0.0014555,-0.0086068
0.076869,-0.24634,-0.29303,-0.035314,-0.029949,-0.014144,-0.098801,0.0040243
0.10391,0.25289,0.27651,0.04849,0.054053,0.048567,0.076398,0.20311
-0.13648,0.37849,0.43268,0.11286,0.021462,-0.0081233,-0.045562,-0.1829
-0.16674,-0.49895,-0.56777,-0.21564,-0.10381,-0.043018,-0.057558,-0.12873
-0.046743,0.20755,0.17764,0.071354,0.02224,-0.039554,-0.028893,-0.015395
-0.31151,0.15287,0.045931,0.067117,0.032486,0.01901,0.0023185,-0.036678
0.3954,-0.33825,-0.25873,-0.050109,-0.057583,0.024365,0.067975,0.074133
0.23506,0.12803,0.030532,0.022242,0.025179,0.031978,0.0041444,0.10648
-0.17926,0.15609,0.36151,0.062978,0.053801,0.018732,0.013445,-0.026134
-0.032953,-0.30538,-0.30818,-0.13339,-0.050345,0.031283,0.27445,0.14349
-0.029215,0.068491,-0.0028387,-0.014104,0.0090664,-0.032648,-0.3472,-0.22302
0.017119,-0.075558,-0.16628,-0.010073,-0.018516,-0.064756,0.029651,0.066608
0.062799,-0.026719,0.040944,0.050184,0.022659,0.035316,0.012942,0.03267
0.18065,0.26306,0.28769,0.088985,0.03846,-0.02262,-0.046702,0.086457
-0.05662,0.022414,0.0010806,-0.048762,-0.057256,-0.028468,0.0066923,-0.24272
-0.005124,-0.13683,-0.087401,-0.06448,0.0089715,0.079832,0.087572,-0.025948
-0.32393,0.26438,0.29966,0.16103,0.073362,-0.0023869,-0.014081,0.23725
-0.14649,-0.46707,-0.57726,-0.22171,-0.12136,-0.032479,-0.023577,-0.092097
-0.13539,0.029983,0.017501,0.00013881,0.0036743,-0.0096265,0.036992,-0.097396
0.3843,0.36621,0.48232,0.13276,0.058709,-0.03434,-0.042081,0.052462
0.39295,-0.12946,-0.2074,0.020805,0.005548,0.05076,0.044846,0.071388
-0.1605,-0.019181,-0.038014,-0.054321,-0.030071,-0.018907,-0.076643,-0.10059
-0.03109,-0.045185,0.034922,0.078693,0.061723,0.062162,0.070204,0.27268
-0.13911,0.073453,0.0088453,-0.05793,-0.023571,0.0053895,0.0086429,-0.14391
-0.062342,-0.21071,-0.23583,-0.10649,-0.067355,-0.071928,-0.0039793,-0.10046
-0.043584,0.078128,0.11134,0.056125,0.023659,-0.052861,-0.077687,-0.051001
0.10341,0.0014759,0.20501,0.11554,0.045642,0.0464,-0.0022627,0.096676
-0.13073,0.19096,-0.057511,-0.062641,0.021185,0.10789,0.10442,-0.1203
0.28369,-0.026637,-0.12222,-0.065504,-0.058401,-0.06459,-0.031663,0.24128
-0.11568,0.034825,0.065337,0.059538,0.024853,0.0046723,-0.051548,-0.17223
0.13879,-0.11018,-0.018044,-0.031151,-0.010884,-0.020963,0.044533,0.11392
-0.53963,-0.14203,0.081468,0.03036,-0.033106,-0.032574,-0.032523,0.074934
0.30954,0.032952,-0.10368,-0.043716,-0.010568,-0.0068858,0.022103,-0.18833
0.1314,0.15762,0.17034,0.068557,0.096069,0.01715,-0.01789,-0.097683
-0.050652,-0.0011599,-0.15695,-0.045131,-0.033007,0.00078321,0.019714,0.14455
0.075994,-0.14486,-0.075618,-0.0081532,-0.029978,0.038171,0.01028,-0.022689
-0.050887,-0.10771,-0.18522,-0.069251,-0.019175,0.028156,0.0010246,0.050825
-0.079195,0.35387,0.43757,0.13945,0.054693,-0.0054908,-0.03903,-0.04712
0.24979,-0.18117,-0.16761,-0.061768,-0.034485,-0.023472,0.030918,-0.010245
-0.57821,-0.017445,-0.13415,-0.048647,-0.036478,-0.056887,-0.023451,0.021912
0.29787,0.24278,0.44244,0.154,0.072118,0.0037283,-0.0068995,0.10449
0.1768,-0.23775,-0.2765,-0.072792,-0.021479,0.033424,0.017866,-0.0049157
-0.18189,-0.16379,-0.12231,-0.051161,-0.013063,-0.022467,0.0036546,-0.15861
0.027774,0.24432,0.22223,0.14705,0.073357,0.039166,0.043834,-0.029574
0.032836,0.032296,-0.026379,-0.10404,-0.043992,0.015152,-0.033846,0.17781
0.098513,-0.026851,-0.095565,-0.06222,-0.021693,0.022617,0.0047112,-0.20167
-0.23742,0.0049007,-0.10947,-0.062499,-0.016025,-0.024425,0.010965,0.18261
0.41374,-0.019386,0.10632,0.045293,-0.011043,-0.071279,-0.06964,0.087948
-0.29397,-0.08958,-0.045894,0.060192,0.025126,-0.00068121,0.013262,-0.21231
0.012472,-0.22637,-0.18666,-0.054736,-0.055156,0.031254,0.0023978,-0.0068521
-0.0042651,-0.0912,-0.10093,-0.04788,-0.040168,-0.03783,-6.4921e-05,0.072279
0.13974,0.78648,0.76109,0.33148,0.2191,0.10465,0.053279,-0.012972
-0.39091,-0.46008,-0.32619,-0.1748,-0.089662,-0.017894,0.029953,-0.074061
0.10827,0.011615,-0.098343,-0.052461,-0.029201,-0.0072044,-0.046547,0.046118
0.17819,0.15181,0.097675,0.0089426,0.0013831,-0.027638,-0.02801,0.066805
-0.015298,-0.11388,-0.086485,-0.047625,-0.014475,-0.040491,-0.0086525,-0.0041535
0.16975,0.24128,0.15658,0.11944,0.07064,0.039827,0.057794,0.16099
-0.14116,-0.10707,-0.14652,-0.061721,-0.041048,-0.0056991,-0.0089884,-0.15713
0.0046691,-0.28666,-0.13195,-0.052681,-0.045456,0.041549,-0.0064028,-0.013829
-0.081504,-0.13426,-0.13721,-0.095314,-0.036543,-0.029346,0.018342,-0.073571
-0.0030475,0.10131,0.033358,0.045908,0.0093193,-0.038535,-0.075461,-0.070771
0.0036347,0.21989,0.28018,0.083609,0.061388,0.022065,-0.022031,-0.012945
-0.0086717,0.05361,0.19232,0.10557,0.042214,0.0043291,0.038341,0.12382
0.044506,-0.33076,-0.29685,-0.14442,-0.070954,-0.02114,-0.011132,0.035247
0.28739,0.31264,0.081943,0.037855,0.034943,0.055238,0.10334,0.19023
-0.24092,0.11128,0.035056,0.074727,0.0086982,-0.024268,-0.032086,-0.14588
-0.19574,-0.082293,-0.083423,-0.026165,-0.0089194,0.021552,0.059235,-0.067415
-0.05978,-0.1357,-0.17026,-0.046699,-0.017935,0.0050766,-0.1071,-0.012704
0.16128,0.23861,0.34557,0.074764,0.059665,-0.034772,-0.023301,-0.052865
0.11024,-0.43803,-0.30182,-0.16263,-0.088741,-0.012144,-0.025285,0.030224
-0.015778,0.035317,-0.12152,-0.064256,-0.02572,0.0026632,0.06678,0.048709
-0.043862,0.28177,0.39211,0.14288,0.06123,-0.0058507,0.0031268,-0.036548
0.04953,-0.16878,-0.076337,0.013248,-0.023162,0.0093944,-0.0050509,0.040215
0.01361,0.12817,0.14955,0.0624,0.025818,0.0017405,-0.01225,0.005814
-0.012424,0.1411,0.050985,0.048156,0.051869,0.018215,-0.0028036,-0.022285
0.016633,-0.17678,-0.32764,-0.091948,-0.04674,-0.034908,-0.00030338,0.081172
-0.056946,-0.22357,-0.20649,-0.11566,-0.051551,0.076613,0.04178,-0.13671
-0.20283,0.03237,0.023765,0.031827,0.037051,-0.022493,0.037037,-0.02725
0.11788,0.3023,0.24711,0.069408,0.046773,-0.012265,-0.038461,0.27705
0.17142,-0.10897,0.01253,-0.018369,-0.046201,-0.025859,-0.036654,-0.20771
-0.072227,0.071929,0.072531,-0.0047967,-0.015576,-0.047908,-0.035816,0.0034545
-0.056868,-0.014575,0.04675,0.047703,0.01356,0.038665,0.018876,-0.033951
0.023641,0.029874,0.03095,0.03757,0.04133,0.038595,-0.004985,-0.053417
0.10785,-0.083538,-0.19221,-0.066491,-0.02567,0.0067556,0.080678,0.14901
-0.22574,-0.096243,-0.075096,-0.03015,-0.022845,-0.0097066,-0.051659,0.00362
-0.079163,-0.10072,-0.015962,-0.017453,-0.019855,-0.033936,-0.026539,-0.098791
0.28844,-0.071901,-0.062011,0.0029636,-0.0082142,-0.034432,-0.031296,-0.0023215
0.046942,0.17934,0.26257,0.031319,0.02828,0.051451,0.074483,0.096802
0.16279,0.32615,0.097354,0.052291,0.043131,0.004964,0.016762,-0.068432
-0.10835,-0.013702,-0.011956,0.01154,0.028644,0.029079,0.091521,0.34405
-0.37728,-0.19196,-0.097659,-0.028074,-0.023153,-0.0092994,-0.13194,-0.50337
0.027502,-0.084483,-0.12916,-0.066218,-0.050147,-0.04802,-0.0060917,0.10662
-0.10412,-0.14571,-0.059675,-0.0088779,-0.013804,0.037598,0.0075611,-0.030037
0.30777,0.10725,0.02536,0.0034554,0.0071775,0.020795,-0.012928,0.10201
-0.031482,0.14957,0.009627,0.025404,-0.011181,-0.074991,-0.0045734,0.22971
0.044292,-0.10594,0.089311,0.087891,0.063476,0.047343,0.010156,-0.23186
-0.10412,-0.027533,-0.086719,-0.067519,-0.019196,-0.041465,-0.02215,-0.062481
0.16431,0.11049,0.098363,0.0036071,-0.0094252,-0.012742,-0.022022,-0.088552
0.22397,0.041771,0.20575,0.026791,0.022372,0.079375,0.12107,0.26198
-0.45774,-0.19522,-0.2198,-0.061518,-0.048789,-0.014685,0.025077,-0.17348
0.015962,0.063153,0.077043,0.034678,0.011596,-0.021278,-0.091001,0.066936
0.12017,0.1214,0.13307,0.025777,0.016255,0.0048382,-0.00087076,-0.016532
-0.091255,-0.12974,-0.33435,-0.041424,-0.018885,-0.0069918,-0.017741,0.059967
0.092627,0.12273,0.065358,0.013205,0.031518,0.012992,0.0058204,0.092128
0.071136,-0.065616,0.013431,0.0030897,0.0037482,0.040692,0.045245,-0.093534
-0.068223,-0.084116,-0.12785,-0.054856,-0.031554,-0.026094,-0.0099362,-0.037802
-0.13603,0.03756,0.067146,0.020503,0.01183,-0.023812,-0.03564,-0.14063
-0.099162,0.11361,0.12566,0.027398,0.024742,-0.04651,0.014368,0.136
0.20783,-0.26843,-0.074273,-0.064401,-0.070809,-0.031751,-0.039906,-0.10683
0.15274,0.20515,0.1486,0.097145,0.037714,0.051843,0.03594,0.13885
0.032139,-0.0040917,-0.026284,0.019693,-0.0013261,0.056084,0.078179,0.10803
0.016778,0.010008,0.086545,-0.0006365,0.015012,0.028136,-0.10011,-0.17488
-0.26995,0.074764,-0.039692,-0.011901,0.031764,-0.0082791,0.040888,0.049097
0.03744,-0.037729,-0.12766,-0.023258,0.0017363,-0.02163,-0.013621,-0.023527
-0.038971,-0.05562,-0.0012947,-0.035908,-0.044125,-0.011594,-0.0049919,-0.032286
-7.3205e-06,-0.011645,-0.061588,-0.0037725,-0.020102,-0.048078,-0.002797,0.047121
-0.04122,-0.055302,0.034231,0.0026091,0.0034083,-0.029012,-0.014289,-0.089465
0.12663,-0.022959,-0.033392,-0.024206,-0.012595,0.022723,0.015529,0.16746
-0.011725,0.03877,-0.059048,-0.0052328,0.025825,0.0060673,0.0085426,-0.065226
0.12209,0.083871,0.093379,0.045044,0.040805,0.061964,0.042592,-0.01474
-0.0031162,0.1761,0.2088,0.096545,0.032624,0.057615,0.0077648,0.06801
-0.10624,-0.27693,-0.084456,-0.06071,-0.076603,-0.10108,-0.065386,-0.12264
0.031268,-0.063072,-0.08082,-0.058965,-0.021083,0.007072,-0.021352,0.02182
-0.0046616,-0.033142,-0.12286,-0.0075093,-0.011686,-0.0016674,-0.0014237,0.10236
-0.14339,0.062944,0.03141,-0.00049602,0.021852,0.012328,0.032965,-0.076567
0.029892,0.24793,0.12264,0.062822,0.055917,0.032537,0.097174,-0.13981
0.024074,0.036059,0.14825,0.040732,0.0042921,-0.035413,-0.12131,0.12404
0.090349,0.097343,0.10506,0.025818,-0.00056079,0.003575,0.018376,0.13753
-0.12963,-0.47635,-0.55708,-0.17046,-0.060549,-0.0065039,-0.0067867,-0.067333
0.26315,0.18067,0.17456,0.060536,0.035001,0.005349,0.0068708,-0.021118
-0.10632,-0.0573,0.12604,0.015387,-0.010902,-0.030173,0.0052141,-0.13739
-0.15276,-0.11199,-0.1959,-0.055757,-0.041954,-0.01819,0.0043207,0.060638
0.15388,0.12688,0.22429,0.042941,0.0045435,-0.012378,-0.011181,0.05722
-0.039449,0.10594,0.12183,0.054418,0.050742,0.042603,0.0055745,-0.01532
-0.093643,-0.10324,-0.27525,-0.083044,-0.020291,0.053128,0.030876,-0.0093729
0.13062,0.078302,0.07399,0.05308,0.010342,0.02654,0.017359,0.14431
-0.031566,0.11947,0.12472,0.056931,0.033252,0.00093281,-0.043378,-0.086616
-0.23674,-0.18336,-0.20703,-0.10265,-0.045493,-0.0015074,0.0043646,-0.05464
0.34357,0.22357,0.21327,0.089793,0.039435,-0.060135,0.035221,0.044441
-0.10226,-0.1998,-0.2303,-0.069211,-0.032596,-0.058666,-0.083697,-0.17209
0.044267,-0.086939,-0.060481,0.013711,-0.011823,0.010353,0.046304,0.13245
-0.12939,0.023162,0.21497,-0.0054819,0.015755,-0.0012538,-0.035168,0.029652
-0.082624,0.12358,0.158,0.005923,-0.0043814,-0.0067524,-0.022707,-0.025774
0.021775,-0.07308,-0.068339,-0.0066291,-0.0015148,0.073099,0.084413,-0.0087634
0.22369,-0.056865,-0.058975,-0.0037216,-0.021936,-0.026168,-0.010124,0.011705
-0.039198,-0.0052655,-0.14308,-0.023907,0.0053332,0.016685,-0.017003,-0.0026488
-0.095477,0.10692,0.0068498,0.074004,0.018416,0.014669,0.0089691,-0.036146
0.24133,0.046254,0.0079319,-0.037611,0.0099545,0.038121,0.02045,-0.011385
-0.28794,0.0078576,0.024659,0.00095907,0.019198,-0.03055,-0.014523,0.24992
-0.0050002,0.013843,0.003021,0.0023024,-0.0086685,-0.012332,0.043879,-0.19161
0.01867,-0.1256,0.013902,0.0052875,-0.019396,-0.048595,-0.086299,0.052657
0.047907,-0.10088,-0.098842,-0.076494,-0.029296,-0.014976,-0.014898,-0.12845
-0.058248,0.12399,0.17201,0.053139,0.0076683,-0.013441,-0.015499,-0.087763
0.10654,0.10883,0.075149,0.080871,0.043758,0.049621,0.04489,0.18199
0.15985,0.05488,0.030655,-0.017533,0.0078964,0.033659,0.065141,0.040439
-0.29615,-0.12442,-0.049229,-0.023939,-0.014518,-0.022066,-0.055742,-0.089565
0.051706,-0.037671,-0.0642,-0.04018,-0.00026102,0.023285,0.034383,0.074785
-0.022506,-0.06547,-0.10819,0.0042426,-0.042912,-0.033259,-0.046822,-0.042731
0.083292,-0.079481,-0.086221,-0.015001,0.0065242,-0.019772,-0.025627,-0.065106
-0.013394,0.049228,0.027721,0.0047273,0.0082991,0.040268,0.058985,0.048565
0.06253,0.043223,0.018434,-0.044662,0.0025397,-0.040722,-0.043115,-0.059665
-0.03279,0.1789,0.13192,0.072439,0.013762,0.073134,0.074027,0.111
0.012932,-0.057853,-0.07389,-0.025883,-0.0040015,0.022515,-0.0040197,-0.10346
-0.04271,-0.0032301,0.059203,0.027884,0.0045082,-0.075164,-0.035411,0.13216
-0.0045264,0.11423,0.15632,0.061486,0.0081682,-0.047594,-0.020356,0.019598
-0.075636,-0.20101,-0.13595,-0.066775,-0.016816,-0.0035436,-0.02135,-0.060166
-0.02157,-0.031136,-0.00083976,0.016491,-0.00092941,0.018601,0.00089559,-0.030932
0.14212,0.057228,0.025753,0.0047238,0.02345,0.019429,0.0077294,-0.058486
-0.20967,0.021549,-0.10021,-0.033571,0.00035603,0.061776,0.054326,0.027803
0.33676,-0.007667,0.046516,0.017389,0.0066824,-0.018465,-0.04638,-0.046126
-0.055141,-0.046878,-0.005953,0.00060883,-0.013233,-0.0030147,0.026185,0.079123
-0.026768,0.068681,-0.032391,-0.044793,-0.013066,0.013538,0.022025,0.16192
-0.039726,-0.033926,0.077278,0.0070411,-0.031913,-0.032375,-0.043517,-0.22652
-0.18808,-0.12508,-0.13527,-0.0064394,-0.014588,-0.016851,0.0087146,-0.046073
-0.0028198,0.11124,0.037213,0.0026115,0.032029,-0.011133,-0.0094742,0.087035
0.22786,0.061319,0.037171,0.043991,0.038839,0.03106,0.057431,-0.021791
0.099108,0.017085,-0.028827,0.0022563,-0.0084968,0.00018498,-0.033401,0.088752
-0.48895,-0.066447,0.046605,0.027094,-0.0072521,-0.0097392,-0.01677,0.1765
0.22312,0.092665,0.055391,-0.021512,-0.011239,-0.021512,-0.017801,-0.28217
0.15064,-0.1311,-0.032683,-0.0029993,0.011276,0.012615,0.01059,0.071887
0.075437,0.049708,0.039278,-0.0039574,0.013473,-0.00017589,0.014223,0.0042738
0.036415,-0.00011135,-0.075158,-0.05672,-0.036252,0.003435,-0.0061921,-0.047211
-0.26419,-0.041232,0.041892,0.048325,0.017663,0.024001,-0.018624,-0.035046
0.0081256,0.0015272,-0.082988,-0.026136,-0.028828,-0.024213,-0.014562,-0.067754
-0.093612,0.10988,0.1159,0.054573,0.049816,0.053946,0.04555,-0.027325
0.38988,0.070823,0.10344,0.0081737,0.01822,-0.0075972,0.04473,0.31331
-0.23031,-0.32777,-0.29481,-0.11136,-0.054153,-0.045383,-0.024926,-0.0068088
-0.002028,0.13266,0.013993,0.023722,-0.0038494,0.010308,0.0081341,-0.01173
-0.0038869,0.17177,0.17912,0.11651,0.012582,0.010609,-0.044035,-0.18693
-0.11087,-0.036688,-0.086146,-0.051502,-0.0048364,-0.060265,-0.025616,0.044397
0.2009,-0.15416,-0.083057,-0.034516,0.0067111,0.032195,0.024016,0.040334
-0.020972,0.017719,0.098538,-0.0037676,-0.006922,-0.00069505,0.018787,-0.20791
-0.12719,-0.12737,-0.037624,-0.013208,-0.029432,-0.041236,-0.064714,0.15065
0.039332,0.10848,-0.011985,0.047304,0.07272,0.098573,0.039268,-0.016951
0.11992,0.29737,0.31014,0.061327,0.042422,0.051907,0.073054,0.11756
-0.056801,-0.13819,-0.17222,-0.056394,-0.057206,-0.11079,-0.080501,-0.039263
0.017286,-0.065895,-0.1159,-0.047462,-0.061592,-0.014627,0.03162,0.036379
-0.032698,-0.06547,0.0089055,-0.0051759,-0.0094249,0.004097,0.0028954,-0.084854
-0.073958,0.0091753,-0.057587,-0.046447,-0.0020594,0.0073796,-0.04207,-0.058873
-0.19256,-0.02438,0.06537,0.070966,0.062075,0.04934,0.091612,0.08343
0.3222,0.081144,-0.014717,0.073418,0.073385,0.059145,0.028601,0.053407
0.11844,-0.03597,0.021002,-0.047369,-0.070129,-0.096378,-0.16875,-0.15627
-0.10891,0.23198,0.21064,0.075125,0.029355,0.01234,0.077811,0.15804
-0.016457,-0.28769,-0.21182,-0.091112,-0.066366,-0.044216,-0.051623,-0.13596
-0.21376,-0.071391,-0.15257,-0.078049,-0.022049,-0.0077996,0.0295,0.13403
0.096096,0.10847,0.10761,0.035639,0.028892,0.0049949,0.0093717,-0.21144
-0.039684,-0.027615,0.03814,0.038712,0.015703,0.049458,0.068286,0.29639
0.19977,0.17873,0.10847,0.032692,0.008442,0.0088469,-0.074637,-0.19437
-0.044255,0.0031282,0.061355,0.025579,0.030485,0.023948,0.033772,0.050067
-0.021129,-0.201,-0.1732,-0.076045,0.0038388,-0.01479,0.0025925,-0.049236
-0.089775,-0.026132,-0.071705,-0.029609,-0.047742,-0.037532,-0.020303,0.014611
-0.039084,0.043829,0.021872,0.024592,-0.022211,0.025385,0.019079,0.147
0.083885,0.047518,0.021175,0.016437,0.018537,0.024869,0.034152,-0.11362
-0.010491,0.093036,0.11316,0.024042,-0.0029576,-0.016123,-0.0067591,0.068497
0.090956,-0.094969,-0.093333,-0.023117,-0.015756,-0.035249,-0.064663,-0.087571
-0.034757,0.27037,0.22161,0.077741,0.027514,-0.047907,-0.037665,-0.041876
0.048745,-0.078549,0.097012,0.037193,0.049014,-0.0066309,0.004604,-0.035297
-0.096948,-0.40087,-0.5526,-0.15278,-0.021527,0.097232,0.00051549,-0.0038405
-0.003551,0.029701,0.055071,0.0078874,-0.020231,0.0067876,0.08373,-0.00084466
-0.092829,0.22965,0.19497,0.035268,0.013492,-0.03497,-0.01859,0.19332
0.089048,-0.080379,-0.037441,-0.069882,-0.037971,0.0037445,0.037502,0.024178
-0.12081,0.1021,0.15624,0.068375,0.020287,-0.0018997,-0.0060689,-0.00098019
0.31808,-0.14223,-0.1293,-0.056889,-0.04644,-0.020879,-0.017134,-0.11759
-0.10854,0.12625,0.11382,0.086162,0.058502,0.039985,-0.012178,-0.01444
-0.21991,-0.10689,-0.13093,-0.010205,-0.0087589,0.0080049,0.015758,0.065098
0.19549,0.14276,0.064369,0.0050628,-0.00609,-0.023979,-0.066784,-0.17661
-0.11236,0.030302,0.041146,0.052792,0.011798,-0.0099392,-0.041353,0.041477
0.098105,-0.055703,0.031313,-0.0012253,0.0058185,0.01041,0.10776,0.039965
0.021066,-0.070998,-0.1704,-0.095939,-0.016255,-0.017974,-0.064362,0.014756
-0.0089868,0.044273,0.059577,0.0096462,0.00020967,-0.0091852,0.044424,0.06801
0.10018,-0.02458,0.041113,0.0258,0.0082796,-0.017646,-0.010613,-0.042134
-0.45743,-0.052369,-0.0377,-0.063112,9.4799e-05,0.066486,0.028777,0.051401
0.42666,-0.055098,-0.13631,-0.029885,-0.047806,-0.037482,-0.0090872,-0.011331
-0.13852,-0.016557,0.052056,0.032858,-0.0026022,0.0069049,0.00071838,0.057834
0.066052,0.33804,0.29524,0.11866,0.1045,0.043787,0.011023,-0.062397
-0.036954,-0.23168,-0.24074,-0.04462,-0.031093,-0.051628,-0.033282,-0.099375
-0.047916,-0.028476,0.0079656,-0.026331,-0.018609,0.017561,-0.0076191,0.02465
0.050165,0.058815,0.057497,-0.0056637,-0.021881,-0.0222,-0.013877,-0.033935
-0.085113,-0.015273,0.024754,0.02517,-0.001533,0.039844,0.018102,-0.0088986
0.094227,-0.0076198,-0.036515,0.0032042,-0.027489,-0.023044,0.0024106,0.069412
