-0.0040709,0.024103,0.23568,0.012988,0.018118,0.0064437,-0.0022133,-0.021899
0.025659,0.090134,0.34642,0.059103,0.038816,0.0072102,0.036748,0.040263
0.00013664,0.01617,-0.52835,-0.025722,0.037959,-0.016469,-0.05024,0.00019268
-0.010077,-0.056648,0.10635,0.039553,0.02346,0.037122,0.010317,-0.024754
-0.020298,-0.034275,0.0030185,-0.081415,-0.0049879,0.0119,0.015415,-0.010893
-0.0067526,-0.02601,0.35854,0.063972,-0.024576,-0.0060344,-0.011329,-0.0048101
0.023071,0.038342,-0.34244,-0.040464,-0.028283,-0.024347,0.00064154,0.017219
0.014743,0.033509,0.28961,0.050086,0.014372,-0.0038417,-0.010884,0.0085516
-0.008155,-0.0018399,-0.028793,0.022744,-0.014375,0.00090611,-0.0065211,0.00056967
-0.022187,-0.052551,0.012069,-0.083635,-0.013248,-0.01002,-0.0015688,-0.022349
0.01155,0.029312,-0.21547,0.019996,-0.013473,-0.013148,0.012085,0.025604
0.006821,0.0010783,-0.11174,-0.0099584,0.008652,0.038361,0.058129,0.0035727
0.010105,0.0029716,0.049064,-0.056038,-0.0089833,0.042827,-0.0038784,-0.0027841
-0.010274,-0.035584,-0.091925,0.13207,0.058996,-0.054619,-0.072258,0.0062757
0.031237,0.12753,0.35738,0.10932,0.040977,0.050497,0.0092779,-0.016291
-0.021876,-0.062222,-0.20265,-0.24912,-0.023869,-0.048261,0.0062887,-0.0080177
-0.036901,-0.088807,0.24543,0.064562,-0.0027313,-0.054129,-0.034562,-0.015664
-0.0059424,0.032743,-0.40657,-0.082585,-0.051888,0.025083,-0.027754,6.1895e-05
-0.014707,-0.071871,0.2322,0.090381,-0.015037,-0.0058258,0.018236,-0.015256
0.038677,0.082386,0.10627,0.090846,0.0064616,0.064296,0.1025,0.032362
0.03732,0.06629,-0.067262,-0.019163,0.0051508,0.040421,0.0365,0.05709
0.020496,0.044032,0.084519,0.14276,0.01272,0.0088343,0.19423,0.0041863
-0.035155,-0.12528,-0.39352,-0.38452,-0.017307,-0.092561,-0.32343,-0.032801
-0.051556,-0.036023,0.46598,0.21159,0.032474,-0.052374,-0.1182,-0.077615
0.025833,0.060881,-0.35289,-0.12314,-0.017715,0.012684,0.021404,0.025666
0.0015184,0.0081729,0.12745,0.072944,0.019171,0.017103,0.034059,0.02676
0.039404,0.093996,0.19062,0.019399,0.025145,0.070542,0.2495,0.02705
-0.040284,-0.11195,-0.31618,-0.017455,-0.024257,-0.022253,-0.14305,-0.020396
-0.0031425,-0.031669,-0.14678,-0.013796,-0.012914,0.00413,-0.0562,-0.013943
-0.0052666,-0.024043,0.25743,0.038165,0.027045,0.039864,0.11256,-0.008089
0.047376,0.14645,0.21206,0.15366,0.0092082,-0.040638,-0.089624,0.044318
0.0067313,0.0049674,-0.046784,0.019594,-0.027268,0.082366,0.25094,0.0029878
-0.033012,-0.079181,-0.058262,-0.2083,-0.034798,-0.15402,-0.23381,-0.045795
-0.032371,-0.064722,-0.34001,-0.0067916,-0.012125,-0.015565,-0.13103,-0.015781
-0.045721,-0.098178,0.15889,-0.047461,-0.027983,0.029147,0.058049,-0.00050253
0.044232,0.079457,0.33961,-0.048314,0.036411,0.011704,0.12914,0.046992
0.049793,0.1245,-0.32704,0.030694,-0.028634,0.026232,-0.0045831,0.001597
0.040745,-0.0034541,0.020457,0.034174,0.097786,0.057326,3.2493e-05,-0.0041678
-0.054064,-0.088394,0.29153,0.056248,-0.014259,-0.066953,-0.036949,-0.025433
0.045585,0.21733,0.12396,0.35436,0.087289,0.098301,0.0017514,0.054472
-0.044154,-0.13767,-0.53726,-0.18198,-0.013312,-0.025725,0.0071683,-0.038371
-0.035046,0.029778,0.15407,-0.33567,-0.11485,-0.0883,-0.035652,-0.007422
0.03342,-0.017985,-0.30478,0.27433,0.023153,-0.0042749,-0.00087083,0.022226
-0.018353,0.18626,0.28858,-0.12687,-0.053526,0.046093,-0.012615,-0.019546
0.021197,-0.18493,0.004531,-0.032243,0.02206,-0.02337,0.047071,-0.022907
-0.081246,-0.4412,-0.11052,-0.0042424,-0.015058,-0.01722,-0.0087736,-0.041905
0.07406,-0.07019,0.46454,-0.15926,-0.061935,0.018125,0.11695,0.072576
-0.027204,0.25368,-0.50985,0.2384,0.039438,0.020837,-0.13837,-0.014847
0.045703,0.39465,0.25464,0.33082,0.16577,0.022915,0.029571,0.047675
-0.034742,0.15298,0.16034,-0.48226,-0.11135,-0.045262,-0.043885,-0.036795
0.036193,-0.1106,0.083684,0.15947,0.060208,0.019956,-4.272e-05,0.012576
0.031453,-0.1156,-0.26423,-0.14981,-0.069794,-0.085815,0.01979,0.007606
-0.034241,-0.0284,0.12468,0.31651,0.13055,0.22344,0.077512,-0.029051
0.04896,-0.10198,-0.59952,-0.16838,-0.082271,-0.16178,-0.053904,0.081593
-0.10278,-0.081233,0.19984,-0.02664,-0.053406,0.023948,0.047136,-0.090581
0.025413,0.0087186,0.10739,0.0071412,-0.026162,-0.04773,-0.12724,-0.0065528
-0.058964,-0.12936,0.30395,-0.14514,-0.016767,0.013659,0.079371,-0.033135
0.050449,0.146,0.097253,0.2902,0.12324,0.090897,-0.012335,0.025696
-0.020906,0.11759,-0.13346,-0.061492,-0.019613,-0.050297,-0.019018,-0.0010549
0.0088217,-0.095845,-0.60229,-0.36406,-0.084988,-0.058177,0.028699,0.02025
0.04644,0.05352,0.48425,-0.00042485,-0.14215,-0.026288,0.045522,0.035484
0.014189,0.073413,0.082883,0.31777,0.0988,0.053328,-0.061694,-0.0020743
0.09967,0.34546,0.23515,0.44076,0.22416,0.094759,0.059134,0.055727
-0.10349,-0.4917,-0.44059,-0.46138,0.069659,-0.011495,-0.08377,-0.05738
-0.0095749,0.15335,0.21177,0.35161,-0.037273,-0.023502,0.064565,0.0015272
-0.10318,-0.21357,-0.62148,-0.63744,-0.24604,-0.050957,-0.026981,-0.049598
-0.025014,-0.054648,0.50291,-0.015171,-0.034103,-0.031662,-0.053782,-0.047274
0.092162,0.082988,0.36362,0.35939,0.082368,-0.0049145,0.015109,0.047317
0.060991,0.082847,-0.24521,-0.4655,-0.052904,-0.033364,0.046298,0.070233
-0.016825,0.16503,0.0099286,0.57471,0.091823,0.13289,-0.023581,-0.064049
0.030635,-0.12978,-0.24771,0.076029,0.040837,-0.037511,0.08563,0.051317
-0.054527,-0.04226,0.098361,-0.27202,-0.11114,0.017787,-0.096008,-0.051794
-0.038147,-0.047788,-0.099809,-0.12428,0.058624,-0.029527,0.14137,0.0021348
0.063883,0.18249,-0.012502,0.15276,0.11316,0.10163,0.039201,0.049342
-0.014317,0.10205,0.43296,0.28563,-0.06457,-0.16694,-0.30894,-0.035153
-0.022914,-0.17179,-0.36231,-0.46063,-0.10764,0.039865,0.11303,0.0061987
-0.024446,-0.19361,-0.028696,0.14742,0.077152,-0.019814,-0.084431,-0.0067947
0.012433,0.044659,0.099558,-0.18043,-0.0030682,-0.0095305,0.045477,0.011161
0.02543,0.051205,0.062152,0.07027,-0.0052521,0.055721,0.12153,0.043788
0.014812,0.11552,-0.11807,0.4999,0.0075072,0.12189,0.10603,-0.050067
0.012108,0.011315,0.25247,-0.46295,-0.09803,-0.15426,-0.16422,-0.0050509
-0.044935,-0.17559,-0.10225,0.040106,0.07632,0.024481,0.061045,-0.0086051
0.0079464,0.12448,-0.5524,-0.062031,0.022621,-0.076177,-0.10131,0.002178
0.022464,0.097807,0.98522,0.26143,-0.032601,0.074832,0.18394,-0.018878
-0.0012753,-0.054142,-0.66325,-0.22393,0.035656,0.063024,-0.131,0.038468
-0.024142,-0.028556,0.11083,0.10735,0.032125,-0.065332,-0.11732,-0.028036
-0.022669,-0.18657,0.49573,0.06879,0.027244,0.10313,0.20868,0.016691
0.018749,0.12677,-0.82665,-0.17404,-0.0099663,-0.11976,-0.059655,0.048048
0.021894,0.1531,0.08452,0.10734,-0.14935,-0.015787,-0.18032,-0.035514
0.025652,0.12719,-0.024832,-0.21002,-0.038694,-0.038358,-0.036192,-0.023444
-0.040561,-0.33242,0.23138,0.039841,0.018091,0.062504,0.23201,-0.025836
0.018218,-0.036028,0.31611,0.23326,0.16236,0.13078,0.11626,0.089201
-0.064027,-0.21535,-0.01266,-0.03553,0.066496,-0.059641,0.21781,0.0082097
0.079505,0.14789,0.01681,-0.087405,-0.12871,-0.12541,-0.44799,-0.035255
0.01099,0.48546,-0.19237,-0.072415,-0.040689,-0.034697,-0.076517,-0.033908
-0.0041575,-0.02974,-0.081437,0.25702,0.056515,0.10361,-0.026796,-0.034769
-0.09099,-0.2417,0.18997,-0.04722,-0.017604,0.047634,0.13164,-0.029776
0.016236,-0.18313,-0.45848,-0.02686,0.15797,0.016217,0.10302,0.059753
0.052173,0.12021,-0.0039659,-0.17608,-0.18309,-0.037672,-0.0020861,0.03923
0.001593,0.095314,0.24975,-0.0036232,-0.06462,-0.09093,-0.088965,0.0031237
0.0055748,0.0052876,-0.054647,-0.063868,-0.002298,0.066963,-0.063342,-0.0011103
-0.013556,-0.050129,0.39777,0.1368,0.10573,0.037189,0.30908,0.026887
-0.016341,0.022038,-0.44552,-0.063471,0.041237,-0.0086178,-0.27704,-0.045566
0.044391,-0.027789,0.38553,0.21281,0.023543,0.038881,0.067751,0.0080417
-0.049939,-0.15121,-0.21814,-0.055514,-0.11091,-0.17952,0.068616,-0.039018
-0.041495,0.052498,0.11782,-0.046438,0.013203,0.024008,-0.1665,-0.069782
0.069584,-0.0079027,-0.3266,-0.13413,-0.033707,0.0326,0.11123,0.079562
-0.021682,0.044711,0.18939,0.040749,0.13106,0.057403,-0.13024,-0.0053199
0.051467,0.078711,0.047442,0.16485,0.015049,0.10619,0.28073,0.11279
0.0072833,0.2112,-0.13587,0.018031,-0.08518,-0.0088869,-0.17901,-0.011682
-0.053155,-0.14512,0.32705,-0.05762,-0.029282,-0.061807,-0.039932,-0.050799
-0.013032,-0.13323,-0.25061,-0.21216,-0.075227,-0.1157,0.0037807,-0.067089
0.018098,0.1816,-0.50053,0.099974,0.1051,0.063318,-0.0074811,-0.021303
-0.014387,-0.14068,0.66442,-0.14552,-0.074129,-0.032783,0.10729,0.032272
0.0069921,-0.1721,-0.48134,0.26975,0.17633,0.064906,-0.0023349,0.00042185
-0.026684,0.086781,0.87516,0.2053,-0.033994,-0.0181,-0.046489,0.024311
0.033536,0.14449,-0.23489,-0.33056,-0.048713,-0.015402,-0.024767,-0.012873
0.0084178,-0.16126,-0.24936,0.04584,-0.086514,0.042629,0.070649,0.045205
-0.000188,0.1016,-0.19991,-0.14881,-0.03801,-0.061949,-0.096527,-0.0048516
-0.0078401,-0.080022,-0.32881,0.12573,0.15927,-0.016062,0.035589,0.016053
0.039988,0.12414,0.62998,0.1284,-0.026017,0.055517,-0.033789,-0.0022472
-0.013293,0.13742,-0.29931,-0.038328,-0.0080625,0.11355,0.13198,-0.029315
-0.043103,-0.13333,0.25144,-0.26455,-0.076125,-0.10031,-0.030457,-0.034545
-0.018596,-0.071062,-0.27962,0.12162,0.058628,-0.047802,-0.12342,-0.026088
0.02088,0.050088,0.4748,0.27596,-0.010283,-0.018897,-0.038137,0.0039058
0.043963,-0.0051886,-0.15,-0.13061,0.060696,0.040248,0.084331,0.032377
-0.027388,-0.058139,-0.27259,0.09606,-0.0098001,0.074301,0.10314,0.052133
0.0023967,-0.015811,0.081627,-0.20147,-0.081154,-0.073337,0.057342,0.0092028
-0.038178,-0.18356,-0.14431,-0.14914,-0.020451,-0.019868,-0.20128,-0.072301
0.046623,0.30517,0.070658,0.088422,-0.0071964,0.0084435,0.054269,0.034704
-0.031881,-0.050394,-0.010025,0.11263,0.036939,0.004322,0.0043417,-0.013236
0.0078131,0.022188,0.32283,-0.060719,0.041806,-0.0081293,-0.084667,-0.0051351
0.025153,0.13111,0.40414,0.099954,0.069991,0.034261,0.022385,0.019757
0.0043745,-0.17793,-0.64883,0.16534,0.012152,0.046122,0.11514,-0.0092516
-0.00016085,0.023903,-0.17067,-0.21575,-0.084791,-0.042471,-0.048342,-0.014538
-0.020158,0.041125,0.067895,-0.23045,-0.017564,-0.012586,-0.0073194,0.0033555
0.0063904,-0.055196,-0.32785,0.45769,-0.035856,-0.067368,0.042286,0.036127
-0.022515,-0.0758,0.31808,-0.21321,-0.12359,0.066441,0.044882,0.0053062
0.041265,-0.025927,0.32188,-0.16419,0.063465,0.013551,0.046366,0.0045116
-0.013322,-0.10575,0.27196,0.11346,0.14282,-0.023265,-0.20406,-0.052071
-0.061199,0.22651,-0.5106,0.0033597,0.07542,0.080641,-0.019315,-0.03908
0.015048,-0.019487,0.27011,0.021632,-0.014124,-0.08128,0.022564,0.0049553
0.043858,0.08641,-0.37268,-0.034856,-0.048435,-0.024856,0.00024905,0.018108
0.041174,0.027415,0.33912,0.16919,-0.11439,-0.00017145,0.055232,0.055541
-0.063057,-0.1132,-0.2462,-0.10185,0.013655,0.039676,0.19631,-0.0074985
0.028202,0.05146,0.087343,0.056595,0.038181,-0.014591,-0.16156,0.047703
0.0025222,0.064187,-0.38874,-0.12288,-0.02545,0.024646,0.0057518,-0.021341
-0.0072802,-0.11775,0.38701,0.19411,0.010432,-0.014403,-0.020103,-0.02759
-0.032468,-0.16877,0.023734,-0.36838,-0.0098833,-0.014524,-0.12181,-0.041833
-0.0027197,0.11333,0.076407,0.27544,0.078458,0.016441,0.06769,-0.017548
0.035143,0.11224,0.17066,-0.01438,0.010716,0.054995,0.094894,0.029504
0.010908,-0.0055072,-0.6067,-0.18173,-0.063826,-0.016084,0.045169,0.013484
-0.012802,-0.15032,0.35487,0.095548,-0.0038548,-0.095198,-0.10565,0.012793
-0.028056,-0.052439,0.025732,0.06155,-0.0042234,-0.0025228,-0.022401,-0.034709
-0.026974,0.13579,0.62681,0.014771,-0.04913,0.035603,0.098843,0.0041113
0.052935,0.073564,-0.72195,0.018756,0.1113,0.04288,-0.086259,0.027876
0.016253,-0.17508,-0.53302,-0.16054,-0.085866,-0.019531,0.0078853,0.013142
0.042475,0.35852,0.048239,0.37498,0.07745,-0.018703,0.014049,0.030029
-0.017079,-0.092871,0.3756,-0.14119,0.084773,0.09219,0.010629,-0.015525
-0.11578,-0.10999,0.22305,-0.39767,-0.20542,-0.085509,-0.017453,-0.061355
0.035247,0.046319,0.32329,0.21376,0.065407,-0.020909,0.047732,0.0094777
0.021818,-0.29077,0.27383,0.067124,-0.040875,-0.0035205,-0.050808,-0.014048
-0.007681,0.033024,-0.79049,-0.0023626,0.030038,0.013073,-0.023224,0.00098137
0.03267,0.21207,-0.0089588,-0.010803,0.067123,0.036286,0.029541,0.031383
0.017851,-0.15976,-0.051354,0.025914,0.023713,0.050239,0.006283,0.0071724
-0.020931,0.23872,0.46143,0.076447,-0.037206,-0.038863,0.032027,0.0067852
0.01002,-0.028651,-0.4011,-0.054457,-0.013345,-0.019853,-0.034173,-0.008632
-0.029957,-0.14799,-0.050663,-0.10096,-0.067853,-0.048464,0.025813,4.123e-05
-0.0080191,0.10062,0.080348,0.023235,-0.004417,-0.0067378,-0.038833,-0.0298
0.036896,-0.071179,-0.040222,-0.017336,0.013857,0.035921,0.067887,0.034411
-0.0043559,0.0087174,0.18874,-0.0034215,0.05022,-0.021166,-0.061059,0.0048435
-0.061154,-0.019349,-0.25765,0.17478,0.066014,0.025789,-0.012165,-0.017296
0.02308,0.10176,0.17157,-0.22466,-0.095043,0.0051922,0.034639,-0.008879
0.01424,-0.0038631,0.38365,0.20454,0.090015,0.057472,-0.084607,-0.0013613
-0.0015992,-0.11841,-0.20184,-0.10812,-0.028074,-0.013347,0.10707,0.0051939
0.038017,0.054251,-0.27759,0.047954,-0.067523,-0.0051567,-0.014711,0.0030678
0.023489,0.068402,0.5009,0.10211,0.0096829,0.0027407,-0.066403,0.031564
-0.0064738,-0.052422,-0.73337,-0.26623,-0.039553,-0.14702,0.077694,-0.010523
-0.052257,-0.018565,0.60658,0.020971,0.026303,0.075949,-0.042778,-0.044645
-0.036046,-0.07902,-0.44496,0.034109,0.089723,0.038361,0.033501,-0.0078772
0.02638,0.048691,0.094383,0.14055,0.010063,0.013603,-0.029247,0.014198
-0.0055727,0.014178,0.39756,-0.042351,-0.063957,-0.021421,0.011113,0.021796
0.0089188,-0.02547,-0.55507,0.0010977,-0.10055,-0.011378,0.037172,0.014945
0.023269,0.062837,-0.015495,-0.13543,0.072869,-0.0023098,-0.076404,0.0091003
0.0065267,0.083394,0.26526,0.26664,0.08994,0.05356,0.02938,0.0039263
0.013609,0.0039594,0.0047359,-0.04285,-0.0016409,-0.014791,0.0025765,-0.00099904
-0.041303,-0.083087,0.13016,-0.18111,-0.091772,-0.07384,-0.024359,-0.068591
0.021477,0.023963,0.19184,-0.077578,-0.070531,0.048777,0.065437,0.01958
0.0065362,-0.066635,-0.12156,0.1589,0.10144,0.0017167,-0.056447,0.005528
-0.05503,-0.12106,-0.56096,-0.15061,0.01788,-0.011976,0.023791,-0.0013898
0.039735,0.12641,0.36321,0.26819,0.069108,0.030763,-0.030008,0.014552
0.0016234,-0.02661,0.030035,-0.16209,-0.10484,-0.034755,0.063233,0.01445
0.033663,0.092851,-0.12718,0.12151,-0.012567,0.0094224,-0.0090768,0.014083
-0.043874,-0.053056,0.24677,-0.091847,-0.029938,0.029624,-0.06723,-0.048943
-0.012228,0.044513,0.0075751,-0.021248,0.12347,0.0094432,0.037377,0.028531
-0.0041674,-0.051303,-0.39458,-0.042418,-0.053032,-0.036064,0.008195,-0.019141
0.027236,0.026829,0.13987,-0.00015741,-0.012985,-0.0055783,-0.0058603,0.026737
0.011701,0.0051408,0.188,0.10426,-0.0065156,0.030737,0.027054,0.033318
-0.0039094,0.0079499,-0.10975,-0.050841,-0.033423,-0.0594,-0.072105,-0.061881
0.0037811,-0.0046599,0.21589,0.10357,0.031785,-0.0095383,0.0019601,-0.00094681
-0.027823,-0.033506,-0.209,-0.081957,0.033572,0.040664,0.030986,-0.025893
0.0027385,-0.016693,-0.38302,0.063928,0.019641,-0.017261,0.054317,0.0041243
0.0094555,-0.032622,0.46111,-0.083678,-0.087306,0.02047,-0.029577,0.050246
0.039193,0.13753,0.24705,-0.055253,-0.028749,0.029116,0.0056488,0.034476
-0.0486,-0.099627,-0.14051,-0.068188,0.086434,0.0006702,-0.012303,-0.043176
-0.0037559,-0.040432,-0.20737,0.019845,0.070958,0.020467,0.025398,0.0046763
0.0020896,0.034399,-0.16234,0.11682,-0.051818,-0.029554,-0.084946,-0.0096755
0.016091,0.023701,-0.14381,0.028814,-0.079121,-0.040966,0.015506,-0.00054588
-0.0083625,0.052627,0.4051,0.053538,-0.003696,0.01667,0.037245,-0.0072334
-0.00076895,0.050754,0.55662,0.10524,0.056588,-0.021216,-0.035703,-0.014287
-0.0079379,-0.13848,-0.90662,-0.17582,-0.0083611,0.01714,0.069835,0.017269
0.009106,0.015788,0.18008,-0.1184,0.019541,-0.00078688,0.033363,0.0093091
0.065752,0.16172,-0.050773,0.26116,0.053814,0.027172,-0.074906,0.024406
-0.057094,-0.20854,0.22763,-0.43608,-0.12464,-0.031014,-0.0049722,-0.031075
-0.023887,0.0068161,0.036398,0.10986,0.023124,-0.01049,0.016726,-0.0085618
0.00095395,0.019243,0.075426,0.22694,0.036303,-0.0043711,-0.064254,-0.009492
0.0015527,-0.02999,-0.17477,-0.16321,-0.037871,0.081452,0.057121,0.013104
0.024689,0.01595,-0.21052,0.25933,0.043309,-0.026442,-0.0093829,-0.0032194
0.047009,0.22771,0.01889,0.11894,0.030451,-0.00024214,0.049112,0.066547
-0.048419,-0.066641,0.45535,-0.053871,-0.028962,-0.020206,-0.001467,-0.035428
-0.04246,-0.12533,-0.23954,-0.49409,-0.10315,-0.063598,-0.05936,-0.027911
0.0028342,0.0040266,-0.2388,0.055787,0.089546,0.056379,-0.0072968,-0.020271
-0.01368,-0.093484,0.36422,0.017738,0.010287,0.026653,0.021892,-0.0046478
0.064537,0.11257,0.071666,0.31411,0.088811,0.0031168,0.051562,0.034664
0.018817,0.051249,-0.26883,0.078356,-0.096865,-0.029941,-0.035583,0.0039985
-0.018192,-0.0042947,-0.089346,-0.1967,-0.062602,-0.041083,0.0025453,0.012782
-0.0078118,-0.030537,0.11662,-0.049696,0.011606,0.0013623,-0.029416,-0.017129
0.026001,0.051139,0.18398,0.13675,0.062909,0.082353,-0.0064627,0.00010219
-0.057914,-0.21155,-0.70925,-0.15302,-0.0028089,-0.063089,0.0011441,-0.029458
0.02908,0.073101,0.48042,0.080786,-0.0062404,0.089087,0.087219,0.050198
-0.02574,0.10151,-0.081229,-0.044889,0.020985,-0.062183,-0.091953,-0.011193
-0.027037,-0.031637,0.36213,-0.10061,-0.062117,-0.071259,-0.044222,-0.026374
0.025439,0.0023377,0.0088767,0.26503,0.048834,0.06199,0.14435,0.012293
0.038347,0.078478,0.21885,0.10663,-0.01356,0.048427,-0.073321,-0.0046342
0.0043486,-0.045888,-0.22758,-0.41167,-0.0071845,-0.049713,0.029087,0.016664
-0.02142,-0.090437,-0.51072,0.0072199,0.013372,0.032781,0.013866,0.0060903
0.0082697,0.060822,0.15964,0.090171,0.024961,-0.087422,-0.033138,0.0030628
0.0077056,0.031641,-0.13432,0.20473,-0.018819,0.042255,-0.041533,-0.038834
0.0004138,0.00061536,0.20087,0.07,-0.031411,0.085363,-0.0032472,-0.0019042
-0.060517,-0.13459,0.13688,-0.22002,-0.019939,-0.036621,0.0039858,0.0049483
0.012267,0.15693,-0.047468,-0.1339,0.0084338,-0.027049,0.011829,0.0055043
0.023214,-0.16381,-0.24391,0.023745,-0.00049623,-0.057812,0.012776,0.0077002
0.0345,0.14584,0.67928,0.29975,0.039413,0.043163,0.038158,0.019194
-0.0089459,-0.014967,-0.86603,-0.14196,0.049891,0.018431,0.0096519,0.00048275
0.0018443,0.018644,0.34252,0.010831,-0.0086123,0.016883,-0.010699,0.005577
-0.042886,-0.088465,0.23571,-0.21101,-0.066534,-0.046989,0.054618,-0.013199
0.012819,-0.01533,-0.2426,0.21543,0.031516,-0.040077,-0.1622,-0.0097504
0.028184,0.058788,0.12281,-0.030707,-0.04338,0.029889,0.064932,0.015319
0.0032306,0.071559,0.48337,0.13592,0.0050903,0.084619,-0.021999,-0.0086046
-0.038398,-0.0083413,-0.47847,-0.19926,0.082951,0.092499,0.038044,-0.026764
-0.026035,-0.15773,-0.29029,-0.099117,-0.075273,-0.12662,-0.0045632,-0.01528
0.040765,0.13085,0.11576,0.20963,-0.015972,-0.018457,0.02262,0.026576
-0.0094142,-0.056973,-0.081016,-0.038513,-0.043129,-0.091025,-0.012582,0.0059352
0.042561,0.083241,-0.16814,0.047469,0.078397,0.015133,-0.039272,0.0095931
-0.0061857,-0.050148,0.44314,-0.0083088,0.036763,0.089441,0.060171,0.0069729
-0.038386,-0.089891,-0.017363,-0.1659,-0.03481,-0.039424,-0.05779,-0.017189
0.00056626,-0.012393,0.1563,0.052245,0.027824,0.082263,0.059935,-0.00040409
0.016713,0.12782,0.083166,-0.04822,-0.025575,-0.037176,-0.032224,0.025706
0.025403,0.041756,-0.15015,0.26783,0.038884,0.024455,0.016864,0.013613
-0.036142,-0.098813,-0.52058,-0.22577,-0.060661,-0.037438,-0.012061,-0.029668
0.0037218,-0.0051148,0.20524,0.064645,-0.027942,-0.035475,-0.0023043,-0.0033655
-0.0035814,0.041161,0.088529,0.044797,-0.035332,0.014439,0.0066869,-0.017489
-0.003403,0.023902,0.38591,-0.059681,0.080911,0.010356,-0.032171,-0.0099052
-0.0035086,0.0052033,-0.059679,0.015704,0.039418,-0.032537,0.0061175,0.019336
-0.0038008,-0.069815,-0.46732,0.0042039,0.012154,0.096255,0.027993,-0.0076329
0.027076,-0.02135,0.053792,0.0064961,-0.031841,-0.088055,0.010357,0.034691
0.011076,0.033862,-0.027036,-0.0091227,-0.045211,0.031392,-0.022935,-0.0014769
0.0029277,-0.059685,0.34558,-0.011306,-0.011684,0.024709,-0.024586,-0.013882
-0.020797,0.12861,-0.15594,-0.069703,0.038249,0.071561,0.060439,-0.02533
-0.013212,-0.048738,-0.15647,0.051201,-0.058701,-0.16381,-0.064517,-0.0040883
0.033536,0.065308,0.46862,0.13408,0.096567,0.045554,0.045902,0.034488
-0.028903,-0.11466,-0.039265,0.0084855,-0.058029,-0.034205,0.0087447,0.0044855
-0.05196,-0.072868,-0.58736,-0.34787,-0.014617,0.0037234,-0.059106,-0.016187
0.050432,0.14356,0.15166,0.018674,0.0076959,0.058232,0.052865,0.026741
-0.0028955,0.0027156,0.47433,0.24066,0.039403,0.043605,-0.015181,-0.031338
0.038035,0.042706,-0.36119,0.12938,0.087268,0.037882,0.080077,0.027748
-0.014432,-0.081351,-0.088258,-0.15315,-0.084248,-0.12338,-0.16166,-0.03871
-0.0043249,-0.011191,0.18528,0.25771,0.0081778,-0.011106,0.040734,-0.0045334
0.02895,-0.013324,-0.15604,-0.21088,-0.050239,0.092788,0.10926,0.036322
-0.047746,0.075821,-0.22007,-0.24837,-0.056619,-0.031045,-0.065121,-0.041162
0.023176,-0.0093734,0.93939,0.32413,0.067431,-0.0079782,0.033733,0.044406
-0.047398,-0.065265,-0.87299,-0.15688,0.0022913,0.013479,-0.10919,-0.019219
-0.0015177,-0.059667,0.09959,-0.32228,-0.079239,-0.14611,-0.024557,0.0026471
0.0283,0.07109,0.45684,0.34647,0.11282,0.13093,0.13965,0.00093449
0.011184,0.046921,-0.15517,0.0010421,0.016632,0.0014803,-0.02265,-0.008471
0.0021884,-0.045345,-0.035695,0.042777,0.015315,-0.026044,0.011854,-0.0019451
-0.00623,-0.0099796,-0.3351,0.012658,-0.055322,0.056607,-0.0072943,0.012807
0.017293,0.074705,0.10179,0.02064,0.030827,-0.00036596,-0.02609,0.020197
0.010209,-0.034255,-0.014084,-0.02003,-0.015922,-0.040766,0.0093864,-0.0032179
-0.0042316,0.068157,0.46668,-0.009737,-0.008654,0.036729,0.012512,-0.010579
-0.057539,-0.12732,-0.71201,-0.029186,-0.057119,-0.049459,-0.048425,-0.05658
0.029699,0.15136,0.84263,0.11432,0.026117,0.012875,0.0061138,0.030664
-0.0083786,-0.11245,-0.63283,-0.23759,0.0069292,-0.010824,0.0044309,0.016788
-0.0078779,-0.17707,0.25416,-0.078285,-0.028271,0.0044207,0.0016493,-0.020115
0.0076652,0.12167,-0.11216,0.12331,0.038261,-0.019402,-0.0094712,0.021408
0.038213,0.073529,-0.19197,0.055459,0.019503,-0.027417,-0.0049295,0.0083291
0.013468,0.062401,0.42098,0.14147,0.025116,0.066484,0.062577,0.018468
-0.019632,0.066181,-0.24279,-0.17948,-0.0073539,0.059266,0.029201,-0.0032188
-0.060969,-0.18718,0.22159,-0.022992,0.015688,-0.056918,-0.05818,-0.03362
0.030266,-0.016681,-0.34389,0.16686,-0.046635,0.0068613,0.042471,0.012984
