0.52323,0.073645,0.032824,0.01412,0.0082191,-0.0016114,0.025562,0.081179
-0.51305,-0.041138,-0.0092571,-0.0091831,0.0021846,0.021851,0.026314,-0.034384
0.73859,0.15684,0.03568,0.030571,0.011917,0.029388,0.026916,0.1639
-0.58997,-0.037212,-0.0041955,-0.0073601,-0.017602,-0.025976,-0.058828,-0.12963
-0.16397,-0.10916,-0.035259,-0.02939,-0.039743,-0.050471,-0.04358,-0.12682
0.2969,-0.13807,-0.034303,-0.020065,6.7932e-05,-0.0048923,-0.013283,-0.0079543
-0.23882,0.071206,0.029665,0.028284,0.039361,0.032875,0.055655,0.07838
0.51874,0.027076,0.0079693,0.0061797,-0.0076583,0.00060173,-0.0083721,0.062213
-0.23323,0.019755,-0.037083,-0.0083136,-0.00016659,0.0078809,-0.0019462,-0.094803
-0.52327,-0.19942,-0.0040968,-0.015238,-0.016103,-0.0076989,-0.0029717,-0.0011603
0.042343,-0.027781,0.020822,0.00098509,0.007146,0.0084653,0.0042467,-0.0076325
0.25538,0.50397,0.037472,0.016847,0.0070822,0.0014357,0.0196,0.050302
0.039365,0.03636,0.014373,0.02444,0.030473,0.025545,-0.0040413,-0.014885
0.38654,-0.032746,0.021615,0.00022394,-0.00098687,0.02575,0.081444,0.20252
-0.2282,-0.055562,-0.0034336,-0.0011748,-0.001552,-0.045059,-0.05232,-0.12655
0.42655,-0.62611,-0.091986,-0.026605,-0.049472,-0.05408,-0.053844,-0.034428
-0.44956,0.091962,-0.032844,-0.021222,-0.0041229,0.0067601,-0.094834,-0.13147
-0.26572,0.10757,0.0025862,-0.0081707,0.0096434,0.020773,0.051667,-0.0042292
0.21085,0.18781,0.053964,0.012947,-9.1498e-05,-0.01141,0.058043,0.18314
-0.47276,0.1387,0.020309,0.01912,-0.0017501,-0.018873,-0.11431,-0.1002
0.052448,0.11718,0.027043,0.0029041,0.0049688,0.053473,0.23798,0.0137
0.35944,-0.0019729,0.019637,0.019206,0.074954,0.08852,0.0054569,0.0023719
0.21635,-0.32924,-0.025481,-0.010082,-0.03392,-0.10934,-0.13255,-0.070786
-0.17229,0.1025,-0.046191,-0.022653,-0.03267,0.013972,-0.03597,0.16989
0.13077,-0.020996,-0.011758,-0.0032521,0.0082191,0.020156,0.044635,-0.087803
0.2174,-0.021388,0.046043,0.055462,-0.0052177,0.095905,0.054197,0.062352
0.35814,0.014702,0.017419,-0.018871,-0.018493,-0.21255,-0.13236,0.073164
-0.98122,-0.076714,-0.11349,-0.046967,-0.0083303,0.031944,-0.014799,-0.23548
-0.45896,-0.076176,0.051716,-0.0056523,0.025151,0.040263,0.087062,0.026638
0.74477,0.31426,0.075689,0.011239,-0.0040878,0.00011594,0.025353,0.1327
-0.1891,-0.021509,-0.010048,0.027225,0.013218,-0.041287,-0.04321,-0.1596
0.030997,-0.1842,-0.056734,-0.012185,0.022251,0.088264,0.0065666,-0.0066094
0.43932,0.20939,-0.032815,-0.012982,0.0072535,0.092136,0.065145,0.12279
-0.57864,-0.24704,0.093182,0.064147,-0.01625,0.0017221,-0.0086043,-0.006105
1.0022,0.27415,-0.014584,-0.022778,-0.017029,-0.11256,-0.043543,0.239
-0.80987,-0.32931,-0.074921,-0.062686,-0.049675,-0.070835,0.014232,-0.25972
-0.27352,0.0667,0.036961,0.022607,0.034453,-0.029029,-0.0077783,-0.049711
0.44556,0.015994,0.00040123,0.0065281,0.0012501,-0.010079,-0.055184,0.032823
0.21248,0.27559,0.05716,0.02964,0.007208,0.16629,0.051833,0.14432
-0.4982,-0.12389,-0.019761,-0.025345,-0.0022408,-0.046253,-0.022112,-0.26135
0.077478,-0.13596,-0.027589,0.013335,0.0040707,0.016694,-0.033961,0.082589
-0.10845,0.020625,-0.021188,-0.018482,0.010203,0.042683,0.048543,-0.033392
0.64661,-0.0052959,0.030763,0.027587,-0.0077835,-0.070133,0.015394,0.18108
-0.36833,0.1934,0.042665,0.034362,0.058915,-0.017641,0.031312,-0.030892
-0.46551,-0.18668,-0.12553,-0.12308,-0.063601,-0.074077,-0.059711,-0.083077
0.58209,-0.042392,0.026876,0.047587,0.054203,0.064325,0.015528,0.016288
-0.26406,0.018568,0.016227,-0.00036851,-0.0092121,0.013796,-0.017079,0.070827
0.40286,0.15399,0.038386,0.022238,-0.018561,0.046877,0.060219,0.0087417
-0.080521,-0.13498,0.046754,0.029516,-0.066152,0.022209,-0.019346,-0.015309
-0.48678,0.019386,0.017833,0.021428,-0.048653,-0.037213,0.016569,-0.080813
0.091478,0.038763,-0.079999,-0.041188,-0.058073,-0.022044,-0.098506,-0.10268
0.55409,0.1097,0.010479,0.0056262,0.1178,0.02914,0.095906,0.21578
-0.96461,-0.14441,-0.023904,-0.02568,0.049683,-0.062323,-0.14239,-0.24212
0.52114,-0.061555,-0.03533,-0.041305,0.018075,-0.0058787,0.077657,0.21214
0.27013,0.14508,0.085111,0.037029,0.099207,-0.02632,0.053687,-0.068526
0.29834,-0.04226,-0.0065973,0.014221,0.055948,0.0031189,0.028846,0.1672
-0.58206,-0.062859,-0.05271,-0.00015503,-0.099152,0.060445,-0.011478,-0.24364
-0.25483,0.066443,0.0093655,0.017433,-0.10319,0.11525,-0.050725,0.0042901
0.26306,0.024797,0.070449,0.012233,-0.12197,-0.12929,-0.017822,0.06733
0.087276,-0.25013,-0.095791,-0.078511,-0.046498,-0.13485,-0.05288,0.015336
0.48966,0.45339,0.088993,0.088539,0.19464,0.44873,0.13337,0.31614
-0.71098,-0.44926,-0.062521,-0.018372,-0.05253,-0.31,-0.099815,-0.38303
-0.40672,0.098232,0.0044862,-0.024741,0.011837,-0.0065837,0.036164,-0.11464
0.94797,0.14454,0.055745,-0.0012574,0.031388,0.0059726,0.056195,0.22184
-0.50759,0.15241,-0.018006,0.02848,0.11017,-0.093515,-0.017193,-0.092976
0.22545,-0.071702,-0.0056664,-0.021356,-0.070614,0.085384,-0.020856,0.10485
0.35719,-0.11985,-0.055437,-0.033182,-0.065335,-0.011615,0.013216,0.042243
-0.36253,-0.17013,-0.026376,0.0014334,-0.0076481,-0.0087239,-0.03256,-0.14715
-0.02662,0.0054376,0.08969,0.028548,0.022538,-0.0066028,-0.0018674,0.0066023
0.04683,0.25951,0.011853,0.0098281,0.09318,0.15958,0.012082,0.075177
-0.12299,-0.24337,0.013799,0.016154,-0.024771,-0.040966,-0.036671,0.044337
-0.4378,0.098021,-0.099712,-0.038119,-0.075694,0.03253,-0.02984,-0.13941
0.23212,0.3526,0.014911,0.011016,-0.022072,-0.07319,0.010155,0.01692
0.21867,-0.31798,0.013486,0.0069012,-0.020848,-0.15527,0.083979,-0.033292
0.054944,-0.19043,-0.034367,-0.019915,-0.024957,0.043783,0.0042451,0.13142
0.37287,0.25495,0.12826,0.03125,0.052477,-0.031016,0.028238,0.06471
-0.35469,0.014471,-0.015265,0.011067,0.072259,0.080929,-0.032646,-0.10999
0.21785,0.069403,0.0029019,0.02818,0.020383,0.16826,-0.0079964,0.05083
0.067846,-0.12911,-0.0053632,-0.0037461,-0.023489,-0.050828,0.030343,0.029812
-0.45971,-0.011225,-0.040205,-0.10029,-0.042483,-0.10037,-0.075151,-0.080618
-0.049134,0.0023749,-0.15588,-0.018766,-0.012302,0.065996,-0.043979,-0.1405
0.086967,-0.24963,0.031384,0.0073366,0.012804,-0.098864,0.022209,0.061167
0.028449,0.041331,0.093223,0.018135,-0.013989,0.14744,0.030241,0.0017126
-0.040243,0.2937,0.015397,0.053683,0.00079463,-0.20218,0.028101,0.1589
0.083,0.074164,0.064677,0.028732,0.017573,-0.06056,0.0015712,-0.067461
-0.42251,-0.082711,-0.00827,0.029453,0.027864,0.26131,0.0067867,-0.051111
0.4811,0.0047892,-0.023677,-0.045974,-0.031553,-0.18035,-0.056575,0.2011
0.7515,0.048136,0.033617,0.020554,0.033973,0.061035,0.077956,-0.060272
-0.82828,-0.46141,-0.063796,-0.05307,-0.033888,0.079904,-0.065836,-0.23345
-0.18126,0.21618,-0.098165,-0.033306,-0.0010581,0.032528,-0.0037427,-0.0060541
0.41556,0.2028,0.038953,0.032339,-0.00040192,-0.089549,0.044876,0.12157
-0.035171,0.033849,0.10468,-0.020504,-0.039564,-0.0062041,0.016615,0.031722
-0.28138,0.049352,-0.041975,0.019139,-0.016663,-2.9711e-05,0.074532,0.044043
-0.086251,-0.22279,0.059912,0.026583,0.099917,0.12304,-0.1104,0.0015548
0.31934,0.027437,-0.081556,-0.036769,-0.025448,-0.23165,-0.085674,0.020722
-0.13775,-0.10745,-0.020554,0.048312,0.037118,0.12301,0.031282,-0.21937
-0.26345,0.16178,-0.022093,-0.030314,-0.040472,-0.19568,0.00623,0.109
0.79392,0.14139,0.086281,0.016575,-0.016116,0.19561,0.081773,0.13073
-0.69874,-0.36129,-0.062209,-0.022031,-0.014966,0.039742,-0.022803,-0.16971
-0.1691,0.055507,0.07165,0.025471,0.017507,-0.022001,-0.01012,-0.11232
0.565,0.090485,-0.0044779,-0.013199,-0.0047553,0.12019,0.0029863,0.2017
0.34221,0.33252,0.068381,0.025598,0.019741,-0.23669,0.094808,0.11645
-0.52211,-0.54448,-0.14001,-0.038166,-0.034039,0.094696,-0.054949,-0.070925
-0.28287,0.37439,0.0025857,0.029726,-0.0020764,-0.057894,-0.086959,-0.032055
0.21129,-0.067439,-0.0042746,-0.059717,-0.0094587,0.023805,0.0065676,-0.063537
-0.013524,-0.05876,0.0032173,0.014121,0.060842,0.042434,-0.00087463,0.0069216
0.05267,0.18769,0.087542,0.0095332,0.028921,0.1226,0.023666,-0.038836
-0.41707,-0.29085,-0.032356,0.0052101,-0.042949,-0.27499,-0.060272,-0.10632
0.67084,0.24646,0.0267,0.056381,0.03259,0.24025,0.16148,0.24272
0.21317,-0.16968,-0.078576,-0.016219,-0.04912,-0.14403,0.040483,0.016704
-0.45718,0.015785,0.0038851,-0.017037,-0.029999,-0.075962,-0.15002,-0.11218
-0.14106,-0.14925,0.032368,-0.039787,-0.042355,0.069854,-0.066593,-0.042454
0.47771,-0.19476,-0.039627,-0.02213,0.047288,0.1141,0.071576,0.1707
-0.52632,0.38793,0.061558,0.051232,0.028673,0.064886,0.0061942,-0.10635
-0.02266,0.13777,0.031278,0.031425,-0.0039179,-0.15573,0.041473,-0.030886
0.4567,-0.048216,-0.0055987,0.01171,0.051319,0.077344,0.020751,0.0053951
-0.32951,0.085071,-0.080584,-0.039625,-0.016669,-0.14986,-0.0093803,-0.014142
-0.066569,-0.17682,-0.02995,-0.029191,-0.013027,0.068989,-0.04902,0.050287
0.15475,0.0063331,0.052201,-0.0040616,-0.0087514,0.077773,-0.027732,-0.044127
-0.12347,-0.047779,-0.0063346,0.01232,-0.012416,-0.17028,0.023574,0.038164
0.24185,0.12091,0.10666,0.067002,-0.009063,0.15295,-0.035227,-0.054563
0.22078,-0.10343,-0.023112,-0.035019,0.0086807,-0.0073777,0.030792,0.2012
-0.5304,-0.045306,-0.17709,-0.074632,-0.021831,-0.057905,0.011177,-0.14738
0.065257,-0.33997,0.01177,0.018806,0.008921,0.20392,0.01561,-0.10759
0.10728,0.15935,0.11365,0.05019,-0.0080792,-0.29288,0.036363,0.040032
0.65584,0.075533,0.058118,0.027364,0.02138,0.099496,0.057705,0.10106
-0.83014,0.39698,0.0091452,-0.0029685,0.043053,0.16187,-0.092442,-0.032958
0.0075602,-0.031058,-0.11925,-0.048954,-0.036489,-0.14495,-0.039246,-0.0017563
0.23145,0.008852,0.024557,0.021801,-0.013972,-0.16443,-0.024914,0.01571
-0.24316,-0.018341,0.0033249,-0.0098417,0.016831,0.14311,-0.025834,-0.066001
0.093703,-0.21177,0.028446,0.019928,0.02453,0.10667,0.052084,0.0033192
0.11181,-0.10851,-0.040062,-0.0061059,0.001127,-0.046222,0.084238,0.098578
0.3057,0.05978,-0.013951,-0.040841,-0.045712,-0.11158,-0.0228,-0.014973
-0.44021,-0.18706,-0.017495,0.0021166,-0.022285,0.098709,-0.034525,-0.087923
0.046431,0.13366,0.059234,-0.0016295,0.008974,-0.0010421,0.0020611,0.050875
0.13208,0.15488,0.013364,0.018859,-0.0064754,-0.075043,-0.0071746,0.0022176
0.10404,0.034339,0.0088446,0.032846,0.033092,0.11058,-0.00031464,-0.054926
0.069327,-0.16317,0.0061349,-0.0062451,0.0184,-0.023069,-0.0014783,0.035094
-0.39644,0.11953,-0.0033237,0.0031667,0.01193,0.023154,0.043359,0.0531
0.31401,0.15809,-0.028209,0.0061455,-0.0020967,-0.017196,0.016479,-0.0089515
-0.39439,-0.084857,-0.030273,-0.013388,0.0073259,-0.074453,-0.051181,-0.065141
0.22797,-0.23321,-0.0023271,-0.032558,-0.05382,-0.20372,-0.042489,0.033154
-0.084058,-0.02076,0.00059228,-0.012864,-0.01387,0.27446,-0.066649,-0.018391
-0.024673,0.068281,0.0096618,0.021773,0.0020801,-0.08534,0.071964,-0.03178
0.25129,0.1354,0.025028,0.01632,0.025319,0.091775,0.022122,0.056051
0.12812,0.031996,-0.031161,0.0018338,0.040364,0.29786,0.13563,-0.0043257
0.0057447,-0.093644,0.036713,-0.013919,-0.077587,-0.46721,-0.048338,0.084504
-0.13777,0.23509,0.064867,0.039461,0.054469,0.08567,-0.053236,-0.044165
-0.19136,-0.25489,-0.079276,-0.025329,0.014785,0.066185,-0.050963,-0.10085
-0.37973,-0.21918,-0.012689,-0.051753,-0.032531,-0.14216,-0.064886,-0.007079
0.47869,0.022768,0.053931,0.085537,0.01405,0.11791,0.1162,0.057728
-0.16925,0.33898,-0.082241,-0.066205,-0.0096211,-0.0038825,-0.01503,-6.5627e-05
0.34889,-0.027896,0.024469,0.016828,0.01355,-0.037523,0.026475,0.077255
-0.20986,-0.14053,-0.023999,-0.0087963,-0.041495,0.057132,-0.024157,-0.093499
0.13639,0.10942,0.022658,0.036837,0.044004,0.038587,-0.056851,-0.013008
-0.37424,-0.17832,0.03958,0.013209,-0.0033001,0.071105,-0.0086184,-0.049428
0.43273,0.13442,0.011031,-0.048455,-0.019193,-0.2128,0.034758,0.1242
0.2705,0.076284,-0.0086901,0.023572,-0.019119,0.092416,0.088632,0.10041
-0.52995,0.14504,-0.0045859,-0.020961,0.020516,-0.068969,-0.019565,-0.1453
-0.0032787,-0.10595,-0.047741,-0.018319,-0.0095853,0.036232,-0.017432,0.081695
0.091545,-0.1298,0.040754,0.031129,0.038966,0.08647,-0.031178,-0.093734
-0.072229,-0.31565,0.010257,0.033257,-0.021522,-0.083484,0.00053323,-0.038226
-0.33467,0.081385,-0.022422,-0.012278,0.027389,0.056637,0.068979,-0.024061
0.067297,0.064661,-0.033884,-0.027617,-0.017808,-0.017302,-0.1701,-0.034056
0.64737,0.027914,0.030882,-0.012901,-0.0090473,0.030323,0.009826,0.081859
-0.25308,0.30131,0.0084485,0.0084554,-0.03254,-0.065991,0.10914,0.059391
0.16705,0.080545,0.016856,0.03665,0.036602,-0.0088097,0.034782,0.032089
0.066574,0.036121,-0.036719,-0.0060757,-0.0046653,0.069983,0.0063529,0.093704
-0.43633,-0.22531,-0.0029856,-0.025479,-0.015452,-0.2894,-0.10813,-0.1705
0.15026,0.011736,-0.037565,-0.036631,0.0046437,0.3517,0.074859,0.10555
-0.34663,-0.31803,0.062968,-0.0077521,-0.0064133,0.048983,-0.014508,-0.15746
0.37625,0.29952,0.087592,0.10844,0.037759,-0.27503,-0.024424,0.062947
-0.081094,-0.088411,-0.096947,-0.055019,-0.018741,0.21584,-0.025218,-0.046202
0.1704,0.035964,0.0086434,0.0018309,0.003975,-0.087932,0.053168,-0.00042901
0.18383,-0.15975,-0.010522,0.0052773,-0.011248,-0.069605,0.0071614,0.068025
-0.72997,-0.015186,0.008851,-0.0060938,0.013586,0.1374,-0.015376,-0.10564
0.48962,0.074869,-0.019739,-0.0094376,9.2223e-05,-0.069079,0.0083819,0.11998
-0.35479,0.19864,0.0050074,-0.0053593,-0.036441,-0.0333,-0.00023797,-0.043671
0.38288,0.020431,0.02066,0.036877,0.012995,-0.0055674,-0.033806,0.083098
0.036142,0.0070689,-0.04273,-0.0080684,0.030872,0.021825,0.0090992,-0.0079951
-0.1004,0.021975,0.010708,-0.046557,-0.022148,-0.037009,0.019251,-0.028727
0.33102,0.21664,0.02535,0.015285,0.025645,0.060254,-0.0029178,0.012127
-0.13099,-0.38237,0.048629,0.013718,0.010153,0.1575,0.021386,-0.034672
-0.76651,-0.27864,-0.075326,-0.042992,-0.052892,-0.096744,-0.06327,-0.083579
0.48988,0.096431,0.0051735,0.048759,-0.014811,-0.24158,0.017395,0.0061814
0.095738,0.10256,0.055615,0.03939,0.038789,0.0040796,0.014119,0.0087266
-0.21714,0.0075302,-0.041563,-0.031757,-0.016731,0.19462,-0.041339,0.042302
-0.14688,0.12713,-0.01346,-0.031761,0.022066,0.056163,0.093392,0.03779
0.4274,0.04307,0.022138,0.015879,-0.0086899,-0.0055758,0.011885,0.12907
-0.063215,0.070921,0.025612,0.0015925,0.016035,0.094857,-0.044175,-0.19093
-0.065393,-0.09197,-0.0034556,0.026663,0.010164,-0.20531,-0.005212,-0.015715
0.30742,-0.062035,-0.065272,-0.049837,-0.026581,-0.085657,-0.043944,0.052933
-0.13836,0.050897,-0.0035548,0.021815,-0.00080951,0.048157,0.010692,0.014326
0.0044509,-0.082662,0.064763,0.0070307,0.0011762,0.025279,0.0095844,0.094006
-0.25481,-0.089584,-0.070841,-0.016193,-0.0053043,0.065739,0.0069537,-0.20922
0.063867,0.13756,0.097938,0.014606,-0.012634,-0.016702,0.033817,0.064377
-0.14254,0.11271,-0.045609,-0.0099051,0.025998,-0.049223,0.012048,0.10129
0.057398,-0.094898,-0.024526,-0.0036763,-0.006532,0.054518,-0.042522,0.049268
-0.042619,-0.040362,0.036451,0.017832,0.0071331,0.075516,-0.020142,-0.20131
0.064048,-0.01239,0.0046382,0.031388,-0.0030814,-0.026162,0.0093677,0.076389
0.30666,0.013421,-0.010582,-0.017456,-0.021281,-0.033078,0.015295,0.015893
-0.53455,-0.20378,-0.032729,-0.065938,0.0153,-0.08734,-0.0018569,-0.045761
0.42831,0.1655,0.00055751,0.026833,0.013141,0.083134,0.020798,0.088021
0.21347,0.32546,0.042228,0.02671,0.0036687,-0.030445,-0.010286,-0.034642
-0.13229,-0.31716,-0.0094842,-0.019286,-0.013005,0.0011603,-0.063881,-0.061207
-0.19745,0.088977,-0.045439,-0.0095867,-0.021212,-0.071935,0.055079,-0.0067748
-0.09577,-0.16792,-0.011225,0.00094719,0.0024639,0.039921,0.018031,0.097352
-0.16075,0.16867,0.092838,0.066647,0.026692,0.064188,0.035369,-0.0072912
0.15673,0.05042,-0.046094,-0.039555,0.0044674,0.040935,-0.034074,-0.0015364
0.12506,-0.11762,0.048221,0.025522,-0.017505,-0.091408,-0.011017,0.035063
0.14653,0.023248,-0.038515,-0.027709,0.015274,0.089764,0.0028083,-0.047348
0.31247,0.0043862,-0.0095029,-0.019918,-0.030194,-0.063515,-0.062778,-0.0076766
-0.68246,0.029891,-0.02085,0.001913,0.017804,-0.074467,0.0035754,-0.057376
0.053579,-0.10944,0.013749,0.006715,0.01071,0.16628,0.01497,-0.016557
0.13285,0.057376,-0.053592,-0.036323,-0.0046682,-0.19299,0.065792,0.11569
-0.2922,-0.14709,0.027757,0.014028,-0.028346,0.11308,-0.038771,-0.081097
0.28282,0.021178,0.047439,0.04122,0.017832,-0.017415,0.029637,-0.027131
0.11954,0.24277,0.044924,0.022361,0.02455,0.063612,-0.018159,-0.0021607
-0.045226,0.048662,-0.057771,-0.042209,-0.039363,-0.058251,0.043969,0.11201
-0.078145,-0.05487,0.0048433,0.027286,0.044922,-0.016115,-0.026827,-0.051532
-0.097899,-0.085937,-0.0097957,-0.019313,-0.04283,-0.0055096,-0.090649,-0.048075
0.49394,0.09313,-0.024081,-0.01829,0.017766,0.0046954,0.039377,0.10541
0.099626,-0.10642,0.031759,0.029914,0.0080372,0.13167,0.073831,0.12587
-0.62059,-0.030417,0.071338,0.0076773,-0.0094299,-0.2261,-0.0028843,-0.17607
-0.0131,-0.11734,-0.10092,-0.038462,-0.0032779,0.056477,-0.026237,-0.012786
-0.031756,0.031531,-0.016302,0.016319,0.018812,0.12792,-0.02658,-0.0020725
-0.026682,0.073808,-0.010549,-0.031099,-0.013321,-0.11333,-0.026131,-0.096607
0.23982,0.050672,0.010448,0.014765,-0.0057679,0.098318,-0.015711,0.056653
0.04568,0.12861,0.13306,0.052628,0.002542,-0.088823,-0.0018717,-0.040057
-0.15124,-0.10412,-0.08761,-0.034377,-0.02738,0.122,0.047534,-0.017043
0.19998,-0.012745,-0.034075,-0.011585,0.0059979,-0.0896,0.046871,0.19042
0.070751,0.26352,0.059452,0.011829,0.04782,-0.059531,0.011347,0.013432
-0.0067479,-0.42289,-0.041384,-0.0031152,-0.019416,-0.014204,-0.021103,-0.071139
-0.27556,-0.079475,0.0070797,0.013843,0.0069773,0.05444,-0.013093,-0.032971
-0.034944,0.082573,0.032818,-0.023395,0.00151,0.021676,0.0099849,-0.0068566
-0.022714,0.070206,-0.019016,0.033369,0.026233,0.043981,-0.047522,-0.0032701
0.3196,0.2413,-0.06262,-0.027061,-0.044155,0.0042834,0.015982,0.12338
-0.12927,-0.093746,0.042534,-0.0017913,-0.022219,-0.011487,-0.0035462,0.019014
-0.044826,0.13292,0.015123,0.0074656,-0.0014981,-0.073755,-0.035973,-0.24777
0.078048,-0.06558,0.019135,0.0084792,0.026292,0.0048046,0.044251,0.0098681
0.066059,-0.30074,-0.031476,-0.0064906,0.0071131,-0.11195,-0.050792,0.026809
0.1068,-0.11301,0.0037465,-0.013839,-0.034895,0.21642,0.078862,0.10922
-0.54814,0.22374,0.023003,0.017902,0.049317,0.067812,0.012987,-0.0064002
0.072781,0.069297,-0.04431,-0.036062,-0.028916,-0.29234,-0.043777,-0.044288
0.14484,-0.059608,0.028056,0.0040822,0.0039313,0.15924,-0.0043072,0.044534
-0.0083758,0.057242,-0.018007,0.0055131,0.0069946,0.086485,-0.016333,-0.011838
0.060847,0.069849,0.043845,0.053997,0.026621,-0.1356,-0.0093626,0.006124
0.44723,-0.028092,0.010399,0.032037,0.0074161,0.00096389,0.047523,0.03592
-0.24045,0.12421,-0.040132,-0.052934,-0.02011,0.08243,0.052022,-0.024664
-0.082229,-0.1125,-0.037142,-0.029378,-0.025316,-0.023519,-0.020292,-0.012631
-0.072859,-0.2525,0.04329,0.055642,-0.00073787,-0.074099,-0.037641,-0.022927
-0.14449,-0.099189,-0.040399,-0.079084,-0.016702,-0.0061972,-0.039975,0.013703
-0.064359,0.020335,0.024957,-0.019207,0.013042,0.024443,-0.059132,-0.098785
0.36248,0.43465,0.013393,0.016996,-0.012521,0.072802,0.13123,0.12366
-0.26918,0.0027766,-0.0043598,0.037876,0.016624,0.0060661,-0.06253,-0.061098
0.20689,-0.057869,0.034362,0.03609,0.015109,0.081738,0.024013,0.019131
-0.18308,-0.11661,-0.042431,-0.027148,-0.016711,-0.18513,-0.0071367,0.044451
-0.27229,-0.090083,0.022718,0.03569,0.03841,-0.076499,-0.014975,-0.070717
0.48041,0.16767,0.026164,0.013467,0.031795,0.16467,0.031945,0.11913
0.060263,-0.063913,-0.032665,-0.039482,-0.029199,0.053336,0.00076311,-0.081367
-0.056709,0.073841,-0.037099,-0.037603,-0.051365,-0.12198,0.024007,0.022872
-0.083313,-0.19189,-0.010956,-0.043707,0.011698,0.091548,-0.031578,-0.045103
-0.0066994,-0.046736,0.029924,0.035773,-0.0043491,-0.056182,0.021033,0.011148
-0.033065,-0.042669,-0.0082594,0.013288,-0.013587,-0.072854,-0.068521,-0.0040815
-0.20419,0.14361,0.01519,0.029501,0.015475,-0.012871,-0.003483,-0.02076
0.35313,0.19437,0.061357,0.037602,-0.0026783,0.13196,0.083539,0.078179
-0.15078,-0.084192,-0.0023765,-0.032677,0.0027622,-0.02859,0.029028,-0.011886
-0.23863,-0.12162,-0.050786,-0.0016366,0.055686,0.13869,-0.080245,-0.025073
0.27105,0.13545,-0.036739,-0.009908,-0.0076533,-0.13143,-0.047962,9.6511e-06
-0.025491,-0.034245,0.00097379,-0.018421,-0.038691,-0.049472,-0.021558,-0.053207
0.093226,0.061482,0.015734,-0.0036906,-0.014053,0.010024,0.070094,0.042585
-0.11253,-0.13517,-0.046975,-0.035946,0.011351,-0.17119,0.024303,0.030364
-0.031596,0.13117,0.039426,0.025533,-0.0096815,0.21981,0.051952,0.043688
0.0087435,-0.26574,0.071625,0.055818,0.024033,-0.10581,-0.027207,-0.11998
-0.02297,0.08829,0.033623,0.023672,-0.0050654,0.17997,0.035866,0.031883
0.23925,-0.039689,0.0030605,-0.024076,0.0042664,0.021975,-0.049053,-0.0007769
-0.28468,0.04016,-0.075196,-0.017186,0.012741,-0.080626,-0.064336,-0.038747
0.19972,0.13521,-0.076403,-0.018207,-0.02662,-0.042908,-0.049918,0.04204
-0.075543,-0.04899,-0.023953,-0.034928,-0.020037,-0.14711,0.056211,0.091821
-0.018668,0.10646,0.043465,0.003075,0.017022,0.13725,0.050841,-0.00033495
-0.00582,-0.15555,0.10304,0.056926,0.014494,-0.033991,0.027977,-0.048465
-0.013759,0.11781,-0.055439,-0.037233,-0.011692,0.14384,-0.066603,0.14153
-0.041725,-0.035496,0.029634,0.041068,0.024711,-0.00078424,-0.013609,-0.29814
-0.15851,-0.15604,-0.047547,-0.0049836,-0.0088328,-0.31881,0.078076,0.0076982
0.27059,0.17652,0.041273,-0.0035739,-0.018359,0.23741,-0.0099233,0.083482
0.059964,-0.08584,-0.047872,-0.017369,0.019714,-0.034502,-0.043002,0.0324
0.04697,0.017276,-0.0030032,0.00027373,-0.019544,0.10047,0.06488,0.059531
-0.36142,-0.0061453,0.081395,0.010055,-0.0033209,-0.07601,-0.084699,-0.091036
0.22531,-0.045926,0.0091879,0.019597,0.021444,-0.0012797,-0.030828,0.074375
-0.16247,0.024126,-0.095386,-0.057146,-0.0078719,-0.019152,0.062383,-0.060617
0.27853,-0.060365,-0.021966,-0.0014379,-0.021135,-0.043909,-0.016065,0.058682
0.01542,0.084359,0.088527,0.046151,0.036122,0.064784,0.03842,0.009642
-0.1485,-0.01011,-0.092024,-0.031483,-0.016038,-0.044909,-0.00085587,0.0096694
0.16878,0.23394,0.069481,0.039168,0.001823,0.15026,-0.0012458,-0.075697
-0.3373,-0.16119,-0.0046032,-0.038758,0.0035407,0.0017905,-0.0019811,0.040972
0.0062213,-0.14248,0.0066123,0.055003,-0.0032383,-0.41991,-0.089127,-0.040089
-0.15815,0.053883,-0.036933,-0.015582,-0.018594,0.37754,0.088836,-0.022811
0.27341,-0.01124,0.029294,-0.031864,0.035625,-0.011859,-0.022706,-0.032379
0.47483,0.20012,0.010315,0.0061046,-0.027951,-0.11918,0.060817,0.1738
-0.46658,-0.28893,-0.015567,-0.011023,0.0018413,0.024312,-0.043114,-0.067459
