-0.011723,0.1014,0.05759,0.0022632,-0.016623,-0.016984,-0.012904,-0.020152
0.072822,0.1036,0.055692,0.026027,-0.0016074,-0.020401,-0.014156,0.0031279
-0.061502,-0.11784,-0.079918,-0.044026,-0.018079,-0.00068453,0.0080426,-0.013019
-0.031495,0.00010955,0.087419,0.010799,-0.011246,0.0035813,-0.0085972,-0.013864
-0.039797,-0.0736,-0.12239,-0.012612,0.011247,0.00069522,-0.009164,-0.014846
1.7201e-05,-0.034437,0.040773,0.010815,0.010528,0.014492,0.014329,0.015585
0.088309,0.13272,0.077504,0.0030782,0.0023845,0.006138,0.02289,0.030882
0.0064373,-0.010464,-0.11281,-0.0044373,0.018157,0.030336,0.016455,6.5235e-05
-0.019265,-0.090177,0.0021491,0.0039948,-0.0046673,-0.038109,-0.028612,-0.022045
-0.012814,-0.021933,-0.022027,-0.0028452,-0.019322,-0.01206,0.0045896,0.0035605
0.032761,0.13797,0.057354,0.0062307,0.0052614,0.014287,-0.0092549,0.014144
0.046196,0.16921,0.16991,0.038885,0.022006,0.024868,0.0077132,0.032762
-0.14524,-0.39043,-0.20844,-0.069153,-0.047388,-0.050974,-0.030602,-0.058213
0.098518,0.28648,0.16337,0.033461,0.03917,0.028753,0.024218,0.0455
-0.04299,-0.10465,-0.020601,0.010621,-0.0073843,-0.0094036,0.00041719,-0.047011
-0.014743,-0.0081067,-0.10519,-0.012745,-0.038516,-0.024679,-0.0080344,-0.015539
-0.011309,-0.093902,-0.0050239,0.0024856,0.039696,0.030052,0.0069416,0.014998
-0.00044259,-0.086149,0.014435,-0.021628,-0.0069274,-0.001173,-0.001283,0.0057731
0.034516,0.048986,-0.08498,-0.0066834,-0.0063399,0.006897,0.0065251,0.019606
0.024105,0.11841,-0.0049499,0.01637,0.018116,0.015358,-0.00082604,0.0099487
-0.0077539,0.1235,0.045217,-0.014725,-0.01951,-0.014818,0.0078487,-0.00731
0.009292,0.0098685,0.059093,0.017319,0.0056503,-0.013407,-0.014495,-0.016377
0.027981,-0.0045509,0.060873,0.010857,-0.00038346,-0.0040305,0.010037,0.02969
-0.046126,-0.15577,0.027018,0.028116,0.016791,-0.002551,-0.0047321,-0.025364
0.020542,0.069853,-0.012189,0.021821,0.017831,0.029853,0.011322,0.013736
-0.046172,-0.10299,-0.042739,-0.047514,-0.013095,0.014858,-0.004397,-0.017107
0.050135,0.13691,-0.0040282,-0.0083446,-0.044816,-0.039843,-0.03625,-0.024153
-0.096938,-0.25007,-0.17905,-0.06393,-0.030384,-0.032708,-0.0059957,0.0082278
0.012767,0.13469,0.12629,0.043648,0.061665,0.051968,0.03186,0.025341
0.0046032,-0.020737,-0.018163,-0.0055995,-0.0027428,-0.020031,0.0071956,-0.004123
0.058656,-0.059485,0.059853,0.0075324,-0.0045429,0.017124,0.013915,0.00563
0.1049,0.17491,0.080204,0.067884,0.017457,-0.016051,-0.0025906,0.0153
-0.090955,0.010112,-0.096091,-0.035119,-0.0069147,0.013431,-0.011067,-0.014482
-0.0056076,0.13245,-0.11559,-0.02786,-0.0073405,0.011938,-0.0037544,0.009713
-0.037779,-0.10034,0.062534,0.0036943,-0.030809,-0.036088,-0.019781,-0.029566
0.015339,-0.057123,-0.099427,0.02808,0.070929,0.049066,0.026746,0.0081719
0.012888,-0.012488,0.30544,0.0059037,-0.01483,-0.021658,-0.0047901,0.013598
0.0094968,0.0021164,-0.035524,-0.016317,-0.030432,-0.029502,-0.02058,0.0025778
-0.080629,-0.39514,-0.21699,-0.038881,-0.046258,-0.0056954,0.0029136,-0.047915
0.039709,0.23528,0.21268,0.023976,0.047104,0.041972,0.018917,0.018886
0.0037535,0.052378,-0.068545,-0.015262,-0.015853,-0.027119,-0.011569,0.016007
0.038521,0.18402,-0.11693,0.0076015,0.01503,0.0057422,0.0051966,0.0063899
0.10535,0.21081,0.0039305,0.038116,0.030521,0.0076326,0.014429,0.021557
-0.147,-0.31087,0.020205,-0.01718,-0.031798,-0.0060074,-0.023114,-0.03219
-0.015177,-0.067739,-0.036523,-0.0095758,0.015579,0.011458,0.025156,0.0012313
0.071292,0.18236,0.20971,0.014269,0.024152,0.036342,0.018402,0.035533
0.0031451,-0.16275,-0.09127,0.0075971,-0.013986,-0.0096777,-0.020084,-0.0078652
-0.078947,-0.018143,-0.047359,-0.045215,-0.052052,-0.04856,-0.035641,-0.027879
-0.010995,-0.033445,-0.094745,0.0041448,0.011452,-0.0099302,-0.0047261,-0.017113
-0.02764,-0.038134,0.033046,-0.00083005,-0.026641,-0.03421,-0.013065,-0.022753
0.058075,0.052197,-0.0075597,0.0098006,0.028935,0.027326,0.017719,0.017523
0.13593,0.20456,0.22817,0.066831,0.029648,0.034331,0.04096,0.064591
-0.10766,-0.067324,-0.16731,-0.072404,-0.0012326,0.018233,-0.0057508,-0.045579
0.091763,0.19559,0.11676,0.068252,0.053254,0.033731,0.033773,0.062126
0.061309,0.069885,0.13323,0.02763,-0.0024383,-0.020896,-0.020363,0.012889
-0.22302,-0.62502,-0.30691,-0.13174,-0.10597,-0.052175,-0.043445,-0.10709
-0.034607,0.040604,-0.0091326,-0.0032603,0.039555,0.041156,0.011118,0.0072162
-0.013301,0.099023,-0.098318,-0.00039114,-0.042217,-0.053629,-0.020936,-0.05788
0.029717,0.20823,0.059316,0.049521,0.024134,0.0071405,0.01658,0.11985
0.088241,0.003106,0.11375,0.030062,0.0047641,-0.010824,-0.0090618,-0.021834
0.030987,-0.037854,0.058852,-0.0034809,0.0095678,0.025515,0.035157,0.048366
0.023151,0.078973,-0.018037,-0.019566,0.023299,0.030515,-0.014546,-0.1072
0.010595,0.0028209,0.024526,0.012981,0.0070371,0.0044699,0.014003,0.073612
0.047955,0.10892,0.12418,0.031241,0.015341,-0.0055187,0.0038915,0.035656
-0.13091,-0.26689,-0.16483,-0.027937,-0.030274,-0.038383,-0.036852,-0.05745
-0.034543,0.0080479,-0.01512,-0.016848,0.010332,0.023094,0.0091033,0.020565
-0.03087,-0.074078,-0.15408,-0.0299,-0.035203,-0.02426,-0.0066205,-0.050642
0.043621,-0.044338,0.050477,0.0027745,-0.010993,0.0069539,0.017515,0.018269
0.047991,0.20687,0.10596,0.049757,0.043748,0.038496,0.01109,-0.014339
0.021185,-0.054787,-0.034702,0.0096052,-0.011525,-0.015678,-0.010443,0.02411
-0.052442,0.07656,0.050271,-0.070465,-0.028094,-0.0072042,0.0073783,-0.053209
-0.016686,0.13907,0.11074,0.0053197,-0.021186,-0.045487,-0.029437,0.019782
0.08923,-0.095141,-0.095718,0.026472,0.072099,0.064801,0.02732,0.086905
-0.094385,-0.21353,-0.10064,-0.037937,-0.037007,-0.027855,-0.017846,-0.031917
0.15859,0.19664,0.08788,0.1247,0.034416,-0.0030873,0.014639,0.037502
-0.12107,-0.1232,-0.077151,-0.024776,0.012825,0.014143,-0.00026441,-0.034051
0.0037194,0.0066198,0.060647,-0.041345,-0.031762,0.008208,0.023423,0.064791
-0.060982,0.016615,0.0095412,-0.019088,-0.021623,-0.036577,-0.070444,-0.13565
0.052079,-0.068293,0.012511,0.0026782,0.011581,0.0046727,0.015151,-0.049926
-0.031736,0.050596,-0.046548,-0.022991,0.02066,0.045859,0.038171,0.07197
-0.014939,-0.062458,-0.064797,-0.041234,-0.033592,-0.014757,-0.009074,0.0040033
0.22044,0.2501,0.23253,0.11241,0.036396,0.010172,0.037559,0.05957
-0.14506,-0.097109,-0.16899,-0.038088,-0.034733,-0.043507,-0.040649,-0.064951
-0.016859,0.012874,-0.041915,2.014e-05,-0.0043696,0.0038961,-0.0015099,0.061151
-0.081741,0.024404,-0.034298,-0.054068,0.0029678,0.0040497,-0.0090936,-0.030069
-0.0032545,-0.11861,-0.029236,0.010815,0.011161,0.0040204,0.0069202,0.0056202
0.11725,-0.050526,0.30038,0.12431,0.051768,0.027482,0.015312,0.027725
-0.079756,0.016332,-0.15652,-0.065475,-0.015727,0.0043472,-0.022936,-0.04987
0.14734,0.057479,0.097888,-0.020034,-0.058637,-0.065224,-0.014044,0.0068088
-0.11644,-0.11521,-0.14183,-0.03691,-0.0148,0.014129,0.018536,-0.013685
0.049603,0.29493,0.091044,0.055116,0.060595,0.047005,0.020033,0.020942
-0.011947,-0.20418,-0.10325,-0.010099,0.018525,-0.0058781,-0.0019049,0.00087146
0.026057,0.090978,0.017111,-0.014098,-0.0087723,0.019227,0.022813,0.0039111
-0.047889,-0.076794,-0.00030341,0.0040176,-0.021762,-0.026463,-0.015422,-0.0091736
-0.046335,0.082342,-0.052347,-0.0024354,-0.0050955,0.0051929,-0.023047,0.031896
-0.078203,-0.20415,-0.074409,-0.079997,-0.052566,-0.034416,-0.023585,-0.060309
0.091689,0.19748,0.13876,0.092003,0.031328,-0.0046662,0.0064502,0.011215
0.011132,-0.024424,0.088807,-0.0018057,0.028199,0.0086745,0.012545,0.004401
0.071507,-0.1349,-0.051679,0.021439,0.016618,0.021531,0.018393,0.036499
0.02319,0.084956,0.013813,-0.018144,-0.0108,0.018636,0.0086484,0.02153
-0.11049,-0.083999,-0.083285,-0.01158,-0.045927,-0.046561,-0.032085,-0.079724
0.11524,0.16192,0.19403,0.040636,0.020764,0.02148,0.013511,0.052808
-0.08168,0.03216,-0.13302,-0.033812,0.048622,0.050962,0.020443,-0.018656
0.055735,0.017129,0.090032,0.022673,-0.017202,-0.051933,-0.019219,0.025956
-0.12152,-0.15045,-0.20794,-0.071028,-0.012873,-0.01396,-0.0041157,-0.032234
-0.019824,0.043941,-0.057735,-0.0018755,-0.0010834,0.00056948,-0.012617,0.0021384
0.18941,0.068873,0.24555,0.082599,0.018109,0.038292,0.033188,0.043407
-0.0866,-0.043391,-0.12338,-0.058647,-0.033275,0.0053071,0.0081692,-0.056376
-0.073024,-0.11096,-0.098711,-0.025989,-0.014245,-0.0046438,-0.017348,0.00033225
-0.073015,-0.1151,-0.091332,-0.029368,-0.025821,-0.030455,-0.019752,-0.020085
0.21172,-0.0053792,0.31511,0.11151,0.018554,-0.056168,-0.014338,0.070604
-0.04594,0.36208,0.098095,0.060765,0.088188,0.074915,0.02277,-0.0082701
-0.017465,0.0052421,0.014715,-0.018017,-0.0040529,-0.0039274,0.0060931,-0.0063968
-0.11725,-0.31723,-0.30444,-0.15706,-0.11748,-0.034507,-0.032735,-0.087878
0.11463,0.089096,0.090422,0.033007,0.028895,0.014605,0.015865,0.035932
0.12973,0.30764,-0.015399,0.097718,0.10635,0.049567,0.05029,0.090833
-0.0034368,-0.1185,0.14799,-0.00316,-0.018743,0.015327,-8.2266e-05,0.028936
-0.2632,-0.19373,-0.21899,-0.082956,-0.066052,-0.049647,-0.034226,-0.096174
0.044338,0.030783,0.1088,-0.0014269,0.002619,0.0023654,0.017494,0.081679
0.074584,-0.042172,0.021948,0.046205,0.014725,-0.01685,-0.033118,-0.12574
-0.039869,0.13995,-0.17357,-0.056766,-0.04574,-0.014128,-0.0069683,-0.0078151
0.060696,-0.040567,0.055706,0.034139,0.055547,0.041412,0.025237,0.052746
-0.05268,-0.21552,0.0092808,-0.0084115,-0.040542,-0.045649,-0.03039,-0.029492
0.066208,0.14084,0.15055,0.058441,0.041467,0.037336,0.037213,0.074345
-0.034916,0.11756,-0.081162,-0.046128,-0.018145,-0.0061445,-0.0059776,-0.033349
-0.011634,-0.055406,0.041567,0.006127,-1.2954e-05,0.011928,-0.0031869,0.023184
0.066172,0.093821,0.1124,0.082251,0.06517,0.029661,0.014952,-0.0054795
0.073734,-0.018218,0.067993,-0.0055571,-0.033087,-0.038253,-0.013428,0.037264
-0.12944,-0.21807,-0.31938,-0.13261,-0.091342,-0.050592,-0.025253,-0.082818
-0.097897,0.065165,-0.082033,-0.017856,0.046844,0.040028,0.0033655,0.0014451
0.098314,0.13583,0.20912,0.065286,0.029976,0.0074065,0.025822,0.032122
-0.1498,-0.11658,-0.18027,-0.062653,-0.040425,-0.01547,-0.020323,-0.069083
0.26758,0.10318,0.20358,0.12994,0.077694,0.049476,0.052276,0.10389
-0.055351,0.0041925,-0.036765,-0.012761,-0.029932,-0.016773,-0.022348,-0.019491
-0.040187,0.053504,0.13109,-0.021663,-0.0276,-0.01936,-0.025914,-0.0097355
-0.038412,-0.16419,-0.26846,-0.044972,-0.0014769,0.017696,0.017619,-0.0076807
-0.042395,0.045872,0.15572,0.018935,0.009181,-0.023419,-0.017244,-0.021327
0.080249,-0.097382,-0.033862,-0.0097398,-0.019206,-0.026115,-0.005908,0.019481
-0.038306,-0.069704,-0.040886,-0.014067,-0.0086151,0.016917,-0.018968,-0.033813
0.093365,0.27068,0.11799,0.04464,0.048683,0.050628,0.044992,0.05309
-0.072405,-0.1142,-0.042958,-0.0059425,-0.027093,-0.034553,-0.0015503,-0.016727
0.065252,0.1045,0.037367,0.013408,0.021743,0.0035479,0.013362,0.022355
-0.12696,-0.10444,-0.11886,-0.014911,0.015357,0.024472,-0.0038502,-0.032759
0.046096,0.0082655,0.065592,-0.0052685,-0.022964,-0.026127,-0.021687,0.0055018
-0.024839,0.042794,-0.15187,-0.059378,-0.030825,-0.014949,-0.016399,-0.018999
-0.011229,-0.026086,0.049155,0.018097,-0.00044305,-0.019535,-0.01107,-0.0045501
0.18126,0.057591,0.26294,0.10233,0.044825,0.03885,0.049344,0.072459
-0.17329,-0.13737,-0.18157,-0.079801,-0.035459,-0.011127,-0.030156,-0.061236
0.042883,0.2632,0.02126,0.026741,0.040231,0.010613,0.0084563,0.016391
-0.036974,-0.33434,-0.026047,-0.03079,-0.040281,0.0026829,0.0090078,-0.022674
0.0092307,0.047669,-0.049183,-0.0098664,-0.018864,-0.011556,-0.0051435,0.00913
0.15025,0.16114,0.12443,0.074152,0.03443,0.014462,0.020463,0.057118
-0.16878,-0.21803,-0.14534,-0.067625,0.018196,0.017756,-0.023882,-0.058447
0.098719,0.22518,0.17301,0.041432,0.0027739,-0.010049,0.0020597,0.021717
-0.047563,-0.11649,-0.068969,-0.02058,-0.019753,-0.030434,-0.0036469,-0.015017
-0.068827,0.023907,-0.074614,-0.0037754,-0.010538,-0.0047577,-0.002236,-0.028174
0.0035199,0.013831,-0.031847,-0.017705,-0.0089273,-0.011385,-0.0095101,0.01333
0.075678,0.11812,0.13689,0.015534,0.016027,0.027774,0.02137,0.031186
0.046123,-0.0086008,-0.037802,0.017567,0.0015514,0.0034981,0.0045719,0.017391
-0.022564,-0.016878,0.044973,-0.011866,0.025569,0.041079,0.010638,0.0030196
-0.044354,-0.057225,-0.021631,0.020742,-0.029209,-0.062242,-0.046053,-0.027684
-0.034798,-0.22501,-0.12087,-0.033244,-0.014325,-0.0092152,0.0067348,-0.020074
0.045203,0.20548,0.067331,0.044804,0.03911,0.052048,0.028723,0.010291
-0.015313,-0.10954,0.011709,-0.042006,-0.032728,-0.026664,-0.011057,-0.014531
-0.0055184,0.0024838,-0.014119,-0.0045201,0.0048279,-0.003063,0.0047481,0.0072837
0.011878,0.042581,0.013586,-0.01442,-0.019804,0.0056204,-0.009782,0.0057022
0.013126,0.14465,-0.02202,0.0066762,-0.0048346,-0.0085989,-0.00010056,-0.0034226
0.068159,0.16892,0.1372,0.066851,0.065469,0.024318,0.017884,0.042523
-0.073413,-0.34505,-0.11787,-0.028973,-0.004245,0.0024834,-0.0030873,-0.012741
-0.052529,0.08729,-0.052651,-0.022826,-0.026654,-0.027547,-0.016565,-0.028758
0.083776,0.13004,0.090843,0.015045,0.013598,0.012102,0.016119,0.033275
-0.070696,-0.16988,-0.038789,-0.024764,-0.0087813,0.00411,0.00091876,-0.030043
0.0077783,-0.085719,0.019573,-0.0017382,-0.039346,-0.020261,-0.015431,-0.0079962
0.061878,-0.085896,-0.093241,0.02146,-0.0079188,-0.0061648,-0.0016362,0.013379
-0.048375,0.15804,0.083933,0.021207,0.054246,0.023234,-0.0043489,0.0028867
0.0058695,0.16188,0.012269,-0.033916,-0.0089887,0.0057705,0.00023777,-0.015823
0.061283,0.019193,0.067016,0.035673,0.0057021,-0.011343,0.012575,0.027901
-0.03771,-0.051793,-0.048429,-0.020028,-0.01082,0.01123,0.0096836,-0.02178
-0.056168,-0.051855,-0.068128,-0.021195,-0.011449,-0.020098,-0.015858,-0.00038804
-0.0093031,0.11197,0.0082747,-0.0066083,-0.019437,-0.019368,-0.0090957,-0.016944
0.18123,-0.2718,0.056131,0.055385,0.051271,0.052362,0.045704,0.077223
-0.17206,-0.04704,-0.064933,-0.030062,0.013216,0.0073481,-0.023384,-0.045934
0.00086306,0.23971,-0.018977,-0.012515,-0.0086423,-0.0062891,-0.0056142,-0.011508
-0.027098,-0.23905,-0.11891,-0.063552,-0.084716,-0.051379,-0.026275,-0.022873
0.1026,0.1736,0.23588,0.074694,0.058281,0.043674,0.031481,0.036778
-0.056437,0.16561,0.020449,-0.0042935,-0.017341,-0.049433,-0.02801,-0.028332
0.064857,0.010419,0.076609,0.026999,0.0085041,0.012995,0.021495,0.02348
0.090215,-0.15963,-0.10554,0.034858,0.034,0.035708,0.015666,0.051105
-0.12989,-0.11884,-0.059081,-0.028648,-0.011434,0.0032285,-0.0066197,-0.04742
-0.025868,0.076978,-0.027391,-0.023919,0.0047665,-0.013931,-0.0063922,-0.022358
-0.02759,0.036098,-0.010704,-0.0064254,-0.0035211,6.3775e-05,-0.0070753,0.0090158
-0.048738,-0.13307,-0.055089,-0.039041,-0.044181,-0.032721,-0.016364,-0.031328
0.14595,0.22507,0.083345,0.034608,0.023483,0.036304,0.020633,0.04436
-0.10637,0.032073,-0.093148,-0.050497,-0.011244,-0.003698,-0.01301,-0.029207
0.078405,-0.17286,0.058394,0.034732,0.016039,0.019194,0.015796,0.029577
0.029552,-0.01417,0.13369,0.049245,0.011989,-0.020023,0.01355,0.017888
-0.041166,0.087273,-0.0066448,-0.052741,-0.022991,-0.027638,-0.019557,-0.025
0.022926,-0.015619,0.005012,0.034321,0.012996,0.011906,0.0025221,0.018214
-0.028134,-0.086899,-0.042593,0.014067,-0.0048286,0.012584,-0.0061246,-0.016486
0.031967,0.12503,0.013841,0.027244,0.032993,0.021174,0.0091422,0.019365
-0.054992,-0.058123,-0.045278,-0.035736,-0.022022,-0.017114,-0.006468,-0.030425
0.007436,-0.041611,-0.072112,-0.011248,0.0018575,-0.0008134,0.0094113,-0.0094852
0.0079639,-0.020344,-0.051196,-0.048253,-0.044001,-0.031564,-0.013669,-0.0035743
-0.092697,0.067911,-0.083807,-0.037867,0.0042642,0.023401,-0.0055087,-0.028116
0.12722,0.15974,0.28374,0.1211,0.06836,0.046897,0.033825,0.057683
0.058321,-0.13691,0.028601,0.014339,-0.00026024,-0.031334,0.0027646,0.0664
-0.10407,-0.0033445,-0.098892,-0.076978,-0.053197,-0.031498,-0.036124,-0.064515
0.015062,0.0041786,-0.0050585,0.0034064,0.0033249,0.0074873,0.0032218,-0.022734
0.0094869,-0.052987,-0.018546,0.021196,-0.010309,-0.0079671,-0.011847,0.019607
-0.019229,-0.058187,0.047262,-0.0157,-0.0080829,0.0082141,-0.0030468,-0.023725
0.030475,0.08249,-0.0040094,0.04123,0.056922,0.040484,0.037541,0.018869
-0.052349,-0.036433,-0.048398,-0.011115,-0.010639,0.0028932,0.0083659,0.0065473
-0.0021194,0.062787,-0.055475,-0.047779,-0.015584,-0.034353,-0.020368,-0.029579
0.048259,0.037705,0.03677,0.017067,0.01062,-0.0089442,0.0058075,0.019797
0.0048802,-0.10272,0.0329,0.027009,-0.0026091,0.00075584,0.00065662,0.0062236
0.055025,0.07196,0.073739,0.028735,-0.00084695,0.017937,-0.012705,0.0078369
-0.090624,-0.11774,-0.12155,-0.056068,-0.0077342,0.0033196,0.0044996,-0.014412
-0.0026251,0.17936,0.017845,0.006827,6.7803e-05,0.0036243,-0.0026185,0.0019784
-0.024919,-0.037628,-0.023222,-0.017039,-0.047732,-0.043718,-0.018519,-0.0055059
0.045517,-0.0434,0.12279,0.020764,0.052121,0.048817,0.034962,0.0099887
0.052438,0.01222,-0.0048343,0.02656,0.0029499,-0.01553,-0.013911,0.0172
-0.089987,-0.082986,-0.10134,-0.030756,-0.015337,-0.017817,-0.016483,-0.046358
0.063756,0.060643,0.059858,0.020892,0.028713,0.018756,0.019679,0.038124
-0.0016778,0.036336,0.033489,-0.0057553,0.0024522,0.0085055,0.0088814,-0.010488
-0.035954,-0.054374,-0.094372,-0.0088728,-0.0080552,-0.017085,-0.0095998,-0.0045277
-0.046519,-0.023572,-0.10473,-0.027258,-0.026139,-0.0031426,0.0034665,-0.0141
0.12323,-0.12832,0.19024,0.048705,0.010811,0.011381,0.0013297,0.031328
-0.096718,0.26515,-0.068545,-0.030795,-0.022087,-0.0047364,-0.0081096,-0.03211
0.004766,0.071942,0.017514,-2.5359e-05,0.00028629,0.003135,-0.0091662,0.0066602
0.037105,-0.027176,0.034302,0.023835,0.023329,0.011432,-0.0018033,0.022688
-0.01544,-0.17957,-0.010668,-0.02181,-0.01544,-0.019076,-0.0016352,-0.01533
0.049988,-0.079488,-0.016318,0.026916,0.047964,0.020812,0.030377,0.025266
-0.040423,0.055325,0.079296,-0.0099138,-0.0053842,-0.0096742,0.00041612,-0.01981
0.056659,0.045981,-0.036803,0.031515,-0.011668,-0.0090615,-0.013502,0.013256
-0.11227,-0.060251,-0.13051,-0.059946,-0.041462,-0.024246,-0.01934,-0.039832
0.0071847,0.072335,-0.029926,-0.011001,0.022203,0.03075,0.013977,0.016062
0.00079479,0.01306,0.054272,-0.0014014,-0.0082972,-0.00806,0.00032834,-0.0066621
0.071625,0.064882,0.11471,0.046969,0.023282,0.03128,0.0098452,0.032599
-0.01468,0.10838,-0.012239,0.0013056,-0.0079564,-0.023055,-0.0045085,-0.022364
0.0075655,-0.14002,-0.037166,-0.029035,-0.039335,-0.030441,-0.019427,-0.0074128
-0.017797,-0.033777,-0.0067932,0.018379,0.030905,0.040308,0.011873,0.022858
0.018731,0.043348,0.039801,0.0028116,0.0076026,-0.0062346,0.011225,-0.001775
0.031391,-0.064596,0.032183,0.041322,0.015823,0.0016597,0.0020813,0.012517
-0.081129,-0.14507,-0.076655,-0.038054,-0.0069833,-0.0064642,-0.007664,-0.027947
-0.06852,0.015474,-0.091464,-0.032193,-0.0062827,0.0005412,0.0055779,-0.029362
0.069541,0.045074,0.026837,-0.011287,-0.0057351,-0.00079064,-0.012662,0.023944
0.075496,0.087084,0.07519,0.024903,0.010048,0.0052303,0.0082015,0.030435
-0.042742,0.096338,0.037979,-0.0014384,-0.02944,-0.035923,-0.033101,-0.0098854
-0.0040391,-0.028532,-0.053692,-0.011876,0.0085055,0.040048,0.027769,0.0045213
-0.027481,0.039149,-0.067379,0.017256,0.0067021,-0.016584,0.0035193,-0.02795
0.04268,0.023121,0.12133,0.031361,0.019953,0.013195,0.003622,0.0020295
0.080893,0.044812,0.12111,0.014748,-0.021847,-0.018849,0.0046024,0.039742
-0.077353,-0.22741,-0.19368,-0.032771,0.014388,0.020205,-0.0015219,-0.031996
-0.041638,0.0085195,0.075013,-0.0098701,-0.019484,-0.010272,-0.0072111,0.0056143
-0.038387,0.0014717,-0.088353,-0.0026826,0.017447,0.022415,0.010648,-0.011394
0.0032051,0.01771,-0.026928,-0.0034739,-0.0073929,-0.014748,-0.0029453,-0.0047682
0.04484,-0.034243,0.025996,0.0034591,-9.1567e-05,-0.012636,-0.024803,0.017815
-0.014172,-0.065029,-0.037587,-0.036352,0.0081673,0.0050596,-0.0003832,-0.0060277
0.076963,0.062006,0.06494,0.0023899,-0.02172,-0.016568,0.0077833,0.017525
-0.0093437,0.1394,0.037763,0.049654,0.011663,0.016074,0.015392,-0.0052655
-0.054166,0.1071,0.029836,0.0040496,0.0065152,0.0091512,-0.0086658,-0.011951
0.028223,-0.13545,0.033227,0.029639,0.025037,0.025152,0.013908,0.012996
0.0029031,0.05188,0.0081813,-0.030019,-0.042471,-0.053058,-0.010464,-0.016488
-0.052764,-0.06706,-0.10886,-0.034638,0.022441,0.016811,0.0043045,-0.0067831
0.016625,-0.1042,-0.037812,0.007555,-0.02265,-0.0072955,-0.011983,0.010742
-0.00065496,0.04704,-0.068729,-0.0053973,0.0096258,0.015387,0.011069,-0.0030728
0.090097,0.12635,0.17272,0.059026,0.017697,-0.0087668,-0.0046114,0.022013
-0.086469,-0.12589,-0.063731,-0.05712,-0.013948,0.014087,-0.012119,-0.015611
0.039921,0.023812,0.042298,0.013403,0.00084555,0.0058792,0.027619,0.0090321
-0.069534,-0.080774,-0.087024,-0.033885,-0.0079496,-0.0099283,-0.018225,-0.013431
0.046604,0.10803,0.11897,0.043522,-0.00096326,-0.0020806,-0.0090685,0.0029598
-0.048532,-0.041324,-0.073818,-0.0040314,0.029893,-0.0018282,0.0081344,-0.0042609
0.012853,0.0038175,-0.040315,-0.020013,-0.032378,-0.024795,-0.0057988,-0.011625
0.05151,0.06496,0.063061,0.01135,-0.015837,-0.0084848,0.011473,0.0043115
-0.026159,0.017857,-0.029718,0.0040866,0.040365,0.047083,0.020703,0.012265
0.045287,0.01115,0.071428,0.0048556,-0.020263,-0.0065832,-0.017356,0.0043423
0.10131,-0.088297,0.092521,0.067992,0.051923,0.033546,0.022148,0.05856
-0.20248,-0.01558,-0.12305,-0.095971,-0.055994,-0.051407,-0.048362,-0.075188
0.00046233,-0.06068,-0.2003,0.012611,0.014969,0.0040467,-0.0023042,0.0014798
0.069021,0.080171,0.16588,0.010723,0.0067201,-0.0033329,0.011999,0.0073493
0.010823,0.1875,0.031,-6.3777e-05,0.01291,0.027947,0.018173,-0.0027464
-0.0099138,-0.22343,-0.025676,-0.02732,-0.083528,-0.074003,-0.022623,-0.020751
-0.03177,0.058385,0.0048755,0.023137,0.061486,0.065854,0.030438,0.023946
-0.014962,0.01008,-0.063775,-0.020023,-0.012498,-0.0055319,-0.0099952,-0.0089927
0.072594,-0.093895,0.12066,0.039063,0.023195,0.02443,0.012398,0.044709
-0.026115,0.091522,-0.011899,0.0055349,-0.010608,-0.023847,-0.019571,-0.025796
-0.044838,-0.057281,-0.024205,-0.018772,0.0036583,-0.0018185,0.0034177,-0.01743
0.040216,-0.054723,-0.018524,-0.010368,-0.027583,-0.026554,-0.01246,0.014947
0.049395,0.1234,0.019788,0.0071495,0.036235,0.019259,0.018668,0.016401
-0.041008,0.00067615,-0.027525,0.017821,-0.00046944,-0.012688,-0.012612,-0.021148
-0.020561,0.037563,-0.075486,-0.010034,-0.00531,0.018337,-0.004741,-0.011983
0.03198,0.022099,0.14084,0.016893,0.029037,0.026464,0.011056,0.020329
-0.032465,0.046734,-0.0038775,-0.042393,-0.038504,-0.035178,0.003563,-0.01798
-0.0035018,-0.28043,-0.072075,-0.00062778,-0.036382,-0.010406,-0.0037556,-0.0096334
-0.037757,0.09437,-0.055535,0.0014892,0.011826,0.014708,-0.010898,0.0064668
0.067711,0.05351,0.046388,0.026537,0.035859,0.0087249,0.013354,0.02269
0.016026,-0.074761,0.031302,0.0043919,-0.0031316,0.0026821,0.0064393,0.0079396
-0.0051744,0.077282,0.017052,-0.0022046,0.0045289,0.011999,0.0073413,0.001358
-0.019106,-0.013086,0.06658,-0.016467,-0.026791,-0.033796,-0.015269,-0.020502
-0.064592,0.037569,-0.11686,-0.0069989,0.0047011,-0.0019791,-0.014576,-0.010869
