-0.055196,0.046365,-0.015808,-0.0015112,0.0024406,0.1658,0.28841,-0.18619
0.06971,0.013224,0.047334,0.029694,0.026253,-0.18579,-0.039642,0.40502
-0.30665,-0.0044144,-0.014926,-0.017008,-0.036166,-0.11488,-0.22529,-0.12885
-0.053151,0.00072026,0.00023267,0.022152,0.041254,0.43977,0.67224,-0.97261
0.19632,-0.018715,-0.024616,-0.017226,-0.046621,-0.22661,-0.44534,0.56521
-0.06623,0.015212,0.011999,0.0051946,0.020269,-0.084424,-0.81598,-0.14371
0.042732,-0.03007,-0.0069876,-0.020107,-0.0080184,0.17764,0.80084,0.8187
-0.092537,-0.021012,0.012526,0.024123,0.048637,0.22339,0.17142,0.13486
-0.0014708,-0.050216,-0.022655,-0.041506,-0.098046,-0.63371,-0.4902,-0.49101
-0.0026127,-0.02258,-0.010297,-0.013381,-0.0095504,0.0070389,0.0085256,-0.082786
0.16319,0.094385,0.026832,0.046586,0.04955,0.2739,0.25974,-0.071613
-0.089332,-0.042282,-0.051363,-0.064167,-0.07616,-0.18099,-0.13646,-0.068645
0.31788,0.16905,0.067879,0.10008,0.12151,0.36454,0.20039,0.049566
-0.19395,-0.053661,0.025094,-0.0074093,-0.0061275,-0.08711,0.41456,0.33663
-0.33671,-0.19636,-0.062976,-0.035211,-0.03031,-0.066307,-1.0083,-0.94251
0.044937,0.1451,0.029487,-0.0071865,0.0006135,-0.15985,-0.13235,0.79738
0.067523,0.077848,0.043766,0.036997,0.10833,0.62202,0.85083,-0.2183
0.37139,0.1312,0.018031,0.010738,-0.0056813,-0.63049,0.38791,0.78964
-0.23872,-0.33667,-0.15779,-0.11781,-0.15505,-0.077668,-0.53672,-0.72096
-0.18443,-0.02121,0.023735,0.033745,-0.027567,0.018845,-0.43114,-0.23839
0.25327,-0.077746,0.070434,0.090224,0.11188,0.42946,0.68198,0.57685
-0.32398,0.19091,-0.017327,-0.049864,-0.10221,0.20707,-0.85846,-0.63852
0.4273,0.17779,0.097014,0.074709,0.090321,-0.23459,1.1254,0.69861
-0.24355,-0.20057,-0.17175,-0.13718,-0.19079,-0.87102,-0.89595,-0.76453
0.060828,0.073501,0.044252,0.010284,0.025379,0.11243,-0.089726,0.49635
-0.059321,-0.037799,0.08145,0.087864,0.25575,1.0777,0.62162,0.24213
0.050953,-0.026412,-0.059941,-0.083824,-0.030864,-0.43364,-0.76913,-0.35797
0.15632,-0.080611,0.034052,0.04218,0.023728,-0.47495,0.37914,-0.10177
0.068991,0.27453,0.08965,0.12977,0.14386,1.079,0.79989,0.44829
-0.3276,-0.18194,-0.12801,-0.1261,-0.2826,-0.89785,-0.52572,-0.73893
-0.024051,0.11796,0.0055888,0.00064729,-0.086445,0.29562,-0.18957,0.02308
-0.29148,-0.093409,-0.025528,0.0017431,0.0037587,-0.12407,0.13569,0.30127
0.44305,0.049824,0.036337,0.0018731,0.1042,0.26319,0.033023,0.29203
-0.0056358,-0.21048,-0.0039854,-0.053743,-0.034968,-0.43391,-0.49429,0.031611
-0.081447,0.024818,-0.013327,0.0069179,-0.0063968,-0.097436,0.15767,-0.26785
0.37981,0.20258,0.10254,0.12951,0.17604,0.56391,0.5377,0.11861
-0.31835,-0.19078,-0.14026,-0.123,-0.16539,-0.40741,-0.80534,0.24283
0.2125,0.19837,0.094572,0.085755,0.13512,0.55509,1.1075,0.3684
-0.30362,-0.11272,-0.059978,-0.056358,-0.13213,-0.70097,-0.50192,-0.76177
0.029477,0.017467,-0.033694,-0.056983,-0.068236,-0.00072627,-0.42597,-0.67399
-0.078621,0.057649,0.079296,0.060395,0.053034,0.024497,0.56792,0.57896
0.23136,0.069462,0.059633,0.076766,0.15248,0.56176,-0.53569,0.034544
-0.18787,-0.026668,-0.03093,-0.01611,0.087889,0.2649,0.64815,-0.22013
-0.068648,-0.14646,-0.099373,-0.093729,-0.19722,-0.48729,-0.54075,0.01996
0.13833,0.083618,0.0803,0.054391,-0.0013245,-0.24658,-0.10515,0.66148
0.11486,-0.15772,-0.06249,-0.025173,-0.020783,0.5369,0.22604,0.33457
-0.098766,0.11358,0.050484,0.034698,0.0097692,-0.71109,0.19211,-0.31894
0.013004,0.0072035,-0.056885,-0.054872,-0.049699,0.053908,-0.57058,-0.55153
-0.082544,-0.022982,-0.0088841,-0.020053,0.020884,0.081083,0.47865,0.077001
0.15101,-0.085436,0.046871,0.038103,0.027967,0.21475,0.55811,-0.048973
0.15568,0.2191,0.0017629,0.010729,0.004644,-0.074844,-0.90458,0.62732
-0.14212,0.00056596,0.043841,0.046656,0.10093,0.89389,0.59559,-0.39802
-0.11987,-0.029857,-0.037573,-0.017968,-0.018059,-0.6114,0.36102,-0.22004
-0.05208,-0.051801,0.02311,-0.011253,-0.039364,-0.73711,-0.71053,0.16266
0.061951,0.0050885,0.0068871,0.027606,0.07596,0.74538,-0.24227,-0.44172
-0.18164,0.047289,-0.039718,-0.081282,-0.18042,-0.73215,-0.67526,-0.099042
0.017669,-0.19812,0.00016403,0.029084,0.026695,0.3792,0.61363,0.4759
0.11716,-0.089737,-0.068967,-0.032042,0.0090371,0.19838,0.52129,0.51967
0.23003,0.13107,0.057555,0.047801,0.078401,0.9141,0.69314,0.047524
-0.039391,0.18366,0.028284,0.0029985,-0.03144,-1.0902,-0.78306,-0.37304
-0.12735,-0.064706,-0.031605,-0.049256,-0.070999,-0.65851,-0.81552,0.019151
0.20799,0.13539,0.057711,0.070674,0.11551,0.62259,0.73832,0.21168
-0.14445,-0.084485,-0.024069,0.026712,0.051084,0.63466,0.61169,-0.29094
-0.18724,-0.1088,-0.02711,-0.064183,-0.13968,-0.58483,-0.36233,-0.61456
0.0064729,-0.0096423,-0.0064422,-0.014788,0.027255,0.57957,0.17295,0.10995
0.12934,-0.030723,-0.0016081,-0.005061,-0.010811,-0.76437,-0.73626,0.058627
-0.039507,0.0066294,0.025913,0.019487,0.011728,-0.047577,-0.10275,0.43183
-0.024902,0.039541,0.091248,0.097845,0.14977,0.93246,0.4322,-0.055191
-0.15565,-0.041096,-0.12626,-0.13709,-0.23685,-1.0585,-0.69038,0.30281
0.53699,0.1249,0.029529,0.057134,0.11815,0.33959,1.091,0.051768
-0.11045,0.10125,-0.0036693,-0.022217,0.0046078,0.4795,-0.28549,-0.27315
-0.24529,-0.31372,-0.053479,-0.023095,-0.061029,-0.24694,-0.22524,-0.0060371
-0.03786,0.20191,0.052701,0.023725,-0.015588,-0.48721,-0.20545,0.17473
-0.1426,0.0091708,0.003175,0.032672,0.071007,0.27468,0.72392,-0.1268
0.17665,-0.11695,-0.029464,-0.027344,-0.035637,0.27267,-0.32586,-0.34305
0.061844,0.090485,0.025562,0.0076384,0.031185,-0.19763,-0.050975,0.17508
-0.1428,-0.10979,0.027731,0.0044317,0.036198,0.088384,0.10042,-0.29496
-0.0005508,0.071532,0.023626,0.024942,0.001675,0.19879,-0.16461,-0.035874
0.1115,-0.17863,-0.049879,-0.056545,-0.057952,-0.54017,-0.20931,0.068901
0.26829,0.17719,0.048585,0.071774,0.082947,0.57369,0.59611,0.43183
-0.049481,0.01922,-0.033375,-0.020327,-0.05261,0.056616,-0.65629,0.30667
0.014313,0.062821,-0.046412,-0.059679,-0.10499,-0.64363,-0.076236,-0.25141
-0.24531,0.12458,0.032573,0.03972,0.083024,0.3208,0.46967,0.23157
0.01575,0.021388,-0.030767,-0.057685,-0.10428,-0.74022,-0.62699,-0.35059
-0.11362,-0.26482,0.0061101,0.031533,0.053577,0.57685,0.88442,0.1064
-0.3391,0.10108,-0.0046791,-0.0044295,0.058137,0.41648,0.19132,-0.11218
0.1428,-0.27048,0.046828,0.038174,0.011966,-0.1653,-0.18366,-0.45286
0.088756,-0.19698,-0.057667,-0.019943,-0.014445,-0.18595,-0.78863,0.039386
0.47266,0.12244,0.057033,0.040076,0.04848,0.20109,0.00035257,0.22853
0.21101,0.46554,0.14084,0.085241,0.089848,0.43365,0.7846,0.37849
-0.30644,-0.015496,-0.18157,-0.15826,-0.14234,-0.84058,-0.55213,-0.56738
-0.10712,0.17395,0.011274,0.020088,-0.0016669,0.62041,0.2737,0.2385
0.037038,-0.090225,0.023709,0.0027498,-0.013224,-0.38445,-5.3528e-05,0.32778
-0.20159,-0.41796,-0.074089,-0.030732,-0.060719,-0.11533,-0.21292,-0.52204
-0.033081,-0.060794,0.03833,0.05254,0.019916,-0.055104,0.014475,0.73612
0.11525,0.057388,0.033252,0.002855,0.034255,-0.28466,0.099998,0.14662
0.0058668,0.294,0.020645,0.0081254,0.061977,0.54721,0.15553,-0.34072
0.028767,-0.079127,-0.045715,-0.048401,-0.082522,-0.31673,-0.32613,-0.57937
0.11538,0.030746,0.030054,0.060196,0.094814,0.78739,0.33302,0.14317
-0.2776,-0.087725,-0.048561,-0.025255,-0.068566,-0.22853,-0.12107,-0.010529
0.026321,0.010967,0.038839,-0.023492,-0.032696,-0.54122,-0.59295,-0.19303
0.13351,-0.031885,0.049844,0.057486,0.10886,0.74015,0.79269,0.43193
0.0091278,-0.090328,-0.047279,-0.04829,-0.04288,-0.613,0.2467,-0.093255
0.07806,0.078828,-0.011004,-0.0053311,-0.020254,-0.033803,-0.05825,0.048224
0.12309,0.085777,0.032958,0.05308,0.050295,-0.12,-0.53323,0.1175
-0.097882,0.095038,-0.025409,-0.0062932,0.02665,0.67924,0.11709,-0.13478
-0.1953,-0.057417,-0.022501,-0.074391,-0.16278,-0.89716,-0.49564,0.10075
-0.022456,-0.11411,0.0023931,0.03611,0.074904,0.56235,0.57981,0.23091
-0.034415,-0.005284,-0.03665,-0.042017,-0.065317,0.0091641,-0.47616,-0.67725
0.16553,0.018478,0.03245,0.019426,0.033923,-0.16712,0.064651,0.17475
0.15418,0.089525,0.11627,0.13465,0.13883,0.67373,0.49204,0.63844
-0.26454,-0.09709,-0.11295,-0.11804,-0.14041,-0.90549,-0.15685,-0.50518
-0.0049727,-0.10393,0.056094,0.027229,0.079934,-0.0053355,0.21386,0.48705
0.15176,0.17841,-0.032493,0.031659,0.04291,0.75106,0.28984,-0.56127
0.0029374,-5.1661e-05,-0.034647,-0.065339,-0.055401,-0.21962,-0.28558,-0.27673
-0.18532,-0.10043,0.018683,-0.021167,-0.058118,-0.44535,-0.3241,0.28731
0.079623,0.16591,0.018392,0.0083636,-0.011643,-0.0007795,-0.02821,-0.037507
0.1106,-0.13928,-0.0040582,0.0080206,-0.0016208,0.070438,-0.16156,-0.027943
0.095229,0.029891,-0.017303,0.040556,0.050132,0.34086,0.44434,0.33559
-0.22434,-0.085502,-0.0057509,0.0044299,0.041829,-0.05603,-0.49237,-0.601
0.057985,0.13067,0.030385,0.008768,-0.027071,-0.18413,0.51454,0.75556
-0.09706,0.013521,-0.018676,-0.017254,-0.016792,-0.054831,-0.64093,0.081846
0.12283,0.047059,0.088689,0.035044,0.063775,0.4357,0.88876,0.18533
-0.032548,-0.15131,-0.10131,-0.085104,-0.1225,-0.42253,-0.9402,-0.40047
-0.055572,-0.080661,-0.026848,-0.0033946,0.0091685,0.050761,0.57682,-0.61742
-0.04805,0.041837,0.03808,0.037471,0.075035,-0.049306,0.15042,0.29832
0.29445,0.21051,0.077488,0.045058,0.074524,0.62437,0.41938,-0.065651
0.018626,-0.056558,-0.025891,-0.011827,-0.09402,-0.32029,-0.45469,0.15503
-0.22709,-0.069382,-0.084321,-0.054705,-0.00045795,-0.17013,-0.059702,-0.23531
-0.051713,-0.060137,0.0042872,0.010771,-0.04224,-0.20824,-0.31789,0.15446
0.0064709,-0.14439,0.0063061,-0.0021432,-0.022643,-0.45677,-0.36813,0.23024
0.089253,0.2099,0.031947,0.032345,0.059967,0.48576,0.48085,0.0048623
-0.044198,0.19003,0.0038598,-0.025689,-0.027204,0.21602,-0.31307,0.32359
-0.18171,-0.17393,-0.014891,-0.027318,-0.025101,-0.24957,-0.050228,-0.34707
0.09153,-0.0011824,0.030644,0.058898,0.082562,0.35933,0.8031,-0.39545
0.33801,0.018208,0.023203,0.0062578,0.030107,0.019186,-0.011394,0.030092
-0.06815,0.0065354,0.0014901,0.025261,0.012097,0.27196,0.40113,0.8899
0.012011,-0.10118,-0.042842,-0.048797,-0.011814,-0.29729,-0.34034,-0.22201
-0.15796,-0.041295,-0.016617,-0.013513,-0.066599,-0.066427,-0.76618,-0.63902
-0.1192,0.028644,-0.021893,-0.017988,-0.03655,-0.20224,0.015923,0.035308
-0.037411,0.045482,-0.0043129,-0.01584,-0.047796,-0.24437,0.080275,0.013491
0.11775,0.032558,0.051594,0.086425,0.12562,0.48987,0.40277,0.22996
-0.013234,0.021428,-0.018242,-0.039325,-0.031937,-0.32047,-0.48284,-0.19911
0.14831,0.20798,0.028441,-0.0022512,0.034726,0.20293,0.6394,-0.094528
-0.068544,-0.27417,-0.0035702,-0.012914,-0.10319,-0.37902,-0.41169,0.44833
-0.053318,-0.056849,-0.012627,-0.00054028,0.039732,0.21484,0.081117,-0.019997
-0.039409,-0.013879,0.0013366,0.0119,0.050464,0.31233,-0.056886,-0.24915
-0.11206,-0.042325,-0.016293,-0.0064388,-0.023317,0.0053714,-0.24478,0.11722
0.2525,0.29681,0.036165,0.038482,0.045438,-0.030675,0.65825,0.44065
0.11685,0.0050918,-0.012963,-0.017245,-0.040018,-0.084177,0.65,-0.36394
-0.003423,-0.056557,-0.030568,-0.0095309,0.056075,0.4837,-1.0469,0.22809
-0.1707,-0.097585,0.014985,-0.0087624,-0.088547,-0.99466,-0.25752,-0.4754
-0.1501,-0.14791,-0.01652,0.00054505,0.0021947,0.15604,-0.22043,-0.42129
-0.08909,0.027879,0.00027134,-0.013036,-0.00030453,0.42356,0.60015,0.49389
0.029258,0.055283,0.010862,0.0049832,0.0050902,-0.34435,0.13211,-0.37336
0.23753,0.074635,-0.00043721,-0.00030638,0.010196,0.31038,-0.015665,0.74157
-0.12741,-0.063809,0.012874,0.0099117,-0.024394,0.03444,-0.59268,-0.28697
0.2549,0.16882,0.018869,0.019744,0.065031,-0.032223,0.48016,-0.02323
-0.014791,0.050475,0.040088,0.028917,0.035911,-0.08452,0.20394,0.28666
-0.13347,-0.18044,-0.065062,-0.064367,-0.096489,-0.30858,-0.49073,-0.17649
0.021631,0.24585,0.038497,0.044431,0.081613,0.44626,0.63139,-0.0079108
-0.10646,-0.32982,-0.071673,-0.035329,-0.054891,-0.082744,-0.35844,-0.25022
0.0038346,-0.026198,0.01053,-0.014449,-0.0058596,0.21703,-0.17752,0.38876
-0.031396,-0.030702,0.004174,0.0057889,-0.01305,-0.43237,0.39518,-0.24429
-0.0091948,0.12715,-0.019701,-0.028942,-0.036711,-0.3093,-0.29338,-0.52861
0.08674,0.091038,0.057096,0.061415,0.049012,0.22115,0.042016,0.57186
0.078009,0.0054702,-0.029959,-0.0040891,0.010628,0.47234,-0.57884,0.4228
-0.11193,-0.14895,0.032642,0.0090976,0.0051506,-0.0094641,0.36312,-0.18667
0.080969,0.11574,0.042543,0.054148,0.064352,0.20347,0.11184,-0.65363
-0.052928,-0.041545,-0.077948,-0.087735,-0.08499,-0.69653,0.15873,0.016403
0.026338,-0.0022113,-0.00062717,0.0052458,0.041412,0.34189,0.39079,0.52932
0.01456,0.030663,0.016447,-0.034145,-0.064599,-0.31709,0.13,-0.12003
0.10717,0.024625,-0.019411,0.020672,0.026155,0.48854,-0.27968,0.023548
-0.24284,0.024386,0.031774,0.021337,0.0084026,-0.453,-0.8458,0.21124
0.011082,-0.074316,-0.0025716,-0.00080196,0.014378,0.054016,0.43347,-0.33021
-0.05334,-0.0086208,0.03316,0.032445,0.027949,0.28439,0.34394,-0.0076621
0.23526,-0.054345,-0.06465,-0.043,-0.076278,-0.33036,-0.8019,0.14645
-0.014372,0.15404,0.016221,0.01493,0.037372,0.31309,0.47547,-0.27554
-0.021687,-0.12641,-0.0055176,0.026328,-0.014055,0.044041,0.13422,0.23282
0.025056,0.010711,0.010943,-0.024715,0.0037779,-0.20746,-0.069738,0.13912
-0.14047,-0.058708,-0.03562,-0.036942,0.0049617,-0.027945,0.25191,-0.30757
-0.073484,0.0495,0.034886,0.028441,-0.010441,-0.1453,-0.27959,0.0327
0.16322,0.13367,0.019707,0.022794,0.074839,0.51687,0.72845,0.096879
0.10086,-0.054947,-0.0027788,-0.0071133,-0.01253,0.23816,-0.84909,0.2829
-0.23691,-0.062487,-0.0090506,-0.03004,-0.069276,-0.66221,-0.084577,-0.54259
0.1034,-0.021621,-0.0070094,-0.0068486,-0.01706,-0.32503,-0.23161,0.23702
-0.018394,0.035918,0.010931,0.023531,0.019399,0.22714,0.55679,0.27739
-0.031538,0.023229,-0.01022,0.014387,0.016992,0.2695,-0.13066,-0.32818
0.14248,0.048474,-0.00045334,0.004946,-0.0083358,-0.18014,0.53719,0.029495
0.0039905,0.063619,-0.0068874,-0.0046345,0.0296,0.45062,0.017512,0.053807
-0.095085,-0.080578,0.0094039,0.0014175,-0.001895,-0.055434,-0.51973,-0.05129
0.072245,-0.18901,-0.021907,-0.031442,-0.0091135,-0.26012,0.19181,0.23128
-0.15751,0.051329,0.0086509,-0.009317,-0.015693,-0.093291,-0.57076,-0.14336
-0.0024233,0.00094796,0.0074994,0.013241,-0.021952,-0.29804,-0.31669,-0.23531
0.05385,0.05984,0.045159,0.02853,0.073295,0.46016,0.8684,0.20003
0.035277,0.12028,-0.042232,-0.010272,-0.003751,0.17964,0.12573,0.16473
-0.073609,0.0039742,-0.012321,0.0061855,-0.050242,0.022782,-0.72512,-0.59004
0.17211,0.00091337,-0.0056227,-0.023777,-0.050696,-0.69934,0.33579,0.42773
-0.001965,-0.11518,0.04041,0.016829,0.057399,0.64514,0.59054,-0.088451
-0.12075,-0.1806,-0.046113,-0.020695,-0.0070579,-0.29567,0.083358,0.092377
0.095285,0.20996,0.062861,0.058682,0.068677,0.11924,-0.12851,0.28589
0.019513,0.0082573,-0.046846,-0.042176,-0.051058,-0.10139,-0.2468,0.11206
-0.23212,0.0642,-0.023806,-0.034403,-0.061317,-0.10465,-0.8479,-0.3162
0.12106,-0.069209,0.038092,0.03503,0.061529,0.1968,0.49337,-0.10282
-0.0067357,0.067505,0.0059259,0.0020847,0.0050844,0.046369,-0.28791,-0.15359
0.010347,-0.065689,0.012445,0.015342,0.0037402,0.12458,0.16703,-0.22275
0.033007,-0.10968,-0.028278,-0.02651,-0.012872,-0.27917,0.56177,0.28195
-0.023173,0.092333,-0.014589,0.0096697,0.017656,0.061551,-0.0016321,-0.053421
-0.078661,-0.05209,0.014631,-0.008567,-0.014131,-0.095915,-0.10142,0.31816
0.21915,0.091751,0.028383,0.020697,-0.0067071,0.22435,0.23017,-0.37038
-0.16045,-0.059943,-0.058985,-0.050683,-0.061608,-0.23612,-0.67238,0.048379
0.079391,0.0026599,0.049671,0.050914,0.055619,0.25652,0.49439,0.41778
-0.053981,-0.047031,-0.036075,-0.010412,0.016947,-0.19647,-0.019567,0.2728
0.0011821,0.065192,0.019791,0.007401,0.025575,0.18619,-0.40005,-0.33882
0.03312,0.11262,0.0062543,-0.013113,-0.043477,-0.15767,-0.080854,-0.40973
0.041132,0.0004682,0.0012038,-0.0020378,0.012865,-0.039957,0.29492,0.52881
-0.18617,-0.13238,0.004275,0.0089256,0.0069923,-0.022378,-0.16513,-0.43527
0.015121,-0.038084,0.015036,0.011527,0.0012674,0.24739,0.044492,-0.18746
0.082561,0.062431,-0.02162,-0.018019,-0.035696,-0.31602,-0.24447,-0.062937
0.071008,0.0031975,-0.004451,0.013841,-0.0024442,0.1235,0.67187,0.18418
-0.035032,-0.045263,-0.027369,-0.025712,0.015015,0.28441,0.11131,0.43442
-0.048058,0.057006,0.019027,0.0041341,0.016646,-0.35748,-0.37694,-0.27498
0.10211,-0.033702,0.0021271,0.0099731,0.033685,0.30611,0.43411,0.29543
-0.092525,-0.074508,-0.0074378,-0.023384,-0.027619,-0.11667,-0.61173,-0.36675
0.094521,0.15455,0.014133,0.013875,-0.042266,-0.36915,0.11968,0.31752
-0.039671,-0.032479,0.020294,0.012724,0.013178,0.32124,-0.45375,-0.19215
0.01333,0.053664,0.0034614,0.02023,0.029326,0.039909,0.51881,0.023091
-0.21416,-0.030561,-0.020639,-0.010488,-0.025105,-0.1509,-0.13997,-0.30641
0.15426,-0.15069,-0.020793,-0.0093085,0.013888,0.13938,0.05893,0.37765
-0.059604,0.014952,-0.004961,-3.3278e-07,-0.010038,-0.050226,-0.2226,-0.053365
-0.10454,-0.063989,0.011011,-0.029834,0.012378,-0.06354,0.12226,-0.21137
0.27786,0.23775,0.034689,0.033625,0.018531,0.036759,0.21432,0.19938
0.095153,-0.01003,0.011164,0.010409,-0.0072634,0.023902,0.1643,-0.055158
-0.12261,-0.08201,-0.012823,-0.0058615,0.0053439,0.28061,0.22121,0.050105
-0.10399,0.058987,-0.045097,-0.02295,-0.03723,-0.23975,-0.086418,-0.1931
-0.03109,-0.073641,-0.0073921,-0.0172,-0.017489,-0.020812,-0.6682,0.14813
0.015467,0.017898,0.014635,0.0039278,0.0024957,-0.35806,-0.073852,0.045877
0.04921,0.06617,0.021356,0.033032,0.02321,0.094235,0.18741,-0.075074
0.099995,-0.0002432,0.013159,0.015821,0.037304,0.42436,0.17075,0.31087
-0.17641,-0.22063,-0.017452,-0.016148,0.021696,0.087827,0.33928,-0.39674
0.095471,0.077516,-0.0078084,-0.015836,-0.054683,-0.085161,-0.66316,-0.049583
-0.12207,-0.041989,-0.020444,0.0011373,-0.027798,-0.39788,0.28399,-0.0083836
0.055748,0.13346,0.030327,0.01118,0.0083562,0.040795,-0.19956,0.12277
0.092176,0.011756,0.02687,-0.0094248,-0.0013535,-0.043143,0.16054,0.36384
-0.057393,0.086427,-0.0079485,0.0014633,0.044029,0.16107,0.1913,-0.13297
0.069899,0.02237,-0.0044187,0.027835,0.026616,0.41622,0.3585,-0.19207
-0.071498,-0.13321,-0.025557,-0.032227,-0.023049,-0.12509,-0.14667,-0.12948
0.026834,-0.052247,-0.0013835,0.00069187,-0.027447,-0.31057,-0.1721,0.15402
-0.049314,-0.063169,0.021149,0.024871,0.020833,0.22333,0.15429,-0.22517
-0.082004,-0.049167,-0.05934,-0.053473,-0.058023,-0.38541,-1.0589,0.22615
0.23212,0.27845,0.038801,0.046993,0.025214,0.14328,0.47124,0.32316
-0.022637,-0.072831,-0.004216,-0.032942,-0.010284,-0.010399,-0.07187,-0.50818
-0.066719,0.0061047,0.015268,0.019428,0.0079432,0.12434,0.027277,0.010566
-0.16727,-0.00053893,0.011757,0.0089937,0.033647,0.081958,0.36651,0.033237
0.12772,-0.10843,0.008967,0.014054,0.012703,-0.11031,0.51851,0.21345
-0.11208,-0.044,0.014805,-0.0043205,0.01584,0.12165,0.28801,0.2197
0.28516,0.1774,-0.048906,-0.022584,-0.050445,-0.29701,-0.9442,-0.18699
-0.086363,-0.053201,0.0051947,-0.0093833,-0.0063717,0.1126,-0.16577,-0.36426
-0.14762,-0.071332,-0.01054,0.0041547,-0.00038855,0.10942,0.24505,0.055114
0.047925,0.052998,0.020981,0.025998,0.022129,0.09953,0.20014,0.21008
0.056374,-0.070776,-0.0018239,-0.0061733,-0.0092019,-0.11368,-0.62123,-0.12928
-0.10525,0.0805,-0.024214,-0.021861,-0.0084948,-0.0088875,0.063503,0.12595
0.040803,-0.040723,0.024208,0.0025197,0.0085924,0.036371,0.4912,0.1496
0.034371,0.072346,-0.012747,-0.003275,0.010781,0.10557,-0.23391,-0.095779
0.0241,0.035655,0.0055267,0.0075744,-0.025419,-0.36582,0.33537,0.35283
0.017376,-0.027028,0.0085785,0.011425,0.0014526,0.081763,-0.0037902,-0.38388
-0.03371,-0.03855,0.0039531,-0.0077004,0.020909,-0.028991,-0.28421,-0.51899
0.009969,-0.038447,0.022534,0.04348,0.017074,0.15325,0.084666,0.54943
-0.0095842,-0.073436,-0.014203,-0.023042,-0.018177,0.14411,0.23938,-0.011778
-0.070667,0.036953,-0.012862,-0.020227,-0.0070568,-0.095378,-0.15222,-0.52622
-0.0028749,0.012723,-0.028347,-0.01871,-0.012381,0.091084,-0.17121,0.30036
0.16937,0.11314,0.033062,0.02827,0.02811,0.039564,0.15007,0.29301
-0.14023,-0.12922,-0.039398,-0.043235,-0.026333,-0.30426,-0.5154,0.095616
0.11558,0.10692,0.020249,0.024907,0.0039954,-0.017746,0.10899,0.014073
-0.17935,-0.037403,0.0093292,0.014403,0.025509,0.15813,0.37944,-0.38995
0.17198,0.086126,0.022055,0.019498,-0.00056446,-0.071954,0.48077,0.45152
-0.10181,-0.093362,-0.027127,-0.037486,-0.050413,-0.034553,-0.56669,0.027755
-0.06882,0.064003,0.010463,0.023451,0.016997,-0.064339,-0.29859,-0.55441
0.0073217,-0.13779,-0.0057321,-0.024114,-0.0010835,0.12056,0.19294,-0.077529
0.17495,0.089887,0.025753,0.046332,0.051884,0.49655,0.85283,0.099286
-0.057478,-0.07334,-0.0203,-0.038852,-0.027071,-0.42163,-0.9462,0.24337
-0.010567,0.029065,0.0042696,0.016899,0.012062,0.13817,0.073356,-0.16616
-0.005863,-0.055541,-0.010178,-0.013321,-0.010531,-0.12999,0.16463,0.27167
0.0015372,0.14986,-0.016964,-0.020445,-0.048201,-0.48477,-0.11483,-0.30078
0.017054,-0.081108,0.015063,0.050008,0.039399,0.2767,0.33196,0.48397
-0.11016,-0.029926,-0.007842,-0.020785,-0.013643,0.092238,-0.52988,-0.50039
0.14913,0.099559,0.015963,-0.013992,0.034604,0.14991,0.39125,0.29037
-0.073522,-0.021885,-0.0071546,0.00029197,-0.0035539,0.059587,0.33726,0.12636
0.010687,0.073231,0.0088519,-0.0010567,-0.026657,-0.084857,-0.3463,-0.37061
0.097887,-0.077126,0.0093683,0.021375,0.012173,0.067848,-0.093001,0.602
-0.028884,0.057689,0.0022287,-0.010221,0.0036739,0.032731,-0.0065885,-0.45628
-0.34375,-0.30345,-0.028217,-0.025323,-0.020694,-0.27679,-0.54138,-0.57531
0.13242,0.27009,0.027349,0.030811,0.033089,0.11541,0.36379,0.15403
0.018959,-0.19668,-0.042084,-0.0060144,-0.053452,-0.22826,-0.036081,0.29774
0.1138,0.11071,-0.01003,0.0045154,-0.0066697,0.043987,0.31604,-0.0006581
0.10408,-0.040273,0.053122,0.0072704,0.032897,0.15128,0.2473,0.32258
0.14419,0.18767,0.022294,0.02519,0.080795,0.51575,0.43309,-0.24144
-0.15955,-0.079889,-0.063531,-0.067183,-0.074157,-0.58918,-0.72702,0.53053
-0.091858,-0.030789,0.022144,0.034518,0.0051855,-0.015388,-0.13124,0.14165
0.086414,0.13079,0.029281,0.0020578,0.021563,0.31474,0.1668,-0.46741
