-0.025488,0.090538,0.0014688,-0.016352,-0.028743,-0.031095,-0.065944,-0.12894
0.075536,-0.094398,-0.011888,-0.0093047,0.018502,0.031286,0.027451,0.18216
-0.1016,-0.15037,-0.062035,-0.025283,-0.028544,-0.0085207,-0.020627,-0.33132
0.17825,0.50414,0.1328,0.068706,0.072396,0.044991,0.024394,-0.028404
-0.1238,-0.23894,-0.044388,0.014919,-0.00669,-0.011072,-0.016805,0.053193
-0.00039347,0.14275,0.03899,-0.0070273,-0.0079049,-0.0046272,-0.0031563,0.04049
0.024084,-0.10422,-0.023916,-0.012963,-0.017144,-0.00585,0.026681,-0.048758
-0.012637,0.030512,-0.030878,-0.026609,0.0046655,0.00094421,0.0026671,0.27934
0.059864,0.017208,0.032688,0.014246,0.018474,0.023568,0.057705,0.14287
0.013687,-0.0098572,0.032954,6.4306e-06,-0.014722,-0.039564,-0.081728,-0.18471
-0.11309,-0.24361,-0.10122,-0.022556,-0.008851,0.014672,0.021653,-0.063471
0.0071681,0.031013,-0.0032024,0.016901,-0.0027541,0.014448,0.0082204,-0.064732
0.038619,0.29691,0.037752,0.0013291,-0.0039663,-0.016693,-0.012872,-0.025358
-0.01815,0.03937,0.060799,0.0090485,-0.020024,-0.031728,-0.010507,-0.055328
-0.068469,-0.45725,-0.097796,-0.03788,-0.0038555,0.00073178,-0.05503,-0.1471
0.10743,0.28837,0.054606,0.048159,0.068014,0.057329,0.056705,-0.003925
0.026041,0.00069788,0.018488,0.0015439,-0.015523,-0.018226,0.0044001,0.31134
-0.11681,-0.18171,-0.018195,-0.021588,-0.0048388,0.00044678,0.0067427,0.18851
0.12428,0.13669,0.030894,0.0098093,0.013606,0.011461,0.047927,0.18095
0.045852,0.10766,0.048933,0.025188,-0.0076263,-0.0090335,-0.028584,-0.38477
-0.10269,0.13087,-0.11216,-0.022523,-0.0065087,0.0088494,-0.0043727,-0.24435
0.053023,-0.45874,-0.053565,-0.031852,-0.045811,-0.028988,-0.020338,0.39854
-0.096831,0.26549,0.014147,-0.0027425,-0.0005279,-0.013362,-0.04535,-0.54136
-0.0054622,-0.060238,0.067854,0.018134,0.035878,0.040112,0.084767,0.28944
0.038409,0.43403,0.053033,-0.00015704,-0.022022,-0.040225,-0.067132,-0.012404
0.027662,-0.022016,0.00087918,0.028685,0.045143,0.050694,0.022948,-0.1155
-0.091533,-0.77557,-0.081113,-0.027819,-0.035465,-0.04604,-0.0037185,0.53772
0.01753,0.1015,-0.013805,0.0024397,0.010052,0.013781,-0.01371,-0.35565
0.097463,0.21912,0.13179,0.025805,0.0022329,-0.011678,0.024648,-0.22513
0.030982,0.44687,-0.066942,-0.020286,0.011349,0.018376,-0.0057038,0.23237
-0.041955,-0.73507,-0.10282,-0.018844,-0.0097702,0.0023247,0.051262,0.41987
-0.0053034,0.34132,0.054979,0.022025,0.0008977,0.010211,-0.039381,-0.58883
0.014558,-0.15654,0.070359,0.023866,0.042791,0.04943,0.034082,0.1312
-0.038359,0.31251,-0.040916,-0.021435,-0.064303,-0.067976,-0.072965,-0.096274
-0.032137,0.084912,-0.028447,-0.020344,-0.0082678,0.0091895,0.021527,0.38969
0.02518,0.019061,-0.024457,-0.019829,-0.00020939,-0.031736,0.020187,-0.27943
0.095098,0.324,0.088931,0.042655,0.045882,0.028112,0.008846,-0.0011782
-0.17261,-0.96325,-0.039154,-0.0046022,-0.01033,-0.0061902,-0.01997,-0.092812
0.083358,0.29644,0.068452,0.010531,-0.012157,-0.016854,0.0048076,0.044361
-0.017645,-0.10831,-0.048747,0.010221,-0.021598,-0.011006,-0.025132,0.10398
-0.10642,-0.075412,-0.16396,-0.067755,0.00087401,0.027595,-0.038279,-0.29812
0.084065,0.11495,0.097778,0.026811,0.047785,0.044668,0.06804,0.33602
0.10117,0.38556,0.087747,0.0049519,-0.013522,-0.030003,-0.025686,-0.044033
0.0067539,0.017705,-0.01491,0.0072513,0.012213,0.022088,0.032411,0.19657
0.072595,-0.18508,0.070347,0.049153,-0.0315,-0.033982,0.0076802,-0.16914
-0.086542,0.18114,-0.063496,-0.018065,0.011218,0.011981,-0.0069772,-0.30017
-0.05148,-0.16787,-0.073345,-0.022854,-0.00068696,-0.012706,0.034035,0.51757
0.019077,-0.024095,0.024764,-0.0045679,-0.0051244,0.00060438,-0.0035801,-0.1906
-0.032872,0.11042,0.0041772,-0.0024581,0.013203,0.01231,-0.058734,-0.38418
-0.16124,-0.48369,-0.080203,-0.04002,-0.031852,-0.032557,-0.030945,0.18069
0.1342,0.077396,0.037652,0.01562,0.0080586,0.014435,0.016727,0.31912
-0.0049239,0.28045,0.076918,0.0083315,0.00013666,0.0050762,0.029633,-0.36334
0.0088216,-0.14471,-0.040261,0.0085309,0.014773,-0.0055525,-0.022874,0.42811
0.15355,0.14123,0.108,0.0553,0.020822,0.022077,0.016474,-0.25972
-0.030356,0.53176,-0.048882,-0.015515,-0.0050462,-0.0053321,0.00046807,0.0047666
-0.057608,-0.55703,-0.019156,-0.0087817,-0.015851,-0.0014631,-0.0071853,-0.04806
0.048863,0.0087216,0.056112,0.020619,0.01196,0.010518,0.03356,0.0089781
-0.14823,-0.06758,-0.1827,-0.091492,-0.038652,-0.0161,-0.025118,-0.16167
0.038715,-0.036116,0.04574,0.022118,0.020013,-0.0031095,-0.003344,0.063468
-0.0073928,0.063674,0.02313,0.017934,0.016331,0.010457,0.059603,0.27586
-0.01292,0.036087,0.0080149,-0.0020681,-0.018158,-0.014449,-0.03992,-0.16117
0.12396,0.052642,0.048127,0.025123,-0.0050409,0.0003127,0.0021028,0.051071
-0.096508,0.050473,-0.035442,-0.02498,0.0090536,7.5076e-05,-0.04937,0.021395
0.013323,-0.0021449,0.054715,0.0199,0.016472,0.00047322,0.0082591,-0.167
0.00026711,-0.26216,-0.032782,-0.019711,-0.021809,0.0014861,0.0028115,0.13772
0.074958,0.17566,0.030026,0.028044,0.034739,0.03429,0.043594,0.3678
-0.09126,-0.041695,-0.038556,-0.0089527,-0.048484,-0.041878,-0.041139,-0.41162
0.10249,-0.017694,0.010892,0.017322,0.025072,0.0071599,0.030109,-0.15004
-0.055471,-0.0046364,-0.0097026,-0.010816,0.012841,0.032732,-0.00019545,0.17349
-0.081433,0.1356,-0.053903,-0.031352,-0.015249,-0.027902,-0.0068291,-0.28535
0.047533,0.13501,0.065544,0.02565,0.0029681,-0.0030745,-0.0053014,0.40446
-0.051687,-0.0081468,-0.06548,-0.050969,-0.026503,-0.017928,-0.011258,-0.30133
0.073936,-0.11479,0.029658,0.027804,0.029021,0.029039,0.037651,0.092693
0.057288,-0.27776,0.030751,0.012061,-0.0023349,-0.0027703,-0.022888,0.3395
-0.062373,0.060239,0.015977,0.011355,-0.0032727,-0.0038811,0.0021359,-0.32451
0.043366,-0.049879,0.039981,0.018074,0.018596,0.0024213,0.0030553,0.038775
-0.062634,-0.0016851,-0.061432,-0.02229,-0.038039,-0.007126,-0.043797,-0.12619
-0.0049411,0.33464,0.0084431,0.0075809,-0.0010406,-0.01673,0.033332,0.45195
-0.025252,-0.16202,-0.063018,-0.032858,-0.0029883,0.012812,0.015704,-0.22173
0.11914,0.080829,0.060112,0.028316,0.05785,0.050345,0.036284,-0.0014532
-0.079099,0.0086154,0.0029667,-0.011995,-0.0059329,-0.029077,-0.037455,-0.10777
-0.041454,-0.013349,-0.054495,-0.0053283,-0.022442,-0.022305,-0.048872,0.083971
0.013528,0.10526,0.020888,0.0092803,0.00048291,0.0081725,0.0024793,-0.23731
0.046755,-0.077262,0.034151,-0.0072055,-0.030954,-0.015755,0.015468,0.12672
0.018882,-0.17449,0.0089937,0.023362,-0.0074142,-0.015938,0.021687,-0.030805
0.023149,-0.05706,-0.015395,-0.0083747,0.032017,0.046711,0.029134,-0.22127
-0.027026,-0.024073,-0.0077946,-0.0086537,0.017013,0.015955,0.0065497,0.26186
-0.04636,0.064173,0.031639,0.0069141,-0.0055753,-0.014472,-0.038446,0.31877
-0.058819,0.036005,-0.053561,-0.024151,-0.027985,-0.036803,0.0031932,-0.19158
0.14626,0.32206,0.056719,0.030993,0.027828,0.01138,-0.0017286,0.18916
-0.048296,-0.31079,-0.036063,-0.015122,-0.0023039,0.012791,0.0011149,-0.04314
-0.056199,0.1934,-0.042806,-0.021847,-0.024745,-0.017062,-0.051053,-0.43243
0.084056,-0.15652,0.091364,0.049882,0.038531,0.046702,0.075982,0.3683
-0.12685,-0.04727,-0.070755,-0.026534,-0.023482,-0.038214,-0.031895,-0.43343
-0.00080162,-0.0016684,-0.013215,-0.0089832,-0.023306,0.0015352,0.00034963,-0.16752
0.095399,0.1761,0.029857,0.016475,1.6804e-05,-0.013794,-0.0068969,0.37691
0.036767,-0.17756,0.035086,0.010627,0.038731,0.025159,0.024573,0.34971
-0.00523,0.078464,-0.044603,-0.026695,-0.0086514,0.0012464,0.016698,-0.11397
0.046755,0.053995,0.063736,0.021536,0.029828,0.023934,-0.0070438,0.020006
-0.11297,-0.19591,-0.078144,-0.047942,-0.064496,-0.070699,-0.070065,-0.22973
-0.047901,-0.061705,0.05229,0.0304,0.044399,0.053459,0.05422,-0.21188
0.069263,0.32372,0.0088145,0.022141,-0.02621,-0.03309,-0.0091506,0.26359
0.0037093,0.061563,0.0016176,0.013234,-0.0027918,0.0057606,0.013315,0.026747
-0.05705,-0.13006,-0.055666,-0.027486,-0.0024533,0.021686,-0.0033138,-0.26502
0.074948,-0.1503,0.024469,0.0017,0.021737,-0.0087236,-0.0042789,0.28683
0.0021072,0.0080085,-0.015308,-0.016166,0.022916,0.008207,-0.036398,0.017173
-0.016666,-0.014864,-0.01784,-0.010496,-0.022395,0.0098062,0.040982,0.16602
-0.03486,0.062367,-0.0053638,-0.004439,-0.043985,-0.035418,-0.014341,-0.53531
0.026792,0.16989,0.070303,0.041307,0.036127,0.0050761,0.024139,0.47212
0.036414,0.058654,0.022861,0.0096977,0.022455,0.029479,0.0078926,-0.14333
-0.083514,-0.30908,-0.09991,-0.02895,-0.02268,-0.017077,-0.016305,-0.087746
0.034376,0.13076,0.014958,0.0033504,0.025562,0.0294,-0.0016588,0.058788
0.014795,-0.22183,0.062752,0.020401,-0.036061,-0.049792,-0.041953,-0.25905
-0.033618,0.12661,-0.0039084,-0.0093735,0.0033297,-0.0044895,0.0034575,0.38921
0.036487,-0.018629,-0.045276,-0.0238,-0.020334,0.0014854,0.025262,-0.10365
0.10664,0.27178,0.078182,0.015927,0.01799,0.015273,0.015735,-0.11713
-0.043145,-0.22238,-0.056511,0.00811,0.024614,0.021477,0.021833,0.28259
-0.077912,0.19169,-0.0049588,-0.015984,-0.0082063,0.0046125,0.0045642,-0.14215
-0.091908,-0.051665,-0.064609,-0.017131,0.013345,-0.011846,-0.059443,-0.38682
0.06339,0.05206,0.10033,0.036194,0.019032,0.026729,0.033017,0.1932
0.029259,-0.37492,-0.080192,-0.027551,-0.061352,-0.051648,-0.046065,0.20251
0.048962,0.11882,0.042866,0.026333,0.030168,0.034158,0.070651,0.25993
-0.071553,0.22047,0.0093438,-0.0050291,-0.042134,-0.051863,-0.061975,-0.18922
-0.010808,-0.029692,-0.01591,-0.012134,0.018865,0.018401,0.0093292,-0.31074
0.067957,-0.027629,0.053671,0.012811,0.010263,-0.0050096,0.0033911,-0.2408
-0.053714,-0.3248,-0.078434,-0.016299,0.0025124,0.042029,0.029548,0.16433
0.10044,-0.0037931,0.033097,0.017435,0.02686,0.011126,0.032942,0.80522
-0.032944,0.36778,0.005124,-0.0035407,-0.02624,-0.035211,-0.06485,-0.53511
-0.0097717,-0.20856,0.032353,0.01414,0.038198,0.027971,0.048303,0.36422
-0.065787,0.39218,-0.057854,-0.031421,-0.038068,-0.041599,-0.034234,-0.39978
0.0087119,-0.089216,0.022786,0.00016271,-0.013298,-0.0018374,-0.023721,-0.23599
0.040975,0.14966,0.047075,0.022858,0.018387,0.01434,0.024944,0.050574
0.015016,-0.34665,-0.032224,-0.010149,0.0098961,0.0068499,-0.013309,0.024385
-0.076773,-0.18905,-0.051051,-0.012717,-0.0075291,0.0068922,0.0022062,-0.013823
0.0085116,0.059887,-0.016846,0.023288,-0.018052,0.014457,0.032595,0.43309
-0.017098,-0.074869,0.016386,-0.018938,-0.013461,-0.032915,-0.0078433,-0.18443
0.1055,0.26892,0.033895,0.0016234,0.022384,0.021126,0.013968,0.27099
0.049442,-0.40536,0.03658,0.0071875,0.004086,-0.018577,-0.018889,-0.36916
-0.11385,0.49905,0.0017777,-0.0020009,-0.013204,-0.019005,-0.051479,-0.29831
-0.0085761,-0.055287,-0.038735,0.013238,0.041135,0.035688,0.025782,0.19487
-0.0093144,0.087578,-0.014425,-0.0017998,-0.0046696,-0.0027315,0.025547,-0.0077374
0.016784,-0.027898,0.01993,-0.008188,-0.010097,-0.0013113,0.033828,0.59974
0.022497,-0.28872,0.0092811,-0.0061499,-0.0223,-0.014703,-0.035318,-0.27418
0.046199,0.1436,-0.0078756,0.0040446,-0.010427,-0.0039399,-0.025728,-0.030173
-0.05368,0.076232,-0.0087937,0.0064943,0.032886,0.030749,0.023386,-0.21657
-0.043854,-0.11249,-0.048896,-0.0303,-0.033433,-0.020359,0.002459,-0.12264
0.066761,-0.003431,0.035176,0.01846,0.0089648,0.0063704,0.012841,0.21373
0.0037592,0.074771,0.063127,0.012009,0.0035027,0.0011235,-0.047244,-0.29901
-0.014817,-0.086895,-0.012362,0.012773,0.0437,0.018207,0.032927,-0.0021203
-0.012753,-0.054622,-0.027453,-0.018314,-0.042435,-0.028564,-0.028102,0.25472
0.025634,0.044489,0.033527,0.020381,0.04199,0.024818,0.035092,0.05002
-0.094517,0.17,-0.079083,-0.035064,-0.038793,-0.032425,-0.0042418,0.19465
0.072869,-0.34383,-0.013117,-0.0047586,-0.0032193,0.0031939,0.017808,0.13813
-0.025963,0.11721,0.013464,0.0021603,-0.038346,-0.047517,-0.016027,0.047436
0.0005514,0.16526,0.040567,0.017176,0.036025,0.058171,-0.01196,-0.77789
0.0985,0.31614,0.068944,0.024846,0.017271,0.016041,0.014578,0.43931
-0.07538,-0.47161,-0.096195,-0.045044,-0.016077,-0.0017193,-0.014171,-0.076411
-0.0053234,0.0083886,0.014106,0.026239,0.022155,0.0049892,-0.019557,-0.097846
0.011587,0.30486,0.048149,0.0041958,0.0069965,0.0048075,0.030291,-0.19208
-0.017318,-0.26044,-0.025755,-0.0020097,-0.0070412,-0.010342,-0.028065,0.14601
0.0088729,0.033259,-0.012948,-0.008258,-0.012481,-0.02517,0.0090098,-0.030878
0.026973,0.056677,0.0076901,0.00082507,-0.0019381,-0.00093542,-0.014458,0.1732
0.020759,0.010706,-0.003639,0.0016003,-0.014914,-0.0081897,0.04993,0.46502
-0.072679,-0.29991,-0.055366,-0.02168,-0.0049193,-0.00018707,-0.0091472,-0.12274
-0.0034983,0.15823,0.047389,0.0090751,0.012131,0.015231,-0.012689,-0.44258
0.01746,0.099809,0.023159,0.00015835,0.004816,-0.00096328,0.054053,-0.028469
-0.025125,-0.040946,-0.0030488,0.0063525,0.027776,0.029415,-0.059824,0.12367
0.064476,0.11552,0.023662,0.03559,0.010764,0.036105,0.059,0.18192
-0.025806,-0.12229,-0.02913,-0.021383,-0.053861,-0.082412,-0.10552,-0.26298
0.016879,0.25604,-0.043708,-0.016013,0.0060372,0.0020281,0.0012787,0.029405
0.028693,-0.45148,0.003983,-0.0028759,-0.0045319,0.016053,0.020425,0.20723
-0.076209,0.33304,-0.010421,-0.020923,0.0085317,-0.0011729,0.015132,-0.48632
0.045916,0.030156,0.069904,0.047148,0.022119,0.020806,0.025336,0.23961
0.0043952,-0.11994,0.026656,-0.0094772,-0.010388,-0.011589,0.012829,0.19166
-0.052371,-0.080346,-0.053953,-0.010991,-0.010714,-0.020054,-0.013904,-0.027097
0.0084479,0.045485,0.015671,0.011474,0.021158,0.02682,0.0080175,-0.087939
-0.01619,-0.064108,-0.069218,-0.03573,-0.016441,-0.011482,-0.038539,0.10248
0.11605,0.05114,0.074021,0.042791,0.0012769,-0.0099235,0.025871,0.24611
-0.094662,0.016185,-0.03923,-0.018538,0.003727,0.023637,-0.010149,-0.3304
0.086253,0.26113,0.067313,0.022476,0.02187,0.010942,0.040339,0.098471
-0.075404,-0.44778,-0.044151,-0.021724,-0.030488,-0.032594,-0.018523,-0.1002
-0.095117,0.19478,-0.10051,-0.057515,-0.028539,-0.021297,-0.069972,-0.47989
0.12873,0.095432,0.085402,0.06333,0.027612,0.028918,0.057636,0.58685
-0.036727,-0.13638,0.03663,0.012395,0.028571,0.024016,0.012718,-0.021758
0.048889,-0.11819,0.026207,0.0080754,-0.0099857,-0.0049938,-0.024877,-0.23988
-0.013278,0.43059,-0.040021,-0.012505,-0.0098306,-0.0035877,-0.023626,0.20068
-0.067572,-0.10022,0.0016706,-0.0028074,-0.017713,-0.018698,-0.022309,-0.10517
0.018107,-0.33636,-0.036418,-0.017745,-0.0022535,-0.026823,0.080837,0.30279
0.063341,0.26082,0.0019682,-0.0026883,0.028847,0.026904,-0.0032057,-0.24991
0.020623,-0.26952,0.015504,0.0034415,0.0053595,0.0099316,0.014493,0.14665
-0.087024,0.24515,-0.018797,-0.014652,-0.010167,-0.0071328,-0.014777,-0.14528
0.13875,-0.0065468,0.07154,0.052873,0.029162,0.030666,0.0024049,0.29904
-0.1846,-0.23415,-0.087837,-0.051276,-0.071971,-0.056172,-0.059249,-0.46192
0.013863,0.29026,0.050523,0.017131,0.014536,0.029304,-0.0045872,0.10055
-0.054101,-0.10416,-0.03642,-0.0071888,0.0073873,-0.017647,-0.013295,-0.037666
0.10455,-0.065372,0.0030283,0.0087145,0.023693,0.037183,0.055406,-0.07867
0.076418,0.12513,0.035885,0.0022345,0.00083627,-0.0017596,0.037699,0.22986
-0.028798,-0.12735,0.038255,0.019908,0.0089801,-0.0097329,-0.073964,-0.2575
0.015376,0.10543,-0.029584,0.006539,0.0089002,0.013059,0.080012,0.44665
-0.041486,0.063883,-0.035556,-0.030645,-0.0386,-0.050662,-0.054916,0.032479
0.065644,0.058847,0.043121,0.025005,0.022666,0.033533,0.036945,0.14275
-0.10128,-0.29375,-0.04399,-0.04564,-0.049453,-0.054469,-0.074076,-0.67394
-0.034733,-0.22104,-0.023574,0.015094,0.034247,0.052812,0.041711,0.18551
0.023164,0.58972,0.018648,0.0042142,0.00055342,-0.0036831,0.0015072,0.027401
-0.044337,-0.2198,-0.002751,-0.015398,-0.0018379,-0.004949,-0.0071402,-0.084085
0.11501,0.078573,0.014483,0.011497,0.0038742,0.033521,0.01585,0.071399
-0.02928,-0.20856,0.047658,0.015209,0.0022369,-0.028921,0.00027115,0.18248
0.007777,-0.032449,-0.019751,0.011938,0.032395,0.018503,0.024365,-0.070933
-0.046915,0.084922,-0.05444,-0.03694,-0.030656,-0.019762,-0.075826,-0.29136
0.13476,-0.035342,0.061043,0.040688,0.008338,0.012282,0.043512,0.67513
-0.095983,0.34891,-0.032642,-0.020781,-0.030387,-0.018357,-0.05512,-0.51868
-0.013118,-0.10689,-0.007525,0.0050376,0.024994,0.02108,0.081305,0.013612
0.031175,-0.11503,0.050167,0.0084491,-0.020837,-0.033376,0.038522,0.48634
-0.0026947,0.018298,-0.023984,-0.010946,0.019656,-0.0018226,-0.090022,-0.58094
-0.10726,-0.19251,-0.042837,-0.022312,-0.017541,-0.0089833,0.023429,0.051147
0.014228,0.025273,0.0010972,-0.0025886,0.0082163,0.039138,-0.012138,0.045353
0.11181,0.11692,0.045042,0.016659,0.0031206,0.017673,0.021685,0.073872
-0.072209,-0.19834,-0.059679,-0.011692,-0.009554,-0.034362,-0.023792,-0.14273
0.087284,0.19737,0.069516,0.03717,0.024604,0.023422,0.023181,0.53915
0.035618,0.19527,0.010507,0.014672,0.019301,0.018752,0.014187,-0.55647
-0.11791,-0.16532,-0.088533,-0.055827,-0.033656,-0.048848,-0.050615,0.082189
-0.0062658,-0.064324,0.069006,0.020974,0.029482,0.015477,0.039993,0.23231
0.065695,0.16171,0.053215,0.018589,-0.018023,0.023885,-0.010502,-0.20448
-0.058415,-0.14424,-0.081342,-0.031554,-0.043328,-0.047215,-0.014205,0.19599
-0.011492,0.056182,0.0013031,0.011445,-0.0071353,-0.0024468,-0.0019936,-0.30725
0.0032966,-0.19832,-0.058017,-0.023937,0.0050236,-0.005615,0.026431,0.10607
0.087484,0.0845,0.061389,0.018932,0.056134,0.045236,0.00093997,0.020583
-0.079293,0.12389,0.024085,0.0075991,-0.0095942,-0.0056997,-0.023729,0.20727
0.073201,0.022172,0.018125,0.012656,0.011305,0.013864,0.038283,-0.1888
-0.056678,-0.23549,-0.057534,-0.020425,-0.021626,-0.036378,-0.047576,-0.0074511
0.054482,0.17183,0.024098,0.017752,0.024407,0.039083,0.046589,0.21619
-0.030714,0.17405,0.0054949,-0.0057319,-0.038253,-0.040921,-0.054454,-0.22426
-0.061973,-0.26809,-0.035092,-0.012949,0.0089022,0.028288,0.031922,0.090961
0.078402,-0.03021,0.050748,0.02711,0.0015653,-0.011159,0.024362,0.13004
-0.077648,0.33215,-0.010579,-0.026409,0.0020431,-0.0030852,-0.045889,-0.44182
0.0097186,-0.24443,-0.016198,-0.0096215,-0.013206,-0.010053,0.0087534,-0.082918
0.052171,0.12996,0.025778,0.022682,0.033933,0.022575,0.024377,0.25738
-0.027881,-0.16219,-0.088089,-0.038898,-0.043971,-0.045874,-0.045724,0.46608
0.04321,-0.15984,0.095029,0.055668,0.010999,0.026712,0.032965,-0.17161
-0.031604,0.37193,-0.057944,-0.045123,0.0036257,0.013644,-0.0051251,-0.34791
0.051812,-0.37081,0.062144,0.041595,0.035523,0.024106,0.027446,0.079667
-0.051127,0.19857,-0.037073,-0.012269,-0.010518,-0.0046452,-0.017947,0.095861
-0.036701,0.018022,-0.035403,-0.019212,-0.025211,-0.033812,-0.032222,-0.15986
0.062914,0.24384,0.074918,0.028567,0.022561,0.0066891,0.023334,-0.11196
0.0048232,-0.17118,-0.010745,-0.0095686,-0.015779,0.015148,0.054631,0.39993
-0.02384,-0.071224,0.020279,-0.00078995,0.00028446,-0.031899,-0.055772,0.16047
-0.0074138,0.10593,-0.058287,-0.023174,-0.023042,-0.017165,-0.018918,-0.24106
-0.039231,-0.38953,-0.058566,-0.0063352,0.023644,0.036118,0.0090367,0.019653
0.02983,0.34171,0.043268,0.018551,0.01544,0.026649,0.044007,-0.19271
-0.072897,-0.12073,-0.0024866,-0.0031696,-0.00064038,-0.014057,-0.054175,-0.23827
0.075112,0.14693,0.0073866,0.0065802,-0.024442,-0.023278,0.011916,0.22788
0.036698,-0.18931,0.049255,0.008588,-0.0011399,0.0069434,-0.0071732,0.052331
-0.024153,0.11425,0.021065,0.0026069,0.0068579,-0.0014632,-0.0016313,0.21561
0.0952,-0.058887,0.054926,0.027395,0.023014,0.029599,0.044409,-0.30904
0.018998,0.0017341,-0.053036,-0.026715,-0.023035,-0.032775,-0.0096777,0.56867
-0.15201,0.17721,-0.092472,-0.019309,0.009212,0.014409,0.038989,-0.44437
-0.020004,-0.12123,-0.01676,-0.012945,-0.0054195,-0.016481,-0.052206,0.20933
-0.022728,-0.0065218,-0.0054144,-0.0075097,-0.004625,-0.00055828,-0.033785,-0.64825
0.02754,0.072309,0.012445,0.0050854,0.019232,0.0074223,-7.4382e-06,0.10037
0.08455,0.19799,0.076702,0.040844,-0.0042776,0.030886,0.048722,0.39159
-0.038329,-0.42845,-0.030517,-0.017014,-0.012679,-0.023869,-0.005017,0.18378
0.011358,0.028416,0.043079,0.019371,0.017548,0.0073181,0.0028031,0.38723
-5.3619e-05,0.046294,0.055741,0.0096288,-0.014977,-0.0082288,0.0020274,-0.97137
-0.040944,0.18249,-0.10962,-0.046112,-0.031877,-0.039121,-0.038284,0.36124
0.052714,-0.411,-8.8814e-05,0.0083997,0.0061722,0.0006798,-0.01617,0.099995
0.0070692,0.25392,-0.0067152,-0.0066298,0.013435,0.033059,0.0062661,-0.10894
0.04801,0.1492,0.010604,0.025802,0.044682,0.034464,0.044964,-0.047127
-0.07522,0.12062,0.02011,-0.011726,-0.017348,-0.010975,0.029772,0.2013
-0.074202,-0.22968,-0.01767,-0.010095,-0.00099944,-0.0098573,-0.023706,-0.37572
0.12882,0.20684,0.053258,0.030451,0.0074804,0.0061962,-0.0062722,-0.015658
-0.052086,-0.11858,-0.048429,-0.0153,-0.0078461,-0.0021778,0.0036762,0.34889
-0.10093,-0.26301,-0.025747,-0.014685,-0.00032373,-0.01949,-0.025391,-0.0045335
0.084492,-0.041267,0.059068,0.024416,-0.032507,-0.0065872,0.007874,-0.05004
0.051789,0.23236,-0.027994,-0.022978,-0.026135,-0.041276,-0.052881,-0.33431
-0.049958,0.26007,-0.0052859,0.0072933,0.034711,0.056624,0.018912,0.42173
-0.0094365,-0.23931,-0.020911,-0.0096095,-0.0058493,-0.024824,0.051451,0.2451
0.063981,-0.10069,-0.01999,-0.011003,0.00095695,0.011759,0.005757,-0.17441
-0.025407,0.060585,0.099021,0.057973,0.063146,0.057332,0.045935,-0.39727
-0.012674,0.059353,-0.062569,-0.052555,-0.030207,-0.052072,-0.093664,0.095017
-0.00023215,-0.31285,0.018214,0.01685,0.0097893,0.019331,0.00093372,0.19769
0.050179,0.45392,0.043911,0.024,0.0031469,0.021195,0.032732,-0.043258
-0.026056,-0.2952,-0.0016836,-0.0077154,-0.050462,-0.046922,-0.029642,-0.49351
-0.080661,0.072876,-0.087751,-0.031487,0.0049588,-0.0057611,0.032468,0.30357
0.011654,0.3697,0.027732,0.0073163,0.0052358,0.011552,0.0080879,0.32152
-0.021873,-0.46151,-0.030068,-0.00070885,-0.0026981,-0.010755,-0.032442,-0.16104
0.10873,0.13877,0.012754,-0.00087195,-0.0030249,0.005475,0.035976,0.47783
-0.0097071,0.11246,0.016255,0.0068495,0.012323,0.021346,-0.020868,-0.80508
-0.15777,-0.2625,0.0046146,0.0068532,0.0045117,-0.025411,-0.0074574,0.054894
0.11789,0.22986,0.040983,0.0069576,0.0049121,-0.001772,-0.025143,0.081792
0.012258,-0.27174,-0.030456,-0.0084794,0.021309,0.029885,0.0043713,0.48568
0.094838,0.20066,0.032638,0.015198,-0.016786,-0.008578,0.026486,-0.13389
-0.026121,-0.055692,-0.10579,-0.054851,-0.0080782,-0.0079332,0.017734,-0.11544
-0.015825,0.32784,0.17112,0.078252,0.02371,0.039392,0.0092253,-0.086597
-0.039175,-0.3026,-0.1058,-0.046383,-0.038814,-0.030923,-0.0070619,-0.080622
-0.080799,-0.061108,0.016171,0.0088468,0.030855,0.023122,0.038985,0.13581
-0.069929,0.047981,-0.041402,-0.021543,-0.040594,-0.04851,-0.079301,-0.28886
0.057029,-0.21407,-0.036514,-0.012411,-0.026316,-0.034734,-0.0024827,0.44307
0.051544,0.29632,0.038558,0.020711,0.042813,0.049144,-0.019384,-0.35477
0.024447,-0.043765,0.035296,0.03094,0.0030906,0.00042417,0.0031764,-0.08791
0.0080325,-0.014772,-0.015215,-0.020937,0.026636,0.007027,0.026525,0.21217
