0.010131,-0.064197,-0.047375,-0.020947,-0.011106,0.073668,-0.042846,-0.15314
0.024136,-0.033486,-0.018981,-0.0038056,0.029139,-0.0017765,0.16871,0.2638
0.090849,0.22908,0.12494,0.036788,-0.0084764,-0.035131,-0.12007,-0.014671
-0.063721,-0.15126,-0.076644,-0.024185,0.0086507,0.067177,-0.018729,-0.20046
-0.049203,-0.064669,-0.037636,-0.014858,-0.029067,-0.10965,-0.050713,0.035286
0.017331,0.12222,0.039236,0.010067,-0.035868,-0.066634,0.057601,0.093435
-0.012049,0.019306,0.021689,0.019304,0.035015,0.070154,-0.037144,-0.24107
0.019765,-0.052675,-0.042826,-0.010638,0.011679,0.018626,0.0484,0.059492
-0.034578,-0.0074721,0.025903,0.0061098,0.019169,0.0048796,0.033538,0.1241
0.044823,0.069193,0.032964,0.0069799,-0.020539,-0.064889,-0.11256,-0.13817
-0.045708,-0.20534,-0.060487,-0.023699,-0.013555,0.012744,-0.030371,0.35963
0.038272,0.17686,0.034638,1.3373e-06,0.016837,0.027354,0.092352,-0.11011
0.015757,-0.057584,-0.025577,-0.0078301,-0.0073365,0.0029222,0.090885,-0.042492
-0.011946,0.02886,0.031991,0.0075505,-0.007822,0.025796,-0.0045287,0.081804
0.016963,-0.05605,-0.058696,-0.00066845,-0.00016001,-0.0054332,-0.038807,-0.054071
0.0077219,0.10163,0.076923,0.030062,0.0078603,0.018475,-0.044281,0.19476
-0.0017214,-0.013909,-0.0068588,-0.0096114,0.00056577,-0.10598,-0.045117,-0.41584
-0.051428,0.019051,-0.013439,-0.0025032,0.0090894,0.17538,0.0053852,-0.32331
0.05323,-0.018355,0.010205,0.0045029,0.0098251,-0.083188,-0.032944,0.17741
-0.094254,-0.20427,-0.0999,-0.027646,-0.013039,0.00086277,0.10655,0.29256
-0.0015017,0.055103,0.039314,0.0026617,-0.012797,-0.080211,-0.05911,-0.17769
0.058604,0.16609,0.045388,0.01739,0.01044,-0.013504,0.018484,0.20669
-0.0069354,-0.058824,-0.018828,-0.022408,-0.013673,0.076654,0.043812,0.32954
0.083889,0.16923,0.073473,0.01619,-0.014779,-0.074586,-0.083735,0.049664
-0.051146,-0.21262,-0.08389,-0.0073815,0.030667,0.11157,0.12841,-0.11907
-0.052354,-0.033045,-0.0066706,-0.0072078,-0.0021987,-0.020729,-0.077806,-0.54602
-0.013496,0.019881,0.0079598,0.032217,-0.003867,-0.010572,-0.02354,-0.037572
0.10419,0.11754,0.07681,0.0091312,0.017956,0.024431,-0.061653,0.10098
-0.0044526,0.056528,-0.0035913,0.0014226,-0.014782,0.02105,0.040665,0.12029
-0.043103,-0.13962,-0.053751,-0.022363,0.015157,-0.013762,0.15682,-0.071817
-0.074719,-0.032872,-0.042354,-0.031078,-0.024992,-0.06516,-0.011423,-0.075068
0.0098035,-0.020706,-0.00028602,-0.0012337,-0.010167,-0.063353,-0.12901,0.44005
0.06983,0.11699,0.034037,0.028325,0.012845,0.014927,0.061642,-0.018261
0.027498,-0.047915,-0.016687,-0.0045444,0.0050844,0.083926,-0.14986,-0.068011
-0.0073248,0.0721,0.051507,0.017777,0.0057106,0.011279,0.042389,-0.054709
-0.049612,-0.084153,-0.010689,-0.0058542,-0.0086561,0.031948,0.01506,0.15229
-0.043974,-0.09399,-0.054452,-0.036058,-0.0067784,-0.056604,-0.011295,-0.45673
0.04928,0.08176,0.037385,0.013242,-0.0043871,0.01174,0.13675,-0.054754
0.011834,0.10643,0.045618,0.01696,0.021752,-0.020506,0.022715,-0.055875
-0.023382,-0.052792,-0.014968,0.029456,0.02448,-0.0047723,-0.048434,0.34554
0.037116,0.023675,-0.028301,-0.020117,-0.019965,-0.019249,-0.061481,0.13544
-0.0026414,-0.10441,-0.042491,-0.023053,-0.025954,-0.0016893,0.021689,0.010955
-0.010814,0.067924,0.035036,0.019948,0.0062751,0.094378,-0.0032708,-0.073142
-0.0041679,0.0069556,-0.031051,-0.024545,-0.0093283,-0.036229,0.04213,0.0094924
0.055253,0.16409,0.1102,0.046165,0.036643,-0.034628,-0.10085,-0.14639
0.010346,-0.25037,-0.080433,-0.049333,-0.02751,0.044113,-0.026458,-0.055698
-0.10023,0.0064529,0.030167,0.02504,0.0016278,0.012333,0.085585,0.047669
-0.041964,-0.00102,-0.041602,-0.027163,-0.016214,-0.06733,0.079397,-0.28925
0.045229,-0.0042039,-0.0055277,0.013464,0.044328,0.0086908,-0.11472,0.4489
0.045288,0.094191,0.0069638,-0.00073666,-0.027374,-0.11049,0.0039222,0.18311
-0.032643,-0.038208,-0.010513,0.0091405,0.011083,0.12279,0.021798,-0.26007
-0.031047,-0.046822,0.0057912,-0.0031171,-0.0042701,0.02168,-0.053012,-0.17189
0.027581,0.039094,0.041126,0.0019969,-0.010968,0.00065113,0.052827,0.054452
0.073372,0.13429,0.0099054,0.016839,0.029905,0.044057,0.17478,-0.028953
0.043708,-0.066596,-0.049034,-0.013395,-0.022505,-0.067302,-0.16445,0.36478
0.00048461,0.10647,0.097926,0.028125,0.011214,0.072005,-0.0047725,0.10935
-0.13533,-0.22416,-0.081611,-0.046627,-0.033281,-0.14843,-0.018808,-0.35781
-0.0053578,-0.037981,-0.018665,0.011756,0.015622,0.035964,0.035161,-0.13691
0.014551,0.15438,0.04328,-0.008231,0.0014532,0.061778,-0.14765,-0.35027
-0.060578,-0.13373,-0.068702,-0.013302,-0.0056387,-0.04814,0.073648,0.24784
0.073645,0.10397,0.043157,0.035301,0.048936,0.14354,0.16057,0.3799
0.057796,-0.023874,-0.0041632,-0.0031738,-0.022339,-0.15975,-0.12055,0.025598
0.0013707,0.014062,0.023956,0.011954,-0.00063035,0.058403,0.04357,-0.071012
0.045212,0.077856,0.034393,0.010592,-0.010746,0.0023206,0.083317,-0.011165
-0.10728,-0.15944,-0.096962,-0.045976,-0.013324,0.0015984,-0.14132,0.039972
-0.049548,-0.0401,-0.017531,-0.04014,-0.039243,-0.1688,-0.020463,0.088118
0.039114,0.2187,0.093978,0.044153,0.029069,0.11744,0.00096625,-0.38482
0.10446,0.0091184,0.0039935,0.02757,0.027855,0.21272,0.14197,-0.084219
-0.079585,-0.10496,-0.021338,-0.0037427,0.004148,-0.31252,-0.20676,0.37104
-0.035951,-0.098957,-0.052148,-0.010703,-0.0030388,0.048822,0.05619,-0.59038
0.07957,-0.0033061,0.044219,0.014329,0.021668,0.21715,0.21167,0.7498
-0.068602,0.088703,0.040763,0.00071939,-0.023695,-0.21584,-0.16281,-0.24151
0.035348,0.044302,-0.024078,-0.012864,-0.0067655,0.18513,-0.044538,0.0214
-0.038287,0.050607,-0.010373,0.012268,0.040827,0.42592,0.23766,-0.18055
0.077417,-0.025978,-0.035969,-0.017902,-0.045188,-0.7212,-0.097982,0.20705
-0.047721,-0.12405,-0.023287,-0.033171,-0.038219,-0.17035,-0.32509,0.13744
0.038738,0.020726,0.027276,0.013391,0.015118,0.36867,0.29869,0.049026
-0.039003,-0.014888,0.029526,0.012597,-0.0019447,-0.11767,-0.16372,-0.3843
-0.016131,-0.044699,-0.032313,-0.0040544,0.012621,0.0059655,0.061588,0.23136
0.0050656,0.19576,0.083871,0.049609,0.043567,0.17158,0.15461,-0.34978
0.02403,0.0024797,-0.020373,-0.013747,-0.0026763,0.029137,-0.1973,-0.45142
-0.029871,-0.039118,-0.040282,-0.02218,0.0066431,0.00085667,0.091131,0.3284
0.085495,-0.054028,-0.022534,0.00085475,0.0087421,0.14058,0.057757,0.64746
-0.043725,0.0052222,0.048858,0.031855,-0.051491,-0.26443,0.091686,0.12149
-0.081142,-0.15705,-0.067762,-0.062063,-0.018259,-0.09924,-0.035148,-0.066613
0.051993,0.10145,0.050147,0.031558,0.037751,0.09491,-0.32383,-0.33037
-0.010803,-0.037734,-0.08107,-0.070107,-0.039934,-0.011743,0.16281,0.23566
0.028024,0.2006,0.11737,0.078263,0.02208,0.079989,0.13637,-0.39248
-0.034106,-0.11974,-0.025917,0.031343,0.036406,0.034267,0.020372,0.26324
0.014079,-0.05284,-0.049782,-0.062486,-0.035795,-0.22614,-0.31558,-0.54242
0.086747,0.15109,0.06131,0.038852,0.0010551,0.12051,0.0062758,0.24598
-0.034937,-0.047971,0.010097,0.0070834,0.030024,0.091531,0.37919,0.125
-0.0074049,-0.081197,-0.05559,-0.025116,-0.018996,0.047855,-0.33556,0.086159
-0.096442,0.0028039,0.011971,-0.010946,0.0025666,-0.12648,0.2222,-0.041709
0.057285,0.10866,0.032388,0.010573,-0.022399,-0.063589,-0.11213,0.023321
-0.038279,-0.13983,-0.080853,-0.0072588,0.046765,0.14295,0.24564,-0.024127
0.046838,0.05367,0.015625,-0.017259,-0.032106,0.0084542,-0.16018,0.086391
0.0083152,0.064361,0.079509,0.051275,-0.0089816,-0.077075,0.12857,-0.018072
-0.012888,-0.12245,-0.014078,-0.027816,0.022444,0.041876,-0.17947,0.15399
-0.024396,0.025966,-0.030431,-0.027636,-0.023696,0.0052777,-0.093299,-0.24412
0.075309,0.026994,0.0074985,0.036374,0.016726,-0.077926,0.12167,-0.17784
-0.003152,0.015149,-0.0013024,0.0079339,-0.012519,0.0030559,-0.22047,0.37106
-0.072857,-0.0082525,-0.056321,-0.0351,-0.0099339,0.037379,0.046893,-0.42282
0.0060376,-0.01129,0.022487,0.023962,0.016486,-0.17788,-0.22967,0.26426
-0.017367,0.013724,0.00084158,0.0047652,0.0039283,0.11524,0.6084,0.24157
0.027897,0.07369,0.042563,0.0081344,0.022287,0.31514,0.17943,-0.00059872
0.04728,-0.043868,0.0064467,-0.0056738,0.016412,0.015279,-0.2512,-0.51758
-0.0066639,-0.020511,0.016666,0.001915,-0.037555,-0.38637,-0.02101,0.011338
0.029896,0.032538,0.02545,-0.016152,-0.022701,-0.030935,-0.34335,-0.061289
0.008725,-0.0033692,0.0086354,0.018454,0.037491,0.14373,0.12292,0.25785
-0.14763,-0.011841,-0.041906,-0.026489,-0.013003,-0.0031287,-0.038492,0.43835
-0.031834,-0.13351,-0.1181,-0.040707,-0.056511,0.02864,0.13189,-0.081811
0.060603,-0.00044435,0.023094,0.031548,0.040438,0.098748,0.11009,-0.10702
0.021707,0.013586,-0.046677,-0.019638,-0.018317,-0.27676,-0.1583,-0.066333
0.063604,0.15218,0.064708,0.040889,0.041286,0.12903,-0.031773,-0.20816
0.077684,-0.020946,0.053878,0.026006,0.00091073,0.081964,0.084569,-0.045237
-0.060824,0.018384,0.046633,0.021547,0.024744,0.042949,0.23869,-0.21397
0.0071527,0.16876,0.12899,0.03477,0.026681,-0.11323,-0.56084,-0.0062823
-0.10192,-0.24992,-0.1372,-0.08364,-0.079614,0.14436,0.25649,0.4185
-0.092167,-0.1525,-0.12036,-0.069063,-0.029047,-0.16901,0.22938,0.20437
0.082175,0.061652,0.021761,0.0385,0.0294,-0.076966,-0.26029,-0.25708
0.10748,0.23539,0.061134,0.035216,0.0093225,0.092342,0.2628,-0.069403
0.0061095,0.032099,0.066928,0.045696,0.0432,0.06566,-0.022852,0.30153
-0.04316,-0.18924,-0.12556,-0.086365,-0.048828,-0.031694,-0.39146,-0.49528
-0.048856,-0.12401,0.0070411,0.0064482,-0.0011657,-0.0040268,0.28981,0.61764
0.027687,0.18115,0.019846,0.012053,-0.0012235,-0.0072208,-0.032681,-0.11797
0.053657,0.023589,0.015209,0.032507,0.029289,0.16998,0.096276,-0.24783
-0.025166,-0.080454,-0.021556,-0.0020356,-0.0031762,-0.26124,-0.30481,-0.23679
-0.035975,0.049406,0.051065,0.0025448,-0.0046624,0.1837,0.18137,-0.14014
0.0069426,0.17952,0.093132,0.023055,-0.029667,-0.26065,-0.075035,0.16207
-0.11359,-0.25971,-0.12152,-0.057557,0.023541,0.12453,-0.34537,0.5659
0.080601,0.037173,0.0088017,0.042028,0.045731,0.19079,0.8241,-0.6091
0.098664,0.024025,-0.039438,-0.045325,-0.056723,-0.19489,-0.28646,0.34768
-0.035101,-0.03284,0.0069882,0.0085706,0.013161,0.24048,0.078023,0.028947
-0.0080022,0.046779,0.077514,-0.0071489,-0.04142,-0.33966,-0.18008,0.088374
-0.070563,-0.080673,-0.062473,-0.006495,0.0061136,0.079511,-0.088494,-0.12701
0.15105,0.13141,0.0087087,0.041763,0.030692,0.075249,0.23178,-0.32691
-0.12602,-0.12248,-0.037214,-0.018761,0.016511,0.099851,-0.2687,-0.035368
0.033934,0.2188,0.10433,0.061669,0.04141,-0.042635,-0.0048425,0.43312
-0.019193,-0.2059,-0.074579,-0.068885,-0.066842,-0.17282,0.03217,0.091273
0.057087,0.12493,0.035344,0.034467,0.035156,0.35791,0.17307,-0.2438
-0.0034995,-0.0014566,0.0043192,-0.01928,-0.035665,-0.30124,-0.10977,0.1906
-0.13058,-0.21138,-0.081794,-0.042887,-0.0059511,-0.055222,-0.11711,-0.29521
0.098453,0.21327,0.097261,0.06513,0.038496,0.066443,0.27948,0.016366
-0.057325,-0.09443,-0.060114,-0.046671,-0.042602,-0.020342,-0.24583,-0.054521
0.0051593,-0.055278,-0.014869,-0.0030003,-0.0065667,-0.0014797,0.2843,0.031661
0.021743,0.10596,0.053304,0.016851,0.0065102,0.11619,-0.29509,0.0019819
0.0091687,-0.061616,-0.043088,-0.010137,-0.0029247,0.059292,0.32614,0.059451
0.13207,0.13181,0.078796,0.041399,0.03569,-0.11057,-0.18346,0.077798
-0.015842,-0.092935,0.020596,0.03109,0.044214,0.089217,-0.030692,-0.086206
-0.20861,-0.1328,-0.12377,-0.064369,-0.055751,-0.19515,-0.078247,0.35285
0.16219,0.083244,0.060031,0.02849,0.055644,0.40123,0.31993,0.36755
-0.10765,0.00031078,-0.083853,-0.049744,-0.043999,-0.29533,-0.59499,-0.77187
0.043392,0.19547,0.023158,-0.0022578,-0.042622,-0.082663,0.41184,0.18314
0.052131,0.11232,0.13932,0.061505,0.01265,-0.10133,-0.0014692,-0.60223
-0.14423,-0.40745,-0.11786,-0.061657,-0.042253,0.016869,-0.11327,0.24297
0.11068,0.095122,0.032981,0.018779,0.050702,0.22673,0.25173,0.31052
-0.003023,0.048219,-0.0098423,0.029232,0.026253,-0.024563,-0.3249,-0.18196
0.062242,0.013542,0.03453,0.016387,-0.0058313,0.053641,0.34721,-0.03307
-0.13022,-0.12608,-0.014172,-0.0043526,0.017277,0.040498,-0.58165,0.13632
0.029779,0.083206,-0.016005,-0.033199,-0.021423,-0.13398,0.39683,0.4369
0.11325,0.064492,0.0049227,-2.1663e-07,0.003096,-0.079435,-0.17926,0.20299
-0.090211,-0.032393,-0.037875,-0.022012,-0.026466,0.11753,0.40641,-0.28024
0.02903,0.12976,0.081823,0.033615,0.045936,0.2687,0.21287,-0.19752
-0.1306,-0.28408,-0.12825,-0.043934,-0.069001,-0.5093,-0.54506,-0.65518
0.063405,0.06246,0.050822,0.026765,0.042552,0.088038,-0.11321,0.0073197
0.12604,0.34117,0.13508,0.066197,0.0054079,0.053026,-0.0020215,0.38983
-0.052927,-0.20626,-0.070197,-0.034881,-0.02432,0.042258,0.22485,0.26576
-0.013608,-0.088375,-0.048709,-0.018586,0.023596,0.11073,0.23203,0.042385
0.031997,0.037792,-0.0028858,0.0057107,0.0084905,-0.12435,-0.30649,0.018018
-0.096729,-0.18001,-0.096204,-0.063603,-0.01496,0.12571,-0.09062,0.076665
0.044884,0.25773,0.117,0.054625,-0.023303,-0.04614,-0.030738,-0.54664
-0.051215,-0.063347,-0.0038758,0.00088293,0.030374,0.11686,-0.029693,-0.039253
0.076126,0.0050276,0.025117,0.009375,-0.010117,-0.22229,0.18055,0.54402
-0.0099389,-0.052876,-0.0077738,0.0017872,0.019378,0.076263,0.38999,0.26571
0.058794,0.044089,0.036965,0.032632,0.017424,-0.081531,-0.17549,-0.3032
-0.099225,0.061443,-0.0059216,-0.046644,-0.070504,-0.11726,-0.23672,-0.3954
-0.029507,-0.071192,-0.051503,-0.017295,0.013599,0.22766,-0.038744,0.0075213
0.10518,0.12279,0.024657,0.027068,0.027748,0.055899,0.33738,0.026435
-0.061307,-0.082923,-0.019572,0.0086124,0.011181,0.048323,-0.29816,0.11839
0.0029224,-0.14101,-0.09753,-0.048819,-0.043798,-0.2706,-0.30599,0.044422
-0.084852,-0.16024,-0.004817,-0.0041496,0.019083,0.11549,0.024803,-0.33457
0.17486,0.36786,0.11951,0.04927,0.035674,0.01942,0.48423,0.49609
-0.054975,-0.11872,-0.051138,-0.013306,-0.00983,0.019239,-0.17614,0.32963
-0.0024475,0.098935,0.062518,0.011288,-0.023923,-0.049549,0.12351,-0.37905
0.072868,-0.026253,0.031333,0.02911,0.016587,0.10143,0.16596,0.27676
-0.11197,0.083313,0.003582,-0.0071057,-0.0056836,-0.12239,-0.24283,-0.40555
-0.034866,-0.22147,-0.084037,-0.050984,-0.020513,0.075115,0.0075383,-0.29889
0.084668,0.14479,0.071938,0.0376,0.026818,0.084002,-0.089771,0.31255
-0.0425,-0.201,-0.10017,-0.038624,-0.027613,-0.29131,-0.14315,0.28857
0.052976,0.2257,0.10154,0.024817,-0.011724,0.074233,-0.20633,-0.42182
-0.21375,-0.21523,-0.12849,-0.045525,0.027812,0.25913,0.61977,-0.36727
0.088361,0.055013,0.014066,0.031761,-0.0026276,-0.15794,-0.26631,0.17023
0.11682,0.060499,0.029262,0.0069386,0.014143,0.05807,0.28314,0.82996
0.12261,0.067162,0.042519,0.020919,0.038904,0.024958,-0.061657,-0.50085
-0.073439,0.090462,0.030995,-0.0041912,-0.069254,-0.37401,-0.1859,0.22608
-0.1119,-0.24525,-0.075013,-0.0057593,0.0096221,0.34574,-0.0065222,-0.014477
0.014808,0.16058,0.084373,0.016247,0.02519,-0.05813,-0.29208,-0.27388
0.071946,0.017849,-0.013938,-0.02415,-0.0071698,0.054493,0.25161,0.074743
-0.11262,-0.0023947,-0.010367,0.0057974,0.0062184,0.16719,0.044203,0.47077
-0.031091,-0.17385,-0.084486,-0.050208,-0.051704,-0.28344,0.18573,-0.49641
0.11364,0.082055,0.03723,0.034401,0.022511,-0.032588,0.042593,0.046604
0.001693,-0.061658,0.011126,0.025303,0.018393,0.075533,-0.42412,-0.19534
-0.030493,0.060721,0.0091863,-0.0070985,-0.0088478,0.1113,0.23209,-0.25645
-0.091922,-0.072455,-0.015382,-0.0080162,0.0037728,-0.073072,0.029121,0.15932
0.090951,0.048147,-0.023511,-0.008621,-0.0058919,0.047062,0.079667,0.32519
0.049124,0.14995,0.086248,0.03019,0.032633,-0.081434,-0.26058,-0.049202
0.055429,-0.095197,-0.053543,-0.032213,-0.029136,-0.19915,-0.11992,0.055743
-0.055053,0.022701,0.017697,-0.0005698,0.019503,0.14052,0.38095,0.62501
-0.025444,0.18948,0.07301,0.039097,0.014133,0.07875,-0.25456,-0.6176
-0.11436,-0.27656,-0.10669,-0.038317,-0.05346,0.0136,0.069198,-0.075872
0.060487,-0.12736,-0.068487,-0.021982,0.0038649,0.14676,0.17245,0.13415
-0.016647,0.12004,0.078271,0.041131,0.013976,-0.00060291,-0.28298,-0.42374
0.1154,0.30873,0.068183,0.025961,0.02363,-0.048307,0.48001,0.36248
-0.089733,-0.36574,-0.090529,-0.036262,-0.0062171,0.0090348,-0.075351,-0.096074
0.017017,-0.050773,0.0010923,-0.012682,-0.044193,-0.36145,-0.51753,0.035946
0.037836,0.16147,0.054522,0.026495,0.02707,0.12884,0.19489,-0.29465
-0.065848,0.015024,-7.4607e-05,-0.020123,0.0046206,-0.066172,0.065773,0.063435
0.073443,0.17568,0.056409,0.011733,0.0057607,0.11781,0.28088,0.54322
0.0026558,-0.23027,-0.1274,-0.018356,0.0070708,0.18309,-0.28391,-0.10229
-0.036136,0.11035,0.026617,-0.00085872,0.00064838,-0.008722,0.078015,-0.0038298
-0.090048,-0.16975,-0.028628,0.0017774,-0.021497,-0.11996,-0.31521,-0.41822
0.12187,0.0066967,0.03454,0.036338,0.034161,0.076848,0.074567,0.57639
-0.04129,0.036565,-0.0033121,-0.022424,-0.043528,-0.10578,0.043407,-0.54414
0.0843,0.23026,0.10692,0.036048,0.010913,-0.059164,-0.09036,-0.10895
-0.15775,-0.1646,-0.026403,-0.015273,0.033374,0.33274,0.47367,0.36524
0.029373,-0.025323,-0.12306,-0.059673,-0.0542,-0.2985,0.0094883,0.1587
0.020722,0.044681,0.019231,0.0040169,0.0061816,0.0069935,-0.079214,-0.46385
0.16016,0.20071,0.1109,0.058357,0.042893,0.0064231,0.12432,0.29357
-0.11465,-0.25231,-0.027751,-0.013904,-0.029726,-0.0034352,-0.5038,0.02376
0.024634,0.038758,-0.0055713,0.02175,0.022957,0.094988,0.037203,-0.024324
-0.13268,-0.1968,-0.094941,-0.037476,-0.025421,-0.056981,-0.11826,-0.42208
0.015198,-0.19772,-0.060045,-0.050479,0.020573,-0.028847,0.30653,0.3061
0.054354,0.37549,0.077274,0.069233,0.035977,0.12539,0.2546,0.69097
-0.023016,0.12722,0.052845,-0.013726,-0.065181,-0.12512,-0.14903,-0.43907
0.14227,0.13719,0.047396,-0.017654,-0.032999,0.016505,-0.33971,-0.48096
0.0029821,-0.26651,-0.040213,0.034297,0.069881,0.065537,0.061433,0.25573
-0.097601,0.070824,0.039766,-0.0062406,-0.030157,-0.0099284,0.074896,0.040996
-0.011426,0.01375,-0.026006,0.0012237,0.018241,0.023714,0.26836,-0.096357
0.0035337,-0.065776,-0.012178,0.0095162,0.03517,-0.068608,-0.30658,-0.26009
0.025593,0.04824,-0.013813,-0.012995,-0.026445,0.0017254,0.25211,0.45305
-0.077515,-0.02892,-0.00080995,0.011437,-0.0026934,0.015892,-0.15506,-0.14928
0.0075037,-0.25116,-0.10678,-0.058104,-0.042082,0.099199,-0.0043193,-0.051211
-0.038841,-0.047841,0.019486,0.0047777,0.0038533,-0.32589,-0.11732,0.33817
0.11215,0.25393,0.13582,0.043801,0.010218,0.077211,0.17511,0.12246
-0.055077,-0.0086414,-0.054337,-0.019091,0.024038,0.23087,0.20534,-0.18284
0.037029,0.032584,-0.019266,-0.004088,0.014216,-0.005441,-0.13988,-0.27413
0.07477,0.22176,0.061851,0.0029984,-0.06601,-0.053985,-0.41875,-0.30837
0.056538,0.19157,0.080148,0.088215,0.095927,0.045388,0.44425,0.17641
-0.073989,-0.30051,-0.065417,-0.021775,-0.0077505,-0.059835,-0.059998,0.46519
-0.044588,-0.31701,-0.10864,-0.069038,-0.017617,0.21553,-0.040717,0.11974
-0.066591,0.041159,-0.017627,-0.01434,-0.050753,-0.24591,-0.090189,-0.52119
-0.06121,-0.16198,-0.033875,-0.044956,-0.013219,-0.13892,-0.29977,0.17352
0.04355,0.18508,0.030702,0.019045,-0.029756,-0.087154,0.49734,0.2517
-0.00771,0.19391,0.1608,0.091905,0.063961,0.18469,-0.18858,-0.40128
0.037646,0.1239,0.020394,0.0174,0.049367,0.10825,0.0034181,-0.3999
0.056887,-0.25114,-0.16458,-0.071844,-0.042267,0.0053632,0.2066,0.49133
-0.011112,0.14579,0.057895,0.034698,0.023247,-0.076401,-0.13446,-0.26094
0.013476,0.054313,0.045767,0.00049799,-0.0044785,0.26884,0.31467,0.39127
0.08262,-0.091583,-0.038444,-0.042295,-0.055653,-0.23367,-0.21336,0.19388
-0.0090358,0.087128,0.030468,0.046331,0.048848,-0.015642,-0.29012,-0.065162
-0.084644,-0.23314,-0.076538,-0.030935,-0.0039639,-0.0089597,0.052859,0.24241
0.040429,0.13304,0.046502,0.014799,-0.019096,-0.020266,-0.0038145,-0.068859
-0.17519,-0.14295,-0.029676,-0.027258,-0.020073,-0.035257,-0.28637,-0.75327
0.07966,-0.12243,-0.038372,0.0074054,0.047958,0.10962,0.51224,0.72786
0.047022,0.16586,0.037593,0.010097,-0.017734,-0.10095,-0.090243,-0.54995
-0.029953,0.27993,0.098414,0.028498,0.0021514,0.0058148,0.055879,-0.27061
-0.11041,-0.19867,-0.11206,-0.04597,-0.04021,-0.068826,0.23191,-0.24552
0.096913,-0.024823,-0.014456,-0.0095399,0.019809,0.15296,-0.24295,0.32671
0.17225,0.076838,0.07156,0.044419,0.034181,0.37532,0.26996,0.78729
-0.085857,-0.096092,-0.010374,-0.0090549,-0.01254,-0.44014,-0.62223,0.069264
0.057891,0.073048,0.027962,0.0094129,0.0045572,-0.13695,0.078463,-0.1952
-0.11511,-0.089217,-0.049243,-0.017984,-0.016428,0.011372,-0.1451,-0.41031
-0.058554,-0.030542,0.029676,0.017318,0.033367,0.17634,0.36237,0.28025
-0.0079299,0.13703,0.012936,-0.0027225,-0.026328,0.13088,0.18624,-0.27915
0.082206,0.11409,0.024091,0.022732,0.030532,-0.18807,-0.10357,0.36268
-0.016243,-0.16379,-0.05487,-0.031765,-0.038588,0.17205,0.031584,-0.38279
0.046859,0.0054913,-0.028655,-0.017839,-0.022844,-0.211,0.15386,-0.0091905
-0.018663,-0.096643,-0.060529,-0.02109,0.0076261,0.11578,-0.37751,0.17996
0.03658,-0.031396,0.02284,0.02166,0.014158,-0.066177,0.07837,0.34567
-0.029545,0.023743,0.02014,-0.029345,-0.01054,-0.061059,-0.40743,-0.61276
0.018145,0.08707,0.058159,0.037705,0.035613,0.069316,0.11164,0.31703
-0.053182,0.098686,0.083602,0.051602,0.020186,0.10691,0.47294,-0.45137
-0.092974,-0.080003,-0.098119,-0.049834,-0.064474,-0.072739,0.42012,0.18467
-0.075418,-0.026046,-0.010494,0.006726,0.015893,-0.13346,-0.39713,0.046524
0.21264,0.065197,0.072271,0.033275,0.026538,0.19798,-0.17301,0.4776
-0.086565,-0.073026,-0.015166,0.0055859,0.0059598,-0.094634,-0.28153,-0.23594
0.12138,-0.052046,-0.10242,-0.069418,-0.023049,0.042494,-0.14355,0.17337
0.093841,0.21949,0.09038,0.073099,0.071729,0.27242,0.62469,0.36842
-0.08474,-0.10451,-0.078394,-0.090816,-0.11637,-0.49948,-0.14022,-1.1075
-0.13532,-0.088426,0.00019117,-0.0065999,-0.017172,0.070009,-0.00062617,-0.19729
0.15058,0.1027,0.084117,0.091659,0.096073,0.16052,-0.16812,0.46029
-0.080888,-0.093582,-0.013401,-0.03759,-0.026145,-0.0087431,0.12923,0.65594
-0.13608,0.058198,-0.017841,-0.0028714,0.0075198,0.031846,0.13921,-0.12377
-0.015915,-0.27606,-0.099857,-0.045488,-0.028664,-0.075967,-0.18776,-0.4928
0.02161,0.11669,0.030701,0.03061,-0.0088935,-0.026332,-0.018417,0.10832
0.18778,0.13678,0.02298,-0.00070935,-0.018466,-0.037003,-0.011264,0.56131
0.10038,0.25407,0.15058,0.094966,0.10704,0.4083,0.46517,-0.49213
-0.20874,-0.11729,-0.016604,-0.049921,-0.06986,-0.55742,-0.73768,-0.3536
0.034289,-0.25171,-0.096699,-0.029807,0.012982,0.26869,0.19383,-0.31537
