-0.052424,0.06885,0.083043,0.18763,-0.033724,0.0051702,0.0034222,0.01812
-0.071648,-0.135,-0.22107,-0.024805,0.02835,0.0043583,0.011257,-0.030609
0.1351,0.19806,0.43018,0.3808,0.08273,0.019367,0.011657,0.054229
-0.17496,0.075021,-0.21277,-0.025985,-0.011326,0.011178,0.020237,0.038502
0.22336,-0.44978,-0.39837,-0.34753,-0.074254,-0.012389,-0.03339,-0.030868
-0.23445,0.28792,0.13374,-0.30317,-0.035797,-0.027924,0.0068886,0.010008
0.22276,-0.13296,-0.12122,0.052257,0.010347,0.019211,0.023718,0.035774
-0.34497,-0.0080854,0.24594,0.34403,0.056542,0.0039585,-0.02994,-0.071205
-0.025915,0.14833,0.14349,-0.021086,0.0093019,-0.0034146,-0.0057669,-0.022294
0.59182,-0.0765,0.017328,-0.058264,-0.060778,-0.010747,0.0024342,0.04939
-0.41549,0.24804,-0.047755,0.03732,0.026214,0.0053964,0.010314,-0.028144
0.067866,-0.1511,0.093955,0.18723,0.035992,0.021594,0.017966,0.049871
-0.1934,-0.14906,-0.18629,-0.31235,-0.031529,-0.016814,-0.013531,-0.060077
0.35516,-0.20744,-0.11905,0.20963,0.018698,-0.0082407,-0.029337,-0.037357
0.011062,0.52435,0.12042,-0.059991,-0.032496,-0.007367,0.025369,0.079277
-0.28655,-0.3377,-0.25121,-0.14484,0.025333,0.024846,0.0022288,0.040036
0.097813,0.12708,0.30484,0.0024024,0.0041979,-0.021041,0.0028073,-0.014387
0.16778,0.40986,0.39181,0.1328,0.028715,0.02674,0.011396,-0.021578
-0.61144,-0.84944,-0.19776,-0.16623,-0.065376,-0.019452,-0.050292,-0.091114
0.36617,0.27865,-0.92785,0.0052747,0.0032086,0.0042951,0.036281,0.050182
0.3859,0.25539,0.785,0.40631,0.031611,0.019729,0.028706,0.066126
-0.24451,0.097224,-0.56996,-0.34544,-0.034402,-0.012285,-0.018512,-0.027838
-0.0078809,-0.27282,0.45596,-0.12537,-0.006786,-0.021419,-0.011719,0.018225
-0.17788,-0.12684,0.12938,0.049653,0.036859,0.00025364,-0.013386,-0.069056
-0.084732,-0.072907,0.057827,0.54495,0.010988,0.0060597,-0.015539,-0.00042298
0.26782,0.67126,0.47899,-0.17279,-0.0060894,-0.011553,0.02116,0.044728
-0.062745,-0.49528,-0.63695,-0.22245,0.0011984,0.04925,0.011113,-0.019215
0.46483,0.31822,-0.078248,0.020129,0.024782,-0.022239,0.00153,0.018974
-0.54552,-0.46673,-0.359,-0.67129,-0.076347,-0.022746,-0.007323,-0.0045855
-0.0044007,0.10224,0.25862,0.68132,0.048968,0.0087065,0.0081327,0.011703
0.38254,0.25063,0.23375,0.35367,0.041032,0.0017305,-0.014612,-0.010407
-0.46302,-0.41338,0.059568,-0.9487,-0.10031,0.0030252,-0.0053981,-0.039922
-0.015472,0.55431,-0.13551,0.56527,0.046854,0.027973,0.03551,0.04783
0.15895,-0.003566,-0.065053,0.084036,-0.048479,-0.0096232,0.021855,0.057205
-0.18462,-0.35329,0.14422,0.30271,0.082812,-0.024052,-0.046666,-0.074561
0.16198,0.10659,-0.48599,-0.38933,-0.011977,0.00016826,-0.0062232,-0.011664
-0.11777,-0.068688,0.41672,0.099923,-0.019964,0.00050639,-0.028814,-0.019716
0.26688,-0.28424,0.47326,-0.067023,-0.0033917,-0.022962,-0.012887,-0.036081
0.10424,0.24264,-0.47077,-0.19559,-0.024674,0.015857,0.041628,0.064444
0.4461,0.44312,0.037745,0.09751,0.064521,0.031209,0.056708,0.071113
-0.75076,-0.32234,-0.22157,-0.014205,-0.040769,-0.0079963,-0.022242,-0.055019
0.21264,-0.17827,0.0063166,-0.30182,0.010618,0.00771,0.00015371,0.037634
-0.20567,0.2657,0.22577,0.20571,-0.00052463,-0.023224,-0.032304,-0.049408
-0.31897,-0.0069423,0.38627,0.60346,0.019122,0.0085081,0.013266,0.027558
0.24164,-0.091248,-0.57036,-0.46824,-0.0010985,-0.014402,-0.034902,-0.059587
0.2299,-0.14489,-0.18628,0.082043,-0.045772,0.02509,0.010857,0.0017627
-0.13841,0.25271,0.16089,-0.16392,-0.068098,-0.029398,-0.0055226,0.0086689
0.20394,-0.4541,-0.0075938,0.13227,0.064768,0.0095377,0.0098681,0.023851
-0.036502,0.47632,0.43926,0.27754,0.048221,0.0090396,0.025852,0.0006025
-0.37419,0.036036,-0.14845,0.16575,0.077656,0.015996,0.011125,-0.0063462
0.23634,-0.43877,0.079808,-0.67442,-0.096865,-0.016396,-0.011061,0.0028799
0.2834,0.38841,-0.1106,-0.23492,-0.053408,-0.025515,-0.0097367,0.059253
0.24589,0.080871,-0.28138,0.54994,0.13,0.043481,0.038232,0.0061611
-0.1556,-0.46191,0.04612,-0.63453,-0.10112,-0.027988,-0.047082,-0.055166
-0.26207,0.40968,-0.15595,0.59375,0.0035373,0.010233,-0.0079755,7.6528e-05
-0.44371,-0.33437,0.5934,0.062184,-0.047794,-0.037061,-0.047518,-0.11715
-0.16171,0.26805,-0.27908,-0.16869,0.042207,0.033292,0.037617,0.085567
0.35976,-0.10246,0.03595,0.20938,0.016102,0.010305,0.036777,0.022683
0.13286,-0.093891,-0.3328,0.087891,0.014718,0.034471,0.02837,0.030527
0.0611,0.23106,0.12458,-0.18327,0.077091,-0.035021,-0.034281,-0.054692
0.30539,-0.4332,0.1973,-0.342,-0.10171,-0.034303,-0.033923,0.024875
0.1737,0.54454,0.047417,0.47446,0.079482,0.036478,0.029367,0.058064
-0.57458,-0.3144,-0.09447,-0.12879,-0.051603,-0.025871,-0.00085534,-0.025884
0.060461,0.39395,0.46202,0.11841,-0.018689,0.0052529,0.023601,-0.016571
0.2807,-0.043352,-0.14757,-0.54357,-0.071859,0.020605,0.032194,0.062084
-1.0173,-0.90104,-0.66963,0.12715,0.039027,-0.018687,-0.10022,-0.18863
0.99242,0.8441,0.26837,-0.032697,0.025204,-0.010859,0.0091607,0.075077
-0.34829,-0.39289,-0.20101,0.22023,0.051069,0.020812,0.0088907,0.041035
0.26338,0.13222,-0.0056282,0.16794,-0.00032982,0.029527,0.0085577,-0.024563
-0.26013,0.24249,0.41248,0.1461,-0.0274,-0.031613,0.02402,0.019559
0.41569,-0.19189,-0.185,-0.25299,-0.022557,-0.006487,0.01639,0.017725
-0.085232,-0.1291,0.36948,0.37457,0.021542,0.0031383,-0.022085,-0.0062627
-0.42753,-0.082674,-0.15601,-0.48167,-0.020739,0.0048282,0.010083,0.010177
0.11547,0.36255,-0.26043,-0.089365,0.060846,0.0061492,-0.004482,-0.011285
-0.080428,-0.1137,0.37623,-0.066483,-0.039003,-0.0087312,0.0042898,0.01486
0.36902,0.33916,-0.54422,0.15041,-0.03164,-0.00089027,-0.0028915,-0.01349
-0.19846,-0.42903,0.19511,0.040505,-0.0031334,-0.009447,-0.033988,-0.034368
-0.24199,-0.35007,0.053222,0.60778,0.093585,0.012501,-0.01091,-0.016945
0.41962,0.54264,0.22376,-0.67437,-0.08474,0.0025557,0.050798,0.061971
0.17798,-0.40128,-0.067857,-0.48889,-0.092081,-0.0078808,-0.020579,-0.0086124
-0.50571,0.34,-0.072217,0.55847,0.11925,-0.0029988,-0.013916,-0.056715
0.00098427,0.28869,-0.58628,0.20411,0.018789,0.017397,0.047505,0.058495
-0.17011,-0.54824,0.67918,0.088578,0.052451,0.0066232,-0.02373,-0.022115
0.50311,0.094331,-0.43974,-0.2903,-0.0997,-0.011698,0.0067452,0.037612
0.10511,-0.36186,0.42396,0.032284,-0.023488,-0.029583,-0.048655,-0.074658
0.11901,0.95063,0.46493,0.051426,0.038794,0.023439,0.067753,0.10212
-0.32306,-0.12383,-0.56788,0.20759,0.071267,0.014696,-0.011342,-0.010087
-0.76784,-0.76386,-0.23815,0.0048161,-0.074815,-0.016646,-0.036007,-0.098686
0.60601,0.45384,0.15631,-0.29312,0.045584,-0.0080252,0.02504,0.086484
0.11267,-0.25029,0.0057286,-0.51394,-0.10679,0.0093027,-0.023366,-0.079344
-0.027204,0.08641,-0.18956,0.3839,0.069521,-0.0038032,0.0065257,-0.0021364
0.00049722,-0.12843,0.17298,0.04482,-0.027074,0.022814,0.013471,0.05276
0.13414,0.34806,0.087004,-0.066238,0.009615,-0.020441,-0.017838,-0.0082086
0.37367,-0.10158,0.42144,0.17876,-0.047141,0.0067903,-0.0012189,0.025934
-0.72715,0.37299,-0.46247,0.46855,0.10701,-0.0051417,0.016558,0.0065953
-0.021385,-0.27704,0.35124,-0.025861,0.0575,0.045074,0.027602,-0.0040686
0.17671,-0.21006,-0.79959,-0.057093,-0.00097368,-0.053701,-0.015239,-0.014356
0.084185,-0.20917,0.19622,-0.79276,-0.18618,-0.043789,-0.026472,-0.040446
0.051162,0.20105,0.090107,0.23242,0.10303,0.035667,0.0011596,-0.012572
-0.22028,0.15322,0.28127,-0.13253,-0.094384,0.0049283,-0.011057,-0.0093395
0.26931,-0.078544,0.30856,0.23626,0.034314,0.043637,0.03791,0.078252
-0.1285,0.038304,-0.08716,0.10474,0.083413,0.01111,0.014859,0.015581
0.40725,0.021006,-0.67384,0.15415,-0.055729,-0.030209,-0.025699,-0.0099451
-0.50489,-0.011646,-0.040427,0.11337,0.055161,-0.017838,-0.0055555,-0.021675
-0.089473,0.035445,0.70049,-0.43672,-0.028548,0.0014206,-0.010296,-0.034932
0.17156,-0.23522,-0.14936,0.12393,-0.040757,-0.011289,-0.015892,0.021119
-0.18032,0.19246,-0.1157,0.06366,0.050002,0.030325,0.00965,-0.0012467
0.052085,0.0060239,-0.051339,-0.18544,-0.068821,-0.037322,0.012425,-0.038708
0.34604,0.095836,-0.19076,-0.027737,0.055633,0.012871,0.0087446,0.026731
-0.31492,-0.061978,0.0061457,0.35045,0.17296,0.0017366,-0.0087321,-0.015221
0.082405,-0.31158,0.30696,-0.2224,-0.2954,0.015616,0.02267,0.038923
0.62807,0.29211,0.050113,0.089148,0.087699,3.8143e-05,-0.0065726,0.048529
-0.51024,-0.016469,-0.29302,0.19791,-0.0060765,0.0018592,-0.018765,-0.033655
-0.047129,0.24745,0.076775,-0.29633,0.079514,0.020829,0.047965,0.041697
-0.27382,-0.5327,0.30194,-0.012816,-0.04598,-0.037243,-0.057082,-0.11687
0.12223,0.39383,-0.25706,-0.11765,0.0083713,-0.016663,0.0013933,0.013262
0.22164,-0.23024,-0.1467,0.11381,-0.022686,0.019485,0.019796,0.0408
-0.33825,-0.13919,0.046775,0.15645,0.017446,0.02381,-0.0099124,-0.011228
0.049874,0.29906,0.14286,-0.061555,-0.011602,0.0037493,0.013868,0.028936
0.22773,-0.37038,0.11693,-0.11182,-0.023804,-0.025259,-0.033596,-0.033866
-0.1126,0.52937,-0.024595,0.62172,0.10573,0.014933,0.027804,0.035107
0.29688,0.22132,-0.25177,-0.77589,-0.099893,-0.047346,-0.020218,-0.029289
-0.12228,-0.45449,0.090584,-0.0083751,0.030697,-0.0086436,-0.013204,-0.039062
0.0096151,0.17865,-0.084125,-0.036957,-0.057824,0.022017,0.041266,0.053067
-0.14083,-0.18539,0.12234,0.38837,0.094816,0.05273,0.026017,0.01296
0.11513,-0.030247,0.28049,0.33817,0.027088,-0.010124,-0.020097,-0.003104
-0.18231,-0.39975,-0.37478,-0.57769,-0.10517,-0.01035,-0.019318,-0.042171
0.13304,0.39075,-0.35843,0.40723,0.09635,0.02841,0.051369,0.098571
-0.31765,-0.22312,0.68957,-0.45583,-0.09474,-0.058192,-0.097456,-0.1203
0.60487,0.24875,-0.11309,-0.0088832,-0.060754,0.02647,0.04183,0.07434
-0.23099,0.55287,-0.1567,0.1409,0.097471,0.016655,0.023961,0.033924
-0.32946,-0.56645,0.20735,0.011583,0.013579,-0.056295,-0.064845,-0.13991
0.056994,0.16377,-0.06778,0.066515,0.024284,0.0032409,0.049317,0.045331
-0.034128,-0.079528,-0.20081,0.13582,-0.041699,0.0082414,-0.0080003,0.027628
0.48927,-0.13668,-0.36368,-0.068235,0.019065,0.013944,0.01373,0.01065
-0.15672,0.16693,0.52148,-0.20919,0.0034512,0.028656,-0.0022911,0.010508
-0.10153,-0.0094519,-0.14759,0.20483,-0.073194,-0.0019851,0.014424,0.0040739
-0.27357,-0.32578,0.096529,-0.28819,0.05427,-0.03885,-0.037759,-0.047656
0.56846,0.47365,0.32994,0.23192,0.033694,0.042846,0.04398,0.097292
-0.56248,-0.37704,-0.3717,-0.088515,-0.0026879,-0.030807,-0.045528,-0.1006
0.56405,0.053221,-0.049913,0.11535,-0.063144,0.0051696,0.021269,0.029936
-0.36101,0.20461,0.098244,0.20061,0.047386,0.017254,0.0016176,-0.01959
0.20508,-0.099179,0.25989,-0.32686,-0.014844,-0.0030074,0.012242,0.054899
-0.2097,0.10622,-0.10251,0.1644,-0.0073975,-0.0013828,0.0059823,-0.012686
-0.1464,-0.051253,-0.36823,-0.36523,-0.015774,-0.017116,-0.040656,-0.035081
-0.082317,-0.29618,-0.2351,0.29541,-0.0082108,-0.011014,-0.0025007,-0.0044541
0.31877,0.41123,0.31089,-0.25909,0.023561,0.0095266,0.011433,0.040401
-0.13767,-0.19524,-0.24003,0.32403,-0.021756,-0.017376,0.0016103,-0.032869
0.46326,0.077887,0.39766,-0.094661,0.043321,0.00272,-0.00025709,-0.0049662
-0.44833,-0.10811,0.16297,0.12644,0.030973,0.023555,-0.0016308,-0.039427
-0.067724,0.10284,0.10102,0.30824,0.081258,0.0064767,0.013273,0.03601
0.32355,0.066858,0.027302,-0.51769,-0.16587,0.021922,0.02876,0.080886
0.15509,-0.054641,-0.32295,-0.17939,-0.00011472,0.015022,0.013314,0.0091871
-0.25226,0.033681,0.12075,-0.1456,-0.046881,-0.061525,-0.041273,-0.046547
-0.03751,-0.23076,-0.30465,0.27894,0.092148,0.0026506,-0.026035,-0.031997
-0.40101,0.13788,-0.064728,0.50036,0.034374,0.019479,0.0040296,-0.033441
-0.04221,-0.16229,-0.051893,0.2138,0.022481,-0.0036698,0.001914,-0.0042045
0.38655,0.14585,0.24286,-0.84653,-0.099101,0.011109,0.030207,0.071336
-0.033395,0.011484,0.049716,0.17099,-0.0093199,-0.029881,-0.012356,-0.033179
0.30112,0.070834,0.17072,0.087153,0.011237,-0.0013212,-0.023764,-0.004892
-0.12614,-0.025341,-0.099389,-0.30024,0.017716,0.011375,0.027756,0.039449
-0.13836,-0.026153,0.018049,0.43197,0.06497,0.016646,0.002078,-0.016907
0.025396,-0.10409,0.027087,-0.06639,-0.04248,-0.016152,-0.014467,-0.032973
0.53928,0.26241,-0.47613,-0.27863,0.023037,-0.00061604,0.033025,0.077419
-0.70346,0.078502,0.2667,0.59258,0.10464,0.016606,-0.042941,-0.076287
0.15287,-0.1118,0.027627,-0.42973,-0.2046,-0.0036127,0.023041,-0.0020204
-0.22903,-0.49843,0.14733,-0.12032,-0.022404,-0.014756,-0.03507,-0.020391
-0.012021,0.40917,0.28559,0.31553,0.080557,0.013822,0.024348,0.055636
0.033878,-0.23339,-0.12488,-0.34366,-0.020813,0.018872,0.028781,0.022337
0.29629,-0.0040525,-0.62766,0.42251,0.072021,0.0074377,0.0088579,0.019679
0.03026,0.50409,0.38322,-0.1701,-0.023528,-0.036761,-0.012488,-0.038912
-0.14283,-0.34892,-0.062734,-0.076968,0.044377,-0.0047713,-0.035552,-0.052377
0.1467,0.054446,-0.090356,-0.096436,-0.098997,-0.021711,-0.0056715,0.033691
-0.030473,-0.090715,0.25548,-0.01781,0.023147,0.0063708,-0.0085256,-0.015085
0.011494,0.26958,-0.099932,0.53504,0.028204,0.033074,0.018885,0.0046969
-0.28536,-0.1625,0.07416,-0.45101,0.025734,0.019988,0.014708,0.031045
0.17639,-0.067532,-0.20234,-0.042539,-0.077834,-0.039985,-0.0047566,-0.013517
0.31441,0.18689,0.14457,0.2494,0.037989,0.017874,0.0079459,-0.011115
-0.43726,-0.36763,-0.34356,-0.47655,-0.0094507,-0.016867,-0.0014842,0.015427
0.21605,0.40295,0.56082,0.25294,0.069032,0.027952,0.029592,0.019696
-0.49973,-0.48378,-0.080499,0.23041,-0.10932,-0.019504,-0.063009,-0.076179
0.26008,0.13082,-0.097773,-0.33924,0.041389,0.0046303,0.0094298,0.04033
0.54454,0.3116,-0.0019702,0.17646,-0.002437,-0.001591,0.027652,0.072165
-0.51842,-0.15841,-0.21067,0.49373,0.055794,-0.0074197,-0.016733,-0.066945
0.16817,0.12015,0.16352,-0.77462,-0.057741,0.025678,0.031966,-0.0024156
0.13072,0.029945,-0.030205,0.42838,0.062767,-0.012138,-0.014189,0.023163
-0.36271,0.13243,0.12888,-0.18429,-0.075302,0.019442,0.008622,-0.029583
0.33015,-0.53503,-0.12469,0.23395,0.066775,-0.043754,-0.040219,0.011053
-0.063386,0.13497,-0.14903,-0.2109,-0.073696,0.009327,0.0036176,0.0044404
-0.43414,0.09365,-0.01244,0.27687,0.011087,-0.031935,-0.015636,-0.049296
0.25581,-0.10593,0.11544,-0.66879,-0.014642,0.036038,0.027636,0.045358
0.26231,0.29279,-0.091613,-0.005688,0.083801,0.018427,0.0090644,-0.00046029
-0.018799,0.039004,0.7192,0.34862,-0.044757,-0.02183,-0.0083173,0.0086933
0.26118,-0.13328,-0.46735,-0.023217,-0.032722,0.040567,0.053955,0.080654
-0.54107,-0.20829,-0.073424,0.82787,0.14371,-0.013013,-0.05402,-0.12842
-0.25574,0.049002,-0.24811,-0.80679,-0.20265,-0.026383,0.0035521,0.021927
0.56917,0.35069,0.1486,0.049936,0.10809,0.023678,0.015388,0.062729
-0.29289,-0.372,-0.032068,0.022061,-0.01771,-0.042838,-0.050238,-0.092148
0.10436,0.062354,0.17868,0.17786,0.0059054,0.0080736,0.032699,0.033705
0.012607,-0.11022,-0.054707,-0.60231,-0.047732,-0.0036599,0.0058624,0.026135
-0.027065,0.26787,-0.18487,0.69483,0.071166,0.046597,0.017236,-0.0055214
0.14361,0.17392,0.30424,-0.42468,-0.043962,-0.013353,-0.019457,0.0012451
-0.16108,-0.32949,-0.18096,-0.00093592,0.028386,-0.0040767,-0.018473,-0.00039591
0.0055986,-0.09452,0.28131,0.17684,-0.0012382,0.0039538,0.020156,-0.025992
0.17606,0.13545,-0.30934,0.093641,0.015278,-0.0049207,0.010621,0.033949
0.11691,0.10109,-0.039334,0.4851,0.062116,-0.0071537,-0.015555,-0.00010032
-0.40525,-0.011727,0.15328,-0.99076,-0.18886,-0.025932,-0.011118,-0.018551
0.3137,0.076765,-0.060094,0.17593,0.020328,0.0094217,0.024378,0.033543
-0.49873,-0.21265,0.062304,-0.012804,0.033775,-0.0022308,-0.017991,-0.054474
-0.0060499,-0.028986,-0.19091,0.3978,0.14095,0.048905,0.010611,-0.0089019
0.19773,-0.13792,-0.0078391,-0.26331,-0.079643,-0.024321,-0.022335,-0.0092419
0.32988,0.23437,0.23568,0.23017,-0.018326,0.020517,0.023945,0.046117
0.1375,0.096309,-0.023986,-0.045052,0.036002,-0.035219,-0.0068179,0.032042
-0.21945,-0.074859,0.11031,0.033678,-0.049424,-0.0040357,0.0023859,0.0029076
0.11374,0.18245,-0.034531,-0.1302,0.0066016,0.020227,0.027818,-0.010478
-0.093839,-0.076471,-0.26401,0.070015,-0.0069556,0.013991,-0.0090109,-0.016405
-0.071712,-0.21811,0.14058,0.10106,0.026968,-0.038529,-0.022519,-0.023078
-0.50046,0.086502,-0.09329,-0.68644,-0.048022,0.018764,0.002641,0.00053966
0.30885,-0.24759,0.028498,0.41086,0.025715,-0.0095909,-0.027441,-0.0080301
0.023771,0.16339,-0.16322,0.26917,0.037036,0.0012616,0.0043931,-0.025111
-0.007281,-0.015804,0.30345,0.14021,0.063817,-0.0035252,0.004465,0.019989
0.18927,0.24616,0.048755,-0.56019,-0.15203,0.022736,0.035396,0.033934
0.031412,-0.035776,0.028397,0.32552,0.053293,-0.0061122,-0.0042622,0.017054
0.091792,0.11351,-0.10747,-0.24122,-0.015777,0.0034444,0.018372,0.024207
-0.15254,-0.081351,-0.42072,0.082854,0.0077661,0.0043114,-0.0295,-0.030553
0.11762,-0.46612,0.27561,0.10888,0.053504,-0.0036663,-0.0072784,-0.038006
-0.23253,0.27011,0.1439,0.54588,0.0042406,-0.01272,-0.00092215,-0.021819
0.43549,0.14218,0.14241,-0.44404,-0.01492,-0.014936,0.005214,0.049037
-0.54383,0.040927,-0.060332,-0.29967,-0.07406,0.021185,0.026847,0.033796
-0.077063,-0.21208,-0.16325,0.025808,-0.016577,-0.028982,-0.04523,-0.067568
0.086633,0.0023785,-0.20873,0.072932,0.11892,0.030318,0.0001517,0.0028488
0.18328,0.014923,0.50385,-0.061573,-0.065498,-0.0036032,0.014802,0.018661
-0.090101,0.11706,-0.24564,0.20443,0.040045,0.002427,0.0067495,-0.012117
0.048749,-0.048649,-0.30875,-0.070061,-0.032771,0.0095712,0.0073712,0.02005
0.13851,-0.028107,0.347,-0.045351,-0.018014,-0.013362,0.0010457,0.013654
-0.041627,0.092534,-0.18244,0.23411,0.05321,0.0038345,-0.020172,-0.047013
0.37196,-0.11006,0.11341,-0.30143,-0.069148,-0.0015838,0.029404,0.072206
-0.48457,-0.0055824,0.24494,0.11993,0.028731,-0.0065108,-0.014613,-0.043064
0.079604,0.29345,-0.40297,-0.028704,0.033917,0.0043166,-0.0041223,0.0052822
-0.30622,-0.27867,0.092706,0.091569,-0.038539,0.014939,-0.0019099,0.013854
0.14524,0.2285,0.13835,0.1003,0.045079,0.001657,0.015277,-0.0096614
0.31726,-0.27256,0.014443,0.27366,0.034118,-0.0435,-0.038553,-0.057396
0.0015991,-0.078862,-0.077311,-0.71239,-0.13448,0.012227,0.024171,0.050573
-0.32056,0.084376,0.0021297,0.16393,0.015486,-0.0029989,-0.015133,-0.029152
-0.049614,-0.13963,0.13433,0.14558,0.10887,0.028103,-3.9969e-06,-0.022753
0.00026279,0.37746,-0.10305,-0.32692,-0.0026433,0.027516,0.038502,0.070075
0.022049,-0.095317,0.16564,0.23538,-0.084322,-0.043728,-0.0088588,0.0072877
0.68369,-0.039436,-0.46416,-0.1233,-0.026266,-0.0058819,-0.0092342,0.023209
-0.58347,-0.13266,-0.27123,0.17192,0.039322,0.016083,-0.0017348,-0.030815
0.071287,0.19603,0.46579,0.32728,-0.011961,-0.016889,-0.0099081,-0.030095
0.13698,0.15707,0.18636,0.11728,0.14069,0.020209,0.012991,0.001636
-0.43042,-0.46198,0.03176,-0.53724,-0.072708,0.018028,-0.0034574,-0.013947
0.30056,0.18043,0.079112,-0.13118,-0.081702,-0.031181,-0.0046132,-0.014396
-0.027764,0.066216,0.021152,0.26145,0.066809,-0.0023048,-0.0060725,0.016007
0.2589,-0.072626,-0.3254,-0.16795,-0.080454,0.003254,0.0078953,0.022764
-0.085457,0.074419,-0.0034142,0.29597,0.046568,-0.0065026,-0.0094226,0.02172
-0.29684,0.076291,0.13242,0.11185,0.010055,0.015488,0.012472,-0.0025614
0.19588,-0.13797,-0.34938,-0.6743,-0.010672,-0.0087494,0.011247,0.012538
-0.19005,-0.162,0.17607,0.36005,0.046502,-0.0010194,-0.028602,-0.05794
-0.1684,0.33306,0.29622,0.20919,0.032788,0.023024,0.017965,0.012547
0.19635,-0.28437,0.060705,0.063833,-0.044256,-0.02269,-0.013157,-0.018249
0.0348,0.2059,-0.38645,-0.33785,-0.059729,0.017865,0.026351,0.037094
0.20273,0.00062375,-0.11221,-0.046746,0.0020927,0.0037924,0.0035119,0.014422
0.045979,-0.11777,0.15163,0.065314,0.008678,-0.026119,-0.019354,-0.023863
-0.052989,0.18746,0.1095,-0.077915,0.0072993,-0.0095963,-0.011143,-0.023184
-0.018599,-0.25522,0.089218,0.35183,-0.0016384,0.014154,-0.011002,0.024159
-0.2377,0.054107,0.16708,-0.23324,0.029037,0.013845,0.027941,0.008682
0.035213,-0.049137,0.082363,0.30388,0.052552,0.020793,0.0041988,0.00061296
0.31182,0.34835,-0.35573,-0.22142,-0.056208,-0.042969,-0.0039723,0.015539
0.027166,-0.1293,-0.28278,-0.22843,0.014962,-0.0053515,-0.012044,-0.0011957
-0.50673,-0.21719,0.20586,0.60643,-0.01556,0.0088771,-0.019881,-0.049474
0.094539,0.26396,0.14147,-0.0086829,0.015958,-7.9502e-05,0.019466,-0.011914
-0.033012,-0.27172,-0.0056229,-0.65219,-0.023478,0.030413,0.012238,0.025783
0.1224,0.051379,-0.44359,-0.13419,-0.047902,-0.0089799,0.013014,0.0013383
-0.013688,-0.10169,0.29956,-0.067181,-0.010206,-0.016753,-0.017454,0.01646
0.021932,0.27023,0.50028,0.32046,0.097787,0.014778,0.014354,0.024293
0.33884,-0.18341,-0.44086,0.23776,-0.067285,-0.00048571,-0.016768,-0.029969
-0.010323,0.2099,0.32083,0.10327,0.057378,-0.0079957,0.0062402,0.040947
-0.24823,0.12209,-0.2775,0.1456,0.042217,0.0077991,-0.0025566,-0.036666
0.23747,-0.39262,-0.40129,-0.36258,-0.097208,-0.03902,-0.035198,-0.03648
-0.073435,0.11799,0.34582,0.013017,0.029501,0.0079096,0.010153,0.033571
-0.48887,0.090259,0.46935,0.23631,0.015777,0.047209,0.032285,0.0016381
0.0057013,-0.2817,-0.3922,-0.3308,-0.0058784,-0.014663,0.00029569,-0.022727
0.04434,0.16508,-0.18581,0.025871,-0.012255,-0.01346,-0.0074161,0.0076327
0.2553,0.093784,-0.014022,-0.12638,-0.034703,-0.0037586,-0.014153,-0.00071606
0.22122,0.30072,0.24006,0.27395,0.028371,-0.0011797,0.019112,0.030621
-0.014083,-0.37054,-0.11857,-0.1472,-0.026036,0.0019679,-0.0093862,-0.0075779
-0.29014,-0.052504,0.34046,-0.051509,0.02097,0.021069,0.0093939,-0.013751
0.0054218,-0.0099789,-0.47587,-0.12334,0.036681,-0.0067072,0.0047373,0.027572
0.10064,-0.015163,-0.082586,0.32785,0.021115,0.012017,-0.00031268,-0.024507
0.065817,0.074057,0.41898,0.04655,-0.025783,-0.032483,-0.021692,-0.014068
0.08716,0.10289,-0.049482,0.010545,0.005267,0.015776,0.0029308,0.027329
-0.10308,0.18964,0.12871,0.23563,0.020456,0.0082282,0.011051,0.013518
-0.24961,-0.47764,-0.18773,-0.31776,-0.13644,-0.03947,-0.036247,-0.055608
0.17632,0.085261,-0.26489,-0.25969,0.026917,0.021301,0.017541,0.0074786
-0.08531,0.24461,0.27996,-0.051464,0.065416,0.0033388,0.016444,0.015412
0.0026946,-0.063641,-0.19331,0.27583,0.033963,0.0085537,0.0075743,0.015256
-0.1237,-0.1461,0.19916,-0.33976,-0.02044,-0.0095978,-0.0089381,-0.024058
0.44824,0.24525,0.029099,0.41485,0.0037386,0.011638,0.013782,0.022585
-0.20446,-0.047477,-0.21765,-0.085219,-0.049955,-0.013538,-0.0025081,-0.0010553
