0.19661,-0.11935,-0.32084,-0.022268,0.011253,0.015926,0.14451,0.34678
-0.23442,-0.15405,0.14589,0.0081372,-0.029022,-0.017263,0.0058206,-0.26879
0.34641,-0.0098603,-0.30207,-0.087865,0.0006593,0.019104,-0.14382,-0.048954
-0.40539,-0.23796,0.032415,-0.02087,0.014497,0.00035421,0.039194,0.053567
0.23628,-0.17143,0.14493,0.045645,-0.034198,-0.057447,-0.14783,-0.20299
-0.064688,0.50498,-0.046197,0.034239,0.011036,0.018053,0.085063,0.16626
-0.097186,-0.041523,0.12742,0.00020738,0.0019586,0.0085227,0.067128,-0.049118
0.13154,0.46658,-0.27607,0.061117,0.01684,0.0079598,-0.013015,0.073153
0.067793,-0.8088,0.47959,-0.056399,-0.0067585,0.016365,0.04862,-0.060516
0.44745,0.34318,-0.15251,-0.040066,0.032694,0.025642,0.096259,0.12781
-0.75091,-0.059453,0.10698,0.10968,-0.021167,-0.02724,-0.0028056,-0.0030188
-0.15767,-0.36335,-0.042119,-0.01389,-0.0044419,-0.002343,-0.19401,-0.14133
0.081367,0.70417,-0.51005,-0.14557,-0.026673,0.013709,0.084981,0.0088457
0.5702,-0.45789,0.14461,0.042579,-0.0098746,-0.04211,-0.18929,-0.0064517
-0.32226,-0.3957,0.44221,-0.0041131,0.014615,0.040921,0.16302,0.21849
0.13117,0.42147,-0.040989,0.034887,0.038942,-0.0026375,-0.0062481,-0.14458
-0.10928,0.084339,-0.31321,0.058312,-0.0072125,-0.023741,0.014083,-0.11873
0.30595,0.16448,-0.16263,-0.11328,-0.030089,-0.03706,-0.088515,-0.0078599
-0.48543,0.15144,0.13142,0.082686,0.032826,0.028861,0.076147,0.0016291
0.34918,-0.39861,0.19634,0.036716,-0.029393,-0.020167,0.13218,0.24685
0.017521,0.083489,0.15952,-0.017126,0.0020125,-0.027026,-0.10913,-0.13836
-0.49853,0.15779,-0.20366,-0.032366,0.0098602,0.12589,0.20249,0.10448
0.44012,-0.0058544,0.092443,-0.017178,-0.01366,0.024371,-0.098045,-0.16502
-0.40921,-0.6106,-0.11567,-0.0655,-0.0060489,-0.051039,-0.33929,0.0059921
0.4539,0.41704,0.070451,0.12743,0.056127,-0.031177,0.088447,-0.01602
-0.43825,0.19348,-0.044843,-0.070836,-0.038066,-0.050244,-0.016901,0.072571
0.65787,-0.29378,-0.18077,0.03564,0.0082712,0.015359,0.1274,0.036111
-0.21721,0.25081,-0.040956,-0.036741,-0.0079291,0.047248,0.13226,0.013903
-0.14789,0.12506,0.33501,0.040928,-0.00062907,-0.025736,-0.071508,-0.01866
0.10179,-0.64586,0.04025,-0.027607,-0.024382,-0.024319,-0.053759,-0.093653
-0.013282,0.11085,-0.1916,-0.038922,0.022514,0.082776,0.13828,0.12454
-0.46784,-0.20002,-0.041139,-0.008795,-0.016088,-0.063403,-0.043276,-0.18413
0.083522,0.58827,0.068829,0.046484,0.00045761,-0.0011899,-0.1311,0.09054
-0.11591,0.13823,0.09059,0.016401,0.009556,0.012531,0.060854,-0.058027
1.0355,0.55373,-0.015465,0.11044,0.073494,0.025637,-0.08575,0.18413
-0.25276,-0.40785,-0.10099,0.084885,-0.034584,-0.039036,-0.0012389,-0.05657
-0.2489,-0.29461,-0.032731,-0.31931,-0.049357,0.006824,0.11123,-0.044602
-0.57397,-0.40331,0.057479,0.092519,0.052385,0.023178,-0.029087,-0.013633
0.064583,0.034921,-0.13372,-0.015454,-0.081,-0.036538,-0.038478,-0.057267
0.75639,0.058636,0.15289,-0.079786,0.0037162,-0.0082356,-0.0017863,-0.027506
-0.087733,-0.13346,-0.058059,0.096412,0.033365,0.076615,0.11335,0.14498
-0.055504,0.29285,0.12468,0.0072202,0.016124,-0.0011339,-0.043606,0.091599
-0.58432,-0.25697,-0.056824,0.037266,0.0070551,-0.054446,-0.018677,-0.10329
0.038888,0.50429,-0.0018851,0.0082414,-0.0013575,0.017822,0.040412,-0.073974
0.279,0.18935,-0.08703,0.061473,0.006668,-0.003355,-0.014195,0.022201
0.57097,-0.053397,0.10775,-0.068717,-0.0079319,0.0069459,-0.096117,0.15356
-1.0794,-0.43038,0.0025078,-0.054924,-0.037487,-0.11523,-0.11917,-0.34363
0.87232,0.52937,0.056804,0.015732,0.027135,0.075632,0.096225,0.2114
-0.81169,-0.53206,-0.1284,0.0090615,0.013773,0.040674,0.096358,-0.070357
0.47265,0.059448,-0.0058421,0.064385,-0.0075398,-0.016927,0.059682,0.031662
0.83516,-0.22298,-0.0039016,-0.069319,-0.013604,0.1214,0.070254,0.14411
-1.1398,-0.25495,-0.17525,-0.05672,-0.020217,-0.14634,-0.17898,-0.14593
0.48213,0.73922,0.12302,0.10982,0.042829,0.038611,0.0047486,0.091596
-0.68608,-0.16553,0.1038,-0.046047,-0.027641,-0.027591,-0.037071,-0.19062
0.78086,0.25555,0.04956,-0.055159,0.002732,-0.0096532,0.13934,0.18588
-0.13671,-0.47547,0.0072985,-0.0029817,0.0089522,0.021653,0.025768,0.07092
0.034671,0.31131,-0.031753,0.040511,0.030101,0.050538,0.045071,-0.045272
-0.26941,-0.0045938,0.13378,0.059803,-0.0119,-0.047824,-0.30819,-0.10199
-0.36213,-0.60812,-0.20905,0.039148,-0.031014,0.0083364,-0.014867,-0.030199
0.81932,0.65727,0.11775,0.158,0.035434,-0.014557,0.069803,-0.072652
-0.60693,-0.5465,-0.12097,-0.19316,-0.031035,-0.021778,0.027979,0.12246
0.086749,0.61996,-0.10452,-0.23291,-0.019135,0.011109,0.058116,0.0092013
0.68238,-0.24787,0.059253,0.054954,0.0090207,-0.047856,0.06024,0.018677
-0.67913,0.70239,-0.025767,0.077693,-0.0087164,0.14563,0.1434,-0.019384
0.16612,-0.68448,-0.1149,0.04747,0.029456,-0.064538,0.0085294,-0.025341
0.4131,-0.61707,0.29382,0.13732,0.037664,0.0010375,-0.12145,0.064524
-0.3914,0.55765,0.12313,-0.1129,0.0001437,0.013565,-0.071216,0.016623
-0.50464,-0.15291,-0.049378,-0.077965,-0.03655,-0.051304,-0.071568,-0.10621
0.30919,-0.058795,-0.0068473,0.046355,-0.080664,0.039829,-0.25093,-0.038459
0.43526,0.57934,-0.15053,0.15748,0.13297,-0.018589,0.34956,0.15697
0.079694,0.49488,-0.053885,-0.058474,-0.021017,-0.0084042,0.033998,-0.028347
-0.48862,-1.1715,-0.18844,-0.14203,-0.058478,-0.0079801,0.022021,-0.079475
-0.39171,0.080517,0.35016,0.030564,0.012758,-0.0015449,0.03444,0.049839
0.74762,-0.11702,0.014336,-0.010206,-0.0024401,0.042639,-0.19148,-0.039322
-0.46807,0.20208,-0.1875,0.055767,-0.0021767,0.0081129,0.0037904,0.051194
0.88261,0.14943,0.066677,-0.052418,0.0061295,-0.073041,-0.071807,-0.10059
-0.3272,0.020437,0.044978,0.0019257,0.0072015,0.026527,0.16263,0.021005
-0.47551,0.55978,-0.15604,0.024408,-0.0065717,0.010538,0.1075,0.11139
-0.15974,-0.38184,0.013111,0.047131,0.042923,-0.0035269,-0.095696,-0.048053
0.29595,-0.13547,0.10905,-0.062144,-0.024241,0.038952,-0.017531,0.1365
-0.11987,0.061234,0.13268,0.11083,0.018073,-0.018704,0.012557,-0.19429
0.35531,-0.17629,-0.017814,-0.12167,-0.041596,-0.013145,-0.14037,-0.063842
-0.21841,-0.21382,-0.1172,0.18515,0.014992,0.054764,0.12262,0.059093
0.30585,0.11829,0.051163,-0.20377,-0.0078568,-0.073639,-0.029328,0.112
0.076018,0.61915,-0.10111,-0.031264,0.0068696,0.022848,0.096603,0.016687
-0.87595,-0.48624,-0.13102,-0.0087261,-0.011068,-0.0077086,-0.024948,-0.10977
0.655,-0.21228,0.24869,0.12928,-0.00667,-0.024687,0.034614,-0.017597
-0.40628,-0.12682,0.052675,0.13286,0.020557,0.019132,-0.18575,0.042914
0.2798,0.24073,-0.086327,-0.16163,0.0087073,-0.00064316,-0.0054769,0.040145
0.0060376,0.17112,-0.12841,-0.058278,-0.018189,-0.020778,0.092784,-0.04973
0.056883,0.18367,-0.0095186,-0.08757,-0.0049468,0.061002,-0.10748,0.061991
0.098564,0.16858,0.092691,0.18876,0.048764,0.0030628,0.3492,0.031301
-0.22746,-0.089344,0.04752,-0.017723,-0.036636,-0.014596,-0.30073,-0.11847
-0.24203,-0.47211,-0.072865,-0.019124,-0.034707,-0.023183,0.053497,-0.012233
0.64695,0.24652,0.053151,0.012726,0.046388,-0.022901,-0.040714,-0.0013116
-0.0081512,-0.066053,0.1527,-0.039672,-0.036066,0.071808,0.11934,0.04745
-0.69418,-0.11858,-0.16502,0.010568,0.037601,-0.059835,-0.045739,0.0093942
0.329,-0.1716,-0.057097,0.029833,-0.0067189,0.011391,-0.022222,-0.021478
-0.11164,0.27525,-0.1264,-0.013971,0.017884,0.011653,0.086171,0.1034
0.038567,-0.063992,0.26615,-0.059064,0.0094431,-0.035882,-0.042881,-0.053448
0.7964,0.1047,-0.021621,0.17535,-0.0087313,0.017103,-0.059281,0.062714
-0.62501,-0.087898,-0.022333,-0.13115,-0.075499,0.053456,0.044174,-0.063559
-0.6838,0.2778,-0.041674,-0.087655,0.012784,-0.043836,-0.083682,-0.13496
0.30263,-0.16093,-0.15828,-0.013873,-0.03219,0.022402,-0.050871,-0.0023533
0.02408,-0.13562,0.37789,0.14568,0.095117,-0.0365,0.12906,0.06954
0.80195,0.20636,-0.37791,0.024607,0.012671,0.014283,-0.033676,0.058184
0.080974,-0.018408,0.1456,-0.12644,-0.068028,-0.012294,-0.013319,0.042389
-0.68803,-0.45255,-0.0034995,0.13039,0.087649,0.0091783,0.082552,-0.11821
-0.19625,0.28376,-0.050545,-0.040833,-0.028182,0.00868,0.02836,0.13082
0.34878,0.38226,0.1305,-0.015396,-0.033048,0.025401,0.0038309,0.030882
-0.2605,-0.52796,0.0012875,-0.028153,-0.021213,-0.065736,-0.17941,-0.14577
0.058151,0.28404,0.023064,0.029728,0.014567,0.031862,0.078557,-0.017677
0.70854,-0.28611,-0.14798,-0.053168,-0.0043588,0.02086,-0.044691,0.070088
-0.63052,0.48638,0.011265,0.0040899,-0.00028152,0.01787,0.081344,-0.055416
-0.13001,-0.29742,0.00026342,0.068564,0.018706,-0.032389,-0.0299,0.042632
0.37665,0.26976,0.10747,0.0075056,0.029022,0.018007,0.18231,0.14527
-0.65361,-0.52051,-0.15992,-0.077318,-0.047488,-0.010966,-0.079977,-0.24725
0.2916,0.10116,0.049034,0.048739,0.015795,-0.025656,-0.22325,0.04541
0.45908,0.34247,0.31975,0.0031201,0.0080501,-0.0024813,0.050033,0.055433
0.18095,-0.3544,-0.30134,-0.065585,-0.03933,-0.034854,-0.063363,0.0026345
-0.24308,0.31919,-0.0097912,-0.03239,0.014427,0.049532,0.1729,0.08336
-0.74918,-0.45469,-0.040064,0.10249,0.052262,0.016702,0.14372,-0.060903
0.15449,0.1054,0.006376,0.088643,-0.027289,-0.0080771,-0.25841,-0.085819
0.41123,0.61439,0.059417,-0.01973,-0.0054102,0.061205,0.030267,0.04792
0.1972,-0.2214,0.025521,-0.0043488,-0.014869,-0.056814,0.064976,0.051141
-0.17191,-0.26759,0.15484,-0.21706,-0.016568,0.0048228,-0.0060882,-0.1313
0.2753,0.42209,-0.1307,0.037457,0.036402,0.011501,0.1834,0.17172
-0.14562,-0.53352,-0.088869,0.032945,0.01908,-0.068176,-0.14902,-0.10325
-0.39907,0.30664,-0.1493,0.059003,-0.06849,0.0079999,0.050108,0.066223
0.31042,-0.090087,0.43823,0.085012,0.047178,0.021477,-0.2983,-0.0082537
-0.30513,-0.38599,-0.1696,-0.021267,0.030199,0.035092,0.16465,0.047707
-0.21111,0.5174,-0.16747,-0.048474,-0.056869,-0.044518,-0.10789,-0.070766
0.35531,-0.51366,0.047005,-0.04324,0.0047951,0.056428,0.14225,-0.18367
0.28255,0.16138,0.0058998,0.057028,0.03559,-0.0056022,0.22808,0.1785
0.036604,0.22167,-0.0010315,-0.060162,-0.034696,-0.066503,-0.24059,-0.061294
-0.68375,0.30559,0.026562,0.034862,0.028418,0.061084,0.0098948,0.12153
0.59931,0.1584,0.17449,-0.0094637,-0.017156,-0.0059477,0.065456,-0.03765
0.080012,-0.2743,-0.050048,0.025629,-0.0072927,-0.025802,0.027497,0.016478
-0.40102,-0.69791,-0.11686,0.007342,0.011139,0.016725,-0.11977,-0.044051
0.11277,0.094215,-0.081904,-0.03312,-0.0088207,-0.011554,-0.024847,-0.055505
0.4214,0.36992,0.12387,-0.049046,-0.020492,0.029711,0.023345,0.051682
-0.15869,-0.025416,0.015027,0.068591,0.046126,-0.04712,-0.013966,0.05775
-0.55158,0.7693,-0.12004,-0.04797,-0.012503,-0.007662,0.12921,0.01629
0.51609,-0.75903,0.17151,0.061412,0.021908,0.046657,-0.062427,-0.0815
-0.87553,-0.067294,-0.20392,-0.033905,-0.015142,-0.0089378,-0.010635,-0.025401
0.38641,0.053662,0.09781,0.063533,-0.0067986,-0.033553,-0.043668,0.0045633
0.52464,-0.098774,-0.032104,0.17322,0.0077361,0.12151,0.14275,-0.0071647
-0.3481,0.024925,0.17253,-0.36935,-0.06519,-0.13726,-0.10827,0.017968
0.47321,0.085273,-0.10812,0.092184,0.048204,-0.028478,-0.024073,0.057206
-0.011312,-0.0064166,-0.12368,0.02727,-0.0031117,0.096378,-0.02732,-0.021452
0.024983,0.08292,0.23551,-0.06284,-0.0075623,-0.036153,0.10007,0.048457
-0.43588,0.099453,-0.084956,0.10468,0.027661,0.073823,0.11545,-0.0057186
-0.029085,-0.33716,-0.092495,0.031463,0.017119,-0.019177,-0.18444,-0.05829
-0.49071,0.50037,0.002482,-0.093657,-0.054524,-0.12004,-0.13538,-0.10089
0.12383,-0.53722,0.028766,0.03484,0.015895,0.060133,0.12244,0.030908
0.8772,0.76691,-0.028557,0.065555,0.025045,0.036822,0.12872,0.11847
-0.28469,-0.62084,0.010807,-0.025455,0.0037728,-0.025972,-0.12369,-0.065009
-0.0097041,0.1333,0.092502,-0.0048584,-0.025005,0.0045508,0.084577,0.050196
0.16334,-0.19095,-0.025741,-0.022447,0.008486,0.0034252,-0.027256,0.010006
-0.64069,-0.3443,-0.094476,-0.0092871,0.0022222,0.0019595,-0.013534,-0.05395
0.48408,0.35274,0.11187,-0.013391,-0.028474,-0.023212,-0.030244,0.099284
0.092049,0.15794,-0.06424,0.042681,0.033484,0.060799,0.16507,-0.070399
-0.34023,0.37559,0.17272,-0.059951,-0.030549,-0.066238,-0.2007,-0.10271
0.078297,-0.15941,-0.20967,0.0072468,0.0062631,0.025455,-0.0020957,0.072572
-0.15158,-0.30022,0.037794,0.041979,0.027114,0.007849,0.050453,0.04189
-0.021162,0.16231,0.00082126,-0.02502,0.0011618,-0.033009,-0.073859,-0.037471
0.22805,-0.17164,-0.11715,-0.044286,-0.055608,0.012364,0.023627,-0.007876
0.37745,0.056896,0.075253,0.024036,0.028936,0.011259,0.14743,-0.00065797
-0.46412,-0.20578,0.14932,0.078782,0.059601,0.049702,-0.054649,-0.030142
0.25695,0.15999,-0.097115,0.10428,-0.0026865,-0.0363,0.017878,0.045161
-0.22626,0.22824,0.047576,-0.1499,-0.048668,-0.043574,0.012115,0.030197
-0.055415,-0.043341,-0.049092,-0.028182,-0.031639,0.012287,-0.0029466,0.0026837
0.15201,-0.11881,-0.020008,0.015583,-0.014287,-0.0093423,-0.12206,-0.030547
0.21708,-0.1268,0.087549,-0.050465,0.042278,0.032121,0.052801,0.1401
-0.45207,-0.36907,-0.102,0.046723,0.044153,0.019389,-0.0093539,-0.143
-0.14178,0.71021,0.0592,0.04137,-0.016607,-0.00082158,-0.049781,-0.021621
0.34636,0.36002,0.023882,-0.082114,-0.01512,-0.0052798,0.050072,0.0036599
-0.16466,-0.76664,-0.067429,0.074842,-0.021798,-0.056707,-0.013013,-0.05148
0.44393,0.16096,-0.019156,0.0045676,0.002359,0.04782,0.043417,0.05582
-0.32803,-0.36373,-0.02602,-0.0037799,0.02608,-0.019971,-0.030023,-0.0092817
0.1579,0.62872,0.053418,0.034215,-0.0052899,0.044523,0.047753,-0.03462
-0.3992,-0.18884,0.04816,-0.068921,-0.021355,-0.094655,0.025802,0.09022
0.19049,0.3577,0.060545,-0.039676,0.0014473,0.062523,0.043211,0.014278
0.42875,-0.39928,-0.080767,0.075265,0.03202,0.031726,-0.018992,0.042271
-0.11188,-0.14822,-0.070878,0.018427,-0.015411,-0.030752,-0.14679,-0.060693
-0.15418,-0.40283,0.019751,-0.045649,-6.1279e-05,0.00011487,0.010361,-0.029894
-0.34816,0.58366,-0.0125,-0.030466,0.0078944,-0.00066324,0.061654,0.024244
0.29982,0.067854,0.12846,0.033262,-0.030505,-0.02527,-0.0077693,-0.055464
0.13797,0.25278,-0.058366,0.0052879,0.0097858,0.043495,0.022408,0.066296
-0.50655,-0.14286,-0.011524,-0.075238,-0.011883,-0.028712,-0.11139,-0.079444
-0.071016,-0.68255,-0.044483,0.06481,0.037187,0.00036119,0.038259,-0.023773
0.14761,0.31833,0.14673,0.080937,-0.015081,0.021435,-0.0348,0.022784
0.288,-0.15348,-0.14132,-0.098285,0.0029092,-0.027866,0.14684,0.045083
0.43107,0.22959,0.0055775,0.072699,0.020534,0.032297,0.02046,0.020064
0.052658,0.65933,0.0020647,0.17074,0.0062535,-0.016668,0.037922,0.1354
-0.37468,-0.29199,-0.14312,-0.28947,-0.03233,0.012896,-0.029392,-0.093303
-0.3103,-0.053358,0.21953,-0.034853,-0.048422,-0.050756,-0.04325,-0.025536
-0.097216,-0.32711,0.012888,0.028669,0.028356,0.042453,-0.099604,-0.020727
0.24254,-0.28281,-0.051343,0.01929,-0.012741,-0.035601,-0.035932,-0.1803
0.36061,0.35787,0.10538,0.12598,0.102,0.050925,0.037819,0.13672
-0.67487,-0.045581,-0.15751,-0.032421,-0.056798,-0.034103,-0.0028931,-0.0457
0.16777,-0.1465,-0.0042965,-0.048173,-0.012304,0.068423,0.09327,0.11669
0.055194,0.013211,0.0098825,-0.037397,-0.014303,-0.040226,-0.015551,0.03828
0.23363,0.23631,-0.0061618,0.09411,0.0076536,-0.039989,-0.038251,-0.062153
-0.034475,0.12222,0.071923,-0.036678,0.022364,0.04555,0.058228,0.080712
-0.072872,-0.074535,-0.01438,0.061623,-0.024891,-0.072672,-0.021717,-0.12742
0.42663,0.46132,-0.070507,-0.049702,0.014221,0.058616,-0.097845,0.047181
-0.40094,-0.57403,-0.01128,-0.028272,-0.016711,-0.029075,0.095272,-0.028835
-0.60945,-0.55644,0.14697,-0.0081547,0.022745,0.023939,-0.0057041,-0.012049
0.3942,0.51955,0.052111,-0.013701,-0.0082304,0.022629,0.082347,-0.019713
0.27208,-0.10739,-0.12426,0.032791,0.023013,-0.024998,0.045566,0.065525
-0.033557,0.027146,-0.11641,0.022063,-0.00080378,0.013947,-0.19531,-0.11543
0.29379,0.59013,0.013738,-0.068729,-0.071866,-0.032457,-0.00027994,0.11736
0.093961,-0.14992,0.13438,0.066043,0.044308,0.046589,-0.041228,0.021814
-0.72228,-0.33011,0.043741,-0.01784,0.019783,-0.0069105,0.096533,0.027525
-0.071018,0.054366,-0.14731,-0.038082,-0.043638,-0.044698,-0.039082,-0.068887
0.55524,-0.15385,-0.046777,0.037375,0.02615,0.0034047,-0.025036,0.04478
-0.48271,0.14785,0.057335,0.005838,0.0027532,0.012331,0.12401,-0.037909
0.20075,-0.33442,0.14211,0.0079242,0.019052,0.013327,0.010123,-0.098123
-0.031499,0.044257,0.027793,0.019767,-0.010938,-0.0091932,0.039508,0.075501
0.10522,0.13226,-0.098782,0.017176,0.014197,0.030763,-0.13997,0.069663
0.39483,0.371,-0.074636,-0.086707,-0.046379,-0.023007,0.10356,-0.091212
-0.37995,-0.049591,0.012983,0.0040757,0.018041,-0.014232,-0.16841,-0.023286
0.077952,0.089751,0.04559,0.030965,0.0041321,0.018015,0.058801,0.063345
-0.16204,-0.1028,0.022082,-0.0065048,-0.0023171,-0.020063,0.057998,-0.0027535
0.015642,-0.33273,-0.058316,0.016533,0.0064248,0.0042694,-0.046119,0.012691
-0.21903,-0.0011726,0.022738,-0.024726,-0.0087279,0.012779,0.043344,0.015226
0.39774,0.10057,-0.023877,0.0029963,-0.016507,0.0053351,-0.0093026,0.034865
-0.065276,0.065051,0.028616,0.022221,0.029999,-0.026014,-0.024018,-0.10967
-0.015331,0.02515,-0.0068832,0.025857,0.021458,0.043605,0.0073536,0.040855
0.094039,0.0056021,0.010741,-0.024474,-0.018653,-0.012455,0.022554,0.06306
-0.26035,-0.14767,0.06639,-0.073533,-0.019978,-0.037953,0.013871,-0.05975
0.039582,0.11477,-0.0034608,0.043074,0.0019147,0.0062561,-0.034349,-0.046758
0.10464,-0.079713,-0.081069,0.020717,-0.0075818,0.057865,0.010601,0.024205
-0.0009467,-0.22159,-0.0096066,-0.023651,-0.0014886,-0.070343,0.062691,0.044745
0.021471,0.63517,0.0083812,0.050107,0.028129,0.043858,-0.073381,-0.022678
0.0014741,-0.095727,-0.12035,0.077274,0.018898,-0.013236,0.032244,0.058127
-0.38823,-0.1186,0.18267,-0.052203,-0.021248,-0.022562,-0.12009,-0.18758
0.43048,-0.091342,-0.066914,-0.12794,-0.029706,-0.015171,-0.0064968,0.062022
0.10504,-0.24989,0.0055645,0.037274,0.017038,0.048037,0.14693,0.12039
-0.37423,0.068673,0.18066,-0.0018799,-0.0059836,-0.0049638,-0.011057,-0.043493
0.45109,0.39505,-0.12848,-0.018564,-0.020668,0.013008,0.08214,0.14799
0.031447,-0.4037,-0.00093448,0.081395,0.051013,0.078089,-0.11274,-0.11098
-0.39337,-0.26516,-0.054589,-0.029697,-0.025493,-0.13828,-0.11179,-0.087466
-0.13749,0.3258,-0.10223,0.062531,0.038639,0.027601,0.060911,-0.0095441
-0.10782,0.19601,0.090781,-0.032426,-0.022482,-0.025993,0.068741,0.019999
0.30534,0.43708,0.040786,-0.0099437,-0.013783,0.0056448,0.090785,0.062909
-0.053165,-0.25054,-0.032413,0.012621,-0.013542,0.044594,-0.068636,-0.068504
0.51354,-0.3928,0.051999,-0.043025,0.0094619,0.0052289,0.0045275,0.047971
-0.14122,-0.022443,0.029359,0.002732,0.008468,-0.010552,-0.16587,-0.0088107
-0.2812,0.18904,-0.11536,-0.045339,-0.016288,-0.010283,0.077237,-0.042605
-0.013829,-0.13072,0.063253,0.062983,0.01363,0.021826,-0.015043,0.041262
-0.43087,-0.18001,0.049182,-0.031377,-0.018649,-0.023563,0.011586,-0.022099
0.20396,0.031894,-0.064676,0.031232,0.03557,0.056587,0.056556,0.072424
0.42341,0.35554,-0.0060492,0.040027,-0.011072,-0.10509,0.15171,-0.0032238
-0.2092,6.0699e-06,-0.0028042,-0.036268,0.0054851,0.053692,-0.13257,0.031972
0.21217,-0.21049,0.037561,-0.018188,-0.0086566,0.0014228,-0.10146,-0.09587
-0.048115,-0.12659,-0.0031519,0.03139,-0.0068796,-0.019943,0.025365,-0.059156
-0.31247,0.20244,0.015061,0.0026452,0.002686,0.051882,0.051406,-0.014652
0.42439,0.2554,0.013931,-0.050161,0.011912,-0.025465,0.053509,0.1075
-0.17591,-0.0068627,-0.139,0.021097,-0.010709,-0.01773,-0.047604,-0.013387
-0.17776,0.15663,-0.021064,-0.025913,-0.010642,0.012535,0.028448,0.067655
-0.050921,-0.60649,0.19695,0.035416,0.0042759,-0.020579,-0.13288,-0.079347
-0.23305,-0.20147,-0.054084,-0.0056415,0.0029027,0.023677,0.046494,0.061005
0.44041,0.23498,-0.0074234,0.0075003,0.024522,0.028333,0.082524,-0.081709
0.1421,0.4367,0.0018489,0.067427,-0.00088126,-0.029747,-0.047603,0.0082027
-0.35381,-0.50767,-0.1742,-0.12234,-0.041726,-0.0017564,0.00064183,-0.012726
0.6406,0.25099,0.21454,0.0010542,-0.011769,-0.043551,0.032749,0.082569
-0.57753,0.11031,0.058444,0.008148,0.0032822,0.032742,0.0025718,-0.080233
0.23421,-0.19558,-0.11956,0.086542,0.073849,0.0086578,-0.018975,0.054328
-0.22829,-0.0033349,-0.031068,-0.0060084,-0.0032276,-0.0062883,0.023263,-0.0051789
0.043834,0.31774,0.049821,-0.0040665,-0.032807,0.02692,-0.15942,-0.10189
-0.2682,-0.38485,-0.09621,-0.040715,-0.030786,0.022104,0.3551,0.06925
0.29823,0.062258,0.069485,-0.02249,0.018141,-0.044577,-0.26891,0.039516
0.0023498,0.17395,-0.10181,0.011304,-0.0035197,-0.0095648,-0.086048,0.011696
-0.19439,0.0022922,0.16314,-0.0098254,0.013356,0.0016154,0.075486,0.0007468
0.48853,0.1214,0.0361,0.0077544,-0.001712,-0.019321,0.035697,-0.041096
-0.13843,-0.16875,-0.04553,-0.021991,-0.017545,0.052269,0.05176,0.010213
-0.13306,-0.4667,-0.0036185,0.072704,0.028374,-0.0025736,0.044559,0.0053881
0.29803,0.28578,-0.095811,0.033887,-0.0123,-0.019828,-0.01063,-0.024906
-0.52011,0.13998,0.01422,-0.060459,-0.014412,-0.030625,-0.13865,-0.034029
0.35598,-0.023571,-0.055704,0.023949,0.037862,0.027793,0.12795,0.032851
-0.35504,0.43478,0.14836,-0.025354,-0.019316,0.0073557,-0.078918,0.019947
0.0049294,-0.24239,0.017946,-0.044101,-0.013837,0.025682,0.12329,0.029505
0.21277,-0.20948,-0.063311,-0.024108,-0.015791,-0.033961,-0.27274,-0.07052
-0.11778,-0.16636,-0.055738,0.0038504,0.021883,-0.030514,0.23426,0.025288
0.25206,0.12567,0.056555,0.06368,-0.0022521,0.067655,-0.095974,0.051886
-0.32262,-0.11755,-0.10942,0.022904,0.013413,-0.059478,0.027944,-0.068471
0.34764,-0.032058,0.09414,0.061335,0.02978,0.017953,0.014634,0.070628
-0.17458,0.10431,-0.036951,-0.10239,-0.054822,0.018749,-0.063533,-0.0074181
0.038679,0.21493,0.2616,0.054905,0.017267,0.01314,0.068283,-0.084045
0.3515,0.56463,-0.089684,-0.045257,-0.011932,-0.03032,0.027773,0.012344
-0.29452,-0.55264,-0.131,0.018722,0.029305,0.013084,-0.044955,0.039235
-0.23108,-0.19599,-0.03481,-0.10487,-0.031019,-0.013236,-0.057645,0.0041009
-0.3359,0.074908,-0.027645,0.060551,-0.013309,-0.015889,0.12806,-0.023087
0.38947,-0.37729,-0.19478,-0.008361,0.019857,0.0204,-0.060876,0.019849
0.53852,0.45191,0.027303,0.063506,0.037147,0.024998,0.091585,0.070122
-0.71621,-0.0016463,0.46781,0.026162,-0.031857,-0.017997,-0.057463,-0.091238
0.24373,-0.12076,-0.11465,-0.073662,-0.015406,-0.030681,-0.06414,-0.026856
0.18534,0.0023113,0.053705,0.084053,0.031672,0.049289,0.032167,0.044504
