0.16969,0.077341,-0.092288,0.0003415,0.0052294,0.016278,-0.0016809,0.43422
0.055431,0.047541,0.16765,0.048828,0.0056615,0.0014602,-0.017479,-0.17402
-0.21632,-0.01512,0.051635,-0.051789,-0.0098342,0.002027,0.028521,0.04416
0.26788,0.18585,-0.12721,0.034406,0.013417,0.010147,0.027172,0.074262
-0.00050058,-0.16212,-0.12593,-0.05968,-0.026099,-0.02104,-0.04459,-0.24646
-0.11574,0.035034,-0.139,0.025498,0.020156,0.010085,0.055881,0.18494
0.20334,-0.050019,0.34998,0.0088779,-0.0039425,-0.013574,-0.045937,-0.33338
-0.46451,-0.11138,-0.04905,0.039044,0.011114,0.001849,-0.013676,0.33236
0.17118,0.016478,0.046893,0.022322,0.0029398,0.0017831,0.0045239,-0.083036
0.04215,0.24127,-0.073402,-0.033476,0.0028679,0.0097538,0.024382,0.14679
-0.052355,-0.28746,-0.090316,-0.065894,-0.043746,-0.028897,-0.079275,-0.096284
0.17111,0.14168,0.057652,0.034396,0.019348,0.034223,0.083712,-0.024689
-0.082818,0.15331,0.10375,-0.0060508,0.020234,0.011492,-0.010827,-0.023106
-0.16525,-0.30854,-0.24998,0.03157,-0.01773,-0.011323,0.058079,0.086228
0.42299,0.49639,0.19875,0.022386,0.030346,0.020286,0.15669,-0.15931
-0.10136,-0.2779,-0.073999,-0.025606,-0.023161,-0.04225,-0.34855,0.10622
-0.061511,-0.12571,0.21293,-0.01843,0.0091301,0.0041488,0.14349,0.17905
-0.33577,-0.017266,-0.1354,-0.018358,-0.021306,-0.035767,-0.20312,-0.5972
0.21327,-3.6805e-05,-0.21982,-0.0017682,0.0026725,0.033467,0.15888,0.32466
-0.042035,0.05924,0.14039,0.031432,0.0029428,0.016742,0.066087,0.12486
0.10751,0.13848,-0.10841,0.034316,0.018609,0.015809,-0.019799,-0.086552
-0.23719,-0.19788,0.10498,-0.0324,0.0028577,0.0073577,0.15189,0.49581
0.46346,0.075724,0.24979,-0.012853,-0.036438,-0.063269,-0.19177,-0.2678
0.22672,0.16427,-0.299,-0.016929,0.010131,0.022609,0.027647,-0.2434
-0.62441,-0.19667,0.1691,0.056372,0.025377,0.030464,-0.033411,-0.11682
-0.063025,-0.030286,0.098698,0.042466,-0.014186,-0.0086466,-0.023273,-0.28446
-0.226,-0.11865,-0.18267,-0.15279,0.0085524,-0.0089662,0.011279,0.39651
0.046353,0.12234,-0.089323,0.0095088,-0.015872,0.0059446,0.1094,0.060704
0.42836,0.42446,0.19154,0.20132,0.029664,-0.0030007,-0.033526,0.12307
0.42871,-0.19949,-0.26118,-0.092605,-0.0032778,-0.020087,-0.050269,0.036377
0.14813,0.037087,-0.087125,-0.1451,-0.036485,-0.0060623,-0.011159,-0.060427
-0.63439,-0.17186,0.12067,0.075838,0.00054083,0.0080725,0.060287,0.11911
-0.3828,-0.5058,-0.11435,-0.0071249,-0.0013075,-0.00087524,-0.070443,-0.31075
0.3141,0.5842,0.53489,0.052001,0.020775,0.037586,0.073026,0.006846
-0.1707,-0.14041,0.2538,0.081794,0.0045733,-0.0171,-0.048585,0.11729
0.74803,0.11406,-0.42125,-0.089464,0.0049735,0.022514,0.064506,-0.15923
-0.62439,-0.36636,-0.094423,-0.063483,-0.02483,-0.023413,-0.064456,0.061305
-0.25507,0.35194,-0.12669,0.065596,0.016642,-0.01445,-0.029365,-0.10177
0.1081,-0.11153,-0.36182,0.031611,0.0041626,0.01016,0.044696,0.26808
0.62328,0.35279,0.45985,-0.017564,0.0077095,-0.004373,-0.014169,-0.26461
-0.091197,-0.10863,-0.26768,-0.043355,-0.012161,-0.01899,0.067504,0.25434
-0.27753,-0.21835,0.70985,-0.014854,-0.0089367,0.0054693,-0.085226,-0.042534
0.20362,0.096851,-0.75186,0.036511,0.017101,0.061359,0.11365,0.18689
-0.74386,-0.48069,0.40504,0.0091385,-0.027956,-0.069887,-0.15609,-0.1381
0.90816,0.74762,-0.091413,-0.065696,0.012123,0.025936,0.074346,-0.059464
-0.25785,-0.44807,0.031706,-0.0082947,-0.010998,-0.0026824,0.0081137,0.053039
-0.58897,0.016623,0.029798,0.11097,-0.003384,-0.023004,-0.089218,-0.59906
0.29488,0.14976,0.031834,0.026308,0.019556,0.019457,0.055635,0.55422
0.62636,0.16422,-0.052635,-0.020272,0.011149,0.022831,0.059616,-0.29865
0.12403,-0.14771,0.13926,0.072665,0.065299,0.080514,0.17242,0.5787
-0.13224,-0.28211,-0.40359,-0.14795,-0.044455,-0.042194,-0.11403,-0.0064861
-0.7167,-0.20381,-0.03448,-0.15837,-0.10712,-0.1502,-0.23739,-0.36399
-0.63906,0.33249,0.4967,0.073166,0.010124,-0.040461,-0.12733,-0.58512
0.69389,-0.030823,-0.86292,0.0004074,0.018186,0.10743,0.22415,0.65229
0.28186,0.64375,0.88977,0.17855,0.081036,0.098327,0.20016,0.37272
0.17808,0.073368,0.36014,0.1469,0.057903,0.041856,0.058806,-0.15803
0.38648,-0.54149,-0.91659,-0.23529,-0.051394,-0.061745,-0.16061,-0.17499
-0.84226,-0.094336,-0.0072085,0.18005,-0.0048289,-0.05599,-0.12984,-0.47631
0.58281,-0.54844,0.3332,-0.25605,-0.12279,-0.11253,-0.067566,0.44406
-0.57851,0.30586,-0.1985,0.057525,0.055694,0.065719,0.057423,-0.29086
-0.20147,-0.10199,0.56196,-0.14511,-0.055133,-0.013294,0.010598,0.35582
0.41566,0.67381,-0.21475,0.081325,0.091834,0.14265,0.23697,0.12411
0.44344,0.32142,-0.60144,0.19009,0.067134,0.0021618,-0.021736,-0.089638
-0.16512,-0.68221,0.16391,0.025128,-0.027526,-0.044394,-0.14103,-0.16217
-0.59531,-0.13395,0.31142,-0.030624,-0.028049,-0.020801,0.066178,0.13194
0.65825,0.44247,0.36775,-0.047416,-0.012618,-0.036743,-0.1034,-0.20759
-0.34852,-0.20318,-0.42142,-0.0018101,0.0030349,0.032607,0.014559,-0.070752
-0.12637,-0.20364,0.13564,-0.20634,-0.082772,-0.07055,-0.032428,0.1533
-0.12053,-0.13635,-0.51027,0.018632,0.026723,0.013339,-0.055959,-0.11157
0.25689,0.21867,0.2573,0.11045,0.034521,-0.0045399,-0.00045534,0.14457
-0.31213,0.25373,0.087756,0.12349,0.042013,0.055694,0.12686,0.040815
0.76711,0.52539,-0.18041,0.010387,0.017716,0.045633,0.13856,0.14109
-0.82751,-0.98799,0.54263,0.090794,0.016037,0.035404,-0.012765,0.079165
0.69535,-0.066249,-0.20703,-0.15934,-0.064854,-0.053467,-0.023376,-0.17556
0.12301,0.36167,0.20887,-0.14661,-0.045427,-0.065122,-0.21467,-0.48185
-0.87008,-0.55595,-0.76651,-0.019316,0.011856,0.031432,0.11565,0.19231
0.80995,0.84368,0.53634,0.32483,0.10728,0.064341,0.037667,0.32446
-0.56428,-0.027684,-0.83104,-0.36285,-0.13362,-0.14569,-0.21369,-0.2327
0.27275,0.0066769,0.58778,0.11469,0.047699,0.0036687,0.011267,0.068687
0.18253,-0.079532,0.56752,0.056187,0.02706,0.091526,0.19865,0.31526
-0.29831,-0.16311,0.052474,0.1509,-0.007247,0.0095618,-0.0091139,-0.13343
0.31595,0.34982,-0.42944,0.13458,0.05479,-0.014777,-0.024616,-0.22305
-1.1183,-0.9991,0.069683,-0.40604,-0.11458,0.00341,0.043565,-0.056012
0.57832,0.3418,-0.75345,-0.088014,0.023736,-0.021774,-0.093692,-0.16489
0.61719,0.38645,0.25057,0.15837,0.039719,0.018572,0.093949,0.47987
-0.33791,-0.87484,0.48923,-0.058893,-0.0048266,0.053211,-0.012299,-0.053497
-0.2352,0.74163,0.57402,0.22681,0.0063013,-0.083147,-0.078505,-0.21266
0.14521,0.056809,-0.54637,0.043982,0.017253,0.037844,0.033877,0.16395
0.19081,0.80939,-0.47627,0.022389,0.026845,0.00088143,-0.020736,-0.0511
0.58221,-0.13296,0.36157,-0.075279,-0.044073,-0.023126,0.045371,-0.031754
-0.83064,-0.80354,-0.47716,-0.29822,-0.06341,-0.026934,-0.018526,0.017392
0.31717,-0.033092,0.40079,0.08667,-0.00021752,-0.010672,-0.12658,-0.099643
-0.14711,-0.35388,-0.08673,0.024691,0.036268,0.033748,0.088865,0.078301
-0.36177,0.35363,0.63507,0.11088,0.030961,0.0366,0.058331,-0.088333
0.61738,0.307,-0.3744,0.066343,0.03157,0.0064718,0.02505,0.18347
-0.81555,-0.35772,-0.15727,-0.074633,-0.039034,-0.03235,-0.0020796,-0.072802
0.56559,0.33502,-0.005651,0.011558,-0.0001381,0.022523,-0.0064124,-0.057792
-0.30751,-0.34789,0.28054,-0.16417,-0.053934,-0.031295,-0.072977,0.098172
0.020659,0.017275,-0.48151,0.18194,0.058134,0.0021137,-0.052549,-0.086972
0.23834,0.095375,-0.11563,0.020274,0.0084204,0.021636,0.13365,0.16221
0.53044,0.45509,0.32688,-0.15644,-0.054469,-0.066219,-0.10761,-0.23865
-0.75835,-0.62723,-0.08193,0.034032,0.017751,0.012037,0.0052226,0.00058284
0.62652,0.84002,0.11056,0.24632,0.099641,0.1078,0.12069,0.18509
-0.25906,-0.82646,0.28397,-0.16259,-0.075082,-0.060581,-0.05824,-0.029027
0.17032,0.0786,-0.39557,-0.11741,-0.046254,-0.0092746,0.01492,-0.14256
-0.32007,0.39255,0.13444,0.089922,0.036914,0.018872,-0.011948,0.17119
-0.36935,-0.14039,0.27152,-0.011809,-0.013733,-0.039294,-0.092605,-0.26161
0.40204,0.17887,0.10884,0.15376,0.074785,0.081298,0.17858,0.3536
-0.21673,-0.39333,-0.22746,-0.13293,-0.057113,-0.088471,-0.14425,-0.087171
-0.26163,-0.3558,-0.76483,-0.21544,-0.065622,-0.033119,-0.0224,-0.13306
0.4129,0.31834,-0.19945,0.25107,0.072978,0.067754,0.059494,0.073538
0.39045,0.094707,1.08,-0.028485,-0.00024987,0.011298,-0.00025561,-0.038741
-0.66801,-0.022095,-0.59429,-0.1614,-0.050424,-0.038031,-0.014191,-0.08724
0.76407,0.18212,0.36053,0.1825,0.063559,0.060833,0.13489,0.22566
0.23495,0.091151,0.52724,0.03614,0.0061402,-0.02762,-0.068547,-0.082928
-0.66954,-0.023175,-0.44972,0.0021781,-0.011506,0.0016686,-0.077467,-0.31569
0.041971,0.31187,0.11215,0.081105,0.018527,0.0005516,0.030286,0.33419
-0.51424,-0.53385,-0.5194,-0.20369,-0.052223,-0.054211,-0.096474,-0.068905
-0.041908,-0.31562,0.08726,-0.10263,-0.03636,0.0015278,0.042679,0.093532
0.19292,0.39206,0.051423,0.086769,0.026903,0.011471,0.010623,-0.1076
0.2755,-0.19437,0.27397,0.012229,0.028014,0.053544,0.12009,0.022841
0.16528,0.43294,-0.20349,0.14175,0.052723,0.0024041,0.027381,0.11693
0.77373,-0.48943,-0.15218,-0.017576,-0.024161,0.02947,-0.025479,-0.013859
-0.59004,0.35493,0.31978,-0.068,-0.038742,-0.053248,-0.069994,-0.096999
-0.30458,-0.34948,-0.02225,-0.0022653,-0.014582,-0.027433,-0.10642,-0.14864
-0.13035,0.4412,-0.5242,0.015192,0.024831,0.0050645,0.021306,0.14379
-0.46677,-0.40974,0.5598,-0.078253,-0.029859,-0.0027195,0.04748,-0.062872
0.46069,0.3501,0.23963,0.045658,0.032364,0.0040105,0.034559,0.068252
0.13148,-0.12258,-0.12413,0.10602,0.047538,0.048948,0.037131,-0.047905
-0.10671,-0.24327,-0.22534,-0.21704,-0.093629,-0.062901,0.00027447,-0.06718
-0.14056,0.30532,-0.14705,-0.0012046,-0.00047502,-0.018742,-0.084225,0.064727
0.43149,0.019298,0.17073,0.16787,0.045722,0.04881,-0.013764,0.026177
0.57989,0.42605,0.033283,0.071509,0.052697,0.069522,0.17208,0.2994
-0.4919,-0.58674,-0.26669,0.0065226,-0.018698,-0.019117,-0.066089,-0.11818
-0.11269,-0.043765,-0.074647,-0.03503,-0.012249,-0.0061881,-0.0095022,0.013291
-0.7992,-0.18644,0.10895,0.0015496,-0.0059993,-0.032244,-0.024837,-0.15926
0.14287,-0.090295,0.033467,-0.32095,-0.093465,-0.081417,-0.11888,-0.24529
0.50174,0.26395,0.22003,0.076175,0.0069748,-0.012662,-0.016777,-0.079286
-0.10625,0.075256,-0.00041072,0.12341,0.061375,0.049552,0.056472,0.068109
0.24737,-0.02889,0.012443,0.024593,0.01542,0.043218,0.063146,0.33319
0.029486,0.20988,0.0055073,0.092619,0.017736,0.0076833,0.066523,0.070873
0.22206,0.39155,0.5599,0.10858,0.03699,0.044442,0.019687,0.041436
-0.34928,-0.45588,-0.4232,-0.20955,-0.083443,-0.081365,-0.093918,-0.24627
0.33709,0.21845,-0.59611,0.011988,0.015192,0.027841,0.059952,-0.074029
-0.81293,-0.44022,0.27391,-0.017376,0.0040166,0.019389,-0.036483,0.15777
0.171,-0.042649,-0.66382,-0.049096,-0.016158,-0.029747,-0.018249,0.024366
0.058028,0.0058757,0.32781,0.15007,0.047809,0.004449,-0.020016,0.0069682
0.32963,0.10697,0.19743,-0.068931,-0.0075637,0.027609,0.042985,0.0090044
-0.47766,-0.57082,0.45515,-0.073292,-0.057309,-0.061954,-0.079521,-0.11203
0.56255,0.53946,0.30416,0.043824,0.016063,-0.0060202,0.027177,-0.067659
-0.18766,0.1673,0.077675,0.041303,0.010026,0.016598,0.052016,-0.044569
0.061033,0.29738,-0.52625,-0.056032,-0.019942,-0.016347,-0.073357,0.021703
0.40008,0.23952,-0.15447,0.16737,0.067644,0.076128,0.075073,0.23537
-0.65931,-0.40213,-0.28163,-0.15428,-0.038926,-0.009484,-0.008539,-0.10399
0.11932,-0.18883,0.15849,-0.051133,-0.018743,-0.045746,-0.010197,-0.017617
-0.18413,-0.44727,0.10976,0.079035,0.034771,0.014658,-0.0072112,0.0034723
0.15935,0.10693,-0.14505,-0.091764,-0.042429,-0.023618,-0.038583,0.01391
0.30998,0.47968,0.31216,0.11572,0.046256,0.049889,0.10598,-0.011007
-0.17945,-0.10902,-0.169,0.052106,-0.0043673,0.0078158,0.0034467,0.10621
-0.074153,0.05601,0.13691,0.0051352,0.0003704,-0.002365,-0.05076,-0.066803
0.19091,-0.16718,0.10378,-0.11257,-0.026131,-0.036284,-0.018989,-0.06383
-0.12991,-0.16936,0.065842,0.072681,0.017118,-0.0087467,-0.042991,0.050763
-0.55462,0.25243,-0.096811,-0.041556,0.004725,0.03295,0.056265,0.049687
0.22708,-0.051702,-0.20056,-0.11966,-0.071296,-0.090926,-0.088531,-0.19142
0.30589,0.086376,-0.30528,0.080884,0.039099,0.049606,0.054214,-0.037803
0.29424,-0.089993,0.17614,0.029649,0.031433,0.041009,0.024207,0.11505
-0.18988,0.26883,0.11816,0.0012308,0.0075707,-0.0067325,0.048743,0.083023
0.19586,-0.17776,0.28394,0.035892,-0.00092822,0.00066595,-0.0043803,0.033368
-0.27822,-0.0066743,-0.33884,0.025254,0.0061925,0.0088562,-0.048899,-0.1253
0.040209,-0.030087,0.39191,-0.13946,-0.072469,-0.068026,-0.10047,-0.08723
-0.27445,0.033833,-0.03142,0.096564,0.036576,0.066696,0.12176,0.20959
-0.099918,0.13223,-0.015265,0.05328,0.028595,0.0063529,0.062438,0.083465
0.20316,-0.7155,-0.40298,-0.098143,-0.018408,-0.030839,-0.060469,-0.21882
0.13492,0.34821,-0.051993,0.11797,0.02823,0.03272,0.010135,0.072281
0.16534,0.058046,-0.13787,-0.12736,-0.034746,-0.037722,-0.069934,0.070103
-0.39918,0.15054,0.46316,0.0011566,0.0035428,0.0077111,0.043084,0.060576
0.25544,0.54331,-0.036789,0.050129,0.025966,0.020777,0.037233,-0.17686
-0.13542,-0.11061,0.47488,-0.019377,-0.029793,-0.044896,-0.063007,-0.14233
0.42834,-0.29019,-0.45014,0.090003,0.031873,0.045798,0.032814,0.14226
-0.56196,-0.75512,-0.39969,-0.19914,-0.093377,-0.089143,-0.12695,-0.11705
-0.045479,0.25054,0.21075,0.051421,0.032264,0.019739,0.013609,0.091193
0.030384,-0.041413,-0.026622,0.061003,0.041781,0.06817,0.15828,0.14562
0.76518,0.27092,-0.043897,-0.0061542,-0.0023784,-0.021994,-0.052452,-0.12276
-0.092457,0.43043,0.27219,0.10748,0.040098,0.053438,0.075676,0.14704
-0.45671,-0.17493,0.25174,0.065251,0.035857,0.043557,0.048685,0.025405
-0.20893,0.0035539,-0.31631,-0.21979,-0.086085,-0.068407,-0.057525,-0.067135
-0.33041,0.012127,0.17555,0.032544,-0.00607,-0.041392,-0.10453,-0.1174
0.40965,0.10706,-0.11956,-0.037988,-0.021463,-0.01688,-0.015923,-0.05808
0.17978,-0.063792,-0.2444,0.029083,0.015961,0.0047353,0.019962,0.037513
-0.15705,-0.46696,-0.2104,0.046287,0.012568,-0.03108,-0.05136,0.026264
0.40863,0.29449,0.31522,0.076652,0.03909,0.079463,0.10726,0.15658
-0.32722,-0.37796,0.13463,-0.15233,-0.052271,-0.014175,-0.041251,-0.079799
0.13964,0.093066,0.14439,0.024595,-0.0029611,-0.013937,-0.010159,0.067938
-0.024587,0.068825,-0.32867,0.093029,0.039295,0.0266,0.054421,-0.031015
0.13439,-0.065391,0.23036,-0.094355,-0.018689,-0.016712,-0.017516,-0.13149
-0.022551,0.57422,-0.10054,0.033559,0.010917,0.0050304,-0.0061038,-0.14403
-0.69534,-0.28805,0.20259,0.016219,-0.012461,-0.025339,-0.043942,-0.14326
0.72351,0.2163,-0.3668,0.0019817,0.0047139,0.024603,0.063596,0.27987
-0.43654,-0.056386,0.036896,-0.0018504,0.015143,0.021331,0.057291,0.33782
0.21174,-0.065746,-0.044988,0.050766,0.010472,0.010843,-0.010011,0.038356
-0.012349,-0.17185,-0.13365,-0.067719,-0.02547,-0.03118,-0.062091,-0.11231
-0.12431,0.1322,0.6008,0.032358,0.00061144,-0.019519,-0.053692,-0.21065
-0.20236,-0.24683,-0.19233,-0.056021,-0.028754,-0.0092994,-0.017118,-0.088027
0.42367,0.022399,-0.44288,0.0026069,0.011347,-0.0084396,0.031651,-0.12252
0.17127,-0.045874,0.40275,-0.057532,-0.019622,-0.0089286,-0.024257,0.074064
0.28287,0.26104,0.40551,0.11525,0.05042,0.059961,0.097237,0.1955
-0.87727,-0.44332,-0.35003,-0.033421,-0.012664,-0.012204,-0.048087,-0.055777
0.37289,0.46374,0.026311,0.074949,0.025709,0.0094218,0.017431,0.15619
-0.051842,0.13634,-0.6833,0.026657,0.017223,0.015805,0.068115,-0.0197
-0.26054,-0.16285,0.40643,-0.1702,-0.07715,-0.055392,-0.13769,-0.17643
0.56804,-0.047724,-0.22436,-0.0076078,0.0081709,0.014568,0.056381,0.022814
-0.14964,-0.17304,0.52197,0.061401,0.023105,0.014593,0.0016609,-0.046069
-0.33093,0.29686,-0.10153,0.029028,-0.0011807,-0.01649,-0.0054949,0.031796
0.22642,-0.23346,-0.04684,0.043644,0.021196,0.030444,0.06552,0.069526
-0.35114,0.1553,0.012644,-0.019858,-0.011328,-0.016684,-0.043726,-0.12004
0.33049,-0.008534,-0.38066,-0.005325,-0.012746,-0.017358,-0.052426,0.088138
0.19808,-0.08709,0.59432,-0.022149,0.00927,0.012806,0.04707,0.24853
-0.399,-0.10601,-0.25868,-0.05459,-0.023205,-0.019817,-0.08882,-0.25633
0.37312,-0.0042421,0.39501,0.0069845,0.0072499,0.017796,0.10287,0.04216
0.05094,0.18627,-0.38989,0.061368,0.030543,0.024338,0.02126,0.050484
-0.3924,-0.18291,0.09272,-0.078583,-0.031288,-0.031202,-0.051655,-0.19936
0.0072163,0.25587,-0.071827,0.048305,0.0014993,-0.00021221,-0.013643,-0.0030121
0.095299,-0.0043211,-0.14495,0.059239,0.011641,0.00019326,-0.051772,-0.054272
-0.081119,0.061113,-0.19602,-0.030411,0.014546,0.024658,0.091858,0.19517
0.35142,-0.14793,0.06049,0.0054181,-0.013556,-0.0050925,-0.028378,-0.011509
-0.1181,-0.20002,0.028676,0.041079,0.028503,0.0044642,0.047762,0.14621
-0.33806,0.039537,0.30692,-0.08814,-0.047167,-0.025048,0.014633,0.011443
0.053071,-0.21652,-0.072242,-0.015555,0.0091251,0.0077097,-0.035058,-0.19842
0.30716,0.41598,-0.081402,0.047654,0.0097099,0.0010297,-0.0084478,0.10862
0.16871,0.086006,0.51959,-0.054709,0.0014703,0.0017457,-0.0076208,-0.17071
0.11801,-0.035069,-0.57394,-0.0020144,-0.015409,-0.0056999,-0.024769,0.079453
-0.29998,0.1059,0.35236,0.096843,0.0219,0.010095,0.0031474,-0.0009592
-0.27976,-0.38404,-0.02067,-0.077935,-0.034631,-0.020989,-0.0557,-0.10729
-0.43502,-0.0075034,-0.15238,0.052203,0.018532,0.0027897,-0.012608,0.057807
0.23207,0.34246,-0.053781,0.089083,0.041088,0.034662,0.13356,0.049699
0.32182,-0.085945,0.28484,-0.18597,-0.076168,-0.042565,-0.030483,0.1268
0.04342,-0.25452,-0.39397,0.039443,0.033926,0.028788,0.018928,0.086274
0.44802,0.078968,-0.70861,0.046367,0.027391,0.014098,0.0079511,-0.20483
-0.10339,-0.02999,0.61809,-0.024831,-0.0024122,-0.0088197,-0.017487,-0.13765
-0.29163,-0.25208,-0.20422,-0.0025126,-0.009077,-0.016828,-0.043036,-0.0019842
-0.088791,0.63267,0.55754,0.14442,0.046016,0.02111,0.039368,0.1858
0.00060707,0.047041,0.43077,-0.13876,-0.064001,-0.012246,0.025552,0.17519
-0.020169,-0.14902,-0.46003,-0.055049,-0.026712,-0.03082,-0.10065,-0.080783
0.21251,-0.25206,-0.097288,-0.010451,-0.0060127,-0.0030327,0.012394,-0.13627
-0.42827,-0.17572,0.19552,0.018802,-0.0015112,0.0012666,-0.0096005,-0.14629
0.26046,0.36203,-0.01842,0.12679,0.065444,0.052907,0.045474,0.031622
-0.17305,-0.0046828,-0.48293,-0.014372,0.0079035,-0.0038853,0.0071521,-0.0847
0.10161,-0.21151,0.12015,-0.021734,-0.017421,-0.028135,-0.037268,0.22568
0.1884,-0.053242,0.14122,-0.03591,0.0053955,0.027208,0.1164,0.10513
0.01107,0.12047,0.057713,0.060228,0.0061485,0.0058777,-0.039088,0.16398
0.28922,0.021802,-0.04887,-0.14746,-0.062114,-0.068881,-0.081843,-0.30871
-0.52429,0.13526,-0.29774,0.051872,0.034755,0.052597,0.042283,0.0064366
-0.10262,-0.048222,0.25638,0.0096877,-0.00045337,-0.020749,-0.042691,-0.15008
0.28668,0.015598,-0.025871,-0.024207,-0.019709,-0.023787,0.029164,0.039814
-0.077357,-0.20047,0.38872,0.074847,0.031234,0.058598,0.076817,0.12828
-0.1499,0.25236,-0.0055288,0.095387,0.019119,-0.00063501,-0.04159,-0.020131
0.22372,-0.19274,-0.46431,-0.12732,-0.025213,-0.014381,-0.030115,0.076482
0.113,0.054371,0.28005,0.0154,-0.0083407,0.0014761,-0.01426,0.087928
-0.16157,0.069513,-0.18437,0.062005,0.030471,0.0078029,0.021606,0.083195
0.23728,0.14112,-0.050664,-0.089394,-0.018194,-0.042134,-0.023595,-0.28175
-0.26605,-0.31554,-0.011868,-0.079381,-0.029198,0.0004478,-0.00056625,-0.068461
-0.17587,-0.20386,-0.37061,0.022155,-0.010045,-0.020204,-0.048882,-0.14198
-0.19124,0.019346,0.75746,0.075332,0.024071,0.029289,0.019998,0.016373
0.30121,0.42905,-0.087843,0.065443,0.034586,0.05571,0.12879,0.41786
0.45304,0.25638,-0.094094,0.0090548,-0.0014462,-0.0030198,0.0045889,-0.067108
-0.71856,-0.38545,0.33183,-0.077362,-0.028912,-0.045078,-0.032072,-0.053256
0.62976,0.11564,-0.56074,0.0099848,0.0071942,0.03119,0.010973,0.12482
-0.059037,-0.45759,0.189,-0.04875,-0.017937,-0.047691,-0.12421,-0.2359
-0.16385,0.32485,-0.34776,0.03576,0.012941,-0.00059286,-0.03926,-0.042649
0.013815,0.32943,0.31538,0.021402,0.013834,0.023894,0.07051,0.069897
-0.13207,-0.41413,0.087573,-0.013804,-0.0076042,0.0099976,0.025511,0.021201
-0.08932,-0.10328,-0.52804,-0.031075,-0.012536,-0.011153,-0.0022867,-0.14453
0.35114,0.43125,0.41636,0.10196,0.037839,0.030662,0.1121,0.46068
-0.49825,-0.44625,0.21083,-0.08402,-0.028625,-0.036503,-0.1159,-0.51708
-0.042289,0.0033103,-0.12234,-0.035024,-0.024678,-0.033033,-0.03049,0.27972
0.55749,0.30026,0.030488,0.03726,0.010403,0.017542,0.016149,-0.064043
-0.016346,0.2542,-0.1723,0.06956,0.029559,0.06039,0.11702,0.060852
-0.41741,-0.42633,-0.0034055,-0.079471,-0.029865,-0.045321,-0.095789,0.0068331
0.52811,0.31193,0.1079,0.011427,0.019494,0.004825,-0.021307,-0.16176
-0.20211,-0.21084,0.20204,0.021515,0.013448,0.030839,0.05107,0.04209
-0.11559,-0.18067,0.13414,0.036555,-0.0012286,-0.0066277,-0.034918,-0.12855
-0.032944,-0.008644,-0.47193,-0.068331,-0.016788,-0.021841,0.017922,0.22783
-0.158,0.11404,-0.15278,0.027604,-0.017611,-0.014872,-0.047639,-0.0581
0.016119,0.0044602,-0.0041624,0.020387,0.011997,-0.0090696,-0.019939,0.015234
-0.13671,-0.1223,-0.0021715,-0.1672,-0.02157,-0.019815,0.0079806,-0.036201
1.0072,0.13509,-0.075078,0.098607,0.038144,0.054806,0.10698,0.09134
-0.60809,0.48081,0.52778,0.17807,0.035139,0.027697,0.019522,0.02084
-0.14027,-0.43769,0.007838,-0.13912,-0.053763,-0.014824,0.0034237,-0.031615
0.097223,0.07995,-0.01493,-0.0010729,-0.0095612,-0.025569,-0.066541,0.08746
-0.21638,-0.20455,-0.080437,-0.0093667,0.0038923,-0.019954,-0.073519,-0.218
0.216,0.064031,0.041766,-0.0080721,0.0023722,0.0021169,0.0056039,-0.058826
-0.32362,0.41342,0.213,0.072594,0.025006,0.032812,0.076842,0.12706
0.12682,-0.54918,-0.47158,-0.080493,-0.029799,-0.037369,-0.10994,-0.29264
0.54502,0.26179,-0.08787,0.063313,0.033145,0.033552,0.085841,0.24569
-0.20095,-0.23825,-0.24919,-0.05897,0.0027034,0.026563,0.093821,0.26679
-0.20435,-0.14813,0.11284,0.02112,-0.004159,-0.0039071,-0.039179,-0.040766
-0.14471,0.36363,0.5136,0.014445,-0.018896,-0.042443,-0.039806,-0.1217
0.14194,-0.098323,-0.053884,-0.039816,-0.010397,-0.018844,-0.033136,0.03969
-0.016369,-0.031991,-0.10398,-0.039853,-0.017773,-0.0034104,-0.027003,-0.32253
0.18507,0.49275,0.24725,0.084938,0.029328,0.035225,0.033345,0.14269
