0.055752,0.10659,-0.42645,0.25818,0.048752,0.021578,0.014432,0.057331
-0.094765,-0.22681,-0.27406,-0.50942,-0.099459,-0.049039,-0.04005,0.036889
0.035095,0.15329,-0.087426,0.012333,0.024396,0.020089,0.0060384,-0.15886
0.016032,-0.11239,0.1165,0.27788,0.014231,0.010419,0.012251,0.14158
-0.034227,-0.13989,-0.39644,-0.38984,-0.059233,-0.03865,-0.036687,-0.23326
0.017731,0.080621,0.40645,0.29383,0.031134,0.037344,0.031547,0.077122
0.055264,0.16878,0.91016,0.41834,0.090626,0.027837,0.029893,0.082233
-0.061873,-0.013644,-1.0471,-0.66192,-0.059927,-0.043468,-0.025689,-0.091035
0.0023828,-0.074241,0.098891,0.085879,-0.021774,0.011036,0.013393,0.043364
-0.0021483,-0.019994,-0.064615,0.091347,-0.013617,-0.0040435,-0.016985,0.14275
-0.029071,0.0081622,0.65823,0.20435,0.011194,-0.003018,-0.015522,-0.14423
0.10058,0.16511,0.072255,0.33597,0.083459,0.045001,0.040808,0.056734
0.018792,0.011225,-0.91629,-0.25958,-0.00052131,-0.0088182,0.010914,0.087937
-0.072108,-0.19807,-0.26832,-0.62474,-0.077241,-0.039806,-0.0275,-0.044669
-0.00080021,0.042889,0.52406,0.40225,-0.014291,0.0065477,-0.012208,-0.069478
0.052855,0.13116,0.64836,0.31291,0.047566,0.020898,0.02549,0.019957
-0.15304,-0.29296,-0.89584,-0.62598,-0.094627,-0.059001,-0.062646,-0.097259
0.05411,0.10721,0.78892,0.1898,0.083011,0.040719,0.036306,-0.061416
0.0034519,-0.065088,-0.13496,0.0059374,-0.043907,-0.015361,-0.0052146,0.20676
0.00075726,0.020377,-0.74775,-0.080401,-0.013808,-0.007998,0.00088115,-0.11919
0.1563,0.3813,0.79197,0.77694,0.21288,0.10222,0.062894,0.079705
-0.084093,-0.25425,-0.7913,-0.42912,-0.1292,-0.067398,-0.04546,-0.046679
-0.064212,-0.049687,0.57127,-0.59046,-0.126,-0.040437,-0.035112,-0.028809
-0.034623,-0.099149,-0.37089,0.21177,0.0033776,-0.0047965,0.015535,0.10199
0.12084,0.25234,0.92184,0.80152,0.12555,0.085807,0.05908,0.14949
-0.020966,-0.012726,-0.24405,-0.23186,0.020981,-0.019313,-0.030155,-0.25504
0.069905,0.048862,-0.27961,0.045635,0.040404,-0.00050909,0.02836,0.11315
-0.17011,-0.41632,-0.86836,-0.82856,-0.22322,-0.084873,-0.086319,-0.12265
0.070878,0.34827,-0.099758,0.46671,0.18267,0.071044,0.039439,0.051992
-0.074363,-0.2125,0.78772,-0.57305,-0.13283,-0.071849,-0.032028,-0.043098
0.027527,0.081489,0.5696,0.5729,0.088221,0.057011,0.035347,0.022067
0.10414,0.12979,-0.56698,-0.4101,0.11981,0.051854,0.038829,0.045333
-0.10883,-0.19101,0.84374,0.5375,-0.24032,-0.063248,-0.044433,-0.050018
0.11654,0.19889,-0.54715,0.16064,0.14962,0.056163,0.044065,0.089123
-0.17167,-0.27709,-0.87079,-0.048364,-0.17009,-0.12048,-0.093412,-0.098355
0.13674,0.37441,0.5546,-0.068533,0.1298,0.071491,0.043759,0.068247
0.02652,-0.24433,0.15479,0.15066,0.065734,0.038737,0.034161,0.050365
0.052245,0.44517,0.13177,-0.37976,0.028717,-0.0076,0.010836,-0.034835
-0.23192,-0.79918,-0.2703,-0.12442,-0.23142,-0.083196,-0.057497,-0.07063
0.1107,0.45229,-0.28095,0.25864,0.12054,0.069454,0.024181,0.043785
-0.124,-0.23008,0.27853,-0.79261,-0.11183,-0.081428,-0.049337,-0.098725
0.39892,0.6069,0.048473,0.91956,0.61693,0.26034,0.1744,0.2041
-0.33707,-0.57576,-0.37064,-0.89834,-0.60862,-0.25755,-0.16474,-0.1891
-0.067012,-0.2547,0.45543,0.8585,-0.12562,-0.026459,-0.012757,0.010183
0.21649,0.63224,0.035934,0.30142,0.23708,0.10929,0.075099,0.098482
-0.1351,-0.32192,0.40013,0.42269,-0.03637,-0.022554,-0.026497,-0.025903
0.23004,0.59263,-0.4414,-0.85761,0.22624,0.10918,0.080862,0.10583
-0.18759,-0.64122,0.20745,-0.87863,-0.099318,-0.089036,-0.071295,-0.13107
-0.043469,0.0061334,-0.48906,0.52767,-0.16042,-0.062033,-0.0449,-0.025248
-0.13361,-0.14658,-0.0065251,0.037313,-0.23715,-0.074719,-0.050114,-0.044895
0.26157,0.45398,-0.19368,1.0615,0.44501,0.1628,0.10142,0.11532
-0.07601,-0.16188,0.18906,-0.39333,-0.12094,-0.051799,-0.01137,-0.028328
0.22119,0.50543,0.93057,-0.31154,0.31541,0.14149,0.10428,0.087174
-0.3156,-0.81739,-0.87356,-0.59741,-0.50376,-0.24135,-0.16857,-0.17066
0.039825,-0.02027,-0.18101,0.2526,0.046162,0.080934,0.052795,0.065392
0.20871,0.71828,0.94972,0.5634,0.3161,0.16268,0.09604,0.10761
-0.34879,-0.87378,-0.92253,-1.0352,-0.39785,-0.23891,-0.16455,-0.18514
0.19466,0.42368,0.22938,0.69507,0.2551,0.12537,0.090498,0.11615
0.15083,0.43201,-0.33391,0.77985,0.094574,0.051573,0.047844,0.057601
-0.15268,-0.31694,0.9518,-0.41381,-0.15338,-0.086016,-0.066631,-0.080246
0.0026243,-0.065247,-0.60051,-0.91956,0.026554,0.0090053,0.0044704,-0.01667
0.023028,0.054126,-0.0070285,0.97725,-0.084407,0.00054244,0.0032506,0.029339
-0.098914,-0.10743,0.63728,-0.60326,-0.025115,-0.048728,-0.038783,-0.051503
0.11398,0.19234,-0.98142,0.64684,0.26735,0.088213,0.058597,0.053715
-0.079683,-0.37424,0.675,-0.36948,-0.19085,-0.080193,-0.047647,-0.060615
-0.030697,0.021739,-0.2531,-0.552,-0.094436,-0.0064136,-0.013028,0.0046883
0.21471,0.50622,-0.52302,0.35793,0.29147,0.16166,0.10058,0.12531
-0.22591,-0.52934,0.13962,0.089554,-0.33742,-0.15374,-0.089248,-0.1201
0.24908,0.57956,0.68882,0.49831,0.33158,0.1334,0.1051,0.12025
-0.20429,-0.45625,-0.20324,-0.6773,-0.27962,-0.13331,-0.089993,-0.11462
-0.0083349,0.05781,0.41591,-0.23075,0.05533,0.022399,0.0126,0.010958
0.062963,0.042428,-0.76787,0.45712,0.15641,0.045478,0.021769,0.035593
-0.061238,0.23835,0.38373,0.33165,-0.17995,-0.064412,-0.047332,-0.025584
0.056121,-0.27768,-0.38966,0.062932,0.14735,0.07531,0.023682,0.030103
0.047572,0.06361,0.39414,-0.070913,0.083266,0.0036174,0.015868,-0.00078967
-0.024469,0.11334,0.069527,-0.44852,-0.24737,-0.091917,-0.03953,-0.040265
-0.050495,-0.35486,-0.92664,-0.37779,0.038374,0.031102,0.021712,-0.0023087
-0.0067168,0.16762,1.0542,0.54552,-0.020054,0.013602,0.020189,0.019587
0.06052,0.11942,-0.44034,-0.38217,0.14046,0.059037,0.018743,0.033621
-0.043455,-0.084279,0.20006,0.48085,-0.057529,-0.05886,-0.036971,-0.045715
-0.052372,-0.11456,-0.45329,0.027501,-0.035256,-0.0039467,-0.021666,0.00071502
0.065549,0.3491,0.9521,0.12014,0.035813,0.020741,0.025791,0.02474
0.013731,-0.06093,-0.68433,-0.53491,0.030796,-0.00045724,0.011726,-0.004799
-0.0047195,-0.095598,0.52151,0.20602,-0.011446,-0.0051881,-0.017042,-0.0020695
0.017654,-0.037318,-0.56141,0.20481,-0.013259,0.0063205,0.017427,0.017021
-0.03699,-0.12148,-0.13379,-0.29462,-0.029965,-0.028706,-0.025783,-0.02606
0.033631,0.17479,-0.17725,0.044442,0.0080726,0.0066332,0.017028,0.016667
0.033313,-0.085944,0.20142,0.002884,0.11588,0.073006,0.036105,0.019781
-0.11686,-0.098304,0.26957,0.36041,-0.21479,-0.095445,-0.047023,-0.048279
0.0044365,-0.0018268,0.12108,-0.33095,0.047072,0.001095,-0.01387,-0.0079745
0.092238,0.20469,-0.081616,-0.18415,0.12795,0.065613,0.033856,0.03134
-0.079977,-0.040279,0.58017,0.42173,-0.15182,-0.05042,-0.036675,-0.023921
0.050586,0.013793,-0.35834,-0.23619,0.12191,0.035761,0.016826,0.0061802
0.0078373,-0.00031435,-0.66613,-0.059882,0.042944,0.0038441,0.022677,0.028162
-0.043599,-0.11435,0.81139,0.75298,-0.083965,-0.028924,-0.018878,-0.012435
0.10779,0.29594,-1.1751,-0.73578,0.092836,0.046967,0.048678,0.048602
-0.092164,-0.22328,0.81498,-0.18104,-0.12959,-0.072956,-0.06346,-0.062093
-0.010202,-0.10215,-0.90905,0.11584,-0.00089489,0.025658,0.012133,0.0070583
-0.0053716,-0.098514,0.77489,0.19099,-0.012795,-0.00060863,-0.0055959,-0.0017654
0.024081,0.092601,0.29224,-0.17654,0.038396,0.004817,0.016313,-0.0026259
-0.015559,0.057579,0.36273,0.1982,-0.010865,-0.012499,-0.0079976,-0.0033139
0.047446,0.21862,-0.3049,-0.32936,0.081957,0.041324,0.0074096,0.011833
-0.052825,-0.23682,0.049865,0.57053,-0.073686,-0.029046,-0.015674,-0.011838
0.058208,0.18297,-0.79887,-0.64227,0.10793,0.04185,0.031968,0.019426
-0.073047,-0.14003,0.24265,0.79433,-0.11585,-0.058755,-0.029555,-0.011599
0.16237,0.26197,-0.06717,0.093721,0.14504,0.082904,0.057355,0.059067
-0.14205,-0.27584,0.24276,-0.47667,-0.18804,-0.080298,-0.059034,-0.065558
-0.017587,-0.19908,0.51311,-0.31284,-0.0060738,-0.017252,-0.003811,-0.0027592
-0.01088,0.1957,-0.4752,-0.23089,0.081505,0.022047,0.004293,-0.0026
-0.0042859,-0.1141,0.10057,0.56491,-0.018873,-0.0013298,-0.0033496,-0.0025849
0.057459,0.12268,-0.55147,-0.29129,0.036912,0.037833,0.020332,0.036404
0.026466,0.20405,0.76312,0.37577,-0.016333,-0.016482,0.0052453,-0.0027207
-0.026567,-0.16602,-0.57248,-0.19497,-0.014189,-0.0078509,-0.017178,-0.026084
0.039106,0.13781,0.23135,0.14185,0.027892,0.024735,0.01566,0.021122
-0.065765,-0.23621,-0.099149,-0.078521,-0.069857,-0.043783,-0.021265,-0.025076
0.033355,0.21127,0.61356,-0.0097372,0.051593,0.020786,0.012516,0.022863
-0.031394,-0.42691,-1.0181,-0.41665,0.079176,0.030661,0.015168,-0.0069647
0.012651,0.38722,0.77153,0.69183,-0.050294,-0.03011,-0.013665,-0.013101
-0.05402,-0.21458,-0.083045,-0.43702,-0.11874,-0.052472,-0.027487,-0.026972
0.064838,0.040204,-0.35301,0.47423,0.068642,0.049256,0.02805,0.052754
0.1657,0.53373,0.14959,-0.21138,0.16006,0.10306,0.058963,0.085204
-0.19681,-0.42169,0.18224,-0.38032,-0.15685,-0.1176,-0.075439,-0.11733
-0.030223,-0.013123,0.4638,0.26974,-0.045653,-0.0031765,-2.7113e-05,-0.00028739
0.017702,-0.17686,-0.73069,0.066353,-0.0055291,-0.014252,-0.0035349,-0.0089513
-0.0052098,0.065587,-0.41288,-0.098453,0.026993,0.013691,-0.0073526,0.0052826
0.042759,0.036974,0.76774,-0.010586,0.076305,0.034269,0.028145,0.027084
0.0063942,-0.010185,-0.73405,-0.40793,-0.028717,-0.014585,-0.01369,-0.0056901
0.042734,0.16838,0.23399,0.27661,0.11858,0.054922,0.039434,0.032307
-0.050954,-0.098047,0.84109,0.35176,-0.16151,-0.069617,-0.031022,-0.046166
-0.016927,-0.043947,-0.35242,0.062402,-0.033439,-0.0055099,0.0014787,0.0090136
0.034922,0.14174,-0.23165,-0.22331,0.080229,0.028178,0.011674,0.0024923
0.0099772,0.05798,-0.080689,0.41578,0.045829,-0.00025691,-0.016505,0.012201
-0.030321,-0.025106,0.347,-0.52241,-0.11406,-0.013203,0.0023333,-0.0090485
0.022331,-0.29069,-0.36679,-0.17353,0.068577,0.035729,0.01295,0.02431
0.018592,0.16442,0.32782,-0.18132,0.10888,0.021167,0.022695,0.0025384
-0.089007,-0.17759,-0.73112,0.45905,-0.18863,-0.080512,-0.046847,-0.051209
0.035265,0.2135,0.45726,0.11984,0.059028,0.0041664,-0.00044499,0.0035353
-0.038092,-0.11522,-0.22504,-0.34985,-0.11645,-0.021426,-0.017652,-0.01293
0.082063,0.18916,0.4144,0.46974,0.13712,0.046241,0.019031,0.040138
-0.0097837,-0.027362,0.48761,-0.079264,0.015732,0.012327,0.016265,0.0066993
0.015322,-0.027513,-0.86404,-0.19302,0.012137,0.010091,0.013545,0.0041959
0.033181,0.090369,0.45275,0.20694,0.11112,0.055501,0.026867,0.025072
-0.1274,-0.35801,-0.17187,-0.37764,-0.18712,-0.10905,-0.060694,-0.078878
-0.012809,-0.026139,-0.08084,-0.14662,-0.070044,0.00085343,0.00099634,0.012849
0.056884,0.033229,0.080682,0.28722,0.048198,0.017952,0.0088216,0.026958
0.1129,0.39889,-0.21978,0.17886,0.1518,0.05143,0.040817,0.026037
-0.10286,-0.015861,0.64517,-0.2327,-0.15795,-0.070854,-0.051616,-0.052385
0.0028498,-0.10386,-0.67035,-0.14719,0.048312,0.033594,0.0047645,0.010411
0.046569,0.10817,0.099545,0.17897,0.11395,0.028504,0.022252,0.042462
-0.050485,-0.2351,-0.66895,0.29159,-0.063007,-0.023941,-0.0071585,-0.026673
0.023612,0.12059,1.009,0.25757,-0.029768,0.016627,0.017935,0.013792
-0.059681,-0.29628,-0.43875,-0.85028,-0.044376,-0.03745,-0.027589,-0.031608
-0.01933,0.043977,0.54488,0.43827,-0.0444,-0.0065267,-0.018812,-0.022392
0.089946,0.15671,0.3803,-0.039219,0.10306,0.023543,0.028595,0.04132
-0.012991,0.011528,-0.76552,-0.084681,-0.0080341,-0.009555,-0.002574,-0.0046378
0.0079999,0.14137,0.28004,-0.013652,-0.010241,0.011621,0.0048678,0.019335
0.07505,0.18904,-0.31875,0.20457,0.065437,0.032659,0.035309,0.027234
-0.1553,-0.40559,-0.04487,-0.27179,-0.093308,-0.055559,-0.059656,-0.07473
0.020375,-0.046431,-0.49615,-0.15736,0.0058391,0.020614,0.016913,0.010322
0.063342,0.16714,0.79501,0.30337,0.073885,0.026942,0.015117,0.032444
-0.072974,-0.28648,-0.16975,-0.055517,-0.084447,-0.05214,-0.033649,-0.039512
0.056989,0.41431,0.16018,-0.0020256,0.007423,0.009913,0.019223,0.02896
0.015878,-0.1439,-0.35877,0.24137,0.021383,0.0098808,0.0020346,0.0036234
-0.016597,0.046543,0.58312,-0.25274,0.0043178,0.017917,0.0008747,-0.0060291
-0.032725,-0.16367,-0.59578,0.23474,-0.0047054,-0.0052416,-0.0075957,-0.01554
0.08449,0.33335,0.27171,-0.24279,0.041196,0.010511,0.023529,0.037639
-0.047977,-0.29232,0.10126,0.40594,0.024857,0.0025054,-0.0073521,-0.0027195
-0.00060761,0.012142,-0.62261,-0.73613,-0.10054,-0.029345,0.001234,-0.011588
-0.062527,-0.05952,0.83348,0.28886,-0.038031,-0.014701,-0.013328,-0.027978
0.055398,0.2494,0.10844,-0.021852,0.12659,0.023144,0.0035379,0.0028826
-0.0529,-0.28035,-0.61214,-0.029963,-0.12999,-0.040568,-0.034192,-0.012641
0.058135,0.19508,-0.42362,0.34075,0.12203,0.052259,0.029677,0.02713
0.052793,0.16855,0.60276,-0.16122,0.0076418,0.028461,0.031056,0.044151
-0.092233,-0.49174,-0.11129,-0.052581,-0.066986,-0.049264,-0.030072,-0.047503
0.091796,0.41071,0.46604,0.47867,0.093265,0.045744,0.033774,0.03334
-0.098431,-0.22459,-0.29703,-0.37186,-0.12124,-0.061542,-0.058695,-0.057242
0.00079677,-0.037572,-0.055502,-0.43107,0.00012076,0.0037307,0.0049559,0.008629
0.037422,0.089018,-0.30047,0.20165,-0.019532,0.006941,0.021507,0.027523
-0.012585,0.029459,0.023321,-0.31462,0.06946,0.018074,-0.001351,-0.016518
0.029841,0.055709,0.0796,0.60897,0.03238,0.013318,0.029995,0.024623
0.023508,0.16575,0.46833,0.13888,0.0095409,0.00011242,-0.0017659,0.0022326
0.0070686,-0.017589,-0.36819,-0.35639,0.02415,0.017201,-0.010765,0.0020734
-0.027434,-0.22266,0.39385,0.1856,-0.033227,-0.029372,-0.020419,-0.014955
-0.071999,-0.16916,-0.32878,0.16193,-0.11554,-0.038086,-0.030588,-0.025288
-0.0089007,-0.091296,-0.61939,-0.57037,0.019864,0.014628,0.021481,0.0026153
0.022065,0.22323,0.88492,0.25938,-0.032599,-0.019376,0.0033046,-0.016769
0.037506,0.15953,0.10353,-0.093641,0.095049,0.039974,0.016788,0.034217
0.077458,0.20477,0.10685,0.22793,0.13011,0.052462,0.023154,0.031021
-0.091665,-0.38039,-0.58641,0.035509,-0.14564,-0.059686,-0.032117,-0.026009
0.0071796,-0.077892,-0.43116,0.0010084,0.0024204,0.01628,0.0072464,0.019577
0.0069161,0.12176,-0.23943,-0.34324,-0.0039521,-0.0085876,0.00049144,-0.019678
-0.030207,-0.069768,0.78703,-0.29996,-0.047978,-0.040544,-0.021375,-0.042312
0.12183,0.25346,0.35987,0.49268,0.16659,0.060929,0.042899,0.060847
-0.084561,-0.12076,-0.28817,0.42005,-0.12662,-0.024656,-0.025749,-0.02296
-0.05639,0.032147,0.5409,-0.16394,-0.037692,-0.016247,-0.01664,-0.028382
0.057247,-0.06358,-1.0449,-0.10122,0.11251,0.054723,0.038822,0.052144
-0.03318,0.050789,0.44926,-0.31236,-0.074767,-0.038436,-0.031261,-0.031579
0.070545,0.076683,-0.17218,-0.20293,0.14268,0.040171,0.023222,0.040626
-0.069054,-0.35399,0.10447,0.18803,-0.20357,-0.060963,-0.031888,-0.035987
0.009178,0.10247,0.097422,0.32855,0.004255,-0.013575,-0.0010058,-0.019229
-0.022548,0.0092434,0.11066,-0.13457,0.0012713,-0.0049912,-0.0010616,-0.0028006
0.047064,0.086133,0.08378,0.10083,0.092876,0.035247,0.022807,0.013354
0.05425,0.33423,-0.10224,0.13303,0.084287,0.044685,0.031576,0.037079
-0.09456,-0.35504,0.0083202,-0.33064,-0.10239,-0.031461,-0.037371,-0.033205
0.077241,0.096781,-0.71831,0.1127,0.0562,0.04094,0.034464,0.044616
-0.09448,-0.16202,0.50139,-0.25051,-0.10439,-0.066579,-0.050124,-0.049872
0.069812,0.16497,-0.79762,0.28151,0.079348,0.036245,0.036663,0.04262
-0.023807,-0.047831,0.67665,-0.15049,-0.0025314,-0.018059,-0.017923,-0.029491
0.030754,0.16005,0.67416,0.42391,-0.045856,-0.010872,-0.0030505,-0.00049313
-0.055677,-0.24281,-0.42695,-0.53926,-0.058816,-0.020263,-0.028041,-0.026434
-0.040963,-0.11556,0.69157,0.1747,-0.03383,-0.014748,0.0010543,-0.028896
0.082711,0.21429,-0.51599,-0.047409,0.13055,0.060718,0.037656,0.062753
-0.028358,-0.18209,-0.46547,-0.28791,0.028021,0.0034159,-0.0038509,-0.0090253
0.19623,0.49313,0.05942,0.5886,0.27581,0.094974,0.072133,0.09187
-0.24341,-0.33735,0.15154,0.098908,-0.42284,-0.17212,-0.10137,-0.11111
0.027914,0.038017,0.18842,-0.45273,-0.012947,0.022612,0.0070024,0.01473
-0.020814,-0.18518,-0.16683,0.28341,0.021561,0.0073551,0.006645,0.0004108
-0.014332,0.118,-0.34053,-0.26574,-0.021843,0.0007626,-0.0087503,-0.021518
0.10228,-0.029463,-0.40409,-0.05637,0.19339,0.072928,0.038827,0.042444
0.04793,0.19197,0.53371,0.44008,0.01933,0.012594,0.016416,0.012427
-0.028935,-0.0078641,0.49664,-0.028162,-0.043793,-0.016541,-0.013636,-0.0022822
-0.097184,-0.19274,0.58452,-0.40689,-0.11321,-0.077311,-0.043649,-0.056356
0.02264,0.0032087,-0.8951,-0.070307,0.076365,0.025364,0.0044105,0.014372
-0.021329,0.04754,0.11164,0.06152,-0.07713,-0.044541,-0.010131,-0.016506
0.059642,0.11907,-0.4463,0.076763,0.1054,0.056785,0.029894,0.038654
-0.039452,-0.063873,0.049364,-0.014824,-0.11096,-0.029859,-0.0083429,-0.015375
0.071735,-0.10273,0.12959,0.3737,0.11712,0.07856,0.039186,0.063576
-0.028868,-0.0046248,0.37979,-0.25797,-0.0309,-0.01618,-0.015077,-0.037111
0.0024158,0.16918,0.011386,0.18234,-0.015925,-0.017032,-0.0071297,-0.0051161
-0.045261,-0.13433,0.21453,0.059429,-0.033017,-0.033249,-0.0073153,-0.020307
0.00024325,0.12583,-0.30184,-0.31661,-0.011411,-0.0022458,-0.015596,0.0031466
0.02217,-0.048328,-0.36405,0.25571,0.049463,0.021355,0.0072177,-0.0050555
-0.0023965,-0.11594,-0.044511,-0.41913,-0.029507,-0.017086,-0.0089731,0.0021094
-0.033875,-0.052208,-0.12336,0.011902,-0.013483,0.0074596,-0.0014093,-0.0063566
0.053131,0.12786,0.49611,-0.049903,0.097785,0.040295,0.030154,0.024528
-0.022461,0.025505,-0.38634,0.31306,-0.047285,-0.043646,-0.023495,-0.014355
-0.01859,-0.032512,0.73004,-0.1225,-0.042743,-0.010118,-0.0060861,-0.021298
0.04088,-0.048532,-0.98602,0.10637,-0.014107,0.031316,0.027549,0.042745
0.030286,0.16972,0.56675,0.24981,0.045784,-0.0055091,0.006796,0.013531
0.003545,0.10338,0.33609,-0.076926,0.058144,0.027616,0.017193,0.0079338
-0.00098829,-0.047319,-0.093804,-0.15092,0.0067998,-0.010127,-0.011986,-0.021292
-0.085362,-0.19051,0.31202,-0.12523,-0.14765,-0.048539,-0.049825,-0.043236
-0.062223,-0.28764,-0.31771,-0.13724,-0.014651,-0.025136,-0.010558,-0.019064
0.1077,0.24045,-0.46895,0.54384,0.12473,0.075788,0.043339,0.06677
-0.090698,-0.17422,-0.59982,-0.4198,-0.10414,-0.050306,-0.044171,-0.051282
0.16353,0.44805,0.47757,0.18301,0.16637,0.073314,0.071,0.06446
-0.066503,-0.092667,0.75317,-0.36428,-0.094598,-0.053209,-0.040463,-0.054528
-0.061624,-0.23122,-0.74009,0.020157,-0.074272,-0.023543,-0.011051,-0.0017984
0.037676,0.12771,0.31396,0.059431,0.071177,0.029506,0.010992,0.027459
0.067174,0.1094,0.082848,0.34356,0.060423,0.012127,0.033507,0.03327
0.026487,0.00196,-0.096192,0.086473,0.057355,0.049222,0.017303,0.015583
-0.13955,-0.18864,0.34485,-0.069834,-0.20383,-0.10148,-0.069112,-0.088182
0.053045,0.050954,-0.64749,-0.10218,0.026802,0.028727,0.02399,0.026612
-0.036553,-0.023599,0.79095,0.0035191,0.038389,0.010241,-0.0083045,-0.014996
0.068328,0.24241,-0.22919,-0.036185,0.042146,0.015115,0.029214,0.037143
-0.092831,-0.4407,-0.56836,-0.35627,-0.031819,-0.042293,-0.043081,-0.051094
0.074382,0.26351,-0.11142,0.21355,0.059191,0.049318,0.032848,0.056546
0.047311,0.1612,0.68682,0.29757,0.010992,0.0090745,-0.00045124,0.0010004
-0.10298,-0.36261,-0.4473,-0.29934,-0.12913,-0.06895,-0.040996,-0.037798
0.03032,0.15549,0.73838,0.21279,0.01406,0.018567,0.020984,0.026214
-0.029114,-0.094808,-0.42304,0.014942,0.026478,-0.0018037,-0.0017367,-0.025752
0.038866,0.067609,-0.35318,-0.39938,0.0015445,0.018157,0.015918,0.0092239
0.085239,0.15858,-0.15046,0.45516,0.14955,0.078003,0.042539,0.037025
-0.062804,-0.010544,0.089057,-0.32739,-0.092923,-0.065081,-0.039451,-0.036583
-0.00015549,-0.0046975,0.72395,0.29149,-0.039422,-0.0055647,-0.0040471,0.014424
-0.056101,-0.16314,-0.26951,-0.43185,-0.019089,-0.025386,-0.015942,-0.013593
0.0027625,0.073015,-0.36084,0.42228,-0.0092747,-7.8973e-05,0.0024026,-0.0038581
0.11333,0.29428,0.26047,0.29663,0.10681,0.054448,0.042741,0.051205
-0.091723,-0.43908,0.3485,-0.23318,-0.045732,-0.033658,-0.035753,-0.043732
-0.041708,-0.12783,-0.82901,-0.5127,-0.052255,-0.014069,-0.0064474,-0.015011
0.068869,0.32259,0.1344,0.090175,0.010128,0.012228,0.0059867,0.0049776
-0.024512,-0.054272,0.44032,0.19328,-0.029204,-0.0087246,-0.0057313,-0.0066435
-0.031589,0.018342,0.12501,0.064186,-0.0049244,-0.0058579,-0.0097178,-0.0024053
0.033086,0.036422,0.01302,0.16679,0.037113,0.013667,0.010269,0.026023
-0.025044,-0.26982,-0.47745,-0.17517,-0.00409,-0.012214,2.2052e-05,0.00085926
0.052141,0.15725,0.033262,-0.23953,0.066774,0.033838,0.014488,0.015968
0.17854,0.44449,-0.081943,0.078114,0.24915,0.089187,0.084914,0.055601
-0.26359,-0.47784,0.41833,0.40469,-0.41103,-0.15123,-0.11707,-0.12274
0.045252,0.13964,0.22987,-0.19652,0.030472,0.015187,0.0096786,0.027402
0.010477,-0.024982,-0.59895,0.03189,0.080502,0.041035,0.027181,0.021225
-0.0092592,-0.067652,-0.23803,-0.27083,-0.019372,-0.011643,-0.010318,-0.0088166
0.016817,-0.0064426,0.25973,0.22917,0.043158,0.0052914,0.0062404,-0.00045747
-0.044297,-0.062481,0.22349,-0.064225,-0.075434,-0.041087,-0.032653,-0.0084736
0.057464,0.13713,0.47323,0.0028829,0.062886,0.03678,0.029305,0.037501
0.0098522,-0.018651,-0.86015,-0.063698,-0.017757,-0.010922,-0.010799,-0.018611
0.024157,0.14866,0.431,0.23455,0.073942,0.034807,0.019226,0.018764
-0.055499,-0.15844,-0.18092,-0.16575,-0.0521,-0.021086,-0.013087,-0.037563
-0.0022147,-0.025942,0.26086,-0.20237,-0.028376,0.0013053,0.0019422,-0.0075879
0.028024,0.10921,0.33907,0.37483,0.020187,0.00057289,0.0098387,0.023027
-0.034925,-0.18937,-0.89299,-0.24621,-0.031562,-0.015385,-0.01275,-0.0080286
0.012126,0.11889,0.5969,-0.08854,0.05042,0.0081416,0.0044366,0.0086777
0.036318,-0.065862,-0.67222,0.37144,0.039132,0.016438,0.022165,0.018366
-0.095315,-0.12482,0.23463,-0.42901,-0.13622,-0.053062,-0.053576,-0.041705
0.093557,0.24798,-0.23892,0.27505,0.039531,0.03393,0.02691,0.031236
0.040159,0.13143,0.41276,0.01391,0.097264,0.042935,0.028947,0.025848
-0.037017,0.010085,0.69356,0.13039,-0.049214,-0.033958,-0.024277,-0.026993
-0.052213,-0.26474,-0.46553,0.084921,-0.0093904,-0.0015184,-0.00010811,-0.010363
-0.028914,-0.099832,0.22305,-0.34872,-0.025411,-0.023859,-0.015782,-0.010289
0.072041,0.16832,-0.58829,-0.051921,0.059154,0.039639,0.030335,0.0124
-0.069436,-0.12483,-0.45176,-0.48313,-0.091347,-0.045371,-0.041265,-0.043578
