-0.54469,0.01523,0.23076,0.052552,0.006786,0.0093413,-0.11143,-0.083986
-0.34599,-0.18735,-0.12838,-0.2208,-0.055654,-0.022238,0.020048,-0.023741
0.18044,0.23556,0.18491,0.24597,0.022984,0.032733,0.041575,0.068615
-0.027113,-0.098929,-0.13527,-0.25031,-0.0073337,-0.013319,-0.030959,-0.048871
0.34582,-0.0037165,0.33972,0.00019549,-0.0060677,-0.004303,0.052687,0.076925
-0.02633,0.067368,-0.039423,0.097035,0.05008,-0.0029438,-0.027628,-0.054228
0.015179,-0.034981,-0.48411,-0.017222,-0.01095,0.01395,-0.021822,0.018209
0.08956,0.15719,0.25559,0.40439,-0.040931,-0.016339,-0.00020673,0.043768
-0.098697,-0.1222,-0.1246,-0.31277,0.022431,0.031047,0.029358,-0.071719
-0.19725,-0.091705,0.24324,0.2278,0.014904,-0.031425,-0.019124,-0.047269
0.083353,-0.00041224,-0.093022,-0.6776,-0.079238,-0.016157,0.010567,0.023301
0.094909,-0.026365,0.031673,0.15167,0.11499,0.037999,-0.022166,0.046375
-0.32648,-0.019037,0.0088516,0.10865,-0.050789,-0.032732,0.015592,-0.032461
0.14738,0.062737,0.06577,0.10291,-0.021728,0.014139,0.0068268,0.060565
0.19603,-0.068497,-0.31275,0.1849,0.0070633,-0.00082866,-0.001369,0.0054524
-0.087382,0.17386,0.18596,-0.064207,0.0202,-0.007203,-0.016589,-0.049128
0.21013,0.015823,0.069608,0.0060401,0.0022958,0.018403,-0.015231,0.037572
-0.35053,0.08846,-0.099669,-0.18963,-0.015193,0.021067,0.018379,-0.086003
0.21316,-0.13431,0.036869,0.21529,-0.00086749,-0.030854,-0.017438,0.025352
0.1103,-0.11644,0.072149,-0.24966,-0.009337,0.0027761,0.041077,0.01205
-0.28554,0.12366,-0.010362,0.23339,0.037523,0.019905,0.021575,0.03003
0.032736,-0.064418,-0.10994,-0.17413,-0.0087933,-0.034553,-0.029644,0.016408
0.041843,-0.072123,0.10094,0.11911,0.023465,0.018869,0.011842,0.00203
-0.17127,0.030691,-0.026386,-0.24036,-0.092419,0.00049619,-0.018478,-0.036887
0.24663,-0.012231,-0.046357,0.22291,-0.012865,-0.042536,-0.019251,0.0088416
0.31319,0.067013,-0.04422,-0.030383,0.074467,0.05431,0.025245,0.068949
-0.64149,-0.049394,0.074812,0.10979,0.060062,-0.013029,-0.033025,-0.13749
0.47011,0.062644,-0.016202,0.058967,-0.0014854,-0.0095036,-0.0059209,0.030745
-0.48391,0.068767,0.004148,-0.18853,-0.063309,0.0030074,0.0057348,0.0040881
0.25426,0.040039,0.011645,-0.020808,-0.031559,-0.0062801,0.010432,0.017675
0.20711,-0.054825,0.030026,-0.30254,-0.023206,0.0097422,0.016442,-0.013848
-0.20537,-0.068005,-0.019097,0.2261,0.063605,0.011969,0.031715,0.0582
0.17054,-0.0082325,0.011925,-0.1214,-0.052091,7.6664e-05,0.016981,-0.00074894
-0.0898,-0.079586,-0.049961,0.59209,-0.010756,-0.034305,-0.02825,0.0039959
0.065784,0.01398,0.028259,-0.32282,0.062554,0.033112,-0.010863,-0.022256
-0.4113,-0.17352,0.042162,0.49022,0.058138,-0.0093679,-0.048659,-0.041508
0.47842,0.29484,-0.032698,-0.37075,0.022306,0.017269,0.029801,0.078095
-0.17047,0.20757,-0.05623,-0.42453,-0.053444,0.018796,0.005608,0.01561
0.13632,-0.1156,0.018476,0.029956,-0.060384,-0.051853,-0.027348,-0.080685
-0.35594,-0.08138,0.035763,-0.18741,-0.077076,0.00077331,0.017257,-0.069816
-0.13598,-0.041568,-0.01113,0.63551,0.083871,-0.041633,-0.016301,-0.068196
0.23689,-0.30067,-0.019333,-0.053517,0.016457,0.032525,0.044383,0.12049
0.17121,0.26695,-0.010947,-0.31387,-0.052204,0.013056,-0.0034057,0.11442
0.59764,0.1154,0.01514,0.32631,0.11301,0.041261,0.028046,0.031523
-0.71083,-0.19173,-0.010692,-0.1773,-0.010546,0.00043278,-0.025336,-0.049676
0.13488,0.049545,0.091397,0.059761,-0.023686,-0.015473,-0.023137,-0.058845
-0.19557,0.07393,-0.053997,0.07716,-0.043008,-0.029976,-0.020379,-0.050915
-0.079415,-0.056424,0.15384,-0.22708,-0.021254,0.011287,0.037238,0.075313
0.12991,0.094952,-0.23935,-0.057355,-0.036415,-0.0093522,-0.022525,-0.10238
-0.0063439,0.12032,-0.070636,-0.12651,0.044177,0.024756,0.010978,0.017298
0.14397,-0.13032,0.10432,0.58661,0.12636,-0.011884,0.004738,0.051388
-0.036586,-0.064397,0.11304,0.0093663,-0.087401,-0.002459,-0.010093,0.03103
-0.0011516,-0.041659,0.010034,-0.18843,0.066175,0.0059467,-0.0022706,0.034238
-0.0075263,-0.0067843,-0.016871,-0.4223,-0.093399,-0.04919,0.012655,-0.040697
0.10832,0.065267,-0.037242,0.13529,-0.035522,0.051023,0.027016,-0.037711
-0.35681,-0.22171,-0.20626,0.10964,0.044119,0.0021692,-0.013664,-0.019491
0.24543,-0.060699,0.071007,0.056552,-0.02639,-9.9494e-05,-0.015366,0.076334
0.12597,0.44851,0.11592,0.18074,0.096993,0.0055119,-0.0012087,0.023175
-0.30102,-0.12304,0.046299,-0.17229,-0.085181,-0.011921,-0.025549,-0.085124
0.16789,0.19284,-0.028493,-0.11819,0.021532,-0.020889,-0.017781,-0.053057
-0.10741,-0.0040458,-0.046662,0.00042097,-0.050925,0.010021,0.022275,0.018043
0.2176,-0.36463,0.068608,0.30131,0.049575,-0.012889,0.016494,0.058035
0.057985,-0.039949,0.050052,-0.090492,0.057742,0.043126,0.058408,0.090365
-0.45216,0.18668,-0.057035,-0.15202,-0.0029316,-0.001804,-0.02428,-0.11173
0.51678,-0.0060835,0.011854,0.014387,-0.062353,-0.030765,-0.028998,0.021634
-0.27577,-0.094555,-0.14204,-0.27973,-0.011584,0.026231,0.067127,0.021165
-0.17207,0.094586,0.091268,0.6053,0.015999,-0.010834,-0.095714,0.034754
0.1259,-0.0066331,-0.27894,-0.45639,-0.034889,-0.032871,0.02134,-0.047343
-0.053319,-0.12984,0.28061,0.24549,0.069581,0.0067878,-0.073822,-0.037678
0.1725,0.10255,-0.017033,0.12473,-0.022578,0.037726,0.040996,0.064101
0.098524,-0.12004,0.15019,-0.1857,0.032129,-0.010362,0.014688,-0.15532
-0.12954,0.32828,-0.013582,-0.08354,-0.039791,0.018885,0.089904,0.15664
0.086557,-0.013698,-0.14109,0.0027364,-0.0038016,-0.022759,-0.084574,-0.092642
0.17319,-0.25666,-0.014382,-0.15972,-0.047048,-0.025634,0.085173,0.0040548
-0.21596,0.30051,-0.025561,0.079081,0.034105,0.0027862,-0.010221,0.1036
-0.51177,-0.37564,0.08135,0.29063,0.068373,0.047224,0.035413,0.057716
0.51284,0.1426,0.031065,-0.063639,-0.037407,-0.048258,-0.2155,-0.087085
0.016298,-0.052416,-0.0060874,0.28148,0.029774,0.036878,0.033918,-0.011224
-0.39639,-0.047342,-0.14831,-0.77682,-0.11254,-0.033206,0.033746,-0.090648
0.41155,-0.029777,0.080623,0.53298,0.043634,0.0070661,0.057536,0.095582
0.021857,0.20369,0.024768,-0.10376,0.037297,0.032502,0.074101,0.023292
-0.25045,0.044127,-0.065007,-0.2047,0.016617,0.003733,-0.002541,-0.034496
0.15015,0.023154,0.10938,0.54113,-0.018862,-0.017108,0.014945,-0.015339
0.10541,-0.038635,-0.052307,-0.28891,0.016227,-0.0069436,-0.16274,-0.043991
-0.098375,-0.078515,-0.048902,-0.49936,-0.02714,-0.036377,0.026694,-0.02628
0.12859,-0.064958,0.10484,0.39515,0.045851,0.035038,0.02059,0.12416
-0.07745,-0.15381,-0.03597,0.41968,-0.015124,0.0041319,0.061099,-0.022107
0.09208,0.24136,-0.018217,-0.88474,-0.15548,-0.019654,-0.054868,-0.011968
-0.38898,-0.15243,0.040491,0.70257,0.054591,0.026331,-0.022566,0.044871
-0.18572,0.13374,-0.087113,-0.17619,0.091905,-0.013981,0.064269,-0.055278
0.57767,0.021512,0.019993,0.065976,0.081799,0.00021701,-0.036614,-0.00055201
-0.18234,0.0023687,-0.006235,0.12492,-0.037895,-0.0012424,0.080904,0.0054072
0.11588,0.20806,-0.002468,-0.33521,-0.055949,0.036433,0.10418,0.095207
0.070076,-0.26096,0.28079,0.17764,-0.065867,-0.035126,-0.15438,-0.09811
-0.35499,-0.046105,-0.29729,-0.16495,0.049753,0.010697,-0.21813,-0.12854
0.15632,-0.1006,-0.025656,-0.17584,-0.037031,-0.021351,0.061566,0.020571
-0.042362,0.21701,-0.021074,0.23037,0.048907,0.00943,0.22408,0.13168
-0.059698,-0.0055567,0.052993,0.21687,0.010721,0.0093739,-0.081856,-0.051947
0.37714,-0.0079693,0.040934,-0.15514,-0.018882,-0.02926,0.057984,0.048531
-0.014887,-0.11547,0.08389,0.20637,0.030161,-0.043949,0.0029599,0.12864
-0.26175,-0.1535,0.010264,-0.044281,0.032487,0.13713,0.0029034,-0.046328
-0.13969,0.083033,-0.093987,-0.42454,-0.098247,-0.048674,-0.043969,-0.1646
0.18469,0.35263,0.013138,0.22831,0.036038,0.0077977,-0.098745,0.038459
0.0063497,-0.056485,-0.028009,-0.070669,0.067928,-0.014015,0.010465,-0.063142
0.058626,-0.15454,-0.0067333,0.33509,-0.041678,-0.044014,0.1276,0.06876
-0.15871,0.086033,-0.016913,-0.31107,-0.12075,0.019233,-0.20015,-0.027488
-0.3406,-0.18288,-0.0038524,-0.24958,0.0028686,-0.01961,0.21498,0.046013
0.37301,0.15155,0.087253,0.34191,0.071701,-0.0042193,-0.10344,0.023255
0.28745,-0.10961,-0.055932,0.19187,0.16413,0.04991,0.063213,0.060257
0.36406,0.15634,0.12925,-0.23723,-0.079109,0.033535,0.066088,0.024171
-0.77193,-0.22305,-0.13835,0.17272,-0.064312,-0.061053,-0.10322,-0.1629
-0.1282,0.066004,-0.046172,-0.085777,0.005231,0.047451,0.023388,0.046484
0.31905,-0.0047861,0.062053,-0.34105,-0.073798,-0.039368,-0.070224,-0.057693
0.023645,0.23293,-0.024615,0.18761,0.050033,-0.032433,0.061014,0.03358
-0.21643,-0.082999,0.13915,0.29635,0.040783,0.021414,-0.059351,-0.029946
0.22518,-0.072494,-0.10287,-0.078049,0.015782,0.028479,0.053507,0.06542
-0.017372,-0.26239,-0.00058442,-0.23305,0.0065544,0.0044667,-0.013786,-0.0076101
0.017897,-0.048068,-0.038214,0.13566,-0.033407,-0.042731,-0.057328,0.055968
-0.11385,0.11065,0.010982,-0.18298,-0.056837,0.019758,0.12671,0.076208
0.024613,0.52516,-0.024707,0.18611,-0.00091652,0.020078,-0.00024771,-0.15077
0.018143,0.036003,0.10479,-0.14751,-0.02174,0.0050723,-0.09425,-0.0010515
-0.0022727,-0.19758,-0.10846,0.32411,0.12278,-0.040967,0.039914,0.016401
0.023501,-0.10294,0.069574,-0.17247,0.033792,0.022461,0.019085,0.0099314
0.17101,-0.3336,0.021134,-0.24686,-0.062805,-0.00010232,0.0068251,0.0022336
-0.015289,0.20829,0.0032717,0.38958,-0.0037868,-0.0072467,-0.07554,-0.046162
-0.32627,-0.1041,-0.016075,-0.20121,-0.00091864,0.00089359,0.037105,-0.025988
0.073088,0.073179,-0.10794,-0.12917,-0.078267,0.00078296,-0.038464,0.062835
0.057928,-0.015897,0.0944,0.30839,0.029513,0.015816,0.049025,-0.029559
-0.097151,-0.048336,0.012697,-0.20904,0.064765,0.0069604,0.049392,0.09535
0.18011,0.22082,0.0066304,0.15463,-0.010987,-0.010046,-0.10776,0.046928
-0.053228,0.082816,-0.055916,-0.0062916,0.021936,-0.011568,0.14009,-0.04988
0.10376,0.0076681,0.005751,-0.33153,-0.13223,-0.036402,-0.16791,-0.11693
-0.065385,0.05822,-0.088452,0.15662,-0.0036363,0.032936,0.17938,0.072543
-0.089992,-0.30482,0.16262,0.084293,0.13515,0.0014045,-0.13021,-0.11376
0.28926,0.074466,-0.052622,-0.12575,0.0033286,0.0098151,-0.010282,0.074943
-0.35621,-0.046084,0.086704,0.42535,0.022728,0.019154,0.086588,0.053702
-0.025741,-0.24401,-0.083366,-0.48916,-0.11974,-0.03319,-0.049932,-0.020231
0.038755,0.098957,-0.063192,0.5206,0.043671,0.00095312,-0.020835,-0.036656
0.22766,0.37472,0.037084,-0.35118,0.027332,0.03527,0.049308,0.067388
-0.11609,-0.17353,-0.017969,-0.37925,0.017488,-0.016599,-0.11275,-0.05188
0.029509,0.0014678,0.090756,0.62266,0.013108,-0.014426,0.086601,0.01904
-0.15787,0.15708,-0.012927,-0.27613,-0.064544,-0.0053842,0.084396,-0.017773
0.21,-0.10633,-0.017508,-0.091992,-0.051489,0.002552,-0.0029545,0.031593
0.03683,-0.02481,-0.048619,0.15121,0.013659,-0.021874,-0.1061,-0.0062845
0.23438,0.0093451,0.073283,0.0079519,0.014582,0.015218,0.078685,0.039005
-0.91003,-0.13014,-0.073281,0.20483,0.061753,0.035929,-0.12911,-0.13836
0.43082,0.032728,0.01258,-0.18758,0.015648,0.0014759,0.03564,0.17194
0.53045,0.0294,-0.097575,-0.23118,-0.044708,-0.025353,0.065008,-0.03785
-0.63359,-0.10808,0.082005,0.1765,0.029685,-0.0052218,0.01395,-0.13423
0.32323,0.12132,0.076008,0.044544,-0.026615,0.023054,0.02368,0.063761
-0.18282,-0.055032,-0.013113,-0.063038,0.012793,-0.034068,-0.17845,-0.13759
0.061531,0.066183,0.041586,0.23033,0.030321,0.018894,0.13496,0.17743
0.089702,0.17183,-0.072562,-0.3864,-0.02923,-0.021076,-0.097812,0.025864
-0.026294,-0.052026,-0.020256,0.05657,-0.088231,0.0023109,0.10036,0.049295
-0.10574,-0.036988,0.017862,0.26285,0.063859,0.04213,0.12042,-0.025318
0.070345,-0.19122,-0.11553,-0.18187,-0.010724,-0.011135,-0.068759,-0.0027739
0.0092036,0.10113,0.20356,0.12768,0.070691,-0.0092653,-0.021906,-0.055413
-0.056094,0.042884,0.0056128,0.19766,-0.020089,0.00059683,-0.16095,-0.12918
0.15385,-0.068079,-0.1395,-0.66144,-0.056556,-0.01307,0.076618,0.05653
-0.17561,0.012732,0.049429,0.50139,-0.070039,-0.011436,-0.066959,-0.037931
-0.046621,0.054237,-0.091363,0.020256,0.18152,0.028784,0.06462,0.086904
0.31247,-0.26795,0.048066,-0.14516,-0.020811,0.013786,0.15096,0.14926
-0.16982,0.15124,0.054315,0.051543,-0.060013,-0.040756,-0.089544,-0.038898
0.14682,-0.08404,0.02172,-0.24084,-0.022144,0.013735,0.045598,-0.048409
-0.38542,0.44141,-0.057166,0.21319,-0.0087629,-0.010039,-0.15546,-0.09063
-0.022894,-0.030743,0.059911,-0.061285,0.050609,0.020957,0.14999,-0.017341
0.25986,-0.10411,0.0055487,0.21104,-0.023392,0.020983,-0.02343,0.054318
-0.19906,-0.24275,-0.025344,-0.24939,0.011857,-0.048886,-0.09054,-0.062858
0.18813,0.08894,0.02147,0.082135,-0.14006,-0.016736,-0.067361,-0.048104
0.18828,-0.11225,-0.15124,-0.051576,0.17751,0.06268,0.35867,0.21624
0.13,0.11222,0.081383,0.021274,-0.043024,-0.029555,-0.32758,-0.003819
-0.29154,0.050072,0.094424,0.26092,0.049944,0.03445,0.038837,-0.028399
-0.16275,-0.1506,-0.11181,-0.052488,0.057835,0.012255,-0.08789,-0.076206
-0.0075572,0.10434,0.017778,-0.24833,-0.13679,-0.057287,0.12145,-0.0066776
-0.091913,-0.067164,0.046141,-0.085532,-0.041989,-0.01804,0.12869,-0.085525
0.29491,0.077785,0.012691,0.060131,0.029542,0.012814,-0.02651,0.13249
-0.25362,-0.0072921,-0.027674,-0.093,-0.039455,0.011957,0.062337,-0.032364
0.10555,0.13073,0.034466,0.39247,0.11822,0.0030118,-0.32358,-0.11925
0.082097,0.09318,-0.066606,-0.077119,0.018233,0.0017992,0.096728,0.10604
0.24449,-0.096653,0.04394,0.0061808,-0.034707,0.016282,0.065124,0.088547
0.3093,-0.12591,-0.016894,-0.24026,-0.032837,0.030909,0.11254,0.13266
-0.50665,-0.27464,-0.0070723,-0.042764,-0.038777,-0.040258,-0.097215,-0.12122
-0.43894,0.076459,0.0030017,0.3412,0.072308,-0.0019526,0.0059888,-0.21998
-0.096945,0.35995,-0.017959,-0.22851,-0.020078,-0.010474,-0.031088,0.047685
0.36434,-0.13196,0.015973,-0.016885,-0.073905,-0.034586,-0.083518,-0.020634
0.20498,-0.084011,0.018837,0.062689,0.11385,0.042933,0.16895,0.083839
0.2871,-0.095999,0.014,0.12025,0.035372,0.019042,-0.078468,0.073034
-0.41792,0.22295,-0.037723,-0.25776,-0.043629,0.0032181,0.095975,0.010219
0.052968,-0.081796,0.066623,-0.11798,-0.14638,-0.035696,0.043667,-0.0027157
-0.017682,0.28347,-0.048137,0.51608,0.0086379,-0.0038945,-0.28245,-0.1066
-0.17631,-0.22471,-0.069643,-0.23882,0.12486,0.020496,0.14088,0.072826
0.13141,-0.095601,0.09578,0.22605,-0.00058588,0.021786,-0.084893,-0.11399
0.19358,-0.036877,-0.044052,-0.13688,0.13242,-0.031398,0.1651,0.1832
0.094824,0.19032,-0.043758,-0.60945,-0.2027,-0.006402,-0.04672,-0.060292
-0.38503,-0.063918,0.096765,0.50331,-0.0060747,0.018477,0.084262,-0.056361
0.15119,-0.04885,-0.036442,-0.19714,-0.0045019,0.01184,-0.035684,0.038295
-0.11774,-0.042818,0.07233,0.57835,0.098649,0.0048411,-0.078271,0.10666
0.12014,0.0056789,-0.092492,-0.24825,0.029706,-0.041605,-0.09782,-0.2333
-0.049481,0.11,-0.030882,-0.23936,-0.12558,0.01318,0.1328,0.11342
-0.056449,-0.58379,0.014974,-0.098141,0.023269,-0.018194,-0.10449,-0.23456
0.083351,0.29574,0.021618,0.18313,0.038687,0.020656,0.019085,0.13029
-0.029038,0.59452,0.0046201,0.049605,-0.0012335,-0.018603,0.066481,0.14624
0.20717,-0.1175,0.06546,0.016759,-0.0027292,0.067195,0.084677,0.2274
0.20516,0.1022,0.00091872,0.17041,0.073307,-0.034499,0.10465,-0.048828
-0.38727,-0.18847,-0.071875,-0.25509,-0.10117,0.019942,-0.038247,-0.17586
-0.17181,-0.34633,-0.051335,-0.25175,-0.11981,-0.074326,-0.51667,-0.26452
-0.022748,-0.1887,0.054869,0.27453,0.15817,0.041932,0.33266,0.05114
0.16296,0.44504,0.0048229,0.097736,0.06888,0.017093,-0.030022,0.16097
0.20769,-0.14191,0.033266,-0.17993,-0.0046308,0.030899,0.1682,0.0022966
-0.3004,-0.011583,-0.031282,0.39534,-0.023003,-0.057089,0.1145,0.16923
0.1171,0.11938,-0.024412,-0.39458,-0.15774,-0.043451,-0.37093,-0.20464
0.039363,-0.034983,0.061907,0.33366,0.091603,0.033102,0.16516,0.022326
-0.033612,0.044342,-0.084798,-0.568,-0.05581,0.016649,-0.081575,0.0074509
0.11585,-0.061492,0.0040241,0.0099323,-0.052805,0.0089768,0.092587,-0.0061159
0.017152,0.0090455,0.077955,0.26245,0.14752,0.01795,-0.069433,-0.0098321
0.11343,0.030382,0.034842,0.20434,0.11516,0.04343,0.15189,0.12952
-0.18313,0.033532,-0.016596,0.30298,-0.049019,-0.07114,-0.22711,-0.17399
-0.19392,-0.32657,-0.045709,-0.38867,-0.080363,0.0019613,0.12998,0.055856
-0.067331,0.54177,-0.06853,0.018296,-0.011164,-0.018934,-0.034463,-0.017567
-0.060067,-0.21539,0.0085635,-0.4774,-0.13922,-0.009183,0.029435,0.073585
0.24381,0.016976,0.037317,0.27217,0.058297,0.030969,0.18842,0.1252
0.20578,-0.14551,0.049428,0.11892,0.12019,-0.0079746,-0.3238,-0.33239
0.14789,-0.094076,-0.016992,0.14992,0.030994,0.053673,0.2108,0.27045
-0.38976,0.062334,-0.020656,-0.31291,-0.076022,-0.041801,-0.26316,-0.19944
-0.086775,0.12195,0.031213,0.30248,-0.028274,-0.020778,0.1835,0.0079903
0.29831,0.00077771,-0.032831,0.028842,0.089149,0.046677,0.12083,0.20567
-0.071795,-0.0021285,0.013981,-0.12492,-0.011915,-0.026643,-0.13087,-0.14477
-0.25343,0.076135,-0.086212,-0.37704,-0.14312,-0.045104,0.006791,0.035666
0.19705,-0.052038,0.08035,0.32709,0.024352,0.03066,-0.012566,-0.048999
-0.12802,-0.10467,0.07565,0.33055,0.10811,0.036842,0.022646,0.078623
0.22345,-0.027161,-0.1166,-0.71934,-0.071456,-0.034213,-0.082164,-0.057375
0.0087776,-0.0548,0.13572,0.69945,0.086894,0.02847,0.079917,0.090309
0.056116,0.24048,-0.13673,-0.28174,-0.0034431,-0.025203,-0.068755,-0.12661
-0.46211,0.004986,0.010965,-0.007864,0.031647,0.038942,0.13608,0.0026869
0.18161,-0.037054,0.063123,0.0047712,-0.082191,-0.029372,-0.032282,0.079362
0.058783,-0.028418,-0.081554,-0.032833,-0.087883,-0.05076,0.027288,-0.0065959
0.069005,-0.0019294,0.038433,0.020805,0.10793,0.036998,-0.17024,-0.060705
0.18196,-0.09888,0.0019678,-0.090604,0.0052745,0.038365,0.10099,0.07235
-0.10964,-0.10793,-0.010453,0.025435,-0.067272,-0.03117,-0.011242,-0.030239
-0.055681,0.21453,0.048765,-0.24648,-0.023048,0.05492,0.12544,0.091666
-0.32833,-0.098099,-0.0073737,0.47772,0.037213,-0.086107,-0.17665,-0.19529
0.23592,0.11292,-0.045837,-0.12972,0.098613,0.0303,0.043536,0.13998
0.12855,-0.10326,0.042666,0.21186,0.0053667,-0.0018543,-0.026185,-0.074174
0.02852,0.012846,-0.023465,-0.045815,-0.10179,-0.026029,-0.018174,0.061321
-0.041361,0.008809,0.01305,-0.2952,0.02691,0.036176,0.036763,-0.085406
-0.1049,0.05611,-0.0046613,-0.03803,0.023766,0.0209,0.084264,0.057072
0.14261,0.043981,0.0087353,0.076051,-0.018115,-0.0092683,0.1401,0.067994
-0.16553,0.032834,-0.025392,-0.062791,0.0099941,0.00032132,-0.19418,-0.098565
-0.04402,-0.12808,-0.021461,0.084789,-0.056497,-0.028613,-0.13745,-0.027903
0.039635,-0.018906,-0.0031058,-0.027285,0.016447,-0.0025638,0.13826,0.11616
0.11795,0.11695,0.05306,0.016032,-0.005676,0.015675,-0.039043,0.036547
-0.050238,-0.080004,0.045524,0.12184,0.049068,-0.013259,-0.036652,-0.18141
0.027701,-0.10873,-0.10372,0.15785,0.032437,0.011918,0.074991,0.062922
0.015552,-0.037523,0.074213,-0.22731,-0.0084126,0.0363,0.084733,0.096517
-0.16586,0.12837,-0.061124,0.028836,-0.057539,-0.033999,-0.1015,-0.1209
0.16927,-0.085077,0.0217,0.020025,-0.005249,-0.0036949,-0.023144,-0.012314
0.050136,0.066262,0.018206,-0.34737,-0.054383,-0.0055108,0.17881,0.15574
0.10755,0.23958,0.0067517,0.20819,0.068708,0.0076353,-0.058319,0.031172
-0.089754,-0.1044,-0.012405,-0.0082536,0.082879,-0.010835,-0.22662,-0.16735
-0.42535,0.040967,-0.031177,0.050332,-0.058766,0.0019224,0.10401,0.013717
0.17128,-0.060466,0.028829,0.25872,0.0030073,0.007175,-0.073522,-0.11229
0.11532,-0.13707,-0.027466,-0.1338,-0.075772,0.0051857,0.1088,0.065157
0.056971,-0.10431,0.011033,-0.22207,0.024964,0.011729,0.13611,0.19572
0.13107,0.037077,0.050625,0.49273,0.094069,-0.012241,-0.21772,-0.094486
-0.20742,0.044815,-0.025958,-0.46688,-0.040451,0.0034766,0.039546,0.015624
-0.019717,0.13796,-0.023617,0.055059,-0.066096,-0.011635,0.13403,0.026432
0.069762,-0.089461,-0.0051685,-0.19096,0.017266,-0.0031405,0.072782,-0.17927
-0.0094878,0.0030828,0.029009,0.34318,0.053634,0.020908,-0.24667,0.054412
0.14014,0.10234,-0.0074027,-0.11423,0.012082,0.021269,0.081108,0.11756
-0.029439,-0.02744,-0.013165,-0.24114,-0.083609,-0.049019,0.024405,0.064269
-0.18359,0.057247,0.027133,0.36215,-0.014393,-0.018059,-0.11992,-0.13725
0.028157,0.09683,-0.003755,-0.05393,0.05585,0.020515,0.12513,-0.034236
0.019225,-0.2849,0.011463,0.20533,0.095896,0.027805,-0.099012,0.006001
0.070708,0.04468,-0.091019,-0.35381,-0.089709,-0.011648,0.091355,-0.0086752
-0.19994,-0.11651,0.048528,0.1962,-0.0012512,-0.011798,-0.099872,0.007831
0.098421,-0.0083766,-0.0070237,-0.14697,-0.05317,0.019563,0.14023,0.07128
0.036623,0.13784,0.016054,0.052228,0.066638,-0.019202,-0.016472,0.0097981
0.19317,0.044386,0.031961,-0.21526,-0.040616,0.035812,-0.031374,-0.036165
0.0057374,0.081643,0.032822,0.27681,0.038877,-0.01089,0.15733,0.12057
-0.18969,0.064533,-0.059721,0.0056488,0.039368,-0.026656,-0.18544,-0.082834
0.23981,-0.11503,0.011799,-0.24606,-0.085994,-0.0037487,-0.0054273,-0.14661
-0.58042,-0.16794,0.0048483,0.28146,0.014517,0.018813,-0.083875,0.062098
0.14718,0.068716,-0.033957,-0.034621,0.020868,0.0099434,0.032859,0.082683
0.26732,-0.0087424,-0.026592,0.026538,0.042781,-0.03791,0.08004,-0.068614
0.085694,0.034325,0.0192,-0.2677,-0.091267,-0.0072705,0.035247,0.10115
-0.15465,0.093094,0.017687,-0.13491,-0.045059,0.00054736,-0.1632,-0.2667
0.09358,0.12518,0.070706,0.48793,0.14249,0.063798,0.12564,0.22675
-0.068173,-0.27864,-0.055853,0.092799,0.010413,0.010573,0.2061,0.050308
-0.14061,0.035548,-0.010228,-0.24299,-0.050854,-0.042143,-0.26662,-0.046408
0.062581,0.011749,-0.018886,-0.12226,-0.057249,-0.024373,0.033983,-0.0017038
0.1102,-0.022075,0.019726,0.070758,0.11589,0.040061,-0.034603,-0.03538
0.070937,0.083559,0.011756,-0.11065,-0.047347,-0.0054397,0.17426,0.038998
0.0058348,0.072986,-0.027325,-0.058334,-0.086148,-0.0048563,0.042065,0.0096591
-0.070551,-0.0038933,0.08982,0.36737,0.0073363,-0.036373,-0.24426,-0.10037
-0.26808,-0.088815,-0.097864,-0.22488,0.022359,0.0016942,-0.035904,-0.033185
0.11655,-0.25618,0.050216,0.30503,0.068575,0.015864,-0.026927,-0.0069802
0.021564,0.013037,-0.036176,-0.33215,0.021264,0.022108,0.16741,0.14316
0.26052,0.48708,-0.028744,0.058994,-0.017804,0.0051464,0.033732,0.0041199
-0.31391,-0.10604,0.025857,-0.01328,-0.040728,-0.011319,-0.050855,-0.087365
0.3304,-0.078815,-0.012815,-0.14978,-0.03193,0.0040977,0.055912,0.072356
