0.032029,-0.1351,0.037694,-0.056292,-0.018847,0.025915,-0.13532,-0.031567
0.049318,0.0013057,0.23838,0.11356,0.028832,-0.016752,0.064884,0.074539
-0.036218,-0.10191,-0.30861,-0.003754,-0.016176,0.051126,-0.067216,0.031935
-0.028389,-0.037602,-0.025815,0.037185,0.025612,-0.020189,0.038941,-0.15007
-0.051101,0.27272,-0.037829,-0.12321,-0.049249,0.058402,0.040554,-0.032425
0.045232,-0.10108,-0.21801,0.0067386,0.03227,-0.08832,0.0015207,-0.18411
-0.011831,0.058364,0.3271,0.082507,0.011919,0.086067,-0.029744,0.4425
0.09086,-0.0089233,-0.10201,-0.037395,-0.0091486,-0.028414,-0.0049984,0.019265
-0.044977,-0.039895,-0.2594,0.044644,0.031252,-0.0027043,0.076716,-0.079693
-0.044741,0.11927,0.41265,0.10926,-0.015476,-0.040446,-0.018548,-0.043442
0.051596,0.13097,-0.36551,-0.25787,-0.078987,0.037751,0.076296,-0.13954
-0.0072398,-0.61453,0.31986,0.052776,0.04407,-0.025929,-0.14707,-0.033945
0.058584,0.17305,0.060113,-0.059806,-0.0052975,0.018795,0.037177,0.39692
-0.064739,0.16053,0.17933,0.10834,0.015556,-0.093197,-0.035778,-0.36326
-0.042227,0.20338,-0.11651,0.097186,0.028951,0.12307,-0.015015,-0.017525
0.00068127,-0.19406,-0.19938,-0.029966,-0.0038252,-0.042763,0.052158,-0.08066
0.056318,-0.08251,-0.24477,-0.10074,-0.027891,-0.0043712,0.10301,0.22202
-0.10122,-0.084194,-0.12941,-0.029074,0.0036564,0.058716,-0.18286,0.040252
0.044721,0.051751,0.40491,0.10664,0.020377,-0.0020424,0.038293,-0.16401
0.081204,0.48795,0.11049,0.032399,-0.017025,-0.03852,0.071127,0.31283
-0.061071,-0.69344,-0.32953,-0.080696,-0.015086,0.011365,-0.037562,-0.34185
0.017008,0.3613,-0.06768,-0.0303,0.0024696,-0.071554,0.040214,0.12917
0.13597,0.38771,0.39918,0.050127,0.0041478,-0.006356,0.038691,0.24075
-0.22005,-0.29257,0.1042,0.050833,0.044464,0.089579,0.03595,-0.26554
-0.012653,0.18273,-0.35848,-0.0751,-0.03292,-0.033812,-0.1788,-0.15548
0.14787,-0.46208,0.17429,-0.077376,-0.024884,0.037574,0.043293,0.21197
0.057403,-0.0071281,0.16955,0.11487,0.029578,-0.00085688,-0.094024,-0.17785
-0.13651,-0.45579,-0.085401,-0.083637,-0.041297,-0.070872,0.11312,-0.073695
-0.075091,0.44105,-0.28695,0.062116,0.028251,0.0073073,0.016934,0.33024
0.12425,0.19926,0.010286,0.0056996,0.011779,0.022802,0.016227,-0.059194
0.00083195,0.084067,-0.26267,0.051988,0.026571,0.045944,-0.021886,-0.062513
0.086575,0.13203,0.20895,0.06028,0.0023783,-0.0014081,0.081745,0.26449
-0.20345,-0.22501,0.24013,-0.14156,-0.052935,-0.048965,-0.11128,-0.57222
-0.063409,0.14452,0.27032,-0.01479,0.0013104,0.051703,0.19489,0.51103
0.10156,-0.24796,-0.44979,-0.012825,0.0089357,-0.11344,-0.25847,-0.15985
0.19075,0.3102,0.1101,-0.02647,-0.022173,0.088495,0.22347,0.12432
0.0092623,0.14828,0.43964,0.084807,0.017408,-0.068969,-0.35142,-0.3718
-0.099229,-0.78648,-0.68372,0.024061,0.026096,0.070496,0.27531,0.039242
-0.27589,-0.10745,-0.014358,-0.052574,-0.011849,0.014727,-0.21558,-0.024613
0.14244,0.72287,0.32631,0.034368,0.01273,-0.0097483,0.052115,0.13325
0.18591,-0.060147,-0.094769,0.034582,0.0057915,-0.010817,0.29822,0.20183
0.20498,0.17937,0.1737,0.010247,-0.0095257,0.027082,-0.054724,0.018539
-0.4888,-0.78854,0.092788,-0.093545,-0.017827,-0.036666,-0.11595,-0.032466
0.1352,0.13475,-0.16329,0.082584,0.035489,-0.022244,-0.010804,0.1283
-0.071619,0.25834,0.019305,-0.14075,-0.091662,0.00028699,-0.08369,-0.34132
0.16446,0.67925,-0.58769,0.049553,0.04633,-0.062499,0.016166,-0.12675
0.070716,-0.43679,0.28819,0.068387,0.028031,0.11783,0.1396,-0.05363
-0.031568,-0.09748,0.05176,-0.05211,-0.021052,-0.021049,-0.042053,0.20102
-0.20378,-0.41341,-0.026815,0.024762,0.032367,-0.049485,-0.13069,0.16296
-0.015204,0.55087,0.16348,0.041652,-0.0066799,0.11817,-0.017079,-0.064914
0.26934,-0.035162,0.4802,-0.056086,-0.052103,-0.010757,0.25968,0.017181
-0.21693,-0.63496,0.074548,0.043628,0.052271,-0.10876,-0.27702,-0.16313
0.072748,0.15523,-0.14666,0.011838,0.0014545,0.050162,0.23995,0.038687
0.083068,0.21563,-0.88668,-0.176,-0.08785,-0.11254,-0.10362,0.2579
-0.015119,0.16071,0.56631,0.22108,0.12751,0.12174,0.098364,-0.050635
-0.1371,0.48771,-0.47196,-0.016761,-0.02498,0.034369,-0.14634,0.14623
0.28631,-0.2355,0.12983,0.039384,-0.0067978,-0.014911,0.013954,-0.35937
-0.3394,-0.61969,0.33419,-0.22799,-0.068335,-0.14276,-0.092309,-0.23427
0.21221,0.29646,-0.026732,0.040712,0.0090042,0.09672,0.15259,0.21651
-0.10517,0.28139,0.16186,-0.0053473,-0.0090536,-0.053799,-0.086644,0.049782
-0.087181,-0.22199,-0.30524,0.16616,0.1122,0.14037,0.13589,0.25406
0.017821,-0.46399,0.39737,-0.045108,-0.064235,-0.016042,-0.093447,-0.42309
-0.030656,0.017024,-0.47661,-0.083319,-0.037767,-0.077914,-0.01665,0.094265
0.20625,-0.036713,-0.12058,0.068033,0.028128,-0.037824,0.030256,0.029887
0.10423,0.43483,0.45773,0.011027,0.0089594,0.10375,0.093848,0.44989
-0.00087905,0.40164,0.13954,0.12079,0.053533,-0.028607,0.040892,-0.2767
-0.34433,-0.46027,-0.32795,-0.32948,-0.13484,-0.099257,-0.33999,-0.11862
0.27552,0.4031,0.036222,0.15976,0.08446,0.10266,0.15396,0.086681
-0.19777,0.1204,0.22089,0.056588,0.008103,-0.0399,-0.0088286,-0.28826
-0.1879,-0.61858,-0.47198,-0.085041,-0.0127,0.035866,0.03079,0.34748
0.31908,0.39283,0.23713,0.10131,0.021594,-0.083702,0.092882,-0.039935
0.056124,-0.23662,-0.19935,-0.041313,-0.030125,0.054913,0.020947,-0.11641
0.022201,-0.29897,0.0937,-0.029111,0.0035747,0.0066855,0.017894,0.10157
-0.17391,-0.14271,0.24966,-0.018743,-0.026079,0.037363,-0.15073,0.043907
0.14742,0.57666,0.058093,0.11461,0.052608,0.014071,0.030878,-0.28827
-0.22416,-0.58164,-0.20741,-0.082126,-0.033814,-0.071211,-0.085188,-0.11205
0.12667,0.075722,-0.070652,-0.038332,-0.0039548,0.031231,0.040995,0.2618
-0.040469,0.56887,-0.055794,-0.042599,-0.013808,-0.077313,0.082393,0.15485
0.10475,-0.046669,0.39106,0.10877,0.06195,0.079535,0.04795,0.098805
-0.1385,0.060796,0.11326,-0.0055431,-0.026347,0.048593,-0.092633,-0.15683
-0.0025723,0.17068,-0.45125,-0.041324,-0.020587,-0.15444,0.004966,0.2226
0.099942,-0.18437,0.050697,0.087665,0.024778,0.11906,0.012674,-0.49114
0.013414,-0.076121,-0.096816,-0.05594,-0.030725,-0.029123,0.0080866,0.11439
-0.059358,-0.44424,-0.29631,0.0044381,0.031713,-0.0050237,0.0057453,0.038005
0.083512,0.030717,0.33124,-0.067184,-0.037934,0.011813,-0.019308,-0.088065
-0.013035,0.24923,0.093983,0.041657,0.025852,-0.017642,-0.084463,0.18931
-0.14035,-0.18926,0.28315,0.0028436,0.011966,0.03934,0.14447,0.026784
0.22281,0.69338,0.2585,0.050813,-0.0016805,-0.0049274,0.11915,-0.090729
-0.034685,-0.37954,-0.52052,-0.033106,-0.0074991,0.0055617,0.041854,0.063797
-0.12471,-0.37041,-0.221,-0.092619,-0.029138,-0.085701,-0.43909,-0.12656
-0.10981,-0.20217,0.098334,0.10659,0.042608,0.049178,0.036472,0.19766
0.034246,0.15422,-0.18408,-0.091946,-0.050191,-0.035295,0.12628,0.059878
-0.1365,0.45199,0.24002,0.10043,0.036161,0.066999,0.011964,-0.46948
0.30131,0.2851,0.25759,0.042515,0.020411,0.01223,0.17209,0.39903
0.16919,0.4632,-0.0091634,0.0070869,-0.019272,0.0034881,-0.032331,0.080281
-0.21966,-0.97189,-0.265,-0.19398,-0.04375,-0.084202,-0.053379,-0.35421
0.080151,0.067687,0.28674,0.13417,0.056455,0.046136,-0.023567,0.183
0.02921,-0.30611,0.069307,0.03828,0.0080226,0.027511,-0.037017,-0.040979
-0.037019,0.051868,-0.61753,-0.098641,-0.04048,-0.046034,0.022586,-0.15003
-0.39227,-0.23407,-0.019699,-0.041674,0.0048269,-0.0022628,-0.017779,0.067118
0.21351,0.84577,0.17988,0.045883,0.0034408,0.018588,-0.042127,0.15657
0.0073411,-0.01716,0.063512,0.02424,0.0023366,0.0012406,0.14378,-0.039905
0.1852,-0.15369,0.094969,0.026932,0.0093915,-0.022818,-0.046804,0.34971
0.044599,0.1134,0.28294,0.031003,-0.006626,0.032421,-0.083133,-0.21716
-0.17975,-0.72686,0.11839,-0.010254,0.0011294,0.002773,0.011188,-0.13444
0.066753,0.070848,-0.14381,0.051485,0.040399,0.028553,0.033143,-0.03726
-0.13838,0.03089,-0.39014,-0.13566,-0.060792,-0.046934,0.0064786,-0.16857
0.15696,0.65933,0.11826,-0.017383,-0.0056769,-0.013256,-0.029329,0.13676
0.013983,0.13921,0.098212,0.023111,0.025951,0.035357,0.035528,-0.071703
-0.11553,-0.6533,-0.37993,-0.014487,-0.0050656,-0.042096,0.10771,0.061374
0.10322,0.89123,0.17809,0.057074,0.0027533,0.011981,-0.10148,0.18063
-0.064869,-0.45336,0.057084,0.096961,0.033717,0.056926,-0.036995,-0.077702
0.067578,-0.45042,-0.21537,-0.043447,-0.021593,-0.063371,-0.065637,-0.055234
-0.084806,-0.27428,0.39562,-0.090864,-0.02256,0.0029312,0.047366,0.068814
-0.03641,0.099616,0.17358,-0.0063123,0.0074173,0.037458,0.083658,-0.04271
0.073894,0.12882,0.056427,0.038348,-0.0018833,-0.037506,-0.011121,0.17014
0.11531,0.56235,-0.2698,-0.042677,-0.019078,-0.0028159,-0.0023991,-0.038108
-0.21492,0.033103,-0.042323,0.10243,0.041928,0.032484,0.0082734,-0.1082
-0.17309,-0.38872,-0.1475,-0.033783,0.0094184,0.021765,-0.15899,-0.1911
0.35876,0.4908,-0.21381,-0.021249,-0.014913,0.012059,0.08914,0.10256
-0.072627,-0.7535,0.31832,-0.062714,-0.03098,-0.066865,0.041129,0.077657
0.1567,0.38846,0.079716,0.03744,0.00031337,-0.02748,0.039995,-0.16278
0.099677,-0.21614,0.14739,0.021585,-0.0069979,-0.0026202,0.11623,0.063303
-0.29264,-0.26482,-0.20553,0.061627,0.072005,0.077961,-0.19175,0.11791
-0.25656,0.31646,-0.080314,-0.030059,-0.020614,0.018826,-0.056248,-0.10599
0.22213,0.64712,0.00022327,-0.074037,-0.034987,-0.023965,0.030477,0.47915
-0.029123,-0.54476,0.021246,0.077811,0.03658,-0.019416,0.029619,-0.41505
0.091299,0.32064,0.0069595,-0.027959,-0.048166,-0.053757,0.027655,-0.015301
0.044963,0.058783,0.24708,-0.055676,-0.015791,0.099264,0.025257,0.068213
0.082816,-0.55956,-0.023447,0.064789,0.032193,-0.17785,-0.031614,-0.17343
-0.19256,-0.4875,-0.28845,-0.033851,0.025547,0.23182,-0.025287,0.032049
0.0087948,0.37908,0.069965,-0.0078949,-0.012235,-0.093845,0.021033,-0.058605
0.039087,0.13047,0.16218,0.033251,-0.010838,-0.014387,0.037006,0.31933
0.015849,0.34972,-0.23704,0.042668,0.0062362,0.079505,0.10833,-0.13956
-0.037437,-0.0059195,0.061349,-0.026578,-0.0002067,-0.14022,-0.20282,0.21256
0.019657,-0.15286,0.027622,-0.080789,-0.014709,0.045389,0.0016723,-0.33561
0.10085,0.018291,-0.15732,0.1144,0.048505,0.003874,0.049749,0.11421
0.018301,0.13042,0.19463,-0.050284,-0.029419,0.048152,0.011705,-0.11749
-0.10325,0.10968,0.18485,-0.059016,-0.037551,-0.079163,0.028303,0.08685
-0.15449,-0.57129,0.13268,0.080732,0.039854,0.083221,-0.048674,0.0011941
0.052198,0.25625,-0.13528,-0.0056184,-9.1726e-05,-0.026964,0.0075399,-0.10841
-0.068926,-0.29201,-0.59734,-0.11451,-0.032059,0.012242,-0.052964,0.11759
0.27915,0.72993,0.34643,0.059114,-0.0088164,-0.01015,0.12909,0.046169
0.057286,-0.37821,-0.10215,0.085757,0.04651,-0.0083514,-0.016897,0.26269
-0.18797,-0.4869,0.1576,-0.018977,-0.0065113,-0.0059925,-0.10077,-0.30388
0.2538,0.47171,0.19543,0.11965,0.050894,0.0045418,0.13477,0.11143
-0.40708,-0.33324,-0.22343,-0.26443,-0.10176,-0.039429,-0.045097,-0.39004
0.039885,0.40662,0.1039,0.062539,0.03518,0.033801,-0.01561,0.3327
0.11006,0.16937,-0.033642,-0.017285,-0.015356,-0.025949,-0.11265,-0.33659
-0.071526,-0.2571,-0.057804,0.057909,0.042927,0.10923,0.023532,0.4785
0.13595,0.21736,0.22725,0.060897,-0.001496,-0.099984,0.041959,-0.17361
0.076546,-0.10017,-0.20089,0.0067207,-0.016323,0.049234,0.06832,-0.1666
-0.13223,-0.23932,-0.37982,-0.034737,0.013728,-0.06058,-0.029576,0.35982
0.12712,0.23162,0.4266,-0.032404,-0.02082,0.046933,-0.0013089,-0.10185
-0.16852,-0.49648,-0.30334,-0.0095442,0.0052168,0.027962,0.067347,-0.16122
-0.0031486,0.24584,0.4942,0.026612,-0.0092558,-0.039242,-0.050252,-0.076786
-0.0091365,0.31,-0.16453,-0.040139,-0.016656,-0.084031,-0.034041,0.095781
-0.06104,-0.24736,0.11088,0.0024308,0.015114,0.12068,-0.064034,-0.019609
0.23214,0.24924,-0.13365,0.03075,0.016601,-0.041658,0.039142,0.15411
-0.059081,-0.10969,-0.30581,-0.024152,-0.011462,-0.0078519,0.0095882,-0.079295
-0.012842,-0.40521,0.29593,-0.012807,-0.0060884,0.011777,0.034583,0.084228
0.065937,0.47653,-0.071976,0.057503,0.025077,-0.021374,0.035811,-0.16032
-0.19813,-0.42976,0.10521,0.061697,0.034983,0.080424,-0.065022,0.069965
0.069529,0.51852,-0.094689,-0.094667,-0.047158,-0.065683,0.036639,-0.18546
-0.037762,-0.24078,-0.04634,-0.037788,-0.026719,-0.0068756,0.10636,0.11311
0.0030879,0.14264,0.0011108,0.058947,0.017404,-0.01713,-0.24642,-0.033707
0.17619,0.17413,0.19732,0.037712,0.021978,0.027851,0.11913,0.29643
-0.042089,-0.46976,-0.10478,-0.040375,-0.013584,0.0022827,-0.054472,-0.18539
-0.065906,-0.22191,-0.10704,0.011226,0.011921,0.046029,0.069112,0.1066
-0.059324,0.46968,0.058712,-0.034429,-0.026603,-0.013417,-0.048801,-0.14051
-0.014408,0.10315,0.064797,-0.0052163,-0.0039963,-0.059264,0.060797,-0.1147
0.069083,-0.18959,-0.065566,-0.04876,0.0019846,0.01778,0.046427,0.019598
0.074293,0.091464,0.026,0.047077,0.030902,0.014849,-0.01389,0.23877
-0.099975,-0.34211,-0.15447,0.03363,-0.0026465,0.002827,-0.096968,-0.22278
-0.0080615,0.049683,-3.1583e-05,-0.033221,-0.020053,-0.064375,0.023429,0.072654
-0.001257,0.22075,0.36927,0.027026,0.010283,0.017219,-0.043663,0.070685
0.14717,0.35109,0.13025,0.081855,0.0025997,0.021797,0.021758,0.084131
-0.17992,-0.591,-0.10228,-0.087736,-0.019686,0.051417,0.094423,-0.36327
0.11116,0.35427,-0.66565,0.025366,0.021351,0.012477,-0.068097,0.19748
-0.06567,-0.20536,0.18226,-0.056371,0.0081882,-0.017112,0.018366,0.28228
0.0081227,0.072172,0.075668,0.033228,-0.0049004,0.0012163,0.025527,-0.2336
-0.050532,0.24813,0.32973,-0.0035605,-0.010518,-0.073814,0.0080069,-0.013916
0.12526,-0.24805,0.0026356,0.012428,-0.0011999,0.061843,-0.049741,-0.12864
-0.089806,-0.016868,-0.13619,-0.043921,-0.016235,-0.053249,-0.0068272,0.0084341
0.046137,-0.1027,-0.1769,0.03862,0.022431,-0.013114,-0.034674,-0.063611
0.056251,-0.10339,0.11784,-0.044023,-0.010121,0.072842,0.023565,0.27204
-0.13779,-0.014537,0.09379,0.021451,0.0035129,-0.021773,0.035725,-0.016776
0.073303,0.54322,-0.12315,0.040561,-0.0066794,-0.015415,0.025822,0.12326
-0.044764,-0.20001,-0.025425,-0.01723,0.01433,-0.0015016,-0.029175,-0.31733
0.0082302,-0.23433,0.17474,0.012626,0.012183,0.043703,-0.027558,0.28497
0.052947,-0.020447,0.17835,0.02877,0.0027855,-0.020206,0.022726,-0.00048878
0.13668,0.60404,-0.3688,-0.054808,-0.037097,-0.0056043,0.058778,-0.32212
-0.30263,-0.51258,-0.016407,-0.011856,0.0020214,0.025057,-0.084053,-0.046014
0.032232,-0.15596,-0.1578,-0.022545,0.0029582,-0.068849,0.031042,0.11114
0.14148,0.31749,0.29059,-0.0015313,0.0046718,0.0095227,-0.0028738,-0.012124
0.025116,-0.19059,-0.040297,0.066165,0.022578,0.033573,0.0011066,0.032023
-0.090557,0.08168,0.27796,0.0080276,-0.013935,0.0032522,-0.098076,0.21416
0.059624,0.038124,-0.075467,-0.012446,0.0041588,-0.019009,0.097775,-0.066608
0.053191,0.20141,-0.022075,0.05902,0.029637,0.044815,0.065189,0.10314
-0.10263,-0.51341,-0.373,-0.10588,-0.039348,-0.031962,-0.047224,-0.17683
0.029255,0.31818,-0.040026,-0.038302,-0.015463,0.031772,0.0031027,0.0050223
-0.059116,-0.088876,-0.12179,0.043408,0.0075301,-0.092244,-0.033261,-0.010204
0.015271,0.13746,0.38477,0.007057,-0.0014791,0.017755,0.0084802,-0.13101
0.034169,0.033495,0.36509,0.048704,0.01246,0.07263,-0.058355,0.086508
0.0060917,-0.34938,-0.19475,-0.041863,0.0028028,-0.0057774,0.03265,0.079438
-0.021335,0.054646,-0.15356,-0.0062505,0.0011266,0.001299,-0.030396,-0.136
-0.024031,0.20797,-0.12914,0.030877,0.0077,-0.023249,0.05748,0.12909
0.13123,0.10985,0.064521,0.030516,-0.00074821,-0.016772,0.069569,0.0094069
-0.10232,-0.21152,-0.16051,-0.070033,-0.024171,-0.018117,-0.018157,-0.11016
0.087665,0.19192,0.21703,0.033525,0.023304,0.019848,0.051158,0.31146
-0.14297,-0.061213,0.10922,0.0047743,-0.0069191,0.0036225,-0.23927,-0.23181
-0.0056669,-0.19645,-0.15738,-0.023943,0.0021362,0.019329,0.11724,-0.043331
0.17091,0.52231,0.33819,0.0016883,-0.020075,-0.011087,0.057248,-0.216
-0.098052,-0.26084,-0.4199,-0.027931,0.0043557,-0.0095771,-0.091692,0.33641
-0.06289,-0.42274,-0.10301,0.035572,0.020568,0.039275,0.060923,-0.081744
0.065291,0.029776,0.063351,0.020395,0.0050167,0.0023544,0.046675,-0.0027001
0.02865,0.15502,0.072647,-0.0029884,-0.0032599,-0.034723,-0.063382,0.095382
-0.047745,0.22421,0.12907,-0.018753,-0.0041986,-0.0019132,0.036484,-0.12549
0.078408,-0.13901,0.076895,-0.042342,-0.036714,-0.032187,-0.090021,0.090206
-0.13187,0.048146,-0.052881,0.07481,0.032218,0.015058,-0.004209,-0.025334
0.024558,-0.24067,0.051271,-0.018822,-0.00028666,0.022732,0.076154,-0.083271
0.031934,0.35677,-0.22147,-0.018607,-0.016817,-0.0011845,0.018864,-0.053474
0.02281,-0.0418,0.080471,-0.010635,0.0062182,0.013799,-0.03533,0.15752
0.035888,-0.10203,0.0027847,0.012682,0.021993,0.0053154,0.038187,-0.027854
0.055183,0.40738,0.068377,0.0042129,-0.00081774,-0.034388,-0.011395,0.048003
-0.083578,-0.25158,-0.1365,0.010588,-0.0077124,0.011854,0.010168,-0.27706
-0.020934,-0.21499,-0.04038,0.0082014,0.0088624,0.011151,0.015837,0.26479
-0.12357,-0.46155,-0.024294,0.020454,-0.0060555,0.01028,-0.11249,-0.011732
0.17192,0.35963,0.3592,-0.046257,-0.021445,-0.029897,0.0856,0.0046125
-0.078524,0.10859,-0.18465,-0.050961,-0.014003,0.01561,-0.077492,-0.15366
0.0092633,0.18526,-0.11494,0.061559,0.039699,-0.0015657,0.054833,-0.032969
-0.016641,0.0053022,0.20249,-0.020556,-0.016475,-0.01877,-0.024589,0.19438
0.094546,-0.023946,-0.1847,0.023656,0.013001,0.0032679,0.013127,-0.004149
-0.086708,-0.30857,0.11434,0.0072408,0.0034047,0.0022651,0.0045844,0.057018
0.1031,0.33809,-0.08036,-0.030407,-0.021535,0.0096426,0.043933,-0.13999
-0.06383,-0.046589,0.042972,0.020137,0.00094241,0.0098534,0.0062161,0.14487
-0.018912,-0.050612,-0.14174,0.025797,0.0085203,0.018482,-0.038558,-0.26188
0.024982,-0.16815,0.2547,-0.013969,-0.0065404,-0.027126,0.018431,0.084312
0.050416,0.0056772,-0.26156,0.0094522,0.026015,0.021228,-0.0031404,0.043111
0.0013417,0.28297,0.13566,-0.10013,-0.034628,-0.047664,0.029002,0.20953
-0.14634,-0.046432,0.014653,0.054833,0.014352,0.015947,-0.10418,-0.30504
0.045017,-0.1525,0.14686,0.067294,0.024147,0.024371,-0.0042181,0.040792
0.013841,-0.048086,-0.19599,-0.06336,-0.029065,-0.038126,0.040177,-0.13359
-0.058683,-0.18318,0.28962,0.068776,0.018451,0.031555,0.0061227,0.14987
0.071394,0.10139,-0.49044,-0.067566,-0.028829,-0.039973,0.034861,0.11818
0.022938,0.16708,-0.012253,0.027955,0.024366,0.067705,0.0019123,0.098639
0.039424,0.17872,0.2099,-0.026778,-0.0093205,-0.028076,0.016958,-0.027879
0.012185,0.1825,0.16243,0.011408,0.018872,0.016624,-0.021517,0.1422
-0.011822,-0.096943,0.18371,0.010853,-0.023416,0.0067216,-0.027769,-0.44862
-0.087733,-0.56848,-0.43469,-0.081984,-0.026302,-0.073144,-0.02559,-0.052621
0.025854,-0.00039604,0.028345,0.022906,-0.012755,0.011682,0.1096,0.22732
0.11709,0.69897,0.19972,0.12296,0.048802,0.0036365,-0.07572,-0.093286
-0.22891,-0.63554,-0.38806,-0.070835,0.033487,0.043499,-0.042781,0.1194
0.057494,0.26942,0.28099,0.0035189,-0.011957,-0.0093585,0.012927,-1.7054e-06
0.02274,-0.21041,-0.0046249,0.024737,-0.0019367,-0.022328,-0.041481,-0.035245
0.0024834,-0.019219,0.17547,-0.0084491,-0.022876,0.051064,0.1143,-0.11706
0.10592,0.25023,-0.12622,-0.0035983,-0.0049675,-0.016287,0.042771,0.20147
0.051707,0.3015,0.18946,-0.00085515,-0.011126,-0.0062143,-0.037278,-0.016219
-0.058627,-0.26418,-0.114,-0.00083914,0.013108,-0.0051558,-0.032046,-0.035511
0.0016272,-0.065093,-0.26446,-0.042626,-0.010398,-0.029032,-0.074217,-0.067666
-0.11091,-0.0012709,0.066038,-0.016232,0.0045019,0.00027584,0.031755,0.1758
-0.098738,-0.31663,-0.19965,-0.02992,0.0034801,0.036203,0.028396,0.061552
0.023302,0.32326,0.11218,0.03488,-0.0052232,-0.037852,-0.037018,-0.50434
0.16222,-0.020161,0.17549,0.054523,0.017854,0.013253,0.070265,0.2284
-0.056464,-0.20669,0.13261,0.037868,0.010504,0.026259,-0.047914,0.080775
0.10167,0.31083,0.16409,0.016691,-0.0037027,-0.037207,0.030426,-0.086987
0.042384,0.33026,-0.11309,-0.063772,-0.024806,-0.0048384,0.039578,0.14766
-0.15711,-0.53722,-0.48134,-0.047912,0.017311,0.029692,-0.067584,-0.097971
0.017672,-0.031216,0.25292,0.016341,-0.010472,0.050441,0.03671,0.058327
0.065684,6.3729e-06,0.072216,0.026163,-0.014773,-0.060455,-0.077616,-0.017674
0.017546,0.14612,0.13916,0.097506,0.035286,0.0085683,0.065653,0.32825
-0.15798,0.0046393,-0.25798,-0.13782,-0.0325,-0.001332,-0.04937,-0.5312
0.063258,-0.061878,0.060563,0.03833,0.023807,0.010456,0.05372,0.22221
-0.028362,-0.18422,-0.13876,-0.046064,-0.0068714,-0.027076,0.0076799,-0.092666
-0.024963,0.16919,0.14539,0.039002,0.016072,0.042009,-0.062456,0.0080152
0.028126,0.17641,0.10983,-0.0026793,-0.024444,-0.047775,0.077802,0.17324
0.19447,0.12292,-0.10361,-0.0061933,-0.011011,0.008841,-0.0088593,-0.087662
-0.17412,-0.066706,-0.041267,-0.0019481,0.017612,0.0018511,0.0059388,-0.1553
-0.00022569,-0.25777,0.070006,0.03415,-0.0007288,0.0026971,-0.11187,0.043108
0.034859,0.13762,0.088406,0.00088792,-0.0031956,-0.049991,0.059912,-0.021445
0.061713,-0.33081,-0.18323,0.023275,0.010493,0.079092,-0.040927,0.13698
0.22635,0.27111,0.2373,0.046335,0.017084,0.0076964,0.12485,0.19862
-0.43427,-0.042432,-0.0035769,-0.15696,-0.053673,-0.021892,-0.067751,-0.25113
0.039475,-0.23958,-0.33696,0.01443,0.024721,0.013388,-0.040821,0.067451
0.10834,0.64295,0.15076,0.060094,0.0099048,-0.035676,0.095873,-0.027443
-0.062589,-0.18789,-0.0084963,0.04229,0.018811,0.025213,-0.064433,-0.084942
0.0052908,-0.32107,-0.07866,-0.070251,-0.01135,0.046546,0.0793,0.20557
0.064685,0.27218,0.098933,0.035159,-0.0027244,-0.074171,-0.020211,-0.17268
-0.030005,0.073771,0.24573,-0.023948,-0.025834,-0.017259,-0.14442,-0.11047
-0.018523,-0.76309,-0.36234,-0.020589,-0.018291,-0.0095296,0.034854,0.11953
0.08512,0.3511,0.010982,0.014398,0.027707,0.027294,-0.0055723,-0.1374
-0.077933,0.30872,0.21043,0.018835,0.018489,0.054639,0.10968,0.2222
0.15577,-0.062603,0.032869,0.10228,0.024508,-0.028341,-0.017447,0.083078
-0.14502,0.14831,0.032097,-0.13367,-0.047818,-0.017715,0.0039119,-0.021925
0.080049,0.038129,-0.26998,0.060909,0.020431,0.016966,-0.013662,-0.18548
0.016222,0.030479,-0.11732,-0.056324,-0.028406,-0.0096229,-0.0077478,0.038228
-0.072807,-0.25578,0.3634,-0.0089603,0.0089187,-0.050227,0.0058616,-0.061781
-0.15704,-0.10689,0.20227,0.015378,-0.00032517,0.06714,-0.051118,0.1156
0.067787,-0.15856,-0.37464,0.024425,0.037657,0.0142,0.039998,0.077437
0.094213,0.073304,-0.15608,0.025953,-0.0099356,-0.01411,-0.048832,-0.21621
