0.17571,0.1675,0.047184,0.028055,-0.0026791,-0.0053447,0.0051927,0.35933
-0.40895,-0.37851,-0.19124,-0.066171,-0.018765,0.0031669,-0.01548,-0.093221
0.15969,0.20653,-0.016415,0.018628,0.019596,0.0037999,0.089241,0.36144
-0.21885,0.21726,0.1351,0.039826,0.018594,0.035531,0.069011,-0.33171
0.32448,0.096932,0.037865,-0.018464,-0.029577,-0.034557,-0.15477,-0.13375
-0.14576,-0.5152,-0.2289,-0.10934,-0.023279,-0.0034388,0.018979,-0.26341
-0.0028785,0.036881,0.1013,0.017553,0.0063841,-0.019613,-0.066386,-0.064383
0.12883,-0.12067,0.052384,0.073826,0.028355,-0.0049583,0.042074,0.43188
0.069196,0.28806,0.1321,0.075983,0.035034,0.032774,0.039712,-0.072195
0.10566,0.24306,0.11334,-0.037529,-0.012444,0.023387,0.028353,0.40636
0.10309,-0.23623,-0.2157,-0.13305,-0.067052,-0.025159,0.024043,0.13123
-0.51906,-0.20873,-0.21535,0.008751,-0.0037125,-0.026766,-0.089886,-0.46994
0.049886,0.17208,0.24638,0.091203,0.052559,0.026518,0.030854,-0.28148
-0.011211,0.12642,-0.26852,-0.05785,-0.03118,-0.029265,-0.035121,-0.32728
0.0011228,-0.32234,0.091332,0.15459,0.05733,0.02468,-0.0061894,0.72953
0.23663,0.25383,0.1854,-0.069469,-0.025989,0.0086505,0.031909,-0.27284
-0.14661,-0.01519,0.099903,-0.05947,-0.0080601,0.00851,0.06354,0.31729
0.19694,0.34342,0.21805,0.09742,0.017052,-0.0070941,0.0025577,0.23793
-0.12986,-0.14295,-0.38932,-0.068451,0.0022806,0.0086169,-0.026391,-0.78876
0.1001,-0.36815,-0.21372,-0.080895,-0.036751,-0.030344,-0.015905,0.25545
-0.24624,-0.31854,-0.18408,-0.033444,-0.045154,-0.038013,-0.1773,-0.13595
0.21309,0.40381,0.45026,0.090265,0.063387,0.071653,0.20791,0.17734
0.055112,0.2764,0.03337,0.010034,-0.015351,-0.021494,-0.016678,-0.033374
0.083541,-0.19105,-0.12258,-0.038667,0.00032456,0.0030364,-0.0073315,0.57976
-0.54583,-0.39472,0.40318,0.12473,0.024782,-0.034303,-0.037435,-0.29272
0.3001,0.27673,-0.36771,-0.061824,0.0034214,0.046224,0.010289,-0.23389
0.1145,0.34787,-0.03905,-0.0045842,-0.0092306,-0.013266,0.01092,0.10368
-0.12449,-0.02498,0.3088,0.030387,0.0098895,0.013584,-0.035504,-0.39171
0.12387,-0.14736,-0.45101,-0.082608,-0.010034,-0.014169,0.074123,0.23307
-0.1937,-0.059744,-0.069667,0.030684,-0.014829,-0.018784,-0.082152,0.29305
-0.24844,-0.25566,-0.12575,0.018099,0.026344,0.030596,0.081494,-0.26187
0.52171,0.29538,0.5606,-0.034733,-0.035164,-0.022608,-0.044428,-0.30085
0.1699,0.1952,0.21653,0.04411,0.019429,0.032333,0.047823,0.26801
-0.22821,-0.57054,-0.23514,-0.03407,-0.028374,-0.023373,-0.079241,0.059099
0.27765,0.16431,-0.058846,-0.065589,-0.0062911,-0.0020909,-0.0036366,0.3333
-0.72921,-0.066666,-0.1436,0.036061,0.015807,-0.0050848,0.017015,-0.18217
0.061969,0.12126,-0.27644,0.013463,0.007023,-0.03976,0.014195,-0.00471
0.26792,0.4008,0.1622,0.038561,0.02221,0.027134,0.01937,-0.18493
0.077074,-0.30677,0.22949,0.12666,0.037859,0.039734,-0.01419,0.084806
0.10088,0.21526,-0.049019,-0.050997,-0.016627,-0.0017039,-0.00048953,-0.16926
-0.095335,-0.028389,0.015551,-0.088955,-0.016654,0.03573,0.11514,0.47049
-0.21952,-0.33022,-0.029629,-0.034803,-0.048564,-0.074589,-0.15174,-0.59255
-0.02686,-0.044769,0.10365,-0.076473,0.0045554,0.026541,0.034786,0.27332
0.21879,0.35736,0.015116,0.067266,0.0098334,-0.036098,-0.067447,-0.18131
0.049274,-0.32726,-0.28984,0.068696,0.022144,0.026357,0.03384,0.27209
0.026437,-0.03485,0.31129,0.014501,-0.012808,0.0028358,0.065324,-0.10599
-0.038981,0.24496,0.011708,0.030612,-0.00075897,0.010481,-0.035418,-0.10177
0.13963,-0.023606,-0.36955,-0.06953,0.011937,0.010273,0.044102,0.22459
-0.15907,-0.040274,0.089059,-0.066388,-0.021183,-0.02112,-0.0087473,0.06984
-0.39044,-0.044383,-0.010353,-0.014157,0.017288,-0.044501,-0.022326,-0.19063
0.30344,0.14562,0.16931,0.1029,0.010138,0.026187,-0.067236,-0.19025
-0.1639,-0.11807,-0.065894,0.02665,0.019608,0.050384,0.10625,0.31181
0.3953,0.1093,0.19149,-0.0013966,-0.025055,-0.026622,-0.041139,0.12634
-0.11963,-0.056589,-0.010876,0.0021941,0.00062484,0.029429,-0.025095,-0.37331
-0.059103,-0.00060497,-0.13358,-0.088571,-0.021038,-0.039462,0.03725,0.13968
0.046848,-0.084256,-0.0047947,0.13172,0.034587,0.0086708,-0.072675,-0.05413
-0.12101,0.089119,-0.18721,-0.16553,-0.035793,-0.0060629,0.098504,0.13889
-0.0071407,-0.083161,0.11587,0.019635,0.0022445,-0.029125,-0.042709,-0.54653
0.068761,0.10951,0.052818,0.039194,-0.015122,0.0097234,-0.050803,0.49169
0.13829,-0.25437,0.12377,-0.043606,0.0062183,0.032361,0.08212,0.17588
-0.26718,0.13857,-0.12414,0.076815,0.035408,0.0076085,-0.050237,-0.2281
0.1179,0.094044,-0.018677,0.010661,0.025911,0.029338,0.067583,0.35791
-0.0035436,-0.012104,0.088957,0.039774,-0.0064173,-0.050722,-0.017778,-0.21442
0.008865,-0.015355,-0.1056,-0.085586,-0.053665,-0.037053,-0.033113,-0.21799
0.13148,0.16238,-0.008392,0.032934,0.032594,0.047136,-0.0019975,-0.042221
0.012678,0.0050237,0.16185,-0.050335,-0.028978,-0.016671,-0.010368,0.11175
-0.2771,-0.39434,-0.26697,0.03909,0.011496,0.0061033,-0.02682,-0.050442
0.020336,0.2058,0.20457,0.035033,-0.0023661,-0.0016034,0.019231,-0.42476
0.069545,-0.23414,-0.041602,-0.039537,0.0074294,0.014911,0.018713,0.49836
-0.035223,0.309,-0.04577,-0.028685,0.0016909,0.0086594,0.018744,0.39903
0.19069,0.12416,0.11252,0.0049557,0.0037209,-0.020594,0.019427,-0.19283
0.15341,-0.23398,-0.05256,0.022349,0.013375,0.004958,-0.0027444,-0.14735
-0.49142,0.023641,0.043668,-0.023261,-0.024185,-0.0087857,-0.055813,-0.054554
0.2629,0.0063702,-0.10743,0.032319,0.00027709,0.015985,0.016139,-0.012598
-0.14761,-0.028035,0.11115,0.025091,0.016334,0.0009235,0.0096401,-0.048708
0.03322,0.061008,-0.17508,-0.091865,-0.030768,-0.014985,0.018159,0.13941
0.36632,0.14853,0.14443,0.12661,0.030846,-0.00040789,-0.028761,-0.32373
-0.11826,-0.077823,-0.077119,0.00062953,0.021562,0.021455,0.025156,0.12592
-0.17885,-0.34431,-0.080177,-0.11062,-0.050661,-0.058423,-0.03865,0.5229
-0.19797,0.19325,0.035166,0.03498,0.0096986,0.033785,-0.0089244,-0.56575
0.13028,-0.0037542,0.11351,-0.015585,-0.00023975,0.0015579,0.020947,-0.10384
-0.19219,0.11975,0.08457,-0.0042094,0.0057068,0.017009,-0.0033972,0.31163
0.47755,0.079565,0.07251,0.038298,0.019928,0.041146,0.066686,-0.073775
-0.16291,-0.085284,-0.18975,-0.020379,-0.027768,-0.066768,-0.042201,0.12434
0.1695,-0.078118,-0.047643,-0.023541,-0.0045576,-0.0023175,-0.017693,0.046121
-0.25843,0.10087,0.052063,0.044734,0.02696,0.023184,0.022753,-0.099996
-0.01667,-0.15772,-0.06329,0.028289,0.011906,-0.014104,-0.038382,-0.15407
-0.097784,0.029237,0.090837,-0.0026838,0.004727,0.041716,0.032955,0.16788
0.12221,0.03742,-0.046876,-0.017221,-0.018245,-0.012716,0.0021581,-0.1394
0.29812,0.14908,-0.013434,-0.054754,-0.04155,-0.06028,-0.021497,0.23977
-0.26702,-0.2049,0.02971,0.017175,0.0050622,0.024135,0.0011068,0.0051913
-0.035759,0.054722,-0.024114,-0.012638,0.020081,0.0064289,-0.01578,-0.53215
-0.0094017,-0.00086303,-0.039779,0.019733,0.0036509,0.011988,0.014059,0.30788
0.037785,-0.058805,0.031058,0.059595,0.034094,0.017803,0.02062,0.14483
0.16025,0.15401,0.048089,-0.064821,-0.029011,-0.014795,0.02762,0.27944
-0.30571,-0.05879,0.072864,0.013848,0.0020061,-0.0073791,-0.050682,-0.596
0.14852,0.012002,0.040797,0.014555,0.0022628,-0.0066626,0.0045581,0.070362
0.047438,0.043879,-0.058799,-0.0078165,-0.012563,0.0029825,-0.0019897,-0.053044
-0.10008,-0.035815,-0.025961,-0.029685,-0.0034225,0.0057754,0.015501,0.02904
0.1677,-0.10421,-0.20735,0.011516,-0.0016409,-0.006391,-0.013459,0.63035
-0.2114,0.048029,0.097923,0.037618,0.031709,0.044214,0.067166,0.0079233
0.043606,-0.001751,0.10737,-0.029668,-0.02856,-0.045977,-0.094397,-0.7237
0.1741,0.082498,-0.077683,-0.018747,0.012638,-0.0039532,0.0094807,0.064352
0.0070044,0.0048811,0.027819,0.030948,-0.0011923,0.013679,0.03491,0.32067
-0.10748,-0.147,0.026763,0.0018195,-0.0077868,-0.016755,-0.026015,-0.18562
0.0013694,-0.14451,-0.14168,0.018498,0.0161,0.021841,0.029769,0.28422
0.10633,0.34254,0.25078,-0.0052078,-0.0077749,0.012345,0.0069092,-0.26401
-0.40974,-0.15284,0.0026164,0.016585,0.014325,-0.021601,-0.032132,-0.041674
0.24299,0.2455,-0.17392,-0.087815,-0.042501,-0.02499,-0.017072,-0.016295
0.14403,-0.28236,0.073749,-0.0054867,0.0094577,0.026002,0.052069,0.15063
-0.25181,0.11477,-0.089552,0.045408,0.022059,0.0067877,-0.0043822,-0.13898
0.29152,-0.1109,0.031981,-0.036054,-0.019985,0.0036832,-0.014486,-0.045385
-0.029279,0.078437,-0.045793,0.094424,0.039911,0.0091837,-0.0093516,0.38814
-0.025846,0.072128,0.12238,-0.047195,-0.032344,-0.031196,0.034682,0.15676
-0.17443,-0.14651,-0.057663,0.023517,0.0056381,-0.00018695,-0.069587,-0.68277
0.063786,0.17192,0.046123,0.025087,0.0055178,0.0084148,0.0062965,0.25339
-0.28061,-0.11331,0.034191,-0.042916,-0.0014613,0.010071,0.028266,-0.17535
0.6664,-0.12677,-0.11825,-0.040394,-0.015403,-0.0032922,0.0043488,0.053441
-0.32288,0.1011,0.017057,0.016522,0.010385,0.01487,0.028357,0.49254
0.00044828,-0.030326,0.048138,-0.0053676,0.013159,-0.0061088,0.022047,-0.36854
0.010487,0.06573,0.0051759,0.003087,-0.022985,-0.035314,-0.077367,0.052947
-0.19958,0.053826,-0.018718,0.026208,0.011036,0.012922,0.018777,0.1052
0.088816,0.043403,0.046664,-0.014038,-0.010053,0.021241,0.013157,-0.28519
0.078914,0.018513,-0.079463,0.062236,0.038512,0.020843,0.01474,0.23871
0.020969,-0.10732,-0.052356,-0.057196,-0.030939,-0.050701,-0.031468,-0.27777
-0.1239,-0.061173,0.09813,-0.028257,-0.015359,0.0021034,-0.0084399,0.078998
0.14424,-0.04645,-0.017029,0.055659,0.022779,0.015459,0.021328,0.23932
-0.042183,0.030677,-0.052496,-0.031646,0.0054889,0.013116,0.011112,0.056331
0.097435,-0.0090727,0.12589,-0.0085852,-0.0044888,-0.0046128,-0.0075663,-0.17071
-0.10169,0.18647,-0.098137,0.0079112,-0.006837,-0.0062019,-0.0031158,0.09237
0.14901,-0.069587,0.13524,-0.0211,-0.0090153,0.0085511,0.0013907,-0.44806
-0.18959,0.012248,-0.15846,0.0058699,-0.0185,-0.022748,-0.032769,0.36745
-0.1012,-0.14603,-0.0032399,0.026023,0.011846,0.0014623,0.035309,-0.13015
-0.10795,0.064704,0.053105,0.031033,0.035285,0.018572,0.018316,0.18615
0.31547,0.034502,0.0094181,0.020238,0.020552,0.004942,-0.0055258,0.028246
0.11646,0.020349,-0.026167,-0.038317,-0.040332,-0.00063566,-0.01277,0.1693
-0.14055,0.17756,0.054542,-0.035863,-0.0070225,-0.014083,-0.0034749,-0.37653
-0.094777,-0.31507,-0.054124,-0.0040312,0.018582,0.01901,-0.016811,-0.13517
-0.097212,0.01053,0.0065554,-0.013203,-0.018525,-0.026573,-0.01386,0.08548
0.06268,0.068053,0.12698,-0.00062197,-0.001402,-0.0025114,0.020824,0.14902
0.06318,0.021536,-0.067628,0.088934,0.015136,0.013065,0.016704,0.19244
0.22235,0.066587,-0.17035,-0.040705,-0.00016459,0.020261,0.020384,-0.099978
-0.15009,0.016251,-0.10994,-0.045045,-0.023757,-0.0198,-0.015318,0.17563
0.075904,-0.081893,0.30993,0.029688,0.0070365,-0.028756,-0.028221,-0.32558
0.077775,-0.00050447,-0.058321,0.012067,0.022104,0.048318,0.051707,-0.18127
-0.38788,-0.066938,0.05138,-0.011799,-0.017448,-0.038379,-0.080419,0.10285
-0.01628,0.071037,-0.06413,-0.01079,0.013477,0.015965,0.036263,0.20992
-0.14985,0.02328,0.0087075,0.04594,-0.0022996,0.0317,0.02682,-0.097976
0.40895,-0.022495,0.089408,-0.029709,-0.0023541,-0.014664,-0.022604,-0.027489
0.076721,0.074248,-0.080693,0.019393,0.013186,-0.0060514,0.0054959,-0.028202
-0.027067,-0.054079,-0.072565,0.012926,0.00512,-0.0051048,0.0099451,0.066075
-0.041495,-0.04094,-0.12869,-0.073015,-0.042278,-0.043211,-0.024475,0.052547
-0.0050035,0.0034625,0.19637,-0.0042671,0.011583,0.04358,0.0041662,0.10941
-0.089718,-0.054581,-0.065709,0.0083045,-0.012935,-0.018245,-0.021049,-0.063161
-0.023085,0.04969,0.077866,0.058782,0.017096,0.021258,0.040638,0.21078
0.037453,0.22961,0.065137,0.0070659,0.023701,0.021428,0.009509,-0.43183
0.0047524,-0.23405,-0.18168,-0.021212,-0.0085966,-0.017765,-0.0052412,0.16241
0.0028227,-0.02113,0.095276,0.013657,-0.0015593,-0.010395,-0.011718,-0.40636
-0.047131,0.11085,0.067708,-0.059626,-0.0098162,0.0044919,0.0053679,0.26829
0.088924,-0.17334,-0.1319,0.001561,-0.0021155,-0.019922,-0.0089758,0.19574
-0.12816,0.096159,0.11335,0.033387,-0.0019411,0.01021,-0.0080792,0.15192
0.075113,0.06136,-0.016953,0.012398,0.014065,0.0012673,0.00017647,-0.2667
0.026984,0.012806,-0.069482,-0.022625,-0.0088825,-0.0075579,-0.0075775,-0.12811
0.25881,-0.055918,-0.020243,0.037171,0.0072415,0.022903,0.015705,0.13158
-0.4949,-0.0030599,-0.040298,-0.019846,-0.015781,-0.0010422,-0.039142,-0.073414
0.30507,-0.077927,0.011874,0.03213,0.0079078,0.0065441,0.070251,0.24798
-0.012814,0.10242,0.066697,-0.049783,-0.0076899,-0.0090748,-0.031019,-0.14077
-0.22933,0.053108,0.1167,-0.00046254,0.015509,-0.016727,0.016405,0.25767
0.24991,-0.18018,-0.072674,0.0079933,-0.00063825,-0.016493,-0.014152,-0.27791
-0.043193,0.080484,-0.11155,-0.039944,-0.0014348,0.038441,0.041203,0.37594
-0.38152,0.043821,0.18643,0.05143,0.005355,-0.0082005,-0.044252,-0.57768
0.47734,0.16838,0.03868,0.0171,0.0041999,0.015466,-0.012797,-0.38708
-0.099613,-0.25903,-0.28255,-0.025033,-0.020384,-0.023333,-0.044117,0.66189
-0.034927,0.04894,0.026606,-0.02741,-0.021347,-0.015168,0.025944,-0.01264
0.1235,0.22421,0.1065,0.041757,0.024933,0.016571,0.056901,0.0073624
-0.14111,-0.38144,-0.01135,-0.035992,-0.014206,-0.014038,-0.021431,-0.03296
0.20156,0.12394,0.040994,0.01277,0.025371,0.017967,0.025389,-0.046491
-0.36452,0.09424,-0.0011031,0.031478,0.010818,0.018734,-0.0057877,-0.096689
0.11404,-0.061307,-0.089749,0.0039436,-0.0033283,-0.0040816,-0.021307,0.43845
-0.057067,-0.034876,0.064937,-0.031483,-0.025121,-0.019411,-0.021299,-0.32056
0.12365,0.090355,-0.0053459,0.033859,0.023279,0.019457,0.017558,0.058665
0.00938,-0.11342,-0.042794,-0.0037269,0.00097992,-0.012573,-0.0063629,0.35268
-0.0079096,0.049757,0.13964,-0.058606,-0.037519,-0.029555,-0.0071159,-0.69966
-0.099419,0.079145,-0.1073,0.025504,0.024901,0.015507,0.015372,0.18165
0.086208,0.066505,0.035758,-0.032284,-0.014822,-0.002167,0.014339,-0.1899
0.10257,0.032415,0.067926,-0.01261,-0.0080697,0.011444,-0.025715,0.17304
-0.0051909,-0.16688,-0.17544,0.077438,0.029781,0.017551,0.0125,0.21998
0.30002,0.12992,0.024305,0.019791,0.0052469,0.00075134,0.0040541,0.15854
-0.69443,-0.14143,0.12067,-0.028798,-0.0033183,-0.015381,0.03491,-0.42928
0.29176,-0.16102,-0.15892,-0.013404,-0.0192,-0.022994,-0.098066,0.22466
-0.17886,0.04093,0.030405,-0.012206,0.012347,0.032542,0.058228,-0.0038156
0.1447,0.16192,0.17417,-0.025517,-0.018094,-0.012961,0.011579,0.0094183
0.037572,0.02511,-0.18759,0.039916,0.014359,0.012198,0.027606,0.30123
-0.029634,-0.0072618,0.10974,0.035078,0.0079765,-0.017165,-0.042108,-0.6626
0.069629,-0.026651,0.097521,0.0062992,0.017264,0.015965,-0.017824,0.27895
0.047105,0.046362,-0.16212,-0.062446,-0.028245,-0.029171,-0.0088511,0.037392
-0.073892,0.02438,0.025434,-0.0072741,-0.0036503,0.027025,0.016113,0.0017379
-0.020919,-0.046762,0.010844,1.6726e-05,0.0050859,0.012635,0.033629,0.015266
0.29039,0.010695,-0.019295,-0.0090162,-0.033243,-0.056723,-0.042331,-0.093264
-0.43074,-0.10256,0.004534,0.044209,0.029885,0.037715,0.038035,0.044851
0.16588,-0.014058,-0.035466,0.0039317,0.014872,0.014722,-0.0068167,0.0019751
0.032746,0.12553,0.07904,-0.012257,0.007707,-0.00068578,0.049337,-0.15722
-0.2127,-0.0057378,-0.011569,-0.011951,-0.0072488,-0.016312,-0.082885,0.41296
0.14945,-0.025914,-0.09649,0.0048307,-0.014453,-0.00090002,0.018176,-0.051711
0.027177,-0.059993,0.074219,0.0065822,0.0015838,-0.0091261,-0.022535,-0.2536
-0.046382,0.064721,0.14119,0.039743,0.0016372,0.013723,0.0060444,0.0027134
0.024078,0.05285,-0.16112,-0.021209,-0.0066269,0.0051921,0.033899,0.0058208
-0.073157,-0.24991,-0.027796,-0.051764,0.00012946,-0.019036,-0.0010585,0.090753
0.13043,0.23667,0.10408,0.033674,0.021882,0.019233,-0.012436,-0.032787
0.039801,-0.040151,-0.046086,-0.0072003,-0.0038043,0.0028771,0.0080081,0.032191
0.1607,-0.024156,-0.047736,-0.0023669,-0.0064556,-0.013358,0.0059212,-0.20805
-0.20461,0.035531,-0.02485,0.0094919,-0.01708,-0.021626,-0.049745,0.32308
-0.042697,-0.0093978,0.07048,-0.01796,-0.0041297,0.032769,0.051994,-0.13355
-0.1441,-0.02674,0.0047625,-0.021636,0.0092656,-0.006447,0.0063436,0.31957
-0.024826,-0.033351,0.020751,0.014597,-6.2999e-05,0.0091088,-0.038498,-0.53667
0.14398,0.078498,-0.045489,0.067628,0.030562,0.001239,0.018704,0.079354
0.028053,0.010131,0.047865,-0.0030944,-0.0081821,0.0011183,0.036961,0.19997
0.082714,0.017676,-0.035958,-0.018062,-0.022636,-0.038189,-0.062199,-0.22003
-0.0882,-0.18923,-0.063776,-0.063599,-0.0052068,0.00047139,0.017825,0.18069
0.0094272,0.19335,0.088021,0.031667,0.020355,0.03897,0.019047,0.044599
0.1347,-0.13154,0.035241,-0.014025,-0.016623,-0.024236,-0.042969,-0.15031
-0.20404,0.0085668,0.042358,0.056721,0.031947,0.029635,0.019323,0.12789
0.071084,0.044461,-0.18042,-0.037594,-0.021716,-0.010313,0.034171,-0.019425
-0.13459,0.16512,0.069876,0.015503,0.0019102,-0.0034123,-0.013879,0.0082712
0.16975,-0.19032,0.012411,-0.010355,-0.0065655,-0.012108,-0.0074545,-0.087629
0.0059012,0.065607,0.015313,-0.028829,-0.0079406,-0.0050849,-0.0010591,0.03448
-0.034027,-0.1674,-0.13892,0.0074843,0.0058724,-0.0057056,0.00547,0.25518
0.025136,0.041116,0.035373,0.0054048,0.0039859,0.032977,-0.011171,-0.54472
0.10435,0.24602,0.14079,0.020116,-0.0054043,-0.029607,-0.02745,0.28175
-0.24195,-0.20165,0.013835,-0.018369,0.0014721,0.009687,0.019175,-0.00838
-0.0055407,0.14229,0.052902,0.046287,0.017022,0.033652,0.050567,0.084931
0.0099272,-0.090946,-0.10977,-0.020458,-0.0055631,-0.02808,-0.027098,0.086007
0.16523,0.065587,-0.045453,0.0075669,0.011743,0.011912,0.0048124,0.035613
-0.1319,-0.10855,-0.020834,-0.026424,-0.025051,-0.033957,-0.017905,-0.18103
0.11192,0.01818,0.11159,-0.013645,0.00089746,0.0061142,-0.025073,-0.31103
-0.02446,-0.015812,-0.055038,-0.0015237,0.011079,0.0070618,0.014446,0.13304
-0.0096767,0.016125,-0.11462,0.017307,0.0051279,0.015703,0.022449,-0.017985
0.11675,0.083544,0.15185,0.0034842,-0.025064,-0.022718,-0.016735,0.47218
-0.19289,-0.0074904,-0.090938,-0.0040729,0.01407,0.032342,0.029681,0.15897
0.076015,-0.11462,0.095306,0.0024531,-0.0025221,-0.01453,-0.025803,-0.55977
-0.046167,-0.025096,0.016131,0.015389,0.011178,-0.0071808,-0.0034805,-0.013959
-0.067859,0.04394,-0.062065,0.011551,0.00068564,0.030888,0.026393,0.043773
0.11228,0.10926,0.0097651,-0.032141,-0.010265,-0.033137,-0.014206,0.024457
0.025646,0.0073473,0.0054598,-0.0058812,0.009933,0.011771,-0.00012371,0.21423
-0.10854,-0.043208,-0.10605,-0.010749,-0.024286,-0.021701,0.0063363,0.18104
0.2963,-0.0040829,0.081459,-0.0071969,-0.0032061,-0.023917,-0.072739,-0.39688
-0.3451,-0.056127,0.083382,0.059904,0.026565,0.036664,0.02846,-0.074524
0.022551,-0.028812,-0.069408,-0.0044155,0.010492,0.019683,0.07566,-0.062054
0.0012099,0.060948,0.0054276,-0.043694,-0.020151,-0.012178,-0.048345,0.16562
0.17692,0.055866,-0.012906,0.028065,0.012655,0.011457,0.039103,0.11839
0.088511,0.0099716,0.070496,-0.0001616,-0.0084854,-0.0032213,-0.0060065,0.0012823
-0.12391,-0.10822,-0.064936,-0.034838,-0.0057154,-0.017305,-0.019923,-0.1141
-0.16422,-0.095415,-0.098975,0.025283,0.012873,0.008061,-0.034176,0.0069147
-0.0097886,0.14256,0.11688,0.015754,0.00015557,-0.0054576,0.0057418,-0.11298
0.2136,0.02811,-0.026607,-0.016982,-0.020615,-0.011156,0.013858,0.29024
-0.12747,-0.016421,-0.029365,-0.010874,-0.0026787,0.0064796,0.021534,0.13648
0.060375,-0.053294,0.077274,0.010195,0.0070402,-0.0072918,-0.033501,-0.13068
0.066141,0.12838,-0.10545,-0.02451,0.0085282,0.025639,0.044348,0.011393
-0.016136,-0.12016,0.14845,0.048706,0.0017792,-0.004107,-0.033706,-0.53049
-0.1233,0.12248,0.0023221,-0.012631,-0.0054185,-0.010612,0.0059736,0.10519
0.011267,-0.15204,-0.083615,-0.0055616,0.018134,0.0060769,-0.00060169,0.093686
-0.064355,-0.022233,-0.016128,0.023031,0.0098699,-0.00099153,-0.014448,0.25147
0.088571,0.066419,-0.06097,-0.036044,-0.030264,-0.00065795,0.034519,0.10565
0.096075,0.035926,0.11817,-0.0027116,-0.00070985,-0.0086299,-0.025927,-0.46635
-0.072504,0.011725,-0.040303,-0.017026,-0.01858,0.0062958,0.014746,0.5361
-0.010934,0.025766,0.019603,0.023269,0.025668,0.020695,0.046786,-0.16969
-0.0011385,-0.061688,-0.036514,0.01734,0.0072917,-0.020028,-0.047248,-0.1339
0.0024923,-0.069969,-0.07437,-0.034161,-0.0030842,0.0014885,0.0060285,0.36549
0.013925,0.025297,0.071211,0.041123,0.010496,-0.00045279,-0.035375,-0.3874
-0.038926,-0.017321,-0.028966,-0.014394,-0.037607,-0.033389,-0.046034,-0.16269
0.32676,0.1073,0.046669,-0.021084,0.0012592,0.012311,0.052756,0.23165
-0.43691,0.0085468,0.078257,0.012902,0.0099958,0.019647,0.027223,0.11429
0.07605,0.014148,0.079679,0.032321,0.0276,0.019929,0.010666,-0.32711
0.030294,-0.032907,-0.11515,-0.0025716,0.0069706,0.013078,0.0033346,0.1513
-0.080658,-0.055454,0.0075223,-0.022152,-0.013189,-0.016744,-0.01826,0.067909
0.14344,-0.015423,-0.12387,-0.019192,-0.017699,-0.022963,0.00022382,0.15258
0.024781,0.078497,-0.0175,-0.0018931,0.00079865,-0.0059022,-0.012098,-0.19298
-0.11475,-0.20406,-0.039888,-0.009467,0.0028441,0.0029028,0.0065948,0.049608
0.030461,0.17552,0.20892,0.044106,0.011599,0.0032534,0.024403,-0.0942
0.1011,0.021621,-0.14404,-0.036221,-0.019929,0.0028719,-0.029476,0.14235
-0.044208,0.0059637,0.15331,0.007728,0.002057,0.0017753,0.008785,0.064249
0.046259,0.019101,-0.12389,0.020088,0.015257,0.0078824,-0.024805,-0.14137
-0.23076,-0.095174,0.0018688,-0.022247,-0.011268,0.00574,0.010743,-0.076873
0.58409,-0.047583,0.030585,0.068472,0.016603,0.0033747,0.0066412,0.13168
-0.58836,0.1936,0.094172,-0.035724,-0.017934,-0.022415,-0.020793,-0.1809
0.056324,0.019778,0.011339,-0.022239,0.01046,0.014549,0.030666,0.13276
-0.10624,-0.20856,-0.087042,-0.023817,-0.0073267,-0.033948,-0.025982,-0.045543
0.19874,0.0099486,0.031565,0.014297,0.014798,0.019779,0.043883,0.25986
0.058947,-0.073286,-0.11074,-0.048454,-0.024688,0.01178,0.013649,-0.24864
0.022934,0.074221,0.032352,0.08485,0.014765,0.004581,-0.038873,0.014396
-0.025247,0.14072,-0.054497,-0.0076796,0.00017271,-0.0097108,-0.0048105,0.087899
-0.085079,-0.0065821,0.03596,-0.021454,-0.0062058,-1.7984e-05,0.021523,0.034648
0.054091,0.053417,0.0082482,0.051151,0.018795,0.0099831,-0.030688,-0.09776
0.070968,-0.087066,0.13722,-0.0088595,0.004604,0.027844,0.064778,-0.1989
-0.090574,-0.11756,-0.14635,-0.092368,-0.033359,-0.056044,-0.10626,0.12299
-0.04148,-0.032453,0.087705,0.019162,0.0063536,0.00034378,0.011003,-0.092083
0.17781,0.21317,0.042346,0.0052905,-0.001268,0.0016224,0.049649,0.21875
-0.16799,0.11789,0.068422,0.084741,0.014183,0.010313,-0.0055839,0.070753
-0.016696,-0.34239,-0.18664,-0.01585,0.0060062,0.018692,0.025329,0.064376
-0.047747,0.082546,0.018325,-0.030705,-0.0021435,0.011254,0.0098038,0.19019
