0.039467,-0.1207,0.06409,-0.048261,-0.0295,-0.010353,0.018259,0.036283
-0.014335,-0.30369,-0.018721,0.036181,0.024063,-0.0083075,-0.0044419,0.051467
-0.14101,-0.14889,0.0659,-0.0042945,-0.0085959,0.017133,-0.0030215,-0.018172
0.099355,0.56823,-0.04976,0.041661,-0.002268,0.026631,0.045812,0.030492
-0.055931,0.026246,0.00034511,-0.013128,0.012033,-0.026905,-0.022263,-0.13085
0.044473,-0.080942,0.050523,-0.012259,-0.004545,-0.0029899,-0.059148,0.05998
0.027781,0.0018254,0.036416,0.020765,0.018444,0.020204,0.098854,0.094714
0.05124,-0.0034478,0.034417,-0.0080805,-0.0049028,-0.01978,-0.087657,-0.073992
0.083084,0.14658,-0.11297,-0.0054768,-0.012154,0.0099978,0.029497,0.014377
-0.12868,-0.072233,-0.10932,0.0046413,-0.0034571,-0.023085,-0.026395,-0.023289
0.28007,-0.14631,0.022415,0.014001,0.013187,0.021822,0.049335,-0.015223
-0.15517,0.023203,0.12736,-0.040226,-0.0014656,0.0043265,-0.016641,0.046487
-0.25016,-0.011812,-0.097137,0.005893,-0.0084917,-0.0050532,0.041538,-0.033185
0.13339,-0.3007,0.046534,-0.0038018,-0.0079577,0.0016546,-0.064845,-0.042888
-0.068003,0.076433,0.021442,0.0091047,0.0079592,0.0089243,0.00058815,0.06471
-0.096131,0.5555,0.024467,0.013792,0.00027007,-0.014457,-0.0038466,-0.0068678
0.027081,0.20548,0.071954,0.0029358,0.00033009,0.0018005,0.055191,0.086404
0.1709,-0.69361,-0.19572,-0.023001,-0.023013,-0.020502,-0.024928,-0.10069
0.10296,-0.25241,0.024986,0.045724,0.039672,0.012263,0.014017,-0.021342
-0.081541,0.37156,0.18533,-0.025035,-0.0069419,0.021811,-0.038654,-0.011732
0.11794,0.013062,-0.091904,0.0069726,0.001129,-0.015485,-0.042258,0.013729
-0.27552,0.49929,-0.051117,-0.061475,0.0012576,0.017369,0.065518,0.1015
0.33865,-0.16234,0.14184,0.019378,0.0011225,0.0030081,0.0029847,-0.014483
-0.40802,-0.47136,-0.22504,0.030418,-0.022809,-0.011812,0.019462,-0.076774
0.17085,0.32383,0.12158,0.057141,-0.0080544,-0.027131,0.020351,-0.023134
-0.066006,-0.43018,-0.051884,-0.010292,0.022023,0.019603,-0.034325,0.02916
0.18614,0.12198,-0.1032,-0.08636,-0.0027247,0.019144,-0.0047878,0.041143
-0.15795,-0.070202,0.20405,0.0083178,-0.011766,-0.067404,-0.14169,-0.049415
-0.050121,0.16107,-0.0030356,0.015788,0.010756,0.02573,0.15616,0.039138
0.050229,0.24786,-0.050874,0.022025,0.010353,0.032994,0.14655,-0.036479
0.035303,0.16712,-0.079072,0.0037962,-0.0050429,-0.0065856,-0.34991,0.0054648
0.28144,-0.33299,0.029664,-0.02295,-0.0041554,0.055285,0.23763,0.056031
-0.3901,0.0093682,0.024503,-0.0031379,0.0051255,0.023095,-0.050988,-0.040673
0.2946,-0.13123,0.1304,0.016754,-0.0086142,-0.1502,-0.066504,0.059362
-0.43005,0.19289,0.0015189,0.013646,0.0012774,0.043145,0.11378,-0.14371
0.14656,0.18004,-0.13765,0.0034492,-0.0045085,0.0017047,-0.056321,0.06111
0.43006,-0.57155,0.023787,-0.013633,0.020669,0.022674,-0.013768,0.064377
-0.25225,0.46025,-0.046136,-0.014046,-0.0093158,0.036219,0.038626,-0.048153
-0.21384,-0.17672,0.17647,0.0022467,-0.00083564,0.0038275,0.030661,0.035698
-0.041763,-0.28424,-0.27552,-0.035118,-0.024247,-0.06619,-0.068982,-0.067343
0.075281,0.29047,0.10043,0.0065301,-0.0013929,-0.017267,-0.018331,-0.053171
0.27662,0.0054438,-0.052059,0.064449,0.02094,0.025607,-0.044289,0.1635
-0.20468,0.29499,-0.21457,0.03674,0.035067,0.0073501,0.10269,-0.066441
0.388,-0.12637,0.39614,-0.0066837,-0.013559,0.020877,0.062694,0.11584
-0.41486,-0.31132,0.02303,-0.15999,-0.046669,-0.028788,-0.14147,-0.10249
0.18351,0.076265,0.3217,0.013958,0.0061813,0.052205,-0.010457,-0.04956
-0.33957,0.152,-0.076857,0.10082,0.012303,-0.011007,0.072322,-0.060947
0.26762,-0.29813,-0.7611,0.11612,0.042116,0.093029,0.37203,0.043721
-0.09412,0.47959,0.4538,0.0052043,-0.0058529,-0.057866,-0.5569,-0.03157
-0.18785,-0.30056,-0.75473,-0.31762,-0.076845,-0.11139,-0.026895,0.026519
0.10577,0.13072,0.87723,0.07773,0.032311,0.059376,0.095143,0.24986
-0.0012292,0.26263,0.16897,0.066744,0.024762,0.012094,0.23156,-0.13469
0.75646,-0.42164,-0.22383,0.10304,-0.0057558,-0.09334,-0.046835,-0.033434
-0.9511,0.10235,-0.10603,0.062037,0.026646,0.035774,-0.16935,-0.11076
0.67004,-0.34968,-0.18073,-0.1654,-0.042178,-0.089979,0.18454,0.031369
0.1166,0.18032,0.1148,0.022371,0.014232,0.053854,-0.024137,0.12693
-0.80959,0.034048,0.062188,0.039366,0.00044931,0.0048421,0.040582,-0.089945
0.085194,0.11535,0.021264,-0.012997,-0.021142,0.016417,-0.20712,-0.017792
0.011977,0.11566,0.13316,-0.033352,0.011846,0.11272,-0.0013379,-0.062844
0.55845,-0.13531,-0.25004,-0.029765,0.0055487,0.097201,-0.044733,0.071813
-0.26457,0.11912,-0.034062,-0.057262,0.0067221,0.077543,0.17107,0.089279
-0.39112,-0.1481,0.18009,0.10245,-0.00038243,0.014416,0.12316,-0.041844
0.049165,0.47955,-0.34134,0.003476,-0.015879,-0.042065,0.030649,0.053183
0.93337,-0.10543,0.73057,0.18423,0.038279,-0.098993,-0.38759,-0.086876
-0.91757,-0.34588,-0.056307,0.12853,-0.0019829,-0.086814,0.22763,0.02996
0.6907,-0.29236,-0.74753,-0.46861,-0.0272,-0.33599,-0.0069256,-0.0025665
-0.28304,-0.11833,0.19758,-0.021089,-0.029361,-0.25028,-0.068492,-0.082635
-0.14626,-0.088992,0.046355,-0.051681,-0.00035178,0.1359,0.20614,-0.030073
0.090477,0.46155,-0.29339,0.21414,0.036743,0.31804,-0.37152,0.038521
-0.62186,0.41062,0.61683,0.28547,0.019759,0.23983,0.33031,0.068963
0.71541,0.002522,0.36301,-0.21149,-0.058872,-0.10841,-0.11125,0.053676
-0.53104,0.33257,-0.72768,-0.11961,0.035308,-0.10546,-0.15015,-0.069987
0.37316,-0.86368,0.27258,-0.047879,-0.0024957,0.74298,0.43189,0.025571
0.24858,0.079161,-0.044888,0.12076,0.030556,-0.10012,-0.029163,0.10519
0.37679,-0.43062,-0.47952,0.088816,0.0090538,-0.11385,-0.4389,-0.121
-0.89015,0.61779,0.41948,-0.050948,-0.044007,-0.49635,-0.022567,-0.020792
0.17523,-0.1702,-0.084159,-0.12002,-0.01181,-0.13715,0.08102,-0.086578
0.44172,0.0064478,0.24261,0.060109,0.011687,-0.15282,0.069187,0.080375
-0.78357,-0.01265,-0.16352,0.035325,0.0030569,-0.08821,0.21718,-0.10515
0.002527,0.14215,0.017478,0.023715,0.0015879,0.029036,-0.13004,0.15472
0.42841,0.25275,0.028,-0.11561,-0.031388,0.36667,0.13728,0.087561
0.3487,-0.025922,-0.021838,0.039376,0.021789,0.17586,-0.19229,-0.071437
-0.51574,-0.61893,-0.052665,0.036041,0.01312,-0.094806,-0.026249,-0.11867
0.45303,0.3051,-0.047175,-0.038948,-0.01021,0.2212,0.086844,0.031845
0.16048,0.24858,-0.050292,0.096493,0.061285,-0.32213,-0.042319,0.15322
-0.77049,-0.29406,0.10402,-0.041203,-0.045943,0.16055,-0.032539,-0.13017
-0.030467,-0.41405,0.0425,-0.037297,-0.0040628,0.1512,0.036869,-0.01443
0.244,0.61844,0.055421,0.022759,-0.0088063,-0.08375,-0.0065962,0.046486
0.033309,0.081149,-0.098827,-0.071727,-0.037192,-0.17988,0.071403,-0.065325
0.73974,-0.17653,0.18903,0.077684,0.043178,-0.32199,-0.11144,0.024616
-0.91378,0.28229,-0.2379,0.033243,0.028865,0.18678,0.047389,0.11292
0.12446,-0.44742,-0.021262,-0.072704,-0.025615,0.12125,0.049101,-0.066035
0.46968,0.2312,0.095594,-0.03767,-0.0030957,-0.0089374,-0.0034091,0.019287
-0.88661,-0.19265,-0.036881,0.14543,-0.0050164,0.048869,-0.054196,-0.21656
0.60326,-0.23639,-0.02119,-0.14914,-0.03114,0.14209,-0.055369,0.25051
0.45723,0.31728,0.1576,0.15614,0.028214,0.095825,-0.021929,-0.024166
-0.86013,-0.22917,-0.094694,0.0062078,0.024926,-0.29487,0.11656,-0.11816
0.70271,0.26083,-0.059478,-0.22398,-0.017286,-0.21028,0.015946,0.046986
-0.61473,0.24928,0.04457,0.075252,0.011165,0.1626,0.073772,-0.036542
0.10659,-0.20328,-0.001036,0.029561,0.0088428,0.21582,-0.047105,0.20906
0.097177,-0.12498,-0.047478,0.014836,-0.032006,-0.32985,0.034818,-0.16214
-0.03151,0.46978,0.13223,0.094571,0.021443,0.32462,-0.2832,0.12252
-0.24871,-0.09019,-0.10217,-0.058406,-0.03394,0.02497,0.16982,-0.219
0.3797,-0.70965,-0.0082357,-0.029254,0.0049609,-0.21946,-0.28634,-0.015421
0.035188,0.34159,0.0078773,-0.012781,0.028767,0.084501,0.26993,0.11572
0.49126,-0.1722,0.071065,-0.0010118,0.021841,0.038868,0.26045,0.2135
-0.0725,-0.04616,-0.10801,-0.056682,-0.047104,-0.10633,-0.033458,-0.22951
-0.52945,0.32564,0.040561,-0.039817,-0.037513,0.16431,-0.025635,-0.025145
0.031879,-0.019386,0.10228,0.2751,0.10518,-0.27457,-0.3484,-0.0084865
-0.15976,0.15227,-0.0013288,-0.17579,-0.06449,0.061105,0.022543,0.0010687
-0.097197,0.25361,-0.12983,0.043556,0.0236,0.28045,0.13536,0.074625
-0.50367,-0.67841,-0.0018846,0.064588,0.0020824,-0.11665,-0.016224,-0.12324
0.665,-0.069358,0.062588,-0.098017,-0.004187,-0.075501,-0.024391,0.24356
-0.27452,0.12974,-0.32641,0.08667,-0.010917,0.044643,0.11207,-0.051776
0.68598,0.1922,0.58188,-0.20906,-0.025929,-0.17789,-0.051583,0.04494
-0.029201,0.20161,-0.18837,-0.054404,-0.0022994,0.10086,0.054658,-0.16221
-0.018042,-0.010437,-0.1131,0.059991,-0.0024485,0.17007,-0.054749,-0.07222
-0.056376,-0.17631,0.13619,0.19047,0.067439,-0.25159,-0.037926,-0.083891
0.615,-0.029105,-0.31542,0.049332,0.012074,0.21833,0.1107,0.13068
-0.90215,-0.14556,0.10217,-0.026665,-0.027948,0.032366,0.12333,0.12601
-0.23085,0.12507,0.15407,-0.092071,-0.029244,-0.09932,-0.45485,0.026868
-0.59145,-0.30713,0.050368,-0.014533,0.00032496,-0.013481,0.35194,-0.065589
0.76237,0.69636,-0.0068458,0.0019836,-0.03299,-0.14052,-0.1201,0.035587
0.21561,-0.4583,-0.057745,0.02684,0.050564,-0.0043904,-0.010267,-0.092056
0.56453,0.26195,-0.11891,-0.011071,-0.0066956,0.14465,0.066435,-0.019259
-0.76631,-0.19414,0.098159,-0.073149,-0.017097,0.19721,-0.059256,0.074198
-0.42134,-0.14221,0.023124,0.082742,0.050797,-0.19805,-0.21293,-0.069134
0.3136,0.063684,-0.069975,-0.019652,-0.013776,0.021798,0.23234,-0.03434
0.24397,-0.078931,-0.047174,-0.059481,-0.030973,-0.095692,0.13683,0.07047
0.80433,0.29402,0.1243,0.0028991,-0.031923,0.083168,-0.070118,0.1687
-1.1061,-0.12647,-0.030493,0.18355,0.085029,-0.018718,0.070887,-0.19902
0.15021,0.38032,-0.057037,-0.15017,-0.062883,-0.18155,-0.13785,-0.10942
0.42686,-0.34931,-0.0091293,0.079699,-0.014724,0.30648,0.12912,0.21193
-0.3145,-0.097701,0.12902,-0.017876,0.034125,-0.069692,-0.16964,-0.18773
0.56,0.078264,-0.088543,0.040911,0.052279,-0.20847,-0.051275,0.19127
-0.51715,-0.58216,0.032107,-0.15076,-0.054204,0.21779,0.061999,0.0040518
-0.87645,0.49582,-0.026565,-0.069879,-0.027739,0.044019,-0.039873,-0.20425
0.43572,0.72286,0.11617,0.10363,0.053328,-0.0045205,0.09811,0.22826
0.52373,-0.45891,-0.088426,0.13539,-0.022118,-0.17921,-0.052872,-0.0053574
-0.030193,-0.0052439,0.022492,0.056813,0.034877,0.10471,-0.084127,-0.039831
0.66092,-0.3554,-0.035752,-0.17865,-0.080402,-0.098825,0.32659,0.10795
-0.87638,-0.43984,-0.11397,-0.01591,0.014892,0.014658,-0.24936,-0.41397
-0.39847,0.29633,0.047322,-0.032651,0.00051007,0.086112,0.0082929,-0.081609
0.26601,0.63518,-0.026141,0.0684,0.048367,-0.10247,0.082837,0.37192
0.63054,-0.12527,-0.050699,-0.01717,-0.013432,0.19208,-0.019792,0.049831
0.3404,0.26615,0.25691,0.031012,0.018143,-0.17769,0.0028111,0.00066928
-0.59986,-0.3535,-0.0084072,0.017442,0.010141,2.7619e-05,-0.0078289,-0.00074842
0.15895,-0.2486,0.012824,0.027641,-0.014124,0.061787,0.0012456,0.077775
-0.85267,-0.15976,-0.1257,0.12356,3.3807e-07,0.17985,-0.1115,-0.23198
0.17882,-0.030335,-0.035175,-0.16406,-0.056752,-0.098683,0.16178,-0.00011293
-0.15037,0.39192,-0.046021,-0.17154,-0.027871,-0.10179,-0.24046,-0.078176
0.87351,0.27333,0.066014,0.015084,0.0010745,-0.11835,0.027066,0.033679
0.041405,-0.079534,0.10368,0.044365,0.069529,-0.015317,0.18489,0.17887
-0.71709,-0.41544,-0.11399,0.19783,0.044969,0.12159,-0.07794,-0.080696
0.47042,0.1097,0.092323,0.17111,0.013454,0.073693,0.091161,0.082281
0.49752,-0.051635,-0.065935,-0.30113,-0.048525,0.17668,0.12998,0.15114
-0.83715,-0.18234,-0.11867,-0.0076802,-0.024,-0.30445,-0.1181,-0.35172
0.97635,0.69153,0.13919,-0.0029556,-0.0070094,0.11371,-0.10704,0.17442
-0.61243,-0.52716,-0.1261,0.018067,0.0021801,0.039281,0.029386,-0.020855
-0.63481,0.42337,0.079732,0.040156,-0.020054,-0.21653,-0.13934,-0.070254
0.022725,-0.41386,0.18801,-0.014421,0.051208,0.087268,-0.027796,-0.12944
0.086976,-0.034328,-0.19096,-0.082872,-0.073098,0.12946,0.31695,0.0055983
0.5374,0.30973,0.091415,0.053632,0.06019,-0.059207,-0.19102,0.25766
-0.075516,-0.062106,-0.043526,0.098003,0.029222,0.029098,0.010929,-0.028802
0.23477,-0.055164,0.0047144,0.034099,0.037111,0.0043403,0.11036,0.24029
-0.5876,-0.41691,-0.085498,0.033037,-0.10369,0.14114,-0.025532,-0.27883
0.68597,0.54397,0.036069,-0.27323,0.005199,-0.36349,-0.0061175,-0.055148
-0.55699,-0.53523,0.032331,0.036343,0.027816,0.055021,0.059342,-0.096716
-0.0039779,0.5219,-0.027245,0.023633,-0.012372,0.023762,-0.12567,-0.02078
0.59918,0.26612,0.028703,0.20388,0.025355,-0.0023655,-0.20892,0.1572
-0.57345,-0.37017,-0.034403,-0.11831,-0.030731,0.43082,0.33394,0.10941
-0.29305,-0.54976,0.056915,0.041645,0.0070373,-0.3407,-0.22269,-0.19507
1.062,0.65672,0.045058,-0.050164,-0.0018097,-0.11481,0.036004,0.07989
-0.21877,-0.080585,-0.014984,0.028859,0.091278,0.067395,-0.022557,0.153
-0.51208,-0.077088,-0.20101,-0.1032,-0.14334,0.3361,0.24964,-0.22601
-0.087297,0.10883,0.065362,0.0077364,0.067773,-0.29593,0.10934,0.14553
-0.33316,-0.21435,0.034271,0.11257,0.0057831,-0.026497,-0.19494,-0.12349
0.64693,0.22298,0.20566,-0.053697,0.01433,0.072332,-0.00065384,0.11495
-0.77207,-0.22296,-0.1551,0.0091845,-0.070788,0.07023,-0.019783,-0.084757
0.50247,0.15659,-0.0093335,0.0040963,0.054972,-0.3057,-0.3073,-0.16022
0.34068,-0.092442,0.025366,-0.03843,-0.00696,0.11019,0.10614,0.13072
0.26307,0.10054,-0.10596,0.044584,0.0089317,-0.00014728,0.18276,0.1865
-0.27918,-0.20057,0.16701,0.1972,0.016643,0.045446,-0.068077,-0.055459
0.26013,0.20179,-0.11628,-0.25359,-0.046339,0.36637,0.09713,-0.071913
-0.96836,-0.17401,0.044923,-0.0038743,-0.0080938,-0.21543,-0.07098,-0.089667
0.87085,0.15928,-0.10611,-0.030413,0.014295,-0.11316,0.028886,0.1567
-0.22255,-0.092438,0.095888,0.07352,0.028788,-0.037561,0.2081,-0.1141
-0.34767,0.27639,-0.019771,0.14494,0.027746,0.0031892,0.12124,0.051276
0.026156,-0.14623,0.079062,-0.16625,-0.027718,0.031833,-0.46778,0.0049087
-0.095611,-0.04605,-0.1384,-0.15533,-0.067146,0.024057,-0.083681,-0.072712
0.87695,-0.31222,0.21837,0.10085,0.026745,-0.083598,0.030872,0.092826
-0.18709,0.61899,-0.17159,0.15772,0.011774,0.051624,0.087237,-0.044367
-1.0082,-0.54067,-0.12975,-0.055145,0.0050264,0.13185,0.15688,-0.092871
-0.1091,-0.18944,0.16275,0.047239,0.02972,-0.015783,0.085104,0.010226
0.61986,0.24221,0.063696,-0.052393,0.023045,-0.11088,-0.13434,0.21795
0.37969,0.32255,0.20449,0.33931,0.00028489,-0.068199,-0.015806,-0.15786
0.30435,0.1264,-0.34557,-0.49041,-0.070091,0.088441,0.019616,0.19421
-0.15768,-0.24903,0.038118,0.011917,-0.00071725,0.085557,0.1675,-0.047509
-0.90763,0.17589,-0.15978,0.025631,0.0053495,-0.14684,-0.35363,-0.25147
0.17919,-0.12656,0.10853,-0.03461,0.0030767,0.087206,0.09623,0.065788
0.25485,-0.27652,0.094344,0.14504,0.0085311,-0.039549,-0.046336,0.021051
0.5397,-0.056212,0.05686,0.058478,0.022224,-0.041743,0.19411,0.067652
-0.30833,0.12936,0.020652,-0.011341,-0.0022501,0.01909,0.027296,-0.059341
0.04263,-0.029141,-0.052656,-0.070933,-0.017688,0.1047,-0.0010916,0.086368
-0.64207,0.035222,0.0011541,0.091338,-0.00054094,-0.010885,-0.040443,-0.087953
0.48594,0.50692,-0.068226,-0.11042,-0.01344,0.016402,-0.16161,0.066958
-0.20417,-0.34423,-0.02704,0.034197,0.052632,-0.055549,0.14322,0.020307
-0.30732,-0.49972,-0.0010294,-0.046011,-0.029407,-0.14874,-0.25032,-0.11071
0.53794,0.36184,0.12632,0.077598,0.028922,-0.0056375,0.20575,0.0094327
0.26483,0.44277,0.065479,0.036867,-0.0072882,0.1702,0.12222,0.26282
-0.64711,-0.37658,-0.097782,-0.012675,-0.044669,0.050101,-0.16352,-0.28109
0.22455,0.056522,-0.13675,-0.19642,-0.020875,0.016254,0.068542,0.056614
0.0016178,0.011696,-0.019784,0.04807,0.0016749,-0.072585,-0.0088558,0.033275
0.13743,0.032568,0.05832,0.0022072,0.023265,0.025282,-0.035906,-0.015229
0.065368,-0.10159,0.074539,0.10374,0.028673,-0.1357,0.073339,-0.065048
0.44186,-0.19577,0.0055806,0.063811,0.026139,-0.00077106,0.076387,0.11901
-0.48494,0.19674,0.16372,0.22625,0.016043,0.07104,-0.121,-0.0010803
-0.53756,-0.38233,-0.014105,-0.30735,-0.071646,-0.099454,-0.19904,-0.29148
0.40038,0.33583,-0.29427,-0.1932,-0.025821,0.13666,0.09171,0.24855
0.033839,0.12755,0.09594,0.10794,0.044209,0.068721,0.094467,0.080152
-0.022555,0.096218,-0.093954,0.0026905,-0.025647,0.15767,0.16021,-0.094004
-0.34602,0.054726,0.14374,0.19464,0.037932,-0.40925,-0.12582,-0.056277
0.24709,0.0019986,0.035827,-0.096983,0.00038339,0.086264,-0.07689,0.15269
0.53639,-0.3063,-0.089001,-0.051551,-0.029163,0.12813,0.1109,0.10152
0.16996,0.056889,0.12156,0.11227,0.042776,-0.057451,-0.0084738,-0.015941
-1.1803,-0.39532,-0.13638,-0.097914,-0.034047,-0.087864,-0.13078,-0.49733
0.66501,0.35074,0.059815,0.020627,0.0058142,0.060317,-0.04523,0.12622
-0.17847,0.12201,0.054511,0.022059,0.0060437,0.18411,0.17026,0.22293
0.24719,0.11341,-0.1831,0.0074517,-0.0020434,-0.13031,0.00061674,0.044573
-0.48496,-0.18261,0.23002,-0.0079064,0.0051819,-0.12486,0.016939,-0.10204
0.55534,0.11763,-0.128,-0.039736,-0.034502,0.028865,-0.11577,0.058602
-0.00072984,0.1014,-0.030842,-0.048808,-0.019237,0.081057,0.064393,-0.010959
0.054309,-0.39362,0.036697,0.035574,0.012146,0.1334,-0.1214,-0.052011
-0.63589,-0.21703,0.011506,0.026394,0.067543,-0.12656,0.077515,0.044873
0.76701,0.30509,0.072552,0.064727,0.014038,-0.11294,0.16146,0.036743
-0.82057,0.20584,-0.10122,-0.013206,-0.031475,0.13516,-0.15083,-0.10126
0.71365,0.34607,0.15356,-0.05112,0.00090109,-0.14793,0.02306,0.082175
-0.75943,-0.50757,-0.24953,-0.088309,-0.053341,0.18626,-0.028452,-0.039856
0.67891,0.30181,0.10332,0.10915,0.039819,0.044083,0.076638,0.10911
-0.55166,-0.4754,-0.045657,0.079745,-0.016672,-0.11337,-0.11559,-0.17523
0.78203,0.16885,0.24917,-0.020829,0.0038013,-0.17651,0.058305,0.075423
-0.21867,-0.2108,-0.24603,-0.16173,-0.007854,0.18298,0.11359,-0.044929
0.22851,0.017929,0.13349,0.094433,0.034764,-0.11288,-0.10595,0.066211
-0.70996,0.12706,-0.12716,0.0056803,-0.039655,0.26399,-0.084312,-0.1132
-0.39746,0.41093,-0.097683,-0.083693,0.035087,-0.18663,0.046387,0.027791
0.92886,0.10813,0.18328,0.11614,0.0094726,-0.019854,0.052624,0.20939
-0.27229,-0.30905,0.020535,-0.12837,-0.061491,0.17005,-0.049159,-0.12204
-0.16739,0.053679,0.023225,0.10535,0.033235,-0.10959,0.015049,-0.067527
0.075887,-0.23644,0.018968,0.013004,0.0044544,-0.030983,0.018856,0.021237
0.24891,-0.00090205,-0.10227,-0.014763,0.015879,-0.086393,0.016629,-0.020492
0.13283,0.0035965,-0.028616,0.037273,-0.0033181,0.036894,-0.0002194,0.079617
-0.16545,0.038218,0.14574,-0.050369,0.0087659,0.042433,0.029737,0.062438
0.17769,-0.3765,-0.25124,-0.098921,-0.02657,0.0010718,0.050678,0.0048292
-0.70294,0.22585,0.077387,0.085997,-0.0082209,0.13987,0.022629,-0.25044
-0.11839,0.4673,-0.086909,0.081739,0.024484,-0.064223,-0.36736,0.085182
0.76117,-0.17226,0.24041,0.036277,-0.014434,-0.032875,0.1777,0.074234
-0.41317,0.16006,0.059327,-0.18328,-0.02324,-0.10975,0.033523,-0.063989
0.94095,0.15112,-0.091324,-0.029747,-0.0094231,0.11921,0.091788,0.077677
-0.79516,-0.21667,0.069348,0.083462,0.035219,-0.08823,-0.0135,0.015939
0.035818,-0.31296,-0.13082,0.008715,0.025108,-0.0056156,-0.054753,-0.099714
-0.093582,-0.19469,-0.074661,0.028045,-0.00043271,0.085625,-0.0079042,0.098764
0.26827,-0.30094,-0.003929,0.0014004,-0.017846,-0.041371,0.0099693,-0.020881
-0.73768,0.57825,0.043169,-0.024101,-0.0036971,0.1364,0.084383,0.025953
0.14729,0.21554,-0.10408,-0.0095072,-0.0049461,-0.14725,-0.1449,-0.12019
0.39193,-0.10889,0.3524,0.06823,0.0095616,0.044608,0.19603,0.048158
0.064183,0.25162,-0.1567,0.19298,0.016342,-0.030766,-0.23772,0.061741
0.54887,0.036912,-0.068369,-0.38571,-0.054874,-0.053442,0.17015,-0.040991
-0.57769,-0.34152,0.062674,0.0038357,0.0069881,0.038911,-0.026158,0.0049508
0.24968,-0.20609,-0.17047,0.056988,-0.016621,0.16824,0.032798,-0.019774
-0.023238,0.18438,0.074817,0.078753,0.085437,-0.22764,-0.25396,0.056217
-0.32633,-0.2087,0.19549,0.053934,-0.02264,0.086118,0.16926,-0.056493
-0.026203,0.10879,-0.091272,-0.0092947,-0.036152,-0.022704,0.038031,0.024717
-0.30009,-0.1023,-0.0056084,-0.032643,0.01351,0.0090181,-0.029359,-0.0048697
-0.12755,0.48177,0.014019,-0.04746,-0.014564,0.064671,0.014723,-0.0045195
0.34226,-0.17483,-0.2046,0.070918,0.02767,0.035346,-0.001382,-0.091219
0.93856,-0.24155,0.11236,-0.045172,0.014774,-0.19583,0.093819,0.21183
-0.42226,0.33768,-0.04193,0.11161,0.0010361,0.082229,-0.099014,-0.15764
-0.11201,-0.17892,0.12302,-0.21688,-0.076331,0.010143,-0.018604,0.0036487
-0.10342,0.11465,-0.055323,0.17242,0.040372,0.095575,0.060343,0.086441
-0.57965,0.21002,0.072822,-0.1031,0.023114,-0.028906,-0.066322,-0.11232
0.58893,-0.42444,-0.1635,0.0039198,-0.0028137,-0.097961,0.022732,0.23556
-0.71823,-0.32792,0.15012,0.033182,-0.029157,0.12252,0.022902,-0.22133
0.51019,-0.062775,0.16974,0.016578,-0.00071231,-0.1333,-0.018209,-0.013998
0.42441,0.34752,-0.34748,0.0092881,0.0048967,-0.029608,-0.044646,0.014166
-0.39807,0.48829,0.13658,-0.0040872,0.019311,0.042887,-0.023581,-0.019208
0.2661,-0.0013862,-0.11347,-0.031469,-0.01976,0.10753,0.015336,0.15976
-0.12751,-0.17863,0.12799,0.03609,0.043921,0.015745,0.14373,-0.042327
0.44572,-0.04633,0.047643,0.010424,-0.00080928,-0.037372,-0.082955,-0.039357
-0.55982,-0.2243,-0.11294,0.0001288,-0.013715,-0.083314,-0.063093,0.035805
-0.086732,-0.057891,-0.018278,-0.073657,-0.049957,0.073023,0.18703,-0.19214
0.0029905,0.18727,-0.043694,0.046319,0.030621,-0.084088,-0.091632,0.11218
-0.26683,-0.1746,0.31061,0.0082109,-0.0067402,0.046969,-0.096005,0.041739
0.44295,-0.054492,-0.21326,-0.047326,-0.013854,0.0054718,-0.046518,0.0096145
0.16877,0.15293,-0.013603,0.059718,0.048246,-0.02855,0.1491,0.077248
-0.70832,0.083971,0.034969,-0.029494,-0.023515,0.085937,-0.0023645,-0.053229
0.45006,0.092517,0.04259,-0.017446,0.013231,-0.10379,-0.095121,-0.02317
0.44482,-0.25061,-0.036472,0.018355,-0.020926,0.1292,0.13667,-0.05941
-0.33929,0.15462,-0.091378,-0.030977,-0.016271,-0.089831,-0.103,-0.013203
0.0037367,0.062638,-0.19863,0.061411,0.035378,0.043961,0.0075334,0.06168
0.33139,0.015828,0.26051,0.10028,-0.006243,-0.05532,-0.061295,-0.020851
