0.32995,-0.12106,-0.2231,-0.043511,-0.013522,-0.0075133,-0.058197,-0.067796
-0.53535,-0.29609,0.014531,-0.016463,0.0099061,-0.0009172,0.034955,0.05782
0.25567,0.28773,-0.17589,-0.021269,0.0019547,0.01366,0.073146,0.12215
0.27781,0.01294,0.085669,0.035133,-0.0061423,-0.033912,-0.044695,0.057041
-0.37086,-0.097238,0.078151,0.027478,0.024673,0.028355,-0.013511,-0.1049
0.58651,0.089861,-0.035905,-0.08311,-0.038409,-0.033896,0.002799,-0.019539
-0.40266,-0.089933,0.00066426,-0.014828,-6.8886e-05,0.0058194,-0.019275,-0.10931
0.45931,0.10547,0.0083384,0.069008,0.045955,0.061394,0.084036,0.21046
-0.53866,0.0041008,0.081696,0.051945,0.0059316,-0.015839,0.0076027,-0.077569
0.18888,-0.05039,-0.098306,-0.034229,-0.03416,-0.01518,-0.061554,0.071681
-0.33493,-0.042419,-0.084873,-0.056486,-0.019564,-0.030573,-0.0457,-0.25742
0.35107,0.098374,0.17816,0.086601,0.01076,0.0082006,0.023715,0.15274
-0.24458,-0.19816,-0.011051,-0.042898,-0.013373,-0.0082053,0.01393,0.020398
0.10558,0.26359,-0.057747,0.10131,0.048793,0.021924,0.0033634,-0.045034
-0.066701,-0.16447,-0.0081755,-0.11417,-0.013573,-0.010546,0.015931,0.058557
-0.035398,0.072727,-0.002696,-0.064766,-0.0051006,0.01966,-0.033744,-0.027302
0.39282,-0.024545,-0.0492,-0.00065751,-0.011734,-0.0043861,0.034559,0.042219
-0.48872,-0.22183,0.10194,0.03134,-0.0022957,0.0034427,-0.013134,-0.075521
1.0574,0.38694,-0.049893,0.070525,0.0074541,-0.011446,0.010876,0.1283
-0.68484,-0.25345,-0.013272,0.023444,0.0095227,-0.0021921,-0.026258,-0.16582
-0.47785,0.1218,0.0078409,-0.039341,-0.019735,-0.0236,0.015835,0.027059
0.33962,0.10544,0.090781,0.015116,0.021032,0.033497,0.0039221,0.058742
0.20465,-0.20202,-0.077577,-0.016299,-0.0089897,0.004771,0.046876,0.0072951
-0.45865,0.16731,0.12741,-0.00085668,0.0072441,0.014926,-0.019853,0.067662
0.0026677,-0.47456,-0.26304,-0.04805,-0.008465,-0.030066,-0.040395,-0.1436
0.22724,0.59893,0.063886,0.00607,-0.0092348,-0.028866,-0.069663,-0.0023244
0.18974,-0.26792,-0.04752,0.0051753,0.012836,0.065268,0.064156,0.11557
-0.12862,0.24616,0.25494,0.042971,-0.020219,-0.06019,-0.03732,-0.10337
-0.37392,-0.66224,-0.035993,0.017877,0.024613,0.047963,0.094754,0.12125
0.55479,0.64884,-0.21688,-0.038847,-0.016516,-0.039797,-0.016123,-0.11751
-0.010037,-0.2491,0.016994,0.021295,0.012842,-0.010757,-0.010582,0.015848
-0.12096,0.011986,0.2435,0.042188,0.019094,0.049369,0.017575,0.013377
0.52011,0.15903,-0.13153,-0.085298,-0.021089,-0.0076547,-0.041056,0.10968
-0.71783,-0.097117,0.079024,-0.0014214,0.0017222,0.02927,0.079238,-0.038395
0.13797,0.047767,0.085932,0.013024,-0.02184,-0.058487,-0.15251,-0.1018
-0.31932,-0.28977,-0.39967,-0.033686,-0.0058718,0.0025982,0.068919,-0.079344
-0.039788,0.49902,0.17749,0.061931,0.026113,0.01728,0.0020216,0.084922
0.56096,-0.33626,-0.18953,-0.04374,-0.0041197,-0.022199,-0.016494,0.10313
-0.92286,-0.28014,0.28922,0.047554,0.028293,0.017009,-0.025025,-0.1254
0.81439,0.40192,-0.049759,0.054043,0.013831,0.0099101,0.03151,0.10291
0.7881,0.0696,0.18415,0.053046,-0.032001,0.018963,0.14529,0.10827
-1.0357,0.027893,-0.15039,-0.30796,-0.070217,-0.034053,-0.12166,-0.14115
0.30562,-0.18399,-0.085907,0.10289,0.039796,0.0069629,0.034504,-0.052596
-0.51779,-0.40214,-0.030289,0.33954,0.04027,-0.030054,-0.11393,-0.09607
-0.034392,0.50567,0.18679,-0.34844,-0.021843,0.034369,0.04123,0.063026
0.81854,-0.039719,0.087674,0.10928,0.03322,0.028148,0.10048,0.20465
-0.43691,0.39771,-0.33574,-0.083729,-0.036674,-0.033267,-0.046292,-0.12543
0.18968,-0.41821,0.24529,-0.01258,0.010676,0.029702,0.038157,0.087615
-0.10727,-0.38,-0.33967,0.089389,-0.0044337,-0.056394,-0.14592,-0.07062
-0.39683,-0.10661,-0.010555,0.0045,-0.019539,-0.0023959,0.011601,-0.12334
0.59893,0.6818,0.23451,0.014916,0.043449,0.074711,0.16811,0.26626
-0.03348,-0.023445,0.014002,-0.0037513,-0.0108,-0.059175,-0.11259,-0.22854
-0.086338,0.32446,0.10943,-0.004382,-0.018219,0.010301,-0.032368,-0.019996
-0.74682,-0.63292,-0.011371,-0.041777,-0.010029,-0.021298,0.011288,-0.043772
0.10496,-0.19033,0.30598,0.047722,0.013809,0.018047,0.057903,0.029754
0.90211,0.41338,-0.4955,-0.08023,-0.0091786,0.026766,0.037043,0.20135
-0.63441,-0.41906,0.019639,0.018987,0.014739,0.0046851,-0.005106,-0.076069
0.033652,0.47324,0.068954,0.12591,0.015166,-0.0094568,0.016286,0.079073
0.13559,-0.65549,-0.43345,-0.15075,-0.039306,-0.039512,-0.15789,-0.10087
0.68498,0.63521,0.54494,-0.022547,0.015168,0.05472,0.15865,0.18641
-0.44957,-0.012964,-0.017164,0.056886,0.0221,-0.031794,-0.066215,-0.1237
0.30843,0.18797,-0.14076,0.079354,0.0047279,-0.01018,-0.028163,-0.10286
-0.67664,-0.30409,-0.06593,0.10716,0.01765,0.010205,-0.00043262,-0.095024
-0.60218,0.014382,0.067894,-0.15652,-0.05624,-0.025088,-0.044822,-0.146
0.95402,-0.10348,-0.05178,-0.094113,-0.0057125,0.064058,0.097517,0.23059
0.22226,0.40076,0.54262,0.076375,0.021282,-0.034298,-0.017592,0.14663
-0.376,-0.33496,-0.27594,-0.0737,-0.021509,0.0085762,0.079607,-0.059581
-0.88483,-0.67101,-0.27539,0.035003,-0.00063233,-0.056766,-0.14927,0.074534
0.70865,0.64324,0.19082,0.08334,0.0063148,0.020079,0.045996,-0.23166
0.27001,0.054768,-0.39383,0.01753,0.038675,0.043975,0.047982,0.14629
0.76635,0.018638,0.11167,-0.029156,0.002644,0.0070065,-0.0033434,0.14444
-0.7579,-0.034015,0.27143,-0.056789,-0.024058,-0.028708,-0.015163,-0.11426
-0.23608,0.22537,0.11921,0.059042,0.020367,0.014357,0.0036891,-0.11625
0.22545,-0.35232,-0.43595,-0.010776,0.017864,0.026111,-0.018011,-0.042885
-0.31673,0.42678,0.49126,0.084112,-0.016815,-0.025388,-0.026197,0.15185
-0.088211,-0.032692,-0.35536,-0.17314,-0.053126,-0.0078633,0.049238,-0.17258
-0.19069,-0.16146,0.0011121,0.028933,0.010084,-0.038774,-0.0727,0.13327
0.2651,-0.50626,0.012753,-0.044791,-0.038172,-0.008706,0.093054,-0.022713
0.52646,-0.19839,0.020959,0.097528,0.052406,0.027982,-0.054057,-0.013559
0.64426,0.71013,0.54587,0.15124,0.055832,0.040583,0.026197,0.084467
-0.32322,-0.097819,-0.28337,-0.14108,-0.019344,-0.0015088,-0.024429,0.0071487
-0.88749,0.10719,-0.36848,-0.036527,-0.016091,0.0038955,-0.033161,-0.15107
-0.30848,-0.094858,0.053899,-0.073263,-0.050888,-0.052074,0.0083199,0.039338
0.085733,0.2105,0.022121,0.030985,0.01744,-0.0050399,0.053145,-0.031987
0.56293,-0.01686,-0.048793,0.13657,0.040779,0.059143,0.11642,0.2739
-0.25621,-0.70883,0.21858,-0.052608,-0.01988,-0.031549,-0.1544,-0.16229
0.069395,0.71776,0.03853,-0.082995,-0.024136,-0.027475,-0.0262,-0.069285
0.31559,-0.083564,-0.093162,0.08447,0.050967,0.070856,0.06996,0.051056
-0.10326,-0.19306,-0.19684,0.019646,0.0016295,-0.0027612,0.031288,0.033457
0.43568,-0.20576,0.26071,-0.020498,-0.024486,-0.037954,-0.080631,-0.099019
-0.68896,0.10462,-0.142,-0.037075,-0.01252,-0.019563,-0.00065403,-0.033378
0.17377,0.16044,-0.015678,-0.054734,-0.017805,-0.018203,-0.0022404,-0.034047
-0.36402,-0.16229,0.097703,0.066027,0.0061005,-0.010561,-0.061566,0.033387
0.94403,0.51266,0.25665,0.082162,0.051223,0.081539,0.17361,0.24086
-0.70798,-0.126,-0.16033,-0.053647,-0.022927,-0.022967,-0.10058,-0.22282
-0.11529,-0.21772,-0.15688,-0.028821,0.010637,0.035585,0.085463,0.22128
0.11705,-0.23791,0.085212,0.0010157,-0.027108,-0.015881,-0.017464,-0.12193
-0.38758,-0.17754,-0.12919,-0.072379,-0.01814,-0.075381,-0.1196,-0.15105
0.94008,0.8631,0.18704,0.08842,0.030624,0.060682,0.13903,0.34446
-0.9097,-0.7867,-0.25014,-0.077471,-0.02842,-0.06033,-0.14729,-0.37004
0.59023,0.6083,0.0033864,0.087675,0.031931,0.046419,0.068721,0.11167
-0.1845,-0.67031,-0.22512,-0.024445,-0.022369,-0.0093356,-0.017338,-0.014774
0.17765,0.66615,0.34371,0.0085091,0.011761,0.006976,0.047745,-0.045632
0.49973,-0.50065,0.22129,0.014431,0.032318,0.040639,0.021621,0.12134
-0.2324,0.27281,-0.12325,-0.031015,-0.031775,-0.072676,-0.10395,-0.075838
-0.27461,0.18747,0.14291,0.05827,0.037259,0.049364,0.092216,0.15983
-0.53708,-0.28226,-0.16609,-0.0084345,0.00404,0.031135,0.031133,-0.093962
-0.044177,0.049411,0.097855,-0.013991,-0.038534,-0.04991,-0.038148,0.044629
0.2063,0.16604,-0.034787,-0.069064,-0.036323,-0.022514,-0.046221,-0.14458
0.26574,-0.29146,-0.25121,-0.018162,0.0027133,0.0034783,-0.032898,0.047686
-0.32134,-0.22019,0.17791,0.037017,0.016334,0.012183,-0.01432,-0.020877
0.35595,0.30374,-0.1086,0.010983,0.005124,0.019196,0.10302,0.10145
0.39385,0.016851,-0.17157,-0.0016202,0.0089182,-0.0065436,0.0066568,0.030945
-0.20811,0.20194,0.11857,0.055022,0.020697,0.02908,0.048437,-0.021698
-0.10947,-0.41411,0.033862,-0.044511,-0.013564,-0.053131,-0.13049,-0.10281
0.15329,0.042474,-0.051551,0.0054373,0.015938,0.012991,0.0096647,-0.0079183
-0.35537,0.58456,0.57937,0.041469,-2.1182e-05,0.0014215,0.016671,0.007139
0.14868,-0.36198,-0.54573,-0.076741,-0.030304,0.014181,0.047756,0.069741
-0.47019,0.011271,0.059261,0.010117,0.0029028,-0.034342,-0.075805,-0.13023
0.10823,0.38077,0.19829,0.028232,0.0054282,0.035691,0.045245,0.10453
0.4022,-0.7627,-0.10791,0.0082651,0.015893,0.021116,-0.0026022,0.04867
-0.36482,0.52735,0.1681,0.019833,-0.020775,-0.039219,-0.031649,-0.13358
0.59428,-0.45611,-0.086906,-0.015868,0.0045244,0.034029,0.12196,0.23657
0.019824,-0.12873,-0.3681,-0.052513,-0.0099142,-0.017366,-0.097061,-0.077127
-0.40342,0.19657,0.0027875,0.0033015,-0.0094244,-0.045386,-0.0021128,-0.084967
-0.35156,0.22999,0.35422,0.034287,0.037317,0.02773,-0.00053046,-0.039608
0.73957,0.062638,-0.18694,0.024948,0.0054348,0.014211,0.031572,0.11129
-0.43517,0.12624,-0.06326,-0.040033,-0.034621,-0.0001744,-0.031797,-0.094819
-0.24546,-0.43255,-0.0063309,-0.035248,-0.0046039,-0.015486,-0.011692,0.0054885
0.37474,0.45115,0.28273,0.055357,0.025266,0.030814,0.052422,0.022038
0.16197,-0.12931,0.015491,0.029032,0.023807,0.0060421,-0.011348,-0.020332
0.0319,-0.034972,-0.10594,-0.028002,-0.016729,-0.027094,-0.022962,-0.002366
-0.11515,-0.0013503,-0.0059224,-0.014001,-0.025948,-0.029251,-0.067688,-0.10922
-0.080699,0.13675,0.04653,0.03207,-0.0037295,0.031144,0.081922,0.23161
0.031234,-0.31122,-0.061537,-0.022548,0.0032128,-0.0018157,-0.0028456,-0.048504
-0.31036,-0.086241,0.080974,-0.0059413,0.01069,0.012802,0.053933,0.059171
0.34284,-0.081492,-0.21516,-0.019636,0.011063,-0.010711,-0.043866,-0.07028
-0.60547,-0.35906,-0.12981,-0.040183,-0.018991,-0.025377,-0.092634,-0.14067
0.67935,0.8015,0.0024191,0.041727,0.0064724,0.046877,0.1109,0.18267
-0.34307,-0.23164,0.20743,0.022781,0.0013947,-0.044161,-0.11314,-0.18783
0.30903,0.44638,0.29288,0.043247,-0.0032325,0.021464,0.06281,0.035153
-0.0099007,-0.20058,-0.035176,0.016684,0.031287,0.032365,0.083266,0.17028
-0.19817,-0.24371,-0.44629,-0.088746,-0.020467,-0.01193,0.0097672,-0.057231
0.21039,0.21914,0.15479,0.085773,0.020794,-0.002457,-0.03362,0.0080124
0.2659,-0.075968,0.19836,-0.092979,-0.032735,-0.033235,-0.047622,0.029821
-0.34968,-0.096691,-0.073574,-0.0079791,-0.0093244,-0.0027731,-0.048227,-0.11636
-0.2432,0.080785,-0.028956,0.020571,-0.010501,-0.0125,-0.043176,0.031535
0.26885,-0.35222,-0.16105,-0.038231,-0.0048093,0.0082053,0.038326,-0.11862
-0.69839,-0.27229,-0.064796,0.058297,0.03932,0.044129,0.087666,0.067855
1.027,0.79782,0.21962,0.045046,0.012874,0.0019468,0.035395,0.084859
-0.98278,-0.3738,0.081873,-0.015036,-0.0056922,-0.0086033,-0.047389,-0.089867
0.8845,0.48185,0.12278,0.011181,-0.016131,-0.018527,0.027382,0.20809
-0.16478,-0.47546,-0.35339,-0.024548,0.0051315,0.0035302,-0.099374,-0.099981
-0.065211,0.077594,-0.073323,-0.075243,-0.027807,-0.0284,0.0098516,-0.14053
0.20099,0.32283,0.34606,0.070101,0.041254,0.041793,0.057955,0.23287
-0.40395,-0.35576,-0.21186,-0.041573,-0.014342,-0.004847,0.013291,-0.083432
-0.13741,-0.059443,0.019291,0.019498,-0.0072008,0.011137,-0.0074331,-0.036475
0.19574,0.078536,0.071591,-0.020062,-0.015537,-0.019837,-0.012502,0.0056609
0.11045,0.018185,-0.093321,0.097577,0.030911,-0.0041588,-0.017928,-0.10526
0.051093,0.16447,0.16563,-0.065142,-0.0163,-0.012193,-0.00052258,0.046172
-0.11619,0.015865,-0.034251,0.038512,0.030367,0.018605,0.00056191,-0.014354
0.045167,-0.49961,-0.24012,-0.076055,-0.032151,0.0024159,-0.014631,-0.026295
0.308,0.38971,0.30522,-0.0028673,-0.031913,-0.029351,-0.030354,-0.026088
-0.45274,-0.18514,-0.33663,-4.4352e-05,0.031127,0.032834,0.070712,0.1679
-0.033353,0.36789,0.17701,0.041476,0.00071667,-0.0062273,0.038654,0.048681
0.25476,0.24268,0.2904,0.097964,0.048665,0.041012,0.045373,0.092321
-0.58701,-0.8586,-0.24736,-0.10424,-0.043899,-0.059847,-0.15915,-0.27323
0.49722,0.25132,0.016355,0.028485,0.019744,0.019245,0.034446,0.01187
0.17211,0.19818,-0.19188,-0.074117,-0.018362,-0.0030667,0.02465,0.061743
-0.21893,-0.016294,0.12077,0.01786,-0.017686,-0.025322,-0.055591,-0.064057
0.58841,0.063698,-0.12264,0.015737,0.0061415,0.03834,0.051759,0.077471
-0.90788,-0.19126,0.3451,0.013743,-0.0014851,0.00037932,0.042289,0.047535
0.88373,0.46477,-0.11499,0.012363,0.014277,-0.0063848,-0.0055832,0.033591
-0.99171,-0.76923,-0.071698,0.004186,0.0067428,0.0024674,-0.036905,-0.041239
0.27733,0.23474,0.038524,0.012896,0.0073385,-0.0042421,0.050098,-0.19022
0.25344,-0.17777,-0.42452,-0.047388,-0.022876,-0.034249,-0.11162,-0.043064
0.047032,0.56363,0.40604,0.057581,0.0098884,0.02187,0.048277,0.067543
-0.098111,0.16801,0.18537,-0.078728,-0.01943,-0.0077718,-0.0093711,0.12095
-0.36001,-0.41524,-0.072589,0.0042317,-0.001612,0.009532,0.019837,0.056351
0.50469,0.066651,-0.0026502,0.056017,0.039672,0.042328,0.026045,0.014606
-0.14434,-0.071562,-0.036418,0.021493,0.018211,-0.003415,0.0085869,0.025635
-0.12041,0.032237,-0.2847,-0.03724,-0.035009,-0.010811,0.021371,-0.046008
0.38721,-0.039695,-0.037222,-0.018927,-0.018631,-0.0348,-0.05357,-0.047458
-0.069109,0.24225,0.19054,0.045001,0.012554,0.018239,0.03312,-0.0055991
-0.53849,-0.50408,-0.022477,-0.087683,-0.042998,-0.062598,-0.10956,-0.10292
0.5557,0.13034,0.17646,0.05186,0.049215,0.035386,0.065241,0.065236
-0.021018,0.37636,-0.039612,0.018502,0.015956,0.054696,0.073504,0.10814
-0.42335,-0.30797,-0.013511,-0.023465,-0.025359,-0.05117,-0.099711,-0.13684
-0.14032,-0.14469,-0.025925,0.012129,0.0036004,0.030639,0.023079,-0.026442
0.44167,0.23656,-0.029742,0.039547,0.0092365,0.011341,0.013214,0.0052519
-0.11037,-0.13959,-0.02494,-0.026983,0.0072636,0.00049854,0.043566,0.11801
-0.25365,0.5461,-0.066272,-0.01544,-0.017911,-0.033033,-0.04126,-0.060158
0.35764,-0.12336,0.096187,-0.01943,0.0040207,0.020175,0.032797,0.066488
-0.10481,-0.42551,-0.28763,-0.030975,-0.028519,-0.042969,-0.077665,-0.11078
0.50485,0.44809,0.50094,0.082923,0.040714,0.035386,0.096167,0.27449
-0.25538,-0.068003,-0.10078,-0.0056599,-0.007015,-0.010351,-0.0631,-0.18587
-0.28162,-0.72474,-0.16331,-0.01529,-0.0076052,-0.00047853,-0.0090385,-0.057022
-0.071433,0.14334,-0.046291,-0.0083217,0.015561,0.018084,0.023337,0.017523
0.042932,0.18028,0.17982,-0.039365,-0.031212,-0.017297,-0.021448,0.04298
0.082788,0.23439,0.0072493,0.03219,0.00054852,0.018133,0.074475,0.033082
-0.21731,-0.072586,-0.2356,-0.0047164,0.017086,-0.0087873,-0.049169,-0.16939
0.30116,0.18457,0.1002,0.0059261,-0.012917,-0.012545,-0.049473,-0.095708
-0.48309,-0.078786,-0.1644,0.024721,0.019778,0.014226,0.018183,0.13767
0.91864,0.10503,0.28363,0.035659,0.021233,0.016439,0.10647,0.18818
-0.51309,-0.45473,-0.024121,-0.047553,-0.008757,-0.0061822,-0.058186,0.049403
-0.19719,0.26063,0.037305,-0.014229,-0.01568,-0.014666,0.0088334,-0.066451
0.14119,0.11308,-0.1731,-0.028504,-0.015254,-0.0010692,-0.019975,-0.12704
-0.037318,-0.1755,0.16433,0.026936,-0.015268,-0.027538,-0.096787,-0.092463
0.59359,0.54802,0.080145,0.011767,0.023479,0.02364,0.060786,0.069136
-0.64871,-0.68598,-0.30904,-0.050182,-0.023788,-0.010985,-0.022688,0.029973
-0.0019534,0.022552,0.043316,0.036775,0.030679,-0.0058271,0.013052,-0.077108
0.44483,-0.13503,-0.011331,0.030684,0.023025,0.047374,0.074698,0.17724
-0.43553,-0.12223,-0.066722,-0.021567,-0.03102,0.00040697,0.044946,-0.012393
0.074935,0.5118,0.33018,0.043845,0.0091406,-0.021761,-0.029989,-0.10022
-0.069928,0.19347,-0.047529,-0.031345,-0.012898,0.0040318,-0.041781,0.045297
0.069448,0.097204,0.010386,-0.021146,0.011988,-0.0086068,-0.0072441,0.047915
-0.043012,-0.51133,-0.20796,0.0035674,0.0053819,-0.0055283,-0.028988,-0.10895
0.48664,0.0295,0.29643,0.034566,0.0060815,0.012747,0.017327,0.14456
-0.58853,0.11384,-0.43817,-0.053321,-0.025151,-0.024505,-0.032485,-0.1132
0.077549,0.15048,0.11917,0.021282,0.0053944,0.023108,0.0095071,-0.16257
0.26739,0.0092392,0.10933,-0.061526,-0.019359,-0.00069069,0.034817,0.13072
0.082655,-0.13431,0.072248,0.0895,0.025836,0.0058384,0.021159,0.1122
-0.3604,-0.24342,0.06402,-0.0014895,0.0085043,-0.011649,-0.045916,-0.12265
0.374,-0.11518,-0.21825,-0.036942,-0.016307,-0.013647,-0.0013795,0.13072
-0.66944,0.26787,0.18839,0.030531,-0.0014162,0.00030156,0.03815,-0.056539
0.30389,0.03407,-0.20629,-0.040995,-0.0013217,-0.00067545,-0.0053909,0.018827
0.69039,0.070469,0.036934,0.014072,-0.00037647,0.014889,0.023787,0.01252
-0.83964,0.19395,-0.11982,9.5172e-05,0.016884,0.015744,-0.0080329,-0.029716
0.4394,-0.14617,0.2067,0.04152,0.0032644,0.0016627,-0.055163,-0.17192
-0.1446,-0.024673,0.10981,0.020481,0.020838,0.011291,0.029564,0.10761
-0.26307,-0.024921,-0.083652,-0.071503,-0.040215,-0.041828,-0.020619,-0.021031
0.33497,-0.23106,0.10104,-0.00056893,-0.00057213,0.013674,0.027839,0.15148
0.04921,-0.063939,-0.010019,0.053357,0.022378,0.005541,0.0026871,0.10045
-0.49419,0.36719,-0.19981,-0.042434,-0.018224,0.011736,0.068132,0.059521
0.41645,-0.16513,-0.063154,-0.021883,-0.020573,-0.037947,-0.14237,-0.54945
-0.093796,-0.069282,-0.029941,-0.0014913,0.0079406,0.0052942,0.012878,0.13368
0.33381,0.19821,0.080066,-0.019528,-0.010288,-0.02204,-0.0038836,0.11819
-0.15355,0.16409,0.025656,0.08098,0.034621,0.036953,0.074317,0.12485
-0.096395,-0.2941,0.026523,0.019274,0.03368,0.042262,0.022075,0.062059
-0.26164,-0.033341,-0.026232,-0.063876,-0.036358,-0.052531,-0.042647,-0.12284
-0.11091,0.26964,0.25777,0.026602,-0.011472,0.002783,0.028873,-0.12362
0.77787,-0.060652,0.12757,0.024502,0.0065163,0.012819,-0.037036,0.12312
-0.2583,-0.25268,-0.37136,-0.031923,-0.0062573,0.00066918,0.024565,0.047192
-0.70207,-0.4079,-0.17015,-0.041995,-0.0034312,0.012659,-0.013886,-0.11764
0.30021,0.56946,0.066159,0.040355,0.022296,-0.0065569,-0.012917,0.07266
0.33636,0.19084,0.15764,0.011413,0.0080021,-0.0029388,0.0029135,-0.047669
-0.23294,-0.023434,0.089291,-0.01973,-0.02313,-0.0317,0.0014148,0.097601
0.53804,-0.19313,-0.15316,-0.0061421,-0.00082978,0.0084026,0.02101,-0.032365
-0.21063,0.11669,0.010197,0.021303,0.0047777,0.031364,0.037988,0.11577
-0.39421,-0.43293,0.0030286,-0.030517,-0.029357,-0.040762,-0.11942,-0.23995
0.0092028,-0.049028,-0.048287,0.026672,0.022284,0.026779,0.041398,0.033377
0.076359,0.53665,0.028716,0.0061673,0.0040056,0.0079262,0.044571,-0.016554
0.25948,-0.0186,0.11644,-0.013217,-0.0055924,-0.018663,-0.015354,0.041285
-0.082373,-0.10611,-0.12246,-0.054439,-0.014019,-0.013452,-0.036024,-0.065018
-0.44895,0.045251,0.16144,0.046759,0.03348,0.031719,0.069163,0.11899
0.19157,-0.14624,0.20016,0.055892,0.027354,0.015461,-0.011836,0.06286
0.42572,-0.059976,-0.16454,0.027275,-0.0015213,-0.015352,-0.044435,0.032338
-0.12891,0.15884,-0.31639,-0.086518,-0.045815,-0.021813,0.018218,-0.090318
-0.081732,0.12313,0.088863,0.034227,0.003373,0.011447,0.019657,0.045445
0.15274,-0.51445,-0.13426,-0.079764,-0.018381,0.0060039,-0.0092101,-0.10059
-0.52784,0.13413,0.064309,0.032095,-0.0018854,-0.0071724,-0.021913,-0.060653
0.11773,0.45793,0.16481,0.010281,0.013808,-0.0048681,-0.018858,0.039709
0.11972,-0.28571,-0.03259,0.0032677,0.0054332,-0.0028532,0.054279,0.052029
0.282,0.13818,0.083616,0.034657,0.012317,-0.0011969,-0.044995,-0.038866
0.18221,0.067172,0.092005,0.0031026,0.0034921,0.023524,0.034653,0.080297
-0.55453,-0.14452,0.038121,0.041622,0.026067,0.0010098,0.011807,-0.066163
0.54933,-0.26676,-0.20583,-0.13088,-0.052621,-0.037485,-0.027684,0.077231
-0.65268,0.16566,0.012791,0.040389,0.0018528,-0.0060457,-0.052587,-0.10616
0.029894,0.032258,-0.012787,0.00075556,0.0019519,0.040586,0.085607,0.1183
-0.00092362,-0.16271,0.073887,0.039252,0.025702,0.024209,0.0042586,-0.05412
0.39131,0.24041,-0.23667,-0.00045367,-0.0051542,-0.016174,-0.038535,-0.06115
0.061112,0.25927,0.18036,0.069038,0.018626,0.021001,0.059196,0.18284
-0.37274,-0.28539,-0.11134,-0.15079,-0.059313,-0.082902,-0.10828,-0.22865
0.54265,-0.027575,-0.023654,0.035337,0.010969,0.0082954,0.045555,0.094876
-0.35903,-0.0088696,0.26637,0.057177,0.034151,0.029329,-0.017781,0.0050302
-0.4412,0.12666,0.19875,-0.014815,-0.005352,-0.019386,0.0068555,-0.044902
0.24385,-0.32014,-0.58399,-0.039798,-0.0059099,0.026599,-0.0053127,-0.062554
0.36189,0.20944,0.15355,0.021523,0.001309,0.019104,0.054978,0.13965
0.23513,-0.053598,0.098813,-0.0025286,0.00075428,-0.0027467,-0.00025935,0.077191
-0.10991,0.35677,0.086757,0.0053455,-0.015333,-0.0078727,0.0078318,-0.094078
-0.082175,-0.27232,-0.024966,0.037317,0.007757,-0.027905,-0.023379,0.015831
-0.4707,-0.37167,-0.05874,-0.055201,-0.015933,-0.00088031,-0.071597,-0.12511
-0.37412,0.30833,0.14751,0.071281,0.054164,0.056976,0.073088,0.083859
0.55659,0.10383,0.037624,-0.0445,-0.032043,-0.03459,0.034931,0.048298
-0.2501,0.085816,-0.27193,-0.012249,-0.0012187,-0.010397,-0.053594,-0.091662
0.34509,-0.22132,-0.36696,-0.050998,-0.0097026,-0.01131,-0.059556,0.046546
0.21425,0.097664,0.19074,0.034368,0.0049562,0.0095424,0.033224,-0.0057968
-0.054263,0.0051456,0.17549,0.025,0.0037079,0.0055247,0.014701,0.07973
0.47672,0.15127,0.34571,0.045901,0.010076,0.00051765,0.018774,-0.063525
-0.89075,-0.40725,-0.025133,-0.035634,-0.014847,0.010731,0.030947,-0.083257
0.15192,0.1522,0.10934,0.014994,-0.00053708,-0.0022505,0.021001,0.11518
-0.1024,0.019555,-0.16561,-0.0049858,0.0063669,-0.022176,-0.080535,-0.13129
0.21833,0.18933,-0.38935,-0.040403,0.0060929,0.029606,0.031623,0.17833
0.23783,-0.024065,0.071513,0.003072,-0.0089944,-0.010601,-0.0093716,0.029346
-0.72298,-0.36162,-0.20324,-0.07709,-0.023183,-0.041082,-0.062816,-0.2728
0.37704,0.3175,0.14831,0.078976,0.025991,0.055273,0.08986,0.17088
0.0095132,-0.27667,0.23056,0.018398,0.0055417,-0.018722,-0.036148,0.032482
-0.096344,0.2054,0.053776,0.053582,0.0089114,0.017674,0.019433,-0.086579
0.23293,0.34673,0.12714,-0.019068,-0.011183,-0.015875,0.021374,-0.0071864
-0.096493,-0.34831,-0.11189,-0.036291,-0.0083197,-0.0028851,-0.031305,0.011843
