0.010166,0.10285,-0.081498,0.12849,0.013142,-0.032977,-0.012386,-0.023327
0.035998,-0.040064,-0.0032532,-0.081821,-0.024852,0.068726,0.25419,0.046391
-0.045437,-0.12871,-0.041928,-0.041527,-0.024501,-0.11083,-0.28157,0.02336
0.41552,0.048372,0.060765,0.046459,0.03005,0.029973,-0.097587,0.12668
0.061091,0.02287,-0.030806,-0.005312,0.021874,0.006786,0.15605,-0.049958
0.088235,0.021628,0.05837,0.006136,-0.0019287,0.038361,0.071495,0.055557
-0.44679,0.060373,-0.070489,0.033577,0.036924,0.04657,0.24906,-0.11206
-0.13629,-0.095354,0.050696,0.0062031,-0.088057,-0.15609,-0.55406,-0.17838
0.16952,-0.031726,0.11636,0.017225,0.0059343,0.0084945,-0.14244,0.051515
-0.11415,-0.0068958,-0.093137,-0.090071,0.014142,0.03247,0.17215,0.10874
0.35728,0.20531,-0.015985,0.019972,0.053644,0.11105,0.46115,0.1731
0.021614,-0.10641,-0.15248,-0.035504,-0.063197,-0.076238,-0.35235,-0.20046
-0.26214,-0.19239,0.13819,0.071799,0.0463,0.032893,0.14671,-0.050724
-0.065425,0.072115,-0.096445,-0.13436,-0.00078601,0.032002,0.11525,0.099056
0.14122,0.14788,0.035175,0.11199,-0.017004,-0.063372,-0.18852,0.037988
0.24612,0.097298,0.14346,0.092359,-0.0023269,0.020296,0.27471,0.14875
-0.51104,-0.25935,0.010556,-0.02905,-0.026958,-0.099517,-0.51824,-0.42831
0.07832,0.023279,-0.089509,-0.01786,0.0030251,-0.023933,-0.15296,0.064222
0.62174,0.085936,-0.10183,-0.077237,0.017501,0.075644,0.29272,0.29776
-0.34266,0.0069734,0.059392,0.011585,0.024438,0.051122,0.076648,-0.11093
0.11503,0.028928,0.02658,-0.14186,-0.054215,0.035398,0.36238,0.17374
-0.53497,-0.0039784,0.19766,0.34557,0.078377,0.012614,-0.2028,-0.24679
-0.016645,-0.14585,-0.14657,-0.16627,0.0080091,-0.025547,-0.089323,-0.0051837
0.11066,-0.044449,-0.11576,-0.098681,-0.085837,-0.10315,-0.2444,-0.17128
0.28756,0.27748,-0.10054,0.0019623,0.031009,0.1152,0.52567,0.35728
0.11012,-0.10909,0.094678,0.096951,-0.0087749,-0.12859,-0.73306,-0.20761
0.11846,0.054224,0.19689,0.053556,0.021356,0.087441,0.56558,0.2054
-0.21911,-0.021233,-0.051262,-0.058145,-0.034722,-0.040877,-0.084763,-0.098112
-0.12299,-0.304,-0.086939,0.011308,0.08106,0.034133,-0.15033,-0.023686
0.28726,0.26056,-0.027234,-0.035721,-0.06064,-0.053791,0.036086,-0.00059814
-0.41265,-0.054481,0.14331,0.049912,-0.014145,-0.014775,-0.10819,-0.1225
-0.084022,0.070461,-0.20856,-0.068536,-0.013531,0.026647,-0.033587,0.00097559
0.24081,0.25147,0.15878,-0.047942,-0.027402,0.078246,0.25368,0.18956
-0.055461,-0.4113,-0.0835,0.15039,0.084791,0.030057,0.199,-0.0029646
0.22317,-0.09129,0.087411,-0.19237,-0.028844,-0.025219,-0.20692,0.039457
-0.20328,0.36621,0.022565,0.26774,0.11553,0.012704,0.048723,-0.1375
0.31527,0.022361,-0.11427,-0.086006,-0.060867,-0.083949,-0.25645,0.019785
0.053991,-0.35035,0.028438,-0.12797,-0.042996,0.043352,0.35816,0.10428
-0.74318,0.16951,-0.080375,0.017583,-0.089055,-0.13692,-0.54824,-0.39219
0.30027,-0.074191,0.02058,-0.00020019,0.050899,0.055256,0.44386,0.32729
-0.0020487,0.098985,0.097313,0.092674,0.033412,0.034815,-0.27611,0.028699
0.2409,0.10441,0.056387,-0.11759,-0.023763,-0.0095971,0.15114,-0.12339
0.044211,0.17831,-0.016085,0.14235,0.036312,0.087233,0.070218,0.10593
-0.1874,-0.48173,-0.057561,-0.049913,-0.059183,-0.040992,-0.13454,0.021766
0.035787,0.017412,0.064747,0.039179,0.002622,0.020254,0.27315,0.015101
0.11697,0.35794,-0.1726,-0.075754,0.096746,0.075658,0.10787,0.031554
-0.24386,-0.57526,0.035158,0.065264,0.043149,-0.078302,-0.49541,-0.28008
0.19288,0.25814,0.031934,-0.015038,-0.057243,-0.090704,-0.10493,-0.036519
0.18349,0.29567,-0.025843,-0.17633,-0.072369,-0.087273,0.27343,0.25496
-0.23298,-0.034336,0.15881,0.1597,-0.0028919,0.1813,0.10998,0.024594
-0.21894,0.077952,-0.18758,-0.076596,-0.028888,-0.082435,-0.094235,-0.10217
0.18966,-0.011618,0.23167,0.092339,0.068393,0.089818,0.22369,0.22649
-0.34685,-0.33025,-0.18525,0.027086,0.062808,0.072757,-0.21782,-0.34099
0.37886,-0.021855,0.21769,-0.013299,-0.0683,-0.079064,0.0021764,0.22644
0.29213,0.16913,-0.15323,0.034823,-0.042664,-0.13119,-0.02403,-0.0013348
-0.53487,-0.34412,-0.19612,-0.21043,0.039236,0.088596,-0.26698,-0.31397
0.0070598,0.39981,0.089652,0.14217,0.0064713,0.049662,0.21666,0.014314
0.26718,0.11343,-0.052932,-0.047799,-0.015327,-0.11432,0.0030268,0.13875
0.62438,-0.044707,0.16589,-0.07749,-0.11194,0.074224,0.69189,0.48784
-0.48069,-0.26733,-0.0035374,0.1304,0.17719,0.0304,-0.35868,-0.2209
-0.067909,0.073035,0.032323,0.035489,0.054269,-0.04956,-0.53204,-0.21507
-0.53067,-0.12312,0.12426,0.14394,0.025843,0.15531,0.070736,-0.026442
0.13047,0.25499,-0.13514,-0.061616,-0.1517,-0.23754,-0.11917,-0.17039
0.20636,0.2549,-0.083073,-0.30924,-0.073398,0.013843,0.34581,0.26827
-0.11193,-0.5063,-0.033051,0.11103,0.017659,0.033694,0.077532,-0.12264
0.078433,0.15819,0.0066466,0.066151,0.12891,0.0785,-0.031246,0.018551
0.039262,-0.0027286,0.028394,-0.091804,-0.059797,0.09178,-0.15893,0.030073
0.37473,0.025276,0.048596,0.15389,-0.055637,-0.13167,0.34307,0.17938
-0.02391,-0.0012306,-0.040974,-0.031318,0.071968,-0.015806,-0.27621,-0.087176
-0.24394,-0.020813,-0.028167,-0.15386,-0.066651,0.031398,-0.16698,-0.1523
0.204,-0.049879,0.056712,0.15449,0.17777,0.28237,0.35611,0.17073
-0.51947,0.10643,0.042224,0.0035546,-0.084845,-0.41912,-0.16987,-0.14304
0.11373,-0.059825,-0.079637,-0.11464,-0.10425,0.060883,0.19906,0.18577
0.2108,0.045312,0.049738,0.15855,-0.021112,-0.13477,-0.25626,-0.13388
-0.19004,0.023903,0.20265,0.16581,0.23461,0.30162,-0.24612,-0.14283
0.10698,0.056398,-0.16895,-0.28921,-0.079619,0.037371,0.19971,0.13415
0.19705,-0.12186,-0.050335,0.011517,-0.12037,-0.29954,0.098793,0.086812
-0.50388,-0.30668,-0.23872,-0.11182,-0.059703,-0.0038554,-0.0079577,-0.18361
0.24035,0.22169,0.086537,0.028825,0.063281,0.089369,-0.009877,0.065172
0.57167,0.41715,0.29349,0.14551,0.10028,0.43277,0.32784,0.28678
-0.50155,-0.36053,-0.1245,0.059962,0.04374,-0.17847,-0.06557,-0.17421
0.083129,0.18544,-0.064691,-0.17177,-0.066995,0.042218,-0.36308,-0.1058
-0.065392,-0.23452,-0.034061,0.013827,-0.091012,-0.29841,0.019895,-0.076963
0.13047,-0.011885,0.27242,0.2031,0.0031651,-0.21036,-0.0037873,0.062145
-0.079644,0.15699,-0.18453,-0.080741,0.13754,0.34412,0.12759,0.10978
-0.39111,0.021014,0.14914,0.067744,-0.10976,-0.28377,-0.13313,-0.15951
0.0086464,-0.18651,-0.28219,-0.22763,0.026741,0.21105,0.19858,0.16895
0.3695,-0.0055881,0.067449,0.039625,0.0076391,0.094936,-0.19725,-0.092349
-0.10603,0.11768,0.0176,0.040163,-0.0034812,-0.11591,0.093838,0.01682
0.40103,0.32334,0.028693,-0.047305,0.00060173,0.063001,0.11895,0.12018
0.099799,-0.37328,0.022348,0.11252,0.042707,0.29528,0.27661,0.091138
-0.23818,-0.026834,0.0063138,0.066213,-0.057395,-0.2715,-0.38631,-0.13443
-0.17662,0.097485,-0.0037437,-0.13931,0.03588,-0.052294,-0.28387,-0.29219
-0.29347,-0.16361,-0.046798,0.027518,0.049023,0.069591,0.084064,0.023351
-0.14156,0.1362,0.1429,0.051675,-0.11927,-0.29622,0.053635,0.11673
0.47791,0.11514,-0.05166,-0.08949,0.047214,0.29668,0.42975,0.30082
-0.07125,-0.18688,-0.12237,0.026804,-0.083552,-0.21241,-0.06095,-0.12681
-0.13615,-0.13659,-0.029704,-0.05167,0.0049195,-0.032395,-0.067014,-0.024672
0.36475,0.2504,0.14882,0.066474,0.13366,0.21351,-0.40906,-0.16538
-0.31698,0.28622,-0.10949,-0.040142,-0.056268,-0.0049499,0.021864,-0.040407
0.27108,-0.13119,0.11801,0.16771,0.17735,0.46056,0.35034,0.28051
0.0010523,-0.2209,-0.042948,-0.11481,-0.23614,-0.68803,-0.0021092,-0.12412
0.055962,-0.0061161,-0.02933,0.080635,0.09333,0.086305,0.081447,0.058428
-0.42096,-0.24368,-0.012708,-0.1605,-0.030187,0.24998,-0.41469,-0.20303
0.27629,0.2165,0.069422,0.028526,0.033449,0.06652,0.18151,0.14615
-0.12165,-0.061076,-0.087941,-0.00099509,-0.059725,-0.19977,0.1673,0.035522
-0.14024,0.25357,0.061453,0.071173,-0.10649,-0.24445,-0.11295,-0.011671
-0.021713,-0.11966,-0.13173,-0.051763,0.16694,0.15208,-0.12717,-0.16754
0.24342,0.069219,0.19079,-0.041539,-0.12183,-0.1413,0.17238,0.12235
0.2128,-0.0092465,0.035654,0.10974,0.18379,0.41654,0.0052875,0.13118
-0.13338,-0.092002,-0.16077,-0.05113,-0.056732,-0.094396,-0.16689,-0.12567
-0.3149,-0.026233,0.038138,0.030293,-0.02329,-0.12603,0.17174,-0.015535
-0.00046721,-0.026616,-0.016598,-0.0057716,-0.067943,0.1188,-0.19774,-0.015013
0.43724,0.3097,0.11247,0.12147,0.12116,-0.008999,0.10681,0.040075
-0.38334,-0.15251,-0.15234,-0.24459,-0.058149,-0.15138,0.1077,0.017196
0.28798,-0.11734,-0.013308,0.098992,0.01872,0.13541,0.0066475,-0.036372
0.059824,-0.044944,0.030726,-0.1055,-0.077948,0.014105,-0.057146,-0.034232
-0.116,-0.0031652,0.082572,0.1032,0.042874,-0.0081283,0.21987,0.14123
-0.33482,-0.11323,0.026218,-0.032189,-0.047696,0.092471,-0.45192,-0.15816
0.19093,0.19177,-0.012382,0.16075,0.042027,-0.5734,0.029279,-0.033947
-0.11034,0.072359,0.053376,0.0028514,0.039716,0.22292,0.086345,0.060443
0.18227,-0.093178,-0.20583,-0.2477,-0.12403,0.21821,0.09582,0.11655
0.1617,0.087542,0.085067,0.12025,0.16848,0.21147,0.16099,0.1178
-0.10246,-0.041801,-0.066299,-0.096356,-0.028088,-0.046012,-0.14638,-0.18686
-0.15778,0.063859,0.073993,0.13361,-0.13621,-0.39006,-0.24732,-0.13439
0.15133,-0.036105,-0.033831,0.028622,0.21025,0.17811,0.1003,0.016617
-0.089741,0.15451,0.17959,-0.021099,-0.0056345,-0.031368,0.20802,0.086125
0.040565,-0.20399,-0.060298,-0.047313,-0.20708,0.16588,0.11321,0.12892
0.042195,-0.16153,-0.074917,-0.097428,0.097021,0.14147,0.1263,0.0049128
-0.24867,-0.087209,-0.0058302,0.14056,-0.078414,-0.30287,-0.39518,-0.19903
0.11374,0.080769,-0.056744,-0.04466,-0.022662,-0.028539,0.039851,0.026035
0.27064,0.24126,0.06911,0.065416,0.19418,0.14349,-0.19359,0.017273
-0.26182,-0.0029422,-0.026331,-0.060513,-0.09925,-0.24686,0.061963,0.017963
0.11836,0.45921,0.040509,0.0073721,0.058677,0.21669,0.11338,0.091397
-0.072952,-0.4329,-0.08097,-0.090005,-0.12041,-0.18152,-0.0055389,-0.074563
-0.17941,-0.6383,-0.038259,0.046217,0.035976,0.11657,0.16845,0.035584
0.38497,0.39948,0.16155,0.10402,0.083,0.0279,-0.058534,-0.01622
0.018785,0.14288,0.042251,-0.080194,-0.072734,0.030927,-0.1316,0.003545
-0.17602,0.11634,-0.036817,0.11899,0.11592,0.14961,0.40912,0.070478
-0.14398,0.062437,-0.11507,-0.12626,-0.046073,-0.077835,-0.32129,-0.097549
0.0066458,-0.1519,0.041358,-0.026663,-0.10529,-0.020531,-0.13017,-0.10273
-0.097731,-0.11337,0.01013,-0.027444,-0.0066803,-0.079438,-0.059246,0.023345
0.23959,0.16917,0.017534,0.066688,-0.08582,-0.21804,0.076825,0.093167
0.011875,-0.070836,-0.030178,0.099334,0.11065,0.13191,0.27678,0.044439
0.055538,0.041006,-0.031188,-0.046969,0.17645,0.21918,-0.022047,0.025938
0.065646,-0.12821,-0.078846,-0.10698,-0.13098,-0.14405,-0.045221,0.077133
-0.14623,-0.20308,0.045979,0.05948,0.03918,0.011591,-0.34541,-0.28592
0.098157,0.39526,0.1716,-0.016774,0.045348,0.031184,-0.013621,0.054417
-0.38254,0.0035361,-0.045821,-0.031411,-0.17597,-0.16161,0.20322,0.11423
0.1053,-0.1668,0.15114,0.18724,0.10099,0.31016,0.36264,0.026758
0.15386,-0.092318,-0.26928,-0.14205,-0.077274,-0.24704,-0.38479,-0.13735
0.089882,0.32792,0.059594,0.066914,0.070566,-0.027189,0.047887,0.098627
0.0059187,-0.1808,-0.096859,-0.115,-0.056494,0.07196,-0.0583,-0.046616
-0.10677,-0.073285,0.05051,-0.038616,0.026802,0.081573,0.25613,0.098475
0.11846,0.17207,0.049006,0.070316,0.055828,-0.038248,-0.21437,-0.091661
0.064438,-0.071361,0.016472,-0.021882,-0.06228,0.070438,-0.0040501,0.0072432
-0.23689,-0.15618,0.031728,0.10704,0.0011661,-0.15662,-0.022224,-0.019674
-0.088734,0.17518,-0.053131,0.0038702,0.043149,0.20856,0.23625,0.12373
-0.035893,0.017165,-0.026955,-0.1211,-0.03828,-0.11658,-0.08982,-0.10216
0.088125,-0.15995,0.024126,0.05135,0.068573,-0.10144,-0.1574,-0.025679
0.3638,0.013203,0.0057707,0.027633,0.018899,0.043194,0.057456,0.11893
-0.22263,-0.039102,0.09677,0.1579,-0.024315,-0.1193,-0.27961,-0.20687
0.072096,0.28692,-0.086713,-0.28555,-0.069731,-0.017265,0.23993,0.10711
-0.1425,-0.23373,-0.014365,0.040434,-0.086526,0.28044,0.27487,0.077457
-0.12498,-0.030089,0.11006,0.18282,0.073833,0.064089,-0.13352,-0.12298
0.30284,0.2411,-0.14327,-0.24039,0.083806,-0.06402,-0.21028,0.092492
-0.17352,-0.14044,-0.055249,0.069099,-0.055664,-0.08811,0.092045,-0.017861
-0.10313,-0.06762,-0.0078368,0.019238,-0.0075445,-0.20385,0.077749,-0.055559
0.30877,0.23819,0.11726,0.010157,-0.0051875,0.17403,0.18317,0.15094
-0.30679,-0.20202,-0.022577,0.090045,0.05373,0.0056428,-0.35895,-0.22712
0.43962,-0.046224,0.05794,-0.037284,0.044581,0.071488,0.16849,0.30949
-0.2962,0.26739,0.09371,-0.043756,-0.16551,-0.0040124,-0.01709,-0.15404
-0.35766,-0.49495,-0.14955,0.046453,0.13395,-0.11962,-0.11171,-0.22769
0.3657,0.30913,-0.00023427,0.0055521,-0.010902,0.021493,0.048719,0.12728
-0.17919,-0.20837,-0.036939,-0.027255,-0.11658,-0.18988,-0.035078,0.028025
0.4392,0.4243,0.075754,0.1108,0.13636,0.38719,0.15371,0.20909
-0.22266,-0.086902,-0.084465,-0.20618,-0.026203,-0.067274,-0.047614,-0.13391
-0.030497,-0.27893,0.036802,-0.06446,-0.081245,-0.10766,0.010617,-0.016223
-0.04582,-0.025768,0.048773,0.090858,0.072738,0.024056,-0.17858,-0.13284
-0.080652,0.18013,-0.07207,0.080733,-0.0092556,-0.062637,0.2288,0.078955
-0.025662,-0.076842,0.041369,0.0075645,0.0015176,0.038576,-0.16605,-0.044834
0.1655,0.26322,-0.048577,-0.034116,-0.011307,-0.0082336,0.065635,0.081574
0.11691,0.12683,0.18125,0.089053,-0.13279,0.07032,0.17259,0.09062
-0.15698,-0.25478,-0.12887,-0.021136,0.14563,-0.21808,-0.049659,0.020842
0.12382,-0.33724,-0.057429,-0.11474,0.051023,0.18102,-0.19591,-0.097051
-0.18241,-0.090693,0.075013,0.018938,-0.104,0.072012,0.14738,0.002178
0.0016926,0.51602,0.041847,0.074901,0.1725,0.079573,-0.19926,-0.11124
-0.066398,-0.2816,-0.11764,-0.095545,-0.096597,-0.1012,-0.039612,-0.077619
0.18374,0.25279,0.018936,0.030889,-0.13077,-0.23594,0.19024,0.20523
-0.052178,-0.13626,-0.01649,0.040097,0.077071,0.081881,0.069972,-0.027503
-0.25795,0.05353,0.058098,-0.028833,0.010722,0.04814,-0.031885,-0.040622
0.58259,-0.11353,0.071486,-0.027437,0.0057716,0.077609,-0.083297,0.18212
-0.24885,0.16841,-0.13998,0.067688,0.030877,-0.0087179,0.10328,-0.15583
-0.07224,-0.12372,0.087816,-0.0092086,-0.054457,-0.038503,-0.12131,0.015841
-0.10606,-0.091798,-0.097046,-0.023964,0.04693,0.050855,-0.024096,-0.068733
-0.092199,-0.025799,0.17973,0.1013,-0.07868,-0.10814,0.049379,-0.042786
0.36029,0.39331,-0.098398,-0.21958,0.037782,0.15572,0.18314,0.2182
-0.092027,-0.1093,0.036337,0.2086,0.084033,-0.025647,-0.069773,-0.075307
-0.15986,-0.32395,-0.12,-0.14534,-0.072663,-0.13756,0.0005015,-0.040884
-0.061994,0.1235,0.041502,7.3971e-05,0.036385,0.092631,-0.26254,-0.13977
-0.033167,-0.025063,0.10677,0.12176,-0.034291,-0.023072,0.0089334,0.10437
0.34771,0.090022,-0.095573,-0.084528,0.01981,-0.03166,0.050689,0.035146
0.056038,0.21958,0.013533,-0.0011925,-0.059274,0.012427,0.25521,0.15243
-0.19856,-0.36957,-0.06469,0.028346,0.048701,0.023779,-0.086514,-0.15323
0.074908,0.12857,0.10856,0.066771,-0.015605,0.042122,-0.097898,-0.014689
-0.25714,0.012026,-0.067144,-0.12026,0.0057407,-0.088153,0.042354,-0.010005
0.10212,-0.20285,0.018322,0.076498,0.019165,0.047499,-0.024882,-0.0061617
-0.057546,0.10897,-0.025472,-0.085354,-0.022018,-0.01944,0.067153,-0.0028208
0.0073852,0.24358,0.12918,0.097017,0.030804,0.0078718,0.12224,0.06295
0.19701,-0.03496,-0.049928,-0.048575,-0.025356,0.10576,-0.2279,-0.058404
-0.13551,-0.025605,-0.025088,-0.014614,0.0049128,-0.077637,0.031408,-0.0071345
0.050084,-0.011779,-0.008704,0.018952,-0.018941,0.043399,0.094911,0.099801
0.12939,0.043849,0.013534,0.059729,0.090635,-0.038899,-0.17805,-0.042231
-0.01484,-0.36736,-0.068679,-0.10336,-0.11944,-0.10539,0.095808,0.0276
-0.21128,0.083049,-0.013554,0.068662,0.04614,0.00089142,-0.012446,-0.08155
0.023619,0.13878,0.02281,-0.041396,-0.053284,-0.070724,-0.10359,-0.06525
-0.076614,-0.0181,0.080094,0.027444,0.0040092,0.22747,0.10412,0.052832
0.27646,0.12296,-0.067345,-0.06067,0.045865,-0.11181,0.1341,0.14755
-0.12837,-0.09952,0.011208,0.03813,0.087497,0.23957,0.040428,-0.085834
0.076187,0.0038702,0.12141,0.14431,-0.012212,-0.133,0.040791,0.07154
-0.085948,0.035645,-0.1422,-0.12473,-0.0506,-0.089938,-0.07697,-0.059793
-0.16096,0.01914,0.025616,-0.089041,-0.074838,-0.10129,-0.36858,-0.21388
0.078433,0.039269,0.03144,0.12674,0.086937,0.14413,0.048211,0.054928
0.046816,-0.0071809,0.0082014,-0.055092,-0.080562,0.027979,0.26716,0.20779
0.15835,-0.12211,-0.059773,-0.009087,-0.022,-0.20051,-0.12525,-0.083441
-0.11866,0.11454,-0.0086109,-0.00049485,0.060332,0.27079,0.12181,0.05588
0.04293,-0.22835,-0.010515,-0.029108,-0.043678,-0.1987,0.095154,0.12509
0.18087,-0.034628,0.098098,0.11596,0.13534,0.16488,-0.11073,-0.16574
-0.34685,0.062243,-0.10528,-0.10473,-0.042992,-0.08309,-0.15162,-0.12212
-0.002313,0.16338,0.097318,0.11285,-0.039783,-0.012043,0.26172,0.083426
0.10448,0.33872,0.087857,-0.044691,-0.019667,-0.0038426,-0.24574,-0.0024774
0.10636,-0.1933,-0.21262,-0.054853,0.032145,-0.010716,0.052393,0.010934
-0.207,-0.3078,0.054617,0.011221,0.020995,-0.016312,0.054282,0.022602
0.079548,0.15172,0.037634,0.035801,-0.0539,-0.051437,-0.045074,0.0020169
0.092313,-0.032679,0.048972,0.0031295,0.049166,0.18088,0.11336,0.043767
-0.011172,-0.27371,-0.082775,-0.055216,-0.037064,-0.014931,-0.087942,-0.0076049
0.0045006,0.28192,0.026069,0.025569,-0.02316,-0.037812,-0.00084069,-0.096761
-0.055359,0.018755,-0.045228,-0.058169,0.0056674,0.025688,0.046336,0.034549
0.082809,-0.061893,0.056139,0.1322,0.019096,-0.098398,0.0066661,0.01933
-0.30015,0.087372,-0.098389,-0.19919,-0.060086,-0.027549,-0.033762,-0.001854
0.17768,0.036433,0.054489,0.16707,0.073485,0.011678,0.011344,0.072264
0.23372,0.002747,0.077591,0.035881,0.03726,-0.058579,-0.14658,-0.063493
-0.14929,0.047005,0.048811,-0.030577,0.04194,0.15269,0.039883,-0.050367
-0.19181,-0.027927,-0.040377,-0.072132,-0.14755,-0.07292,0.11021,-0.021849
0.29994,-0.18427,-0.050369,0.082048,0.092748,0.20225,0.064568,0.10734
-0.17513,0.022937,0.017754,-0.061331,-0.0039248,-0.11564,0.0043543,-0.0071082
0.11705,-0.16333,-0.11035,0.028038,-0.024523,-0.1206,-0.17247,-0.053105
-0.049462,0.24305,0.096036,-0.041076,0.069343,0.14011,0.18186,0.094181
-0.11834,-0.021204,-0.089771,-0.10479,-0.22252,-0.28698,-0.097388,-0.065141
-0.001134,-0.094348,0.082506,0.20431,0.13927,0.23071,0.012723,-0.04628
0.11774,0.22859,0.027453,-0.097562,0.014843,0.11496,-0.073929,-0.012617
-0.23512,-0.20772,0.011302,0.045025,-0.032298,-0.19672,0.010008,0.021078
0.31017,0.36997,-0.012294,-0.023381,0.053606,0.014481,-0.078773,0.032242
-0.15094,-0.32078,-0.074254,0.010418,0.023477,0.053305,0.10562,-0.033092
0.061558,-0.055306,0.067684,0.014121,-0.012676,-0.033385,0.21996,0.10673
0.03239,0.14862,-0.094466,-0.10575,-0.10927,0.1059,-0.21197,-0.12641
-0.0066701,-0.14848,0.16548,0.15085,0.10861,-0.013337,0.020871,0.03269
0.018902,0.091036,-0.027965,-0.060008,-0.062528,-0.086487,0.043393,0.10673
0.07385,0.030502,-0.081548,-0.043324,0.033003,0.058347,0.089758,0.047914
-0.18933,-0.080081,-0.04254,0.052066,0.050845,-0.20365,-0.38713,-0.2462
-0.03913,-0.037036,0.018524,-0.024246,-0.025171,0.1982,0.2063,0.067469
-0.14119,0.043284,0.05475,0.0086396,-0.054792,-0.0090575,-0.020719,-0.066117
0.16852,-0.11175,-0.043063,-0.068279,-0.069411,-0.028022,0.025411,0.079633
0.31332,0.22493,0.10822,0.1355,0.11856,0.055826,0.21166,0.10662
-0.26658,0.076885,-0.0769,-0.04407,-0.037525,-0.0072183,-0.087237,-0.023649
0.23715,-0.063937,0.0036324,-0.059974,0.0095293,-0.053017,0.058163,0.017639
-0.20263,0.075567,-0.0090079,0.0099111,-0.0056479,-0.13644,-0.28971,-0.11254
-0.36309,-0.12191,0.018556,0.017457,0.018631,0.13268,0.0021762,-0.077555
0.23581,-0.12471,0.016552,0.072353,0.066694,0.081812,0.17656,0.18568
0.033853,-0.11155,-0.084881,-0.082962,-0.080408,-0.086763,-0.10167,-0.080262
0.10975,-0.14347,-0.00423,-0.0030615,-0.024535,0.1105,0.11368,-0.03151
0.048018,0.31225,-0.0071419,-0.063029,0.015251,0.0088763,-0.098494,-0.012045
0.048415,0.10034,0.10912,0.02588,-0.031614,-0.04814,0.19191,0.11035
-0.081394,0.072414,-0.046851,0.1225,0.053482,-0.18527,-0.22611,-0.040233
0.18435,0.07894,0.11762,0.015192,0.051797,0.08271,0.076577,0.042938
-0.18293,-0.10095,0.046613,0.10952,-0.083391,-0.055373,0.091191,0.046309
-0.16355,-0.16526,-0.22972,-0.25129,0.023204,0.073862,-0.050666,-0.14029
0.061156,-0.15572,-0.024622,-0.05174,-0.0030292,0.065503,-0.11585,-0.032825
-0.22679,0.20692,0.099177,0.060058,-0.01321,0.0063142,0.08995,0.001748
0.20217,-0.078293,-0.14703,0.014574,0.032161,0.036994,0.081754,0.05795
0.10264,0.082722,0.13601,0.016014,-0.085308,-0.1479,-0.14049,-0.0036748
0.08921,0.011805,0.097818,0.0030156,0.079905,0.1377,0.079991,0.091635
-0.21605,0.0082742,-0.088626,0.14058,0.051257,0.0090884,-0.16984,-0.18616
0.18265,-0.13588,-0.0083495,-0.15668,-0.062071,0.003419,0.22859,0.17942
-0.1504,0.019733,0.097045,0.072229,-0.033893,-0.24809,-0.051351,-0.076927
0.13611,0.14159,-0.10035,0.014378,0.072792,0.15204,-0.10206,-0.057009
-0.069327,-0.1204,-0.085046,-0.10445,-0.055057,0.039589,-0.00069338,0.066514
0.19076,0.093519,0.072269,0.01945,0.035184,0.063616,0.2766,0.23
-0.087689,0.12627,0.011678,-0.013348,-0.078746,-0.26681,-0.39544,-0.33346
-0.26001,-0.20361,0.099794,0.14007,0.079483,0.19836,0.1854,0.062521
0.25696,0.015565,-0.046695,-0.044287,0.0019941,-0.015816,0.1427,0.065601
-0.10053,0.070317,-0.021858,-0.043167,-0.014251,-0.048629,-0.23621,-0.12916
-0.18361,0.15375,-0.021078,-0.090757,-0.054987,0.085112,0.22663,0.15819
0.0095742,-0.3841,-0.13792,0.040017,0.028496,0.026243,-0.11082,-0.095089
0.12237,0.042042,0.088932,0.037364,0.017743,0.071309,0.078737,0.041596
-0.014218,0.072972,0.027091,-0.0042321,0.045845,-0.13974,-0.30631,-0.11835
0.16464,-0.056107,0.044074,0.0252,0.0036723,0.040787,0.11754,0.11326
0.02739,0.31222,0.05404,0.063486,-0.053869,-0.20803,0.031295,0.064866
0.19911,0.038537,-0.036932,-0.12374,-0.048451,0.043207,0.17874,0.095741
-0.31337,-0.23552,0.083275,0.15858,0.043561,0.1539,-0.15731,-0.13827
