0.024629,-0.082909,-0.2754,-0.042924,0.00072486,-0.0033041,-0.022992,-0.29574
-0.050522,0.050701,0.042663,-0.003329,-0.016117,-0.010305,-0.075331,0.50239
-0.033833,-0.020364,0.013444,0.020481,0.0068975,-0.055718,-0.11116,-0.4633
0.1448,0.22866,0.31776,0.083247,0.02308,0.055752,0.22895,0.096507
-0.17059,-0.41934,-0.56593,-0.1508,-0.084634,-0.082195,-0.16439,0.026707
0.18483,0.24048,0.30218,0.1233,0.10566,0.25691,0.31802,0.23542
-0.2644,0.0063914,-0.083476,-0.062925,-0.038937,-0.22394,-0.44916,-0.68919
0.037578,-0.2302,-0.13536,-0.06859,-0.049899,0.029755,0.18198,0.56751
0.083908,0.17902,0.23295,0.067349,0.041151,-0.013472,0.093535,0.33532
0.023392,0.1782,0.12207,0.047907,0.022778,-0.01796,-0.15282,-0.74426
-0.0037701,-0.21909,0.021877,-0.049162,-0.035295,-0.030918,-0.057986,0.57102
0.048038,0.11731,-0.14123,0.056787,0.038203,0.22069,0.51788,-0.45393
0.14568,0.58322,0.33229,0.044693,0.031803,-0.15422,-0.44917,0.25007
-0.06451,-0.74527,-0.59185,-0.11743,-0.062656,0.0080017,0.079898,0.34594
-0.037395,-0.21273,0.15492,0.015166,-0.018692,-0.011715,-0.097417,-0.22181
-0.21914,0.13454,0.072615,0.012578,0.031122,0.08345,-0.050045,-0.68763
0.054736,0.064015,-0.21977,-0.015632,-0.045476,-0.081209,0.42721,0.73818
-0.09683,-0.13266,0.10907,-0.029806,0.017925,0.002825,-0.46779,-0.56815
0.1571,0.1877,0.063037,0.041264,0.042539,-0.038361,0.15826,0.19939
0.085472,0.66755,0.11457,0.011109,-0.0098338,0.077825,0.16712,0.42448
-0.12112,-0.50503,0.11798,0.013514,-0.013515,-0.084727,-0.42398,-0.19769
-0.0073832,0.036416,-0.050438,0.010147,0.016258,-0.017037,0.27601,-0.26228
0.0055653,-0.20993,-0.20353,-0.061134,-0.022046,0.062824,-0.05429,0.36092
0.2215,-0.19176,0.12568,0.049599,0.035315,0.029846,0.26218,-0.011179
-0.08857,0.018174,-0.18273,-0.040956,-0.031029,0.086365,-0.052025,0.11012
0.11098,0.17568,0.14156,0.025764,-0.057839,-0.25348,-0.36899,-0.30134
-0.13671,0.40452,0.033164,0.045642,0.11806,0.36774,0.54056,-0.20772
-0.14736,0.15766,0.2947,0.009881,-0.019794,-0.13015,-0.58569,0.29792
0.092683,-0.47012,-0.44977,-0.043247,-0.00325,-0.10829,0.39752,-0.28177
-0.15913,-0.31243,-0.2546,-0.082934,-0.05917,-0.091216,-0.011061,-0.075461
0.082892,0.0091406,0.33483,0.062692,-0.0077815,-0.032341,-0.2949,0.2889
0.040139,0.108,-0.15581,-0.0747,-0.020507,-0.0092158,-0.083843,0.52687
0.083125,0.36305,0.43997,0.1072,0.07527,0.26066,0.22048,-0.68611
-0.1052,-0.2775,-0.11785,0.0077501,0.0070075,0.052348,0.23298,0.34716
0.15734,0.1094,-0.077847,-0.044047,-0.044725,-0.21837,-0.28284,-0.21711
-0.10465,-0.055407,-0.17384,0.022825,0.045793,0.15317,0.13895,-0.052712
-0.016511,0.27179,0.17982,0.0056401,-0.041319,-0.18341,-0.19325,-0.092773
0.068392,-0.06221,-0.15843,-0.040856,-0.0012863,0.014836,0.2148,0.25197
0.084704,0.069936,0.06008,0.023696,0.024993,0.11537,0.24623,-0.031214
-0.13494,-0.34458,0.15428,0.0034763,-0.041183,-0.17885,-0.54553,0.30306
0.14078,-0.012325,-0.064539,0.038474,0.080653,0.29564,0.173,-0.33479
-0.14492,0.010853,-0.019085,-0.012572,0.0068461,-0.11049,0.00024582,-0.30613
-0.10214,0.10137,-0.14719,-0.064239,-0.068043,-0.015458,0.3001,0.52974
0.12155,-0.18238,0.035641,0.00035138,-0.019527,-0.15468,-0.3289,-0.22334
-0.26846,-0.18677,-0.16544,-0.021996,0.01159,0.080368,-0.13129,-0.20959
0.24661,0.85172,0.47671,0.095428,0.017682,0.11099,0.37579,0.25621
0.045163,-0.35091,-0.17027,-0.022079,-0.016372,-0.086492,-0.2302,-0.18719
-0.057446,-0.30669,-0.082742,-0.014779,0.011699,-0.090149,-0.10539,-0.27668
0.13587,0.1812,0.075111,0.0082995,0.0010926,0.29561,0.56333,0.70231
-0.015166,-0.036395,-0.1033,-0.038513,-0.000652,-0.30381,-0.58259,0.12608
-0.066262,0.18625,0.061299,0.024624,0.022527,0.057309,-0.10494,-0.39736
0.042979,0.079317,-0.040746,0.0024273,-0.0073553,0.12144,0.29349,-0.098434
-0.018212,-0.54961,-0.018821,0.035443,0.03454,-0.10348,0.19064,-0.31874
-0.15088,0.66963,0.21337,-0.032733,-0.063132,-0.0081882,-0.17983,0.5211
0.07261,-0.42321,-0.21066,0.00084568,0.027203,0.16482,0.21227,0.28192
0.010424,-0.23701,-0.10244,-0.012422,-0.015345,-0.13957,-0.32155,-0.34602
-0.13457,0.3444,0.10932,-0.0023337,-0.0037654,8.2726e-05,0.26505,0.0016403
0.10691,-0.34249,-0.082391,-0.023627,0.014741,0.099126,-0.23072,-0.073521
0.14998,0.54008,0.25245,0.06432,-0.0068233,-0.13151,-0.12004,-0.1701
-0.11353,0.15113,-0.0974,-0.019729,0.0097373,0.16007,0.1931,-0.16542
0.0049346,-0.31081,-0.070367,-0.057028,-0.052546,-0.29892,-0.312,0.25215
0.16236,-0.13928,0.25397,0.10081,0.064437,0.11736,0.23451,0.0037904
-0.22684,-0.28434,-0.29012,-0.05413,0.0016055,0.12075,0.1705,0.13438
0.048254,0.11582,0.030183,0.0014405,-0.022062,-0.06935,0.15295,0.26447
0.065557,0.2501,-0.098738,-0.037329,-0.029892,0.039597,-0.17817,-0.082208
-0.081498,0.35296,0.2133,0.063793,0.064042,0.11938,0.0034059,-0.3693
-0.11978,-0.49877,0.021291,3.7109e-05,-0.013822,-0.072633,-0.094002,0.14811
0.16142,0.1611,-0.34566,-0.056711,-0.005859,-0.037085,0.0034004,0.026237
0.090102,0.41526,0.48108,0.06554,-0.0060163,-0.032451,0.090111,0.29015
-0.075907,-0.60679,-0.34837,-0.070485,-0.045699,-0.19989,-0.45268,-0.27588
0.015156,0.37356,0.058147,0.012074,0.031265,0.14774,0.35083,-0.057164
-0.097195,-0.59043,0.029909,0.016666,-0.0016824,0.018016,-0.10099,-0.51436
0.18155,0.087135,0.083061,0.02952,0.027406,0.1451,0.2469,0.4882
-0.085044,0.2356,-0.10292,-0.042917,-0.037611,-0.11198,-0.066,-0.16199
-0.11441,0.19287,0.24453,0.049422,0.045568,0.15258,0.19509,0.48581
-0.069254,-0.070185,-0.27443,-0.052905,-0.051075,-0.14769,-0.12578,-0.32121
0.059341,0.26847,0.14333,0.040548,0.063184,-0.1538,-0.59067,0.045469
-0.032775,-0.51676,-0.027088,0.02486,-0.0021658,0.2123,0.63708,-0.10011
0.27907,-0.081996,-0.27106,-0.076759,-0.067285,0.099541,-0.10534,0.40558
0.048268,0.53314,0.22356,0.024602,0.024286,-0.15505,-0.11295,-0.0099461
-0.20394,-0.3442,0.050851,0.00077734,-0.0084439,-0.049771,0.085346,-0.31073
0.043152,0.37098,0.32899,0.078413,0.045741,-0.027865,0.023407,0.12506
-0.049205,-0.54066,-0.67494,-0.14075,-0.062928,-0.095043,-0.13226,-0.31451
-0.05369,0.28034,0.21263,0.046638,0.0015912,0.047214,-0.20017,-0.31081
0.012569,0.014567,-0.037972,-0.0076826,-0.0029788,0.15744,0.12494,0.18998
-0.093026,-0.21135,0.12135,0.032302,0.071471,0.11791,0.045126,0.16381
0.19273,0.33897,0.21456,0.08057,0.0056358,-0.01859,0.4169,0.4848
-0.026944,-0.31688,-0.078871,-0.02718,0.033186,0.049627,-0.0064366,0.39365
-0.015397,-0.19321,-0.13492,-0.08036,-0.096606,-0.3373,-0.41787,-0.56483
0.042436,0.2961,-0.10349,-0.024652,-0.024959,0.098342,0.13806,-0.1193
-0.030662,0.26699,0.13091,0.053709,0.029059,0.033499,-0.17114,-0.46649
-0.15451,-0.16595,-0.20672,-0.025116,0.026426,0.14644,0.5821,0.22167
0.086337,0.189,0.32775,0.074849,0.014431,-0.10163,-0.62484,-0.053077
0.036168,-0.039042,0.046237,-0.028981,-0.045265,-0.11504,-0.022373,0.52526
0.054001,-0.18891,-0.23088,-0.047163,0.0044968,0.054898,0.20869,-0.17129
0.044928,-0.074271,-0.057552,-0.010477,-0.030673,-0.17352,-0.2826,0.14411
-0.14902,-0.21751,-0.08099,-0.020015,0.029683,0.15724,0.10619,-0.43698
0.24368,0.0096598,0.044066,0.065224,0.076659,0.34007,0.35889,0.34818
-0.20839,0.10435,0.28786,0.034503,-0.038099,-0.36468,-0.35606,-0.47337
0.063918,0.15799,-0.028071,-0.02626,-0.0024017,0.10637,0.21955,0.08444
-0.088212,0.073866,0.20642,0.046766,0.0034322,-0.068071,0.12872,0.26314
-0.18783,0.097253,-0.55526,-0.11399,-0.052668,0.039025,-0.12845,0.12992
0.047264,-0.11498,0.1321,0.022272,0.015947,0.08783,0.40648,0.14035
0.21979,-0.18206,-0.013213,0.0020004,0.01323,-0.01992,-0.46515,0.045271
0.057248,0.24331,0.04713,0.035806,0.0089908,-0.046447,-0.018981,-0.37381
0.16945,0.14759,0.19496,0.037561,0.034267,0.059326,0.050284,-0.48331
-0.11563,-0.35026,-0.12566,-0.063095,-0.07492,-0.22049,-0.34646,0.60971
-0.22832,0.1195,-0.025493,-0.023885,-0.0057325,0.15258,0.19826,-0.019847
-0.0053808,-0.079477,0.0096035,0.030371,0.031386,-0.15636,-0.10735,-0.028902
-0.095953,-0.15938,0.040833,-0.0016543,-0.0020859,0.23013,0.34607,-0.16567
0.24959,0.06055,-0.065501,0.020901,0.027136,-0.22373,-0.33106,0.15953
0.070366,0.2083,0.51068,0.066991,0.017804,0.071482,0.24456,-0.25139
-0.18786,-0.14947,-0.77695,-0.11324,-0.022156,0.19698,0.14959,0.29456
-0.047824,-0.10214,-0.059854,-0.019691,-0.06157,-0.17315,-0.049821,-0.025584
0.09283,0.51027,0.39043,0.066418,0.079042,0.18878,0.10029,-0.1607
0.008226,-0.34107,-0.041188,-0.0033461,-0.014641,-0.037508,-0.050038,0.25933
0.081631,-0.085007,0.07681,0.028801,0.03997,0.13938,-0.0037157,0.079836
-0.069619,0.15281,0.019005,-0.040315,-0.093178,-0.60212,-0.67029,-0.22222
0.069964,0.33937,-0.011258,-0.015449,-0.031255,0.18975,0.29904,-0.1004
-0.039036,-0.36346,-0.085014,0.0017534,0.061817,0.09191,0.0041243,0.061574
-0.14708,-0.34055,-0.078729,-0.027872,-0.024698,0.13469,0.42104,-0.25302
0.057838,0.18801,0.04481,0.043978,0.037507,0.090953,-0.21528,0.37654
-0.073239,-0.15318,0.24473,0.076516,0.084465,0.030747,0.2136,-0.07448
0.13881,0.58955,-0.10535,-0.078871,-0.086972,-0.20991,-0.21262,-0.052899
0.037076,-0.20757,-0.27166,0.015164,-0.00036961,0.017818,0.062305,0.18161
0.042652,-0.11324,0.097644,-0.032087,-0.02309,-0.18382,-0.2573,-0.17789
-0.11091,-0.21963,-0.043175,-0.0096564,-0.0068539,0.037551,-0.13967,-0.11048
0.013164,0.38859,0.26074,0.074803,0.063876,0.17481,0.33657,0.13126
0.039438,-0.14726,-0.082401,-0.05969,-0.045273,0.11107,0.18529,0.22465
0.0070174,0.016571,-0.16465,-0.0065644,-0.0060999,-0.091453,-0.1748,-0.11331
-0.091277,-0.27692,0.0072681,-0.038965,-0.045065,-0.11342,-0.16213,-0.11001
-0.058922,0.29109,0.035055,0.062031,0.072265,0.18429,0.28846,-0.10107
0.058851,0.12486,0.22253,0.015156,0.0021003,-0.07509,-0.16413,-0.17088
0.0060352,-0.14513,-0.041464,0.023304,0.0098899,0.11463,0.29608,0.30812
0.057706,0.10385,-0.095202,-0.015503,-0.014037,-0.23202,-0.12254,0.12824
0.027521,-0.19258,0.15265,0.0076104,0.0080911,-0.0059184,-0.3576,-0.15238
0.072189,-0.16841,-0.25298,-0.032811,-0.009982,-0.034497,0.038852,0.14907
-0.16018,0.20733,-0.070955,-0.043293,-0.029367,0.035342,-0.14671,-0.27754
-0.037792,0.18529,0.011334,0.015223,0.020303,0.16663,0.15532,-0.087186
0.031541,-0.35805,-0.0048955,0.010222,-0.0012685,0.041331,0.45284,0.14982
0.18666,0.431,0.39805,0.043825,-0.015377,-0.19009,-0.39516,0.057181
-0.17569,-0.22623,-0.19139,-0.031689,0.0021711,0.059822,0.078124,0.10126
0.07598,-0.11607,-0.12231,0.0031755,0.013127,0.041827,0.071439,0.17748
0.097255,0.03766,-0.095755,-0.015005,0.0025908,0.076237,0.069833,-0.060883
-0.26799,0.39366,0.19429,0.023564,-0.013316,-0.19703,-0.053707,-0.17854
0.020235,-0.53831,0.084263,0.0018239,0.0046372,0.06451,0.063797,-0.090379
0.096261,-0.085131,-0.10592,0.013341,0.032801,0.038955,-0.35674,-0.13927
-0.030276,0.40194,-0.072696,-0.028287,-0.015334,-0.11134,-0.063701,-0.15878
0.040776,0.031586,0.16671,0.032521,0.0078278,0.20576,0.49946,0.13557
0.021575,-0.041658,-0.1395,-0.047189,-0.00025248,-0.0032156,-0.015959,0.075042
0.053205,0.13282,-0.032099,0.013088,-0.0092678,-0.15317,-0.17596,0.24757
0.010265,-0.39333,-0.020302,0.0096043,-0.019971,0.013422,0.056764,0.50493
-0.10841,-0.0060529,0.051189,-0.0033669,-0.017185,-0.073448,-0.67715,-0.59996
0.023619,0.11987,0.064712,0.028697,0.014631,0.14949,0.72538,0.17957
0.0060937,0.12266,0.067119,-0.026924,0.021042,0.0036546,-0.18622,-0.37923
-0.021973,0.14902,-0.066224,-0.029283,-0.028684,-0.13479,0.12237,0.15753
0.00085101,-0.46609,-0.13152,-0.0091453,0.01455,0.078926,0.076049,0.084465
0.13675,0.19118,0.10647,0.073114,0.042038,0.12208,0.23217,0.034029
-0.18406,0.19169,-0.038768,-0.016341,-0.015973,-0.12227,-0.5634,-0.54682
0.063081,0.021056,0.019621,-0.034888,-0.057548,-0.068374,-0.19976,0.37638
-0.10444,-0.25629,-0.0066907,0.01773,0.050267,0.14259,0.49603,0.19824
0.026221,0.15899,-0.0079094,-0.022489,-0.020734,-0.099502,-0.26448,-0.29618
0.1364,-0.11307,0.070682,0.039634,0.026068,0.13426,0.519,0.41144
-0.11659,-0.014842,-0.12283,-0.0071135,-0.012809,-0.14887,-0.34885,-0.25598
0.10342,-0.074889,0.13745,0.0087994,0.02634,0.14467,-0.040021,0.0055015
0.12392,0.18538,0.069494,0.016742,-0.0051901,-0.11765,-0.11716,0.34991
-0.079832,0.18102,-0.061784,-0.061618,-0.060625,-0.099141,0.16185,-0.15544
-0.12669,-0.43985,-0.1787,0.00025356,0.00075869,0.07623,0.015801,-0.27899
-0.018212,0.27422,-4.7078e-05,0.0072024,0.022989,0.026772,0.0072461,0.078935
0.033571,-1.3563e-05,-0.0020278,-0.0092061,-0.0013585,0.019001,-0.24672,-0.18354
0.051744,0.014918,0.13632,0.045168,0.029673,0.02208,0.22222,0.18489
-0.096055,-0.21637,0.071986,-0.0089983,-0.0086206,-0.018905,-0.079015,-0.094437
0.06005,0.29449,-0.085038,-0.007401,0.001064,0.15299,0.23091,-0.12003
0.021573,-0.010057,-0.0141,0.010948,-0.011691,-0.1745,0.0093979,0.34513
-0.1006,-0.17044,-0.0199,-0.02443,-0.00032258,0.028309,-0.2458,-0.01797
0.022785,-0.17832,-0.016824,0.0032843,0.019079,-0.029047,-0.060372,-0.17864
0.13434,0.26564,0.11179,0.031083,0.0069257,-0.0038129,0.087208,0.32154
0.022694,0.20467,0.037227,-0.011911,-0.021642,-0.036987,0.1019,-0.0215
-0.0087141,-0.54347,-0.1316,0.0065895,-0.0044755,0.082669,0.045709,0.0062163
-0.14922,-0.059146,-0.13714,-0.062238,-0.03548,-0.04239,-0.22944,-0.35755
0.18505,0.56103,0.10658,0.062678,0.033841,-0.051498,0.043225,0.063784
-0.16401,-0.42953,0.06073,-0.0092202,0.0084237,0.13491,0.076404,-0.08242
0.1226,0.39232,0.045997,-0.019818,-0.009795,-0.044323,0.090975,0.072154
-0.25252,0.033245,-0.038831,0.0079362,0.010851,0.06806,0.15164,-0.10228
0.062456,-0.033513,0.033032,-0.0034966,0.00042957,-0.19145,-0.50527,0.24223
0.068464,-0.28159,-0.12119,-0.022288,0.0060948,0.1303,0.16079,0.024185
0.048052,0.10381,0.15458,0.037958,-0.011069,-0.084377,-0.013496,-0.088584
0.1901,0.078439,-0.15561,-0.017818,-0.0041772,0.030788,0.081153,0.007923
-0.18386,-0.31484,0.0024642,0.013506,-0.0045843,0.068326,0.19386,0.017627
0.020833,0.15602,0.097071,0.014491,0.010971,0.08162,0.065422,0.16636
-0.038919,0.11559,0.0027488,0.031576,0.011045,-0.13361,-0.12595,-0.14141
0.0044837,-0.052063,0.0004185,-0.037307,0.0032882,0.031261,0.056303,0.25623
0.026323,0.2181,0.074351,-0.020737,-0.0045673,0.013547,-0.20799,-0.31436
-0.19196,-0.42225,-0.17369,-0.036184,-0.043752,-0.11596,-0.19857,-0.33054
0.15438,0.23331,0.069351,0.049114,0.03429,-0.004619,0.18894,0.24714
0.041816,0.023484,-0.00037044,-0.014655,-0.028074,0.005242,-0.19032,0.068528
0.0012262,-0.16711,-0.14746,-0.031823,-0.0040996,0.047918,0.16717,-0.17698
-0.014897,0.037064,0.074355,0.029278,0.028206,0.030847,-0.032962,0.30914
-0.0073975,0.17436,0.064192,0.004945,0.021967,0.18904,0.42869,0.12914
0.093141,0.23525,0.14255,0.059441,0.047361,-0.086908,-0.11356,-0.48331
-0.07338,-0.18091,-0.019062,-0.010365,-0.059922,-0.1023,-0.030659,0.39934
-0.061968,-0.16211,-0.062142,-0.024985,-0.018926,-0.084702,-0.093544,0.055074
0.041702,-0.069028,-0.15971,-0.070685,-0.025237,0.058493,-0.26123,-0.058789
-0.081786,-0.034592,0.11676,0.078731,0.053775,0.10751,0.40617,0.039033
0.069004,-0.073283,-0.077376,-0.069238,-0.063209,-0.16499,-0.41571,0.034333
0.027049,0.27014,0.16367,0.055523,0.045725,0.021782,0.060042,-0.69765
-0.12005,-0.28304,-0.16003,-0.0079695,0.0056833,0.050409,-0.19014,-0.16248
0.06644,0.26164,-0.0089118,-0.017428,-0.019141,0.030196,0.41353,0.78425
0.024448,-0.00062844,0.078826,0.027371,0.033865,-0.062321,0.13176,0.037624
0.15969,0.3367,0.0025925,0.0095474,0.031974,0.20252,0.09313,0.086021
-0.20125,-0.38348,-0.0023361,-0.0393,-0.055992,-0.081531,-0.40178,-0.3179
0.1268,-0.0925,0.0022143,0.0061688,-0.011194,-0.054978,-0.0761,-0.087492
-0.06985,0.020201,0.063482,0.01343,0.002444,-0.076854,0.088666,0.10399
0.14361,0.13267,-0.068476,-0.025136,-0.014879,-0.013721,-0.022567,0.34713
-0.235,0.0096048,-0.042282,0.015539,0.030829,0.010302,0.28672,-0.26859
-0.0038029,-0.16928,0.032375,0.033817,-0.00081363,0.011829,-0.22537,-0.06797
0.063588,0.018803,-0.0010925,-0.017386,-0.00024931,0.085488,0.12807,0.10144
-0.063181,0.07532,0.044525,0.010047,0.0091504,-0.080675,-0.036982,0.018599
0.031689,-0.091937,-0.08098,-0.040511,-0.043017,0.091516,-0.058017,-0.30903
0.16292,0.06493,0.12224,0.033681,0.046115,0.015644,0.032128,0.128
-0.081249,0.11622,-0.14285,-0.048975,-0.01292,0.081433,-0.06476,0.0047692
0.020015,-0.291,-0.071841,0.01593,0.013758,-0.18878,-0.076183,-0.01847
0.015171,0.42647,0.1395,0.032878,0.00064057,-0.01475,0.11452,0.20274
-0.13386,0.0070615,0.060743,0.0095519,0.0097979,0.11063,0.030543,-0.31323
0.07329,-0.37368,-0.035624,-0.030668,-0.052792,-0.15662,-0.15636,0.3565
-0.043314,0.29623,0.021211,0.013794,0.0081243,0.097803,0.21768,-0.0077726
0.031212,-0.10265,-0.011871,0.0024084,-0.0026024,-0.078668,0.011644,0.12254
0.0066571,0.07793,0.1068,-0.0099509,-0.0064969,0.033389,-0.17347,-0.27182
0.053491,-0.019146,-0.11481,0.023875,0.067219,0.12202,0.1305,0.14927
-0.071953,-0.59251,-0.29296,-0.083241,-0.054398,0.0078009,-0.037777,-0.29643
0.058673,0.16078,0.18342,0.075386,0.035345,0.026616,0.11085,0.17165
0.10846,0.036272,-0.0038255,-0.015413,-0.014776,-0.087438,-0.032227,-0.046374
-0.15737,0.53961,0.14753,0.019783,-0.001427,-0.037789,-0.32481,-0.05605
-0.082309,0.12762,0.037773,-0.014,-0.018273,-0.11361,-0.022467,-0.016039
0.029889,-0.19863,-0.066381,-0.0071736,0.028425,0.21659,0.12745,-0.021992
0.055654,-0.19068,-0.094483,-0.037799,-0.033284,-0.10902,0.28383,0.02504
-0.065867,0.022896,0.05422,0.042466,0.023057,0.035594,0.12853,0.15964
0.11997,0.1328,0.089108,0.030259,0.0098361,-0.059281,-0.21209,-0.023779
-0.10453,-0.28738,0.031647,-0.012267,-0.018362,0.021595,-0.17516,0.25367
0.19853,0.21983,-0.19046,-0.030834,-0.0069447,0.052534,0.043331,-0.091175
-0.025867,-0.1365,0.085197,0.036647,0.0049308,-0.036444,-0.058317,-0.15114
-0.13806,-0.24709,-0.13458,-0.052367,0.017148,0.12148,-0.037413,-0.10563
0.0090498,0.17841,0.06396,-0.024712,-0.03295,-0.18573,0.094801,-0.11777
0.062446,0.10294,0.1265,0.064749,0.026295,0.071386,0.16242,0.35426
-0.17448,0.19246,-0.094566,-0.01845,-0.00070364,-0.0078688,0.02835,-0.40301
0.070711,-0.19259,0.034649,0.022533,-0.0048901,0.019356,0.0088999,0.17325
0.16459,0.39292,0.13236,0.031452,0.03685,0.10386,0.10098,0.1954
-0.16656,-0.36499,-0.23817,-0.054158,-0.016385,-0.060888,-0.26728,0.01224
0.061545,-0.20317,0.0094028,-0.046737,-0.063202,-0.10873,-0.36104,-0.48719
0.036481,0.18015,0.14062,0.061619,0.044818,0.038457,0.33006,0.39883
-0.077588,-0.061509,-0.087187,-0.018038,0.018763,0.037986,-0.0099358,-0.19134
0.094468,0.24962,0.11427,0.019107,-0.03168,-0.076847,-0.039664,0.19144
-0.048734,-0.1449,-0.083995,-0.022136,-0.012341,0.024794,0.21521,0.12682
0.032171,-0.017536,0.090758,0.014587,0.014745,0.041183,-0.029623,-0.30805
0.0017553,0.079643,0.067957,0.019985,0.0031289,-0.079643,-0.146,0.16486
-0.076705,-0.083636,-0.24578,-0.029312,0.023445,0.054984,0.13276,0.15006
0.01659,-0.15073,-0.044738,0.0073864,0.021179,0.094539,-0.13198,-0.17836
-0.053063,0.00086333,0.0086099,-0.0026511,-0.034899,-0.062637,0.056713,0.15085
0.09841,-0.10075,0.0020041,-0.020258,-0.019901,0.10575,0.21006,-0.3274
-0.035735,0.24282,0.26518,0.025006,-0.0043258,-0.097496,-0.30188,0.079925
-0.017351,0.17306,-0.10709,0.00046205,0.035056,-0.0027021,0.22727,-0.1039
0.03643,0.18042,0.11188,0.015609,0.01213,-0.010345,-0.14335,-0.017664
-0.023433,-0.43447,-0.1256,-0.038844,-0.049775,-0.090658,0.14722,0.31861
0.059674,0.34614,-0.039889,0.016812,0.021185,0.029111,-0.33016,-0.075143
0.010729,-0.39029,-0.086219,-0.028418,-0.0015108,0.091291,0.059825,0.22756
0.10152,0.18643,0.13165,0.044072,-0.00059165,-0.10643,-0.061719,-0.32357
-0.21619,-0.13886,0.10399,0.030933,0.0083983,-0.016009,0.020656,0.27526
0.041254,-0.016697,-0.068938,-0.036864,-0.0057583,0.10593,0.37362,-0.26976
-0.055737,-0.017179,-0.15326,-0.018988,-0.011865,0.010271,0.086135,-0.18309
-0.0062165,0.049387,-0.00020705,-0.017271,-0.0022665,0.041111,-0.3404,-0.07309
0.074233,0.07717,-0.015013,0.007147,0.030596,0.018584,0.14056,0.38803
0.015648,-0.031309,0.069413,0.022902,0.023917,-0.081347,-0.17583,-0.098469
0.030763,0.0090326,0.13745,0.029983,-0.022596,-0.025079,0.12191,0.22964
-0.10572,0.2793,0.081121,0.020674,0.01586,0.069532,0.24197,-0.12459
0.13008,-0.22651,-0.2236,-0.075142,-0.056058,-0.11036,-0.34923,0.012939
-0.11397,-0.24995,0.020698,-0.0071828,-0.019429,-0.095938,-0.1688,-0.14467
0.10599,0.63834,0.048505,0.0061394,0.016726,0.16011,0.16557,-0.024182
-0.03255,-0.68756,-0.13255,0.0042277,-0.0018148,-0.068154,-0.033377,0.16792
0.038244,0.20871,0.14908,0.026428,0.034794,0.14174,0.19598,-0.15559
0.042588,-0.041144,0.096137,0.057281,0.056601,-0.0067379,-0.091093,0.12338
-0.17751,-0.039624,-0.25265,-0.090697,-0.076844,-0.12297,0.035191,-0.21101
0.0099678,0.35315,0.17279,0.03548,0.02504,0.027072,0.0039437,-0.021686
0.019417,-0.16816,-0.20583,-0.0332,-0.01298,0.14594,0.071796,0.024258
0.02411,-0.0026008,0.18166,0.046677,0.035311,-0.087253,0.12791,0.13426
0.018433,-0.23678,-0.00087327,-0.014289,-0.041396,-0.055682,-0.32895,-0.032409
0.020597,0.12858,-0.011517,-0.021072,-0.0090282,0.045355,0.16939,0.30667
-0.03723,0.13964,0.047762,0.018344,-0.016194,-0.22901,-0.3531,-0.11487
-0.0672,0.014471,-0.15164,-0.013263,0.038654,0.2314,0.30838,0.021038
0.11916,0.018212,0.13981,0.032663,0.030647,-0.049061,0.047101,-0.10112
-0.04859,-0.3493,-0.10167,-0.03895,-0.047806,-0.0071115,-0.18068,-0.25767
0.076752,0.38882,0.092563,-0.0090285,-0.0089478,0.013858,-0.012592,0.11194
0.0009442,-0.14156,0.027383,0.029012,0.0068106,0.060494,0.045762,-0.20379
0.088726,-0.18117,-0.07795,-0.010494,0.023023,0.022591,0.12029,0.21797
-0.13096,0.26408,-0.089869,-0.018033,-0.0072046,0.062926,0.1557,0.34818
-0.066003,0.071352,0.015917,0.045421,0.017526,-0.1637,-0.10009,-0.33374
-0.076401,-0.30417,-0.025475,-0.023479,-0.012433,-0.017961,0.013921,-0.027962
0.018072,-0.0092676,0.16137,0.024897,0.011969,0.085285,0.064635,0.11171
0.07834,0.0194,0.029496,0.0026084,-0.018938,-0.15099,-0.48226,-0.15543
0.020649,0.023812,-0.062315,-0.028252,-0.011592,0.054982,0.16017,0.077125
-0.051119,0.28383,0.017757,-0.013266,-0.0050866,0.071455,0.053551,0.10531
