0.21992,0.071007,0.085863,-0.024208,0.020154,0.045124,0.057069,0.081263
0.042341,0.027558,-0.046225,0.036875,0.019911,-0.0090444,0.055088,-0.022685
-0.11875,-0.070692,0.016034,-0.0048842,-0.058674,-0.063713,-0.17256,-0.070719
-0.2777,-0.090225,-0.0086403,-0.055365,-0.035791,-0.0092536,-0.086344,-0.17172
-0.035189,0.00086916,-0.12006,0.081225,0.065251,0.0531,0.12657,0.049571
0.24178,0.070258,0.10405,-0.11806,-0.01327,0.0064516,-0.06499,0.09299
0.083797,0.063455,-0.023282,0.17532,0.033341,-0.00061167,0.041766,0.090727
0.35661,0.042818,0.0063189,-0.093069,0.017495,0.055302,0.23516,0.2136
-0.11361,-0.031176,0.052666,0.022194,-0.021906,-0.013538,0.037581,-0.11782
-0.42254,-0.096704,-0.0090199,-0.010175,-0.053781,-0.082471,-0.38801,-0.25627
0.0065762,0.025176,-0.030355,-0.049655,0.038942,0.09036,0.2935,0.094363
-0.12349,-0.017755,-0.027288,0.13022,0.014086,-0.042129,-0.097831,-0.105
0.12556,-0.0072033,0.054347,-0.064349,-0.018816,-0.073696,-0.27246,-0.017683
0.091353,0.025375,-0.067322,-0.13332,-0.036037,0.011485,0.12233,0.08424
-0.012988,0.017503,0.16961,0.10307,0.00966,0.018446,-0.0056952,0.014881
0.10365,-0.0071807,-0.24312,-0.06608,0.0014216,0.049126,0.18089,0.096009
-0.002601,0.029747,0.19425,0.054415,-0.021481,0.0022428,-0.012245,-0.01519
0.082912,0.011437,-0.15885,0.089212,0.12846,0.026328,0.063534,0.056505
0.0083419,-0.05396,0.033793,-0.016968,-0.033347,-0.0037369,0.11845,-0.017513
-0.18036,-0.0020677,0.069515,0.016365,-0.0072875,-0.025741,-0.38019,-0.13668
-0.085985,0.018955,0.073841,-0.13186,-0.082884,-0.032231,0.034478,0.018115
-0.030039,-0.029727,-0.12463,0.10029,0.044147,-9.1096e-05,0.1106,-0.0073778
0.14276,0.016099,-0.049012,-0.021715,-0.0092468,0.02361,0.2061,0.10636
-0.10734,0.00023213,0.058594,-0.020952,-0.039966,-0.062715,-0.38292,-0.21915
0.078576,-0.0070818,-0.051976,-0.16216,0.014664,0.037938,0.12487,0.062999
0.1142,0.095542,0.21263,0.19656,0.045567,0.060166,0.26165,0.19532
0.13984,-0.059333,-0.10126,0.0098212,-0.048499,-0.050475,-0.29912,-0.07956
-0.32134,-0.026651,0.021425,-0.11163,0.076457,0.034338,0.069554,0.012221
0.23838,0.013707,-0.036885,0.17698,-0.0091541,-0.029034,-0.20845,0.0022269
-0.23548,-0.047709,-0.18254,-0.045731,0.030557,0.02506,0.1888,-0.0781
-0.031396,0.0079122,0.07691,-0.17837,-0.046754,0.001274,0.17632,0.0057198
0.054721,0.040113,0.085779,0.059497,-0.10066,-0.045758,0.027642,0.0037591
-0.022844,-0.0055801,-0.10048,0.080605,0.017097,-0.014512,-0.10952,0.0098494
0.24486,-0.0039845,0.097062,0.13328,0.072027,0.032509,0.029212,0.086608
-0.15693,0.029365,0.29634,-0.026427,0.017201,0.0093992,-0.12011,-0.062682
0.03001,-0.014938,-0.056697,-0.40787,-0.02238,0.01777,-0.019657,-0.03159
-0.030371,0.0035823,-0.46933,0.33161,0.10178,0.018603,0.04078,0.047253
-0.026135,-0.063731,-0.0036233,0.019688,-0.071132,-0.05839,-0.14211,-0.11508
0.018431,0.13444,0.21571,-0.23398,-0.11904,-0.033534,-0.013369,0.067388
0.14928,-0.050544,-0.069184,0.5481,0.10679,0.077489,0.3337,0.11018
0.021916,-0.10322,0.15674,-0.50767,-0.080806,-0.014489,-0.045858,-0.065114
-0.34068,-0.023703,-0.053085,-0.19653,-0.0096561,-0.044005,-0.12858,-0.01361
-0.10264,0.00038898,-0.20845,0.2018,0.10167,0.012172,-0.071049,-0.13429
0.34562,0.16418,0.32102,0.14149,0.057802,0.091311,0.17298,0.25198
-0.034638,-0.016998,0.35317,-0.18955,-0.1103,-0.025555,0.20439,-0.042774
0.030205,0.12838,-0.22323,0.69279,0.057804,-0.057335,-0.3913,-0.15167
0.079106,-0.23596,-0.65888,-0.11845,0.022417,-0.050966,-0.098477,0.019007
-0.31026,0.0070211,0.23463,-0.3193,-0.0061047,0.032665,0.067811,0.00069331
0.10358,-0.087813,-0.17301,-0.55063,-0.19226,-0.017233,0.030473,-0.010878
0.39802,0.15198,0.098477,0.4615,0.12782,0.15111,0.30642,0.22702
-0.42749,0.078903,0.70955,-0.79739,-0.17085,-0.10272,-0.048431,-0.1522
0.080185,-0.094866,-0.21879,1.0256,0.34164,0.010529,-0.28319,-0.069914
0.1092,-0.047665,-0.27763,-0.01379,-0.014094,0.0066489,0.1025,0.091495
-0.15937,0.049901,-0.37226,-0.40794,-0.20648,-0.098607,-0.040128,-0.081791
-0.020502,-0.082435,0.50417,0.60745,0.038275,0.054252,-0.040147,-0.027224
-0.097105,0.032397,-0.37779,-0.040383,0.064263,0.066894,0.14783,0.051905
0.073502,0.12086,0.46967,0.075278,0.04373,0.017553,0.092326,0.092718
0.23443,0.033764,0.33028,-0.8452,-0.31202,-0.054585,0.057222,0.039989
-0.02863,-0.089617,-0.52791,-0.15531,0.30983,0.084993,-0.060372,-0.060006
0.017177,-0.14951,-0.24225,-0.090229,-0.3015,-0.27449,-0.3782,-0.12967
-0.060381,0.18022,0.15316,0.48299,0.31492,0.15618,0.049477,-0.028728
-0.022184,-0.086763,0.0014743,0.90098,0.21351,0.11145,0.13027,0.0865
0.074164,0.016623,0.031056,-0.35887,-0.33267,-0.15089,0.061539,0.075581
-0.14063,0.082956,0.20676,0.071461,0.058797,0.14237,0.025287,-0.053253
-0.034582,0.010151,-0.216,-0.61177,-0.13576,-0.048184,0.13299,0.067744
-0.067957,-0.16251,-0.13742,-0.32127,-0.025706,-0.0042915,-0.082591,-0.05301
0.003413,0.14407,0.53418,0.16364,0.0063786,0.031375,-0.12077,-0.086824
0.22144,-0.099751,-0.79031,-0.021817,0.16394,-0.10564,0.0026192,0.044865
-0.082661,0.029975,0.59502,0.60145,0.048768,0.029761,-0.080613,-0.0092705
-0.1172,-0.050467,0.13608,-0.066012,-0.042318,-0.039017,0.19039,0.016363
0.15858,-0.0030983,-0.37968,0.47709,0.038739,0.00064387,-0.076992,0.058941
0.1279,0.14237,0.01298,-1.0424,-0.20873,0.10986,0.091707,0.024135
0.0087098,-0.050789,0.24682,0.015598,0.10511,0.038803,0.17904,0.036207
-0.23979,-0.059206,0.18386,0.31381,0.088912,-0.071828,-0.46469,-0.15558
-0.010445,0.092802,-0.78216,0.04596,-0.015532,-0.0032648,0.089719,-0.012737
0.085223,-0.010282,0.60305,0.34318,-0.028487,-0.021136,0.20985,0.066013
-0.095062,0.098595,-0.092008,-0.60849,-0.27749,-0.055085,-0.24375,-0.036454
-0.03655,-0.23838,-0.33608,0.44775,0.35574,0.098168,0.12904,0.016177
0.33105,0.071442,0.41933,-0.04321,-0.033614,-0.0064085,0.072277,0.10732
-0.16344,-0.034891,-0.20585,-0.049921,-0.069011,-0.063739,0.025171,-0.035785
-0.31571,-0.064964,-0.31007,-0.20455,-0.053797,0.028174,0.0045695,-0.14688
0.14117,0.12259,0.3282,-0.87361,-0.23713,-0.050584,-0.2077,0.032291
0.21616,0.020962,0.17174,1.0056,0.42796,0.12995,0.099159,0.09565
0.13646,0.029523,0.14309,0.11187,-0.059315,-0.047351,0.057182,0.043051
-0.1916,-0.06203,0.15588,0.76338,0.11974,-0.0045063,-0.030219,-0.047831
-0.10446,0.12148,-0.45502,-0.80884,-0.3262,-0.08566,-0.00050444,-0.08391
0.022035,-0.14678,-0.28441,-0.1086,0.10037,0.067988,0.058901,0.066879
0.0072012,0.015361,0.13601,-0.45961,-0.0091021,0.010441,0.10779,0.013249
0.061147,-0.0648,0.0019989,0.61273,0.17967,0.014432,-0.26844,0.012594
0.09747,0.18224,0.39306,-0.28987,-0.15431,-0.0065932,0.071045,-0.0054563
-0.1338,-0.025403,-0.33731,0.11633,-0.018355,0.0016234,-0.036837,-0.04836
-0.093039,-0.11773,0.21125,0.375,-0.020264,-0.047016,-0.012413,-0.068517
0.10354,0.030294,-0.30361,-0.80461,-0.16541,0.0038881,0.021106,0.044412
0.019663,-0.11223,0.2279,0.76388,0.26002,0.0063482,0.12003,0.05705
-0.077884,0.11932,0.13303,-0.41326,-0.038092,0.015731,-0.019259,-0.0063638
-0.016393,0.069261,-0.14499,-0.28435,-0.026331,0.01721,-0.013712,-0.0048059
0.040322,-0.058846,0.16423,0.37974,0.062136,-0.082182,-0.028058,-0.0087111
0.15431,-0.0070299,-0.29434,0.40702,0.10241,0.11664,0.037804,0.082838
0.0041752,0.03707,0.093185,-0.2678,-0.14081,-0.042178,0.025651,-0.051521
-0.020973,0.0262,0.082074,0.18629,0.0027081,0.011818,-0.16036,-0.038023
-0.14926,-0.040118,-0.10243,-0.33842,-0.047159,-0.026201,0.22014,0.044044
0.094655,-0.013849,0.18043,-0.043575,0.051421,0.015281,-0.16993,-0.040532
-0.18044,-0.067039,-0.23188,-0.19245,-0.10151,-0.020474,0.059738,-0.026464
0.025652,-0.027658,-0.21957,0.26569,0.094655,-0.0090035,-0.066778,0.00053733
0.1123,0.1126,0.19716,-0.28857,-0.11043,0.017937,-0.040243,0.017769
-0.059716,0.04201,0.3653,0.26921,0.12714,0.0052421,0.070961,-0.012752
0.14394,-0.035403,-0.064005,0.11157,0.081283,0.022931,0.0032627,0.042978
-0.04885,-0.032792,-0.04991,0.17751,-0.1146,-0.046342,0.10219,0.037585
-0.027861,-0.074398,-0.33389,-0.10127,-0.0068047,-0.0072906,-0.076368,-0.075068
-0.042838,0.051196,0.17747,-0.15213,-0.0089762,0.015179,-0.00073546,-0.0056326
0.015275,0.062855,0.13142,0.027585,0.1135,0.091571,0.055324,0.042586
0.20823,-0.047526,-0.43477,-0.3795,-0.32682,-0.14504,-0.057559,0.069015
-0.21496,0.063129,0.42209,0.23908,0.29501,0.10254,0.0109,-0.067783
-0.091207,-0.0045695,0.082661,0.019124,0.11172,-0.0090838,-0.0062334,-0.0014686
0.07085,-0.04076,-0.033063,0.23659,-0.0954,-0.088936,-0.0084634,0.0016433
0.020657,-0.030832,-0.090459,0.025939,0.025506,0.066443,-0.043292,-0.074461
0.02355,0.016609,-0.1213,-0.081067,-0.20463,-0.019246,-0.048332,-0.011063
-0.029908,-0.039524,-0.17207,-0.20238,-0.050524,0.021336,0.086151,0.012431
0.032252,0.066287,0.0083815,-0.10562,0.043572,0.024129,0.11865,0.11368
0.16337,-0.0016994,0.37489,-0.26257,-0.10116,-0.042285,-0.098448,0.0041385
-0.050276,-0.11028,-0.008186,1.0105,0.41407,-0.01417,-0.087859,-0.018919
-0.1629,0.10817,-0.084521,-0.36856,-0.083022,0.037706,0.088398,-0.041213
-0.064503,-0.0022206,-0.10292,0.018452,-0.0077261,-0.019998,-0.06177,-0.023684
-0.082528,0.043163,0.19506,-0.2218,-0.025966,0.03875,0.047227,-0.021227
0.11176,0.0022153,-0.10451,-0.098239,-0.046084,-0.013069,0.078683,0.028299
0.17497,-0.04695,-0.2441,0.085221,-0.085558,-0.035148,-0.062232,0.054135
-0.010168,-0.049665,0.24446,-0.31722,-0.14558,-0.027607,-0.040798,-0.022309
0.040242,-0.0058701,-0.053707,0.19848,0.15637,0.064326,0.087172,0.017323
0.059773,0.061186,0.024453,0.43388,0.055293,-0.0090702,-0.10101,0.016537
-0.15556,-0.035693,-0.16293,-0.12999,-0.033404,-0.028625,0.074029,-0.055942
-0.23138,-0.046151,0.1561,-0.052177,0.017029,0.0061486,-0.090572,-0.090517
-0.027284,0.10044,0.28461,-0.15888,0.13026,0.025416,-0.031479,0.046064
0.21475,-0.017619,-0.42744,0.010955,-0.15313,-0.032928,0.1354,0.096565
0.13589,0.021547,0.19825,-0.028686,-0.043086,0.042311,-0.010304,-0.00091642
-0.091359,-0.016637,-0.057851,-0.093419,-0.039229,-0.030018,-0.084248,-0.058378
-0.03678,-0.023131,0.12458,0.3361,0.14723,2.8317e-05,0.055478,0.018255
0.081164,-0.045201,-0.22219,0.10702,0.046726,0.030716,-0.019937,-0.0052782
-0.026547,0.03398,0.11475,-0.10489,-0.013761,-0.00068549,-0.0054455,0.027193
0.054023,0.057913,-0.15876,-0.27887,-0.10576,-0.078775,0.067526,0.029517
-0.16168,-0.04382,0.069715,0.24839,0.13692,0.10097,-0.012599,-0.061085
-0.13473,-0.044607,-0.009492,-0.19357,-0.14561,-0.055245,-0.051469,-0.080831
0.10357,0.008848,0.11351,-0.038794,-0.14861,-0.023944,0.0045106,0.04817
0.16253,0.069916,0.0099438,-0.46216,0.050415,0.02314,0.021493,0.075729
0.11236,-0.048644,0.030914,0.54145,0.21807,0.062746,0.006462,0.032939
-0.1878,0.059636,0.065368,-0.078374,-0.035197,-0.11591,-0.064554,-0.072543
-0.082085,-0.073846,-0.029815,0.6104,0.057173,0.04976,-0.012105,-0.053389
0.15559,0.043159,-0.14018,-0.26736,-0.058947,0.051892,0.0075557,0.066768
-0.029937,-0.026863,-0.088359,-0.37048,-0.14905,-0.023737,0.025802,-0.0013459
-0.10783,-0.010547,0.27263,0.41375,0.10689,0.025735,0.10528,-0.0079429
-0.062704,0.037313,-0.2997,-0.41217,0.036399,-0.049994,0.011727,0.0077311
0.16786,-0.047474,0.070402,0.19357,-0.017578,0.0066094,0.026451,0.014303
0.060527,0.086527,-0.18593,-0.42917,-0.17311,-0.070275,-0.25673,-0.066376
0.0062201,-0.068613,0.25325,0.25662,0.20176,0.07865,0.037323,0.070483
-0.041479,0.026077,0.15476,0.055584,-0.010857,0.031544,0.11195,0.011066
-0.19133,-0.090397,0.026813,0.53201,0.071338,-0.016151,-0.040373,-0.056744
-0.051977,0.074133,-0.18589,-0.43592,-0.13,-0.040816,0.057198,-0.023088
0.22887,0.074375,0.054303,-0.35992,-0.036662,0.03587,-0.0091921,0.034427
-0.035666,-0.042733,0.050245,-0.064059,-0.077955,-0.059352,-0.0050889,-0.016538
0.084477,-0.058336,0.011213,0.65047,0.13735,0.025208,0.014782,0.035299
0.026871,-0.0035278,-0.16535,0.16107,0.15681,0.055239,-0.019994,0.026027
-0.22433,0.098447,-0.17472,-1.0079,-0.31578,-0.055202,-0.047,-0.060036
0.11952,-0.10377,0.25764,0.93217,0.32164,0.092274,0.058782,0.089371
-0.028025,-0.0084624,-0.14756,-0.21604,-0.17284,-0.064889,-0.046218,-0.057345
-0.065891,0.040667,0.14329,-0.40063,-0.12735,-0.065773,0.028967,-0.023982
0.12272,-0.011199,0.015155,0.4455,0.16104,0.05842,0.011362,0.017292
-0.040583,0.030915,-0.030454,-0.22752,-0.026835,-0.020313,-0.059483,-0.050894
0.0065524,0.041484,0.046014,-0.1251,0.0038201,0.0028763,0.0043215,-0.0098688
-0.07967,-0.026995,0.064294,0.45472,0.088415,0.034389,0.054508,0.062217
0.15391,0.012378,-0.055196,-0.55047,-0.15628,-0.042884,0.0049946,0.032512
-0.042606,-0.051743,-0.064398,0.2826,0.074218,0.044463,-0.035336,0.0024712
-0.11437,-0.031949,0.019122,0.026718,0.053486,0.022834,0.018652,-0.043719
-0.0064554,0.02519,-0.03268,0.23194,-0.0070518,-0.05334,0.072224,0.0030833
0.17203,0.0031557,0.037299,-0.55919,-0.20815,0.018762,-0.031858,0.048929
-0.078608,-0.019,-0.12234,0.17994,0.10742,-0.018953,-0.09126,-0.046883
0.031036,0.037852,0.0049224,-0.10294,-0.098439,-0.041682,0.05767,-0.034231
-0.092481,0.010526,0.068864,0.38242,0.22966,0.091125,-0.053752,0.0091057
-0.042661,-0.014458,0.047394,0.13569,0.060722,-0.018904,0.043766,0.0055349
0.12593,0.0099441,-0.066314,-0.45435,-0.12897,-0.035646,-0.055125,0.018191
-0.0008402,0.0444,0.16561,0.12479,0.003564,0.017736,0.041267,0.032057
-0.12641,-0.091422,0.055401,-0.052653,-0.073983,-0.038135,-0.009818,-0.069607
0.076785,0.031277,-0.053941,0.24362,0.012244,0.023591,0.018884,0.025883
0.092334,0.075602,-0.11642,-0.16965,0.058148,0.023438,0.072955,0.044953
0.059996,-0.11555,-0.17174,-0.013733,0.016225,0.024003,-0.02748,0.01059
-0.12259,0.058816,0.069017,0.014986,-0.059019,-0.013807,0.029517,-0.031017
-0.15909,-0.010909,0.082885,-0.075185,0.020172,-0.027628,-0.13181,-0.041606
0.1144,-0.019873,0.066146,0.014546,-0.0034084,0.0057725,0.12061,0.048366
0.057538,-0.030087,-0.034684,-0.056659,-0.097726,-0.038837,-0.12783,-0.019513
-0.063386,0.052891,0.039307,0.14418,0.14422,0.072692,-0.0023689,-0.026824
0.018174,-0.035822,-0.062767,0.12788,0.05107,-0.034845,0.051742,0.026417
0.068827,0.063777,-0.23933,-0.61131,-0.2755,-0.096007,-0.00427,-0.00013157
-0.059014,0.016142,0.32138,0.70859,0.28916,0.14684,0.072161,0.0034251
0.010222,-0.069256,0.14141,-0.18658,-0.029156,-0.0095846,-0.015496,0.006491
-0.043591,0.033953,-0.077956,-0.056575,-0.09864,-0.018559,-0.0013971,-0.037136
0.044957,0.0050421,-0.041679,0.23658,0.087493,0.0026516,-0.033902,0.01375
-0.045016,-0.023707,-0.18871,-0.075294,-0.041813,-0.031862,0.011958,0.026745
0.084126,-0.045016,0.01151,-0.39232,-0.12741,-0.067237,-0.059209,0.002036
0.14246,0.096925,-0.011139,0.13685,0.15928,0.10779,0.065041,0.048972
-0.10513,-0.035669,-0.0056645,0.068459,-0.039986,-0.029757,-0.01373,-0.043579
-0.33875,-0.067906,-0.0096773,-0.32873,-0.11419,-0.034067,-0.037639,-0.080593
0.13684,0.054962,0.29079,0.60567,0.094827,0.040652,0.024677,0.047
0.13445,0.012802,-0.15791,-0.61624,-0.11429,-0.016178,0.063961,-0.0048145
0.068671,-0.061323,-0.097607,0.57154,0.1035,0.0065607,-0.091585,0.029389
-0.044294,0.090671,0.19007,-0.039979,0.17839,0.038532,0.026797,0.0010354
-0.00082632,0.0081139,0.10259,-0.13846,-0.093153,-0.022039,0.067466,0.019403
-0.01938,-0.0040401,-0.29085,-0.36689,-0.071793,-0.027066,-0.063479,-0.024961
-0.060809,-0.047071,0.055675,0.40328,0.0061846,0.023041,0.024388,-0.030578
0.0076015,-0.019104,0.1184,0.041415,-0.025498,-0.043994,-0.059774,-0.005362
-0.0018618,-0.029191,-0.22726,0.11957,0.0028952,-0.0019406,0.02759,0.0036797
-0.019138,-0.045806,-0.15205,-0.055347,-0.027559,0.047406,0.0050647,0.027637
0.080576,0.071812,0.32212,-0.49529,0.046105,0.017982,0.020969,0.035095
0.31285,0.13607,0.02488,0.2743,0.067292,-0.012118,0.043983,0.09624
-0.38461,-0.087785,-0.23804,-0.16797,-0.096404,-0.035043,-0.05872,-0.16395
-0.066042,-0.014416,0.38519,0.39953,0.048253,-0.0038277,-0.0058403,-0.010964
-0.06666,-0.0039281,-0.082588,-0.17466,-0.051917,-0.0043029,-0.039439,-0.04604
0.083064,0.04458,0.091783,-0.31435,-0.11394,0.0026909,0.059427,0.067229
0.18841,-0.041171,-0.37443,0.2912,0.1998,0.04847,0.001942,0.071555
-0.11771,-0.042436,0.095639,0.1629,0.023528,0.0080684,0.014934,-0.056042
0.054748,-0.013453,0.024782,-0.031366,-0.032391,-0.0091211,-0.034156,0.012842
0.024796,-0.0080683,0.022525,-0.12567,0.024732,-0.0030543,-0.012304,-0.0030177
0.024957,0.10759,-0.0039951,-0.17489,-0.11755,-0.059561,-0.0053061,-0.0022837
0.014142,-0.095133,-0.24878,0.18611,-0.061113,-0.037822,0.010327,0.03025
0.01406,0.025138,0.37543,0.12574,0.19352,0.11711,0.089244,0.015957
-0.22626,-9.6068e-05,-0.33362,-0.32897,-0.18245,-0.06323,-0.065556,-0.069054
0.051074,0.047553,0.54603,0.64581,0.15401,0.015129,-0.048008,-0.0063247
-0.043319,0.034317,-0.12699,-0.35196,0.014713,0.024162,0.0088628,0.008777
0.00054787,0.021298,-0.15098,-0.46536,-0.077562,-0.028395,0.06579,-0.0079353
0.07601,-0.14933,-0.15266,0.20308,-0.060868,-0.0021726,-0.064898,-0.001396
0.20141,0.075694,0.0070512,0.060027,0.072159,0.071187,0.061995,0.075739
-0.066343,0.06255,0.053733,0.0053817,-0.022567,-0.050957,-0.037964,-0.026085
-0.10871,-0.16567,-0.020589,0.25982,0.037532,-0.017458,-0.005394,-0.025297
-0.11287,0.047632,0.19101,0.028298,0.041361,0.0073385,0.026956,-0.015516
0.10793,0.0081582,-0.20073,-0.34412,-0.12054,-0.023535,-0.011122,0.010983
0.052143,0.022022,0.10282,0.15097,0.036188,-0.0084028,-0.033579,0.007029
0.084822,0.036107,-0.0058996,0.099449,0.081916,0.053019,0.022172,0.042482
-0.061946,0.012762,-0.064432,0.21178,-0.0066398,-0.034212,-0.0079188,-0.039449
-0.10899,-0.047014,0.0062725,-0.49701,-0.088598,0.011519,0.0010577,-0.012739
-0.026626,-0.0099708,-0.067096,-0.042929,0.016082,0.018608,0.033269,0.012788
0.043705,0.061232,0.12879,-0.027575,-0.13748,-0.044078,-0.036585,-0.033465
-0.023071,0.0096691,0.21745,0.44004,0.27148,0.081224,0.072418,0.043737
0.015807,-0.06411,-0.31093,-0.13943,-0.084713,-0.043171,0.024074,0.0023557
0.098829,0.018452,0.22126,0.15671,0.11465,0.019979,-0.1114,-0.0010114
-0.10098,-0.0092757,-0.17993,-0.084775,-0.13793,-0.042082,-0.02917,-0.036173
0.10495,0.016072,-0.1171,-0.15218,-0.076591,-0.010787,0.0055423,0.038083
0.076853,-0.038583,0.058075,-0.49019,-0.20904,-0.065905,0.040225,-0.027662
-0.22377,0.014447,0.10424,0.6203,0.32403,0.11289,0.052143,-0.014177
0.070547,0.011664,-0.047335,0.09333,0.084797,0.0022485,-0.036194,0.00852
-0.055794,0.0085529,0.042825,-0.23571,-0.052344,0.00069838,-0.0055993,0.0014062
0.0063953,-0.048742,0.025151,0.13212,-0.002272,-0.0010429,0.011246,0.050187
0.14737,0.0045142,-0.020588,6.4105e-06,-0.086193,-0.026338,0.014143,0.037206
-0.094346,0.059297,-0.10899,-0.25871,-0.070491,-0.036052,-0.020841,-0.053773
-0.055313,0.021803,0.18213,0.25288,0.060027,0.032409,-0.008471,-0.059306
0.10757,0.040019,0.00075088,0.041539,0.10226,0.030733,0.011417,0.035743
0.089087,-0.089915,-0.13851,-0.1431,-0.14639,-0.04093,0.014678,0.012381
-0.087583,-0.0016636,-0.11205,-0.28493,-0.044407,-0.010549,0.024234,0.011284
-0.10981,-0.039748,0.22705,0.50793,0.21407,0.020442,-0.09296,-0.053159
-0.070769,0.029686,0.025886,-0.1767,-0.057292,0.028675,0.014737,-0.016365
0.077403,0.042402,0.041272,-0.071066,-0.01373,0.0063217,0.027378,0.044121
0.10156,-0.017021,-0.18821,-0.0403,-0.16242,-0.046726,0.023648,0.035051
0.010759,-0.030865,-0.13126,0.018737,0.090524,-0.013477,-0.019257,-0.0042126
-0.045529,0.017247,0.15795,0.17715,0.12754,0.043308,0.0086209,-0.0033205
-0.027643,-0.035907,-0.054248,-0.22927,-0.10694,-0.032919,-0.017298,-0.0015577
0.0176,0.09171,0.04533,0.25929,0.096779,0.046611,0.028183,0.00066045
0.050622,-0.036786,0.097677,-0.0074349,-0.051759,-0.023038,0.0043989,-0.028418
-0.085853,0.0086524,-0.0066406,-0.20357,0.00087057,0.015789,-0.026392,-0.018952
-0.0026033,-0.021898,0.14601,0.16873,-0.035286,-0.032247,-0.0020492,0.0052674
-0.0059059,-0.042696,-0.12464,-0.056252,-0.019931,0.0048537,0.037986,0.012819
0.074561,0.031776,-0.061199,-0.27779,-0.054324,0.010182,-0.015957,0.019346
0.16721,-0.002177,-0.14016,0.33234,0.11239,-0.0080576,-0.0077621,0.040665
-0.18968,0.10481,-0.071767,-0.19373,-0.042016,-0.010359,-0.031119,-0.040085
-0.07435,-0.054111,0.0045896,-0.29208,-0.12562,-0.019753,-0.038915,-0.027183
0.013801,-0.080987,0.3014,0.67942,0.21421,0.057799,0.078567,-0.0061351
-0.064631,0.0082623,0.038893,-0.09046,-0.014032,-0.01979,0.0013505,1.1536e-05
0.05915,0.0026089,-0.11002,-0.069677,0.010086,0.005178,-0.051594,-0.00065018
0.082112,-0.043168,0.026896,0.093588,0.059634,0.030834,0.036938,0.046686
-0.041265,0.16802,-0.23044,-0.86647,-0.37393,-0.076066,0.016729,-0.006485
0.17419,-0.035433,0.18721,0.67466,0.29445,0.098087,0.08268,0.050541
-0.06829,-0.036082,0.05176,0.25541,0.032702,-0.048636,-0.093843,-0.024763
-0.097328,-0.021197,-0.060425,-0.46871,-0.11289,-0.039867,-0.028941,-0.076509
-0.04668,-0.060909,-0.018195,0.34531,-0.0098198,-0.024024,0.011438,-0.019067
-0.026843,0.016782,-0.065068,-0.31102,-0.01743,0.022545,-0.074356,0.0067304
0.062672,0.016615,0.11847,0.20239,0.028612,0.022059,0.081008,0.032023
0.072587,0.079171,0.024425,-0.036588,0.081851,0.037385,0.001285,0.04113
0.025823,0.016811,-0.1202,0.15967,0.064608,0.037563,0.046236,0.026194
-0.14809,-0.053492,-0.072286,-0.16139,-0.2493,-0.11788,-0.041607,-0.028475
0.027572,-0.04603,-0.10408,-0.35033,0.10912,0.039768,0.01142,-0.037022
0.045411,0.039021,0.41065,0.51603,0.11653,0.033784,-0.021174,0.016117
-0.039324,-0.017148,-0.050492,-0.42032,-0.0943,-0.0033027,0.016791,-0.017491
0.039598,-0.019139,-0.033665,0.39646,0.046817,-0.0093039,0.0079648,0.018512
0.0093273,0.0098246,-0.06195,-0.34549,-0.22594,-0.05481,-0.032222,-0.01627
0.065712,0.015353,-0.25248,0.40848,0.16536,0.024049,0.0054452,-0.0043233
0.045205,0.044637,0.10552,-0.23298,0.12679,0.047516,0.0037045,0.046927
-0.20791,-0.027054,0.089852,0.23666,-0.03709,-0.023419,-0.029593,-0.065258
0.041351,-0.019847,0.067274,-0.27002,-0.091927,-0.0010902,0.077586,0.034451
-0.034517,0.0038424,0.10757,-0.082538,-0.029839,0.013184,0.013009,0.033783
0.10411,-0.010684,-0.14918,0.15748,0.063414,-0.019378,-0.051103,0.010964
-0.065917,0.022428,-0.047225,-0.23794,-0.13224,-0.020385,-0.059684,-0.065282
-0.029112,0.0092969,0.0068915,0.13752,0.070907,-0.00527,0.018861,0.00021331
0.057519,-0.018984,0.020942,0.18273,0.063573,0.0025985,0.012888,-0.011541
0.06758,-0.023522,-0.090758,-0.070464,0.0019004,0.026569,0.031805,0.01632
0.14759,0.065817,0.1801,-0.019826,0.065273,0.066397,0.036327,0.075596
