-0.052494,0.053263,0.25908,0.072661,0.096239,0.06502,0.00048536,-0.035937
-0.013857,-0.13388,-0.060276,-0.094032,0.042844,0.036216,0.022791,-0.0024872
0.048535,0.11751,-0.007194,0.093186,0.045281,0.031047,0.029357,0.038378
0.063186,0.080646,0.20601,0.070561,-0.023032,-0.044833,0.0046769,0.031817
-0.025831,-0.073141,-0.29669,-0.21803,-0.12465,-0.043543,-0.0042542,-0.0066493
0.030415,0.18667,0.086021,-0.016085,-0.049959,-0.098263,-0.075455,-0.030198
0.035948,0.023386,0.37851,0.19891,0.15341,0.20499,0.09585,0.031486
-0.30619,-0.5401,-0.76857,-0.30004,-0.030202,-0.063241,-0.044972,-0.079347
0.09051,0.050716,-0.070696,0.041816,-0.13922,-0.15244,-0.044779,0.020229
0.063103,0.24134,0.34318,0.22489,0.046266,0.078688,0.033884,0.033487
0.034952,0.11047,-0.0076925,-0.27368,-0.073874,0.013601,-0.012214,-0.015968
0.22638,0.41668,0.68397,0.71076,0.36891,0.16062,0.10583,0.10641
-0.18932,-0.56568,-0.50275,-0.43842,-0.16338,-0.073775,-0.010595,-0.036704
-0.15642,-0.16381,-0.24852,-0.28317,-0.19358,-0.11932,-0.11162,-0.14041
0.14599,0.1154,0.19389,-0.0025524,0.11441,0.062761,0.037114,0.076803
0.046164,0.179,0.1485,0.29484,0.17446,0.050151,0.0060598,0.021472
-0.096871,-0.08964,-0.4364,-0.015157,-0.060643,-0.07166,-0.032614,-0.04048
-0.02602,-0.0028884,0.02028,-0.33798,-0.19276,-0.037408,0.015229,0.016179
0.0702,0.18889,0.58466,0.29572,0.020172,0.098002,-0.0062923,0.019651
-0.012535,-0.22614,-0.20716,0.35491,-0.1249,-0.11079,0.0046083,-0.022395
0.037033,0.14133,-0.06745,-0.35596,0.15345,0.12537,0.024457,-0.00098684
0.12402,0.063248,0.05907,-0.32194,0.12878,-0.0058278,0.045091,0.083233
-0.21338,-0.28219,-0.5439,0.12778,0.058771,-0.090125,-0.020071,-0.043977
-0.077238,0.072593,0.33856,0.15593,-0.049229,-0.0023404,-0.046861,-0.063148
0.12614,0.10339,-0.085551,0.2064,-0.016312,0.14043,0.088875,0.087499
0.061167,0.013074,0.13405,0.15279,-0.32004,-0.099342,-0.11354,-0.069068
-0.10747,-0.12005,0.24377,-0.33409,0.15573,-0.081212,0.056493,0.0061069
0.019461,0.048298,-0.050442,-0.52826,-0.035285,-0.024265,-0.088431,-0.022627
0.067745,0.19071,0.17444,0.54691,0.27807,0.1726,0.061594,0.040683
-0.0010049,-0.33269,-0.66023,-0.021942,0.064153,0.047905,0.015257,0.0016198
0.055912,0.46319,0.3265,-0.022679,-0.16131,-0.023819,-0.015448,0.001814
-0.14396,-0.51489,-0.24315,0.13213,-0.092929,-0.074105,0.0095854,-0.043713
0.071496,0.25682,0.59633,0.13932,-0.049716,-0.032583,0.03652,0.061123
-0.0084613,-0.16693,-0.54123,-0.28096,0.017037,-0.015969,0.018994,0.035558
-0.11024,-0.0050839,0.0050809,-0.2605,-0.21094,-0.21873,-0.16007,-0.11246
0.15689,0.49197,0.34194,0.099651,0.33847,0.31329,0.18651,0.10125
-0.14459,-0.33246,-0.11087,-0.083507,-0.18518,-0.082961,-0.16066,-0.13633
0.11013,0.036951,0.059439,0.54838,0.35877,0.14009,0.14128,0.11158
0.014347,-0.087239,-0.17875,0.11068,-0.02305,-0.017325,-0.025864,0.00035849
-0.057604,-0.0012822,0.10495,-0.4146,-0.22345,-0.071099,-0.037997,-0.02554
0.10438,-0.14928,-0.3065,0.024775,-0.034282,-0.10785,0.033876,0.064387
-0.031802,0.15793,0.46457,-0.026298,-0.020792,0.012135,-0.09185,-0.074123
-0.013682,0.00029637,-0.055024,-0.17036,0.064902,0.077008,0.022364,-0.011576
-0.083777,0.043495,-0.43967,-0.00080874,-0.0047561,0.054796,0.056616,0.0099967
-0.015418,0.069811,0.49402,0.30436,0.067508,-0.015824,-0.02747,-0.024559
-0.058078,-0.092413,-0.11789,0.076099,-0.083697,-0.095752,0.0053188,-0.0051829
0.125,0.056144,-0.28869,-0.080474,-0.010115,0.042025,0.038633,0.061068
0.058164,-0.12662,0.053014,-0.56789,-0.13001,-0.039202,-0.051815,0.0029923
0.023447,0.16977,0.28962,0.48439,0.20091,0.028714,0.039152,0.024186
-0.07242,0.044569,0.19255,0.44598,-0.014337,-0.02674,-0.016368,-0.0079647
-0.096534,-0.30913,-0.56199,-0.82266,-0.10991,0.045103,-0.030932,-0.093539
0.028927,-0.010423,-0.0020048,0.22486,0.054937,0.041351,0.018594,0.017149
0.15491,0.23612,0.50806,0.313,0.087877,-0.022655,0.030151,0.081443
-0.12562,-0.093834,-0.1851,-0.35084,0.063732,0.016369,-0.020313,-0.057443
0.030316,0.038428,0.16463,0.5726,0.056223,0.016668,-0.016256,-0.0093936
0.0362,0.00029656,-0.44493,-0.37466,-0.16597,-0.12459,0.018294,0.06114
0.0090358,0.30037,0.39246,-0.31427,-0.15397,0.028916,-0.0030493,-0.0022878
-0.035245,-0.20837,-0.51615,0.31288,0.11266,0.085716,0.021028,-0.012118
-0.025515,-0.17229,0.29459,0.067524,0.070261,-0.032693,-0.026668,-0.022714
-0.13244,-0.12786,0.088277,-0.1283,-0.0068907,0.01761,-0.0052744,-0.072583
0.10627,0.052778,-0.39461,-0.077218,-0.1317,-0.082996,0.0075264,0.034271
-0.073835,0.028479,0.42156,0.19316,0.074925,0.072833,0.004492,0.0094419
0.11696,0.027612,-0.20196,-0.12501,-0.022931,-0.05266,-0.037227,0.017458
0.11607,0.28504,0.1889,0.04351,-0.1708,-0.091016,-0.023397,0.042825
0.016337,-0.14565,0.21737,-0.21877,0.19721,0.16188,0.085317,0.030586
-0.12911,0.13923,-0.13622,-0.041583,0.051533,-0.012188,-0.01578,-0.043326
0.084125,0.1205,0.06804,0.42783,0.16535,0.042996,0.040222,0.046803
-0.13478,-0.33063,-0.097309,0.18078,0.091296,0.0144,-0.012776,-0.074897
-0.068292,-0.20956,-0.54311,-0.30891,-0.21297,-0.075406,-0.073731,-0.049727
0.087795,0.13804,0.27478,-0.053116,-0.10267,-0.00081347,0.067896,0.036044
-0.088047,-0.03818,0.019868,0.13123,-0.065362,-0.028237,0.021352,-0.012814
0.17081,0.16927,0.0061138,-0.10355,-0.1031,-0.033128,-0.09595,0.069777
-0.16553,-0.049715,0.29884,-0.11164,0.12724,8.883e-05,-0.041275,-0.074858
0.19337,0.042203,-0.23923,-0.11267,-0.061132,0.0091863,0.053304,0.046242
-0.071697,-0.020812,-0.0034609,-0.082385,0.059917,0.018033,-0.084938,-0.011561
-0.046024,-0.041125,0.34431,0.30948,0.14069,0.050451,0.13818,0.0021788
0.14555,0.13892,-0.35891,0.16727,0.14373,0.09099,0.13669,0.064171
-0.028432,0.0040696,0.16034,-0.15468,-0.12536,-0.10265,-0.19938,-0.021032
-0.060545,0.0069476,0.057546,0.087948,-0.11949,0.00043842,0.089837,-0.019399
-0.14646,-0.22078,-0.28554,-0.25986,-0.065672,-0.029922,-0.0048148,-0.071988
-0.012956,-0.086813,-0.12767,0.07565,0.1291,0.024601,-0.047136,0.016109
0.04308,0.20427,0.66341,0.31282,0.073457,-0.01589,-0.08495,0.0024085
0.16235,0.026221,-0.47482,-0.033483,-0.10802,-0.010671,0.076702,0.06645
0.024584,0.01873,-0.010713,-0.17491,-0.048116,0.087557,0.25068,0.036352
-0.08908,0.05623,-0.13909,-0.58062,-0.12917,-0.14242,-0.4448,-0.11123
0.00072068,-0.18961,0.10904,0.42899,0.11052,0.018901,0.12455,0.022281
-0.042453,0.046928,0.25671,0.1119,0.046664,-0.0059852,-0.055268,-0.016111
0.062077,-0.015059,-0.1114,0.21817,0.14064,0.080113,0.071785,0.031477
-0.092441,-0.062629,0.10424,-0.32285,-0.14671,-0.0041776,0.13928,0.0087795
0.17338,0.25621,0.1433,0.11292,0.09803,0.099947,0.12377,0.087571
-0.17168,-0.21449,-0.20747,0.063116,0.045703,-0.077147,-0.13956,-0.10729
0.075839,0.13478,-0.10576,0.12767,-0.0079196,0.033897,0.0043405,0.041278
-0.020864,0.054023,0.057843,0.070814,-0.079259,-0.012959,0.10893,-0.029235
-0.078085,-0.23803,-0.41015,-0.49094,-0.231,-0.21796,-0.40476,-0.068681
0.061371,0.20402,0.33748,-0.018132,0.084298,0.12238,0.14278,0.079487
0.093624,-0.088328,0.070872,-0.15765,0.00065688,-0.045686,-0.13852,-0.029654
-0.066777,-0.11457,-0.072336,0.68669,0.17589,0.044741,0.32269,0.018331
-0.029164,0.11029,0.2792,-0.021268,0.03336,0.16059,-0.074043,-0.0028776
0.073199,-0.02252,-0.22336,-0.27102,-0.027474,-0.079999,0.10953,0.070796
-0.096528,-0.067321,-0.16512,-0.37311,-0.17823,-0.10635,-0.26722,-0.096853
0.054172,0.17112,0.36674,0.20445,0.11176,-0.020459,-0.017734,0.024894
0.023912,0.028126,-0.021471,0.39068,0.12238,0.16086,0.43432,0.052498
0.022301,-0.12245,-0.36539,-0.082138,-0.062273,-0.025126,-0.24935,-0.046089
-0.076714,0.022603,0.22058,0.2594,-0.022283,0.013243,0.014783,0.0096537
0.023143,0.055496,-0.057508,-0.69775,-0.18122,-0.14788,-0.22042,-0.030793
-0.053157,-0.087513,-0.070899,0.16017,0.10046,0.20884,0.60684,0.019868
0.030891,0.030448,0.20898,0.05721,0.072521,-0.10459,-0.54164,-0.041308
0.065445,-0.0044756,-0.078176,0.41418,0.13406,0.021873,0.047571,0.090925
-0.0027028,0.18383,0.27951,-0.24483,-0.21348,-0.12869,-0.34042,-0.020038
-0.054711,-0.47305,-0.62155,-0.37067,-0.077487,-0.069135,0.21299,-0.021517
-0.0030492,0.1757,0.050736,0.2355,-0.026109,0.031854,0.26681,-0.0060587
-0.065173,0.20286,0.23849,-0.28945,0.14572,0.10698,0.082001,-0.081923
0.056579,-0.084869,0.0165,0.43324,0.17371,0.09593,-0.05893,0.07204
0.049837,0.048065,0.099214,-0.04689,-0.074468,0.0073629,-0.11011,-0.028153
0.031224,-0.093578,-0.10519,0.044549,-0.13836,-0.065681,0.15193,0.062632
0.038624,0.090692,0.12203,-0.059069,0.027604,-0.023807,-0.13678,0.031123
-0.093605,0.044162,0.036866,0.28015,0.10908,0.12197,-0.090778,-0.022395
-0.0077785,-0.056069,-0.23118,-0.25416,-0.12251,-0.038202,0.36328,0.0020702
-0.010055,-0.056405,-0.029925,-0.33801,-0.020554,0.031467,-0.1765,-0.014247
0.031395,0.12688,0.12872,0.17345,0.069893,-0.33539,-0.57104,-0.0023036
-0.024383,-0.20292,0.17107,0.28571,0.062323,0.18063,0.4693,-0.040922
-0.059843,-0.038295,-0.045539,-0.25185,-0.18367,-0.10739,-0.22492,-0.044145
0.027511,0.10583,-0.38871,-0.0084888,0.082867,0.091533,0.15473,0.0122
0.043666,-0.019033,0.10376,0.14335,0.019634,0.24111,0.51872,0.051292
0.044713,0.050007,-0.088916,-0.19132,-0.01229,-0.13995,-0.35557,0.020044
0.016271,0.16647,0.52889,-0.016585,0.012164,-0.080087,-0.19953,0.0059747
-0.064203,-0.19927,-0.47674,0.14736,0.070832,0.055608,-0.019308,-0.036525
-0.040037,0.039732,0.33474,0.11525,-0.069954,-0.091204,-0.025721,0.018261
0.041819,-0.014619,-0.11283,-0.041804,-0.042973,0.034008,0.22518,0.0063239
0.024588,-0.057966,-0.14686,0.034951,0.049584,0.078363,-0.08958,-0.0026273
-0.053534,0.018213,0.13833,-0.11726,-0.035651,0.00052527,0.17492,-0.0097336
0.056384,0.13462,0.04586,-0.11038,0.090421,-0.030489,-0.024213,0.046042
0.040744,0.032173,0.065783,0.17003,0.0043125,0.16986,0.043933,0.0069291
-0.085792,-0.07927,-0.15568,0.002889,0.0093031,-0.17441,-0.38872,-0.058065
-0.011407,-0.098873,0.051509,-0.027431,-0.12993,-0.14305,0.075316,-0.056059
-0.017671,-0.050314,-0.2826,-0.069928,-0.038701,0.17757,0.10861,0.012653
0.075173,-0.08962,-0.033469,-0.32733,-0.013503,-0.14131,-0.15379,0.031182
-0.0058993,0.25251,0.23655,0.389,0.17322,0.019547,0.1586,0.039403
-0.041484,0.031424,0.24667,0.10395,0.046294,0.18644,0.3386,0.022857
0.023871,0.06802,0.29431,0.029893,-0.11926,-0.1453,-0.39929,0.006298
-0.059098,-0.23109,-0.82324,-0.14462,-0.079819,0.019365,0.14305,-0.10276
0.093008,0.095131,0.30046,-0.028438,0.11106,0.081002,-0.12651,0.017044
-0.027268,-0.10181,-0.24858,-0.098135,-0.046033,-0.1625,-0.2155,0.0069911
0.017668,0.19356,0.47491,0.20833,0.027,0.15584,0.42184,0.031345
-0.053575,-0.20636,-0.20104,-0.25822,-0.068929,0.065871,0.033178,0.019499
0.03215,0.11249,-0.04212,0.26699,0.16502,-0.1925,-0.29871,0.0019732
0.06357,0.048698,0.18606,-0.044913,-0.030455,0.12796,0.3446,0.071489
-0.076772,-0.11617,-0.2429,-0.053813,-0.016203,0.055805,-0.071283,-0.077765
-0.021804,0.032302,0.11665,0.083916,-0.051235,-0.12207,-0.32983,-0.063975
-0.029273,0.0022861,-0.10975,-0.23297,-0.058061,-0.016261,0.075883,-0.005019
0.088537,0.020542,0.188,0.090012,0.018069,-0.033122,0.099586,0.059767
-0.058725,-0.077041,-0.30971,0.022622,-0.017415,-0.038856,-0.14742,-0.049165
-0.025531,0.099798,0.32743,0.042496,-0.022661,-0.00042378,0.19705,0.020202
0.047532,-0.035545,-0.25181,0.025526,0.089677,0.10777,-0.035784,0.0028584
0.082136,0.24262,0.33534,0.058146,0.023972,0.092471,-0.077561,0.05565
-0.031529,-0.31663,-0.21626,-0.28936,-0.054918,-0.068266,0.1439,-0.016288
-0.036228,0.020339,-0.12608,0.28712,0.13444,0.0090841,0.051151,0.029455
0.020596,0.089083,0.2222,-0.010315,-0.080287,0.019688,-0.043845,-0.025866
0.036988,-0.032196,0.17149,-0.096997,-0.051576,-0.068578,-0.25204,-0.041773
-0.16684,-0.046086,-0.37248,0.11172,0.055343,-0.022681,0.041517,-0.034104
0.042172,0.04047,0.011967,-0.15083,-0.08097,0.015253,0.50629,0.043818
-0.015181,-0.068405,-0.065586,-0.11964,-0.023875,-0.010829,-0.38328,0.0043604
0.044518,0.034419,0.12188,0.2521,0.077746,0.062132,-0.097401,-0.0040997
0.073339,0.10732,0.043632,-0.15232,-0.072971,-0.11012,-0.16003,-0.012814
0.063735,0.072315,0.29379,0.19922,0.13376,0.089654,0.25737,0.064183
-0.093715,-0.10993,-0.28378,-0.11401,-0.10603,-0.033302,0.046666,-0.046499
-0.00088132,-0.041495,-0.06423,-0.12983,0.075688,0.23295,0.18617,0.030201
-0.017566,-0.035447,-0.04004,0.12161,-0.0076856,-0.24311,-0.17375,-0.033748
0.027737,0.12659,0.22603,0.00059312,-0.0037962,-0.092881,-0.25002,-0.0038236
0.0098813,-0.063211,0.093289,0.17173,-0.076097,0.0052533,0.12278,0.034242
-0.13348,-0.12792,-0.5084,-0.23983,-0.099246,0.0053728,-0.046825,-0.083368
0.019978,0.042515,0.14796,-0.023371,0.16115,0.3219,0.46765,0.049838
0.064616,0.019231,0.0081771,0.0001998,0.056292,-0.18616,-0.56127,-0.019096
0.06355,0.13105,0.22111,0.11124,0.0073839,-0.043394,0.14602,0.061423
-0.0062247,-0.0044961,0.20877,0.097717,-0.080249,-0.017177,0.42334,0.0099941
-0.035211,-0.01251,-0.27908,-0.12749,-0.03573,-0.054864,-0.66899,-0.072162
0.015426,-0.081106,-0.00080864,0.075142,0.069754,0.40411,0.55467,0.0097815
-0.0032753,-0.062857,-0.16023,-0.15461,-0.053436,-0.15728,-0.070908,0.10684
-0.037328,0.048825,-0.00020881,0.042175,0.039859,-0.3255,-0.3818,-0.12524
0.068798,0.2449,0.36156,0.17333,0.013993,-0.029669,0.076005,0.039741
-0.083934,-0.22568,-0.23144,-0.13567,-0.10694,0.067671,-0.031667,0.015685
-0.066211,-0.074486,-0.09957,-0.16528,-0.079876,0.10937,0.18024,-0.11139
0.17655,-0.043931,-0.055246,0.038557,0.12726,0.12126,0.08116,0.10409
-0.089903,0.1553,0.27667,0.16416,0.1479,-0.050846,0.00096377,-0.0093312
-0.013675,0.094152,0.013499,0.11831,-0.048987,-0.069712,-0.14533,0.0097134
0.038457,-0.13276,-0.079058,-0.15354,-0.033896,0.096196,0.1892,0.0053731
-0.011194,0.069299,0.092867,0.14529,-0.010441,-0.061643,-0.24618,-0.0064205
0.064329,-0.10342,-0.2908,-0.063661,-0.026104,0.064656,0.25822,0.03704
-0.054972,-0.0094773,-0.042137,-0.21033,-0.04234,-0.10494,-0.30681,-0.059425
-0.032934,0.070473,0.30828,0.20534,-0.035976,-0.0098559,0.50286,0.016772
-0.041309,0.035196,-0.098109,-0.33964,-0.014777,-0.065705,-0.74323,-0.08586
0.060545,-0.10745,-0.06513,0.19455,0.13878,0.2969,0.35309,0.070233
0.022527,0.18919,0.15797,0.12129,0.0033091,-0.27378,0.018544,0.024126
0.031913,-0.13775,-0.14702,0.05065,0.024678,0.011857,-0.035529,0.01794
-0.083509,0.01281,0.051365,0.0064099,-0.093535,-0.024786,0.16003,-0.0188
0.035228,-0.023614,-0.043856,-0.12878,-0.077594,0.13327,0.17578,0.0073981
0.012702,-0.020799,0.066872,0.019432,0.064774,-0.059499,-0.41009,-0.044412
0.0048111,0.044477,-0.046874,-0.034291,0.075629,0.10889,0.24608,0.028569
-0.027718,-0.046657,-0.0032422,-0.0020137,0.040585,-0.048468,-0.223,-0.00049599
-0.0067719,0.0025924,-0.061149,0.037058,-0.072068,-0.086155,-0.082935,-0.022408
0.020992,0.1062,0.13764,0.097678,-0.067542,0.13611,0.26797,0.025286
0.009126,0.029665,-0.0016573,-0.18789,-0.024463,-0.1245,-0.060629,0.017668
-0.018352,0.046309,0.059185,0.188,0.14269,0.014065,0.048743,-0.029451
-0.021742,-0.22675,-0.12561,-0.17288,-0.07416,-0.042721,-0.03648,-0.006446
-0.023906,-0.086368,-0.22017,0.050304,0.020156,0.040414,0.027577,-0.0068162
0.038052,0.076983,0.13528,0.0067136,-0.02747,-0.010504,-0.20443,-0.02256
0.054876,0.20882,0.2696,-0.0060001,0.048724,0.1713,0.22826,0.071392
-0.028315,-0.065663,-0.12875,0.12223,-0.047898,-0.21916,-0.22158,-0.021914
0.0067447,-0.058831,-0.14468,-0.14717,-0.035774,0.052305,0.30499,0.017617
0.042195,0.15904,0.14468,0.029816,0.085446,0.04816,-0.27853,-0.013443
-0.071127,-0.19328,0.021413,0.1454,0.019245,0.088863,0.10548,0.017419
-0.068225,-0.0064157,-0.029454,-0.11304,-0.062171,-0.059575,0.36286,-0.030616
0.050485,-0.030246,-0.21063,-0.15978,-0.064765,-0.14651,-0.49875,-0.032562
0.034857,0.086984,0.15774,0.22376,0.08199,0.032078,0.091157,0.019602
-0.013429,0.040837,-0.049497,-0.11877,-0.012397,-0.014977,-0.062174,-0.014352
0.038769,0.034668,0.19065,0.015732,0.058368,0.12741,0.034276,0.022334
-0.065905,-0.17358,-0.10693,0.080457,-0.018254,-0.00087086,0.16269,0.005159
0.048049,0.10357,0.11153,-0.049487,-0.031426,-0.016528,-0.097986,-0.0030057
-0.025153,-0.032561,-0.24871,0.032264,-0.082859,-0.021093,0.19025,0.029242
0.01174,0.0035695,0.030214,-0.064839,0.053827,-0.046244,-0.22251,-0.0075759
0.018356,0.10984,0.088298,-0.028288,0.034659,0.071259,0.13999,0.011203
-0.052068,-0.019025,0.073655,0.06369,0.031222,-0.060302,-0.25413,-0.047725
-0.019865,-0.1492,-0.099633,0.062413,-0.0506,-0.0046372,0.18806,0.010413
0.11483,0.054916,-0.056243,-0.1419,-0.03156,0.0027189,-0.073322,0.0054505
-0.0075534,0.06978,0.22782,0.090799,0.080053,0.093638,0.10942,0.030812
-0.090399,-0.073155,-0.15301,0.002003,0.0025474,0.048794,0.017056,-0.046444
0.0066769,-0.006263,-0.088632,-0.057479,-0.06909,-0.10067,0.071289,-0.007498
-0.0056166,-0.0024032,-0.054985,0.028839,0.029086,-0.14341,-0.29797,-0.00056908
0.028761,0.095253,0.29992,0.112,0.023799,0.085515,0.066111,0.037136
-0.0075896,-0.11129,-0.16437,-0.081621,-0.045428,0.0013311,0.039392,-0.0034827
0.0022836,0.034403,0.028569,-0.05962,0.0018288,0.034981,0.044675,-0.0050529
0.050306,0.055689,0.073721,0.061526,0.018048,0.054717,0.043679,0.01685
-0.027844,-0.00090118,-0.14654,-0.029541,-0.019249,-0.032554,-0.033487,-0.031607
0.0098279,0.028223,0.12525,-0.19075,-0.023288,0.015486,0.024058,0.036911
-0.00078619,-0.13082,-0.21266,0.15754,0.05336,-0.020311,-0.049847,-0.012151
-0.059511,0.13892,0.26956,0.18072,-0.039148,-0.039185,-0.0060968,-0.014831
0.013773,-0.1234,-0.20114,-0.11249,0.097343,0.090673,0.083963,-0.0023348
0.047846,0.035814,-0.03823,0.0517,0.016853,0.063612,0.21942,0.025563
-0.04244,0.023621,0.25891,-0.12381,-0.094039,-0.22265,-0.46747,-0.055742
-0.045383,-0.057473,-0.16863,0.055547,-0.0019431,0.028432,0.085751,0.0042449
0.0083388,-0.050361,-0.023776,-0.075369,-0.04366,-0.0034022,0.098271,0.0107
0.040818,0.029837,-0.017706,0.044676,0.022406,-0.0052883,-0.35099,-0.01258
0.090899,0.12058,0.052061,0.0081548,0.024126,0.11702,0.52007,0.082963
0.056374,0.088367,0.1533,0.040477,0.00064558,0.0045955,-0.076938,-0.0075264
-0.1262,-0.028941,-0.043241,-0.031143,0.030438,0.087427,0.13954,-0.026682
-0.051591,-0.11566,-0.069818,0.058349,0.020276,-0.056236,-0.088394,-0.0063889
0.013685,0.029916,-0.052071,-0.04277,-0.037062,-0.12168,-0.30792,-0.017648
-0.0090296,-0.10885,-0.013519,-0.0060959,-0.031627,0.016156,0.082179,-0.0063705
0.012985,-0.024463,-0.12551,-0.065311,-0.048877,-0.087879,0.01141,0.0036216
0.056642,0.088189,0.081734,-0.016289,0.09901,0.082151,0.011061,0.012223
-0.057051,0.011449,0.12507,0.0718,-0.0018995,0.096952,0.14384,-0.019451
0.032167,0.074946,-0.049019,-0.026535,0.0076952,-0.035303,-0.05875,0.010569
0.020507,-0.063465,0.18526,0.041065,-0.028713,-0.017531,-0.065301,0.0090695
-0.028778,-0.011777,-0.17181,0.087484,0.01349,-0.01383,0.046026,3.5962e-05
-0.0058328,-0.0034631,0.027941,-0.027986,-0.030199,-0.0010688,0.14999,0.015163
-0.012078,-0.046087,-0.1146,-0.18085,-0.050834,-0.0032338,-0.17569,-0.039044
0.022585,0.070824,0.024646,0.11249,0.068409,0.041468,-0.0017488,0.024929
0.050755,0.096154,0.17124,-0.00042815,0.006953,0.015101,0.023003,0.019362
-0.06894,-0.13575,-0.2304,-0.036091,0.022465,-0.059556,-0.11727,-0.024915
-0.0092239,-0.0016936,0.084608,0.06735,-0.01007,0.012349,0.17115,0.0087571
0.072847,0.090384,-0.0014175,-0.026406,-0.012404,-0.050617,-0.096022,0.010464
-0.034302,-0.079543,0.089381,0.018563,-0.015524,0.040712,0.10484,-0.012422
-0.03417,0.050425,0.044499,-0.00053803,-0.011236,-0.017999,-0.1167,-0.02109
-0.028377,-0.035127,-0.057669,-0.067477,-0.030344,0.015952,0.13015,0.0078875
0.030192,-0.08518,-0.14624,-0.10336,-0.025542,0.096275,0.056483,0.012249
0.032647,0.1285,0.14684,0.1582,0.12068,-0.0499,-0.22035,-0.015373
0.010864,-0.1108,-0.1461,0.0068571,-0.021218,-0.070513,0.0029981,0.0037218
-0.018868,-0.0041858,0.046437,0.0054036,0.033069,0.050471,0.047138,0.0076305
-0.024683,0.051535,0.030248,0.091279,-0.04482,-0.069455,0.021767,-0.010941
0.056417,0.096344,0.14991,-0.11087,-0.044272,0.05429,0.13031,0.042108
-0.064285,-0.065027,-0.1957,-0.007806,0.03441,0.038981,-0.087967,-0.036214
0.027465,0.12911,0.18086,-0.053163,-0.012083,-0.029484,-0.007986,0.011812
0.019207,-0.0023871,-0.033355,0.041768,0.011541,0.0049672,-0.08296,0.021834
-0.026648,-0.35193,-0.26883,-0.020019,-0.058649,-0.05329,0.030621,-0.04563
-0.02435,0.19595,0.22351,-0.011872,0.004126,-0.0015657,-0.05044,-0.0035497
0.04146,0.03054,-0.010429,0.050814,0.051629,0.081483,0.19679,0.046073
-0.00141,0.018296,-0.02616,0.012052,0.037074,-0.046913,-0.087618,-0.022107
0.0029533,-0.020536,0.011605,0.036096,0.022872,0.10487,0.056702,-0.0051708
-0.00047175,0.023963,0.055582,-0.0019946,-0.04592,-0.15895,-0.11287,-0.0047383
-0.027611,-0.15191,-0.18345,-0.094499,-0.03686,0.13009,0.12218,-0.0051048
-0.0083985,0.085841,0.16956,-0.046317,0.010609,-0.15307,-0.2928,-0.013904
0.025743,0.01176,-0.096093,0.11102,-0.013169,-0.0082204,0.14248,0.031594
0.0044062,0.032899,0.012109,-0.013415,0.024518,0.17445,0.076906,0.0066217
0.044764,0.12617,0.14297,0.033266,0.014414,-0.018521,0.050032,0.044194
-0.048433,-0.099193,-0.1094,-0.053756,-0.0119,-0.094265,-0.054913,-0.058652
-0.079743,-0.018704,0.075652,0.07712,-0.0070613,-0.0052368,0.074861,-0.02054
0.10727,-0.015907,-0.098469,-0.066056,-0.0095779,0.1007,0.048902,0.02582
-0.034061,-0.09154,-0.12372,-0.021917,-0.018937,-0.15102,-0.30454,-0.036678
0.019919,0.011619,0.078159,-0.11023,0.019907,0.1148,0.15527,0.034205
-0.035288,0.019767,0.03058,0.028916,0.0055068,-0.015928,-0.094954,-0.0037192
0.050463,0.19058,0.23334,0.19279,0.039249,-0.012255,0.16366,0.021345
-0.019603,-0.093086,-0.040517,0.014297,0.0034925,0.023742,-0.029816,-0.0079558
-0.02668,-0.15136,-0.32269,-0.038018,-0.032096,-0.072684,-0.09743,-0.021552
0.0058076,0.1801,0.11296,-0.11309,0.002086,0.057085,0.14011,0.019338
0.030958,0.01102,0.19593,0.077495,0.011669,0.021707,-0.044306,0.020694
-0.029432,-0.14258,-0.18308,-0.060624,-0.019362,0.05499,0.19245,-0.0020575
-0.027075,0.047881,0.031053,0.011157,-0.036396,-0.13244,-0.31418,-0.064622
0.014353,-0.073422,-0.10633,-0.02768,-0.0079278,-0.0015017,0.0059058,0.0049313
0.016392,0.10325,0.069605,0.018225,0.043127,0.049694,0.059089,0.027094
0.025506,0.0077874,0.075143,0.016306,-0.0075595,-0.071991,-0.076042,-0.0056884
