0.16792,0.014287,-0.10207,-0.044585,0.021054,-0.019068,-0.034123,0.033046
-0.062461,-0.02272,0.11438,0.0044931,-0.011269,0.026259,0.12919,0.06171
0.02041,0.041926,0.032735,0.12371,0.035985,0.018535,0.043711,0.023111
-0.24861,-0.13578,-0.066226,-0.05452,0.022092,0.035949,0.16041,-0.013763
-0.08163,-0.063815,0.075007,-0.022851,-0.014346,0.046894,0.23333,0.066474
0.20007,0.13278,-0.1999,-0.0082462,-0.0037246,-0.019627,-0.32021,-0.042737
0.22092,0.032206,0.031076,-0.065641,-0.040568,-0.070699,0.018944,-0.046005
-0.11282,-0.11544,0.13551,0.047135,0.015095,-0.052408,-0.60382,-0.17062
-0.15209,-0.021177,0.01237,0.08033,0.014462,0.026902,0.18536,0.060174
-0.044153,0.11145,-0.064335,-0.19993,-0.11277,-0.036081,0.22328,-0.0087881
0.032887,-0.14811,0.054369,0.293,0.094715,0.079112,0.098375,0.092895
-0.067735,0.10507,-0.15454,-0.13539,0.036021,0.029156,0.11091,0.023274
0.10852,0.12722,0.10608,-0.062402,-0.030237,-0.036945,-0.095083,-0.02084
-0.031283,-0.16905,-0.085582,0.012701,-0.0017242,0.0063897,0.053461,0.06296
0.32535,0.52014,0.3173,-0.12051,-0.026288,0.019028,-0.18404,0.071581
-0.11931,-0.41415,-0.31822,0.21003,0.044804,-0.037752,0.1068,-0.15978
-0.28083,-0.086971,0.10929,-0.05839,-0.03069,-0.030971,-0.12168,-0.08552
0.20619,-0.15841,0.029521,0.19082,0.059337,0.062795,0.33988,0.1991
-0.12091,0.025413,-0.010464,-0.22296,-0.060776,-0.030055,-0.08067,-0.018202
-0.075917,0.0096238,-0.16656,0.035112,0.022214,0.010506,-0.29906,-0.089916
0.067017,0.0027296,-0.03988,-0.098538,-0.028465,0.012248,0.027378,-0.047591
0.049966,0.0080069,0.14336,0.00018883,0.0052224,-0.0252,-8.4998e-05,-0.023688
-0.1736,-0.068348,0.0082322,0.041626,0.021236,-0.00060245,-0.076318,-0.0095052
0.39693,0.629,0.25756,0.16614,0.011598,0.046748,0.33871,0.17585
-0.018995,0.053118,-0.18751,0.19415,0.023366,-0.016051,0.097728,0.088312
-0.32692,-0.3691,-0.054502,-0.42859,-0.067956,-0.056114,-0.3607,-0.24761
-0.02618,-0.13355,-0.078822,-0.12321,-0.035047,0.0049033,0.034462,0.028186
0.1339,0.31202,0.26998,-0.044994,-0.02545,0.011083,0.12728,0.087911
0.23998,-0.5548,-0.32885,0.47115,0.11797,0.048741,-0.051109,0.072181
-0.30866,0.13142,-0.25036,0.16059,0.1147,0.016664,0.13168,-0.058325
0.20762,0.29658,0.66187,-0.14774,-0.12852,-0.045827,-0.17652,-0.093053
-0.23369,-0.35462,-0.64664,-0.2579,-0.041247,-0.037056,0.0079706,-0.03241
-0.053669,0.10534,0.75381,-0.51326,-0.1002,0.0038647,0.075165,0.0060338
0.11536,0.043318,-0.30894,0.81289,0.10817,0.014222,-0.26454,0.0062912
-0.023521,-0.033975,-0.23383,-0.61565,-0.026266,0.048357,0.21496,0.077344
0.10712,-0.56856,0.15062,0.77068,0.1674,0.027725,0.10702,0.11717
0.47467,0.69511,0.44602,-0.38872,-0.077507,0.092549,0.30191,0.19558
-0.59458,0.35731,-0.2296,0.0060772,-0.12129,-0.30434,-0.75531,-0.52385
-0.10267,0.066246,-0.55406,0.28154,0.17603,0.11039,0.34156,0.036611
0.15956,0.074114,-0.016779,-0.16519,-0.045098,0.079015,0.28805,0.20489
-0.090405,-0.36198,0.04165,-0.33467,-0.081152,-0.10131,-0.50119,-0.19093
0.092205,-0.25029,0.27251,-0.16398,-0.11088,0.069731,0.24039,0.14607
0.23108,-0.15826,0.56812,0.082546,-0.054867,-0.0091188,-0.056373,0.13003
-0.15719,-0.077386,-0.6966,0.74268,0.2914,0.060734,-0.023079,-0.0359
-0.14921,0.23417,0.39811,-0.73634,-0.19595,0.068347,0.41948,0.10925
0.19438,0.094993,0.0047101,0.58451,0.18677,-0.18174,-0.53263,-0.28595
-0.29637,-0.25733,-0.27226,0.05764,0.072297,-0.025694,0.011493,-0.11179
0.16931,-0.059319,-0.10954,-0.42633,-0.079158,0.098774,0.16879,0.11668
-0.048029,0.12404,-0.081359,0.022447,-0.034336,-0.027226,0.086923,0.017387
0.26297,0.44357,0.63821,-0.62099,-0.23195,0.049413,0.038125,0.20831
-0.030949,-0.1188,-0.50552,0.67244,0.12382,0.0084913,0.013172,-0.028666
-0.11853,0.42878,0.091273,-0.14687,0.0010698,-0.009139,-0.059613,-0.068163
-0.14224,-0.85678,-0.10629,0.67578,0.094807,-0.13599,-0.4313,-0.19141
0.005191,0.40561,0.016582,-0.13612,-0.024623,0.057947,0.31158,0.093466
0.13416,0.15004,-0.042235,-0.7099,-0.14608,0.041652,0.22362,0.098361
0.0085002,-0.23569,0.23004,0.68797,0.20727,0.0027073,-0.20271,-0.0291
0.056647,-0.048466,-0.069516,-0.37078,0.066925,0.042542,-0.08407,-0.00077589
-0.19076,-0.32313,0.036688,-0.1713,-0.074646,0.0045621,0.095638,-0.0050776
-0.038307,0.011904,-0.12467,-0.019952,-0.052999,-0.033597,-0.014834,-0.019333
0.2336,0.48576,0.41151,-0.56554,-0.18005,-0.041195,0.12363,-0.028409
0.063966,-0.10363,-0.27408,0.48831,0.13098,0.059499,0.20619,0.11601
-0.084249,-0.55858,-0.077891,0.47533,-0.025106,-0.075426,-0.50178,-0.10922
-0.15397,0.57574,-0.22411,0.77313,0.25123,0.046353,0.13243,0.015343
-0.080222,0.048581,0.60339,-0.97089,-0.28903,-0.035688,-0.023829,-0.017091
-0.040479,0.050838,-0.51183,-0.19092,0.010959,-0.024066,0.17843,-0.01785
0.19342,-0.29317,-0.5077,0.17632,0.11218,0.089704,0.044794,0.076714
0.036184,0.39505,0.96081,-0.33829,-0.12659,-0.04535,-0.25956,-0.052785
0.09673,-0.024101,-0.38512,0.85118,0.31686,0.055535,0.0086863,0.023889
0.14699,0.12929,0.23088,-0.72232,-0.24666,-0.02939,0.045759,0.033382
-0.1043,-0.60456,-0.11018,0.14094,0.048153,0.012234,0.28181,0.10032
-0.36274,-0.15967,0.18787,0.136,0.051143,-0.023069,-0.2364,-0.17448
-0.02113,0.079925,-0.21696,0.0078095,-0.051399,-0.042024,0.013801,-0.018552
0.083039,0.40509,-0.18285,-0.51185,-0.10367,0.0017298,-0.0079072,-0.018861
0.18338,-0.11768,0.22051,0.48202,0.027549,0.037402,0.11096,0.12052
-0.056073,-0.20223,-0.43635,0.18357,0.069991,-0.013533,-0.17807,-0.08555
0.029234,0.05413,0.36983,-0.83929,-0.20126,0.059571,0.28777,0.13589
0.072911,0.22412,0.099459,1.0337,0.27806,-0.024712,-0.18762,-0.0044163
0.09148,0.40126,0.4315,-0.56444,-0.099982,-0.016422,-0.21369,-0.12348
-0.28138,-0.29239,-0.58014,0.51188,0.13421,-0.009217,0.18668,0.0057379
-0.10741,-0.17429,0.025012,-0.10972,-0.089575,-0.057571,-0.10264,-0.076969
0.028008,-0.086264,-0.12797,-0.45916,-0.10012,0.010695,0.036815,0.019868
0.22677,0.23192,0.0086085,0.12898,0.11703,0.10217,0.31716,0.17204
0.19986,-0.074905,0.21753,0.071459,-0.048915,-0.017212,-0.18262,-0.0027123
-0.17798,-0.35144,-0.09295,0.076496,0.010121,-0.034692,-0.079308,-0.090083
-0.11027,0.16999,-0.030117,-0.10569,-0.019282,-0.020418,-0.044747,-0.035503
-0.097426,0.18154,0.28283,0.10616,0.057867,0.072576,0.25679,0.11376
0.10244,-0.1775,-0.051379,-0.74338,-0.17217,-0.052552,-0.12805,-0.0021761
-0.034149,-0.032991,-0.28247,0.92283,0.11964,-0.052058,-0.23845,-0.11039
0.11797,-0.10531,-0.090824,-0.34922,-0.042009,0.011512,0.019416,-0.031528
-0.026758,0.1879,-0.025026,0.36026,0.10202,0.044313,0.13796,0.015531
-0.0069648,0.40298,0.39668,-0.68737,-0.2206,-0.016323,0.1174,0.069942
-0.033157,0.10927,-0.024331,0.70392,0.27983,0.063734,-0.050037,0.014753
-0.081573,-0.20402,0.19262,0.1336,-0.021687,-0.012689,-0.028694,-0.0013192
0.13701,-0.23613,-0.37011,-0.54344,-0.071002,-0.01151,0.016772,-0.0014782
-0.018071,-0.0063674,-0.10608,0.2527,0.044955,-0.018883,0.03083,-0.024658
0.015448,-0.41564,-0.079649,-0.67207,-0.19062,-0.073941,-0.12025,-0.0083553
-0.15346,0.19919,0.044574,0.71516,0.11176,0.010925,-0.04665,-0.054237
0.084064,-0.2084,0.1971,0.0032159,0.037169,0.048478,0.10269,0.079704
0.18061,0.43268,0.4268,-0.3501,-0.12581,0.054701,0.11673,0.065131
-0.13774,-0.01021,-0.42745,0.12282,0.099292,-0.016918,0.02707,-0.043461
-0.090052,0.17258,-0.15121,0.2276,0.048682,-0.05672,-0.30613,-0.12901
-0.059256,0.15767,-0.03757,-0.2596,-0.02712,0.0057638,0.040082,0.042813
0.17353,-0.28594,0.049935,0.22012,0.052255,0.029907,0.10594,0.073634
0.085238,0.44636,0.20041,-0.17971,-0.13433,0.0077531,0.040921,0.010451
-0.057979,-0.49289,0.14271,-0.23496,0.007578,0.0015544,0.0019544,-0.013757
-0.24765,-0.0033939,-0.24704,0.20781,0.025452,-0.028054,-0.042062,-0.084767
0.20438,-0.37215,-0.031527,0.27755,0.075936,0.0045695,0.12722,0.086621
-0.045023,0.062533,0.037708,-0.48421,-0.14552,-0.025819,0.032381,0.0083135
0.020154,0.19149,-0.12805,0.57947,0.16564,0.013435,-0.26518,-0.054011
0.0094104,-0.20284,0.23304,-0.094844,-0.0065859,0.059773,0.1397,0.055911
0.016288,0.24695,-0.24285,-0.056278,-0.0064802,-0.058647,-0.17574,-0.076002
-0.03005,0.38198,0.32246,-0.46406,-0.092386,0.017669,0.13172,0.018954
0.010264,-0.17945,0.057468,0.33496,0.00091698,0.0076568,0.14004,0.020395
-0.051121,0.28583,-0.22861,-0.15415,-0.0158,-0.041567,-0.14277,-0.017088
0.14439,-0.38569,0.0015355,-0.027237,0.021632,0.049971,0.064973,0.093898
-0.036557,-0.00060451,-0.11903,0.12845,0.02763,0.001329,-0.033013,-0.045174
-0.15664,-0.084755,0.16205,0.27326,0.041775,-0.015302,0.001463,-0.043716
0.042154,0.079633,-0.088537,-0.0068086,0.025585,-0.0074434,-0.018392,0.004575
0.13071,0.080599,0.017467,-0.09394,0.0030357,0.0095096,0.033076,0.029533
-0.15588,-0.27101,-0.10792,-0.54174,-0.22078,-0.065889,-0.054548,-0.085823
-0.020052,0.035207,-0.0612,0.34651,0.13559,0.055368,-0.015329,0.018068
0.046379,-0.15081,0.090724,-0.084042,-0.029504,-0.0098006,0.088258,0.044395
-0.019202,0.11697,0.16924,0.15211,0.072568,0.0037203,-0.11909,-0.046054
0.23566,0.28522,0.31353,0.10228,0.019171,0.04053,0.065132,0.10569
0.12236,-0.012874,-0.19092,0.00035419,0.0202,0.052931,0.15572,0.1084
-0.14165,0.15815,0.018289,-0.19417,-0.081772,-0.045803,-0.012274,-0.085485
-0.40121,-0.32415,-0.18863,0.18052,0.016829,-0.060936,-0.13488,-0.18747
0.061825,0.031582,0.012883,-0.011002,0.041724,-0.0004993,-0.0093246,0.067815
0.083463,-0.090956,-0.38641,-0.22444,-0.093416,-0.028335,-0.0964,-0.014824
0.1488,0.38053,0.21604,0.030387,0.0099975,0.028066,0.057626,0.026076
0.032449,-0.1544,-0.07514,0.064933,0.0088959,-0.0022412,-0.046348,-0.0040072
-0.022048,-0.030138,0.17394,0.28559,0.084066,0.045834,0.084768,0.083288
0.072553,0.014177,0.18615,-0.37653,-0.11472,-0.037731,-0.0015419,-0.039423
-0.19047,-0.37552,-0.15281,0.1671,0.04668,0.028936,0.14014,0.0033262
0.002169,-0.1367,-0.021859,-0.11131,0.045984,0.035125,0.056242,0.031988
0.065054,0.28757,0.19459,0.10471,0.048046,-0.011527,-0.1447,-0.047346
-0.025011,0.51836,0.12566,-0.18872,-0.11865,-0.017761,-0.010506,0.014979
-0.0023792,-0.39285,-0.1711,0.21481,0.038021,-0.038923,-0.065343,-0.023625
0.22654,0.12094,0.10392,-0.20593,-0.00582,0.010262,-0.075093,0.039646
-0.1745,-0.02238,-0.51424,0.27627,0.030388,0.019904,0.030849,-0.05319
-0.19811,-0.16384,0.0034915,-0.027054,-0.010426,-0.041534,0.0032161,-0.059947
0.1005,0.15903,0.11818,-0.063767,-0.027537,0.013413,0.085106,0.050732
0.040947,-0.084685,0.12894,-0.16569,-0.0060728,0.03648,0.066366,0.060207
0.11455,-0.30983,0.26606,0.1863,-0.0091452,-0.034548,0.0020969,0.023173
-0.093808,0.34118,-0.21604,0.066131,0.040929,0.027189,0.032861,-0.052731
0.0084225,-0.040613,0.022786,0.0015674,0.034506,-0.0046557,-0.1465,-0.027237
0.02946,0.064831,-0.17814,-0.30647,-0.08321,-0.0050034,0.1352,0.08355
0.19498,0.20053,0.32393,0.024224,0.023763,0.018262,-0.099238,0.0057143
-0.136,-0.22336,-0.11088,0.018063,0.011871,-0.013168,-0.10018,-0.050133
-0.26779,0.024065,-0.09238,0.20085,0.076775,0.0098608,-0.0082479,-0.076228
0.011689,-0.40355,0.034424,0.2165,-0.054448,0.0012421,0.14572,0.044915
0.087041,0.19555,-0.036779,-0.13446,0.0094962,-0.007812,0.03425,0.001425
0.085325,0.32919,0.34091,-0.47362,-0.11342,-0.024972,-0.084138,-0.0027173
0.14906,0.13939,-0.3727,0.25638,0.054199,0.0047639,0.056761,0.064652
-0.27515,-0.47278,-0.29537,-0.3493,-0.096308,-0.066612,-0.089635,-0.084748
0.10999,0.13689,0.12748,0.92796,0.24022,0.081648,0.08599,0.041754
0.132,-0.10558,0.13811,-0.4761,-0.11582,0.0045505,-0.010514,0.037987
0.031707,0.0072151,0.43181,-0.072454,0.053939,0.05376,0.018632,-0.0026446
-0.14587,0.20574,-0.15592,0.29115,-0.0013256,-0.028701,-0.061723,-0.033972
-0.035378,-0.10073,0.077212,-0.20972,-0.10306,-0.063557,-0.017944,-0.010048
0.041532,0.15992,-0.29181,-0.29719,0.0052871,0.026743,0.10253,0.05253
-0.064117,-0.051048,-0.20945,0.23772,0.056926,0.022827,-0.052174,-0.042388
-0.03162,-0.078567,0.01867,0.17612,0.04318,-0.02115,-0.083606,-0.060992
0.11678,-0.25331,0.21225,-0.26148,-0.0050988,0.019467,0.024116,0.074629
-0.14071,0.0069742,-0.058789,0.2017,-0.01744,-0.027283,0.013607,-0.026021
0.088187,0.29157,0.088106,-0.55501,-0.15719,-0.0206,0.065031,0.0046506
0.038998,0.2597,0.30888,0.62135,0.14711,0.039914,0.053811,0.018756
-0.069239,-0.22613,-0.4202,-0.57785,-0.17342,-0.048346,-0.074434,-0.061273
0.12211,-0.099512,0.21321,0.92814,0.18728,0.019831,0.071108,0.054055
0.10354,-0.027084,-0.12657,-0.22693,0.050654,0.041738,-0.19695,0.029022
-0.11941,-0.0017951,0.077007,-0.10625,0.011081,0.017601,0.082426,-0.019199
0.044619,-0.0067763,-0.088439,-0.39931,-0.11105,0.0099341,0.089028,0.07325
-0.25002,-0.45295,-0.28463,-0.1167,-0.058409,-0.075187,-0.12232,-0.12361
0.12069,0.64866,0.1864,0.33228,0.090008,0.019766,0.10474,0.022755
0.024132,0.24883,-0.055764,0.0071628,-0.018488,0.0054202,-0.0031549,0.012216
-0.10867,-0.16248,0.60767,0.069357,0.052444,0.0065173,-0.016368,-0.022377
-0.017732,-0.55683,-0.58859,0.10258,-0.018536,-0.031798,-0.044464,-0.026126
0.1276,-0.063182,0.30749,-0.30894,-0.14625,-0.023659,-0.048733,0.032527
0.18127,0.32064,-0.011149,-0.04136,0.090763,0.062179,0.032813,0.052328
-0.14397,0.16512,-0.3446,0.28765,0.067448,0.006987,0.043299,-0.044628
0.0044282,0.17143,0.28026,0.11586,0.010631,-0.0017185,0.036756,0.02299
0.017177,-0.14083,-0.014555,-0.3056,-0.063554,0.036062,0.21577,0.091067
-0.090757,-0.19873,-0.26228,0.033071,-0.029453,-0.059357,-0.19336,-0.090519
-0.047114,0.062265,0.27868,-0.0059392,-0.011368,-0.037944,-0.17483,-0.053127
0.045127,-0.097649,0.19522,-0.059817,0.053841,0.022267,-0.07954,-0.023336
0.028314,0.020357,-0.43219,0.50015,0.096364,0.01987,0.054516,0.014587
0.11221,0.1403,-0.069001,-0.51783,-0.11787,0.0097584,0.18169,0.068658
0.030368,-0.097644,-0.03182,-0.41569,-0.057525,0.0077747,0.037445,0.02192
-0.21755,0.15191,0.36237,0.69083,0.12886,-0.0093272,-0.049478,-0.03952
-0.037701,-0.29505,0.17056,-0.37824,-0.12147,-0.033606,0.0068673,-0.014065
0.086023,0.18351,-0.40338,0.48429,0.11303,0.036548,0.080873,0.020021
-0.040992,-0.016224,0.19429,0.24329,0.042978,-0.0098451,-0.15663,-0.054751
0.18354,0.17369,0.031377,-0.46554,-0.089663,-0.0010274,-0.02717,0.073698
0.033607,-0.18745,-0.098761,0.048017,-0.011529,0.00033238,0.038541,0.014291
-0.17798,-0.29972,0.096881,-0.53276,-0.18345,0.0096768,0.1102,0.0088292
-0.07619,0.16593,-0.1508,0.47709,0.26983,0.034663,-0.030975,-0.060094
0.1591,0.30966,0.015157,0.038098,-0.002904,-0.049803,-0.087533,-0.020593
0.027617,-0.012871,-0.046852,-0.019901,-0.032595,-0.024986,-0.066244,-0.020853
-0.048988,0.11472,0.10131,-0.16231,-0.053413,-0.0080199,-0.036169,0.0098694
-0.00049129,0.037518,-0.10858,0.013528,-0.034086,0.040241,0.16788,0.040816
-0.068979,-0.56334,0.084396,-0.16795,-0.029503,-0.0051491,0.030951,0.017703
-0.066695,0.064749,0.074464,0.34332,0.092718,0.0042201,-0.025127,-0.0045942
0.092592,0.18421,-0.041139,0.27545,0.081956,0.02133,-0.04023,-0.0027377
0.034044,-0.033839,-0.025196,-0.20782,-0.03909,0.022496,0.023238,0.038522
-0.0081038,0.20134,-0.11811,-0.21788,-0.075837,-0.039461,0.069716,-0.045441
-0.0031476,-0.23935,0.21968,0.054638,-0.028863,0.0070577,0.15215,0.041638
0.016726,-0.038283,-0.028256,0.059408,0.031222,-0.049053,-0.44163,-0.1148
0.042526,0.07584,-0.09044,0.12165,0.018552,0.0031458,0.11607,0.055296
0.080915,0.12411,-0.1181,-0.19781,0.011699,0.038846,0.013256,0.028543
-0.17359,0.13452,0.17463,-0.094326,-0.027623,0.0037176,-0.014363,-0.046265
-0.002396,-0.10847,0.14405,0.14465,0.057832,0.023228,0.14444,0.050215
-0.037622,-0.22826,-0.048294,-0.40767,-0.12149,-0.058374,-0.047434,-0.025056
0.097233,0.1111,-0.27894,0.45536,0.083816,0.032801,0.028832,0.025494
-0.10354,-0.099631,0.014281,-0.044112,-0.028618,-0.015407,-0.047616,-0.047583
-0.020439,0.019767,-0.027142,0.22147,0.080663,0.008111,-0.026528,0.006027
0.082945,0.26273,0.25493,-0.12161,-0.080537,-0.021666,0.05256,0.022285
0.0047745,0.047275,-0.0041645,-0.018786,0.057693,0.074739,0.24334,0.11031
0.10463,-0.16951,-0.16892,-0.11196,-0.020983,-0.054608,-0.3148,-0.121
-0.016907,-0.21131,0.14591,-0.075079,-0.020585,-0.0039246,-0.052652,-0.0081738
-0.010303,0.091262,-0.081283,0.12855,0.026703,0.01536,0.06026,0.010693
-0.04231,0.10402,-0.013569,-0.17524,-0.059638,-0.012813,-0.031031,-0.033638
-0.029821,-0.11855,0.0053851,-0.16032,-0.0068093,-0.0028194,0.056461,0.038203
-0.053385,0.18227,0.0295,0.61702,0.083237,-0.0016838,0.041965,0.007346
0.080745,0.1879,0.057327,-0.12567,-0.039645,-0.0015672,0.0041787,0.022297
-0.057553,-0.56028,-0.13956,-0.13143,0.023047,0.028966,0.060759,0.0051567
-0.022231,0.159,0.14783,-0.38519,-0.056594,-0.0035304,-0.10837,-0.012482
0.0087597,0.19968,0.019322,0.1753,0.010807,-0.020561,0.043626,-0.053648
0.05344,-0.022178,-0.13566,0.22193,0.061542,-0.013945,-0.069476,0.0070797
0.028492,-0.11458,-0.020766,0.23159,0.041283,0.024434,0.083118,0.02162
-0.024614,0.11067,-0.01863,-0.35756,-0.15119,-0.045872,-0.13193,-0.033238
0.013144,0.18489,0.082462,0.11966,0.078204,0.056396,0.19893,0.084733
-0.11502,-0.15791,-0.14605,-0.092882,-0.028048,-0.012685,-0.15907,-0.062138
0.18478,-0.043366,0.20324,0.014895,-0.00090979,0.012182,0.012582,0.057057
-0.0022103,-0.35502,-0.024938,0.016064,0.097376,0.036831,0.16702,0.043449
-0.060108,0.093795,0.18561,-0.13329,-0.061095,-0.032892,-0.093963,-0.064304
-0.021853,0.098892,-0.04774,0.038261,0.00041734,-0.025399,-0.035474,-0.047706
-0.14705,0.24477,-0.46733,0.016984,-0.061723,-0.042339,-0.094313,-0.070859
0.1017,0.24048,0.21554,0.061243,-0.0053,0.017995,0.066263,0.061728
-0.034843,-0.28338,0.031692,0.03713,0.04459,0.015325,0.017311,0.022248
0.1532,0.10855,-0.034992,0.11375,0.05644,0.036052,0.040589,0.053223
-0.030198,-0.24934,0.24154,0.044791,-0.024868,-0.020921,-0.043464,-0.016995
0.024048,-0.091825,0.040482,-0.06514,-0.028043,0.0088339,0.038259,0.038201
-0.058905,0.11332,-0.24799,-0.079993,0.014998,-0.0073131,0.01158,-0.062583
0.049722,-0.037766,0.024311,-0.20638,-0.0057596,0.0087399,0.10987,0.039757
-0.17236,-0.041721,-0.04108,0.11649,0.026377,0.0099105,-0.16788,-0.069132
-0.0283,0.24577,-0.014206,0.05304,-0.029459,-0.011942,0.083769,0.024604
0.11648,-0.20331,-0.074275,-0.027233,-0.0013137,-0.01812,-0.19801,-0.030652
0.029292,0.027119,0.22459,-0.073707,-0.037218,0.006687,0.08851,0.023031
0.055246,0.24211,0.054788,-0.10545,-0.019311,-0.015847,0.029939,0.037479
-0.0079923,-0.22388,0.0026149,0.045697,0.029796,0.023601,0.041294,-0.0025945
-0.019676,0.040115,-0.064525,0.46869,0.095308,-0.0076921,-0.0014172,-0.0031031
-0.066272,0.022164,-0.24808,-0.0147,-0.0017667,0.015472,-0.011449,-0.034096
0.01523,0.16326,0.24108,-0.11567,-0.050033,-0.00822,0.019431,0.013938
0.0046998,0.11606,-0.15166,-0.37495,-0.080576,-0.031661,0.013045,0.0081688
0.010019,-0.40274,-0.090314,-0.1623,-0.015405,-4.5701e-06,-0.062347,-0.020328
-0.024912,-0.22119,0.20629,0.55075,0.12946,0.055537,0.034634,0.029701
0.031552,0.20199,0.23011,0.042968,0.017475,0.0020553,0.029612,0.017228
-0.01671,-0.043181,-0.19893,-0.39041,-0.078627,-0.027847,-0.070456,-0.034731
0.017429,0.056213,-0.096885,0.23437,0.02794,-0.011005,0.030715,-0.0093641
0.055926,0.30222,0.11406,-0.11346,-0.0071754,0.028882,0.012624,0.03839
-0.06475,-0.043033,-0.11296,-0.16695,-0.028118,-0.0021097,0.0083479,-0.0087347
-0.031198,-0.086144,-0.15253,0.16168,0.0040377,-0.041515,-0.090805,-0.064683
-0.021947,0.10351,0.254,-0.031952,-0.035591,0.0045412,0.091144,0.050524
0.034557,-0.13902,0.060791,0.18321,0.056434,0.0035084,-0.02284,0.0013613
0.0066279,-0.39425,-0.26236,-0.098472,-0.008529,0.002593,-0.033337,-0.016411
0.027894,0.45935,0.14463,0.23989,0.059015,0.0099234,-0.0099954,0.0054132
0.051837,-0.043321,0.016277,-0.31052,-0.053064,0.033526,0.078624,0.051466
-0.12483,-0.33633,-0.03866,0.14737,-0.024185,-0.035921,-0.0022057,-0.057872
0.098773,0.41202,0.08778,-0.16116,0.036443,0.020204,0.059168,0.02883
-0.044012,0.0026768,-0.18461,0.17716,0.035157,-0.0093174,-0.12907,-0.048114
0.047136,0.10473,0.24327,-0.31436,-0.098315,0.00014573,0.041159,0.054615
-0.097745,-0.36143,-0.045064,0.11482,0.026667,0.0013477,0.060893,0.00061379
0.075063,0.24499,0.12814,-0.24528,-0.043023,-0.01381,-0.10189,-0.023034
0.0025064,-0.27724,-0.42561,0.62199,0.14571,0.017038,-0.0099257,0.0068326
-0.042013,0.1613,0.16894,-0.040475,-0.05564,-0.03106,0.0089663,-0.003609
0.012311,-0.02076,-0.047624,-0.30278,-0.045647,0.0061776,0.010272,-0.0073204
-0.02889,-0.29507,0.036727,0.076963,-0.0041835,0.0040894,0.018539,-0.027352
-0.0081288,0.15522,0.23,0.15283,0.021649,0.017745,0.11311,0.038412
0.09153,0.40331,-0.12062,-0.193,0.03161,0.01623,-0.064253,0.026538
-0.072506,-0.20613,-0.1997,-0.1172,-0.029216,-0.039304,-0.075183,-0.06238
0.0083778,0.028714,-0.091275,0.10675,0.026483,0.015248,0.018338,0.022102
0.029805,0.096906,0.34577,-0.13029,-0.082664,-0.015567,-0.064841,-0.001052
-0.031883,-0.11513,-0.13961,0.1174,0.041737,0.024202,0.11246,-0.0069118
0.056999,0.10715,0.33301,-0.024978,-0.0065247,0.02479,-0.0051371,0.058864
0.045446,-0.083128,-0.13025,0.3721,0.10861,0.0014339,0.073563,0.0082135
-0.10671,-0.093457,-0.0015462,-0.10606,-0.042355,-0.030534,-0.10569,-0.034528
0.06832,-0.35249,-0.40086,-0.17142,-0.052908,-0.0087189,0.0028923,-0.015309
-0.15666,0.064699,0.09215,-0.020433,-0.024312,-0.034561,-0.093779,-0.067416
0.077537,0.4515,0.024381,-0.60725,-0.18283,-0.021784,0.095932,0.051107
0.036795,-0.17982,0.053576,0.86436,0.32335,0.084781,0.087506,0.043425
0.042018,-0.02122,0.151,-0.11356,-0.021284,0.0044025,-0.040658,-0.01988
-0.054479,-0.063535,-0.15705,-0.16563,-0.076153,-0.043742,-0.069178,-0.036834
-0.041059,0.30928,0.014736,0.16217,0.04137,0.042154,-0.059676,0.032073
0.043679,0.06255,0.08979,-0.27725,-0.10648,-0.034778,0.051315,-0.015921
-0.065795,-0.011775,0.084042,0.11939,0.019094,-0.0013286,0.014673,-0.00092336
0.11458,-0.043856,-0.05813,0.010268,0.042922,0.048339,0.096646,0.061435
0.060712,-0.20958,0.067671,0.076985,0.0040205,-0.034722,-0.054072,-0.039984
-0.040705,0.012795,-0.079848,-0.24133,-0.035019,-0.0010105,-0.023559,-0.00082427
-0.018508,-0.39117,-0.088621,0.1892,0.035367,-0.014981,-0.023224,-0.0011393
-0.060551,0.11367,-0.069261,-0.10775,-0.050215,-0.0065311,0.07127,0.0056624
