0.084042,0.10887,0.096673,0.019015,0.020373,0.06831,0.0034753,0.10595
-0.0017694,-0.008788,-0.034657,0.057734,0.029285,0.056254,0.11984,-0.079547
-0.047833,-0.041846,-0.14422,-0.059445,-0.023975,-0.088911,-0.13706,0.065102
0.039428,0.072476,0.065062,0.034582,0.0087274,-0.017202,0.012532,-0.055404
-0.11528,-0.22803,-0.062782,-0.11347,-0.044806,-0.081543,0.137,0.0258
0.026788,0.072564,0.058464,0.035241,-0.012968,0.076493,-0.093762,0.0021422
0.16065,0.12295,0.077475,0.08988,0.1119,0.29244,0.49827,0.34086
-0.1514,-0.068838,-0.1306,-0.043518,-0.068666,-0.31633,-0.69712,-0.63855
0.0359,0.083254,0.11396,0.017689,-0.031094,-0.038092,-0.023398,0.24373
-0.0039808,-0.053543,-0.03267,-0.031299,-0.0017137,-0.043505,0.19284,0.07474
-0.028711,-0.080808,-0.062767,-0.018618,-0.0036703,0.15332,-0.0067478,0.028198
0.04783,0.095191,0.13301,0.04803,0.049256,-0.00073473,0.021678,-0.19054
-0.01637,0.0057453,-0.054561,0.028273,0.040089,0.11289,0.06256,-0.094998
0.020988,-0.099009,-0.10943,-0.085308,-0.054499,-0.16886,-0.17845,0.19123
0.027118,0.14055,0.15661,0.067158,0.038931,0.053053,0.19842,0.082592
-0.037108,-0.11899,-0.16953,-0.091916,-0.062504,-0.057188,0.044607,0.35172
-0.078074,-0.025729,0.038196,0.016078,-0.022978,0.039251,-0.047688,-0.44848
0.052487,0.037808,-0.0083234,0.032093,0.032401,0.029372,0.1064,0.14072
0.065355,0.071729,0.07431,0.042153,0.0019817,-0.064025,-0.21502,-0.023301
-0.063015,-0.0022159,0.090828,0.053872,0.026329,0.14121,-0.10868,-0.29316
0.081433,-0.043779,-0.17812,-0.058209,0.066354,-0.027415,0.44663,0.37058
-0.11053,-0.014472,0.11001,-0.060343,-0.12012,-0.39072,-0.55793,-0.15516
0.048924,0.038163,0.039555,0.023362,0.045093,0.46494,0.37011,-0.23433
0.052516,0.10571,0.12438,0.082949,0.030861,-0.18739,-0.0569,-0.050537
-0.14592,-0.26537,-0.44177,-0.18666,-0.13923,-0.027819,-0.36812,0.45465
0.11068,0.16702,0.19157,0.11281,0.12092,0.47437,0.39172,-0.020794
0.01063,-0.0031185,0.10205,0.020487,-0.032358,-0.7987,-0.24465,-0.15564
-0.039154,-0.056511,-0.030464,-0.01027,0.0024552,0.31625,0.14499,0.064546
-0.069554,-0.00027127,-0.041188,0.02086,0.045474,0.13083,0.2705,-0.2541
0.11468,-0.01342,-0.10878,-0.026405,0.026027,0.050482,-0.011042,0.83679
-0.072954,-0.040822,-0.0055837,-0.034569,-0.095408,-0.042598,0.055191,-0.86357
-0.016356,0.12854,0.23029,0.02786,0.07133,0.085764,-0.049225,0.26455
0.095477,0.0021397,0.052631,0.0047993,-0.052245,-0.43903,-0.80263,-0.01735
0.16708,0.25116,0.18841,0.091662,-0.028806,0.5248,0.65424,-0.2429
-0.20166,-0.30493,-0.39339,-0.086503,0.094845,-0.33339,-0.63001,-0.037399
-0.027665,-0.049748,-0.083152,-0.02969,-0.079431,-0.0346,0.84788,0.49927
-0.046034,-0.1479,-0.16183,-0.066063,-0.019913,0.017579,-0.35325,0.057848
0.0557,0.13477,0.20679,0.10114,0.10988,0.0287,0.059822,-0.39653
-0.19844,0.032663,0.12436,-0.059585,-0.15051,0.30522,-0.050155,-0.25787
0.17689,0.0068163,-0.042354,0.029486,0.089885,-0.089584,0.41263,0.36844
0.1202,0.20568,0.21345,0.14121,0.12806,-0.054539,-0.23883,0.19629
-0.10991,-0.074063,-0.0082638,-0.045391,-0.11422,-0.28644,-0.23209,-0.28844
0.15877,-0.012418,-0.14688,-0.062209,-0.051321,0.087375,-0.14754,0.258
-0.14416,-0.20344,-0.18068,-0.065922,0.01947,0.056231,0.066388,-0.25173
0.051298,0.11064,0.10021,-0.0097299,-0.066337,0.27345,0.093538,0.10977
0.010514,0.023972,0.14886,0.075476,0.11276,0.11147,0.47698,0.0040235
-0.047593,-0.048452,-0.22117,0.018595,0.079955,-0.22052,-0.32593,0.21014
-0.012814,-0.097396,-0.1562,-0.14024,-0.14922,-0.32473,-0.13059,-0.15578
-0.032007,0.17574,0.28396,0.1314,0.050342,-0.013082,0.29557,-0.32789
-0.0092539,0.030558,0.070865,0.014285,0.014859,0.0050676,-0.21184,0.28915
-0.19999,-0.093929,-0.058744,-0.061085,-0.13804,0.13811,-0.48744,-0.63808
0.16347,-0.048255,-0.017443,0.054127,0.13905,0.31784,0.44037,0.32283
0.17605,0.0351,0.01548,0.0083229,-0.012727,0.053569,-0.0025185,0.67398
0.025171,0.16352,0.086215,-0.027053,-0.038269,-0.34161,0.23536,0.0020364
-0.048517,-0.20321,-0.19742,-0.037085,0.054847,0.10069,0.025735,-0.31113
0.030357,0.066015,0.03748,0.024256,0.024454,0.082524,-0.29153,0.02095
0.016114,0.094145,0.085561,0.015508,-0.012439,-0.14751,0.13795,-0.26327
-0.2901,-0.16776,-0.13332,-0.095292,-0.12646,-0.028213,-0.53599,-0.49614
0.34322,0.25507,0.3012,0.16009,0.096065,-0.30265,0.42865,1.0371
-0.2731,-0.24805,-0.3227,-0.078,-0.017129,0.49762,0.13938,-0.36225
-0.0064295,-0.037136,0.049474,-0.028405,-0.036704,-0.18961,0.030335,0.085163
0.042938,-0.010661,-0.058458,0.012082,0.099547,0.27711,0.08142,-0.17598
0.02577,0.13656,0.14331,0.035819,0.016396,-0.061881,0.13142,0.050652
-0.0082338,-0.0087126,-0.016234,-0.097633,-0.2004,0.0060012,-0.79311,0.025442
0.084207,0.13254,0.12777,0.11187,0.10529,-0.50954,0.41346,-0.0055759
-0.054367,-0.16541,-0.14286,0.0081373,0.058378,0.13567,-0.0011353,-0.31117
0.11591,0.0043836,0.0081626,-0.01039,0.033823,0.0762,-0.07657,0.46509
0.0087161,0.064349,0.065385,-0.01405,-0.030843,0.15699,0.016205,-0.16462
-0.049211,-0.031904,-0.10385,-0.041875,-0.080814,0.28461,0.30272,-0.033039
-0.067639,-0.1042,-0.077455,-0.023405,0.0013236,-0.23702,-0.30015,-0.26365
-0.0095112,0.090167,0.16057,0.041664,0.020582,0.020057,0.3356,0.64309
0.084551,0.11427,0.048221,0.044406,0.02422,-0.2513,-0.27935,-0.13548
-0.20809,-0.17979,-0.14836,-0.022454,0.012606,0.10242,-0.16604,-0.66576
0.097099,-0.065071,-0.10842,-0.080256,-0.045232,-0.038586,0.036671,0.74274
-0.022319,0.060145,0.14482,0.019862,0.030514,0.33141,0.34542,-0.16489
0.13051,0.2347,0.25965,0.090617,0.021031,-0.578,-0.020752,0.10712
-0.14582,-0.14355,-0.27228,-0.047732,0.0042142,0.59207,-0.24967,-0.63935
0.11114,-0.020829,-0.069019,0.010723,-0.028079,-0.15016,0.072022,0.32129
0.089971,0.0080572,0.087086,-0.00021784,-0.013687,-0.19411,0.060671,0.091564
-0.036981,0.1062,0.17149,0.059373,0.0080886,0.040109,-0.010954,-0.068137
0.027106,-0.086449,-0.1058,-0.006499,0.1075,-0.00010896,0.20058,0.12714
-0.23384,-0.17947,-0.15941,-0.14368,-0.14498,-0.031499,-0.50776,-0.084086
0.023279,0.069621,0.033984,-0.0086999,-0.045861,0.10375,0.059749,-0.088552
0.047764,0.028691,0.045061,0.054654,0.053785,-0.0076169,0.20822,0.21065
0.088949,0.042363,-0.031716,0.030938,0.013816,0.056082,-0.062193,0.081209
0.052464,0.11144,0.17957,0.061074,0.045518,-0.042232,0.044931,-0.069708
-0.10134,-0.052614,-0.13267,-0.0265,0.031805,-0.10133,0.20813,-0.27353
0.025385,-0.051221,-0.014523,0.010685,0.011572,0.25154,0.17568,0.10149
-0.028864,0.037261,0.1127,-0.030261,-0.070255,-0.4388,-0.23397,-0.0088982
0.047868,0.024849,-0.031913,-0.008495,0.03584,0.64661,-0.12389,0.096169
-0.065205,-0.10466,-0.088871,-0.033162,-0.076842,-0.32832,-0.38536,-0.10161
0.022177,-0.023661,-0.050388,0.0053547,0.052338,-0.1748,0.083619,0.15258
0.075417,-0.0059416,-0.018181,-0.064599,-0.13142,0.070789,0.4173,-0.16008
-0.093027,0.073334,0.10905,0.0696,0.098495,-0.13469,-0.046357,0.043154
0.063876,0.18291,0.26061,0.12666,0.078139,-0.068431,-0.039684,-0.021843
-0.12538,-0.32554,-0.43114,-0.11243,-0.043955,0.093386,-0.16274,0.064695
0.13666,0.12625,0.15047,0.031588,0.029096,0.43098,0.21787,0.62223
-0.00080007,0.10097,0.090942,0.034748,0.055023,-0.1806,0.14858,-0.64523
0.0022538,-0.080887,-0.14911,-0.08781,-0.10692,0.10025,-0.26259,-0.078484
0.021869,0.080939,0.18805,0.030796,-0.011506,-0.011733,0.07624,-0.078837
-0.2065,-0.092921,-0.077102,-0.039157,-0.041527,-0.23266,-0.14937,-0.27265
0.1072,-0.078633,-0.14727,-0.0005454,0.0062752,-0.14597,0.027775,0.4408
-0.067548,-0.032014,-0.014074,0.0064751,0.069607,0.22042,0.020861,-0.32291
0.089923,0.10982,0.073091,0.01371,0.015849,0.012015,0.13455,0.4169
0.14976,0.13617,0.18499,0.045083,0.001352,-0.061148,-0.18507,0.28635
-0.0059177,-0.062363,-0.092286,-0.00068744,0.002634,-0.0292,0.30557,-0.091775
-0.12819,-0.048555,-0.016707,-0.014224,-0.019552,-0.061185,-0.30586,-0.20696
-0.02306,-0.049498,-0.0028168,0.012004,0.004834,0.11248,0.091781,0.051031
-0.051187,-0.019009,-0.059094,-0.016239,-0.018236,0.027365,-0.17195,0.11234
-0.049588,0.018713,0.048134,-0.013596,-0.018659,-0.070343,0.1538,-0.76376
0.14504,0.07855,-0.0098607,-0.011854,-0.019964,0.033317,0.17851,0.35594
0.024484,-0.066709,-0.10067,-0.034839,-0.0064895,0.16817,-0.075075,0.11029
-0.08326,0.035576,0.072376,0.050092,0.084405,0.014188,0.047993,-0.11722
0.071934,0.088267,0.12648,0.047693,0.010736,-0.23427,-0.18829,0.35559
0.021627,-0.080489,-0.063209,-0.026128,-0.00069732,0.077201,0.07393,0.016557
-0.069648,-0.087544,-0.082419,-0.014682,0.0034741,-0.20991,-0.018007,-0.34167
-0.029395,-0.018202,-0.016835,-0.065887,-0.15619,0.19116,-0.081657,0.049565
0.049391,0.097148,0.12597,0.02389,0.05179,0.028472,-0.038485,0.24701
-0.019944,-0.021783,-0.099077,0.036301,0.065103,0.05844,0.26103,0.10317
0.013456,0.071226,0.089471,0.034068,0.0010353,-0.086823,-0.22845,-0.35856
-0.029335,-0.060606,-0.058172,-0.014055,0.015813,0.014606,0.26033,-0.099854
-0.046217,-0.041845,-0.026143,-0.014519,-9.3452e-05,0.097871,-0.10717,0.24536
0.095832,0.096375,0.06085,0.047962,0.046821,-0.054407,-0.072217,-0.011546
0.021628,-0.028932,-0.023401,-0.076981,-0.13278,-0.22955,-0.21279,-0.074567
-0.027211,-0.066593,-0.059737,0.00097928,0.046819,0.019548,0.056309,0.040212
0.010946,0.029762,0.061638,0.0082588,-0.023866,0.030229,0.21782,0.12973
0.002278,0.072105,0.044222,-0.00041685,0.03018,0.20159,0.19903,-0.23511
-0.069798,-0.12753,-0.13518,-0.0014129,0.013771,0.17388,-0.041969,0.25149
0.004931,0.071149,0.10162,0.028998,0.036467,-0.15593,-0.078194,-0.39337
0.054232,0.035104,-0.011196,-0.0026393,-0.049985,0.014513,-0.2554,0.23825
-0.078085,-0.14199,-0.091262,-0.057046,-0.065762,-0.53633,-0.058696,0.16365
0.11624,0.18831,0.21233,0.10023,0.122,0.60289,0.17682,-0.021971
-0.065178,-0.091108,-0.11681,-0.046508,-0.033607,0.008231,0.070725,-0.20826
0.034759,0.019869,0.0064667,0.0025229,0.014165,-0.17287,-0.17027,0.11292
-0.12222,-0.0020927,-0.0043722,-0.010783,-0.070785,-0.072926,0.059533,-0.28548
0.058176,-0.047528,-0.094988,-0.016424,0.016051,0.036305,0.053155,0.1498
0.044825,0.047679,0.08616,0.047842,0.071401,-0.13926,0.016742,0.21326
-0.021998,-0.075853,-0.062223,-0.060341,-0.061081,0.044466,0.0065104,-0.13737
0.075641,0.042732,0.022827,-0.005096,0.001385,0.30198,0.030019,0.18012
-0.030574,0.043896,0.044956,0.010486,-0.030237,-0.17621,-0.13348,-0.11139
0.040976,0.083675,0.090551,0.064627,0.062875,-0.083444,0.10643,0.20388
0.0080963,-0.056887,-0.074474,0.0012029,0.015201,0.034024,0.13632,-0.07872
-0.12182,-0.09666,-0.043762,-0.039024,-0.024695,0.23016,-0.039921,-0.27124
-0.075023,-0.019982,-0.028295,-0.0090393,-0.0019779,-0.059362,-0.034615,-0.26177
0.071371,0.048366,0.042095,-0.0024465,-0.010229,-0.0010837,0.033711,0.27432
-0.040444,0.015004,0.018798,-0.011282,-0.025828,-0.10541,-0.32653,-0.30611
0.06787,-0.041518,-0.07491,-0.019776,-0.025162,-0.14017,-0.23014,0.42391
0.061963,0.090105,0.081168,0.058125,0.070022,-0.23193,0.24052,0.17135
-0.057123,-0.035232,0.018227,0.011547,-0.0058657,0.21224,0.15173,-0.038643
0.10931,0.012144,0.0097233,-0.0032642,0.012712,0.18426,0.23304,0.15259
-0.048656,0.0054449,-0.077065,-0.0020042,0.00835,0.35602,0.017052,-0.17185
-0.055695,-0.047894,-0.031042,-0.07854,-0.066149,-0.35046,0.018797,-0.10213
0.031889,0.047011,0.04642,0.032611,0.015407,-0.060084,-0.15475,-0.28346
-0.061007,-0.061776,-0.024185,0.026611,0.033907,0.055479,-0.022769,-0.040217
0.047042,0.023951,0.061941,0.012684,0.012507,-0.22215,-0.13596,0.41386
-0.097954,-0.031786,-0.023324,-0.032751,-0.056769,0.13894,-0.11476,-0.37564
0.058463,0.068046,0.055852,0.02299,0.013567,0.014655,0.085691,0.33367
0.071372,0.01128,-0.052264,0.015751,0.020527,0.038896,0.19925,0.15257
0.0041629,0.0093027,0.058412,0.00018272,0.0034361,0.087698,-0.054386,-0.17447
-0.016978,-0.062384,-0.096575,-0.015856,0.017327,-0.13501,-0.0012947,0.1131
-0.084551,-0.023627,-0.032805,-0.032233,-0.031183,0.019617,-0.091927,-0.44284
-0.017799,-0.014713,-0.00012039,-0.025309,-0.04021,0.035873,-0.0032217,-0.011621
0.012072,0.019147,0.048539,0.02857,0.021702,-0.1415,-0.037525,0.17423
0.044239,0.054305,0.042958,0.020198,0.013965,0.18184,0.22081,0.092165
0.10164,-0.0035469,-0.056028,0.012124,0.030167,0.067187,0.061526,0.28097
0.050435,0.079107,0.087162,0.035496,0.023089,-0.15075,-0.046785,0.012742
-0.14978,-0.097188,-0.012426,-0.027111,-0.031169,-0.051043,-0.22206,-0.18327
0.023084,0.021285,0.01172,-0.011946,-0.00025965,0.17837,0.05035,-0.18419
0.0055528,-0.011471,-0.067554,-0.0052363,0.0061039,-0.07945,-0.050791,0.078647
-0.0543,-0.015975,-0.016184,-0.014957,-0.035615,-0.089115,0.12234,-0.34857
-0.023261,-0.01528,-0.021564,-0.0098272,-0.0080275,0.096326,-0.047694,0.26108
0.037283,0.015004,0.080935,0.018209,-0.0043908,-0.11488,-0.08434,0.18233
-0.042939,-0.080002,-0.11398,-0.031992,-0.0083896,-0.048893,0.082818,-0.11432
0.034703,0.037174,0.027662,0.027584,0.035407,0.084768,-0.038397,0.021311
0.10768,0.12574,0.1242,0.05681,0.033878,-0.025905,0.31744,0.26243
-0.073044,-0.047685,-0.065665,-0.045494,-0.02042,0.25899,-0.2329,-0.32784
0.03965,-0.013997,0.013192,-0.005702,-0.010279,-0.17964,0.05223,0.15663
-0.023543,-0.0078792,-0.037765,-0.011355,0.0014671,0.18666,-0.20267,-0.10527
-0.0060118,0.0088048,0.030835,0.01541,0.029817,-0.10617,0.08804,-0.20854
0.0047061,-0.0043629,-0.024242,0.0038321,-0.027582,-0.12332,-0.028771,0.22808
0.014742,0.0057771,0.030111,0.0080441,0.0003453,-0.01489,-0.052871,0.085765
-0.047669,0.0065529,0.028575,-0.011597,-0.012061,0.078364,0.18016,-0.051158
-0.042882,-0.010916,0.032646,-0.0009143,-0.018329,-0.14678,-0.048082,-0.11377
0.028731,-0.039358,-0.13791,0.0084833,0.012707,-0.015659,0.17664,0.13126
0.018981,-0.00059921,0.0169,-0.0069909,0.026581,0.061117,-0.27067,-0.13687
-0.016677,-0.019058,0.0054507,-0.0081934,-0.030929,-0.17094,-0.03858,0.1758
0.13381,0.054661,-0.015062,-0.010461,0.028274,0.31401,0.36497,0.22657
-0.098621,-0.0049013,0.034599,0.0022651,-0.021764,0.23558,-0.28661,-0.42017
-0.040911,0.014204,0.038244,-0.00078261,-0.0086717,-0.15701,-0.10251,-0.03525
-0.051497,-0.043557,-0.042549,-0.011359,-0.0024644,-0.030028,-0.012062,-0.20946
0.096738,0.048679,0.057986,0.048957,0.067224,-0.0036554,0.20402,0.13035
0.0054534,-0.0139,-0.0042615,0.0084035,-0.010717,-0.34647,0.10094,0.47846
0.049278,0.049483,0.027801,-0.00026659,-0.0335,0.11121,-0.14119,-0.00021301
-0.03818,0.089748,0.15334,0.014959,0.021925,0.10286,0.0090938,-0.12669
-0.039195,-0.24529,-0.37052,-0.07893,-0.047897,0.043022,-0.049784,-0.30942
0.0060754,0.059564,0.080951,0.022617,0.030293,-0.12129,-0.013381,0.12791
-0.020537,-0.042688,-0.038942,-0.024166,-0.040369,0.11232,0.03974,0.0094706
-0.0025595,0.018428,0.043856,-0.0082369,-0.0096981,0.0042174,-0.062891,-0.012438
0.020592,0.094835,0.11925,0.03933,0.044465,-0.099783,0.045212,0.17611
0.033328,0.046326,0.047442,0.024955,0.0052169,0.098344,0.074251,0.0027298
-0.042073,-0.02519,-0.022556,0.019039,0.03681,0.059525,0.070449,-0.12679
0.076338,-0.049202,-0.098347,-0.025332,-0.02478,0.03261,0.025565,0.13254
-0.079281,-0.025673,0.0073869,-0.030208,-0.03124,-0.046924,-0.15422,-0.40392
-0.0079328,-0.0015662,0.005084,0.011955,0.017184,-0.072154,-0.16384,0.025605
0.0022819,0.062017,0.065923,0.022727,0.02645,-0.037638,-0.057239,0.034833
0.061534,-0.069489,-0.12335,-0.021606,-0.042765,-0.093635,0.19,0.30733
-0.079668,-0.0056505,0.04592,-0.019679,-0.010929,0.16515,-0.0071375,0.0097848
0.031926,0.034597,0.034112,0.0049778,0.012564,0.03565,0.32068,0.1196
0.013209,0.019825,0.028341,0.021123,0.020021,-0.051458,-0.11548,-0.028289
0.011931,0.020178,-0.010614,-0.0024052,-0.011777,-0.078822,-0.18313,-0.23327
0.0036757,-0.042604,-0.074876,0.004835,0.011177,0.13537,-0.0078603,-0.16277
0.057662,0.065794,0.078031,-0.0038912,-0.035889,-0.17236,-0.012212,0.10945
-0.014618,-0.060826,-0.020165,0.0027916,0.02685,0.10914,-0.079538,0.18995
-0.1045,-0.05508,-0.048543,0.009359,0.027528,0.027826,0.10231,0.0067865
-0.032602,0.013045,0.0091781,-0.030987,-0.026169,-0.18955,-0.10748,-0.19031
0.037199,0.034576,0.020797,0.0068141,-0.00166,0.26877,0.14247,0.068514
0.0038876,0.025525,0.049278,0.02125,0.022648,0.034065,0.17227,-0.089648
0.024469,-0.0060173,-0.037944,-0.011073,-0.016006,-0.075342,-0.12778,-0.10752
0.021565,-0.0052723,-0.022126,-0.011996,-0.0084153,-0.01455,-0.023591,0.22826
0.019158,0.0042003,0.026174,0.010689,-0.0014834,-0.10537,0.047212,0.020904
0.040916,0.02209,0.036218,0.0022921,-0.0028976,-0.012521,-0.23544,0.059901
-0.046064,-0.022342,-0.031578,0.001845,-0.012408,-0.016899,0.10571,-0.03847
-0.0077357,-0.0045427,-0.029292,0.0014763,0.0015445,-0.0078697,-0.06102,0.12217
-0.078902,-0.065508,-0.027662,-0.014521,0.0079915,0.055483,0.0626,-0.24994
0.052561,0.060165,0.019916,0.016259,0.0071042,0.018883,0.22009,0.084641
-0.011994,-0.0025661,0.019597,-0.015646,0.022326,0.11832,-0.18131,-0.13396
0.016504,0.035495,0.080834,0.022513,0.014428,-0.059411,-0.03959,0.10116
0.028898,-0.03631,-0.053954,-0.0020978,-0.0012553,-0.10032,0.020018,-0.014183
-0.029117,0.024574,-0.048477,-0.034758,-0.040677,0.08052,-0.01899,-0.071791
-0.0086464,-0.054893,-0.011678,0.018372,0.013094,0.067346,0.060764,0.18142
0.043891,0.045963,0.072525,0.024624,-0.01191,-0.0012655,0.15612,0.069554
-0.043008,-0.039786,-0.06889,-0.023638,-0.029638,-0.19759,-5.1928e-05,-0.27067
-0.0034935,0.00046346,0.0018735,-0.0090433,0.02272,0.11748,-0.19789,0.078226
-0.0015842,0.033816,0.027109,-0.001742,-0.01847,-0.14277,-0.21125,-0.12356
0.040693,0.028753,0.045758,0.021812,0.050361,0.16233,0.11638,0.14827
-0.025428,0.031742,0.034038,0.014779,0.01862,0.010175,0.028017,0.033433
0.057409,-0.059241,-0.0945,-0.022894,-0.043225,-0.090032,0.095053,0.13083
-0.039443,-0.010239,0.01893,0.0024099,0.0053779,0.066546,0.17002,-0.0011678
-0.043058,-0.048107,-0.016855,-0.011069,0.0078891,0.020703,-0.08244,-0.031576
-0.00075703,0.01453,0.00082735,-0.00107,0.0029311,-0.046377,-0.084119,-0.051382
-0.061325,-0.017613,-0.01423,0.016533,0.013444,-0.086757,-0.069742,-0.35398
0.087494,0.058704,0.023822,-0.01318,-0.046959,0.11103,0.077325,0.088892
0.070552,0.056116,0.068186,0.018979,0.016733,-0.054588,-0.049636,0.23692
0.012806,-0.033089,-0.076245,0.0035215,0.016928,0.26751,0.20552,0.1766
-0.070031,-0.0057206,0.028337,-0.0048814,0.008454,-0.18899,-0.11773,-0.17584
-0.037063,-0.03358,-0.039559,-0.037387,-0.031775,-0.010756,-0.088685,-0.059108
0.0028259,0.047547,0.048637,0.031208,-0.0095212,-0.19052,-0.26065,-0.07836
0.0034719,-0.058918,0.0043464,-0.0097485,0.0054255,0.10734,0.19599,0.036485
-0.010822,-0.016578,-0.031302,0.0041372,-0.0021254,-0.023525,0.079205,-0.030806
0.046775,0.042336,0.0046733,0.0028681,0.038375,-0.028478,-0.009126,0.2698
-0.049548,-0.045638,-0.051389,-0.021127,-0.021548,0.17037,0.43025,-0.25522
0.044408,0.024671,0.035138,0.018203,0.036528,0.088059,-0.37011,0.074031
-0.030719,0.026913,0.045532,0.011444,-0.014522,-0.12791,-0.053399,-0.001634
0.02148,0.0078091,-0.012638,0.013088,0.019919,0.10721,0.15095,0.077598
0.036046,-0.0097582,-0.053972,-0.024058,-0.06395,-0.20773,-0.25964,0.050407
0.019609,0.028014,0.053565,0.0090074,0.006789,0.059236,-0.083827,-0.1494
-0.013451,-0.0049332,-0.0034416,-0.020885,0.0053248,0.064127,0.20886,0.084329
-0.056373,-0.00024114,0.039733,0.018819,0.0020398,-0.13792,0.064051,0.022882
-0.00823,0.017903,0.049569,0.003015,-0.0026909,-0.077053,-0.024813,-0.17823
-0.025351,-0.11487,-0.18522,-0.013529,0.030805,0.14665,0.037914,-0.01829
0.0021299,0.00010056,0.030789,-0.007124,-0.021734,0.034785,-0.13615,-0.065652
0.04391,0.04319,0.049734,0.0069827,0.020126,0.080908,0.0021748,0.15887
-0.01601,0.0075945,-0.041505,-0.0098495,-0.014846,0.11407,0.24405,-0.021768
-0.012402,0.019387,0.047253,0.0052519,-0.016824,-0.24033,-0.26814,0.12106
0.055632,0.024769,0.012377,-0.0021682,0.0065811,-0.044885,0.076239,0.11964
0.016678,-0.05389,-0.043802,0.022605,0.016238,-0.0031438,0.0045052,-0.096396
-0.051183,0.017779,0.035293,0.0012508,-0.0037997,0.14206,-0.076877,-0.074923
0.046871,0.083048,0.061983,0.019318,0.016262,-0.23503,0.1834,0.1201
0.0053695,-0.015155,-0.019042,-0.0096237,0.0054827,0.21639,-0.0043848,-0.25495
-0.067185,-0.027763,-0.036823,-0.01575,-0.028957,0.0034139,-0.15674,-0.16984
0.015957,-0.04151,-0.039237,-0.030672,-0.017278,0.055112,0.069073,0.20319
-0.0034972,-0.025593,0.027528,0.015771,0.032352,0.0039113,-0.023239,0.090973
-0.031937,-0.034695,-0.048059,-0.009139,-0.020824,-0.12681,0.010757,0.15041
-0.0067004,0.001937,0.015025,-0.0035261,-0.0048428,-0.024243,0.029677,-0.094265
0.025687,0.045967,0.013775,0.0096252,0.010241,-0.047084,-0.084357,-0.048677
0.065603,0.051319,0.050145,0.022986,0.0013465,0.01644,0.06638,-0.040659
-0.0742,-0.0047921,-0.00031945,-0.0021016,-0.0077211,-0.12199,-0.12051,-0.24224
0.09851,0.042046,-0.035473,0.0049206,0.022402,0.27233,0.11178,0.33033
-0.033641,-0.034729,0.0077159,0.0050371,0.013774,-0.011826,0.043322,0.066684
-0.02567,-0.0010414,0.020294,-0.017517,-0.010117,-0.0066636,0.0714,-0.1282
-0.0029292,-0.07611,-0.059947,-0.023959,-0.025898,0.23953,0.038863,0.1897
-0.028144,0.020827,0.0484,0.032242,0.01317,-0.21218,-0.070212,-0.27754
0.0080769,-0.015303,-0.037441,-0.013309,-0.010257,-0.16748,-0.098974,-0.030531
0.020095,0.049662,0.034025,-0.0046181,-0.0025586,-0.0249,-0.15516,0.18067
-0.014977,0.020369,0.051707,0.026933,0.012757,0.021229,0.10756,-0.15125
-0.049575,-0.040594,-0.070545,-0.020205,-0.0033767,0.027488,-0.02647,-0.19734
0.073218,-0.00027481,-0.020491,0.0025519,0.019407,-0.22252,0.0082646,0.30117
-0.028938,-0.022624,-0.01717,-0.021736,-0.035983,0.38272,0.018655,0.1263
0.019102,0.040817,0.040665,0.0087821,0.018058,-0.093007,0.083614,-0.057376
0.037393,0.025884,0.058924,0.00061454,-0.0058796,-0.009133,0.13187,0.062955
-0.037198,-0.012955,-0.048675,0.00079689,0.0016253,0.22658,-0.08141,-0.051435
0.044435,-0.01348,-0.0012019,0.040594,0.024935,0.017723,0.20556,0.11576
-0.054617,-0.015017,0.021423,-0.012953,-0.02196,-0.17018,-0.20676,-0.4967
0.0085628,-0.0020966,-0.019948,-0.011684,-0.014186,-0.17601,-0.16581,-0.043179
0.014717,0.033122,0.0076179,0.012804,0.040296,-0.12672,-0.025393,0.041018
-0.083082,-0.041924,-0.028345,-0.041389,-0.038346,0.21164,0.018858,0.33606
0.059341,0.015412,-0.017915,0.0051783,-0.00021916,0.0043352,0.023401,0.11666
0.0053267,-0.013013,0.0083272,0.027409,0.029638,-0.07415,0.16362,0.18758
0.005962,0.0062704,0.035437,0.0019412,0.0043929,0.17495,-0.11841,-0.20251
-0.046998,-0.027721,-0.029775,-0.039742,-0.04457,-0.06505,-0.091382,-0.41548
