-0.070218,0.40565,0.21131,-0.0075313,-0.0045182,-0.01288,-0.018411,0.12937
-0.042364,-0.29671,-0.12709,-0.09305,-0.01996,-0.0063775,0.01997,0.0019881
-0.051003,0.28226,0.17674,0.010779,-0.0035237,-0.013598,-0.003235,-0.017876
0.083946,0.28564,-0.10351,-0.0086761,-0.025508,-0.010912,0.0058531,0.22017
-0.01265,0.2692,0.099345,0.10591,0.038964,0.024977,-0.0074811,-0.094907
0.14287,-0.53941,0.060524,0.088144,0.049012,0.015448,0.0034311,-0.095188
-0.13824,-0.29368,0.15499,-0.086331,-0.026951,-0.0090627,-0.016469,-0.22604
-0.20133,-0.30804,-0.32855,-0.1215,-0.048657,-0.018321,-0.044235,-0.32423
0.35031,0.66168,-0.053279,0.021103,0.014845,0.20538,0.19304,0.74947
-0.21138,-0.24589,-0.070498,-0.04157,-0.039744,-0.28415,-0.18795,-0.16291
0.17514,0.11077,-0.13927,0.10474,0.068806,0.098516,0.11717,0.23397
0.11131,-0.25834,-0.046719,-0.023812,-0.018745,-0.068526,-0.094823,0.29877
-0.21448,0.015412,0.21166,-0.012425,-0.013079,-0.0035562,-0.019066,-0.59273
-0.13622,0.16522,0.5403,0.092792,0.023621,0.098991,0.04019,0.023191
-0.096512,-0.056429,-0.4998,-0.09814,-0.033327,-0.0019646,-0.033643,-0.56747
-0.029852,0.55126,0.17506,0.07146,0.027281,-0.03187,0.06476,-0.19458
0.14453,-0.33888,-0.33725,-0.14043,-0.044392,-0.060128,-0.039066,0.74167
0.49073,0.7084,0.44219,0.11767,0.064199,0.11693,0.11614,0.03474
-0.17867,-0.70881,-0.071979,0.0095171,0.0014173,-0.063119,-0.11021,0.30295
-0.16213,-0.44448,-0.13839,-0.035618,-0.029771,0.040012,-0.030807,-0.23802
-0.12675,0.25206,-0.16515,-0.0025813,0.0095005,-0.066569,-0.0054543,-0.032981
-0.068649,-0.32522,-0.045258,-0.008984,-0.029387,0.085003,0.066906,-0.20183
0.15647,0.37987,0.33593,0.030811,0.0096955,0.040731,0.11547,0.95451
0.13876,-0.24484,-0.32089,-0.094262,-0.021727,-0.17662,-0.16478,-0.45765
-0.0069549,0.12792,0.52123,0.17054,0.063885,0.065419,0.046329,-0.61775
-0.26574,-0.23698,-0.53789,-0.14331,-0.038057,-0.037772,-0.11042,-0.44242
0.16837,0.97069,0.18804,0.0036121,0.00069368,0.029852,0.005957,0.60271
0.15794,0.3791,0.30774,0.13516,0.039635,0.081466,0.12253,0.064973
-0.63605,-0.92513,-0.34286,-0.17794,-0.085193,-0.093094,-0.07271,-0.17669
0.40142,-0.12275,-0.27098,0.14279,0.087219,0.17877,0.18619,0.2187
-0.091166,-0.051454,0.25893,-0.074305,-0.036832,-0.18832,-0.13191,-0.48744
0.41444,-0.30631,0.18589,-0.032274,-0.019818,-0.0065561,-0.050574,0.7204
-0.15668,0.049969,0.035073,0.12815,0.060146,0.036575,0.03927,0.17299
-0.037847,0.86995,-0.1684,-0.023007,-0.015689,0.042374,-0.042473,-0.038611
-0.26936,-0.41479,-0.11832,-0.16584,-0.10672,-0.099058,-0.0071546,-0.37468
0.2157,0.28381,0.52246,0.16788,0.10729,0.26,0.12924,0.26432
-0.025287,-0.86862,-0.68279,-0.1396,-0.053473,-0.19378,-0.10232,-0.58496
-0.16271,0.065862,-0.10105,0.012683,-0.018964,-0.093996,-0.014518,0.45183
0.43728,0.78922,0.78279,0.33512,0.17139,0.16022,0.11911,0.065025
-0.71623,-0.30287,-0.77485,-0.38366,-0.17816,-0.1347,-0.16244,-0.68362
0.69939,0.52777,0.2472,0.082615,0.049078,0.060099,0.015802,0.12325
-0.053952,0.011082,0.73657,0.085501,0.071483,0.064995,0.05219,0.48406
-0.0010503,-0.75522,-0.54437,-0.093482,-0.056448,-0.041577,-0.022131,-0.89848
-0.2577,-0.34373,0.34674,0.12436,-0.0064834,0.061211,0.18334,0.85737
0.0083766,0.42509,-0.74051,-0.088287,-0.020373,0.0068514,-0.042374,0.82647
-0.39953,-0.12652,-0.072206,-0.13672,-0.081751,-0.25074,-0.23042,-0.70845
0.37788,0.43445,0.38406,0.14409,0.099374,0.19549,0.17431,0.12618
-0.26883,-0.27902,-0.3457,0.012746,0.00050765,-0.083418,-0.1634,-0.36849
0.41664,-0.092413,0.73411,0.079153,0.028674,0.10054,0.077783,-0.35305
0.2036,0.25278,-0.14639,-0.023709,0.0046235,0.036606,0.039643,0.12954
-0.28257,-0.29984,-0.085685,-0.11634,-0.063821,-0.11134,-0.065812,0.54545
0.24439,0.78482,-0.28473,0.0039279,0.033858,0.046791,0.098107,-0.75464
-0.25979,-0.19382,-0.12521,-0.022939,-0.007794,-0.020993,0.016018,0.48765
0.21426,-0.17841,0.44766,0.12267,0.044634,0.11419,-0.031189,0.26604
0.028039,-0.48483,-0.19188,0.03387,0.0026794,-0.079555,-0.091326,-0.12082
-0.36903,0.2071,0.040826,-0.14922,-0.079743,-0.055692,0.15454,-0.35903
0.13163,0.010744,0.35516,0.16689,0.10163,0.037424,-0.11553,-0.01828
-0.38173,0.28578,-0.22691,-0.16628,-0.12506,-0.049718,0.018742,0.33074
-0.19343,-0.55809,-0.80807,-0.062576,-0.01721,-0.027294,-0.029914,-0.15692
0.38991,0.33555,0.72027,0.13456,0.050877,-0.01949,0.096992,0.42331
0.319,-0.49808,-0.36896,-0.11363,-0.044998,0.036802,-0.16333,-0.3754
0.48003,0.37138,0.33783,0.17741,0.14116,0.2199,0.23633,0.48522
-0.48593,0.056518,0.36341,0.046708,-0.0074514,-0.072069,-0.11715,-0.58027
0.34034,0.31194,-0.26965,0.0096526,0.048266,0.058583,-0.081789,-0.60118
-0.71827,0.52656,-0.10911,-0.2466,-0.17637,-0.2485,0.062789,0.53485
-0.17625,-0.18904,0.39142,0.13703,0.052475,0.083883,-0.041219,-0.34858
0.34229,-0.52357,-0.58807,-0.11307,-0.0079719,-0.093362,-0.02539,0.55575
0.20635,-0.35266,-0.33526,0.010961,-0.0066758,0.094555,-0.084394,0.42058
0.083614,0.10782,0.50366,0.087467,0.016947,-0.024022,0.10198,0.049373
-0.22303,0.10852,-0.2873,0.046414,0.047133,0.067073,0.57979,-0.5687
-0.18931,-0.038754,0.60682,-0.057265,-0.064488,-0.0064828,-0.52726,0.18747
0.47725,0.038589,0.10152,0.065628,0.049515,0.060637,0.045086,0.072281
-0.28019,-0.15734,-0.90493,-0.04584,-0.0011223,-0.12955,-0.15731,-0.18942
-0.22002,0.034053,0.39802,-0.11831,-0.083161,-0.13936,-0.12693,-0.35461
0.17348,0.45278,0.49124,0.23875,0.11633,0.41397,0.33994,-0.1074
-0.021751,-0.60276,-0.23132,-0.19342,-0.081933,-0.18857,-0.1851,0.01057
0.23175,0.97428,-0.12573,0.022814,0.041099,-0.12702,-0.028542,0.38783
-0.18702,-0.20608,0.1091,0.090833,0.024695,0.11396,0.21741,0.2243
-0.058166,-0.29574,-0.59889,-0.19212,-0.10764,-0.090773,-0.16504,-0.071631
0.218,-0.30101,0.45407,0.12747,0.073739,0.079171,0.20702,0.68657
0.019641,-0.041692,0.27891,0.081129,0.013946,0.045995,-0.0032451,-0.7238
-0.12096,0.42886,-0.24416,-0.04978,0.0017606,-0.080425,-0.29757,-0.34789
0.21006,-0.057543,-0.50717,0.0080548,0.021196,0.0051701,0.14993,0.29959
-0.51889,-0.0096047,0.45732,-0.066026,-0.092204,-0.079534,0.0087763,-0.20172
0.12237,-0.30759,-0.032881,0.047776,0.05962,0.17355,0.1598,0.080953
0.01882,-0.2508,0.095593,-0.049575,-0.039286,-0.19659,-0.27328,-0.089233
0.378,0.10528,-0.18842,0.00070841,0.0014468,0.12205,0.060828,0.076611
0.035007,0.22085,0.2605,0.041881,0.056658,0.042656,0.10817,0.58811
-0.45374,0.6873,0.36651,0.042369,0.024731,0.15005,-0.051453,-0.29371
0.32215,-0.73491,0.036696,-0.029166,-0.047379,-0.20532,-0.18918,-0.4556
-0.092199,0.34412,-0.47028,0.046218,0.035873,0.014774,0.25217,0.24687
-0.5098,0.037711,-0.89429,-0.14505,-0.092301,-0.08841,-0.20954,-0.7067
0.52222,0.12889,1.0351,0.10089,0.045205,-0.022332,0.23972,0.59167
-0.02845,-0.2798,-0.60436,-0.074421,-0.011926,0.15928,0.030177,0.87651
-0.17252,-0.61639,0.18185,-0.037289,-0.044357,-0.17501,-0.2059,-0.42369
0.29543,0.60696,0.38183,0.095779,0.073332,0.077786,-0.0090637,0.24378
-0.086234,-0.25222,-0.07049,0.035998,0.028777,0.13762,0.16542,-0.73222
-0.063218,-0.28707,0.25051,0.0097004,-0.021993,-0.06517,0.24493,0.022685
0.10097,0.73937,-0.12903,-0.093236,-0.032671,0.00063424,-0.44444,-0.57638
0.1261,0.20593,-0.24668,0.069799,0.042791,-0.0172,0.0022834,0.56706
-0.22102,-0.39883,0.10119,0.11469,0.039407,0.067677,-0.0012018,0.026929
0.0075122,-0.13351,-0.3746,-0.13945,-0.074909,-0.1289,0.1004,0.55664
-0.17554,-0.19815,0.30215,-0.076262,-0.019475,0.0089639,-0.082182,-0.49019
-0.059295,0.26857,0.029407,0.022736,0.018028,0.0037609,0.054297,-0.15278
0.3042,0.0094018,-0.13081,-0.0609,-0.048099,-0.012194,0.26928,0.54295
-0.064752,0.046903,0.03959,0.079878,0.032743,0.093923,-0.25631,-0.032404
-0.13703,-0.043095,0.2897,0.11022,0.042626,-0.028988,0.11095,-0.032507
-0.23531,-0.15469,-0.19419,-0.054669,-0.0019583,-0.012957,-0.042948,-0.4152
0.35546,-0.042135,0.03965,0.015879,-0.0065145,-0.021097,-0.10128,0.2932
0.24661,0.5558,0.21645,-0.0055551,0.01383,0.002225,-0.064752,-0.15751
0.078302,-0.19284,-0.61013,-0.056086,-0.034486,-0.075013,0.12837,-0.16302
-0.06611,-0.1343,0.28607,-0.010623,0.020306,0.075836,0.086828,-0.31207
-0.18274,0.027812,0.25687,0.091625,0.037233,0.13466,0.060283,-0.10646
-0.36957,-0.50151,-0.47025,-0.16372,-0.093566,-0.039269,-0.27156,0.41228
0.14333,0.41472,0.19979,0.074444,0.041443,-0.071265,0.16203,0.82547
-0.12267,-0.09255,-0.0050052,0.032154,0.0042875,-0.03985,-0.036645,-0.44493
0.30076,-0.00092675,0.19784,0.0056882,-0.041322,-0.1485,-0.17137,0.58254
0.25852,0.28975,0.12947,0.14289,0.12317,0.21973,0.11031,-0.53456
-0.27063,-0.020313,-0.10824,-0.12706,-0.056935,0.010037,0.19177,-0.11401
0.1456,-0.51458,-0.21066,-0.054493,-0.050259,-0.051044,-0.090952,-0.30034
-0.57635,0.34551,-0.43599,-0.092647,-0.02841,-0.049477,-0.035208,-0.75107
0.18213,-0.045085,0.45745,0.047688,0.01675,0.0068608,-0.048273,0.46516
0.22581,0.065507,0.13311,0.085595,0.062106,0.094409,0.095039,0.38357
0.41248,0.71673,0.34818,0.13086,0.061032,0.04895,0.080771,0.36065
-0.38598,-0.78649,-0.52294,-0.15987,-0.095715,-0.082758,-0.21732,0.088187
0.021598,0.2215,-0.066631,-0.020685,-0.025315,-0.081964,0.051594,-0.20479
-0.040975,-0.37239,0.060683,0.017305,0.022136,0.0046428,-0.0032219,-0.057382
-0.038125,-0.2014,0.1248,0.040081,0.023049,0.060255,-0.021799,-0.026728
0.27068,-0.0049611,0.11845,0.071059,0.055403,0.038511,0.18453,-0.39828
-0.23865,0.35501,-0.31701,-0.11634,-0.076213,-0.099123,-0.23428,0.25264
-0.10928,-0.029053,0.092679,-0.0064476,-0.0046165,0.030553,0.07494,0.20252
-0.061465,0.61484,0.066884,0.041491,0.0046542,0.0292,0.035436,0.057098
0.053386,-0.27854,-0.0035364,-0.058272,-0.024807,0.05278,0.16374,0.22068
0.056136,-0.16707,0.021748,0.022579,0.032166,-0.10253,-0.18053,-0.84582
0.016467,-0.065538,0.06378,0.05757,0.035046,0.062222,-0.052523,-0.39072
-0.33454,-0.36581,-0.19899,-0.062767,-0.063079,0.038005,-0.070601,1.0966
0.57416,0.23382,0.58359,0.075298,0.057892,0.058012,0.08379,-0.55292
0.12193,-0.20069,-0.61315,0.018077,0.022578,-0.14428,0.22884,0.90534
0.020242,0.48166,-0.0087977,-0.078896,-0.067955,-0.03802,-0.18454,-0.4963
-0.16272,0.079847,0.02921,0.018004,0.02796,0.0097937,0.37302,-0.047172
-0.23469,-0.052255,0.0011569,-0.01217,-0.01043,0.023384,-0.60751,-0.37347
0.13826,-0.25514,-0.068881,-0.0057418,-0.0036996,0.089925,0.16273,0.4452
-0.33225,0.24969,0.58546,0.029423,0.0012574,-0.054735,0.098786,-0.10779
0.11614,-0.3037,-0.30079,-0.0079207,0.0046906,-0.0028909,-0.086378,-0.094766
-0.054696,-0.14708,-0.070914,-0.02337,-0.00072054,0.0044789,0.0084806,0.18912
0.22245,0.553,0.064551,0.054291,0.024753,0.046297,0.089557,-0.14355
-0.15437,-0.5866,-0.18299,-0.062974,-0.058775,-0.056829,-0.059115,-0.35411
0.33925,0.20824,0.085592,0.03208,0.03064,0.015208,0.041013,0.21819
-0.18648,-0.038704,-0.16005,-0.058179,-0.018974,-0.04292,-0.0076631,-0.040109
-0.1618,-0.19614,-0.036087,0.0026667,-0.0042211,0.033465,-0.057153,-0.025548
0.26987,0.85634,0.43494,0.15219,0.082669,0.079207,0.18781,0.47221
-0.022012,-0.65525,-0.1371,-0.063086,0.006976,-0.016136,0.11544,0.12182
-0.053516,0.13186,-0.18975,-0.026672,-0.052192,-0.097199,-0.37072,-0.30859
-0.12432,-0.0086501,0.010689,-0.028545,-0.048653,-0.031748,0.17999,0.59662
-0.012406,0.16382,0.60376,0.039723,0.016916,0.047177,-0.21855,-0.76203
0.2064,0.24139,-0.60715,0.0054522,0.050231,0.045939,0.010984,-0.38053
-0.26271,-0.40858,-0.20135,-0.10846,-0.058394,-0.074152,0.15006,0.16185
0.035981,0.17844,0.2188,0.025878,0.019105,0.13275,0.012138,-0.17226
0.30139,-0.55989,0.059207,0.064813,0.032902,-0.043725,0.09085,0.46463
-0.23483,-0.025189,0.14031,0.0008455,-0.040083,-0.071756,-0.16697,0.23338
0.11378,0.23606,-0.021783,0.060997,0.034991,0.041328,0.15407,-0.12753
-0.073929,-0.023904,-0.27799,-0.035471,-0.0070006,-0.00095285,-0.10131,-0.10768
-0.076929,0.12657,0.29424,-0.053683,-0.0093515,-0.010809,0.036178,0.48094
-0.016705,0.47611,0.054819,0.006802,-0.0029546,-0.027131,-0.089566,-0.6834
-0.225,-0.5734,-0.43342,-0.072423,-0.026661,0.0048067,0.12288,0.38872
0.47432,0.37527,0.27484,0.076026,0.036754,0.069275,-0.076811,-0.079361
-0.032217,-0.0036821,-0.2505,0.022473,0.0074649,-0.021472,-0.0015478,-0.027921
0.02377,-0.1798,0.33353,0.0010901,-0.021077,-0.0099851,-0.011144,-0.47431
-0.082737,0.44643,0.16643,0.03492,0.021026,-0.013879,0.026779,0.167
-0.22638,-0.5481,-0.042135,-0.017187,0.00049995,0.013288,0.010225,-0.1111
0.13905,-0.20893,-0.41043,-0.030772,-0.020588,-0.030417,0.0090568,0.74744
-0.0034563,0.25029,0.0375,-0.053148,-0.011317,-0.012442,-0.055319,-0.43562
-0.015153,-0.25509,0.1612,0.056075,0.043777,0.067089,0.082246,0.5518
0.015922,-0.28293,0.078843,-0.031207,-0.042776,-0.026181,-0.031812,-0.35209
0.13451,0.79063,-0.082832,0.036825,0.010489,-0.003048,0.016231,-0.52969
-0.21604,-0.2774,0.0064579,-0.028461,-0.0070041,-0.011718,-0.023792,0.27718
0.22041,0.20627,-0.21363,-1.3626e-05,0.0067334,0.010595,0.020054,0.16287
-0.11988,0.37018,0.27422,0.013232,-0.0025763,-0.029572,-0.16442,-0.36396
-0.042314,-0.33167,-0.32615,0.027194,0.012249,0.047712,0.1733,0.39304
-0.062723,-0.34599,0.11761,-0.0049048,-0.0033381,-0.054272,-0.012997,0.067632
0.17073,0.011806,0.50222,-0.012847,0.0053024,0.031704,-0.042907,-0.19113
-0.044489,0.058637,-0.15153,0.0031292,0.014511,0.039938,0.092027,-0.078474
0.01114,-0.075638,0.22373,0.019292,0.0083278,0.0015106,-0.029552,0.05351
-0.13822,0.2087,-0.54632,-0.042743,-0.029239,-0.052541,-0.024494,0.30529
0.047013,0.23937,-0.19731,0.0043745,-0.012562,0.0025864,-0.14267,-0.25434
0.16861,-0.19347,0.036808,-0.01905,-0.0043259,-0.020734,0.10021,-0.11141
0.015466,-0.064108,0.095491,0.0042886,-0.0045612,0.01809,0.039763,0.013774
-0.33479,-0.65864,0.044249,-0.011358,-0.0053413,0.025372,0.019206,-0.18469
0.2578,0.64306,0.48786,0.11388,0.063858,0.024674,0.014411,0.74569
-0.027752,0.13997,-0.58674,-0.065195,-0.03109,-0.085419,0.0715,-0.35915
-0.09807,-0.35484,0.35295,-0.056404,-0.024335,0.0077161,-0.31801,-0.17811
0.35948,0.31359,0.22849,0.077639,0.053035,0.12446,0.33764,0.18866
-0.24016,0.18116,-0.52431,-0.030445,-0.033267,-0.078917,-0.09445,-0.50696
-0.051543,-0.076801,0.30295,0.025383,0.0058366,-0.0087257,-0.17644,0.36979
-0.15034,-0.0040399,-0.1284,-0.059729,-0.032813,-0.032227,0.12361,-0.0077765
-0.041456,-0.26846,0.046689,0.026643,0.022594,0.030192,0.041021,-0.3814
0.066983,-0.043999,-0.19637,-0.0045247,-0.0077035,0.014428,-0.11069,0.57609
0.13805,-0.21322,0.072189,0.034403,0.040275,0.037671,0.13028,0.06549
0.21947,0.023225,-0.13875,-0.059511,-0.028867,-0.048462,0.03007,0.27101
-0.12701,0.31003,0.15683,0.042034,0.011344,-0.032943,-0.16903,-0.12319
-0.22412,-0.37162,0.023001,-0.04368,-0.050126,-0.00942,0.079447,-0.7523
0.16663,0.46676,0.10917,0.011439,0.013178,0.037808,0.087212,0.2817
0.1034,0.45293,0.15757,0.066584,0.04489,0.038443,-0.0061943,-0.027029
-0.027343,-0.14634,-0.22327,-0.019159,-0.0097911,0.015849,-0.13944,-0.1743
0.17748,-0.25327,0.4887,0.089825,0.052168,-0.037939,0.10047,0.0094745
-0.53373,-0.34565,-0.65327,-0.12233,-0.066142,-0.052815,-0.15447,0.15478
-0.12949,-0.2531,-0.19697,-0.022877,0.0025177,0.080387,0.1422,-0.054648
0.14989,0.093303,0.052853,-0.064767,-0.054199,-0.083812,-0.0095766,0.69516
0.15109,-0.010808,0.16731,0.018004,0.021759,0.040437,0.046809,-0.16764
0.25228,0.50355,0.35877,0.085297,0.027544,0.0078211,-0.055163,0.0089955
-0.090809,0.25185,0.027343,0.075072,0.057154,0.044986,0.021359,-0.3432
0.092139,-0.17441,-0.19265,-0.051428,-0.053318,-0.074479,-0.11319,-0.23794
-0.089143,0.15201,-0.19854,-0.028488,0.00084674,0.0011889,0.12823,0.14047
0.0053757,-0.5367,0.23685,0.073465,0.047686,0.069094,-0.06588,-0.13215
-0.16442,-0.14015,-0.2848,-0.12082,-0.069219,-0.073652,0.0084126,0.18674
-0.021361,0.17008,0.11121,-0.010042,-0.0063109,0.034122,3.1228e-05,-0.26737
-0.073715,0.13029,0.11951,0.085262,0.056571,0.025443,0.11221,0.25191
0.11626,0.071863,0.13757,-0.038126,-0.021272,-0.013571,-0.084991,0.24918
0.11191,-0.2904,-0.24202,0.010435,-0.0054335,-0.02028,-0.0062441,0.072211
-0.077798,-0.070066,0.018572,-0.018965,-0.020797,-0.041486,-0.050814,-0.21386
-0.045576,0.64164,-0.042777,-0.0090414,0.010933,0.039981,0.030337,-0.030031
0.029464,-0.49045,0.24484,0.024616,-0.011645,-0.0025861,0.033107,-0.40842
0.076832,0.14187,-0.40829,0.027244,0.020939,0.018023,0.0034617,0.34399
0.040838,0.36385,0.50537,0.037699,0.030537,0.038868,-0.043732,0.1068
-0.10366,-0.25026,-0.22497,-0.077136,-0.022073,-0.042168,0.015975,0.16559
0.063123,-0.12625,-0.23158,-0.012916,-0.01217,-0.045999,0.033855,-0.14676
0.062562,0.045428,0.18173,0.019118,0.020845,0.058072,-0.036959,0.22248
-0.31784,-0.50985,-0.023033,0.018775,-0.0014779,0.0040149,0.14761,-0.31304
0.15561,0.28698,0.045903,-0.013974,-0.024681,-0.020838,-0.25556,-0.53338
0.22552,0.50139,0.10834,0.0069586,-0.001959,-0.00073953,0.12942,0.25149
-0.17687,-0.2763,0.087004,0.011573,0.0042996,0.0022358,-0.024536,-0.017936
0.029036,0.15417,-0.35343,-0.030955,0.0021867,-0.011231,0.010158,0.45774
0.010316,-0.77303,0.060765,-0.0029672,-0.0079107,-0.016864,-0.039102,0.077992
-0.33945,0.60921,-0.13135,-0.036844,-0.025582,-0.021619,-0.015607,0.099665
-0.080519,-0.28425,0.22611,0.094292,0.066707,0.06116,0.10405,-0.62866
0.51458,0.52909,0.32771,0.0077666,0.0035365,-0.0024646,0.030231,0.86522
0.08563,-0.1349,-0.49947,-0.069909,-0.043184,-0.0092991,-0.081793,-0.46241
0.005009,-0.0091711,0.28245,0.032922,0.012354,0.024719,-0.014498,-0.42001
-0.043782,0.21164,-0.14796,0.026878,0.037091,0.044278,0.38719,0.02959
-0.18249,-0.22113,0.34135,-0.033686,-0.039569,-0.092044,-0.60413,0.15265
-0.016781,-0.35873,-0.53111,-0.039667,-0.014754,0.0055803,0.089351,0.12418
-0.033708,0.071002,0.031871,0.016592,0.0020063,0.016207,0.085081,0.12126
-0.0073057,0.062381,0.1326,0.010062,-0.0049544,-0.029263,0.032258,0.10342
-0.13121,-0.14509,-0.12652,0.018946,0.019116,0.033218,0.15847,-0.4774
0.066942,-0.19286,0.30194,-0.0035039,-0.0037801,-0.030442,-0.10558,0.33777
0.11543,0.55925,-0.043026,0.0053363,0.012424,0.03025,-0.0091047,-0.21251
-0.01192,-0.038799,0.0096713,-0.032591,-0.018124,-0.034132,-0.082923,-0.0013371
0.056372,0.32941,0.021195,0.054576,0.037396,0.065995,0.15738,0.14246
0.12777,-0.092803,0.083821,-0.022325,-0.016402,-0.028382,-0.10099,0.2781
-0.11725,-0.29129,-0.28789,-0.013458,3.7414e-05,0.011001,0.14151,-0.091973
-0.047038,-0.14443,0.062186,-0.036209,-0.038437,-0.034693,-0.27185,-0.16977
0.054329,-0.18773,-0.083577,0.010793,0.00085707,0.01395,0.11945,-0.19666
-0.027921,0.34024,-0.043106,0.057091,0.047529,0.031549,0.05739,-0.17889
-0.07918,-0.10299,0.42128,0.040123,-0.0078054,-0.029173,-0.028368,0.51955
0.045224,0.13659,-0.54617,-0.024436,-0.0010242,0.0033242,-0.0048938,0.10722
-0.056002,-0.12178,0.19832,-0.089529,-0.025766,-0.019607,-0.067317,-0.16571
0.021767,0.01254,0.19579,-0.014236,-0.019392,-0.019905,0.081408,-0.47628
0.090708,-0.053515,-0.13943,-0.016949,0.010416,0.010312,0.019501,0.40677
-0.012384,0.20459,0.24563,0.090169,0.048124,0.055579,-0.010844,-0.14328
-0.14514,-0.11038,-0.34,0.010464,-0.015614,-0.01672,0.068446,0.067599
0.093149,0.15901,0.12242,0.033041,0.014487,-0.0032707,-0.023929,-0.095294
-0.099811,-0.39238,0.27627,-0.01412,-0.010076,0.010147,-0.17857,0.044348
0.27819,0.37718,0.14834,-0.021909,-0.026856,-0.038841,0.0030589,0.16069
-0.060134,-0.0154,-0.81124,-0.037487,0.0032056,0.013942,0.091452,0.33958
0.011514,-0.068679,0.23254,-0.00636,0.0020633,0.012357,0.032053,-0.10872
-0.217,-0.13258,-0.070594,-0.0066863,0.008937,0.011214,0.027981,-0.39894
0.0047563,-0.20549,0.09496,-0.0070775,-0.022844,-0.044054,-0.061608,-0.24662
0.075332,0.11226,0.15529,0.0083448,0.00066396,-0.012728,-0.026209,-0.0079829
-0.044481,-0.0070136,0.10695,0.039853,0.024893,0.05053,0.44613,0.34406
0.15269,0.47495,-0.10888,0.03295,0.018586,-0.010603,-0.53575,0.18115
-0.083927,-0.31123,0.15864,-0.027953,-0.026227,-0.0010146,0.01218,0.12586
0.0023614,0.20134,-0.019241,0.028885,0.030782,0.032106,-0.019535,-0.54201
-0.082057,-0.1477,-0.22886,-0.070246,-0.029515,-0.036629,0.056765,0.44275
0.12214,0.21577,0.051897,0.0024371,0.0034301,0.018949,0.24919,-0.35674
0.05867,-0.12533,-0.092823,0.0044102,-0.0035124,-0.020221,-0.12948,0.18612
-0.01604,-0.57078,0.1086,0.013531,-0.011457,-0.0058583,-0.071294,-0.12931
-0.13415,0.30976,-0.087615,-0.0016136,0.0030303,-0.00041334,0.0096584,0.043778
-0.022504,-0.13755,-0.010812,0.021436,0.0088724,0.019816,0.12887,-0.033555
-0.0010378,0.20021,0.2678,0.01244,0.0063799,0.00058776,-0.057474,0.28237
0.10309,0.21738,-0.10398,-0.020612,-0.01187,-0.041918,0.083579,-0.068504
-0.16193,-0.13776,-0.040644,-0.014965,0.001393,0.025677,-0.2287,-0.36588
0.15059,-0.082405,-0.12845,-0.032816,0.0074402,0.00072137,-0.032468,0.18759
0.041798,0.3443,0.077734,0.027703,0.0064889,0.016314,0.087533,-0.14312
0.0045963,0.062729,0.085693,0.010597,-0.0092017,0.0021844,0.023139,0.3591
0.00011489,-0.43724,-0.11225,0.0097802,-0.00064354,-0.0028186,-0.037248,0.082578
-0.12816,-0.064197,0.13266,0.025293,0.00071886,-0.014753,0.11759,0.11848
0.048908,-0.015151,0.024092,-0.0054361,0.018057,0.028315,0.057405,-0.68395
-0.047445,0.084325,-0.24969,-0.051312,-0.019222,-0.030457,-0.13322,0.048726
0.13697,0.2114,0.22631,0.051546,0.013651,0.011556,0.028087,0.14407
0.0081767,-0.077697,-0.17964,-0.048581,-0.008465,0.029038,0.17194,0.36039
-0.16023,-0.281,0.025662,-0.015855,-0.030909,-0.064021,-0.29741,-0.53534
0.069733,0.29861,0.11653,0.032498,0.0088963,-0.0018221,0.30625,0.47439
-0.066851,-0.16588,0.0075358,0.010542,0.017343,0.020687,-0.39242,-0.022435
-0.014577,0.020894,0.058153,-0.011406,-0.005418,-0.0038436,0.029201,-0.19579
-0.030757,0.31882,-0.20856,-0.0021275,-0.0045915,-0.004659,0.10401,0.17466
0.25188,-0.070843,0.1285,0.046115,0.058907,0.1045,0.25609,-0.40208
-0.0030356,-0.072114,0.060443,-0.007419,-0.033741,-0.082508,-0.1685,0.37155
-0.069771,0.25084,-0.15614,-0.0066015,0.0063907,-0.0032587,-0.034994,-0.21519
0.035012,-0.57123,-0.11623,-0.10777,-0.063043,-0.033029,0.017233,0.41542
-0.22865,-0.17794,0.085286,0.05622,0.031266,0.023111,-0.11305,-0.64388
