0.031099,0.1235,0.12178,0.020711,0.0074467,-0.0048434,0.0041096,-0.02163
0.0017745,0.027101,0.40123,0.066024,0.0095483,0.012261,0.012456,0.042911
0.033888,0.044107,-0.22509,0.039848,0.010774,-0.018266,-0.010374,-0.0024214
-0.044845,-0.18457,-0.33604,-0.16029,-0.035918,-0.018367,-0.017643,-0.017395
0.038806,0.068467,0.15371,0.066547,0.025708,0.012047,0.0061403,0.013344
-0.082257,-0.17981,-0.037338,-0.084482,-0.022942,0.010699,-0.0016083,-0.011838
-0.0013577,0.11137,-0.096551,0.0041593,-0.017507,-0.014298,-0.0018397,-0.0068312
0.00096756,0.068829,0.17178,0.028574,0.01115,-0.00013007,-0.002304,-0.057166
0.019352,-0.05592,-0.1148,0.0054404,0.0087329,0.014383,0.00493,0.048667
0.023421,0.042725,-0.010921,0.037402,0.0068031,-0.0097068,-0.011247,-0.0012064
-0.0252,-0.041401,0.092301,0.0081572,0.013335,0.021309,0.011787,0.012511
0.07697,0.15968,0.22509,0.051067,0.0048776,-0.017763,-0.0040247,0.043293
-0.013859,0.035129,0.22986,-0.036825,-0.0031112,0.021228,0.027254,-0.018163
0.030024,0.036307,-0.26173,0.072455,0.035991,0.0051644,0.0039919,-0.031452
-0.12019,-0.28377,-0.5627,-0.1605,-0.049939,0.0041381,-0.019227,-0.02048
0.019037,-0.11381,0.15562,-0.02516,-0.018872,-0.028784,-0.0034443,0.04537
-0.029671,0.053482,0.0355,-0.0062851,-0.042702,-0.070014,-0.050288,-0.045525
0.022022,-0.00050354,0.063801,0.012961,0.011501,0.037044,0.019922,0.018718
0.056385,0.18575,0.26673,0.079098,0.050191,0.035055,0.050989,0.018908
0.049651,0.19112,0.10765,0.1136,0.050142,0.026077,0.0039389,0.033
-0.029502,-0.13215,-0.25561,-0.0011725,-0.0041271,-0.0051125,-0.027374,-0.024781
0.0066341,0.036762,0.17739,-0.0469,-0.026645,-0.0036118,-0.0037959,-0.013296
-0.036751,-0.098646,-0.27374,-0.14888,-0.033116,-0.024138,0.0044183,-0.048899
-0.13546,-0.27239,-0.0090504,-0.018086,-0.031517,-0.035717,-0.049591,-0.044608
0.094258,0.21126,0.078544,0.048848,0.032627,0.031474,0.060705,0.14129
-0.073251,-0.15506,-0.14635,-0.01008,0.018461,0.059616,0.022721,-0.068394
0.22992,0.33999,0.43086,0.10261,-0.0039321,-0.053538,-0.030852,0.069084
-0.05059,0.048108,-0.090543,0.0046629,0.019929,0.027319,0.0092224,-0.079056
-0.12588,-0.43721,-0.24353,-0.069196,-0.035129,-0.034221,-0.021242,-0.091527
0.050271,0.2349,-0.052447,0.037377,0.018286,0.011608,0.0026664,0.14767
0.015881,0.20396,0.21711,0.027362,0.00046544,-0.03045,-0.028464,0.011868
-0.034971,-0.32043,-0.05105,-0.02921,-0.002551,-0.0037996,-0.013064,-0.01644
0.076214,0.097886,-0.19883,0.00019925,0.0094744,0.068705,0.095779,0.11565
-0.034275,0.067209,0.12778,-0.072032,-0.033396,-0.030944,-0.014385,0.008381
-0.077783,-0.20205,-0.0059985,-0.0035904,0.009948,0.026172,-0.0075608,-0.29973
0.18028,0.6497,0.33222,0.10436,0.01505,-0.048271,-0.016488,0.12919
-0.13425,-0.40777,-0.097379,0.049312,0.037124,0.0041268,-0.041069,-0.15678
-0.16844,-0.59927,-0.41796,-0.21491,-0.1031,-0.035039,-0.042123,-0.030884
0.055903,0.092996,0.035719,0.054514,0.024308,0.021782,0.042979,0.21181
0.14193,0.44464,0.1234,0.053268,0.052129,0.088389,0.073708,0.041424
0.051835,0.019829,0.11023,0.031337,0.0034963,-0.023263,0.0032269,0.16171
0.098774,0.62408,0.1355,0.074185,0.0341,0.0063965,-0.0044316,-0.13848
-0.17037,-0.64897,-0.1076,-0.053458,-0.044299,-0.081254,-0.082161,0.0072147
0.048495,0.21547,0.14394,0.045669,0.040946,0.056801,0.059011,0.011921
-0.12059,-0.51031,-0.40178,-0.16875,-0.093684,-0.056548,-0.041916,-0.054557
0.0087332,-0.21026,-0.067753,0.020925,0.0044215,-0.023159,-0.009961,-0.15279
0.060378,0.37248,0.24532,0.043567,0.014688,0.055363,0.014265,0.17957
0.072469,0.2058,0.15297,0.023743,0.0074124,0.030736,0.015145,-0.29739
-0.13543,0.10901,0.11517,0.0082639,0.029636,-0.01083,0.00044985,-0.15918
-0.0092322,-0.067801,-0.41526,-0.033896,0.0035017,-0.0065183,0.048191,0.33857
0.036482,-0.28756,-0.0083087,-0.00076369,-0.00038959,-0.002893,-0.013688,0.3375
0.14185,0.04887,0.047878,0.0065948,-0.013024,-0.015295,-0.044769,-0.022406
-0.013875,0.28274,0.33279,0.12151,0.028329,0.0034206,-0.029587,-0.095091
-0.14197,-0.025564,-0.089359,-0.1008,-0.024545,0.045716,0.078685,-0.33744
0.10905,-0.25221,-0.099409,0.012081,0.0082971,-0.020917,0.030161,0.44148
-0.057348,0.032735,-0.10931,-0.0705,-0.060334,-0.086768,-0.15144,-0.34054
0.070629,0.33117,0.19559,0.081813,0.043372,0.059448,0.049923,-0.0068058
-0.075942,-0.44704,-0.2921,-0.084956,-0.016132,0.011789,0.0096984,-0.050868
-0.096843,0.16399,0.038593,0.00018129,0.0036935,0.020464,0.056394,-0.13637
-0.044865,-0.31451,0.071374,0.025259,-0.014108,-0.078555,-0.044161,0.25428
0.065985,0.20882,0.071839,0.076497,0.078957,0.066121,0.043926,0.34282
0.041341,0.035128,0.19517,0.013235,-0.014121,-0.0068387,-0.031209,-0.37517
0.13117,0.29954,-0.060627,-0.024255,-0.012386,0.030131,-0.0044368,-0.084006
0.20941,0.41611,0.13004,0.033747,0.021288,0.043579,0.092421,0.14073
-0.24152,-0.79715,-0.39945,-0.1494,-0.085342,-0.068655,-0.053642,0.24599
-0.028672,-0.0083858,-0.11209,0.019369,-0.020054,-0.049201,-0.083559,-0.31444
-0.13871,0.23828,0.31915,0.055147,0.021684,-0.062334,-0.052058,-0.072011
-0.073278,-0.37482,-0.24634,-0.0033522,0.047641,0.087278,0.080149,0.027073
0.25284,0.6791,0.27841,0.054662,0.018773,0.0092053,0.024404,0.083073
-0.12094,-0.50161,-0.15958,-0.036416,0.0054244,0.031851,0.01553,0.49296
0.15042,0.20639,0.0823,0.028246,0.0075993,0.038291,0.022637,-0.58841
-0.21245,-0.25158,0.013653,-0.07145,-0.060667,-0.057223,-0.0087931,-0.068409
0.050386,0.079039,-0.12988,-0.030577,-0.019729,-0.020203,-0.086626,-0.088441
0.14399,0.26328,0.20693,0.1042,0.060062,0.024419,0.10921,0.3745
-0.016172,0.10115,-0.030847,-0.049804,-0.040056,-0.056096,-0.10913,-0.18759
-0.10129,-0.46665,-0.18001,0.0074252,0.039302,0.082127,0.11737,0.41273
0.0604,-0.0076718,0.055013,0.017959,-0.029964,-0.05291,-0.047474,-0.17611
0.053973,0.22216,0.17282,0.03626,0.025602,0.0077792,-0.04907,-0.16496
-0.13759,-0.15929,-0.21066,-0.039527,-0.004945,-0.0090105,0.0033068,-0.17085
-0.023784,0.35521,0.059929,-0.076884,-0.06696,-0.048427,-0.038523,0.025283
0.1124,0.060784,0.046712,0.041133,0.081658,0.11613,0.091416,0.056576
0.019445,-0.18567,-0.0079893,0.040938,-0.012333,-0.062361,-0.020585,0.095107
-0.014701,-0.050821,-0.12705,0.016238,0.025939,0.079884,0.07888,0.062665
0.048466,-0.23992,0.073169,-0.025089,-0.022379,-0.027848,-0.055333,0.18537
-0.30662,-0.043151,-0.070548,-0.067262,-0.079198,-0.096899,-0.063792,-0.22497
0.22537,0.28966,0.13781,0.061823,0.058667,0.044296,0.022232,0.02626
0.12997,0.42394,0.31581,0.06557,0.032005,0.012786,0.030806,0.21994
-0.10701,-0.66927,-0.31771,-0.040096,-0.0026707,-0.0038605,-0.061588,-0.55774
-0.062186,0.043949,-0.24733,-0.082998,-0.045037,-0.021018,0.049647,-0.008965
-0.077955,-0.24642,-0.028055,-0.03162,-0.016631,0.00074388,-0.018428,0.35996
0.15133,0.68786,0.25381,0.08299,0.059405,0.08525,0.069945,-0.058647
-0.13955,-0.027772,0.090187,0.073442,-0.051099,-0.15,-0.0761,0.0179
0.16636,-0.37089,0.34032,-0.013379,0.065989,0.12328,0.019706,-0.034667
0.099536,0.30463,-0.5035,-0.029108,-0.019092,-0.0011849,0.005498,0.056916
-0.14591,-0.34026,-0.1987,-0.067598,-0.025299,-0.015773,0.013822,0.033798
-0.00094006,0.22237,0.036589,0.0038701,0.023634,0.032331,0.021073,0.35533
-0.0056571,0.18512,0.25778,0.01337,-0.044502,-0.13065,-0.08996,-0.53482
-0.074649,-0.35195,-0.018891,-0.0078659,0.012169,0.041859,0.016802,-0.012813
0.081284,0.19724,0.20678,0.065147,0.044965,0.080942,0.060409,0.069488
-0.099598,-0.35307,-0.28429,-0.025464,-0.024386,-0.013436,-0.0055963,-0.38098
0.016693,0.039245,-0.0086573,-0.0063934,-0.031853,-0.077107,-0.055742,0.56695
0.07984,0.35437,0.22759,0.051841,0.061702,0.062023,0.058862,0.079231
-0.12796,-0.49034,-0.26464,-0.093195,-0.071676,-0.072331,-0.067666,-0.32677
0.1983,0.36655,0.1694,0.066072,0.068247,0.10606,0.080528,0.24856
0.026939,0.14407,-0.19008,-0.064289,-0.026083,-0.0041166,0.0035091,-0.11635
-0.041659,0.20774,0.2112,0.0078151,-0.034113,-0.05111,-0.056641,-0.14872
0.053359,-0.11753,0.13936,0.09489,0.036517,-0.011389,-0.0064243,0.14214
-0.21319,-0.3747,-0.36522,-0.12329,-0.032869,-0.01777,-0.0024565,0.043206
0.016624,0.1046,-0.034885,0.040892,0.03111,0.039019,0.048579,0.059998
0.117,0.28701,0.25001,0.06414,0.017335,-0.020916,-0.010026,-0.10648
-0.11519,-0.58537,-0.047152,-0.030005,0.0036501,0.028694,-0.030262,-0.043746
-0.061994,-0.12769,-0.22134,-0.046174,-0.025893,0.02343,0.034393,-0.01035
0.23886,0.49183,0.2362,0.031272,0.022158,0.041053,0.035269,0.11106
-0.10943,-0.058361,-0.026411,-0.016441,-0.055524,-0.11406,-0.090203,-0.28787
0.004121,0.03041,-0.057712,0.013776,0.0066249,-0.012408,0.0018239,0.11477
0.041793,0.010742,0.27234,0.028153,0.013381,0.0022205,0.0069175,0.17241
-0.011151,0.19573,-0.047425,-0.01236,0.02746,0.07839,0.050445,0.011802
0.033174,-0.080179,-0.12966,-0.013935,0.0022791,-0.010209,-0.0077987,0.18125
-0.1222,-0.21862,-0.11745,-0.015496,-0.007167,0.010193,0.027917,-0.029209
0.037874,0.20605,-0.07439,-0.024661,-0.024049,-0.031923,-0.052979,-0.60346
-0.065504,-0.08354,-0.054618,0.021279,0.006506,-0.0034047,-0.0080084,0.17738
0.090174,0.065973,0.24079,0.02875,-0.0013626,-0.036784,0.0067789,0.039628
0.027369,-0.29973,-0.11475,-0.0021565,0.022624,0.032197,0.014921,0.29528
0.026436,-0.11746,-0.070863,-0.016774,-0.0076046,0.039567,0.00079177,0.060768
0.11014,0.25573,0.3678,0.062891,0.0093162,-0.022517,0.011157,0.1477
-0.17498,0.026248,-0.085558,-0.0055584,0.018477,0.041122,0.0067468,-0.49159
-0.11006,0.0099685,-0.20334,-0.10516,-0.058448,-0.043174,-0.028364,0.056502
0.0085328,0.26418,0.04544,0.0060621,-0.034101,-0.1038,-0.063296,0.010746
0.040939,-0.25677,0.057804,0.031113,0.060193,0.085525,0.065596,-0.15182
0.01922,-0.014263,-0.13718,0.040236,0.044739,0.087038,0.068816,0.16326
0.1627,0.020979,0.17667,-0.013466,-0.056986,-0.076044,-0.046226,0.17533
0.0027732,0.16622,-0.010964,0.026257,0.020706,0.018,-0.006407,-0.060775
-0.09375,-0.19919,-0.24905,-0.067165,-0.018988,-0.021513,0.0084205,0.31373
-0.026116,-0.0080779,0.29691,0.049998,0.02713,0.024222,-0.056402,-0.39779
-0.05319,0.042086,-0.11591,-0.04415,-0.059617,-0.10244,-0.02095,-0.29882
0.027106,-0.072842,-0.11235,0.033188,0.064587,0.1144,0.060506,0.16309
0.1046,0.29651,0.18341,0.047647,0.0091842,-0.0046237,0.016613,0.16545
-0.071067,-0.45676,-0.18048,-0.086667,-0.046083,-0.029517,0.0041643,0.52681
-0.06225,0.10843,0.06309,0.0053281,-0.015234,-0.014709,-0.038868,-0.49592
0.053593,0.16805,0.14997,0.019051,0.031438,0.024319,0.020669,-0.027493
-0.0037247,-0.14118,-0.16077,0.001488,0.0001662,0.0094505,0.018889,-0.066261
0.0092754,0.22275,0.21004,0.030858,0.00026746,-0.020384,-0.020763,-0.093571
-0.062359,-0.14485,-0.033714,-0.033405,-0.007423,-0.018569,-0.035923,-0.050675
0.087155,0.12306,-0.21952,0.011846,0.023839,0.030174,0.035665,0.26219
0.013235,-0.10029,0.035977,0.02599,0.00017134,0.031718,-0.017247,-0.28375
0.020848,-0.083563,-0.055828,-0.0065815,-0.016022,-0.037718,0.031569,0.46276
-0.054244,0.10702,0.075656,-0.046751,-0.024766,-0.014314,-0.0056973,-0.15351
0.037405,0.26461,0.14129,0.022782,0.020875,0.023722,0.019143,0.061797
-0.1269,-0.2701,-0.16422,-0.032209,-0.01176,-0.017257,-0.050309,0.035622
-0.024689,-0.26458,0.0016024,0.014989,0.010346,-0.011963,0.00467,-0.31409
0.1321,0.24948,0.10561,0.016019,0.0092873,0.032222,-0.0033275,0.063014
0.045655,-0.17227,0.028288,0.0098985,-0.0069494,-0.017012,0.019634,0.32705
0.0042119,0.11277,0.22037,-0.0035854,-0.01484,-0.018558,-0.019963,-0.44673
-0.063131,0.04449,-0.30451,0.014262,0.0012132,0.020144,0.042169,-0.02539
-0.00041907,0.070379,-0.031893,0.023912,0.041068,0.021155,0.0030782,0.31776
-0.10447,-0.034671,-0.17271,-0.029784,0.0029374,-0.015567,-0.051206,-0.1658
0.093884,0.14384,0.17266,0.0090803,-0.011867,0.0034554,0.0512,0.51855
-0.021857,-0.2228,-0.063925,-0.054933,-0.026996,-0.0081745,-0.056957,-0.68881
-0.013337,0.028165,0.11241,-0.010745,-0.019125,0.011475,0.038277,0.04303
0.096868,0.12951,0.10275,0.024843,0.011759,0.014954,0.0086479,0.075653
-0.081125,-0.17794,-0.20018,-0.017932,0.0032963,-0.02166,-0.020967,0.1837
0.070407,0.21454,0.32207,0.033397,-0.020855,-0.059606,-0.019422,0.1172
0.020528,-0.14581,-0.12711,0.069964,0.072368,0.065103,0.021019,-0.12501
-0.090016,-0.14823,-0.18888,-0.0016386,0.0019304,0.016694,0.02218,0.056667
0.012199,-0.063892,-0.012803,-0.079708,-0.036705,-0.024776,-0.0081597,0.1677
-0.10262,0.28168,0.095132,-0.008035,-0.012223,-0.011922,-0.030961,-0.63775
0.081,-0.11692,0.024343,0.0022768,-0.0027623,0.0089364,0.0084447,0.31868
0.04717,-0.0002924,-0.015092,-0.0099481,-0.031844,-0.039813,0.0006686,-0.12734
0.12366,0.46785,0.1483,0.095651,0.080078,0.08439,0.070702,0.3687
-0.20565,-0.5808,-0.26664,-0.10307,-0.065632,-0.079224,-0.086138,-0.22286
0.097721,0.17164,0.045215,0.049887,0.046406,0.070837,0.030176,0.11556
-0.11531,-0.082956,0.10013,-0.023874,-0.013773,-0.012592,-0.017796,-0.27825
0.084324,0.049944,-0.10136,0.011327,0.003549,-0.0018372,0.0044107,0.050091
-0.022638,0.0040999,-0.027793,-0.0088362,-0.0034302,-0.038045,0.0031584,0.18681
0.094734,0.16717,0.17983,0.016952,-0.0036151,0.01892,0.025439,-0.032971
-0.0089223,0.053144,-0.081055,0.025988,0.018593,0.012443,-0.014584,0.19362
-0.075514,-0.30665,0.086485,-0.052163,-0.06168,-0.065473,-0.023089,-0.09684
0.0049627,0.22256,0.1182,0.055951,0.052715,0.066431,0.039014,0.0071845
-0.071255,-0.37898,-0.15935,-0.0088613,0.0027922,0.0020911,-0.023602,-0.11347
0.056299,0.10454,-0.13776,-0.058737,-0.031317,-0.0081895,0.0077537,-0.12371
-0.041016,0.053387,0.026668,-0.01504,-0.017939,-0.049992,-0.0467,-0.27305
0.082873,0.18317,-0.079198,0.036866,0.066692,0.072335,0.055103,0.41689
-0.04834,-0.081079,0.030755,-0.0275,-0.035065,-0.039378,0.00052418,0.15973
0.11185,0.042891,0.17117,0.050011,0.028331,0.02909,0.015992,-0.36969
-0.17192,-0.055705,-0.1559,-0.0039902,-0.024579,-0.026905,-0.070476,0.018751
0.17704,0.22897,0.16041,-0.0022835,-0.0066498,0.019138,0.069192,0.61594
0.055605,0.048189,0.1364,0.054568,0.011367,-0.020408,-0.025918,-0.44455
-0.1157,-0.025306,-0.071868,-0.029477,-0.0022185,0.010558,0.003677,0.21986
-0.11107,-0.51191,-0.11369,-0.020761,-0.0087096,-0.020904,-0.037151,-0.46218
0.046163,-0.047707,0.0098153,-0.029186,0.022916,0.05701,0.008075,0.039119
-0.041466,0.2097,-0.23366,-0.01589,-0.0089569,-0.021318,0.038018,0.17529
0.0027569,-0.020364,0.084891,-0.019753,-0.026075,-0.044863,-0.025279,-0.00052551
0.071541,0.11577,0.15279,0.030064,0.0030954,0.0021404,0.013573,0.033777
0.026257,0.43359,0.032776,0.048371,0.016431,0.018278,0.021723,0.12086
-0.07696,-0.43079,0.014443,-0.01091,-0.016921,-0.0041614,0.0068467,0.11154
0.12182,0.088242,-0.057844,-0.014283,0.020562,0.020759,-0.031249,-0.33044
-0.041973,0.040211,-0.019481,0.015252,0.011897,0.014782,-0.030267,-0.08775
-0.0073019,-0.4244,-0.041992,-0.01593,-0.011623,-0.0067286,0.0096353,0.13713
-0.034144,0.10986,-0.039338,-0.01426,-0.011056,-0.028483,-0.013196,-0.26417
0.13291,0.40145,0.16019,0.043271,0.02117,0.027307,0.057478,0.63917
-0.023912,-0.088759,-0.021945,0.0076588,0.022258,0.027584,0.026398,-0.28463
-0.14664,-0.088154,-0.047269,-0.035739,-0.054941,-0.058978,-0.043836,0.04328
-0.040349,-0.059118,-0.041455,-0.017094,0.015943,-0.0056926,-0.028098,-0.26743
-0.032415,-0.011373,0.18235,-0.0070255,-0.02297,-0.031003,-0.012204,0.13464
0.089774,0.19356,-0.35295,0.0021717,0.0080564,0.037382,0.019563,-0.016701
0.055003,-0.37616,0.18043,0.0027474,-0.0002229,0.020185,0.020353,0.082363
-0.048534,0.19942,0.024496,0.0026764,0.007029,-0.027624,-0.025524,0.047989
0.070017,0.19218,0.10112,0.049014,0.045546,0.065901,0.06146,-0.011446
-0.088389,-0.11759,-0.019255,-0.0065467,-0.009639,-0.011906,-0.023616,-0.10449
0.13245,-0.02707,-0.1567,0.00011324,-0.0023263,0.012034,0.0080666,0.10454
-0.010618,-0.027988,0.032879,-0.040388,-0.049801,-0.050222,-0.046806,-0.024605
-0.027014,-0.0019306,0.034331,0.012554,0.019714,0.0040624,0.014832,-0.23309
0.058014,-0.10326,0.043529,0.0027111,0.0030497,-0.020644,-0.010041,0.20722
-0.18679,0.19377,-0.056077,0.00050558,0.0096208,-0.0071263,-0.011788,-0.053439
-0.0045577,-0.077167,0.07212,-0.0094714,0.00049749,0.029262,0.033397,0.049109
-0.028272,-0.0858,-0.016541,-0.0034811,-0.031929,-0.028217,-0.030348,-0.038715
0.094231,0.036548,-0.063678,0.0031844,0.02976,0.031892,0.039478,0.042672
0.020333,0.024801,0.0014314,-0.012623,-0.017357,0.0069262,-0.014783,-0.10606
0.095096,0.15968,-0.055428,0.019577,-0.0012792,-0.009064,0.009957,0.14595
-0.11784,-0.091606,0.062433,0.013831,0.04675,0.054321,0.019718,0.022488
-0.016243,0.049863,0.080982,0.0089822,-0.021826,-0.045234,-0.032738,0.067305
0.0093124,-0.074852,-0.024237,-0.0031842,-0.0041068,-0.018955,0.00061349,-0.0037006
0.059813,-0.10896,-0.051455,-0.023181,-0.0019389,-0.0078399,-0.005591,-0.28624
0.07171,0.0079866,0.10718,0.026592,2.3843e-05,0.011176,0.018728,0.14879
-0.057812,0.11857,-0.057578,-0.018361,-0.021874,-0.0012787,-0.020231,-0.18195
-0.025186,-0.050817,-0.13278,-0.041105,-0.0052478,-0.0063485,-0.012958,0.052263
-0.026395,0.11786,0.099774,0.028638,0.034274,0.034925,0.017391,0.21449
-0.038012,-0.22529,-0.039447,0.003554,-0.012588,-0.02591,-0.022578,-0.011408
-0.035895,0.062588,0.067595,0.0089953,0.0027686,0.0065051,0.047163,-0.035543
0.028101,0.14021,0.10986,-0.0014741,-0.0054095,-0.0083797,-0.01533,-0.16742
-0.024176,-0.021343,-0.18425,-0.0039799,0.0099215,0.03108,0.0087804,-0.014867
0.097749,-0.12328,-0.21901,-0.0059789,-0.013619,-0.062549,-0.029026,0.21093
-0.011452,0.046596,0.26511,0.00056516,0.0099609,0.046719,0.035082,0.039202
0.10153,0.098095,0.058396,0.062601,0.018146,0.022972,0.021096,0.10706
-0.071739,-0.20353,0.098837,-0.062115,-0.028199,-0.032213,-0.063507,-0.30088
-0.0090819,0.17965,-0.1139,0.0012723,-0.0041823,-0.017259,-0.00025249,0.1154
-0.040254,-0.097801,-0.13553,-0.013033,-0.0036747,0.013177,0.0075671,-0.1013
-0.0027924,0.0793,0.11836,0.027635,0.027903,0.0044611,-0.0010187,-0.11007
0.023965,0.30271,0.044586,0.0060017,0.0045367,0.0035443,0.02877,0.29889
-0.03085,-0.36674,-0.077098,-0.015453,0.0043252,0.026142,0.011184,0.12633
-0.010773,-0.28175,-0.021184,-0.028888,-0.043016,-0.052654,-0.022277,-0.34395
-0.039875,0.15092,-0.038183,0.012608,-0.0045944,-0.0062089,-0.0088359,-0.11587
0.070784,0.040682,-0.042135,-0.00034952,0.010328,0.024889,0.004907,0.1981
-0.0052802,0.29417,0.10802,0.033701,0.025308,0.025001,0.0035768,-0.19426
0.06156,0.091562,0.03791,0.020795,0.024809,0.025313,0.018627,0.28126
-0.12608,-0.3558,0.068496,-0.03157,-0.04582,-0.068031,-0.05137,0.017705
0.11971,0.17112,-0.065362,0.016865,0.01652,0.018281,0.035817,0.15624
0.0016856,-0.1712,-0.0040223,-0.037367,-0.014817,-0.0049284,0.0066809,-0.24978
-0.14524,0.062799,-0.091199,-0.0070051,0.00067246,0.0028821,-0.04522,-0.07828
0.1305,-0.08752,-0.11611,0.021939,0.015984,-0.0052037,0.036051,0.2137
0.014615,0.089173,0.11625,-0.005101,0.0075696,0.025504,0.01571,-0.40146
-0.033657,-0.047333,0.1211,-0.025317,-0.032444,-0.014328,0.0026754,0.37715
0.039077,0.26116,0.085537,0.06331,0.036582,0.015997,0.0043295,0.0858
-0.080305,-0.078755,-0.12357,-0.027731,-0.019628,-0.016235,-0.026524,-0.30037
-0.040056,-0.098008,0.024968,0.014637,0.010054,-0.0015303,-0.0040839,0.062464
0.027992,-0.085286,-0.023166,-0.0043603,-0.014739,-0.0022594,-0.0063853,0.035143
-0.030822,-0.001055,-0.14214,-0.060852,-0.023405,-0.010485,-0.0018609,-0.098578
0.05883,-0.024447,-0.057264,0.0016817,0.015569,0.020766,-0.013459,-0.02317
0.033138,0.10289,0.14697,0.05048,0.0086087,-0.025654,0.021889,0.36589
-0.028389,0.014135,0.026538,0.030654,0.033875,0.037718,0.018773,-0.4447
0.0077572,-0.079706,0.019759,-0.026997,-0.025955,-0.031429,-0.0067936,0.39796
0.01648,0.12574,0.025109,-0.013759,0.008507,0.032326,0.007858,-0.16068
-0.0030416,-0.010806,-0.16134,-0.024156,-0.027223,-0.021264,-0.023278,-0.035587
0.025992,0.19736,0.26357,0.06605,0.030449,0.018495,0.0088995,0.060628
0.01614,-0.38331,0.024508,-0.0093821,-0.0064121,0.0029892,0.049298,-0.077097
0.012956,0.14519,0.13527,0.022637,0.0025037,-0.028784,-0.050948,0.018286
-0.16409,-0.22492,-0.60078,-0.095709,-0.013256,0.017004,0.0046853,0.072327
-0.054241,0.17083,-0.0044315,-0.035948,-0.038004,-0.062562,-0.026176,0.13187
0.14766,0.12216,0.11216,0.046293,0.037882,0.045317,-0.002898,-0.38803
-0.0027591,-0.12819,0.26559,0.034584,0.0038416,0.0050088,0.020022,0.053523
-0.0043566,-0.048796,-0.027307,0.0312,0.0087412,0.019871,0.011637,-0.033463
-0.035842,0.13335,-0.0077471,-0.03367,-0.02515,-0.01157,-0.027732,-0.037656
0.059584,0.034343,0.0044225,0.019851,0.019645,0.012172,0.027158,0.36235
-0.014991,0.035407,0.024715,-0.011513,0.0026374,0.0049332,0.012336,0.056977
0.09919,0.10355,0.10729,0.043694,0.0097469,-0.0023446,0.0058428,0.13054
-0.020782,-0.37207,-0.2719,-0.057268,-0.013862,-0.025585,-0.016,-0.53691
-0.14952,0.076569,0.0039674,-0.018051,-0.013724,-0.0103,-0.022269,0.1138
0.1495,0.1294,-0.033709,0.043814,0.033375,0.020034,0.088274,0.34515
-0.12426,-0.11069,0.108,-0.0045468,-0.021169,-0.012564,-0.10648,-0.39204
-0.07232,-0.032144,0.15686,-0.037884,-0.013356,-0.0062356,-0.0050313,0.088744
0.048136,0.094211,-0.24514,-0.016633,0.0021817,0.00032918,0.0098829,-0.10262
0.027152,-0.033777,-0.096886,-0.010483,-0.013474,0.0153,0.016612,0.0043714
-0.0013878,-0.039199,0.070926,0.0202,0.010175,0.015487,0.023246,0.05295
0.11963,0.11008,0.21112,0.052332,0.010782,-0.0068556,-0.0012206,0.10062
0.054709,0.34342,0.30689,0.070303,0.027473,-0.0049938,0.0058615,0.13427
-0.14933,-0.5594,-0.45609,-0.10592,-0.033564,-0.010501,-0.010175,0.17134
0.046107,0.20399,0.31857,0.0699,0.046236,0.038684,0.028703,-0.31059
-0.070614,-0.056583,-0.40996,-0.059252,-0.030267,-0.02196,-0.041723,-0.10808
-0.015809,-0.070231,-0.11141,-0.025336,-0.02116,-0.013117,-0.010666,-0.096253
0.069421,0.18453,0.12832,0.014919,0.01866,0.0025181,0.012415,0.11519
0.013071,0.034798,0.19305,-0.008936,-0.020261,-0.014081,0.0041017,0.19774
-0.043984,-0.14434,0.0063175,0.012703,0.010587,0.0076649,0.0035821,0.018231
0.0082063,-0.015766,-0.054934,0.010061,-0.0057654,-0.0099224,-0.01238,-0.21278
-0.040534,-0.030522,0.057878,-0.0083313,0.0013067,0.004002,-0.012312,-0.073897
0.037117,0.056191,-0.06037,0.0051399,0.016512,0.026503,0.043029,0.20762
0.030781,-0.042044,-0.13591,0.012015,-0.0067465,-0.0045603,-0.010339,-0.048897
-0.020294,-0.0027593,0.10415,-0.0029924,0.0019933,-0.0031133,-0.0084106,0.01463
-0.007011,0.058079,0.14293,-0.016444,-0.0041615,-0.008343,-0.013887,-0.040885
-0.031684,-0.015746,-0.15415,-0.0052444,-0.0097814,-0.0049915,0.0041601,-0.014047
0.092078,0.23556,0.13291,0.037795,0.01604,0.022024,0.021905,0.12475
