0.017655,0.096261,-0.027451,0.0071294,0.020196,0.022757,0.076895,0.16969
0.0175,-0.25113,0.039235,-0.042047,-0.023759,-0.013747,-0.047741,-0.18537
-0.13055,0.067873,0.13514,0.082362,0.026537,-0.0025626,0.00015934,0.11109
0.043051,-0.0029321,-0.17978,-0.019137,0.022255,0.040166,0.056241,0.12176
0.1481,0.31568,0.26278,0.097499,0.017589,-0.0033501,-0.028335,-0.19277
0.16896,-0.09571,-0.32238,-0.11586,-0.042665,-0.055547,-0.0196,0.17453
-0.12921,0.26869,0.29545,0.035081,0.044181,0.047228,0.035281,-0.19938
-0.13773,-0.57672,-0.18326,-0.083015,-0.050254,-0.070199,-0.074729,0.1217
0.072382,0.17273,-0.048615,0.068971,0.025596,0.037571,0.025486,0.16778
-0.20244,-0.16902,0.075158,-0.070802,-0.087355,-0.058832,-0.12473,-0.46059
0.045569,-0.075843,-0.42655,-0.024642,0.048915,0.10199,0.13903,0.18121
0.24649,0.24477,0.48145,0.11506,0.028807,-0.0029207,0.059221,0.20229
-0.067748,-0.0788,-0.14933,-0.040986,-0.014225,-0.037198,-0.0046631,-0.030082
-0.021356,0.42469,0.31071,0.031667,0.021865,0.0072403,0.033236,-0.062347
-0.10584,-0.40005,-0.20495,-0.010182,-0.003311,-0.017948,-0.15542,-0.089102
0.022915,0.11796,0.1187,0.099098,0.043008,0.043424,0.10099,-0.070346
0.060181,-0.15674,-0.31114,-0.12534,-0.042597,-0.019765,-0.096129,0.16689
0.021052,0.17045,-0.12798,-0.012405,0.0050551,0.018815,0.11262,0.18626
-0.0016661,0.12654,0.36135,-0.070848,-0.056692,-0.075433,-0.10066,-0.23765
-0.0091801,-0.0031291,-0.096439,0.11253,0.029599,0.017641,0.014385,-0.15067
0.13791,-0.11925,0.23693,-0.017606,-0.025336,0.0010896,0.0050493,0.2371
-0.30354,-0.30009,0.099694,0.069661,0.051951,0.054622,-0.050207,-0.33943
0.25975,0.24556,-0.042683,0.093122,0.06636,0.061165,0.20815,0.69018
-0.17983,-0.2281,-0.72355,-0.32964,-0.12237,-0.096267,-0.13397,-0.62752
-0.019832,-0.0047621,0.079937,0.10676,0.025279,-0.018956,0.15759,0.089495
-0.071385,0.030396,0.17329,-0.010949,-0.0058609,0.020012,-0.15178,0.41818
0.26089,0.20977,0.26927,0.075814,0.026768,0.013203,0.00029423,-0.29913
0.18164,0.22299,0.15911,0.078458,0.021807,-0.0156,-0.034593,-0.0013639
-0.38617,0.069594,-0.10055,-0.096712,-0.067652,-0.042738,-0.20153,-0.27579
-0.020268,0.004459,0.077472,0.12801,0.086226,0.088044,0.17942,0.32966
-0.096143,-0.34426,-0.361,-0.13882,-0.063966,-0.061039,0.17086,-0.021667
0.21295,-0.24753,-0.048934,-0.01544,0.0045008,0.025048,-0.16496,0.091716
0.108,0.27412,0.21631,0.02052,0.040845,0.056381,0.18688,-0.13492
0.25043,-0.12667,0.074868,0.069776,0.013097,-0.014925,0.069009,0.064312
-0.11231,0.016986,0.073454,-0.016568,-0.016772,-0.017985,-0.25423,-0.075647
-0.43534,0.040968,-0.2719,-0.082226,-0.041171,-0.039517,-0.010584,-0.030566
-0.063221,0.1889,0.26647,0.037403,-0.020894,-0.033044,-0.12274,-0.25263
0.27027,-0.021135,-0.27845,-0.039544,-0.0023101,0.040583,0.073187,0.32165
-0.18284,-0.047172,-0.1389,0.047507,0.04661,0.033512,0.34328,0.49784
0.31494,-0.0035116,0.28882,0.049784,0.017413,-0.021996,-0.24103,-0.47325
-0.1781,-0.19237,0.14687,-0.00043031,-0.010885,-0.015291,0.14215,-0.25502
-0.017859,0.075528,-0.36113,-0.11811,-0.021951,-0.030972,-0.26307,0.067248
0.06401,0.0042344,0.037252,0.017195,-0.023193,0.025894,0.021845,0.033234
0.2097,0.20315,0.4566,0.092578,0.047926,0.054579,0.10026,0.33102
-0.26807,-0.10192,-0.48206,-0.017852,0.027022,0.00074452,0.004728,-0.054577
-0.065699,0.017369,0.26334,0.036247,-0.024016,-0.010796,0.056144,-0.26397
0.10372,0.10634,0.16453,0.019188,-0.012211,-0.051037,-0.089566,-0.094168
-0.028265,-0.20357,0.022372,-0.046716,-0.024289,-0.011665,-0.011768,0.12616
0.32436,-0.10861,-0.071388,-0.037164,0.025041,0.066996,0.053149,0.23976
-0.30215,0.10972,-0.74914,-0.11633,-0.01305,0.01181,0.36833,0.049943
-0.019335,-0.05606,0.26541,0.060022,0.0019931,-0.061098,-0.60784,-0.36688
-0.14093,0.1214,0.00047197,0.086592,0.015732,0.042888,0.23187,-0.020346
-0.018759,0.064853,0.20386,-0.051084,-0.033825,-0.028019,0.096991,0.40813
0.30095,-0.11561,0.27142,0.077764,0.018044,-0.007917,-0.22381,-0.1454
0.077294,-0.14624,-0.074419,-0.057368,-0.023306,-0.028901,0.059106,-0.46316
-0.20376,0.38689,0.019424,0.004714,0.022358,-0.0040195,-0.01378,0.34502
0.037517,0.037974,0.2397,0.11532,0.045969,0.052219,0.15317,0.18551
-0.049037,-0.26391,-0.40826,-0.10903,-0.022774,0.0001938,-0.086495,0.066756
-0.14993,-0.042666,-0.052799,0.0026769,-0.012278,0.028118,0.13609,-0.39292
0.18844,-0.056243,0.17786,0.012108,0.014447,-0.0043181,-0.12323,0.20644
0.12231,-0.16373,-0.47648,-0.057901,-0.013552,-0.011285,-0.028065,-0.21923
-0.13004,0.26043,0.38146,0.026784,-0.034419,-0.04012,-0.031728,0.066507
0.22756,0.044982,-0.25616,-0.061831,0.0059886,0.0022242,0.021331,0.3001
-0.34471,0.13567,0.041052,0.020419,-0.0020673,0.005586,0.11449,-0.0086868
-0.089506,0.032572,0.46147,0.10221,0.0819,0.078608,0.16082,-0.10824
0.2822,0.055755,-0.033367,-0.019076,-0.062328,-0.091768,-0.26232,-0.22396
-0.010361,-0.5921,0.017621,0.071009,0.026499,-0.0058541,-0.077076,-0.089652
0.13536,0.20571,0.04395,-0.07267,-0.041757,0.0081844,-0.017539,0.23197
-0.38096,0.15974,-0.43889,-0.051649,0.014758,0.05212,-0.01261,0.044489
0.012234,-0.16003,-0.07904,-0.0066177,-0.014252,-0.022086,0.016905,-0.068207
0.097046,0.019542,-0.016196,-0.039213,-0.018823,-0.010807,0.68925,0.17221
-0.087347,0.41677,0.024562,0.084901,0.079624,0.016164,-0.61986,0.16071
0.48943,-0.15635,0.4121,-0.024894,-0.054598,-0.057905,-0.19932,-0.54372
-0.21361,-0.1691,0.13997,0.10019,0.0551,0.04857,0.075345,0.2591
-0.23825,0.17508,-0.25213,-0.039782,0.0022883,0.023267,0.062227,0.036119
0.18588,-0.38155,-0.31148,-0.11665,-0.057113,-0.0087907,0.20474,-0.040989
0.12631,0.075616,0.13235,-0.0053812,-0.029756,0.030424,0.19593,0.16213
-0.29381,0.03974,0.13953,0.090895,0.037082,-0.054571,0.041401,-0.53888
0.12038,0.33228,0.23854,0.015874,0.0024209,-0.029585,-0.40107,0.39153
-0.059632,-0.23323,-0.096869,0.011622,0.0065952,-0.0041567,-0.085086,-0.12784
-0.22181,-0.11714,-0.38459,-0.070484,-0.013124,0.021582,-0.06432,-0.0067144
0.29382,0.24305,0.28032,0.042766,0.021208,0.024076,0.24961,0.32056
-0.063372,-0.059554,-0.18028,-0.039499,7.2522e-05,0.034451,-0.23354,-0.10558
-0.05536,-0.018262,-0.069845,0.041869,0.032737,0.013493,0.13073,-0.19987
0.25793,0.076505,0.23896,-0.033636,-0.076171,-0.078029,0.24432,0.12107
-0.099013,-0.096826,-0.18837,-0.031786,0.017101,0.033168,-0.07016,0.10321
0.084227,-0.11725,0.23728,0.031681,0.00012739,-0.035841,-0.14796,-0.18788
-0.20988,0.053985,0.26105,0.086376,0.021491,0.011776,0.21296,0.18852
-0.054437,-0.34844,-0.66933,-0.05524,0.026714,0.035419,0.11153,-0.19319
0.25061,0.54349,0.42447,-0.0025163,-0.03083,-0.035145,-0.52637,0.047663
-0.23503,0.09814,-0.15958,-0.052214,-0.033676,-0.035751,-0.22071,-0.19069
0.041346,0.0044437,0.14152,0.022464,0.034078,0.11964,0.68038,0.39816
0.063143,-0.22037,-0.25042,-0.012496,-0.0069924,-0.076684,-0.55347,-0.13551
0.064915,-0.09799,0.19526,0.11681,0.04646,0.078495,0.62192,-0.28724
-0.11622,-0.025059,-0.14761,-0.11254,-0.055397,-0.070941,0.30704,0.1665
0.091921,-0.046838,0.21911,0.0030778,-0.015593,-0.048244,-0.32512,0.011217
-0.09755,-0.06855,-0.1056,0.042203,0.06432,0.02964,-0.11474,0.27334
-0.20611,0.042558,-0.39858,-0.13558,-0.073552,-0.016713,-0.67303,-0.35066
0.17381,0.14431,0.41421,0.094683,0.015922,0.016043,-0.046949,0.24763
0.32375,0.32723,0.086055,0.092021,0.066839,0.096747,0.068527,-0.03631
-0.16337,0.063329,0.40149,0.097994,-0.0070941,-0.087203,0.32085,-0.26956
-0.04721,-0.29324,-0.49488,-0.21635,-0.050028,0.018553,0.74501,0.37831
0.16195,0.15899,0.011646,0.023112,0.015755,0.038479,0.2076,0.018824
-0.38216,-0.41913,-0.42315,-0.098505,-0.060111,-0.098414,-0.91382,-0.50143
0.13092,0.0028427,0.15564,0.051005,0.01114,-0.033478,-0.16754,0.11088
0.036114,-0.22153,0.31451,0.16661,0.080877,0.10762,0.45052,0.26823
0.13833,0.38884,0.19189,0.060763,0.05528,0.0744,0.038007,0.22127
-0.076583,0.1058,-0.43225,-0.22721,-0.081196,-0.039577,0.022739,-0.18336
-0.19214,-0.032566,0.026714,0.014175,-0.031413,-0.046596,-0.14781,-0.29238
-0.14289,-0.06691,-0.034964,0.0044777,0.0019572,-0.039745,-0.067751,-0.20111
0.34744,0.14803,0.32433,0.088434,0.0039152,-0.017944,-0.25527,0.26914
0.093572,0.059964,0.48181,0.10304,0.029875,0.01235,0.15132,0.2498
-0.14561,-0.34679,-0.66389,-0.20854,-0.036641,0.0056559,-0.15502,-0.058732
0.15315,0.12849,-0.42689,-0.07992,-0.054456,-0.083775,-0.30877,-0.12228
-0.097447,-0.04196,0.21311,0.12209,0.10169,0.13525,0.6161,0.098571
-0.10271,-0.14505,0.072172,0.045829,0.0098135,0.02975,0.23655,-0.023425
-0.0057474,0.39112,0.30161,0.02663,0.005344,0.059703,0.15592,-0.086466
0.097369,-0.095708,0.083828,0.071277,0.0015438,-0.073322,-0.31762,0.075401
-0.013837,0.10831,0.40636,0.014451,-0.033778,-0.00396,0.1034,-0.013028
-0.16844,-0.29674,-0.75769,-0.22318,-0.023368,0.031761,0.16442,-0.045239
0.10214,0.29792,0.097887,0.044996,0.024357,-0.084421,-0.05355,0.51323
-0.037632,-0.18367,-0.11999,-0.00949,-0.00017569,0.006652,-0.51423,-0.59801
-0.040218,0.0053803,-0.19755,0.051102,-0.034214,-0.14745,-0.49763,-0.27765
0.18094,-0.47218,-0.075686,-0.053736,-0.061494,0.0015721,0.22884,0.1481
0.04023,0.031409,0.53178,0.067652,0.067287,0.088299,-0.011877,-0.020459
0.10797,0.25687,0.15261,0.017875,0.079578,0.24719,0.98907,0.47856
-0.13167,0.30209,-0.33552,-0.10851,-0.070804,-0.075361,-0.20654,0.12552
-0.32731,0.32436,0.5289,0.18108,0.0071139,-0.15249,-0.51385,-0.56896
0.19307,-0.022399,-0.41189,-0.058723,0.032014,0.13247,0.63489,0.45129
0.094168,0.022347,0.28447,0.062235,0.019087,-0.096663,-0.49927,-0.13376
-0.16975,-0.76682,-0.34652,-0.073923,0.0067237,0.080565,0.21788,-0.11368
0.19193,-0.15447,-0.76904,-0.2023,-0.076109,-0.087171,-0.088528,0.16713
0.079313,0.24444,0.60836,0.12183,-0.003428,0.039899,0.088921,-0.15879
-0.25608,0.27797,0.51122,0.093424,0.0057212,-0.069653,-0.42978,-0.13007
-0.047559,-0.14874,-0.25557,-0.084509,-0.0408,-0.087171,-0.24613,-0.14395
0.064598,0.24665,0.39519,0.135,0.076121,0.12906,0.53086,0.051075
0.22838,-0.07984,-0.62827,-0.10719,0.0054882,0.01789,0.034278,0.46413
0.012876,0.071163,-0.0032148,-0.0061027,-0.017702,0.02592,0.39666,-0.12311
-0.036798,-0.10035,-0.039639,0.14172,0.061759,0.036842,-0.53168,-0.19596
-0.23506,-0.39436,-0.0010042,-0.18685,-0.099592,-0.10532,0.028218,0.016594
0.11962,0.33399,0.32505,0.00065975,-0.01741,0.083385,0.14355,0.42495
0.049796,-0.005815,-0.022071,-0.014293,-0.0045808,-0.11682,-0.18136,-0.36576
-0.069392,0.072475,0.18335,0.088676,0.070994,0.08166,0.60497,0.33581
0.044498,0.1082,-0.052773,0.14541,0.098997,0.05998,-0.44515,-0.19192
-0.059602,-0.11092,-0.45956,-0.17246,-0.070017,-0.097457,-0.52028,-0.62181
-0.14482,-0.13449,0.21806,0.0096766,-0.038466,-0.016804,0.16899,0.36749
-0.052557,-0.052197,-0.27235,-0.042944,-0.017762,0.10608,0.35079,-0.22904
0.51569,0.20206,0.31736,0.1381,0.023429,-0.0098667,0.26965,0.42055
-0.25222,-0.24301,0.072007,-0.072379,-0.054812,-0.17624,-0.50165,0.02328
-0.083939,0.367,-0.22757,-0.096239,0.0065925,0.077224,0.093658,0.019716
0.080491,0.061136,0.15325,-0.011441,-0.001681,-0.0054227,0.10372,-0.057195
0.057846,-0.19241,0.043457,0.041646,0.0079582,0.085536,0.1774,0.22246
0.047345,0.076361,0.37424,0.17266,0.044674,0.015776,0.025355,-0.001625
0.13142,-0.44208,-0.30539,0.053643,0.015463,-0.065216,-0.017058,-0.40273
-0.37202,-0.29043,-0.53961,-0.21375,-0.017219,-0.0086849,-0.45811,0.072558
-0.23721,0.57491,0.026182,-0.10611,0.0082602,0.013055,-0.016542,-0.34978
0.16954,0.056303,0.1215,0.079629,0.035658,0.02234,-0.074547,0.025757
0.10842,-7.8426e-05,0.061061,0.1012,0.0083192,0.18168,0.82988,0.7703
0.20765,0.48428,0.90837,0.044492,-0.083596,-0.25284,-0.60673,-0.22454
0.040974,-0.2266,-0.29024,0.011054,-0.0074336,-0.056278,0.21812,-0.012741
-0.2558,-0.23725,-0.66177,-0.13967,-0.02994,0.035717,-0.23426,-0.43798
0.16318,-0.184,0.35327,0.0065614,0.028225,0.069243,0.14516,0.35842
-0.0058032,-0.20278,-0.46729,0.02032,0.065958,0.11438,0.14435,-0.015658
-0.1691,0.27461,0.17021,-0.012129,-0.032767,-0.086376,-0.17577,-0.10911
0.00038759,-0.15901,-0.025868,0.018895,0.0071498,0.0067696,0.34704,0.18511
-0.014688,0.074555,0.27087,-0.011419,-0.038949,-0.089474,-0.64045,-0.28368
0.16641,0.22583,0.37217,0.053191,-0.012943,0.001173,0.1574,0.12332
0.12747,0.24064,-0.17476,0.11097,0.071124,0.069096,0.1306,0.16283
-0.14119,-0.20113,-0.18882,-0.10406,0.003406,0.084243,0.31046,-0.0090045
-0.1565,-0.076211,-0.12841,-0.053236,-0.02031,-0.12435,-0.27895,-0.21933
-0.028389,-0.16619,-0.5683,-0.088509,-0.023637,-0.017109,-0.16783,-0.0051765
0.18881,-0.025839,0.34677,0.032032,0.00046556,0.05443,0.066949,0.065998
0.019713,0.18905,0.2919,0.081653,-0.019554,-0.027369,0.23135,-0.025919
-0.096378,0.096938,0.13622,0.036819,0.063212,0.041322,-0.2204,0.027069
-0.0088941,-0.15166,0.028259,0.0068256,0.012781,0.040619,0.18911,-0.030038
-0.020446,0.00062882,0.16916,0.038455,-0.008257,0.016184,-0.039538,0.12499
0.073719,-0.16209,-0.23375,-0.14184,-0.079178,-0.095555,0.070581,0.2117
-0.11619,0.057989,-0.15369,-0.018508,-0.0053615,-0.0062682,-0.15996,-0.11399
0.0033881,0.060758,0.10818,0.13497,0.033326,-0.0052859,0.011222,-0.29871
0.17339,-0.12261,-0.51385,-0.16575,-0.017489,-0.045517,-0.20478,-0.055481
0.016665,0.22476,0.33025,0.13414,0.053844,0.10021,-0.011153,0.03498
0.1087,0.22426,0.015789,-0.019861,-0.0095072,-0.051683,0.25571,0.071296
-0.17805,0.13682,0.28687,0.044348,0.012322,0.046483,0.21977,0.15189
-0.048576,-0.37057,-0.29096,-0.086978,-0.012357,-0.0031536,-0.065889,0.10172
-0.011347,0.073122,0.62968,0.18813,0.034685,-0.028481,-0.26736,-0.066474
-0.096818,-0.33101,-0.63503,-0.21575,-0.056617,0.025058,0.12113,0.043567
-0.068473,-0.14506,-0.21464,-0.079276,-0.043444,0.071102,0.15273,0.079257
0.24861,0.20408,0.23715,0.090342,-0.011434,-0.031528,-0.1888,-0.51354
-0.21258,0.002153,0.018678,0.035766,0.023665,-0.072396,-0.051283,0.095554
0.19135,0.28552,0.20826,0.061886,0.037807,-0.059579,-0.28446,0.097831
0.14958,-0.11316,-0.031202,0.027909,0.068958,0.069495,0.16906,-0.0019498
-0.22049,-0.073766,-0.053625,-0.066734,-0.032811,0.0027413,0.32008,0.20742
0.17367,0.17801,-0.14349,0.0036342,-0.011363,-0.048237,-0.078713,-0.11348
-0.037406,0.25817,0.015954,-0.035466,0.022373,0.10482,0.0056669,0.10082
-0.067439,-0.21087,0.015181,0.018093,-0.042069,-0.053055,0.058109,-0.062531
-0.012781,-0.091623,0.47678,0.046359,0.037168,0.025459,-0.070579,0.13803
-0.047178,-0.15239,-0.3347,-0.060442,-0.043993,-0.026723,-0.21812,-0.24505
-0.17146,-0.23842,-0.31721,0.0023904,-0.026187,0.047989,0.21467,0.042681
0.067736,-0.029517,-0.078153,-0.085078,-0.079013,-0.039964,-0.14973,-0.033968
-0.078623,0.20972,0.2527,0.091832,-0.020187,0.0056405,0.077109,-0.05705
0.35169,-0.019242,-0.10249,0.0025594,0.082372,-0.011193,0.1905,0.29031
0.055129,0.43315,0.13275,0.05395,0.089713,-0.0051221,-0.2165,-0.12725
-0.053593,0.10614,0.23377,0.012025,0.057082,-0.015641,-0.0030796,0.0091064
-0.044666,-0.21221,0.11506,-0.0058611,-0.0084103,-0.011742,0.011398,-0.12902
-0.19961,-0.16445,-0.16966,-0.085655,-0.022656,0.037755,-0.14034,-0.040776
0.028039,-0.12783,-0.19276,0.014742,-0.035097,0.015708,0.21524,0.049016
0.067724,-0.11206,-0.17546,-0.025045,-0.04068,-0.023079,-0.037638,0.072379
-0.0023881,0.13185,0.12996,0.029388,-0.010551,0.06216,0.16447,0.21154
-0.017887,0.29948,-0.012571,0.053172,-0.024422,-0.033104,-0.24852,-0.31234
-0.079823,-0.3186,0.060128,-0.039441,-0.028152,-0.027441,0.12142,0.11211
0.062258,0.20202,0.10572,-0.084217,-0.013456,-0.053447,-0.078228,0.080085
0.096029,-0.0027405,0.12456,0.11421,0.052172,0.021946,0.12011,-0.13415
0.091542,-0.125,-0.37487,-0.053664,0.061023,0.050573,-0.034663,0.055537
-0.10035,-0.28706,0.11589,0.068051,0.01476,0.017057,-0.12142,-0.2028
-0.066581,0.2394,0.21457,-0.013387,-0.0071761,-0.015917,0.05496,0.23835
-0.019173,0.32199,-0.27379,-0.087713,-0.027459,-0.024818,-0.091057,-0.028612
0.017606,-0.048082,0.088492,0.070987,0.0087705,-0.040908,0.066456,0.025863
0.11373,-0.091757,0.39528,0.15755,0.046506,0.11541,0.16156,0.07964
-0.066403,-0.10886,-0.42348,-0.26568,-0.094545,-0.063845,-0.14037,-0.22839
-0.060828,-0.11806,-0.15634,0.004647,0.014646,-0.031958,0.029024,0.084767
-0.11011,0.16717,0.088231,0.023844,-0.024874,0.023416,-0.10292,0.0026844
0.18614,0.22194,0.46776,0.089691,0.021035,0.00061904,0.21412,0.18153
0.032963,-0.27425,-0.22725,0.054769,0.050875,0.087125,0.065911,-0.19054
-0.13063,-0.21889,-0.53449,-0.11124,-0.067845,-0.1467,-0.431,-0.1513
0.00078528,-0.039971,0.28915,0.022003,0.040321,0.072678,0.25363,0.074351
0.067546,0.11573,0.18128,-0.02963,-0.030446,-0.028044,-0.13932,-0.019703
-0.025447,0.21005,0.17218,0.11644,0.048255,0.035601,0.36522,0.48197
0.063274,-0.038734,-0.2168,-0.12641,-0.020432,-0.056685,-0.35929,-0.45113
0.080846,0.25789,0.065978,0.037615,-0.0024023,0.054364,0.13098,0.024706
0.032147,0.010592,-0.022074,0.036936,0.023693,0.0091289,0.037911,0.096191
-0.18681,0.074835,0.031281,0.01869,0.0024876,0.0025739,0.024801,-0.066157
0.024112,-0.38863,-0.096866,-0.0025946,0.011417,0.0030616,-0.088177,0.16105
-0.13203,-0.21737,-0.017163,-0.090114,-0.067251,0.0024458,-0.019123,-0.051802
-0.0055111,-0.0043468,0.01292,0.029414,-0.0072213,-0.061961,0.21781,-0.088538
0.054467,0.019393,-0.26251,-0.057632,-0.0037259,-0.057321,-0.43766,-0.15254
0.089903,0.28113,0.44878,0.1888,0.09992,0.14162,0.32185,0.21773
0.04899,0.084191,-0.068154,-0.14397,-0.06275,-0.066267,-0.1649,-0.11693
-0.034755,-0.18235,-0.27826,-0.069974,-0.029906,0.014898,0.12022,0.095439
0.12902,-0.037102,0.0403,0.10762,0.027492,-0.0049339,-0.0945,-0.11174
-0.11572,0.13186,0.13165,0.022858,0.024297,0.046622,0.16034,0.076
0.042794,-0.08972,0.41037,0.043691,-0.01552,-0.048811,0.0013238,0.042854
-0.16238,0.35004,-0.30403,-0.08751,-0.029271,-0.033227,-0.073312,-0.054333
0.13441,-0.037961,-0.03671,0.035102,0.060972,0.093376,0.074403,0.13571
-0.076036,-0.22815,-0.20387,-0.081566,-0.034411,-0.059812,-0.14457,-0.044322
-0.05255,-0.093089,0.090973,0.053404,-0.0037625,-0.016574,0.079219,-0.02575
-0.014464,-0.12905,-0.11448,0.0010684,0.011293,-0.011758,-0.11616,-0.11513
-0.032294,-0.041186,0.10892,0.010007,-0.021501,0.000959,0.080095,-0.14243
0.26899,0.29567,0.10514,0.063406,0.053252,0.091315,-0.0045682,0.13296
0.092649,-0.006991,0.46875,0.1058,0.00061435,0.032227,0.08335,0.1395
-0.24084,-0.25051,-0.9476,-0.33181,-0.085845,-0.10637,-0.068918,0.079527
0.073431,0.30323,0.43528,0.094681,0.028487,0.01911,0.071863,0.077716
-0.21426,-0.11593,-0.077208,-0.020122,-0.030784,-0.059972,-0.14038,-0.34234
0.013663,-0.076165,-0.094314,0.043726,0.049713,0.016126,0.0076951,-0.015969
0.20296,0.26687,0.50835,0.17813,0.036567,0.037017,-0.0052886,0.21411
-0.083506,-0.12686,-0.19245,-0.061108,-0.030269,0.026746,0.056475,-0.29149
-0.033121,-0.048647,-0.23764,-0.14981,-0.03295,-0.045415,0.013877,0.20282
0.025746,0.10787,0.011281,0.013835,0.0054042,0.0396,0.26502,0.15887
0.16277,-0.19168,0.10711,0.0546,0.030045,0.00057743,-0.27714,-0.19641
-0.091746,-0.20771,-0.12336,0.049959,0.024932,-0.0064628,-0.051728,0.011749
0.13617,0.46439,0.22564,0.045876,-0.0027954,0.033676,0.10356,0.20446
-0.34965,-0.06641,-0.071931,-0.091433,-0.030489,-0.059195,-0.18782,-0.10365
0.051927,-0.19766,-0.11617,-0.011225,-0.0042028,0.026991,0.17468,-0.085369
0.14575,-0.068038,0.017054,-0.018671,-0.010419,-0.028326,0.0031607,0.11042
-0.09087,0.20017,-0.028925,-0.059125,-0.025942,-0.022009,0.016656,-0.25821
0.12452,-0.069762,0.092353,0.11782,0.050887,0.030588,-0.002758,0.21602
-0.04256,0.093628,0.039369,0.044167,-0.0060965,0.036184,-0.077357,-0.16058
-0.028196,-0.0029724,-0.21002,-0.11507,-0.0087839,-0.067169,-0.1356,0.066961
-0.049985,-0.31177,0.17237,0.031681,-0.01118,0.025719,0.0031881,-0.052924
-0.01348,0.12004,-0.18198,-0.046121,-0.0048587,0.010488,0.30046,0.050876
0.1127,0.27526,0.36502,0.097179,0.034029,0.051277,0.068573,0.08118
0.046905,0.073257,-0.064938,-0.06981,-0.027208,-0.031807,-0.1854,0.17714
-0.047655,-0.18426,0.23563,0.069468,0.01435,-0.028272,0.021729,0.023849
0.093581,0.015522,-0.46266,-0.040701,0.00196,0.0066005,-0.0066053,-0.15491
-0.1945,-0.079382,-0.24728,0.043765,0.036503,0.0018815,-0.19329,-0.12726
-0.07682,-0.078998,0.23353,0.016996,7.6438e-05,0.027369,0.14873,-0.18386
0.10234,0.048831,0.23945,0.02656,0.001471,0.012441,0.14468,0.15158
-0.04013,0.040803,-0.22632,-0.13102,-0.076804,-0.074196,-0.29053,0.052034
0.019066,-0.14671,-0.17563,-0.13517,-0.047192,-0.029195,0.10222,0.050985
0.045349,-0.10402,0.15288,0.09307,0.036023,0.04631,0.050916,-0.044065
0.17117,0.41388,0.36331,0.10174,0.040676,0.059105,0.15051,0.027492
-0.025841,0.056956,-0.043274,0.063961,0.029988,-0.029355,-0.20767,-0.021209
-0.12433,-0.19061,0.04976,-0.0035962,-0.0032423,-0.015548,-0.070451,0.045393
-0.030799,0.13024,-0.3048,-0.092509,-0.011782,0.030415,0.20991,0.0007302
-0.034113,-0.23374,-0.21128,-0.015171,-0.0034134,-0.00085082,0.12435,0.13274
0.0071987,-0.020867,0.27266,0.087424,0.013768,-0.047039,-0.26621,-0.16988
-0.046041,0.21028,-0.24635,-0.051052,0.00018572,0.00090378,0.091369,-0.03447
0.12834,-0.066854,0.31553,-0.0095832,-0.029146,0.048849,0.055265,0.021142
-0.092693,0.021002,-0.0039033,-0.046804,-0.020109,-0.052003,-0.21104,-0.0047534
0.05031,-0.16682,0.1465,0.063228,0.034706,0.041807,0.0035192,0.050977
0.11304,-0.011462,-0.10782,0.078011,0.0023266,-0.0058344,0.12156,-0.0383
-0.13875,0.044928,-0.34384,-0.13524,-0.023395,-0.0074666,-0.0042288,-0.084392
-0.026229,-0.0091673,-0.11458,-0.013681,0.004752,-0.0098666,0.025798,-0.0079553
0.12079,0.19006,0.22248,0.0057332,-0.014302,-0.044068,-0.037377,0.16121
-0.035895,0.037348,0.18475,0.048636,0.037182,0.069915,-0.0056724,-0.020811
0.055914,-0.018757,0.30491,0.08435,0.01909,0.043354,0.35543,0.1268
-0.074773,-0.30438,-0.2598,-0.074215,-0.052569,-0.13124,-0.52458,-0.10609
-0.015507,-0.076734,-0.00091647,0.049698,0.025535,0.07765,0.11967,-0.17993
-0.0013575,0.54614,0.082113,-0.012662,0.011223,0.029606,0.33493,0.25715
-0.13355,-0.21914,-0.53349,-0.113,-0.017552,-0.056504,-0.40196,-0.26344
0.096984,-0.19607,-0.10473,0.0062868,0.0092126,0.053737,0.20657,0.070897
