-0.031708,-0.11764,0.096761,-0.052198,-0.030356,0.010241,0.0064257,-0.045989
0.021764,0.032102,0.0030497,0.11206,0.084068,0.040891,0.016099,-0.0019548
0.0050086,-0.0062083,-0.022926,0.04116,0.025064,0.015702,0.081354,0.034957
0.027454,0.064175,-0.12994,-0.19437,-0.15971,-0.057199,-0.023729,0.018201
-0.02025,-0.084828,0.16676,0.054453,0.022979,0.025798,0.052686,0.026005
-0.0052887,0.039176,-0.28802,-0.063194,0.074211,0.015278,0.037046,-0.035538
-0.021421,-0.032257,0.06974,-0.038716,-0.036357,-0.10381,-0.23514,-0.010557
0.0016603,-0.0019245,0.030716,0.097187,0.012075,0.051787,0.15739,0.0066792
0.0092713,0.060122,0.002359,0.08677,0.031915,0.02915,-0.0047179,-0.015619
0.024869,-0.010052,0.28976,-0.054924,-0.0088052,0.023465,-0.1126,0.023669
0.017234,0.053154,-0.060789,0.030256,0.044916,0.0030305,0.075606,-0.00070101
-0.021401,-0.062913,-0.074198,0.051579,0.011853,0.029646,0.012924,-0.0027787
-0.044109,-0.092851,0.075686,0.0073086,-0.0079254,0.00095412,0.066627,-0.021347
0.011661,0.13501,-0.05837,0.0054622,-0.0077069,-0.029039,0.0025895,-0.0090282
0.0053121,-0.066975,-0.33704,-0.21233,-0.15197,-0.09978,-0.13195,-0.0042542
0.0071391,-0.011328,-0.02622,-0.067467,0.0049973,0.023137,0.030641,0.024861
0.048298,0.14577,0.3828,0.18378,0.11279,0.090159,0.1158,0.031948
-0.043268,-0.18929,0.079434,-0.073478,-0.092552,-0.12453,-0.16518,-0.0061651
0.013436,-0.0085824,-0.15248,-0.039766,0.031391,-0.0028876,-0.062107,-0.066081
-0.024074,0.055126,-0.06799,0.17005,0.072072,0.0964,0.15933,0.023724
0.00016733,0.025152,-0.12565,-0.036256,0.03821,0.048701,0.037845,0.043892
0.023444,0.088689,0.0042416,-0.0020141,-0.023198,0.072704,0.18222,0.0093029
0.045655,0.0031026,0.21272,0.16263,0.035642,-0.066409,-0.18949,0.059845
-0.11284,-0.15396,0.084815,-0.25503,-0.067716,-0.088055,-0.11693,-0.10974
0.040364,0.10151,0.055949,0.047384,0.0012379,-0.024149,-0.061348,-0.0544
0.02903,-0.02744,0.084169,0.11435,-0.016609,0.0076567,0.055421,0.038438
-0.021408,-0.040493,-0.49772,-0.087311,-0.012759,-0.0005952,0.10877,-0.010507
0.0066868,-0.038516,0.15124,-0.074365,-0.05001,0.029402,-0.056973,0.018128
0.0043476,0.034172,-0.10375,-0.081343,-0.034329,-0.026943,0.04312,0.054684
0.042193,0.077108,0.22075,0.16594,0.18343,0.073042,-0.012472,0.029377
-0.067115,-0.088423,-0.20338,-0.049888,-0.091159,0.0016349,0.049725,-0.073128
-0.00326,0.030387,0.05432,-0.024064,0.033318,-0.014396,-0.036187,0.020615
0.0070324,0.043024,0.32312,0.049581,-0.13017,-0.061015,0.073058,0.0056764
0.057207,0.089667,0.11211,0.1955,0.19966,0.080296,-0.16993,-0.0089672
-0.064088,-0.12751,-0.46033,-0.21094,-0.024493,-0.020486,0.093844,-0.02375
0.064556,-0.00041313,0.1459,0.18942,0.063846,0.003498,-0.049765,0.031292
-0.026062,-0.061697,-0.31047,-0.34633,-0.23146,-0.074519,-0.030208,-0.0080811
-0.023801,0.031102,0.061906,0.071523,-0.0048351,0.011077,0.035857,0.0066148
0.00081595,0.13639,0.74011,0.14516,0.13401,0.088607,0.086626,-0.025927
0.016516,-0.03542,-0.56466,0.022293,0.028956,-0.052511,-0.025639,-0.0037428
1.9473e-05,-0.07806,-0.0087227,0.1478,0.024311,-0.036866,-0.042575,-0.0045127
-0.071814,-0.076939,-0.076798,-0.4237,-0.25402,-0.035986,-0.042026,-0.059127
0.059191,0.031396,0.16024,0.097081,0.085607,0.098727,0.046274,0.16852
0.033998,0.099723,0.10014,0.13249,0.13006,0.04686,0.089136,-0.040435
0.0091041,0.051189,-0.12491,-0.035713,0.020554,-0.020083,-0.13283,-0.02228
-0.054447,-0.15997,-0.046613,0.15544,-0.031901,-0.055802,0.051452,-0.02757
0.01519,0.045176,-0.0088122,-0.16877,-0.059008,-0.0062527,0.078692,-0.025668
-0.00086864,0.026381,0.16076,0.054291,-0.014804,-0.012623,-0.12989,0.01415
0.045646,0.096112,0.17398,0.15278,0.20111,0.073189,0.034713,0.052514
-0.025089,-0.0038247,-0.35054,-0.23265,-0.12335,-0.053528,-0.013465,-0.02777
-0.049059,-0.14122,-0.067295,-0.00027812,-0.067186,-0.040917,0.13997,0.007991
0.012866,-0.012058,-0.12306,-0.063922,-0.044843,0.017823,-0.18403,-0.050537
-0.011024,-0.0075973,-0.063558,-0.0014225,0.037591,0.021804,-0.023742,-0.030703
-0.0033364,0.05134,0.3926,0.10145,-0.045801,-0.067406,0.020054,0.04485
0.082976,0.070626,0.33017,0.29926,0.065294,0.14907,0.14328,0.043954
-0.056709,-0.043748,-0.16737,-0.2522,0.043723,-0.03956,0.080629,-0.0096152
0.015027,0.0049382,-0.16588,-0.084953,0.015255,-0.0084493,-0.1367,0.04034
0.024519,0.044755,0.081233,0.065674,0.050622,0.023264,-0.032491,-0.056628
-0.028553,-0.072664,-0.27243,-0.012112,-0.029821,-0.06209,-0.02135,-0.012217
-0.019522,0.004456,-0.001421,-0.021978,-0.12475,-0.038378,-0.049196,-0.00704
0.027912,0.034279,-0.011189,0.090725,0.023281,0.0082175,0.13343,0.059557
-0.019181,-0.14681,0.083666,-0.048448,0.023357,0.046446,0.01051,0.022793
-0.012299,0.10227,-0.095847,-0.055556,0.070685,0.014038,-0.074386,-0.11772
0.025351,0.055301,0.28258,0.13345,0.016983,0.02858,0.12097,0.044277
-0.015255,-0.021937,-0.23841,-0.25317,-0.14518,-0.10479,-0.16098,-0.022061
-0.008733,0.065749,0.35897,0.10642,-0.024676,0.020567,-0.01356,-0.011341
-0.017259,-0.10388,-0.43283,-0.060215,0.050817,0.014255,0.024651,0.03824
0.076534,0.062403,0.33754,0.20801,0.089311,0.079393,0.063482,0.065034
-0.047676,-0.076613,-0.013076,-0.050661,-0.081276,-0.026456,0.040729,-0.031827
0.078653,0.095753,-0.012623,0.34957,0.22588,0.047827,0.02677,0.029347
-0.091708,-0.13959,-0.37674,-0.61708,-0.24032,-0.11236,-0.10358,-0.10286
0.011131,0.045328,0.40616,0.2422,0.1282,0.00028372,0.00084523,0.032341
-0.027291,-0.0056815,-0.315,-0.0045109,-0.021433,-0.013071,-0.01202,-0.018537
0.019299,0.035702,0.10744,-0.18686,-0.21362,0.034874,0.060423,0.033012
0.033584,0.12291,0.22154,0.2336,0.14492,0.034738,-0.040085,0.0066325
0.02343,-0.0092832,-0.35254,0.022837,0.077778,0.0022914,0.022092,0.034429
-0.049997,-0.10256,0.41294,-0.091383,-0.054931,-0.01534,-0.0031586,-0.040511
-0.022263,-0.10162,-0.58643,-0.16198,-0.041081,-0.033491,0.0014416,0.007854
0.052406,0.064598,0.35735,0.21154,0.019183,0.018437,-0.026321,0.038606
-0.067697,-0.071879,-0.095393,-0.13288,-0.13055,-0.015553,0.023372,-0.10451
0.070976,0.19275,0.5268,0.40019,0.29213,0.083487,-0.0051801,0.039761
-0.039098,-0.12547,-0.47818,-0.23488,-0.055805,-0.067108,0.029226,0.011045
0.02406,0.028173,-0.0017317,-0.139,-0.064771,0.040578,-0.0056934,0.021032
0.010348,0.075091,-0.007059,-0.093255,-0.11787,-0.11682,-0.14079,-0.031052
-0.010215,-0.032467,-0.060073,-0.0042481,0.034209,0.054501,0.12413,0.019551
0.0010086,0.024642,0.17896,0.21317,0.070166,0.07017,0.0077873,-0.014181
-0.026782,-0.05951,0.057528,0.034383,0.020161,-0.022969,0.10363,0.039809
0.0075091,-0.036012,-0.045187,0.090775,0.086275,-0.021888,-0.12005,-0.021734
-0.013676,-0.038421,-0.030354,-0.07229,-0.20889,-0.028305,-0.031043,-0.011713
0.042247,0.073599,-0.38389,-0.21395,0.087272,0.035698,0.018548,0.038038
0.01116,0.042401,0.51894,0.21958,0.068438,0.044892,0.012658,-0.013749
-0.036512,-0.022089,-0.17246,-0.3658,-0.1088,-0.063446,-0.0020834,-0.027015
-0.014572,-0.048768,-0.22968,0.12389,-0.014064,-0.031692,-0.01008,-0.017775
-0.0086006,-0.021139,0.22465,0.19711,0.0020078,0.015021,0.0044495,-0.0018043
0.036481,0.10847,0.12266,-0.051532,0.026299,0.053198,0.01836,0.028802
-0.0039724,-0.042175,-0.017852,0.16004,0.12992,0.020362,0.032009,0.019643
-0.004713,-0.019636,-0.23432,-0.1128,-0.045978,-0.020875,-0.032365,-0.021078
0.010924,0.019835,0.32584,-0.010125,-0.05589,-0.039055,-0.041635,-0.022645
-0.0039935,-0.041221,-0.36818,-0.078364,0.021969,-0.010442,-0.011191,-0.00036307
-0.0027825,0.038923,0.17577,-0.074848,-0.078316,0.018457,0.082541,0.045945
0.0064685,0.0019067,0.15265,0.13377,0.096011,0.02459,0.036471,0.030358
-0.015595,-0.019977,-0.37559,-0.17074,-0.064785,-0.069834,-0.11039,-0.055062
0.016723,0.051008,0.1294,0.11357,0.0093081,0.040074,0.01682,0.00041606
-0.0139,-0.035318,0.245,0.096128,-0.049133,0.018383,-0.0039302,0.0012709
-0.013726,-0.083581,-0.14683,0.042148,0.056564,0.052385,0.053723,0.0098572
0.025171,0.078371,0.031174,-0.14304,0.1387,-0.0067626,-0.01356,-0.020739
-0.037644,-0.017786,0.012521,0.070486,-0.12328,-0.081452,-0.065385,-0.043578
0.016787,-0.020029,-0.27391,-0.045384,-0.026474,0.030913,0.062066,0.05866
0.024564,0.064211,0.10089,-0.007746,-0.071123,-0.060722,-0.029892,-0.002954
-0.014254,-0.022662,0.20672,0.033849,0.10981,0.080894,0.025704,-0.0017854
0.017456,0.031857,0.12931,0.047634,0.070977,-0.0052051,0.0099405,0.015259
0.041393,0.040083,-0.037474,0.0182,-0.046893,0.0092864,0.11808,0.079292
-0.083305,-0.15455,-0.32426,-0.23319,-0.079471,-0.039348,-0.19662,-0.1302
0.041566,0.0648,0.05134,0.021569,0.028322,-0.025675,0.0036413,0.058439
-0.068534,-0.067827,-0.11999,0.018684,-0.15274,-0.027387,-0.03067,-0.10493
0.039463,0.095774,0.30427,0.23651,0.15118,0.11211,0.075992,0.074935
0.045313,0.047663,-0.11151,-0.026694,0.13569,0.033623,0.066308,0.027766
-0.035189,-0.055918,0.024739,-0.02016,-0.082004,-0.075326,-0.035968,-0.01196
0.0013266,-0.003917,0.018476,-0.087607,-0.017712,0.0038734,0.0035899,0.010575
0.022317,-0.014852,0.10398,-0.042165,-0.023374,-0.025888,-0.026181,-0.013882
-0.026644,-0.018069,-0.26654,-0.088072,-0.068181,-0.024243,-0.016358,-0.0071152
-0.028153,-0.02878,0.10844,0.16392,0.0037282,0.00076589,0.040304,-0.039385
0.072623,0.15658,0.44575,0.20463,0.15306,0.10366,0.026074,0.10027
-0.060193,-0.15693,-0.65495,-0.24058,-0.034256,-0.028142,-0.05944,-0.072522
0.049929,0.10128,0.27348,-0.047479,-0.058028,-0.019659,0.01799,0.028191
-0.042442,-0.099956,-0.21534,-0.052328,-0.050697,-0.042712,-0.061814,-0.027255
0.014073,0.043909,0.11247,0.041907,-0.12901,-0.034702,0.029643,0.011184
-0.0073159,0.0012722,0.030324,0.08731,0.25428,0.066983,-0.0039985,-0.0205
0.018156,0.037217,-0.094321,-0.016972,-0.0099956,0.035873,0.040903,0.018367
-0.0034758,0.033905,0.57487,0.19071,0.039003,-0.018612,0.024114,0.01062
0.0057519,-0.048376,-0.46949,-0.32029,-0.18502,-0.033988,0.0083131,0.018742
-0.016748,-0.014825,0.077845,0.14573,0.082969,0.028744,-0.045617,-0.012011
-0.00066271,-0.014144,-0.06366,0.034309,0.037649,-0.01799,0.018331,-0.0035961
-0.0084128,-0.015031,-0.096099,-0.10759,-0.079347,-0.0023641,-0.011119,-0.018588
0.0070156,-0.0093147,-0.088465,0.048196,0.14574,0.028754,-0.0014835,-0.0023495
-0.0089039,0.01141,0.1482,-0.013954,-0.14643,-0.04956,-0.023307,-0.0017633
0.037724,0.086895,0.28709,0.15913,0.021146,0.0050117,0.0014384,0.014443
-0.0014394,-0.016592,-0.24902,-0.12782,-0.0070633,0.036367,-0.028782,-0.0083841
-0.032611,-0.10328,-0.15524,-0.1404,0.0042176,-0.033505,0.050194,0.015706
0.030121,0.076995,0.20839,-0.019327,-0.045722,0.014177,0.019718,0.00074685
-0.039879,-0.030576,0.12952,0.18044,0.054645,-0.0081719,-0.010798,-0.022091
0.015109,0.011079,-0.22989,-0.03384,0.016413,0.032059,0.036721,0.048633
0.015306,0.060702,0.010581,0.11048,0.097064,0.017401,-0.056597,-0.045024
-0.023735,-0.085545,-0.018571,0.089038,0.045842,0.017876,0.029417,0.0015211
0.030766,0.10295,0.34488,-0.091181,-0.099164,-0.044856,-0.025651,0.016354
-0.00086959,-0.061741,-0.33754,-0.18065,-0.10452,-0.077118,-0.034307,-0.00047245
-0.0013938,-0.064071,0.020216,-0.1324,-0.0099414,0.014945,0.019177,-0.0097468
-0.017578,0.049372,-0.088417,0.0073835,-0.073467,0.020639,0.009992,-0.011243
-0.041476,-0.080174,0.010707,0.16173,0.10356,0.041842,0.016485,-0.012516
0.020792,0.040296,0.078337,0.16795,0.068556,0.02415,0.015411,0.017921
0.05213,0.12256,0.37543,0.16014,0.13473,-0.0010152,-0.0087478,0.025532
-0.0099414,-0.059267,-0.36079,-0.36075,-0.16597,-0.025812,-0.032554,-0.013095
-0.0092435,-0.028225,-0.26104,-0.034833,-0.012671,-0.003464,0.02202,0.003491
-0.00061461,0.036038,0.23036,0.067695,-0.022172,-0.0044431,0.02982,0.0047474
-0.0076899,-0.023027,0.19901,0.13408,0.071372,0.01798,-0.0093077,0.013821
-0.0072282,-0.034099,-0.09891,-0.16429,-0.044477,-0.053446,-0.048588,-0.03988
0.016249,0.064627,0.11504,0.093816,-0.065102,8.1921e-05,0.021348,0.015319
-0.023257,-0.055687,-0.3346,-0.03765,0.095232,0.045914,-0.025964,-0.031593
0.0071038,0.026214,0.24363,0.042134,0.037763,0.01397,0.028392,0.022574
0.0058964,-0.018254,0.049234,-0.026941,-0.058268,-0.033013,-0.010709,0.0061236
-0.0032513,-0.033098,-0.2878,-0.042447,-0.044958,-0.001107,0.0053081,-0.0025795
0.011126,0.051934,0.12147,-0.044094,0.053672,0.016004,0.029604,0.012325
0.0023562,0.018201,-0.0045541,0.10816,-0.012945,0.0026229,0.015219,-0.0036773
-0.005964,-0.0090545,0.1086,0.093503,0.098467,-0.0024013,-0.030225,-0.01145
-0.0059241,-0.013861,0.025709,-0.14308,-0.14366,-0.030646,-0.028846,0.012412
0.002506,0.012015,-0.031165,0.031119,0.010599,0.034686,0.05038,0.0052891
-0.011957,-0.063757,-0.11274,0.061645,0.077022,0.021323,-0.042694,0.0060792
0.028725,0.1031,0.19929,0.0037974,-0.022099,-0.024185,-0.0034127,-0.016623
-0.016197,-0.080648,-0.3254,-0.34456,-0.075211,-0.039541,-0.019189,-0.016043
-0.0062462,0.0026955,0.019622,0.27565,0.027787,0.022091,0.035147,0.0078061
0.0037375,0.04103,0.017726,-0.056104,0.04545,0.0046003,0.019169,0.008119
0.029232,0.011168,0.22411,0.25517,0.072182,0.04109,0.018981,-0.0071634
-0.031457,-0.024353,0.34063,-0.086514,-0.032162,-0.03992,-0.05908,-0.014469
-0.03001,-0.073565,-0.43247,-0.20571,-0.079827,0.0041889,0.034978,0.017536
0.017838,0.042725,-0.13053,-0.20406,-0.18019,-0.076196,-0.034884,0.0028972
0.026045,0.034701,0.17938,0.4413,0.21335,0.070762,0.02804,0.035228
-0.0054906,0.034236,0.0085861,-0.090907,0.1081,0.062352,0.012619,-0.026341
0.040335,0.048135,0.14285,0.026257,0.011194,-0.023384,-0.018826,-0.0024234
-0.016203,-0.026065,-0.34929,0.025959,-0.17189,-0.038254,-0.0039176,0.005137
-0.057865,-0.15773,0.17279,-0.13184,0.06597,0.017401,0.010433,-0.027283
0.017084,0.059193,-0.24237,-0.14301,-0.096008,-0.036453,-0.022583,0.0018551
-0.0019892,0.0078324,0.17378,0.18775,0.037321,0.010856,0.01438,0.0224
0.018137,0.04832,0.15921,-0.021915,0.091116,0.018575,-0.0034499,-0.027811
-0.0080179,-0.029207,-0.071636,-0.083723,-0.090456,-0.0054464,0.025746,0.039183
-0.00972,-0.028249,0.054392,0.081261,-0.014657,-0.01415,-0.038417,-0.04174
0.021147,0.04445,-0.046952,0.059559,0.069052,0.0083668,0.0073683,0.026753
-0.0012373,-0.0056634,-0.015929,-0.039302,0.067322,0.031162,0.030385,-0.012825
0.0011487,0.0092268,-0.22844,-0.090684,-0.12122,-0.047062,-0.016247,0.0037189
0.0045483,0.0030162,0.21987,0.17024,0.06589,0.0082293,0.0079994,0.029416
-0.014963,0.0063647,0.16247,-0.10132,-0.051236,0.009552,-0.022045,-0.021976
0.027975,0.026214,0.28434,0.19527,0.050565,0.01927,0.0027893,0.020955
-0.039081,-0.06339,-0.62755,-0.15145,0.019491,0.0058719,0.011984,-0.037649
0.002152,-0.013282,-0.16825,-0.1726,-0.074265,0.00027698,0.013179,0.020433
0.042008,0.066621,0.28686,0.0546,0.027155,0.009975,-0.0093663,-0.0083591
-0.052394,-0.11289,-0.17582,-0.0308,-0.074494,-0.066837,-0.024453,-0.022738
0.015977,0.073422,0.20238,0.010543,-0.011768,-0.019332,-0.02426,0.0084542
0.013098,0.040215,0.31301,0.18033,0.13742,0.043153,0.053762,0.038427
-0.013681,-0.047683,-0.093358,-0.059428,-0.017514,0.011394,-0.0012618,-0.018527
-0.0013406,-0.0019869,-0.040039,0.072682,0.023279,0.034043,0.0060388,-0.0058325
0.0037155,-0.0017635,-0.26169,-0.072682,-0.045257,-0.029307,-0.018045,-0.0012437
0.0018351,-0.038891,-0.21971,-0.052019,-0.0048379,-0.022223,-0.010981,-0.0043904
0.024442,0.081851,0.45267,0.11668,-0.012145,0.047612,0.027273,0.016308
0.0012094,-0.02286,-0.32283,-0.1159,0.018511,-0.007216,-0.0047747,0.0064298
0.0022701,0.10707,0.67269,0.20138,-0.014403,-0.014773,-0.0054491,-0.0025927
-0.066422,-0.16999,-0.77122,-0.31544,-0.040244,-0.037513,-0.021475,-0.034104
0.02916,0.066861,0.26031,0.052386,0.0040525,-0.028529,-0.021442,0.0056454
0.015241,-0.0033748,0.10429,0.032558,-0.05273,0.027794,0.018211,0.0071866
0.016542,0.056561,0.26195,0.17401,0.14155,0.076687,0.035022,0.025022
-0.013996,-0.11241,-0.62482,-0.20034,0.0013058,-0.02266,-0.010162,-0.011427
-0.0061361,-0.0094695,0.24981,0.13089,-0.0047112,-0.004907,0.015244,-0.00092093
-0.014527,-0.05533,-0.16026,-0.21298,-0.040886,0.0045982,0.017156,0.009324
2.8926e-05,0.10286,0.11394,0.097458,-0.045292,-0.088234,-0.067297,-0.035692
0.045556,0.11469,0.43129,0.28112,0.059528,0.10697,0.058444,0.043486
-0.033946,-0.081581,-0.27192,-0.15514,-0.016089,-0.050491,-0.051108,-0.026684
0.0039598,0.022081,0.010421,0.10721,0.039978,0.017616,0.018132,0.0038403
-0.004574,-0.059013,-0.098564,-0.074686,-0.053603,-0.00088622,0.0085905,0.018071
0.010912,0.025916,0.11045,-0.21863,-0.15597,-0.074266,-0.032451,-0.022731
-0.027653,-0.036717,-0.2229,-0.045038,0.2021,0.079281,0.028315,-0.0087915
0.012494,-0.0059234,-0.0050944,0.0076367,-0.01784,-0.024096,-0.035209,-0.010029
0.021828,-2.0477e-05,-0.04032,0.15015,0.020712,0.014421,0.027303,0.0051162
0.0079313,0.066022,0.25051,0.26573,0.052557,0.023115,0.03626,0.028978
0.0017844,0.019763,-0.10027,-0.30888,-0.219,-0.052812,-0.0085021,0.014623
-0.028116,-0.053011,0.13478,0.20849,0.15909,0.06753,0.0098067,0.0086669
-0.0038268,0.004242,0.01089,-0.26716,-0.094769,-0.053902,-0.018727,-0.012737
-0.011359,-0.06558,-0.057653,0.046258,0.10482,0.051017,-0.0087206,-0.018798
0.027467,0.051058,0.015232,0.18068,0.0072186,-0.071421,-0.030926,-0.0099185
-0.02,0.00381,0.15956,-0.089902,-0.060112,0.015851,0.015996,-0.017595
0.0027234,-0.026436,-0.53019,-0.054173,0.035104,0.02356,-0.0085421,0.012828
0.033384,0.055064,0.0018107,-0.055689,-0.035576,0.014256,0.036367,0.019035
-0.0059326,-0.0010656,0.31937,0.19458,0.032506,-0.019587,-0.0050658,0.0091998
-0.036971,-0.022799,-0.17802,-0.20988,-0.15101,-0.061883,-0.054186,-0.031843
0.026234,0.028581,0.29119,0.16006,0.10968,0.059779,0.053555,0.029178
-0.011714,-0.043019,-0.031651,-0.1026,0.10427,0.025588,-0.0018189,-0.018306
0.013067,-0.0043216,-0.16428,0.040318,-0.041631,-0.023472,0.0063737,0.005589
-0.016865,0.034052,0.30423,0.21293,-0.093154,-0.024753,-0.031368,-0.0085288
-0.00024041,-0.0072403,-0.012562,-0.14012,0.067154,0.0529,0.040863,0.0094122
0.031405,-0.012021,-0.39149,-0.19099,-0.052884,-0.017387,-0.0118,0.019919
-0.023718,0.011239,0.13373,0.13087,0.007431,-0.0016902,-0.010207,-0.0088061
0.029581,-0.00016663,-0.28167,-0.056629,0.060156,-0.0098793,0.013915,0.016426
-0.035242,-0.030325,0.1989,-0.11177,-0.043694,-0.03456,-0.064755,-0.03766
0.02418,0.085579,0.25732,0.17759,0.085978,0.06465,0.05837,0.023984
-0.073085,-0.13571,-0.03279,0.046839,-0.058999,-0.032563,-0.015013,-0.048645
0.032749,0.033712,-0.17531,-0.034694,0.044766,0.017813,0.020135,0.025977
0.029607,0.048304,0.075906,0.034601,-0.1102,-0.064976,-0.046619,-0.0094685
0.019408,0.018589,0.16187,0.19959,0.039331,0.055653,0.050923,0.025335
-0.013258,-0.023421,-0.38355,-0.43894,-0.28689,-0.080549,-0.030431,-0.009601
0.0097668,0.0084736,0.089535,0.126,0.44344,0.16764,0.061339,0.019062
-0.044473,-0.073508,0.026502,-0.051569,-0.089095,-0.082201,-0.079728,-0.013355
0.011241,0.08924,0.13697,0.21549,0.014405,-0.033096,-0.00042729,-0.013038
0.020306,0.0034123,0.019968,-0.23691,-0.089847,-0.029008,0.01003,0.012006
-0.0019997,0.042738,0.29711,0.25556,-0.050843,0.015492,0.029408,0.0066827
0.02218,-0.067406,-0.38679,-0.17383,0.091414,0.1075,0.041552,0.017337
-0.032284,-0.023219,0.050933,0.10043,0.054556,0.0040143,-0.032277,-0.019079
-0.0090995,-0.0048177,-0.14203,-0.0071352,0.025021,-0.030069,-0.012982,-0.0014613
-0.017433,-0.066811,-0.17766,-0.1915,-0.16985,-0.10464,-0.01821,-0.023834
0.036793,0.088201,0.1318,0.14121,0.032064,0.022292,0.014305,0.015319
-0.025735,-0.031166,0.19388,0.014293,-0.087913,-0.024093,-0.032594,-0.016637
0.029678,0.06815,0.16665,0.028926,0.13469,0.076972,0.02887,0.0056453
-0.023347,-0.05062,-0.16678,-0.10456,-0.096452,-0.11141,-0.05085,-0.0033456
0.018298,0.066092,0.054591,0.21468,0.14882,0.14569,0.080321,0.034913
-0.0018655,-0.034741,-0.16812,-0.099971,0.026979,-0.018522,-0.022477,-0.01211
0.0095104,-0.025203,0.10326,-0.049008,-0.024619,0.028849,0.0082435,0.011945
0.036309,0.055242,0.0018858,-0.12481,-0.022019,-0.017051,0.00069718,0.013262
-0.031313,-0.028226,-0.018962,0.063404,-0.098608,-0.055004,0.017273,-0.016175
-0.053062,-0.088465,-0.006099,0.047272,-0.0049256,-0.030707,-0.043856,-0.03758
0.010013,0.030601,-0.10015,-0.15707,-0.006937,0.024295,0.012287,0.01127
0.0096125,0.032112,-0.10592,0.40393,0.19219,0.016132,-0.0099395,-0.0026573
0.0085794,0.017791,0.31996,-0.21482,-0.20414,-0.070751,-0.017038,0.0064337
-0.00043825,-0.012152,-0.073298,-0.013292,0.062439,0.09199,0.022096,0.0072299
-0.0013635,0.0049323,0.056855,0.11773,0.078589,0.020272,0.013685,0.0075357
0.01394,-0.0090713,-0.22087,-0.22035,-0.076767,-0.01219,0.0046749,-0.00044074
-0.0012954,0.0081723,0.24021,0.074055,-0.027881,-0.05207,-0.012601,-0.001044
0.0074807,0.0094688,-0.06935,0.016805,0.077405,0.010098,0.0011123,0.0057635
0.0086667,-0.0055817,-0.19754,-0.032243,-0.018347,0.025858,0.0069729,-0.0034007
-0.0060243,0.025151,0.24594,-0.080307,-0.065036,-0.012708,-0.0026055,-0.005008
0.0019997,-0.0079275,-0.050671,0.10752,0.093414,0.034865,-0.011785,-0.0067292
-0.022283,-0.0032255,0.14875,0.17997,-0.090293,-0.10504,-0.043825,-0.016184
-0.00084097,-0.069797,-0.44223,-0.19118,0.05511,0.083062,0.06545,0.021542
0.0040213,-0.011749,0.15602,0.11073,0.044544,0.044361,0.019192,0.0051088
-0.046297,-0.015859,-0.21763,-0.25891,-0.052376,-0.057121,-0.034239,-0.026251
0.028525,0.067016,0.095207,0.1754,0.021573,-0.026059,-0.0090868,0.021285
0.018221,0.057695,0.43908,0.13134,-0.01526,-0.034266,-0.022809,-0.00077471
0.0092745,0.042305,0.25849,-0.14978,-0.13962,0.051154,0.025832,0.0089425
0.0097995,-0.057447,-0.19882,0.14404,0.14852,0.07402,0.034945,0.011079
0.011964,-0.031078,-0.4126,-0.29972,-0.0022458,-0.028133,0.0042428,0.0052886
-0.0080062,-0.027644,-0.14398,-0.066589,-0.052624,-0.075625,-0.035204,-0.024381
-0.011633,0.030358,0.27621,0.35988,0.11479,0.040881,0.010325,-0.0078536
-0.038693,-0.076324,-0.083279,-0.034932,-0.031063,-0.0067827,-0.038712,-0.023358
0.01948,0.050423,-0.10549,-0.15623,-0.11499,-0.015516,-0.025755,-0.0005399
0.013865,0.043271,0.31991,0.23908,0.10545,0.030316,0.065239,0.029507
-0.0012147,-0.03529,-0.24286,-0.21543,0.036908,0.037012,0.015969,0.012311
0.0132,0.033555,0.098886,0.027639,0.00025964,-0.026599,-0.0013032,0.018396
-0.044291,-0.023545,0.21425,-0.086029,-0.34751,-0.16042,-0.072261,-0.053639
0.022017,0.035697,-0.15302,0.10003,0.27564,0.17469,0.060986,0.038485
0.0017348,-0.015152,-0.2597,-0.04694,0.011037,-0.013394,-0.00010258,-0.002075
0.02049,-0.011824,0.48077,0.21517,0.077871,0.048765,0.033288,0.012188
-0.0070439,-0.024313,-0.36098,-0.21545,-0.039479,-0.068555,-0.050111,-0.028079
-0.010041,0.010333,0.074602,0.11395,-0.11493,-0.052912,-0.031893,-0.013431
0.011851,0.0536,0.10011,-0.047155,0.069313,0.064398,0.025152,0.00157
-0.034971,-0.14395,-0.47974,-0.26186,-0.027105,-0.02132,0.011454,-0.0063584
