0.013534,-0.032814,-0.018874,0.0041752,0.0042415,0.0060172,0.11098,-0.045737
-0.063989,-0.010402,0.090168,0.058957,-0.0020935,0.0088071,0.14349,0.028641
-0.082476,-0.057683,-0.10476,-0.066052,1.0337e-05,-0.002612,0.02442,0.4058
0.22373,0.012994,0.029041,0.011891,0.0025113,0.065044,0.16736,-0.42151
0.15843,0.029654,-0.024345,-0.027671,-0.0028229,-0.03906,-0.18695,0.13182
-0.069297,0.10909,0.062752,0.049436,0.05376,0.043387,-0.032768,0.32146
-0.14947,-0.061844,0.031978,0.032064,-0.00021593,-0.024628,-0.067598,-0.44938
0.14953,0.0082584,0.039078,0.013817,-0.024635,-0.025194,-0.10577,0.065987
-0.27618,-0.064131,-0.13502,-0.099063,-0.066652,-0.099316,0.078145,0.12244
0.2361,0.064308,0.040926,0.021738,0.05348,0.073533,-0.149,-0.45387
0.061461,-0.043882,-0.049861,-0.013992,-0.023173,0.056677,0.53345,0.81303
-0.26723,0.057234,0.046544,0.028724,0.0010477,-0.039192,-0.45965,-0.25568
-0.098573,-0.10774,-0.020342,0.0021474,0.0021541,-0.048408,-0.017969,-0.57962
-0.13187,-0.021645,0.00063704,0.00069731,0.0046432,0.022821,0.20312,0.22723
0.58213,0.035886,0.016703,0.0014352,0.03286,0.11331,0.44654,0.19974
-0.023611,0.034915,0.03621,0.01238,-0.037629,-0.14334,-0.57616,0.020913
-0.048647,-0.039534,-0.065914,-0.036944,-0.011423,0.026343,-0.05186,0.044765
-0.21922,0.062273,0.014253,-0.0064676,0.0016584,0.020085,-0.034472,-0.086946
-0.20859,0.034396,0.064378,0.056041,0.055363,0.023941,-0.13239,-0.14794
0.3553,0.01539,0.020138,0.0088401,0.0234,0.051589,0.72586,0.58681
-0.070577,0.05745,0.043652,-0.00080121,-0.0097086,0.022766,-0.42728,-0.36937
0.15775,0.041017,-0.10114,-0.0051479,-0.013978,0.0058419,0.29992,0.14501
-0.13584,-0.24652,-0.11065,-0.067369,-0.060566,-0.18806,-0.52923,-0.73172
-0.048468,0.069317,0.13207,0.046732,0.014362,0.0030303,-0.0081357,0.014325
-0.043004,-0.15909,-0.067619,-0.037482,-0.015297,0.063916,0.152,0.6086
-0.010215,0.070293,-0.012913,-0.014473,-0.023477,0.019336,-0.06553,-0.07454
0.27814,0.033679,-0.014291,-0.01587,-0.032157,-0.042858,0.45449,0.55048
-0.40129,0.10895,0.086683,0.12369,0.1477,0.12949,-0.079787,-0.27437
0.025949,-0.1235,-0.0049087,-0.063383,-0.068548,-0.11007,-0.01537,-0.43194
0.11104,0.064036,0.032665,-0.029358,0.030817,-0.010028,-0.61332,-0.22672
-0.033077,0.38222,0.051668,0.054276,-0.022824,0.024135,0.64718,-0.27541
-0.099574,-0.38928,-0.16668,-0.031312,0.035637,0.11741,-0.43068,0.51638
0.529,0.20805,0.17385,0.096206,0.017692,-0.0043579,0.4343,0.71173
-0.070849,-0.2738,-0.16215,-0.09515,-0.046652,-0.11576,-0.50645,-0.41548
0.043191,0.0066281,0.058541,-0.0046069,0.0054949,0.0084424,-0.054975,0.11158
-0.53875,0.016729,-0.0011382,-0.007829,-0.045444,-0.015707,0.46406,-0.33951
-0.03092,-0.040579,-0.13896,-0.058356,-0.0044565,0.03761,0.17936,-0.23664
0.15825,0.08561,0.15223,0.093697,0.019361,-0.03495,-0.093195,0.093565
0.1063,0.084512,0.075148,0.010973,0.0033327,-0.029994,-0.54623,0.12203
0.064309,-0.04178,-0.065758,-0.056221,-0.028064,0.014016,0.12661,-0.078453
-0.082388,0.021239,-0.0049809,0.017447,0.035585,0.0040216,-0.0117,0.17404
-0.10382,-0.037396,-0.039433,0.0056436,-0.00026659,0.057745,0.49907,0.099741
0.10522,-0.052813,-0.03629,0.0021446,0.02091,0.042553,-0.21008,-0.082325
0.08706,0.053108,0.020123,-0.0010872,0.03631,0.028502,0.19419,0.19713
-0.093517,0.029615,0.059576,0.026743,0.00602,-0.039754,-0.41606,-0.26721
0.16597,0.031649,0.043127,0.0069064,-0.047761,-0.12407,0.0032604,0.0060825
-0.39295,-0.020486,0.033456,0.016911,-0.024846,0.032372,0.059338,-0.21281
0.26661,-0.057992,-0.16448,-0.092164,-0.012415,-0.024419,-0.06943,0.088644
-0.077545,0.1289,0.13721,0.10915,0.066786,0.095556,0.29631,0.24376
0.1328,-0.27293,-0.1782,-0.1603,-0.12353,-0.053326,-0.10076,-0.069714
-0.013117,0.033349,0.0069461,0.060852,0.11218,0.13833,0.0764,0.27991
0.090068,0.087215,0.052352,-0.00019272,-0.037878,-0.1729,-0.38176,-0.58267
-0.13078,0.10029,0.059629,0.03227,-0.017913,0.037015,0.26829,0.15556
-0.01262,-0.075191,-0.010608,-0.013021,0.032706,0.042277,-0.15214,0.18333
-0.093476,-0.0090403,0.059727,0.020594,-0.017601,-0.031233,0.17771,-0.14595
-0.081221,0.25991,0.22293,0.14892,0.035337,-0.049826,0.06231,0.16211
0.059976,-0.18237,-0.17796,-0.073333,0.028203,0.026332,-0.038179,0.0005028
-0.14899,-0.031185,-0.18228,-0.091508,-0.030777,0.072823,0.062668,-0.12062
0.30463,-0.19264,-0.18809,-0.10866,-0.032124,0.019677,-0.15174,-0.11322
-0.044242,0.021172,0.094717,0.039499,0.00057896,-0.015806,0.099409,0.29009
0.25144,0.16558,0.18322,0.07208,0.01232,-0.018074,-0.30848,-0.19854
-0.20722,0.038215,-0.022627,-0.026186,-0.05203,-0.11231,0.29783,-0.0081826
0.038353,-0.063393,0.0016999,-0.01292,0.017939,0.037202,-0.14982,-0.060792
0.023574,0.087691,0.28001,0.17425,0.057569,0.00053083,-0.00044481,0.26003
-0.16187,-0.09451,-0.24285,-0.066765,0.019341,0.11336,0.053063,-0.078379
-0.1388,-0.032347,-0.052419,-0.041484,-0.0036568,-0.015215,-0.050105,0.047089
0.098001,0.10147,0.084105,0.022505,-0.0433,-0.096485,0.15934,-0.10006
0.03167,0.0090201,-0.037979,-0.055483,0.0014546,0.064475,0.047763,-0.15473
0.013829,-0.15455,-0.25588,-0.11999,-0.025998,0.029766,0.027136,0.060939
0.037717,0.10982,0.164,0.11757,0.030431,-0.044732,-0.10082,0.037712
0.011171,0.035802,0.25265,0.071135,-0.040173,-0.088996,-0.13624,0.11843
0.053048,-0.18942,-0.39604,-0.1576,-0.0032741,0.092099,0.042945,-0.048838
-0.054003,0.1998,0.29639,0.1348,0.024178,-0.095273,-0.088761,0.012674
0.15189,-0.038375,0.05688,0.065898,0.10495,0.18486,0.14749,0.10066
-0.23506,-0.020553,-0.16113,-0.059208,-0.018504,-0.028321,0.017759,-0.017785
-0.027315,-0.12104,-0.076187,-0.091664,-0.080238,-0.023622,0.047096,-0.24682
0.09526,0.082744,0.022863,0.00026333,-0.017356,-0.066302,-0.1449,-0.036996
0.06207,0.1852,0.30821,0.15466,0.061291,-0.015242,0.030488,0.059739
0.036919,-0.055331,-0.15708,-0.073058,-0.070212,-0.049557,-0.072543,0.084933
-0.22256,-0.19309,-0.16894,-0.12738,-0.067409,0.010993,0.0089483,0.095006
0.080399,0.0066481,-0.046389,0.023807,0.093773,0.15118,0.17439,0.11396
-0.023014,0.1848,0.21995,0.11561,0.015312,-0.089827,0.017333,-0.35906
0.11554,-0.080277,-0.08708,5.8915e-05,0.080089,0.084625,-0.1511,0.11903
0.058376,-0.13224,-0.23969,-0.11969,-0.0638,-0.021338,0.37001,0.14644
-0.038517,0.099121,0.28608,0.099641,-0.018634,-0.064722,-0.38286,-0.030744
-0.16761,-0.011557,-0.072757,-0.01483,0.0036752,0.039627,0.033218,0.11488
0.13965,0.11317,0.17437,0.066745,0.009891,-0.021401,-0.094351,-0.013456
-0.038622,-0.0433,-0.0063917,-0.024428,-0.016548,-0.021543,0.093156,-0.35488
0.0088091,-0.028964,-0.10261,-0.071139,-0.029434,-0.031037,0.057116,0.020455
0.071584,0.022244,0.04656,0.034791,-0.0056324,-0.041665,-0.052698,0.12228
-0.25573,-0.078059,-0.13958,-0.051019,0.031491,0.11905,-0.039109,-0.17111
0.1606,0.099361,0.071926,0.038671,0.012019,-0.016988,-0.0017404,0.30841
-0.045806,-0.06259,-0.022055,0.01551,-0.00093917,0.019474,0.1235,0.1507
0.2506,-0.063264,-0.24824,-0.11928,-0.0066784,0.049042,0.017233,-0.31299
-0.26256,-0.089078,-0.010444,-0.020478,-0.020138,-0.076673,0.031221,-0.026254
0.09403,0.24409,0.4599,0.21962,0.053017,-0.021878,-0.030319,0.15159
0.0070789,-0.039041,-0.10006,-0.02284,0.0022803,0.049126,-0.043256,-0.077918
-0.01667,3.9179e-05,0.093081,0.02629,-0.031449,-0.082651,-0.071043,0.173
-0.040872,-0.052141,-0.16258,-0.093713,-0.032422,0.0044834,-0.04412,-0.13054
0.050632,-0.039223,-0.18703,-0.093981,0.0071713,0.060418,0.060544,0.093736
0.022748,0.10879,0.33184,0.13441,0.009096,-0.063351,-0.085243,-0.1963
-0.13263,-0.11655,-0.19265,-0.088801,0.020019,0.13311,0.11239,0.091221
0.18621,0.11996,-0.011242,0.017106,-0.015047,-0.061206,-0.033944,-0.028428
-0.14517,-0.033946,0.023969,0.021994,0.012901,0.002021,0.030335,-0.19469
-0.047839,-0.078752,-0.048116,0.0036592,0.017514,-0.021041,0.031432,0.11835
-0.044371,-0.053691,-0.039842,-0.014682,-0.025035,-0.044475,0.51569,0.24209
0.27222,0.1664,0.20536,0.099648,0.049011,0.0099303,-0.72831,-0.062122
-0.050732,-0.043004,-0.093523,-0.075293,-0.04174,0.064259,0.0023968,-0.01765
0.041601,-0.01721,-0.092781,-0.039514,-0.015986,0.017261,0.12225,0.026392
-0.1384,-0.044601,0.043017,-0.0039175,-0.045352,-0.083824,-0.078791,-0.25672
0.018397,0.00036898,0.078495,-0.015314,0.0033554,-0.012082,0.15839,0.086349
-0.11324,0.016404,0.074745,0.082605,0.060236,0.037427,0.022635,0.15617
0.09155,0.12838,0.1161,0.078924,0.0631,0.088231,0.030615,-0.16652
-0.11727,-0.1799,-0.40834,-0.21391,-0.12076,-0.10198,-0.13753,-0.017491
0.072764,0.07497,0.15652,0.1024,0.047534,-0.041385,0.13512,0.38889
0.31,0.087006,-0.049326,0.019821,0.075376,0.12104,-0.074274,-0.14609
-0.18704,-0.15302,-0.049352,-0.047893,-0.076922,-0.037271,0.13126,-0.12529
0.0031987,0.12699,0.15685,0.070789,0.019645,-0.0091919,-0.18743,0.027688
-0.11963,-0.089629,-0.062885,-0.038549,-0.0027104,0.04062,0.069713,-0.10148
-0.055783,-0.022206,-0.012581,-0.079339,-0.089689,-0.099146,-0.067163,-0.23029
0.061854,0.14959,0.3161,0.15915,0.086736,0.0011265,0.01865,0.18291
0.069283,-0.20642,-0.39682,-0.12,-0.00447,0.091682,0.038262,0.047671
-0.056778,0.075037,0.044251,0.020864,-0.019071,-0.045706,0.00022394,0.33617
0.027568,0.089319,0.21783,0.089946,0.043606,-0.027529,0.015039,-0.089377
0.14271,0.0023332,-0.070704,-0.091827,-0.042251,-0.0014875,-0.0097583,-0.26623
-0.06293,-0.07472,-0.038923,0.0075991,0.0053299,0.025237,-0.080772,0.0014058
-0.050311,-0.038708,-0.15393,-0.04056,0.015062,0.076489,0.17794,0.025234
-0.077216,-0.052606,-0.054392,0.0067623,-0.036102,-0.12887,-0.16276,-0.071669
-0.049726,0.063698,0.074177,0.017465,0.023864,0.07306,0.069133,0.27833
0.024664,0.11456,0.069258,0.038828,0.022998,0.025618,0.021795,0.017591
0.16981,0.075465,0.30656,0.13337,0.070399,0.033001,0.054082,-0.098783
-0.051348,-0.17241,-0.38622,-0.19931,-0.13121,-0.092733,-0.10025,-0.088312
0.041214,0.087775,0.16904,0.071329,0.042746,0.0075406,0.003528,-0.0063431
-0.10699,-0.1224,-0.03021,-0.079066,-0.056558,-0.072413,-0.11153,-0.11771
-0.050619,-0.030929,-0.057322,0.012617,0.023721,0.089566,0.19504,0.21257
0.19457,0.23645,0.37377,0.19712,0.10373,-0.021678,-0.10798,-0.2155
-0.20762,-0.2421,-0.52834,-0.19021,-0.066618,0.024057,0.018642,-0.023394
0.078382,0.042038,-0.014934,-0.0089721,0.020494,0.031855,0.036022,0.26079
-0.033801,0.05898,0.35935,0.10031,-0.088044,-0.084072,0.053643,-0.0014554
0.11944,-0.056809,-0.34948,-0.13538,0.029649,0.074546,-0.069148,0.018648
0.084564,0.047844,0.13426,0.058032,0.0063527,-0.070899,-0.10596,-0.1721
-0.25591,0.061707,0.071073,0.048449,0.052929,0.04139,0.10697,0.12696
0.17605,0.0089283,0.072905,0.055271,0.09897,0.1294,0.061495,0.021684
-0.12726,-0.086998,-0.08489,-0.10071,-0.1212,-0.096582,-0.031734,-0.16369
-0.087363,-0.015699,-0.088883,-0.01303,-0.013767,-0.027485,0.022442,0.12973
0.16333,0.049893,0.13886,0.04486,-0.039403,-0.092865,-0.10403,0.063306
0.0079984,-0.0087562,0.050276,0.03364,0.028919,0.036014,-0.012375,-0.30963
-0.10792,-0.013372,-0.059689,-0.047098,-0.026933,0.00075091,0.032352,0.16731
0.12006,0.058216,0.056754,0.020911,0.043688,0.013407,0.015231,0.026972
0.10549,0.0019319,-0.071222,0.026243,0.038162,0.090601,0.061949,-0.0014082
-0.089878,-0.10463,-0.24209,-0.10185,-0.019865,-0.0092506,-0.037929,-0.016126
-0.1543,-0.074091,0.043229,-0.0043687,-0.044665,-0.043912,-0.03423,0.025159
0.052307,0.062557,0.011007,-0.0097736,0.0256,0.025126,0.010306,-0.01544
0.10008,0.1339,0.43489,0.17066,0.025811,-0.045384,-0.022167,0.027914
-0.088756,-0.047016,-0.30961,-0.12748,-0.037527,0.0010115,0.023598,-0.11766
-0.044648,-0.018743,0.035935,0.048584,0.060807,0.076984,0.1386,0.18779
0.1242,0.094185,0.18324,0.089234,0.02282,0.0095276,-0.084577,0.13786
-0.049632,0.003171,0.000467,0.025729,0.027546,0.0011306,0.048496,-0.19173
-0.025849,-0.18966,-0.37045,-0.23528,-0.20627,-0.19039,-0.22822,-0.23326
0.040242,0.063296,0.16596,0.064873,0.033025,-0.017503,0.030777,0.07348
-0.030575,-0.10424,-0.21639,-0.088128,0.0045563,0.099068,0.091862,0.14878
0.042871,0.035299,0.015799,-0.0052375,0.030349,0.09041,0.018725,0.093583
-0.029098,0.23281,0.45798,0.24475,0.080927,-0.065574,0.00024113,0.10365
0.088422,-0.081398,-0.18582,-0.024502,0.06405,0.14775,0.084586,-0.24923
-0.074591,-0.11026,-0.025208,-0.078058,-0.081797,-0.097241,-0.070983,-0.11905
-0.019422,0.083381,0.039999,-0.0098575,-0.035976,-0.089612,-0.075266,-0.10469
0.026276,-0.0638,-0.16449,-0.063011,0.0058743,0.076418,0.07183,0.030801
-0.13356,0.040737,0.15516,0.057854,-0.011799,-0.076473,-0.059731,0.3675
0.071047,0.051832,0.058275,0.085289,0.034796,0.036775,0.068422,0.070378
0.054205,-0.070981,-0.12979,-0.029418,0.034962,0.07158,0.049148,-0.009324
0.10534,0.014858,-0.020338,-0.0378,-0.043764,-0.058652,-0.063779,-0.16206
-0.024993,-0.043019,-0.098519,-0.065822,-0.0069763,0.044124,0.0023023,0.0085256
-0.2111,-0.0027488,0.034535,-0.012159,-0.034845,-0.088933,-0.057797,-0.20288
0.063373,0.10461,0.13033,0.029952,-0.0023816,-0.012307,-0.017672,-0.063761
0.033492,-0.056241,0.13645,0.069473,0.036137,0.040066,0.013486,0.23723
0.11396,-0.05463,-0.24912,-0.048302,0.04236,0.12346,0.15331,-0.089345
0.039678,0.071532,0.093401,0.029846,-0.03755,-0.081819,-0.081976,0.20678
-0.14206,-0.075048,-0.06813,-0.038369,-0.01528,-0.020492,-0.012074,-0.076786
-0.11848,-0.016848,-0.068124,-0.033164,-0.0073949,-0.020238,-0.034902,-0.040717
0.032447,0.13741,0.21128,0.084964,0.0020561,-0.080803,-0.040753,-0.10607
0.099752,0.028606,-0.01141,0.034567,0.059927,0.11033,0.095454,0.071434
0.12228,-0.03086,0.020599,0.0023884,0.0018071,0.021646,-0.024914,-0.13312
-0.033215,-0.11171,-0.084916,-0.090847,-0.032272,0.019835,0.011747,0.10013
-0.10169,-0.058276,-0.1345,-0.027692,-0.019582,-0.0051742,0.0094734,0.21555
-0.021294,0.04282,0.034128,0.034391,-0.0076824,-0.061956,-0.0012232,-0.07722
0.019826,0.065903,0.091368,0.024169,0.018526,0.051923,0.010224,0.0016849
-0.072604,0.12752,0.255,0.073957,-0.011553,-0.12496,-0.089494,-0.18944
0.076031,-0.12448,-0.31913,-0.097535,0.01144,0.094682,0.058793,0.14585
0.16078,-0.065558,-0.13873,-0.075872,0.0017974,0.0078169,-0.021358,-0.10136
-0.19351,0.022683,0.13262,0.045851,-0.040084,-0.041472,0.0064024,0.039111
0.013046,0.01508,-0.012172,0.002771,0.01908,0.017607,-0.029185,-0.21962
-0.063411,0.099177,0.27133,0.13151,0.062542,0.037129,0.10694,0.33595
0.10046,-0.076326,-0.12568,-0.051819,-0.034364,-0.0059048,-0.068972,-0.1277
0.098332,-0.0031423,0.00028219,-0.00015142,-0.013637,-0.048691,-0.048665,-0.069716
0.0082914,-0.039986,-0.20211,-0.065081,-0.0002368,0.065162,0.097761,0.088755
-0.12269,0.063925,0.19706,0.057913,0.0057748,-0.062777,-0.075042,0.11286
-0.044349,-0.034344,-0.012782,0.017103,0.051171,0.075227,0.081125,0.047851
-0.02964,-0.037197,-0.12016,-0.093808,-0.067249,-0.05216,-0.012209,-0.077395
0.015801,0.016803,-0.10093,-0.032499,-0.021358,-0.0074656,-0.04289,-0.10146
0.092615,0.073135,0.30348,0.10757,0.02488,-0.0093686,-0.018976,-0.018855
-0.095567,-0.055932,-0.14852,-0.056064,0.0091322,0.01262,-0.01867,-0.081136
0.18588,0.03523,-0.058203,-0.015299,-0.029351,-0.01938,0.012812,0.14867
-0.078737,0.025389,0.12107,0.097132,0.065809,0.043313,0.036621,-0.094575
0.039993,-0.039638,-0.072428,-0.031477,-0.025693,0.0055538,-0.0094986,-0.06744
-0.03642,0.0032199,0.07098,-0.0031923,-0.03058,-0.0467,0.0074315,0.11449
-0.13632,0.0047939,0.034092,0.0093841,0.043008,0.050441,0.024923,0.11682
0.091937,-0.066489,-0.11437,-0.041426,-0.024138,-0.047142,-0.035328,0.026592
0.023847,0.039517,0.093065,0.038988,0.02528,0.035021,0.013824,-0.077553
-0.089744,-0.043802,-0.055204,-0.0545,-0.043594,-0.024004,-0.039022,-0.15663
0.025644,0.028183,-0.043401,0.021803,0.034516,0.032982,0.047843,0.20293
0.042886,0.045533,-0.026772,-0.020805,-0.021774,-0.028891,0.00059474,-0.054215
0.040796,0.032618,0.090155,0.052782,0.022039,0.032293,-0.02471,-0.092664
0.019528,-0.0020293,-0.04987,-0.014281,-0.0055208,-0.0021788,0.050121,0.11858
-0.13861,-0.081432,-0.054121,-0.049094,-0.017896,-0.030366,-0.071433,-0.29537
0.096475,0.044504,0.071208,0.027343,0.0012924,-0.012516,-0.0059527,0.22059
0.059036,-0.022859,-0.0012729,-0.026626,-0.033144,-0.041472,-0.010484,0.15134
-0.057573,-0.041771,-0.061021,-0.0078294,-0.0034199,0.032158,0.040758,-0.19019
-0.052153,0.057475,0.17948,0.098866,0.043899,0.013879,-0.0078387,-0.022619
0.058113,0.078855,0.1787,0.097183,0.054053,-0.0020614,0.031583,0.11469
-0.01675,-0.12682,-0.33974,-0.16258,-0.012478,0.1094,0.026199,-0.091471
0.035681,0.010025,-0.042723,-0.017687,-0.023648,-0.042756,-0.024377,0.29543
0.0052631,0.043431,0.12231,0.054235,0.019636,-0.013975,-0.027076,-0.12406
-0.16896,-0.073987,-0.11905,-0.095861,-0.070978,-0.063028,-0.029615,-0.31949
-0.0083912,0.087156,0.04612,0.039839,0.024225,-0.018993,0.037478,0.044708
-0.018755,0.081513,0.12736,0.071328,0.0081573,0.0079833,0.032897,0.16406
0.34078,-0.051555,-0.083462,-0.047157,-0.025212,0.025249,-0.043766,0.023629
-0.13185,-0.069192,-0.12986,-0.032961,0.018461,0.063937,0.010545,0.015097
0.047908,0.006193,0.18684,0.068475,0.0071881,-0.039806,-0.046095,-0.1182
-0.15969,-0.081923,-0.068069,-0.03071,-0.026912,-0.035518,0.013401,0.023191
-0.052865,-0.035306,-0.041287,-0.032893,0.010615,-0.00070887,0.025643,0.10403
0.26515,0.03784,0.033163,0.023023,0.034213,0.034031,0.030365,0.10116
-0.17599,0.2398,-0.017681,-0.035305,-0.034285,-0.016637,-0.026579,-0.3059
-0.049363,-0.24182,0.16322,0.13487,0.078116,0.011806,0.011374,0.14017
0.074201,0.31117,0.10401,0.03222,0.0034827,0.01806,0.0036449,-0.030103
-0.00039139,0.16338,-0.018919,-0.0086912,0.0065911,0.0021843,-0.0030954,0.057519
-0.037848,-0.7099,-0.37239,-0.18428,-0.12424,-0.012498,-0.017046,0.097715
0.041355,0.14332,-0.051859,-0.065432,-0.03007,-0.049664,-0.030867,-0.097378
-0.081535,0.034723,0.012634,0.051012,0.046863,0.015379,0.040923,-0.05901
-0.01453,0.2139,0.16578,0.064115,0.020973,0.033873,0.010476,-0.08368
-0.022423,0.11834,0.22196,0.10769,0.041331,-0.033542,0.049501,0.14959
0.23082,-0.06421,-0.1212,-0.043705,0.014936,0.070692,-0.084146,-0.1006
0.033562,-0.2084,-0.12713,-0.053192,-0.057531,-0.044238,-0.030844,0.017946
-0.013898,-0.040455,0.0026696,-0.013932,0.0040884,0.0043589,0.037923,0.1618
-0.14747,0.064867,0.11274,0.050759,0.035899,-0.025751,-0.025847,-0.15359
-0.024741,0.060713,-0.078268,-0.039143,-0.048193,-0.032991,0.012579,0.11015
-0.044961,0.15779,0.17874,0.075043,0.040443,0.0061307,0.043998,0.037918
-0.16131,-0.23032,-0.14892,-0.045072,0.012138,0.099497,0.037083,-0.22302
0.21279,0.16137,-0.031573,-0.02537,-0.0087478,-0.018453,-0.024104,0.22481
0.13317,-0.05055,0.0059446,0.00064773,0.024129,0.035153,0.02404,-0.095681
-0.016119,0.0085172,0.056482,0.017002,-0.05359,-0.08336,-0.045522,0.050037
-0.21841,-0.11456,-0.11459,-0.038763,-0.046588,-0.061388,-0.061261,-0.18877
0.144,0.033798,0.09465,0.044696,0.021988,-0.00035668,-0.046735,0.017369
0.024148,0.0013536,-0.088378,-0.052268,0.011999,0.084246,0.09975,0.021586
0.022876,-0.054508,-0.045451,-0.024218,0.0021034,0.0050065,-0.0042874,0.05961
-0.095357,0.070473,0.16969,0.082629,0.0396,-0.0037083,0.024399,0.14783
0.019636,0.033414,-0.028307,-0.0047515,0.015302,0.042356,0.037797,-0.073237
0.038431,0.1394,0.23569,0.10435,0.015056,-0.067932,-0.073136,0.0048081
-0.086805,-0.15077,-0.24177,-0.098105,-0.01615,0.040236,0.019925,-0.033791
0.1435,0.013846,-0.1332,-0.065714,-0.031888,-0.00042298,0.020168,0.3324
-0.15328,-0.016108,0.07632,0.036901,0.006491,-0.041393,-0.072465,-0.59379
-0.0076186,-0.022837,-0.035707,-0.040791,-0.049697,-0.043335,0.015313,0.061355
0.058239,0.024134,0.053763,0.021135,-0.0051357,0.0019923,0.0098407,0.094237
0.006655,-0.055307,0.09459,0.058417,0.031055,0.016942,0.020213,0.10683
0.096832,0.059138,-0.069387,0.0085589,0.03588,0.087842,0.061744,0.053412
-0.10759,-0.014977,0.007414,-0.026689,-0.013587,-0.019505,-0.029925,0.076268
0.026923,0.02766,-0.0027191,-0.031367,0.015932,0.015111,0.0027864,-0.12741
0.01624,-0.062223,-0.075817,-0.012849,-0.015873,-0.011819,-0.066789,-0.20419
-0.030514,0.067589,0.20283,0.060604,0.0004813,-0.053999,-0.0042251,0.30847
-0.067127,-0.019956,-0.15823,-0.044906,-0.0054272,-0.018342,-0.020262,-0.1976
0.030436,-0.027834,-0.048788,-0.01648,-0.033897,0.016414,0.026005,0.020473
0.16731,0.10629,0.1648,0.083649,0.047453,0.026364,0.048913,0.079892
-0.095099,-0.078929,-0.18859,-0.056916,0.011575,0.04251,0.079887,0.065989
-0.038932,-0.013764,0.024383,-0.00075498,-0.024804,-0.067975,-0.11542,-0.09273
-0.063153,-0.050366,0.046081,0.0018998,-0.0073562,-0.00018485,-0.005895,-0.093171
0.13687,0.052965,0.040266,0.0053875,0.0090378,0.043167,0.041067,0.1957
-0.03215,0.11626,0.1702,0.063992,0.016566,0.00012459,0.0017899,-0.12627
-0.053711,-0.13392,-0.20598,-0.11174,-0.05489,-0.034962,-0.0066967,0.095766
-0.11416,0.060463,0.089925,0.063779,0.052821,0.016603,-0.015665,-0.03751
0.092391,-0.17512,-0.18578,-0.073741,-0.066134,-0.063478,-0.071857,-0.18263
0.090319,0.081765,-0.050027,-0.0010013,0.018332,0.053171,0.06718,0.12166
-0.018315,0.12853,0.32442,0.14915,0.064329,0.0071784,0.0033282,0.024596
0.0085869,-0.018831,-0.055007,-0.021668,0.025121,0.079532,0.041563,-0.082115
0.014108,-0.00081943,-0.12564,-0.083651,-0.036821,-0.042747,-0.021063,0.17766
-0.073151,-0.075402,-0.058707,-0.028801,-0.027913,-0.055579,-0.020473,-0.023188
0.058054,0.014848,0.045264,0.010292,-0.026519,-0.022076,0.0041212,-0.035435
0.031601,0.0037823,-3.0154e-05,0.033855,0.053057,0.065075,0.021187,0.11021
-0.16887,-0.015414,0.033122,-0.02044,-0.047197,-0.03661,-0.032129,-0.22657
0.12054,0.019254,0.028412,0.01153,-0.014918,-0.053757,-0.015557,-0.11593
-0.076317,0.013668,-0.0058964,0.035928,0.048246,0.099741,0.023739,0.11391
0.061776,0.0067006,0.031731,0.021271,0.0094221,-0.013263,0.023083,0.18919
-0.089029,-0.017253,-0.046653,-0.048394,0.0013657,-0.017295,-0.0019263,-0.14857
0.10519,0.043591,0.070739,0.037531,0.02402,0.033491,-0.019909,0.17773
-0.018819,-0.076001,-0.11686,-0.072774,-0.032028,-0.032246,-0.0071507,-0.20038
0.054834,-0.00053624,0.030534,0.011217,-0.02614,-0.026532,-0.010138,0.082922
-0.041346,-0.0342,-0.088981,-0.030722,-0.028543,-0.019318,0.018447,0.17492
-0.026942,0.042158,0.14957,0.067279,0.031242,0.020829,-0.014724,-0.19064
0.11251,0.12718,0.012071,0.032114,0.044067,0.039173,0.023487,-0.037065
-0.085142,-0.052591,-0.18073,-0.096821,-0.075764,-0.08178,-0.023003,-0.13679
-0.11308,-0.11462,0.1185,0.071356,0.086032,0.1418,0.048907,0.09006
0.1063,0.089141,-0.0039666,-0.010092,-0.025066,-0.032984,-0.04224,0.044135
