-0.022569,-0.043275,0.15939,0.01477,0.034478,0.0099925,0.00023356,-0.008348
-0.00059257,-0.085759,-0.17665,0.10912,0.078477,0.094176,-0.0026926,0.0049918
-0.01738,0.098573,-0.28673,-0.0071307,0.091506,-0.047864,0.14348,0.042693
0.028795,-0.044275,0.10143,-0.16253,-0.14509,-0.10334,-0.092007,0.058093
-0.026046,-0.037116,0.26016,0.16588,-0.08447,0.021659,-0.068299,-0.081666
0.021215,0.081408,0.25886,-0.045729,0.0076091,0.053669,0.097304,0.013734
0.0064128,0.053598,0.10477,-0.031977,0.068495,0.11746,0.099645,0.031298
-0.039385,-0.15985,-0.67083,-0.011603,0.13713,-0.013947,-0.038559,-0.021732
0.039844,0.15926,-0.035889,-0.11716,-0.16937,-0.13007,-0.052456,0.0025826
0.0094899,-0.013293,-0.059109,0.058058,0.039673,0.057769,0.088613,0.010184
-0.029076,-0.16273,0.29304,0.15521,-0.024694,-0.091255,-0.22494,-0.038023
-0.0369,0.053925,0.19503,-0.1377,-0.049754,0.0010657,-0.0084813,-0.055843
0.087581,0.13612,0.50085,0.33601,0.10538,0.069433,0.035506,0.08221
-0.05395,-0.049221,-0.77199,-0.314,-0.019949,-0.01848,0.04067,-0.037332
-0.008146,-0.1114,-0.35686,-0.1187,0.019808,0.042515,0.10931,0.039211
0.029969,0.012451,0.16803,0.30496,0.099837,0.01843,0.030865,0.0075261
-0.06431,-0.020869,0.043541,-0.3787,-0.27195,-0.067118,-0.015066,0.016164
0.092075,0.21896,0.91561,0.27583,0.1154,0.067062,-0.052473,-0.013173
-0.039808,-0.11127,-0.20361,-0.036128,-0.003891,-0.055857,-0.035305,-0.026198
-0.02248,-0.081469,-0.5915,-0.1118,-0.044174,0.0012263,0.074668,0.023433
0.018867,0.01942,-0.017428,0.11052,0.15028,0.042555,-0.066885,-0.021066
0.021392,0.019397,-0.13264,0.012411,-0.038424,-0.10415,-0.14762,-0.050756
-0.015345,0.0040387,0.20211,0.029789,-0.017371,0.052988,0.051543,0.051288
0.025376,0.12127,0.54183,0.09072,0.0095117,0.068476,0.1641,0.011559
-0.036538,-0.12948,-0.65068,-0.0014258,0.065069,-0.034294,0.026896,-0.013581
-0.021662,-0.02212,-0.18488,-0.35666,-0.2181,-0.08336,-0.16391,-0.023888
0.069942,0.10712,0.72418,0.29095,0.082169,0.10899,0.13138,0.1294
-0.089696,-0.17144,-0.34169,-0.15104,0.029115,0.027466,0.030246,-0.1393
0.031031,0.080008,-0.22318,-0.11801,-0.0089575,-0.069698,-0.18615,0.014104
0.018555,0.026105,0.14427,0.048799,0.00045292,-0.04919,0.059869,0.011779
0.045299,0.081679,0.13641,0.1721,0.019429,-0.0042519,0.048842,0.018
-0.052276,-0.080561,0.1356,0.10521,-0.037155,0.01087,-0.095086,-0.021807
-0.0081354,-0.014526,0.15606,0.036409,0.13571,0.11364,0.29911,0.025171
-0.032966,-0.078984,-0.31186,-0.097122,-0.05591,-0.047468,-0.26145,-0.020853
0.099853,0.070151,-0.38706,0.039332,0.027936,0.019477,0.176,0.10558
-0.055122,0.073503,0.37451,-0.27481,-0.17622,-0.10793,-0.28691,-0.11132
0.0096294,-0.045853,-0.41053,-0.15097,0.025832,0.046142,0.076894,0.01581
-0.0031586,0.00046342,0.35144,0.35424,0.086165,0.01991,0.080792,-0.020892
-0.039219,-0.02282,0.051088,0.020433,0.011721,0.046942,-0.024179,-0.057333
0.12763,0.1724,0.50069,0.28398,0.13004,0.040664,0.13794,0.10967
-0.13568,-0.25065,-0.75361,-0.43389,-0.22321,-0.12427,-0.19005,-0.027668
0.0066319,0.074621,0.20875,-0.13325,-0.0088836,-0.0025165,0.10918,-0.00069253
-0.00011019,-0.070779,-0.043564,0.13946,0.062497,-0.0077225,-0.12889,-0.020587
0.039501,0.086678,0.22998,0.080388,0.038461,0.024913,0.11824,0.045067
0.024047,0.00046794,-0.089045,0.14379,0.11514,0.0025602,0.09148,0.016109
0.00054686,0.022644,-0.032284,-0.0050492,-0.23002,0.043338,0.031734,0.063977
0.00035873,0.059965,-0.13814,-0.25554,0.081917,0.015205,-0.13233,-0.16316
-0.046762,-0.098073,-0.10016,-0.0050308,0.012597,-0.026663,-0.088639,0.0065613
0.023287,0.048838,0.22498,0.14582,8.1898e-06,0.0038228,-0.063477,0.003135
-0.039476,-0.10851,-0.20641,0.041457,0.052207,-0.041944,0.084781,0.022424
0.01496,0.054905,0.32759,-0.028595,-0.096452,-0.00032201,0.0060569,-0.0052012
0.030335,-0.023516,-0.10011,-0.017229,0.085017,0.065614,0.076971,0.069344
-0.024642,0.062258,-0.081625,-0.072865,-0.060099,-0.032254,0.056709,0.0043361
0.084327,0.14006,0.28195,0.10901,0.061361,-0.01324,-0.12424,-0.012537
-0.080363,-0.17326,-0.33041,-0.21415,-0.090301,-0.026214,0.034205,-0.020443
-0.011,-0.042009,0.024926,0.17585,0.062437,0.014504,0.039196,-0.02754
0.026726,0.025845,-0.10757,-0.034196,-0.051237,0.046346,0.13174,-0.010871
-0.014056,-0.016544,0.05055,0.084492,0.076148,-0.00089568,-0.17397,0.036876
0.0073721,0.057583,0.2855,0.085633,0.069448,-0.033236,-0.090183,-0.040967
0.0052541,0.03762,-0.11626,-0.26608,-0.21189,-0.050359,0.13998,0.091278
0.0032741,0.0099229,0.07764,0.091139,0.076166,0.049634,-0.19478,-0.066444
-0.021726,-0.071939,0.084856,0.15692,0.11375,0.040483,0.15577,-0.021791
0.024272,-0.012225,-0.38367,-0.22494,-0.12985,-0.022904,0.028251,0.045889
-0.01477,-0.013699,-0.17838,-0.014867,0.025585,-0.01541,-0.052971,-0.019188
-0.021548,-0.0058059,0.19499,0.053538,-0.091405,-0.030771,0.022428,-0.036822
0.042991,0.10528,0.2468,0.051501,0.17563,0.095011,0.083325,0.055949
0.0068294,-0.024299,0.042044,0.10484,0.037591,-0.060047,-0.088596,-0.0061769
-0.013107,0.0035614,-0.22203,-0.13743,-0.099562,-0.019492,0.037997,-0.019965
-0.024979,-0.092873,0.315,0.12177,0.021555,0.013463,-0.029329,0.01445
0.0020784,0.013931,-0.33902,-0.1489,-0.013578,-0.00030297,-0.10356,-0.0048678
-0.0026138,0.049926,0.18228,0.097104,-0.056892,-0.029584,0.049028,-0.0081619
0.054397,0.061436,-0.028696,0.015612,-0.014846,0.019306,0.029311,0.050793
-0.02239,-0.061323,-0.16884,-0.089076,0.050022,0.02126,0.071009,-0.063008
-0.01428,-0.013876,0.11981,0.0015136,0.020597,0.085483,0.23612,0.095256
-0.046191,-0.038391,-0.12475,-0.11903,-0.048345,-0.10073,-0.32716,-0.12311
0.022699,0.013809,0.11256,0.15076,0.069781,-0.021965,-0.14997,-0.014967
0.020786,0.041577,0.14416,0.045113,0.0077028,0.032585,0.10409,0.076241
0.010857,-0.017074,-0.02959,0.079441,0.038686,0.0082135,0.029507,-0.020859
0.024416,-0.01319,-0.20487,-0.082519,-0.048389,0.022236,0.15839,0.030273
-0.039911,0.045869,0.10359,-0.003615,-0.073922,-0.081333,-0.063208,-0.027595
0.021114,0.051069,0.0061269,-0.09817,-0.014385,0.025983,-0.048866,-0.0065225
-0.026833,-0.098926,-0.12139,-0.061555,0.0055193,0.039858,0.053095,0.0077849
-0.011866,-0.021175,0.17474,0.20799,0.11906,-0.062859,-0.046613,0.015319
0.019129,0.042193,-0.050638,-0.10159,-0.15761,0.069528,-0.0047134,-0.0075823
0.034885,0.028679,-0.20417,-0.036587,0.16814,0.038533,0.068842,0.040278
-0.058376,-0.12427,0.28356,0.06767,-0.075295,-0.062316,-0.076481,-0.044636
0.012749,0.09882,0.028475,-0.069563,-0.020682,0.016659,-0.042628,-0.012666
0.029452,0.057093,0.22453,0.14577,0.089589,0.0016838,0.037407,-0.0046205
-0.00052808,-0.015437,-0.34033,-0.036241,-0.041728,-0.037175,0.015192,0.049838
0.024278,-0.0020344,-0.362,0.056159,-0.0010116,-0.006262,-0.031028,-0.044381
-0.083731,-0.12977,0.20657,-0.2257,-0.17148,-0.022689,0.039522,-0.029112
0.019097,-0.016354,-0.00092669,-0.030515,0.14187,0.046567,0.11757,-0.044601
0.027988,0.12681,0.36849,0.13364,0.017041,0.04553,-0.085914,0.13599
-0.0024439,0.010281,0.0039404,0.024367,0.039968,-0.048978,-0.086592,-0.057574
0.044935,0.086958,-0.24144,0.094641,-0.0079441,0.021026,-0.0095126,0.093285
-0.025212,-0.065044,-0.030416,0.016249,-0.079559,0.0055984,0.028119,-0.060255
-0.040999,-0.14076,0.12231,-0.10142,0.059838,-0.025014,0.16698,0.028183
-0.01799,-0.0068013,-0.17338,-0.15664,-0.12063,-0.04753,-0.20999,-0.11844
0.051732,0.11894,0.082513,0.10869,0.14501,0.11753,0.15523,0.030807
-0.019199,-0.059401,-0.18863,-0.12537,-0.096123,-0.10036,-0.159,-0.00073858
0.019344,0.013845,0.26997,0.17275,0.04666,0.017379,0.027255,0.0058046
-0.012231,0.073818,0.23799,0.089108,-0.012737,0.01749,0.073547,0.035111
0.018923,-0.050976,-0.41931,-0.0952,0.084676,0.048377,0.050276,0.040677
-0.051293,-0.055949,0.13981,0.01782,-0.036661,-0.030535,-0.042602,-0.016207
0.011391,0.027069,0.0072797,0.0056728,-0.0805,-0.070671,-0.080254,-0.064964
0.066199,0.11899,0.025665,0.10992,0.1479,0.060982,0.069875,0.058629
-0.019846,-0.031371,0.0071397,-0.36519,-0.26591,-0.049407,-0.022205,-0.020369
-0.020327,-0.073593,-0.32104,0.18179,0.17793,0.082747,0.041654,0.01834
-0.02908,0.02267,0.55839,0.087008,0.02642,-0.050227,-0.11379,-0.098737
-0.022674,-0.094615,-0.57878,-0.21155,-0.11851,-0.002983,0.058165,0.09707
0.022401,0.019912,0.16069,0.20859,0.14993,0.0056437,0.0027587,-0.050583
0.067221,0.062094,0.11516,0.027634,-0.050477,0.045781,0.17314,0.083197
-0.020854,0.048443,0.15353,-0.019686,-0.055066,-0.015622,-0.14928,-0.048584
0.00055246,-0.051248,0.026523,0.0042287,0.066385,-0.022543,-0.065811,-0.016356
-0.032428,-0.025039,-0.19595,-0.11167,-0.068527,-0.014205,0.033335,0.0079087
-0.0024171,0.057542,0.20345,0.030818,0.024814,-0.014093,-0.0076308,0.055406
-0.0029818,-0.021804,-0.4806,-0.04518,0.010508,-0.0065169,-0.0085702,-0.092613
0.020715,0.010429,0.13994,0.0037862,-0.025699,0.047734,0.038646,0.017031
-0.032806,-0.017924,0.37491,0.14618,0.025151,-0.01523,0.0090953,-0.014021
0.0083064,-0.068383,-0.27032,-0.12608,-0.025054,3.7236e-05,0.090067,0.064302
0.042332,0.11611,0.21796,0.17115,0.13546,0.023275,-0.078298,0.017646
-0.024776,-0.06682,-0.39583,-0.25139,-0.15028,-0.047121,-0.043532,-0.091538
0.064395,0.10087,0.45837,0.27806,0.1562,0.10123,0.06868,0.088203
-0.057782,-0.092277,-0.21866,-0.20921,-0.19542,-0.10213,-0.11722,-0.029212
-0.024505,-0.037095,-0.10474,-0.10364,0.013635,0.022391,0.070334,0.0014098
0.0077194,0.039958,0.11543,0.1107,0.018094,-0.025247,0.021968,-0.030916
-0.023676,-0.040399,0.023453,0.16858,0.013885,0.028474,-0.027645,-0.0011312
0.045495,0.08963,-0.048837,-0.031157,0.11111,-0.011595,0.0079612,0.0049969
-0.011045,-0.061459,-0.30115,-0.14438,-0.064521,-0.012431,-0.026822,0.018969
0.0023873,0.046011,0.43312,0.071413,0.010955,0.065232,0.040508,-0.0058121
-0.015395,-0.064097,-0.11823,-0.10229,-0.037142,-0.044087,-0.0083075,-0.014423
0.029665,0.053685,-0.018092,0.10812,0.056893,0.04247,-0.0089424,0.047963
-0.018503,-0.014847,0.05962,-0.07856,-0.11332,-0.073591,0.0073509,-0.045214
0.012012,0.011159,0.095923,0.06418,0.053511,-0.0096117,-0.0065576,0.018411
-0.0117,0.0061316,0.0085739,0.036145,0.010129,0.04669,0.042644,0.004213
0.027359,0.055389,0.0043717,0.040153,0.060807,0.040382,0.013818,-0.0099942
-0.042912,-0.16192,-0.40448,-0.14292,-0.044863,-0.0053189,-0.10131,-0.024517
0.0038579,0.057001,0.02986,-0.013448,-0.041613,-0.043686,0.071959,0.061975
0.042555,0.071442,0.30681,0.12357,0.046858,-0.0044395,-0.05239,-0.024063
-0.036193,-0.048082,-0.15091,-0.075842,-0.053038,-0.035918,-0.044515,-0.032576
0.025543,0.058231,0.16648,0.11478,0.088353,0.080837,0.12716,0.028834
-0.053283,-0.14031,-0.18382,-0.078063,-0.0211,-0.083602,-0.076035,-0.04263
0.0010002,0.044354,-0.19937,-0.27941,-0.17035,0.0022402,0.033738,-0.0044126
0.016716,0.058012,0.41083,0.24499,0.13288,0.080662,0.0035351,0.034432
0.040833,0.033732,0.030756,0.096445,0.076158,0.0031689,-0.041679,0.011582
0.010797,0.034026,0.16854,0.040192,-0.098326,-0.035154,0.054088,0.028586
-0.0032738,-0.089761,-0.38697,-0.017943,0.14846,0.059108,-0.037713,-0.016332
-0.025112,-0.025508,0.12163,0.0076882,-0.050643,-0.073766,0.057429,-0.0063446
-0.023779,0.007597,-0.28242,-0.23443,-0.17206,0.019117,-0.0046703,-0.0043586
0.016101,0.024778,-0.036379,0.068757,0.089225,-0.037281,-0.068015,-0.034156
-0.014963,0.010113,0.32135,0.0042216,-0.024076,-0.00057349,0.015835,0.029074
0.023694,0.033757,-0.16153,-0.02819,0.0042765,0.020257,-0.0028421,0.013472
-0.03962,-0.12306,0.10938,0.027679,0.0029767,-0.044616,-0.076683,-0.088568
0.03755,0.10226,0.22795,0.11051,0.042697,0.078697,0.076138,0.043595
-0.017944,-0.016659,-0.21264,-0.068163,-0.017167,-0.015764,-0.0048039,0.019689
0.051944,0.043839,-0.096456,0.093064,0.1199,0.047056,0.016743,0.019663
-0.033905,-0.07538,0.059181,0.085499,-0.031167,-0.0299,0.19552,0.051429
-0.0020487,0.047788,0.104,-0.14694,-0.1431,-0.020425,-0.19519,-0.03354
-0.0010364,-0.016147,-0.065172,-0.082409,0.033271,0.012566,0.016182,-0.024545
-0.0076291,-0.032658,-0.06662,0.012051,0.0051142,-0.025032,-0.061247,-0.031275
-0.006447,-0.025112,-0.12736,-0.013001,0.0064897,-0.031862,-0.029169,0.00066421
-0.0055527,0.061149,0.018439,0.01387,0.013985,-0.015761,0.018707,-0.007059
0.026085,0.015034,0.090217,0.038073,-0.050216,0.046832,0.074738,0.039222
0.025811,0.00034094,0.38584,0.13042,0.14249,0.062361,0.0062907,0.030166
-0.029882,0.032364,-0.22644,-0.17713,-0.18866,-0.094,-0.053753,-0.073163
-0.023768,-0.068908,-0.23779,0.022408,0.042696,0.070018,0.089785,0.034094
0.03649,0.01661,0.14178,0.10467,0.18838,0.015318,-0.047823,0.039623
-0.0676,-0.10957,-0.29004,-0.13301,-0.10308,-0.062916,-0.021776,-0.087649
0.070543,0.16989,0.48305,0.18462,0.019903,0.030471,0.050192,0.08993
-0.0096532,-0.066519,-0.14776,-0.10635,-0.028575,0.014122,-0.01985,-0.021253
0.0046594,0.025462,-0.088293,0.0097929,-0.084308,-0.041635,0.017918,-0.030446
-0.034676,-0.045783,0.09142,-0.084038,-0.029813,-0.019447,-0.14104,-0.015648
0.028763,0.032786,-0.1163,-0.083028,0.033743,-0.004952,0.034984,0.06232
-0.0081149,-0.027496,0.11664,0.13793,0.083297,0.049086,0.07793,-0.054267
0.003008,0.031346,-0.0303,0.12571,0.048723,0.025808,-0.0036482,-0.052887
-0.039707,-0.072084,-0.27636,-0.11207,-0.10918,-0.066784,0.0096157,0.082
0.035199,0.060163,0.28383,0.010038,0.077809,0.021288,-0.0069306,0.014235
0.016271,0.028845,-0.10885,-0.15712,-0.078703,0.016324,0.0014063,0.0090939
0.0045107,-0.010821,0.10638,0.15899,0.076415,0.02723,0.026495,0.0036376
0.015021,0.057243,0.20879,0.16836,0.049829,0.029983,0.0052889,-0.041639
-0.02291,-0.064829,-0.092646,-0.22356,-0.096905,-0.061932,-0.070652,-0.0020823
-0.039162,-0.04959,-0.19787,0.053103,-0.090883,-0.061449,-0.0065708,-0.026298
-0.018054,-0.0066269,0.040901,-0.064094,0.099163,0.031253,0.017485,0.026403
0.040717,0.03313,-0.12589,-0.02765,-0.033979,0.052242,0.032662,-0.0077568
0.0048401,-0.0076256,-0.09509,0.069841,0.096744,0.017565,4.6392e-05,0.012296
0.031176,0.051978,0.33894,0.097092,0.00060352,-0.064326,-0.048781,0.0089596
-0.043726,-0.060141,-0.28179,-0.17863,-0.17239,-0.036455,-0.011844,-0.0016535
-0.00059732,0.0088856,0.36593,0.064459,0.055731,0.031532,0.048733,-0.0035535
0.020287,0.041361,-0.10622,0.0070509,0.053182,0.069782,0.00038145,-0.035626
0.0034394,-0.0011326,-0.079653,0.063552,0.046928,0.00031865,0.077537,0.058349
-0.012156,-0.032506,-0.09307,-0.17272,-0.1274,-0.10675,-0.11835,0.0047163
-0.011137,-0.0062237,0.11856,0.21115,0.15421,0.099615,0.092185,-0.024993
0.029541,0.037897,-0.032042,0.03379,-0.00038166,0.024943,-0.041085,8.8154e-05
-0.0077497,-0.0027333,-0.015365,-0.066073,0.00082824,-0.019028,-0.049541,-0.0063146
-0.0062303,-0.0042361,0.057409,-0.0042052,-0.023468,-0.032918,-0.003464,-0.020977
0.01036,0.016743,0.051936,-0.1177,-0.10569,-0.056124,0.011411,0.034173
-0.044061,-0.065548,-0.11091,-0.055331,-0.097856,-0.026118,0.011027,-0.051702
0.03366,0.021961,-0.1268,0.12872,0.14875,0.057462,0.042599,0.049735
-0.029736,-0.017553,0.20768,-0.087753,-0.060259,-0.00010398,-0.018622,-0.012828
0.023843,0.019472,-0.34108,0.0078527,0.081153,0.012777,-0.016306,-0.0048008
-0.00060697,0.00093059,0.32163,0.06566,-0.011538,0.049792,0.010355,0.011441
0.022184,0.037024,0.024814,0.04798,0.053513,0.0097345,0.037608,0.02809
-0.0013506,-0.012082,0.24562,0.32284,0.081821,-0.029158,-0.02873,-0.017457
-0.0086344,-0.02077,-0.32828,-0.4533,-0.2075,-0.020107,-0.0016086,-0.0081788
0.00030962,0.011308,-0.079946,0.086451,0.060481,-0.010214,0.024855,0.0010701
-0.013677,-0.025184,-0.033378,-0.1836,-0.067772,-0.077878,-0.090173,-0.021075
-0.027296,-0.0055163,-0.056576,0.087168,0.039921,0.073517,-0.0029741,-0.012146
0.013981,0.054161,0.17758,0.13206,0.093745,-0.0015686,0.0053133,-0.011154
0.039673,0.035962,0.31636,0.098334,-0.047715,0.024785,0.083307,0.044498
-0.02852,-0.084302,-0.39146,-0.18712,-0.018023,0.019562,0.043673,0.014274
0.012342,-0.0026393,-0.072051,0.047928,-0.02095,-0.033069,-0.074429,-0.0080417
-0.0019844,-0.00082424,0.42212,0.068062,0.044588,0.04639,0.049334,0.0087548
0.022093,0.014606,-0.29997,0.12259,0.076767,-0.046884,-0.045994,-0.037021
-0.032723,0.012381,0.16824,-0.22615,-0.15099,-0.039496,-0.040096,0.018523
0.0054127,0.0083657,-0.37534,-0.087086,-0.021275,0.0061267,0.0046053,-0.012284
-0.011873,-0.0047994,0.016289,-0.037239,0.044456,0.019846,0.025773,0.018865
0.001516,-0.0030667,0.15767,0.19058,0.077987,0.040961,0.01582,-0.0052803
-0.001062,-0.04824,0.19141,0.17626,0.056439,-0.039664,-0.025028,-0.037822
0.019727,0.079141,0.064373,-0.31287,-0.19156,-0.018715,0.0049505,0.030712
0.017277,0.020347,-0.074196,0.10728,0.060949,0.06486,0.019863,0.0051571
-0.031614,-0.13817,-0.40405,-0.054759,0.017354,0.015789,0.027434,0.010687
0.013855,0.064854,0.37081,0.17762,0.13875,0.029391,0.035284,0.00059885
-0.0024523,0.020109,-0.21201,-0.055528,-0.07479,-0.14431,-0.074008,-0.0093312
-0.010172,0.016463,0.22853,-0.036458,-0.17789,-0.059927,-0.089706,-0.034602
-0.0014954,0.0065764,0.018826,-0.094521,0.063898,0.12643,0.074018,0.03426
0.0078998,-0.033666,-0.092435,0.073792,0.1116,0.047746,0.018741,0.0020169
0.010101,0.019935,0.12851,-0.0090022,-0.026882,0.001049,0.064902,0.017156
-0.018478,-0.013116,-0.38058,-0.030932,4.993e-05,-0.0292,-0.045105,-0.037486
9.106e-05,0.022737,0.19394,0.093836,-0.026431,-0.066452,-0.076668,-0.0056659
0.0030644,-0.021413,-0.20088,-0.14224,-0.08312,0.029795,0.048555,0.011008
0.0057887,-0.052007,-0.03962,0.097308,0.15769,0.032752,0.033836,0.028068
0.023597,0.071687,0.64036,0.00059646,-0.1093,-0.050086,-0.034853,-0.032762
-0.029721,-0.056217,-0.19114,-0.025542,0.0058087,0.023078,-0.0091818,0.031442
0.0096858,0.033569,-0.06515,0.058369,0.08813,0.033073,0.0090328,-0.029559
-0.006726,0.021344,-0.1307,0.010335,-0.019336,0.00293,0.019416,0.0027396
0.0070126,-0.0063635,-0.17796,-0.099375,0.018798,0.0026434,0.044966,0.026563
0.012023,0.021248,0.080794,-0.067871,-0.00080005,-0.014815,-0.03192,0.010526
-0.038244,-0.020475,0.30059,0.21386,-0.21852,-0.080618,-0.055296,-0.04539
0.0050733,-0.037602,-0.16014,-0.082708,0.17101,0.094632,0.037237,0.015183
-0.013817,-0.069174,-0.04412,0.065485,-0.026462,-0.03537,-0.027622,-0.018438
0.046125,0.11124,-0.24217,-0.22464,0.00281,-0.016771,0.0083073,0.010357
0.013322,0.058064,0.13643,-0.0078679,0.033478,0.018382,0.012745,0.023842
-0.033972,-0.064983,0.54509,0.30961,-0.081929,-0.023004,-0.021536,-0.040113
-0.0020632,-0.01609,-0.46898,-0.13913,0.16497,0.062614,0.030982,0.029694
0.022893,0.016905,0.032107,0.13852,0.0086363,-0.037183,0.006574,0.0068052
-0.0063065,-0.020917,0.15036,-0.24749,-0.16844,-0.025809,-0.032176,0.0083301
-0.01191,-0.028083,-0.32466,-0.062119,0.015909,0.064871,0.047363,-0.020664
0.0057417,0.01889,0.076384,0.14843,0.068671,0.023079,0.010412,0.013212
-0.016111,0.034212,0.22899,0.009664,-0.034439,-0.034894,-0.041997,-0.015452
0.00051488,-0.028812,-0.26499,-0.032895,-0.03638,-0.055144,0.0067799,0.017969
0.016532,0.040901,0.1334,-0.0029326,0.070023,0.0165,-0.039009,-0.027428
-0.022678,-0.045649,0.064189,0.090997,-0.03602,-0.015431,0.015696,-0.0033456
0.008009,0.00056623,-0.020602,-0.088204,-0.057951,-0.025729,-0.0010136,-0.0035306
0.038416,0.085687,0.31511,0.20028,0.14471,0.079861,0.051662,0.019017
-0.025086,-0.071669,-0.43012,-0.13861,0.032919,0.012952,-0.021259,0.025439
0.02853,0.028409,-0.085528,-0.090168,-0.088387,-0.038253,-0.031862,-0.015279
-0.058481,-0.074997,0.19994,0.0093838,-0.093747,-0.041902,0.012469,-0.016972
0.026438,0.03233,-0.19065,-0.05046,0.025335,0.064915,0.018362,0.012739
0.0021064,0.030362,0.20464,-0.073307,-0.050619,-0.0066801,0.0095329,-0.0041222
0.0014164,-0.018042,-0.018912,0.31733,0.19489,0.024531,-0.0060498,0.0028574
-0.02242,-0.018789,0.077949,-0.15042,-0.065531,-0.036952,-0.020548,-0.0053255
0.00098331,-0.010698,-0.14371,-0.029951,-0.05794,-0.027337,-0.026247,-0.013026
0.040411,0.084421,-0.04973,0.14046,0.045918,0.021852,0.039151,0.026616
-0.021348,-0.022642,0.11069,-0.13906,-0.035457,-0.014607,-0.019949,-0.019268
0.0031194,-0.027539,-0.021672,0.029443,0.033287,0.011574,0.038303,0.0054805
0.0043011,0.022393,0.18555,-0.058153,0.0091339,0.014362,-0.0051943,-0.00082971
0.0054735,-0.029586,-0.29985,0.065613,0.00053506,-0.037564,-0.010139,0.0085205
-0.016947,-0.012013,0.075555,-0.038084,-0.087127,0.01977,-0.0080258,0.017739
-0.00055609,0.0358,0.13074,0.12966,0.073607,0.037787,-0.0067978,-0.012391
-0.00788,-0.065878,-0.11981,0.021336,0.083944,0.024117,-0.029891,-0.03512
0.00019022,0.05811,0.15123,-0.11308,-0.1108,-0.068321,0.02438,-0.0036431
0.01594,0.017454,-0.22836,-0.11668,-0.05718,0.0024834,0.02341,0.027336
-0.015203,-0.023386,0.054021,-0.019527,-0.028044,0.0020618,0.0065085,0.026607
0.016231,-0.024947,-0.032445,-0.10921,0.071027,0.024193,-0.0026544,-0.013564
0.0087234,0.013092,0.051875,0.31879,0.13127,-0.024706,-0.027331,-0.014939
-0.014308,0.012791,0.16684,0.10134,-0.034398,-0.0037293,-0.0049043,-0.0086314
0.0095608,0.02104,-0.046694,-0.10508,-0.089878,0.0015422,0.017798,0.0055067
-0.013528,-0.032627,-0.29196,0.011478,0.11319,0.03835,0.017325,-0.0036232
-0.0055566,-0.023498,0.25096,-0.15171,-0.12853,-0.025805,-0.022001,0.018805
0.033405,0.09495,0.19871,-0.064888,-0.088775,-0.0032083,0.016937,0.010404
-0.029465,-0.052616,-0.25384,0.18453,0.13847,0.0046565,-0.022174,-0.028758
-0.022233,-0.021118,-0.04434,-0.013971,0.013982,0.0055437,0.0012537,-0.0049138
0.039598,0.017506,-0.047433,-0.059455,0.022045,0.038334,0.016899,0.011582
-0.015688,-0.030372,0.144,0.032462,-0.040479,-0.045684,-0.014288,0.0050017
0.0073822,-0.01603,-0.20312,-0.12826,0.01393,-0.059343,-0.02198,-0.0013718
-0.0082549,0.014032,0.12363,0.068766,-0.12719,0.0048131,0.017248,-0.007735
0.0077734,0.036732,0.17251,0.08568,0.098677,0.076127,0.017405,0.01695
0.00075732,0.013248,-0.071103,-0.076367,0.011837,0.037107,0.017449,-0.0056342
-0.0059701,-0.032931,-0.12239,0.06788,0.049743,-0.010893,-0.014004,0.0024981
0.026483,0.062107,0.11999,0.1439,0.056087,-0.013243,0.016678,0.010049
-0.034903,-0.030078,0.045903,-0.27015,-0.18791,-0.063542,-0.031189,-0.029795
-0.0028374,-0.052068,-0.22873,0.051977,0.091257,0.0026651,-0.01693,-0.007488
0.020941,0.034827,0.075814,0.062784,-0.028115,0.014099,0.020567,0.006903
-0.018372,-0.066538,-0.24527,-0.035364,0.03238,-0.028533,-0.027801,0.0058364
0.027623,0.096853,0.71262,-0.1261,-0.21132,-0.06988,-0.036723,-0.01046
-0.028526,-0.076508,-0.4817,0.24292,0.21758,0.14833,0.080009,0.020639
0.032058,0.077637,0.053432,-0.10086,0.053526,0.07156,0.049114,0.036623
-0.032613,-0.049804,0.012661,0.021759,-0.023949,-0.019177,-0.027854,-0.0095256
0.012085,0.010242,-0.057175,0.055887,0.078561,-0.0619,-0.041684,-0.039916
-0.01327,0.00027461,0.06334,-0.17799,-0.21749,-0.11198,-0.039532,-0.015743
