-0.052063,-0.15814,-0.23581,-0.12277,-0.063458,-0.079986,-0.016091,-0.044133
0.070902,0.19327,0.12157,0.074072,0.042289,0.075462,0.030937,0.026327
0.0061327,0.17743,0.080883,0.054901,-0.019473,-0.051708,-0.062516,-0.0049986
-0.082274,-0.3385,-0.28696,-0.13273,-0.013804,-0.031935,0.015962,-0.044598
0.032299,0.012626,-0.042441,0.012623,0.021276,0.0098853,0.024018,0.024565
0.037467,0.22309,0.37229,0.12584,0.055932,0.050674,0.016141,0.030593
-0.11346,-0.48024,-0.29681,-0.22811,-0.12696,-0.049618,0.015584,-0.026381
0.025081,0.12976,-0.13974,-0.038881,-0.017981,-0.0090304,0.0066204,-0.0054583
0.17993,0.71005,0.54179,0.40668,0.12642,0.048172,-0.12009,0.031232
-0.18773,-0.7152,-0.43809,-0.27273,-0.067895,-0.041426,0.041891,-0.072149
0.062891,0.21408,0.23312,0.040623,0.047728,0.035135,0.024166,0.044149
0.08029,0.27959,0.31157,0.16653,0.074323,0.090565,0.038104,0.060075
-0.19031,-0.65127,-0.6042,-0.30284,-0.14558,-0.14863,-0.017413,-0.086775
0.063357,0.16354,0.19295,0.067603,0.0034354,-0.02649,-0.024844,0.0097448
0.10657,0.3172,0.027219,0.10302,0.074014,0.11273,0.023818,0.052459
-0.045494,-0.11323,-0.096984,0.011252,-0.021829,-0.04408,-0.035506,-0.021583
-0.0026712,0.050493,0.083596,0.023843,0.042314,0.018009,0.046945,0.013658
0.054947,0.17388,0.23982,0.10741,0.038762,0.0014451,-0.018328,0.0092355
-0.1307,-0.2759,-0.33102,-0.27038,-0.1578,-0.0084396,-0.013155,-0.066493
0.034088,0.0047317,0.16188,0.023442,0.015688,-0.043368,0.022769,0.01282
0.041708,0.093542,-0.14601,0.021503,0.060584,0.05261,0.018535,0.02842
-0.029331,-0.11827,-0.18912,0.015248,-0.06025,-0.040921,-0.065375,-0.019507
-0.022298,-0.12149,0.20722,-0.015836,0.0068866,0.0042511,0.036423,-0.01346
0.0085665,-0.0079821,0.052751,0.0014645,0.02175,0.032145,-0.019799,0.023484
0.063559,0.28667,0.13715,0.053848,0.032599,0.058809,0.0475,0.04478
-0.029141,-0.1502,-0.032568,0.0098166,0.04781,-0.048017,-0.011161,-0.019646
0.01933,0.17417,0.14323,0.072605,0.0045484,-0.045495,-0.038868,-0.013413
0.044504,0.2046,-0.0097653,0.10057,0.011073,-0.034488,-0.058354,-0.014618
-0.11037,-0.47426,-0.30618,-0.17373,-0.074867,0.032552,0.087246,-0.023302
0.054268,0.22174,0.073222,-0.018029,0.0027867,0.038983,0.0077126,0.038591
0.01469,0.072057,0.0037996,0.081388,0.039393,0.00074207,-0.023397,0.0069228
-0.10414,-0.43246,-0.37205,-0.2205,-0.10666,-0.043125,0.0406,-0.032434
0.010493,0.082531,0.065482,-0.049147,-0.029433,0.032003,-0.0038732,-0.0092186
0.085527,0.25772,0.10796,0.10357,0.052649,0.037906,0.014459,0.045269
-0.011395,-0.023459,0.21775,0.10566,0.031021,-0.034184,-0.053443,-0.02527
0.032629,0.060269,0.34756,0.12217,0.078598,0.033444,-0.012729,0.029115
-0.00088177,0.095845,0.057475,0.028983,0.024539,-0.017954,-0.027694,0.005263
-0.10401,-0.46269,-0.31269,-0.25147,-0.13031,-0.079651,0.011054,-0.05777
0.082557,0.3229,0.029587,0.11703,0.059925,0.035616,0.041232,0.027565
0.035259,0.18763,-0.075375,0.048642,0.017413,0.031197,0.0084677,0.019185
-0.089816,-0.35231,-0.29293,-0.15183,-0.070276,-0.037579,-0.016632,-0.051504
0.035349,0.14901,0.081572,0.047111,0.031167,0.017732,0.02081,0.026612
0.012295,0.04379,-0.1116,0.028722,0.0091021,0.026333,0.011466,0.019308
-0.057349,-0.26889,-0.061436,-0.1283,-0.058518,-0.0029292,0.017767,-0.010834
0.014036,0.031758,0.34057,0.10783,0.046851,-0.0067322,-0.038532,-0.0013397
0.054685,0.23486,0.13953,0.049899,0.012444,-0.015834,-0.024703,0.0085859
0.0099375,0.050849,0.011059,0.041533,0.025413,-0.030138,-0.034474,0.003069
-0.073429,-0.21682,-0.15361,-0.12886,-0.063116,0.035994,0.041683,-0.033832
0.069963,0.20343,0.11159,0.1157,0.066662,0.05693,0.016522,0.04599
0.025685,0.13743,0.098069,0.047181,0.031417,0.024006,-0.0081059,0.0078815
-0.13638,-0.52648,-0.30284,-0.21878,-0.14587,-0.11057,-0.0085314,-0.078019
0.098986,0.30354,0.096716,0.12116,0.081389,-0.0038823,0.015343,0.046071
0.020539,0.11081,-0.037802,0.019276,0.017774,0.01534,0.00875,0.013091
-0.04373,-0.1359,-0.054492,-0.016816,-0.016254,0.0249,0.02612,-0.012633
0.015634,0.0021083,0.076222,-0.017844,-0.0047132,-0.00647,-0.026679,0.0083174
-0.035457,-0.11359,-0.15242,-0.052947,-0.025213,-0.0004228,-0.025074,-0.025236
-0.040292,-0.13636,-0.010533,-0.058004,-0.030294,-0.003455,0.014929,-0.019206
0.064177,0.28838,0.12383,0.14066,0.058722,-0.02295,-0.047555,0.042262
0.0050563,-0.00078494,0.052738,-0.041247,0.01571,0.050863,0.03738,0.0029892
0.048425,0.13078,0.038682,0.10848,0.044069,0.022974,0.011996,0.02694
-0.0085353,-0.042778,0.10855,-0.011035,-0.02015,-0.04391,0.0093249,-0.01112
-0.064114,-0.1937,0.0064118,-0.06376,-0.044133,-0.0090255,-0.001563,-0.033377
-0.0011121,-0.010766,-0.20489,-0.065752,-0.020113,0.034002,0.003148,-0.0010662
0.07101,0.27765,0.13786,0.083735,0.036255,0.015027,-0.0073996,0.030911
-0.11353,-0.33828,-0.23257,-0.13197,-0.1016,-0.096963,-0.032838,-0.054712
0.015375,0.014561,-0.091479,0.0047428,0.027215,0.010829,0.0052633,0.0077522
0.074613,0.20961,0.239,0.188,0.11008,0.034012,0.013355,0.030967
-0.045568,-0.19962,0.0073162,-0.091128,-0.04084,-0.0037726,0.014936,-0.016117
0.029358,0.12986,-0.045634,-0.029011,-0.0042012,-0.00094142,-0.013533,-0.00052622
0.033232,0.010107,0.12602,0.053174,0.023947,0.089156,0.029245,0.030932
-0.018837,-0.012125,-0.1347,-0.048282,-0.011895,-0.038634,-0.0055656,0.0078943
0.036824,0.20398,0.17956,0.15864,0.082874,-0.0021329,-0.0090657,0.016152
-0.065558,-0.11445,-0.15007,-0.099169,-0.10623,-0.028583,-0.044234,-0.03823
-0.068009,-0.27898,-0.10766,-0.12549,-0.047957,-0.040445,0.036954,-0.038225
0.014322,-0.014894,0.034036,-0.028295,-0.0074057,-0.0068447,0.0076509,0.00047137
-0.0053543,-0.016008,-0.083372,-0.016815,-0.022693,-0.013831,-0.030711,-0.0080414
0.13157,0.43787,0.33035,0.21539,0.11833,0.12624,0.031279,0.084808
-0.042964,-0.14434,-0.083017,-0.033313,-0.012782,-0.047215,-0.0093246,-0.033294
-0.0050457,-0.06674,-0.0803,-0.012015,-0.00097294,-0.0024981,0.019646,-0.010602
-0.035792,0.02217,-0.0045468,-0.033009,-0.017538,-0.07507,-0.061136,-0.018854
0.020845,-0.11263,-0.05853,-0.034335,0.0078868,0.063608,0.061202,0.027942
0.0003328,0.05123,-0.046965,0.029718,0.0045319,-0.015869,-0.019245,-0.0030541
0.0035995,0.03591,0.060974,0.024767,0.0027917,0.030369,-0.0053421,-0.0025693
0.0065499,-0.0035999,0.061354,0.0038059,-0.0062191,-0.016487,-0.0063109,0.0058125
-0.0069954,0.0019575,0.038982,-0.011261,-0.0079562,-0.016023,-0.0065027,-0.0093137
-0.029577,-0.018442,0.01598,-0.052809,-0.011128,0.039263,0.040858,-0.009015
-0.014424,-0.018224,0.045741,0.011411,-0.0084918,-0.038465,-0.012866,-0.0089956
0.04641,0.080843,-0.17745,0.0017688,-0.00022823,0.055197,0.019573,0.0376
-0.034266,-0.15831,0.072412,0.012616,-0.0017727,-0.078356,-0.033954,-0.033255
0.0095624,0.054007,-0.189,-0.025376,-0.0048441,-0.017268,-0.040844,-0.0027396
0.022013,-0.00030045,0.038892,-0.001686,0.014609,0.066713,0.045653,0.035483
0.0033545,0.09338,0.15551,0.037891,0.018141,-0.013674,-0.0088779,-0.012255
0.00059829,0.030724,0.044742,0.023874,0.021885,-0.015956,-0.0012814,-0.013076
0.04501,0.054101,0.020071,0.089568,0.02618,0.021079,0.013824,0.025254
-0.050957,-0.12546,-0.042823,-0.10863,-0.070373,0.027333,0.0052666,-0.022234
-0.029528,-0.078144,-0.042009,-0.031781,-0.0021162,-0.028312,-0.0034461,-0.014891
-0.015669,-0.038064,-0.024242,-0.016077,-0.0034583,-0.020803,0.0033749,0.00042692
0.00638,0.042086,0.041734,0.00068057,0.01149,0.0029745,0.0023659,0.015923
0.052455,0.1394,-0.047193,0.041662,0.011445,0.019542,-0.014179,0.031605
-0.025647,-0.073746,-0.0018622,-0.010545,-0.019235,-0.018033,-0.022669,-0.022839
0.014444,-0.026713,-0.064286,0.0079123,0.0053564,0.0073754,0.016154,-0.0067905
0.00091623,0.077414,0.1329,-0.012579,-0.00079197,0.033204,0.016565,-0.0061917
-0.003823,-0.0038305,-0.019588,0.044871,0.032487,-0.042189,-0.021259,-0.0054204
-0.031279,-0.11475,-0.053151,-0.038843,-0.027842,-0.047034,-0.019102,-0.020104
0.090033,0.2752,0.16461,0.095277,0.075756,0.096647,0.062052,0.074746
-0.1091,-0.31909,-0.22635,-0.14685,-0.10232,-0.041029,-0.035814,-0.056842
0.0271,0.00015799,0.12462,0.039237,0.015802,0.008448,0.030691,0.0069416
0.006038,-0.0096918,-0.095951,-0.041805,-0.023148,0.0026346,-0.0045178,0.00037335
0.069623,0.35422,0.15792,0.13362,0.062045,0.027234,-0.024745,0.032709
-0.055684,-0.27539,-0.098838,-0.059119,-0.017587,-0.050728,-0.0148,-0.02117
-0.010411,0.046851,-0.022804,-0.025764,0.011594,-0.012549,0.0015773,-0.0051096
-0.020824,-0.007003,0.050186,-0.015695,-0.022008,0.032487,0.032081,-0.012903
-0.0083447,-0.046057,-0.058991,-0.012655,-0.024324,-0.024772,-0.024769,-0.013281
0.074446,0.1488,0.080342,0.077678,0.051836,0.050372,0.026603,0.048526
-0.053158,-0.16422,-0.069587,-0.041142,-0.035439,-0.038589,-0.032154,-0.030475
0.031174,0.085661,0.039515,0.037371,0.034364,0.0055676,0.018176,0.023311
-0.055083,-0.17147,-0.1457,-0.093014,-0.051156,-0.027824,-0.025075,-0.039964
0.063154,0.26002,0.16485,0.083139,0.028302,0.017637,0.010348,0.02983
0.057624,0.16156,0.14361,0.11234,0.069492,0.071647,0.030945,0.029648
-0.11106,-0.37315,-0.20169,-0.17775,-0.09187,-0.061227,-0.025691,-0.056109
-0.021465,-0.18033,-0.09829,-0.068959,-0.010761,0.017243,0.043515,0.0068995
0.028997,0.15347,0.054101,0.024056,0.015604,-0.0056799,-0.0037717,0.007647
0.016364,0.15077,0.074132,0.06158,0.002491,-0.044261,-0.042729,0.0084968
0.033909,0.17758,0.11622,0.10544,0.043307,0.018569,-0.018815,0.0092826
0.018769,0.076369,0.061475,0.030005,0.012761,0.018735,0.0054009,0.0098328
-0.021437,-0.16955,-0.12257,-0.032425,-0.0033868,0.034442,0.029931,-0.0056248
-0.055431,-0.26379,-0.17855,-0.082052,-0.052025,-0.066978,-0.038915,-0.044995
0.0030001,0.012791,0.019001,-0.063954,-0.0001434,0.02713,0.041101,0.016709
0.013743,0.0053104,0.0026921,0.0069959,-0.0035756,-0.0034239,0.0043394,0.0076801
0.0087325,0.14566,0.079199,0.030449,-0.0070466,0.005471,-0.016513,0.0061851
0.0043439,0.022404,0.01633,0.0078989,0.021358,0.014707,0.025185,0.0046002
0.00127,-0.0025176,0.0034779,0.018956,0.0041278,0.00071136,-0.011506,0.0031321
-0.015605,-0.083422,0.0027577,-0.02897,-0.0036199,-0.0054662,-0.0019071,-0.0058336
0.03989,0.14779,0.084687,0.059992,0.029512,0.003769,-0.00096379,0.016935
-0.035464,-0.11387,-0.071844,-0.019043,-0.029474,-0.03427,-0.016611,-0.03781
0.023552,0.11444,0.086253,0.061098,0.029864,0.020923,-0.0097374,0.0096913
-0.025909,-0.13848,-0.13055,-0.06832,-0.043196,-0.025989,-0.011379,-0.012432
0.041911,0.093123,0.041367,0.067423,0.055219,0.035985,0.025669,0.028555
-0.0081753,0.056235,-0.016731,-0.033445,-0.019394,-0.011788,-0.0075926,-0.0081362
-0.028418,-0.17357,-0.040003,-0.098841,-0.041017,0.018332,0.037604,0.010056
-0.011453,0.027027,-0.036159,0.034621,0.021365,-0.021962,-0.010389,0.0046966
-0.0042969,0.0090261,0.058219,-0.015762,-0.011817,0.01587,0.0047667,-0.016731
0.0088533,-0.039487,-0.060072,-0.030406,-0.015125,-0.016546,-0.0029095,0.0079794
0.044071,0.21901,0.21225,0.11704,0.019914,0.013633,-0.049183,0.0083147
-0.030825,-0.18975,-0.19355,-0.024987,0.015917,0.012665,0.022007,-0.023606
-0.027638,-0.044408,0.083095,-0.033134,-0.026447,-0.0507,-0.0082881,-0.017388
0.0074027,0.055989,0.027164,0.007779,0.018291,0.026668,0.023824,0.011562
0.035731,0.074457,0.0058529,0.043671,0.033135,-0.013029,0.0010291,0.016687
0.018565,0.043609,0.049915,0.019906,0.010179,0.041177,0.024817,0.013965
-0.028424,-0.051645,-0.26336,-0.063939,-0.043085,0.0018304,-0.045447,-0.011893
0.011787,0.014976,0.15098,0.041386,0.013526,-0.0060016,0.016856,0.017506
-0.0095554,-0.054364,-0.036188,-0.016557,-0.00012046,-0.021296,0.00090625,-0.014853
-0.022531,-0.034537,0.080499,-0.066721,-0.045307,-0.028331,-0.015006,-0.022966
-0.019729,-0.036618,-0.046589,-0.0082054,-0.020667,-0.027026,-0.015076,0.00094201
0.029737,0.031373,0.050696,0.033541,0.034688,0.060772,0.02429,0.0098592
-0.015064,-0.011948,-0.089018,-0.012057,0.011426,0.024053,0.01724,-0.0042456
0.033133,0.16787,0.11214,0.073617,0.034614,-0.012377,-0.012804,0.028658
0.010098,-0.024039,-0.041161,-0.0063732,-0.012903,-0.0097704,0.0043423,-0.0089307
0.040748,0.10701,0.01379,0.076099,0.04854,0.039303,0.0059537,0.023316
-0.078022,-0.27487,-0.12094,-0.085117,-0.054541,-0.04522,-0.016064,-0.038891
-0.025748,-0.059512,0.031959,-0.08351,-0.04091,-0.029245,0.00050536,-0.015972
0.025978,0.098333,0.11406,0.050149,0.027011,0.0089875,0.00075001,0.013994
-0.0162,-0.096208,-0.11579,-0.058443,-0.022448,0.014869,0.0079866,0.0043338
0.05911,0.21841,0.10122,0.075933,0.029791,0.012098,-0.0090227,0.010061
0.0023455,0.083213,0.047207,0.047883,0.012243,0.0010648,-0.0032557,-0.0074946
-0.037709,-0.21919,-0.13659,-0.079398,-0.027846,-0.0021646,0.009921,-0.0010702
-0.029611,-0.031981,-0.051421,-0.055531,-0.027725,-0.020622,-0.00041957,-0.0094226
0.034454,0.15228,0.09958,0.11943,0.043913,-0.0071359,-0.041762,0.006674
-0.0097748,-0.1207,-0.051137,-0.023764,0.015012,0.022803,0.042414,0.00032866
0.048264,0.17853,0.15982,0.076496,0.041422,0.022279,0.01008,0.033843
-0.018483,-0.077027,-0.096563,-0.073081,-0.041466,-0.0010912,-0.00593,-0.025944
-0.0074095,-0.053303,-0.00096876,-0.020459,-0.023288,-0.00071834,0.0098977,0.0080399
0.0029125,0.092157,0.023803,0.0069532,0.0017391,0.015295,0.0026652,0.010366
-0.034675,-0.1411,-0.10109,-0.04594,-0.013502,-0.062637,-0.027877,-0.034927
0.012577,0.083369,0.077086,0.055346,0.0091515,-0.015829,-0.011643,-0.0030238
-0.034854,-0.1862,-0.090193,-0.079223,-0.031548,-0.01607,-0.0034716,-0.018928
0.034313,0.020843,-0.016793,0.02002,0.044603,0.085288,0.027839,0.034713
0.03302,0.15178,0.12575,0.057213,0.019459,0.015064,0.012028,0.017557
-0.030486,0.03629,0.017456,-0.0058521,-0.043927,-0.054645,-0.035146,-0.015378
0.023823,0.050132,0.041408,0.018819,0.026707,0.016909,0.034927,0.0065371
-0.014805,-0.041307,-0.099123,-0.0015651,-0.01069,-0.0046614,-0.019757,-0.010201
0.0098948,0.049873,0.0021914,0.018486,0.023434,0.0054971,-0.0037379,0.0048724
-0.0037847,-0.10782,0.0095036,-0.015568,-0.0041188,0.00026237,0.0049473,0.0049339
-0.017035,-0.0007953,-0.0067035,-0.010915,-0.00015332,0.010588,0.0063068,-0.0022387
-0.0067283,-0.068366,-0.038343,-0.03092,-0.019973,-0.018498,-0.0075517,-0.0089309
-0.012238,-0.046176,-0.046018,-0.037119,-0.025076,-0.03253,-0.013353,-0.01528
0.036482,0.11213,0.064318,0.032769,0.031004,0.0465,0.02774,0.017622
0.037678,0.10209,0.019364,0.030486,0.030896,0.015465,0.013909,0.011488
-0.047807,-0.059791,0.084627,-0.020025,-0.048778,-0.039589,-0.031651,-0.018215
-0.0090241,-0.06754,-0.052789,0.0069406,-0.0046054,-0.0012872,0.0080612,0.0064894
-0.009924,-0.029089,0.051819,0.018376,0.023244,-0.0022146,-0.015484,0.0073444
0.0043676,0.025643,-0.078797,-0.016336,-0.0037555,0.028158,0.014927,0.007686
0.018448,0.042952,-0.078039,-0.0030318,-0.0069536,-0.011565,-0.0099415,-0.015979
-0.014349,-0.047002,-0.0087648,-0.027514,-0.0015573,0.011511,0.011709,-0.001146
0.046747,0.201,0.11336,0.12102,0.051742,-0.0041782,-0.013584,0.0053853
-0.048205,-0.19804,-0.00048791,-0.096864,-0.04233,0.0037892,0.023847,-0.011868
0.01326,0.044006,-0.060758,-0.001948,-0.0026818,-0.027206,-0.016374,0.0097877
0.004472,0.0042278,0.042501,-0.016608,-0.0093205,0.019902,0.0065451,-0.0075547
0.019041,0.041135,0.020797,0.022809,0.0076549,-0.011228,-0.016714,0.014436
-0.029094,-0.10357,-0.11759,0.0066781,0.02438,0.012181,0.015355,-0.0022067
0.00062417,0.015449,0.16669,0.0052561,-0.0063848,-0.0035962,0.0088397,-0.010525
-0.0011689,0.023665,-0.024659,0.018674,0.0010616,-0.0037924,-0.0052494,0.012909
-0.018759,-0.10152,-0.12136,-0.077789,-0.031471,0.0038901,0.0040607,-0.010135
0.0026814,0.093963,0.048358,0.036549,-0.010117,-0.0195,-0.026,-0.0095289
0.032054,0.064107,0.0077753,0.018317,0.018527,0.019869,0.0059115,0.022304
-0.016456,-0.02646,0.006782,-0.0071571,0.00015035,-0.018602,0.0059097,-0.016442
0.068158,0.18185,0.13127,0.061906,0.044537,0.060357,0.036462,0.045902
-0.065649,-0.25637,-0.22807,-0.086905,-0.051073,-0.048044,-0.050795,-0.040782
0.0039839,0.010158,0.069528,0.022946,0.018269,0.0076209,0.017746,-0.01086
0.011425,0.098313,0.071126,0.047593,0.033935,0.024086,0.0079529,0.01863
-0.051121,-0.11712,-0.07466,-0.059992,-0.050968,-0.045629,-0.0095876,-0.02235
0.019516,0.027842,0.085357,-0.0030947,-0.002217,-0.006267,-0.0033605,-0.00063959
0.004633,-0.029362,-0.1599,0.0071983,0.0080559,-0.0062738,-0.020036,-0.0018275
0.013606,-0.0076301,0.095409,-0.013626,0.00296,0.040306,0.034237,0.01341
0.022918,0.10825,0.061528,0.043659,0.0055692,-0.0071412,-0.020256,0.013926
0.0089469,0.036265,-0.020285,0.014816,0.038962,0.038862,0.042886,0.023066
-0.028575,-0.029375,0.028634,-0.045674,-0.045606,-0.056118,-0.018787,-0.014132
0.003799,0.011639,-0.058263,0.0104,0.0016501,0.028156,0.0053513,-0.004317
-0.019194,-0.052759,-0.055004,-0.0046644,-0.0068458,-0.013054,-0.017795,-0.026039
0.027292,0.12053,0.14773,0.057445,0.014924,-4.4458e-05,-0.018101,0.014099
-0.012981,-0.15587,-0.082249,-0.04545,0.012512,0.020431,0.012196,-0.0012826
-0.01482,-0.037183,-0.10303,0.0071471,-0.02152,-0.05296,-0.028361,-0.025298
-0.016937,-0.099602,0.040349,-0.05783,-0.0085882,0.022292,0.047954,0.020391
0.027992,0.13595,0.053144,0.010147,0.0049128,-0.0034556,-0.0085628,-0.0044784
0.0032451,0.00028006,-0.046953,0.00074615,-0.011843,0.010743,-0.0023069,0.009903
0.034213,0.1754,0.077631,0.11768,0.050821,0.018221,-0.0033609,0.017068
-0.027294,-0.087182,0.021538,-0.060483,-0.017909,-0.012232,0.0040232,-0.021746
-0.017158,-0.076151,-0.051224,-0.03351,-0.0071672,-0.0026471,0.0042206,0.002961
0.001976,0.027937,0.030173,-0.0045859,-0.0031506,0.0075824,-0.010694,0.0051832
0.0063389,-0.026933,-0.0096378,-0.0053223,0.0015452,0.018002,0.021586,0.0081002
-0.020169,-0.079578,-0.12635,-0.028554,-0.032642,-0.042193,-0.039796,-0.027753
0.054706,0.18698,0.13808,0.096717,0.050012,0.037492,0.031501,0.037765
-0.035228,-0.01963,-0.031631,-0.0055185,-0.024418,-0.032317,-0.014695,-0.030202
0.014222,-0.0068204,0.096535,-0.023766,0.0092979,-0.017369,0.0090225,0.0023163
-0.00041401,0.067448,-0.072712,0.0098851,0.0024692,-0.0035282,-0.022355,0.0022483
-0.0011386,-0.1331,-0.024235,-0.014453,0.0018876,0.064148,0.016248,0.016405
-0.026899,-0.1386,-0.077658,-0.049975,-0.015786,0.014171,0.023402,-0.001942
-0.0070346,0.0064952,0.042252,-0.010323,-0.01122,-0.051447,-0.024156,-0.013382
-0.0035217,-0.061755,-0.021209,0.011612,0.00036168,-0.0307,-0.0012526,-0.0096009
0.023306,0.19132,0.063225,0.079496,0.042876,-0.016969,-0.017108,-0.0056421
0.0037136,0.12021,-0.013815,-0.039769,-0.039439,0.068107,0.022135,-0.00093981
0.016276,-0.015402,-0.030937,-0.032503,0.011661,0.013655,0.014958,0.012767
0.030004,0.058476,0.052688,0.055311,0.024621,-0.0085607,-0.015221,0.020102
-0.033169,-0.0025753,0.058031,-0.0024153,-0.016009,0.0090255,0.0018391,0.0054334
-0.024929,-0.22355,-0.046637,-0.033812,-0.016463,-0.027651,0.0035311,-0.008054
-0.023642,-0.028238,-0.012769,-0.031532,-0.015935,-0.025134,-0.010254,-0.0051866
0.025081,0.019056,-0.014349,0.04265,0.032191,0.024194,0.0072734,-0.0021422
0.027191,0.073281,0.040012,0.062677,0.010388,0.0030923,-0.0064351,0.00053886
-0.0097585,0.0087852,-0.039394,-0.027226,-0.0035932,-0.041481,-0.012323,-0.0053764
-2.4142e-05,-0.0025889,-0.043351,-0.040477,-0.017917,0.015649,0.0052578,-0.012298
0.0015876,-0.022937,-0.019759,-0.0089015,0.021834,0.04967,0.030706,0.011031
-0.020593,0.018641,0.038916,-0.01855,-0.032919,-0.033053,-0.029727,-0.021108
0.0037624,0.021108,0.054929,0.024694,0.0053303,0.0096477,0.011409,0.01665
-0.019043,-0.077769,-0.095881,-0.019021,0.0039272,-0.0021024,-0.0022425,-0.008087
0.03605,0.22193,0.14223,0.038819,0.010019,0.0094886,-0.023968,0.022246
0.0050186,-0.18957,-0.089092,-0.050747,0.00050051,0.020563,0.055419,0.021969
0.012867,0.10119,0.031303,0.049061,-0.00085983,-0.055231,-0.029888,-0.016634
-0.034184,-0.17204,-0.066392,-0.020673,-0.017237,0.031791,0.016864,-0.015507
0.012262,0.1153,0.094554,0.013461,0.0062037,0.015874,0.0003413,0.017344
-0.0040726,0.041195,-0.032858,0.041571,0.022592,-0.048196,-0.040283,-0.03553
-0.02849,-0.15976,-0.050505,-0.01537,-0.0072714,-0.0038501,-0.0032102,0.0052879
0.040638,0.14584,0.049057,-0.0022028,0.0023078,0.024392,0.010321,0.022382
-0.023138,-0.09588,-8.6099e-05,-0.05278,-0.011467,-0.01762,0.00064665,-0.0078412
0.0068981,0.030058,-0.018335,0.0040272,0.005816,0.0033965,-0.00072255,0.00047904
0.013727,0.047932,0.0023068,0.019509,0.0070911,0.025234,0.029755,0.00046608
0.02095,0.083376,0.046687,0.056454,0.0079325,0.0245,-0.0017662,-1.0966e-05
-0.041604,-0.12888,-0.10324,-0.056193,-0.03843,-0.0068303,-0.0018192,-0.00085696
-0.0097669,-0.026294,0.045545,-0.067235,-0.014569,-0.02229,0.021381,-0.0019575
0.01495,0.055005,0.0094218,-0.02222,0.0095117,0.0010615,-0.0107,0.004618
0.016905,0.052118,0.0076544,0.072198,0.034107,0.023717,-0.012416,0.011168
-0.027436,-0.097968,-0.12374,0.013587,-0.018725,-0.040534,-0.046332,-0.013459
-0.0010734,-0.044252,0.099135,0.028529,0.015085,-0.019838,0.012758,-0.014491
0.033223,0.10333,0.097131,0.053813,0.018158,0.00011592,0.0012495,0.015952
0.0048145,0.023927,0.07191,0.0099846,0.021387,-0.0036467,-0.0099305,-0.00020598
0.04618,0.13115,0.099954,0.082873,0.039963,0.047576,0.018912,0.015187
-0.13203,-0.37225,-0.46867,-0.32292,-0.18434,0.029351,0.049214,-0.039432
0.040301,0.115,0.068096,0.056936,0.05131,-0.010999,0.0031084,0.023404
0.047497,0.1943,0.17079,0.081157,0.043664,-0.010725,-0.017887,0.02394
-0.024432,-0.095407,0.0036987,-0.015868,0.011511,-0.032309,-0.006286,-0.030116
-0.011245,-0.04324,-0.10428,0.016483,-0.005932,-0.036899,-0.04857,-0.0060863
0.016971,0.07732,0.13692,0.062033,0.022782,0.029774,0.010857,0.0099293
-0.01769,-0.09314,-0.060768,-0.042136,-0.019364,0.026497,0.015079,-0.0056841
-0.0056972,-0.01559,-0.07165,-0.068435,-0.038511,-0.0083704,0.018202,0.0093951
0.045195,0.067763,0.15927,0.093253,0.059119,0.033803,0.011977,0.015946
0.0021346,0.094435,0.0068923,0.029241,-0.0077449,0.019529,-0.027274,0.0060476
-0.056856,-0.21673,-0.11508,-0.080744,-0.051631,-0.059498,-0.0058272,-0.051578
0.024371,0.072003,0.082025,0.028745,0.044677,-0.00033996,0.021827,0.01503
0.058294,0.15641,-0.034748,0.068423,0.039134,0.0018856,-0.022041,0.034212
-0.025264,0.021624,-0.019765,-0.039917,-0.021084,0.010278,0.011561,-0.0014947
-0.054081,-0.17496,-0.067447,-0.10078,-0.07301,-0.044534,-0.001713,-0.029132
-0.011978,-0.0412,-0.082625,-0.012088,0.0011423,0.026095,0.016931,-0.009114
-0.0076228,-0.012839,0.13175,-0.0074732,-0.008929,-0.011054,-0.025652,-0.0034226
0.037847,0.06038,0.069617,0.1014,0.053577,-0.0065782,-0.035256,0.011812
0.023485,0.039377,0.013623,0.033982,0.040554,0.086986,0.058672,0.029041
-0.011307,-0.043673,-0.058892,-0.029707,-0.024551,-0.019315,-0.0016989,-0.014204
0.02717,0.155,0.062972,0.035179,0.021966,0.010067,0.0099072,0.014657
-0.041261,-0.20942,-0.13729,-0.092362,-0.047146,-0.060052,-0.0085871,-0.025481
0.0012557,0.13441,0.026164,0.016199,-0.014062,-0.019808,-0.026601,-0.0024805
-0.026152,-0.13676,-0.042615,-0.039047,-0.012616,0.0046411,0.0020196,-0.010867
0.093955,0.24711,0.15386,0.12313,0.073411,0.074734,0.021925,0.057967
