0.018405,0.03848,0.014675,0.065822,0.048973,0.14896,0.09109,0.0058037
-0.0053646,-0.068228,0.15532,-0.13501,-0.023327,-0.066614,-0.0038374,-0.0032447
0.0095915,0.04409,-0.22595,-0.17249,-0.073091,-0.047058,-0.035457,0.010554
-0.014733,0.10985,0.39702,0.085293,0.047356,-0.01947,-0.081562,-0.030677
-0.046862,-0.26141,-0.99037,-0.37779,-0.068718,-0.015596,0.0065981,-0.03276
-0.0318,-0.038163,0.59641,0.21162,-0.022968,0.026676,0.057306,-0.018594
0.062018,0.1314,0.14053,0.5647,0.044292,0.021152,0.11731,0.059227
0.016076,0.0052059,-0.67485,-0.41973,-0.030384,0.0067635,-0.079529,0.0057825
0.041385,0.075209,-0.10257,0.039885,0.042831,-0.024339,0.020635,0.024326
-0.026257,-0.0029662,-0.31187,-0.18128,0.0068473,0.0059893,-0.012972,0.0052863
-0.03094,0.019678,0.45142,0.088599,0.057504,0.011872,-0.064262,-0.036219
0.026845,0.087244,0.65855,0.28684,-0.00026183,0.040283,0.10026,0.016264
-0.064385,-0.27799,0.69952,-0.33679,-0.072727,-0.018006,-0.019867,-0.033401
0.030803,-0.0065494,-0.15521,0.13939,-0.011682,-0.1159,-0.15889,0.024978
0.022971,0.12001,-0.10323,-0.089247,0.0028662,0.098473,0.10577,0.0033696
-0.002126,0.062951,-0.44603,0.14175,0.0018631,0.0082905,0.025276,-0.0125
0.010244,-0.15338,-0.45069,-0.041807,0.024163,-0.057911,-0.055171,-0.0068614
-0.017761,0.15208,-0.13409,0.072252,0.014999,0.064327,0.061184,-0.018309
0.0081081,0.035661,-0.19732,-0.20203,-0.033394,-0.046547,-0.030728,0.016354
-0.036479,-0.17281,-0.040562,-0.0036451,-0.011502,0.031545,0.013555,-0.003646
0.036731,0.10633,0.1023,-0.096852,0.018356,0.025218,0.045724,0.016164
-0.021522,-0.055373,0.26146,0.16751,0.0016591,-0.057827,0.0028319,0.0059957
0.00029561,0.038102,0.50767,0.15632,0.055711,0.047768,-0.061344,0.012961
-0.0068421,-0.027196,-0.083871,-0.12411,-0.053828,-0.072462,0.023891,-0.0020781
0.027388,0.076288,-0.41376,-0.0045591,0.0089428,0.010663,-0.016136,-0.00040194
0.01669,-0.12145,0.41296,0.011518,-0.068575,0.038749,0.012808,0.0018473
-0.008386,0.010557,0.32122,0.32675,0.072867,0.0033827,-0.054124,-0.01934
-0.017534,0.055962,-0.19315,-0.20254,0.011272,0.0055787,-0.037659,-0.048855
0.019459,0.0045178,0.057096,-0.36713,-0.042516,0.060561,0.085591,0.022295
-0.015546,0.049297,-0.20161,-0.010686,0.03648,-0.042751,0.01121,-0.0014137
-0.013869,0.071476,-0.59836,0.079802,0.029573,-0.015085,0.05223,0.044035
0.063251,0.13293,0.39273,0.40031,0.0072443,-0.066775,-0.0093487,0.025924
-0.10434,-0.46881,-0.83548,-0.20832,-0.13962,-0.040622,-0.024141,-0.032097
0.038649,0.080833,0.51507,-0.18625,0.042402,0.095765,0.016788,0.026536
-0.014645,0.027274,0.26246,0.080441,0.014499,-0.015883,-0.088451,-0.039954
0.010342,-0.0083955,0.030405,0.087084,0.018941,0.00023281,-0.073018,-0.027951
0.044395,0.14171,0.04945,0.045782,-0.014772,-0.043123,-0.068759,-0.015045
-0.028805,-0.035091,-0.2209,0.033624,0.12379,0.10364,0.16695,0.046139
0.017788,-0.0061924,0.74219,-0.093122,-0.05835,0.11135,0.12597,-0.00026881
-0.03456,-0.014403,0.095355,0.13741,0.0003614,-0.13875,-0.013255,0.0021345
0.0012066,0.10172,-0.46309,-0.27252,-0.091606,-0.10934,-0.15906,-0.024912
0.077399,0.14266,0.24727,0.15596,0.00884,0.010465,0.24846,0.066584
0.01331,-0.091923,-0.77962,0.14479,0.067095,0.13362,-0.13714,0.0024856
-0.067089,-0.13038,0.42308,-0.13714,0.013138,0.064425,-0.060242,-0.038369
-0.070896,-0.10931,-0.19512,-0.11272,-0.097538,-0.18097,-0.13149,-0.033389
0.024802,-0.022845,-0.24832,-0.015231,0.080031,0.039444,0.086589,0.024543
0.032364,0.043372,-0.39185,-0.044966,-0.093348,-0.045685,0.087463,0.017816
-0.0089349,0.068395,0.48808,0.036401,0.094669,0.058313,-0.079669,-0.053656
0.0029355,0.11113,0.27918,0.13154,-0.057909,-0.0054783,0.017845,-0.0099381
0.052943,-0.096631,0.49188,0.02536,0.082381,-0.0085127,0.039308,0.063543
-0.014566,-0.033941,-0.086394,-0.037465,-0.0078571,-0.012181,-0.028315,0.0033995
-0.019395,-0.047784,0.092407,-0.048166,-0.14951,-0.016517,0.011958,-0.0099656
0.015408,-0.041312,-0.18584,0.39124,0.17977,0.16474,0.05122,0.0084758
-0.027083,0.36161,-0.26299,-0.30663,0.025462,-0.0019668,-0.036325,-0.026702
-0.029512,-0.20716,-0.20811,0.028377,0.026765,-0.066463,-0.033812,-0.02142
0.031652,0.030736,-0.17503,-0.050418,-0.1847,-0.086549,0.14991,0.04789
0.023642,0.063237,-0.041804,-0.29348,-0.070601,0.099154,-0.042656,-0.0063265
-0.014482,-0.15365,0.081623,0.057586,0.0016763,-0.01113,-0.074902,-0.020218
0.0266,0.0080884,0.3059,0.21511,0.19651,-0.22267,-0.081284,0.029327
-0.064178,-0.096129,0.14854,-0.19425,-0.063562,0.07459,-0.062319,-0.045585
-0.013593,0.015482,-0.10794,0.088612,0.042588,0.069827,0.11549,0.012446
0.02179,0.12322,0.19242,0.31402,0.054799,0.077862,-0.01492,0.007715
0.057178,0.040323,-0.18692,0.1921,-0.065368,-0.039486,0.12696,0.025828
0.037405,0.13623,0.37533,-0.16182,-0.090936,0.016777,-0.042251,-0.0037723
-0.077072,-0.18715,-0.39085,-0.35942,-0.068577,0.052803,-0.059302,-0.042155
-0.0053765,-0.11304,-0.33323,-0.0044534,0.1736,-0.086996,-0.094443,0.059113
0.025768,0.058423,-0.024702,-0.14519,0.01825,0.081644,0.063937,-0.059219
0.024309,-0.0357,0.15928,0.20241,-0.10524,-0.1373,0.056048,0.0093402
-0.024911,0.076628,0.56448,0.10935,0.060521,0.044178,0.05231,0.038541
-0.082088,-0.23563,-0.46888,-0.17293,-0.016172,0.046814,-0.035469,-0.057217
0.01773,0.44145,0.23725,0.17752,-0.031084,-0.013192,0.047875,0.011428
0.0097504,0.027587,-0.020773,0.15435,0.07012,-0.019333,0.034184,0.04937
0.027342,-0.27799,-0.12607,-0.14,-0.048691,-0.034403,-0.17218,-0.013615
0.054969,0.027455,-0.50948,-0.15064,0.02656,0.074484,0.029481,-0.0056884
-0.0015899,-0.0067756,0.13054,0.11425,-0.00077212,-0.090751,-0.11043,0.010526
0.044171,0.29424,0.30339,-0.072724,-0.11465,0.056338,0.17528,0.0036205
-0.066902,-0.0024654,0.15529,-0.017233,0.0057537,-0.014986,-0.1735,-0.042161
-0.031537,-0.65594,0.20347,0.084479,0.1969,0.0941,0.1194,0.013743
-0.0071678,0.23325,0.14147,0.13016,-0.12674,-0.03029,0.09552,-0.055218
0.068012,0.12901,-0.37038,-0.091471,0.097597,-0.1304,-0.063733,0.1182
-0.079476,-0.12854,-0.015537,-0.27573,-0.044115,0.074784,0.017251,-0.051902
-0.02713,0.1916,0.13395,0.11673,-0.067622,0.0067581,-0.052741,-0.049947
0.015286,-0.039691,-0.31043,0.031583,-0.035684,0.079196,0.13091,-0.0011356
0.0102,0.023505,-0.23236,0.086309,0.0044808,-0.067602,-0.106,0.039475
0.045075,0.068995,-0.096591,0.18719,0.15403,0.019314,-0.0081818,0.063564
0.082144,0.1188,0.25327,-0.064484,-0.064025,-0.058494,0.086197,0.039334
-0.033968,0.061037,0.13997,-0.23951,-0.11889,-0.074309,-0.13686,-0.025836
-0.084135,-0.0445,0.27719,-0.025892,0.082783,0.034596,-0.006003,-0.093037
0.017483,-0.31694,0.017788,0.083853,0.079774,0.088709,-0.0050698,-0.05264
-0.010824,-0.1943,-0.12398,0.0038652,-0.049856,-0.052579,-0.07798,-0.013326
0.049005,-0.081691,0.27703,0.32847,0.13166,0.25117,0.27721,0.072822
-0.03037,0.078014,-0.48201,-0.29279,-0.15627,-0.20352,-0.1015,0.0038644
-0.015331,0.45962,-0.0046652,-0.13965,-0.10789,-0.010771,0.022114,0.038681
-0.0081076,0.034355,-0.11473,-0.015048,-0.026563,-0.053592,-0.085055,0.0061035
0.006376,-0.10283,0.043011,0.059211,0.089074,0.019686,0.015068,-0.039005
0.019874,0.11789,0.23766,0.15462,0.052568,-0.0091934,-0.076119,0.02015
0.024244,-0.24307,-0.3006,0.044971,-0.0028476,0.016849,0.20308,0.026438
-0.0041915,0.022095,0.27585,-0.15318,0.063024,0.020692,-0.047007,-0.013501
-0.026508,-0.035306,0.080683,0.019447,0.014515,0.0032994,-0.093442,-0.022757
0.011971,0.22259,0.22033,0.17765,0.005916,-0.026825,0.054641,-0.002333
0.0020202,-0.26814,-0.4166,-0.10315,-0.019694,0.055568,-0.041225,-0.015315
0.0064763,0.12562,0.18482,0.073011,-0.0096599,0.023636,0.063827,0.00072333
-0.028827,-0.14879,-0.2089,-0.022109,-0.13724,-0.068711,-0.1457,-0.02411
-0.0094753,-0.0099606,-0.040485,-0.34999,-0.090388,-0.0038641,0.018292,0.0047099
0.010572,-0.07908,-0.18094,0.06665,0.14707,0.068441,0.017654,-0.02128
0.00073828,0.12376,0.36678,0.15926,0.02181,0.053241,0.18144,0.047162
-0.030666,0.022423,-0.0096815,0.008312,-0.019042,-0.16757,-0.09898,0.01522
0.018136,0.16378,-0.071932,0.06925,0.049793,-0.00070186,-0.018566,0.078294
0.14702,0.51446,0.10433,-0.0077732,0.03448,-0.07115,-0.0070654,0.025153
-0.066327,-0.46852,0.10551,0.059205,-0.0094454,0.18403,0.08353,-0.09785
-0.11478,-0.50874,-0.27308,-0.15211,-0.066224,0.085847,-0.013071,-0.080306
0.071181,0.26404,0.1841,0.04437,-0.019167,-0.21645,-0.18822,0.08528
-0.056069,0.041444,-0.31629,0.045097,0.11518,0.12944,0.096489,-0.06981
0.034114,0.048151,0.36183,0.051147,-0.05489,-0.047815,0.0046516,0.0095037
0.0054057,-0.067142,0.011289,-0.048386,-0.022489,-0.068199,0.01256,0.019162
-0.025159,0.112,-0.1676,-0.058723,-0.085084,0.044949,-0.0048726,-0.047998
0.051863,0.089718,0.21464,0.11462,0.069695,0.16656,0.046162,0.08188
0.017976,-0.034948,-0.3491,-0.15919,0.0046588,-0.078529,0.064281,0.0025363
0.014208,-0.084413,-0.1065,-0.21322,-0.013946,-0.049829,-0.0674,0.033759
-0.10736,-0.47529,0.016086,0.080686,-0.055706,-0.16927,-0.043748,0.03395
-0.00239,0.17922,-0.0091103,0.014197,0.10656,-0.014937,-0.09853,0.0097119
0.095353,0.54516,0.31287,0.33085,0.03568,0.17893,0.10493,0.01458
-0.040141,-0.018533,0.57714,0.29587,0.051946,0.26404,0.090881,-0.24131
-0.033463,-0.053828,-0.49005,-0.38982,-0.1497,-0.25954,-0.24931,-0.047264
0.029642,-0.15934,-0.25761,-0.13599,-0.03077,-0.094911,0.27244,0.14392
0.00065893,-0.044214,0.26413,0.1626,0.064322,0.062607,-0.023266,0.043949
0.012038,-0.019208,-0.42734,-0.083708,-0.02904,0.03332,-0.019263,-0.0024401
0.0084938,-0.01134,0.072474,-0.025831,0.079429,-0.0030374,-0.18466,0.036901
0.036161,0.061907,0.38021,-0.008191,-0.079083,-0.077625,0.065852,0.068857
-0.03852,-0.24608,-0.37836,-0.11544,0.042532,0.083091,-0.0029509,-0.078158
-0.036471,0.20615,0.15024,0.0069473,-0.023986,-0.059915,0.076727,0.017731
-0.020548,0.17114,0.42175,0.16763,-0.0045326,0.094845,0.17112,-0.14363
0.0092165,-0.25365,-0.31885,-0.12925,0.031318,-0.015351,-0.12681,0.04698
0.045293,0.24838,-0.35819,0.19004,-0.040749,0.015387,-0.059781,0.058276
0.0022752,-0.29554,0.31309,0.12752,0.061025,-0.09465,-0.096624,0.01538
-0.0019812,0.00034906,-0.21105,-0.23844,-0.11625,0.036858,0.02861,-0.050207
-0.013675,0.27055,-0.15847,-0.065633,0.075739,-0.082745,-0.1053,0.010241
-0.040056,-0.062673,0.72582,0.10393,0.042787,0.15551,0.22899,-0.0218
0.028607,0.20304,0.16444,0.078976,0.0028702,-0.061189,0.024282,0.033418
0.028348,-0.30097,-0.40162,-0.042766,-0.0058991,0.0012948,-0.094139,0.12886
-0.0019421,0.064284,-0.12446,-0.030069,-0.10949,-0.08685,0.12354,-0.13429
0.023292,-0.054023,0.15009,0.15429,0.097546,0.15874,-0.0967,-0.04564
0.0098006,0.038917,-0.5934,-0.30234,0.028793,0.0038469,-0.036944,0.066063
-0.050729,-0.078432,-0.016465,-0.085918,-0.073611,-0.15277,-0.049565,-0.049763
-0.064934,-0.33478,0.39298,0.025207,0.0016663,0.056605,0.13832,0.051748
0.029482,0.39603,-0.071001,0.18309,-0.010238,-9.7279e-05,-0.11399,-0.012448
0.045011,0.14607,0.33818,0.086539,0.016642,0.06862,0.084597,0.038934
-0.010384,-0.014347,0.068567,-0.074289,-0.11987,-0.080073,0.024178,-0.02816
0.035401,0.038754,-0.25438,0.076839,0.15907,-0.0078407,-0.13754,0.021238
-0.020523,-0.071541,0.28154,0.086439,0.080318,-0.042205,-0.00046324,-0.069886
-0.021721,-0.14451,-0.45227,-0.20351,-0.10632,0.043652,-0.055212,-0.066262
0.024094,0.036268,0.19602,0.087108,0.020426,0.14019,0.19158,0.072006
-0.015869,0.016015,-0.12937,0.025607,0.05348,-0.065668,0.060759,0.017393
0.0067905,-0.080862,0.029412,-0.14066,-0.0079614,0.073654,-0.057244,0.11388
-0.0017454,0.082223,0.05378,-0.069735,-0.14098,-0.12252,0.02415,-0.084054
-0.018109,-0.12576,-0.11828,-0.043607,-0.017496,-0.092606,-0.13401,0.032354
-0.0032909,0.11025,0.32008,0.25056,-0.043321,-0.040405,-0.064726,-0.037781
0.058302,0.12904,-0.61216,-0.16263,0.22771,0.080584,0.011511,-0.021995
-0.067719,-0.16053,0.44819,0.21845,-0.039308,0.25466,0.13221,-0.030536
0.032704,0.14969,0.10633,0.098673,-0.046526,-0.21333,-0.0084696,-0.017156
0.0079978,-0.15041,-0.11933,-0.45005,-0.074534,0.10661,0.2138,0.08814
-0.032478,0.040365,0.39005,0.33133,0.087787,-0.1367,-0.33389,-0.058413
0.028439,-0.013905,-0.66205,-0.16577,0.025999,0.0024421,0.091162,0.035596
-0.035834,-0.12044,0.067318,-0.097299,-0.065493,-0.045946,-0.072477,0.01897
0.087205,0.26449,0.3655,0.20061,0.0072906,-0.00042416,-0.081164,0.032754
-0.024273,0.020413,-0.45735,0.055407,0.055291,0.24056,0.26984,-0.086706
-0.065464,-0.058624,0.3852,-0.11988,-0.040237,-0.08106,-0.057046,-0.0031319
-0.028367,-0.068225,0.062302,-0.029647,-0.022779,-0.035994,-0.076382,-0.0053331
0.024765,-0.00099456,-0.44412,-0.018937,-0.025973,-0.085641,-0.053338,0.070896
0.062951,-0.12135,0.47337,0.23932,0.075008,0.082159,0.15247,-0.05566
0.039553,0.065611,-0.17077,-0.0054812,0.069781,-0.024856,-0.045758,0.10712
-0.084334,-0.2176,0.021764,-0.35486,-0.1185,-0.062656,-0.032178,-0.11277
-0.011783,0.20499,-0.04964,0.19973,0.043273,0.1022,0.019805,-0.027995
0.030576,0.11042,0.023278,-0.11387,-0.098929,-0.11536,0.015013,0.064457
-0.0043141,-0.053615,-0.27232,-0.08308,-0.19913,-0.0034606,-0.024155,0.016082
0.016071,0.19797,0.137,0.12174,0.32265,0.14182,-0.020022,0.0066021
-0.049262,-0.10462,0.17591,0.24387,0.092535,-0.077492,-0.081735,-0.057604
0.025824,-0.034127,-0.22399,-0.13824,-0.09242,0.049562,0.033743,0.011177
0.045579,0.046839,0.27377,0.15461,0.063851,0.014744,0.062085,-0.00555
-0.068519,-0.27122,-0.10531,-0.34748,-0.22931,-0.088971,-0.0030225,-0.0059716
0.073862,0.10284,0.28472,0.26022,0.1901,0.089041,0.027362,0.041349
-0.0039583,0.034747,-0.29394,-0.062839,0.015347,0.040083,0.10754,0.019303
-0.044061,-0.053808,-0.0089315,-0.20838,-0.14587,-0.13493,-0.12891,-0.033092
-0.0070288,0.10375,0.23831,0.159,0.02577,-0.076905,-0.056646,0.024631
-0.040729,-0.068979,-0.55393,-0.27312,-0.13403,-0.027982,-0.089824,-0.026505
0.011784,-0.0075376,0.051721,0.31613,0.11741,0.15277,0.24763,-0.030497
0.041822,0.086677,0.27548,0.22442,0.14819,0.12981,-0.13105,0.020243
0.03428,0.089751,0.16684,-0.19585,-0.056208,-0.041859,0.023023,0.023968
-0.034048,-0.13089,-0.20072,-0.14709,-0.057325,-0.13552,-0.0415,-0.042905
0.024201,-0.02119,-0.24601,0.050922,-0.0029851,0.036303,0.11144,0.030431
-0.018029,0.050374,0.44744,-0.062416,-0.0023813,0.0047523,-0.10553,0.0094531
0.002552,0.027447,-0.14238,0.04431,0.11614,0.035316,0.02514,0.0033559
-0.00872,-0.029137,0.17243,0.11331,-0.03856,-0.10645,0.080735,-0.011512
-0.013672,-0.12069,0.063404,-0.074274,-0.068647,0.024807,-0.0093319,-0.011933
0.018241,0.095837,-0.31395,0.12984,-0.14653,0.04642,-0.072789,0.017531
0.0084975,0.050203,-0.054115,-0.14169,0.15715,-0.0023169,-0.046038,0.0064754
-0.027284,0.0010444,-0.27479,-0.01396,0.014237,0.082007,0.072622,-0.045046
-0.010586,-0.15175,0.23463,-0.041639,0.034359,-0.051847,-0.17567,0.035081
0.035895,0.046772,0.16118,0.0097652,-0.016369,0.010548,0.17998,0.091043
0.0037696,0.075056,0.027363,0.062262,-0.0748,-0.01946,0.03201,-0.13436
-0.043378,-0.034031,-0.067055,0.014343,0.09416,-0.063323,-0.071548,-0.046653
0.0048485,0.025264,0.24249,0.10026,-0.071311,-0.089434,0.041473,0.050212
0.032068,0.057978,-0.11748,-0.16471,-0.078497,0.050796,-0.01238,0.039665
-0.0081309,-0.030041,0.060917,0.031373,0.041615,0.14621,0.1092,0.062702
0.032743,0.010162,0.21302,0.062822,0.10924,-0.030467,-0.11139,-0.052512
-0.025364,-0.080702,-0.56798,-0.039831,-0.0011029,0.027348,-0.043477,-0.017232
-0.026922,0.00041322,-0.60099,-0.019401,0.030052,-0.025717,0.029774,-0.019584
-0.0041421,-0.052733,0.72662,-0.048207,-0.12647,0.035148,-0.0023951,0.017731
0.04974,0.11017,0.16157,-0.032701,0.04386,-0.09627,-5.9703e-06,0.04696
0.01657,0.050803,0.20094,0.28499,-0.0067136,0.032213,-0.025429,-0.0029887
-0.018448,-0.043639,-0.5104,-0.0792,0.080651,0.014267,0.0080801,-0.085783
-0.071326,-0.08701,0.28826,-0.32006,-0.13162,-0.024218,-0.0075791,0.017107
0.02202,-0.023941,0.11368,0.17248,0.044355,-0.097096,0.093123,0.048001
0.011987,0.12319,-0.18318,0.11789,-0.1251,-0.014502,-0.055612,-0.039543
-0.0069873,0.011923,0.28634,-0.0925,0.11866,0.10109,-0.015203,0.0051139
0.0049816,-0.020441,-0.60552,-0.09095,0.1045,0.033139,0.019673,0.0029831
0.017437,-0.082028,0.36484,0.13067,-0.096764,0.072184,0.056972,0.017182
0.030993,0.039056,-0.29744,0.13493,0.030616,-0.1016,-0.10673,0.0325
0.014741,-0.10981,0.19459,-0.078308,0.13493,0.097185,0.074797,-0.029047
-0.078161,0.096302,0.089464,-0.2593,-0.15912,-0.028129,-0.071121,-0.042601
0.0098562,0.0004386,-0.05903,0.068221,-0.0001802,-0.049689,0.0015663,0.038334
0.051789,0.19508,0.36586,0.16184,0.010249,-0.016244,0.13592,0.080421
-0.031032,-0.032377,-0.29218,0.16201,-0.20554,-0.023066,-0.15286,-0.096583
-0.020406,-0.21492,-0.32977,-0.29855,0.27506,-0.063235,-0.0055233,-0.024403
-0.002739,0.036584,0.26144,-0.087129,-0.12519,0.13652,0.1641,-0.0080412
0.029443,0.01811,-0.049051,0.13206,0.024177,-0.032713,-0.026265,0.046139
-0.0099728,-0.0361,0.028635,-0.039732,0.036078,-0.10911,-0.18525,0.013217
0.019631,0.007445,-0.020343,0.22517,0.09007,0.10363,0.031702,-0.012829
-0.0066013,0.071971,0.17184,0.027764,-0.033332,-0.018734,-0.0075023,0.015188
-0.002458,0.042062,0.23069,-0.14813,-0.21037,0.031923,0.13505,-0.011761
-0.022263,-0.14291,-0.51523,-0.16218,0.20583,0.03661,0.01401,-0.0074187
-0.026547,-0.020382,0.17678,0.23574,0.034021,0.002397,-0.042991,-0.0027662
0.039768,0.22331,-0.083183,-0.19586,-0.10206,0.029818,0.049062,-0.01324
0.028565,-0.036364,-0.11457,-0.010431,-0.0078046,-0.093074,-0.1016,0.031569
-0.02089,-0.159,0.1304,0.035771,-0.058199,0.015859,0.097654,-0.0011536
-0.022598,-0.028273,-0.035062,0.0068819,0.12253,-0.010674,-0.16653,-0.049003
-6.3902e-05,0.042004,0.25648,0.16989,-0.1283,-0.17994,0.050783,0.020663
0.069986,0.26907,0.23909,0.13499,0.011373,0.13416,0.062238,0.082631
-0.031401,-0.11411,-0.5881,-0.16798,0.12144,0.065811,0.016939,-0.035182
-0.046589,-0.12421,0.18773,-0.25522,-0.046646,-0.024286,-0.076251,-0.059496
0.016504,-0.035121,-0.075445,0.020476,0.031368,0.075745,0.065163,0.001814
-0.021824,-0.065422,-0.082064,0.0089019,-0.097587,-0.04782,-0.018528,0.0081812
-0.02088,-0.026883,0.088649,0.098538,-0.0045599,0.034386,0.0096248,-0.008978
0.081938,0.15184,0.092118,0.38081,0.19969,-0.0066366,-0.005992,0.059954
0.013274,0.11239,0.20125,-0.1699,-0.064703,-0.070525,-0.073031,0.0043106
-0.023736,-0.0039179,-0.13104,0.1088,-0.002625,0.013347,0.097223,-0.027224
-0.060425,-0.11093,-0.20928,-0.51044,-0.092028,-0.068556,-0.074156,-0.042273
0.0045952,-0.076122,-0.048482,0.0040594,-0.068021,0.08937,0.20857,0.0061347
0.053895,0.13108,0.32118,0.16167,0.030393,-0.059925,-0.22775,0.016431
-0.0065424,-0.021365,-0.21597,-0.16015,-0.022551,0.077575,0.053191,0.019745
0.018358,0.0048986,-0.072179,0.38517,0.063522,0.010291,0.06612,0.015858
-0.035621,-0.048294,0.19976,-0.066966,-0.0067736,-0.034409,-0.056582,-0.011145
0.02681,0.006664,0.14847,0.039972,0.18196,0.0068282,-0.049191,0.0087411
-0.028595,-0.079659,-0.256,0.042782,-0.11157,-0.099625,0.01075,0.0049313
-0.037506,0.08424,-0.16926,-0.20712,-0.051066,0.068629,-0.00084727,-0.061828
0.00042084,-0.08664,0.0021969,-0.038826,-0.066388,0.035243,0.0029629,-0.027572
0.0073879,0.0099373,0.21023,-0.031892,0.09187,0.018841,0.069912,0.0061028
0.061733,0.16318,0.069775,0.05425,-0.014603,-0.02787,-0.049498,0.07042
0.022858,-0.057146,0.31993,0.13996,0.074296,0.082005,0.066656,0.024678
-4.0194e-05,0.043078,-0.42557,0.028692,-0.079617,-0.10529,0.019565,0.0015328
-0.054164,-0.014335,-0.037197,-0.12411,-0.078314,-0.019924,0.011719,-0.022668
0.039798,0.089256,0.23257,0.040596,0.093731,0.033205,-0.035676,0.0065636
-0.054393,-0.18649,-0.37526,-0.10203,-0.1258,-0.047339,-0.14652,-0.020229
-0.063427,-0.084259,-0.00099472,-0.13733,0.068138,0.012302,-0.024046,-0.06386
0.098719,0.021404,0.22431,0.43554,0.1994,0.040851,0.11329,0.055732
-0.020792,0.038165,-0.10283,-0.22619,-0.091012,0.054554,0.047325,-0.020232
0.0081363,0.11658,0.044328,-0.059091,-0.052845,-0.039867,-0.049383,0.0058509
0.0062538,-0.045627,0.18464,0.12504,-0.06876,-0.1094,-0.027823,0.017519
0.0051761,0.038188,0.047475,-0.063983,-0.029324,0.064566,0.049791,0.023164
-0.033935,-0.11464,-0.20874,-0.126,0.12013,0.10658,0.0037016,-0.047209
0.029591,0.10613,0.15195,0.22797,-0.057968,0.00035069,0.27103,0.087642
0.031567,0.067625,-0.064689,0.16953,0.037774,-0.10644,-0.32064,-0.049175
-0.051708,-0.10616,-0.13133,-0.45011,-0.014748,0.035607,-0.10777,-0.044187
-0.017452,-0.049765,-0.16477,0.040523,0.073248,0.012095,0.081196,-0.015322
0.024596,0.0080659,-0.071379,0.055088,-0.034457,-0.059707,0.011801,0.075711
0.011603,0.096246,0.17128,0.13999,-0.080264,-0.038694,0.090459,0.0016706
-0.017627,-0.092087,0.44384,-0.041267,-0.0017628,0.036854,-0.049744,-0.034803
0.014864,0.066322,-0.29628,-0.075303,-0.0020258,0.035017,0.05238,0.0051273
0.038701,0.11724,0.15717,0.32624,0.090999,0.026891,-0.0093047,-0.011289
-0.078896,-0.25999,0.18952,-0.087244,-0.066196,0.044207,-0.0083001,-0.029042
0.005941,0.04443,-0.67305,-0.34727,0.034434,-0.037973,-0.022951,0.022688
0.027755,0.078499,0.20619,0.077616,0.0024284,-0.032522,0.0011289,0.011674
0.010174,-0.023369,-0.0026526,-0.06189,-0.029344,-0.072984,-0.061346,-0.0068564
0.00025322,0.021915,0.084081,0.024362,0.056261,0.11314,0.10193,0.045619
0.013768,0.020832,0.36076,0.24383,-0.053376,0.0014482,-0.079384,-0.010395
-0.035103,-0.064166,-0.36153,-0.019616,-0.014642,-0.002629,0.066698,-0.018669
0.025602,0.10393,-0.0039939,0.062788,0.047352,-0.06367,-0.029872,-0.0028282
-0.030601,-0.036831,-0.096157,-0.22754,-0.031497,0.005699,-0.0093652,-0.017843
-0.00051335,-0.033248,-0.073986,0.023173,0.014482,0.010441,0.011409,-0.0015091
0.030004,-0.018474,-0.10168,0.08779,-0.0099017,-0.033204,-0.0062736,0.022496
-0.017109,-0.024372,0.29408,-0.065633,-0.018542,0.047454,-0.02312,-0.016286
0.0066266,0.042053,0.098007,-0.031495,0.012166,0.0032656,0.039076,0.014919
-0.00035439,0.031588,0.36035,0.049093,0.012031,0.014634,-0.0072722,-0.016648
0.00095511,0.037296,-0.52952,0.058668,0.043589,-0.011731,0.025101,0.014128
-0.012994,-0.058541,-0.021772,-0.065332,-0.057284,0.010253,-0.004756,-0.0019921
0.012324,-0.029685,0.16575,0.013152,0.021764,-0.013324,-0.01906,0.013243
0.014219,-0.032509,0.07304,0.028747,-0.00070838,0.0030883,-0.0024587,-0.018207
-0.01532,0.0033289,-0.062505,-0.041661,-0.0077051,-0.011328,-0.033218,-0.0025585
-0.0061579,0.046676,0.04735,-0.025872,-0.0071845,0.013236,-0.0019506,-0.0023346
-0.0052978,0.05854,-0.046072,0.01388,-0.022655,-0.032996,0.013364,0.013647
