-0.0085512,-0.007278,0.35646,0.0084774,-0.012446,0.0056472,0.0017784,-0.0057445
-0.00884,0.013794,0.18117,-0.043911,0.0032728,0.014058,-0.0050953,-0.0044186
0.015119,0.0046743,-0.35341,0.007106,-0.0038485,-0.0084426,-0.004165,0.013253
0.00077528,0.019076,-0.41658,0.0047605,0.020857,0.0083355,0.0045633,0.0079642
0.033878,0.048082,-0.43293,0.14346,0.014716,0.0017331,0.021049,0.026219
0.020375,-0.026531,-0.080991,-0.046659,0.0086689,-0.0049933,0.021778,-0.010538
-0.047901,-0.06489,0.84032,0.003596,-0.028914,-0.019837,-0.032401,-0.032401
0.00059938,0.026469,0.17716,-0.034696,-0.0046514,0.027351,0.014686,0.0072121
-0.029655,-0.072499,-0.39235,-0.15399,-0.0047529,-0.027617,-0.047929,-0.016815
0.0018973,0.037438,-0.046569,0.067971,0.0097385,0.010489,0.0063354,0.0049829
0.017225,-0.0019252,-0.094617,-0.086622,-0.023588,0.001017,-0.0099624,0.0025723
-0.0068929,-0.0095935,0.38225,0.063204,0.0049154,0.0064956,0.028234,0.0076091
0.031377,0.062491,0.24884,0.1828,0.017522,0.04265,0.019377,0.0049204
0.0072933,0.035474,-0.30938,-0.023752,0.014686,-0.038778,0.0024725,0.010546
-0.00083019,0.019082,-0.21647,-0.048233,0.0046404,-0.0031401,0.01647,0.0091698
-0.024149,-0.064948,-0.045679,-0.047122,-0.027918,-0.021958,-0.024695,-0.014664
-0.0079801,-0.037466,-0.12989,-0.099316,-0.020317,-0.0010742,0.050784,-0.006248
-0.014906,0.0070086,-0.10206,0.075343,0.01963,-0.010405,-0.1086,-0.020382
0.025244,0.028586,0.01717,0.28042,0.044888,0.036291,0.013017,0.0052212
0.018546,-0.035964,-0.0023336,-0.16465,-0.0073326,0.0063299,-0.0058758,0.031226
-0.01956,0.031572,0.36766,-0.18208,-0.020204,-0.014456,0.022675,-0.0051712
0.0045018,-0.011299,0.49985,-0.037246,-0.048782,0.020455,0.05221,0.0051111
-0.01097,0.015023,0.26916,0.051941,0.031613,0.0089373,-0.010757,-0.031936
0.0042531,-0.037816,-0.49126,-0.030528,0.0020004,-0.034056,-0.049006,0.00067478
0.0032806,0.025688,-0.017516,0.10718,-0.012745,0.00019299,0.015372,0.0090658
0.017428,0.026092,-0.447,0.15345,0.03423,0.033053,0.07258,0.016619
-0.0078506,0.033962,-0.22135,-0.031965,0.017997,-0.01384,-0.0028962,-0.007903
-0.033287,-0.052014,-0.24859,-0.050842,-0.01441,-0.015395,-0.047472,-0.009741
0.019485,0.0027753,0.16719,0.018042,-0.015885,-0.018059,-0.045833,0.026856
-0.0055451,-0.020199,0.34774,-0.16992,-0.025191,-0.021149,-0.029294,-0.015123
0.0011911,-0.066072,0.35477,-0.060848,-0.0029343,-0.0082311,0.0023282,-0.0026415
0.0085515,0.052746,0.36141,0.12591,0.0043306,0.091772,0.10408,-0.013559
0.0087223,0.015882,-0.65613,-0.039684,0.020288,-0.040902,-0.043963,-0.0085284
0.017221,0.073088,0.015862,0.1688,0.021612,0.031463,0.011646,0.036168
-0.013016,0.0051776,-0.2596,-0.061202,-0.0073911,-0.0037994,0.0132,-0.012048
-0.01189,-0.086846,-0.065258,-0.057928,0.011152,-0.037825,-0.039423,-0.012406
-0.018657,0.077698,0.33579,-0.01689,-0.032539,0.022384,0.040943,-0.011752
0.013434,-0.032883,0.28997,-0.063381,-0.037398,-0.019325,0.035098,0.036681
0.0062197,-0.19224,0.067592,0.26321,0.074204,0.01596,-0.080842,-0.0079736
-0.024641,0.17003,0.06101,-0.10766,-0.0028367,-0.028584,-0.010323,0.0023791
0.0068642,-0.00042137,-0.11044,-0.097915,-0.010962,0.026447,0.035614,-0.0029694
0.0070528,0.04695,-0.33914,-0.058852,-0.036157,-0.029846,-0.044452,-0.024401
0.015012,-0.030969,-0.088815,0.025759,-0.00011282,0.045055,0.046718,0.015906
0.038521,0.00082613,-0.18958,0.078708,-0.011823,-0.052986,-0.0028747,0.016224
-0.0084299,-0.0055452,0.13885,0.11673,0.046424,0.012635,-0.013011,-0.0078185
-0.055595,-0.096529,-0.12821,-0.18713,-0.020104,0.023839,-0.0066719,-0.032611
0.029826,0.1422,0.27073,0.1369,0.046948,0.067134,0.078938,0.035914
-0.025519,-0.07833,-0.088938,-0.12135,-0.0019905,-0.075831,-0.045152,-0.012781
-0.049578,-0.031693,-0.16519,-0.070903,-0.072907,-0.029868,-0.058742,-0.045476
0.051632,0.070842,0.5319,0.13181,0.029572,0.017493,0.022258,0.039716
0.036138,-0.02905,0.071005,-0.076436,-0.077511,-0.027731,0.041197,0.039849
-0.010011,0.019567,0.14589,0.13125,0.1055,0.084065,-0.0023762,-0.0060283
0.014705,0.1223,0.0059819,0.15168,0.046823,0.0086318,-0.015157,-0.012174
-0.038374,-0.15105,-0.47908,-0.33717,-0.097905,-0.051435,-0.036589,-0.010172
-0.0055527,-0.019526,-0.1136,0.17878,0.0613,-0.010667,0.026795,-0.023851
0.0033521,-0.022165,-0.17778,-0.12966,-0.0073406,0.029047,0.018582,0.0011157
0.058236,-0.0023654,0.29323,0.19026,0.00055006,-0.018356,-0.03001,0.033219
-0.0052541,0.07954,-0.30965,-0.3064,-0.047851,-0.04341,-0.025137,0.0020404
-0.077814,-0.0022768,0.07312,-0.017084,-0.042869,0.047912,0.12717,-0.037667
0.020443,0.049788,0.2475,0.14553,-0.00739,-0.064309,-0.10401,0.015876
0.0087316,-0.021479,0.57743,0.23759,0.035824,0.073474,0.031806,0.014562
0.012722,-0.05162,-0.4381,0.057252,0.11085,0.063199,0.019583,-0.009982
-0.013709,-0.07174,-0.15041,-0.17579,0.030669,-0.016729,-0.054053,0.0050922
-0.030816,0.058674,-0.027656,-0.14067,-0.071694,-0.025509,0.0069263,-0.033715
0.024361,0.0033204,-0.1086,-0.12623,-0.094721,-0.11149,-0.015602,0.022125
0.019119,-0.019634,0.18421,0.13303,0.00037588,0.03004,-0.0040576,0.0084507
0.031299,0.14533,-0.14367,-0.0039035,0.010039,0.00058757,-0.0053215,0.034352
-0.010068,-0.057224,0.2237,0.28254,0.082189,0.042194,0.03477,-0.041225
0.02693,0.036126,-0.22843,-0.38369,-0.01807,0.045211,0.013572,0.031231
-0.02273,-0.10622,0.209,0.37899,0.060386,0.087368,0.09359,0.016897
-0.058301,-0.046718,-0.14826,-0.25878,-0.057706,-0.18337,-0.14887,-0.092343
-0.0099666,-0.034979,0.14609,0.28021,0.065152,0.060674,0.11259,0.023733
0.020638,0.078084,0.021171,-0.043436,-0.055109,-0.0089603,0.087619,0.037144
-0.013018,-0.097501,-0.039727,-0.698,-0.26947,0.0060624,-0.16174,-0.028324
0.022541,0.18866,0.12692,0.64589,0.11028,-0.019096,-0.095868,0.0074896
0.0031394,0.0068278,-0.34498,-0.36159,0.17856,0.025348,0.029028,-0.0033586
0.03114,-0.04984,0.079345,0.2658,0.052951,-0.024091,-0.058097,0.033296
0.036844,0.17392,0.17196,0.04507,0.0068649,-0.033988,-0.010753,0.0083383
-0.096609,-0.26053,-0.15941,-0.11703,-0.07732,0.043038,0.26734,-0.031283
0.021402,0.013045,-0.17645,0.013232,0.0028054,0.058818,0.035776,0.015894
-5.2194e-05,0.048883,-0.24862,0.082608,-0.050389,-0.057002,-0.22819,-0.030044
0.0025616,-0.08248,0.7475,0.25277,0.051608,0.031154,0.11553,0.010308
0.044233,0.026119,-0.16635,-0.48659,-0.12887,-0.013255,0.07318,0.02731
0.030602,0.18081,0.50744,0.70639,0.14281,0.051243,-0.099732,-0.0026704
-0.046591,-0.2105,-0.49995,-0.91899,-0.31244,-0.11976,-0.13229,-0.04066
-0.070343,0.033428,-0.12986,0.028647,0.26389,0.035783,0.090405,-0.024144
0.021976,0.023021,0.082272,0.4343,0.20054,0.041163,-0.058315,0.054781
-0.0035937,0.016434,-0.36789,-0.26143,-0.13505,-0.040919,0.22541,0.024362
0.017607,0.083498,-0.086639,0.27285,-0.00079624,0.0087891,-0.097378,-0.02156
0.031519,0.16049,0.14697,-0.04611,-0.12375,-0.019944,-0.13515,-0.028273
-0.00042011,-0.28555,0.091238,-0.05285,-0.082697,0.037718,-0.058278,-0.011481
0.007972,0.016986,0.35374,0.2056,0.17636,0.018412,0.11159,0.028646
-0.029316,0.0040263,0.22699,-0.09271,0.067015,0.0085824,0.079292,0.01375
0.012338,-0.020737,-0.092295,-0.14583,-0.035897,-0.03059,0.088329,0.021713
-0.0082896,-0.010685,0.099461,-0.011592,-0.053988,0.018036,-0.13401,-0.017942
0.04093,0.097168,-0.22013,0.11185,-0.010039,-0.04898,0.006107,0.0041432
0.01875,0.077355,-0.73538,0.066304,-0.051567,-0.060296,-0.015286,0.017856
-0.090876,-0.14677,0.33344,-0.094189,-0.14637,0.092787,-0.01942,-0.10139
-0.038086,-0.081432,-0.3634,-0.46268,-0.059411,0.018924,0.039475,-0.0092637
0.028852,0.087322,0.69408,0.50947,0.35785,0.076838,-0.02717,0.0292
0.071293,0.13401,-0.019854,-0.089483,0.24541,0.031709,0.061052,0.037886
-0.027387,-0.065763,-0.53163,-0.19483,-0.21836,-0.20252,-0.11041,0.0012938
0.02246,-0.0041325,0.55195,0.36676,0.011793,-0.024014,0.091214,0.067565
-0.020849,-0.10336,-0.090133,-0.013735,-0.19848,-0.0024265,-0.036841,-0.029629
-0.00069994,0.13583,0.70986,0.17066,-0.084491,0.12095,0.045233,-0.0022052
0.051862,-0.013954,-0.53932,-0.40995,-0.013428,-0.012361,-0.036564,0.031633
-0.074025,-0.17855,-0.12708,-0.054662,-0.070303,-0.050104,0.054801,-0.038273
0.027872,0.14915,-0.64706,0.15636,0.31684,0.10952,-0.062481,-0.048184
-0.025329,0.0077265,0.40296,-0.0048322,0.063988,-0.025973,-0.14552,-0.060347
-0.030611,-0.12661,0.17691,-0.062077,-0.084885,-0.035518,0.0637,-0.066162
0.027495,0.11311,0.1137,0.086884,-0.089445,-0.045282,0.13506,0.13081
0.031575,0.02359,-0.2583,-0.11879,0.019646,0.029389,0.028401,0.039565
0.012562,-0.051577,0.1467,0.096685,0.086024,0.093623,0.03114,0.051658
0.024743,0.059347,0.18164,0.19687,-0.094139,-0.079843,0.032017,0.011315
-0.033882,0.01255,-0.47226,-0.40165,-0.13913,-0.030166,-0.11131,-0.081522
-0.030898,-0.10593,0.075926,0.27188,0.1216,-0.014572,-0.11871,-0.0008033
0.02561,0.055793,-0.058718,-0.015691,0.12425,-0.0084213,0.12681,0.026127
-0.0050613,0.029582,0.50911,-0.18603,-0.10114,0.06022,-0.14734,-0.024992
-0.021214,-0.058746,0.098742,0.10376,0.046085,-0.049093,0.0058938,-0.03764
-0.06159,-0.18484,-0.18453,0.054983,-0.020527,0.032349,0.057525,-0.043454
0.085179,0.23804,0.14519,-0.0068291,-0.019794,-0.014778,0.064501,0.059038
0.013276,-0.023981,-0.45837,0.22784,-0.029438,0.0050657,0.02856,-0.01127
0.019914,0.013457,-0.33799,-0.25173,0.021646,0.060024,-0.026044,0.058376
0.034964,0.25604,0.57116,0.13018,-0.084264,0.0081194,0.048853,0.041664
-0.13688,-0.43009,-0.50004,-0.57324,-0.080496,-0.043121,0.03324,-0.069051
0.027655,0.070846,0.58755,0.38757,0.32286,0.068387,-0.066984,-0.00024953
0.020514,0.015209,-0.087608,0.052276,-0.053399,-0.041878,0.035157,0.021539
0.060141,0.1517,0.20273,0.28169,0.032972,-0.070317,0.0019607,0.035437
-0.010004,0.073165,-0.3982,-0.21911,-0.16052,-0.095311,-0.22231,-0.075598
-0.072954,-0.31449,-0.090386,-0.33858,-0.10313,0.047797,-0.06753,-0.11602
0.04305,0.17654,0.4655,0.57385,0.20456,0.10246,0.20131,0.13321
-0.029164,-0.10123,-0.23498,-0.40182,-0.089499,-0.023443,0.069736,-0.0073873
0.030859,0.13492,-0.25119,-0.0063348,-0.095062,-0.023635,-0.046925,0.016896
0.020238,0.0040188,0.083452,0.17526,0.078206,0.040614,0.07894,0.026104
-0.037291,-0.093585,0.20815,-0.020817,0.023778,0.013694,0.0026179,-0.019408
-0.03206,-0.062441,-0.15,-0.18091,0.053836,0.083093,-0.057042,-0.026717
0.04398,0.13772,0.078596,0.20961,0.066465,-0.11113,0.024689,0.081394
-0.0043533,-0.10199,-0.022099,-0.06167,-0.032385,0.0004538,-0.096368,-0.055221
0.033884,0.04617,0.31062,0.28479,0.022824,-0.0049931,0.02475,-0.0072861
-0.021102,0.088761,0.042124,-0.34644,-0.25981,-0.065737,-0.088628,-0.040306
0.018012,-0.046486,-0.698,-0.089508,0.09704,0.059981,0.055873,0.04175
-0.028644,0.0052578,0.33776,0.0078781,0.032055,-0.018513,0.23994,-0.048926
-0.0049478,0.054159,0.0074055,0.133,-0.023633,0.0037281,-0.23122,-0.045111
-0.051556,-0.042268,-0.14234,0.036169,0.032952,-0.0056858,-0.091476,-0.0389
0.058166,-0.14441,0.15501,0.1478,0.023196,0.039604,0.15161,0.2836
0.00404,0.068139,-0.13028,-0.23429,0.11946,0.077379,0.068345,-0.11579
-0.0028515,-0.012848,0.097182,-0.0075843,-0.07691,-0.048536,-0.060377,-0.072817
-0.0014865,-0.0025314,0.22162,0.016312,-0.004308,-0.072643,0.0070558,0.099531
0.0081127,0.031239,0.0018472,0.01779,-0.10944,0.0048006,0.0043431,-0.029469
-0.0054527,-0.065395,-0.045811,0.13796,0.043557,0.035071,-0.022236,-0.06275
-0.019004,0.11564,0.032399,-0.068208,0.0077438,-0.0054884,-0.049605,-0.064259
0.021827,-0.0028947,-0.497,-0.0068458,0.031757,-0.0075875,-0.030931,0.07407
0.030792,0.07097,0.42205,-0.060722,0.028727,-0.010207,0.041856,0.0074734
-0.0079559,0.0078694,-0.3415,-0.0032454,-0.087682,-0.020921,-0.010476,0.079054
-0.063239,-0.18636,0.073562,-0.053137,0.065504,0.070007,0.04693,-0.1099
0.0056831,0.048528,0.15293,0.094274,-0.026659,0.020817,0.01911,0.018775
0.027225,0.062002,-0.11882,0.016952,0.035358,-0.019617,0.062414,-0.011189
-0.029457,-0.077112,0.29605,-0.17614,-0.083044,-0.089982,-0.073346,0.019397
0.01576,0.075884,0.035254,0.20175,0.064843,-0.018147,-0.029211,0.03291
0.038239,-0.095844,0.15716,0.14959,-0.043181,0.039703,-0.047913,0.053288
0.014755,0.080823,-0.10839,-0.13856,-0.031219,0.059952,0.010629,-0.10652
-0.031235,-0.048482,-0.59349,-0.22642,0.12459,0.042163,0.099108,-0.00079874
-0.029577,-0.036277,0.16033,0.056892,0.017882,-0.022135,-0.0092856,0.019212
0.035063,0.072615,0.19951,0.25776,-0.086293,-0.086846,-0.033317,0.024098
-0.0017241,0.02975,-0.17732,-0.10805,-0.016983,0.08166,-0.011838,-0.032815
-0.030884,-0.10159,0.22867,-0.1413,0.037262,-0.048419,-0.046008,0.0048373
0.025477,0.13161,-0.1639,0.15163,0.067662,0.014868,0.036561,0.0277
0.011008,0.048693,0.14959,-0.039894,-0.09836,-0.025218,-0.04485,0.0044433
-0.019569,-0.062893,-0.0066604,-0.11232,-0.047075,-0.035388,0.069568,-0.0025916
-0.042674,-0.12696,0.05726,-0.032601,-0.036251,-0.054003,0.036325,-0.024863
0.035642,0.026458,-0.31427,0.013007,0.028196,0.16189,0.035175,-8.5177e-05
0.0046339,0.04423,0.76042,0.41554,0.15456,-0.0042516,-0.058977,0.016877
0.036298,-0.01997,-0.76817,-0.32553,0.038621,0.0026865,-0.058796,-0.0053396
-0.0099717,-0.018065,0.065177,0.077467,-0.077076,-0.01248,0.035575,-0.012091
-0.0014429,0.097092,0.084773,-0.018078,-0.067332,-0.057689,-0.049355,0.0044509
-0.024202,-0.0018252,0.15437,0.03412,0.005409,-0.016057,0.030202,0.0052666
-0.015912,-0.071459,0.31048,-0.11159,-0.069839,-0.0051584,-0.030372,-0.025239
0.031117,0.022349,-0.7294,-0.050279,0.12867,0.052741,0.04237,0.022291
-0.015976,-0.039391,0.32401,0.069105,-0.086784,-0.05365,0.021719,0.0071503
-0.016532,-0.013407,0.19108,0.051494,0.010046,0.050371,0.032331,-0.00048263
0.0061098,-0.0083988,-0.32075,-0.17258,0.082793,0.013005,0.042444,0.085189
0.013013,0.061706,0.0028851,0.12459,-0.025292,-0.017477,-0.12038,-0.1031
0.0042995,0.032419,-0.10021,0.022305,0.044687,0.044794,0.012148,-0.010597
0.019125,0.0044148,0.11503,0.044987,-0.012283,-0.05012,0.017969,0.003566
0.026307,0.093758,0.74423,0.13086,-0.047793,-0.020747,0.022278,0.041391
0.010286,0.041589,-0.42286,0.22578,0.055714,0.039538,0.0022472,-0.02156
-0.13041,-0.34806,-0.23037,-0.65407,-0.33381,-0.11878,-0.080246,-0.067527
0.034042,0.06539,0.039313,0.085759,0.24563,0.082911,-0.044427,0.044545
0.042851,0.06379,-0.26373,0.063304,0.076366,0.004385,0.09507,0.017923
-0.033553,-0.039278,0.10891,-0.12686,-0.067259,0.052061,-0.020502,0.0008026
0.031396,0.030843,-0.09436,0.23449,0.088633,0.022701,0.085485,0.14879
-0.0046639,0.064173,0.57001,0.14705,-0.0029518,-0.037212,-0.0016177,-0.15627
0.029766,0.037631,-0.54842,-0.054504,-0.045792,-0.065767,-0.087659,0.029835
0.0013312,0.013293,0.19644,-0.09895,-0.064357,0.014504,0.16178,-0.020491
0.010984,0.036896,0.38809,0.21399,0.10425,0.085834,-0.10639,-0.026742
-0.0043133,-0.01814,0.063451,-0.1186,-0.048812,-0.078714,-0.057434,0.002954
-0.044882,0.010635,-0.23187,-0.020921,-0.10237,-0.018293,0.0033675,0.014071
-0.040408,-0.23736,-0.55246,-0.43167,-0.017614,0.032933,-0.033178,-0.0084291
0.0016479,0.010817,-0.029497,0.32907,0.18225,-0.018316,-0.0099175,-0.0011718
0.011617,0.036771,-0.081872,-0.088625,-0.041231,0.047349,0.035499,0.044643
0.029362,0.1072,0.40339,0.021049,-0.10127,-0.035005,0.057795,0.0049419
0.047863,0.067378,0.53899,0.37222,0.12809,0.016495,-0.0041054,0.0054554
0.020867,-0.010804,-0.40728,-0.29765,-0.031911,0.0069927,0.014815,-0.031482
-0.059081,-0.12605,0.1745,0.053041,-0.025774,-0.032041,-0.0023144,-0.011945
-0.0044308,0.027045,-0.13866,0.019671,0.045544,0.016541,-0.024572,0.0014911
-0.010715,0.05009,-0.16939,-0.15494,-0.1301,0.011828,0.025326,0.0085606
-0.00023315,-0.049755,-0.092348,0.10701,0.095768,0.031457,0.036894,0.0088822
0.0030356,0.085707,-0.011578,0.054405,-0.15217,-0.10487,-0.12378,-0.029223
0.021959,0.056593,0.29797,0.021532,0.14876,0.078761,0.034644,0.011019
-0.022111,-0.13847,0.13305,-0.079488,0.013049,0.0036457,0.019571,0.027701
0.018857,-0.0082526,-0.30963,-0.14126,0.064197,-0.025966,-0.067379,0.028407
0.035248,0.11104,0.027342,0.2094,0.011523,0.020952,0.08676,-0.033823
-0.058917,-0.10818,-0.094578,-0.1228,-0.1074,-0.011821,-0.040741,-0.049535
0.009974,-0.070823,-0.39811,-0.0062594,0.057963,-0.014627,0.035245,0.020561
9.6893e-05,0.068704,0.71377,0.12849,-0.10992,0.036468,-0.01281,0.0049173
-0.0099276,-9.0424e-05,0.00079938,-0.07841,-0.024605,-0.076655,0.026339,0.021078
0.0038756,-0.02551,-0.12288,0.0683,0.0026686,0.021654,0.0042149,-0.016607
0.0029139,0.11842,-0.096628,-0.032508,0.059658,0.011631,-0.040474,0.0013755
-0.0047031,-0.013673,0.091692,0.088931,0.038995,0.057673,0.0088982,0.0046432
0.012322,-0.040094,0.00019616,-0.073543,0.020616,0.0035877,0.034529,0.024157
0.030325,0.052731,0.069847,-0.09582,0.021428,-0.010222,0.028089,0.0047599
0.009778,0.020034,0.031652,0.016916,-0.051771,-0.03889,-0.11228,-0.022858
-0.026489,-0.070465,-0.38166,-0.19362,-0.042964,0.0029573,-0.0037686,0.0032616
-0.0087762,0.0057359,-0.044641,-0.092394,0.023493,-0.088368,-0.083629,0.00459
-0.0078756,0.052248,0.19352,0.51717,0.044653,0.12418,0.23451,-0.042491
-0.024021,-0.18859,0.10998,0.096034,0.026769,0.023144,-0.041051,0.0027272
0.020973,0.050211,-0.15048,-0.14621,-0.055032,-0.05558,-0.019258,0.031196
-0.0053685,-0.041573,0.064076,0.061484,0.016962,0.0053858,-0.043568,-0.0034619
-0.0087703,0.093436,-0.064712,-0.31509,-0.085835,-0.020126,-0.012285,-0.014745
0.011357,0.012432,0.29894,0.033686,0.035191,0.001225,0.019885,0.0056734
0.0086535,0.029689,0.027659,-0.12104,-0.017669,-0.047186,-0.0018795,0.026919
0.030331,0.091209,-0.023324,0.063066,0.030109,0.053865,-0.0074876,0.025736
-0.0016406,-0.037873,-0.32007,0.17925,0.031268,0.031215,-0.059726,-0.036961
-0.017085,0.023786,0.038657,-0.014472,-0.060056,0.041112,0.1692,-0.028541
-0.00068342,-0.053974,0.06456,0.045042,0.084909,-0.072991,-0.14136,0.019464
-0.015316,-0.10919,0.052539,-0.024173,0.052297,0.016498,0.05513,-0.0026245
-0.0066434,-0.026338,-0.082975,0.0913,0.013771,-0.027029,-0.030632,0.0064898
-0.01396,-0.071984,-0.17521,-0.22475,-0.1874,0.022327,0.093424,0.0075611
0.025157,0.19912,0.43673,0.067849,0.018569,-0.039091,-0.096071,-0.022932
0.024856,0.1158,0.016464,0.18129,0.13904,0.10093,0.026163,0.024395
-0.030286,-0.1566,-0.57837,-0.36737,-0.1387,-0.065393,-0.023774,-0.022254
-0.0071927,-0.069683,-0.20183,0.1108,0.052556,-0.0143,-0.034354,0.0091059
0.0084479,0.081138,0.74351,0.093582,-0.068286,-0.018628,0.026264,0.001389
0.0089961,0.00013084,0.23567,-0.019902,0.10832,0.0083124,-0.0055416,0.0015271
-0.013313,-0.10117,-0.30442,-0.06569,-0.058216,0.012593,0.05008,0.0016986
0.011735,0.097501,0.049906,0.19738,0.11938,0.018263,0.0054397,0.0018263
0.037043,0.11106,-0.12764,0.10335,-0.023484,0.0022093,0.055323,0.01741
-0.031441,-0.03824,-0.2247,-0.2018,-0.11255,-0.027792,-0.05883,-0.022001
-0.022152,-0.094019,0.035544,-0.080082,-0.015878,0.029423,-0.033119,-0.014948
0.025611,0.067384,0.063811,0.020973,0.070422,0.10287,0.069342,0.030728
0.0023632,-0.086215,-0.14195,0.014036,0.098909,-0.089513,-0.072041,0.013536
-0.044969,-0.01606,0.31591,0.102,-0.16498,-0.079707,-0.074324,-0.05854
-0.0068153,-0.034258,-0.28114,-0.17504,0.029038,0.022388,0.01611,-0.0055655
0.046797,0.18051,0.67719,0.21631,0.0020324,-0.033421,0.0046534,0.016474
-0.001017,-0.12818,-0.54988,-0.2366,0.05987,0.088962,0.10294,0.031238
-0.0093955,-0.0057733,0.49261,0.18044,-0.045987,-0.024072,-0.016667,-0.00021862
0.013964,0.017624,-0.63849,-0.13113,0.0063356,0.034376,0.044436,0.0080268
0.0065315,-0.026171,-0.25318,-0.0050401,0.030782,0.0072104,0.23921,0.040206
-0.00060225,0.11266,0.39327,0.09869,-0.018409,-0.034581,-0.44051,-0.067972
-0.0233,-0.012141,-0.01728,-0.070591,-0.046892,-0.035779,-0.0029573,-0.03551
-0.022752,-0.034889,0.11025,0.13334,-0.062544,-0.027315,0.06723,0.0045596
0.016469,0.050462,-0.060019,-0.082059,0.16822,0.061168,0.11371,0.044275
0.031759,0.062629,0.66583,0.49778,-0.074828,0.010663,-0.035297,0.0054443
0.0075175,-0.14785,-0.83984,-0.7016,0.096928,0.047182,-0.020241,0.0052578
-0.017054,-0.049909,0.31018,0.26964,-0.0062858,-0.056633,0.080929,0.028151
-0.05735,-0.088117,-0.17665,-0.31696,-0.13666,-0.028284,-0.052005,-0.074213
0.019707,0.035885,-0.068895,0.11658,0.063461,-0.0015362,-0.0049854,0.010792
0.011221,0.1052,-0.0012552,0.05613,-0.039701,0.014979,-0.020279,0.0098668
0.026696,0.043456,0.088139,0.059118,0.030431,0.05196,0.066072,0.016888
0.034865,0.078387,0.11395,0.25397,0.040484,-0.023583,-0.12882,0.00069886
-0.034758,-0.016218,0.030938,-0.25429,-0.10144,-0.00044129,0.020007,-0.030851
-0.0184,-0.1159,-0.033522,0.10771,0.036747,-0.010697,0.11416,0.039402
0.028927,0.090603,0.095291,-0.09529,-0.011166,-0.021962,0.013085,0.0082548
-0.033672,-0.038911,-0.23583,-0.16662,-0.14136,-0.11094,-0.20504,-0.030647
0.012418,-0.076247,0.022978,0.1832,0.24151,0.12231,0.17076,0.0085344
-0.0046253,0.0557,-0.24282,0.11006,0.19281,0.12449,-0.00015721,-0.0070684
-0.029872,-0.080856,0.26568,-0.20733,-0.19396,-0.11123,0.0086935,-0.014945
0.01519,0.09274,0.36213,0.20625,-0.10736,-0.10779,-0.08403,0.016235
0.068513,0.054291,-0.32051,0.044754,0.013529,0.12683,0.049702,0.031922
-0.056979,-0.17889,0.099697,-0.23992,-0.012697,-0.017539,-0.027674,-0.045848
-0.0016159,0.08246,-0.15241,-0.11738,0.023307,0.020267,-0.019312,0.0018132
-0.0074839,-0.066465,-0.11031,0.068138,-0.082844,-0.050523,0.043538,0.026543
0.011221,0.1251,0.17666,0.1758,0.10551,0.041687,-0.010993,-0.01856
0.022887,0.0085973,0.088973,0.049246,0.11916,0.053,-0.011045,-0.00083111
-0.019903,-0.00295,-0.16445,-0.061746,-0.049795,-0.096027,0.051157,0.0013396
0.038467,0.073077,-0.061737,-0.048237,-0.16683,-0.031131,-0.011935,0.026664
-0.021356,-0.038859,0.26329,0.057847,0.088706,0.0367,0.026227,0.012268
-0.012328,-0.028225,-0.088274,-0.06463,-0.032701,0.029953,-0.076488,-0.026551
0.0028523,-0.08391,-0.25705,-0.11178,0.016356,-0.058037,0.00038432,0.011579
-0.030398,-0.026736,0.3277,0.38452,0.13486,0.01638,-0.078855,-0.060848
-0.01012,-0.075024,-0.0051998,-0.21661,-0.13762,0.012537,0.10793,0.022003
-0.0060233,-0.040099,-0.15337,-0.16501,0.0040798,0.033336,0.06096,0.010522
0.060697,0.24362,-0.16292,-0.038264,0.029146,0.032876,-0.040019,0.030214
-0.0046665,-0.011519,-0.064547,0.078495,0.016127,0.0038724,-0.0076225,-0.02778
-0.014213,-0.039008,0.37632,0.108,0.012315,-0.053584,-0.084349,0.001032
0.016559,0.11445,0.19076,0.10565,-0.03658,-0.022558,0.073103,0.015351
-0.014067,-0.082886,-0.30137,-0.10002,-0.13804,-0.059766,-0.035758,-0.016015
0.026357,0.047774,0.12608,0.13958,0.075325,0.1155,0.14333,0.039604
0.0045504,-0.017894,0.082372,-0.0974,0.166,-0.012896,-0.1086,-0.0055858
-0.040864,-0.14757,-0.48666,-0.17025,-0.038174,-6.02e-05,0.005381,-0.019137
