-0.028923,-0.064424,-0.031908,0.0043231,-0.0068432,-0.020279,-0.014648,-0.013405
0.025687,0.058519,-0.005349,0.013447,0.0088391,-0.0054811,0.0075917,0.0070559
-0.017234,-0.19452,-0.042449,-0.025163,-0.007078,0.0093468,-0.0089921,-0.018778
0.11529,-0.0081121,-0.018839,-0.017985,-0.023419,-0.014748,-0.001709,0.018771
0.00025171,-0.02731,0.026294,0.027135,0.01454,0.00051902,-0.0094181,-0.012929
-0.020218,0.063595,-0.023847,-0.0068201,-0.0024309,0.02406,0.022718,0.018962
0.059881,-0.24868,-0.043464,-0.010139,-0.011601,-0.014323,-0.0068272,-0.010687
-0.17515,0.72428,0.14812,0.056689,0.041983,0.026017,0.026824,0.030673
0.00013796,-0.21373,-0.088754,-0.071472,-0.02893,-0.011266,-0.017231,-0.036992
0.038469,-0.07306,0.04347,0.012078,-0.0054152,-0.0091884,0.0012335,0.0046991
-0.028506,0.0018659,0.021648,0.018618,0.0032194,-0.0070944,0.0036513,-0.0008299
0.05027,-0.29013,-0.076252,-0.0047981,0.0047256,0.010335,0.0052538,-0.0069386
0.018454,0.039077,0.030464,0.019948,0.022361,0.0037639,-0.017652,0.0018816
-0.028652,0.087924,0.044102,0.0067255,0.001173,0.01207,-0.002621,0.01001
0.035284,0.096768,-0.028437,-0.036993,-0.02008,-0.027308,-0.027614,0.0019252
0.00019855,-0.083238,-0.047344,0.013362,-0.018241,-0.012728,0.0092822,0.0012391
-0.016422,0.080028,0.049311,-0.0067204,0.0064807,0.016947,0.030402,-0.0074704
0.024213,-0.16161,-0.059011,-0.0038915,-0.00070793,-0.00049393,-0.010663,-0.0083804
-0.0036141,0.1708,0.018454,0.013739,0.0070733,0.0055726,0.011462,0.022111
0.0085033,0.0015988,0.039967,0.014761,0.0143,0.0041743,0.0032306,-0.0096338
-0.049803,-0.034152,0.0061857,-0.01646,-0.0023009,0.0033145,0.0037125,0.0058115
-0.023095,-0.12227,-0.050916,-0.025106,-0.011282,-0.0047444,-0.010707,-0.017496
0.02563,0.12885,0.025565,0.028131,0.010989,0.0033907,-0.0012708,0.014138
-0.020938,-0.03839,0.0017171,-0.012687,-0.02126,-0.011485,-0.0073908,-0.016563
0.040538,-0.015063,-0.020696,0.0012037,0.0014637,-0.0026999,0.0096801,0.015297
0.0152,0.096321,0.044179,-0.00022103,0.0089083,0.0060973,-0.01277,0.00023609
-0.018254,0.052402,0.039761,0.030121,0.016699,0.022543,0.011126,0.0084789
0.011057,-0.1948,-0.057885,-0.024849,0.0013477,-0.0081499,-0.020125,-0.0069022
0.0020411,0.080508,0.0006917,0.014561,0.0018404,-0.015669,-0.0047816,-0.0068503
-0.0059324,-0.02817,-0.01938,0.007657,-0.020966,-0.01554,0.026139,0.00086839
-0.028369,-0.036165,-0.032531,-0.037869,-0.02026,0.00021594,0.010353,-0.0070946
0.0049723,-0.028694,0.039147,0.0028447,0.0039267,-0.015085,-0.020746,-0.0071918
0.0079063,0.018569,-0.062258,-0.010972,0.02033,0.040266,0.011001,0.0163
0.01129,0.11418,0.085093,0.029911,0.013311,0.025695,0.0039479,0.00093171
-0.0088083,-0.046238,0.0046111,-0.01529,-0.017162,-0.01981,-0.0030224,-0.0064416
0.0095761,0.0057708,0.016583,0.017318,-0.00084804,0.0051239,-0.0023281,0.0097046
0.026882,0.12086,0.066345,0.049427,0.038715,-0.0091444,-0.009822,0.02577
-0.019766,-0.069525,-0.11156,-0.059748,-0.03921,-0.023826,-0.0022396,-0.020933
-0.028978,-0.13718,0.030163,0.0021871,0.0074704,-0.0078902,-0.0030974,-0.021187
0.030587,0.080661,-0.078062,-0.022592,-0.0087856,0.0072981,0.018888,0.0014891
-0.043824,-0.057355,-0.0055274,-0.0011688,-0.0098227,0.013934,0.0013594,0.00025378
0.029656,0.1441,0.061426,0.04323,0.020088,0.027769,-0.0085752,0.014322
-0.006012,-0.15788,-0.032399,-0.0062978,-0.0048296,-0.021287,-0.010629,-0.010742
-0.017213,-0.024268,-0.036351,-0.024444,-0.0062693,-0.00013839,0.0033078,0.0034883
0.012365,0.03132,0.049566,-0.010938,0.00030962,-0.010037,0.0022474,-0.0051905
0.012851,0.065689,0.052664,0.018781,0.0072076,-0.011624,0.0098101,0.010326
0.03122,0.16666,0.065113,0.041344,0.022277,0.01878,0.0026297,0.01109
-0.026551,-0.17223,-0.040206,-0.029237,-0.0092061,-0.0046122,-0.011536,-0.010736
-0.004823,-0.051938,-0.062404,-0.0056062,-0.024836,-0.011467,0.0061976,-0.00063257
0.033056,0.0038622,0.19979,0.018295,0.0065122,0.029342,0.0086815,-0.0057636
-0.070115,0.041,-0.11399,-0.035842,-0.0012187,-0.0074433,-0.020043,-0.0030602
0.05195,0.049909,-0.36292,0.0037258,0.014382,0.0028091,0.013427,0.0070815
-0.031153,-0.096688,0.13407,-0.011496,-0.017038,-0.010631,-0.016221,0.00085634
0.023887,0.098667,0.10593,0.027881,0.02172,0.0065254,0.015773,0.009229
-0.0017891,0.016285,0.024199,0.004725,-0.0099141,-0.0085351,-0.00010282,0.00079155
-0.053287,-0.088154,0.086773,-0.002776,-0.01811,-0.0091066,-0.0091787,-0.016643
0.026114,-0.0051572,-0.040525,-0.018027,-0.0027896,0.0048144,0.0042735,-0.0038452
0.033935,0.030395,-0.044675,0.013644,0.020478,0.0099672,0.0092182,0.00044149
0.0099599,0.042528,0.042225,0.014042,0.0048259,-0.0011404,-0.0018542,0.004457
-0.021663,-0.013941,0.085329,-0.016939,-0.0029118,-0.012472,-0.020773,-0.0069496
0.041261,0.074581,0.011554,0.014342,0.028435,0.015472,0.015331,0.02917
-0.074187,-0.19641,-0.26793,-0.025005,-0.034038,-0.010661,-0.018207,-0.01964
0.0073767,-0.2062,0.3148,0.029067,-0.0028979,-0.0046389,0.011676,-0.0047321
0.036197,0.34528,-0.12441,-0.034315,-0.010972,0.025881,0.026987,0.011433
-0.034501,-0.070896,-0.33559,-0.0040693,-0.0035233,-0.012856,-0.019161,-0.010337
0.013982,0.061942,0.2138,0.010624,0.003924,-0.0038147,-0.0019186,0.015627
0.009571,0.14962,-0.036451,0.0099748,0.019307,0.005862,0.00032637,0.0030292
0.037872,-0.059636,0.16644,0.033231,0.011488,0.00021625,0.002865,-0.0016389
-0.02655,-0.084189,0.20799,-0.013233,0.0039718,0.0023464,-0.002465,-0.014347
-0.027934,-0.036539,-0.21439,-0.012179,-0.0032308,-0.027101,-0.0081647,-0.011915
-0.013649,-0.17741,-0.26359,-0.065201,-0.041416,0.013232,0.0089696,-0.0023032
0.031477,0.11597,0.25577,0.069788,0.014323,0.013877,-0.0058754,0.0066353
0.021127,0.11574,-0.032218,-0.0058176,0.0076168,0.0061006,0.0097924,0.014935
-0.06843,-0.20969,-0.0043211,-0.018795,-0.014802,-0.033428,-0.02205,-0.0164
0.059475,0.21039,0.087236,0.038421,0.025042,0.012645,0.023785,0.02207
-0.017157,-0.10758,-0.017682,-0.0062936,0.017631,0.0038877,-0.0087099,0.0053797
-0.009307,0.024813,-0.11796,-0.035972,-0.029345,0.010789,0.0057221,-0.0039539
0.059627,0.19426,0.074104,0.035169,0.016859,0.010047,-0.002996,0.0019032
-0.06803,-0.16909,-0.16075,-0.058566,-0.0078084,-0.013882,-0.0034326,-0.0082334
0.06109,0.09902,0.091914,0.034414,-0.0094846,-0.0062898,0.0045152,0.0048404
-0.076095,-0.16545,0.020706,-0.0060945,-0.027021,-0.021892,-0.018206,-0.060212
0.0052392,-0.064076,0.080319,0.046643,0.025811,0.017373,0.0064397,0.02346
0.016525,0.12982,-0.071304,-0.025919,0.016517,0.033299,0.023586,0.021772
-0.0026996,-0.075689,-0.049852,-0.012628,-0.0077334,-0.028882,-0.013888,0.01308
0.033884,0.19482,0.12231,0.01641,0.00014379,0.010449,0.018746,0.020922
0.0014987,-0.11281,-0.03867,-0.04018,-0.014457,-0.0049884,-0.011575,-0.025068
-0.013884,0.033272,0.084411,0.0052514,0.010898,-0.020499,-0.019093,-9.6104e-05
0.018838,-0.12411,-0.13385,0.027805,0.013503,0.010849,-0.0038705,0.0017898
-0.033433,0.11877,0.032494,0.011886,0.00085494,0.011018,0.018537,0.003709
-0.014814,-0.042166,-0.12036,-0.026918,-0.011792,0.0035536,0.001452,-0.010218
0.019628,-0.098618,0.039811,0.036288,-0.0091806,-0.01145,-0.007958,-0.0010519
-0.016386,0.25448,0.19226,-0.0017679,0.0083812,0.0051336,-0.0015486,-0.0078212
0.040934,-0.15456,-0.13206,-0.03968,-0.0061865,0.0064374,-0.0024511,0.00090551
-0.0039083,-0.013303,-0.042707,-0.015094,-0.0060933,-0.02322,0.0051748,-0.0058526
-0.0025684,0.037252,0.21801,0.024992,0.0086902,0.0097853,-0.017661,-0.012201
-0.05662,-0.16768,-0.24842,-0.036714,-0.016406,0.0037039,0.022695,0.013285
0.037117,0.097357,0.042286,0.065303,0.028165,0.012995,0.016609,0.031541
-0.0025122,0.06525,0.027549,-0.012829,-0.0058446,-0.0094518,0.0027696,0.011108
0.019918,0.054549,-0.042729,0.0021927,0.0067579,0.0064762,0.0042044,-0.0015377
0.026386,0.15715,0.16729,0.032126,0.019285,0.01379,-0.018501,0.00090953
-0.053336,-0.21452,0.0091139,-0.040267,-0.022758,-0.02656,-0.034305,-0.021115
-0.016056,-0.17094,-0.15786,-0.035231,-0.017598,-0.0050373,-0.0041547,-0.067988
0.067963,0.31105,-0.0053253,0.031825,-0.011881,-0.0072747,0.0096367,0.055437
-0.066854,-0.3147,-0.064143,-0.065303,-0.013193,0.014004,0.015221,-0.010128
0.032667,0.1019,0.15063,0.072273,0.041147,-0.0189,0.013004,0.016885
-0.01623,-0.053996,-0.016567,-0.015921,-0.0050224,0.019375,0.0033618,0.011958
0.013079,0.095303,-0.01033,0.037689,0.0044963,-0.0037701,0.0021872,-0.016538
0.050354,0.23987,0.044957,0.014594,0.022622,0.028864,0.001782,-0.0055603
-0.068378,-0.22758,0.016898,-0.053902,-0.021295,-0.0079219,-0.029149,0.014094
0.016368,0.06154,-0.21939,-0.011682,-0.0026643,0.002687,0.018593,0.011489
-0.023402,-0.11872,0.038971,0.00033491,0.015612,0.0055417,0.004131,-0.01322
0.023392,0.020557,0.080371,0.020794,-0.029273,-0.046682,-0.02593,0.0024719
-0.0071786,0.025539,-0.010336,-0.028918,-0.012472,0.025365,0.021928,-0.019683
0.017796,0.051343,0.22639,0.069441,0.011352,-0.020668,-0.00088309,0.0060368
0.020227,0.081003,0.062457,0.010711,0.018949,0.010563,-0.00065948,0.009038
-0.023366,-0.089981,-0.32377,-0.072665,-0.028455,-0.0057419,-0.0085933,-0.010999
-0.019359,-0.16601,-0.019071,-0.0090352,0.0022657,0.0010288,-0.0011017,0.0080873
0.0086055,0.18773,0.06238,0.045309,0.048867,0.031191,0.0063879,0.011267
-0.041316,-0.18596,-0.19594,-0.050118,-0.021325,-0.00093858,-0.0015442,-0.01741
0.041475,0.11828,0.22291,0.025275,-0.0051891,-0.024908,-0.0091061,0.0077154
0.014412,0.021458,0.039296,0.014039,-0.0044274,0.013977,0.015041,0.00050249
0.072428,0.29606,0.082939,0.018107,0.011983,-0.0015831,0.0083853,0.031174
-0.089488,-0.38702,-0.13713,-0.03251,-0.010898,0.0063562,-0.0057496,-0.040839
-0.010595,0.010346,-0.034313,0.010867,-0.0029736,-0.0014649,-0.0041228,0.019052
0.035654,0.19059,0.07896,0.0077639,-0.011239,-0.033014,-0.010413,-0.023162
-0.059917,-0.23727,0.053851,0.0051426,0.011178,0.021012,0.0063919,-0.010752
0.031204,0.11755,-0.039968,-0.0047489,-0.0059123,-0.0034245,0.0070362,0.0099208
-0.0029739,0.0056783,-0.046863,-0.0062105,0.01583,0.010976,-0.0007762,-0.0075603
-0.021304,-0.056089,-0.08438,-0.01475,-0.0092621,-0.0059319,-0.0092402,0.015239
0.062579,0.14477,0.11314,-0.014583,-0.0027938,0.00071331,0.0051754,0.039348
0.053599,0.25081,0.046126,0.049146,0.019833,-0.0080169,-0.0042304,0.0099264
-0.14199,-0.63425,-0.26132,-0.073442,-0.02718,-0.00081822,-0.013803,-0.04995
0.069345,0.27303,0.082067,0.04734,0.012442,0.0066378,0.0001056,0.007661
0.023154,0.11534,0.20161,0.028497,0.013614,0.02202,0.022034,0.0025495
-0.10134,-0.41825,-0.12169,-0.06005,-0.039484,-0.017383,-0.0026258,-0.042292
0.1095,0.37621,0.095586,0.077996,0.024752,0.013209,0.035498,0.044725
0.069429,0.17039,0.1331,0.020075,0.026326,0.0042536,-0.0121,0.021324
-0.15917,-0.13076,-0.18299,-0.04699,-0.011622,-0.013047,-0.028319,-0.042076
-0.021477,-0.2171,-0.1515,-0.061226,-0.02683,-0.030771,-0.013214,0.0032279
0.045321,0.20514,0.18698,0.031792,0.011826,-0.017404,-0.013653,-0.0064749
-0.0051954,-0.15649,-0.12924,-0.025686,-0.012837,0.035241,0.017316,0.0073012
0.046188,0.046462,0.040645,0.032348,0.0087046,0.010378,0.0094948,0.02141
0.035782,0.12417,0.018104,0.011216,-0.0014051,-0.013537,-0.013575,0.0047688
-0.028387,0.03652,0.086307,0.013246,0.027496,0.026174,0.034085,-0.00354
0.025589,0.049712,-0.0414,0.007965,-0.013588,0.0044859,0.011799,0.0041876
-0.075828,-0.31838,-0.13593,-0.058649,-0.022744,-0.0085161,-0.018085,-0.019112
0.018752,0.12348,0.11747,0.040438,0.015923,0.0024111,-0.0010914,0.0044825
-0.01897,-0.22159,0.0017105,-0.0070504,-0.014634,-0.025691,-0.023386,-0.011124
-0.0016352,-0.11441,-0.0293,0.0019735,0.010569,-0.0073279,-0.0070278,-0.011315
0.03159,0.39428,-0.022624,-0.018701,0.0054047,0.01027,0.016628,0.019564
0.025929,0.048914,0.11436,0.032033,0.008587,0.0034526,-0.0071099,0.0034931
-0.03436,0.18542,-0.018662,-0.018256,-0.011598,0.0034145,0.01559,-0.0046907
0.022438,0.067086,0.044788,0.048617,0.030276,0.01806,0.014559,0.010779
-0.030451,-0.36492,-0.11944,-0.049075,-0.030323,-0.030527,-0.025656,-0.012504
0.0098568,0.024947,0.025854,-0.01478,-0.0062391,0.0063696,-0.011144,-0.0042051
0.010328,-0.1277,-0.059563,0.0029412,0.0086343,0.011874,0.011353,0.012181
0.033317,0.063772,-0.032277,-0.011481,-0.0012378,0.0097212,0.034105,0.028725
-0.038378,-0.0671,0.014379,0.0046363,-0.019915,-0.015461,-0.020979,-0.032845
0.02196,0.17436,0.073528,0.03589,0.015587,-0.00098927,-0.0054696,0.0070219
-0.074395,-0.2422,-0.033389,-0.026925,-0.019162,-0.009262,-0.020969,-0.031452
0.024595,0.19299,0.053999,0.019372,0.017005,-0.0012043,0.0027804,0.015766
0.022593,0.099554,0.070707,0.026266,0.022942,0.0074866,0.011032,-0.0075457
-0.017415,-0.059209,-0.045541,-0.0064201,-0.0011273,0.024479,0.019354,0.015862
0.076772,0.24211,0.12702,0.030495,0.015109,-0.0051046,0.0042611,0.015741
-0.077585,-0.37001,-0.2712,-0.10529,-0.037928,-0.0033413,-0.010838,-0.015685
0.034933,0.10546,-0.02158,0.00031112,-0.004331,-0.017279,-0.002502,0.015334
-0.0080129,-0.0416,0.079179,0.035043,0.013927,-0.00015604,-0.0097552,-0.0084159
0.019509,0.0098398,0.00034381,-0.0085102,-0.0069866,-0.014508,-0.0169,0.0067858
-0.00036869,-0.012933,0.086459,0.034214,0.0029263,0.010008,-0.00041708,-0.024998
-0.021362,-0.070208,0.018129,0.015281,0.0044037,0.018777,0.024127,0.0056588
-0.020418,0.025913,-0.10224,-0.025834,-0.01825,-0.019381,-0.0057743,-0.010508
0.010163,0.17378,0.015001,0.012683,0.020947,0.028381,0.026971,0.020402
-0.031006,-0.20547,0.026293,-0.025355,-0.010685,-0.017653,-0.026262,-0.018644
0.012733,0.17576,-0.05302,-0.015079,0.0042282,0.0064964,0.021778,0.02091
0.040356,0.11229,0.088821,0.027595,0.011201,-0.0008549,-0.0088502,-0.0015195
-0.0022624,-0.085699,-0.0024305,0.0085107,0.0026144,0.014863,-0.0011489,0.0077636
0.0025483,-0.092224,-0.03905,-0.0024812,-0.021363,-0.032358,-0.0098685,-0.013887
0.039508,-0.0338,0.047929,0.033231,0.017529,0.0059243,-0.019287,0.019252
-0.03963,-0.067213,-0.039493,-0.06442,-0.0056141,0.012617,0.0020986,-0.010239
-0.039499,0.034673,-0.020777,0.0011749,-0.020427,-0.035548,0.0077684,-0.016634
-0.014834,0.070292,0.025763,0.026759,0.019961,0.010069,-0.0097104,-0.015706
0.010804,-0.21598,-0.079217,-0.026746,-0.017333,0.016842,0.020285,0.015919
0.029411,0.27977,-0.045899,-0.0030303,0.00034542,0.023955,0.019791,0.015756
0.032923,-0.01859,0.079815,0.019864,0.018065,0.00018628,-0.0033999,0.007326
-0.018032,0.069947,0.080139,0.01856,0.012071,0.00016342,0.0052056,-0.0092516
0.024635,0.077059,0.049582,0.032144,0.013262,-0.0074837,0.0062393,-0.0025922
-0.034735,-0.17734,-0.034827,-0.0018777,-0.0099331,-0.046326,-0.031878,-0.0038185
-0.063634,-0.33493,-0.008834,-0.067839,-0.034299,0.00072068,-0.031281,-0.020638
0.031469,0.22787,-0.12241,-0.0015445,0.0026097,0.032046,0.023524,0.025144
0.039516,0.20485,0.069776,0.025403,-0.00062527,-0.0070269,-0.0080617,0.00075044
0.0073685,-0.092897,-0.064978,-0.017835,0.0032123,0.039804,0.014743,0.0077406
0.013232,0.02884,0.043896,0.0098756,0.014611,-0.022706,0.021859,-0.00078638
-0.02085,0.10071,0.045177,0.023121,-0.0049382,-0.014806,-0.0021031,-0.0014247
-0.047762,-0.22102,-0.092071,-0.055791,-0.015847,-0.022398,-0.010082,-0.017629
0.034365,0.072118,0.10886,0.046825,0.013539,0.001392,-0.017615,-0.010327
-0.00068861,-0.10458,-0.00059949,0.018455,0.028747,0.048702,0.014339,0.01271
-0.0041391,-0.02301,-0.045949,-0.016192,-0.024921,-0.013373,-0.00028094,0.0046647
0.00088236,-0.025435,-0.0045718,-0.0029711,0.00074795,0.0025413,0.0086391,0.0046543
0.014601,0.12355,-0.0025293,0.0027272,0.0037936,-0.0052484,-0.0060127,0.0048952
-0.0097406,0.17419,0.0059079,-0.0076578,-0.016284,-0.021219,-0.013217,-0.0024362
0.029418,0.1024,0.050951,0.0199,0.018123,0.01709,0.01028,0.0060441
-0.024279,-0.14011,0.030298,-0.024435,-0.010629,-0.023093,-0.0059395,-0.024437
-0.022577,-0.16454,-0.040711,-0.015846,0.014324,0.022418,0.00062003,0.0075796
0.01867,-0.050796,-0.1462,-0.0010993,-0.024358,-0.0024368,0.014433,0.0082462
-0.0023404,-0.0032846,0.050525,0.0045498,0.013982,0.0041254,0.0044438,0.00091931
-0.015532,0.055582,0.027161,0.017263,-0.011078,-0.01237,-0.021265,-0.014453
0.025751,0.032322,0.050595,0.014195,0.010163,0.018554,0.00011527,0.0168
-0.0036953,0.04505,-0.026491,-0.019754,-0.0078459,-0.01239,-0.0014226,-0.0068717
0.0053214,0.0091567,0.046643,0.0095354,0.013399,-0.0036474,-0.0021914,0.0083262
-0.01767,-0.050491,-0.026675,0.00065424,0.0038889,0.013418,0.0057662,-0.007854
0.005334,0.14082,0.026637,0.0082197,-0.020569,-0.023901,0.0068273,-0.0084602
0.011768,-0.20503,-0.020785,-0.014905,0.010372,0.01693,0.008649,0.0065855
-0.013985,-0.087519,-0.021544,-0.014421,-0.0049578,-0.0050295,-0.0046897,-0.0095259
-0.0015087,0.29814,0.038976,0.024868,0.026972,0.011478,-0.0023271,0.013561
0.025966,-0.048278,-0.035264,-0.0067932,-0.011308,0.019339,0.015331,0.013362
-0.0093728,-0.049118,-0.025753,0.007528,-0.0028841,-0.0050085,0.0010691,0.0054885
-0.021186,-0.025196,0.013162,-0.018177,-0.010465,-0.030277,-0.0375,-0.025712
-0.0012012,-0.11756,-0.050445,0.0021701,-0.018514,-0.017198,-0.0066395,-0.017773
0.0041665,0.032934,0.097218,0.022034,0.027703,-0.0044781,0.015699,0.013653
-0.012499,0.12937,-0.018952,-0.020591,-0.012261,0.0083196,-0.0092271,0.0060513
0.019374,-0.078131,-0.038224,-0.023574,-0.005335,0.021629,0.012723,0.014102
0.021725,0.027756,0.016956,0.013623,0.001888,0.020161,0.011605,-0.0012621
0.010019,0.09556,-0.0014344,0.021088,0.025269,0.0119,0.011124,0.0068319
-0.039565,-0.093526,0.023526,-0.0088241,-0.01318,-0.026613,-0.012048,-0.031931
-0.018211,-0.063172,-0.0263,-0.0059179,0.0037262,-0.009629,0.0045347,-0.00036556
0.042166,-0.0091022,0.05852,0.029398,-0.0022728,0.015674,-0.0018223,0.023403
-0.03099,0.013444,-0.028532,-0.0050767,-0.0079883,-0.013541,-0.015777,-0.015321
0.042969,0.1054,0.03882,0.0070884,0.017518,-0.011641,-0.0063848,0.00062814
-0.025454,0.039601,-0.045658,-0.020771,-0.019818,-0.0022853,0.01046,0.016522
0.021355,0.026543,-0.017304,0.020172,0.012558,0.0065972,0.003319,0.0010503
-0.035275,-0.16047,-0.071638,-0.050019,-0.01832,0.014983,0.0033567,-0.0067934
0.00032538,0.017924,0.034097,0.01095,0.012527,-0.00052029,-0.0050298,0.00074434
-0.004075,-0.046917,0.051123,-0.015228,0.0036488,-0.00077044,0.001714,-0.015429
-0.00088624,0.013279,-0.018948,0.012757,-0.005661,-0.0091159,0.00033927,0.0072028
-0.0050126,-0.011234,-0.0025621,0.017556,-0.0072861,0.0057776,-0.001112,-0.0094191
0.031017,0.052411,0.015759,0.0076815,0.0069121,0.020552,-0.0024021,0.020755
0.006,0.05627,0.036912,0.022672,0.013786,-0.011582,0.004494,0.0041144
-0.0018703,-0.015494,-0.017003,-0.023253,-0.017714,-0.020211,-0.0037025,-0.012318
-0.00063166,-0.007577,-0.068318,-0.020904,-0.0093892,-0.0052115,0.0043415,-0.004975
0.032701,0.2035,0.10851,0.044865,0.023063,0.0023023,-0.0026294,0.0027963
-0.066506,-0.25125,-0.042562,-0.021931,0.0013062,0.018078,0.0065393,-0.0045965
0.0058695,-0.0062666,-0.015139,-0.018891,-0.004664,-0.012494,-0.015203,-0.0037529
-0.0084342,-0.078318,0.0021054,0.014285,0.0047861,0.0043296,0.00222,0.013031
0.023141,0.063497,-0.01496,-0.00095593,-0.0019398,0.013758,0.011667,0.022149
0.014624,0.10719,-0.011704,-0.010066,-0.0094721,-3.5641e-05,0.0050647,-0.01566
-0.025996,-0.094365,-0.018769,-0.012872,-0.0022939,0.001739,-0.0021764,-0.00684
0.018804,0.10132,0.058774,0.014515,0.0040377,-0.0046475,-0.0023734,-0.0062213
-0.0067977,-0.037993,-0.027539,0.010251,-0.0058637,-0.011637,-0.011167,0.001762
0.007018,-0.049291,-0.010466,0.014142,-0.0003815,-0.003767,0.0028056,-0.0062885
-0.025295,-0.032446,-0.02142,-0.027787,-0.018153,-0.012327,-0.0071025,0.0010041
0.037163,0.083889,0.065505,0.010026,0.034969,0.025278,0.0062954,0.00038379
-0.055485,-0.15322,-0.046342,-0.036161,-0.012596,-0.015747,-0.011347,-0.0079603
0.056083,0.17738,0.064388,0.044611,0.018964,0.013317,0.010593,0.022996
0.0044647,0.0037914,-0.03321,0.0098654,-0.0032226,0.011218,0.017651,0.015201
-0.023184,0.011333,-0.0049051,-0.015957,-0.016888,-0.0061258,0.0021166,-0.0001051
0.011787,0.056946,0.061468,0.021091,0.016678,-0.0072216,0.0030208,-0.015194
-0.031669,-0.15065,-0.046772,-0.0047853,-0.020106,-0.0075239,-0.018843,-0.022377
0.017962,0.035407,0.012855,-0.00054826,0.013019,0.00086396,-0.0090086,-0.0061592
-0.0036438,-0.018303,-0.088334,-0.052641,-0.017021,0.0023085,-0.0067961,0.0099136
-0.0185,-0.16288,-0.045419,-0.0050327,0.0068364,0.0045217,0.010978,0.010142
0.043694,0.14993,0.080045,0.032989,0.0064941,-0.00049475,-0.0027863,0.01011
-0.020088,-0.0075589,-0.015203,0.0070875,-0.0022638,0.010441,0.022045,0.0019919
0.0012738,-0.023879,0.037608,0.0037301,-0.011379,-0.017659,-0.0084024,-0.0063905
0.014279,0.17303,0.052393,0.0157,0.010673,0.016457,0.0073784,-0.007188
-0.012035,-0.048638,-0.032361,-0.026757,-0.0061765,-0.004684,-0.0087202,0.015294
-0.030489,-0.10283,0.0025131,-0.0060196,0.00073402,-0.010991,-0.0097247,-0.016962
0.045148,0.11124,0.0475,0.046919,0.039272,-0.0025971,-0.0032733,-0.002252
-0.027061,-0.095331,-0.10892,-0.055381,-0.023431,0.012659,0.0030517,-0.0029164
-0.012563,-0.013345,0.0089807,0.015082,-0.015637,-0.012018,-0.0061239,-0.0031853
0.018398,0.035242,0.025335,0.00021956,-2.4347e-05,0.009478,0.0163,0.0048476
0.011081,-0.013282,-0.044967,0.001224,-0.00019942,0.0070743,-0.0076478,0.013376
0.027806,0.12962,0.10229,0.041132,0.014971,0.0044853,0.0080157,0.014485
-0.048894,-0.16858,-0.072131,-0.044477,-0.017051,-0.021443,0.00071615,-0.023281
0.022831,-0.00056166,0.017853,0.017584,0.013156,-0.00014235,0.0015208,0.016988
-0.038601,-0.13031,-0.02581,-0.022773,-0.019286,-0.017349,-0.0054484,-0.013444
0.01654,0.1472,0.0083767,-0.0013903,0.018603,0.036429,0.01079,-0.0054558
0.055284,0.20099,0.081987,0.035125,0.0098162,0.012772,-0.0046741,0.017363
-0.031754,-0.17073,-0.077796,-0.045646,-0.022051,-0.018088,-0.012907,-0.023121
-0.017864,0.06397,0.021747,0.0067446,0.0012264,-0.0094365,-0.013909,0.0060485
-0.03557,-0.13408,-0.072134,0.0052068,-0.0062632,-0.00054488,0.00025225,-0.012039
0.040514,0.078058,0.086064,0.028159,0.025734,0.00055889,0.014171,0.0011006
0.015491,0.058383,0.019755,0.0054103,0.0033371,0.017129,0.012487,0.030223
-0.016526,-0.054129,-0.044728,-0.00061288,-0.011132,-0.0056408,0.011078,-0.0024681
-0.0084237,-0.058029,-0.006239,-0.013589,-0.0022319,-0.020919,-0.013292,-0.0029942
0.00078761,0.013981,-0.021595,-0.018249,-0.0091754,0.0025796,-0.0058208,-0.010326
0.026582,0.067109,0.033539,0.00063503,0.0070209,0.002449,-0.0055485,-0.0010772
-0.017312,-0.10229,-0.02905,-0.011995,-0.0083216,0.010064,-0.0047231,-0.0066733
0.03271,0.13863,0.063385,0.045135,0.0073888,0.0099205,0.019967,0.0038625
0.0042845,0.032591,0.036799,-3.1871e-05,0.0074249,0.009925,-0.00196,0.022389
-0.048323,-0.15385,-0.10926,-0.038183,-0.023677,-0.028938,-0.0081887,-0.013933
-0.023819,-0.075765,-0.007848,0.0010324,0.0079576,-0.0051098,-0.0067134,-0.01166
0.0074143,0.018046,0.012923,-0.0072759,0.00081124,0.0032397,0.0023073,0.0055339
0.029878,0.15987,0.031434,0.030784,0.017323,0.01947,0.0031243,0.0062656
0.0047785,0.10041,0.032531,0.0059728,0.010455,-0.0033878,0.0034678,-0.0016705
-0.0050495,-0.081943,0.0012221,-0.0034826,-0.0044044,-0.0029277,0.011114,0.0052604
-0.007107,-0.1139,-0.046141,-0.0053341,0.0037501,-0.0026638,-0.01299,-0.011809
-0.0089836,-0.074002,-0.038491,-0.015177,-0.019957,-0.0026409,0.0015261,-0.0057438
0.059733,0.22468,0.071759,0.029514,-0.020905,-0.0028637,-0.0077343,0.0081143
-0.035348,-0.14025,-0.058531,-0.043089,0.00098906,0.0045151,0.0062443,-0.0090407
0.0025558,0.096511,0.047649,0.017106,0.014705,0.0039345,0.0045646,0.013291
