-0.013092,0.17682,-0.02374,-0.026477,0.033604,0.037318,0.02355,0.039433
0.047523,0.075333,0.059739,-0.041374,0.001296,-0.0032241,-0.017173,0.0068998
-0.0072366,-0.25736,-0.071111,-0.060439,-0.030457,-0.027707,-0.010934,-0.0015325
-0.035446,0.115,0.012754,0.07252,0.00085872,0.010716,0.01127,0.014511
0.057376,-0.12187,-0.13528,-0.14309,-0.037585,-0.020838,0.010582,0.016142
-0.10374,-0.087141,-0.056148,0.0025318,0.010398,0.010344,0.0027231,-0.043602
0.20707,0.58445,0.44327,0.30469,0.082182,0.026022,0.034515,0.10836
-0.13648,-0.52271,-0.13151,0.01155,-0.025554,0.010462,-0.01924,-0.059784
-0.0032309,-0.073623,-0.079329,-0.12092,-0.01619,-0.044243,-0.033842,-0.056482
-0.051121,0.18934,-0.13592,-0.10982,-0.015002,0.010289,0.021633,0.0083074
0.20283,0.063661,-0.020407,-0.096555,-0.037862,0.0021742,0.014111,0.017003
-0.078095,-0.050821,0.049153,0.083001,0.071317,0.0095867,-0.025279,0.055425
-0.057971,0.12136,0.14482,0.054822,0.023442,0.0091896,0.012901,-0.055923
-0.15786,-0.25325,-0.1293,-0.07004,-0.064176,-0.014502,-0.019532,0.019365
0.045576,0.046758,0.0031418,0.18704,-0.011576,-0.022268,-0.02062,-0.077426
0.054096,0.14894,0.0059177,-0.16403,0.0097517,0.032913,0.041338,0.076295
0.064638,-0.10086,-0.04055,-0.02779,-0.01539,-0.012923,-0.028572,-0.018848
-0.015497,-0.084206,0.13077,0.11255,0.046193,0.0043145,0.019884,-0.010906
0.001361,-0.050893,-0.057933,-0.0082187,-0.0005661,-0.0013883,0.030447,0.045476
0.051941,0.15429,0.1348,0.078432,-0.022803,-0.030215,-0.012783,0.0015364
0.13472,0.22448,-0.066031,-0.034481,0.034002,0.050366,0.0068699,-0.010554
0.02911,0.031607,-0.02966,-0.058869,-0.0023819,-0.0099934,-0.051878,-0.0072453
-0.14153,-0.12304,-0.086277,-0.073823,0.00038686,0.046156,0.05248,0.073135
-0.33906,-0.25042,-0.089174,-0.11137,-0.067561,-0.078371,-0.024377,-0.10599
-0.079062,-0.28255,0.062061,0.077946,0.0042926,-0.03221,-0.032794,-0.083982
0.41293,0.33409,0.054418,0.21251,0.075055,0.051786,0.066247,0.15489
-0.017647,0.32621,0.05981,-0.11428,-0.0037822,0.040937,-0.016037,-0.060762
-0.048621,-0.23465,0.0083349,-0.059093,-0.044587,-0.041025,-0.021271,-0.027045
0.0090504,-0.033988,-0.068179,0.15092,0.015453,0.025054,-0.042447,0.045961
-0.0078457,0.024264,0.065239,-0.11774,-0.026353,-0.072865,0.022806,0.0027721
0.15852,-0.26863,-0.012769,0.18121,-0.01328,0.032845,0.0033196,-0.0076588
-0.070713,0.46402,0.081013,-0.054156,0.070719,0.014407,0.047983,0.077332
-0.13423,-0.41752,-0.34845,-0.34719,-0.070943,-0.010789,-0.030607,-0.13308
-0.0020389,0.13357,0.25368,0.20116,0.046197,0.058852,0.009459,0.040275
-0.19859,0.25708,-0.096972,-0.040875,0.047027,0.0044618,0.026974,0.010792
0.60379,0.068848,0.083777,0.084233,-0.045295,-0.033543,0.013392,0.043422
-0.43854,0.05976,0.13931,0.030837,0.034497,-0.024128,0.022722,0.059557
0.081334,-0.31781,-0.032446,-0.043928,-0.057677,-0.045565,-0.062644,-0.050312
-0.20288,-0.33705,-0.18201,0.055607,-0.048599,0.011487,-0.12554,-0.12964
0.084636,-0.10604,-0.14573,-0.061394,0.0148,0.076784,0.08446,-0.044879
0.05359,0.52573,0.38876,0.19815,0.07793,-0.029237,0.013418,0.15807
0.19575,0.013592,-0.18773,-0.11195,-0.023078,0.013832,0.045042,-0.090073
0.017673,-0.094089,0.062852,-0.14101,0.0010485,-0.044023,-0.03865,0.0082847
-0.16227,-0.01592,-0.085214,-0.061478,-0.01361,-0.01548,0.012727,0.11739
0.25536,-0.042566,-0.17781,-0.11578,-0.0045263,0.036591,-0.035365,0.0023262
-0.22337,0.31489,0.20791,0.29775,-0.034312,0.017908,0.035061,-0.025641
0.017946,0.012989,0.21336,0.030974,0.13119,0.060671,0.11337,-0.022969
-0.020088,-0.12483,-0.11417,0.099878,-0.039558,-0.015374,-0.0050634,0.031809
-0.44487,-0.2978,-0.079371,-0.042089,-0.085865,-0.093415,-0.18886,-0.30841
0.03568,-0.094172,-0.24518,-0.24622,0.0077278,0.03743,0.17038,0.36923
0.47176,0.15007,0.19226,0.089264,0.022447,-0.044389,-0.091671,0.21278
-0.063432,-0.015893,0.08336,-0.058891,-0.025964,-0.025693,-0.068151,-0.50364
0.72871,0.27169,-0.08104,-0.1047,0.02678,0.055353,-0.0076785,0.15127
-0.89369,-0.12982,0.088316,0.092255,-0.0065608,-0.011263,-0.025546,-0.17943
0.20891,0.18441,-0.011289,-0.077995,-0.00074444,0.017388,0.036485,0.10077
-0.49672,-0.20921,0.36167,0.76635,0.13817,0.063571,0.14879,0.1898
0.49485,-0.13383,-0.46458,-0.5166,-0.097504,-0.013369,-0.01588,-0.012002
0.38456,-0.047301,-0.13751,-0.021812,-0.027942,-0.0029079,-0.02786,-0.16783
-0.56359,-0.27706,-0.17093,-0.31254,-0.082689,-0.038522,0.18225,0.39383
0.16517,0.58108,0.14058,-0.044951,0.035314,-0.034999,-0.3324,-0.34414
-0.64808,0.33496,0.4243,0.43832,0.029377,0.038309,0.12175,0.07697
0.54382,0.17321,0.22103,0.076823,0.087113,-0.014269,-0.074079,-0.11101
0.13182,-0.75563,-0.32783,-0.32984,-0.088392,-0.059992,0.047775,-0.019802
0.19412,-0.20903,-0.26168,0.12753,0.026039,0.04974,0.033757,0.20821
-0.06649,0.21331,0.13688,-0.13435,0.015854,0.01052,-0.045591,-0.045106
0.044715,-0.093718,0.053227,0.12854,-0.0024424,0.041348,0.13858,-0.06105
-0.43365,0.26762,-0.14801,-0.067649,-0.014007,-0.021732,-0.33462,-0.3311
0.13917,0.080616,0.093015,-0.14579,-0.089913,-0.069451,0.11385,0.33347
0.029884,-0.21288,-0.062016,0.14151,0.13643,0.12446,0.24246,0.16065
-0.15011,0.24458,0.42415,0.61067,-0.022815,-0.018501,-0.096995,-0.18415
-0.023098,-0.11075,-0.066602,-0.21163,-0.020715,-0.01428,0.29065,0.18289
0.37471,-0.022519,-0.44025,-0.65008,0.018193,0.012033,-0.19655,-0.10478
-0.14975,-0.19638,0.1954,0.21388,-0.038033,-0.13463,-0.34016,-0.20314
-0.44699,-0.2539,-0.17248,0.081885,-0.00070817,0.022904,-0.054324,0.12219
0.52149,0.23559,-0.024601,-0.029791,-0.040379,0.024578,0.26279,0.027295
0.44093,0.63753,0.18982,0.16277,-0.0073695,0.03541,-0.067991,-0.12876
-0.32504,-0.22421,-0.096151,-0.39102,0.036715,-0.0063211,0.18824,0.25519
-0.53845,-0.20737,0.025889,-0.07711,0.0062609,0.016951,-0.15567,-0.37605
0.117,0.14993,0.26729,0.5384,0.072778,0.01131,0.1112,0.16447
0.26336,0.083586,0.12663,-0.0025506,0.071169,0.06197,0.17603,0.82935
0.11024,-0.43419,-0.21161,0.16036,-0.086029,-0.004079,-0.078921,-0.74891
-0.42769,-0.26433,-0.25138,-0.43494,-0.048955,-0.07877,-0.3729,-0.24992
0.42549,0.37596,-0.10618,-0.18976,-0.022255,-0.014842,-0.049998,-0.087301
-0.037233,-0.14184,0.040728,0.00909,-0.014746,-0.047447,0.038125,0.028795
-0.58459,0.19617,0.35883,0.9621,0.012358,0.034153,0.39149,0.42728
0.95994,0.6467,0.042572,-0.61548,0.098633,0.050697,-0.15399,0.17892
-1.0406,-0.84673,-0.094784,-0.21779,-0.1141,-0.012481,0.15929,-0.16952
-0.014215,-0.060982,-0.1681,0.10845,-0.038247,-0.075944,-0.20817,-0.33747
0.96832,0.295,-0.10349,-0.23589,0.10142,0.13516,0.22749,0.72868
0.021055,-0.15441,0.0017817,0.113,-0.021626,-0.096628,-0.26066,-0.61273
-0.22833,0.47836,0.24582,0.45766,0.023457,-0.020368,-0.21952,-0.19828
-0.059468,-0.38977,-0.17243,-0.42266,0.065309,0.12224,0.35923,0.17517
-0.70481,0.29786,0.077379,0.00027832,-0.021215,0.042129,-0.039043,-0.08548
1.0424,0.090271,0.065866,0.057357,-0.041522,-0.089286,0.063573,0.3724
-0.31166,-0.36071,0.056903,-0.14209,-0.043613,-0.10874,-0.22212,-0.075032
-0.99958,-0.85438,-0.093733,0.5395,-0.091318,0.0061926,-0.058987,-0.24722
0.76447,0.71848,0.14034,-0.036437,0.0093165,-0.042484,0.069301,0.020319
0.36999,0.46127,-0.03524,-0.26812,0.22578,0.23628,0.42056,0.81346
-0.62098,-0.54468,-0.33629,-0.0074364,-0.060172,-0.017989,-0.14657,-0.45411
0.32933,0.75119,0.10859,-0.097544,-0.036846,-0.064047,-0.21934,-0.73595
-0.095123,-0.52264,0.15697,0.13621,-0.0015895,-0.0041696,0.12248,0.20195
-0.2291,-0.090061,-0.15966,-0.14402,-0.11856,-0.15903,-0.19303,0.15625
0.86268,0.29276,0.40304,0.055422,0.12816,0.12766,-0.026613,0.15795
-0.55919,-0.57679,-0.36222,-0.12024,-0.026419,-0.0029866,0.113,0.26903
0.86573,0.40228,-0.1072,0.054517,-0.011071,0.020179,-0.016861,-0.13646
-1.01,0.087832,0.03199,-0.10015,-0.012285,0.049797,0.21651,-0.20833
-0.02766,-0.1318,0.027854,0.14162,-0.013463,-0.084842,0.0007776,0.50506
-0.72117,-0.11092,0.14831,0.40228,0.040858,-0.023271,-0.15583,-0.73977
0.65209,0.33512,0.034403,-0.6828,0.010528,0.001015,-0.17457,-0.037215
0.67342,-0.31175,0.16906,0.7375,-0.041823,0.019812,0.19543,0.33947
-0.53499,0.16569,-0.17718,-0.43362,0.071134,0.080154,-0.091667,0.14139
0.32141,0.57983,0.15627,0.20536,0.020912,0.0021274,0.0044208,-0.19991
0.075597,-0.89584,-0.021222,0.22747,-0.03663,-0.058534,0.13338,0.38827
-0.43329,0.10928,-0.48488,-0.7699,-0.047053,0.022505,0.16358,-0.31021
-0.47767,-0.55623,0.023192,0.36735,-0.03379,0.010235,-0.3727,-0.58971
0.8864,0.64441,0.075413,-0.25099,-0.035614,-0.07236,0.26749,0.92687
-0.6649,0.31797,0.12857,-0.036169,0.026102,-0.069216,-0.44669,-0.61064
1.0742,0.2965,0.3433,0.60229,0.089411,0.12912,0.29719,0.4388
-0.058349,-0.51974,-0.29189,-0.48683,0.014105,-0.00053538,0.037532,-0.12867
-0.67733,-0.15476,0.054042,0.060099,0.011243,0.0030357,0.14016,0.10698
-0.69285,-0.34586,-0.15698,0.050069,-0.020992,-0.039695,-0.22506,-0.29458
0.73726,0.58172,-0.082477,-0.10325,-0.12229,-0.081941,-0.076219,-0.19625
-0.36256,0.074899,0.43817,0.96409,0.065842,0.12591,0.49031,0.46849
0.42504,-0.11531,-0.045565,-0.941,0.089252,0.044134,-0.38713,-0.3352
0.51113,0.23121,-0.1492,0.30737,-0.060827,0.015687,0.094671,0.58507
-0.92693,-0.64081,-0.19137,-0.28204,0.028929,-0.014869,-0.08798,-0.061394
0.73332,0.69497,0.2682,-0.12094,0.0065761,-0.094887,-0.13707,-0.18857
-0.47246,-0.55153,-0.12513,0.53772,-0.1591,-0.11503,0.12179,-0.49745
-0.15061,-0.45701,-0.020342,-0.19654,0.0089278,0.058007,-0.042285,0.016084
-0.1591,0.48979,-0.21216,-0.65653,0.15204,0.12045,0.20279,0.14672
0.78307,0.82503,0.38989,0.44453,0.021152,-0.051489,-0.10019,0.17408
0.32255,-0.22693,-0.17677,0.01185,0.015632,0.1059,0.098513,0.41627
-0.66086,-0.58237,-0.19439,-0.025972,-0.10595,-0.10954,-0.2543,-0.31034
-0.38972,-0.29098,0.22613,0.71931,-0.085288,-0.10349,0.028646,-0.42633
-0.40725,0.21364,-0.17613,-0.63966,0.11686,0.12405,0.17192,0.2072
1.0011,0.18391,0.28081,0.22596,0.00035754,0.06473,8.4047e-05,0.24971
-0.41097,0.57361,0.096477,-0.47458,0.06474,-0.024636,0.12564,0.13966
0.50905,-0.78251,-0.12292,0.067702,-0.10472,-0.051522,-0.45649,-0.39654
-0.16385,0.13612,-0.015372,0.68416,0.092748,0.068801,0.45215,0.70374
0.18558,0.42704,-0.024574,-0.43463,-0.062336,-0.047395,-0.058051,-0.23721
-0.27089,-0.21115,-0.13314,-0.23809,-0.047113,-0.07239,0.23816,-0.54245
-0.13246,-0.25138,0.10722,0.26317,0.091233,0.072136,-0.37685,-0.3047
0.20743,0.38916,-0.064046,-0.025771,-0.1473,-0.13651,-0.43073,-0.0036335
-1.0798,-0.54888,0.032399,-0.13558,0.089111,-0.0019175,0.019444,0.21196
0.57674,0.059742,-0.20299,0.0060572,0.074398,0.18021,0.36277,0.78823
0.08387,0.38871,0.13988,0.23021,-0.0033534,0.020174,0.15189,-0.087008
0.79939,0.073738,0.19871,-0.20211,-0.01853,0.0028402,0.093863,-0.15772
-0.37529,-0.45219,-0.23248,-0.061596,-0.12682,-0.090612,-0.17728,-0.69434
0.35575,0.22013,0.12395,0.091017,0.062856,-0.010743,-0.07743,0.27926
-0.61365,-0.32128,0.052019,0.17023,0.035202,0.022815,0.73276,0.42359
0.0062049,0.27595,-0.17374,0.0032673,-0.022118,0.0091006,-0.67456,-0.39226
0.3399,0.71455,0.39145,0.0023044,0.10185,0.048877,0.061633,0.90274
-0.54995,-0.16297,-0.14478,-0.053722,-0.061747,-0.10831,-0.35262,-0.79208
0.31515,-0.51427,-0.066049,0.08317,-0.067768,0.037549,0.20507,-0.03685
-0.56031,-0.13708,-0.085606,-0.25999,0.052363,-0.091232,0.016218,-0.3345
0.96369,-0.39059,-0.39277,-0.40331,-0.021809,0.092066,-0.033369,0.18221
-0.46276,0.1952,0.26918,0.67033,-0.016943,0.096191,0.35825,0.39894
-0.00057323,0.49712,0.11066,-0.27103,0.012179,-0.10141,-0.38096,-0.10904
-0.35706,-0.10045,-0.07171,-0.091829,-0.05177,-0.03134,0.036193,-0.28112
0.55695,0.012321,0.2451,0.43684,0.064399,0.041086,0.020612,0.0993
0.063904,0.11535,0.16966,-0.12109,0.17281,0.16267,0.47329,0.76315
-0.49173,0.072575,-0.33053,-0.17941,-0.21138,-0.25295,-0.63705,-0.99045
0.94416,-0.11301,0.2431,0.51882,0.098828,0.14516,0.42921,0.15082
-0.79386,-0.095451,-0.44665,-0.58279,-0.03756,-0.057823,-0.09044,0.68446
-0.097836,-0.55208,-0.11146,-0.22856,-0.14417,-0.096984,-0.27233,-0.94079
0.00023902,0.41905,0.40494,0.63405,0.091577,0.12081,0.33032,0.76967
0.65714,0.13586,-0.26385,-0.72351,0.021524,0.0091931,-0.13188,-0.26777
-0.50792,0.43436,0.35233,0.38448,0.036732,0.013204,0.16518,0.12199
-0.022898,0.059446,0.036534,0.21416,0.0986,0.046824,-0.25684,-0.15767
0.061548,-0.80392,-0.029609,0.013928,-0.20656,-0.17113,-0.10032,0.16609
-0.68044,-0.0078153,-0.30513,-0.15531,0.074625,0.00014298,0.028435,-0.66291
0.47253,-0.5595,-0.093006,-0.060543,-0.0031155,0.076511,0.079497,-0.07092
0.35702,0.72883,0.022112,0.10993,-0.010205,0.0035218,0.066271,0.25894
0.76807,0.27766,0.11126,-0.089064,0.076552,0.10168,-0.013653,0.82314
-0.68892,0.13737,0.3541,0.14856,-0.032205,-0.050764,0.22685,0.015639
-0.32383,0.073639,-0.078262,-0.025895,-0.0086201,-0.04744,-0.25651,-0.48976
0.67078,0.27081,-0.093431,-0.29571,0.014341,-0.0053821,0.13845,0.088821
-1.0056,-0.43278,-0.052393,0.14117,-0.033618,-0.010262,-0.042653,-0.30346
0.50533,-1.0043,-0.097225,-0.19412,-0.12105,-0.046061,-0.24779,0.090864
-0.928,0.45662,-0.22107,0.031446,0.12735,0.075212,0.20708,-0.22819
1.0023,0.32068,0.38827,0.75101,-0.038076,-0.067822,0.39655,0.52114
-0.75478,0.14765,-0.23771,-0.69822,0.1329,0.12678,-0.49483,-0.55868
0.8737,-0.38396,-0.043765,0.057448,-0.10187,-0.075184,0.046641,0.50965
-0.018041,0.66313,0.33776,0.33457,0.054336,0.037085,-0.16718,-0.27376
0.19288,-0.78901,-0.18676,-0.19291,-0.10195,-0.0759,-0.042015,0.058782
0.54136,0.60352,0.25726,0.19474,0.15544,0.093,0.35312,0.20013
-0.93052,0.012498,-0.24509,-0.37658,-0.13478,-0.089849,-0.13644,-0.11906
-0.15616,-0.23419,0.047293,0.032503,-0.011829,0.054406,0.12342,0.081097
-0.53505,-0.035129,-0.022801,0.25377,-0.014738,-0.0061922,-0.16348,-0.30549
-0.0023304,-0.085354,-0.13561,-0.29277,0.067692,0.0013393,0.57322,0.7879
0.90063,0.10831,0.021389,0.16681,0.063996,0.076895,-0.51848,-0.63275
-0.36554,-0.13201,-0.051211,-0.26333,-0.11129,-0.16987,-0.032859,-0.23095
0.027178,0.30556,0.17882,0.32713,0.0032104,0.019507,-0.24355,-0.19902
0.6162,-0.16194,0.16573,0.12276,0.087505,0.07562,0.2717,0.4056
-0.80618,-0.2268,-0.1676,-0.31686,-0.014494,0.0073078,0.037329,0.01103
0.61123,0.2855,-0.1798,0.028232,-0.0528,-0.036034,0.14854,0.55316
-0.15105,0.064398,0.27017,0.47387,-0.004147,0.055694,-0.26035,-0.64266
-0.31823,-0.40482,-0.20029,-0.6106,-0.03289,-0.060894,-0.047518,-0.19065
0.40661,0.54955,0.19015,0.32259,0.048103,-0.010842,0.13907,0.38612
-0.28098,-0.22989,-0.011472,-0.015777,0.090005,0.10385,-0.075994,0.061957
-0.41043,0.17685,-0.13296,-0.31432,-0.032539,-0.022232,0.48561,0.19184
0.85075,-0.22469,-0.08784,0.13605,-0.11667,-0.085304,-0.48285,-0.36276
-0.88843,-0.46809,-0.04732,-0.010797,0.024984,0.0074895,0.17254,0.14226
1.0933,0.86635,0.38762,0.53149,0.095563,0.06789,0.15277,0.030002
-0.68364,-0.73899,-0.34531,-0.50547,-0.092284,-0.053051,-0.48886,-0.0074121
-0.93978,-0.12189,-0.1449,-0.030414,-0.053964,-0.050871,-0.12002,-0.81469
0.90112,0.81739,0.47211,0.36889,0.14824,0.090109,0.31451,0.45312
0.32805,0.030192,-0.0039064,-0.32404,-0.063643,-0.043902,0.097213,0.36134
0.36688,-0.37565,-0.067329,0.0083354,0.068261,0.063136,0.057774,-0.11771
-0.3966,0.349,-0.064069,-0.046561,-0.01857,-0.0023666,0.11957,0.43352
0.097756,-0.13935,0.051155,0.23244,-0.066372,-0.052446,-0.23968,-0.32603
-0.46631,-0.87023,-0.37851,-0.15183,-0.012655,-0.032009,0.097936,-0.09781
0.0086389,0.3783,-0.008751,-0.3295,0.009848,0.012381,-0.21884,-0.19364
0.073706,0.2198,0.20893,0.25595,0.024756,0.041849,-0.049395,0.23798
-0.44554,-0.20076,-0.012274,0.23004,-0.0067429,0.025201,0.19195,-0.20188
0.22289,0.67485,0.3222,0.1308,0.017169,-0.045453,-0.02648,0.017412
0.78153,-0.44049,-0.043498,0.065175,-0.051769,0.032838,0.14636,0.28592
-0.47278,0.37511,-0.155,-0.40762,0.10679,-0.0057759,0.022429,0.072007
0.63216,-0.10674,-0.176,-0.0019287,-0.09323,-0.044327,-0.047097,-0.062027
-0.56688,-0.56875,0.088376,0.092042,0.058795,0.065458,-0.14046,-0.40526
-0.099535,0.11846,-0.18325,-0.31459,-0.03132,-0.082762,-0.10116,-0.090475
-0.017848,0.49885,0.33575,0.31749,-0.035932,-0.043698,-0.022409,0.20252
-0.27126,-0.36687,-0.020365,0.13858,0.060142,0.11234,0.049588,0.29353
-0.3242,-0.25237,-0.042294,-0.12946,-0.063726,0.0025464,-0.009699,-0.13885
0.66337,0.73429,0.096784,0.040629,0.15484,0.033121,0.42474,0.2241
0.4444,-0.60738,-0.25231,-0.24571,-0.13562,-0.03819,-0.19457,-0.09608
-0.33173,0.14785,-0.011481,0.03045,-0.020721,-0.016132,-0.0015432,-0.062049
0.044409,0.38621,0.085619,0.097858,2.5004e-05,-0.025701,-0.013146,-0.12012
-0.23566,-0.51461,0.21218,0.53533,0.036528,0.0035142,-0.26179,-0.20771
0.056996,-0.39717,-0.46612,-0.71272,-0.07482,-0.084543,0.033166,-0.21412
-0.25551,0.40956,0.26323,0.26547,0.095909,0.11662,0.1297,0.5739
0.43856,0.35563,0.026351,0.06038,0.0721,0.013461,0.052191,0.14357
0.40105,0.38902,0.034657,-0.23007,-0.045028,0.012366,0.013095,-0.096102
-0.81462,-0.145,0.22535,0.55484,-0.0060088,-0.011662,-0.1421,-0.31488
-0.011491,-0.35426,-0.22279,-0.5952,-0.053588,-0.05872,-0.044658,-0.089819
0.22889,-0.071658,-0.10009,0.037277,-0.016286,0.0038601,0.10329,0.20388
-0.024578,-0.22117,0.076614,0.038203,0.035508,0.074399,0.051895,0.12733
-0.4678,-0.41886,-0.10763,-0.044463,-0.038525,-0.042438,0.089517,0.076606
0.65575,0.30814,-0.06727,0.15037,0.043518,0.012835,0.12877,0.064533
0.23328,0.4425,0.096223,0.093268,-0.045615,-0.095483,-0.22278,-0.23189
-0.9449,-0.16535,0.023878,-0.1909,0.0074688,0.0079119,-0.18563,-0.18962
0.91579,0.084137,0.17712,0.42361,-0.0074635,0.073296,0.18432,0.08118
-0.010448,0.92924,0.14224,-0.0084745,0.15992,0.093001,-0.12117,0.073241
0.034408,-0.8238,-0.29156,-0.58145,-0.068633,-0.073675,0.06237,-0.078948
-0.45776,-0.6834,-0.26501,-0.061782,-0.13907,-0.091133,-0.060873,0.087922
0.20922,0.34825,0.12788,0.20593,0.0648,0.047867,0.072992,0.052877
-0.33614,0.057165,0.082079,0.017857,0.010468,0.022273,0.090288,-0.041488
-0.17279,0.10419,0.36292,0.6158,0.032605,0.034427,0.0075729,-0.061306
0.02224,0.18959,-0.16253,-0.37524,0.059822,-0.0023014,-0.002902,0.1809
0.26224,0.25663,-0.072138,-0.29853,-0.025741,-0.010245,0.019622,0.19979
0.89014,-0.2738,-0.13079,0.08921,-0.083578,-0.005138,-0.081678,-0.20151
-1.0479,-0.39362,-0.032486,-0.069766,-0.050688,-0.10387,-0.16691,-0.21996
0.27421,0.086164,-0.04108,0.10158,0.019303,0.037966,0.18513,-0.17714
-0.16332,-0.066508,-0.02967,0.03506,0.049703,0.038505,-0.072884,0.16849
-0.031493,0.10407,0.21426,0.013682,-0.012646,-0.015303,0.019807,0.10606
0.36314,0.06874,-0.0038141,0.015034,-0.0023735,0.025874,0.049194,0.1049
-0.061649,0.14094,-0.0045731,-0.054639,0.057909,0.045455,-0.047012,-0.021691
0.32934,0.35136,0.17132,0.11604,0.051196,-0.011029,0.090853,-0.04639
-0.4226,-0.3957,-0.29126,-0.23286,-0.07767,-0.04218,-0.02908,0.015696
-0.15797,0.26415,0.21387,0.41935,0.014069,0.029662,0.0075917,-0.014893
0.15193,-0.60946,-0.18359,-0.32872,-0.010797,-0.046126,-0.080001,-0.091305
-0.53212,0.52829,0.20143,0.27035,-0.0051067,0.034523,-0.033613,0.0050312
0.44827,-0.25297,-0.2339,-0.44148,-0.048004,-0.057004,0.06909,0.10202
0.12801,-0.42115,-0.12228,0.035109,0.00054595,0.022765,0.056655,0.12134
-0.16847,0.33828,0.13924,0.23181,0.046701,0.039407,-0.086275,-0.21839
0.15608,0.0043226,-0.0095411,-0.12342,-0.018556,-0.030376,-0.070649,-0.065661
-0.15417,-0.061629,0.098053,0.15887,0.008581,-0.0066444,0.056261,-0.092461
0.36182,0.28964,-0.019958,-0.020743,-0.011686,0.04838,0.082696,0.27133
0.28052,0.76044,0.16158,-0.090072,0.046436,-0.029141,0.077774,0.095641
-0.55714,-0.86241,0.010703,0.0069724,-0.027371,-0.020344,-0.05365,-0.11224
-0.0058152,-0.042859,-0.097591,0.21651,0.048501,0.074754,0.069894,0.3971
-0.28681,-0.16664,-0.21856,-0.25028,-0.046181,-0.072117,-0.25571,-0.75959
-0.057831,-0.12637,0.0063463,0.020469,-0.053777,-0.054953,0.015998,0.1285
0.25903,0.2415,0.12322,0.020512,0.04099,0.11813,0.088429,0.11633
0.14889,0.016115,0.053379,-0.024134,0.0033015,-0.053168,-0.045312,0.024829
0.22237,0.30138,-0.01594,0.018831,0.028013,0.016816,0.077069,0.1673
-0.11305,-0.032411,-0.02226,0.070857,-0.0024576,0.03104,0.089893,0.099195
-0.075124,-0.35691,-0.035771,0.0066366,-0.025881,-0.073025,-0.16953,-0.2883
-0.19447,0.11216,0.053062,0.0056541,0.0045134,0.0094459,0.041984,0.012908
0.20122,-0.044787,-0.068168,-0.22909,-0.020575,0.020946,0.10777,0.073174
-0.23136,0.025085,0.13957,0.25542,0.0084692,0.00098315,-0.073731,-0.037369
0.28183,0.18905,-0.10516,-0.14251,0.037319,0.036019,0.051766,0.10285
-0.26617,-0.17111,0.0098651,0.037786,-0.050807,-0.060916,-0.10235,-0.18623
-0.014954,0.11459,0.054596,0.014627,0.025722,-0.015935,-0.021197,0.048162
0.15376,-0.1202,-0.12754,-0.032911,-0.021876,0.038446,0.04452,0.14945
0.18623,0.44266,0.07259,0.12101,0.040909,0.024191,0.031786,-0.01539
-0.057566,-0.50298,0.053322,0.061636,0.026557,0.011473,-0.0050162,-0.055771
-0.14773,0.32377,-0.036871,-0.11777,-0.026025,-0.015684,0.027775,0.028481
-0.1314,-0.49817,-0.0025219,-0.096996,-0.031138,-0.026534,-0.033808,-0.11379
0.076646,-0.068715,-0.046533,0.022821,-0.0046667,-0.01384,-0.01767,-0.028872
-0.048174,0.17652,-0.020257,-0.093358,-0.0093469,-0.0094138,-0.032908,0.041697
0.24261,-0.034739,0.037353,0.10258,-0.0062983,0.056586,-0.0011433,0.0046921
-0.10751,0.4378,0.10279,0.065056,0.051223,-0.0036677,0.085601,0.1494
0.032339,-0.017573,-0.074225,0.013916,0.0068669,-0.018448,0.024222,-0.016592
0.066641,0.032417,-0.033244,0.004486,-0.01445,-0.003344,-0.036968,-0.13455
0.040975,-0.073825,0.014192,0.013423,-0.0049953,-0.0050197,-0.035705,0.16174
-0.39674,0.16628,0.075298,-0.037811,-0.019528,-0.023132,-0.034769,-0.11319
0.23051,-0.33693,0.03245,0.0062693,0.012215,0.020862,0.06716,-0.015011
-0.13843,-0.28759,-0.18481,-0.073986,-0.01916,0.010195,-0.019126,-0.05996
0.13915,-0.027196,0.048736,0.0096527,0.026997,0.015538,-0.012388,0.056495
