-0.006835,-0.011068,0.0031066,-0.0043815,-0.0030635,0.0053403,-0.0041585,0.014403
0.00066653,-0.01839,-0.0043943,0.0040932,-0.0024142,0.005808,0.002749,-0.016203
0.00063049,0.0055736,-0.0043204,0.0043958,0.0060839,-0.0013804,0.0023086,-0.00016373
0.024357,0.006024,-0.0045338,-0.011287,-0.0088716,0.0071439,-0.005402,1.6115e-05
-0.0063005,0.006328,-0.0050163,-0.0038542,-0.00043185,3.0662e-05,-0.0047663,-0.0078177
-0.005505,0.0064643,0.002129,0.018948,-0.0076628,-0.0072091,0.011938,0.0076396
-0.0046671,-0.0091662,0.0014066,0.0025188,0.00069244,-0.0068675,0.0054952,0.015193
0.0038323,-0.0014372,0.00076919,-0.013984,0.016821,-0.0068311,-0.016471,-0.00074447
0.0041813,-0.0093252,0.0081426,0.0007855,0.0016357,0.0084948,0.0083473,-0.0010916
-0.0037614,0.0063213,0.00014484,-0.0077687,-0.0058522,0.0078778,-0.0061504,-0.0014697
-0.012249,0.0065108,0.0080098,0.007304,0.0020946,0.0070032,0.0024216,-0.017499
0.0099973,-0.0087234,-0.0074077,0.006994,0.0019616,-0.009661,-0.012865,0.0055315
0.00059497,0.015291,0.00064171,-0.0008636,-0.0063045,-0.010752,0.010495,0.0051673
-0.0012018,0.00036167,-0.014851,-0.0084677,0.0007303,0.011659,0.010055,-0.0028975
-0.0029747,-0.022365,0.00069312,0.0075756,-0.0081225,-0.0048165,-0.0062887,-0.0029621
-0.004494,0.0173,0.015972,0.00032302,0.0063268,0.0024067,0.0084396,0.0050344
0.010054,0.0020567,-0.00024897,0.00094285,-0.010435,-0.0056813,-0.0081549,-0.0023213
0.0017211,0.0021407,-0.0088237,-0.0062725,0.012096,0.0099931,-0.0012823,0.014005
0.00178,-0.013719,-0.0018046,-0.0057702,-0.0040382,0.0025243,-0.0099117,-0.0085726
0.002348,-0.0064175,-0.010282,0.0023947,0.0037672,-0.0047157,0.01291,0.00012553
-0.012344,0.00070489,0.012767,0.010374,0.012094,-0.0040013,-0.010886,-0.0069344
0.0043893,0.007779,0.0049477,0.0025256,-0.010381,0.0045758,0.0046588,0.0013424
0.0054795,0.0071263,-0.0024552,-0.013341,-0.0013137,-0.0025028,0.0048431,0.0092106
-0.0014263,-0.0011471,0.013949,0.0018449,2.7741e-05,-0.0096712,0.005239,0.00098644
-0.0086233,0.0064532,-0.0084575,0.0090407,0.0012388,0.0064759,0.0057663,-0.0076851
-0.00052382,-0.0091353,-0.0073441,0.00046286,0.002132,0.0068682,-0.00929,-0.008889
-0.00053416,-0.0010866,-0.0063315,-0.0082238,-0.0052303,-0.00067126,-0.0087581,0.0053602
-0.00075863,-0.00073051,0.0022281,-0.0013433,-0.0052672,-0.0004972,0.0073144,-0.0037825
0.0067249,0.0074717,0.002591,0.0055396,-0.0057524,-0.00039859,-0.015768,0.010782
0.0064002,-0.0078005,0.002512,-0.0031333,0.0090447,-0.0081661,0.0079599,0.0023716
0.0061652,0.00028746,0.0098103,0.0039539,0.0080197,-0.00034462,0.00041884,-0.0054539
-0.0095543,-0.0073328,-0.014513,-0.0043904,-0.00086116,0.0074537,0.016338,0.0029634
-0.009494,0.00061041,-0.0078499,-0.0046867,-0.0018385,0.0074256,-0.0067653,-0.0036924
0.00633,0.0085266,0.014306,0.010898,0.0051847,-0.00042079,0.0013974,-0.0021385
-0.001182,0.0086328,0.0052211,0.0032961,-0.010989,-0.008262,-0.0061106,0.0074061
-0.0086436,-0.0068731,0.0040891,-0.0040833,0.0043407,-0.008269,-0.0059415,-0.0065571
0.0073225,0.0010575,-0.012414,-0.0034762,0.0042779,-0.00042048,0.0018073,0.0026098
0.0075884,-0.0066727,-0.0051415,-0.010569,-0.019031,0.0074914,0.0092432,0.011284
-9.9715e-05,0.0011442,0.0025235,0.0058184,0.012486,-0.00014774,0.0085147,-0.0040697
-0.00017511,0.0088498,0.0027833,0.0065527,-0.0027938,0.0079041,-0.0081699,-0.012194
-0.00048842,0.00081053,-0.0043901,0.0071881,0.013198,0.00036608,-0.0016576,-0.0051588
-0.0010443,-0.0073224,0.0043668,-0.0079648,0.0057204,-0.0071868,-0.018667,-0.0061978
-0.0096163,-0.0076746,0.0054985,0.00010461,-0.01745,0.00081191,0.0035008,0.0083769
-0.0026833,-0.0079721,-0.0011461,0.00011481,-0.0016423,0.0008731,0.0025542,0.0075587
0.0042488,0.0075004,0.0077075,-0.0079385,-0.0015337,0.00077892,0.0099119,0.014969
0.0035025,0.015373,-0.0071513,0.0072214,-0.0014658,-0.0072826,0.010037,-0.016184
0.010828,4.2619e-05,-0.0067633,-0.0012238,0.0064218,0.00015862,-0.004904,0.0078215
-0.0049311,0.00053551,-0.0067892,-0.0019429,0.014365,-0.00027766,-0.0037946,0.00091456
-0.012486,0.0011366,0.016251,0.0051607,-0.016665,0.0071015,0.0053288,-0.0058578
0.011582,-0.013905,-0.015656,0.0045639,-0.00072242,-0.0010788,-0.0012403,-0.0049101
-0.0031174,0.0021549,-0.00078518,-0.0036367,-0.00032657,0.0064746,-0.00032376,0.0035542
-0.0020218,-0.0054825,0.0063531,-0.0037352,0.0079139,-0.0014713,-0.015555,-0.0040443
0.0069027,0.0099943,0.0059149,-0.011302,0.0083123,-0.0093007,0.0076634,-0.0043261
-0.0077538,0.0017041,0.021444,0.0049324,-0.0070066,-0.0014182,-0.0087654,0.01055
-0.0070711,0.00094932,-0.017333,0.0058755,-0.0068411,0.0065112,0.0056143,-0.014003
0.016661,-0.0077942,-0.02451,0.0070721,-0.006838,-0.0011791,0.011965,0.015913
0.00089671,-0.00095847,0.015452,0.00057928,0.0008235,-0.0010876,0.0027377,-0.0010967
0.00034781,-0.0018451,0.00086097,0.0018562,0.00055211,-0.001052,-0.014004,0.0054376
-0.016143,-0.0025255,0.0096937,-0.012711,0.015831,-0.0010847,0.00099618,-0.0034143
-0.0015501,0.020513,-0.0050706,-0.004218,-0.00017357,0.0066283,-0.0068432,-0.0041193
-0.0025626,-0.010835,-0.012307,0.011605,-0.016185,0.0064772,0.0093506,-0.012246
0.012254,0.0049635,0.011334,0.0034757,0.014679,-0.0093235,0.018221,0.0034705
0.0039863,0.0053357,0.0033176,-0.0051138,-0.0013426,-0.0094883,-0.0038602,0.0039455
-0.0038523,-0.0098058,0.0027264,-0.0062123,-0.0095769,-0.0017917,-0.010251,0.0047429
0.0043525,-0.0092914,-0.0059858,0.00038484,0.0055935,0.0059847,-0.008996,0.013581
-0.0027473,-0.00098819,-0.01488,-0.00070914,-0.0026953,0.013855,-0.00027653,-0.0087191
-0.0018778,-0.00054386,-0.00036568,-0.0014516,0.0046543,-0.0016293,0.00018206,-0.0075933
0.0067689,0.0076694,0.014276,0.0061475,-0.011363,-0.0092518,0.0080004,-0.0065907
-0.0004212,0.0080395,0.005735,-0.0012619,0.0040093,-0.0012522,-0.00017538,0.0098295
-0.0079417,0.00057281,-0.0024782,0.0075455,0.0039618,0.0066894,-0.0085731,-0.0052561
-0.00019924,-0.0069307,-0.0025449,0.0011832,-0.0036467,-0.0089064,0.00642,0.0028272
-0.0083796,0.0011206,-0.0023382,-0.0049488,0.012447,0.014447,-0.0019058,-0.0049695
-0.0010869,-0.0065707,0.0058429,0.0045047,-0.0024692,-0.0091668,0.0056359,0.010443
0.0062451,0.009011,-0.0015758,-0.0019673,-0.00158,-0.0093751,0.0056691,-0.0055975
0.0059924,0.00096111,-0.0091011,-0.0011272,-0.0084067,0.0060944,-0.0096248,0.0016123
-0.0017085,0.0083452,0.0066049,-0.0087,0.00039529,-0.0017281,0.0065643,0.00082501
0.0066277,-0.02348,-0.0013812,-0.0090463,-0.0065127,0.0062955,-0.0083664,-0.00015131
-0.00030479,-0.00068012,-0.0017992,-0.0020483,0.0098574,-0.0010501,0.00015562,0.006496
0.00078272,0.0065431,-0.0023994,0.004666,0.0025762,-0.00035096,0.00077796,-0.010464
0.0018696,-0.001695,0.0047291,0.019113,0.0028618,0.0004935,0.001242,0.0037099
-0.005077,0.013761,-0.011553,0.010217,0.0028945,0.0091546,0.0015177,-0.0055794
-0.012428,-0.0017286,0.011355,-0.0062816,-0.012931,-0.013603,0.001616,0.0008594
0.0031468,-0.0012992,0.011024,-0.0069,0.0023066,0.002362,-0.0062327,-0.00026034
-0.005241,-0.00064056,0.0031117,-0.0072765,0.0096154,0.0022278,0.001469,0.0068369
0.0093621,0.00014304,-0.012381,0.00035412,-0.022169,0.0093681,0.0013415,-0.0011637
0.0080409,-0.0068803,-0.012038,-0.0075018,0.0086014,-0.0074385,-0.0065778,-0.0085685
-0.0090222,-0.006195,0.011925,0.0081713,0.0082446,-0.0090023,0.0089634,0.0080548
0.0052291,0.0099329,-0.0030186,-0.0073457,0.00023224,-0.0029235,0.0010528,-0.0060682
-0.0037422,0.0024043,-0.0022006,0.0084263,0.0079924,-0.004562,0.008681,0.0114
0.0032277,0.0024758,-0.0090822,0.00077955,-0.0075886,0.0097894,-0.0073035,0.0055531
0.0027479,-0.013247,0.0075478,0.0087496,0.00028329,0.0091036,-0.0079193,-0.0082231
0.0026292,0.0021758,0.008561,0.0010511,-0.0075448,0.0013236,0.006787,-0.0067151
-0.012789,0.0097524,0.0094856,-0.0067276,9.8678e-05,0.0020863,-0.0022386,0.0020947
0.0033181,-0.0060835,0.0023904,-0.0067988,-0.00027149,-0.0043426,-0.011487,-0.013133
0.0040213,0.0015778,-0.012843,-0.0069758,0.014775,-0.0025465,0.01042,0.010103
-0.0029135,0.0014904,-0.0050546,0.0083973,-0.0094125,-0.0084177,-0.0066686,0.0093921
-0.0097146,0.0092557,-0.01334,0.00031691,-0.0024508,0.0090161,-8.7573e-05,-0.0073022
0.0070135,-0.01423,0.0092133,0.0079213,-0.0033084,-0.0051734,0.014675,0.0070842
0.0081552,0.0091139,0.0080273,-0.0077777,-0.0040752,0.0035355,-0.0013593,-0.0019419
-0.0063615,-0.0066817,-0.0011098,0.00014804,0.010956,0.0038243,-0.0012968,-0.010772
0.010247,-0.006939,0.0054292,-0.0073473,0.0027733,-0.0042719,0.0070092,0.0041579
-0.0046205,0.0083578,-0.0034198,0.0087697,0.0026374,-0.0050013,-0.015587,0.0038479
0.0036305,-0.0076317,-0.0040654,0.0093624,-0.0051043,-0.005985,0.0011227,-0.0038937
-0.011937,0.0076348,-0.0042192,-0.0056763,0.0029318,0.0086199,-0.0054633,0.012114
0.003353,-0.00049446,0.011779,0.0025973,-0.0045666,-4.6579e-05,-0.004183,-0.010751
0.0026762,0.007063,-0.0029797,-0.0049831,-0.012026,0.0072276,0.012705,0.0054877
-0.013858,0.0068712,-0.0095305,-0.0050424,0.011774,0.0070757,0.0060823,-0.0018172
0.0085887,-0.0088942,0.0076027,0.0024153,-0.0034779,-0.0083306,-0.00066461,-0.0015334
-0.00013195,-0.016811,0.0013642,-0.0059892,0.012556,-0.0078347,0.00023132,-0.001536
0.0070003,0.0065499,0.0028151,-0.0067095,-0.010398,0.00060411,-0.0068949,-0.0018186
0.0066467,-0.0013098,-0.0038422,0.016014,-0.0019888,0.0011909,0.001366,0.0055064
-0.00897,0.0064958,-0.0031154,0.0076234,-0.0012565,0.0015775,-0.0062464,-0.010681
-0.00081714,0.006542,-0.0028923,-0.00053296,-0.00039418,0.0016404,0.001528,0.0044637
0.0075847,-0.0011649,0.0046318,-0.0084094,0.016182,0.0091269,0.00128,0.0042191
-0.015129,-0.0010044,0.0038907,-0.0082062,-0.014107,-0.015021,0.00086129,-0.0034881
0.0090434,-0.0086167,-0.005,1.0119e-05,0.0023866,-0.00041254,0.0081261,0.0048298
0.001871,0.0072271,0.001552,0.0083204,0.003046,0.0062162,-0.0081377,0.0057087
-0.0054737,-0.0081818,-0.007533,0.0087861,0.0033937,-0.0027637,0.0067902,-0.0009516
-0.0052201,0.0076404,-0.00084287,-0.0065271,-0.0044503,0.0040963,-0.0017461,-0.007493
0.0026223,-2.4365e-06,0.013942,0.0013508,-0.0048743,-0.004273,0.0053537,0.0015307
0.0024418,0.00013802,0.0056588,-0.0066843,0.0021722,0.0035091,-0.010921,-0.0052996
0.0020755,-0.015373,-0.010031,0.00063932,0.0011748,-0.011565,-0.0036298,0.0031376
0.0093644,0.015968,0.0059267,-3.1124e-05,-0.0077131,0.0051516,-0.0039469,-0.0044739
0.00090193,0.00041227,-0.0090141,-0.0085637,-0.0008865,0.014464,0.0038201,0.010935
0.00016491,0.00045822,-0.0080466,0.0064417,0.0061777,-0.0072776,0.0040856,0.0025653
-0.016228,0.0082922,-0.0068801,-0.0017576,0.0057647,0.0099804,0.0046543,-0.0060115
-0.0091351,-0.015144,0.017827,0.0059812,0.0057146,-0.0043327,0.0054617,-0.0068151
0.013729,0.0004761,0.0034682,0.0062257,-0.0018309,-0.011362,0.006392,-0.0074851
-0.0022231,-0.0073224,0.0046137,-0.0010982,-0.001351,0.004404,-0.0083258,0.0077491
-0.0022214,0.00055345,-0.0022911,0.0073112,-0.0086049,-0.011719,-0.007586,0.0077248
0.0059562,0.0085048,-0.0017247,-0.007771,-0.00028526,0.0028924,-0.0071235,0.00026255
0.0066562,0.0087298,-0.0015701,-0.0074274,7.5345e-05,0.0015742,0.00082258,0.0009102
-0.00021764,0.0090299,-0.017474,0.00044298,0.00024812,0.00020695,0.00064186,0.0095192
0.00081018,-0.014064,0.0052832,-0.0076007,0.00025011,0.0068451,0.0080316,-0.013162
-0.0060581,-0.0059069,0.0042827,-0.00022589,-0.0076659,0.0060417,0.007475,0.0029948
0.002457,-0.0056032,-0.0047409,-0.00072261,0.015656,0.0056901,-0.0087242,0.0031607
-0.0050009,0.0024416,0.017391,0.01452,1.5129e-07,-0.0098602,-0.0092161,-0.020538
-0.005024,0.010399,0.00046603,0.0065917,0.00013295,-0.0016623,0.013877,0.0022415
-0.0053709,-0.0051729,-0.00075024,-0.008789,-0.0073393,-0.0011371,0.0058919,0.0091113
0.0097069,0.0025985,-0.0018296,-0.0081774,0.0010219,-0.00065502,-0.0019343,0.00023727
0.0013095,-0.0053562,-0.010543,0.008343,-0.0060763,-0.00036899,-0.0096399,0.0070491
0.00084905,0.0021958,0.0043991,0.0015516,0.0025339,-0.00037071,-0.0094609,-0.0015494
0.0084494,0.0096033,-0.011643,0.0024968,0.0033028,-0.00067532,0.0063701,-0.0020223
-0.014895,0.0012143,0.0038797,0.0031623,0.011728,-0.0012234,0.0065686,0.0056598
0.0089204,-0.015174,0.0041271,-0.01224,-0.0035672,-0.0018979,-0.0010764,-0.0019756
0.0016769,0.0073254,0.0047261,-0.0047357,-0.011434,0.0052605,-0.00095662,-0.0015734
0.0022931,-0.0015521,0.005626,0.0022421,0.0036966,0.0047728,-0.00090011,-0.0088626
-0.005018,-0.002655,-0.0089097,0.00097696,-0.0050488,-0.0032439,-0.0009251,-0.00050613
-0.0047761,0.0041382,0.0078294,0.007259,0.001462,0.004716,0.0067603,0.0077926
0.0029227,-0.0044738,0.00096076,-0.0099627,0.0077345,-0.010399,-0.0012996,0.00036177
-0.0053867,-0.0049283,-0.0062682,0.0041916,-0.0016807,0.0060517,-0.001675,-0.0071899
0.0015909,0.010673,0.0016219,0.0029956,-0.0031497,-0.0007099,-0.0021667,0.00076905
0.0083377,-0.0045216,-0.0066863,0.009969,0.0035161,-0.0073697,-0.0027373,0.0086306
-0.0084379,0.004119,0.0079019,0.0016833,-0.012781,0.0093731,0.0044893,0.00078629
-0.0017065,0.0052122,-0.0091684,-0.0062891,0.010549,-0.0053015,-0.011654,0.00068224
0.0052278,-0.0092466,-0.0029966,-0.014038,0.0032003,0.0031816,0.011419,-0.0073085
0.0046418,0.0073993,0.0032355,0.0017772,-0.0036565,0.0034952,0.0034708,-0.0075708
0.004381,0.00026117,0.0019652,0.0020143,-0.0023733,-0.0043919,-0.01202,0.0076956
-0.0033886,-0.0073635,0.0012008,0.010066,0.0068241,0.0029797,0.01182,0.0072331
-0.0031041,0.0079194,0.016672,0.0024874,0.00024461,-0.0055654,-0.0031895,-0.0011419
-0.0026608,-0.0085053,-0.014124,-0.012883,0.0010879,0.0013423,-0.0024568,-0.0017821
-0.0099528,-0.0017677,0.010271,-0.0047544,0.0013641,0.00041348,0.00608,-0.0024551
0.0062043,-0.010669,-0.0040697,0.0034782,-0.0068182,-0.0081994,-0.0011464,-0.0030932
0.0067062,0.0041436,-0.010479,0.011837,-0.0077929,-0.00092839,-0.00080735,0.0042008
-0.00065412,0.0038585,-0.0013398,0.0046879,-0.0013996,0.014498,-0.00077967,-0.011735
-0.00025515,0.012068,-0.00023839,-0.010199,0.0048029,0.00685,-0.008882,0.0038612
9.5075e-05,0.0053495,0.00055618,-0.0016437,-0.0045104,-0.00047688,-0.0016236,0.0041516
0.0004023,-0.00080958,0.0088425,0.0068394,0.010011,-0.0075778,-0.0023424,0.012561
-0.0071433,0.0011386,-0.0065895,-0.00043972,0.0017108,-0.006763,0.012522,-0.0022292
0.0087064,-0.0047694,-0.0066056,-0.0078882,0.0019461,-0.005968,0.0040246,-0.0012742
0.0010694,-0.0032489,0.016685,0.00013165,0.0028799,0.0025193,0.0035048,-0.0081562
-0.0066275,-0.018009,0.00084955,0.00023994,-0.0034477,0.010822,-0.0046153,0.00041709
0.0012266,0.0054906,-0.0071929,-0.0074734,-0.0016509,-0.0045237,-0.01252,-0.0069231
-0.0066357,0.012563,0.0082056,0.008341,-0.0076364,0.0033632,0.01101,0.0088135
0.0010157,-0.0044622,-0.015446,0.0087028,0.0095743,-0.0045536,-0.0043899,-0.0070787
0.016346,0.0015406,-1.8355e-05,-0.0063471,-0.0049191,0.0030108,-0.004086,0.007934
-0.0075375,-0.0081892,0.0076234,0.0022386,-0.0043629,-0.0051603,0.011875,0.00705
-0.00033028,-0.0021078,-0.0081295,0.0031383,0.0034139,0.0022091,-0.011225,-0.017446
0.0067351,0.012203,0.0074311,-0.0037642,-0.004945,0.0095109,0.0047272,0.012676
-0.0097251,0.011433,-0.00036337,-0.0029823,0.0019634,-0.0066812,-0.0027677,-0.0040482
0.0050736,-0.0044054,0.0075599,-0.0024623,0.0008898,0.00051951,0.0053623,-0.0050368
-0.011233,0.0036579,-0.0078624,-0.0023085,0.0076428,-0.00011751,-0.0021251,0.0097719
-0.0038006,-0.019228,0.00023276,0.013048,-0.0010697,-0.0085597,-0.0017935,0.0013566
0.004079,-0.0029372,0.00057685,-0.0032636,0.0060887,0.006489,-0.0092838,-0.0068203
-0.0031237,0.013298,0.0009611,-0.01212,-0.009922,-0.0017927,0.014435,0.0086928
0.013663,-0.0096994,0.0013642,0.0022153,0.0055531,-0.0021034,0.0068192,-0.014596
0.0074654,0.0061476,-0.013861,0.0086395,-0.010054,0.0055929,-0.0087377,-0.0063731
0.0015164,-0.0016418,0.0021303,-0.00049965,-0.0021389,0.0056821,-0.0010183,0.0099151
-0.004465,-0.0095611,0.0024228,-0.0016112,0.0057852,-0.0018562,-0.0012789,0.0029907
-0.010785,0.013733,0.010396,0.0054322,0.0058487,-0.0092591,-0.0016773,0.004051
0.0057238,0.0058307,0.018166,-0.00272,-0.001978,-0.0009731,-0.0099595,0.013017
-0.0019867,-0.0019517,-0.0134,-0.010406,-0.0020716,0.0072954,0.013031,-0.017081
-0.010519,-0.0095861,-0.014034,-0.0020218,-0.0022209,-0.00015647,-0.0029136,-0.00040388
0.0036701,-0.0014602,0.00063609,-0.0010797,0.0054279,4.7852e-05,0.0047986,0.00046695
0.0017507,-0.0010588,-0.00057655,0.01573,-0.010326,6.1975e-05,-0.0028333,-0.0067059
-0.0081519,0.0071724,-0.0019216,0.0091817,0.0052502,-0.00011425,0.0054574,0.0015019
0.013357,0.0075305,0.0045858,-0.0052781,-0.0025017,-0.0082593,-0.0094229,0.0016716
0.0040656,-0.0078654,0.0035084,-0.0043706,0.0054858,0.006939,0.0071407,0.0016538
0.0032278,4.2022e-06,-0.00499,-0.0038288,0.005753,-0.0091301,0.00036024,0.0014904
-0.0047154,-0.00011692,0.010444,-0.011498,-0.0017449,0.0061087,-0.0064379,0.009027
-0.0042013,-0.0081946,-0.012673,-0.0038913,-0.0014385,0.0058364,0.002267,0.00084582
0.0046007,-0.00072315,0.011516,0.011296,-0.0090033,0.0057028,-0.004859,0.00039556
-0.0019827,-0.0010541,-0.0030953,-0.0048491,0.0067792,-0.0021158,0.0033787,-0.015749
-0.0085801,0.014333,-0.0020441,0.010316,-0.0087819,-0.017661,0.0035174,-0.0084997
0.0080219,-0.0013774,0.0066143,0.002197,-0.00097511,0.0058821,0.0033723,0.0065596
0.00079276,-0.0012876,-0.0007679,0.0020596,0.0068052,0.013764,-0.012656,0.013861
-0.0068941,-0.0010379,-0.00088611,-0.0057824,0.0067945,-0.0018774,0.017974,-0.0021614
0.0084323,0.0071413,-0.0093896,0.0098001,-0.00096803,-0.0098147,-0.01406,-0.0023926
-0.007796,-0.00024063,-0.0027468,-0.0060239,-0.00083697,-0.01004,0.00067613,-0.0024267
-0.00071365,-0.015416,-0.012012,-0.006501,-0.00062643,0.0052954,-0.00025612,0.005554
-0.0013714,-0.0071589,0.017758,-0.0073159,-0.0081701,0.020626,0.0066389,-0.0019096
0.0060347,0.001089,-0.0069268,0.007183,-6.5448e-05,-0.01086,-0.0020236,-0.0014243
0.0060012,0.0093337,0.015703,-0.0019512,0.00020767,-0.0031655,0.0050504,-0.0086769
-0.0092464,0.0097607,-0.00018077,-0.0032831,0.0082301,-0.003128,-0.011167,-0.00030332
0.0071122,0.0023447,-0.0077133,0.0034054,0.00052356,-0.0029237,0.0040329,0.0079917
0.00025189,-0.0051557,0.016429,0.0026954,0.00049316,0.013054,-0.0040262,0.00050295
-0.0065835,0.0028107,-0.0060617,0.010363,0.00030904,-0.002117,0.0037124,0.0084082
0.009833,-0.0050788,-0.0050692,-0.0047753,-0.01565,-0.0016268,0.0037893,0.0004061
0.0024418,0.0023808,-0.012,-0.0036924,0.0073315,-0.001173,-0.0038342,-0.0078943
-0.013252,-0.0060556,-0.011307,-0.0021415,0.0068081,-0.0086334,0.0042285,-0.0008345
-0.0060273,-0.0068846,0.012649,-0.00032431,0.0062912,0.007198,-0.0033286,-0.0095762
0.00074403,1.4092e-05,-0.0025407,0.0015163,-0.009758,0.0072448,0.0046958,-0.002733
-0.00060216,-0.00083244,0.0057509,0.0031329,-0.010004,-0.008473,-0.0029776,0.012046
0.0057571,0.014164,0.0063896,-0.0035034,0.0056266,-0.00084185,0.0049009,-0.004143
0.012218,0.006056,0.0072484,-0.0029232,0.005927,-0.0010388,-0.010699,0.011318
0.003337,-0.0016663,-0.015132,0.0047996,-0.0012844,-0.0011702,-0.010656,-0.011833
-0.012944,-0.016834,0.017269,-0.0037553,0.015204,0.0066494,0.0051005,0.0044926
0.010314,0.0073424,-0.012906,0.002768,-0.022813,-0.00096764,0.013195,0.00549
-0.012822,0.0082358,-0.0042852,0.0011116,0.0017423,-0.00056815,0.0058469,-0.0012053
-0.0042784,0.0013292,0.01171,-0.00068214,0.010621,0.0078257,-0.0013293,-0.00016898
-0.0032047,-0.0056899,-0.011906,-0.0023652,0.0037073,-0.014905,-0.00057497,0.000606
0.01372,-0.012905,0.0029742,-0.0037067,-0.011275,0.0092838,-0.015413,0.0010008
-0.00051641,0.0030919,-0.0060739,0.0032847,0.0046886,-0.0056364,0.0087481,-0.014638
0.00081621,-0.0045554,0.00017341,-0.0047325,-0.010902,0.0027466,0.0015115,0.00063246
0.0019477,0.01108,-0.0015079,0.0034861,0.0044993,0.0031113,-0.0059277,-0.0077247
-0.0050632,0.0031832,0.012545,0.0043928,0.0040937,-0.0045884,-0.0057727,0.0073581
0.0031251,0.0030485,0.0034676,0.013415,0.0035981,-0.004744,0.017624,0.014818
-0.0047854,-0.0049325,0.0026461,0.0068642,0.0030985,0.010472,-0.0059961,0.0069741
-0.0053479,0.010479,-0.013296,-0.023323,-0.012966,-0.0057742,-0.006253,-0.0083139
0.0015055,-0.0054312,0.002503,-0.0070362,0.010123,0.0012708,0.0012975,-0.0076604
0.0080808,-0.0058072,0.0030905,-0.0068864,0.0020501,0.016062,0.0010844,0.00098716
0.0067194,-0.0062695,-0.0038381,0.0083778,-0.013779,-0.023814,0.0087619,0.0096311
-0.010222,-0.0067793,-0.0027927,0.0076138,0.009458,-0.0010842,-0.0069205,0.0024543
-0.0035153,0.0083563,-0.0017175,0.0066322,0.0013898,0.0061947,0.000885,-0.020699
-0.0042722,0.0001542,0.0070879,-0.0021579,0.0010277,-0.0019341,0.00088232,0.0025845
0.011044,0.0077422,0.0079171,-0.010733,0.00052807,0.0057865,0.00083088,0.0098068
0.0034165,-0.00010182,-0.0070864,0.0045026,-0.0079235,0.0058871,-0.0071295,-0.0067596
-0.0037276,3.6347e-05,0.0011354,-0.0032471,-0.0008598,0.0061171,0.0004061,-9.04e-05
0.0051722,0.0080842,-0.01426,0.0050618,-0.0016608,-0.0092264,-1.1404e-05,0.0065564
-0.0090545,-0.0073136,0.0092869,0.0058813,0.0053729,-0.001151,0.0072536,-0.010083
-0.0074829,-0.0072059,0.0015386,-0.00097098,0.0046932,-0.0087608,-0.0012054,0.012625
0.0097346,-0.0073066,0.001627,-8.7878e-05,0.0041777,-0.0086197,0.0059102,0.0044435
-0.0044311,0.0079659,-0.006025,-0.0073033,-0.011755,0.0071215,-0.0025874,0.0044445
0.0045625,0.0073747,0.0098442,0.0084776,0.0037889,0.0072719,-0.018815,-0.018668
0.0053399,-0.0011996,-0.0054823,-0.0074985,0.0039276,0.007516,0.01199,-0.0024782
-0.0021945,-0.0098359,0.0026165,-0.0083162,-0.0035512,7.858e-05,0.0039528,0.013857
-0.010282,-0.0027817,0.0028003,-0.001646,-0.0030595,0.00058656,-0.0038179,-0.0088131
0.012326,0.012272,-0.0050255,0.012728,-0.0024534,-0.014433,-0.0034988,-0.0080593
0.0031906,-0.003647,0.0024998,-0.004009,0.0060333,0.0018334,0.004879,0.0082583
-0.014128,0.0041937,-0.0059151,0.0030569,-0.0010843,0.010247,0.0056163,0.0088605
-0.00038962,0.0045344,-0.0068272,0.0028376,0.0073964,0.002927,-0.0013963,-0.0062704
-0.0022547,-0.010495,0.0076291,-0.0046032,-0.0076329,-0.012363,-0.00066138,0.0097291
0.0039357,-0.0019249,0.0062966,0.0041253,-0.0071518,-0.0043955,-0.0001139,-0.0056489
0.0027525,0.006702,0.004918,-0.0023745,0.0088059,0.0034004,-0.0076593,-0.013346
0.0099596,-0.00033936,-0.012005,0.0069284,0.0011558,0.0032399,9.5779e-05,0.0022651
-0.005634,0.00031128,0.0025194,-0.0072767,0.001143,0.0029725,-0.00027173,0.0021286
-0.0049941,-0.014829,0.0017141,0.0016562,0.00097041,0.010445,0.0069338,0.017507
0.0039586,0.008915,-0.0065447,0.0023108,-0.0071372,-0.01338,-0.0016116,-0.014085
0.0054317,0.0012458,0.009018,-0.013198,0.00031496,0.0018212,-0.0023355,0.0011193
-0.0085851,0.0090709,-0.0063038,0.0020367,-4.0084e-05,0.0013673,-0.0029181,0.00063987
0.00077352,0.0011802,0.0021173,0.009079,-0.0081304,-0.0069243,0.0045588,0.0001258
-0.013538,-0.014573,0.010748,-0.0075053,0.015166,0.0082077,0.0045324,0.0074203
0.010855,0.0087234,-0.01178,-0.00062831,-0.00043249,-8.963e-05,-0.0029887,-0.016503
0.0035707,-0.0070194,-0.003095,-0.0013509,-0.00024018,-0.0083464,-0.0024234,0.0065199
0.011468,0.016357,0.0054355,0.013892,7.7936e-05,0.0069134,-0.0016707,-0.0094171
-0.0044753,-0.014869,-0.0019064,0.0060837,-0.0073594,-0.0011486,0.0069695,0.013829
-0.012926,-0.0069263,0.0060746,-0.0013788,0.00080061,-0.0012558,-5.7546e-05,0.0059434
0.0018635,0.0011287,-0.00188,-0.0085995,0.001036,-0.0012135,-0.0072286,-0.0018496
0.0009735,0.0092763,-0.010105,-0.0079022,0.0010906,0.0067733,0.0010111,-0.0017781
0.00017569,0.0018415,0.012734,-0.0072329,0.00092422,-0.0085889,0.0011942,-0.0016985
-0.0082168,0.0099954,-0.0035584,0.0089325,0.0083464,0.0073228,-0.006669,-0.0094572
0.0071284,-0.0054216,-0.011972,0.0092904,-0.0078556,-0.00025517,0.0087132,-0.0016304
0.014984,-0.0054415,0.0032483,0.0016477,-0.00073199,-0.00014593,-0.0072867,-0.0016467
-0.00031581,-0.0057565,0.010955,-0.021778,-0.0092436,-0.00021649,0.007894,0.013957
-0.0076167,0.0014276,0.0033959,0.0093725,-0.0020296,-0.0083017,-0.00037729,0.006148
-0.0070463,0.00052722,-0.0038019,0.0092044,0.0053826,0.0068665,0.0070046,-0.0094236
0.0012644,-0.00054644,-0.0028775,-0.0066367,0.013056,-0.0015289,-0.0011763,-0.0014979
-0.0062294,-0.001655,-0.0095549,0.0087153,0.0053766,-0.0021484,-0.0092618,-0.0013319
0.0094714,0.0051647,0.0072875,0.00053775,-0.0098814,-0.0027001,-0.0015853,-0.001135
0.0014806,-0.0033926,0.0084494,3.3964e-05,-0.0015486,0.0047279,-0.0015322,0.0068732
-0.0067251,0.0040095,0.0016176,-0.0084575,-0.00097327,0.0045849,-0.0012338,-0.00078084
0.0083699,0.0039577,-0.013303,-0.001504,-0.00043311,-0.0030948,-0.00064637,-0.0085069
-0.0078215,-0.0035894,0.0026996,-0.0025022,-0.0078011,0.0051142,0.0080516,0.0071046
0.007305,0.0047115,-0.0050655,-0.0035517,0.0081539,-0.0099065,0.0013762,-0.0086518
-0.00084887,-0.0025134,0.0025068,0.011094,0.00057841,0.0064424,-0.0051605,0.014531
-0.0087871,-0.001951,0.0020541,-0.0053071,-0.0070408,-0.00063065,0.0038906,-0.0092735
-0.00086855,-0.0093243,0.0092937,0.0098586,0.00097816,-0.0077899,0.0048752,0.0058965
0.0072497,0.0065634,0.00088204,-0.0058378,0.0090533,0.0083191,0.0053864,-0.002416
-0.00013517,-0.008979,-0.0074717,-0.0055109,0.0015712,0.00076856,-0.002564,-0.0029025
0.0081149,0.006587,0.0077381,0.010784,-0.0058708,-0.0070211,-0.01125,-0.0033051
