0.0006182,0.0059255,-0.23332,0.0026578,0.0044906,0.0067194,0.15586,-0.0062711
-0.02181,-0.0081294,0.011974,0.012113,-0.0099383,-0.024749,-0.23404,-0.014333
0.018078,0.016511,-0.01614,0.014396,0.015017,-0.0015291,0.0071657,0.0084943
0.010801,-0.006282,0.025887,0.0092079,0.0010765,-0.0016903,-0.01058,0.01543
-0.012454,0.001544,0.028692,-0.019424,-0.0050626,-0.0017214,-0.028715,-0.032437
0.0108,0.0010037,0.28934,0.053174,0.0042404,0.021892,0.10974,0.013513
-0.028764,-0.038926,-0.37934,-0.13261,-0.018031,-0.016725,-0.0087936,-0.010608
0.017386,0.038354,-0.047311,0.016839,-0.0016586,-0.0081748,0.037625,0.01251
0.016572,0.0067005,0.12165,0.032779,0.014259,0.031889,0.24084,0.028223
-0.031063,-0.031914,-0.067672,0.03247,-0.0015121,-0.021625,-0.2279,-0.018205
0.015239,0.016582,0.1892,0.0082071,0.013593,0.0030128,-0.17396,0.01372
0.0071295,0.027338,0.0089039,0.092905,-0.0028269,-0.011569,0.011522,-0.04024
-0.0084849,-0.030974,0.038994,-0.096161,-0.003773,0.02037,0.039344,0.038484
-0.0082041,-0.033689,-0.35438,-0.10578,-0.028173,-0.0029129,0.058161,-0.039312
0.0078721,0.0108,0.093389,0.056355,0.010039,-0.0034215,0.045024,-0.0080793
0.016164,0.04704,0.17064,0.015374,0.0094048,-0.0046489,-0.046349,0.038427
0.016521,0.058566,0.25991,0.076122,0.0012294,-0.014372,0.12832,0.0065163
-0.030243,-0.041326,-0.44313,-0.065952,0.0089446,0.022226,-0.016554,-0.009954
-0.014808,0.028092,0.1875,0.018934,0.001231,-0.027455,-0.19956,-0.010852
-0.015269,-0.163,-0.24507,-0.012931,-0.0064034,0.047791,0.071461,0.011777
0.023174,0.041971,0.136,0.018126,0.0093456,-0.025172,-0.0082841,-0.02006
0.022569,0.073479,-0.12841,0.0026823,-0.006321,-0.0038621,0.045414,0.018751
-0.0012757,-0.020511,0.23644,-0.028082,-0.014397,0.018232,0.12303,-0.0045277
-0.016957,0.0033894,0.12166,-0.035183,-0.0070505,-0.044633,-0.11146,-0.019561
-0.0087721,-0.017823,-0.24674,-0.0030879,0.00018014,0.026389,-0.064361,0.036107
-0.00018507,0.010293,0.22354,0.068087,0.0074275,-0.010915,-0.11062,-0.040762
0.01648,0.0097718,-0.0868,0.068825,0.030453,0.030791,0.093569,0.030896
-0.013699,0.019241,-0.054988,-0.094779,-0.024395,-0.036296,0.14205,0.00084971
0.026166,0.0064772,-0.14384,-0.0087955,-0.00083248,0.053038,0.3708,0.0016619
0.01858,0.0092004,0.2862,0.02984,-0.00046766,-0.037617,-0.50923,0.0018634
-0.036708,-0.020918,-0.42904,-0.03351,0.023464,0.027223,-0.16213,0.0091243
-0.022633,0.00079226,0.36756,0.012266,-0.015122,-0.034056,-0.19737,-0.085956
0.013974,-0.051474,-0.24432,-0.0044382,0.00081181,-0.010714,0.25201,0.044859
0.0030344,0.025271,0.1199,-0.013003,-0.014782,0.026946,0.65435,0.10494
-0.00037371,0.0050796,0.12584,0.025892,-0.015081,-0.0067946,-0.11593,-0.13976
0.019867,-0.040423,-0.23338,-0.020434,-6.7906e-05,-0.0099717,-0.34067,0.076798
0.0095778,0.13278,0.23767,0.043284,0.053769,0.041366,0.06573,-0.018446
-0.054245,-0.13731,0.08523,-0.0019395,-0.025333,-0.10224,-0.58408,-0.065797
0.0083573,0.096552,0.019129,0.015391,0.012751,0.10655,0.30438,0.10681
0.017745,-0.13293,-0.23523,-0.030155,-0.019353,-0.058479,0.14631,-0.078729
-0.010667,-0.098519,-0.12391,-0.021766,-0.012162,0.027798,-0.041458,0.033673
0.047675,0.082251,-0.16261,-0.01435,0.010972,0.037199,0.33569,0.045253
0.051533,0.25179,0.39157,0.0077105,-0.012396,-0.022683,0.2233,0.010263
-0.10913,0.24391,-0.0069065,0.036818,0.027118,0.027536,-0.50406,-0.087382
0.033853,-0.17047,0.0654,-0.020394,-0.0033388,-0.078071,-0.35522,0.048789
-0.004238,-0.26705,-0.13228,-0.03064,-0.017915,-0.035043,0.16071,-0.089318
-0.0594,-0.21926,-0.24751,0.014346,0.0067058,0.070561,0.47986,0.037219
0.024869,-0.011965,0.24321,0.052419,0.023516,-0.058162,-0.24276,0.045569
0.022507,-0.011811,0.018708,0.029081,0.0011541,0.10223,0.023097,0.021727
0.035701,0.53245,0.085104,-0.032215,-0.0057563,0.043921,0.13606,0.036085
0.0025626,-0.10428,0.080784,-0.076923,-0.059718,-0.15507,-0.5918,-0.10661
-0.029565,-0.077089,0.034669,0.05876,0.042442,0.090996,0.36278,0.023373
-0.029204,0.013073,-0.37545,-0.070811,-0.035146,-0.061953,0.14838,0.019788
0.011399,-0.068192,0.021314,0.049605,0.027861,0.018473,0.10915,-0.031421
0.03722,-0.047942,-0.04834,0.013341,0.020472,-0.051028,-0.20725,0.010386
-0.014801,0.0497,0.057506,-0.008169,-0.018417,0.041547,0.036381,0.012448
0.034342,-0.10398,0.30976,0.015905,0.03594,0.1161,0.26382,0.092069
-0.081647,0.045469,0.02353,0.053981,0.027011,-0.0072626,-0.54581,-0.10209
0.074213,0.20138,-0.21268,0.012163,-0.0063399,0.015405,-0.061277,0.016268
0.056369,-0.18241,-0.18581,-0.085968,-0.048495,0.020726,0.55663,0.064857
-0.15069,-0.050116,0.11331,-0.013365,-0.044517,-0.30256,-0.59546,-0.15879
0.00040267,0.13086,0.12258,-0.0739,-0.087646,0.015961,0.13273,0.002283
-0.013016,-0.060002,0.091377,-0.00093069,0.11185,-0.029718,0.3665,0.05654
0.075626,-0.11374,-0.052172,0.089381,0.023417,0.21816,0.30742,0.10596
0.079755,0.21252,-0.23999,0.065011,0.045993,0.072859,-0.36799,-0.044688
-0.046758,-0.057683,0.28314,0.020066,0.039164,0.034111,0.23438,-0.012924
0.0012148,-0.27649,-0.15717,-0.0222,-0.1066,-0.032278,-0.48386,0.020867
-0.041877,0.57053,0.061954,-0.046862,-0.0011361,-0.13636,-0.40191,-0.069267
-0.027892,-0.23698,-0.029621,-0.10187,0.034564,0.25827,0.79738,0.15313
-0.027778,-0.1383,-0.13556,0.061505,-0.039281,-0.36643,-0.86446,-0.24258
-0.058076,-0.064787,0.18978,0.098325,0.02671,0.12842,0.86968,0.10222
0.1926,0.16196,-0.0916,-0.062658,-0.010056,-0.06244,0.21883,-0.016061
0.098075,-0.16981,0.014025,0.015567,-0.032517,0.022514,-0.45661,-0.03511
-0.084927,-0.076045,0.039672,0.051805,0.10792,0.11151,0.3137,0.2326
-0.099365,0.40424,0.041743,-0.10957,-0.057088,-0.097833,-0.24936,-0.11899
-0.10178,-0.1349,0.013879,-0.014327,-0.066058,-0.056155,-0.64326,-0.097416
0.0096925,0.10379,-0.035049,-0.0048279,0.042535,0.16834,0.18153,-0.030473
0.10309,-0.26984,-0.15914,-0.0093602,-0.051134,-0.11049,0.24298,0.050946
0.078129,0.049353,-0.16294,-0.003386,0.067267,0.19365,0.36298,0.10815
-0.087205,-0.12566,0.46885,0.2402,0.069584,-0.060498,0.43257,0.039963
-0.024377,0.11177,-0.10032,-0.27097,-0.099201,-0.12433,-0.36153,-0.12977
0.03327,0.074389,0.15218,0.18105,0.091594,0.031606,-0.52874,-0.049044
0.086312,0.19199,0.022473,0.27464,0.00067813,-0.086653,-0.2194,0.0091852
-0.029246,-0.1839,-0.71653,-0.50725,-0.12254,0.26171,0.59619,0.10008
-0.10286,-0.045493,0.30998,0.11541,0.041886,-0.27557,-0.028019,-0.065021
-0.018118,0.10743,0.04742,-0.092495,-0.013921,-0.026584,0.033245,0.0062954
0.083389,-0.26353,0.089689,-0.076464,-0.070971,0.18128,-0.39851,-0.021941
0.020919,0.35846,0.10864,0.18722,0.097749,0.060119,0.58475,0.11555
-0.050261,-0.11858,0.080444,0.18346,0.055255,-0.3028,-0.85877,-0.1053
0.0018642,-0.18473,-0.12065,-0.10279,-0.049581,0.2421,0.38177,0.049016
0.075217,-0.29885,0.22319,0.039835,0.049121,-0.031079,0.61165,0.08537
-0.080386,0.36881,-0.39664,-0.075852,-0.047033,-0.098838,-0.50576,-0.21585
-0.019468,0.27987,-0.15235,-0.090244,-0.041296,0.2648,-0.042685,0.066604
0.055315,0.043173,0.10476,0.059448,0.058308,-0.15217,0.20115,0.17464
-0.089734,0.0085435,0.10205,-0.079478,-0.045293,-0.015134,0.31636,-0.23537
0.053958,-0.51423,0.13757,0.0091728,0.0071828,0.010632,-0.61383,0.071406
0.049596,0.04978,0.11098,0.13073,0.028296,-0.13821,0.088735,0.017567
0.038331,0.13488,-0.078205,0.012317,0.0026436,0.08497,0.17415,0.010201
-0.088926,0.13681,-0.14014,-0.04099,-0.022558,-0.030404,-0.28545,0.026676
-0.027463,-0.11821,0.07415,0.01774,-4.5062e-05,-0.0068713,-0.12273,-0.026093
0.074098,0.15011,-0.099103,-0.17899,-0.054485,0.063043,0.40853,0.063291
0.027934,-0.065986,-0.073807,0.086881,0.025229,0.18066,0.046691,0.013835
-0.096013,-0.12492,-0.13904,-0.013795,0.028086,-0.12157,0.10743,-0.11968
0.022231,-0.0015869,0.47058,0.19742,0.094352,-0.10832,-0.3137,-0.024792
-0.0082127,-0.029806,-0.018891,0.086433,-0.034384,-0.01334,0.033488,0.048398
0.015637,0.12854,-0.13947,-0.3713,-0.05416,0.0073241,0.1633,-0.0096979
0.031231,0.0066068,-0.032738,0.12824,-0.012542,0.055023,-0.02051,0.019323
-0.00046794,0.027615,0.073777,0.1788,0.050925,-0.0037288,-0.22421,0.080256
-0.02471,-0.049982,-0.34421,-0.28927,-0.074854,-0.0059855,0.21299,-0.077594
-0.0023538,-0.023105,0.15018,0.022229,-0.030286,-0.00011024,0.13968,0.060575
-0.027066,0.13893,0.095574,-0.0022428,0.013281,0.090326,-0.89178,-0.084199
0.080918,-0.056913,0.22606,0.076479,0.040931,0.037097,0.85928,0.10456
-0.068947,-0.1427,-0.19297,0.19718,0.084629,-0.12208,-0.36574,-0.15485
0.039047,-0.017464,-0.036743,-0.1239,-0.034748,-0.028585,0.68313,0.075004
-0.040321,0.013825,0.07738,-0.0040831,-0.0122,-0.049593,-0.39981,0.021052
0.021184,0.0058775,-0.17877,0.0089037,-0.050812,0.026656,-0.043077,-0.019073
0.02837,0.13075,0.12467,-0.047151,0.028905,0.0376,-0.29964,0.072882
-0.034267,0.037085,-0.019642,-0.0095699,-0.023397,0.039844,-0.11268,-0.10811
-0.010372,-0.056301,0.11561,0.050171,0.049689,-0.0036817,0.23105,0.001638
-0.0014478,-0.024471,-0.17164,-0.11082,-0.04128,-0.020939,0.46803,-0.065664
0.015937,-0.008212,0.018287,-0.03173,-0.023158,-0.0029328,-0.43922,0.12804
0.0026266,-0.038931,0.17114,0.1472,0.049193,0.050813,0.18197,-0.0031444
0.028749,0.031767,-0.086729,0.036127,0.011658,-0.024035,0.15189,0.10281
0.00030063,0.00088396,-0.058868,-0.082801,0.004909,-0.064348,-0.28794,-0.054965
-0.028315,-0.0141,-0.080434,-0.10721,-0.095935,0.022217,0.056716,-0.079111
-0.010486,0.0028196,0.044095,0.11966,0.060829,0.054348,-0.15908,-0.017503
-0.032349,-0.05739,-0.0061183,-0.034934,-0.024673,-0.008576,-0.10836,-0.050539
0.038799,0.086679,0.11134,0.030228,0.077318,-0.01933,0.0046266,0.055873
-0.00017881,-0.03386,0.011571,0.36134,0.0074286,0.11519,0.78815,0.044076
0.03828,0.10395,0.2076,-0.4096,-0.054712,-0.11276,-0.42307,0.0083082
-0.033205,-0.031945,-0.3267,-0.10361,-0.054507,-0.19462,-0.45063,-0.089866
0.0042635,-0.11437,-0.031093,0.028937,0.062648,0.15214,0.72768,0.10167
-0.0053997,0.082278,0.24933,0.058355,-0.015803,0.0071572,-0.56097,-0.080896
-0.062031,-0.036451,-0.20424,0.11782,-0.00081068,-0.011015,-0.098312,-0.020518
0.092338,0.05258,-0.015426,-0.042109,0.0060832,0.051589,0.3893,0.055622
-0.01091,-0.033219,-0.017576,0.0088724,-0.0028946,-0.023701,-0.26904,0.1309
0.0033346,-0.066537,-0.05885,0.01345,0.034803,0.17644,0.49091,0.0010246
-0.013283,0.024107,0.17682,0.042272,-0.0214,-0.021232,0.04658,-0.10071
-0.037269,0.021357,0.09088,-0.099799,0.0082475,-0.19652,-0.76311,-0.10467
-0.021723,-0.003101,-0.20542,0.0091827,-0.040237,0.00061456,-0.020869,-0.042138
0.017717,0.014326,0.077258,-0.0057669,-0.0026865,0.053597,0.29982,0.095393
0.080989,0.074253,-0.070279,-0.074347,0.019458,-0.076761,0.13103,0.020209
-0.0038948,-0.057662,0.26318,0.12369,0.02631,0.071252,0.31771,0.070034
-0.010517,-0.0069594,-0.15274,-0.052447,-0.021118,-0.047724,-0.35925,-0.042283
-0.056203,0.01443,0.10766,-0.017155,-0.0056224,0.052618,0.12945,-0.065048
-0.0082357,-0.025996,0.11906,0.18218,0.01805,-0.00079532,-0.28989,-0.012699
0.00055053,-0.027963,-0.62068,-0.18164,0.0028983,-0.065836,0.15968,0.091782
0.00145,0.054292,0.16146,0.015723,-0.027813,0.092619,-0.096865,-0.056666
0.033605,-0.045625,0.13087,0.11748,0.0038578,0.0056469,-0.14988,-0.0060895
0.026773,0.015717,0.032543,-0.11099,0.019634,0.054994,0.61425,0.11671
0.0044167,0.043161,0.19821,0.049207,0.019426,0.027982,-0.072232,0.043991
-0.056939,-0.064251,-0.14185,-0.1201,-0.028012,-0.16338,-0.24087,-0.15604
0.037929,0.046004,-0.015785,-0.032092,-0.021018,0.057076,0.10233,0.030562
-0.047039,-0.007703,-0.17159,0.12679,-0.006283,-0.15589,-0.81227,-0.13159
0.016156,0.010246,0.21945,0.037196,0.024234,0.12665,0.47373,0.021392
0.016458,-0.039649,0.015905,-0.026802,0.00043775,0.060955,0.2006,0.08386
-0.0071766,-0.00031566,0.059543,-0.018154,-0.015018,-0.031926,0.014379,0.072653
-0.0079669,-0.051076,-0.097659,0.05499,0.063853,-0.017916,0.051728,0.012759
0.006195,0.057864,-0.091399,-0.019064,-0.020837,0.026392,0.27516,-0.070763
0.027445,0.067888,0.06801,-0.022563,-0.042697,-0.077152,-0.4491,0.011057
0.0011016,-0.022331,-0.0586,-0.034642,0.013657,0.06339,0.039758,-0.021871
-0.010237,0.035551,0.082868,-0.0014197,-0.023901,0.019236,0.16656,0.010919
0.03272,0.013272,-0.16334,-0.009284,0.024092,0.056421,0.042988,0.047291
-0.10404,-0.090584,0.063508,-0.011397,-0.0065938,-0.09859,-0.29709,-0.1003
0.0018473,-0.065922,0.085587,0.039465,0.02458,-0.032269,0.14231,0.036505
0.022762,0.071538,-0.0092587,0.018934,-0.0073883,0.043605,-0.2505,-0.019589
0.052906,-0.060354,0.077402,0.068421,0.030408,0.026475,0.00073831,0.074218
-0.0012017,0.031859,-0.051943,-0.061268,-0.04153,0.0091023,0.49131,-0.003472
0.016703,-0.0096127,-0.10024,-0.1038,-0.011993,-0.0015387,0.23993,0.0040718
-0.034269,0.066796,0.0023257,0.050725,-0.029096,-0.060714,-0.53836,-0.03689
0.048508,0.035755,0.16883,0.035391,0.040295,0.026635,0.23133,0.13864
-0.055918,-0.016112,-0.00031191,0.0064278,-0.030137,0.049636,-0.84511,-0.25082
-0.051337,-0.0028005,-0.11552,0.026023,0.072216,-0.13201,0.1497,-0.080092
0.046043,-0.065415,0.11166,-0.00013931,0.011344,0.060315,0.68613,0.21384
-0.0063841,0.0061282,-0.24075,-0.049354,-0.064565,0.033345,0.14638,-0.016778
0.048976,0.0077018,-0.20354,-0.020846,0.015981,-0.0015863,0.027567,0.10376
0.016807,0.063386,0.33344,0.037785,0.018175,0.057304,-0.073452,-0.009915
-0.071441,-0.077474,0.0976,-0.045893,-0.034937,-0.024308,-0.31055,-0.16213
0.011167,-0.016717,0.058273,0.009055,-0.026441,-0.0042738,0.16298,0.022278
0.01513,0.073916,0.25472,0.14792,0.059188,0.015833,-0.28864,0.058989
-0.012114,-0.031649,-0.6883,-0.043088,0.018914,-0.088853,-0.10316,-0.012958
-0.0075147,-0.051431,0.14277,-0.11027,-0.029818,0.0023148,0.32371,-0.021707
-0.0018679,0.070059,0.11449,-0.045024,-0.047568,-0.046096,-0.25285,0.0014946
0.059803,-0.03366,0.0075118,0.0051077,0.036405,0.039899,0.14252,0.0098021
-0.025551,0.028485,0.17297,0.0644,-0.011881,0.0028941,-0.092961,0.02669
-0.0237,-0.0012239,-0.16282,0.024078,0.003164,0.1086,0.31932,0.02874
-0.0052941,-0.021526,0.06261,0.032793,0.050391,0.08326,-0.086772,-0.070011
-0.0020588,0.021618,-0.19744,0.012192,-0.026548,-0.1598,-0.07742,-0.043092
0.055789,0.033578,0.18237,-0.038339,0.0064491,0.026856,0.13276,0.10151
-0.043189,-0.1116,-0.055347,0.044419,0.0083745,-0.053109,-0.12642,-0.1052
0.020933,0.10871,-0.019537,-0.068513,-0.036801,0.036955,0.26261,0.15675
-0.025496,0.014271,0.11047,-0.010601,-0.0044131,-0.023733,-0.19187,-0.073956
-0.01842,-0.066879,-0.040102,-0.047782,0.0037733,-0.0086187,-0.26136,-0.032066
0.026731,-0.0015505,-0.033708,-0.0081105,-0.027911,0.082738,0.36323,0.032121
-0.030321,-0.046736,-0.018864,0.085345,0.064696,-0.1239,-0.77948,-0.084684
0.037413,0.0017997,-0.12074,-0.032525,-0.022894,0.098945,0.58637,0.10972
0.011602,0.01243,0.37141,0.052818,0.014253,-0.021326,0.13719,0.013982
-0.0058567,0.072098,-0.33162,-0.03333,-0.018933,-0.062239,-0.14482,-0.090282
-0.022579,0.025166,0.16071,0.037201,0.010574,0.023303,-0.10573,-0.0151
0.016164,-0.011086,-0.12811,0.13143,0.017002,0.12574,0.34476,0.052516
-0.014735,-0.029282,-0.033837,-0.23532,-0.05421,0.010169,-0.22838,-0.027653
0.0095057,-0.014647,0.11564,-0.024247,0.0079618,-0.050664,-0.020105,0.072753
0.010477,0.039563,0.10189,0.045742,0.039513,-0.11992,0.18675,-0.029066
-0.02774,-0.11771,0.05019,0.021551,-0.014213,0.051987,-0.24354,-0.044262
0.035229,0.12989,-0.25793,0.067427,0.010844,-0.081876,0.08401,0.058033
-0.019533,-0.05406,-0.056661,0.050837,0.013087,0.11163,0.15076,-0.019513
-0.02021,-0.036806,0.099336,-0.11387,-0.038815,0.031546,0.18929,0.011756
0.0098191,-0.0055183,0.10048,-0.051479,-0.051246,-0.024547,-0.44887,-0.028095
0.0082176,0.079479,-0.01473,0.019357,0.030273,-0.14199,-0.32437,-0.06095
0.022104,-0.031061,-0.075359,0.036075,0.049202,0.14828,0.36305,0.09313
-0.0029182,-0.016095,-0.012413,0.13909,0.044236,0.064923,-0.20287,-0.010696
-0.035295,0.031207,0.094462,-0.078163,-0.039716,-0.087878,0.051901,-0.059332
0.0033816,-0.0059999,0.18911,-0.022264,-0.0077089,-0.076575,0.41867,-0.028749
0.058655,0.044229,-0.23738,-0.037215,0.015018,0.15255,0.57727,0.17526
-0.072455,-0.091727,-0.08383,-0.076237,-0.096566,0.043935,-0.80259,-0.12678
0.016329,0.038868,0.15814,0.040435,0.064014,-0.14515,-0.029617,0.041604
-0.011042,-0.0098287,-0.29116,0.0005069,-0.026225,-0.016318,-0.061984,-0.015277
-0.0063974,0.0037555,0.29722,0.077656,0.016145,-0.08468,-0.21721,-0.024602
0.10798,-0.1554,-0.19102,0.029878,0.04334,0.04918,0.43036,0.01289
-0.059041,0.25425,0.18448,0.15412,-0.0065702,0.097437,0.2221,0.065209
-0.007996,-0.010037,-0.034901,-0.34653,-0.031642,0.030054,-0.22508,-0.016695
-0.051859,0.043511,-0.22282,0.082509,-0.00049557,0.019823,-0.2922,-0.1004
0.051229,-0.23371,0.4177,0.058336,0.01642,-0.096898,0.12587,0.032734
-0.019168,0.049077,-0.27859,-0.098811,-0.012508,0.015675,-0.11457,5.3484e-05
-0.020764,0.017387,0.10793,0.13447,0.021574,-0.033766,-0.039707,0.012868
0.038921,0.023597,0.097765,-0.038715,-0.014718,0.089653,0.42523,0.024788
-0.034993,0.060905,-0.28093,0.084746,0.010912,-0.044992,-0.2323,-0.010562
0.093932,-0.033716,0.10974,-0.0029572,0.066853,0.13927,0.77022,0.17287
-0.081626,-0.032802,0.056957,-0.14552,-0.14391,-0.19436,-0.94291,-0.29959
0.0012518,-0.02166,-0.15105,-0.092804,-0.03533,-0.022832,-0.13966,0.095673
-0.00088111,0.10936,0.15013,0.17886,0.10383,0.0055602,0.21553,0.046249
-0.0019352,-0.030472,-0.15537,-0.033353,0.016187,0.024239,0.33737,-0.057258
0.0058896,-0.12127,0.23919,0.13025,0.038128,0.12007,-0.0125,0.081934
0.053671,0.10191,-0.093559,-0.080037,-0.025284,-0.065283,-0.31403,0.0027487
-0.054209,0.044527,-0.167,-0.078085,-0.0488,-0.023063,0.031973,-0.052771
0.0099913,-0.059823,-0.010635,-0.051308,-0.016699,0.044304,0.040074,0.032461
0.011501,-0.016467,0.43903,0.070529,0.024092,0.059065,0.37472,-0.030633
-0.018765,-0.044564,-0.27099,0.068387,0.042131,-0.14281,-0.29047,-0.0075924
0.012734,0.082308,-0.039851,-0.17545,-0.10352,-0.0068771,-0.25732,0.0079973
-0.01905,-0.034165,-0.032957,0.088228,0.055499,0.04449,-0.037999,-0.046181
0.011005,0.03603,-0.13485,0.15536,0.081222,0.041908,0.19135,-0.029387
0.0015981,-0.050411,0.45738,0.21247,-0.0033543,-0.038771,-0.011655,0.19897
-0.015675,0.04292,-0.33588,-0.51464,-0.10484,0.03613,0.65173,-0.072269
0.0064201,-0.027323,0.21879,0.15336,0.081284,-0.0074183,-0.73987,-0.046638
0.013487,-0.018686,-0.25386,-0.095815,-0.093388,0.025507,0.22683,0.033177
0.021319,0.04548,-0.026688,0.058961,0.027688,-0.0058199,0.19854,-0.020806
-0.016953,0.024447,0.081219,0.11113,0.023124,0.00038579,-0.1395,-0.044862
-0.031173,-0.027367,0.14967,-0.047234,-0.028365,-0.22879,-0.65675,-0.054729
0.025249,-0.055654,-0.19453,0.069638,0.069103,0.1433,0.31668,0.14505
-0.0042994,0.0094705,0.042338,-0.099696,-0.051226,0.070526,0.22447,-0.07797
0.020442,0.058229,0.18158,0.11722,0.032745,0.037838,0.10443,0.050176
0.013239,0.012178,-0.1828,-0.1702,-0.02275,-0.040427,0.19781,0.022266
-0.018264,-0.011682,0.13622,0.17041,0.071134,0.054397,0.01189,-0.051753
-0.066258,-0.091513,-0.073414,-0.1821,-0.10782,-0.021837,-0.45332,-0.062023
0.010041,0.038427,-0.11784,0.091522,0.03379,-0.1447,0.013943,0.023039
0.031229,-0.0044299,0.14204,0.068297,-0.0043271,0.1227,0.032615,0.062963
0.03671,0.069306,0.10342,-0.010589,0.027698,-0.063823,0.042814,0.057704
0.026808,0.025627,-0.093835,-0.091193,-0.0029094,0.022041,-0.014823,-0.032019
-0.045106,-0.04135,-0.051414,0.13078,-0.025654,-0.025946,-0.10593,-0.073749
-0.022641,-0.068777,-0.26888,-0.20408,-0.016834,0.073677,0.22512,-0.0054191
-0.015147,0.02959,0.16865,-0.056397,-0.030893,-0.077189,0.28434,0.00063097
0.024179,-0.011629,0.066701,0.18367,0.057295,0.13903,-0.41277,-0.040446
0.01706,0.003023,0.050851,0.086979,0.052344,-0.082002,-0.063125,0.073998
-0.013265,0.0032461,0.21488,0.028952,-0.0069881,-0.06813,0.37731,0.046614
0.034559,0.12171,-0.019861,-0.162,-0.066506,0.048002,-0.33726,0.009776
0.0040969,-0.063757,-0.25581,-0.032599,0.060715,-0.014811,0.18002,0.080335
-0.065705,-0.076972,0.10772,0.11254,-0.016465,-0.014475,-0.43361,-0.20278
0.012622,0.04259,-0.22663,-0.070227,-0.032729,0.056602,0.62402,-0.019103
-0.026487,-0.05699,0.10847,-0.0026103,-0.011507,0.057471,-0.0077237,0.014647
0.020214,0.045922,-0.011083,0.018765,-0.0071348,-0.12161,-0.64119,0.00076761
0.05912,0.03873,0.064548,-0.013628,0.020102,0.058092,0.4361,0.15889
0.03567,0.015237,0.024485,0.002013,0.016335,0.088568,0.15648,0.021119
-0.081297,-0.055623,-0.067348,0.011108,-0.041056,-0.21769,-0.59383,-0.13841
0.0051386,0.013937,-0.0382,-0.0020569,0.012621,0.061428,0.18875,-0.030228
-0.033133,-0.049184,0.17456,0.055966,0.044854,0.027876,0.44489,-0.021435
0.02263,0.060028,0.29686,0.012826,0.016477,0.057164,-0.16685,0.075212
0.023963,-0.056621,-0.53968,-0.022656,0.020756,-0.014275,0.08907,0.087304
-0.021381,0.015019,0.12443,-0.09005,-0.07588,0.040503,-0.11555,-0.040566
0.042749,0.087345,-0.01683,-0.017836,0.022579,-0.067369,-0.18811,0.018975
-0.018159,-0.035245,-0.065998,0.037603,-0.020589,-0.017597,-0.060262,-0.078444
-0.0011379,0.0062002,0.078022,0.084172,0.0050059,0.0099,0.12489,0.018382
-0.015714,-0.0075165,0.19649,-0.057542,-0.018037,-0.047795,0.0052372,-0.089014
-0.0073114,-0.045503,-0.25713,-0.019977,0.011981,0.11344,0.39053,-0.017569
-0.015047,-0.021992,-0.0011021,0.064453,0.017362,-0.053914,-0.49515,0.076861
0.031404,0.024022,0.11349,0.039848,0.014339,0.066672,0.19781,0.030561
0.022737,0.014695,0.0010262,-0.14041,-0.027687,-0.064423,0.038648,0.13273
-0.025317,0.028575,0.13826,-0.038676,-0.0065845,0.021194,0.23049,-0.085561
-0.026697,-0.035449,0.17373,0.15752,0.038964,-0.082793,-0.67856,-0.10129
0.010909,-0.012947,-0.58773,-0.07541,-0.015899,0.077,0.14982,0.053735
0.064179,0.041586,0.080765,0.059087,0.0084174,-0.0066738,0.42981,0.058746
-0.062091,0.0031277,-0.070343,-0.0018942,0.0022447,-0.051779,-0.33497,-0.055189
0.030636,0.01989,0.35788,-0.094728,-0.02701,0.028494,0.21826,-0.022204
-0.04035,-0.080367,-0.0091892,0.061465,0.0061674,-0.022857,-0.11097,-0.029125
0.029732,0.076951,-0.069927,0.068038,0.046733,0.12291,0.1475,0.018807
-0.024665,-0.024117,0.26135,-0.098434,-0.093042,-0.041699,-0.24853,-0.072607
-0.008198,-0.04781,-0.41433,-0.015812,0.032074,-0.040089,0.066634,-0.028983
0.024396,0.044975,0.02744,0.035129,0.0080688,-0.013145,0.043405,0.24393
0.01828,-0.018947,0.015834,-0.085635,0.01476,-0.039458,0.11575,-0.003945
0.020071,0.010828,0.027116,0.13031,0.013242,0.060065,-0.016981,-0.0076841
-0.048696,-0.044927,0.022163,0.0037556,-0.011979,-0.012098,0.11843,-0.057458
