0.080498,-0.0084521,0.013616,0.0036393,-0.0052471,-0.04459,-0.20782,-0.39089
-0.084147,0.0070317,-0.026448,-0.041536,-0.0038643,0.034306,0.12475,0.54908
0.36873,0.008402,-0.011066,-0.0082549,-0.017542,-0.027695,-0.19462,-0.53181
-0.28116,-0.0041563,-0.0026564,0.01726,0.0082335,-0.019751,-0.09597,-0.19185
0.25993,0.062893,0.037789,0.026909,0.018535,0.019058,0.13995,0.94761
-0.21522,-0.033245,-0.0071136,0.004803,-0.010353,-0.0049642,0.0534,0.24232
0.12505,0.081537,0.065447,0.028859,0.022854,0.033281,-0.018047,-0.8097
-0.11332,-0.093759,-0.073029,-0.041664,-0.022705,0.0089155,0.067931,-0.42657
-0.072726,-0.0053263,-0.0088376,-0.01144,0.0012554,-0.031068,-0.07006,-0.2611
0.044186,-0.036545,-6.6312e-05,-0.0053096,-0.0068669,-0.00062671,0.021991,0.37998
0.13866,0.0077692,-0.046864,-0.015172,-0.0079223,-0.0012333,0.039636,0.38614
-0.49552,-0.020494,0.030435,-0.0015999,-0.0017136,-0.017192,-0.087837,-0.44777
0.15518,0.098114,0.07565,0.027948,0.035466,0.060922,0.09178,0.50633
0.32287,-0.041751,-0.059548,0.011226,-0.028905,-0.055942,-0.039949,0.20078
-0.10551,-0.017296,0.01557,0.0030068,0.00073624,-0.0084414,-0.15628,-0.34589
0.17636,0.062858,0.027651,0.026618,0.015185,0.039262,0.14771,0.65508
-0.41885,-0.082083,-0.054476,-0.043212,-0.016751,-0.037997,-0.043163,-0.53246
0.45597,0.03235,0.042742,0.011908,0.022061,0.040804,0.059386,-0.089067
0.020602,0.015279,0.0070101,0.0041423,0.0064764,-0.0058434,0.040921,0.18272
-0.42045,-0.032251,-0.03634,-0.0042266,-0.0011916,0.040569,0.19844,-0.62441
0.53926,0.053176,-0.032156,-0.036663,-0.040182,-0.07012,-0.42056,-0.34246
-0.27787,0.020961,0.027933,0.00076524,0.014392,0.0058147,0.020967,0.45854
-0.0071168,0.011346,0.027309,0.030284,0.014073,0.0028989,0.071304,-0.10154
-0.053272,-0.053836,0.0054946,-0.0023594,-0.0020005,-0.00041899,-0.010293,0.70649
-0.52814,-0.11956,-0.091976,-0.018633,-0.018051,0.011939,0.035141,0.3127
0.27982,-0.013281,0.055089,0.0208,-0.0026507,-0.014211,0.083171,-0.4973
-0.21332,-0.023281,0.032107,0.014439,-0.0025302,-0.015912,0.17267,-0.0048149
0.52521,0.25739,0.010052,-0.0066345,0.029247,0.03059,-0.16605,-0.25285
0.56483,0.040072,0.05025,0.027521,0.014505,0.078529,-0.082816,0.15043
-0.59908,-0.081533,-0.012622,-0.0085832,0.0077644,-0.075343,0.030187,0.0021114
-0.1004,-0.12349,-0.10156,-0.068569,-0.053712,-0.095429,-0.28924,-0.25154
0.29813,0.14788,0.040471,0.050288,0.056389,0.17402,0.70826,0.14254
-0.27836,-0.2057,-0.1024,-0.042864,-0.044941,-0.09571,-0.45371,0.32329
-0.018428,0.010408,0.0091848,-0.012109,-0.029663,-0.045832,-0.25066,0.183
0.31957,0.17078,0.14946,0.080216,0.039768,0.10439,0.31134,-0.49235
-0.4114,-0.18572,0.046145,-0.039029,-0.039618,-0.17666,-0.28116,-0.7194
-0.11326,0.14404,-0.11193,0.028958,0.060525,0.1968,0.49753,0.32179
0.47166,0.2227,0.090615,0.050168,0.059177,0.30298,0.4462,0.52038
-0.91934,-0.40268,-0.22788,-0.17039,-0.13722,-0.59216,-1.137,0.14556
0.7737,0.025883,0.042786,0.039381,0.018301,0.027608,-0.0014621,0.14235
0.40111,0.21949,0.18424,0.10148,0.072642,0.16303,0.41472,0.22497
-0.20222,-0.087356,-0.04587,-0.023162,-0.013336,-0.021086,0.071058,-0.9194
-0.19426,0.027287,-0.015408,0.0012514,-0.013194,0.1868,0.18397,0.68335
-0.55474,-0.05369,-0.0067782,-0.02081,-0.013013,0.005749,0.20369,-0.82107
0.63316,-0.080185,-0.029234,-0.019292,-0.012904,-0.13453,-0.35706,0.38661
-0.33303,0.10425,-0.05302,-0.02568,0.0027162,-0.077989,-0.32875,0.59765
0.12319,0.085879,0.16277,0.077058,0.065146,0.19068,0.52182,-0.40022
0.33402,-0.0097363,-0.07801,-0.047057,-0.083286,-0.27409,-0.73485,-0.24442
-0.44041,-0.025565,0.060403,0.062997,0.057638,0.15254,0.31678,-0.16211
0.30105,-0.17154,-0.13238,-0.076958,-0.06652,-0.076344,-0.071088,-0.1199
0.12961,0.19407,0.055825,0.048974,0.091348,0.13298,0.52567,0.32275
-0.20317,-0.24023,-0.10764,-0.090182,-0.085796,-0.055531,-0.25074,0.50371
0.032379,0.080799,0.0040798,0.037014,0.027059,0.10003,0.31104,-0.56245
-0.20533,-0.01497,0.11133,0.032143,5.0644e-05,-0.15082,-0.55545,-0.060722
-0.27582,0.12738,-0.0037338,0.0043498,0.012487,0.066255,0.25734,0.3349
-0.16152,-0.041537,0.018197,0.031268,0.040371,0.063018,0.14552,0.62612
0.58637,0.11537,-0.019285,-0.028432,-0.057595,-0.16903,-0.51814,-0.60979
0.2143,0.13315,0.14749,0.027588,0.038219,0.088328,0.41322,0.071182
-0.038883,0.062733,0.094239,0.0033166,-0.0086837,0.022355,-0.17041,-0.26023
0.67508,-0.45788,-0.3454,-0.05479,-0.018931,-0.05438,-0.11227,-0.3892
-0.88134,0.047106,-0.0012372,-0.029541,-0.015931,0.053856,0.44852,0.53631
0.18758,0.04795,-0.030133,0.017059,0.0085375,-0.042815,-0.51701,-0.49457
-0.78441,-0.24856,0.029421,0.0078307,0.016178,0.20351,0.65796,0.36968
-0.14316,0.3347,0.14783,0.037782,0.015823,-0.1825,-0.5706,-0.50261
0.19416,-0.040204,0.13217,-0.01673,-0.038274,-0.10577,0.073387,0.72461
0.39388,-0.063277,-0.24145,-0.021682,-0.027881,0.013062,0.10765,-0.19361
0.42325,0.16766,-0.040948,-0.023109,0.024341,0.0187,-0.099292,0.54846
0.44035,0.036918,0.10263,0.080851,0.024994,0.13816,0.16381,0.064944
0.021127,-0.073635,-0.036527,-0.03824,0.012977,-0.011569,-0.15847,-0.90037
-0.58121,-0.026482,0.072481,0.0093487,0.0032389,-0.02515,0.10395,0.64479
-0.027491,0.072272,0.068869,0.050412,0.049392,0.10374,0.15942,-0.55687
-0.59313,-0.016751,-0.0026758,-0.033767,-0.045153,-0.11891,-0.30759,0.02853
0.076144,0.06139,-0.03532,0.005357,-0.00037572,0.0082321,0.36399,-0.1245
0.027751,-0.38381,-0.10958,-0.091144,-0.082841,-0.078788,-0.23457,0.43841
0.68167,0.11532,-0.12568,0.027711,0.011666,-0.037036,-0.29234,-0.5054
-0.4054,0.020631,0.1577,0.010395,0.025398,0.031849,0.0027645,0.4634
-0.40944,0.029987,0.029798,0.0059615,0.021416,0.13631,0.58896,-0.040728
0.33661,0.15466,0.14015,0.085767,0.047508,0.082213,0.23359,-0.23302
0.6922,-0.04708,-0.24386,-0.11612,-0.074943,-0.23833,-0.90479,0.25466
-0.35477,0.0057798,-0.018624,0.0030788,0.01445,0.051224,0.11385,0.38905
-0.063384,-0.05227,0.020879,0.030266,0.011772,0.006878,-0.098954,-0.37344
-0.29854,0.0055355,0.0635,0.036289,0.01899,0.027958,0.7472,-0.078009
-0.0060256,-0.025124,0.070707,0.013371,-0.018606,-0.07274,-0.51946,0.003374
0.75829,0.36134,0.12024,0.015771,0.031376,0.20442,0.40443,0.029598
-0.16933,-0.44714,-0.15627,-0.05103,-0.027097,-0.11807,-0.40552,-0.37718
-0.011723,0.21099,0.098939,0.015188,0.0082318,-0.0025127,0.078691,0.52539
-1.0574,-0.22073,-0.13141,-0.044212,-0.027535,0.018349,0.29136,-0.28292
0.050733,0.085211,-0.059427,0.020204,0.044652,0.036966,0.1442,-0.19484
0.11082,-0.034645,0.025399,-0.01832,-0.033328,-0.095921,-0.52763,0.35945
0.41514,0.077634,-0.0014618,0.0044697,-0.019211,-0.036713,-0.27769,-0.35456
0.25511,-0.028754,0.033096,0.0031307,0.0015132,-0.034847,0.0064229,0.61529
0.17672,0.10174,0.060429,0.064261,0.0452,0.1921,0.5087,-0.06178
-0.16182,-0.13046,-0.14435,-0.092735,-0.059165,-0.088725,0.29637,-0.1095
0.017162,-0.021163,0.084061,0.040443,0.0095459,-0.14135,-0.86865,-0.41026
-0.0057285,0.17173,0.10549,0.065561,0.064429,0.26209,0.86003,-0.16894
-0.17185,-0.084322,-0.13525,-0.087822,-0.034896,-0.10416,-0.43886,0.50947
-0.11099,0.19282,0.33701,0.087658,0.031714,-0.029068,0.10823,0.35482
0.11877,-0.28091,-0.41729,-0.080557,-0.033187,0.041461,0.17774,-0.17684
0.18157,0.23386,0.19332,0.0082969,-0.011735,-0.0031446,-0.28154,-0.52763
-0.48812,-0.31987,-0.16137,-0.044987,-0.029983,-0.1098,-0.28983,0.095557
0.080548,0.087757,0.064099,0.087108,0.075089,0.079148,0.32848,-0.052108
0.3395,0.073686,0.056706,0.0058152,0.005756,0.085535,0.28151,0.18415
-0.66243,-0.04091,0.020112,0.023659,-0.0041046,0.033186,-0.049047,0.33501
0.37476,0.011367,0.010518,-0.069878,-0.071712,-0.20345,-0.44365,-0.41988
0.52367,0.16256,-0.11043,-0.024004,0.014346,0.039848,0.1315,-0.23665
-0.4114,-0.04574,0.0036846,-0.02514,-0.010623,-0.0016415,-0.3353,0.49406
0.10438,-0.1502,-0.050756,0.060728,0.026505,0.048541,0.52776,0.1002
-0.03894,-0.00048675,0.09556,-0.015275,-0.005718,-0.0031327,0.1861,-0.20744
0.40432,0.021822,0.029799,0.021114,0.0033175,0.0092044,-0.1301,0.62612
-0.33829,0.010877,-0.029195,-0.040687,-0.015809,0.016765,-0.32497,-0.71058
-0.024566,0.067809,0.11284,0.08037,0.062295,-0.034119,0.10962,-0.42637
-0.2867,0.0039694,-0.046073,-0.0070776,-0.012533,0.083506,0.21115,-0.19016
-0.02064,0.20836,0.10884,0.0083428,0.001226,-0.091545,-0.594,0.54826
-0.20569,-0.32856,-0.096648,-0.038718,-0.0068217,0.049318,0.56453,-0.059859
0.75959,0.15735,-0.21893,-0.016622,-0.030023,-0.11225,-0.045184,0.84641
-0.27111,-0.15511,0.053753,0.026941,0.039928,0.18027,0.24335,-0.36598
-0.14579,-0.062974,-0.067351,-0.072387,-0.063381,-0.082198,-0.23842,-0.15201
0.14755,0.082676,0.18455,0.052851,0.026848,-0.010032,0.13951,-0.053612
0.058393,0.009315,-0.056141,-0.065361,-0.048738,-0.088274,-0.62335,0.26221
0.098117,0.085086,0.055795,0.034917,0.03053,0.10467,0.33437,-0.67543
-0.23054,-0.017486,-0.025608,-0.004689,-0.0082443,-0.12644,-0.31128,-0.64865
-0.23828,0.15483,0.1294,0.12907,0.093306,0.21867,0.51557,0.62411
0.47418,-0.086001,-0.058132,-0.047852,-0.0003381,-0.070501,-0.21051,0.44848
-0.35888,-0.07693,-0.042802,-0.059095,-0.078044,-0.11858,-0.00025896,0.17688
-0.12122,-0.13177,0.017389,0.024392,0.016392,0.043494,0.047842,0.47364
0.40411,0.084105,-0.097871,0.0063572,0.017108,0.15026,0.34866,-0.20851
0.097441,-0.039773,0.071382,-0.012666,-0.052799,-0.142,-0.13042,-0.62804
-0.067657,0.13652,-0.084367,-0.025766,0.040699,-0.0051696,-0.21259,-0.37901
-0.22714,-0.02789,-0.0018896,0.036772,0.031713,0.091949,0.55959,-0.11719
-0.087036,0.029757,-0.031313,-0.067425,-0.064254,-0.13969,-0.98098,0.088377
-0.048131,-0.088229,0.11825,0.029078,0.026284,0.096902,0.11693,0.60656
0.46619,0.19749,0.13613,0.084715,0.037917,0.020694,0.087319,0.39188
-0.34933,-0.29117,-0.15583,-0.071505,-0.075891,-0.07113,0.0091673,-0.70348
0.10718,0.088269,-0.0066704,-0.0010963,0.0212,0.024901,0.53247,0.75766
-0.28032,-0.11544,-0.0098296,-0.031252,0.009267,-0.026833,-0.13034,-0.44433
0.24778,0.068074,-0.0015261,0.026258,-0.0098183,-0.05423,-0.39246,-0.1773
0.6235,0.30399,0.11906,0.078107,0.11256,0.2553,0.59761,0.55128
-0.91611,-0.16515,-0.10221,-0.070953,-0.08448,-0.1139,-0.29385,-1.3192
0.20224,-0.13665,0.0054828,0.0084947,-0.038511,-0.19325,-0.41199,0.30082
0.11441,0.09929,-0.097825,0.026857,0.039414,0.25145,0.86676,0.58778
0.23736,0.10351,0.18878,0.0069084,-0.022695,-0.11588,-0.81012,0.15576
-0.48122,-0.14146,-0.11942,-0.028567,0.025082,-0.076564,-0.26329,0.11765
0.069531,0.018875,-0.045912,-0.048841,-0.020405,0.096008,0.72634,-0.72829
-0.15716,-0.20593,0.03441,-0.0073499,-0.041964,-0.12151,-0.55142,0.46808
0.15746,0.12075,-0.011089,0.025515,0.046339,0.15377,0.64642,0.13223
0.6586,0.33456,0.26304,0.088934,0.041325,0.04691,0.12513,-0.06269
-0.0021096,-0.1658,-0.26032,-0.04341,-0.010264,-0.035914,-0.34156,0.20348
-0.57204,-0.13737,0.067258,-0.035284,-0.014887,-0.07921,-0.10518,-0.48378
0.17839,0.022537,-0.027629,0.0042102,-0.019675,-0.044103,-0.29855,-0.077282
-0.17602,-0.044061,0.0098494,0.012776,0.0063691,-0.001099,0.13316,-0.49703
-0.33176,0.047045,-0.0074823,-0.0094871,-0.0072646,0.073055,0.30754,0.62029
0.38425,0.023604,-0.00099443,0.023345,-0.0059917,0.021941,-0.071752,0.60894
-0.3529,-0.0042782,-0.071639,0.0017754,0.018005,-0.037406,-0.11346,-0.28062
0.45336,0.057251,0.0546,-0.035342,-0.0054852,0.16051,0.65954,0.17295
-0.036175,-0.026777,0.042164,0.021106,0.017456,-0.18909,-0.83822,-0.56481
0.24475,0.00023847,0.055143,0.0067759,0.0088975,0.030969,0.24515,-0.2999
-0.099953,0.019482,-0.12563,-0.039531,-0.070046,-0.148,-0.50435,0.23354
0.11011,-0.041105,0.022437,0.03041,0.038558,0.10224,0.38962,0.23974
-0.77424,0.066933,0.15439,0.036772,0.030057,0.16457,0.52007,0.46971
0.35452,-0.12621,-0.14516,-0.059556,-0.048731,-0.14069,-0.39549,-0.80324
0.2048,0.035345,0.020958,0.022741,0.052051,0.13167,0.50063,0.066986
-0.23401,-0.080878,-0.059092,-0.020842,-0.034967,-0.17479,-0.90275,0.21571
0.13687,0.041722,0.090887,0.044378,0.049427,0.1351,0.23657,0.14987
0.049352,0.25612,0.096206,0.070385,0.039534,0.045706,0.61303,0.22463
0.071894,-0.27985,-0.26871,-0.17669,-0.1505,-0.20056,-0.68746,-0.32481
0.20362,0.10724,0.052408,0.030281,0.0030105,-0.040716,-0.10151,0.086557
-0.078505,-0.034438,0.045868,0.01993,0.047354,0.11969,0.48177,-0.26935
-0.42885,0.20229,0.24494,0.089543,0.045508,0.023598,-0.30305,0.0051335
-0.18008,-0.32269,-0.22358,-0.03411,-0.017707,-0.0080757,0.13939,0.14543
0.0079356,0.078168,-0.022495,0.016114,0.045509,0.1031,0.52892,0.022361
0.4052,-0.017359,-0.1044,-0.096036,-0.085078,-0.20551,-0.80593,-0.15433
-0.031573,0.11654,0.171,0.042947,0.020036,0.15929,0.54092,0.79683
0.12931,0.010065,0.013421,0.0026419,0.0088612,-0.029957,-0.30608,-0.6198
0.10654,0.0057318,0.030309,0.016598,-0.0020256,-0.0556,0.011858,-0.62451
-0.13316,0.016361,0.02395,0.044946,0.041359,0.08129,-0.13849,0.20391
0.14117,-0.12316,-0.094062,-0.053611,-0.025725,-0.10452,0.25062,0.23166
-0.38686,0.047434,0.08042,0.033012,0.0071274,0.011478,-0.19557,0.29224
-0.04094,-0.065819,-0.1024,-0.015571,-0.0088006,0.038629,0.21092,0.44334
0.23153,0.076407,-0.080395,-0.050605,-0.034408,0.055479,0.38471,-0.32257
-0.093278,-0.10341,-0.016989,-0.016733,-0.014647,-0.13247,-0.89248,-0.5311
-0.0064248,0.075164,0.058036,0.0479,0.043287,0.15551,0.66866,0.57164
-0.052701,0.034666,0.084133,-0.011964,-0.0082871,-0.14973,-0.54131,-0.46428
-0.13626,0.10361,0.047697,0.023296,-0.012382,0.0074992,0.1724,-0.15101
0.087748,-0.085149,0.052012,-0.0098082,0.01595,0.096723,0.13687,0.26591
0.21228,0.053986,-0.058,0.037318,0.022311,-0.014501,0.16302,0.026712
0.14044,-0.16706,-0.14119,-0.0074846,0.0066658,0.064395,0.28021,0.13085
-0.094037,-0.084927,-0.010126,-0.027683,-0.031323,-0.13578,-0.64629,0.10242
0.0020852,0.096588,0.037761,-0.0007182,0.017176,0.04831,0.0070176,-0.22105
0.031341,0.15039,0.15788,0.025629,0.026557,0.022097,0.23167,-0.51714
0.035311,-0.0019077,-0.072575,-0.027499,-0.058384,0.019187,0.028102,0.71654
-0.066328,0.061667,0.072123,0.01919,0.027683,-0.039108,-0.15677,-0.048889
-0.17001,-0.064534,-0.10391,0.017294,-0.027745,-0.051501,0.18741,0.2357
-0.29265,-0.24653,-0.13212,-0.11867,-0.036881,-0.025782,-0.405,-0.2792
-0.0019243,0.15801,0.081374,0.049588,0.055463,0.12424,0.29569,-0.39639
0.23848,-0.067563,-0.0099427,0.007357,-0.0079512,-0.046356,0.12804,0.088881
-0.14421,-0.046116,-0.030692,0.0054835,-6.0002e-05,-0.021579,-0.10944,-0.11126
0.39243,0.146,0.1443,0.075777,0.032552,0.019155,0.036773,0.50366
-0.19914,-0.068344,0.022673,-0.015995,-0.011675,0.075949,-0.020111,-0.020027
0.53613,0.23265,0.10391,0.050183,0.054476,0.008121,0.37427,-0.24656
-0.069345,-0.1085,-0.10492,-0.093534,-0.082003,-0.15325,-0.70452,0.36812
-0.28942,-0.023709,-0.14355,-0.0026824,0.023588,0.068196,0.27194,0.10959
-0.29166,-0.16426,-0.035785,-0.076547,-0.066834,-0.085555,-0.23034,-0.75235
-0.26038,0.013738,-0.015877,0.059199,0.029098,0.033787,0.0049564,0.083837
0.35534,0.17953,0.07308,0.083862,0.076778,0.19955,0.67902,0.35035
0.39021,0.026612,0.16965,-0.010409,-0.025348,-0.11181,-0.28761,-0.094455
-0.25494,-0.023875,-0.05305,-0.043636,-0.034865,-0.12692,-0.16897,-0.023816
0.19993,-0.19803,-0.10948,-0.030893,0.001752,0.11509,0.3166,-0.045929
-0.39854,-0.0099557,0.0090095,-0.018351,-0.016565,-0.073321,-0.50903,0.23176
-0.35651,-0.058921,-0.10354,-0.020925,0.0044352,0.073536,0.099102,0.046021
0.49869,0.22794,0.20881,0.13382,0.072981,0.22769,0.36349,-0.022359
-0.16737,0.032583,-0.015882,-0.061635,-0.052852,-0.39181,-0.68037,-0.0019592
0.036517,-0.080923,-0.052553,-0.0057976,-0.013626,0.020133,0.17463,-0.56225
0.42896,0.091099,0.011019,0.027491,0.034277,0.14367,0.71267,0.11101
0.08319,-0.01432,0.032363,0.0063227,-0.0031888,-0.091102,-0.58852,0.010558
-0.22003,-0.031283,-0.021295,0.0080659,-0.0014136,0.15981,0.40287,0.38523
-0.06224,-0.0084187,-0.064911,-0.061711,-0.023309,-0.072395,-0.32412,-0.23684
-0.44114,-0.15065,-0.0048177,-0.015956,-0.022359,-0.045956,-0.086825,0.31909
0.55865,0.11083,-0.012107,0.012399,0.055875,0.027474,0.17934,0.65641
-0.5382,-0.13119,0.024124,-0.0076691,-0.054347,0.061052,0.28131,-0.50413
0.028028,0.12292,0.0043372,0.041542,0.061062,0.038251,0.097599,-0.3385
0.2915,0.02179,0.04011,-0.011156,-0.050876,-0.16662,-0.60836,-0.48062
0.17045,-0.01992,-0.022756,0.030274,0.02414,-0.014797,-0.086085,0.15014
0.029797,0.21748,0.12207,0.0024121,0.028594,0.12672,0.1988,-0.25289
0.02504,-0.10859,-0.055612,-0.03177,-0.045004,-0.077328,-0.30328,0.38075
-0.04594,-0.153,-0.15693,-0.040766,-0.0010283,0.030375,0.24965,0.11404
-0.35207,0.0076711,0.099166,0.061393,0.035801,0.091716,0.49602,0.41478
-0.1541,-0.14064,-0.038038,-0.03797,-0.059308,-0.26707,-0.63043,0.33392
0.42949,0.13783,-0.007194,0.043609,0.057511,0.28313,0.91106,-0.24489
-0.10947,0.062763,0.057425,-0.02246,-0.02781,-0.12433,-0.5209,-0.51893
-0.25574,0.048392,0.083866,-0.017953,-0.002899,-0.028528,-0.10876,-0.2966
0.37197,-0.007593,-0.070158,0.01755,0.02262,0.085598,-0.18456,0.33974
-0.34722,-0.099063,-0.12492,-0.025776,-0.0062716,-0.0017242,0.028977,0.066217
0.5099,0.21688,0.23087,0.12518,0.074119,0.16916,0.58333,0.45861
-0.13652,-0.17972,-0.27702,-0.16257,-0.13499,-0.30927,-0.69517,-1.0856
0.02165,-0.049327,0.10894,0.032858,0.022377,0.030685,-0.0099063,0.23023
-0.084318,0.15289,0.17021,0.024096,0.014819,0.024364,0.31984,0.24223
-0.10975,-0.12885,-0.19414,-0.0089076,0.014178,0.023218,-0.14166,0.03575
-0.045351,-0.12882,0.024645,0.012278,0.02835,0.027595,0.10738,0.70291
0.1823,0.11511,-0.023888,-0.0057923,-0.0049856,0.038166,0.021246,0.08473
-0.030793,0.10511,0.075478,0.069966,0.015992,-0.022359,0.014147,-0.44702
-0.27838,-0.038961,0.11288,-0.041469,-0.041205,-0.03595,0.030477,-0.44196
-0.011526,0.052903,-0.14514,-0.019579,-0.012142,0.084078,0.1311,-0.065441
0.18715,-0.038657,0.028696,-0.036038,-0.02143,-0.091369,-0.17007,-0.18387
-0.16316,-0.20239,-0.11509,-0.020328,0.0015942,-0.014996,0.1181,-0.020933
0.073132,0.20331,0.22065,0.090237,0.096242,0.18064,0.05053,0.81825
0.53017,-0.048132,-0.22968,-0.063598,-0.073343,-0.26218,-0.6522,-0.0054205
0.043503,0.073504,0.02581,0.033775,0.023959,0.086161,0.099087,-0.3084
-0.083949,-0.050821,0.056778,-0.039715,-0.018439,0.030121,0.073985,-0.20561
-0.68274,0.045243,0.096584,0.059281,0.017701,0.0067677,0.31525,0.18593
-0.044173,-0.031475,0.034547,0.025507,0.030222,0.077976,0.090862,0.18473
0.064862,0.021441,-0.0057573,-0.02451,-0.02833,-0.061722,0.20577,-0.45473
0.48817,-0.047627,-0.15063,-0.03671,-0.025598,-0.053808,-0.31087,0.66976
-0.1791,-0.090952,-0.018146,-0.019378,-0.0087051,0.046209,0.27131,-0.23465
0.15149,0.047992,0.094528,0.035085,0.030167,-0.004513,-0.27154,0.056041
-0.087233,-0.028077,-0.023095,-0.029479,-0.033736,-0.0032264,-0.24908,-0.64641
-0.12634,0.1826,-0.057388,-0.0017439,0.034395,0.0031723,0.33481,0.40148
-0.064319,-0.11484,0.055777,0.032961,-0.014912,-0.039644,-0.39681,-0.50039
0.077783,-0.027921,-0.05676,-0.010578,-0.0014458,0.033101,0.18899,0.49556
-0.011122,0.022872,0.052028,0.040224,0.06741,0.11301,0.33638,-0.27896
0.25506,0.038227,0.086547,-0.024982,-0.058078,-0.16597,-0.45934,0.46741
-0.12487,-0.021022,-0.16352,-0.065189,-0.041897,-0.037131,-0.054201,0.59449
-0.38,0.063032,0.12199,0.044725,0.037715,0.078536,0.17951,-0.51631
0.11107,-0.10946,-0.018685,0.023371,0.016422,0.048717,0.24317,0.015286
0.40654,0.053564,0.12405,0.010997,0.011027,-0.017232,0.25385,-0.5556
0.18167,0.050417,-0.1623,-0.0007557,-0.0023387,-0.010517,-0.094556,-0.11351
-0.41119,-0.018698,0.050495,-0.020323,-0.039711,0.0052674,-0.15557,-0.1195
-0.12473,-0.17022,-0.1449,-0.040492,-0.0076686,-0.06507,-0.4777,0.83438
0.13385,0.056654,0.040002,0.02419,0.02328,0.14411,0.29789,-0.084697
-0.040653,0.045253,-0.0042723,0.0015449,0.01403,-0.071674,-0.4137,-0.075953
0.096847,0.22636,0.097564,0.032098,0.027192,0.12262,0.58531,-0.0027518
-0.13691,-0.25015,0.025651,-0.016863,-0.054176,-0.24196,-0.31885,-0.47147
-0.41691,-0.077952,-0.063326,-0.027884,-0.018797,-0.055491,0.025681,-0.1212
0.38607,0.080423,0.14344,0.015041,0.024345,0.13641,0.3247,0.78987
0.34517,0.13252,-0.072628,0.01079,0.028761,-0.00048811,0.079415,-0.26416
0.14092,-0.037922,-0.10203,-0.0011235,-0.0052136,0.059096,0.031537,0.079479
0.02999,0.046115,-0.022712,0.026587,0.024228,0.043332,-0.26628,0.13529
-0.57633,-0.14658,0.0016335,-0.038545,-0.062467,-0.14045,-0.26248,-0.46256
0.10745,-0.030424,0.19814,0.030304,0.015971,0.039383,-0.031018,0.076694
-0.054932,0.081441,-0.159,-0.063578,-0.013984,0.051208,0.22921,-0.056519
0.1448,0.024056,0.0091639,0.039238,0.019354,-0.035665,-0.11771,0.15045
-0.11509,0.0072606,0.0080512,0.026183,0.0454,0.12109,0.75406,0.2438
-0.25667,-0.17333,-0.029058,-0.040448,-0.045557,-0.15196,-0.5239,-0.4232
0.42391,0.16059,-0.031819,-0.004757,-0.0038836,0.042211,-0.014138,0.09861
0.10757,0.031049,0.053947,0.046835,0.013816,-0.047377,-0.34827,0.40072
-0.079412,0.03053,0.11781,-0.019067,-0.0083864,-0.022732,-0.070874,-0.51808
-0.13594,-0.060683,-0.044829,-0.0077747,-0.0003885,0.077205,0.46947,0.31001
0.071638,0.15542,0.12688,0.041068,0.014279,-0.028233,0.041546,0.18808
0.12218,-0.21151,-0.18105,-0.037049,-0.019038,0.0055491,-0.13321,-1.0354
-0.18654,-0.21515,-0.17274,-0.047043,-0.01424,-0.06275,-0.22492,0.57937
0.060784,0.16963,0.081223,0.042379,0.028934,0.064471,0.14199,-0.046298
-0.001362,0.1714,0.14386,0.059681,0.040512,0.1064,0.51384,0.88074
-0.73037,-0.16096,-0.092992,-0.096097,-0.072879,0.016289,-0.11065,-0.3335
0.56324,0.0335,-0.026147,-0.010096,-0.013989,-0.21378,-0.67833,-0.18942
0.53726,0.16187,0.13521,0.076387,0.069085,0.23632,0.6065,-0.3127
0.24712,-0.010178,0.064542,-0.0076597,-0.026519,-0.26634,-0.7722,-0.26515
-0.6355,-0.077095,-0.15106,-0.011515,0.0040506,0.043899,0.29541,0.63647
-0.21334,-0.047833,-0.065672,-0.0050092,-0.011034,0.089173,0.27138,0.071409
-0.2384,0.052931,0.023892,-0.042649,-0.017158,-0.059843,0.055457,-0.38636
0.17725,-0.033633,0.14058,0.055103,0.040184,0.13628,0.2502,0.2158
0.1944,-0.22999,-0.044659,-0.024722,-0.018964,-0.064434,-0.45663,-0.48728
