0.11097,-0.037506,0.21242,0.091821,0.051384,0.010875,0.020244,0.03693
-0.097388,0.34314,0.24401,-0.018681,-0.036777,-0.031064,-0.020262,-0.043452
-0.028441,-0.41463,-0.52032,-0.067788,-0.023621,-0.018839,-0.0063476,-0.00060876
0.006713,-0.17589,0.021882,0.0071335,0.013009,0.0011842,0.007612,-0.0058514
-0.029163,0.25715,-0.17404,-0.051403,-0.028194,0.021705,-0.0015329,-0.027167
0.053383,-0.011691,0.043581,0.022744,0.03267,0.0040776,0.013308,0.014411
0.021733,0.29257,0.17047,0.011463,0.016065,0.018856,0.013183,0.033722
-0.044732,0.13142,-0.040388,-0.014317,-0.03888,-0.0042562,-0.02535,-0.023351
0.0264,-0.3783,-0.024918,-0.015093,-0.007195,-0.010777,-0.0086527,0.023141
0.0082933,-0.22971,0.23208,0.024879,0.0094178,0.006727,0.0083943,0.0090373
0.0796,0.38089,0.15781,0.11314,0.049784,0.016542,0.025551,0.019849
-0.12066,-0.078296,-0.25187,-0.055635,-0.027029,-0.044286,-0.035556,-0.062279
0.085318,0.14304,0.30295,0.0098905,0.0052182,-0.0042312,0.012348,0.035316
-0.10116,-0.5945,-0.55699,-0.042705,-0.010001,0.011515,0.0050307,-0.024036
0.07627,0.28923,0.22824,0.020322,0.013088,0.002941,-0.0029174,-0.0065252
-0.008203,0.26534,0.20548,-0.059063,-0.027083,0.024883,0.011927,0.017227
-0.081222,-0.23437,-0.7007,-0.030613,-0.013168,-0.016151,-0.020682,-0.0074888
-0.048399,0.28352,0.038154,-0.12024,-0.046439,-0.026104,-0.01467,-0.017929
0.083661,-0.18897,0.43618,0.11822,0.045328,0.018755,0.022333,0.017602
0.16024,-0.48964,-0.031603,0.22465,0.098399,0.032725,0.028035,0.052793
-0.12957,0.48737,0.58499,-0.011287,-0.02762,-0.015292,-0.02861,-0.052397
0.012496,0.46378,-0.3444,-0.058132,-0.012314,0.015397,0.016641,0.022867
-0.045407,-0.17524,-0.41397,-0.15038,-0.05102,-0.039278,-0.023575,-0.025707
-0.060648,-0.34897,0.044906,-0.085309,-0.0423,-0.0074985,-0.016366,-0.026029
0.029115,-0.030094,-0.074795,0.081864,0.0058483,-0.014353,-0.00078483,0.0062867
0.13721,-0.15018,0.47019,0.10836,0.054136,0.01817,0.030913,0.047601
0.012417,0.13519,0.18078,-0.022,0.063257,0.043055,0.023894,0.027211
-0.088916,0.13386,-0.47227,-0.0050301,-0.037345,-0.0023572,-0.014231,-0.039775
0.073906,-0.078666,0.36666,0.041722,0.0021269,0.014585,0.017882,0.025768
-0.13315,0.082082,-0.71741,-0.038159,-0.060634,-0.062502,-0.051826,-0.057906
-0.01548,-0.033653,0.17609,-0.0023855,0.0087552,0.00068674,-0.020329,-0.0098864
0.067444,0.10319,0.098721,-0.13962,0.022945,0.032295,0.049883,0.052516
-0.047904,-0.43321,-0.068141,0.10548,-0.017796,-0.022254,-0.012943,-0.034651
0.17857,0.32746,0.81499,0.14,0.082171,0.048148,0.025762,0.072672
-0.24404,-0.08454,-1.0119,-0.22273,-0.16123,-0.10007,-0.068161,-0.11727
0.13089,0.54624,0.18116,0.002271,0.072495,0.048864,0.03358,0.06006
-0.03932,-0.23835,0.19946,0.065289,0.017736,0.010591,0.010747,-0.01995
-0.043085,-0.45187,0.18134,-0.04168,0.041502,0.019385,0.003913,0.0023295
0.24474,0.32992,0.66133,0.40731,0.096609,0.067213,0.059788,0.10352
-0.098034,-0.27213,-0.45995,-0.20583,-0.067274,-0.041518,-0.032797,-0.028985
-0.12676,0.15385,-0.9925,-0.30389,-0.13005,-0.080488,-0.055316,-0.082937
0.032784,0.037505,0.66939,0.29218,0.041127,0.036121,0.015528,0.011703
-0.065431,-0.33804,-0.60055,-0.39436,-0.10034,-0.058815,-0.039022,-0.026545
0.1328,0.37408,0.52713,0.3634,0.11012,0.056826,0.046791,0.060006
0.0022864,0.0055487,0.24319,-0.19158,0.02463,0.016225,0.015385,0.0057217
-0.16784,-0.2843,-0.61996,-0.1209,-0.012654,-0.023977,-0.031425,-0.064317
0.060177,0.38156,0.37142,0.36527,0.045265,0.014652,0.015929,0.029694
0.045981,-0.20723,0.51717,0.18922,0.026262,0.030688,0.016893,0.01441
0.13351,0.45643,-0.0095064,-0.18814,-0.023382,0.00063285,0.0026288,0.03829
-0.083461,-0.2228,-0.52916,-0.23593,-0.081022,-0.044511,-0.019283,-0.039359
-0.03479,-0.26235,-0.23071,-0.087545,0.032213,0.019888,0.021144,0.015693
-0.041082,-0.069746,0.28234,0.045441,-0.020264,-0.025325,-0.024876,-0.015482
0.0067039,-0.23129,0.00031811,0.12337,0.034633,0.030431,0.0064304,-0.0080389
-0.016721,0.44905,0.078042,0.012825,-0.053098,-0.047457,-0.017912,-0.016747
0.036907,-0.2538,-0.32915,0.096006,0.021557,0.037804,-0.0041539,0.0052905
0.034745,0.060424,-0.12023,-0.07307,-0.0064708,0.0050448,0.016616,0.026959
0.078488,0.58858,0.93092,0.23934,0.10567,0.041992,0.021255,0.025048
-0.12845,-0.53564,-0.96536,-0.45938,-0.094486,-0.085397,-0.021103,-0.031406
-0.030967,0.13318,0.6198,0.22134,0.026403,0.013889,0.022762,-0.0092822
0.0042832,0.008468,0.58391,0.071021,-0.0078441,0.012103,-0.018642,-0.025491
0.063785,-0.067003,-0.76117,-0.3625,0.013907,0.03455,0.0034255,0.03736
-0.00041299,-0.094248,-0.51706,0.32054,0.013564,-0.020159,-0.028031,-0.00032755
0.030763,0.019741,0.33262,0.035645,-0.048049,-0.011398,0.012032,0.017638
-0.10823,-0.16287,-0.42943,-0.33319,-0.10086,-0.033099,-0.009317,-0.0574
0.11367,0.22514,0.63598,0.32408,0.12823,0.062829,0.056077,0.063262
-0.10088,0.20746,0.2099,0.0074061,0.029401,0.0024914,-0.026576,-0.042716
0.028697,-0.12187,-0.074328,-0.096464,-0.0072258,-0.019286,0.0078574,0.014795
0.14225,0.010747,0.33756,0.21438,0.080358,0.043954,0.018268,0.055658
-0.14379,-0.26194,-0.79775,-0.13171,-0.11449,-0.081478,-0.05823,-0.068886
0.021555,0.0051242,0.15913,-0.12788,-0.1154,0.0028386,0.012525,0.00041596
0.020832,0.24894,0.48097,-0.024414,0.08552,0.015889,-0.01165,-0.0097625
-0.067741,-0.0076988,-0.91768,-0.055022,0.058928,-0.0028089,0.010089,0.010295
0.021943,-0.14055,0.7931,0.13336,-0.007103,0.0098327,0.015622,0.014233
0.040669,0.20119,-0.4072,-0.06658,-0.010325,0.023167,0.021046,0.010476
0.0050067,-0.11591,0.438,0.29258,0.0265,0.014256,-0.012235,0.0074422
-0.076304,-0.13905,-0.66035,-0.34222,-0.091398,-0.063477,-0.036958,-0.056876
0.055274,0.10838,-0.036266,-0.20467,-0.01215,0.00094502,0.017433,0.02876
0.017311,0.064334,0.29453,0.38431,0.092382,0.043231,0.018197,0.014405
0.0050719,-0.16879,0.61862,0.094731,0.026584,0.016046,-0.011334,-0.0063954
0.064963,0.16004,0.32199,0.05647,0.039893,0.012536,0.037962,0.044055
-0.069455,-0.04966,-0.90613,0.14896,-0.079357,-0.006998,-0.013952,-0.0067034
-0.11013,-0.039153,0.037432,-0.47466,-0.12098,-0.082168,-0.050268,-0.073374
0.012192,0.051542,-0.2508,-0.16806,0.078446,-0.01021,-0.016651,-0.015919
0.13255,0.019511,0.3202,0.22439,0.08881,0.068133,0.047563,0.055843
0.01593,0.044245,-0.31975,-0.077524,-0.043169,0.0045437,0.017199,0.024491
0.01367,-0.062281,0.53533,0.18635,0.0029356,0.0024594,-0.014065,-0.00059618
-0.092743,-0.097668,-0.42218,-0.18403,-0.077232,-0.039261,-0.0071405,-0.034804
-0.013521,0.10919,0.20419,0.17373,0.060548,0.020449,-0.00098087,0.00043125
-0.0053496,-0.012718,-0.04879,0.17597,0.049591,0.017908,0.020219,-0.0036868
-0.059058,-0.034197,-0.29414,-0.51225,-0.14093,-0.031005,-0.029246,-0.015283
0.045428,0.0054068,0.66553,0.50704,0.067388,0.022248,0.0071362,0.020899
0.012226,0.020098,-0.029371,-0.2523,0.026146,-0.025522,-0.026625,-0.02755
0.099564,-0.013438,-0.35756,0.18369,0.13364,0.052055,0.041572,0.066094
-0.028799,0.037865,0.67767,0.13255,-0.071322,-0.03435,-0.022489,-0.026407
0.03241,-0.036599,-0.95049,-0.36887,-0.12024,0.011874,0.03908,0.030523
0.031741,0.036973,-0.072663,-0.032572,0.018024,-0.012586,-0.00029606,0.0019858
-0.12614,-0.022296,0.45079,-0.069105,-0.00013577,-0.014028,-0.039132,-0.057891
0.033996,-0.018729,-0.18416,0.085816,0.075655,0.04673,0.016205,0.01449
-0.066779,0.016767,0.20409,0.15368,-0.089999,-0.056593,-0.021906,-0.023337
-0.084793,-0.0092662,-0.32734,-0.29218,-0.051235,-0.026739,-0.020763,-0.03079
0.16026,-0.010682,0.30181,0.40708,0.16889,0.074194,0.058603,0.070424
0.013281,-0.010831,0.022304,0.16714,-0.0076753,-0.026916,-0.002643,0.014983
-0.055614,0.013649,-0.10371,-0.41012,-0.081262,-0.0096174,-0.024905,-0.04052
0.072062,0.04688,0.39078,0.1119,0.072445,0.040054,0.0073397,0.037015
-0.087115,-0.013105,-0.059327,-0.0029697,-0.031851,-0.026678,-0.0075846,-0.041306
0.061047,0.020692,-0.042748,-0.053845,-0.012299,0.024038,0.016155,0.021413
0.0086162,-0.031912,-0.63971,-0.027248,0.013125,0.011907,0.00036004,0.0063116
0.0049935,-0.015054,-0.015146,-0.049837,-0.049762,-0.032386,0.0075126,0.0069388
-0.028862,-0.022673,0.41734,0.29934,0.0021809,-0.0076796,-0.017016,-0.0081807
0.023225,-0.0078451,-0.51265,-0.33141,0.0053597,-0.039121,-0.02621,-0.023608
-0.058385,0.03751,0.75923,0.14441,-0.0081608,0.014043,0.01139,0.0074383
-0.039916,-0.0033808,0.093805,0.040317,0.0016709,0.011551,0.002273,-0.024398
0.086221,0.0027473,-0.50832,-0.33003,0.059255,0.039857,0.032606,0.052884
-0.023577,-0.0062172,0.60089,0.43279,0.055976,0.00576,-0.014635,-0.026143
-0.032943,0.016844,-0.439,-0.15501,-0.07023,-0.027753,0.0012473,-0.011258
0.050891,0.025119,-0.1136,0.10974,-0.045852,0.0099746,0.0020902,0.027411
0.025389,-0.012741,0.060707,0.0079171,-0.019592,-0.013697,-0.02005,-0.0037671
0.031651,-0.042255,-0.087854,-0.00021751,0.10178,0.034041,0.036192,0.028043
-0.12535,0.030084,0.1215,-0.25126,-0.073062,-0.065714,-0.048157,-0.072539
0.0075537,-0.014679,-0.098463,-0.0034708,-0.005786,0.014897,0.01575,0.030283
0.05521,-0.036051,-0.17537,0.024325,0.076345,0.033342,0.0089879,0.0081961
-0.060847,0.028414,0.2362,0.11363,-0.045974,-0.026383,-0.013873,-0.013998
0.14332,0.014648,0.44175,0.19458,0.03317,0.054097,0.040871,0.041647
0.042293,-0.01486,-0.051274,-0.099481,-0.069117,-0.022422,0.0013667,0.010942
-0.16893,0.033586,-0.25989,-0.2916,-0.032332,-0.053054,-0.061979,-0.074913
-0.068535,-0.0042039,-0.56896,0.11065,0.042379,0.016783,0.0072313,-0.0049489
0.11711,-0.011225,0.63649,0.23232,0.1009,0.062135,0.037307,0.05688
-0.0021812,0.0045137,-0.34845,0.034286,-0.0045614,-0.026169,-0.0028144,-0.006461
-0.066445,-0.0040108,0.36581,-0.17105,-0.16404,-0.052478,-0.01923,-0.03857
0.026426,-0.0055856,0.044822,-0.12588,0.037019,0.0070661,0.0037786,0.023165
0.034589,-0.031348,-0.36523,-0.041004,0.052035,0.0044627,0.0037231,0.0069064
0.067437,0.012715,0.12943,0.14637,0.084209,0.065088,0.027412,0.037616
-0.055067,0.0019841,-0.0082646,0.24126,-0.038488,-0.045184,-0.019031,-0.025426
-0.021079,0.046262,-0.37798,-0.53735,-0.12891,0.0018526,-0.010759,-0.02608
0.11391,-0.033741,0.59977,0.50593,0.12497,0.057667,0.020843,0.035586
-0.1665,0.004452,-0.34019,-0.17597,-0.074256,-0.088914,-0.049313,-0.074798
0.012174,-0.0030879,0.41095,0.033732,0.054161,0.022723,0.036571,0.041307
0.040424,-0.0095319,0.34398,0.017347,-0.021414,0.0016044,-0.002701,0.0012651
-0.018955,0.016155,-0.76161,-0.20999,0.019099,0.011475,-0.0029561,0.016221
0.069095,0.011131,0.40514,0.28108,0.042829,0.036466,0.020311,0.023861
-0.085108,-0.0015786,-0.96129,-0.29089,-0.15324,-0.072007,-0.04216,-0.053824
0.035078,0.0010607,0.63915,0.050629,0.048323,0.021951,0.02064,0.025366
-0.014763,-0.028158,-0.12101,0.055573,0.046244,-0.0019253,-0.0022269,-0.019912
0.039412,-0.026943,0.18872,0.0049717,0.01268,0.036169,0.037607,0.044524
-0.013144,0.035887,0.34203,0.14054,0.057207,-0.0042368,-0.02405,-0.015947
0.014807,-0.011486,-0.45861,0.11781,-0.054448,-0.029226,-0.0076735,-0.01409
-0.049285,0.049838,0.19919,-0.25929,-0.064455,-0.023018,-0.02279,-0.028259
0.082685,-0.029947,0.44588,0.21179,0.089671,0.061392,0.032053,0.042952
-0.027852,-0.00064125,-0.68178,-0.33622,-0.076443,-0.025899,-0.0072445,-0.011454
-0.0225,-0.018312,0.2444,-0.03558,0.015395,-0.011389,-0.015642,-0.0039361
-0.034785,0.0031296,-0.13495,0.33371,0.045009,0.01902,0.014784,-0.004677
0.0052826,0.024742,-0.21644,-0.40633,-0.08116,-0.028404,-0.0017425,0.0099536
0.019679,-0.00024977,-0.14505,0.2461,0.0824,0.041665,0.013087,0.0089278
-0.022367,-0.0092628,0.37272,0.30822,-0.0032163,-0.012943,-0.018682,-0.030974
0.020511,-0.0022201,0.14615,-0.27368,-0.041062,-0.028138,0.0046483,0.023241
0.055395,-0.041554,0.46023,0.14915,0.031322,0.027363,0.0050255,0.015443
-0.073195,0.052473,-0.76873,-0.35342,-0.044032,-0.041728,-0.01755,-0.038697
0.033743,-0.017005,0.053468,0.037941,0.052935,0.038019,0.022782,0.03266
-0.006329,-0.00785,0.19114,0.18908,-0.014026,-0.014713,-0.01475,-0.020592
-0.021577,0.032937,0.0088478,0.075104,-0.018684,0.018689,0.010281,0.004507
0.057991,-0.012031,0.45638,0.14781,0.023042,0.0051996,0.0039075,0.0061903
0.0052961,-0.010195,-1.0009,-0.3516,0.0015549,0.014872,0.020613,0.01549
-0.070885,-0.00089013,0.71988,0.091966,-0.036394,-0.0385,-0.041317,-0.038113
-0.030477,1.5797e-05,-0.60985,-0.34962,-0.028329,-0.022325,-0.017894,-0.0063557
0.1105,0.00016507,0.21179,0.41776,0.10393,0.055455,0.036209,0.055955
-0.062179,0.015121,0.39531,-0.02719,-0.11608,-0.055168,-0.019542,-0.030916
0.014081,-0.025365,-0.39512,-0.16053,0.03831,0.036552,0.025935,0.014315
-0.027567,0.02733,0.48932,0.40082,0.10626,0.010532,-0.014702,-0.019166
0.024333,-0.045261,-0.091453,-0.10878,-0.037143,-0.01573,0.0071327,-0.0061545
-0.0014859,0.030632,-0.31641,-0.18172,-0.0089769,0.0049776,0.0056149,0.014561
0.0049363,0.0053391,0.15917,-0.06036,-0.10595,-0.020775,-0.0035553,0.0042247
-0.026263,-0.01931,-0.54623,-0.11188,-0.015324,-0.014613,-0.020336,-0.03687
0.014513,0.0037216,0.46741,-0.023504,0.052268,0.031416,0.0099843,0.02432
0.017834,0.027596,0.15484,0.41625,0.12057,0.031379,0.0092959,0.0082315
-0.0088383,0.020979,0.25186,-0.026339,-0.052336,-0.030483,-0.0067559,0.00079107
-0.0035911,-0.039731,-0.86567,-0.35067,-0.067884,-0.0059769,0.00091734,0.0096672
0.087528,-0.0062956,0.41954,0.21717,0.042672,0.034279,0.024531,0.042426
-0.10342,-0.0117,0.10675,-0.017911,-0.025518,-0.042831,-0.045273,-0.065288
-0.0067604,0.0064443,0.15536,0.10817,0.031934,0.0046402,-0.0053768,-0.024693
-0.013522,0.024662,-0.54602,-0.35792,-0.082245,-0.026567,0.019168,0.007751
0.0089881,-0.011713,0.71925,0.052221,0.053361,0.019782,0.0048165,0.016298
0.053129,-0.0088884,-0.01143,0.40058,0.071117,0.050038,0.037341,0.024359
0.017756,-0.0059113,-0.57469,-0.2509,-0.029351,-0.021549,-0.016269,0.00072355
-0.080923,0.020601,-0.024641,0.073795,0.0017519,-0.022859,-0.015576,-0.023274
0.038998,-0.0076303,-0.023453,0.10081,-0.0074167,0.015126,0.0080398,0.030595
-0.0046552,0.01851,0.11138,-0.33409,-0.07998,-0.024524,-0.039192,-0.03287
0.030851,-0.026317,0.36733,0.22237,0.01901,0.022472,0.022521,0.020822
-0.010341,0.013776,-0.28432,-0.15904,-0.030025,-0.015613,-0.017537,-0.019142
-0.042092,0.0056598,0.017073,-0.024602,0.054904,0.0018885,0.012796,-0.0041972
0.013716,0.0038376,0.17728,0.29035,0.0556,0.020216,0.020053,0.011088
0.016246,-0.015114,-0.17323,-0.16697,-0.019904,0.0079217,0.012256,0.018994
-0.034898,0.0037464,-0.10081,-0.005964,-0.0077499,-0.027483,-0.033949,-0.035119
0.031624,-0.0015864,0.62417,0.27287,0.044576,0.030819,0.022001,0.012797
0.043328,-0.01481,-0.53429,-0.30786,-0.12946,-0.044122,-0.0075928,0.014217
-0.0081797,-0.027357,-0.23625,-0.21013,0.039403,0.0051506,-0.0058307,-0.0075707
-0.0061715,0.016155,0.53965,0.37754,0.089277,0.029928,0.019161,0.025364
-0.036825,0.014649,-0.37054,-0.069087,-0.035221,0.0066148,-0.0032048,-0.019999
-0.045425,0.015157,0.035635,0.012097,0.0015694,-0.025748,-0.026228,-0.034468
0.0073794,0.040894,-0.29217,-0.035058,-0.050129,-0.0045461,0.0047334,0.020891
0.043925,-0.010273,0.40165,0.040103,-0.025558,0.015768,0.0038289,0.021015
-0.021219,0.001479,-0.10354,-0.18314,-0.0095952,-0.026982,-0.020941,-0.034089
-0.015768,-0.041891,0.60388,-0.023595,0.030224,0.0081969,0.0087826,0.0040796
0.060476,-0.00046961,-0.63605,0.16878,0.055968,0.020106,0.030719,0.026241
0.15278,-0.023111,0.22594,0.14541,0.021576,0.048129,0.029397,0.048134
-0.1844,-0.0082952,-0.33306,-0.30372,-0.10386,-0.087174,-0.049804,-0.08637
-0.068565,0.013046,0.021653,0.12638,0.085722,0.028427,0.004045,0.0056699
0.046928,0.018048,0.12323,0.083721,0.050628,0.012211,0.011206,0.019702
0.099557,0.023008,0.49886,0.12976,0.0086885,0.02826,0.018509,0.033995
-0.082311,-0.026152,-0.66103,-0.26819,-0.16608,-0.071904,-0.044355,-0.03725
-0.021622,0.011598,0.052379,-0.096058,0.0098867,0.00067874,-0.013263,-0.014225
0.0088273,0.027014,0.37626,0.21511,0.051697,0.027083,0.010334,0.017209
-0.0059573,-0.019114,-0.084212,-0.023139,-0.0017188,0.022682,0.010927,-0.0054391
0.043838,0.01348,0.066596,0.024699,0.029524,0.010584,0.027644,0.019314
-0.029201,-0.0084766,-0.51608,-0.26624,-0.049469,-0.025218,-0.0098587,-0.018082
0.055822,-0.038549,0.54371,0.37027,0.074298,0.02426,0.0076419,0.01493
-0.045641,0.0010668,-0.60274,-0.27577,-0.020607,-0.036631,-0.021675,-0.014767
0.055919,0.00085167,0.70508,0.22644,0.002051,0.0028272,0.019061,0.025346
0.046766,-0.00010131,-0.45753,0.0029553,-0.029486,0.017581,0.012354,0.025674
-0.074202,0.013992,-0.11699,-0.31252,-0.021527,-0.015682,-0.034211,-0.045116
-0.13584,0.027724,0.10557,0.13998,0.033559,-0.026361,-0.026982,-0.046309
0.088214,-0.0055745,0.44672,0.11064,0.049588,0.040627,0.018475,0.030171
0.035837,0.0079984,0.10978,0.22424,0.0028884,0.021649,0.03204,0.028465
-0.049923,-0.02522,-0.75851,-0.44948,-0.15359,-0.051658,-0.032877,-0.043186
0.011776,-0.0036249,0.42461,0.018263,0.04103,-0.0071387,0.01935,0.010896
0.042459,0.010318,0.25683,0.29052,0.094572,0.053773,0.017128,0.042481
0.019729,-0.014583,-0.47651,-0.20407,-0.039735,-0.0017561,-0.0080784,0.012502
0.038035,-0.00010271,0.3468,0.18989,0.067943,0.013629,0.0063597,0.014491
-0.08984,0.0070253,-0.5169,-0.082849,-0.050982,-0.040905,-0.025444,-0.061306
-0.020265,0.0069539,0.096527,-0.014582,-0.029156,-0.0093077,-0.0019345,-0.0044014
0.058824,-0.023627,0.19613,0.059132,0.024213,0.014533,0.0065324,0.01291
-0.025066,0.024717,-0.13024,-0.36869,-0.10166,-0.039739,-0.015735,-0.025303
0.016467,0.019133,0.25999,0.17184,0.054257,0.031049,0.024927,0.029246
0.057851,-0.024907,0.17299,0.2053,0.11701,0.031675,0.011221,0.020323
-0.12787,-0.0060977,-0.30446,-0.072056,-0.046289,-0.029957,-0.017929,-0.036296
-0.0018128,-0.0028982,0.203,0.10587,-0.029542,0.0024343,-0.0079996,0.0080736
0.053255,0.0077688,0.14099,-0.034403,0.010788,0.019425,0.017391,0.020911
0.021895,0.017756,-0.45848,-0.11055,-0.019254,-0.0025551,-0.0044366,0.0025111
-0.0018864,0.00337,-0.023466,-0.037369,-0.026053,-0.001191,-0.0033226,-0.0077958
0.013406,-0.019891,0.042284,0.16874,0.060669,-0.0079206,0.0050039,-0.0097853
-0.033609,-0.012935,-0.14883,-0.25064,-0.087141,-0.015067,-0.018555,-0.018911
0.036856,0.00098667,0.18721,0.14947,0.054093,0.016391,0.019793,0.027442
-0.040788,0.0065699,-0.0026717,-0.27166,-0.0076646,-0.022849,-0.012645,-0.011301
-0.00091832,-0.011412,0.11712,0.37666,0.024566,0.0080139,0.009312,0.0054616
0.0080202,0.017761,0.36416,0.1258,0.057058,0.015469,-5.3288e-05,-0.00049202
0.017281,0.0084969,-0.41493,-0.28194,-0.058684,-0.00023459,-0.0014511,0.0097257
-0.035623,0.015716,0.3516,0.059781,-0.049336,-0.023272,-0.018117,-0.018812
0.0055606,0.00044637,-0.28037,-0.005127,0.045916,0.032402,0.020405,0.015176
-0.0076413,-0.04517,0.0040152,-0.054498,-0.023018,-0.0051012,-0.010818,-0.013603
0.10436,0.0037068,-0.079619,0.0058683,0.0016323,0.01253,0.020998,0.035209
-0.080463,-0.0016029,-0.32825,-0.042215,0.010492,-0.024295,-0.0092615,-0.041715
0.00015288,0.032365,0.02671,0.028365,-0.012052,-0.014275,-0.00021709,0.013329
-0.029044,-0.011876,0.39681,0.20236,0.043362,0.018892,-0.0067742,-0.010591
0.0035625,0.0060193,-0.14893,-0.28581,-0.04989,-0.0031389,0.0021026,0.019457
0.027436,-0.00011858,0.19266,0.22758,0.036197,-0.018021,-0.012824,-0.013496
-0.012274,-0.0070087,-0.15171,-0.11759,0.0045957,0.028859,0.010837,0.00021295
0.11092,0.00091301,0.48454,0.17771,0.034849,0.035943,0.026185,0.045271
-0.14198,-0.023188,-0.72686,-0.20786,-0.12313,-0.090444,-0.044851,-0.088966
0.065166,0.0067592,0.38348,-0.017353,0.077568,0.040453,0.024415,0.050852
-0.025098,0.020638,-0.040213,0.16281,0.01989,0.030369,0.0075897,0.011723
-0.052897,0.0030473,0.051879,-0.22988,-0.11622,-0.042386,-0.024829,-0.026675
0.037022,-0.0067346,-0.29788,0.23473,0.14614,0.017681,0.005449,0.013636
0.018629,-0.0007193,0.43074,-0.14567,-0.07554,-0.00021228,0.0047885,0.015204
0.001688,-0.002222,-0.11513,-0.041985,0.015885,-0.0022037,0.0044771,-0.0066855
-0.0058346,-0.011177,-0.505,0.070124,-0.0013165,0.0039577,0.0044669,-0.0055109
-0.011875,0.027124,0.11533,0.027212,0.0056783,-0.0051494,-0.0031777,-0.012817
0.076935,-0.012334,0.085583,0.095122,0.044571,0.017329,0.012626,0.010288
-0.013389,-0.0045774,0.30039,-0.03102,-0.048891,-0.014585,-0.0029771,0.0091124
0.013446,0.0034888,0.067742,-0.031372,-0.0092909,0.00062897,-0.0032265,0.0072745
-0.14772,-0.011601,-0.11047,-0.09398,-0.0243,-0.022995,-0.02721,-0.049573
0.0341,-0.0030013,-0.10124,0.085448,0.038807,0.016101,-0.0045348,0.0030728
0.027654,-0.0020103,0.54713,0.014641,0.023786,0.039812,0.0181,0.017232
0.020648,0.022544,-0.9491,-0.228,-0.030209,-0.037767,0.0018569,0.02453
0.013398,0.00022927,0.36797,0.13933,-0.0058583,-0.0056637,0.0016406,0.0017388
-0.001607,0.0090165,0.11262,0.08602,-0.012413,0.0033286,0.009789,0.0035393
0.038319,-0.0059494,-0.39722,-0.12186,-0.0029402,0.004818,0.0029052,-0.0093601
-0.069943,-0.013564,0.37589,0.14859,0.038129,-0.016889,-0.019095,-0.021744
0.025006,-0.0061007,-0.021952,-0.1343,-0.022212,0.024015,0.013908,0.020564
-0.0052507,-0.014809,0.39359,0.30204,0.034472,0.010155,8.9965e-05,-0.015772
0.049903,0.015094,-0.23617,-0.027841,0.028111,0.011624,0.017306,0.032874
-0.028546,0.029099,-0.51151,-0.35157,-0.041654,-0.01867,-0.028417,-0.029089
-0.061027,-0.0038148,-0.01657,-0.099571,-0.073499,-0.049641,-0.027828,-0.029865
0.015028,-0.036531,0.43824,0.25919,0.080979,0.051454,0.026876,0.030679
0.043627,0.0014729,0.11284,-0.087502,-0.03895,-0.012207,0.0029911,0.020043
-0.052969,0.01659,-0.41281,0.09541,0.0046416,0.0017374,0.010084,-0.022271
0.069422,0.0010552,0.67512,0.11347,0.017015,0.015437,0.0093242,0.029224
-0.057573,0.032935,-0.64602,-0.19658,-0.048098,-0.033276,-0.022504,-0.043755
0.035037,-0.044177,0.16305,0.040887,0.059818,0.012176,0.00070797,0.009158
0.019183,0.011684,-0.07751,0.076234,0.028585,-0.011999,0.00092436,0.0084913
-0.027142,-0.0028538,0.18652,0.073646,-0.016742,0.034974,0.0015718,0.001147
0.044219,0.0057368,-0.12361,-0.23255,-0.045131,-0.018783,0.010351,0.02602
-0.095217,0.0060496,-0.04772,-0.053452,-0.025788,-0.0015637,-0.019814,-0.034411
0.062011,-0.017603,0.31955,0.20452,0.048486,0.023826,0.028011,0.030343
-0.039064,0.0051332,-0.31971,-0.060407,0.0051465,-0.021129,-0.010507,-0.030196
-0.00015509,-0.0037389,0.041036,0.042189,0.023276,0.0037954,-0.010594,0.0023025
0.0068639,-0.0049701,-0.3497,0.043339,-0.0069317,-0.011096,-0.0036341,0.0025615
0.13059,0.0016398,0.74853,-0.041531,0.015927,0.051212,0.049436,0.056446
-0.066182,0.0084499,-0.34586,-0.025071,-0.07205,-0.051445,-0.03873,-0.046822
-0.083023,0.031197,-0.1738,-0.24328,-0.043836,-0.021974,-0.025643,-0.033431
-0.021017,-0.016014,0.37263,0.257,0.030941,-0.016252,-0.012467,-0.012233
-0.004705,-0.00038728,0.15991,0.093058,0.028026,0.02866,0.0090342,0.0017112
