-0.07631,-0.14892,-0.37054,-0.16339,-0.05003,-0.037305,-0.016783,-0.044838
0.034933,-0.059225,0.16602,0.12108,0.028081,0.025236,0.0075247,0.019516
0.051149,0.16006,0.26181,0.071035,0.034253,0.0086497,0.0084635,0.012603
-0.051281,-0.12651,-0.64177,-0.28908,-0.047078,-0.0088734,0.0093093,-0.01112
-0.030106,0.11876,0.74755,0.066076,-0.03591,-0.027136,-0.013535,-0.028232
-0.0021932,-0.11177,0.26748,0.092147,0.013602,0.001046,-0.013321,-0.0072579
-0.029511,-0.35546,0.011864,0.057516,0.031827,-0.0020722,0.0098872,0.0053647
0.029199,0.13259,-0.39565,-0.019651,0.0038681,0.034211,-0.0063989,0.010207
0.049535,0.29297,-0.75416,-0.082735,-0.014939,-0.0069549,0.0082245,0.007859
-0.02277,-0.059139,0.76994,0.19742,0.03056,-0.00034224,-0.0085898,-0.0090086
0.015569,0.14814,-0.20797,-0.17918,-0.023487,-0.00054799,0.0058422,0.014564
0.015991,-0.10067,0.10812,-0.11977,-0.036533,-0.015436,-0.0029868,0.0082671
0.017207,0.099388,0.24966,0.27233,0.053579,0.017322,0.01194,0.010899
-0.05155,-0.082046,-0.25869,-0.083276,0.0041084,-0.0040894,-0.0039863,-0.0092631
-0.0032093,-0.045989,0.053767,0.14697,0.017511,0.00598,0.0039256,0.0097091
-0.06462,-0.09932,-0.27935,-0.35154,-0.070955,-0.030874,-0.019079,-0.057736
0.076635,-0.14173,0.65053,0.38839,0.058435,0.025735,0.012813,0.030169
-0.040278,0.17829,-0.8267,-0.42311,-0.071303,-0.019683,-0.0021155,-0.0080449
0.022365,0.096201,0.11783,0.0029849,0.016171,0.0046292,0.0062895,-0.0083146
-0.0086312,-0.13613,0.12409,0.12815,-0.0072952,0.0048604,-0.016794,-0.0095187
0.10128,0.0459,0.82267,0.2501,0.092796,0.043496,0.03011,0.051141
-0.093194,-0.027804,-0.60247,-0.17719,-0.042703,-0.035686,-0.024893,-0.02132
0.025046,-0.0828,0.16469,0.16728,0.0083677,0.0017639,0.0057494,0.015577
0.010485,0.42778,0.057492,-0.07544,-0.027111,-0.015905,-0.0028448,-0.0020256
0.0035217,-0.0048522,-0.44283,-0.15505,-0.008176,0.005235,0.0041777,-0.0036989
-0.12103,-0.37451,-0.32208,0.014656,-0.0047877,-0.012726,-0.019877,-0.028464
0.050772,-0.08925,0.24058,-0.058082,0.0068368,0.016383,0.011088,0.0096195
0.050155,0.162,0.30989,0.13514,0.011385,0.014651,0.011235,0.0089811
-0.01347,0.073878,-0.18115,-0.14713,-0.022151,-0.017757,0.0040214,-0.0069367
0.10997,-0.17358,0.56797,0.25992,0.062624,0.028628,0.02063,0.024386
-0.055964,0.34281,-0.16605,-0.072759,-0.015513,-0.010242,-0.017201,-0.022027
-0.10489,-0.37488,-0.45103,-0.13695,-0.069148,-0.032864,-0.031525,-0.028985
-0.0053523,-0.097668,0.12872,0.14562,0.049979,0.0075235,0.008734,0.019094
0.039745,0.30956,-0.10564,-0.076749,0.02132,0.024829,0.0096785,0.02054
0.015009,0.090675,0.15082,-0.077851,-0.046016,-0.027999,-0.0053513,0.014233
0.029994,-0.20673,0.41356,0.11833,-0.0038526,0.012919,0.010473,-5.9806e-05
0.0066531,0.034104,-0.63816,-0.10606,0.030384,0.022401,0.0024615,-0.0069557
-0.02381,0.069452,-0.02843,0.068498,-0.02945,-0.023149,0.0018963,-0.022273
0.0087577,0.10008,0.01533,0.023998,0.05086,0.016777,-0.0067905,0.00077421
0.0025651,-0.056439,0.58578,0.079936,-0.017859,-0.01413,-8.4313e-05,-0.008072
-0.027008,-0.37154,-0.091811,0.016836,0.014345,0.0091462,-0.0013298,0.0060705
-0.033301,0.40265,-0.21421,-0.30648,-0.063443,-0.030492,-0.002611,0.0044403
0.0069634,-0.17267,-0.15,0.0081215,0.0066818,-8.3378e-05,-0.011634,-0.01262
0.015553,-0.15252,-0.072219,0.2887,0.045185,0.022422,0.018574,0.017698
0.078336,0.24494,0.28397,-0.019243,-0.018062,0.013753,0.0021519,0.017477
-0.046916,0.091346,-0.17556,-0.08721,0.028064,0.0052775,-0.0061621,-0.013217
0.038227,-0.09584,-0.021153,-0.031847,-0.035029,-0.018575,0.0092755,0.019284
-0.05681,-0.056762,-0.026102,-0.032156,-0.004108,-0.010947,0.0015838,-0.018035
-0.0037611,0.35903,0.15356,0.061121,0.019316,-0.003155,-0.0058222,-0.016064
-0.028952,-0.81554,0.59618,0.24891,0.019616,0.028141,-0.028599,-0.014144
0.0085538,0.21753,-0.74484,-0.34281,-0.034504,-0.010899,0.011341,0.026555
0.054391,0.19289,0.11533,0.115,0.052192,0.028102,0.020196,0.012122
-0.039629,0.29732,-0.2211,-0.21297,-0.071961,-0.050171,-0.01773,-0.026273
-0.0077822,-0.07238,-0.11267,-0.045318,-0.04772,-0.019103,0.014647,-0.0027017
0.071703,0.17526,-0.019565,0.2189,0.085681,0.043281,0.023453,0.02038
-0.028037,-0.29024,0.78517,0.05475,-0.015728,-0.0035244,-0.022696,-0.0038318
-0.0027481,-0.18167,-0.03459,0.24118,0.046227,-0.0031743,-0.006727,0.0028693
-0.0013366,-0.11699,-0.35459,0.064483,0.036904,0.0053096,-0.014645,0.0015041
-0.024181,0.0058413,-0.15244,-0.34513,-0.043899,0.021891,0.016053,0.0077848
0.030096,0.39935,0.26628,-0.020669,-0.063422,-0.039483,-0.00831,-0.017251
-0.080632,-0.34049,-0.46588,-0.2984,-0.029312,0.0085124,0.0061518,-0.0031707
0.065809,0.57761,0.35491,0.10435,0.011951,-0.0062,0.0049174,0.0032902
-0.030123,-0.64164,0.058449,0.23744,0.029702,0.0099371,-0.0040344,-0.01335
-0.024182,0.23662,-0.46999,0.034706,0.071486,0.017719,0.0028699,-0.0060924
0.029344,0.016296,0.53797,-0.077417,-0.04955,-0.0063463,0.0022788,0.017319
0.099402,0.172,-0.071402,0.28031,0.042108,0.0081074,0.0098469,0.041254
-0.048428,-0.22086,-0.14796,-0.26383,-0.036035,-0.024683,-0.013509,-0.020311
0.0231,0.24888,-0.081806,-0.17667,-0.072946,-0.03413,-0.013156,-0.0034622
-0.045758,-0.20243,0.35274,0.39362,0.10314,0.034789,0.0030195,-0.0099396
-0.060046,0.041132,-0.2294,-0.41372,-0.054967,-0.0051018,0.027133,-0.016468
0.011245,-0.43422,0.19186,0.17961,0.0069838,0.0105,-0.019004,-0.015355
-0.019461,0.36562,-0.58286,-0.11969,0.014991,0.011375,-0.0026262,0.0089574
0.066666,0.14711,0.2313,0.15982,-0.015945,-0.002565,0.0059231,0.02519
0.0041763,-0.13236,0.59149,0.26269,0.0072842,0.0074855,-0.0089996,0.0020819
0.02764,0.18016,-0.15356,-0.058372,0.013769,-0.0057182,-0.00053029,0.0021221
0.027844,-0.20816,-0.16935,-0.19797,0.034262,0.019925,0.02351,0.025298
-0.081051,0.057178,-0.62746,-0.15052,-0.048756,-0.048734,-0.0072003,-0.014323
-0.041181,-0.31946,0.34131,-0.0020421,-0.016662,-0.0087683,-0.014545,-0.038565
0.0068426,0.1924,0.28733,-0.031673,-0.0099836,0.0069877,0.001473,-0.0082453
0.1177,0.19137,-0.15998,0.076964,0.041892,0.037738,0.025231,0.037763
-0.091433,-0.18678,0.30874,0.06315,-0.032463,-0.033451,-0.03701,-0.040934
0.043447,0.45017,0.033692,0.056914,0.025273,0.012456,0.010076,0.029316
-0.063685,0.22072,-0.58338,-0.054651,-0.026604,-0.011802,-0.013199,-0.024796
0.10266,-0.44331,0.029795,0.17667,0.062294,0.042332,0.03377,0.062345
-0.11396,-0.49087,0.31894,-0.15415,-0.043723,-0.028288,-0.013134,-0.03757
0.0049682,-0.079057,-0.045259,0.06974,0.022643,0.018371,0.010069,0.0032448
0.06075,0.21619,0.45018,0.026536,-0.035481,-0.013239,-0.0060866,0.0046713
0.11563,0.38395,-0.51882,-0.067084,0.03186,0.017267,0.0086368,0.036593
-0.12743,0.024257,-0.16755,-0.041267,0.013693,-0.030895,-0.016092,-0.041932
-0.082576,-0.38764,0.17928,-0.12408,-0.050898,-0.0093033,-0.017709,-0.027892
0.10188,0.41158,0.26782,0.011834,-0.0055772,0.027511,0.027377,0.02417
-0.058139,-0.27762,-0.30326,-0.032035,-0.0064603,-0.021702,-0.0055958,-0.025977
0.070617,0.12392,-0.074596,0.11964,0.016891,-0.0081024,-0.0069748,0.0097367
-0.073834,-0.18215,0.25831,0.10001,0.017654,-0.0015943,-0.015553,-0.0086843
0.032443,0.25368,-0.41268,-0.05964,0.027012,0.021569,0.015745,0.028686
0.022645,0.02026,0.75875,0.27309,0.052574,0.038083,0.016684,0.02845
0.037603,0.15936,-0.1456,-0.11354,-0.093467,-0.014639,0.0028167,0.0063109
-0.047681,-0.23948,-0.32431,-0.2673,-0.020825,-0.019701,-0.018271,-0.030121
-0.022457,-0.19422,-0.29586,0.061158,0.051456,-0.00098321,0.015578,-0.0031496
-0.004235,-0.087594,-0.094437,-0.15177,-0.04087,-0.013669,-0.005413,-0.014892
0.0065866,-0.17498,0.48715,0.12558,-0.0087852,0.012098,-0.011311,-0.011229
0.087734,0.46196,0.1467,-0.098107,0.0306,0.01349,0.028847,0.046427
-0.058014,-0.015507,-0.45921,0.2407,0.014939,-0.017451,-0.033513,-0.021924
-0.055908,0.2098,0.26103,0.025688,-0.024341,-0.025988,-0.018665,-0.028901
-0.02328,-0.52297,0.44367,0.085515,0.022277,0.019353,0.011089,0.0099314
0.10232,0.4435,-0.24532,-0.11097,0.037693,0.032977,0.024809,0.032274
-0.015029,-0.32964,-0.17173,-0.18116,-0.064002,-0.015976,-0.00058943,-0.0084739
-0.09404,0.10723,-0.23189,-0.039443,-0.017191,-0.02558,-0.025724,-0.033906
0.13095,0.55387,-0.10942,0.13424,0.029671,0.012251,0.043382,0.049965
0.0037437,-0.37792,0.13942,0.20703,0.053145,0.027353,-0.0041026,-0.0067011
-0.053713,-0.13818,0.65629,-0.26623,-0.056116,-0.0037027,-0.011949,-0.0085117
-0.033456,-0.1987,-0.77434,-0.16024,-0.055883,-0.026343,-0.027151,-0.017949
-0.021176,-0.10719,0.024127,0.095569,0.030446,0.013918,0.0048027,0.0040354
0.038162,0.11442,0.19763,0.34504,0.046626,-0.0081613,0.01341,0.010555
0.012145,0.24294,0.25113,-0.037011,0.031662,0.0087464,0.0063159,0.0016201
0.002716,0.18904,-0.10841,-0.10575,-0.014563,-0.0058661,0.014653,0.0007114
-0.021107,-0.18336,0.12124,-0.12748,-0.045329,-0.020882,-0.031948,-0.038984
0.0032588,-0.18301,-0.12197,-0.079443,0.0095259,0.018315,0.0071454,0.0075956
0.036608,0.18464,-0.44859,0.13149,-0.0063429,0.010149,-0.00082127,0.046728
-0.022984,-0.111,0.19363,-0.1748,-0.030446,-0.0062939,-0.00107,-0.0075485
0.0036493,0.085298,0.28582,0.29829,0.046672,0.00028979,-0.0013188,-0.014694
0.022178,0.11492,0.17598,-0.0040749,-0.001407,0.022166,0.01413,0.017351
0.024273,-0.064369,-0.068943,-0.050717,0.020804,0.0047554,0.014058,0.010324
-0.13103,-0.10427,-0.64702,-0.18537,-0.058412,-0.059609,-0.024986,-0.051508
0.095242,0.15656,0.34621,0.12335,0.026683,0.016756,0.0063217,0.019316
-0.046716,-0.3695,0.23816,0.11791,0.01833,-0.00031803,-0.0092745,-0.019361
0.0060168,0.2547,-0.16615,-0.19344,0.0259,0.022188,-0.0015236,0.0044279
0.011811,-0.10278,-0.045345,0.010199,-0.044397,-0.0014999,0.013917,0.020479
0.025927,0.059817,0.10985,0.073171,-0.0051123,0.006836,0.0058118,0.0054357
0.064456,-0.083528,-0.36324,-0.10557,0.010906,0.00031672,0.0054756,0.02963
-0.12233,0.10966,0.0051246,0.052411,-0.035418,-0.028972,-0.02604,-0.031991
0.059358,0.054553,0.7153,0.2034,0.019979,0.020347,-0.010464,0.0079629
-0.070382,0.009137,-0.43602,-0.17626,0.028651,-0.00040545,0.0054729,-0.022513
0.058351,0.12111,0.76952,0.17872,-0.001624,-0.0055576,0.014064,-0.0063377
0.038747,-0.056101,-0.75404,-0.12258,0.0072014,-0.0031766,0.015338,0.0095557
0.0030026,-0.086255,-0.31051,-0.11922,0.015959,0.029961,-0.0064102,0.0095484
-0.080709,-0.32158,-0.061828,-0.11552,-0.092647,-0.046922,-0.012306,-0.0063
-0.0018878,0.34764,-0.067218,0.16272,0.071931,0.016099,-0.00263,0.0089765
0.067372,-0.069285,0.685,0.060223,-0.013763,0.015904,0.014484,0.00078611
-0.044759,-0.062056,-0.075054,0.077936,0.017512,-0.0083671,0.0074816,-0.0073561
0.029228,0.020741,-0.05596,-0.11164,-0.021629,-0.0018924,-0.00041868,0.0080329
0.00082855,-0.10715,-0.35885,-0.07871,-0.029481,0.0042545,-0.02492,-0.0077249
-0.012042,0.017137,0.39729,0.066764,0.0097126,-0.0053551,0.0043883,3.7219e-05
-0.032032,0.41748,-0.34601,-0.012373,0.017893,-0.0070881,-0.0059766,-0.0077831
-0.0037214,-0.19656,0.72632,0.24465,0.041903,0.014856,-0.0087389,0.0078324
0.0031151,-0.2578,-0.14925,-0.10947,-0.01996,-0.0096974,0.0043728,-2.5355e-05
0.1059,0.5105,-0.60293,-0.1626,0.027387,0.028714,0.049411,0.062383
-0.11739,-0.5687,-0.037039,-0.12723,-0.081944,-0.041756,-0.045189,-0.086171
0.03585,0.3278,-0.25044,0.026963,0.0033801,0.0054223,0.017576,-0.0003246
0.0022777,-0.10852,0.28016,0.12788,0.025416,0.006096,-0.012375,-0.0081377
0.030888,0.02663,0.68109,0.34796,0.038865,-0.00081172,0.0053119,0.015443
0.089447,0.21007,-0.48293,-0.29593,-0.018593,0.023591,0.031164,0.054806
-0.11186,-0.35248,0.2828,0.02622,0.0096289,0.0088144,-0.013406,-0.0072866
-0.034308,-0.00032519,-0.30049,-0.23793,-0.040062,-0.01404,-0.011637,-0.0068758
-0.076189,-0.20445,0.27738,0.28929,0.028186,-0.029436,-0.026328,-0.037844
0.044372,0.0094654,-0.36407,-0.12386,-0.035105,-0.0061315,0.0049023,0.009067
0.070509,0.44275,0.15265,-0.10794,-0.0029693,0.016884,0.0039998,0.0009842
0.011077,0.21497,-0.29484,-0.028728,-0.023676,-0.0071315,0.01026,-0.007388
-0.031465,-0.12709,0.20237,0.18423,0.090124,0.023538,-0.0072399,-0.008146
0.076252,-0.03905,0.37322,0.068679,0.0019854,0.015272,0.022155,0.030099
-0.056283,-0.111,-0.67127,-0.11253,-0.038914,-0.031853,-0.010644,-0.0018794
-0.023132,-0.17583,0.2804,0.13674,0.021103,-0.00064486,0.011727,0.0054157
0.034445,-0.026893,0.49308,0.21069,0.024774,0.015088,-0.0044281,-0.0026325
-0.0015186,0.10634,-0.49624,-0.35546,-0.036504,-0.0081909,-0.012291,-0.010387
-0.014576,-0.050609,0.40311,0.037365,-0.02249,0.0075316,0.0036334,-0.017887
-0.0287,0.057837,-0.32804,-0.16608,-0.018975,-0.00033432,-0.0036899,0.013851
0.010566,0.012256,-0.1619,-0.042266,-0.017461,-0.016209,-0.003155,0.014418
0.0017522,0.034803,0.18782,0.20146,0.045665,0.006795,0.0051376,-0.00066441
0.0077194,0.050989,-0.33531,-0.10976,-0.00014104,-0.0015747,0.0055187,-0.0080567
-0.056966,-0.186,0.54931,0.13072,0.0026528,-0.009977,-0.0098175,-0.023466
0.058195,0.16195,-0.048651,-0.080689,-0.030922,0.0051149,-0.0017693,0.023357
0.009813,-0.13078,-0.1595,0.086613,0.016773,0.0046967,-0.0015408,-0.0082531
0.055838,0.24789,-0.21175,-0.0078606,0.059626,0.035653,0.022146,0.030125
0.024304,0.1949,0.037757,0.0555,0.0031221,-0.01143,-0.0088422,-0.0099361
-0.12411,-0.5732,-0.20734,-0.032232,-0.013318,-0.019428,-0.0086148,-0.026828
0.00092267,0.073982,0.89656,0.25484,-0.014521,-0.011833,0.007126,0.010781
0.047599,0.071729,-0.15126,-0.10426,0.0060556,0.019154,0.0070455,0.0014508
-0.062281,0.043338,-0.59389,-0.41062,-0.077477,-0.035792,-0.016733,-0.015603
0.06983,0.11275,0.13844,0.021086,0.023624,0.026562,0.02171,0.030098
-0.024552,-0.064197,0.49924,0.19895,0.012778,-0.0045855,-0.026019,-0.0097256
-0.016957,-0.12799,-0.20508,-0.11661,-0.023263,0.0037081,-0.0035619,-0.002134
0.0070094,0.1329,-0.63551,0.0083155,0.026006,0.012459,0.01111,-0.0017372
0.071016,0.19594,-0.44439,-0.13233,-0.010121,0.0060393,0.010353,0.007106
-0.043614,-0.26587,0.84871,0.29393,0.048989,-0.0078275,-0.021314,-0.02253
-0.040111,0.076875,-0.08948,0.032211,-0.022707,-0.021496,0.0099421,0.010804
0.034388,-0.49331,0.88219,0.21623,0.040414,0.011693,0.018188,0.020999
-0.00017284,0.68099,-0.67593,-0.19419,-0.019945,-0.010049,-0.0044693,-0.023407
0.027668,-0.094705,-0.18242,-0.084496,0.0063378,0.030264,0.012145,0.025796
-0.069983,-0.1793,0.31768,0.0028834,-0.022292,-0.023762,-0.025881,-0.026923
0.0034269,0.044389,-0.056645,-0.0055073,-0.0050736,-0.00031613,-0.0014988,-0.0020574
0.052365,0.075958,-0.091247,-0.08839,-0.020614,0.022502,-0.00072725,0.022155
0.0064108,0.0241,-0.32725,-0.17621,-0.029915,-0.0098808,-0.0001379,-0.0011914
-0.071932,-0.14324,-0.13083,0.036351,-0.0091967,-0.034779,-0.015301,-0.032979
0.067435,0.010634,0.15805,0.2384,0.065605,0.018344,0.024186,0.028491
0.0028188,-0.2025,0.14659,-0.0056209,-0.023534,0.0012746,0.0012185,-0.0040838
-0.03897,0.36515,-0.35442,-0.11598,0.013078,0.0079448,0.0095925,-0.0054776
0.0048706,-0.060494,0.60549,0.18154,0.019566,0.0072106,-0.013207,-0.0067148
0.072177,0.12144,0.72485,0.19928,0.058487,0.030342,0.018688,0.031457
-0.11796,-0.35546,-0.82369,-0.15744,-0.034462,-0.024277,-0.012014,-0.015833
0.020702,0.015822,-0.08831,-0.11637,-0.056577,-0.023934,-0.011669,-0.0079111
0.043074,0.16417,-0.13421,-0.068967,-0.0083127,-0.015614,-0.011603,-0.015128
0.011736,0.19837,-0.22234,-0.16368,-0.0072028,0.016214,0.011596,0.0092682
-0.049963,-0.16306,0.52729,0.17086,0.016915,0.0089813,-0.0045512,0.0025773
0.021768,-0.021363,-0.49674,-0.063401,0.0016036,0.0016948,0.010327,0.019237
0.11713,0.077639,0.54813,0.073448,0.0017688,0.0099226,0.017238,0.035546
-0.15498,-0.21581,-0.29963,0.0054972,-0.0057457,-0.021099,-0.02282,-0.058103
0.06432,0.11636,-0.056001,-0.11743,-0.00508,0.017907,0.0073803,0.0037669
-0.069062,-0.21222,0.28643,0.4235,0.089811,0.0018309,-0.0093343,-0.036687
0.038468,0.043099,-0.10117,-0.10742,-0.033627,0.00089289,0.020789,0.047206
0.051055,0.1183,0.092763,-0.17372,-0.055273,-0.0083855,-0.011617,0.0056799
-0.030987,0.19335,-0.046832,-0.0052882,0.024605,-0.010336,-0.0049628,-0.0046939
-0.011852,-0.084543,-0.028474,0.027289,-0.028621,0.010816,0.0017545,0.00082238
-0.0081268,0.32107,-0.47724,-0.1257,0.027069,0.00063256,0.00082485,-0.0086727
-0.034841,-0.24952,0.14672,-0.012901,-0.011478,-0.024932,-0.0076205,-0.0094575
0.041304,-0.32323,0.97791,0.2871,-0.0035245,0.0126,-0.0078187,-0.0013539
0.040898,0.21437,-0.92647,-0.36551,0.012096,0.011983,0.023783,0.023492
-0.028244,-0.16935,0.18657,0.21083,0.027859,0.012494,0.001307,0.0024738
-0.010159,0.1274,-0.16422,0.049815,-0.041898,-0.017051,-0.0049478,-0.017784
0.024317,-0.24526,0.44578,0.0056201,0.0061426,0.0091707,-0.010707,0.0014172
-0.042675,0.2309,-0.58311,-0.1695,-0.015468,-0.018499,-0.00052371,-0.002852
0.022559,0.074375,-0.00027605,-0.044282,-0.005294,0.0088935,0.0097409,0.0080341
0.07103,0.15482,0.45112,0.1319,0.067604,0.028351,0.019826,0.033697
-0.085064,-0.033986,0.41702,0.2884,-0.00035472,-0.030939,-0.025205,-0.0355
-0.00038904,-0.17895,-0.26247,-0.23997,-0.045629,0.0024737,-0.016178,-0.019969
-0.018344,-0.014778,-0.16182,0.084219,0.040672,0.018931,0.023346,0.010055
-0.005509,0.074818,-0.45675,-0.29544,-0.054282,-0.020721,-0.0082265,0.00012779
-0.00021867,-0.090937,-0.19699,0.096211,0.013173,-0.0069976,0.0063539,0.0052952
0.052883,0.065146,0.57696,-0.022915,-0.030206,-0.0021064,-0.0030842,0.018154
-0.033261,-0.035643,-0.048923,0.065797,0.011356,-0.013444,-0.012906,-0.039039
0.077394,0.012726,0.59845,0.25348,0.021322,0.021953,0.016176,0.02932
-0.013844,-0.039751,-0.71327,-0.2401,0.055112,0.034204,0.014075,0.020267
-0.034083,-0.16188,-0.15352,0.023836,-0.035026,-0.015419,-0.019007,-0.011496
0.0003557,0.083455,0.53791,0.023217,-0.0298,-0.0017131,0.0030282,-0.0035763
-0.044008,0.375,-0.62126,-0.15484,0.0085999,-0.0027316,-0.0056479,-0.01866
0.027655,0.039382,0.14384,-0.025162,-0.036978,-0.026323,-0.0059244,-0.0022751
-0.011419,-0.28463,0.85733,0.27966,0.044157,0.013342,0.0099952,-0.0014964
-0.0048746,-0.12226,-0.82474,-0.108,0.024937,-0.008883,-0.0048449,0.0069624
-0.022669,0.040863,0.081143,0.052982,-0.0093961,0.0083989,0.0041035,0.0073866
0.076323,0.14985,0.40187,0.034522,-0.0049373,0.010326,0.021034,0.030998
-0.012074,0.088606,-0.6763,-0.18845,0.014135,-0.0032857,-0.0011235,-0.023743
-0.037449,-0.38268,0.53331,0.13267,-0.030872,-0.0013782,-0.023487,-0.02396
0.039493,0.16132,0.30398,0.090838,-0.007439,-0.0075851,-0.014934,-0.0086277
-0.039032,0.10736,-0.8949,-0.32175,-0.024902,0.0013459,0.0088541,-0.0010979
0.047144,-0.11891,0.32863,0.020752,0.0030319,0.017451,0.016648,0.045571
-0.014738,0.040055,0.077807,0.19801,0.061333,0.0093938,-0.0070919,0.0064083
0.017218,-0.031671,-0.27077,-0.022465,-0.013343,-0.022823,0.00026316,-0.0014113
-0.12286,-0.084796,0.23701,-0.10756,-0.032787,-0.0087736,0.0076011,-0.048242
0.057071,0.39357,0.29655,0.16291,0.011389,-0.0029195,-0.0083929,0.0064937
0.056974,-0.15565,0.55538,0.21945,0.033604,0.0028641,0.0070549,0.022139
0.033172,0.19197,-0.79274,-0.32853,-0.020732,0.0089301,-0.00070392,0.0065069
-0.092311,-0.25621,-0.46833,-0.1145,-0.011145,-0.01564,-0.023868,-0.032557
0.086972,-0.027503,0.41004,0.079078,0.030762,0.030962,0.031256,0.030005
-0.10846,-0.12368,-0.0020348,0.047519,-0.043923,-0.0074006,-0.015115,-0.0245
0.048138,-0.02051,-0.18885,0.015646,0.0064778,-0.0057744,0.0087786,0.014908
0.0022165,0.13682,0.23301,0.12238,0.017445,0.0043962,-0.014376,0.0076088
-0.0039882,-0.18571,0.23302,-0.00090692,0.004262,0.0071796,0.0012474,0.0082539
0.068529,0.17387,-0.16491,-0.073965,0.0058059,-0.0055995,0.024321,-0.0066699
-0.06165,-0.31831,0.46113,-0.0033906,-0.032629,-0.018673,0.00013176,-0.013825
-0.011976,0.58347,-0.96737,-0.15599,-0.0015382,-0.0089004,-0.024406,-0.013318
-0.056212,0.0053641,0.41608,-0.0072902,-0.0022483,7.9647e-05,-0.010117,-0.005246
0.094365,-0.093084,-0.12363,-0.063613,0.020209,0.031614,0.0041086,0.025941
0.080081,0.19869,0.29574,0.30944,0.066099,0.031033,0.041921,0.033322
-0.12271,-0.56934,0.15826,0.02727,-0.07532,-0.05624,-0.03709,-0.02999
-0.014093,0.019922,-0.27041,-0.0030592,-0.0055174,0.0043487,-0.0061876,-0.015522
-0.0080314,0.18135,-0.31805,-0.22668,-0.021387,-0.013535,0.0097256,-0.0013108
0.051965,-0.040377,0.44557,0.059127,0.033196,0.030975,0.0028251,0.012789
0.025631,0.18259,-0.24469,0.041076,0.033026,0.005292,0.027668,0.011344
-0.078809,-0.10137,-0.28709,-0.070836,-0.029949,-0.027901,-0.025357,-0.028871
0.0359,-0.40515,0.44295,0.12881,0.054986,0.033077,-0.0081237,0.0017182
0.034104,0.38384,0.17085,-0.087091,-0.048238,-0.014853,0.016537,0.017315
-0.013749,-0.098697,0.074606,-0.023296,-0.05055,-0.01546,-0.0063528,0.0023393
-0.029569,0.27413,-0.35547,0.10186,0.040416,0.0077419,0.0011342,-0.012035
0.0098973,0.11215,0.098013,-0.13259,-0.03282,-4.5763e-05,-0.00012409,0.0052392
-0.036272,-0.36681,0.052072,0.21992,0.042667,0.00011269,-0.025657,-0.0086468
0.0894,0.10867,-0.11672,-0.25324,0.0016812,0.023722,0.018527,0.039696
0.058489,0.051762,-0.037678,0.035234,0.00081179,-0.0074356,0.0077842,-0.0063284
-0.137,-0.14134,-0.0104,0.070713,0.00117,-0.015281,0.0050293,-0.021969
-0.028342,0.066977,-0.56804,-0.16986,-0.012899,-0.0076163,-0.0049495,-0.0073121
-0.037244,-0.18298,0.54496,0.14125,-0.018185,-0.015626,-0.021803,-0.024743
0.12565,0.070533,0.50446,0.29968,0.055249,0.023294,0.017203,0.0198
0.062269,0.2354,-0.031922,-0.071434,0.011643,0.031135,0.018402,0.02521
-0.13334,-0.41295,-0.6129,-0.2555,-0.079114,-0.038881,-0.033914,-0.047067
0.023411,0.36947,0.069111,-0.098287,0.017039,0.00080198,0.016266,0.014361
0.0012876,-0.17401,0.24893,0.13314,0.010894,0.017377,0.012327,0.030115
0.09704,0.48031,-0.035154,0.055393,0.011875,0.010803,0.0007067,0.023723
-0.080203,-0.29316,0.099125,-0.088942,0.004575,-0.0033668,-0.003416,-0.01276
0.00051383,-0.18306,0.31706,0.021658,-0.026303,-0.025214,-0.023871,-0.017159
-0.012636,-0.20623,-0.21299,0.1311,0.013347,-0.0079333,0.0015575,-0.013348
-0.033887,0.30838,-0.82659,-0.2979,-0.032434,-0.0062664,0.010229,-0.0095977
0.061706,0.15757,0.26178,0.14236,0.039628,0.034433,0.0021494,0.017135
0.016384,-0.087463,0.043859,0.17911,0.026359,-0.0030673,0.00089821,-0.003742
-0.06036,-0.073395,-0.12774,-0.15667,-0.033428,-0.0016408,-0.0010965,-0.0098718
0.026904,-0.25094,0.70851,0.22754,0.02392,0.0073785,0.0042773,0.0065343
-0.034262,0.13248,-0.53504,-0.28741,-0.013018,-0.022984,-0.0061014,-0.0091517
0.060781,-0.038207,0.48789,0.19463,0.027185,0.01655,0.014938,0.03692
-0.031891,0.15993,0.29933,-0.10968,-0.066718,-0.0068995,-0.018295,-0.011393
0.085882,-0.086109,0.0039268,-0.045533,-0.013566,0.0082092,0.01156,0.017885
-0.10185,0.26828,-0.61584,0.089812,0.046166,-0.024019,-0.028222,-0.039213
0.029638,0.094293,-0.40262,-0.070046,0.01128,0.021516,0.026414,0.012742
-0.043266,-0.2378,0.06021,-0.054466,-0.016163,-0.011289,-0.0043188,-0.013598
