0.020627,0.050356,0.016747,0.059889,0.031127,0.032495,-0.034186,-0.023569
0.0065449,-0.25397,0.00089142,-0.0031924,0.0075891,0.005377,-0.049887,-0.16486
-0.014221,0.064182,-0.029695,-0.050449,-0.0079776,-0.031784,0.019571,0.20437
-0.063874,-0.18312,-0.027925,0.011995,-0.015504,-0.031392,0.02589,0.044801
-0.14814,0.11212,0.060856,0.027981,0.0084723,-0.00015243,0.024046,0.21503
0.048155,0.15093,0.0019694,-0.033697,0.0014375,0.047646,-0.048072,-0.14537
0.090386,0.016772,0.029234,-0.0011774,-0.0054093,-0.035099,-0.018179,-0.21716
0.1999,0.10562,0.009121,0.0082742,0.0034785,0.010504,0.012495,-0.016794
-0.16049,-0.20168,-0.12943,0.025765,0.012378,-0.010268,-0.026196,-0.083667
0.017885,0.062587,0.10515,-0.011406,-0.010068,0.043161,0.13131,0.19172
-0.015266,-0.046587,-0.05312,-0.0097175,-0.0014669,0.091937,-0.077769,-0.010505
-0.11292,-0.043087,0.01293,-0.00064665,-0.032231,-0.16214,0.02577,0.036746
-0.06643,-0.056723,0.069296,0.01563,0.038185,0.044871,0.01171,0.021317
0.38697,-0.099364,-0.078632,0.015587,0.037847,0.093986,-0.018846,0.029175
-0.16974,0.0046306,-0.031487,-0.047623,-0.041077,-0.1179,-0.10522,-0.064959
-0.012613,0.26602,-0.014823,-0.0097919,-0.05013,-0.091833,0.018227,0.027525
-0.041839,0.061222,0.1129,0.0043168,0.057634,0.28908,0.047078,-0.029719
0.038888,-0.055562,-0.030489,0.041859,-0.014534,-0.18563,0.052106,-0.018081
-0.16024,0.04612,0.00062285,-0.01409,0.046036,0.039954,0.026022,-0.02323
0.17539,0.12033,-0.012636,0.016345,-0.026074,-0.016818,-0.077587,-0.075724
-0.09957,-0.29041,0.093315,-0.015192,-0.050956,-0.18998,0.0071938,0.10668
-0.10667,-0.049533,-0.17445,-0.014989,-0.012779,-0.016952,-0.0477,-0.01403
-0.014645,-0.01941,0.034755,0.024633,0.057359,0.27669,0.030978,-0.054214
0.15524,0.0016474,0.0091502,-0.021522,0.026711,0.034714,0.086568,0.1193
0.083386,-0.0017712,0.083953,0.0025865,-0.057901,-0.064206,-0.053354,-0.024998
0.12044,0.13603,-0.00696,0.010839,0.037728,0.12655,0.063775,0.051143
0.14696,0.066036,-0.045063,0.010932,0.008647,0.011079,-0.031229,0.033996
-0.16826,-0.029127,0.0087755,-0.020609,-0.0048231,-0.092162,-0.096349,-0.046503
-0.27359,-0.068564,-0.0326,-0.013422,-0.049843,-0.34042,0.017017,-0.17581
-0.16366,0.090585,-0.0045797,0.016978,0.029626,0.12591,-0.026581,0.020485
0.011769,-0.13615,-0.078392,-0.015206,-0.00089702,-0.012018,0.046999,0.034589
-0.044411,-0.013752,0.16064,-0.00047167,-0.016412,0.04501,-0.0036857,0.0076923
0.47305,0.09825,-0.0057851,0.030011,-0.0090226,0.073075,0.064152,0.096954
0.09627,0.034989,0.00069658,0.021565,0.029203,0.12913,0.016445,-0.032578
-0.22092,-0.04856,-0.0074194,-0.018046,0.028072,0.081698,-0.037475,-0.020726
-0.017286,-0.14611,-0.077186,-0.034217,-0.012327,-0.18627,-0.035468,0.031401
0.15241,0.27202,0.017697,0.02767,0.0018166,-0.027375,0.014098,0.030102
-0.3996,-0.20182,0.019158,-0.027719,-0.0075682,0.11894,0.048124,-0.032726
0.1078,0.087512,-0.026122,-0.0050261,-0.048221,-0.17156,-0.090125,-0.016938
0.24521,-0.10285,-0.016702,0.0099235,0.012785,0.044118,0.060025,-0.0089672
-0.18183,0.070592,0.070789,0.02509,0.01154,-0.032706,-0.079555,-0.063858
-0.031222,0.029876,-0.013703,0.009373,0.010714,0.081291,0.022605,0.013571
0.11305,0.072394,-0.012441,-0.021493,0.03389,0.065629,0.054351,0.05936
-0.0045573,-0.082331,0.043224,0.010661,-0.0047805,-0.071222,-0.023031,-0.01997
-0.06927,-0.15995,-0.049953,-0.027011,-0.042792,-0.1483,0.064134,0.057175
0.10842,0.059198,-0.018628,-0.017442,-0.0099228,0.093831,-0.027847,-0.013577
0.053359,0.18531,0.027784,0.023549,-0.00010215,0.016125,-0.041295,-0.021061
-0.32761,-0.077919,-0.043487,0.033207,0.025476,0.088593,-0.0077393,-0.012046
0.05096,0.05109,0.080182,0.01125,0.019631,-0.070891,0.0099746,-0.025604
0.14834,-0.076046,-0.061961,-0.01914,0.013302,0.084578,0.034964,0.024098
-0.15549,-0.10008,-0.016577,-0.034708,-0.025023,0.015388,0.004513,-0.027186
0.40912,0.16627,0.099354,0.011374,-0.0095564,-0.12313,-0.05019,0.046869
0.087919,0.0040704,-0.057744,0.002024,-0.002783,0.019593,-0.02747,-0.011828
-0.11535,-0.071198,0.012251,0.0078163,-0.0045041,-0.0025489,0.033871,0.015181
-0.17258,-0.020526,-0.049975,-0.025568,-0.022172,-0.072745,0.048252,0.018254
-0.34321,-0.062714,-0.010046,0.0038371,0.0071702,0.13725,0.00042221,-0.049692
-0.33801,-0.080733,0.06166,0.026077,0.021473,-0.051679,-0.015548,-0.0090776
0.56357,0.18284,-0.0068598,0.010136,0.005455,-0.068358,-0.093215,-0.0083388
0.22376,0.094505,0.026398,0.010764,0.021768,0.15064,0.048697,0.022938
0.091119,0.051723,-0.041909,-0.026846,2.0263e-05,-0.14394,0.074082,0.022412
0.043607,-0.016889,-0.016687,-0.017029,-0.021019,-0.037686,-0.056472,-0.017562
-0.40866,-0.25286,0.055004,0.0085973,-0.010544,0.21924,0.02374,-0.01873
0.10308,0.054311,-0.053517,0.010577,-0.00029962,-0.13168,0.0016902,0.034598
-0.0061332,0.014234,-0.014174,0.019813,-0.0063607,0.06467,0.025354,0.017421
0.10022,0.010681,0.0089869,-0.034243,0.033461,0.056944,-0.04617,-0.0077897
-0.13214,-0.01732,0.039464,0.020192,-0.01377,-0.11705,-0.0097661,-0.0098039
-0.023297,-0.02891,-0.016414,-0.019931,-0.022966,-0.051966,-0.0057667,-0.035459
-0.14359,0.063535,0.11488,0.0096693,0.0061422,0.048745,-0.057059,-0.029954
0.10808,0.065928,-0.15247,-0.0078701,-0.011993,-0.041194,0.094867,0.022511
0.19936,0.056924,0.02543,0.0059342,0.032434,-0.031896,-0.018046,0.020564
0.019058,-0.12776,-0.023105,-0.018912,-0.024266,0.062145,0.010985,0.042475
0.22888,0.12821,0.030275,0.027173,0.013465,0.054598,-0.013096,0.0023596
-0.13464,-0.06701,-0.0095339,0.011429,0.020696,-0.014532,0.019017,-0.021711
-0.40962,-0.14439,0.013853,0.0040565,0.020759,0.08187,0.021028,-0.029878
-0.034916,-0.0034284,0.03013,-0.010819,-0.041281,-0.038885,0.0001993,0.0089401
0.20807,0.066104,-0.04679,-0.017887,-0.025111,-0.080143,-0.044063,0.016474
-0.007775,0.048299,0.048429,0.013797,0.014277,0.020194,-0.010697,-0.0073427
0.23352,0.068199,-0.0048869,-0.0019121,-0.0014656,-0.10547,-0.032814,-0.0077943
-0.30009,-0.014583,0.011664,0.0052413,0.029124,0.10508,0.014527,-0.03165
-0.06741,-0.11384,-0.058396,-0.034941,-0.0032859,0.018937,0.029916,-0.00064325
0.15177,-0.034072,0.0036439,0.010618,-0.020395,-0.059148,0.029258,0.0619
0.045402,0.021579,-0.020783,0.0016456,-0.0063012,0.074126,-0.010571,-0.00023681
0.17536,0.076325,0.048375,0.016626,0.015891,0.0048932,-0.0033777,0.00036614
-0.037887,0.08288,-0.038429,0.0011468,-0.01599,0.014556,0.019739,-0.022409
-0.096036,0.06421,0.039539,0.010025,0.015511,-0.22495,-0.066183,-0.014112
-0.031602,-0.16754,-0.014335,0.0041486,0.0089849,0.21599,0.012241,-0.0062179
-0.024486,-0.034263,0.026527,-0.0088875,-0.0043114,0.048162,0.059608,0.016756
-0.050016,-0.082411,-0.010015,-0.013793,-0.016715,-0.080255,-0.017914,0.031373
-0.13675,0.079571,0.0083452,0.0046719,0.010548,-0.04455,0.014021,-0.01688
-0.14815,0.038918,-0.020614,-0.00072808,0.014584,-0.016874,-0.063291,-0.010472
0.32599,0.023635,-0.0038206,-0.0068359,-0.012861,0.080675,-0.023174,-0.042685
0.1405,-0.011863,-0.012142,-0.013817,-0.0097179,-0.017678,0.04857,0.019803
-0.023313,-0.0041971,0.016612,0.017347,-0.0075997,-0.04639,-0.0042215,-0.0022569
-0.087881,0.0078467,0.019957,0.016405,0.024495,-0.02112,0.00592,0.00857
-0.032704,-0.022993,-0.0095478,-0.0086854,-0.0072848,0.11281,0.047545,0.036617
0.10599,0.089794,-0.024333,0.0047706,0.0064916,-0.011813,-0.043778,-0.0044241
-0.045304,-0.061457,-0.0078499,-0.0054992,-0.012091,-0.10593,0.028345,0.017588
-0.055723,-0.025226,-0.052831,-0.00018861,-0.00019625,0.11171,-0.0021987,-0.03102
-0.048378,-0.021791,0.12292,-0.002487,-0.0042749,-0.038545,-0.026408,0.012921
0.1522,0.11949,-0.018963,0.0034694,0.0073772,-0.072238,-0.020991,-0.023206
-0.12768,-0.23497,-0.056249,-0.021173,-0.011692,0.042026,-0.0014262,0.016414
-0.074564,0.055179,0.03441,0.0018624,0.0091637,-0.0237,0.0092823,-0.055757
0.026064,0.10731,0.010317,0.017949,0.023265,0.074511,-0.027275,0.0028405
0.2737,0.15638,-0.0043847,-0.0042168,-0.031853,-0.0069389,0.045902,0.052288
-0.43401,-0.14834,-0.010769,0.02112,0.03119,0.036744,0.042018,-0.023703
-0.011692,-0.0011616,0.0056604,-0.015711,-0.022224,-0.067807,-0.030578,0.025785
0.22671,-0.11197,-0.042058,-0.01352,-0.0049138,-0.070538,-0.046605,-0.001602
0.15293,-0.010987,0.056235,0.027311,0.020295,0.0051623,0.025186,0.0040138
0.18314,0.099504,-0.035839,-0.0029207,-0.0093758,0.10466,0.020464,-0.019699
-0.2535,0.0013099,0.0019659,-0.018477,-0.015983,0.017057,0.0012667,0.0052239
0.043292,0.053963,0.0058806,-0.0037608,0.023847,-0.015441,0.0139,0.023659
-0.25917,-0.00062216,0.023366,0.0023245,-0.022645,-0.0944,-0.043773,-0.027503
-0.072651,-0.045904,-0.046359,-0.015525,-0.0068849,0.06922,-0.0081791,-0.0083065
0.18312,-0.020255,0.016318,0.0056119,0.0088051,-0.001166,0.010956,0.0025021
0.065477,-0.0027053,0.032537,0.027113,0.016771,-0.063391,-0.025624,-0.0033691
0.046858,0.045074,-0.0048125,-0.0053409,0.0092934,0.09346,0.053899,0.028486
0.14016,0.021115,-0.0092856,-0.0055842,-0.021443,-0.077529,-0.016063,0.0042594
-0.25724,-0.17614,-0.0040411,0.010803,0.010404,0.032944,-0.0088634,-0.036834
0.25379,0.16463,-0.012469,-0.011006,0.0031057,0.03414,0.052164,0.0070977
-0.57441,-0.15901,-0.034733,0.0068256,-0.0044568,-0.027211,-0.051615,-0.027569
0.30874,0.15844,0.069455,0.0014183,-0.0046181,-0.0028198,0.00025986,0.047147
0.048321,-0.022907,-0.012869,-0.019812,0.0025608,0.005634,0.028304,0.02075
-0.17925,0.078743,0.01464,0.013103,0.0093211,-0.0018944,-0.029701,-0.020476
0.42677,-0.091053,-0.051666,-0.017266,-0.038858,-0.0097296,0.0062941,0.0096183
-0.076335,0.022336,0.037759,0.021788,0.014522,-0.017726,-0.019559,-0.052973
-0.26571,-0.13609,-0.029905,-0.018138,-0.0021417,-0.010044,-0.0053145,0.018222
0.068905,0.11287,0.026442,0.01936,0.012936,0.052609,0.018053,-0.0035802
0.042645,0.0029901,0.011518,0.0017127,0.012993,0.0063517,0.011566,0.021917
0.019715,0.0023991,-0.027617,-0.00047734,-0.0020047,-0.04717,-0.017129,0.016194
0.12964,0.024552,-0.067229,-0.033791,0.014642,0.016987,0.040919,0.010089
-0.021146,-0.05608,0.096136,-0.00422,-0.0076559,0.011126,0.036645,0.003244
-0.30192,0.064793,-0.0059743,0.064988,-0.022323,-0.0025628,-0.061922,-0.074892
-0.057271,-0.089616,-0.021799,-0.029188,0.0016494,-0.063505,-0.044506,0.0021815
0.26019,0.058793,0.040923,0.0023272,0.0016477,0.15608,0.096245,0.06273
-0.027547,0.010193,-0.028792,-0.00459,-0.0066537,-0.070579,-0.061684,-0.010109
0.035143,-0.055392,-0.020131,-0.018803,0.0081988,-0.0091541,-0.049328,-0.020561
-0.025494,-0.012517,0.027697,0.0064245,-0.015988,-0.073503,0.047913,0.0006362
-0.042763,0.061168,-0.0026103,0.008447,-0.00075918,-0.028834,-0.011406,-0.0085396
0.00098734,0.072351,-0.072037,0.0027458,0.022898,0.086345,6.4286e-05,-0.00086628
0.099063,-0.11144,0.077255,-0.010822,0.00041223,-0.024279,0.043925,0.023804
-0.068788,-0.021235,-0.023408,0.0066603,0.01765,0.10847,0.0033872,0.010693
-0.19887,0.06179,0.040118,0.00034876,-0.0037732,-0.085562,-0.019919,-0.024895
0.46474,-0.049904,-0.06807,-0.0064788,-0.025193,-0.036191,0.028437,0.041548
-0.34612,0.065429,0.019169,0.025089,0.0076237,0.053031,-0.047348,-0.01712
0.084492,-0.0064529,0.020431,-0.0066271,-0.0072966,-0.013822,0.0099402,-0.029568
0.066335,0.023337,0.021413,-0.0079316,0.015704,0.051645,0.035683,0.019417
-0.23883,-0.087516,0.0062013,0.0055893,-0.0015829,-0.040195,-0.064259,-0.057875
0.15958,-0.010928,-0.048905,-0.03623,-0.035584,-0.024048,0.030276,0.051074
0.026417,0.050015,0.012187,0.0074866,0.015598,-0.040552,-0.01655,0.0027256
0.049328,-0.0061491,0.033249,0.019877,0.0040032,0.012158,-0.0091288,-0.015086
-0.12228,-0.0074401,-0.047983,0.0091096,0.0161,0.01744,-0.017389,-0.0019892
-0.033576,0.038394,0.0033086,-0.001049,-0.0023059,0.038435,0.060591,0.018903
0.12235,-0.032716,0.00020379,-0.0025296,-0.0039673,-0.0024057,0.021911,0.016565
0.051182,0.044783,-0.0098133,-0.0029961,-0.004316,-0.034409,-0.016203,-0.0010796
-0.041291,-0.0026442,0.020634,-0.010236,0.012265,0.02061,0.039854,0.012864
-0.058819,-0.011004,0.005875,-0.00090958,-0.0012973,0.013959,-0.083627,-0.035377
0.00067902,-0.066223,0.0083509,0.009152,-0.021911,0.031077,0.011482,-0.013006
-0.15829,-0.027567,-0.027029,0.0040353,0.020304,-0.014585,-0.042278,-0.029375
0.027178,0.066085,0.078731,-0.0087832,-0.023537,-0.061087,0.0049119,0.0015076
0.12662,-0.0038322,-0.018965,0.01723,0.041484,0.016219,0.074842,0.032814
0.10673,0.028415,-0.0084412,-0.011978,-0.011477,0.037602,-0.012186,0.033284
0.042525,0.0065342,-0.085628,-0.0028758,-0.0263,-0.06696,-0.0061372,0.026251
0.023933,-0.030627,0.0070148,-0.0024432,-0.010766,0.0077782,0.022744,-0.0041128
-0.13255,0.041575,0.027436,0.0049748,0.027493,0.012499,-0.011378,-0.065877
-0.054986,-0.019469,0.0073915,0.0039115,-0.0049932,-0.028727,-0.045843,-0.010851
0.051865,-0.065699,0.025766,-0.0053726,0.0014735,0.087633,0.013329,0.02018
-0.09298,0.027648,-0.025974,-0.01475,-0.0075011,0.0022772,0.00238,0.0037498
0.13771,0.073052,0.0013604,0.015151,0.007351,0.003988,-0.015849,0.025916
-0.38505,-0.069899,0.014528,-0.040429,-0.0085777,-0.01716,0.021472,-0.022452
0.1872,-0.025783,0.013712,0.053004,0.014971,-0.022763,0.013029,-0.0082191
0.054421,0.12782,-0.0090627,0.014176,0.023146,0.025675,0.013625,0.0064452
0.30612,-0.20227,-0.0073703,-0.00082626,-0.0077151,-0.051845,-0.00022836,0.021813
-0.14189,0.070314,0.010353,-0.0078751,-0.023139,-0.028725,-0.03656,-0.040086
-0.21977,0.10205,0.027828,-0.022857,-0.02327,-0.013968,0.0058448,0.031678
0.27302,-0.060258,-0.0883,-0.0069057,-0.00032728,-0.030422,-0.0062509,-0.0052565
-0.042754,0.098648,0.028839,0.00084395,0.014528,0.16473,-0.010786,-0.010591
0.085768,-0.062416,0.019833,0.00046097,0.013667,-0.0061334,0.062165,0.02307
-0.29146,-0.059691,-0.013518,-0.023494,0.0051276,0.074397,0.0092065,0.0093542
0.040761,0.01257,0.015175,0.038594,0.0047487,-0.20313,-0.052583,-0.028652
-0.013065,0.021294,0.004907,0.0072552,-0.0029455,0.004672,-0.0059326,0.018241
0.070863,-0.080347,-0.028148,-0.00019872,-0.017899,0.056638,0.0009905,-0.01399
-0.0411,0.098596,0.033621,0.0005969,-0.0011006,-0.055686,-0.031409,-0.031318
-0.087466,-0.050748,-0.012696,-0.013944,-0.0073849,0.10456,0.03013,0.021417
0.12353,0.034645,-0.034332,0.0028016,0.017708,-0.041311,-0.0015097,-0.0036531
-0.029117,-0.019827,0.069978,0.0036637,0.019218,0.10005,0.037943,-0.0044334
0.098154,-0.010885,-0.020585,0.0040013,-0.010944,-0.14343,2.1233e-05,0.0038117
-0.047931,0.061335,-0.0019489,-0.011982,-0.010509,0.03303,-0.021795,-0.0022742
0.1808,0.0011374,-0.030975,-0.013069,-0.0030539,-0.03426,0.018922,0.055191
-0.068893,0.011132,0.0090419,0.016483,-0.0042153,-0.04781,0.0044836,0.011615
-0.033986,0.02834,0.031912,-0.0011969,0.0095749,0.1416,-0.01865,0.0069215
-0.19384,-0.22095,-0.017013,-0.0032748,0.0073259,0.019154,-0.042859,-0.068964
-0.027402,0.1383,-0.020217,-0.0050232,-0.02624,-0.047223,0.041345,-0.021249
-0.0049186,-0.0028994,-0.024001,0.0016676,0.0030027,-0.056994,-0.0077953,0.0092428
0.1466,-0.073592,0.0035887,0.0091665,0.0016347,-0.056768,-0.017726,-0.0085618
0.14642,0.16915,0.0085718,0.017503,0.024564,0.10184,0.0045268,0.027414
-0.23866,-0.10996,0.085267,-0.012513,-0.006268,0.043467,0.0049865,-0.0071062
0.070909,0.019111,-0.039436,-0.0030105,0.0027828,-0.052878,0.015348,0.037075
-0.017316,0.0094303,-0.0061215,-0.001187,0.0045927,-0.0083868,-0.065925,-0.065993
0.02094,-0.045784,-0.0025256,0.0082578,-0.0011738,-0.0037173,0.073199,0.035573
-0.079744,0.00095357,-0.013469,-0.02181,-0.014861,0.0071032,0.017721,0.013603
0.27395,0.14841,-0.031706,0.0022162,0.0023176,0.054652,0.039824,0.047389
-0.051689,-0.042216,0.012481,0.0021991,-0.004474,-0.0098108,0.083494,0.011284
-0.081159,-0.10327,0.016976,0.0016889,-0.011796,-0.084572,-0.19613,-0.072005
-0.026248,0.066149,-0.0030527,-0.0069271,0.0039259,0.0028599,-0.03402,-0.0078015
-0.27011,-0.088659,0.03801,0.023464,0.0038542,-0.012145,-0.016076,-0.038675
0.23443,-0.0045201,-0.0084385,0.0071492,0.011666,0.0435,0.061561,0.0071975
-0.0039213,0.062048,-0.0095661,-0.024451,0.0041112,-0.024316,0.059529,0.044148
-0.046461,-0.066942,-0.051097,-0.00093338,0.012519,0.1135,-0.020642,-0.005455
0.10015,0.18063,0.039244,0.007397,-0.025659,-0.081552,-0.013408,0.0074057
-0.11805,-0.11553,0.0041968,0.00046978,0.006602,-0.0078712,-0.011371,0.012935
-0.036927,-0.071533,-0.02279,0.0015962,0.0075055,0.01377,0.040768,0.011476
0.37412,-0.062013,0.013595,0.01062,0.0080546,0.013743,0.010193,-0.020291
-0.081398,0.2173,-0.0033252,-0.019493,-0.023196,0.0065382,-0.002107,-0.019967
0.040499,0.046525,-0.0029398,-0.002941,0.0074083,-0.048107,-0.028367,0.02781
-0.17532,0.041245,0.022583,0.00549,-0.0094742,0.020602,0.031806,0.021146
-0.44023,-0.21438,-0.0051676,-0.0020654,-0.019003,-0.053765,-0.06488,-0.048084
0.089821,-0.05784,-0.0086274,0.021257,0.033749,0.064297,0.032304,-0.0082281
0.0094566,0.025415,0.01926,-0.026084,0.00061449,0.046639,-0.052073,-0.031258
0.67131,0.081859,-0.00046116,0.012208,0.0068336,-0.036061,0.01793,0.054715
-0.048787,-0.0054533,-0.037299,-0.0044349,-0.017746,-0.08156,0.039565,0.015404
-0.2443,-0.1108,0.017571,0.017807,-0.010574,0.0047791,-0.017804,-0.016278
-0.024904,0.16523,-0.00014181,-0.022553,0.020476,0.11454,0.049648,0.030053
-0.28201,-0.035819,0.011281,0.0073823,0.012756,-0.071691,-0.02307,-0.025278
0.061543,0.060237,0.013318,0.0061463,0.0051362,0.040535,-0.03237,-0.018248
0.20015,-0.069607,-0.032233,-0.018348,-0.018186,-0.032723,0.014173,0.0042012
0.047212,-0.0033173,-0.014946,0.019938,-0.018259,-0.025719,0.0071944,-0.0048686
-0.16322,-0.037782,0.0037443,-0.0039124,-0.0029087,0.084817,0.0012016,0.0013921
0.26429,0.12383,-0.014351,-0.011719,0.0045185,-0.060895,0.034948,0.046455
-0.099367,-0.18252,-0.060924,-0.0034762,0.0041874,0.028783,-0.06381,-0.025821
-0.18284,0.043372,0.18432,-0.002679,-0.0037157,-0.060809,-0.014183,-0.0043186
0.16378,0.043994,-0.029193,0.021801,0.020019,0.029153,0.011639,-0.013797
-0.19063,0.030652,0.0084611,0.022916,0.0051394,0.0091695,0.013417,-0.030554
-0.080352,0.01926,-0.03993,-0.01516,0.014094,0.019596,0.045679,0.031589
0.089648,-0.18541,-0.050613,-0.014482,-0.023585,0.036904,0.014601,-0.014712
0.36679,0.17421,-0.0089064,-0.02205,-0.022179,-0.079452,-0.017301,0.057124
-0.179,0.074118,0.022251,0.0089786,0.010257,-0.016761,-0.065537,-0.018668
0.052524,-0.11161,-0.011683,0.01617,0.011015,0.045568,0.0029156,0.0076263
-0.096931,-0.0012963,-0.031912,-0.015954,-0.012235,-0.079702,-0.038225,-0.028434
-0.20002,-0.080519,-0.0061655,0.0065465,0.0029562,0.076349,0.076969,-0.0022325
0.24109,0.040257,0.10574,0.021357,0.025382,0.068428,0.044069,0.015612
-0.025207,0.17274,-0.0076983,-0.018257,-0.015135,-0.041101,-0.043006,-0.021931
0.023795,-0.027164,-0.025535,0.004961,-0.0012019,0.060026,0.057988,0.033601
-0.22887,-0.19206,-0.0022344,-0.0027527,-0.01069,-0.13624,-0.11393,-0.051973
-0.047759,0.014764,-0.0083109,0.0053966,-0.004272,0.010576,0.019258,-0.0049039
0.21725,0.078977,0.041652,0.0058505,0.002666,0.008335,0.035558,0.050148
0.083705,-0.021231,-0.048343,-0.017143,0.0024792,0.013509,-0.018267,-0.019352
0.13946,0.028359,-0.0055461,0.0066298,0.018668,-0.059481,0.006136,0.021109
-0.13731,-0.02853,-0.049262,-0.0088185,-0.0035155,0.14133,0.0071392,0.015235
-0.13598,-0.026737,0.038918,-0.00097935,0.0060648,0.0068958,0.031563,-0.02157
-0.058838,0.08109,0.024507,0.0067668,-0.015355,-0.10321,-0.037836,-0.011533
-0.0070757,0.052557,0.040397,0.014504,-0.0055793,0.029796,-0.021431,-0.0097458
-0.019903,-0.13661,-0.03039,-0.016744,0.0038564,-0.047345,0.018207,-0.0087671
0.050337,0.05137,-0.031342,-0.00098323,0.0049194,0.06358,0.01069,0.022389
0.25684,0.044694,-0.016895,0.0071173,0.0053054,0.049812,0.0028161,0.013306
-0.051002,-0.025232,0.036573,-0.00028631,-0.018422,-0.065432,-0.005485,0.0031206
0.11631,0.028007,-0.003659,0.0079852,0.004164,-0.0088457,0.024804,0.00771
-0.31439,-0.10088,0.034269,0.00059064,0.0029489,-0.038253,-0.031318,-0.066288
-0.0019857,-0.060394,-0.029428,-0.014744,0.0016147,-0.012937,-0.0097306,0.023773
-0.31576,-0.045502,-0.0073932,0.00098999,0.016029,0.12974,-0.0040565,-0.034162
0.30552,0.22565,0.0065012,0.0087222,-0.00048308,-0.039786,0.0093279,0.057114
0.20522,-0.027552,-0.011231,-0.014939,-0.03999,-0.091836,0.13221,0.032124
0.16512,0.031309,0.017604,0.00040694,0.01472,0.0046766,-0.22114,-0.015455
0.0070359,0.027509,-0.00054414,0.00017606,0.015133,0.11659,0.027572,-0.015581
-0.37598,-0.085709,-0.026303,0.023524,0.01578,-0.014395,0.10498,0.03136
-0.0040323,-0.050445,-0.043679,-0.0076207,0.0086409,-0.013836,-0.012404,-0.046896
-0.10746,0.00069382,0.088307,-0.0073185,-0.029928,-0.046272,-0.012288,-0.0084384
-0.002321,-0.025647,-0.028523,0.00094025,-0.014148,0.0052179,0.019101,0.021652
-0.17696,-0.0038986,0.043437,0.017063,0.0090353,0.015687,0.011138,-0.065863
0.62132,0.082181,-0.02402,-0.021561,0.0084091,-0.014439,-0.059854,0.065276
0.018459,-0.02474,-0.043652,-0.01347,-0.015894,-0.02971,0.024803,-0.0063922
-0.072491,0.027064,0.0075804,0.010008,0.014443,0.01774,-0.03162,0.0085864
-0.15432,-0.0048755,0.0041976,0.01759,0.0058777,0.019582,-0.010017,0.008915
-0.19973,-0.011921,0.055082,0.0014721,-0.010177,-0.038905,0.011982,-0.028777
0.34172,0.036072,-0.066771,-0.014858,0.013238,0.10068,0.027087,0.035984
-0.229,-0.0027984,0.075796,0.0077461,-0.0098335,-0.04588,0.035713,-0.0080703
-0.015946,-0.059428,-0.079908,-0.00091853,0.01424,-0.0023443,-0.024438,-0.012938
0.026841,0.060605,-0.0026617,-0.017298,-0.016298,-0.019444,-0.012807,0.013135
-0.014128,-0.025907,0.042045,0.0055881,-0.00011155,-0.035702,-0.015669,-0.008308
-0.19969,-0.084407,-0.023641,0.0053133,8.6107e-05,0.080559,0.036742,-0.030547
0.10506,-0.036066,0.027204,0.013151,0.0075803,0.00016172,0.010954,0.0089663
0.34725,0.088926,0.015297,-0.0021825,0.0066903,-0.035498,-0.023379,0.0010847
-0.050294,0.080802,-0.027714,-0.0017125,-0.0025244,-0.019002,-0.066804,0.00082938
-0.17372,-0.067219,-0.031162,-0.0089968,-0.027704,-0.0049657,0.028755,0.0085417
0.11635,0.036193,0.044299,0.0070894,0.0095356,0.014935,0.060044,0.0088473
-0.002264,-0.030547,-0.051146,-0.00042838,0.0079297,0.0024848,-0.043154,0.0096483
0.031131,0.052786,0.06539,-0.0081624,-0.0009946,-0.017879,0.047582,0.026475
-0.2377,-0.0032016,-0.020193,-0.0082891,-0.0092305,-0.053028,-0.034485,-0.042486
0.042958,-0.003595,-0.0033566,0.0070714,0.0067243,0.061782,0.0080626,0.0055589
0.062167,-0.13619,-0.0093276,0.014587,0.03116,0.084642,-0.027324,-0.0093995
-0.067853,0.020802,0.00068172,-0.00125,-0.0064528,-0.023674,0.00051526,-0.017269
-0.14822,0.0065534,0.0029551,-0.016904,-0.012666,-0.013694,0.013876,0.036581
0.20739,0.032231,-0.018376,-0.0088763,-0.019043,-0.0033289,-0.026069,0.011651
0.16568,0.090218,0.045891,0.038464,0.028861,-0.032328,0.029114,-0.037085
-0.16293,-0.014771,-0.054325,-0.0077396,-0.017512,0.00042543,0.046361,-0.023316
-0.10745,0.0061115,0.087255,-0.0069447,-0.017497,-0.030143,-0.052914,-0.0091661
0.30586,-0.035074,-0.060484,-0.0061256,0.0056449,0.040325,0.074453,0.044698
-0.013177,-0.021717,-0.028571,-0.013188,-0.025947,-0.24856,-0.087748,0.02899
-0.061589,-0.032521,0.011382,0.010863,0.044251,0.22095,0.030345,0.0060803
-0.15629,0.033622,-0.0107,-0.012136,0.013311,0.050787,-0.0011721,0.014713
-0.011211,-0.034481,0.014695,0.027178,0.0062988,0.20968,-0.10411,-0.062721
