-0.12799,0.015772,0.047698,0.094057,0.063079,-0.060955,-0.38597,-0.26585
0.069181,0.048884,0.095862,0.041072,0.01934,0.067663,0.22335,0.07343
-0.015583,-0.013524,-0.051135,-0.066398,-0.017318,-0.062477,-0.12362,-0.27985
-0.052815,0.016123,-0.041988,-0.0097803,0.0073477,0.16524,0.057557,0.081724
-0.18965,-0.16636,-0.10332,-0.078179,-0.078709,-0.03865,0.48476,0.54926
0.12955,0.057065,0.14789,0.080112,0.02157,-0.14294,-0.66395,-0.49481
0.13949,0.054654,-0.061344,-0.034598,-0.0116,0.094975,0.49223,0.44047
0.042794,-0.0476,-0.01948,0.0077584,0.0022426,-0.15216,-0.50952,-0.56855
-0.075877,-0.038097,-0.10875,-0.089377,-0.014194,-0.047176,-0.17848,0.25742
0.070721,0.10673,0.24152,0.18972,0.064779,0.2159,0.57049,0.096316
0.1682,0.14421,-0.070265,-0.045771,0.012953,-0.080592,-0.24712,-0.19362
-0.17549,0.088979,0.041317,0.023897,0.0099287,0.1342,0.33003,0.21539
-0.11706,-0.30243,-0.096589,-0.055227,-0.0073394,-0.038318,-0.33012,-0.19188
-0.35893,-0.054695,0.022509,-0.034109,-0.055381,-0.13027,0.085873,-0.20347
0.15536,-0.074975,-0.071595,-0.038674,-0.025914,0.020941,0.071243,0.017745
0.092233,0.034722,0.057248,0.039742,0.025297,0.061989,-0.36514,0.24624
0.32121,0.30569,0.23617,0.14609,0.081776,0.11615,0.52776,0.26382
0.086099,-0.05854,-0.22279,-0.10237,0.010249,-0.21632,-0.27259,0.093909
-0.24538,-0.15109,-0.10847,-0.072328,-0.10332,0.20456,0.16423,-0.18575
0.16207,0.11468,0.14254,0.080871,0.022848,-0.30066,-0.48165,-0.28642
0.0022218,-0.07308,-0.1402,-0.10257,-0.071247,0.1441,0.28205,0.2295
-0.36752,-0.088806,-0.079949,-0.043322,-0.017253,0.14991,0.36897,-0.52781
-0.035016,0.15387,0.34066,0.21281,0.10784,-0.28903,-0.44056,0.091489
0.076311,-0.13385,-0.10353,-0.052205,0.054907,0.086918,0.41456,0.33893
0.067012,0.063764,0.033706,-0.0099605,-0.05067,-0.0022812,-0.55178,-0.39381
0.18655,0.043514,-0.083242,-0.035634,-0.0059011,0.20147,0.28348,0.75265
0.075394,0.047411,0.092371,0.018678,0.063613,0.041175,-0.1596,0.31606
0.0070754,-0.018496,-0.10392,0.0038206,-0.046119,0.0073459,0.30493,-0.44044
-0.25243,-0.060564,-0.039779,0.020658,-0.01566,-0.28501,-0.097349,-0.6136
0.0084624,-0.039657,-0.051521,-0.07975,-0.033133,0.14631,0.10209,-0.0030781
-0.15462,-0.041411,0.087168,0.03833,-0.012794,-0.059723,-0.088237,0.069032
0.12671,-0.010657,0.032375,-0.031244,-0.009037,0.057145,-0.26039,0.77428
0.23661,0.10783,0.0026433,-0.022511,-0.01335,-0.10422,-0.083666,-0.48763
-0.089301,0.080116,-0.010222,0.010244,0.014245,-0.034522,0.17169,-0.081203
-0.060959,-0.054547,0.008761,0.075129,0.059009,-0.044002,0.11844,0.18479
-0.060578,-0.061928,-0.0038201,0.0081214,0.059077,0.36992,0.27532,-0.13076
-0.04894,0.01842,-0.049057,0.0042638,-0.016568,-0.15752,-0.15205,-0.18792
0.18464,-0.0017755,0.10632,0.039584,-0.019679,-0.0072532,0.064491,0.36022
0.13177,-0.006278,0.023894,-0.058448,-0.052363,-0.084496,-0.37905,-0.086253
-0.25518,0.0039099,-0.16403,-0.079478,-0.045053,0.0014635,-0.16267,-0.46514
-0.094191,-0.019017,0.073852,0.054289,0.063961,0.0075908,0.095178,0.50234
0.028112,0.010137,-0.0039952,-0.047749,-0.04633,-0.075573,0.17341,0.038344
0.1112,0.11435,-0.1073,0.021046,0.061053,0.17944,0.24839,0.10582
0.068786,-0.04243,0.062367,0.026952,0.0029817,0.059198,0.21445,0.065752
0.04918,-0.14742,0.084782,0.0019719,-0.056605,-0.055905,-0.11256,0.068906
-0.10381,0.018793,-0.0073615,0.001462,0.046394,-0.10536,-0.34611,-0.6696
-0.077426,0.06651,-0.10368,-0.013208,-0.015985,0.018966,-0.11428,-0.24458
0.050703,0.059331,0.24938,0.098695,0.029935,-0.13644,0.1049,0.29101
0.10934,0.076448,-0.01083,-0.014611,0.004763,0.077376,-0.14142,0.48802
-0.17426,-0.28753,-0.31469,-0.11923,-0.067748,-0.041541,-0.11714,-0.28884
-0.057402,0.10069,0.024229,-0.012673,0.023655,0.22711,0.28195,0.12209
0.045991,-0.0088789,-0.12822,0.0075238,-0.0098131,-0.083804,0.47263,-0.055993
0.1198,0.1801,0.5546,0.11263,0.019553,0.027101,-0.19126,0.046758
0.076844,-0.0052243,-0.28821,-0.049413,0.018105,-0.0094083,-0.46611,-0.16282
-0.10823,-0.17549,-0.119,-0.041412,-0.021984,-0.020701,0.21902,0.24367
-0.00025407,0.050848,0.25641,0.011503,0.00073378,-0.13905,-0.034184,0.076204
0.062521,0.079093,-0.19378,0.062555,0.054842,0.13596,0.46194,0.050666
0.17215,0.08859,0.22591,0.033961,-0.00042885,0.039117,-0.35442,0.00073142
-0.11721,-0.13895,-0.10842,-0.034624,-0.016686,-0.15578,-0.27079,-0.77766
-0.33582,-0.28196,-0.35887,-0.13457,-0.11883,0.004639,-0.026818,0.020865
-0.074805,0.11457,0.10214,0.039789,0.05277,0.067219,0.28695,0.46864
0.24788,0.20904,0.12115,0.0050322,-0.017188,-0.04662,-0.30276,-0.048891
0.027501,-0.020078,0.23183,0.05882,-0.00027687,0.076207,0.33943,0.40801
0.065388,-0.016856,-0.15806,-0.025007,0.10365,0.0045455,-0.30108,-0.30816
0.06812,0.14865,-0.048272,0.058124,0.067922,0.11164,0.24345,-0.2374
-0.11099,-0.086907,0.19283,0.034104,-0.029681,0.27861,0.5948,0.61744
-0.034779,-0.34251,-0.25745,-0.12946,-0.21314,-0.60515,-0.72855,-0.68547
0.067779,0.30908,0.1446,0.066008,0.063797,0.061563,0.18941,0.61461
-0.080922,-0.041093,-0.018389,0.0018984,0.050598,0.0059413,-0.086624,-0.15859
0.068522,0.19826,0.26635,0.044255,0.051586,-0.0048463,-0.06874,-0.33596
0.0027198,-0.19342,-0.40922,-0.034101,0.082283,0.21094,0.10816,0.22273
0.12295,0.0017747,0.048269,-0.04562,-0.13839,0.045937,0.14766,-0.28485
0.058506,-0.09867,-0.12574,-0.075516,-0.086566,-0.42038,-0.5256,0.068008
-0.37956,-0.10275,-0.038378,-0.0053638,-0.0038553,0.25758,-0.43076,-0.25904
0.075295,0.093274,0.28974,0.072563,0.10254,0.18037,0.92132,0.69415
-0.10502,0.093469,0.03325,0.026825,0.022137,0.21306,0.36279,-0.31622
-0.071946,-0.021684,-0.0089152,0.030255,0.0051566,-0.27208,-0.71336,0.32351
0.39103,0.39022,-0.070155,0.06758,0.098364,-0.019896,0.63848,-0.22094
0.15643,-0.26361,0.17747,0.036956,-0.057985,-0.11038,-0.20043,-0.013293
-0.33409,-0.24086,-0.20465,-0.17176,-0.14408,-0.21593,-0.52187,-0.50257
0.023389,0.082924,0.063121,0.042014,0.042742,0.12541,0.71809,0.39163
0.03382,-0.17614,-0.17707,-0.10391,-0.029085,-0.013752,-0.67808,0.59263
0.15644,0.24624,-0.012299,0.046075,0.046623,0.22898,-0.24261,-0.3822
-0.1589,0.18459,0.30699,0.10893,0.043466,-0.10432,0.11082,-0.037621
-0.057018,-0.12026,-0.14075,-0.063598,-0.0069775,0.18401,0.4305,-0.46221
0.11389,-0.16165,-0.14361,-0.01012,0.01289,-0.13135,0.37456,0.56263
0.0060491,0.23156,0.080945,0.012146,0.017538,0.23087,0.093146,-0.50785
-0.24297,-0.30032,-0.051795,-0.0040836,-0.094257,-0.097505,-0.38918,-0.2013
0.2166,0.063247,0.15429,0.027442,0.013655,-0.31343,-0.77518,0.072098
-0.084419,0.088487,-0.050717,-0.049529,-0.064924,-0.23907,0.075384,0.38557
0.0032051,-0.17687,0.098093,0.061545,0.083937,0.05356,0.66149,0.91201
0.14533,0.39309,-0.1976,-0.022747,0.10055,0.54751,0.10671,-0.35758
-0.093118,-0.15399,0.099427,0.0015722,-0.015489,0.20294,0.73775,-0.71515
-0.06879,-0.11435,0.2061,0.11825,0.032265,-0.034946,-0.87602,0.51551
0.20539,0.31718,-0.050764,-0.11838,-0.14708,-0.33727,-0.015644,-0.4652
-0.24471,-0.40585,-0.35125,-0.083233,-0.037884,-0.43676,-0.77321,-0.25965
0.23131,0.084204,0.0084707,0.0054996,0.0085981,0.23152,0.6278,0.25096
-0.14642,-0.024687,0.069153,0.039392,0.078883,-0.087399,-0.27752,-0.26548
-0.27565,-0.060272,-0.0027983,-0.050733,-0.076365,0.054291,0.33458,0.18061
0.29671,0.047844,0.13878,0.11118,0.1137,0.52521,0.41902,0.90711
0.18711,0.30706,0.034861,-0.013251,-0.077303,-0.22962,-0.8454,-0.54257
-0.097923,-0.23674,0.014488,0.044901,0.069129,0.10007,0.95923,-0.13473
-0.13814,0.071195,-0.047575,-0.035095,0.0054057,-0.17717,-0.25188,-0.10354
0.18983,0.14321,0.08175,0.042761,0.043013,-0.19911,0.20848,0.27566
-0.16218,-0.13158,0.025477,-0.035147,-0.030057,0.4355,-0.54251,-0.016322
-0.085487,-0.19939,-0.24981,-0.090215,-0.081835,-0.18356,-0.088661,-0.2965
0.029265,0.19767,0.082171,0.017376,-0.026753,-0.074011,0.052442,-0.17906
-0.012651,-0.087731,-0.081287,-0.009635,-0.020842,-0.040218,0.21149,0.29242
0.14123,-0.045853,0.056373,0.078808,0.069488,-0.14194,-0.026411,0.47349
-0.21134,-0.32287,0.0033771,-0.091904,-0.035878,0.023897,-0.38533,-0.63086
0.24258,0.37223,0.0027717,0.025644,0.0080125,-0.044916,-0.056618,0.29018
0.1044,0.2123,0.14925,0.033492,0.0067925,0.19601,0.01755,-0.43578
-0.12676,0.056283,-0.040852,0.080329,0.10933,0.078699,0.34506,0.48097
-0.0069994,-0.16808,-0.012592,0.0020234,-0.012699,0.034439,0.67904,-0.051532
-0.27242,-0.14359,-0.21932,-0.13147,-0.063241,0.12473,-0.42035,-0.014927
0.30185,0.032331,0.25246,0.046497,0.011165,-0.14594,-0.2183,0.1178
-0.22306,0.090704,0.0035956,-0.0036783,-0.025222,0.10827,0.57903,-0.37574
0.22231,0.22461,0.15075,0.061391,-0.025142,-0.31302,-0.68107,0.01676
-0.24503,-0.38674,-0.4468,-0.078652,0.041927,0.05477,-0.2204,-0.067496
0.34423,-0.13238,0.086473,0.045296,0.01963,0.1938,0.47682,0.56278
-0.14924,0.069372,0.07203,-0.097284,-0.091478,-0.2707,-0.67073,-0.43346
0.073486,0.18443,0.073975,0.049305,0.014408,0.085782,0.28369,0.1793
-0.11766,0.077782,0.031569,0.040862,0.049696,-0.20098,-0.053041,0.06453
-0.063168,-0.15938,-0.11613,-0.027849,-0.023125,0.1478,0.27206,-0.4208
0.02948,0.15668,0.085018,0.047023,0.062915,0.19187,0.50171,0.3131
-0.10212,-0.11255,0.049342,0.0079718,-0.05066,-0.057365,-0.17703,-0.082669
0.10693,-0.060886,-0.11436,-0.059227,-0.011974,0.10464,-0.50889,0.26904
-0.045473,0.38751,0.092589,0.04015,0.077114,-0.0028394,0.00089949,-0.35601
0.18988,-0.37299,-0.13636,-0.046356,-0.049837,-0.10178,-0.29623,0.2799
-0.056998,0.0039587,0.13424,0.039585,0.03572,0.18605,0.91763,0.064755
0.014017,0.098751,-0.074079,-0.046793,-0.042448,-0.089639,0.10732,-0.17353
0.014303,0.085987,0.26078,0.13119,-0.011978,-0.25338,-0.59099,-0.088673
0.062676,-0.11639,-0.096114,-0.0832,-0.022045,0.028066,0.17806,-0.27713
-0.04173,-0.041949,-0.41778,-0.080718,0.028616,-0.027284,-0.60391,0.40876
-0.19353,-0.081852,0.12517,0.013883,-0.016112,0.019185,0.14009,-0.42939
-0.081943,-0.031873,0.065831,0.021415,0.00047157,-0.033225,0.17611,0.41887
0.11417,0.040017,0.023312,0.012788,-0.022595,0.013727,0.09155,-0.15044
-0.047254,0.32436,0.10847,0.0041391,0.048058,0.35012,0.63038,0.12297
0.20448,-0.18349,0.079736,0.081696,0.048729,-0.014626,-0.51843,0.26933
-0.069867,-0.027544,-0.047646,-0.051411,-0.02832,-0.0020362,0.028624,-0.051588
-0.12196,0.11483,0.037551,0.010823,-0.011413,-0.15193,-0.12702,-0.1435
0.1629,0.042193,0.091395,0.041477,0.013126,-0.19228,-0.29092,-0.28013
0.030705,-0.22867,-0.24717,-0.030066,-0.0020042,0.19573,0.32472,0.046155
-0.26668,-0.095491,-0.11989,-0.13359,-0.072747,-0.23895,-0.070551,0.055272
0.29401,0.067095,-0.011387,0.035799,0.035177,0.12064,0.52997,0.14128
-0.023617,-0.022188,-0.077286,-0.021424,-0.045252,0.11104,-0.45232,-0.088202
-0.066771,0.36274,0.54302,0.12506,0.053551,-0.0085583,0.11585,-0.1089
-0.019414,-0.28693,-0.33655,-0.039779,0.019622,-0.041051,-0.1545,0.0039413
-0.14381,0.011636,-0.074257,-0.02337,0.0097626,0.054515,-0.088708,-0.042323
0.048201,0.16277,0.15854,0.04933,-0.022451,-0.04836,-0.026913,0.28044
0.18632,0.00033569,0.16631,0.037378,0.024815,0.073271,0.15187,0.031356
-0.028257,-0.26664,-0.14549,-0.020767,-0.02026,-0.18966,-0.24455,0.2687
-0.13518,0.1651,0.13612,-0.016471,-0.032835,0.013822,-0.0036257,-0.5441
0.1631,-0.064582,-0.35702,-0.091061,0.01018,0.088501,0.41313,-0.28069
-0.35827,-0.10409,-0.031666,-0.049743,-0.024507,0.039939,0.41687,0.45768
0.225,0.21917,0.13573,0.068155,0.073479,0.19351,-0.24721,-0.26707
0.11874,-0.038869,-0.033834,0.075123,-0.0011261,-0.15677,-0.35059,0.62197
-0.10415,-0.056379,0.16381,0.0025983,-0.045708,-0.083677,-0.25826,-0.33002
0.14437,0.019692,0.010946,0.030584,0.040929,0.043999,0.27557,-0.30458
-0.11083,0.065597,-0.046331,-0.043657,0.00082515,-0.12568,0.077091,0.27471
-0.040928,-0.13658,-0.10928,-0.047818,-0.056529,0.017625,-0.53277,-0.062144
-0.10684,0.061897,0.15783,-0.020503,-0.013564,0.10109,0.56608,0.20769
0.16747,0.05924,-0.050307,0.038748,0.028748,-0.12229,-0.24692,-0.36096
0.085833,-0.13747,0.0076599,-0.01809,-0.014839,0.10073,0.3379,0.31086
-0.17307,0.048801,-0.1457,0.0045964,0.036026,0.077784,0.059435,-0.35371
-0.01647,-0.0081812,-0.081381,-0.01026,0.0099728,-0.024964,-0.41505,-0.13457
0.078281,0.28422,0.27054,0.12475,0.0010103,-0.065934,-0.17008,0.32871
0.071613,0.058111,0.10537,-0.020373,0.032557,0.0092659,0.66883,0.59124
-0.1226,-0.46775,-0.17812,-0.094504,-0.059717,0.08203,-0.32238,-0.72233
0.034794,-0.019088,-0.087071,-0.027849,-0.01844,-0.052982,0.0092225,0.20731
0.012822,-0.039615,-0.026872,-0.0083937,0.015241,0.10165,0.10525,0.066291
-0.03197,0.2462,0.073689,0.057207,-0.0060644,-0.17529,-0.092172,-0.17009
-0.13852,0.11392,-0.026847,-0.026654,0.0031408,-0.042042,-0.014699,-0.31509
0.2164,-0.098942,0.0625,0.083585,0.050343,0.093942,0.22808,0.58438
0.055537,0.030152,0.075938,-0.010608,-0.028708,-0.14271,-0.87003,-0.064683
-0.21603,-0.26495,-0.11225,-0.074853,-0.038743,0.1312,0.23316,-0.53435
0.14238,0.20938,0.14525,0.023773,0.051599,0.096347,0.62753,0.25511
0.027629,0.060007,-0.0044851,0.0042483,-0.015243,0.004063,-0.065855,0.25054
0.047835,0.1903,-0.21891,-0.0080844,0.018928,-0.0035067,0.10127,-0.0079931
0.069623,0.019559,0.024577,-0.020604,-0.048533,-0.010729,-0.16651,0.042368
-0.33624,-0.46945,0.046036,0.014039,-0.013962,-0.20357,-0.29139,-0.17689
0.027164,0.14493,-0.036978,0.041611,0.060668,0.08341,-0.041038,-0.10425
0.084289,-0.15161,0.15143,0.007792,-0.019506,-0.03147,0.43262,0.13392
-0.13826,0.057563,-0.059399,-0.055932,-0.019809,0.030581,-0.38278,-0.15138
0.18295,-0.052528,-0.10564,-0.0010485,0.028612,0.050863,-0.054815,0.15558
0.026897,0.27098,0.24048,0.055162,0.0084486,0.083394,0.39591,-0.0011546
-0.050546,-0.11078,-0.27797,-0.098483,-0.049382,-0.013802,0.19957,-0.020999
0.19246,0.38819,0.15983,0.084528,0.042122,-0.039439,-0.22462,-0.060819
0.035396,-0.23385,0.0070537,0.025641,-0.0066929,0.027933,0.013545,0.31673
-0.25894,-0.23005,-0.15074,-0.049017,-0.0011064,-0.11029,-0.48213,-0.4114
0.048432,0.14573,0.23257,0.047688,0.027131,0.13071,0.15266,-0.041069
0.056124,-0.0398,-0.11751,-0.028231,-0.0082472,-0.069628,0.22966,0.55436
-0.19107,0.10941,-0.17095,-0.097158,-0.060482,-0.14035,-0.26645,-0.25576
0.079404,-0.024356,0.14911,0.020674,-0.0044739,0.01363,0.023619,-0.29705
0.039755,-0.17378,0.052399,0.059823,0.003782,0.01113,0.11347,0.089183
-0.082128,-0.038236,0.11608,0.043931,0.0036723,0.017679,0.12291,-0.26703
0.17656,-0.11256,-0.10578,-0.011222,0.065799,0.22944,0.019418,0.42425
-0.072918,0.14791,-0.19921,-0.019631,0.026278,-0.025474,0.016668,-0.032901
-0.032228,0.01371,0.086256,-0.028182,-0.02109,0.033307,0.41924,0.19523
0.033711,0.26916,0.16576,0.049022,-0.013853,-0.025348,-0.20392,-0.11372
0.12475,0.047621,-0.084131,0.024477,0.016677,-0.077987,-0.11128,0.41089
-0.11935,-0.2078,-0.036564,-0.10173,-0.12482,-0.23514,-0.32441,-0.67262
0.011051,-0.048615,-0.072476,-0.032555,0.0070699,0.041828,-0.27517,0.023266
0.014652,0.018982,-0.041847,0.029128,0.060955,0.050247,-0.35234,-0.073029
-0.015688,0.074259,0.2204,0.060092,0.029211,0.080311,0.69927,-0.077883
-0.056695,0.048793,-0.012075,0.0057398,0.013513,0.031943,-0.066424,0.2067
-0.045154,-0.0068658,-0.036755,0.022225,0.013829,0.055005,0.52951,0.26902
0.051708,-0.37562,-0.073755,-0.007933,-0.0090856,0.0099011,-0.12457,0.019645
0.025012,0.13892,0.085998,-0.022657,-0.032085,-0.048225,-0.18967,-0.12346
-0.021494,0.063688,0.0029928,0.024491,0.0070262,0.052395,0.35806,0.014388
-0.062521,0.044495,-0.035497,-0.015242,-0.016977,-0.11844,-0.60805,-0.54993
0.16085,-0.092491,-0.17134,-0.1107,-0.010413,-0.084852,0.065436,0.1988
0.00029524,0.025334,0.1184,0.050808,-0.012239,0.14469,-0.054105,0.31319
-0.068577,0.30046,0.091848,0.03999,0.024674,-0.01619,0.29666,0.46962
0.13208,-0.12438,-0.054673,-0.0019863,-0.0087249,-0.052068,-0.50076,-0.34366
-0.11888,-0.03823,0.078791,0.042607,0.036314,0.037101,0.037584,-0.14599
0.011945,0.21337,-0.13884,-0.0055019,0.027203,0.040577,0.46646,-0.10401
-0.13396,-0.36476,-0.049678,-0.067972,-0.028143,-0.049209,0.035914,-0.046609
-0.0036211,-0.088617,0.058441,0.034868,-0.020366,0.041368,0.042435,-0.034922
0.026973,0.12441,0.045471,0.021552,-0.012065,-0.023577,-0.14773,-0.065779
0.19187,-0.017437,0.13777,-0.014533,0.012254,-0.048861,-0.20777,0.23221
-0.14934,-0.015957,-0.14223,-0.019125,-0.010033,0.058945,0.25942,-0.27749
0.11334,0.18263,0.063285,-0.0082535,-0.00090204,-0.052203,-0.29387,0.29859
-0.019226,0.062622,-0.028829,0.033384,0.016132,0.10148,0.26514,-0.10139
-0.09283,-0.039426,0.0015234,0.011843,0.0019297,0.034989,-0.054761,0.25505
0.073472,-0.177,-0.096995,-0.033876,-0.012357,-0.18971,-0.2439,0.098223
-0.042293,-0.0046959,0.018739,-0.041216,0.020015,0.067623,0.15322,-0.085025
0.077167,0.041961,0.020786,0.021198,0.0051319,-0.0056843,0.013941,-0.018572
-0.17571,0.0040967,-0.027416,0.020702,-0.041554,-0.042363,-0.17565,-0.02614
0.13057,-0.061711,0.13343,0.066791,0.028252,0.18446,0.41309,-0.26447
-0.11171,0.12722,-0.13554,-0.012334,0.042603,-0.02003,0.0057689,-0.18378
0.059564,-0.053396,0.10487,-0.052569,-0.053147,-0.10829,-0.40003,-0.31727
0.05897,0.13852,0.051385,0.016445,-0.0088337,-0.063939,0.19221,-0.0011837
-0.035713,-0.14171,-0.17791,-0.047391,-0.019483,-0.0033636,0.13022,0.47486
0.14926,-0.028494,-0.020251,0.0060674,0.016831,0.074185,-0.050315,0.73313
-0.060064,0.10901,0.11775,-0.0026793,0.014544,0.044307,0.14863,-0.0060593
-0.35385,-0.082732,0.00078097,0.028107,0.020843,0.032377,-0.31975,-0.42482
0.31186,0.097742,0.057157,0.036032,0.020294,-0.023994,-0.023284,0.11949
0.082674,-0.077178,0.07439,0.028895,-0.018317,-0.023369,-0.074425,-0.45898
-0.12185,-0.27965,-0.25367,-0.087197,-0.048228,-0.05199,0.048774,-0.17597
0.040508,0.34241,-0.029711,1.2635e-05,0.0084557,-0.071202,-0.045322,-0.045801
-0.047931,0.063643,0.15978,0.04024,0.01862,0.066983,0.16488,0.4354
0.027527,-0.075206,0.12737,0.041048,0.021005,0.088667,0.16762,0.25891
-0.16895,-0.017552,-0.19657,-0.060216,-0.0081265,0.0012038,-0.26272,-0.128
0.10727,-0.22251,-0.1078,-0.037004,-0.022138,-0.023968,0.53557,-0.30704
-0.015985,0.076994,0.090328,0.017064,0.017885,-0.018482,-0.37247,-0.12426
0.018697,0.12398,0.086547,0.024095,-0.013108,-0.068574,-0.080036,-0.066149
0.11978,0.090367,0.045834,0.015608,0.0021209,0.044326,0.092424,0.090762
-0.031671,-0.055918,-0.062657,-0.04723,-0.030048,0.0076562,0.10639,0.4353
0.080448,0.027328,0.042179,0.038831,0.031193,-0.061364,-0.5513,-0.00065151
-0.044228,0.02557,-0.015261,0.047219,0.045424,0.10298,0.21823,0.48458
-0.047283,-0.00087696,0.014156,-0.006564,-0.0027751,-0.007031,0.3215,-0.47114
-0.3675,-0.53841,-0.15953,-0.060206,-0.058527,0.061856,0.081767,-0.25356
0.32187,0.44262,0.11919,0.011109,0.01115,-0.05741,-0.57418,-0.29442
-0.011758,-0.027691,-0.048555,-0.03493,-0.020174,-0.13027,0.33607,-0.047354
0.0053931,0.1516,0.001157,0.01257,-0.0039867,0.015413,-0.16618,-0.27693
0.083137,-0.0040974,0.049667,-0.002623,0.036259,0.090846,0.079815,0.54229
0.18926,-0.11959,0.073729,0.060137,0.030113,0.065032,0.25621,0.43568
-0.36445,-0.053636,-0.22338,-0.056992,-0.038317,-0.13221,-0.22278,-0.095757
0.0076052,-0.094259,0.095835,0.059932,0.010281,0.069369,0.42988,0.36157
0.094668,0.23662,0.12497,-0.011169,0.0036062,-0.041427,-0.13313,-0.27222
-0.05568,-0.11372,-0.026897,-0.0049065,0.011574,0.066201,-0.31432,-0.57774
0.1437,0.16167,-0.031883,-0.054273,-0.044217,-0.0067191,-0.14851,-0.19787
-0.12599,-0.16912,0.08655,0.059453,0.015843,0.02058,0.16687,0.12381
0.050952,-0.02556,0.024106,0.05522,0.043476,-0.024056,-0.18872,0.59038
-0.0193,-0.038432,-0.3355,-0.13684,-0.062488,-0.085882,0.27864,-0.023544
-0.077837,-0.089179,0.024676,-0.00044103,0.0032151,0.069927,0.079978,-0.51283
0.055549,0.20541,0.012404,-0.019229,-0.0087535,-0.094879,-0.21818,0.17169
0.083824,0.016433,0.14459,0.080895,0.042855,0.030113,-0.0024736,0.3913
0.06867,0.12322,0.14843,0.026895,-0.02118,0.047526,0.23033,-0.51696
-0.10062,-0.023954,0.023629,0.014098,0.033731,0.091034,-0.0413,0.29059
-0.058479,-0.13932,-0.10611,-0.012597,-0.0034302,-0.081058,-0.35606,0.062694
0.021656,0.055221,-0.0085094,-0.0070949,-0.023639,-0.039029,0.36304,-0.1638
0.013522,-0.14592,-0.10786,-0.040687,0.019435,0.12297,0.37937,0.27239
-0.036742,-0.087843,0.054558,-0.0049685,-0.023264,-0.041097,-0.41926,-0.21751
0.066062,0.10434,0.11786,0.060251,0.035204,-0.039895,-0.090378,-0.049888
0.017717,0.17382,-0.027752,-0.0094505,-0.024302,-0.069567,-0.30816,-0.2731
-0.14961,-0.17456,-0.26428,-0.088967,-0.045685,-0.060461,0.027343,0.20616
0.041796,0.053415,0.11328,0.025371,0.018024,0.14324,0.37606,0.13846
-0.02414,0.039269,-0.05657,-0.024951,0.0030582,0.010074,-0.10648,0.071998
0.2472,0.03431,0.11167,0.042292,0.019188,0.016547,0.19608,0.00079516
-0.018705,0.11727,0.11239,0.079534,0.035549,-0.024792,-0.1159,-0.088636
-0.1656,-0.1729,-0.021902,-0.037652,-0.025713,-0.012281,0.18264,-0.014314
0.0014773,-0.094693,-0.033391,-0.0044207,-0.0082528,-0.023919,0.035513,0.16364
-0.041551,-0.071018,-0.087339,-0.063235,-0.0059256,0.026367,-0.35517,-0.3883
-0.10013,0.13917,0.18914,0.074332,0.027872,-0.048807,0.034051,0.17588
0.2234,0.19108,-0.073668,-0.014447,-0.032238,-0.085307,-0.25638,-0.0012489
0.068956,-0.056631,-0.010981,0.0054704,0.0086501,0.15122,0.34656,-0.027783
-0.13433,-0.112,-0.22611,-0.069807,-0.021691,0.043468,-0.051823,0.057499
0.066381,0.0097234,0.069256,0.056095,0.056193,0.028725,0.052592,0.25364
-0.15701,-0.12015,0.062936,-0.015421,-0.023392,-0.057294,0.1089,-0.41821
0.10221,0.13274,0.060902,-0.034173,-0.03377,-0.074101,-0.098903,0.28064
0.063642,-0.050092,0.033821,0.054992,0.025333,-0.052914,-0.26491,-0.15415
-0.12306,-0.12782,-0.00053601,-0.036344,-0.033187,-0.024757,0.21187,0.054014
-0.026837,0.11965,-0.040201,0.067516,0.056745,0.13575,0.34471,0.18987
0.11928,0.13821,-0.17747,-0.070297,-0.040384,-0.016299,-0.47956,-0.19523
-0.050867,0.068172,0.13523,-0.0039886,0.011698,0.03505,0.30468,0.037594
-0.14611,-0.13067,0.007157,0.024539,0.010056,-0.046001,-0.2293,-0.15055
0.28653,0.21185,0.23429,0.070068,0.017225,-0.025144,-0.054487,-0.069969
-0.081856,-0.49215,-0.044195,0.015356,0.0096638,0.12865,0.44333,0.33802
