0.065961,-0.1068,-0.30421,0.074484,0.025731,0.029173,0.036768,0.023034
-0.11875,-0.19491,0.036733,-0.10683,-0.029873,-0.057946,-0.072995,-0.096431
0.12708,0.385,0.79318,0.47543,0.14844,0.10446,0.082791,0.10476
4.7684e-05,-0.015823,0.077222,-0.050677,-0.032612,-0.029934,-0.026738,-0.0055278
-0.17872,-0.37498,-0.81111,-0.57267,-0.21322,-0.13248,-0.096561,-0.11429
0.27059,0.57145,0.19385,0.31059,0.19286,0.14092,0.1235,0.16926
0.0035314,-0.49896,-0.030215,-0.039614,-0.040776,-0.0065068,0.00055726,0.0010774
-0.11412,0.20074,0.40143,0.080627,0.031121,0.01876,-0.0047702,-0.03358
0.040727,0.18444,-0.29943,0.053524,-0.0057552,-0.025963,-0.01024,-0.029466
-0.13552,-0.50981,-0.24258,-0.29485,-0.15965,-0.071065,-0.063437,-0.081447
0.097556,0.25075,0.60939,0.27431,0.13136,0.070184,0.077106,0.10633
-0.08155,0.029512,-0.18381,0.069128,-0.0083981,-0.016971,-0.042322,-0.052783
0.076831,-0.12486,-0.44606,-0.18859,0.061005,0.018561,0.023275,0.034689
0.057715,0.16504,0.20148,0.074855,-0.043838,-0.026476,-0.022932,-0.013798
0.081457,0.52695,0.37221,0.23897,-0.0029808,0.012253,0.030446,0.060378
-0.19326,-0.57542,-0.31194,-0.23675,0.050774,0.010438,-0.034506,-0.093066
0.080331,-0.21771,0.27224,0.14079,0.016355,0.03944,0.064588,0.089968
-0.20399,-0.10901,-0.38317,-0.46101,-0.15992,-0.11821,-0.1085,-0.15445
0.034751,0.087408,0.25498,0.21317,0.078049,0.038793,0.017736,0.04241
-0.006153,0.066249,-0.52823,-0.40832,-0.26813,-0.10561,-0.040129,-0.029326
0.22086,0.65341,0.81172,0.30585,0.18584,0.11335,0.07775,0.083863
0.24618,0.13428,-0.023438,0.61842,0.29251,0.17233,0.13689,0.20187
-0.36215,-0.79258,-1.121,-0.6556,-0.21347,-0.17922,-0.15246,-0.23901
0.33002,0.53241,0.71224,0.7881,0.29238,0.1826,0.16169,0.22041
-0.47006,-0.92541,-0.29368,-0.59254,-0.40205,-0.23585,-0.22672,-0.31248
0.12487,0.64498,0.58879,0.29151,0.084535,0.079565,0.07944,0.12145
0.049953,0.041337,0.45917,0.005387,0.11006,0.033875,0.016672,0.01308
-0.039572,-0.2723,-0.73419,-0.50212,-0.099988,-0.076763,-0.048353,-0.02095
0.05983,0.29468,0.30671,-0.02259,-0.014806,-0.0024667,-0.0062577,0.011766
-0.17371,-0.63528,-0.47242,-0.11111,-0.07175,0.01501,0.026215,-0.044134
0.11361,0.46595,-0.54721,-0.070923,0.018835,-0.0079058,0.0028952,0.015772
0.16627,0.15621,1.0301,0.62378,0.062357,0.023447,0.010467,0.028793
-0.084251,0.43639,0.076396,0.14716,0.12184,0.047309,0.049505,0.027291
-0.13712,-0.4059,-0.57329,-0.29643,-0.14643,-0.09221,-0.09067,-0.081896
0.10891,-0.40538,-0.23829,0.19122,0.23361,0.17507,0.11327,0.1621
0.074348,0.47235,1.0527,0.069342,-0.082796,-0.049847,-0.034423,-0.061756
-0.032003,-0.21515,-0.54834,-0.42248,-0.13593,-0.072511,-0.049969,-0.05149
0.11565,-0.3238,-0.3502,-0.13861,0.010611,0.012451,0.034782,0.074387
-0.14867,0.29953,0.25978,0.20775,-0.05785,-0.053423,-0.046198,-0.08369
-0.12281,-0.065559,-0.38019,-0.37679,-0.044382,-0.020347,-0.011732,-0.026338
0.068656,0.2527,0.3401,0.77197,0.2784,0.10419,0.060383,0.059056
-0.088042,-0.18201,0.2795,-0.094489,-0.15053,-0.046181,-0.024471,-0.037536
0.21488,0.47628,0.85048,0.12806,0.10828,0.076642,0.047166,0.10736
-0.12813,-0.98823,-1.1285,-0.63489,-0.1931,-0.11971,-0.098655,-0.14485
-0.10546,0.57629,-0.48646,-0.24637,-0.15434,-0.071446,-0.039119,-0.065506
0.1219,0.314,0.60525,0.50091,0.31966,0.15992,0.11703,0.12053
0.063442,-0.34198,0.25119,0.2199,0.0028874,0.012351,-0.0050203,-0.054553
-0.054389,-0.29493,-0.66861,-0.35267,-0.14411,-0.076819,-0.007188,0.065369
0.055488,0.0042644,0.031993,0.19788,0.11953,0.086978,0.055027,0.10405
0.11611,0.47085,0.20323,0.050043,0.10432,0.025996,0.0008123,0.035859
-0.072263,-0.24675,-0.10299,-0.095912,-0.13734,-0.08926,-0.085087,-0.04816
0.20467,0.68613,0.72487,0.34199,0.017415,0.060255,0.093204,0.052455
-0.37704,-0.93598,-0.11164,-0.27336,-0.11262,-0.17481,-0.21492,-0.28152
-0.17887,0.29009,-0.32116,-0.18801,-0.012489,0.10357,0.10762,-0.051071
-0.06048,-0.1468,-0.55312,-0.38917,-0.10382,-0.08107,-0.048217,-0.013815
0.25299,-0.015516,0.36141,0.41076,0.22375,0.12334,0.09165,0.17524
0.272,0.63434,0.84897,0.26629,0.026276,0.029978,0.051365,0.1586
-0.0081198,-0.44926,-0.48255,-0.095259,-0.046416,-0.055797,-0.035686,-0.046081
-0.27191,-0.42377,-0.45934,-0.1648,-0.032366,-0.031989,-0.020776,-0.062087
0.021876,0.62452,0.40171,0.26993,0.084516,0.031198,-0.02113,-0.083643
0.10091,-0.11641,-0.15342,-0.024352,-0.0084179,0.078856,0.064503,0.084902
-0.081731,-0.32506,-0.61641,-0.42981,-0.085249,-0.092615,-0.069028,-0.056813
0.1526,0.37529,0.29747,0.13965,-0.037525,0.0005905,0.023136,0.052836
-0.096225,-0.091389,-0.016948,-0.019393,0.04789,0.014234,-0.010869,0.029922
0.083927,0.20687,0.52867,0.56111,0.21719,0.11995,0.086731,0.037443
-0.25394,-0.36046,-0.28613,-0.35414,-0.25643,-0.2056,-0.16818,-0.15191
0.10007,-0.31475,0.054917,-0.27388,-0.075814,-0.00097219,0.0061425,0.0084778
0.091084,0.37687,0.56243,0.2622,0.072291,0.047103,0.024424,-0.051427
-0.1004,-0.15184,-0.31215,-0.39441,-0.053227,-0.0057623,0.12168,0.012846
0.31633,0.87267,0.56792,0.78823,0.25974,0.1538,0.071868,0.23352
-0.32051,-0.57367,-0.62868,-0.37576,-0.1128,-0.11422,-0.14036,-0.12279
-0.1256,-0.078044,-0.28455,-0.032339,-0.0061015,0.018576,-0.022796,0.015004
0.12987,-0.35284,-0.82382,-0.061102,0.056666,0.059892,0.0025062,-0.0088967
0.056829,0.35836,0.64772,-0.11477,-0.11997,-0.084463,-0.010121,-0.053833
0.02285,-0.13305,-0.31467,-0.2213,-0.083385,-0.055775,-0.0064424,-0.057661
-0.035579,0.031438,0.45625,0.10598,0.017207,0.0045656,0.044296,0.017995
0.12131,0.030776,0.31499,0.39902,0.14961,0.080179,0.086917,0.18003
-0.08034,-0.20616,0.12107,0.062649,-0.015315,-0.0014769,-0.097745,-0.088164
0.14446,0.52278,0.36241,0.070009,0.052677,0.048155,0.036908,0.024985
-0.11443,0.029094,-0.2435,0.15834,0.10277,-0.013407,-0.0091867,0.0032111
-0.055283,0.038593,-0.24864,-0.55283,-0.32645,-0.10808,-0.06397,-0.083399
0.015844,-0.11291,0.19915,0.13471,0.10087,0.045592,0.04485,-0.0080109
-0.28335,-0.71366,-1.0325,-0.50893,-0.1461,-0.083197,-0.088418,-0.10583
0.10416,-0.02758,-0.10571,0.2416,0.12087,0.092055,0.060225,0.10074
0.20559,0.010017,0.52281,0.28565,0.15268,0.040681,0.03805,0.065931
0.15048,0.52604,0.39093,0.2118,0.067371,0.020969,0.087328,0.22814
-0.10356,0.70878,0.57734,0.10954,-0.048523,-0.0058576,-0.081306,-0.31059
-0.24032,-0.61451,-0.64301,-0.58773,-0.25724,-0.12569,-0.062272,-0.034691
0.016024,-0.024514,-0.17459,-0.11913,-0.0041815,-0.0027652,0.041941,0.00053155
0.13491,-0.15781,-0.12521,0.16567,0.10871,0.042247,-0.035293,0.036164
0.18559,-0.07311,0.014117,0.20455,0.096482,0.10264,0.17391,0.23486
0.0092511,0.14047,0.30678,0.37149,0.14603,0.045162,-0.096583,0.048249
-0.13215,0.44241,0.73792,0.19574,-0.0478,-0.075832,-0.10462,-0.25148
-0.20368,-0.62736,-0.69932,-0.64529,-0.25854,-0.096353,0.04878,-0.063536
-0.092061,-0.22183,-0.83945,-0.29379,-0.063886,-0.063029,-0.10408,-0.12236
0.52762,0.2658,0.68667,0.39852,0.17775,0.1419,0.1804,0.26801
-0.56546,0.021492,-0.32956,-0.29326,-0.032201,-0.0042088,-0.1041,-0.21146
0.19823,-0.081289,0.2704,0.087272,-0.02029,-0.062973,0.035941,0.22213
0.2177,0.3767,0.56642,0.37252,0.082069,0.060109,0.062357,0.093994
0.065049,0.38322,-0.54234,-0.5661,-0.099263,-0.040748,-0.0088693,0.030835
-0.14748,-0.451,0.30313,0.54804,0.15453,0.087651,0.0017278,-0.2393
-0.1662,-0.38412,-0.42971,-0.41666,-0.17298,-0.10191,-0.15655,-0.15269
0.028701,0.57461,0.76524,0.56204,0.26034,0.16333,0.21063,0.19004
-0.019474,-0.24846,-0.48864,-0.089725,-0.13359,-0.094044,-0.061853,-0.085557
-0.12729,-0.4096,-0.75495,-0.33824,-0.14614,-0.09366,-0.053048,0.28625
0.29389,0.097831,0.35643,0.16966,0.16592,0.070015,-0.021413,-0.25752
0.12807,0.030637,-0.029647,-0.15004,-0.16763,-0.13475,-0.061022,0.12582
-0.070619,0.27029,0.71938,0.088673,0.094724,0.096502,0.07027,-0.14354
-0.070107,0.18171,-0.0067353,0.039504,0.07037,0.052807,0.060073,0.13534
-0.16315,0.065946,-0.15498,-0.2665,-0.13034,0.070198,-0.021171,-0.071236
-0.049636,-0.19923,-0.048033,0.024184,-0.013691,-0.08554,-0.064056,-0.14857
0.14058,-0.5731,-0.76661,0.016639,0.070521,0.085811,0.22819,0.53396
0.16865,0.53157,0.59342,0.17607,0.077133,-0.071692,-0.15243,-0.36117
-0.03148,0.2259,0.10126,0.069097,-0.054962,-0.14355,-0.065481,-0.045592
-0.001082,0.083411,0.40575,0.33186,0.073591,0.13646,0.059338,-0.011103
-0.4048,-0.48422,-0.57707,-0.32256,-0.10713,-0.10601,-0.14496,-0.17032
0.31307,-0.05476,-0.25783,-0.2604,-0.058121,0.098458,0.095508,0.28377
-0.024736,0.078069,0.5552,0.34644,0.22018,0.11753,0.13292,0.064941
-0.14935,-0.095855,-0.68066,-0.38556,-0.18693,-0.11113,-0.11022,-0.12082
-0.072914,0.0085228,0.12352,-0.14499,-0.10834,-0.12677,-0.078714,-0.18517
0.47318,0.054616,0.33563,0.66052,0.25982,0.1637,0.14955,0.28751
-0.19658,0.23614,0.078309,-0.41599,-0.16924,-0.060989,-0.074001,-0.14763
-0.065893,-0.11442,-0.083645,-0.040499,0.048943,0.080737,0.062666,0.07114
0.083382,0.57545,0.75588,0.29267,0.022855,-0.099911,-0.074041,-0.050168
-0.00032735,-0.2253,-0.34164,0.089151,0.079793,0.059967,0.038392,0.16559
-0.13155,-0.28333,-0.43853,-0.23102,-0.10125,-0.034213,0.0084369,-0.10469
0.062807,-0.22512,-8.7296e-05,0.065405,0.080853,0.031265,-0.0083476,-0.011956
0.19869,-0.23147,0.052328,0.29095,0.040137,0.037877,0.018952,-0.0032314
-0.48981,-0.045067,-0.48633,-0.88113,-0.34795,-0.24014,-0.13612,-0.12599
0.16218,0.29501,-0.027453,0.29399,0.20657,0.2297,0.1129,-0.020204
0.16418,0.29646,0.11398,0.10109,0.017491,-0.12919,-0.029962,0.12832
-0.13002,0.052283,0.068185,0.075162,0.015968,0.090937,-0.024597,-0.14678
0.32873,0.36539,0.76712,0.56319,0.21905,0.14921,0.15348,0.23517
-0.39519,-0.76688,-0.43277,-0.5889,-0.35646,-0.30506,-0.19799,-0.083027
0.17589,0.035242,0.21714,0.057216,0.11838,0.15037,0.10121,0.0016118
0.073469,0.4723,0.3815,0.079196,0.058019,0.070061,0.043421,0.067682
-0.15623,-0.44137,-0.43531,-0.11029,-0.10005,-0.08561,-0.05903,-0.096196
0.10271,0.2011,0.14479,0.13536,0.050082,-0.051824,0.019988,0.18074
0.051756,-0.097495,-0.46716,0.017509,0.14068,0.14711,0.014315,-0.1576
-0.099741,-0.16843,-0.29338,-0.15259,-0.1023,-0.059841,-0.037476,-0.096947
-0.063978,0.056627,0.15739,-0.062981,-0.03874,-0.063769,-0.041967,-0.14606
0.20524,0.31789,0.29618,0.3099,0.096633,0.080536,0.10228,0.40555
-0.30777,-0.51282,-0.61788,-0.54906,-0.26665,-0.18922,-0.15154,-0.23893
0.077141,0.19168,0.28569,0.13398,0.051049,0.11175,0.06392,0.069297
0.0794,0.31323,0.24375,0.085385,0.057382,-0.00055194,0.022223,-0.028648
-0.011343,0.07397,0.54455,0.44457,0.10348,0.013124,0.035835,0.0066504
0.14101,0.013488,-0.0051901,0.1858,0.20412,0.2073,0.088866,0.15183
-0.1593,-0.14286,-0.33849,-0.51431,-0.18883,-0.22327,-0.13949,-0.17149
0.086653,-0.044834,-0.025681,-0.080861,-0.061207,0.079969,0.029824,0.043936
0.088356,-0.11397,-0.038208,0.077326,0.038768,-0.024505,0.0024411,0.016161
-0.038507,0.16098,-0.082254,0.044989,0.016456,0.040708,0.027912,0.025764
-0.09973,-0.22042,0.036288,-0.075713,-0.081415,-0.13879,-0.05798,-0.052704
-0.025345,-0.23898,-0.14122,-0.024573,-0.082257,-0.062849,-0.059724,-0.055271
-0.10378,-0.16913,-0.63944,-0.18845,0.046657,0.17541,0.077883,-0.020677
0.072764,0.63054,0.89605,0.28861,0.065102,-0.048079,0.043077,0.21583
0.037759,0.12179,0.1587,0.051305,0.061067,0.064596,-0.022726,-0.17293
-0.042337,-0.2352,-0.64086,-0.17085,-0.073089,-0.11068,-0.056337,0.0015462
0.10797,0.14191,0.17669,0.2249,0.093414,0.12197,0.028627,-0.072379
0.08371,0.027452,0.4611,0.034682,-0.03289,-0.065466,0.052596,0.20742
-0.052434,-0.057361,0.028477,0.04514,0.024056,0.084558,0.015347,-0.0026658
-0.12169,-0.3124,-0.58886,-0.42692,-0.14311,-0.15511,-0.11487,-0.14825
0.006908,0.26442,0.36576,0.19287,0.081356,0.066358,0.051892,0.027795
0.034073,0.13624,0.17113,0.14361,0.03198,0.029557,0.022785,0.032394
0.066673,-0.19358,-0.12074,-0.092114,-0.0032876,0.023112,0.047289,0.052129
0.20415,0.0068192,0.19915,0.23571,0.092169,0.054743,0.031432,0.062825
-0.27358,-0.18487,-0.84629,-0.38679,-0.13472,-0.16433,-0.10277,-0.13124
-0.20274,-0.35322,-0.29524,-0.36273,-0.23023,-0.086676,-0.1517,-0.15506
0.04246,0.42607,0.45564,0.13974,0.10349,0.04621,0.049415,0.02296
0.12772,0.132,0.59548,0.49893,0.21118,0.15674,0.11066,0.14556
0.07857,0.19591,-0.07062,-0.0097433,-0.023679,-0.067395,-0.014373,-0.01325
0.03767,0.047764,0.36206,0.13716,0.070925,0.076585,0.10406,0.2422
0.014419,-0.040051,-0.34447,0.015732,0.017934,0.12691,0.074864,-0.12706
0.001872,-0.045922,-0.2266,-0.18236,-0.12896,-0.13632,-0.094984,-0.14463
-0.14049,-0.37785,-0.24311,-0.34429,-0.12096,-0.10488,-0.13306,-0.092104
-0.0069138,-0.044448,0.11666,0.072805,0.064231,-0.021823,-0.016818,-0.05574
0.18301,0.22851,-0.088058,0.18332,0.11341,0.081348,0.089181,0.38611
-0.14188,-0.072106,0.59495,0.064458,-0.051686,-0.052773,-0.025987,-0.13379
0.009995,-0.1221,-0.34045,-0.13422,-0.063368,-0.016916,-0.033665,-0.084022
-0.017763,0.15338,-0.030881,-0.10505,-0.022133,-0.028434,-0.011059,-0.065822
0.0095567,0.086766,-0.22053,0.17968,0.12816,0.1329,0.097617,0.077552
-0.055743,-0.021821,-0.08235,-0.072047,-0.032749,0.062116,0.035609,0.026361
0.12322,0.27451,0.69507,0.16783,0.020089,-0.0055842,-0.024375,0.031175
-0.16361,-0.32142,-0.52321,-0.24547,-0.094939,-0.046428,-0.034952,-0.08721
0.17808,0.12591,0.36826,0.28388,0.036946,-0.19338,-0.050649,0.030892
-0.039153,-0.16802,-0.52745,-0.27508,0.0096325,0.11554,0.014319,-0.051934
0.051344,-0.058656,0.29656,0.13075,0.025794,0.035831,0.042366,0.14852
0.05791,0.19225,0.20435,0.13884,0.068829,0.035372,0.017297,-0.032214
-0.24739,-0.20785,-0.082281,-0.1535,-0.096994,-0.050763,-0.10844,-0.18069
-0.014474,0.14461,-0.20942,-0.16501,-0.082595,-0.067117,-0.0074439,0.030485
0.13033,-0.09585,0.19267,0.2405,0.1027,0.11847,0.19457,0.36617
0.1782,0.53096,0.23705,0.27045,0.12947,0.036815,-0.018651,-0.31495
-0.2386,-0.53724,-0.62551,-0.60854,-0.22971,-0.13261,-0.13196,-0.068116
-0.026371,-0.072906,-0.098437,0.11869,0.056011,0.039949,0.010637,0.012611
0.088761,0.1521,0.17137,0.14861,0.072726,0.031391,0.0029405,0.083406
0.14669,-0.055694,0.39764,0.085321,0.016351,0.021947,0.079639,0.32412
-0.28119,-0.1555,-0.37731,-0.2397,-0.15905,-0.13615,-0.15717,-0.44456
0.071911,0.36965,0.58385,0.13026,0.055409,0.049942,0.035355,0.051294
0.019548,0.21578,-0.27153,-0.051629,-0.011147,-0.0051936,0.10312,0.0075954
0.12501,-0.28106,-0.036257,0.26383,0.18108,0.144,0.062209,0.11243
-0.0019266,-0.089945,-0.077635,-0.094073,-0.062844,-0.033809,-0.071536,0.014756
-0.11122,-0.26608,-0.3184,-0.12533,-0.071091,-0.046821,-0.024685,0.043072
0.023373,0.24483,0.10733,-0.010583,0.015375,-0.028437,-0.055229,-0.16178
0.0029211,0.083331,0.35442,-0.0013794,-0.022697,-0.018354,0.039694,0.017462
0.0065445,-0.055007,0.070011,0.095842,0.032963,0.037608,0.033267,0.10418
0.041556,0.19758,-0.15316,0.084189,0.072676,0.045441,0.011243,-0.011129
-0.11897,-0.15033,-0.018797,-0.2328,-0.14579,-0.088537,-0.081153,-0.14899
-0.045536,-0.37918,-0.51139,-0.18384,-0.059701,-0.012384,-0.0095434,-0.036238
0.19145,0.33984,0.54911,0.34031,0.1282,0.055752,0.10894,0.25648
-0.025229,0.13218,0.11659,-0.027319,-0.011338,-0.0084421,0.0087571,0.088126
-0.03155,-0.048936,-0.2533,0.033885,0.053195,0.022198,-0.067874,-0.28389
0.0005202,0.16337,0.12794,-0.0071609,-0.037583,-0.047281,-0.027215,0.038514
-0.10884,-0.48936,-0.52791,-0.25212,-0.065283,0.0018841,0.0056476,0.023836
0.12458,0.17165,0.89694,0.24395,0.086611,0.03651,0.022741,-0.085808
0.020997,0.0046572,-0.29254,0.08981,0.065683,0.06371,0.055096,0.15499
-0.052443,-0.01504,-0.16673,-0.098009,-0.08204,-0.042411,-0.022538,0.035513
-0.03314,0.25181,-0.32768,-0.14817,-0.06032,-0.017124,-0.038521,-0.12361
0.086958,0.038178,0.48935,0.15783,0.060273,0.029497,0.05386,0.092018
-0.1371,-0.3604,-0.52172,-0.25016,-0.13412,-0.15287,-0.10481,-0.11413
-0.0017638,-0.038702,0.34022,0.15184,0.075902,0.037447,0.040263,-0.054262
0.11838,0.26833,0.049243,0.16161,0.11317,0.10882,0.075285,0.24061
-0.0028973,0.053047,0.30566,-0.13381,-0.083702,-0.055084,-0.061866,-0.10439
0.072088,0.12894,0.11474,0.11054,0.033194,0.046732,0.012066,-0.042354
-0.086295,-0.30678,-0.33766,-0.11198,-0.027498,-0.030099,-0.046228,-0.010879
-0.06403,-0.18115,-0.20775,0.035652,0.039415,0.043301,0.060499,-0.01015
-0.033085,-0.092603,-0.32155,-0.11752,-0.062788,-0.08417,0.020007,0.0377
0.13925,0.50887,0.44229,0.14789,0.087592,0.11106,0.012094,0.148
-0.15651,-0.28826,-0.37153,-0.13659,-0.095827,-0.082131,-0.08047,-0.22642
0.11074,0.15025,0.31328,-0.0024705,-0.012111,-0.070419,-0.0078768,0.078259
0.057965,0.10562,0.36112,0.15876,0.080199,0.10651,0.042051,0.0071763
-0.088555,-0.16579,-0.56884,-0.14657,-0.046204,-0.036451,-0.024871,-0.064736
0.0067617,0.067749,0.054682,0.10298,-0.0013805,0.023391,0.0095969,0.05005
0.062314,0.1468,0.7053,0.2255,0.073491,0.050991,0.058974,0.023521
-0.054969,-0.20516,-0.35672,-0.22636,-0.032882,-0.02445,0.0055792,0.051181
-0.032667,-0.084191,0.33866,0.011588,-0.023722,-0.054716,-0.033747,-0.054193
-0.03468,-0.21012,-0.87885,-0.22516,-0.031655,-0.016262,-0.027849,0.004653
0.17379,0.37048,0.74417,0.25947,0.06096,0.013213,0.023505,-0.0061534
-0.055031,0.14346,-0.70788,-0.17329,-0.073357,-0.02031,-0.050986,-0.023507
-0.056304,-0.42801,-0.030179,0.049503,0.027039,0.048009,0.022962,0.0079205
-0.12613,0.0021691,0.094158,-0.13181,-0.066931,-0.02331,-0.034938,-0.067576
0.09546,0.27962,0.28825,0.19139,0.11383,0.070905,0.041817,0.047155
0.0070772,0.092705,0.0033064,0.051713,-0.016637,-0.083265,-0.011834,-0.093369
0.038057,-0.15272,0.29054,0.019426,0.041245,0.045201,0.015134,0.12731
0.1015,0.1042,-0.25462,0.061826,0.013305,0.0026204,0.044131,0.16884
-0.093146,-0.092207,0.0071068,-0.089268,-0.031021,0.014789,0.066386,-0.11886
0.069534,-0.06519,0.08727,0.039637,-0.014394,-0.0050421,-0.059993,0.21559
-0.11532,-0.075263,-0.29333,-0.085571,-0.10137,-0.041939,-0.10193,-0.43073
0.022888,0.16476,0.32021,-0.2247,-0.073248,-0.057269,0.064557,-0.019435
-0.00076516,0.060513,0.27467,0.15285,0.19535,0.081681,0.017067,0.17632
-0.029598,-0.15275,-0.42437,0.17288,0.025507,-0.023299,-0.080207,-0.076644
0.054985,0.097603,-0.19761,-0.076512,-0.034963,-0.004536,0.031299,0.098567
-0.010427,0.018209,-0.0092214,-0.10016,-0.063235,0.0057816,-0.053461,0.0088349
-0.11377,-0.3165,-0.39102,-0.12136,-0.019477,0.047358,0.057532,-0.070353
0.060168,-0.089997,0.20443,0.065814,0.018633,0.019182,0.060857,0.034393
0.060524,0.42743,0.69878,0.29132,0.074584,-0.093971,-0.042617,0.058168
-0.017549,0.128,-0.043597,-0.0069165,-0.00041238,0.044054,0.044283,-0.046063
0.07622,-0.15279,-0.11538,-0.11117,-0.074221,-0.051073,0.063444,0.22076
0.0049789,-0.018924,0.058284,0.046633,0.11011,0.089306,-0.11875,-0.32253
-0.13946,-0.16196,-0.41255,-0.26303,-0.12799,-0.058443,-0.026809,0.00203
0.069961,0.24132,0.43119,0.24583,0.085819,0.021059,0.025621,0.060005
0.107,0.11578,-0.030271,-0.0074405,-0.030084,0.015055,-0.0014673,0.02976
-0.09336,-0.22987,-0.19684,-0.1182,-0.069405,-0.021994,0.00068871,-0.0036302
-0.032922,-0.11011,-0.23126,-0.063418,0.038582,0.01912,0.055326,0.061031
-0.064041,-0.001282,0.098154,0.063896,-0.010142,-0.11171,-0.079548,-0.080838
-0.061455,-0.27609,-0.28525,-0.070577,0.011738,0.10891,-0.0049778,0.03221
0.14006,0.42088,0.67057,0.16805,0.034558,0.0090583,0.10006,0.11194
-0.012448,-0.1246,-0.28437,-0.046304,0.011839,-0.059723,-0.076154,-0.2078
0.076632,0.24792,0.28874,0.18645,0.12334,0.16814,0.092088,0.081922
-0.091101,-0.16163,-0.64803,-0.2421,-0.1937,-0.20586,-0.12904,-0.06471
-0.030261,-0.031565,0.20965,-0.011382,-0.033498,0.013557,0.0029731,0.048469
0.20474,0.41893,0.60895,0.22196,0.13461,0.17794,0.15225,0.16416
-0.1209,-0.43704,-0.39343,-0.20692,-0.072758,-0.13452,-0.087659,-0.13945
-0.1019,-0.16482,-0.064094,-0.049004,-0.085778,-0.11125,-0.099974,-0.065859
0.072991,0.26381,-0.0081634,0.06979,0.13427,0.14629,0.083474,0.024782
0.043208,-0.25538,-0.012217,-0.01532,0.0012676,-0.033727,0.024517,0.11579
0.0031726,0.45547,0.40199,0.2343,0.046426,0.090864,0.058434,0.049741
-0.063144,-0.20597,-0.42773,-0.17368,-0.027004,-0.019133,-0.041884,-0.22132
-0.085291,-0.27853,-0.26411,-0.20006,-0.17188,-0.12954,-0.097088,0.036157
0.031086,0.15287,0.46761,0.13203,0.073145,0.064111,0.0412,0.04049
0.0525,-0.08226,-0.46851,0.049538,0.052289,0.038252,0.037288,0.18235
-0.020113,0.095564,0.27143,0.013746,-0.015214,-0.035255,-0.077062,-0.31899
0.1187,0.42171,0.61865,0.2046,0.11323,0.023442,0.089468,0.20146
0.016277,-0.2049,-0.61183,-0.19806,-0.093376,-0.011887,-0.0092503,-0.051931
-0.022523,-0.3467,-0.10446,-0.13162,-0.072423,-0.06265,-0.028792,0.039392
-0.083668,0.36337,0.11277,0.013393,0.019771,0.012292,8.9409e-05,0.015844
-0.018774,-0.12146,0.23036,0.088716,0.042391,0.041527,0.00733,-0.10581
0.008159,-0.066307,-0.31174,0.11018,0.096732,0.080053,0.063217,0.073627
-0.041689,-0.063906,0.18329,-0.054824,-0.067494,-0.067354,-0.082528,-0.094045
-0.035135,-0.32389,-0.40148,-0.13277,-0.075535,-0.010231,-0.0085089,0.031408
0.059417,0.23302,0.15938,-0.029983,-0.013487,-0.03802,0.019051,0.050507
0.0546,0.24795,0.55088,0.13603,0.056101,0.03625,0.015145,0.039769
0.051736,0.15002,-0.33988,0.020965,0.016097,0.032308,0.018257,0.012861
0.073603,0.078045,0.42077,0.069433,-0.00056339,-0.02695,0.020135,0.20999
-0.17768,-0.30667,-0.49859,-0.063032,-0.0015325,-0.016927,-0.065397,-0.30796
0.0076821,0.070857,0.18932,-0.0019357,-0.0022714,0.023114,0.0038537,-0.07311
0.019283,-0.096799,-0.14003,-0.091129,0.0051898,-0.0083452,-0.0062325,-0.022889
0.036145,-0.045628,-0.28837,0.037012,0.013189,0.0061649,0.037623,0.070311
-0.043427,-0.12722,-0.32872,-0.15562,-0.056255,-0.034443,-0.004603,0.098917
-0.015857,0.15226,0.53428,0.15262,0.00010932,0.0032239,-0.015088,0.033858
-0.013005,0.084895,0.29118,-0.013473,0.0026794,0.025993,-0.0010847,-0.10714
0.013268,-0.1146,0.024853,0.042542,0.021769,-0.020368,-0.0090808,0.044751
