-0.060277,0.00098014,0.043023,0.031417,0.019905,-0.0043217,-0.022444,-0.045728
0.092428,0.054214,-0.027895,0.016126,0.027761,0.043417,0.076748,0.10524
0.12835,0.021731,0.0035738,0.00088484,0.0039289,0.036132,0.18389,0.21743
-0.0067721,-0.04917,-0.050088,-0.029909,-0.035959,-0.018514,-0.084695,-0.092393
0.0075448,-0.0019373,-0.0014926,-0.037149,0.0097296,-0.019074,-0.057971,-0.09026
-0.1569,-0.016158,-0.0070802,-0.020767,-0.04636,-0.043691,-0.080263,-0.049836
-0.0002938,0.033033,0.073528,0.042745,0.0069336,-0.014115,-0.12826,-0.25224
0.086565,0.067156,-0.0021389,0.051871,0.044874,0.054307,0.22813,0.38117
0.0098571,0.015396,-0.0078141,-0.0012182,-0.002601,0.0057112,-0.088406,-0.11763
-0.042864,-0.075903,0.0015494,-0.022861,-0.0025054,-0.018863,-0.022143,-0.13074
-0.094913,-0.066558,-0.052367,-0.013218,-0.017297,-0.026888,-0.0096442,0.068728
0.064729,0.019742,-0.013401,-0.058431,-0.00021642,0.013058,0.12155,0.097676
0.092224,-0.0045301,0.032529,0.036592,0.009407,0.022786,0.043347,0.18949
-0.090903,0.0092342,-0.008219,0.052893,0.019007,0.017606,-0.12756,-0.21207
0.1319,0.13164,0.028572,-0.056572,0.004723,0.012627,0.068841,0.10996
-0.021457,-0.090115,-0.021003,0.020594,-0.018202,-0.00057826,0.061194,-0.049049
-0.075277,-0.0073009,0.046326,0.08127,-0.003148,-0.0069548,-0.057604,-0.033572
-0.038042,0.036559,0.0041347,-0.085334,-0.020496,-0.045949,-0.10823,-0.17918
0.043115,-0.044307,-0.0067831,0.052358,-0.01541,-0.023905,-0.051342,-0.0077723
0.074743,0.031481,-0.064315,-0.075463,0.035893,-0.018727,-0.018844,0.0065859
-0.16885,-0.079724,-0.035324,-0.077543,-0.014545,0.040382,0.13903,0.17149
0.024618,0.0049705,0.041516,0.093639,0.02131,0.044672,0.11902,0.067755
-0.054234,0.051222,0.010339,0.016721,0.018951,0.0025718,-0.12461,-0.068385
0.24453,0.074618,0.0433,0.020052,-0.021241,-0.0073221,-0.028773,0.060545
-0.038923,-0.010902,-0.023578,-0.0059166,-0.0052987,-0.0082084,-0.01551,-0.13219
-0.052509,-0.10397,-0.026404,0.008531,-0.026941,-0.03917,0.015838,0.038857
-0.1402,-0.032915,0.065647,-4.8899e-05,0.0074274,0.032362,0.14192,0.13334
0.01741,0.06926,-0.021488,-0.017158,0.034989,0.018491,0.0094161,-0.00026959
0.17666,0.077472,0.047411,0.034236,-0.0072032,-0.010917,-0.10986,-0.19279
-0.023595,0.04647,-0.11116,-0.088895,-0.010296,-0.0093849,-0.013926,0.077458
0.12585,-0.22664,-0.091521,0.042722,0.017369,-0.016248,-0.054689,-0.072799
-0.23574,0.063191,0.027833,-0.039563,-0.018423,-0.015978,-0.067545,-0.025498
-0.046593,0.11954,0.23112,0.032035,-0.016439,0.014943,0.019137,-0.04427
0.11528,0.020908,-0.020677,0.016319,0.023175,0.014241,0.10559,0.15479
-0.14768,-0.19355,-0.078857,0.016054,-0.0010744,0.0291,0.053024,0.035352
-0.005918,-0.2742,-0.099205,0.0011973,0.0048327,-0.010469,0.034798,0.076222
0.15939,0.42641,0.12989,-0.0038132,-0.028981,-0.033877,-0.081116,-0.15096
0.07622,-0.069948,-0.17981,-0.060856,0.030826,0.0059332,-0.10727,-0.091338
-0.012349,0.27371,0.050727,-0.091688,-0.010522,0.030899,0.2133,0.16038
-0.035819,0.072498,0.1192,0.1767,-0.011959,-0.02937,-0.081823,0.063237
-0.18219,-0.33904,-0.11441,-0.092544,-0.090407,-0.034458,-0.064749,-0.15087
0.17253,0.14069,0.35012,0.36495,0.17603,0.062178,0.036192,0.046715
-0.02756,-0.21292,-0.45614,-0.35056,-0.017566,-0.028941,-0.13198,-0.10402
0.091391,0.07287,0.23966,0.041115,-0.077886,0.066732,0.32836,0.3486
-0.12764,-0.38706,-0.15715,-0.0073851,0.072651,-0.065276,-0.18443,-0.25205
-0.083312,-0.12577,0.11786,-0.26145,-0.082093,0.012238,-0.091542,-0.092688
0.11535,0.47893,-0.069395,0.38924,0.059097,-0.0055165,-0.0010606,-0.046539
-0.14017,0.20309,0.0063176,-0.13975,-0.0273,-0.032475,-0.10665,-0.15023
0.15123,0.19427,0.14067,0.0047931,0.0026676,0.056727,0.21835,0.33322
-0.0093292,-0.25533,-0.28449,-0.066326,-0.14745,-0.073291,0.030024,0.08574
-0.019452,0.15115,0.26938,0.085224,0.16351,0.062516,0.094853,0.093238
0.12125,-0.080338,0.11486,-0.064023,-0.017134,0.027326,-0.024407,-0.0030362
-0.11858,-0.2562,-0.19251,0.11779,-0.025086,-0.053279,-0.19521,-0.29702
0.033969,0.061411,0.013034,0.12109,0.077076,0.00078482,-0.027546,-0.03165
-1.4076e-05,-0.014108,-0.047265,-0.28287,-0.0078966,0.0021691,-0.014376,-0.051759
-0.13544,-0.11476,-0.19073,0.23187,0.055391,0.013255,0.054462,0.039912
0.095702,0.046124,-0.078427,0.007425,-0.014841,0.033667,0.14699,0.19526
-0.018065,0.21208,0.50295,-0.16784,-0.16422,-0.030931,-0.13588,-0.079197
0.030774,-0.30869,-0.43769,-0.34038,-0.080256,-0.025005,0.03335,0.051127
0.023379,-0.067279,0.32561,0.37401,0.04989,0.003819,0.0056848,-0.040151
-0.055802,0.008258,0.11075,-0.0070289,0.039227,0.031421,0.12441,0.30197
0.012158,0.39234,-0.17985,-0.27051,0.17732,-0.020853,-0.18105,-0.43118
0.055652,0.24985,0.28519,0.47573,0.07383,0.073258,0.12835,0.11168
0.043782,-0.040562,-0.24839,-0.0098466,-0.20875,-0.13941,-0.19703,-0.17051
0.01607,-0.080955,-0.064805,-0.11041,0.040208,0.075766,0.093488,0.1454
-0.16754,-0.30402,-0.16505,-0.084891,-0.10942,0.00049492,0.078981,0.1706
-0.13143,-0.16633,-0.29009,-0.028442,0.11541,-0.020834,-0.067636,-0.17878
0.07031,-0.052525,0.078838,-0.043699,0.019203,0.020294,-0.040729,-0.072699
0.30526,0.49189,0.58658,0.14258,0.0083551,-0.00045609,0.035355,0.099586
-0.19215,-0.16037,0.096873,0.16422,-0.049437,-0.020056,0.043649,0.041784
0.11677,-0.15573,-0.12114,-0.28118,-0.036212,0.032131,0.030767,0.050469
-0.0031202,0.0037057,-0.20597,-0.073213,-0.052679,0.0077537,0.050711,0.10895
-0.26374,-0.33011,-0.14154,-0.25527,0.0033995,-0.046456,-0.15528,-0.24526
0.16202,0.34411,0.16483,-0.097958,0.054116,0.048862,0.11495,0.14251
0.070268,0.089415,0.015687,0.67338,-0.041598,-0.081734,-0.15501,-0.18994
0.0075064,0.31042,0.22078,0.30762,0.30104,0.1238,0.096931,0.11623
-0.13546,-0.13818,-0.3633,-0.65203,-0.17746,-0.092758,-0.058868,-0.11063
0.095188,-0.17063,-0.16083,0.53859,0.15384,0.057413,0.1515,0.13826
-0.11194,0.11632,0.49832,-0.30717,-0.25341,-0.035133,-0.10714,-0.03416
-0.075907,-0.30576,-0.293,-0.094484,0.084504,-0.034331,-0.099541,-0.13429
0.18878,0.2527,0.1447,0.038729,-0.11311,0.028851,0.081263,0.12015
0.010913,-0.13564,-0.28194,-0.12086,0.030509,0.0063291,0.013803,0.026333
-0.023595,-0.10786,0.17785,-0.33803,-0.23976,-0.031272,0.13552,0.1618
0.014195,0.27098,0.056224,-0.10112,-0.022504,0.0021479,-0.12446,-0.22485
0.029156,-0.19518,0.22135,1.0804,0.59889,0.098709,0.029801,0.14567
0.0039479,0.18203,-0.083544,-0.45805,-0.19444,-0.070036,0.034682,0.044739
-0.047484,-0.27508,-0.22446,0.11882,0.18339,0.065694,-0.087437,-0.24027
-0.14984,0.068773,-0.03588,-0.050214,-0.14418,-0.057237,0.022083,0.071001
0.079146,0.059693,-0.00038327,-0.71899,-0.37519,-0.072242,-0.043251,-0.091643
0.085101,0.28533,0.22776,0.24678,0.15117,0.059318,-0.009695,0.069788
-0.060516,-0.16754,-0.34956,0.71308,0.20519,0.01699,0.029791,0.0024714
0.12846,-0.072387,0.23776,-0.51124,-0.16866,0.019715,0.068502,0.091427
-0.14272,0.28892,-0.017699,0.537,0.16895,-0.010119,0.029525,0.041867
-0.04384,-0.36562,-0.195,-0.17216,-0.1335,-0.063939,-0.13292,-0.14464
-0.034141,-0.15368,0.24253,-0.21548,-0.066907,0.0075828,0.066331,0.12645
0.090454,0.088907,0.24439,-0.30915,-0.027483,-0.013436,-0.083244,-0.17619
0.087779,0.17538,-0.092167,-0.51892,-0.020304,0.061196,0.17614,0.22004
0.19128,0.083537,-0.02918,1.0605,0.14482,0.044373,-0.0074833,0.0012776
-0.22576,-0.060207,-0.18704,-0.022623,0.18881,0.0064434,-0.056642,-0.037158
-0.10294,-0.20772,-0.29374,-0.1246,-0.074568,-0.06071,-0.10492,-0.18576
0.049812,0.18866,0.088915,-0.1473,-0.145,-0.024834,-0.028081,-0.00025135
-0.0035288,0.12899,0.41684,0.054867,-0.023093,0.019638,0.13419,0.065719
0.048615,-0.19993,-0.31349,-0.11472,0.047756,-0.037354,-0.10296,-0.042567
-0.075081,-0.11988,0.066835,-0.057927,-0.074623,0.030177,0.11169,0.15959
0.016717,0.078028,-0.12523,0.20508,0.11602,0.042133,-0.026742,-0.092924
0.028402,0.078984,0.027475,-0.15989,0.0011576,0.0061086,0.1379,0.30979
0.08649,0.35733,0.76046,-0.074792,-0.2718,-0.077937,-0.16775,-0.29582
-0.1279,-0.12771,-0.38821,0.38811,0.35901,0.032288,-0.045039,-0.081198
0.065985,-0.38471,-0.35108,0.053339,-0.11448,-0.014573,-0.032611,-0.061549
-0.10481,-0.046098,-0.12446,-0.47441,-0.035971,0.039534,0.04194,0.06037
0.13299,0.053741,0.20116,0.19826,0.047992,-0.0082779,0.10105,0.16764
0.083361,0.10472,0.090285,0.17621,-0.0026939,0.0062443,-0.034481,-0.036496
0.003007,-0.077961,0.024039,-0.059359,-0.054537,0.0051079,0.034049,0.096277
-0.17179,0.062725,-0.16344,-0.087859,0.018228,-0.035046,-0.044891,-0.16873
-0.059252,0.34848,0.29338,-0.33032,-0.049259,0.0030138,-0.03714,-0.035097
0.058698,-0.079971,-0.041325,0.012909,0.009285,0.0099363,0.041287,0.067014
-0.036875,-0.19254,-0.3283,0.57095,0.17087,0.0091772,0.010234,0.012208
0.029279,-0.17888,0.1401,-0.76878,-0.26746,-0.038314,-0.076045,-0.074752
0.14053,0.052143,-0.060654,0.77139,0.23317,0.062774,0.055579,0.032649
0.031981,0.20114,-0.058404,-0.024236,-0.015181,-0.031328,0.076876,0.12363
-0.10032,-0.015061,0.15864,-0.29477,-0.13035,-0.0081658,-0.066707,-0.03588
-0.021296,-0.081772,-0.04012,0.45971,0.16042,0.022821,-0.023237,-0.054784
-0.066281,-0.17845,0.10318,-0.65276,-0.17472,-0.016566,-0.026533,-0.049739
0.015216,0.3213,0.29725,0.053165,0.01233,-0.01702,-0.036889,-0.051464
-0.018654,-0.20511,-0.44632,0.090617,0.033981,0.013598,0.086915,0.073277
0.050997,-0.074906,0.039214,-0.24598,-0.031443,0.0049729,-0.029713,-0.058138
0.14596,0.5512,0.35802,0.41617,0.043028,0.019653,0.082093,0.21043
-0.030956,-0.61272,-0.47855,0.48151,0.21888,0.018698,0.0080588,-0.019908
-0.081743,0.021731,0.065924,-0.4419,-0.1517,-0.036757,-0.02575,-0.023244
-0.053745,0.049717,0.15496,-0.53444,-0.22432,-0.037067,-0.11375,-0.18312
-0.033281,0.22911,-0.31939,0.53208,0.21263,0.010268,0.016817,0.015502
0.026295,0.066366,0.16138,-0.28844,-0.10591,0.011796,0.060685,0.12704
0.054575,0.019759,0.06181,0.14599,0.039257,0.022418,0.025306,-0.059341
-0.0031504,-0.093972,0.19776,0.0010926,0.038914,0.010942,-0.034747,0.0037188
-0.037559,-0.31786,-0.20962,0.059679,0.010056,-0.0306,-0.0021668,0.012253
0.052757,0.14119,0.27033,-0.044302,-0.079179,0.014609,-0.040714,-0.064197
0.033147,0.045703,-0.24571,0.048995,0.15302,0.0053849,0.03751,0.09535
0.067321,0.065462,0.014014,0.15961,-0.013384,0.019183,0.061031,0.030322
-0.048179,0.19958,0.30504,-0.39305,-0.095431,0.016264,-0.032337,-0.064027
-0.26669,-0.37977,-0.42944,0.1319,-0.14134,-0.11333,-0.086199,-0.071034
0.068031,0.10223,0.082613,0.02993,0.066526,0.044086,0.04001,0.078662
0.26864,0.31189,0.23163,0.29987,0.19932,0.074287,0.041326,0.0087966
-0.24272,-0.63079,-0.53608,-0.23864,-0.055744,-0.077316,-0.00459,0.030478
0.11236,0.37093,0.12522,-0.085546,-0.034379,0.019267,0.034503,0.0017867
0.029364,0.1246,0.3585,-0.5135,-0.17336,-0.026143,-0.076338,-0.093861
0.016187,-0.10179,-0.23258,1.0024,0.33323,0.06822,0.099954,0.12594
0.018139,0.13097,0.35326,-0.53597,-0.24738,-0.033067,-0.10086,-0.12762
-0.02724,-0.098073,-0.063557,0.3109,0.11016,0.037657,0.016718,0.0058137
-0.1432,-0.21061,-0.093407,-0.28334,-0.16252,-0.031701,-0.023351,0.012161
0.022231,0.089714,0.027523,-0.14546,0.01442,-0.022047,-0.0092871,-0.028547
0.0087239,-0.057565,-0.37477,0.23296,0.040659,-0.011212,0.044295,0.057522
0.059175,0.080337,0.010257,0.039264,0.17448,0.040114,0.036848,0.029864
0.041425,0.15773,0.31401,0.18651,0.024865,-0.0085018,-0.022965,-0.0088086
0.034029,0.22722,0.22329,-0.45207,-0.15947,-0.024137,0.0060351,0.043528
-0.0019724,-0.34595,-0.37125,0.23843,0.010179,0.024452,0.0068408,-0.024314
-0.098094,-0.086729,0.030979,-0.10395,0.00026133,-0.0035154,-0.059822,-0.088196
-0.004935,0.0040992,-0.0065887,0.36203,0.066325,-0.0068045,0.00079398,0.038098
-0.012416,-0.042206,0.0014425,-0.55328,-0.13727,-0.0015368,0.047219,0.032779
-0.019993,0.095385,0.063717,0.23452,0.036654,-0.011783,-0.030942,-0.074349
0.1197,-0.0038667,-0.045883,0.0685,0.040784,0.039876,0.038682,0.051418
0.022827,0.090926,0.21949,0.042696,0.063005,0.043385,0.044181,0.049826
-0.10829,-0.15837,-0.26559,0.15838,-0.020541,-0.07992,-0.10112,-0.095196
0.10087,0.31904,0.23266,-0.42597,-0.059686,0.021232,0.063368,0.12418
-0.044997,-0.039316,-0.12215,0.097273,0.010145,-0.0046818,-0.016971,-0.065047
-0.014052,-0.14771,0.099726,-0.13568,-0.14484,-0.047893,-0.029084,-0.068329
-0.070792,-0.060992,-0.17127,0.37077,0.15695,0.017299,-0.057978,-0.0018551
-0.026158,-0.16183,-0.19142,0.13517,0.16693,0.058971,0.092812,0.072905
0.043462,0.25352,0.16633,-0.48103,-0.20014,-0.054769,-0.052125,-0.038501
0.030286,-0.30605,-0.1505,0.062054,0.047821,0.020604,0.02376,0.0081925
0.068247,0.30921,0.3755,0.21703,-0.050996,0.0043262,0.039709,0.064608
-0.014126,-0.0088156,-0.075108,-0.049187,-0.013721,0.013686,-0.0043188,-0.033726
-0.0063186,0.13145,0.16143,-0.020765,0.024919,0.0015132,-0.015146,-0.0063466
-0.050145,-0.13675,-0.21326,-0.0059513,0.086312,0.0062447,0.037498,0.028586
0.0010962,-0.040128,-0.037578,0.39004,0.090455,0.019243,0.011822,0.038898
0.090759,-0.1028,-0.072269,-0.6172,-0.24532,-0.069719,-0.085464,-0.1323
-0.025155,0.025621,0.070362,0.1421,0.10955,0.027714,-0.0051554,0.022623
-0.027663,0.11702,-0.080923,0.15934,0.014553,0.0064256,0.010234,0.00399
-0.11269,-0.27584,0.034621,-0.24452,-0.13091,-0.039913,-0.015663,-0.031183
0.0012116,0.32924,0.18955,0.29162,0.1044,0.045205,0.034994,0.066554
0.041508,-0.015381,-0.11614,-0.47983,-0.16826,-0.034581,0.022526,0.0013298
0.048664,0.039611,0.071491,0.51385,0.1544,0.010423,-0.028604,-0.030801
0.024261,0.00020292,-0.2461,-0.21772,0.026742,-0.0066882,-0.015948,0.017321
0.016635,-0.26744,0.13617,0.10757,0.097641,0.031694,0.01419,0.020448
0.011267,0.11959,0.11113,0.11441,-0.055186,0.016347,0.054151,0.087233
-0.03027,0.20959,0.063798,0.067183,0.051507,0.0096405,-0.013519,-0.041148
-0.014072,-0.29164,-0.2773,-0.23119,-0.13068,-0.027849,-0.0019261,-0.053231
-0.018513,-0.036772,0.058051,-0.040236,-0.02514,0.0049594,-0.013418,-0.051363
-0.0050758,-0.029713,0.0081175,-0.12672,-0.0080244,-0.0017702,-0.0019038,0.042245
-0.068244,0.10806,-0.02876,0.079448,0.013887,-0.040549,-0.038308,-0.076896
0.0098816,0.050844,0.1183,-0.092864,-0.037377,-0.025551,-0.052654,-0.048764
0.18933,0.30724,0.20531,0.25633,0.042048,0.027706,0.064404,0.15878
-0.10894,-0.37378,-0.1528,0.16027,0.12045,0.049182,0.047466,0.023189
-0.0029798,0.22388,-0.052148,-0.16802,-0.050987,-0.015462,-0.040596,-0.033068
0.037754,0.026226,0.0053539,-0.17207,-0.057151,0.005971,0.019375,0.029263
-0.034053,-0.17378,-0.122,0.16507,0.024539,-0.0034815,-0.01447,-0.047897
-0.030977,-0.027887,-0.059245,-0.1716,-0.016556,-0.0046672,0.022152,0.0082662
0.023889,-0.045967,0.10088,-0.11185,-0.016488,-0.013251,-0.034727,-0.053041
-0.087465,-0.1347,-0.038342,0.40597,0.071167,0.0096982,0.0649,0.087749
0.057889,0.082044,0.0094822,-0.22894,-0.03549,0.0015105,0.00069988,0.00044645
0.10178,0.16132,0.17587,0.31747,0.061287,0.0010988,-0.11013,-0.096316
-0.048332,0.020157,0.087101,-0.12858,-0.068757,0.00056605,0.013749,0.00088846
-0.024259,0.13813,-0.06872,-0.1781,-0.035317,-0.015707,0.005274,-0.0041546
-0.020597,-0.16976,-0.096315,-0.27733,-0.033715,-0.00074885,0.044278,0.061299
0.025486,0.066957,-0.082054,0.22987,0.053505,0.006535,0.029282,-0.0049952
-0.05015,-0.22905,-0.042127,0.21135,0.015852,-0.0093047,-0.00068925,0.008595
0.033287,-0.081277,-0.086386,-0.22227,-0.044633,0.014372,-0.038002,0.00087879
-0.021848,0.18922,0.17551,0.14922,0.1146,0.0073142,0.018614,0.03435
0.13505,0.38594,0.1263,0.10832,-0.014131,0.00073209,-0.018683,-0.016337
0.010818,-0.09405,0.10195,-0.25821,-0.032489,0.010118,0.0060561,-0.01113
0.0030493,-0.34571,-0.15521,0.02633,-0.04237,-0.0037817,0.014527,-0.044433
-0.3185,-0.11208,-0.20756,0.18796,0.018258,0.0057113,0.0067288,-0.0074729
0.014717,0.0048766,0.046551,-0.21201,-0.062061,-0.055304,-0.064024,-0.033524
0.1512,0.012893,0.013306,-0.0033608,0.01305,0.0084121,0.021358,0.064617
0.06772,0.28694,0.012661,0.33548,0.11035,0.0093725,-0.017966,-0.0022688
0.13167,0.19388,0.18448,-0.29883,-0.036127,0.025773,0.021498,0.023567
-0.039684,-0.27499,0.12131,0.11578,-0.028164,0.01864,0.10091,0.087421
-0.19643,-0.25399,-0.3425,-0.022918,0.016967,-0.0354,-0.076587,-0.12319
0.028478,0.17679,0.11168,0.050884,0.021218,0.012099,-0.011222,-0.022266
0.10372,0.234,-0.064547,-0.36487,-0.085463,-0.010787,-0.00027706,0.01532
-0.13469,-0.029375,0.12786,0.13002,0.025483,0.013037,0.0026087,-0.018044
0.06356,0.01865,0.095039,0.18617,0.034316,0.0053428,-0.02651,0.034154
-0.082287,-0.2855,-0.15429,0.071356,-0.011451,-0.018322,0.060409,0.039394
0.14712,0.021107,-0.15727,0.13896,0.037239,0.027965,0.036607,0.052648
0.025806,-0.0034044,0.088827,-0.18791,-0.014413,-0.019788,-0.10568,-0.11333
-0.031659,-0.16715,-0.076958,-0.38526,-0.1192,-0.028615,0.0010444,-0.0052182
-0.056196,0.32353,0.090512,0.3437,0.13704,0.0095049,0.0057026,-0.0056986
-0.063295,-0.12899,0.17158,0.15465,-0.042689,-0.0067769,-0.012997,0.02589
0.10322,0.33714,0.081347,-0.22677,0.036558,0.047699,0.10173,0.10509
-0.12724,-0.30884,-0.28995,-0.051672,-0.031957,-0.014513,-0.063822,-0.17458
0.096393,0.15798,0.1028,0.092958,0.032482,-0.013807,-0.032994,0.045897
0.054678,-0.14089,-0.071409,0.18284,-0.012759,0.026176,0.061213,0.031665
0.035869,0.024172,0.027672,0.053493,-0.011689,0.011405,0.093386,0.14159
-0.062434,0.093282,0.20896,-0.26376,-0.019,-0.027158,-0.10106,-0.070081
-0.06908,-0.10238,-0.16343,-0.16675,-0.073515,-0.027238,-0.053864,-0.11922
-0.015794,-0.027324,-0.044698,0.0095728,0.028294,-0.020191,-0.023158,-0.01359
-0.012074,-0.027126,-0.037136,0.14904,0.091538,0.033078,0.014422,-0.010654
0.16109,0.20305,0.055307,0.088284,-0.0006737,0.023345,0.074678,0.10897
-0.050361,-0.1551,-0.046545,0.022609,-0.021736,-0.010097,-0.021705,-0.028941
-0.09085,-0.20744,0.043175,0.060481,0.0046506,0.003321,-0.0086362,-0.01738
0.025053,-0.12154,-0.10171,-0.057646,-0.047046,0.0013338,0.036217,0.019241
0.04842,0.6695,0.17065,0.033179,0.056858,-0.015872,-0.0039663,0.065607
-0.051055,-0.19777,-0.012005,0.026048,0.03443,0.022142,-0.050834,-0.073601
-0.007058,-0.072306,0.016133,-0.28383,-0.067959,-0.025181,0.0050541,-0.023675
0.03231,-0.1404,-0.15063,0.12632,-0.00048481,-0.0015726,-0.00046356,0.043013
0.082618,0.21503,0.24498,-0.22734,-0.067611,0.030446,0.026117,-0.022573
-0.012807,-0.10868,-0.087533,0.46151,0.1219,-0.0073084,0.0063029,0.0055333
-0.09842,0.027349,0.053067,-0.25784,-0.14981,-0.044623,-0.013488,0.0018209
-0.050091,-0.12098,-0.34304,0.070432,0.12607,0.0042961,-0.033746,-0.065333
0.037525,-0.10234,0.034836,-0.019995,0.005097,0.029882,0.038819,0.069487
0.054226,0.14425,0.22435,-0.14459,-0.074623,0.016274,0.039789,0.031234
0.069658,0.055071,-0.0098746,0.32234,0.12929,0.025722,-0.01539,0.023145
-0.033814,0.14472,0.10499,-0.07274,-0.070914,-0.020123,-0.05635,-0.087339
-0.02201,-0.064278,0.068631,-0.19059,-0.043013,-0.019833,0.018785,0.0361
-0.090183,-0.35413,-0.40814,0.19334,0.063734,-0.035906,-0.016006,-0.027945
-0.034942,0.23508,0.16692,-0.032513,-0.017161,0.0099463,-0.0037801,-0.013351
0.073782,0.053861,-0.026374,-0.13567,-0.052052,0.00083584,0.001492,0.01001
0.017605,-0.11757,-0.11289,0.27331,0.099216,0.023074,0.031651,0.0033534
0.038954,0.24339,0.3528,-0.5637,-0.17288,-0.0011106,0.016719,0.05265
0.14569,0.18314,0.081699,0.51016,0.1787,0.03009,0.0035615,-0.006424
-0.21698,-0.49346,-0.20731,-0.50389,-0.1738,-0.055132,-0.04725,-0.057218
0.013241,-0.019844,-0.15452,0.56753,0.12163,0.032153,0.051119,0.10267
0.054991,0.17598,0.24073,-0.30553,-0.051838,0.0025747,-0.030295,-0.066613
-0.052614,-0.30215,-0.45021,0.20582,0.11069,0.027596,0.02015,-0.011037
-0.043651,0.25129,0.23493,-0.054558,-0.039253,-0.033829,-0.048259,-0.020076
0.027708,0.08847,0.039666,0.10811,0.013746,-0.0023354,0.014046,-0.023466
0.03711,0.14053,0.1447,-0.033615,-0.02747,-0.010883,0.050744,0.096317
0.086774,0.048718,0.027057,-0.40253,-0.11625,-0.035961,-0.078476,-0.074113
-0.010255,-0.054322,-0.032301,0.20385,0.098903,0.039893,0.048907,0.044267
-0.12863,-0.48177,-0.11243,-0.019355,-0.084958,-0.0016535,-0.019361,-0.039766
0.044249,0.17181,-0.089712,0.12344,0.15285,0.011736,-0.0010827,0.0027761
-0.038635,0.12448,0.13589,-0.023428,-0.069977,0.033597,0.018666,0.0084346
0.075463,0.079009,-0.0072793,-0.02178,-0.010724,-0.029547,-0.0063658,0.03213
-0.051526,-0.081821,-0.0045084,0.13682,0.018558,-0.021351,-0.0055921,-0.020075
0.025014,-0.084401,-0.067068,-0.43001,-0.12248,-0.012226,0.013043,0.030927
0.10123,0.06368,0.0084381,0.62174,0.19903,0.028812,-0.013482,-0.034486
-0.081344,0.15941,0.019677,-0.21561,-0.040512,-0.00017942,0.007759,0.017061
0.00028895,-0.023875,0.092774,-0.1919,-0.060195,0.025366,0.091404,0.036189
-0.04465,-0.09593,-0.1226,0.115,0.084872,0.0034843,-0.10726,-0.10281
-0.083183,-0.010527,0.10901,-0.27885,-0.14479,-0.058314,-0.010894,0.045034
0.07262,-0.37794,-0.11793,0.087952,-0.0072951,0.011707,0.028511,0.0032236
0.079575,0.5038,0.03275,0.3095,0.14562,0.0026554,-0.059395,-0.055914
-0.053963,-0.077597,0.021598,0.010791,-0.061073,-0.0071292,0.04606,0.071471
0.031753,-0.014293,0.066434,-0.23835,-0.025735,0.013939,0.0096008,-0.0043931
0.032148,0.0046678,-0.05285,0.1548,0.032987,0.019372,-0.0038796,-0.024876
-0.045111,0.14202,-0.025306,-0.18615,-0.048896,-0.021719,0.014277,0.041929
0.04183,-0.22803,0.14761,0.19038,0.033293,0.047204,0.049176,0.047999
-0.11368,-0.15237,-0.22265,0.040783,0.060689,-0.023681,-0.047096,-0.061202
0.058328,0.22936,0.043224,-0.096829,-0.029417,-0.031182,-0.024265,-0.043568
-0.012642,-0.088638,0.086329,-0.12123,-0.065403,-0.014395,-0.022941,-0.00093436
0.056236,0.31057,0.095497,0.05386,0.061864,0.026557,0.003518,-0.0040218
-0.047343,-0.31174,-0.16158,-0.14096,-0.054028,-0.01008,0.03123,0.016969
-0.041812,0.008929,-0.096459,0.1627,0.024381,0.016063,-0.010735,0.0067633
0.034104,-0.20859,-0.065978,0.12224,0.054996,0.018749,0.048775,0.097552
0.040053,0.11613,0.049132,-0.097514,-0.11042,-0.010152,0.052781,0.0074877
-0.023841,0.30435,0.31256,0.14427,0.067458,-0.00061898,-0.10872,-0.1311
0.029882,0.11321,0.10713,-0.18404,-0.0048749,-0.023187,-0.014237,-0.029426
0.021352,-0.10017,-0.17773,0.11983,0.047744,0.031414,0.00019375,0.023439
-0.041862,-0.39406,-0.13802,-0.18734,-0.1731,-0.063348,0.028583,0.08247
0.027526,0.086558,-0.13595,0.12003,0.16839,0.044258,0.024609,0.023204
-0.11433,0.10281,0.036439,-0.03679,-0.0061871,-0.0048745,-0.050045,-0.098958
