-0.19892,-0.08664,-0.074524,0.027484,-0.0098978,-0.038068,-0.25478,-0.31364
-0.018905,0.019569,0.084699,0.022617,0.005811,0.00054958,0.054754,0.13306
0.073464,0.086889,-0.028713,-0.052743,-0.018206,0.038394,0.16219,0.096718
0.37727,0.038115,0.038004,0.059944,0.035397,0.03664,0.12261,0.17989
-0.21485,-0.079259,-0.0048082,-0.0059893,-0.028475,-0.035707,-0.056253,-0.078099
0.024875,0.055186,0.084282,-0.054973,-0.0299,-0.045607,-0.10151,-0.076225
-0.27057,0.0034873,0.023254,0.061423,0.078208,0.061792,0.0094216,0.01249
0.7651,0.2491,-0.18848,-0.055456,-0.055557,-0.057166,-0.091503,-0.0086378
-0.34634,-0.15437,0.019147,0.054981,0.045451,0.081932,0.14979,0.085798
-0.036436,-0.18442,-0.02548,-0.045149,-0.04063,-0.044349,-0.11842,-0.22821
-0.16606,0.056994,0.076796,0.0031959,-0.0091615,-0.0063188,0.041732,0.080798
-0.57187,-0.13301,0.10832,0.035729,0.038201,0.02418,0.021697,-0.033097
0.48067,0.012039,-0.17181,-0.064826,-0.031467,-0.054343,-0.099322,-0.029419
0.21112,0.032422,0.042313,0.0375,0.016092,0.00039846,-0.0312,-0.03172
-0.2623,0.15586,-0.029631,-0.016552,-0.0067282,0.0088078,0.16433,0.15633
0.56907,0.24251,0.10504,0.023161,0.009359,0.033416,0.018768,0.09746
-0.146,-0.21527,0.0087544,0.031754,-0.0060219,0.019465,0.10208,0.15819
-0.071646,-0.046087,-0.053443,-0.021977,0.0095943,0.0058292,-0.12567,-0.14729
-0.15342,-0.055504,0.011186,-0.036505,-0.029735,-0.046837,-0.15788,-0.32859
-0.31328,-0.15083,-0.12672,-0.011932,0.0010169,-0.0060443,0.058866,0.089153
0.097568,0.167,0.12535,0.020349,0.031592,0.049799,0.10163,0.16728
0.14236,0.35048,0.30544,0.13833,0.054261,-0.012296,-0.077142,-0.078935
0.048572,-0.56157,-0.52462,-0.16591,-0.094923,-0.059535,0.045807,0.015118
-0.15967,0.14189,0.12714,-0.0095363,0.0060515,0.0097946,-0.060474,-0.13524
0.34588,-0.0076101,0.04211,0.052847,0.0057741,0.016285,0.081284,0.15136
-0.099445,0.068361,-0.16994,-0.017627,0.01376,0.030594,0.026759,0.095428
0.54223,0.284,0.33513,0.037101,-0.0011457,-0.025072,-0.12137,-0.11408
-0.73832,-0.32957,-0.12216,0.01415,0.023576,0.029215,0.020789,-0.062199
-0.13763,0.0085923,0.036282,-0.078489,-0.02153,-0.017378,0.0088363,0.11067
0.031232,0.26684,0.13053,0.040489,0.019611,0.030425,0.23401,0.16188
-0.012853,-0.31283,-0.066172,-0.0040174,-0.025125,-0.046285,-0.31127,-0.33923
0.30114,0.074481,-0.249,-0.0091578,0.015855,-0.0055526,-0.01779,-0.018971
0.028836,0.17958,0.22335,0.032453,-0.0061569,0.027362,0.19202,0.18382
0.038172,-0.12112,-0.1634,0.0031046,-0.028879,-0.033725,-0.0421,0.18206
-0.16272,-0.26325,-0.15743,0.035075,0.017864,-0.0093333,0.067828,-0.1734
0.14476,-0.11198,-0.053658,-0.098634,0.0012197,0.045696,0.012829,0.1329
0.092922,0.71731,0.59483,0.078308,0.03843,0.0219,-0.33315,-0.54705
-0.23282,-0.32893,-0.19556,-0.066868,-0.018798,-0.010419,0.052511,0.12354
-0.1453,0.13226,-0.065806,-0.010385,-0.013986,-0.019916,0.23189,0.21604
0.058649,-0.38441,-0.064292,0.04523,0.0062843,0.032685,0.33,0.4267
-0.13628,0.205,0.11904,0.030424,-0.012338,-0.05541,-0.2386,-0.20485
0.27033,-0.13356,-0.1828,-0.08526,-0.030448,-0.07285,-0.4026,-0.34264
0.15367,0.48729,0.089788,0.058251,0.038188,0.090148,0.073722,0.13003
-0.15835,-0.27166,0.14537,0.016135,-0.0015439,-0.027052,-0.097182,-0.13922
0.01332,-0.32735,-0.36127,-0.016077,0.01447,0.052195,0.46104,0.27051
0.44904,0.3807,0.24138,0.055297,-0.0076331,-0.008245,-0.11012,-0.13392
-0.67228,-0.28126,-0.12404,-0.08256,0.025638,0.033345,-0.02926,0.068668
0.10217,0.17139,0.05973,-0.023896,-0.0267,0.027874,0.37487,0.30763
-0.15694,-0.03336,0.076231,0.027572,-0.016595,-0.11908,-0.71923,-0.66684
0.090526,0.036563,0.068631,0.0087384,0.00093476,0.0060094,0.15574,0.18503
0.28357,0.048275,-0.046517,0.051866,0.017854,0.043558,0.10779,0.059778
-0.02939,0.028626,0.0063894,-0.0075397,-0.0049736,0.0093582,0.33912,0.44329
-0.1909,-0.17521,-0.31007,-0.052561,-0.020605,-0.05698,-0.49439,-0.61593
0.16679,-0.036682,0.11444,-0.005152,0.010205,0.048496,0.4591,0.53197
0.07476,0.13416,0.27229,0.017621,0.0095729,-0.040468,-0.39336,-0.26826
-0.1865,-0.012722,-0.13401,-0.015203,0.0011788,-0.033975,-0.2773,-0.52409
0.21004,-0.070722,-0.14489,0.029595,0.024274,0.1232,0.44103,0.678
-0.29921,0.013951,0.24556,-0.027231,-0.038227,-0.061032,-0.15199,-0.3588
0.089597,0.20797,0.21491,0.049103,0.040238,0.092635,0.49026,0.64431
-0.12396,-0.093247,-0.37937,-0.053602,-0.068545,-0.12755,-0.43797,-0.68303
0.2007,0.16149,0.070696,0.063257,0.041521,0.074202,0.43679,0.58542
-0.25654,-0.47664,-0.37298,-0.076869,0.0030622,-0.037631,-0.45736,-0.62374
0.4733,0.098744,0.15698,0.033716,0.011216,0.0047234,0.081677,0.44522
-0.062851,0.19808,0.33323,0.027612,-0.004461,-0.033731,-0.33676,-0.34884
-0.24792,0.015769,-0.061978,-0.032938,-0.012768,0.010928,0.40571,0.50325
-0.050955,-0.033792,-0.090264,0.0080646,0.0097832,0.068751,-0.024598,-0.56558
0.066787,0.058668,0.061384,-0.02927,-0.046025,-0.070395,-0.054478,0.011858
0.13634,0.092382,0.22898,0.073688,0.046609,0.00084107,-0.11072,0.24101
-0.061055,-0.5782,-0.34553,-0.058092,-0.0010963,-0.013223,-0.050494,-0.33379
-0.12671,0.25299,-0.037533,-0.010492,-0.0091947,0.036923,0.2678,0.53377
0.041387,0.2603,0.14487,0.036915,-0.0087575,-0.019852,-0.13299,-0.24786
0.068809,-0.0078933,-0.18909,-0.025121,-0.0075522,0.043299,0.53407,0.54776
0.034224,-0.15295,-0.0081704,-0.02463,0.017743,0.0152,-0.49208,-0.71459
-0.093236,0.08172,0.27355,0.046217,0.027792,-0.034541,-0.12138,0.12496
-0.016581,-0.27502,-0.21129,-0.00015509,-0.0012303,0.049296,0.25995,0.1549
0.076498,0.50813,0.29468,0.031401,-0.015069,-0.078196,-0.52235,-0.22389
0.021483,0.27184,0.017359,0.007865,-0.0062999,-0.019635,0.39794,0.14798
0.23184,-0.52522,-0.23927,-0.078766,-0.029869,0.060141,0.16978,0.39219
-0.4805,-0.37614,-0.14757,-0.025476,-0.0077261,-0.073608,-0.50188,-0.82872
0.16535,0.048062,0.11279,0.027128,0.036817,0.094825,0.35433,0.26683
-0.041597,0.11698,-0.020049,0.032323,-0.0053191,-0.0043769,0.26477,0.42305
0.12556,0.27155,0.17396,0.037247,0.0069003,-0.09697,-0.6116,-0.49737
0.15182,0.038756,0.02478,-0.01245,0.011421,0.068022,0.50071,0.44705
-0.26671,-0.10977,-0.11391,-0.030478,-0.014783,-0.024042,-0.17832,-0.16148
-0.097967,0.13996,0.056851,-0.024322,-0.0088926,-0.0051269,-0.24208,-0.36622
0.041463,-0.2981,-0.44559,-0.024982,-0.0097833,0.078478,0.49654,0.47618
0.1753,0.41815,0.37194,0.05361,0.013832,-0.02296,-0.02586,0.17978
0.10811,-0.088939,0.064082,0.0082987,0.030593,-0.012628,-0.412,-0.65357
0.17537,-0.22082,-0.0032199,-0.028302,-0.061298,-0.054925,-0.030217,0.32676
-0.34234,0.0041954,0.23017,0.10752,0.073777,0.029302,0.12625,0.079736
-0.23471,-0.24389,-0.30146,-0.092482,-0.033282,-0.026212,-0.1232,-0.33492
0.20878,0.11227,-0.039093,0.0040529,-0.0078016,0.059113,0.30647,0.28263
-0.1683,0.2682,0.060923,-0.025113,-0.014095,-0.03567,0.094038,0.10871
0.25122,0.08422,0.19936,-0.0083318,-0.0054365,0.017008,0.058844,0.093306
0.045427,-0.20404,-0.45304,-0.00036134,0.0025034,-0.0098618,-0.33902,-0.31289
-0.082778,0.0062408,0.049292,0.0066659,0.017581,0.0084158,-0.045433,-0.10351
0.11613,-0.11987,0.12969,0.036314,0.024274,0.009192,0.18173,0.35401
-0.077227,0.20739,0.1968,0.018413,-0.016346,-0.046577,-0.28989,-0.54097
0.024043,0.30098,0.18315,0.054658,0.028683,0.044417,0.040543,0.33838
-0.088184,-0.42467,-0.37704,-0.089194,-0.059226,-0.014374,0.26779,-0.075911
-0.07781,-0.18785,-0.082611,-0.053606,-0.014268,-0.0037581,0.088013,0.35142
-0.053514,0.25431,0.084385,0.052283,0.046562,-0.0013555,-0.16233,-0.11965
0.22802,-0.11296,0.18042,0.01005,0.006274,0.040227,0.32157,0.1454
-0.17724,0.21127,0.097321,-0.00022162,-0.017764,-0.097284,-0.59327,-0.65689
0.059991,-0.16294,-0.25028,-0.017184,-0.0019791,0.078682,0.16326,0.23212
0.065439,0.014569,-0.19057,-0.017055,-0.0088031,-0.017559,0.12237,0.10985
0.11268,-0.069255,0.12727,0.015994,0.0086167,0.059409,0.15939,0.3438
0.12318,0.45136,0.27993,0.089766,0.026723,-0.049831,-0.14679,-0.21433
-0.38045,-0.53515,-0.22696,-0.077229,-0.025009,-0.05639,-0.23259,-0.36927
0.077406,0.10134,-0.01339,-0.024515,0.0015729,0.03946,0.067308,0.15217
-0.10565,0.31112,0.15172,0.028537,0.004584,-0.0048109,0.20714,0.27919
0.10108,-0.22861,-0.055334,-0.020329,-0.016296,0.036975,0.039159,-0.02021
0.127,0.058622,0.065489,0.046973,0.0089732,-0.046517,-0.12412,-0.090805
-0.24671,-0.046401,0.027596,0.0033433,0.025517,0.049031,-0.16631,-0.51203
0.35494,-0.011495,-0.11524,-0.057788,-0.037047,-0.020424,0.27821,0.65212
-0.24779,-0.24063,-0.14358,0.0041526,0.024469,0.034023,0.012013,0.017278
0.21057,0.23045,0.05424,0.056581,0.022762,0.0014604,0.017155,-0.066454
-0.16079,0.022758,0.013078,-0.048463,-0.049674,-0.063189,-0.028759,-0.092379
-0.11978,0.10876,0.057554,-0.0056547,-0.020592,-0.073569,-0.38498,-0.44391
0.18522,-0.20388,-0.097166,-0.009622,0.01663,0.041161,0.26048,0.42589
-0.15171,0.086664,0.052272,-0.012894,0.015415,0.070578,-0.044978,-0.044789
0.28412,0.097942,0.04677,0.070859,0.030603,0.054118,0.26253,0.44217
-0.29549,-0.022646,0.15976,-0.031684,-0.023771,-0.0784,-0.33844,-0.68197
0.032337,-0.058569,0.022297,0.069938,0.039594,0.04007,0.083965,0.19384
0.026426,-0.12999,-0.040562,-0.046521,-0.029623,-0.0049039,0.078553,-0.02261
0.16419,0.21296,0.084767,0.024739,0.0026022,-0.034129,0.02171,0.083912
-0.046025,-0.14988,-0.39409,-0.068223,-0.035896,-0.0090274,-0.054671,0.029703
-0.11968,0.10725,-0.04978,-0.028724,-0.0046406,0.00755,0.075854,0.17425
0.0054335,-0.032685,0.046413,0.033911,0.033889,0.023279,0.13133,-0.037513
-0.02294,-0.038799,0.16828,-0.036319,-0.037316,-0.055489,-0.2799,-0.34845
0.051977,-0.15269,-0.042261,0.049986,0.047643,0.044987,0.075525,0.037569
0.10394,0.1426,0.096196,-0.0037804,-0.023448,-0.010811,-0.029674,0.15117
0.0066694,-0.010569,-0.071044,-0.002242,-0.00037657,0.0041104,-0.0098602,0.16387
-0.1472,0.20208,0.22271,0.054388,0.0075641,-0.011478,-0.0055511,-0.26821
0.18067,-0.21009,0.032602,0.040636,0.031546,0.06758,0.092975,0.33941
-0.15838,0.17593,-0.20381,-0.051928,-0.03021,-0.047835,-0.08114,-0.46626
-0.10149,-0.10011,0.013442,-0.020769,0.017306,-0.022045,-0.1294,-0.091459
-0.093161,-0.20194,-0.29984,-0.092831,-0.037152,-0.0039005,0.33061,0.43233
0.32076,0.17522,0.11475,0.044338,0.017117,0.04518,-0.030078,0.0029017
-0.054105,0.17199,0.11756,0.0082517,-0.0074901,-0.023701,0.045195,0.21305
0.12657,-0.10232,0.13936,0.018291,-0.0093478,4.3871e-05,-0.21036,-0.36804
-0.2622,-0.29626,-0.10811,0.028378,0.027386,0.022495,-0.0084861,0.086747
0.013419,-0.011577,-0.09336,0.0002411,0.0092967,-0.0031728,0.0021936,-0.18875
-0.0084735,0.10288,0.10493,-0.034244,-0.039793,-0.07669,-0.12305,-0.10851
0.46004,0.49956,0.18852,0.042465,0.0054843,0.013324,0.14827,0.297
-0.37892,-0.13494,-0.12572,-0.019593,0.012591,0.040842,0.020942,-0.0022
-0.088382,-0.34068,-0.1602,-0.033167,-0.010529,0.014202,0.059156,-0.043706
0.027081,0.19409,0.19269,0.063779,0.053275,0.043202,-0.040398,0.033242
-0.0082251,-0.10116,-0.16185,-0.03401,-0.030571,-0.05159,-0.019093,-0.05156
0.11185,-0.1556,-0.091077,-0.014595,-0.0045646,0.011149,0.12321,0.21812
-0.22811,0.18824,0.24192,-0.0034261,-0.0018779,-0.049925,-0.2077,-0.36068
0.26264,-0.20858,-0.19235,-0.00078276,-0.0072153,0.0306,0.12787,0.19625
-0.086528,0.11657,0.022377,0.0010627,-0.013004,0.0024392,-0.066528,0.005765
0.24055,0.18832,0.04444,0.03345,0.0197,0.013717,0.043929,-0.041934
-0.17038,0.022565,0.031587,-0.028407,-0.026286,-0.0061891,-0.049502,-0.040996
-0.070153,-0.25662,0.039036,-0.0045469,0.013194,-0.010688,0.019736,-0.038695
0.032171,0.25498,0.097447,0.042796,0.021088,-0.0078427,-0.03775,0.042634
-0.23196,-0.00017533,-0.099483,-0.026799,0.013147,0.025573,0.020141,0.038306
0.17525,-0.23615,-0.093122,-0.025728,-0.026169,-0.035613,-0.025291,0.0099641
0.19028,0.18485,0.17652,0.022556,0.0047331,0.050657,0.21667,0.16745
-0.23446,-0.12977,-0.15214,-0.014892,-0.011349,-0.059446,-0.28518,-0.37327
0.10375,-0.10261,-0.057094,0.017951,0.011488,0.040307,0.08642,0.21479
-0.052948,0.14202,0.031561,0.011426,0.010727,0.037488,0.30032,0.21209
0.24103,0.074833,0.020752,0.019939,0.0020139,-0.028664,-0.28382,-0.19397
-0.083979,-0.098065,0.060525,-0.019226,-0.022383,-0.0015938,0.068931,0.10671
-0.22234,0.048701,-0.018782,-0.043656,-0.023271,-0.060566,-0.2343,-0.43891
-0.13383,-0.028219,-0.035068,0.0092228,0.015134,-0.0097728,-0.020591,0.038713
0.026486,-0.12265,0.0060597,-0.008789,-0.00077963,-0.004969,0.070504,0.096907
0.20479,0.166,0.09062,0.043293,0.03844,0.1183,0.37569,0.37088
0.20611,0.11998,-0.014909,0.0018153,0.0077685,-0.0069475,-0.07356,-0.036229
0.037884,-0.16718,-0.13869,-0.02348,-0.022612,-0.013556,-0.17609,-0.17873
-0.31657,-0.13433,0.062163,0.0067105,-0.021669,-0.065847,-0.0345,0.012771
0.14911,0.3257,0.078272,-0.016934,0.010334,0.015439,0.052905,0.098723
-0.13691,-0.1803,-0.068884,-0.016454,0.0028382,0.0032326,-0.087333,-0.20489
-0.12894,0.13414,0.09521,0.054655,0.0025374,0.014222,0.06677,0.08335
0.28966,-0.24873,-0.11092,0.0005632,0.0015443,0.0011189,0.037546,0.046712
-0.09967,-0.033446,0.022453,-0.054282,0.0077237,-0.012916,-0.089675,-0.19172
0.071153,0.17793,0.041787,0.15529,-0.033435,-0.012381,0.13819,0.26557
-0.07144,0.0028907,-0.036805,-0.081861,0.026781,0.018381,-0.067388,-0.042127
-0.14297,-0.026367,-0.063562,-0.085906,-0.0066091,0.03266,0.044645,0.003645
0.084701,0.013306,-0.013106,-0.020375,0.0073509,-0.031782,-0.10238,-0.1731
0.11272,-0.087735,0.093346,-0.048493,-0.017008,-0.0027492,-0.014567,-0.046247
-0.097506,0.0231,-0.015562,0.096336,-0.0092166,-0.028338,-0.057407,-0.019291
0.094326,0.1745,0.028907,0.032158,0.038546,0.032392,0.19245,0.33207
-0.01594,-0.14134,-0.069416,0.0094935,-0.0066747,0.023443,0.04071,-0.021704
0.21865,0.098496,0.079799,0.075242,0.011099,-0.031592,-0.14507,-0.13454
-0.11752,-0.13035,-0.071589,-0.075772,-0.01004,0.015768,0.048845,0.13398
-0.29129,0.0069607,0.060333,-0.038194,-0.031382,-0.037672,-0.10506,-0.29527
-0.12358,-0.068796,0.043465,-0.0084235,0.017101,0.026668,0.07144,0.099577
0.10445,0.12591,0.039538,0.067188,-0.005386,0.036679,0.10003,0.05891
0.33095,0.21564,0.031142,-0.038687,0.0026947,-0.039148,-0.013256,0.073142
-0.07596,-0.21361,-0.28728,-0.076397,0.025828,0.041139,-0.074601,-0.13271
-0.084224,-0.05965,0.0063641,0.040103,-0.045151,-0.05857,0.0087283,-0.0051271
0.025384,-0.13387,-0.063285,0.014435,0.016579,0.021017,0.048882,0.2989
0.10443,0.15891,0.18532,-0.0042236,0.015954,-0.048226,-0.24286,-0.45528
-0.26158,-0.16423,0.01203,0.047424,-0.023406,0.0071888,0.1032,0.15431
0.10637,0.21822,0.23886,0.021622,0.039207,0.077941,0.10398,0.1828
0.12165,0.017881,-0.21129,-0.018688,-0.01498,-0.015642,-0.020367,-0.18162
-0.075597,0.16456,0.021169,-0.065548,0.0014172,0.023276,0.19234,0.11653
0.10835,-0.021781,-0.095486,0.013721,-0.01333,-0.039757,-0.16324,-0.03904
-0.14632,-0.21356,0.039389,0.031264,0.0031058,-0.0016834,-0.039692,-0.061447
-0.11205,-0.13772,0.1123,-0.013404,-0.011906,-0.026565,-0.038354,0.11279
-0.014078,-0.013016,-0.11187,0.043268,0.011878,0.026329,0.10636,0.13311
0.13325,0.10628,-0.070919,-0.049164,-0.0036652,0.00096686,-0.097952,-0.32764
-0.012916,0.041162,0.024437,0.021503,-0.01161,-0.047674,-0.1048,-0.096783
0.047548,-0.043723,-0.004842,-0.072961,0.011556,0.021323,0.10085,0.091743
0.056051,0.10956,0.045209,0.058171,0.0033954,0.01286,0.096305,0.15966
0.073469,0.1176,0.11284,0.04017,0.026438,0.052002,0.091429,0.18414
0.027345,0.033603,0.026549,-0.0093848,-0.0052624,0.021457,-0.016587,-0.086584
-0.26417,-0.38681,-0.21383,-0.082255,-0.02924,-0.055589,-0.15087,-0.17059
-0.0058175,-0.013478,-0.015358,0.025074,-0.022092,-0.03884,-0.15624,-0.16443
0.051743,0.24461,0.08934,0.055073,0.047422,0.032326,0.20885,0.35113
0.034058,0.095981,0.1063,-0.023375,-0.023787,-0.02981,-0.10256,-0.16496
0.099052,-0.02352,0.0023556,0.047511,0.029994,0.055927,0.2694,0.42706
-0.28987,-0.21607,-0.099154,-0.044941,-0.041105,-0.046319,-0.15075,-0.49723
0.13567,0.10493,0.097575,-0.027558,0.005255,-0.0004118,-0.11929,-0.15453
0.057784,0.097718,-0.032602,0.013423,0.012963,0.014224,-0.032865,0.052226
-0.0063343,-0.13298,-0.1606,-0.023835,0.0055527,0.02128,0.063462,0.064559
0.053041,-0.16137,-0.042222,0.024515,-0.016956,-0.018113,0.007185,0.12084
0.15684,0.032265,0.090983,0.04115,0.023491,0.044571,0.15873,0.14612
-0.111,0.037479,-0.046913,-0.0052235,-0.0060758,-0.040682,-0.036209,0.13441
-0.13591,0.24736,0.172,-0.044252,-0.01213,-0.031786,-0.14829,-0.3595
0.10298,0.037828,0.038919,0.033568,0.020705,0.032039,0.19652,0.29572
-0.11507,0.072175,0.039257,-0.021569,-0.0093555,-0.0056314,-0.21414,-0.28543
0.029285,-0.25333,-0.19441,-0.029739,-0.0087149,-0.0043389,0.02435,-0.059418
-0.04969,0.027037,0.047443,0.024913,0.0069532,0.027966,0.035391,0.064052
0.024232,-0.10559,-0.081233,0.0019243,-0.0013504,-0.002569,0.0050786,0.066333
-0.075202,-0.021195,-0.0051503,-0.036155,-0.041282,-0.041317,0.096418,0.10923
0.23994,0.051761,0.069613,0.098083,0.020178,0.013259,-0.050586,-0.081963
-0.10687,0.073402,0.12476,-0.0018342,0.019164,0.0049122,-0.022005,-0.007443
0.041423,0.16898,0.15829,-0.008074,0.026127,0.011792,-0.044035,-0.064782
-0.0028508,-0.13699,-0.34649,-0.077165,-0.0057627,0.0026841,-0.0064692,0.10719
-0.045444,-0.18665,0.0089205,0.0094669,0.0015746,0.0167,0.060649,-0.090579
0.083851,-0.0017827,-0.071171,-0.021639,-0.030091,-0.063275,-0.036546,-0.030201
0.062899,0.21588,0.071541,0.04059,0.008499,0.083182,0.086268,0.16622
-0.27386,-0.29075,-0.10731,-0.022356,-0.038982,-0.051583,-0.069513,-0.17068
0.088425,0.47045,0.33224,0.078842,0.038392,-0.0064246,0.044087,0.13264
0.048396,0.022019,-0.037603,-0.054067,0.0063084,0.00014812,-0.14259,-0.25914
-0.0099634,-0.29371,-0.09862,-0.022595,-0.0023038,0.0074288,0.081496,0.23921
-0.053478,-0.04865,0.039873,0.048144,0.0048803,-0.0078496,0.020485,0.016349
-0.040806,0.14655,0.033341,-0.006159,-0.0032657,0.0090537,-0.07679,-0.15732
0.10052,-0.14626,-0.15862,-0.0061421,-0.034477,0.018973,0.22547,0.48017
0.059538,-0.27851,-0.10784,-0.061492,0.012822,-0.033049,-0.090363,-0.37954
-0.061562,0.45377,0.29363,0.093208,0.037005,0.03227,-0.10445,-0.059766
0.033626,-0.12,-0.23648,-0.042073,-0.0011129,0.034776,0.095618,-0.015389
0.05459,0.095324,0.12943,0.025042,-0.000128,-0.02596,0.024501,0.042564
0.014827,0.14783,0.13353,-0.040983,0.0007432,0.013838,-0.052196,-0.0014527
-0.15053,-0.2507,-0.051775,-0.013026,-0.06111,-0.12714,-0.23504,-0.13651
0.056378,-0.17795,-0.2459,-0.0076705,0.017395,0.066906,0.19657,0.34456
-0.053463,0.25682,0.028894,-0.024403,0.0097192,0.0026177,0.018474,-0.20241
0.011463,0.061272,0.13319,0.054246,0.017494,0.01642,-0.094967,-0.11742
-0.068961,-0.18673,0.060235,0.079789,0.009544,0.015021,0.077075,0.063031
0.042091,0.020307,-0.11116,-0.057544,-0.014083,0.014359,0.23121,0.31648
0.033413,-0.067932,0.087955,0.079078,0.024743,-0.0089119,-0.28852,-0.35004
0.13294,0.25918,0.032271,-0.073631,-0.022446,-0.031494,0.10314,0.20179
0.045008,-0.014302,-0.028948,-0.07107,0.016182,0.10254,0.29538,0.36698
-0.057635,-0.076201,-0.049829,-0.030898,-0.046895,-0.12283,-0.51059,-0.57701
-0.15882,-0.13783,-0.070531,0.054563,0.022716,0.0029499,0.011374,-0.11811
-0.11764,-0.16841,-0.068654,0.029262,-0.009295,-0.0047773,0.015746,-0.048112
0.2769,0.22208,0.17365,0.026452,0.029046,0.064818,0.28238,0.4986
-0.19404,0.0328,-0.078727,-0.047064,-0.010599,-0.022582,-0.11155,-0.3221
0.063066,0.12993,0.12677,0.0045424,-0.010972,-0.0011584,0.067868,0.20917
-0.014651,0.035831,-0.0070888,0.033208,-0.011125,-0.042501,-0.10123,-0.10928
0.43953,0.14811,-0.042927,4.4517e-05,0.035759,0.08027,0.28012,0.34168
-0.41862,-0.45537,-0.035182,-0.0012199,0.012379,-0.023175,-0.34173,-0.52167
-0.05824,0.01506,0.0090255,-0.025432,-0.034533,-0.047911,-0.10589,0.068549
-0.018566,-0.11089,-0.073204,0.02095,0.012085,0.045274,0.11447,0.11448
0.0051599,0.19263,0.040003,-0.041933,-0.01189,-0.040444,-0.069397,-0.093051
0.13821,0.0065078,0.0066644,0.02805,-0.020488,-0.00042693,0.20347,0.1972
-0.064398,0.020846,-0.030897,-0.01121,0.041122,0.079252,0.12938,0.040479
0.23358,0.20625,0.077072,0.035796,0.0091097,-0.020358,-0.06489,0.045994
-0.1943,-0.069335,-0.090646,-0.072864,-0.053749,-0.065114,-0.18458,-0.41209
-0.012129,-0.072007,0.13766,0.030226,0.016867,0.030692,0.058197,0.1805
-0.18103,-0.21735,-0.035873,-0.037641,-0.013246,-0.037824,-0.12714,-0.060809
0.14247,0.11739,0.012075,0.1219,0.012184,0.033876,0.1641,0.16673
0.20811,0.28129,0.076335,0.00074051,0.046122,0.02694,0.00087098,0.056447
-0.16401,-0.24358,-0.19671,-0.065617,0.0022994,-0.004003,0.02283,0.036243
0.14321,0.15037,0.074051,-0.015204,-0.010354,-0.012094,-0.098612,-0.24683
-0.25294,-0.35037,-0.10466,-0.012568,-0.015742,0.0026935,-0.019658,0.058059
-0.063147,-0.0039123,0.016775,0.035696,-0.022051,-0.014254,0.096119,0.083789
0.12705,0.14313,0.079239,-0.034605,-0.013852,-0.015938,-0.070789,-0.035887
0.12272,0.16159,-0.0024878,0.010999,0.0088856,-0.0021979,0.019612,-0.033638
0.10382,0.075347,0.061592,-0.014709,-0.0004664,0.019328,0.040073,0.030264
-0.23433,-0.084158,0.030237,0.068364,0.036612,0.048802,-0.071251,-0.14648
-0.1186,-0.1217,-0.095722,-0.059653,-0.043494,-0.077715,-0.071833,-0.14768
0.21602,0.17348,0.090642,0.062582,0.064302,0.10861,0.55396,0.89533
-0.1298,-0.026791,-0.081992,-0.033369,-0.038172,-0.10314,-0.60821,-0.82155
0.31166,-0.394,-0.16783,-0.050439,-0.0070818,0.013619,0.19904,0.29496
-0.21059,0.35404,0.20077,0.034873,-0.0144,-0.048962,-0.22788,-0.23302
-0.033239,-0.062445,0.047609,0.01157,0.049001,0.068453,0.055908,0.10034
-0.070696,-0.032302,-0.072359,-0.01895,-0.0047104,0.045483,0.37038,0.38658
0.052254,-0.01473,-0.049725,0.013381,-0.027432,-0.024209,-0.12064,-0.24354
-0.0073483,0.02282,-0.064434,0.022347,0.0040164,-0.015714,-0.089195,-0.25246
0.10334,-0.083204,0.086043,-0.00013495,-0.01205,-0.038485,-0.08998,-0.015883
0.018751,0.1433,0.13517,0.0004225,0.002534,0.0090056,0.072432,0.26322
-0.16568,0.099355,-0.074394,-0.06982,-0.014544,0.0017719,-0.1017,-0.28142
0.082833,0.087595,0.11251,0.046995,0.03075,0.025804,0.12233,0.35153
-0.00017165,-0.26138,-0.25802,-0.023966,-0.0019051,0.010857,0.065159,-0.055227
-0.093813,0.12879,0.12629,0.0065993,-0.010696,-0.027396,-0.21051,-0.32864
0.067406,-0.094241,0.00032686,0.02956,0.0045106,-0.018635,0.05313,0.23514
