-0.0086375,-0.033307,-0.048962,-0.022981,0.0060869,0.033448,0.013077,0.0032449
0.015318,0.03916,0.077671,0.099555,0.027612,-0.040323,0.0039803,0.011659
-0.039725,-0.069864,-0.079627,-0.083599,-0.022099,0.024876,0.010115,-0.019795
-0.033107,-0.016285,0.0044186,-0.040582,-0.041113,-0.035964,-0.038538,-0.036128
0.011945,-0.010284,-0.050761,-0.03612,-0.036653,-0.034547,-0.0088525,0.0020708
0.025481,0.097562,0.12421,0.09485,0.023243,-0.024688,-0.0021106,0.032597
0.0079415,0.01137,0.093498,0.017276,0.076765,0.13504,0.067829,0.11812
0.030066,-0.018092,-0.095232,-0.010494,-0.039643,-0.046938,-0.033324,-0.10855
-0.032821,0.0017334,0.018651,-0.011885,0.0023219,-0.015657,-0.008751,-0.022557
-0.055572,-0.14804,-0.16781,-0.073431,-0.0085131,0.010053,-0.0070824,-0.022584
0.047682,0.13352,0.179,0.061499,-0.010304,-0.032754,-0.0051869,0.047344
0.011023,0.001562,-0.13126,0.00066684,0.035013,0.019253,0.012191,0.022943
-0.0097777,0.040648,0.27342,0.11728,0.0090743,0.016739,0.013427,-0.041213
0.09407,0.085256,0.054518,0.050317,0.05136,0.029101,0.037277,0.058032
-0.092081,-0.21747,-0.44594,-0.21699,-0.081192,-0.038192,-0.057063,-0.069768
0.0094331,0.037816,0.10744,0.010293,0.0094417,0.017477,0.0038416,0.013196
-0.078192,-0.055469,-0.011119,-0.079778,-0.075006,-0.093115,-0.029823,-0.02864
0.027885,0.049835,0.036319,0.022015,-0.0056682,0.044301,0.02198,0.047272
0.062332,0.19053,0.32291,0.19269,0.062389,0.0083628,-0.004372,-0.016625
-0.02124,-0.1008,-0.27314,-0.088964,0.013373,0.018528,0.00093077,-0.001499
0.0043174,-0.14289,-0.25663,-0.10217,-0.01076,0.036494,0.03041,0.04565
0.014597,0.08157,0.30449,0.12328,0.030081,-0.030806,0.0061024,0.015141
-0.021124,-0.082115,-0.12749,0.017737,0.019274,0.020265,-0.0095241,-0.069992
0.014765,0.086091,0.15078,0.0029179,-0.0040568,-0.020931,0.030208,0.055488
0.036645,0.24335,0.45887,0.17959,0.022217,-0.021498,-0.039054,-0.022729
-0.064635,-0.23485,-0.43115,-0.25025,-0.074429,0.018458,-0.014477,-0.039038
0.00012945,0.0031871,-0.23949,-0.029919,-0.052556,-0.081004,-0.044715,-0.040082
-0.011193,0.027613,0.13429,0.027261,0.071521,0.11726,0.057638,0.068331
0.002894,-0.13853,-0.26341,-0.12597,-0.038676,-0.012162,0.0035491,0.0054829
0.010904,0.051033,0.16906,0.096305,0.030543,0.0068731,-0.0037354,-0.032834
0.0045627,0.0016619,0.13514,0.022355,-0.017937,-0.052564,0.0046909,0.031788
0.053472,0.0011766,-0.08392,0.050609,0.026639,0.020207,0.01334,0.019649
-0.069857,0.11823,0.17517,0.079114,0.031281,-0.032736,-0.04021,-0.0070855
0.047591,-0.00077129,-0.08943,-0.033636,0.003602,0.06991,0.023722,-0.0021382
0.10792,0.19666,0.21326,0.12514,0.029332,-0.046666,0.025361,0.033746
-0.20216,-0.36966,-0.24821,-0.27412,-0.12607,-0.022817,-0.051073,-0.072039
0.093486,0.17376,0.27306,0.095478,0.021721,0.0011009,0.0286,0.02369
-0.098815,-0.15025,-0.31101,-0.094912,-0.019428,0.0096439,-0.024886,-0.069984
0.065266,0.033781,-0.11809,0.029719,0.078806,0.1044,0.061722,0.076653
0.00078719,0.032099,0.1424,0.087335,-0.011419,-0.097623,-0.063278,-0.03609
0.029295,0.026789,-0.07301,-0.014386,0.030526,0.036048,0.021909,0.04542
-0.027642,-0.088709,-0.18144,-0.054868,-0.045051,-0.034115,-0.018673,0.0014562
-0.036144,0.0086497,0.338,0.0068715,-0.058196,-0.089838,-0.020914,-0.026803
0.090435,0.18041,0.22449,0.094416,0.10069,0.18881,0.0856,0.031397
-0.046072,-0.1659,-0.51851,-0.12692,-0.052561,-0.042074,-0.034915,-0.050224
0.077614,0.29026,0.5246,0.1951,0.060364,-0.0089328,0.016187,0.056591
-0.08587,-0.2487,-0.38894,-0.1426,-0.03688,-0.031593,-0.026452,-0.030965
0.040939,0.075207,0.254,0.06261,-0.015914,-0.10143,-0.037499,0.015162
-0.058249,-0.075577,-0.019206,-0.033872,-0.024903,0.048237,0.014672,-0.01606
-0.03239,-0.077534,-0.30686,-0.12061,-0.03234,0.012272,0.0054462,-0.038777
0.040097,0.099571,0.058479,0.051298,0.055689,0.072908,0.03672,0.03289
0.026342,0.017829,0.11222,0.035511,-0.010814,-0.042651,-0.016287,0.019211
0.028033,-0.025712,0.10203,0.07335,0.088239,0.087637,0.018348,-0.0017387
-0.040549,-0.046108,0.034972,0.023533,-0.038223,-0.060001,-0.039213,-0.0066093
-0.038558,-0.066098,-0.13488,-0.083074,-0.031435,-0.017589,0.005996,-0.018983
0.065401,0.11017,-0.20976,0.011288,0.0063819,-0.012746,0.0050222,0.0078136
-0.017711,0.10002,0.22802,0.002259,-0.011279,-0.046623,-0.011507,0.018849
0.032322,-0.04217,-0.098554,-0.039144,0.0089725,0.090646,0.057315,0.029502
-0.0034407,0.12037,0.1585,0.059969,-0.011071,-0.023672,-0.015673,-0.030747
-0.0080387,-0.061716,0.22149,-0.011739,0.0069043,0.008286,0.003447,0.0020461
-0.09106,-0.30016,-0.64163,-0.21412,-0.10079,-0.087209,-0.065254,-0.06744
0.012957,0.20146,0.43702,0.23483,0.088129,0.010097,-0.0030202,0.049955
0.030453,-0.14276,-0.31717,-0.086605,0.0036523,0.058098,0.010696,-0.028417
0.039454,0.066102,0.28815,0.11788,0.052068,0.02568,0.030986,0.017923
0.039844,0.11002,0.19386,0.073546,0.029981,0.045779,0.027079,0.064083
-0.046646,-0.11186,-0.32412,-0.19021,-0.086592,-0.05337,-0.031819,-0.03837
0.037652,0.22125,0.35377,0.15267,0.084474,0.017426,0.034336,0.030788
-0.066737,-0.023388,-0.17553,-0.11064,-0.1059,-0.061909,-0.032043,-0.0098351
-0.031678,-0.20542,-0.46972,-0.12204,-0.033115,-0.025346,-0.01993,-0.058798
0.049242,0.096537,0.32974,0.165,0.060619,0.0027088,0.015975,-0.022385
-0.018962,-0.055539,0.052456,-0.053521,0.0038557,0.0073841,-0.010333,0.029189
0.02199,-0.01353,-0.14954,-0.018125,0.016193,0.098882,0.033894,0.018025
0.039842,0.050713,0.041318,0.031444,0.012859,-0.0032518,0.015829,0.038202
-0.027321,0.020433,0.14641,-0.011352,-0.020445,-0.017101,-0.017577,-0.011469
0.00074333,0.037064,0.046279,0.020359,-0.043355,-0.075014,-0.042702,-0.021246
-0.031747,0.054809,0.11274,0.050811,0.0077076,-0.043961,-0.012395,-0.0064385
-0.015089,-0.2533,-0.26829,-0.090331,0.031864,0.10726,0.026783,-0.0058836
0.0039763,-0.050327,-0.25176,-0.097906,-0.033232,-0.0045094,0.0047914,-0.011665
-0.0059075,0.14868,0.34921,0.18363,0.054172,-0.051725,-0.015735,-0.00038912
0.056453,0.062427,-0.13963,0.0024708,0.027457,0.042923,0.035434,0.043357
0.049818,0.11198,0.21536,0.012176,-0.021045,0.012865,0.025159,-0.0058038
-0.010975,0.038049,0.12816,0.037706,0.00078231,-0.033476,-0.015864,5.2115e-05
-0.072086,-0.090916,-0.078115,-0.1038,-0.025839,0.082766,-0.0023856,-0.0021687
-0.017099,-0.13616,-0.41584,-0.11815,-0.047524,-0.06084,-0.028858,-0.028683
-0.0028508,0.096172,0.35376,0.15689,0.028642,-0.058246,-0.0021168,0.021566
0.0015647,-0.24616,-0.5602,-0.16221,0.0070653,0.051658,0.014971,-0.0080109
-0.019589,0.18858,0.57658,0.12809,-0.057321,-0.12127,-0.055814,-0.0081715
0.050932,-0.083071,0.0077965,0.013531,0.054893,0.040785,0.027884,-0.0022609
0.033587,0.034033,-0.28729,-0.035066,0.0086785,0.061879,0.016436,0.0022014
0.0066695,0.20541,0.30413,0.1019,0.070649,0.10649,0.035327,0.029097
0.017228,-0.09116,-0.18306,-0.12001,-0.023885,0.041955,0.022573,-0.0069811
-0.075161,0.082567,0.12172,0.051306,-0.031934,-0.10057,-0.036975,-0.011739
0.0032186,-0.077837,-0.18497,-0.054412,-0.023168,-0.040052,-0.025728,-0.0003086
-0.036297,-0.095953,0.14877,0.016882,-0.051796,-0.073522,-0.021493,-0.019179
0.049007,-0.05029,-0.087094,0.015373,0.038748,0.033411,0.015011,0.017823
-0.029318,-0.066322,-0.18189,0.0030306,0.014225,-0.00025903,0.013592,-0.014245
0.026226,0.16017,0.26145,0.064666,0.023003,0.021188,0.0055076,0.017313
0.013051,0.066276,0.021859,-0.059052,-0.021153,0.020058,0.014083,0.026287
0.017463,-0.0045999,-0.05986,-0.010398,0.021872,0.027891,0.023477,-0.0033134
0.047436,0.13483,0.31003,0.14663,0.057652,0.021276,-0.021293,0.0062498
-0.12365,-0.23419,-0.29308,-0.20627,-0.086436,-0.046955,-0.050242,-0.05472
0.043009,-0.0020233,-0.035096,-0.0071366,-0.0048528,0.025762,0.014436,0.0088944
-0.015481,-0.089993,-0.19782,0.0096658,-0.010666,-0.019098,0.00059404,-0.0060692
0.01286,0.049529,-0.038247,0.008698,0.020776,0.028712,0.033016,0.0020472
-0.013196,0.081354,0.24241,0.053223,-0.020003,-0.073505,-0.021265,-0.0056493
-0.00055537,0.037232,0.20135,0.13622,0.070254,-0.013449,0.0095266,0.041316
0.065735,-0.12188,-0.40116,-0.17921,-0.044069,0.060593,0.0081643,-0.0054134
-0.033694,0.12689,0.085126,-0.0021492,-0.010956,0.016279,0.013742,0.010376
0.083495,0.21212,0.50471,0.19864,0.060735,-0.020702,0.0029431,0.033851
-0.10637,-0.31292,-0.5022,-0.24116,-0.10971,-0.057406,-0.06307,-0.075823
-0.017236,0.19882,0.38334,0.20154,0.087568,0.00057803,0.003529,0.017102
-0.03928,-0.26931,-0.19994,-0.16106,-0.018883,0.098993,0.02345,-0.023422
0.062655,0.0088975,-0.26179,-0.0087524,-0.0069004,-0.0042389,0.020543,0.013562
0.023914,0.12754,0.11819,0.080461,0.0064766,-0.004655,-0.0048371,0.018821
-0.045141,-0.13117,-0.21697,-0.14312,-0.049081,-0.027748,0.0022235,-0.015225
0.0047436,-0.00029097,0.14685,0.031845,-0.0096898,-0.050713,-0.044167,-0.025811
0.017819,0.29496,0.60886,0.23852,0.085273,-0.027294,0.0042758,0.049796
0.087942,-0.041219,-0.33748,-0.0541,0.055718,0.15143,0.08472,0.039885
0.0039022,0.015263,0.0047258,-0.002176,-0.020634,-0.014715,-0.0064085,-0.016403
-0.11767,-0.20724,-0.33935,-0.12916,-0.073787,-0.080262,-0.03521,-0.048737
-0.035277,-0.12291,-0.1961,-0.14602,-0.09608,-0.052556,-0.033334,-0.033692
0.031661,0.18204,0.48284,0.15816,0.0219,-0.040285,-0.024455,0.020907
0.090431,0.02754,0.12819,0.049046,0.07722,0.097924,0.04609,0.03694
-0.062408,0.0069552,-0.21285,0.057919,0.038877,0.011127,-0.016842,-0.01684
0.010544,-0.0129,0.068613,-0.049605,0.016443,0.074647,0.029249,0.023611
-0.018765,-0.040211,-0.12246,-0.093944,-0.04471,-0.039702,-0.018407,-0.021466
-0.017355,0.034017,0.087051,0.03405,-0.019689,-0.027668,-0.011069,-0.0037762
0.014942,-0.032793,-0.015982,0.037161,0.013134,-0.022761,0.0045582,-0.0016571
0.031339,-0.02229,-0.035263,-0.014723,0.014385,0.028918,0.036282,0.0080618
-0.0072744,0.010453,-0.027234,-0.0048708,-0.024034,-0.045199,-0.0020043,-0.0061566
0.023923,0.11197,0.22576,0.066309,0.0070777,0.020066,-0.0012085,0.02574
0.015301,-0.014819,-0.27652,-0.059268,-0.0094692,0.0058393,-0.0085084,0.0020106
-0.041185,-0.049631,0.16189,0.024608,-0.003168,-0.017365,-0.024129,-0.022705
-0.012808,-0.03907,-0.098201,-0.033363,0.034166,0.013402,-0.0012659,-0.0092208
-0.016602,-0.060669,-0.16417,-0.037283,-0.029781,-0.026296,-0.017921,-0.01974
0.0025524,0.097413,0.33336,0.091838,-0.0069654,-0.018738,-0.011302,0.016498
0.0062801,-0.0559,-0.26768,-0.12154,0.017172,0.1302,0.058047,0.021902
0.011041,0.066489,0.22939,0.089226,0.019558,-0.024672,0.010836,-0.010809
0.0098594,0.051527,0.036095,0.0061703,-0.030902,-0.10847,-0.043256,0.020374
0.011216,-0.10792,-0.26202,-0.065637,0.021941,0.10505,0.044351,-0.017088
-0.00015919,-0.021059,0.17762,0.045516,-0.025402,-0.048586,-0.015457,-0.0059551
-0.079019,0.030482,0.11889,0.034184,-0.01729,-0.046325,-0.043226,-0.024546
0.055368,-0.024595,-0.33857,-0.046232,0.045491,0.072505,0.038798,0.020463
0.050504,0.13254,0.3426,0.083878,0.013628,-0.051563,-0.0042032,0.034713
0.0067184,0.015711,-0.09659,0.008714,0.011285,-0.020018,-0.008615,0.0018596
-0.014844,-0.064457,-0.22684,-0.062316,-0.0090853,0.057956,0.017366,-0.0085047
-0.062315,-0.10959,0.0069103,-0.10683,-0.063499,-0.028353,-0.028092,-0.036055
0.027415,0.074502,0.043156,0.031051,-0.0035545,-0.0053295,0.011139,0.012556
-0.043009,-0.0047446,0.2504,0.054781,0.014828,0.041161,0.0022857,-0.011235
0.038981,-0.050059,-0.096631,-0.011217,-0.0077213,0.0016919,0.0002212,0.0021127
-0.0072612,-0.0056383,-0.12197,-0.0014492,0.038992,0.016749,0.0052503,-0.0094792
0.022423,0.12234,0.33111,0.085715,0.03083,0.0002396,0.0099411,0.032713
-0.0034759,-0.093943,-0.45617,-0.10751,-0.03924,-0.063546,-0.01655,-0.0034532
0.0023506,0.073921,0.30486,0.084276,0.016884,-0.041747,-0.011346,0.015476
-0.0526,-0.12254,-0.28484,-0.11139,-0.050418,0.034576,-0.0053949,-0.034978
0.043561,0.17709,0.40699,0.14981,0.032462,-0.053031,-0.0063303,0.0017848
0.0023089,-0.097037,-0.23717,-0.038211,0.046768,0.13324,0.056196,0.016543
0.019026,-0.0075406,-0.045473,-0.08967,-0.046677,0.0076893,0.0023894,0.0014503
0.0073914,0.01527,-0.072299,0.034107,0.0019671,-0.031138,-0.019531,0.0031921
-0.017716,-0.029598,0.16726,-0.026807,-0.026206,-0.0067026,-0.01765,0.0058498
-0.026018,-0.0027263,-0.091851,-0.0074538,-0.0063263,-0.02849,-0.0078522,-0.029982
0.0127,0.10243,0.1195,0.11484,0.061488,0.012751,0.0096716,0.0047267
-0.011878,-0.12159,-0.065897,-0.098292,-0.041658,-0.02369,-0.012046,-0.0075202
0.047957,0.042949,-0.046999,0.0084571,-0.019115,-0.04409,0.0051221,0.01114
-0.089487,-0.084437,0.050137,0.027841,0.01158,0.014052,-0.016892,-0.002008
0.052219,0.081675,0.044371,0.013582,0.049933,0.080381,0.046976,0.023173
0.0044667,0.072313,0.020024,0.042982,0.0015872,-0.0093098,-0.014195,-0.0072069
-0.013637,-0.026504,-0.01657,-0.072019,-0.024735,-0.013124,-0.012963,0.0005072
0.068714,0.019995,-0.027365,0.012153,0.025074,0.045086,0.034911,0.015033
-0.036991,-0.084346,-0.13767,-0.032348,-0.021254,-0.038264,-0.01138,-0.026076
-0.072397,-0.057264,0.067112,-0.0094786,-0.054442,-0.037011,-0.027017,-0.028916
0.0098478,-0.061591,-0.15387,-0.066581,-0.01175,0.017376,-0.004307,-0.0010499
0.10073,0.30242,0.50601,0.23515,0.07613,-0.015699,0.017665,0.050024
-0.07296,-0.21403,-0.4041,-0.16547,-0.032206,-0.010942,-0.023503,-0.015985
0.027894,0.054057,0.094597,0.013939,5.3092e-05,0.016524,0.013012,-0.00346
-0.018671,0.029055,0.058687,0.047612,0.017471,0.012611,0.0024753,0.0097026
0.0058819,-0.031213,-0.15116,-0.040648,0.005043,0.001316,0.015478,0.0080115
-0.00030403,-0.025674,-0.011009,0.0068899,-0.01345,-0.0013339,0.0053877,-0.024121
0.0015167,0.013516,0.14287,0.033501,0.0089049,-0.0029938,-0.019812,0.007015
0.018868,0.085167,0.25465,0.054047,0.032808,0.05092,0.018084,0.015392
-0.026589,-0.093266,-0.38839,-0.13551,-0.051551,-0.035225,-0.037184,-0.022543
-0.002154,0.016064,0.00072186,0.0029877,-0.010323,-0.01186,0.0017961,-0.0053436
-0.0093916,0.013767,0.10737,0.031236,0.0075398,-0.0044032,0.025511,-0.0034427
0.029914,0.008657,-0.015546,0.03458,0.025064,0.018115,0.033797,0.022098
-0.048148,-0.077487,0.029247,-0.0029549,-0.012687,-0.0303,-0.043811,-0.022612
0.069087,0.09163,0.085087,0.043528,0.019227,0.006794,0.0035163,0.049765
-0.016676,-0.06139,-0.17573,-0.083648,-0.027518,-0.018643,0.0038699,-0.018761
-0.016289,-0.00434,-0.03329,-0.0091449,-0.0042278,0.0032683,-0.011449,-0.01742
-0.0078554,0.045037,0.17038,0.048788,0.019115,0.026126,0.0045634,0.0067874
-0.014862,-0.021747,-0.15651,-0.03425,-0.035286,-0.012261,-0.018233,-0.016504
0.048527,0.10062,0.13629,0.093926,0.051573,0.044406,0.029705,0.029936
-0.036583,-0.15006,-0.2077,-0.10517,-0.032703,-0.0072505,4.719e-05,-0.033442
0.010896,0.046424,0.12456,-0.006088,0.016499,-0.011489,-0.0056405,-0.0033118
-0.0045068,0.03346,0.21078,0.055516,0.0036113,-0.015845,-0.010924,0.0033679
0.034264,0.037003,-0.012808,0.0093945,0.021987,0.018076,0.030818,0.041481
-0.052556,-0.092078,-0.2278,-0.043052,-0.030403,-0.011812,-0.013573,-0.01385
0.016276,0.020555,0.071463,0.014996,-0.013384,-0.019843,-0.011664,-0.01417
-0.0013492,-0.0084368,-0.062315,0.003325,-0.013235,-0.037234,-0.0028627,0.0013762
0.027543,0.031578,-0.021166,0.0072652,0.032372,0.053522,0.012589,0.0091904
0.025066,0.070223,0.19431,0.041847,0.037532,0.010755,0.011168,0.016893
-0.078806,-0.15014,-0.25937,-0.049665,-0.060019,-0.024327,-0.022656,-0.030379
0.013103,0.05052,0.11105,-0.025376,-0.0098845,-0.0043354,-0.010486,-0.007739
-0.011449,-0.022648,0.018115,-0.025967,-0.014696,0.0085601,-0.0066039,-0.016777
0.035197,0.099557,0.11213,0.089374,0.043237,0.006635,0.012904,0.028505
0.020232,-0.020002,-0.034761,-0.022728,0.031531,0.052244,0.025063,0.026681
-0.025269,-0.084238,-0.17887,-0.064909,-0.01827,-0.0033506,-0.0010008,-0.022073
0.0077242,0.047498,0.079262,0.04926,-0.012282,-0.035474,-0.010368,-0.00037772
0.017192,6.6797e-05,-0.033421,-0.015749,0.010411,0.0025405,-0.0029719,-0.0018055
-0.0051562,0.046646,0.15473,0.052812,-0.012814,-0.061162,-0.0023418,0.0050435
-0.005023,-0.016193,0.080447,0.020633,-0.011827,0.015892,0.014749,-0.010974
-0.013865,-0.094968,-0.28086,-0.073332,0.0053703,-0.00017417,-0.0066677,-0.0029264
-0.031647,0.10703,0.21796,0.01288,-0.01608,-0.015045,-0.027825,0.0057401
0.020036,-0.04305,-0.15871,-0.01007,0.017422,0.034227,0.021325,0.0071358
-0.038042,-0.10761,-0.20871,-0.056504,-0.019272,0.022789,-5.2412e-05,-0.022327
0.052477,0.12447,0.37984,0.11556,0.045554,0.036316,0.0016528,0.026513
0.034281,0.036207,-0.057394,-0.0096163,0.00859,0.0038084,-0.012701,0.012774
-0.029776,-0.090985,-0.12971,-0.080505,-0.036611,-0.005416,0.003729,-0.024742
0.040135,0.14144,0.27258,0.090455,0.034776,-0.015901,0.027501,0.023121
-0.068559,-0.10243,-0.16245,-0.035664,-0.035173,-0.091125,-0.011688,-0.015643
0.011081,-0.041321,-0.20756,-0.02898,-0.0042806,0.018271,-0.012255,-0.023855
0.020895,0.020083,0.028666,-0.014277,-0.02088,0.015244,0.0023922,0.0064193
-0.00041658,0.003701,0.085999,0.0086376,0.024608,0.032934,-0.006763,0.0050972
-0.021909,-0.012276,0.082183,0.00081704,-0.00037378,0.0017878,-0.00058935,-0.0040931
0.0030935,0.011286,0.056572,0.056009,0.013796,0.00097119,0.021007,0.010387
0.012017,0.097878,0.095143,0.025644,0.004796,-0.023049,-0.0043532,0.025328
-0.0029076,-0.049352,-0.10689,-0.035821,-0.0038622,0.024572,-0.0062184,-0.0060229
-0.0024954,-0.00071447,-0.080858,0.0041575,0.0034131,0.0041011,-5.9338e-05,-0.013344
-0.017837,-0.068706,-0.10788,-0.08902,-0.020366,-0.013557,-0.016972,-0.020165
0.02934,-0.018936,-0.10165,0.0048364,0.026219,0.018715,0.013493,0.012414
0.014131,0.047049,0.21173,0.090424,-0.013196,-0.03982,-0.01013,0.013899
-0.0087459,0.043282,0.10607,-0.027448,0.0019785,0.021341,0.021571,-0.00025666
-0.023707,-0.10068,-0.2859,-0.012656,-0.014132,0.0061954,0.0069918,-0.014552
0.00041152,0.075817,0.21477,-0.013442,-0.022305,-0.031446,-0.022732,-0.013432
-0.014625,0.017652,0.020669,0.048474,0.001107,0.0090115,-0.0052773,-0.0047204
0.048275,0.060223,0.16101,-0.014315,0.032869,0.056291,0.020081,0.042859
-0.0062606,-0.031375,0.05545,0.02479,0.018419,-0.0076545,0.01407,-0.0034585
-0.021984,-0.085654,-0.33699,-0.04515,-0.0031763,-0.058483,-0.02348,-0.018625
-0.0066379,-0.0011591,-0.11118,-0.0053906,0.0070124,0.0049972,-0.014547,0.00521
0.024285,-0.0042218,-0.032743,-0.019989,-0.013758,0.03432,0.0095982,-0.0022409
-0.0306,-0.031788,0.063498,-0.034251,-0.042351,-0.0092462,-0.0056759,-0.0097153
0.008579,0.088783,0.17952,0.11587,0.014683,-0.0078581,0.0022402,0.0062255
0.0013399,-0.0010808,0.20833,-0.014998,0.024287,0.023766,0.033475,0.0065075
-0.013206,-0.0038415,-0.18374,-0.0051404,-0.0137,-0.069587,-0.036861,-0.024523
0.035175,-0.036313,-0.2371,-0.081341,0.0022174,0.041234,0.025677,0.038087
0.021264,0.057764,0.24455,0.084251,0.025181,0.013342,-0.0054599,-0.0088588
-0.031831,-0.034452,-0.066742,-0.055517,-0.022857,0.011356,-0.013122,-0.0091901
-0.022933,-0.016691,0.00035898,0.014748,-0.024594,-0.019255,-0.0051973,-0.0020493
0.01635,0.047825,0.1167,0.021472,0.012282,-0.016281,0.010413,-0.0031207
0.038891,0.025615,-0.062677,0.0037056,0.017575,0.019579,0.010188,0.011013
-0.041319,-0.052531,0.0080573,0.01627,0.022635,-0.0064388,-0.0059258,0.0013204
-0.013203,-0.077383,-0.19521,-0.057744,-0.01151,0.045136,-0.00669,-0.0086698
-0.017037,-0.025314,-0.071092,-0.030446,-0.02226,-0.006474,-0.0155,-0.011001
0.049247,0.1432,0.31817,0.098617,0.029581,0.0098008,0.030242,0.017949
-0.0012692,-0.032154,-0.15192,-0.052937,-0.027681,-0.031372,-0.0021316,0.00025838
-0.027409,-0.027363,0.011321,-0.031654,-0.029757,-0.04381,-0.0030695,-0.0091931
-0.013127,-0.013866,-0.066826,0.014185,-0.0076597,-0.050133,-0.027072,-0.010249
0.026166,0.024146,0.29327,0.029843,0.030994,0.05246,0.019781,0.020623
0.027939,0.11004,0.013122,0.10883,0.031611,-0.031491,-0.010831,-0.0024914
0.023178,-0.053323,-0.13428,-0.038252,0.041018,0.10554,0.02957,0.021919
-0.051052,-0.083459,-0.21956,-0.11489,-0.050354,-0.019977,-0.023145,-0.03907
-0.023391,-0.027516,-0.031778,-0.019734,-0.031873,-0.01719,-0.005088,0.0018864
0.027547,0.012825,0.10137,0.020608,0.017984,0.035314,0.013152,0.011807
0.015449,0.014196,-0.077184,-0.0015045,-0.0026726,0.0036742,0.0077919,0.013967
-0.036462,0.086187,0.46462,0.10955,0.0074814,-0.043211,-0.0059093,-0.01521
-0.026676,-0.067803,-0.36632,-0.05995,-0.0063638,0.01036,0.0029713,-0.0055209
0.037072,-0.0022282,0.0083716,-0.048807,-0.0051495,-0.032181,-0.0048553,-0.01173
0.014292,0.025199,0.13536,0.049308,-0.012225,-0.023188,-0.0060285,0.020797
0.014491,-0.0012253,-0.087569,0.02332,0.027234,0.044963,-0.00044923,0.0060877
-0.0091324,0.011984,0.018345,-0.0099332,-0.0038121,-0.038249,-0.019097,-0.0011961
0.0059246,-0.044957,-0.11825,-0.04314,0.011946,0.032781,0.016556,-0.0010679
-0.018509,0.022777,0.07202,0.032521,0.012099,-0.0063474,0.0054206,-0.01696
0.034701,0.089705,0.18219,0.052484,0.02015,0.040982,0.026087,0.029285
-0.076644,-0.15708,-0.17095,-0.10861,-0.073212,-0.035009,-0.03044,-0.026326
0.014706,0.016533,-0.073399,0.01,-0.010109,0.0087079,-0.0076746,-0.0039988
0.027644,0.047905,-0.0015242,0.025541,0.0063986,-0.02277,0.0084963,0.010456
-0.014192,-0.039525,0.013748,-0.030564,-0.00022626,0.01894,-0.0055059,-0.014081
0.037855,0.074651,0.10555,0.029435,0.04027,0.023992,0.020319,0.016244
-0.011327,0.078102,0.23501,0.088589,0.033959,0.0072187,0.0074114,0.0077329
0.01029,-0.10706,-0.35564,-0.048238,0.0039828,-0.0089071,0.0021662,0.0072502
-0.014387,-0.043017,0.075709,-0.029381,-0.034401,-0.040996,-0.011484,-0.016524
-0.030628,0.0050183,-0.088196,-0.026657,-0.026862,-0.027417,-0.018236,0.006615
0.0084319,-0.0015156,0.15271,-0.00093795,-0.020523,-0.015709,-0.018237,-0.017199
0.0011729,0.086362,0.18156,0.086963,0.039237,0.056219,0.0041821,0.0056955
0.0021664,-0.082399,-0.38388,-0.090868,-0.0036772,0.047586,0.025798,0.012759
0.019046,0.0082196,-0.01931,0.0049339,-0.0082801,-0.002463,0.0078722,0.0040175
0.0046971,0.038106,0.16684,0.01536,-0.013126,-0.015499,-0.010174,-0.028255
-0.0020904,-0.00058273,-0.0041981,0.011106,0.029232,-0.030063,0.0032344,0.0020101
0.006236,0.032526,0.085401,0.055018,0.0021431,-0.021999,0.0014658,0.024649
0.0060541,-0.011427,0.029643,-0.024519,-0.00022261,0.033019,0.0080931,-0.0070805
-0.026123,-0.062633,-0.12479,-0.10237,-0.024501,-0.035912,-0.0081018,0.0006635
-0.027675,-0.004399,0.027788,0.071465,0.015274,0.0065308,-0.0081065,-0.0067782
0.0095019,-0.0090086,-0.036905,-0.010994,0.017368,0.028305,-0.0076467,0.0018056
-0.0001209,0.017002,-0.10103,0.0015117,-0.049811,-0.024826,-0.0068437,0.0028812
0.029838,0.096915,0.22518,0.077305,0.055477,0.050281,0.033246,0.019753
-0.0096174,-0.066185,-0.066767,-0.065366,-0.018808,-0.051529,-0.020293,-0.033656
0.0067368,-0.026933,-0.12571,-0.012952,0.015962,0.0282,0.012146,0.014411
0.032043,0.074179,0.35291,0.054409,-0.0045948,0.038213,0.0055115,-0.00018213
-0.027647,-0.10641,-0.41198,-0.090178,-0.049393,-0.0072707,-0.0089766,0.00067256
-0.032081,0.025264,0.056556,-0.0094025,-0.0090633,-0.047078,-0.031326,-0.022054
0.018261,0.055368,0.07932,0.062305,0.022766,-0.035359,0.0087814,0.017638
