0.021046,0.057661,0.069913,-0.0004917,-0.0037416,0.0063505,0.01337,0.012324
0.008318,0.01653,-0.50049,-0.11647,-0.026487,-0.00062677,-0.0013184,0.0062298
0.011322,0.053513,0.26894,0.087158,-0.0028152,0.016134,-0.00021804,0.02413
-0.040663,-0.082137,0.20093,0.040193,-0.018844,-0.029401,-0.014679,-0.02803
-0.0073905,-0.094152,-0.30437,-0.12429,0.003523,0.026669,0.009886,-0.0021825
-0.014122,0.0014808,0.69875,0.039336,-0.013713,-0.018968,-0.012549,-0.015869
-0.0062666,-0.04533,-0.52535,-0.05462,0.0078107,-0.025872,-0.0039372,-0.014683
-0.0071897,0.10145,0.20014,0.015795,0.013681,0.0058121,0.0044012,0.0090208
0.030181,0.051359,0.23061,0.094156,0.011944,0.029119,0.02021,0.023952
0.012351,-0.031429,-0.27412,0.14099,0.033987,0.012772,0.0043629,-0.0010638
0.033327,0.11875,-0.13011,-0.078644,-0.0061032,-0.0041263,0.0036842,0.012265
-0.0082407,-0.044944,-0.073714,-0.14335,-0.038076,-0.021469,-0.013089,0.0016779
-0.026238,-0.022323,-0.011178,0.016972,0.00047736,-2.3461e-05,-0.014657,-0.016913
-0.02832,-0.11756,-0.12797,0.019737,-0.015503,-0.009876,-0.01652,-0.027562
0.016927,0.037485,0.69667,-0.024963,0.015559,0.01173,0.020587,0.024747
-0.015313,-0.11056,-0.71267,-0.03792,-0.023434,-0.013077,0.010978,-0.0081198
0.00014159,0.041343,0.43709,-0.041377,0.00046443,0.025289,0.001791,0.0068838
-0.0068876,0.025749,-0.45271,0.16877,0.06394,0.0019575,-0.014561,-0.01606
0.065189,0.12463,0.82995,0.04612,-0.028274,0.002886,0.016752,0.040207
-0.041569,0.025333,-0.72371,-0.081459,-0.002816,-0.018895,-0.029241,-0.019821
0.00066634,-0.015446,0.14125,-0.10557,-0.055213,-0.016709,0.011422,-0.0011674
0.0039521,-0.015307,0.14715,0.14411,0.040765,0.0013534,0.013527,-0.0058339
0.03808,0.023271,-0.085727,0.087666,0.073789,0.050598,0.031462,0.028212
-0.0068284,-0.027214,0.4931,-0.042182,-0.0033875,0.021333,-0.013228,-0.0010113
-0.060846,-0.20005,-0.50966,-0.15277,-0.081652,-0.086712,-0.050534,-0.046923
-0.0069714,0.058263,-0.094324,-0.033427,-0.020454,0.0075321,0.0052617,0.007543
-0.0013997,0.060089,-0.086711,-0.16785,-0.04621,0.0071194,0.0056218,-0.0094144
0.026466,0.017278,-0.13832,0.24231,0.075806,0.029288,0.020884,0.027449
0.069275,0.20504,0.39788,0.19119,0.088269,0.035134,0.019932,0.032563
-0.028666,-0.16336,0.0052418,-0.21758,-0.055169,-0.04541,-0.028285,-0.032716
-0.063672,-0.14008,-0.1385,0.048973,-0.049346,-0.02454,-0.021979,-0.019544
-0.0040095,0.027208,0.10315,0.031057,0.020144,0.027754,0.023428,0.0099032
0.041275,0.09027,-0.050415,0.0024974,0.012846,0.0024062,0.014338,0.01677
-0.029259,-0.067158,0.10917,-0.1777,-0.047832,-0.030022,-0.0022946,-0.0066984
0.057721,0.17199,0.053008,0.23163,0.072264,0.032177,-0.010835,0.0019094
-0.010613,-0.084082,0.34405,-0.16944,-0.033503,-0.006292,0.0042961,-0.0044975
-0.023806,-0.0014948,-0.54909,0.21113,0.024996,-0.0049344,-0.011658,-0.0027807
0.025402,0.018739,-0.3523,-0.19866,-0.010588,0.035993,0.019363,0.03017
-0.027558,-0.041622,0.54654,-0.0096713,-0.031368,-0.032288,-0.012046,-0.023127
-0.011162,0.065269,-0.17509,0.019249,-0.0064611,-0.0070192,-0.012122,-0.022258
0.011963,-0.075898,-0.17258,0.11413,0.06395,0.017734,0.011384,0.0092491
-0.0049305,-0.02769,0.33894,-0.068762,-0.054477,-0.012918,-0.0039422,0.0011174
-0.014617,-0.0076918,-0.072404,0.018028,0.005688,0.010347,-0.0033281,0.008183
0.014654,-0.029327,-0.17347,0.07086,0.018303,-0.029547,0.013279,0.0072312
0.013115,-0.027263,0.10472,-0.11978,-0.00047415,0.016085,0.0068132,0.0063249
0.0046863,0.1108,-0.13093,-0.067902,-0.018827,0.0069434,0.0006381,-0.0099305
-0.0024933,0.043556,0.24815,0.071892,0.0028139,-0.025394,-0.021009,-0.017928
-0.016123,0.061609,0.21213,-0.027121,-0.021123,0.020892,-0.0036216,-0.0019616
0.04181,-0.084708,-0.4584,0.22976,0.065768,0.044363,0.021351,0.030128
-0.055574,-0.052539,0.74993,-0.2431,-0.04129,-0.048763,-0.016583,-0.023353
0.011577,-0.0079003,-0.63491,-0.016368,-0.0066851,0.0069645,0.023069,0.017061
0.016174,-0.023784,-0.56964,0.19797,0.036259,0.023781,-0.00037479,0.010478
0.012391,0.14683,0.65322,-0.15629,-0.0068098,-0.022033,-0.024382,-0.0043064
-0.015811,-0.10042,-0.48516,0.17695,-0.011473,-0.0057022,-0.0097704,-0.019677
-0.0061917,0.044704,0.57479,-0.11646,0.014012,0.025798,0.012401,0.0033477
0.0099349,0.026209,0.22859,0.032542,-0.016508,-0.029051,0.011106,0.0023349
-0.0063588,-0.038938,-0.44073,-0.23608,-0.063924,-0.052883,-0.02125,-0.014687
-0.031335,-0.11859,0.3375,0.21048,0.028309,0.040492,0.024872,-0.00051812
0.021346,-0.062485,-0.3061,-0.11158,0.049712,0.040387,0.016746,0.021776
0.011478,0.084867,0.13522,0.11899,-0.0070215,-0.006159,-0.014384,-0.0021591
-0.013714,0.013423,-0.18166,-0.1437,-0.024276,0.0024408,-0.021726,-0.025227
0.039736,0.2487,0.089576,0.11678,-0.0018022,-0.012064,0.0023971,0.030745
2.7367e-06,-0.043864,0.0081483,0.25246,0.060425,0.028213,0.010958,0.0015499
0.015416,-0.10592,-0.41213,-0.11155,-0.0096572,-0.0020012,0.011623,0.027491
-0.10956,-0.1252,0.39793,-0.35035,-0.071757,-0.0795,-0.042596,-0.063746
0.070123,0.045978,-0.19585,0.23127,0.069066,0.037784,0.043533,0.03205
-0.0083091,0.031624,0.55392,-0.01506,-0.01717,-0.0016893,-0.019096,-0.0058569
0.0064986,0.010467,0.10366,-0.042137,-0.049345,-0.0024685,-0.0039372,-0.0058784
0.028481,0.091154,-0.4753,-0.021261,0.035123,0.027839,0.026514,0.016258
-0.043959,-0.12515,-0.17635,-0.0064809,-0.013494,-0.012134,-0.021472,-0.025283
0.00016811,-0.044778,-0.041704,0.018309,-0.030738,-0.020705,0.00057539,-0.0052239
-0.0030738,-0.0035359,0.10369,-0.048363,0.015038,0.02557,-0.0010389,0.0065289
0.024619,0.03782,0.34017,0.34774,0.045994,0.04846,0.012827,0.018241
0.028765,0.11842,-0.31484,-0.30216,0.030957,-0.014717,0.01103,0.022526
-0.045104,-0.043174,0.25784,0.14119,-0.045859,-0.078208,-0.037543,-0.042787
-0.0014622,0.076054,0.092305,-0.04237,0.04174,0.021929,7.1679e-05,0.010003
0.0036451,-0.14169,-0.20551,-0.072756,-0.058293,0.0044485,0.014649,0.016892
0.0016544,0.068615,0.073989,-0.013087,0.0051351,0.010117,-0.0015035,-0.0065562
0.047413,0.042518,-0.34158,-0.082048,0.020742,0.031383,0.0298,0.033267
-0.062084,-0.29033,-0.15197,-0.13832,-0.05848,-0.064244,-0.032079,-0.059127
0.0013483,0.20325,0.47615,0.33485,0.033192,0.028234,0.00025872,-0.010473
0.0033179,-0.015071,0.19736,0.15901,0.022619,0.027793,0.0094546,0.015021
0.029645,0.071267,-0.65416,-0.28975,-0.011656,-0.018606,0.0030999,0.025045
-0.044896,-0.036795,0.24679,-0.057549,-0.014511,-0.017295,-0.011227,-0.027392
0.060616,0.09902,0.37192,0.26223,0.014419,0.039297,0.013138,0.03727
-0.029217,-0.22393,-0.059447,-0.21316,0.012861,-0.028873,-0.017702,-0.015492
0.028947,0.096045,-0.36937,0.047468,0.035569,0.027793,0.021198,0.025099
0.023826,0.11343,0.50886,0.24717,0.0043487,0.0058114,0.012701,0.0026533
-0.1151,-0.14881,-0.23412,-0.48115,-0.12002,-0.063813,-0.058666,-0.075098
0.034042,0.058653,-0.22032,0.21435,0.060714,0.021971,0.018265,0.026229
0.0026697,-0.0070869,0.092969,-0.017554,-0.0082911,-0.0023532,0.0093854,-0.0057516
0.056752,0.036111,-0.27376,-0.035949,0.016602,0.027542,0.0086944,0.047911
-0.022041,0.00023291,-0.0095207,0.13571,0.041576,-0.012985,0.016373,-0.0078406
-0.014555,-0.075951,0.51049,-0.042118,-0.066227,-0.0063747,0.0012507,-0.0086837
-0.037683,-0.059671,-0.056621,-0.070392,-0.056857,-0.030446,-0.036708,-0.040338
0.057132,0.14301,0.025071,0.3933,0.19462,0.10249,0.035171,0.037957
-0.01145,-0.045659,0.0076361,-0.44934,-0.10877,-0.068482,-0.033322,-0.015965
0.014092,0.070083,-0.075208,0.29897,-0.014013,0.019038,-0.00024438,0.00092239
0.0083283,-0.048332,-0.41597,-0.33894,0.010051,-0.010169,0.024785,0.033717
-0.013595,0.05267,0.41024,0.09808,-0.036645,-0.023563,0.0024956,-0.011626
-0.013034,-0.14999,-0.27335,0.017169,0.048998,0.017642,-0.012574,-0.0026114
0.0019341,0.00011051,-0.27685,-0.34593,-0.053321,-0.035236,-0.0048694,-0.0020158
-0.015613,0.065417,0.59639,0.40083,0.039242,0.03636,0.0021846,-0.010011
-0.042064,-0.056035,0.35406,0.2741,0.022036,0.0057321,0.00087244,-0.026623
0.032301,0.056867,-0.68524,-0.07731,0.051359,0.036866,0.014799,0.010773
0.036038,0.082741,0.28016,-0.17718,-0.052398,-0.026496,-0.010505,0.0086744
-0.0069918,0.012585,0.18396,-0.026382,-0.054721,-0.028036,-0.020112,-0.0013523
0.036369,0.056341,-0.36036,-0.29005,0.005543,-0.014467,0.0018345,0.027887
0.033548,0.033889,0.21465,0.41374,-0.011943,0.030083,0.055528,0.034162
-0.10906,-0.28088,-0.2252,-0.22796,0.025943,-0.019072,-0.046399,-0.060466
0.030534,-0.027069,-0.29679,0.2381,0.064777,0.04153,0.0086062,0.009723
-0.031956,0.008687,0.079808,-0.28902,-0.059363,-0.053432,-0.013863,-0.028697
-0.0073656,-0.069092,0.90733,0.066701,0.0050566,-0.0068641,-0.0045417,-0.0039101
0.080945,0.25023,-1.0144,0.26731,0.062517,0.11101,0.044208,0.060522
-0.048283,-0.062595,0.59046,-0.076863,-0.067022,-0.082659,-0.024081,-0.023085
-0.043645,-0.0069988,-0.19073,-0.44961,-0.040233,-0.025574,-0.014328,-0.028401
0.094512,0.28309,0.2829,0.28187,0.079966,0.047609,0.026386,0.044306
-0.017166,-0.20287,0.11999,0.24195,-0.011438,-0.011887,-0.011469,-0.008362
-0.01216,0.031292,-0.38388,-0.28149,-0.041185,-0.016901,-0.010774,-0.014761
0.015084,-0.14368,-0.40978,0.27255,0.021983,0.01666,0.0050571,0.0015162
-0.014136,-0.091019,-0.29474,0.019817,0.014189,0.018288,-0.0029259,0.0013686
0.0014185,0.13185,0.89809,-0.0093783,-0.017363,-0.027719,0.0045126,0.00050777
-0.031983,0.023708,0.54343,-0.40109,-0.0097672,-0.011951,-0.0036826,-0.016491
-0.012385,0.10069,-0.40561,0.072127,-0.0016935,0.01885,-0.0039034,-0.0024773
-0.079716,-0.43208,-0.76146,-0.27555,-0.031913,-0.060122,-0.019482,-0.027476
0.11846,0.30355,0.093018,0.26104,0.06375,0.095091,0.058972,0.072817
0.067404,0.11591,0.0013326,0.52742,0.027381,0.0081062,-0.0029919,0.0094806
-0.021234,0.016392,0.86125,-0.18642,0.022733,-0.031887,-0.010203,-0.014333
-0.084505,-0.17179,-0.81282,-0.26354,-0.083457,-0.056073,-0.033135,-0.037764
0.065208,0.061009,0.59461,0.37278,0.0051885,0.076183,0.021827,0.032801
-0.07229,-0.097155,-0.19964,-0.42813,-0.024273,-0.057022,-0.032885,-0.044973
-0.013088,0.056052,-0.12691,-0.012538,-0.00027526,-0.02606,-0.0097652,-0.013389
0.078102,0.08899,0.28867,0.2111,0.069234,0.098678,0.044374,0.057174
-0.026034,-0.016766,-0.35842,-0.20397,-0.057893,-0.057905,-0.011006,-0.020798
0.025305,0.032486,0.26245,0.42162,0.071654,0.035342,0.035106,0.026149
-0.026359,-0.063134,-0.74305,-0.45038,-0.065265,-0.027912,-0.020377,-0.020701
-0.0018131,0.030031,0.21612,0.10376,0.016097,-0.0055153,-0.01339,-0.012878
0.028426,-0.064133,0.30131,0.19597,0.050527,0.032256,0.0013699,0.018392
-0.0058384,0.0062535,0.53214,-0.3428,-0.086554,-0.031665,0.00046328,0.0028167
-0.080742,-0.046127,-0.39416,0.05251,0.011499,-0.033027,-0.016076,-0.036158
-0.0002943,-0.109,-0.17352,0.50089,0.048136,0.036214,0.0065126,0.010845
0.080065,0.23527,0.15184,-0.3641,-0.023311,-0.0034179,0.0058294,0.034441
0.012694,0.044945,-0.071577,-0.12112,0.00033154,0.020091,0.0054124,0.0033591
-0.037713,-0.20046,0.28311,0.29848,-0.045136,-0.0026163,-0.0024816,-0.027745
-0.0083018,-0.006989,-0.024125,-0.10785,0.074336,-0.0091546,-0.0022157,-0.0042221
0.022824,0.16468,-0.63809,-0.24935,-0.016726,0.0080541,0.021779,0.0035793
0.00067463,0.00070435,0.30649,0.4023,0.048312,0.017457,-0.016553,-0.0043754
-0.012801,-0.079713,0.044689,-0.24896,-0.051393,-0.028124,-0.0079904,0.0031328
-0.0026544,0.06051,-0.084373,0.19394,-0.042802,-0.035176,-0.0073797,0.0026377
0.07734,0.27703,0.24456,-0.13629,0.027035,0.050867,0.032028,0.040991
-0.062358,-0.36299,-0.16592,-0.25415,-0.013662,-0.027788,-0.014832,-0.030253
-0.039131,-0.095914,0.23638,0.20973,0.038582,0.01807,-0.0073253,-0.007946
-0.0090924,0.015342,-0.58377,-0.14028,-0.050065,-0.014445,-0.015685,-0.0092078
-0.010879,-0.059363,0.47662,0.23773,0.049142,0.015569,-0.00071772,-0.010483
0.04986,0.16664,0.19734,0.25244,0.0086535,0.0068048,0.029907,0.027444
-0.037201,-0.046005,-0.66821,-0.42274,-0.061743,-0.032738,-0.0096318,-0.020261
0.072138,0.18819,0.37303,0.064304,0.025611,0.014211,0.005724,0.018411
0.010854,-0.12889,-0.15608,-0.013441,0.012766,0.022624,0.0056434,0.010721
-0.041538,0.065946,0.97036,0.31163,0.055552,0.0079963,-0.017774,-0.027719
0.00044129,-0.094984,-0.39507,-0.31353,-0.081041,-0.037677,-0.0021611,0.020179
0.026784,0.24622,-0.39646,0.1487,0.055379,0.033832,0.013282,0.005811
-0.033462,-0.22487,-0.048302,-0.31836,-0.028062,-0.035472,0.012829,-0.0085243
-0.0089121,-0.0022824,-0.63348,0.15981,-0.01155,-0.0035165,-0.026986,-0.0073939
-0.024789,-0.024738,0.507,0.3333,0.026586,0.012472,0.0032774,-0.006567
0.012754,-0.097194,-0.059044,-0.50833,-0.069753,0.0047121,0.0022145,-0.0061141
0.041602,0.1092,-0.16996,0.22153,0.051482,0.012343,-0.006511,0.025225
-0.015788,0.072495,0.30193,-0.11727,-0.030842,-0.011421,0.00078741,-0.014033
-0.025964,-0.25235,0.15111,0.42852,0.066961,0.0038012,0.008699,0.0012349
-0.011809,0.13631,0.32201,-0.36029,-0.052697,-0.027892,-0.013903,-0.0069633
0.06608,0.16912,0.53416,0.4685,0.07962,0.073183,0.042348,0.039611
-0.042247,0.0023236,-0.55223,-0.75825,-0.12162,-0.083632,-0.041452,-0.046472
0.061397,0.072384,-0.49766,0.26276,0.046767,0.040681,0.023478,0.016054
-0.037548,-0.16156,0.083733,0.25685,0.045398,0.02422,0.0024039,-0.0072261
-0.042835,-0.13132,-0.44978,-0.21443,-0.040451,-0.054881,-0.011292,-0.0070159
0.060548,0.15337,0.60133,0.11395,0.030476,0.037811,0.013338,0.047835
-0.032543,-0.082147,-0.83124,-0.31292,-0.086657,-0.041348,-0.033251,-0.022451
0.013633,0.075959,0.61853,0.23168,0.083616,0.043717,0.020812,0.0086418
-0.058625,-0.066767,0.14746,0.13105,-0.0065197,-0.050605,-0.03525,-0.054185
0.063568,0.022686,0.1793,0.34701,0.11105,0.074232,0.048847,0.046965
-0.080162,-0.11432,0.081329,-0.37694,-0.11075,-0.034852,-0.039052,-0.04715
0.026411,0.016735,-0.32932,-0.36715,-0.093504,-0.018516,0.021683,0.015169
0.071272,0.19114,0.19027,0.003598,-0.039589,0.013754,0.0047138,0.023076
-0.039075,-0.13704,-0.51908,0.18297,0.067702,0.0070923,0.0038742,1.9529e-06
0.054716,0.17267,0.66989,0.13403,0.073323,-0.0074653,0.0034796,0.016138
0.024245,0.072159,0.15668,0.14724,0.033053,0.0011118,0.011174,0.016583
-0.021528,-0.073315,-0.36975,-0.073966,0.04924,0.032636,0.018934,0.0088937
-0.12989,-0.21126,-0.57799,-0.28056,-0.11212,-0.06927,-0.067168,-0.077452
0.034797,0.086068,0.66291,0.29097,-0.021364,0.031289,0.010603,0.015261
-0.035374,-0.20602,-0.45857,0.22362,0.024261,0.0062312,-0.021149,-0.025407
0.065917,0.19331,-0.14231,-0.58736,-0.022677,0.0041206,0.017412,0.027312
0.04197,0.018806,0.24101,0.23009,0.0012596,-0.013917,0.0092917,0.017477
-0.0054671,-0.033297,0.15636,-0.10743,0.02519,0.014848,0.024968,0.015725
0.04092,0.10846,0.21556,0.03958,0.064324,0.020352,0.025453,0.014516
-0.076637,-0.062681,0.26259,0.15559,-0.037788,-0.044029,-0.036175,-0.040675
0.032476,0.12594,-0.024856,0.31212,-0.023271,0.032875,0.011801,0.02206
-0.045815,-0.12994,-0.30638,-0.62155,-0.032441,-0.022179,-0.018338,-0.031738
-0.022413,-0.22082,-0.41363,0.1151,-0.010099,-0.021561,-0.025247,0.0008803
0.055904,0.30641,0.041716,0.25938,0.044356,0.042577,0.029975,0.041569
-0.013847,0.014211,0.27822,-0.39696,-0.087281,-0.048608,-0.0089881,-0.027094
0.0028406,-0.04262,-0.27209,0.25754,0.11095,0.04059,0.0063382,0.0056177
-0.026789,-0.12941,0.62973,0.20049,0.029706,0.012928,-0.0098606,-0.024523
0.022194,-0.097219,-0.8386,-0.10727,-0.057935,-0.0070548,0.012904,0.015192
0.055826,0.20295,0.71166,-0.24512,0.050494,0.034848,0.012322,0.030973
-0.012169,-0.072207,-0.58991,0.37856,-0.013041,-0.033642,-0.0036273,-0.016217
-0.064993,-0.031961,0.032203,-0.2701,-0.077514,-0.056512,-0.034823,-0.02473
0.02982,0.073265,0.53771,-0.0062031,0.02828,0.028737,0.020355,0.013381
0.014248,0.15653,0.031355,0.027445,-0.00070123,-0.019839,0.0056505,-0.003273
-0.025771,-0.18992,-0.072368,0.0013441,0.023055,0.048209,0.0069339,0.011437
0.0037433,0.14156,0.20208,0.21976,-0.0251,0.0068856,0.00065792,0.018643
0.0016511,-0.09287,-0.38818,-0.26991,-0.019592,-0.0026114,-0.0055,-0.012736
-0.031523,-0.066272,-0.2323,-0.12262,-0.014466,-0.034506,-0.011679,-0.0357
-0.0093448,-0.029137,0.096717,0.093061,0.029889,-0.026037,-0.018007,-0.011137
0.013832,-0.10615,-0.2432,-0.081997,0.059116,0.01498,0.022282,0.01403
0.061515,0.12559,0.60542,0.65845,0.065467,0.072641,-0.0002769,0.03183
0.086598,0.28479,-0.15297,-0.25486,-0.044966,0.013614,0.03143,0.065433
-0.12234,-0.25183,-0.37486,-0.26669,-0.077134,-0.061202,-0.038905,-0.080813
0.012232,-0.10769,-0.14374,-0.17387,-0.007826,0.0037663,0.023055,0.0068015
-0.010249,0.22632,0.78258,0.17964,-0.048057,-0.010778,-0.017067,-0.01576
0.012994,0.0088484,-0.43583,0.012139,0.052286,0.019869,0.02046,0.015405
-0.074338,-0.1738,0.16866,-0.083212,-0.026864,-0.052713,-0.043957,-0.032511
0.024897,-0.017007,-0.034942,0.17404,0.050695,0.037432,0.016383,0.028158
0.014323,0.08814,0.14659,0.079805,-0.0039534,-0.013813,0.0063326,-0.0054267
0.035159,-0.023153,0.099662,0.023592,0.066934,0.020805,0.011992,0.023332
0.033247,0.07787,-0.14071,-0.24566,-0.041634,0.0013337,0.01006,0.0053939
-0.014518,-0.039501,0.080196,-0.088147,0.013629,0.014238,0.00063364,-0.019908
-0.037755,-0.016896,-0.31281,0.35516,-0.025576,-0.010503,-0.039676,-0.013347
-0.013221,-0.089564,-0.20192,-0.13423,-0.026776,-0.010367,0.014147,-0.006126
0.050882,0.12467,-0.45607,-0.10233,-0.0056595,0.014414,0.021467,0.032941
-0.0099916,-0.022962,0.50529,-0.079064,-0.024452,-0.014704,-0.0099175,0.0099522
0.0068251,0.12381,0.57722,0.023052,0.026793,0.011141,-0.0018989,-0.0049808
-0.10212,-0.34872,-0.24426,0.01012,-0.023057,-0.017926,-0.016991,-0.058942
0.084901,0.23197,-0.21613,0.2581,0.061098,0.030513,0.015104,0.035395
-0.010148,0.022944,0.032645,-0.18581,-0.024907,-0.015636,-0.0072089,0.012292
-0.012004,-0.15463,0.17224,0.38896,0.031605,-0.023565,0.0097658,-0.0032803
0.032852,0.15313,0.00046323,-0.44029,-0.019592,-0.0087044,-0.004374,0.0043495
0.00768,0.032733,0.35047,0.1692,0.024037,0.029292,0.012752,-0.011579
-0.040222,-0.038962,0.18672,-0.174,0.013227,0.012712,-0.0014911,-0.011844
-0.0011462,-0.093146,-0.68936,-0.11876,-0.060711,-0.018992,0.0074595,0.027165
0.031343,0.13566,0.0036245,0.11614,0.012417,-0.0030479,-0.022981,-0.0037718
-0.044309,-0.18094,-0.59638,0.054292,-0.017838,0.013768,-0.014709,-0.034241
-0.0095391,-0.043289,-0.12727,-0.077717,-0.034373,-0.031149,0.0010746,-0.001722
0.064969,0.25915,0.63709,0.10254,0.041217,0.049411,0.032294,0.046831
0.038083,0.015021,0.9258,0.38318,0.053235,0.036283,0.0087827,0.033119
-0.09077,-0.22139,-0.63283,-0.19811,-0.060122,-0.07099,-0.030254,-0.066541
0.068498,0.096411,-0.52895,-0.2053,-0.0090906,0.0084433,0.016853,0.036641
-0.078267,-0.0084499,0.72095,-0.076987,0.089725,-0.045984,-0.052981,-0.063842
-9.4336e-06,-0.028371,-0.27059,-0.00092971,-0.028904,0.039099,0.049263,0.022446
0.029878,0.067792,-0.17625,-0.04665,-0.021041,-0.0018027,0.018774,0.014152
-0.0039625,-0.094973,-0.20355,0.2408,-0.042937,0.034725,-0.0040073,0.0050233
0.05515,0.13182,0.7733,0.043671,0.053698,0.00063104,0.011969,0.049838
-0.096967,-0.18144,-0.60568,-0.22119,-0.07514,-0.048984,-0.058461,-0.062165
0.047991,0.12159,0.14328,-0.082591,0.038973,0.019073,0.019006,0.013017
0.04511,0.11909,0.18498,0.015737,0.036278,0.017596,0.010045,0.0022579
-0.027226,-0.087315,0.07741,0.25378,-0.021157,0.0014513,0.00076866,-0.00034422
-0.036113,-0.06785,-0.25887,0.23984,0.053711,-0.013695,-0.031993,-0.033512
-0.028494,-0.26774,-0.70459,-0.41122,-0.091128,-0.067003,0.0058101,-0.011032
0.089183,0.38344,0.80774,0.12568,0.059571,0.09912,0.05194,0.059431
0.011941,-0.01268,-0.3713,0.30832,0.0055496,0.0077889,-0.010627,0.013789
-0.08086,-0.034176,0.38268,-0.69396,-0.057972,-0.036681,-0.0021789,-0.030993
-0.0020419,-0.071651,-0.20539,0.14083,0.0019139,-0.019038,-0.024396,-0.0049917
-0.0018714,0.078083,0.43089,0.14857,0.037039,0.013528,0.00060972,0.020988
0.052281,-0.022285,-0.44182,-0.036718,-0.030326,-0.0016919,0.0022162,-0.0082376
0.04315,-0.075496,0.26834,0.22775,0.019032,0.0055427,0.019162,0.0085012
-0.08391,-0.049715,-0.083393,-0.14916,0.029325,-0.019387,-0.011335,-0.030555
0.022832,0.16516,-0.080522,0.077287,0.00096936,0.0096486,-0.0035293,0.0074583
-0.011332,-0.16455,0.21691,-0.020473,-0.011003,0.030432,0.011259,-0.0021555
-0.014139,0.078894,-0.45312,-0.1754,-0.021951,-0.0035824,-0.013779,-0.019839
0.038292,0.028434,0.31339,0.15215,-0.016055,-0.029556,-0.0081332,0.025301
-0.0020435,0.035293,-0.33516,0.016667,-0.001005,0.0075031,0.0050496,-0.0068255
-0.025431,0.0048635,0.13441,-0.19215,-0.00020501,-0.017167,0.0026739,0.0013258
-0.0082527,-0.032881,-0.04824,0.3758,0.064394,0.0059486,0.008512,0.018592
0.010387,-0.040381,0.27639,-0.36722,-0.049606,0.037811,0.0072143,0.013504
0.02239,-0.034735,-0.41277,0.15506,-0.022244,-0.015435,-0.0010432,0.0011976
-0.0040049,0.06099,0.32253,-0.11379,0.060068,0.0022464,-0.0083917,-0.011172
0.024282,0.050793,0.41085,0.059267,-0.014147,-0.018818,-0.007082,-0.0086619
-0.018472,-0.096618,-0.033194,0.32186,0.028014,0.014793,0.010531,-0.0074456
-0.015715,0.072537,-0.11437,-0.28707,-0.10294,-0.037858,-0.041734,-0.015627
0.016508,-0.0029476,-0.1869,-0.040339,0.077126,0.065178,0.046772,0.013707
-0.023462,-0.10254,-0.50188,-0.030427,0.0057142,-0.019986,0.017943,-0.01283
-0.010366,0.041389,-0.23017,-0.16967,-0.020038,-0.012115,-0.0034801,-0.0086879
0.0095114,-0.037981,0.30307,0.34066,-0.030899,-0.036103,-0.033309,0.019059
-0.0098957,0.012427,0.42231,-0.16976,-0.018444,0.02543,-0.0013154,0.01643
0.0025968,0.19344,0.24117,0.22965,0.025752,0.0086541,-0.0090305,-0.00041204
0.0086785,-0.080892,-0.42461,-0.28143,0.0084252,-0.00027758,0.006175,0.015672
0.0088207,-0.13956,0.44998,0.16324,0.070444,-0.0012199,0.013243,-0.021306
0.01092,0.17211,0.11472,0.14012,-0.022615,0.013684,0.0045633,-0.025753
0.053714,0.024011,-0.64289,-0.055907,-0.013265,0.013129,0.0037397,0.033015
-0.066594,-0.32031,-0.17662,-0.25479,-0.066084,-0.026445,-0.0047567,0.0058829
0.00068593,0.21546,0.19892,0.065706,0.052728,0.012014,0.0025308,-0.00625
0.051537,0.083101,0.48223,0.045974,-0.0088919,-0.0043914,0.017749,0.003895
-0.11008,-0.13989,-0.24931,0.09309,-0.016875,-0.028771,-0.045108,-0.057747
0.046644,0.14032,-0.43337,-0.088085,0.067796,0.017133,0.024842,0.035336
-0.025211,-0.23959,-0.28097,-0.30778,-0.059337,-0.014879,-0.0067905,-0.0057125
0.088717,0.15911,0.65265,0.29567,-0.069691,0.031734,0.0084717,0.046083
-0.071921,-0.068323,0.61602,0.23971,0.084197,-0.014627,-0.023035,-0.050933
0.0092451,0.17337,-0.43236,-0.17793,-0.0033339,-0.0053367,0.00035535,0.016295
0.028297,-0.091102,0.19187,0.050351,-0.019329,0.028399,0.031854,0.013875
-0.037548,-0.056247,-0.66281,-0.21738,0.044238,-0.015111,-0.014448,-0.026605
0.0074699,-0.15929,-0.10794,0.063694,-0.031463,-0.018977,0.0020222,0.012187
0.069777,0.39637,0.48875,0.48494,0.026653,0.024193,0.0030061,0.013008
