0.0068949,-0.10483,-0.32858,-0.08495,-0.015704,-0.015889,-0.0024328,0.0048978
0.0074824,0.010014,0.30006,0.013462,0.016493,-0.0070628,0.013021,-0.0023563
-0.022706,-0.023013,0.13753,0.098111,0.016913,0.017408,-0.010061,-0.0092289
-0.0058326,0.046144,0.12429,0.00415,-0.0067795,0.0025417,-0.0015383,0.0075148
-0.0047577,-0.016992,-0.72067,0.034991,-0.0078277,-0.012841,-0.00071604,0.00072675
0.034852,0.0608,0.55286,-0.053019,-0.0018911,-0.0054331,-0.0078425,0.0013774
-0.020092,-0.080132,-0.46969,-0.18305,-0.043567,-0.029917,0.00032461,-0.01419
-0.0056607,-0.018186,-0.051678,0.026918,0.0079939,0.015407,0.0080619,0.0086091
0.023504,0.09799,0.40544,0.13929,0.020318,0.021399,-0.00023683,-0.00049265
-0.033924,-0.17702,-0.31835,-0.017133,0.017237,0.011766,-0.0088182,-0.025677
-0.0056747,0.13339,0.1434,0.019898,0.014763,-0.021054,-0.0096627,0.011487
0.014994,0.14659,0.18764,-0.052562,-0.0024191,0.024685,0.013092,0.025425
0.005139,-0.082404,-0.10318,0.0095328,-0.026307,-0.0071699,0.0049673,-0.0069596
-0.011404,-0.20156,-0.1181,-0.096867,-0.0099809,-0.015043,-0.0026528,-0.015102
0.0046381,0.055259,0.39139,0.1059,-0.023858,-0.0067995,0.0058773,0.0089138
0.0063533,-0.06929,-0.41494,-0.030263,0.049007,0.0096545,0.0070199,-0.0052934
0.0090762,0.15945,0.25346,0.025311,-0.0183,-0.012667,-0.015054,0.0045378
0.027934,0.030508,-0.20442,0.099338,0.055059,0.012056,0.0018872,0.014602
-0.015804,0.051322,0.09509,-0.044588,-0.020391,-0.0022274,0.0028798,0.0010332
-0.036785,-0.036596,0.18564,0.013144,-0.049675,-0.00093777,-0.012305,-0.013133
0.050499,0.055035,-0.31857,0.020485,0.029515,0.039265,0.026511,0.026503
-0.050996,-0.18226,0.14491,-0.18803,-0.017206,-0.037943,-0.013488,-0.036409
-0.02864,-0.061316,-0.27264,0.035552,-0.009972,0.0017727,-0.014984,-0.022065
0.016409,0.081986,0.082391,-0.026984,0.0046534,-0.021269,-0.0089771,-0.00045662
0.030041,-0.025395,0.11491,-0.014897,0.0035969,0.033611,0.028298,0.028868
-0.01057,0.0076868,-0.27013,0.073684,-0.012828,-0.02881,-0.012186,-0.0039192
0.012258,0.064419,0.70597,0.19383,0.057117,0.025946,0.0026888,0.0031499
0.028477,0.043237,-0.31308,-0.14501,-0.020959,-0.0051605,0.018442,0.026871
-0.024444,0.037404,-0.10814,-0.035527,0.018371,-0.012711,-0.019542,-0.010867
0.0016218,-0.00085808,-0.032985,0.16329,-0.012711,0.011089,0.0058423,-0.00089221
0.0045974,-0.096074,0.21282,-0.15034,0.010453,0.0036576,0.00062293,0.001746
0.0073203,0.078947,-0.17287,-0.078596,-0.060828,-0.0038891,-0.012097,-0.011204
-0.045452,-0.13249,0.30477,-0.0051525,-7.2656e-05,0.0039177,-0.0014702,-0.032352
0.02557,0.058948,-0.19419,0.26442,0.044407,0.026935,0.016463,0.023908
-0.045409,-0.13473,-0.39051,-0.37226,-0.05208,-0.059928,0.0022665,-0.014489
0.030749,0.06162,0.19256,0.13886,0.015575,0.0011301,0.0025412,0.016472
0.035587,0.087558,-0.13025,0.21917,0.068118,0.030502,-0.0062804,0.023126
0.016426,0.15603,-0.15241,-0.15506,-0.011279,0.012729,0.0070974,-0.0021587
-0.05746,-0.23919,0.39534,-0.0073198,-0.050522,-0.028522,-0.05085,-0.035706
0.033197,0.13711,0.42988,0.10009,0.052011,0.032009,0.039006,0.024316
-0.031465,-0.11355,-0.2584,-0.15262,-0.016263,-0.024173,0.0037065,-0.0015134
-0.0011281,-0.038993,-0.10732,0.094719,-0.028972,-0.0015367,-0.023441,-0.0035685
0.022787,0.14811,-0.094991,-0.21156,-0.03325,-0.0093093,0.020498,-0.0050779
-0.006655,-0.0075769,0.057818,0.15614,0.0096718,0.0072526,0.0030089,-0.0058922
-0.0037795,-0.0084513,0.068294,0.089283,0.052599,0.016845,0.01015,0.0018711
0.0075436,-0.059765,-0.2592,-0.18522,-0.0063594,-0.019758,-0.0050171,-0.0052492
0.058029,0.11043,0.2954,0.12141,0.019971,0.037815,0.011982,0.035124
-0.04037,-0.037473,-0.35093,0.031627,0.029746,0.001756,-0.0094709,0.0055928
-0.053735,-0.24512,-0.15523,0.075109,-0.078785,-0.050119,-0.038455,-0.04724
0.025462,0.12184,0.30833,0.046849,0.0068312,0.014744,0.010678,0.024772
-0.021591,0.026605,-0.035482,-0.25809,-0.057037,-0.014758,-0.0029082,-0.028633
0.047448,0.10451,0.18924,0.033945,0.073632,0.025379,0.037853,0.050172
-0.017101,-0.064094,0.11368,-0.015115,-0.014858,-0.0054272,-0.015518,-0.020147
-0.027329,-0.087094,-0.031874,0.19663,0.052876,0.017941,0.0010519,-0.020799
0.032789,0.13744,0.21552,-0.23591,-0.035343,-0.029363,-0.0061451,0.0093054
-0.016118,-0.12573,-0.51767,-0.0062797,-0.021499,-0.0065662,-0.0058061,-0.0077133
0.037074,0.16833,0.23176,0.12184,0.0085362,0.023948,0.0099353,0.014374
0.020545,0.14196,-0.33663,0.0095992,0.0078241,-0.00025748,0.0020704,0.005546
-0.018877,-0.19985,0.073049,0.15824,0.030903,0.030208,0.017532,0.0051019
-0.034408,-0.070411,0.16549,-0.14266,-0.031786,-0.025301,-0.013923,-0.01025
-0.049568,-0.072655,-0.71211,-0.018287,-0.0007146,-0.026183,-0.029715,-0.017048
0.013727,0.074588,0.79602,-0.1257,-0.008788,0.011932,0.001492,0.0080449
0.046086,-0.11181,-0.072017,0.16677,-0.032578,-0.028118,0.0016459,0.0023056
-0.015013,0.034487,0.4283,-0.032747,0.037354,0.025594,0.025467,0.0044812
0.064732,0.2585,-0.36658,0.040314,0.021422,0.024688,0.018238,0.029831
-0.042955,-0.15574,0.22981,-0.16162,-0.033403,-0.015173,-0.01233,-0.023567
0.021086,0.067432,0.15315,0.17373,0.044801,0.015389,-0.0038949,0.008062
-0.055884,-0.062877,-0.89495,-0.15649,-0.040853,-0.024281,-0.026955,-0.039501
0.030612,0.00043116,0.061649,0.27806,0.053315,0.022018,0.012071,0.021257
-0.047669,0.0065705,0.11783,-0.36546,-0.071232,-0.033252,-0.0041137,-0.012601
0.037393,0.016497,-0.005157,0.093555,0.046352,0.020844,0.026037,0.015514
0.028104,0.067332,0.45366,0.069833,-0.023676,0.0046707,0.0010481,0.0044771
-0.020631,-0.092865,-0.32309,0.063638,-7.3158e-05,-0.0035448,-0.0085734,0.0094371
-0.014784,-0.035981,0.22117,-0.026855,-0.039056,-0.027103,-0.041615,-0.016063
0.022502,-0.020782,0.44624,0.0007361,0.046919,0.020065,0.027238,0.014225
0.0055576,0.085315,-0.32866,0.20787,0.031313,-0.0025807,0.0029698,-0.016728
-0.034166,-0.045386,-0.28531,-0.25027,-0.015587,-0.0012985,-0.0048289,-0.0073765
0.0049957,-0.037003,-0.25439,-0.093194,-0.023543,0.0081578,0.011729,0.010831
-0.025418,0.002132,0.16013,-0.078994,-0.016096,-0.0057113,-0.0021411,-0.0093444
0.06194,0.049479,-0.18433,0.19891,0.045726,0.034883,0.007978,0.01755
0.0011732,0.1368,0.71079,0.069476,0.013455,0.0045816,0.010436,0.012843
0.0028728,-0.079679,-0.39781,-0.09896,-0.058142,-0.034409,-0.018662,-0.00054827
-0.0036304,0.016721,-0.065794,0.061987,0.042073,0.0037001,0.021824,0.0082231
-0.057691,-0.17646,0.18246,-0.079499,-0.044966,-0.052915,-0.040276,-0.03917
0.020214,0.011611,0.080515,0.094386,-0.022025,0.038188,0.0058719,0.0057648
0.011332,0.14246,0.081041,0.021255,0.05653,-0.003825,0.0041274,-0.01291
-0.013876,0.082609,-0.1204,-0.20557,-0.035695,0.0090223,-0.013958,-0.016549
-0.016093,-0.1916,-0.51482,0.077052,0.013731,-0.00096235,0.014537,0.018908
0.036221,0.062352,0.36872,-0.0072409,0.04039,0.021198,0.0041299,0.023745
0.026138,-0.013992,-0.029421,0.086808,0.0046055,-0.0025361,0.0098924,0.021844
0.016343,0.11203,-0.4015,0.23252,0.022795,0.037091,0.0086326,-0.0022166
-0.055575,-0.23754,0.53621,-0.23566,-0.038614,-0.063328,-0.015208,-0.032881
-0.017727,0.064157,0.074102,-0.1781,-0.039558,-0.0072769,0.00076389,-0.00014231
0.020482,0.15156,-0.014608,0.10805,0.011946,0.025216,0.0094413,0.017409
0.027759,0.025807,0.43248,0.045235,-0.016671,0.0026568,0.010534,0.019265
-0.042803,-0.10955,-0.71226,-0.11512,-0.023168,-0.020364,-0.027479,-0.041892
-0.0037218,-0.18465,0.087377,0.18377,0.016894,-0.0047271,-0.018849,-0.0022777
0.059058,0.28356,-0.17874,0.17881,0.11247,0.041934,0.020723,0.013044
-0.026352,-0.074215,-0.07438,-0.33834,-0.055676,-0.044203,-0.0024796,-0.0035872
-0.0178,0.059747,0.50984,-0.013717,-0.064879,0.002718,-0.010223,-0.0049754
-0.024725,-0.16104,-0.52658,-0.1893,-0.02414,-0.004653,0.0054291,-0.021966
0.038718,0.22195,0.24787,0.37801,0.082037,0.058709,0.021125,0.023952
0.02398,-0.066381,0.46814,0.086491,0.042103,-0.010429,0.0056249,0.031495
-0.00654,0.0047026,-0.066703,-0.17449,-0.043376,-0.024779,-0.0020789,0.00076991
0.0095945,-0.10306,-0.37792,0.18665,0.058775,0.038851,0.021332,0.017645
-0.044797,-0.20791,0.25537,0.049999,-0.04324,-0.038492,-0.02582,-0.035281
-0.060248,0.013441,-0.35225,-0.51695,-0.11598,-0.061588,-0.042023,-0.048925
0.08059,0.1425,-0.58173,0.045802,0.05098,0.047735,0.019647,0.038922
0.0029114,0.29952,0.59149,0.22075,0.012261,0.00058778,-0.0047176,-0.0063491
0.0037537,-0.036701,0.30007,-0.032332,-0.0052038,0.0081449,0.0022948,0.010428
-0.018367,-0.091721,0.12006,0.23138,0.022678,0.0081315,0.009663,-0.012365
-0.0088096,-0.15489,-0.15589,0.035432,0.041993,0.016314,0.017552,0.019038
0.04788,0.045839,-0.198,-0.36961,-0.0012193,0.001456,0.018197,0.018763
-0.043882,-0.10889,0.033181,0.071916,-0.028275,-0.028745,-0.019733,-0.028732
0.012466,0.14404,0.3114,0.18163,-0.0075877,0.011435,-0.0026806,-0.013978
0.036953,0.1303,-0.1587,-0.24987,-0.032794,-0.011066,-0.0012077,0.024053
-0.056546,-0.29283,-0.1388,0.20093,0.036668,-0.002723,-0.015554,-0.008297
0.0053648,0.23257,-0.18415,-0.09719,0.01312,0.020693,-0.0068314,0.006249
-0.011574,-0.036382,0.067741,0.060254,-0.017713,-0.018972,-0.0063685,-0.010345
-0.0055536,-0.12302,0.076505,-0.02882,-0.0013346,-0.0044418,0.02492,0.0045049
0.039376,0.067238,-0.055094,0.22999,0.02308,0.0097921,0.0090105,0.011814
-0.0092725,-0.08142,0.097233,-0.3349,-0.02261,0.00055379,-0.0070766,-0.019608
0.020643,0.10453,0.16062,0.018658,-0.028958,-0.00062618,0.00025012,-0.0037879
0.004285,-0.013896,-0.044209,0.24353,0.011972,0.022126,0.0076887,0.012396
-0.02704,-0.021272,-0.26966,-0.13731,0.014349,-0.016953,-0.01591,-0.0023519
0.012567,0.13018,0.3611,-0.16358,0.0094414,-0.016234,-0.00017502,0.02219
-0.056679,-0.12947,-0.23196,0.070133,-0.010692,-0.014833,-0.015404,-0.023479
0.054154,0.090255,-0.1792,0.20334,0.031769,0.041761,0.016499,0.016744
-0.030078,-0.13303,0.33946,-0.1716,-0.027698,-0.018609,0.001711,-0.036969
0.034214,-0.011001,-0.10746,0.029695,0.0056705,0.030271,0.026065,0.026209
-0.0031446,0.10394,0.1109,0.31339,0.029777,-0.0072772,-0.0043146,0.010901
-0.017345,-0.046813,0.44706,-0.37663,-0.033911,-0.022193,-0.034862,-0.020398
0.0070392,0.036053,-0.675,0.12275,0.0019292,-0.0068668,0.004641,0.0026719
-0.0004873,0.0082427,-0.26506,-0.14183,-0.04227,-0.0082222,-0.0030464,0.0020781
0.030253,-0.068128,0.42121,0.095897,0.029224,0.036362,0.012384,0.017001
-0.049229,-0.083912,-0.23531,0.048291,-0.0016718,-0.044718,-0.011533,-0.038378
0.05019,0.27332,-0.085482,-0.18106,0.037724,0.037969,0.034636,0.031353
-0.046307,-0.12136,0.1302,0.23822,-0.023653,-0.012057,-0.013107,-0.008125
-0.010304,-0.02553,0.54532,-0.16055,-0.028874,-0.022565,-0.014074,-0.00055737
0.010121,-0.07942,-0.81846,-0.086814,0.0068701,0.030128,0.0005336,0.0071337
0.0075171,0.037829,0.38488,0.31163,0.036828,0.021131,-0.0083033,0.007049
0.013427,0.076892,0.52065,-0.04363,0.029556,-0.010534,0.014136,-0.016541
0.0045802,-0.070848,-0.24481,-0.06777,-0.038844,-0.018147,0.0053795,-0.0012311
0.012238,0.064136,-0.036709,-0.14522,-0.028359,-0.025371,-0.0033018,-0.0017721
-0.010605,-0.017418,-0.27791,0.15985,0.052569,0.03006,-0.0040773,0.0052596
-0.0016766,0.021074,-0.054309,-0.044511,-0.03094,-0.00047893,-0.0047426,-0.0035341
-0.008107,0.047305,0.12095,-0.040091,0.01772,0.023534,0.0025335,0.010996
-0.03011,-0.20404,-0.25414,0.079766,-0.035817,-0.046341,-0.0056648,-0.0057148
0.041565,0.032702,0.22017,-0.01172,-0.027214,0.0087383,0.017563,0.0089714
-0.019661,0.085313,-0.39743,-0.14846,0.028343,0.0092445,0.0019346,-0.0073083
-0.034025,-0.10169,0.34389,-0.1485,-0.04837,-0.029015,-0.029082,-0.031
0.037653,0.10323,0.317,0.091617,0.063295,0.058178,0.026109,0.023913
0.039236,0.28432,-0.16085,0.13537,0.043115,-0.025968,-0.0043358,0.024644
-0.0136,-0.1619,0.61659,0.27931,0.06277,0.023222,0.0046087,0.0024112
-0.042766,-0.1747,-0.6539,-0.23603,-0.11254,-0.052175,-0.032989,-0.042875
0.0063002,-0.107,-0.46437,0.71945,0.1026,0.060154,0.015658,0.013654
0.039647,0.1265,0.59091,-0.85733,-0.11256,-0.015022,0.017667,0.023399
-0.036713,-0.044334,-0.051142,-0.27375,-0.10199,-0.067001,-0.011465,-0.02943
-0.0042673,0.1158,-0.45334,0.16376,0.0093369,0.029004,0.0062024,0.0034511
0.043041,-0.0010191,0.21242,-0.053081,0.12015,0.022823,0.0079455,0.028166
-0.012094,0.028806,0.44608,0.58423,0.082413,0.03152,0.0013409,-0.017873
-0.052508,-0.16024,-0.98729,-0.251,-0.06446,-0.038723,-0.037256,-0.0097019
0.023442,0.050401,0.6765,-0.010227,-0.0077636,0.015207,0.024833,0.013629
0.02061,0.052318,0.27866,-0.1608,-0.060016,-0.0019436,0.015699,-0.0025062
0.017351,0.095962,0.15963,0.31374,0.051982,-0.0041009,-0.0098782,-0.0033157
-0.056384,-0.045216,-0.01212,-0.2661,-0.039366,-0.030115,-0.020437,-0.012109
0.041855,0.0034833,-0.10624,-0.096043,0.063889,0.0062178,0.0077646,0.018124
-0.00018766,-0.18026,-0.46706,0.61218,-0.021543,0.019247,-0.018666,-0.014062
0.013011,0.051575,-0.38177,-0.57981,-0.0069673,0.00923,0.025619,0.024231
-0.019942,0.0033596,-0.23681,-0.00086311,-0.017573,-0.0080281,0.015901,-0.0075801
-0.0051754,0.15149,0.42639,0.083039,0.0013601,0.014424,-0.008593,-0.007939
-0.059809,-0.16033,0.16001,-0.14052,-0.059292,-0.025015,-0.016582,-0.023765
0.06615,0.15386,0.91299,0.46176,0.097773,0.037587,0.030893,0.046435
-0.018024,-0.077786,-0.19659,-0.30465,-0.019095,-0.03234,-0.030436,-0.031797
0.06247,0.027644,-0.07693,0.10028,-0.0187,-0.016251,0.0022964,0.0149
-0.02078,0.071846,-0.24777,-0.11148,0.029194,0.0075449,0.011637,-0.0088453
-0.041547,-0.28091,-0.97188,0.10022,0.015698,0.03111,-0.010448,0.0063129
0.046725,0.22744,1.0509,-0.013597,-0.019709,-0.015925,0.0062005,0.0056931
-0.068706,-0.11381,-0.91668,-0.23321,-0.022,-0.0085444,-0.0087937,-0.018475
0.010474,0.062602,0.60064,0.27031,-0.053422,0.0064583,-0.00072822,0.0041955
0.01084,-0.024786,-0.029556,-0.10407,0.026789,-0.0020385,0.0070363,0.0034825
0.026264,0.037464,0.24079,0.15162,-0.00014204,-0.0026267,-0.0010146,0.0029189
-0.044625,-0.1189,-0.54805,-0.3301,0.076478,0.020484,0.014298,-0.0052251
0.079633,0.22344,0.69048,0.44999,-0.0016531,-0.0028697,-0.0094258,0.025985
-0.01483,0.094161,-0.20004,-0.43118,-0.047755,-0.025699,-0.0018029,-0.020609
-0.023172,-0.16443,0.28753,0.22798,0.015422,-0.0010756,-0.0018577,-0.0043789
-0.031212,-0.12361,0.06662,0.097665,-0.0083478,-0.0071485,-0.0017699,0.0043423
-0.0076195,-0.041458,-0.9485,-0.042496,0.036374,0.0419,-0.0015568,-0.010113
0.0085857,0.043508,-0.068825,-0.29546,-0.085376,-0.033834,-0.0090687,-0.0087469
0.033018,0.023175,0.099207,0.0331,0.008936,0.023158,0.022514,0.031786
-0.028151,-0.061692,0.74701,0.13801,0.030311,-0.0062197,-0.01625,-0.029259
0.051494,0.24383,-0.11352,0.15997,0.026003,0.018328,0.015192,0.034534
0.013933,0.074136,0.1381,0.29493,0.012261,-0.0050046,0.0074001,0.0042613
-0.06293,-0.27276,-0.82451,-0.40901,-0.017952,0.0018233,-0.0084155,-0.018652
-0.038662,-0.030615,0.34209,-0.41891,-0.071625,-0.062637,-0.024446,-0.034293
0.094439,0.23826,0.43235,0.32976,0.086389,0.028493,0.014034,0.04326
-0.038636,-0.20846,-0.08915,0.12809,-0.027657,0.0022388,-0.010086,-0.012487
-0.031548,0.17576,0.084863,-0.25669,-0.038348,-0.015878,-0.0029634,-0.021705
0.014296,-0.19542,-0.41819,0.28556,0.070101,0.04492,0.035489,0.023607
-0.03375,-0.056821,0.014249,-0.13621,-0.014916,-0.026008,-0.019672,-0.024798
0.058811,0.06761,-0.19122,0.24202,-0.028119,0.037032,0.011255,0.028555
0.073274,0.2866,0.60487,0.18332,0.037787,0.030737,0.0032467,0.027514
-0.084151,-0.22879,-0.72164,-0.33867,-0.020928,-0.060895,-0.028114,-0.035703
-0.0073045,-0.010848,0.6287,-0.31884,-0.056428,-0.043037,0.01088,0.0029418
0.030297,0.17368,-0.15283,0.16292,0.063583,0.052577,0.010838,0.010584
-0.033862,-0.27002,0.13359,0.067012,0.0028058,0.0068069,-0.0047873,-0.012823
-0.051256,0.086887,-0.022999,0.074,-0.020188,-0.032131,-0.028137,-0.036049
0.032986,-0.013802,-0.36039,-0.12657,0.0024348,-0.0017637,0.011159,0.019043
0.062852,0.30309,0.093912,0.42904,0.031811,0.043382,0.019396,0.027487
-0.01611,-0.25064,0.037892,-0.34982,-0.056714,-0.013572,0.012212,0.02838
-0.00060207,-0.0094387,0.16817,0.024074,0.03416,-0.015974,-0.010427,-0.040765
-0.03899,-0.14314,-0.30465,-0.32215,-0.054502,-0.010276,-0.009534,-0.023721
0.040566,0.014614,0.38295,0.22196,0.013613,0.011713,0.014798,0.040396
0.011371,0.25507,0.016299,0.32023,0.090317,0.026828,-0.0078291,0.0030644
-0.056461,-0.14666,-0.41742,-0.26322,-0.027424,-0.035119,-0.02278,-0.026441
0.0087074,0.013298,0.34962,0.34406,-0.011544,0.028947,0.0090022,-0.0013532
-0.027752,-0.015386,-0.2115,-0.23599,-0.01064,-0.031186,-0.0061917,-0.0077209
0.052655,0.10956,0.30103,0.0093436,-0.0014715,0.0028837,0.017641,0.024659
0.023125,0.018584,0.05641,-0.039206,-0.023269,0.044787,0.010255,0.0019312
0.03189,0.11508,-0.25039,-0.33555,-0.013644,-0.015296,0.0029418,0.0099379
-0.061812,-0.26782,-0.65631,0.097526,-0.035158,-0.021504,-0.019917,-0.021702
-0.015826,-0.030769,0.79616,0.22282,0.099634,0.0024606,0.011959,0.0085486
-0.025362,-0.065673,-0.40273,-0.058672,-0.015621,-0.013818,-0.018683,-0.0086432
0.01137,0.11949,0.15963,0.16969,-0.013925,-0.0077668,-0.010364,-0.0028493
0.032186,0.0021273,0.59055,-0.16821,0.010701,0.02084,0.013389,-0.0051321
-0.0016378,0.013502,-0.49652,0.33495,0.034515,0.0098332,0.02124,0.0081859
0.027381,0.085229,0.12677,-0.1646,-0.020856,0.01428,0.013125,0.0061141
-0.021186,0.0083002,-0.76704,-0.46472,-0.061768,-0.012325,-0.0031676,0.012331
0.024616,0.1125,0.93578,0.38606,0.013449,-0.0071643,-0.02761,-0.0042266
-0.053992,-0.28061,-0.64537,-0.1377,-0.029251,-0.016878,-0.028861,-0.020019
0.016322,-0.029638,0.56067,0.13386,0.060626,0.021171,0.016662,-0.0037969
-0.014591,0.053242,0.0935,-0.043287,-0.021049,-0.017987,-0.00025461,-0.0025451
0.0093606,0.077268,0.13432,0.19665,0.0074619,-0.0094315,0.014277,0.01477
0.017717,-0.044041,-0.39905,-0.13939,0.021456,0.038843,0.01345,0.016595
0.0025431,0.13375,-0.38238,-0.42667,-0.033718,-0.0062374,0.012866,-0.0052288
0.010632,0.078316,0.062295,0.31168,0.021395,-0.0043575,0.0046055,0.0036472
-0.028353,-0.24266,0.082054,0.1077,0.037912,-0.0026949,-0.027102,-0.011722
0.041882,0.15436,0.15453,0.056312,0.015302,0.014134,0.0035567,0.018862
-0.044162,-0.17638,-0.16367,0.13546,-0.070357,-0.016499,-0.028467,-0.037342
-0.02067,-0.047354,0.081489,-0.37987,-0.031859,-0.024272,0.0018924,-0.0081971
0.011016,0.057498,0.30241,0.035441,0.0057671,0.0065862,0.024495,0.0051461
0.027649,0.11535,0.28283,0.21911,0.034958,0.021629,0.00052104,0.010978
-0.040989,-0.07639,-0.30687,-0.21773,-0.03758,-0.041375,-0.022913,-0.013699
0.047236,0.14661,0.067366,0.06247,0.030886,0.036543,0.0090561,0.032978
0.026472,-0.0048647,-0.74263,-0.12661,0.053347,0.013302,0.026162,0.026099
-0.033335,-0.11724,0.41066,0.38745,-0.016748,-0.0017618,-0.0029518,-0.018848
0.023623,0.11347,0.24521,-0.34098,-0.030871,0.030243,0.015222,-0.00062981
-0.0061921,-0.10241,-0.53538,0.20244,0.018648,-0.031553,-0.013402,-0.021248
-0.052749,-0.10905,0.92304,-0.09379,-0.0013362,-0.0076991,-0.018857,-0.0030262
-0.030192,-0.031444,-0.5149,-0.068369,-0.060015,-0.038964,-0.024869,-0.02446
0.061619,0.20102,0.19017,0.15068,0.037459,0.023089,0.023075,0.023595
-0.019179,-0.098594,-0.59144,0.021475,0.00942,-0.0010708,-0.015682,0.00044021
0.016905,0.085905,0.27069,-0.051878,0.011807,0.01383,0.023014,0.0077049
0.021878,0.028418,0.16635,0.046735,-0.0024281,0.0056086,0.014347,0.014306
-0.0038837,-0.020817,-0.22518,-0.30746,-0.025494,-0.017645,-0.0023924,-0.010786
0.018005,0.016341,0.46993,0.23081,0.036492,0.022354,0.0042738,0.010789
-0.068577,-0.204,-0.62629,-0.17966,-0.027139,-0.022833,-0.035769,-0.030121
0.04888,0.16949,0.53524,0.15168,0.010538,0.049747,0.018246,0.030737
-0.0594,-0.1134,-0.47591,0.16532,-0.014131,-0.018026,-0.013293,-0.02524
0.036104,0.07995,0.36019,-0.42556,0.00078845,-0.023407,0.010233,-0.0026484
0.014854,0.077499,0.31925,0.58324,-0.038198,0.0019733,-0.005017,-0.0030238
-0.006237,-0.089643,0.019904,-0.33205,0.048661,-0.028131,0.026725,0.020457
0.0037746,-0.0075405,-0.74683,-0.0090663,0.011189,0.011083,-0.019771,-0.0026508
-0.0022915,-0.012224,0.12444,-0.044259,0.005218,0.017984,0.0036769,0.0055786
0.037801,0.13067,0.7185,0.24667,0.022334,0.016055,0.010904,0.013658
-0.055811,-0.14125,-0.73616,-0.053384,-0.031883,-0.0023778,0.0017636,-0.017703
0.0058891,0.12547,-0.33649,-0.2045,-0.033018,-0.0058653,-0.023764,-0.0027341
-0.0035626,-0.099924,-0.052968,-0.051414,0.042015,-0.0019735,-0.0030466,-0.011805
-0.029249,-0.11358,0.47978,0.17209,-0.017716,-0.021674,-0.0061162,-0.01359
0.069773,0.18688,0.90667,0.11658,0.0069532,0.029084,0.014288,0.031177
-0.010846,-0.041514,-0.66153,-0.21455,0.0074389,0.0021677,0.011716,0.0056067
-0.052063,-0.1185,-0.14085,-0.25471,-0.10114,-0.055259,-0.029075,-0.035275
0.040065,0.15143,0.18267,0.12519,0.0026467,0.036729,0.024994,0.018216
0.023413,0.096115,0.036897,0.45979,0.12448,0.020472,0.0099558,0.010055
-0.031778,-0.32432,0.024663,0.016768,-0.00063769,-0.025868,-0.0039692,-0.0049772
-0.00067386,0.20138,-0.35126,-0.18005,0.018074,0.022617,-0.0014172,0.01213
0.022756,0.031071,-0.24165,-0.32731,-0.038499,0.0016476,0.0016114,0.014319
-0.047632,-0.0008307,0.026192,0.056557,-0.038345,-0.026586,-0.018738,-0.045564
0.045833,0.088801,0.33099,0.22548,0.017462,0.015683,0.0074652,0.019667
-0.025014,-0.20072,-0.26691,0.034415,-0.0050369,0.0031085,-0.013817,-0.016848
0.021152,0.075981,0.80132,-0.091293,0.0025123,-0.0099092,0.018823,0.024339
-0.034245,-0.17398,-0.404,-0.02254,-0.015312,-0.0079275,-0.011824,-0.020981
0.027779,0.13686,-0.24616,0.25377,0.050514,0.032432,0.0037118,0.026824
-0.011296,0.010368,0.081125,-0.060183,-0.018709,-0.029395,0.010909,-0.011906
-0.018497,-0.028196,0.061344,-0.41674,-0.035068,-0.0057515,-0.013475,-0.019892
-0.025045,-0.039989,-0.066314,0.069316,-0.029154,-0.01362,0.0010507,0.0029885
0.086111,0.1865,0.32649,-0.004759,0.046673,0.03314,0.015557,0.025611
0.0021708,0.002527,-0.5075,-0.01785,-0.010016,0.0018663,0.0066816,0.0012096
0.019598,0.10232,0.3411,0.17418,0.043456,0.025436,-0.0021124,0.0079874
-0.096413,-0.3594,0.12671,0.23,-0.011473,-0.044613,-0.03427,-0.039941
0.0053583,0.11576,-0.15993,0.32251,-0.010872,0.010376,-0.0038713,-0.0019156
0.035696,0.042184,-0.41638,-0.45486,0.04487,0.018409,0.034393,0.043976
-0.013122,-0.09635,0.11818,-0.25169,-0.032268,-0.028423,0.0024175,-0.019401
0.03111,0.12218,0.25309,0.26662,-0.024053,0.033907,-0.0060028,0.01115
-0.057643,-0.067017,0.02487,-0.26019,-0.055856,-0.060179,-0.022052,-0.03615
0.041547,0.063913,0.12587,-0.24637,-0.026264,0.0019421,0.0090289,0.010679
-0.0066648,-0.022652,-0.54216,0.76175,0.21325,0.095437,0.016993,0.018915
-0.069026,-0.19265,0.32646,-0.66461,-0.18076,-0.10765,-0.037188,-0.042639
0.10466,0.22654,0.23781,0.35032,0.042114,0.056854,0.041792,0.060377
0.014293,0.13341,-0.17964,0.13487,0.038569,0.018684,-0.011753,-0.0080665
