0.11383,0.23217,0.38341,0.25628,0.10813,0.057472,0.053068,0.067174
0.065129,0.095881,0.019447,0.048489,0.05867,0.026512,0.019365,0.025628
0.040428,0.14744,0.60035,0.32848,0.06236,0.025993,0.01763,0.047448
-0.10078,-0.097734,0.37347,-0.28675,-0.10701,-0.084812,-0.045784,-0.062495
-0.16323,-0.32891,-0.42646,-0.32155,-0.18332,-0.10267,-0.069366,-0.085459
0.016946,-0.041422,-0.52135,0.019534,0.099692,0.058668,0.024844,0.017453
0.033179,0.34657,0.26405,0.094266,-0.038574,-0.0065696,-0.021197,-0.011862
0.28344,0.26034,0.12974,0.47923,0.21496,0.15526,0.12819,0.14653
-0.225,-0.56974,-0.33777,-0.4205,-0.1315,-0.11947,-0.097581,-0.10934
0.12448,0.64255,0.46113,0.13671,0.094054,0.060121,0.043444,0.056033
0.011156,-0.49449,-0.45404,0.080789,-0.022578,-0.0012712,0.035462,0.0094639
-0.30731,-0.4876,-0.41018,-0.59498,-0.22391,-0.16324,-0.14504,-0.15555
0.2709,0.8148,0.14413,0.70497,0.30214,0.21443,0.15043,0.17025
-0.20668,-0.69183,-0.074815,-0.50149,-0.21834,-0.12657,-0.093534,-0.098964
0.073441,0.38102,0.47537,0.084654,-0.066992,0.0085872,-0.017255,0.013613
0.10456,0.42182,0.47343,0.097736,0.27143,0.10385,0.074958,0.047447
-0.01854,-0.095965,0.33476,0.17881,-0.20341,-0.091038,-0.035294,-0.012597
0.11118,-0.60673,-0.51501,-0.15741,0.11757,-0.0058165,0.011608,0.029318
-0.099631,0.26566,0.21299,0.26662,0.13255,0.039345,0.020426,-0.021614
-0.057229,0.090547,-0.72532,0.088571,-0.17425,-0.025572,-0.008974,-0.024335
-0.16046,-0.17399,-0.38574,-0.65565,-0.14664,-0.090835,-0.069121,-0.095729
0.12117,0.81138,0.71766,0.27355,0.12175,0.093851,0.081663,0.10025
0.19285,-0.99001,-0.4021,0.14818,-0.032893,0.012985,-0.010361,0.02439
-0.35298,-0.27928,-0.42375,-0.6332,-0.078988,-0.10698,-0.11926,-0.14405
0.51356,0.94583,0.82812,0.92325,0.4213,0.31173,0.231,0.30518
-0.24007,-0.14748,0.5458,0.015883,-0.25825,-0.18444,-0.13179,-0.15219
-0.083508,-0.20305,-0.43015,-0.95299,-0.00011241,-0.02557,-0.0045286,-0.01698
0.13921,0.23095,-0.12751,0.74732,0.032108,0.053893,0.058452,0.053994
-0.24329,-0.36021,-0.33338,-0.37165,-0.098486,-0.16444,-0.11398,-0.15819
-0.050008,-0.18423,0.41359,0.005231,-0.22707,-0.007849,0.0026737,-0.01258
0.08816,0.55319,-0.15294,0.11339,0.10027,0.040536,0.019051,0.03068
0.25152,-0.37557,-0.073448,0.39728,0.44673,0.16959,0.12389,0.17581
-0.18292,-0.072495,-0.14651,-0.34107,-0.24984,-0.12727,-0.10367,-0.13855
0.16912,0.19603,0.032351,0.38647,0.23704,0.12725,0.071334,0.10418
-0.23862,0.26392,0.39109,-0.66708,-0.48381,-0.1683,-0.13232,-0.14232
0.2029,-0.021293,0.17015,0.28268,0.16477,0.1026,0.11293,0.13756
-0.20294,-0.21304,-0.54639,-0.041483,-0.091915,-0.053586,-0.053421,-0.11145
0.13554,-0.06277,-0.22152,0.0064035,0.26032,0.11131,0.10144,0.13301
-0.17492,-0.10577,0.14252,-0.17613,-0.1238,-0.12353,-0.096151,-0.14615
0.034743,-0.41086,0.19957,0.08332,-0.011337,-0.0022799,0.00050056,-0.0052383
0.25405,0.30297,0.33802,0.28641,0.22148,0.12195,0.061818,0.1089
-0.011219,0.65176,0.02501,-0.11135,-0.2621,-0.15018,-0.10841,-0.05494
0.04265,0.57998,0.065001,0.095967,0.006495,0.11095,0.12245,0.13539
-0.24012,-0.55994,-0.56345,-0.28395,-0.034697,-0.12507,-0.10433,-0.15593
0.11132,-0.54511,0.51164,0.41606,0.20941,0.16679,0.15016,0.1033
-0.24311,0.00023276,-0.37388,-0.19149,-0.11074,-0.10506,-0.10424,-0.11637
-0.18147,-0.67619,-0.78828,-0.33006,-0.055202,-0.10229,-0.16204,-0.085907
0.52001,0.7555,0.44291,0.48753,0.20669,0.20079,0.18221,0.18182
-0.26712,-0.23198,0.094119,-0.78352,-0.56505,-0.20976,-0.13219,-0.19337
0.10043,0.052462,0.12321,0.084078,0.33413,0.13562,0.12229,0.087331
0.16203,0.093756,0.3728,0.75325,0.24824,0.04916,0.05478,0.079428
-0.18624,0.24674,0.21794,-0.24033,-0.23001,-0.072047,-0.086173,0.0011051
0.11347,0.30554,0.309,0.25407,0.22518,0.074465,0.040655,0.037918
0.19555,0.3479,-0.52761,-0.20017,-0.21752,0.0016447,0.096185,0.13218
-0.032507,-0.13006,0.19825,0.40541,0.39154,0.15221,0.13977,-0.016468
-0.31856,-0.71099,-0.42631,-0.56793,-0.38809,-0.30391,-0.30761,-0.28628
0.091607,0.087384,-0.3078,-0.053207,0.035533,0.054339,-0.051851,0.078175
-0.40442,-0.59155,-0.33681,-0.26903,-0.19712,-0.061618,0.001183,-0.22098
0.25005,-0.043736,0.26833,-0.11017,-0.07675,-0.025012,-0.044992,0.25422
0.067161,0.25292,0.21767,0.43767,0.14167,0.13556,0.093997,-0.064808
0.013499,0.33204,-0.15797,-0.15661,0.2116,-0.12383,-0.0079056,0.035424
0.21985,0.15794,0.76913,0.63044,0.073921,0.12128,0.13703,0.12014
0.050359,0.31819,0.24065,0.19568,0.14522,0.18504,0.031199,-0.042671
-0.35135,-0.52552,-1.0309,-0.90256,-0.33882,-0.18222,-0.058844,-0.084309
0.26553,0.24426,0.29297,-0.046367,-0.14392,-0.051892,-0.079063,0.081657
-0.037704,0.021123,0.14554,0.33247,0.19735,0.042551,0.062222,-0.0062655
-0.13888,-0.14901,-0.076597,-0.23904,-0.14537,-0.019049,-0.028659,-0.11511
0.16923,0.20753,0.88707,0.92889,0.31742,0.13521,0.082377,0.12038
-0.14062,-0.08356,-0.66466,-0.25544,0.12989,0.11209,0.025004,-0.044077
-0.10292,-0.068872,-0.65007,-0.82039,-0.38205,-0.35563,-0.23433,-0.024433
0.045786,-0.21243,-0.30421,-0.14431,-0.29014,-0.072913,0.076714,0.029524
0.2265,-0.074608,0.75171,0.45118,0.42082,0.00040258,-0.19004,-0.039076
-0.1697,-0.35151,-0.59139,-0.12706,-0.23298,0.17904,0.28718,-0.0034671
-0.094465,0.51432,0.69356,0.45118,0.32011,0.18464,0.018543,-0.003282
0.11062,0.10522,0.54184,0.11062,0.066278,-0.034533,0.15527,0.11937
-0.028621,0.049471,-0.80609,-0.64579,-0.32061,-0.16345,-0.22173,-0.031895
0.15406,-0.1605,-0.086819,0.45011,0.21598,-0.059816,-0.19603,-0.0095536
-0.050617,-0.052462,0.673,-0.178,-0.4318,-0.019868,0.0074372,-0.24125
0.06142,0.61413,-0.15583,0.17396,0.55742,0.23717,0.27999,0.1652
-0.28309,-0.29984,-0.61725,-0.66575,-0.39407,-0.08699,0.004085,0.0075222
0.10281,0.031833,0.83046,0.61475,0.28385,0.044591,0.045566,0.074663
-0.00073054,-0.83177,-1.1695,-0.18111,-0.12838,-0.16736,-0.1289,0.04524
0.10788,0.5908,0.4086,0.40599,0.024178,0.16549,-0.11551,-0.06703
0.020664,0.33023,0.41012,-0.25852,0.052407,-0.028926,0.075529,0.032301
-0.13131,-0.29786,-0.61812,-0.21521,-0.21728,-0.2438,-0.018626,-0.088965
0.213,-0.035995,0.85279,0.45686,0.29947,0.33327,0.38216,0.16861
-0.20517,-0.53646,-0.74479,-0.73463,-0.29704,-0.31268,-0.55823,-0.24321
0.012379,0.60663,0.60485,0.25008,0.015797,0.069607,0.11407,-0.051325
-0.0087689,0.012218,0.33757,0.084171,0.19859,0.098761,-0.044804,0.088686
0.10777,0.065261,-0.29844,0.10515,0.18122,0.22926,0.20915,0.068964
0.0046056,-0.061633,-0.084594,0.43165,-0.10597,-0.31914,-0.090999,0.17279
-0.23782,-0.51133,-0.54879,-0.63846,-0.44313,0.15724,0.18124,-0.20705
0.031178,-0.0011084,0.0045119,-0.042257,-0.01636,-0.052391,-0.027846,-0.013934
0.25086,0.59882,0.0024482,0.57957,0.51179,0.06752,-0.045957,0.058262
-0.070002,0.4297,0.24359,-0.60931,-0.24787,-0.014414,0.080037,0.057164
0.068557,-0.3076,0.48221,0.51568,0.26047,-0.24353,-0.50169,-0.11097
-0.1392,0.14144,-0.39425,-0.12381,0.0063125,0.20059,0.1928,-0.10311
0.10953,-0.42827,-0.64881,-0.52768,-0.47093,-0.2209,0.022336,0.20446
-0.24231,-0.19499,0.35,0.33581,0.2116,0.038944,0.10337,-0.033708
0.20907,-0.27744,0.62691,0.029811,-0.024406,0.40962,0.48182,0.055624
0.07872,0.15616,0.13093,-0.070085,0.01603,-0.11729,-0.12464,0.2131
-0.12705,0.11386,0.41605,0.25513,0.13716,-0.1365,-0.5921,-0.43729
-0.088524,0.18451,-0.86465,-0.10418,0.010344,0.13991,0.10988,-0.067691
0.15558,0.348,-0.050248,0.20279,0.0022073,-0.085927,0.15275,0.15833
-0.11227,-0.59723,-0.28201,-0.25475,-0.20029,-0.33803,-0.25255,0.0074589
-0.14024,0.43279,0.17024,-0.33737,-0.019483,0.24302,0.25367,0.03571
0.25344,-0.1698,-0.091198,0.39147,0.16926,0.017262,0.038919,-0.0057604
-0.093326,0.25625,-0.20965,-0.16258,-0.12653,0.13427,0.15026,0.071218
0.25061,-0.021828,0.14316,0.32846,0.12413,-0.12337,-0.045186,0.055719
-0.2296,0.12856,0.56188,-0.22896,0.03812,-0.027867,-0.071034,0.017448
-0.12771,-0.51939,0.43675,-0.24843,-0.15838,0.046711,-0.21646,-0.20864
0.1103,-0.24548,-0.69641,0.2159,0.096701,0.10081,0.15938,0.11861
-0.0089228,0.32173,-0.094435,0.070751,-0.056385,-0.12341,-0.16156,-0.1343
0.1695,0.095925,-0.017584,0.14461,0.069623,-0.0561,0.025049,0.063737
0.10524,-0.029819,0.21659,0.19553,0.14663,0.23954,0.29108,0.09609
-0.31197,-0.29344,0.21112,-0.50285,-0.18436,-0.26072,-0.22121,-0.090806
-0.07464,0.33322,-0.10267,-0.24717,-0.16483,0.17681,0.13809,-0.04236
-0.018416,-0.083533,-0.07323,0.29878,0.042138,-0.10465,-0.051894,-0.038361
0.091835,0.16911,-0.50763,0.010213,0.054725,-0.07412,-0.072028,0.10197
0.13205,0.10623,-0.21036,0.17611,-0.009108,-0.13018,-0.13356,0.090002
-0.045416,0.037517,0.39904,-0.0087149,0.27283,0.37552,0.23124,-0.019983
0.028532,-0.18976,0.27721,-0.014038,0.025274,0.020959,-0.0026703,0.013008
0.095887,-0.1427,0.16986,-0.036572,-0.27598,-0.22539,-0.10292,-0.094042
0.0075244,0.28449,0.063864,0.047159,0.15708,0.19865,0.17837,0.016252
-0.26877,-0.44101,-0.36799,-0.31102,-0.26255,-0.19159,0.003354,-0.025103
0.047306,0.072502,0.17045,0.16937,-0.00438,0.0022222,-0.21524,-0.0084296
0.0097164,0.0083851,-0.33052,-0.089841,0.18127,0.053724,0.022052,0.042372
0.05565,0.17695,0.51743,0.38084,0.091417,-0.20066,-0.14377,-0.0050834
0.052395,0.069062,-0.13921,-0.065599,0.070377,0.29445,0.23376,-0.0011109
-0.054291,-0.19205,-0.52014,-0.35697,-0.35762,-0.085177,0.023551,-0.029794
-0.0059419,-0.2036,-0.11721,-0.069337,0.011426,-0.018593,-0.061612,-0.042119
0.11223,0.62209,0.6414,0.20544,0.21733,0.080547,-0.0044571,0.057715
-0.13659,-0.27099,0.015788,0.054667,0.080914,-0.0064018,0.0086426,-0.0021308
0.037201,0.073866,-0.054105,0.17425,-0.069486,-0.19368,-0.029687,0.029213
-0.069122,-0.15441,-0.31632,-0.29545,-0.14804,0.080797,0.20059,0.057987
0.075911,0.068106,0.14422,0.48044,0.21215,0.097761,-0.13733,-0.01824
0.050511,0.29708,0.014738,-0.42145,-0.1846,-0.0027305,-0.09939,-0.060386
0.018755,-0.3943,-0.19845,-0.27618,-0.03389,-0.072748,-0.046374,-0.015691
0.1369,0.4138,0.75215,0.78993,0.42974,0.098266,0.11416,0.11388
-0.36061,-0.71474,-0.97229,-1.013,-0.59841,-0.20083,-0.040691,-0.20462
-0.083036,-0.33011,0.73504,0.36155,-0.16524,-0.0091031,0.082176,0.019843
0.16502,0.35558,0.20092,0.60127,0.67443,0.27517,0.060722,0.083586
0.12567,0.43557,-0.60525,-0.56698,-0.16573,-0.12896,-0.073451,0.064832
-0.021806,0.33809,0.11643,0.20093,0.040124,0.083629,-0.014779,-0.020139
0.1046,-0.12022,-0.29286,0.0068087,0.0020282,-0.10218,-0.07441,0.025066
-0.027508,0.061888,0.25171,0.24929,0.016006,-0.013932,-0.0084732,-0.056005
-0.14596,-0.59377,-0.61038,-0.51673,-0.27001,-0.041629,-0.0026874,-0.11345
-0.0096947,-0.005149,0.25081,-0.0019125,-0.059076,-0.028472,-0.0086009,0.018195
0.044647,-0.17747,0.36797,0.075445,-0.030192,-0.044407,0.12329,0.14475
-0.084588,0.74304,0.34746,0.11434,0.22407,0.24656,0.072976,-0.014301
0.079726,-0.15496,0.43175,0.42006,0.2129,0.055027,-0.04287,-0.02128
-0.070677,-0.30503,-0.21029,-0.36616,-0.14837,-0.15093,-0.12397,-0.040608
0.20783,0.28283,-0.074838,0.014021,0.023966,0.065311,0.10129,0.075301
-0.13795,-0.31354,-0.60946,-0.12641,-0.13686,-0.15653,-0.087832,-0.073174
-0.091093,-0.13163,-0.33558,-0.24017,-0.15436,-0.1062,-0.076006,-0.042036
0.083658,0.33943,-0.22198,0.047907,0.025726,0.1691,0.19786,0.097167
0.17573,0.27551,0.48722,0.77675,0.55895,0.1616,-0.048214,0.015355
-0.21351,-0.6395,0.099371,-0.5699,-0.36014,-0.19081,-0.064235,-0.077061
0.0012524,0.09816,0.025619,0.061543,-0.06028,0.01094,0.01772,0.030842
0.10032,0.34274,0.37196,0.099366,-0.0027218,0.017552,-0.0041566,0.0036153
-0.073607,-0.045056,-0.39917,-0.11412,0.039209,0.017218,-0.034446,-0.079707
0.048867,0.14561,0.17788,0.06842,-0.14489,0.041743,-0.0011174,0.016405
0.013967,-0.16471,0.56361,0.02152,0.20363,0.036784,0.073848,0.027503
0.032383,0.014112,-0.25479,-0.16075,-0.055003,-0.19287,0.035116,0.1655
-0.13009,-0.30464,-0.31676,0.21796,0.040767,0.063532,-0.12493,-0.15495
-0.10577,-0.1153,-0.7255,-0.69241,-0.26679,0.02432,0.093127,-0.035317
0.090375,0.33037,0.66632,0.42992,0.20139,0.032567,-0.03852,0.023989
0.13077,0.046747,-0.17173,0.46089,0.22523,0.1343,0.15811,0.10027
-0.046837,0.25957,0.342,-0.22443,-0.11124,-0.18705,-0.20164,-0.088789
0.096417,-0.2035,-0.30175,-0.025436,-0.036681,0.0051492,0.044671,0.072868
-0.010399,-0.30351,0.41361,0.19678,-0.037302,0.030522,-0.010308,-0.05632
-0.17285,-0.032415,-0.53265,-0.40357,-0.067365,0.0059005,-0.054425,-0.070679
0.11602,0.35268,0.17557,0.19524,-0.017584,0.040715,0.13156,0.12346
-0.0037349,0.10292,0.057564,-0.2108,0.050597,-0.044237,-0.013586,-0.059401
-0.086809,-0.045678,-0.024218,-0.19958,-0.20453,-0.021529,-0.050507,-0.048083
0.015844,-0.27858,0.32297,0.58957,0.33683,-0.022841,-0.086439,0.025728
-0.061779,-0.062305,-0.024804,-0.36473,-0.15074,0.054626,0.036932,-0.039949
0.12718,-0.035337,-0.25477,0.15856,0.022415,0.0088917,0.039972,0.10736
0.021792,0.32733,-0.25769,0.16145,0.10756,-0.010733,0.017282,0.022804
-0.12666,-0.31757,0.25535,-0.42515,-0.1765,-0.027233,0.03907,-0.074938
0.065288,0.19306,0.1361,0.10211,0.083229,-0.009403,0.018326,0.055698
0.02718,0.012839,-0.27109,0.25797,0.12691,0.089103,0.0078815,-0.03163
-0.015414,0.036149,-0.12946,-0.068711,-0.09482,-0.060759,-0.033622,-0.025654
0.12331,0.31279,0.17901,0.20576,0.14215,0.11019,-0.0069143,0.056814
-0.050962,-0.02923,0.41265,-0.030212,-0.21876,-0.078892,-0.070098,-0.066386
-0.1732,-0.32946,-0.28013,-0.64542,-0.2879,-0.1758,-0.068006,-0.059796
0.082907,-0.23789,0.1001,0.25013,0.29424,0.13139,0.077345,0.092238
0.091249,0.12934,0.083597,0.21159,0.044354,0.053505,0.05422,0.038664
-0.20309,-0.40401,-0.68226,-0.3612,0.011064,-0.057588,0.028164,-0.079008
0.1615,0.36256,0.41103,0.50242,0.10261,0.048756,-0.030178,0.068447
-0.071323,0.21597,0.027085,-0.10969,-0.10103,-0.025064,-0.0876,-0.10377
-0.0011815,-0.0029567,0.072193,-0.13351,-0.090675,-0.028182,0.0060229,0.03816
0.092786,0.25575,0.32028,0.29897,0.14224,0.063586,0.1034,0.096522
-0.076574,-0.21806,-0.54037,-0.39811,-0.14442,-0.10863,-0.04501,-0.045503
-0.01565,-0.082017,0.014603,0.11851,-0.029403,0.033463,0.083963,-0.028556
0.080993,0.12192,0.0015935,0.09012,0.18928,0.1147,0.0050783,0.006384
0.010251,0.023165,0.030394,-0.10928,-0.060168,-0.04511,-0.079789,-0.011599
-0.017565,-0.41246,0.35084,0.042819,0.087866,0.029895,-0.00011963,0.026136
-0.019171,0.078959,-0.22541,-0.14962,-0.16491,-0.043891,-0.069619,0.0016488
-0.081808,0.036323,0.089323,0.20357,0.0086001,-0.12657,-0.046991,-0.054483
0.090133,0.07803,-0.18315,-0.022835,-0.032669,0.023472,0.075061,0.036893
-0.059061,0.026442,0.33075,0.014891,0.055199,0.077783,0.054151,-0.021463
0.009016,-0.030363,-0.0024746,-0.042456,0.02294,0.05187,0.046547,0.028056
0.059736,0.19821,-0.36998,0.055455,0.043575,0.070824,0.052375,0.029131
-0.0083565,-0.14678,-0.48901,0.12161,0.0090818,-0.13853,-0.19382,-0.033824
-0.046463,0.15261,1.0099,-0.34342,-0.14171,0.010182,0.065997,-0.012256
-0.015046,-0.030452,-0.51119,0.0046789,0.061064,0.0019083,0.019603,0.0080718
-0.030849,-0.026445,-0.19111,-0.10716,-0.030326,-0.022028,0.011152,-0.019491
-0.0076503,-0.24388,0.15036,0.094468,-0.071909,-0.037439,-0.044749,-0.00092751
0.28118,0.1672,0.3242,0.77308,0.38134,0.13606,0.047888,0.12657
-0.17233,-0.17657,-0.056032,-0.37701,-0.11659,-0.03223,-0.022676,-0.11319
-0.040326,0.12383,0.34822,-0.26328,-0.22291,-0.096711,-0.044739,-0.016691
-0.033983,0.038605,-0.054715,-0.16797,-0.024491,0.044167,-0.0098349,-0.0053578
0.041942,0.14786,-0.26972,0.28351,0.095089,0.077581,0.090291,0.030629
-0.0076572,-0.46053,-0.65107,-0.26775,-0.052093,-0.036102,-0.002037,0.029155
-0.033856,0.26171,0.10634,0.14052,0.049517,-0.055407,-0.029206,-0.048587
0.034328,0.32296,0.54527,0.11177,0.11108,0.10489,0.070767,0.016198
-0.052418,-0.027206,-0.51536,-0.20352,-0.046685,-0.087059,-0.1013,-0.018893
0.065772,-0.25097,0.70586,0.3213,-0.087387,-0.0065943,0.0083955,0.040953
-0.056301,-0.35011,-0.48617,-0.39105,-0.057498,-0.03661,-0.061945,-0.031569
0.10443,0.47825,0.19646,0.3389,0.13698,0.073063,0.10876,0.067324
0.0080555,-0.040849,0.28919,0.056784,-0.097667,-0.060065,-0.01135,-0.03048
-0.01068,-0.127,-0.48799,-0.25507,0.074304,0.0018527,-0.016465,-0.005449
0.0078715,0.071309,0.16787,0.19005,0.074375,0.12626,0.0072842,-0.014307
-0.14834,-0.070126,0.096484,-0.23498,-0.11357,-0.046155,0.020881,-0.025861
0.074722,0.036101,0.22987,0.32787,0.135,0.023575,0.0011856,0.0071677
-0.049568,-0.084671,-0.57835,-0.3951,-0.21927,-0.14136,-0.074703,-0.047231
0.026259,-0.032002,0.29188,0.18301,0.065817,0.044695,0.012689,0.038568
0.084593,0.24276,0.0090681,-0.060834,0.045237,0.089334,0.045435,0.046937
-0.02933,-0.040331,0.0014746,-0.13974,-0.069513,-0.03095,-0.038166,-0.013329
-0.0014276,0.15066,-0.097691,0.20655,-0.019937,-0.089474,0.0047184,0.053755
-0.056846,-0.27794,-0.45091,0.089148,0.21806,0.10158,0.03383,-0.048409
0.016373,-0.092164,0.30301,-0.061723,-0.081606,-0.035451,-0.0054981,-0.015265
-0.078189,-0.097475,-0.13177,-0.14538,-0.1218,-0.054711,-0.01984,-0.058226
0.15147,0.41604,0.5567,0.32037,0.16779,0.11463,0.099583,0.064184
-0.022,-0.24809,0.25673,-0.18307,-0.15835,-0.097346,-0.10889,-0.023852
0.12672,0.22136,0.33193,0.23965,-0.077068,-0.034183,0.018122,0.083124
-0.11475,-0.12215,-0.76826,-0.22637,0.25505,0.17128,0.058297,-0.029599
-0.075843,-0.084388,-0.24917,-0.21494,-0.076327,-0.043723,-0.097852,-0.049924
-0.05435,0.099493,-0.24299,-0.037828,-0.07138,-0.062406,0.010884,-0.017013
0.066576,-0.12552,0.34036,0.19026,0.074515,0.013182,-0.005528,-0.00097503
-0.079992,0.022033,-0.030708,-0.058199,-0.16986,-0.1221,-0.04477,0.0064579
0.10043,0.16006,0.13777,0.13506,0.13306,0.14858,0.089194,0.029324
0.030708,-0.054036,-0.27723,-0.15591,-0.001064,0.020314,0.060913,0.013552
0.00087474,-0.12664,-0.26787,-0.038021,-0.064515,-0.092905,-0.012307,0.037781
0.050748,0.15464,0.59948,0.40339,0.098671,0.043317,-0.021385,-0.030485
-0.030209,0.11915,0.80802,0.010677,0.097388,0.054069,-0.021657,-0.027104
-0.077923,-0.61527,-0.50809,-0.24275,-0.2096,-0.16211,-0.10773,-0.053809
-0.092746,0.21685,-0.46128,-0.15803,0.013019,0.12925,0.078855,-0.017247
0.11217,0.30957,0.044477,0.064963,0.092868,0.014117,0.052928,0.097626
-0.003093,0.090239,-0.043429,0.10966,-0.048415,-0.030964,-0.014205,0.024482
0.044843,-0.12405,0.13863,-0.058085,0.042406,0.0017666,-0.029054,-0.0030234
0.10654,0.2256,0.33329,0.13067,0.053323,0.018488,0.047514,0.076996
-0.14704,-0.24691,-0.52425,-0.35508,-0.1789,-0.082414,-0.10443,-0.17333
-0.099339,-0.26251,-0.38423,0.16595,0.057698,0.050603,0.01572,-0.058713
0.085265,0.17834,-0.11444,0.11033,0.029793,0.011304,0.057138,0.069637
0.016269,-0.14939,0.67799,-0.19878,-0.16023,-0.090914,-0.010713,0.032707
0.037948,0.18735,0.16033,0.33497,0.25365,0.16583,0.047123,0.073532
-0.04414,-0.056743,0.3741,-0.17705,-0.033412,-0.093481,-0.058057,-0.064851
0.028935,0.2251,0.038579,0.12566,0.040356,0.0686,0.041051,-0.022393
-0.038463,-0.23574,-0.84041,-0.10025,-0.01054,-0.07452,-0.06972,-0.017465
0.083029,-0.10755,0.42799,0.20755,-0.031099,0.031876,0.070324,0.082775
-0.058612,0.19733,-0.68633,-0.31065,-0.10832,-0.033954,-0.015679,0.0045991
-0.048479,0.045718,0.11274,-0.1239,-0.055322,0.001673,0.039197,0.020926
-0.11267,-0.12735,-0.08358,-0.16979,-0.067455,-0.048409,-0.15584,-0.15791
0.20194,0.33033,0.89224,0.45795,0.26204,0.097404,0.11012,0.10034
0.019828,-0.13294,-0.12214,0.10304,-0.0034219,0.0019002,0.0168,-0.017187
0.035325,-0.014037,0.1939,-0.031656,-0.019016,-0.037894,-0.068536,0.0049978
-0.12789,-0.33214,-0.73036,-0.22797,-0.072757,-0.029826,0.01038,-0.036126
0.01314,-0.0030766,-0.027755,0.12265,-0.030992,0.057137,0.034687,0.00035533
0.0040113,0.036025,0.186,-0.16814,-0.0025555,-0.0039232,0.019747,0.044518
0.078234,0.22501,0.42279,0.19592,0.0049413,0.013142,0.08237,0.081137
-0.092612,0.09114,-0.38813,0.11319,0.20231,0.0063957,-0.059096,-0.084756
0.030863,-0.040775,0.24077,-0.32984,-0.12175,-0.047845,-0.03775,0.015843
-0.081719,-0.182,-0.41848,0.11802,-0.084985,-0.10277,-0.11927,-0.070034
0.023973,0.045848,0.16642,-0.11192,-0.047352,0.083913,0.087205,0.024861
0.0054355,-0.17574,-0.26024,0.036716,0.10777,0.07495,0.011892,0.0036219
-0.019172,0.043631,-0.27504,-0.10665,-0.049786,-0.043444,-0.0085738,-0.0010687
0.17716,0.38911,0.55098,0.34908,0.01864,0.002407,0.049972,0.096497
-0.03076,0.1221,0.71355,0.15331,0.16429,0.064216,0.0084404,-0.055556
0.020336,-0.32539,-0.17075,-0.23466,-0.17559,-0.11578,-0.023431,0.011164
-0.08478,0.087684,-0.47358,-0.020405,-0.024603,0.04833,-0.02213,-0.055251
-0.081725,-0.26108,-0.21,-0.21446,0.031217,0.0018184,0.035587,-0.0050773
-0.010572,-0.1722,0.19751,0.14165,0.0075166,-0.013155,-0.045985,-0.010364
0.096882,0.52467,-0.11046,0.085237,0.10754,0.058119,0.045149,0.053821
-0.056233,-0.24772,0.1024,-0.15009,-0.12162,-0.096796,-0.019659,0.023434
-0.0084702,0.0059091,-0.041877,0.084435,-0.023444,0.014366,-0.069009,-0.046774
0.053538,0.063825,-0.2697,-0.022468,0.066453,-0.0067974,0.029522,0.030779
-0.017627,0.010062,0.40621,-0.00016007,-0.031303,0.074026,0.080327,-0.048517
0.052445,-0.063235,-0.0015451,0.11448,0.050755,-0.0011713,-0.033993,0.03572
0.0067239,-0.12688,-0.25307,-0.15299,-0.10122,-0.045216,-0.0088882,0.0023168
-0.068333,0.26906,-0.17928,0.02741,0.10669,0.050867,-0.0084822,-0.02363
0.030653,0.033818,0.56709,0.2117,0.057392,0.013257,0.021942,0.051767
-0.032216,-0.17529,-0.12979,-0.091481,-0.13183,-0.095795,-0.042474,-0.02911
0.039822,-0.046635,-0.044361,-0.18647,0.0078912,0.059621,0.087603,-0.016015
-0.042505,0.17491,0.29698,0.10641,0.015774,-0.035892,-0.063999,-0.018042
-0.045095,-0.35853,-0.75057,-0.18191,-0.084564,-0.061562,-0.067111,-0.027109
0.031712,0.48079,0.66798,0.35432,0.15235,0.076941,0.055326,0.042915
0.093756,-0.13295,0.12716,-0.098087,-0.007802,0.036428,0.0068613,0.043654
0.0077378,-0.22849,-0.78141,-0.10255,-0.057292,-0.026459,0.0064894,0.02187
