-0.015466,-0.02955,-0.049703,-0.023735,-0.016089,-0.00020673,0.021562,-0.009843
0.00095962,-0.0047488,-0.009437,-0.00059231,-0.0071364,-0.00022401,-0.0004977,0.021783
0.0097665,0.02882,1.8739e-05,0.0066165,0.0093537,-0.0082495,0.0008932,0.0068812
-0.0048251,-0.014974,0.0097753,-0.0019984,-0.0057758,0.007014,-0.013552,5.2704e-05
0.0039232,-0.0036178,-0.011537,0.0049831,-0.0056758,-0.0012323,-0.0049649,-0.014479
-0.003147,0.023452,0.021899,-0.0034959,0.0097057,0.0061707,0.0030959,0.002163
-0.010452,-0.012279,0.016192,0.0039867,-0.0063856,-0.0097348,-0.0050108,0.0029276
-0.0023549,-0.0017782,-0.0053911,-0.003708,-0.00691,-0.0097915,0.0020585,0.0033125
0.01339,-0.0077802,0.011651,0.0046923,0.0083056,-0.0017484,0.0010496,-0.012358
0.0056152,0.0086927,-0.010971,0.0056763,0.0081552,0.014407,8.9949e-06,-0.0049849
-0.0099734,-0.014782,-0.034294,-0.00091298,0.00053497,0.007375,0.006985,0.0021008
-0.002063,0.00014195,0.011994,0.0081551,0.0010757,0.0082918,-0.0012713,0.0012341
0.0059376,-0.024354,-0.012619,-0.02202,-0.013734,-0.0064362,-0.0012176,0.0081851
-0.0016051,0.037053,0.017069,0.0099511,0.010656,-0.013538,0.0071478,0.0074326
0.0065193,0.0049375,-0.00025475,-0.013218,-0.011869,0.0024732,-0.0075249,-0.00098555
-0.00099621,0.0044397,0.01377,0.0022156,0.0044435,-0.0053474,0.0014588,-0.0014757
-0.0085822,0.0043074,-0.0031832,0.009458,0.012563,0.0020784,-0.0051906,-0.0019304
0.0071616,0.0044097,0.019275,0.0086542,-0.0032394,0.0092291,0.0035449,-0.0024414
-0.0084597,-0.026713,-0.036066,-0.015646,-0.0039251,-0.0071618,0.0040323,0.0047433
-0.0085486,-0.011157,-0.0052395,-0.00077656,-0.0050585,-0.0078308,-0.011665,-0.011618
0.0069379,0.011844,0.010057,-0.0012993,-0.014309,0.0074087,0.011112,0.01107
0.0067951,0.0031581,0.040957,0.029724,0.015402,-0.00037747,0.0021297,-0.012952
-0.0011355,-0.0059241,-0.014162,-0.017084,0.0061812,0.0079117,-0.0071836,-0.005331
0.014396,0.015991,-0.030264,0.0066523,0.0051218,0.0087754,-0.00094281,0.002905
-0.0091403,-0.0090111,-0.0072171,-0.016348,-0.01105,-0.0057528,0.0055315,0.0040963
-0.0092926,-0.018203,-0.022936,-0.008062,-0.026629,-0.0046347,-0.010897,0.0060789
-0.0017303,0.012051,0.016562,0.0079834,0.036487,-0.0037188,0.0047032,0.00089817
0.01353,0.027189,0.05677,0.0082899,0.0063008,-0.0031925,-0.0022236,0.0038713
-0.0025422,-0.0040053,-0.019434,0.00063835,0.0076127,-0.0031685,-0.00044932,0.006757
-0.010796,-0.019097,-0.016836,-0.0071645,-0.022317,0.0041479,-0.005796,0.0090883
0.0045369,-0.0026038,0.0096125,0.0083311,-0.013409,0.0032079,0.0048123,0.010467
-0.003247,-0.0094011,-0.0029775,-0.0075385,0.0029062,-0.005838,0.015273,0.0028526
0.0050842,0.015001,0.0074489,0.0077587,0.010906,0.0084527,0.1032,0.0096972
-0.0094111,0.015742,0.0014172,-0.00042542,0.0027743,-0.00059796,-0.16933,-0.27343
0.00017183,-0.0072936,-0.013555,-0.00079373,-0.0057801,-0.0015727,0.088034,0.23987
-0.0053227,-0.022901,-0.029774,-0.0089166,0.0010127,-0.002172,-0.06219,-0.028046
0.020755,0.0080188,0.023157,-0.0012989,-0.00011005,0.0054595,-0.018169,0.10294
0.0077562,-0.0003637,-0.010743,-0.0013261,-0.0011658,-0.0021421,0.033092,-0.0075682
0.0021649,0.014613,0.048616,0.0066611,0.0057952,-0.0016243,0.0062628,-0.070513
0.066114,-0.009366,-0.048303,0.0070423,-0.010391,-0.00092428,0.0034856,-0.023585
-0.13659,0.006,0.042701,0.0075987,0.020619,-0.00018291,0.072064,-0.015508
0.018976,-0.017277,-0.029567,-0.015173,0.0050592,0.00046587,-0.037808,0.039374
0.017319,0.022437,0.00075563,0.0011397,-0.018054,0.0087272,-0.052751,-0.038817
-0.0084411,-0.015486,0.000937,-0.0060586,-0.0097119,-0.014529,0.034771,0.038915
0.043669,0.017307,-0.0056705,0.010026,-0.0012131,0.0087993,-0.033466,-0.039884
-0.013437,-0.019965,-0.0036767,-0.0053495,-0.0004098,-0.015018,0.038959,0.060848
0.00025498,0.0053013,0.022193,0.010299,0.00047119,0.0078187,-0.006175,-0.010302
-0.0010224,-0.00088102,0.0090293,-0.013319,0.0091878,0.0070674,-0.0051026,-0.018828
0.021793,0.00031923,0.0033054,-0.0058336,0.025659,0.0062403,-0.036096,-0.019331
-0.025195,0.024334,-0.01092,0.01721,-0.012723,0.0054103,0.033665,0.050722
0.0062173,-0.022708,-0.018189,-0.0065989,-0.0045135,-0.018791,0.0011965,-0.035244
-0.01703,0.0076068,-0.026299,0.00094992,-0.0044983,0.01183,0.0073545,-0.0038328
0.0064337,0.005992,0.027448,0.0086715,-0.020541,-0.019847,-0.033527,-0.011349
0.0062024,-0.027359,-0.0050631,-0.014647,0.0098781,0.0034309,0.050694,0.043716
-0.0098906,-0.014049,-0.0062753,0.0013128,0.008723,0.003587,-0.013196,-0.041811
-0.01048,0.014967,0.02413,0.0018343,-0.00042247,0.0040758,-0.014097,0.021093
0.012413,0.020887,0.00040155,0.0024839,-0.0017624,0.012679,-0.014415,-0.00198
0.012075,-0.0039316,0.016301,0.003179,-0.0029485,-0.0019387,0.0093111,0.013947
0.0042404,0.018679,-0.014272,-0.00399,0.0039514,-0.0086625,0.0023486,-0.017076
-0.01107,0.0027003,0.0021495,0.004317,0.011184,-0.0076574,0.011465,-0.0012964
0.01295,-0.020784,-0.0050724,-0.0032317,-0.0046892,0.0087224,-0.018194,-0.0011978
-0.0019663,-0.005093,-0.020589,0.0045629,-0.0046577,0.0012784,0.014724,-0.0011247
-0.0091138,-0.0050671,0.010135,-0.011371,0.003393,0.001183,0.00060802,-0.001043
-0.0086452,0.0026671,0.0011701,0.011505,-0.0040416,0.00062509,0.009542,0.014699
-0.0006553,-0.013095,-0.023882,-0.01267,-0.0035604,-0.0081225,-0.021163,-0.016389
0.0070296,0.010285,0.029007,0.0021446,0.0048411,-0.0014625,0.0099441,0.022866
-0.008961,0.0026826,-0.019534,-0.0064455,-0.017861,-0.010437,-0.0065255,-0.0081942
0.0061878,-0.0044791,0.0026549,0.0085204,-0.0013027,0.012047,-0.0079741,-0.0080502
0.013567,0.03578,0.080135,0.039277,0.023297,0.011485,0.013606,-0.00799
-0.010121,-0.017171,-0.052659,-0.039173,0.0012325,-0.0041977,-0.004021,0.015404
0.005532,-0.0072074,-0.012974,-0.00031004,0.0027299,-0.0037339,-0.0058806,-0.0081768
-0.0097564,-0.0048726,-0.027524,-0.0082638,-0.0036127,0.0049814,0.0082897,-0.00057713
-0.0013405,-0.018274,-0.002753,-0.0084247,-0.0023632,-0.001653,-0.008193,-0.0086277
0.0072393,0.022595,0.037706,0.030389,-0.0015286,-0.00041139,0.015075,0.014594
0.015841,0.0080934,-5.9992e-05,0.014386,-0.0012598,0.00067634,-5.3711e-05,-0.0011867
-0.0069335,0.031799,0.047903,-0.0095605,-0.0016268,-0.0063834,0.00098567,0.014362
-0.022148,-0.062585,-0.076261,-0.025776,-0.010412,-0.0060784,-0.0054391,-0.016885
0.0091862,0.0062879,0.002477,-0.0029124,-0.0040498,0.0015641,-0.0039264,-0.0011901
-0.0066875,-0.0035406,0.0029484,0.0044782,0.0098452,0.0087889,-0.010309,-0.001068
0.00059917,0.0098133,0.011203,-0.0034631,0.015878,9.6876e-05,0.0065047,-0.00090523
0.015524,0.015454,-0.0039109,0.0046212,-0.0091724,0.0069059,0.0073664,-0.00070528
-0.0086637,-0.0019238,0.012342,0.013142,0.0051745,-0.0096674,-0.0077376,0.0073455
0.01409,0.0047787,0.028676,0.014227,-0.0034845,-0.0025879,0.0081164,-0.0080041
-0.0098752,-0.011221,-0.040968,-0.0079028,-0.0038772,-0.0029898,0.00032903,0.0079224
-0.010199,-0.01091,-0.0014611,-0.0065886,-0.0038568,-0.0030086,-0.015373,0.00041288
0.0053134,0.0055443,0.006367,-0.0054988,0.0043062,0.020773,0.015791,0.00068087
0.0053801,0.053521,0.044852,0.010805,0.012698,-0.0020459,-0.0076786,0.00087397
-0.0022424,-0.039118,-0.034516,-0.020272,-0.01003,-0.009108,0.0079956,-0.0068515
0.0058163,-0.022595,-0.036366,-0.0049606,-0.017082,-0.00057888,0.00030643,0.00093175
-0.0017569,0.0013928,0.01606,0.0021764,-0.00070542,0.0077605,0.0082871,0.00080538
-0.0093825,-0.0062492,-0.0019294,0.0091459,0.015625,-0.0076397,-0.0071586,0.00063063
-0.0014554,0.0014185,0.011588,0.00053081,0.0084423,-0.0077617,-0.014802,-0.0073348
-0.0014065,0.024518,0.0022648,-6.6592e-05,0.0011568,-0.00038491,-0.0068291,0.00042261
0.014228,0.016311,0.025028,0.023058,-0.0062601,0.014595,0.0011535,0.0083406
-0.0092041,-0.030911,-0.052841,-0.016053,-0.0060207,-0.0095452,0.016982,0.00082614
0.0064537,0.023538,0.049832,0.015307,0.0018643,0.0054915,0.001602,0.0091201
-0.0012792,-1.865e-05,0.00471,-0.015821,0.0017836,-0.0026415,0.0096786,-0.0058913
-0.00115,-0.0078466,0.0068045,-0.00020271,0.0015926,-0.0025877,-0.0057193,-0.013042
-0.00098356,-0.023399,-0.05357,-0.023858,-0.014266,0.0056897,-0.0056076,0.0031903
-0.00080185,0.000203,0.0030245,0.0069622,0.0011611,-0.0012878,-0.0056887,0.0036428
-0.00063073,0.016108,0.012379,0.01421,0.008881,-0.00019633,0.0017988,-0.0039585
-0.00049469,-0.0069041,-0.009912,-0.0097956,0.0089325,0.00098489,0.0012249,0.011578
-0.00041422,-0.0063246,-0.0012935,0.0053992,0.0013091,0.0020661,-0.0073629,-0.012273
-0.00040548,0.017804,0.014887,0.013028,-0.0062318,0.0028699,-0.00043499,0.010442
-0.00048106,-0.012751,0.0074481,0.0053274,-0.0059716,-0.0045463,0.0064992,0.0016511
0.0071626,0.042471,0.023275,-0.0021008,0.0019781,-0.012428,0.0057392,-0.007304
-0.00091497,-0.019841,-0.0080006,-0.0093328,0.0018895,0.0026903,-0.0026322,-0.0084901
0.0065447,0.011095,0.022895,0.0069659,0.0015067,0.0096639,0.0048598,0.0060422
-0.0094951,-0.052284,-0.087261,-0.039241,0.00081537,-0.0069684,-0.0030467,0.0051764
-0.0021114,0.016652,0.013037,0.023851,-0.00013558,0.0076697,-0.0029659,-0.01098
-0.010299,-0.00064468,0.019117,0.0008912,-0.00905,-0.00093175,-0.0027833,0.012323
0.0050798,-0.017929,-0.014244,0.0012419,-0.0023391,-0.0013889,0.0052419,-0.0030397
0.0050313,0.019824,0.061528,0.017087,0.0045388,-0.0014473,-0.0023791,0.0053682
0.0052178,0.011335,-0.0033997,-0.014082,0.0039184,-0.0011171,-0.0022278,-0.0016342
-0.0021818,0.011444,-0.021359,0.0014658,-0.004104,-0.00048153,-0.002102,-0.00076234
-0.0016023,-0.0033076,-0.023431,0.0012054,0.011744,0.0081327,-0.0019622,-0.0078009
0.014666,0.02939,0.0061724,0.016375,0.012341,0.0089328,0.0060514,0.0083618
-0.0081844,-0.047024,-0.018328,-0.023321,-0.025879,-0.021681,-0.0092762,-0.014869
4.7617e-05,0.009282,0.020391,-0.00063229,0.0062863,0.0099161,0.014561,0.016218
-0.015394,-0.020752,0.013051,-0.0092,-0.0085324,-0.0057115,0.0072207,-0.015545
0.00016783,0.0032964,-0.0012612,0.0058032,0.0076307,-0.006051,-0.0079233,0.0070924
-8.9548e-05,0.0032491,-0.0069851,0.0054586,-2.044e-05,0.0089801,0.0002985,0.0061041
0.0073668,0.018257,0.011347,0.013316,-0.00027702,0.00044981,-0.0072529,0.0050399
-0.00079094,0.0094575,-0.0090029,-0.0018247,0.014704,-0.0080574,-0.0071924,-0.0037984
0.0067776,-0.015082,-0.0058304,-0.0087449,-0.01748,0.0070253,0.0004638,-0.0046783
-0.0011335,-0.016043,-0.010701,-0.0075564,-0.002933,-0.0010948,0.0079243,0.0024963
-0.0011001,-0.0010399,-0.00047946,0.0093789,-0.003979,0.014475,-0.00038719,-0.013444
0.0068144,0.030032,0.024582,0.018419,0.010804,-0.0088115,0.0068404,0.010063
-0.00091728,-0.0087723,0.017435,-0.019691,0.002495,-0.00073964,-0.0015835,0.0027381
-0.0087529,-0.00038179,-0.037616,-0.011349,0.0024293,-0.00049261,-0.0021723,0.0036397
0.0067022,0.0081366,0.015736,0.012132,0.0028104,-0.0003726,0.0051114,-0.010718
-0.017034,-0.022498,-0.025448,-0.011721,-0.019852,-0.0239,-0.010953,-0.00137
-0.0017524,0.032524,0.042266,0.018769,0.028082,0.022639,0.0043503,0.0081038
0.013612,-0.022216,-0.015098,0.0022219,-0.017593,-0.001369,-0.0036369,0.0097164
-0.0098622,-0.022656,-0.025234,-0.022091,-0.00078042,-0.0021211,-0.0036339,-0.0045301
0.0060592,0.0078807,-0.011191,0.0007098,-0.0075554,0.012648,0.0043833,-0.011366
0.0067306,0.0070845,0.019489,0.00044612,0.0010381,-0.0038459,0.0047977,0.012523
0.0077316,-0.0013899,0.0043797,0.016221,0.017122,-0.004638,0.0054046,-0.011037
0.0011211,0.013886,0.0058204,0.0010941,0.001613,-0.013083,-0.0094673,-0.0038922
0.0023403,0.0061253,0.03123,0.0095884,-0.0064067,0.0099506,0.0069838,0.0028193
-0.020056,-0.009077,-0.013703,0.0024164,-0.014692,-0.0058024,-0.007832,0.0014564
-0.0037279,0.0072008,0.0032175,-0.020654,0.0080973,0.017804,0.00067966,3.3483e-05
-0.0034501,-0.0077538,-0.012282,-0.0051164,0.0073821,-0.012994,0.0011881,0.0065601
0.012027,0.0083369,-0.021427,-0.0057371,-0.0089061,0.0033242,0.0014509,0.0055713
0.003721,0.0084328,0.014893,0.0087786,0.014034,0.0041837,0.0092599,-0.010645
-0.012612,-0.023145,-0.0044675,-0.000469,-0.0096421,-0.010507,-0.014429,-0.0029951
0.0022353,-0.023815,-0.01628,0.0058282,-0.0017448,0.0060273,0.00074776,0.012861
0.0093254,-0.0089987,-0.043083,-0.011117,-0.009127,-0.00099198,-0.0076306,-0.017851
0.016546,0.045013,0.017564,0.019255,0.0072502,0.0074226,0.015211,0.014125
-0.0073349,-0.0021374,0.049116,-0.012264,0.0082539,-0.015653,-0.00095698,-0.00070936
-0.015472,-0.0018312,0.043999,0.01157,0.0093979,0.0078849,0.0064268,0.0078466
-0.00011087,0.014724,0.0019641,0.0047546,-0.0050797,-8.0952e-05,-0.0094792,-0.0071602
-0.0081846,-0.030714,-0.023007,-0.025067,-0.019697,-0.00045811,-0.0096088,-0.045769
0.014956,0.025662,-0.031939,0.0078008,0.0044857,-0.0010121,0.01383,0.048267
0.0068069,0.0038302,0.0052834,0.0093368,0.0048804,0.0061277,-0.0016961,-0.0062816
-0.0091655,-0.0027961,-0.0061042,0.002726,0.0048898,0.0054022,0.0062747,0.0093666
-0.009468,-0.033538,-0.019924,-0.012225,-0.0032794,-0.01093,-0.016974,0.0014881
0.0059644,0.0052341,0.01044,0.0034394,0.0038805,0.0040844,0.0066703,-0.0064598
0.0059366,-0.003622,-0.0085607,-0.004971,-0.0047715,-0.011977,0.0068982,-0.014461
-0.0095257,0.018219,0.033054,0.0016989,0.002147,0.0034594,-0.016272,0.00094134
0.014248,0.016378,-0.012282,0.007994,-0.0064783,0.0035781,0.015309,0.016339
-0.0087437,-0.024418,-0.010781,-0.0093102,0.00072001,0.0040335,9.5153e-05,-0.015106
0.0073362,0.0055261,0.0072065,-0.0031205,0.00038262,0.0048166,-0.0072236,0.0082103
-0.00013109,-0.010749,0.018935,0.011126,0.00034606,-0.0019364,0.0011415,-0.00743
-0.0078166,0.0049698,-0.014272,0.0023084,0.0083867,-0.0085015,0.001703,0.0082995
0.0076471,0.029183,0.032638,0.0095519,0.0087906,0.0084469,0.0022012,0.00069851
-0.0084369,-0.00081023,-0.020272,-0.014023,-0.006376,0.0019167,-0.0052607,0.00097754
-0.0013204,-0.014992,-0.0094123,-0.0059672,0.0018262,-0.012572,0.010488,0.0012649
-0.0021303,-0.0215,-0.021311,0.0023911,-0.013572,0.003966,0.0025143,0.0014958
-0.0028921,0.010629,0.0059295,0.010972,-0.01355,-0.0032046,-0.013572,-0.014009
0.0043733,0.0030775,-0.0063434,-0.019354,0.00191,-0.0028516,0.0013281,0.0015946
0.011987,0.010472,0.035227,0.012923,0.025063,0.01284,0.00042787,0.0092474
-0.0034202,-0.021801,-0.010217,-0.0094248,-0.0065005,-0.0029923,-0.0083309,-0.006644
0.005017,0.015827,-0.0099269,0.0073125,0.0010583,0.0043568,0.0064464,0.00084786
-0.0096643,-0.0091875,0.020559,0.00058079,-0.0068886,-0.0041534,-0.0019862,0.00053104
0.0070786,0.0050113,-0.027915,0.001556,0.016553,0.010573,0.013329,0.0080785
-0.0074253,0.0039963,0.016836,0.0023335,-0.0067614,-0.013911,-0.0022803,-0.0077341
-0.0064644,-0.012052,-0.016696,0.0028166,-0.0065687,-0.0072108,0.0058196,0.0077786
0.0098342,0.027248,0.020297,0.01074,-0.0063682,-0.00047188,-0.0093587,-0.0079128
-0.0054773,-0.01878,-0.020299,-0.020804,-0.00622,0.0064235,-0.0010824,-0.00016906
0.002275,0.0059519,-0.013254,-0.013661,0.0016389,-0.002042,-0.0085529,-0.00029603
0.0018795,0.0074588,0.041532,0.0088357,0.024986,0.013267,0.0071886,0.007281
-0.0065889,-0.022341,0.0033932,0.0077846,-0.0065113,-0.010132,-0.00078068,-0.0087203
0.00039954,-0.013391,-0.026281,-0.00099568,0.00089456,0.0058386,-0.0011931,0.0063827
0.015124,0.034105,0.030366,0.0061202,0.00034654,-0.0014242,0.0060294,-0.0020694
-0.0092137,-0.012783,-0.037909,-0.0097856,-0.023737,-0.00081134,-0.002428,-0.0027644
0.0055733,0.0178,0.0029852,0.0060486,0.0068374,0.0075314,0.0048298,0.0043885
-0.0029693,0.0009418,0.020028,0.0067381,0.0062194,-0.0077634,-0.011119,-0.0039393
-0.003552,-0.031917,-0.01813,7.1089e-06,0.005749,-0.0076945,-0.0032881,0.0036139
0.0038645,0.0054276,0.01353,-0.0064793,-0.0023128,-6.5029e-05,0.0049411,-0.0041074
-0.019741,-0.0039006,-0.017684,-0.0050853,-0.0023017,-0.00042244,0.0057446,-0.003608
0.011606,0.018523,0.0055979,0.0040144,-0.0020362,-0.00082914,0.0068498,-0.0026975
0.0041736,-0.0051921,0.021077,-0.0027639,0.0062442,0.0066683,0.00029658,0.014186
-0.0029875,-0.0046188,-0.017954,-0.0020844,0.0068279,0.0065664,-0.014101,3.9447e-05
0.013503,0.012394,0.0057849,-0.0018133,-0.00038703,-0.0010608,0.01034,0.0015552
-0.0011428,-0.0090378,-0.0092765,0.0058503,-0.015494,-0.00057633,-0.0046638,-0.0049123
-0.0079937,0.0088809,-0.00074826,-0.0025123,0.00050549,0.00015865,-0.0045195,0.0038747
0.00062335,0.01105,0.023363,0.0122,0.00071486,0.0010513,0.0029473,-0.011301
-0.0066605,-0.026392,0.00031954,0.0031643,0.00077867,-0.0058242,-0.0056294,-0.0036465
0.0091441,0.021202,0.0002047,-0.013929,0.00074514,-0.012765,0.0011421,0.011222
-0.0066618,-0.026072,-0.016206,6.677e-05,0.00067034,0.011392,0.0078208,-0.0056636
0.0006617,0.019249,-0.009899,0.0061952,0.0084091,-0.0037259,-0.0010259,-0.0072673
-0.0078448,-0.0067408,-0.0042286,-0.011042,0.00053705,0.012164,-0.0017934,0.014423
0.0070118,-0.025597,-0.0068013,-0.0046353,-0.0073418,-0.0034479,0.0056339,0.0049209
-0.0015151,0.0021637,0.0061068,-0.0057104,0.00035029,-0.003686,-0.0099442,-0.01216
0.013549,0.030114,0.02699,0.017071,0.0001201,-0.0041675,0.013955,0.0023658
-0.0024301,0.011771,-0.0063811,0.016868,0.0075514,0.0029321,-0.0086814,0.0016887
-0.0025749,0.0020992,0.023371,0.001465,-0.0086097,0.0098201,0.00015711,0.0014387
-0.0025477,-0.014393,-0.00084033,-0.013592,0.006374,0.00090559,-0.0065376,0.0015734
-0.0024061,-0.014271,-0.032116,-0.0049735,-0.0098896,-0.015943,0.0023529,-0.0057919
0.0056067,0.017981,-0.015794,-0.011849,0.0052557,0.0062302,0.0032769,0.01051
-0.017608,-0.019366,-0.0066098,-0.0030536,-0.010511,-0.0027786,0.0039601,-0.012097
0.0060635,0.021945,0.026625,0.013552,0.0054741,0.0040284,-0.0034638,-0.0033603
0.0063232,-0.030125,-0.00992,-0.0011152,-0.0013686,-0.0044773,-0.0033891,-0.002383
0.0066318,0.011789,0.016445,0.0076294,0.0080354,0.0030515,0.0041984,0.0064302
-0.0086171,0.006952,0.0039838,0.00071924,0.0023311,-0.0045855,0.0037187,0.007425
0.0074514,0.009942,0.014965,0.0093882,0.0047344,0.0038465,0.0030547,0.00056211
-0.0076891,-0.034056,-0.029003,-0.021084,-0.00069003,0.0048238,-0.013331,0.0014132
0.0005975,0.015419,0.0046248,-0.0048067,-0.0064783,0.0060099,-0.006283,-0.0057092
0.0088059,0.033165,0.0062447,0.0034778,0.0026722,-0.00059567,0.00084539,0.0025725
-0.0065711,-0.0044745,-0.032109,0.003715,0.0030919,-0.0073721,0.015926,-0.0050335
-0.0065258,-0.019572,0.0066918,0.0036711,-0.013125,0.0011491,0.0077315,-0.0051008
0.01673,0.0033693,0.021119,0.018942,-0.0068479,-0.00637,-0.0003179,0.0023955
-0.014913,-0.013784,0.0034753,-0.0051568,-0.0012958,-0.0064925,-0.023899,0.0018882
0.007981,0.0072302,0.0086253,-0.013896,0.0038578,0.00086631,0.007232,0.0090817
-0.0082415,-0.0036178,-0.0022714,-0.022807,0.016797,0.0080433,0.0070682,-0.0071887
-0.00096453,-0.0068745,-0.0055213,0.015123,-0.0011962,0.0074049,0.0068119,2.7364e-05
-0.0013264,-0.002104,-0.0086564,0.0063085,-0.0029851,-0.0008798,-0.016989,-0.00046677
-0.0014337,-0.0045287,-0.027011,-0.010026,-0.0040574,-0.0088736,-0.0018101,-0.00083468
0.014367,0.048647,0.033441,0.028746,0.011219,0.006919,0.013345,0.0067301
0.0069801,-0.014314,-0.014577,-0.010129,-0.004138,-0.00039306,-0.0026904,-0.0012412
-0.00024589,-0.0059438,-0.006879,-0.009481,0.0043823,0.00035803,0.0048598,-0.0091698
-0.0074335,0.0032634,0.02528,-0.000653,-0.01811,-0.0065814,-0.010803,0.006332
-0.0068948,-0.010405,0.0036164,0.0083927,0.0063298,0.0020777,-0.0027584,0.0061607
-0.014351,-0.023817,-0.001849,-0.0059597,-0.016175,0.01057,-0.0022561,-0.009707
0.0092117,0.0096283,0.00068819,-0.0048229,0.015877,-0.0046483,0.014091,-0.0022094
0.0012995,0.0116,0.010825,0.011659,0.0087337,-0.012385,0.0071223,-0.0025762
0.0088348,0.01323,-0.034281,-0.011294,-0.0063183,-0.0048298,0.00014561,0.012665
0.00063779,-0.0089563,0.0057757,0.0044114,0.0020193,0.010253,-0.014788,-0.0033175
0.0002175,-0.015871,-0.017496,-0.0036948,-0.0052796,0.0016955,0.0012701,0.0042014
-0.00018147,0.0081686,0.013197,0.0035267,0.003044,0.0086597,0.0013811,-0.011624
-0.00052378,0.00072961,0.012142,0.0027448,0.0035275,-5.0266e-06,-0.0066422,0.0039121
-0.0086077,0.024362,0.010871,0.0018848,-0.0038837,-0.00077059,0.00070082,0.0039376
-0.00099727,-0.030286,-0.021607,-0.01458,0.0041765,-0.0091838,8.2277e-05,-0.0037401
0.0066727,0.0086528,0.00083084,0.0081032,-0.0036125,-0.0017406,0.0072552,0.004306
0.0065773,0.00052975,0.015752,0.0074623,-0.0038642,-0.0018246,-0.0011019,0.0046269
-0.0091065,0.0078193,0.015301,-0.00089004,0.0034057,-0.001587,0.00634,-0.010598
-0.0013232,-0.00073429,-0.00065193,0.0064443,0.0025998,0.0067932,-0.0016398,-0.0023112
0.0064869,-0.001663,-0.024452,-0.0096453,-0.0062108,0.0076593,0.0061906,-0.0017648
-0.0091146,-0.026143,-0.009352,-0.010132,0.00051647,-0.0068815,-0.017095,0.0066585
0.014371,0.027497,0.0055359,0.012791,0.0072789,-0.0057089,0.0065629,0.0073145
-0.0090015,-0.01249,-0.0031756,-0.0033469,-0.009243,0.0031962,-0.0010163,-0.0076459
-0.0089336,-0.013183,-0.0040984,-0.011607,0.0057306,0.011836,-0.0086196,0.00078587
0.0067355,0.017664,0.010765,0.0037136,-0.010252,-0.0033976,0.0071765,0.0012955
0.0067183,0.0097257,-0.0052824,0.0036228,0.013118,0.0042483,-0.00050109,0.001633
-0.0012174,0.0019667,0.018186,0.011599,0.0054703,-0.012143,-0.00039644,0.0095654
0.0063225,0.0098526,0.0030625,0.0042033,-0.0020379,-0.0056376,0.0074889,-0.013984
-0.0019415,-0.013675,-0.0038604,-0.0029881,-0.0017018,0.00048272,-0.000297,-0.0064928
-0.018199,-0.0062684,0.0050682,-0.010055,-0.0014263,-0.0091739,0.0074726,0.0008478
0.0044578,0.00074584,0.0062188,-0.0014632,-0.0090767,0.012534,-0.0082855,-0.0075097
0.0036029,-0.031662,-0.047454,-0.00073266,-0.0090278,0.0033565,-0.0085113,0.015385
0.0027781,0.02165,0.00019269,-0.0079193,0.006582,0.010349,-0.00098931,0.0070837
0.0099181,0.0046516,0.016322,0.0082013,0.0065819,0.0023445,-0.0012825,-0.0011528
-0.0061051,0.0035272,0.016609,0.0085659,0.0066769,-0.005061,0.014134,-0.0015388
-0.013939,0.018497,0.016775,0.0010007,-0.00089465,-0.011992,-0.017148,0.0058761
0.0099236,-0.012791,-0.01432,-0.0066668,-0.0083186,-0.0030142,0.01432,-0.0023903
0.0030019,-0.004351,-0.029714,-0.0066158,-2.3535e-05,0.0060326,-0.0086213,-0.018537
-0.0034881,0.0047075,0.0097069,0.0011516,0.016081,0.0071346,0.0077431,0.0043498
0.0059871,0.0064466,0.025817,0.016627,0.00081692,-0.0076766,0.00081492,-0.0039497
-0.0077781,-0.014932,-0.0048656,0.00073895,-0.014667,0.00057156,0.0016924,-0.0042495
-0.0059034,-0.020559,-0.0042889,-0.015257,0.00082461,0.00061213,-0.0054276,0.011383
0.011409,0.02844,0.0040274,-8.3396e-05,-0.0073859,0.00030934,0.0027242,0.011773
0.0048986,-0.016549,-0.026859,-0.0005614,-0.0079698,-0.00023155,0.0025899,-0.0030801
-0.0021638,0.01619,0.012389,-0.00098658,0.007014,-0.00087403,-0.0058717,-0.0020168
-0.0020741,0.0015119,-0.0032278,-0.0012676,0.014274,-0.0014762,-0.0069796,-0.00083178
-0.0026739,-0.0060184,-0.0033672,0.0064933,-0.0016876,0.0058969,-0.00058349,0.00025926
-0.0039027,0.024759,0.035456,0.014544,0.01389,0.0057025,0.0057266,0.008854
-0.013428,-0.03119,-0.0038967,-0.016158,-0.017112,-0.017655,-0.0034182,-0.022088
0.0080203,-0.0019485,-0.035444,0.00029924,-0.0088161,0.0061113,0.011287,0.0089205
0.013804,0.0032437,0.0033439,-0.0064627,0.007414,0.0066113,-0.004662,-0.0074648
0.0041481,0.015867,0.018734,0.018145,0.00019105,-0.00064194,0.003512,-0.00079626
-0.0051414,-0.0028318,-0.0048943,-0.0041175,0.0084428,0.0076627,-0.0032746,0.0056989
-0.0061407,-0.029065,0.0027613,-0.010864,-0.0069985,-0.015466,-0.0017147,0.0044498
0.0011846,1.1747e-05,-0.020821,-0.0021931,0.00068603,0.00020149,0.00016038,0.0034939
0.0011728,0.029994,0.018075,-0.0016197,-0.0075629,0.0077591,0.0020772,-0.0048158
0.0015446,0.0063637,0.010038,0.0064338,-0.00043404,-0.00057943,-0.0040625,0.010849
-0.0056367,-0.016165,-0.0059011,0.0063234,0.0065549,-0.0091095,0.0049254,-0.012027
0.010746,0.0091563,0.0014945,0.013684,-0.0020887,-0.0020896,0.0054221,-0.0032363
-0.011925,-0.011681,-0.014632,-0.01832,0.0050185,0.004985,-0.0026515,0.005808
0.0043842,0.014727,0.0082753,0.0041323,0.0045521,0.0044195,-0.011446,-0.00071352
-0.0028734,-0.013557,-0.015629,-0.020422,-0.011224,0.011923,-0.0051866,0.0082599
0.0053571,-0.0031254,0.0075179,0.009703,0.012412,-0.0037132,0.00073456,-0.0143
-0.002145,0.014512,0.023136,0.0086965,-0.010488,-0.011243,0.014409,0.0018242
-0.0018876,-0.015471,-0.015574,0.00010788,-0.0018456,-0.0028897,-0.010766,0.0019204
0.0061953,0.008476,0.00078081,-0.0003651,-0.00080213,0.0056683,0.019179,0.0016575
-0.0090832,-0.0072905,-0.0059834,-0.00051738,0.0003532,-0.0012516,-0.012813,0.0011356
-0.00080043,-0.015709,-0.012566,-0.0082046,0.0015021,-0.00026472,0.0026624,0.00048929
0.0076294,0.01469,0.027703,0.015539,0.010331,0.00076915,0.01085,-0.0079503
0.0083897,0.029422,0.005198,0.008084,0.0032799,-0.0060081,-0.011825,-0.00061831
-0.0063614,-0.010428,-0.010021,-0.022895,-0.011942,0.0027895,-0.0030375,0.014764
