0.023834,0.090737,0.061357,0.1376,0.030006,-0.028623,-0.082324,-0.041771
0.025892,0.08088,0.010962,-0.25058,-0.029991,0.0064454,0.12384,0.076696
-0.011676,-0.038403,0.16687,-0.12038,-0.089833,0.017261,-0.0063024,0.00040962
-0.010949,0.0050919,0.15237,0.30147,0.045446,0.011286,0.027863,0.0025257
-0.0032651,-0.14124,-0.088172,0.34223,0.078584,0.011797,-0.085682,0.0045135
-0.027643,-0.0092292,-0.16378,-0.21044,-0.068924,-0.074903,-0.010689,-0.06439
0.025461,0.11211,-0.041362,0.095043,0.0401,0.032674,0.081114,0.0063567
0.015689,-0.065593,-0.45205,-0.48473,-0.032045,-0.03229,-0.075871,0.03682
-0.017584,-0.0098879,-0.1262,0.15913,0.042739,0.074372,0.13549,0.0035279
-0.011552,0.015047,0.48695,-0.16046,-0.024413,0.0092923,-0.12082,-0.023002
0.026223,0.026207,0.28856,0.20613,0.032563,-0.008486,0.037891,0.020149
0.0021421,-0.037926,0.2248,-0.028579,-0.012246,-0.010043,-0.21664,-0.038317
-0.013442,0.041766,0.14606,-0.035015,-0.14244,-0.065638,0.19348,0.013171
0.0028411,0.014957,-0.43473,0.35174,-0.013493,0.012186,0.10382,-0.0044871
-0.0038418,0.083828,-0.20829,-0.1417,0.10172,0.02019,-0.087709,0.018513
0.021007,0.06737,-0.059994,-0.00045262,0.14874,0.059784,0.047924,0.019861
-0.024368,-0.19985,0.21218,0.039984,-0.0054333,-0.0098263,-0.029019,0.0072771
0.0083077,-0.03923,-0.34419,-0.21678,-0.064529,-0.016923,-0.037819,-0.0039714
-0.021706,-0.060721,-0.18804,-0.013495,-0.091893,-0.05537,0.0056784,-0.030074
-0.0051014,0.024749,0.12834,-0.068735,-0.025915,0.0075908,-0.015514,-0.024837
0.042459,0.14734,-0.041985,-0.14725,0.031126,0.0079012,0.00081535,0.026668
-0.0040558,-0.02036,0.73821,0.34595,0.063211,0.047167,-0.13183,-0.001183
-0.01969,-0.040219,0.34154,0.16981,0.015645,-0.0073782,0.21274,0.008315
0.0032959,0.064689,-0.01707,-0.2611,-0.087784,-0.038525,-0.026828,-0.015446
-0.013313,-0.033777,-0.15395,-0.24399,-0.019915,0.016207,0.0097159,0.029017
0.031958,0.039036,-0.18831,0.71207,0.055887,0.023951,-0.036543,0.009044
-0.017193,-0.084553,-0.95486,-0.29323,0.015258,-0.007541,-0.079704,-0.020292
0.042386,0.18102,-0.77673,0.019383,0.10864,0.038889,0.11409,0.0041131
-0.039163,-0.13301,0.49458,-0.30474,-0.14818,-0.10234,-0.041993,-0.05759
-0.042815,-0.11204,0.72711,-0.10994,0.010317,0.022016,-0.07253,0.053289
0.031827,-0.0049521,0.85746,0.26842,0.013452,0.013734,0.052555,0.017308
0.013364,0.025727,0.11498,-0.050853,0.024784,0.04493,0.18381,-0.031982
-0.0039824,0.083201,-0.10429,0.067311,-0.0031222,-0.024798,-0.015364,-0.070668
-0.019836,-0.0030533,-0.61246,-0.27319,-0.031722,-0.0078189,-0.27171,0.1123
-0.0027641,0.025465,-0.25628,0.32791,-0.0067279,-0.021325,0.032287,-0.030265
0.031533,-0.011167,-0.13369,0.21523,0.0091288,0.0048284,-0.17291,0.039983
0.028012,0.057698,0.064726,-0.20521,0.047066,0.031257,0.27775,0.025138
-0.029558,-0.10595,0.0028377,-0.083115,0.021315,0.057537,0.11172,-0.083797
-0.0091242,0.026531,0.13746,-0.053227,-0.036522,-0.026154,-0.061024,-0.037965
0.026018,0.022799,0.25762,-0.063048,-0.086888,-0.079573,0.15031,0.099227
-0.049811,0.021235,0.023209,0.17448,0.073908,0.014241,-0.16861,-0.063375
0.036382,0.028288,-0.035826,-0.28748,-0.030152,-0.0025612,-0.41675,-0.018031
-0.028021,-0.057776,-0.22365,0.30022,-0.0080341,-0.036083,0.37401,0.040321
0.015028,-0.056133,0.046901,0.015546,0.070124,0.08582,0.08593,-0.012576
-0.029232,-0.14415,-0.067098,0.07774,-0.037981,-0.019362,-0.00011197,0.05863
0.050919,0.1891,-0.12104,-0.32466,0.02662,0.015826,-0.032693,-0.041885
-0.0092558,0.0095101,0.085018,0.20825,0.04457,0.019693,-0.17578,-0.11003
-0.021409,-0.031488,0.22447,-0.27499,-0.094174,-0.054523,0.0084116,0.13616
-0.047359,-0.049034,-0.040496,0.21952,0.023895,0.012021,0.19999,-0.021639
0.061742,0.066948,0.18367,0.14641,0.046932,0.039769,-0.32715,-0.075598
0.071605,0.1282,0.0852,-0.071329,-0.048418,-0.033545,0.48989,0.21617
-0.064873,0.023304,-0.1017,0.10597,-0.035138,-0.012267,-0.10639,-0.17032
0.011193,0.0072406,-0.35322,-0.40758,-0.068749,-0.067862,-0.17823,0.092402
-0.028963,-0.13396,-0.21404,0.012532,0.039072,0.026615,0.24334,-0.035315
-0.068839,-0.19978,0.094079,0.26379,0.13276,0.060447,-0.73207,-0.26487
0.06281,0.03467,0.14132,0.071391,0.0017534,-0.0054915,0.30199,0.10657
0.045171,0.10005,0.21911,-0.035016,-0.0024772,0.0080616,0.4081,0.19602
-0.004914,-0.018862,0.050352,-0.064884,-0.075753,0.0065927,-0.023276,-0.067016
-0.0016793,0.13996,-0.20364,0.097573,-0.00015249,0.082869,0.12461,0.2157
-0.038888,-0.047169,0.29041,-0.13448,0.0046276,-0.092233,-0.2426,-0.22175
-0.030482,-0.10257,-0.43163,-0.0034489,0.062736,0.027384,-0.37552,-0.082745
0.0081313,0.15411,0.1652,-0.21196,-0.10765,-0.15238,0.39725,0.062219
0.069393,0.027655,0.099163,-0.0089697,0.032339,0.071772,0.059881,-0.036835
-0.041766,-0.13856,-0.010974,0.38809,0.037622,0.028658,-0.81735,-0.059364
0.026412,0.061088,-0.031796,-0.019542,-0.067808,0.0083814,0.99206,0.16692
0.00062682,-0.045854,-0.065059,0.089399,0.052748,0.012108,-0.07466,-0.021514
0.0059867,0.048157,-0.17408,-0.21423,-0.013983,-0.013825,-0.29156,0.063433
-0.0042677,-0.13323,0.14768,-0.11772,-0.0095347,0.0015524,0.13735,-0.030722
-0.069033,0.0044686,0.18766,0.18369,0.074306,0.05058,-0.17164,-0.068914
0.03067,0.11864,-0.016912,-0.067765,0.018887,-0.023372,0.41367,0.019909
0.0060569,0.03095,0.00083443,-0.12195,-0.082218,-0.049257,-0.43476,-0.25571
-0.001986,-0.030776,-0.12025,-0.048998,-0.034057,0.010894,0.35437,0.23765
0.02234,-0.065567,-0.24102,0.22148,0.037945,0.10126,-0.71709,-0.0075373
0.016545,0.075488,0.35613,0.017423,0.047466,-0.068143,-0.029501,0.0085473
-0.043005,-0.099913,-0.11862,0.07268,-0.060442,-0.0056474,0.79465,0.16013
-0.016088,0.11066,-0.15795,-0.15272,-0.012454,-0.062809,0.022954,-0.17128
0.081116,0.049757,0.20652,-0.058344,0.019573,-0.020349,-0.1952,0.036098
0.029245,-0.17474,-0.025558,0.18279,-0.018951,0.0054703,-0.18828,-0.00068676
-0.10975,0.037122,0.21571,-0.047399,0.067392,0.093882,-0.0047162,-0.033009
0.01535,0.13701,-0.26539,-0.28059,-0.026025,-0.019709,0.032759,0.071193
0.029448,-0.10273,0.13247,0.34272,0.0054692,0.048235,0.19479,-0.12552
-0.028178,-0.0029821,-0.20002,-0.26272,0.068038,-0.022319,-0.10719,-0.02069
-0.016448,0.0066059,0.057985,0.14634,-0.15875,-0.051884,0.046741,0.074711
-0.020711,-0.049857,0.0089939,0.11796,0.043765,0.037071,-0.32875,-0.071835
0.029914,0.071007,-0.080097,-0.30772,0.027081,-0.014099,0.21184,0.10394
0.073333,0.019173,0.081128,0.22155,0.0021523,-0.0031447,0.15411,0.048605
0.00032194,-0.078709,0.071979,-0.1066,0.00030141,-0.040178,-0.47653,-0.19829
-0.025174,0.044499,0.13547,0.2543,0.021646,0.05403,0.61907,0.30033
0.012148,0.030554,-0.0014515,-0.22791,-0.019595,-0.056564,-0.28352,-0.16773
-0.044357,-0.11216,-0.19815,0.10192,0.056461,0.10485,-0.0030076,0.12226
-0.054395,0.069361,-0.056404,0.031787,-0.054632,-0.062741,-0.1948,-0.15197
0.052198,0.035286,-0.14686,-0.22023,-0.032276,-0.019557,0.63334,-0.13281
0.025508,0.01083,0.26454,-0.029233,-0.0089724,-0.053903,-0.49573,0.13174
-0.056036,0.033386,-0.0022194,0.51155,0.0077414,0.053602,0.38574,0.094503
0.058021,0.023142,0.1072,-0.78432,0.010221,0.022074,-0.58272,0.0060492
-0.0068228,-0.1072,-0.079513,0.35792,0.060945,0.031217,-0.17554,-0.15569
-0.0079443,0.0087816,-0.1254,0.29895,0.026847,0.080689,0.38775,0.048728
-0.038811,-0.11328,0.015804,-0.28839,-0.12382,-0.15825,0.23937,-0.034777
0.08815,-0.027314,-0.031542,0.1901,0.077043,0.040217,0.12885,0.064617
-0.041277,0.10391,0.036636,-0.13295,0.02713,0.011343,0.055845,0.18446
-0.036817,0.1726,0.16512,-0.00040539,-0.055472,-0.034407,-0.40171,-0.36184
-0.00053436,0.024017,0.072313,0.016416,-0.0071773,0.012191,-0.61096,0.17573
0.043565,-0.020319,-0.19501,-0.13832,-0.015693,-0.0049262,0.45961,0.061971
0.024608,-0.38156,-0.027223,0.21399,0.00502,0.00065079,0.27129,0.053131
-0.034441,0.0811,-0.16588,-0.13849,0.063155,0.060813,0.22278,-0.055931
-0.032341,0.20325,0.20245,0.10824,0.0030495,-0.034718,-0.2172,-0.11892
-0.016102,0.10912,-0.16339,-0.1947,-0.12774,-0.066661,0.083906,0.073157
0.045581,0.055436,0.3625,0.046191,0.11678,0.074639,-0.2415,-0.19209
-0.011135,-0.22455,-0.13338,0.1277,-0.044094,-0.048362,-0.17806,0.20951
0.048459,-0.052108,-0.22124,0.13586,0.0071748,0.040525,0.36028,0.004373
-0.040871,-0.1075,0.30169,-0.022684,0.091025,0.082846,-0.27437,0.036728
-0.013105,0.22638,-0.17464,-0.13626,-0.089513,-0.047172,0.12219,-0.0049262
0.0071138,0.043616,0.1381,0.015101,-0.0034481,-0.069016,0.35597,-0.13483
-0.018992,-0.053599,-0.18251,-0.40289,-0.072997,-0.022274,-0.4622,0.11737
0.057207,-0.1271,-0.003848,0.26012,0.13119,0.014747,0.17678,0.034577
-0.053267,0.0032633,0.12752,0.31064,0.0072686,0.073506,0.1332,-0.35828
0.055811,0.11097,-0.13924,-0.26563,-0.054276,-0.048557,-0.78015,0.20549
-0.068802,0.031449,0.056213,-0.0073203,-0.053459,-0.030323,0.92068,0.14045
0.033644,0.029299,-0.035148,0.12398,0.017649,-0.042786,-0.32809,0.024514
0.011358,0.0093481,0.1264,0.28284,0.073312,0.1414,-0.075309,0.10679
-0.026515,-0.22524,-0.10744,-0.39258,-0.065944,-0.00065586,0.67658,-0.18436
0.029204,0.16018,0.16909,0.032467,0.045352,-0.046868,-0.56707,-0.11607
-0.0013006,0.016493,-0.13102,-0.10857,0.00098879,0.010451,-0.18321,0.076045
-0.032122,0.00013341,0.13919,0.065325,-0.066335,-0.079115,-0.18852,0.047446
-0.00849,-0.020515,-0.17031,0.38933,0.077496,0.035388,0.41709,-0.08481
0.085418,-0.11359,-0.13127,-0.46432,-0.0053818,0.05639,0.056617,0.039119
-0.054793,0.059768,0.24746,0.11503,-0.010683,-0.024604,-0.018062,-0.048636
-0.0069032,0.06534,-0.15178,-0.1363,-0.0012663,-0.036308,-0.50791,0.067
-0.020582,-0.078154,0.16325,0.041548,-0.047685,-0.033847,0.62813,0.13688
-0.033095,-0.13399,-0.32253,0.033068,-0.0015802,0.09971,-0.18664,-0.15887
0.057166,0.26611,0.32931,0.33132,0.066832,0.020563,0.056284,-0.023466
-1.5503e-05,-0.050228,0.034007,-0.095049,-0.076582,-0.060199,0.075602,0.065896
0.0057872,-0.03047,-0.14459,-0.098611,0.06851,-0.040671,-0.22301,0.037872
0.026933,0.095235,0.17003,0.17849,-0.020968,0.0015232,0.034634,-0.014997
0.015639,0.002091,-0.3252,-0.24964,0.061577,0.066986,0.074361,-0.046935
0.025725,-0.041118,0.12147,-0.30589,-0.082006,-0.054594,-0.22148,0.050724
-0.11532,-0.10873,0.042967,0.22048,-0.013997,0.027972,0.029794,-0.065876
0.014173,0.069989,0.22198,0.16611,0.031377,0.026042,0.1955,-0.0055124
-0.03084,-0.099614,-0.21562,-0.053541,0.015123,-0.01329,0.13522,0.0065028
0.039472,-0.085288,-0.28556,-0.10861,-0.047144,-0.043155,-0.18216,-0.17656
0.015287,0.17034,0.096738,0.26043,0.039796,0.037785,0.01674,0.27532
0.0072375,0.0070197,0.037771,-0.030968,0.025766,-0.028698,-0.14339,0.04351
-0.0069555,-0.086609,0.05663,-0.044422,-0.034784,0.014664,0.2432,-0.011365
-0.018629,0.026206,0.32763,-0.16236,0.014126,0.026635,-0.23036,-0.17001
0.081993,0.067234,0.25152,-0.056726,-0.0074519,-0.001193,0.13843,-0.07326
-0.041127,0.17881,-0.15253,0.12366,-0.0059782,-0.045882,-0.088492,0.13726
-0.04478,-0.16218,0.0044926,0.081294,-0.059712,0.025049,0.11195,0.0067997
0.062361,-0.073796,-0.43919,-0.075238,0.081299,0.00056157,0.17719,0.064502
-0.025387,0.10635,-0.18004,0.012547,-0.012595,-0.01763,-0.44714,-0.004427
-0.019909,-0.1159,-0.059243,0.22653,0.064954,0.064626,0.30219,-0.084969
0.0077351,0.10921,-0.29111,-0.52795,-0.12341,-0.048936,0.051323,0.039912
-0.060094,-0.1103,0.26846,0.36548,0.055299,-0.03727,-0.41714,-0.10732
0.034281,-0.12683,0.056319,0.13265,-0.008131,0.037871,0.085689,0.14517
0.025374,0.074896,0.229,-0.52392,-0.032314,-0.018195,0.34214,-0.13922
0.022898,0.057152,0.33316,0.44211,0.021887,-0.041024,-0.037846,0.095935
0.019484,0.18678,0.76692,0.022413,0.052895,0.070972,-0.085667,0.0248
0.039047,-0.10724,-0.20981,-0.36166,-0.01752,0.028365,-0.0052511,-0.10795
-0.18357,-0.052634,-0.29151,0.29722,0.013592,0.04136,0.1943,-0.050065
0.086426,0.10699,-0.32525,-0.23573,-0.049279,-0.062885,-0.28535,0.16106
0.04472,0.0030799,-0.57183,0.62525,-0.026609,-0.058831,0.14037,0.026172
-0.019349,-0.14651,-0.48413,-0.36967,0.04246,0.02921,-0.44363,-0.087833
0.019381,0.056666,0.043403,-0.32135,-0.0061028,-0.010249,0.23546,0.083386
-0.096886,-0.04251,0.21175,-0.025407,0.030969,0.025804,0.34917,-0.18877
0.022328,0.019218,0.39135,0.2386,0.036719,0.020527,0.014496,0.18704
0.07984,-0.0049015,0.49198,-0.10557,-0.16045,-0.064402,-0.34685,0.10699
0.036147,-0.11896,0.15316,0.43596,0.080343,0.022023,0.10086,-0.18057
-0.015504,-0.069419,0.029577,-0.20591,0.048375,0.015271,-0.025354,0.011203
-0.099017,0.28709,-0.12465,-0.2729,-0.07658,0.010095,0.17296,-0.035853
0.011844,0.21757,-0.057089,0.13308,0.096058,-0.016201,0.07116,-0.062176
0.043537,-0.19233,-0.21801,-0.12182,0.019252,0.01488,-0.36897,0.020773
-0.027225,-0.11641,-0.054045,0.3827,-0.072861,0.017359,0.088334,-0.13568
0.049937,-0.065801,-0.20786,-0.23017,-0.024262,0.022059,0.0074394,0.11163
-0.076012,-0.10721,-0.054285,0.061299,0.047692,-0.042053,0.12483,0.33455
-0.0060784,0.14543,0.075147,-0.080072,-0.11487,-0.050861,0.10662,-0.037066
0.088324,0.18778,0.049259,-0.061057,0.042766,-0.0052689,-0.37373,-0.098227
-0.019111,-0.11651,-0.023983,0.10309,0.12226,0.086109,0.33308,-0.22638
-0.03934,0.089635,0.13893,-0.06295,-0.0012806,0.011734,-0.31217,0.13005
0.13671,-0.045947,0.10493,-0.010362,-0.054365,-0.056856,0.27526,-0.016422
-0.21025,-0.10011,0.02751,0.12251,-0.036977,0.0052942,0.19482,0.089432
0.067524,-0.030652,-0.0654,-0.10747,-0.0038387,-0.028132,-0.25937,-0.1399
0.02398,-0.051693,0.087231,0.059195,-0.0018944,0.038671,0.01135,-0.1267
-0.013422,-0.024941,-0.020639,-0.22052,0.02344,0.026692,-0.19091,0.30167
0.056396,0.015963,-0.083724,0.037335,0.009525,-0.024252,0.038309,-0.21246
0.0066643,-0.033956,-0.070818,0.33895,-0.0047509,-0.0353,0.26077,0.16908
-0.029658,0.2888,-0.036722,-0.021403,-0.019582,-0.037102,0.0081698,-0.08255
-0.0051629,0.054761,-0.098352,0.28129,0.13673,0.11915,-0.23359,0.042656
-0.020526,0.074341,0.0029639,-0.47471,-0.090587,-0.03519,0.19406,-0.016111
-0.09025,-0.03142,0.27645,-0.15095,-0.045259,-0.0081692,-0.1905,0.078124
-0.0022437,-0.57999,-0.057377,-0.099988,-0.078647,-0.011221,-0.20497,-0.072746
0.056932,0.22052,0.065775,0.13168,-0.034172,-0.068487,0.28542,-0.25812
0.095576,0.10036,0.022496,0.17047,0.2448,0.16298,0.078399,0.2086
0.058887,0.12724,-0.31885,-0.19264,-0.077314,-0.075393,0.064059,0.19328
-0.05385,0.10508,0.10488,0.36449,-0.055005,-0.08893,-0.025085,-0.10248
0.037458,-0.41829,-0.073421,-0.078792,0.069576,0.067305,-0.043422,-0.094305
-0.14508,0.043893,0.21604,0.21236,-0.024016,0.010423,0.091826,0.12276
-0.047973,0.072942,-0.012132,-0.29347,-0.054766,0.060976,-0.19241,-0.1084
0.10924,0.03938,0.30323,-0.1592,0.02394,-0.093019,0.024061,-0.045872
-0.087747,0.11009,-0.4409,0.10711,-0.006871,-0.028969,-0.1418,-0.11903
0.14259,0.18535,0.066741,-0.22082,-0.061412,0.027368,-0.1809,0.25102
-0.11311,0.023662,-0.12007,0.076673,0.055549,0.014248,0.39363,-0.067494
0.028903,-0.33623,-0.18151,0.36043,0.078364,0.041629,0.13176,0.051462
0.022688,-0.051609,0.36661,-0.070971,-0.047638,0.016076,-0.13532,0.046238
0.056517,-0.030035,0.055331,0.018508,0.060417,-0.054583,-0.061474,-0.090439
-0.06444,0.13346,0.087345,-0.26049,-0.073901,-0.0065462,-0.11412,-0.11619
-0.0040874,0.094062,-0.21792,0.1161,-0.01286,0.050364,0.066257,0.062629
-0.0047402,-0.07872,-0.033703,-0.28158,-0.053002,-0.0093758,0.34584,0.18788
0.034851,0.0051139,0.2008,0.17818,-0.014247,-0.061247,-0.31621,-0.17055
-0.010687,-0.13935,-0.25061,0.29805,0.11158,0.0037749,0.093585,0.033748
0.014588,0.1358,0.032216,0.051867,0.0043694,0.037085,0.0029008,-0.05118
-0.045726,0.056632,-0.084906,-0.30563,-0.046826,0.023069,-0.37879,0.019706
-0.011892,0.16186,0.28782,0.49611,0.082681,-0.022508,0.31503,0.035331
0.038181,-0.19698,-0.17004,-0.57628,-0.11549,-0.099447,0.092274,0.034749
-0.020218,0.058808,0.40945,-0.15654,0.045451,0.12055,-0.26504,-0.021008
-0.038432,0.055512,-0.24544,0.076081,0.002242,0.0047392,0.28321,-0.0067807
0.0069718,-0.46268,-0.31949,0.013762,0.027705,-0.0094306,-0.28534,-0.15675
0.053147,0.069186,-0.035682,0.3853,0.012107,-0.031518,0.43632,0.20114
0.013429,0.21599,0.2585,0.075806,-0.075816,0.063221,-0.074946,0.012382
0.066472,0.034124,-0.30792,-0.08478,0.0064646,-0.077027,-0.55376,-0.15261
-0.0076252,0.031836,0.14332,-0.36887,-0.060736,0.016323,0.43667,0.18281
-0.077051,0.10645,0.48915,0.12213,0.043673,-0.031759,-0.36252,-0.15317
-0.025183,0.27881,-0.22331,0.05953,0.086066,0.036661,0.60212,0.026982
-0.015994,-0.18903,0.2077,0.1767,0.035756,0.010889,-0.069052,0.028054
-0.025224,-0.40246,-0.39231,-0.15241,-0.060116,-0.038459,-0.33009,0.014212
0.050147,0.064957,-0.096856,0.14956,-0.014099,0.076411,-0.048651,0.0012041
-0.022413,-0.32016,0.067454,-0.18316,-0.029625,-0.07397,-0.052677,-0.01868
0.001145,0.3946,-0.026979,-0.24369,0.002223,0.033947,0.22115,-0.037594
0.028567,0.21768,0.20397,0.34432,0.049714,0.0017216,0.008568,-0.024372
0.037224,-0.036823,-0.24077,-0.18289,-0.028171,0.016768,0.084721,0.098861
-0.012009,-0.085452,0.036706,0.1844,0.0027165,-0.0069724,-0.11109,-0.074578
0.020558,-0.050777,0.28614,-0.12253,-0.037343,-0.038356,-0.084995,0.095348
0.016115,0.13211,-0.039555,0.1549,0.054931,0.024133,0.086206,-0.01702
-0.019511,-0.35489,-0.19842,-0.17882,-0.040481,-0.05386,-0.10447,0.025218
-0.064831,0.22454,0.020388,0.0391,0.020523,0.055862,-0.047464,0.010731
0.073936,-0.089026,0.42961,0.21279,0.04296,-0.029441,0.077007,-0.26367
-0.096236,0.22887,-0.55581,-0.25412,-0.12918,0.01057,0.31461,0.092948
-0.098812,-0.1182,0.27678,0.2061,0.12918,0.097706,-0.13323,0.12027
0.12943,-0.11476,-0.35917,-0.072644,0.021116,-0.080688,0.067488,0.030058
0.04286,0.090043,0.17221,-0.02111,-0.086394,-0.009206,-0.49906,0.01842
0.025796,0.16694,-0.040033,-0.20944,0.017302,-0.016201,0.12676,-0.20306
-0.021893,-0.18235,0.11593,-0.026898,-0.019667,-0.00028225,0.26465,0.24098
-0.028755,-0.084363,-0.0071366,0.26313,0.028997,0.015045,-0.054042,-0.15727
0.0059192,0.10789,0.027798,-0.11802,0.014681,0.053279,0.061989,0.078457
-0.019192,-0.005315,0.32007,0.18357,-0.00017526,-0.049456,-0.23778,-0.099298
0.028556,-0.034443,-0.079255,-0.2212,-0.062394,-0.011627,0.14939,0.066558
0.039321,0.050891,-0.44021,-0.027288,0.023484,0.003037,0.052671,0.0049648
-0.081274,-0.023436,0.061028,0.18629,0.015478,-0.052025,-0.12091,0.03561
0.0020425,-0.0079565,0.13975,0.39415,0.14037,0.1281,0.2072,0.048748
0.01523,0.018827,-0.081058,-0.37501,-0.22665,-0.081486,-0.17391,-0.10407
-0.003142,0.20515,0.1483,-0.38155,0.062977,0.053493,0.087067,-0.031836
-0.022205,-0.28491,-0.21778,0.17719,0.017087,-0.045337,-0.096284,-0.015042
0.04369,-0.20103,-0.012666,0.097057,0.0027761,-0.03461,-0.20111,0.033215
0.014628,0.39488,0.30594,-0.035993,0.043273,0.10867,0.31104,-0.15952
0.062307,-0.14466,-0.26636,0.013453,-0.017968,-0.1003,0.056752,0.25906
-0.1337,0.13471,0.22655,0.15339,0.037479,0.056906,-0.1051,0.086208
-0.010887,-0.007699,-0.033328,-0.0046786,-0.079721,-0.013632,0.12981,-0.029756
0.11838,-0.046704,-0.13051,-0.13045,0.0052956,-0.054081,-0.34024,-0.097124
-0.042447,-0.11325,0.28716,0.051488,-0.0042971,0.037332,0.063014,-0.10878
0.069648,0.03667,-0.26478,0.050511,0.047998,0.026599,0.27745,-0.026357
-0.20875,-0.29078,-0.32597,-0.23394,-0.03273,0.0079333,-0.25103,0.079269
0.052766,0.21768,0.29794,0.065634,-0.02726,-0.041618,0.11888,-0.034449
0.034507,0.23358,0.27755,-0.066867,0.01015,-0.012249,-0.0028051,0.038544
0.080651,-0.072847,-0.31844,0.23446,0.032921,0.049478,0.071941,0.063764
0.011623,0.16261,0.13301,0.17076,0.095821,-0.059419,-0.078413,0.048938
-0.00094846,-0.33745,-0.11253,-0.010383,-0.1216,0.06726,-0.1256,-0.037257
-0.066983,0.28978,0.090964,-0.45984,-0.065009,-0.039467,0.094407,-0.038573
0.0081073,-0.20189,0.045893,0.52354,0.17141,0.049711,-0.0045504,-0.032985
0.012646,-0.15913,-0.10116,-0.80354,-0.10812,-0.0094015,0.15531,-0.043563
-0.038346,0.15909,0.22692,0.37143,0.025744,-0.060992,-0.098303,0.0083987
0.034454,0.050496,0.0068491,0.46357,0.025945,0.027399,-0.16427,-0.0092087
-0.050299,0.018005,-0.43951,-0.40017,-0.076202,-0.041323,0.15232,0.052716
-0.019029,0.081904,0.12513,0.12645,0.016462,0.029642,0.17933,0.069612
0.097309,-0.18168,-0.006168,-0.071185,0.070014,0.021585,-0.23185,-0.013138
0.0021885,-0.16502,0.10857,-0.10014,-0.071279,0.067435,-0.38595,-0.09433
0.0084344,0.19996,0.12981,0.14285,0.022735,-0.12172,0.53728,0.09091
0.0069335,-0.25457,-0.1346,0.0023521,-0.038281,0.024566,-0.0012782,-0.020916
-0.05681,0.32471,0.035564,-0.021858,0.089459,0.045492,0.052866,0.045702
-0.096726,0.26493,-0.41499,-0.087284,-0.031799,-0.027583,-0.19899,-0.10858
0.01227,-0.34388,0.68291,0.21015,0.042759,0.04765,0.024111,-0.13278
0.17645,0.17209,0.020214,-0.273,-0.062523,-0.041163,-0.12956,0.2073
-0.018293,0.087059,-0.017822,0.38988,0.073557,-0.0047677,0.12126,0.013464
-0.064296,-0.3794,-0.51467,-0.28068,-0.14331,-0.014803,0.058048,-0.018356
-0.055518,0.14202,0.15029,-0.19323,0.0052808,-0.031957,-0.20157,-0.027892
0.062475,0.07758,0.060436,0.42431,0.058311,0.06898,0.28045,-0.037519
-0.030868,-0.37806,-0.2065,-0.22509,0.015944,-0.086893,-0.018663,0.078883
0.039272,0.027177,0.21064,-0.038819,0.1051,0.10974,-0.15291,-0.029192
-0.016252,0.47725,-0.020535,-0.038187,-0.11125,0.057061,0.12847,-0.063995
-0.002091,-0.10038,0.2217,0.22505,0.047156,-0.11251,-0.040913,0.0062961
0.019417,-0.02015,-0.23757,-0.15203,-0.13789,0.0068014,-0.30867,-0.17753
0.040734,-0.097205,-0.058178,0.091641,0.091948,0.00048362,0.42745,0.47798
-0.19561,-0.24194,0.15361,-0.24435,-0.067624,-0.061472,-0.18367,-0.16855
0.13104,0.25824,0.063471,0.21678,0.086734,0.086429,-0.40774,-0.071324
-0.010293,0.21533,-0.16449,-0.00091983,0.047194,0.014581,0.69205,-0.036263
0.036743,-0.08408,0.31207,0.0237,-0.022427,-0.042366,0.020574,-0.025478
0.068929,-0.09709,-0.37656,-0.031612,0.025891,0.048818,-0.22876,-0.024283
-0.14059,-0.054969,-0.06954,-0.18536,-0.14427,-0.09419,-0.065871,0.044826
0.079644,-0.024834,0.073444,0.23876,0.036948,0.013463,-0.047391,0.025285
-0.059897,0.044245,0.33819,0.10465,0.06926,0.075288,-0.09656,-0.036121
0.041972,0.0015114,-0.12956,-0.043507,-0.03964,-0.025684,0.21575,-0.0065484
0.010046,-0.13799,-0.23793,-0.34003,-0.024059,-0.039442,-0.18045,0.11408
-0.046286,0.17375,0.29355,0.40248,0.069323,0.10413,0.2081,0.052458
