-0.28849,-0.018109,-0.0040377,-0.024955,-0.016391,-0.018427,-0.25108,-0.02137
-0.017565,0.022247,-0.011512,0.025733,0.024297,0.037809,0.081034,-0.039831
0.10955,0.03091,0.0034344,0.0053564,-0.0058392,0.0079452,0.10125,0.19427
-0.069334,-0.047021,-0.10155,-0.03959,-0.021111,-0.014417,0.34916,-0.42066
0.026337,-0.0085252,0.023813,-0.0077372,0.0017445,-0.029362,-0.1671,-0.10864
-0.0070539,-0.0098314,0.019338,0.0071745,0.0001726,0.017788,0.013495,0.0022377
-0.026537,-0.011749,-0.037169,-0.0024834,0.0055061,-0.013532,-0.27332,0.0039398
-0.0070672,0.032787,0.034023,0.010467,-0.0054732,-0.037284,0.097026,0.46504
0.27845,0.0067921,0.014446,0.015129,0.0066255,0.048194,-0.55581,-0.16434
-0.26441,0.074493,0.11549,0.035286,0.0031337,0.055459,0.96258,0.18862
0.096884,-0.084303,-0.021598,-0.038136,-0.0077297,-0.038927,-0.27089,-0.40615
0.00029875,0.030488,-0.0052729,0.021673,0.013463,0.030615,-0.015475,0.19656
0.013059,-0.057607,-0.068565,-0.035081,-0.011138,-0.071901,0.18821,0.07718
-0.17253,0.026537,0.0013651,-0.028541,-0.011071,0.020709,-0.91117,0.010265
0.18325,-0.029414,-0.10553,-0.0054507,0.0058534,0.0038406,1.0684,0.20015
-0.21811,0.048169,0.043229,0.042072,0.0082377,-0.059834,-0.20099,-0.47556
0.26338,0.0094503,-0.026146,0.012437,0.0036131,0.095548,-0.56199,-0.0040225
-0.09068,-0.012677,-0.01459,0.038302,0.030667,-0.021955,0.53452,0.17751
-0.076061,-0.026077,0.071145,-0.044677,-0.036017,-0.013717,-0.44752,-0.2012
-0.11305,-0.015341,0.043052,-0.033758,-0.017143,0.018782,0.088911,-0.072038
0.034429,0.050411,0.1098,0.03938,0.0088476,-0.026081,0.0061407,0.32974
0.3132,-0.032437,-0.044999,-0.020979,0.0026919,0.038988,0.18117,-0.0044372
-0.064717,0.094966,0.011187,0.019222,0.011194,-0.067592,0.19278,0.072019
-0.012739,-0.067837,-0.094141,-0.019879,-0.012473,0.044387,0.0089198,-0.022788
0.086597,0.0023176,0.017092,-0.0054747,0.0021393,-0.031773,0.19798,-0.28721
-0.32909,-0.022697,-0.041251,0.031365,0.016162,0.086324,-0.65662,0.34835
-0.15809,-0.041015,-0.012669,-0.026203,-0.024881,-0.078203,-0.19004,-0.16571
0.17796,0.041674,0.041297,0.087924,0.043275,0.036995,0.26008,0.16653
0.17153,-0.039563,-0.095043,-0.094452,-0.013566,0.010106,0.30246,-0.16746
0.057187,-0.010638,0.020432,-0.025904,-0.031201,-0.08044,0.20308,-0.21927
-0.032277,0.050749,-0.067872,-0.034111,-0.032968,0.047133,-0.41977,0.053724
0.1216,0.13686,0.1139,0.084296,0.059312,-0.012741,0.11505,-0.00046587
-0.5363,-0.11979,0.03067,-0.0066743,0.0034564,0.053173,-0.39435,0.24033
0.35298,0.030201,0.059596,0.0050895,-0.013081,-0.074773,-0.017718,-0.030749
0.23463,-0.031087,0.11484,0.095462,0.040872,0.057013,0.18185,0.036263
-0.1332,-0.0074052,-0.078845,-0.095793,-0.076966,-0.082542,0.85092,0.065468
-0.43712,-0.078788,-0.048102,0.047664,0.031772,0.053288,-0.19316,-0.013448
0.53524,0.082946,-0.10141,-0.09979,-0.0079332,0.11248,-0.43817,-0.17585
-0.5113,0.0016983,-0.015753,0.024116,0.038339,-0.022802,-0.035457,-0.07537
0.19834,-0.079561,0.034376,-0.033501,-0.040229,-0.087664,-0.40838,-0.12977
0.11058,0.12916,0.016474,0.071793,0.022165,-0.028027,0.57647,0.12725
0.053749,-0.097838,-0.077082,-0.041836,-0.024274,0.015113,-0.25002,0.42838
0.33156,0.060387,0.0051091,0.0094835,0.0081433,-0.05207,-0.56309,-0.17328
-0.65183,-0.013112,0.062068,0.0079082,0.017981,0.10655,0.67373,-0.15665
0.092788,0.087711,0.080485,0.055555,-0.025996,-0.063405,0.37149,-0.35367
0.12453,-0.18464,-0.070515,-0.034999,-0.0067368,-0.030356,-0.060234,0.14366
0.5105,0.090782,0.055535,-0.0063563,0.012965,0.10429,-0.3859,0.42814
-0.33771,0.030046,0.044755,0.023463,0.0483,0.051417,-0.41925,-0.1994
-0.19484,0.030478,-0.03329,-0.032564,0.0049991,-0.0095843,0.35195,0.19201
-0.38891,-0.11982,-0.078476,-0.019318,-0.05495,-0.14944,0.62592,-0.25769
-0.059178,0.047247,0.0089742,0.046605,0.0086697,-0.0013912,-0.055882,0.23128
0.71849,0.046993,-0.077379,-0.030742,-0.0074838,0.098354,-0.65152,0.17369
0.2201,-0.1283,0.051693,-0.0015474,-0.017446,-0.014317,0.093356,-0.46832
-0.44263,0.14681,0.10631,0.040728,0.010303,-0.065754,-0.15073,0.02844
-0.017932,-0.064457,-0.069915,-0.082893,-0.0018994,0.030424,0.2031,-0.015198
0.026583,0.043469,0.093887,0.050473,0.040263,0.0091728,-0.092263,-0.16519
0.097811,-0.05971,-0.18239,-0.089305,-0.034511,0.019545,0.076586,0.17185
-0.069461,0.095675,0.11843,0.15506,0.055524,0.030836,-0.020491,0.20051
0.072041,-0.13801,-0.025359,-0.035985,-0.033024,-0.04249,0.40127,-0.054109
-0.32877,0.036757,-0.080921,-0.029243,-0.026518,-0.0048989,-0.21065,0.017677
0.17387,0.050056,0.085706,0.011167,0.0047662,0.010845,0.034996,-0.031808
-0.052748,-0.019822,-0.087544,-0.024572,-0.0095796,-0.010982,-0.081301,-0.17717
-0.29047,0.10828,0.039512,0.065937,0.047425,0.015357,-0.20181,0.032958
0.47466,-0.13628,0.059317,-0.069729,-0.027632,-0.027596,-0.13319,0.29658
0.34139,0.035061,0.063662,0.012895,0.0071007,0.0082891,0.47444,0.14524
0.0013449,-0.058038,0.097248,-0.022835,-0.0049835,0.0054928,0.0027706,-0.17968
-0.38533,0.013352,-0.02924,0.017915,-0.0095473,0.026163,-0.11099,-0.17066
-0.11096,0.037446,-0.066654,0.0021117,0.00090361,-0.016006,-0.43671,0.064568
-0.11473,-0.072609,-0.11599,-0.0077202,-0.028584,-0.074517,0.15933,-0.11773
0.0647,0.09632,-0.28451,-0.026972,0.050232,0.10026,0.045363,-0.30313
-0.0075479,0.12934,0.17336,0.11663,0.026314,0.0079993,0.38619,0.23074
0.047927,-0.060044,-0.03532,-0.0060859,0.0090555,-0.0077901,0.033502,-0.049156
0.10366,0.051494,0.218,-0.0038655,-0.048254,-0.056584,-0.31011,0.44239
0.0086853,-0.34022,-0.064522,-0.16508,-0.05936,-0.0054872,0.041837,-0.022138
0.04848,0.094093,0.21095,0.01877,0.030875,0.028598,0.096,-0.18733
-0.016667,-0.018895,-0.020366,0.0092557,0.0042238,-0.00072948,0.0077955,-0.034286
0.0089196,0.13518,0.026199,0.088033,0.040875,0.016509,-0.2933,-0.015325
-0.087391,0.10483,-0.076943,0.13019,0.024017,0.010654,-0.0724,-0.085029
0.15199,-0.1636,-0.35925,-0.15366,-0.054,-0.056758,0.030961,0.17524
-0.23043,0.0096735,0.11935,-0.029821,-0.013585,-0.036845,0.43996,-0.027913
-0.0048865,0.03003,0.15998,0.016343,0.027721,0.086226,-0.10213,0.14468
0.2776,0.16919,0.15193,0.061854,0.022494,-0.00011996,-0.09478,-0.30327
-0.39382,-0.12975,-0.32566,-0.034952,-0.014291,0.0084542,0.13373,0.054956
0.33092,0.076356,0.0116,0.045453,0.018307,0.0098371,-0.21426,0.077261
0.006807,-0.16728,-0.09721,-0.095765,-0.020801,0.0034072,-0.092966,-0.11903
-0.067267,0.10741,0.32219,0.057088,0.00099979,-0.027,0.33246,-0.001161
-0.075284,-0.25534,0.0019197,-0.10484,-0.056793,-0.050452,0.030053,0.089579
-0.19244,0.1289,0.12662,0.091195,0.0093792,-0.027904,-0.43778,0.007571
0.14852,0.0047017,-0.16707,-0.017803,0.020487,0.048742,0.17168,0.02107
-0.040403,0.12476,0.037384,0.06923,0.031973,0.0081095,-0.070174,0.343
0.14205,-0.0085298,-0.20433,-0.013997,-0.0023375,0.01484,-0.099603,-0.55678
0.10294,0.059621,-0.21299,-0.0090569,0.019636,0.022563,0.4282,0.3765
0.012669,-0.084241,0.095348,-0.056299,-0.026851,-0.015289,0.045011,-0.36578
-0.39022,-0.096859,0.21726,-0.015148,0.0066139,0.0028959,-0.18689,-0.21491
0.52184,0.16094,0.31207,0.075003,0.0025714,0.0065974,-0.1278,0.55349
-0.077481,-0.070773,-0.10248,-0.05201,-0.047241,-0.04365,0.0021439,0.022825
-0.45952,0.0025043,0.045756,0.079709,0.044133,8.4105e-05,-0.072085,-0.0047308
0.23847,-0.11368,-0.38925,-0.10086,-0.044177,0.020102,0.34342,-0.062489
0.0063621,0.12576,0.15104,0.038432,0.046696,0.015977,-0.18982,-0.12812
-0.0071702,-0.092764,-0.038337,-0.026418,-0.01178,-0.0047538,-0.00027772,-0.17794
0.17733,0.2461,-0.027035,0.094821,0.037931,0.012498,0.013946,0.25084
-0.036502,-0.16957,-0.21052,-0.043361,-0.038668,-0.088442,-0.14623,-0.018171
-0.2357,-0.096348,-0.14652,-0.034703,-0.014974,0.091082,-0.12012,-0.11343
-0.28022,-0.10281,0.13173,-0.089937,-0.00017292,-0.042389,0.36703,-0.0459
0.27391,0.27383,0.52887,0.13505,0.013857,0.019247,-0.10558,-0.124
-0.10006,-0.08976,0.51195,6.6419e-05,-0.011577,-0.0050513,-0.0062555,0.27213
0.25572,0.010652,0.032351,-0.017839,0.025447,0.025415,-0.0070542,0.033724
0.51921,0.012955,-0.47399,0.0036377,-0.031037,-0.045689,0.18029,0.29191
-0.12689,0.041743,-0.53942,-0.036715,0.0066262,0.0079744,-0.054721,-0.14457
-0.43163,-0.060313,-0.59459,-0.037092,0.021251,0.03766,-0.45537,-0.25743
0.019308,0.24434,-0.39138,0.19012,0.075207,0.050883,0.49324,-0.075689
-0.19486,-0.43654,0.65139,-0.19885,-0.10516,-0.061922,-0.2793,0.051941
-0.28197,0.036248,0.60205,0.0067548,-0.012288,-0.058555,0.063508,0.12977
0.44351,0.14607,0.60033,0.048768,0.025529,0.029998,-0.070919,-0.054652
0.076036,0.040907,0.16166,-0.018638,-0.023036,-0.053571,0.233,0.03052
0.0092058,0.064596,-0.079086,0.077323,0.053009,0.089851,-0.038809,-0.19823
0.067674,-0.055707,-0.4269,-0.015628,-0.019585,5.1118e-05,-0.15063,0.051833
-0.11877,-0.084615,-0.26287,-0.032513,0.017281,0.044852,0.11713,0.12855
-0.17857,0.080744,-0.00070197,0.065309,-0.00010581,-0.064386,0.022501,0.012191
0.11806,0.012153,-0.27089,0.059062,-0.016693,-0.069725,-0.23185,0.03352
0.014987,-0.30456,-0.30204,-0.30078,-0.079036,0.04424,0.1264,-0.079781
-0.065964,0.25682,-0.34364,0.088316,0.055265,0.04257,0.048686,0.062455
0.49083,0.048683,0.27625,0.055856,0.019064,0.0025408,0.079835,0.28659
-0.30161,0.040007,0.48245,0.040861,0.046568,0.016866,0.053643,-0.38646
-0.079038,0.050764,0.57273,0.13065,0.020205,-0.017084,-0.21149,0.16567
0.015446,-0.19334,0.018272,-0.18166,-0.084024,-0.014285,0.079959,-0.29351
-0.23049,0.07995,0.26569,0.026086,0.02229,0.0012377,-0.02565,-0.015201
0.097267,-0.23221,-0.60742,-0.106,-0.067754,-0.025329,-0.020067,-0.023029
0.015849,0.29085,-0.25845,0.17862,0.067162,0.00015902,-0.04257,0.20715
-0.042493,-0.086202,-0.053702,-0.028252,0.0047679,0.01607,-0.020817,0.49694
0.3784,-0.012478,0.30206,0.028917,0.0026784,-0.0076349,0.18036,-0.59747
-0.28114,0.09762,-0.051403,-0.0037226,-0.0094013,-0.030545,-0.13209,0.27703
-0.0034346,-0.16217,-0.17397,-0.034277,-0.0077994,-0.0045368,0.067094,-0.26879
0.040542,0.15374,0.12185,0.053418,0.054802,0.10257,0.075915,0.18823
-0.055809,-0.2275,-0.28316,-0.18586,-0.094404,-0.091593,-0.097489,-0.36645
0.40918,0.23398,0.12984,0.07732,0.045367,0.12385,0.038664,0.34148
-0.42608,-0.14048,-0.16331,-0.099985,-0.01719,-0.032903,-0.079074,-0.070281
0.03744,0.22059,0.24476,0.16032,0.04696,-0.054896,0.10274,0.03116
-0.1167,-0.15025,-0.043471,-0.029055,-0.026962,-0.021234,-0.13593,0.28598
0.031468,0.084247,0.43973,0.13957,0.035169,-0.018761,0.070973,-0.40834
0.06666,-0.21531,0.11225,-0.14413,-0.055276,0.022136,-0.003984,0.11875
0.32428,-0.1183,-0.29863,-0.10569,-0.056023,-0.031804,0.013635,-0.27498
-0.21119,0.23499,-0.036921,0.090481,0.056033,0.069176,-0.040547,0.29943
-0.31265,-0.13248,-0.44959,-0.010428,-0.0011482,-0.0031859,0.028627,0.074748
0.31768,0.36365,0.32718,0.19036,0.052451,-0.092784,-0.013311,-0.036361
-0.10828,-0.099536,-0.0060012,-0.037208,0.027758,0.097018,0.13041,0.082251
0.035431,-0.13485,-0.14556,-0.14994,-0.045701,0.0033663,-0.18881,-0.31996
0.3277,0.22268,0.39323,0.13793,0.10389,0.13366,0.18513,0.2961
-0.58264,-0.50698,-0.77113,-0.34787,-0.23563,-0.24681,-0.20103,-0.38146
0.085663,0.25954,0.363,0.17273,0.099191,0.096202,0.13707,0.11717
0.22276,0.2008,0.43738,0.1452,0.045999,-0.0010967,-0.042544,0.37921
-0.0081878,-0.24512,-0.086981,-0.054106,-0.073976,-0.053616,-0.051956,-0.29725
0.016585,0.056869,0.038699,-0.008837,0.029859,0.072607,0.12511,0.088705
0.26447,0.10268,-0.14093,-0.0052882,-0.0077953,-0.074093,-0.15115,-0.0093149
-0.50009,-0.25929,-0.24568,-0.15783,-0.013139,0.046896,0.1436,-0.17723
-0.051281,0.077385,0.25354,0.15316,0.023272,-0.10211,-0.16169,0.03775
0.26713,0.070195,0.043312,0.085636,0.079082,0.15954,0.11333,0.41644
0.11218,0.01916,-0.11769,-0.086187,-0.048453,-0.042802,-0.0074992,-0.18988
-0.045771,0.12104,-0.015804,0.090615,0.038775,0.048341,-0.0085193,0.054931
-0.28264,-0.046506,-0.27966,-0.12719,-0.066398,-0.028907,0.039675,-0.21543
0.052564,0.0065453,-0.13883,-0.04593,-0.013688,0.013141,0.027159,-0.1869
-0.045424,-0.035735,0.31722,0.098168,0.03928,-0.006747,-0.12488,-0.14656
0.36306,-0.013255,0.27081,0.037747,-0.041524,-0.16814,0.020358,0.19651
0.045123,0.0077344,0.057998,-0.033141,0.016476,0.082504,0.056063,0.33558
0.040458,-0.06158,0.066828,0.01777,0.041015,0.072609,0.03656,0.028223
-0.52622,-0.07432,-0.090377,-0.074851,-0.038118,-0.026222,-0.085154,0.038276
-0.18728,0.024079,-0.22437,-0.0052185,-0.025085,-0.034199,-0.074641,-0.051473
0.34443,0.015998,-0.012899,-0.029436,0.018426,0.080296,0.0839,-0.16676
0.13672,0.012772,-0.12427,-0.012713,-0.016048,-0.05721,3.0016e-05,-0.061303
0.33512,0.08695,0.14306,0.093649,0.020746,0.0070136,0.14261,0.035687
-0.18051,0.045205,0.15789,-0.013779,0.027798,0.078293,-0.03523,0.10761
-0.14707,-0.048624,-0.11427,0.016945,0.0052967,-0.038023,-0.12734,-0.36799
0.14484,0.055974,-0.13547,0.075823,0.015547,-0.067823,-0.016644,0.20534
-0.46126,-0.055349,-0.054532,-0.034001,-0.020082,-0.026068,0.031144,0.057985
-0.31575,-0.14909,-0.060394,-0.056887,-0.024147,0.025341,0.070719,-0.08721
0.40396,0.17982,0.030205,0.0126,-0.020779,-0.038168,-0.11659,0.23417
0.34116,-0.08544,0.083766,0.00045911,0.0050961,0.072626,0.055262,-0.17105
-0.017373,0.015107,0.024289,-0.0010421,0.037544,0.084082,0.055098,0.17415
0.16579,-0.019175,0.52887,-0.047184,-0.017214,-0.035616,-0.054603,0.010768
-0.01527,-0.047928,-0.13495,-0.13763,-0.041764,-0.013888,0.0072744,-0.054178
-0.4753,0.092932,0.29951,0.135,0.018975,-0.062657,0.02958,-0.023526
0.04212,-0.041718,-0.023887,0.084809,0.032646,-0.0031536,0.043354,-0.0013541
-0.10523,0.0092983,-0.62799,-0.0052222,-0.00034818,0.0077106,-0.053059,-0.15329
0.12806,0.14463,-0.41899,0.03049,0.045262,0.086835,0.060781,-0.026476
0.24869,-0.034017,-0.37318,-0.064784,-0.041371,-0.062537,-0.083473,-0.057525
-0.12678,-0.16711,0.17284,-0.063931,-0.065014,-0.096189,-0.17268,-0.033888
0.35311,-0.051325,0.3086,0.033104,0.013186,0.025605,0.059537,0.077271
-0.36589,0.0089657,0.5696,-0.00054664,0.036705,0.045716,0.16068,0.2221
-0.20459,0.31108,0.27734,0.24088,0.10684,0.074037,0.0060494,0.25174
0.13542,-0.1991,-0.065016,-0.23524,-0.12034,-0.0063863,0.056383,0.023804
-0.0080128,-0.036577,-0.25843,-0.062009,0.0035528,0.038754,0.0062913,-0.34729
-0.031376,-0.083506,0.15477,-0.12222,-0.052586,-0.03301,-0.12186,-0.27086
0.16851,0.32482,-0.060705,0.30315,0.086547,-0.081387,-0.0011274,0.19586
0.10042,-0.2329,-0.57288,-0.043334,-0.0083116,-0.020648,0.00030406,0.043671
-0.21203,-0.0061927,0.066908,-0.091011,-0.039832,0.0008074,-0.055633,-0.063147
0.011795,-0.02602,0.019932,0.011787,0.023613,0.0067283,0.026376,0.13502
0.41141,-0.042344,0.35678,-0.094579,-0.036521,0.067941,0.21565,-0.054053
-0.39725,0.20237,-0.1609,0.22983,0.0766,-0.0024849,-0.27585,-0.10306
-0.09493,-0.16753,-0.21348,-0.00039914,-0.035768,-0.086906,0.02189,0.085677
0.036616,0.14387,0.31012,-0.13028,0.0086599,0.088316,0.07104,0.062431
-0.033821,0.0025722,-0.048141,-0.012597,0.01391,0.030864,-0.0024077,-0.2252
0.014526,0.10265,-0.13695,0.13293,0.041818,-0.025334,0.13803,0.29396
0.025934,-0.29914,0.27995,-0.21762,-0.095644,0.012793,-0.023219,0.18182
0.18032,-0.00040181,-0.086198,0.084238,-0.031583,-0.10552,-0.13504,-0.33691
0.063294,-0.0014821,0.067894,-0.031233,0.015238,0.056548,-0.04976,0.03982
0.064493,0.041361,-0.010499,-0.05528,0.029433,0.060993,0.13012,-0.22995
-0.24724,0.14393,-0.33258,0.23976,0.058282,-0.10022,-0.0729,0.25742
-0.037649,0.040798,0.2547,-0.07477,-0.061818,-0.028635,0.020064,0.10938
-0.011393,-0.080386,-0.17278,-0.021451,0.044541,0.080665,0.017767,0.028037
-0.16184,0.15548,0.2906,0.087812,0.018274,0.0014176,-0.072386,-0.36167
0.33057,-0.23581,-0.25235,-0.16848,-0.054527,0.015161,0.085323,-0.012156
-0.21424,0.035217,-0.0015636,0.0067741,0.0058625,-0.0029026,-0.024785,0.069914
0.19572,-0.12448,0.02428,-0.026942,-0.011532,0.0098282,0.11301,0.25294
-0.080345,-0.034212,0.08097,-0.0665,-0.02084,-0.0012941,-0.12605,0.061243
0.17614,0.35406,0.198,0.20826,0.063816,-0.012783,0.016241,-0.075161
-0.097454,-0.091416,-0.34569,0.078231,0.023644,-0.024514,-0.068941,0.070002
-0.276,-0.11988,-0.13184,-0.035301,-0.047629,-0.075318,0.017514,-0.4181
0.14891,-0.12955,0.15426,-0.26592,-0.08752,0.022621,0.0654,0.25638
-0.024573,0.19173,0.2391,0.07303,0.060189,0.082127,0.028542,-0.30601
0.26812,0.046186,-0.075085,0.11356,0.059491,0.017497,0.016885,0.42514
-0.040435,0.010696,0.26979,-0.019942,-0.019425,0.0006682,-0.14107,-0.019354
-0.0014041,0.052684,-0.33347,0.10191,0.026413,-0.054437,0.10169,0.079284
-0.31406,-0.071098,0.031142,-0.067676,-0.021898,0.054996,0.002877,-0.20015
-0.20132,-0.26741,0.053913,-0.15316,-0.047249,-0.022988,-0.015961,0.026532
0.011421,0.19051,-0.24509,0.12767,0.036349,-0.038756,-0.072518,-0.012056
0.31744,-0.1418,-0.031179,-0.098931,-0.036514,-0.015982,0.106,-0.36806
0.23123,0.080713,0.03247,-0.0034722,-0.0076542,0.029672,-0.059235,0.4065
0.08518,0.1172,0.073398,0.15745,0.068708,0.028069,0.032606,-0.037705
-0.040329,0.046839,0.2904,-0.068495,-0.025709,0.018621,-0.025378,0.15221
0.019936,-0.028359,-0.22699,-0.024847,-0.032731,-0.06072,0.031932,-0.28164
-0.22482,-0.0070433,0.14922,0.022296,-0.022521,-0.037628,0.02456,0.18258
-0.10759,0.086542,0.045992,0.07966,0.075113,0.056986,-0.055316,0.018362
-0.41197,-0.23315,-0.2391,-0.033955,0.0097601,0.012329,-0.043341,-0.20028
0.26892,-0.076777,-0.065866,-0.10146,-0.031729,0.015793,0.037618,0.1862
0.10241,0.046701,0.025229,0.016244,0.012365,0.0045187,-0.0069704,0.13465
0.24989,0.22234,0.23531,0.060254,0.00065161,-0.0064147,0.034713,-0.06094
-0.024963,-0.058189,-0.12541,-0.055873,-0.020583,0.0058069,0.10102,-0.010905
-0.005725,0.0096327,0.11273,0.01959,-0.020379,-0.037516,-0.1589,-0.33113
-0.14906,0.09791,-0.10679,0.053047,0.016969,-0.043049,-0.033687,-0.010316
0.13356,-0.21463,-0.074228,-0.040195,-0.0018489,0.012453,0.10959,0.14413
-0.12587,-0.11453,-0.07905,-0.086785,-0.037064,0.035273,-0.041841,-0.20586
0.14214,0.10252,0.11356,0.024094,0.013715,-0.013436,-0.027712,0.42125
-0.11135,0.10966,0.22354,0.074839,0.049706,0.061963,0.041622,-0.29172
-0.27195,0.048645,-0.12237,0.042665,0.016798,0.0040319,0.07904,0.11657
0.39938,-0.048463,-0.086132,-0.017684,-0.022237,-0.030602,-0.049456,0.37014
-0.10827,0.021831,-0.18124,0.072965,0.018476,-0.04938,-0.032325,0.1046
-0.071149,-0.13901,0.09422,-0.16289,-0.041105,0.026183,0.10649,-0.22556
0.063061,0.038796,0.18701,-0.031119,-0.021839,-0.022318,-0.14071,-0.53298
0.019079,0.054424,0.035421,0.021815,0.020972,0.016361,-0.12473,0.13842
0.0065785,0.23498,-0.024581,0.22931,0.086757,0.048692,0.11666,0.15359
-0.0063753,-0.405,-0.056123,-0.2296,-0.11398,-0.058047,-0.0086999,-0.041182
-0.23865,0.0084932,-0.1697,0.0041667,-0.01116,0.00073991,0.078842,0.026859
0.25545,0.068313,0.063014,0.00099825,0.027979,0.029452,0.06793,0.067149
0.039301,0.1644,0.10161,0.034689,0.019187,-0.0036376,-0.064351,-0.18633
-0.12801,0.085399,0.11682,0.11361,0.040823,0.02586,-0.099443,0.23451
0.24737,-0.1063,-0.16557,-0.058423,-0.031818,-0.0077206,0.11026,-0.14132
-0.17633,-0.019747,-0.050664,-0.027547,0.0046991,-0.011249,0.079127,-0.099965
-0.19375,-0.036901,0.078683,0.04295,0.010052,-0.063326,-0.17082,0.23329
0.033391,-0.16424,-0.23827,-0.080533,-0.023289,0.054534,0.062276,0.22213
0.19476,-0.01724,0.16282,-0.076958,-0.048198,-0.017072,-0.058394,-0.17078
-0.090739,0.14805,0.2353,0.038642,-0.0019824,-0.027958,-0.056643,0.015719
-0.1425,0.020607,0.01834,0.032238,0.037326,0.053469,0.11454,-0.093219
0.23469,0.27318,0.074425,0.19289,0.093126,0.040139,0.049415,-0.16018
0.16469,-0.17234,-0.44802,-0.096978,-0.045712,-0.036253,-0.095027,0.014111
-0.1983,-0.12147,0.052671,-0.04126,-0.043583,-0.019039,0.05694,0.085107
0.13535,-0.11487,0.021999,-0.10191,-0.03372,-0.017239,-0.072241,-0.023029
-0.21978,0.079795,-0.063304,0.055901,0.045931,0.0084941,0.080235,-0.18836
-0.22682,0.022783,0.11696,0.024872,-0.015964,-0.027582,-0.063735,0.095288
0.12846,0.079182,0.2184,0.022909,0.022502,0.038705,0.13628,0.099884
0.29088,0.12233,-0.025902,-0.0052234,0.0049616,0.019879,-0.062194,0.25264
0.057689,-0.012787,-0.14902,0.018396,0.017437,0.017477,-0.073425,-0.044529
-0.10126,-0.17772,0.058019,-0.062328,-0.033524,0.00022111,0.032283,-0.048241
-0.38758,-0.082334,0.093676,-0.012544,-0.0067993,-0.0084186,-0.03382,-0.087586
0.34104,0.0019743,0.03556,0.027858,-0.0033027,-0.016108,0.010109,-0.11832
-0.15607,-0.039224,-0.23254,0.020704,-0.037951,-0.092892,-0.0070528,-0.12056
-0.034054,0.20331,-0.098637,0.060671,0.046153,-0.011875,-0.01428,0.37072
0.31702,0.013482,-0.11342,-0.046705,0.015091,0.07879,-0.10487,-0.19455
-0.12631,-0.099053,0.024682,-0.08982,-0.0059872,0.061998,0.33054,-0.045155
0.37779,0.069482,0.14822,0.0098572,-0.0016708,-0.01562,-0.13041,0.24759
-0.58518,0.06533,0.4166,0.088353,0.019654,-0.0062648,0.097246,-0.33955
0.21125,-0.019538,-0.16126,-0.0030169,-0.013179,-0.043738,-0.15958,0.1946
-0.25594,-0.14864,-0.031979,-0.014805,-0.015217,0.011383,-0.097377,-0.17943
0.0063447,-0.028024,-0.19127,-0.033724,0.004783,0.040705,0.017296,0.14953
0.069526,0.10519,0.10577,0.06436,0.046104,0.051077,0.16053,-0.067113
-0.081226,0.10823,-0.12317,0.052091,-0.032225,-0.10644,-0.12861,0.12433
0.39,-0.1764,0.10098,-0.14922,-0.050413,-0.033328,0.064372,-0.018752
0.044525,0.024567,-0.022625,-0.016359,-0.0079128,-0.010103,0.037065,0.041414
0.16128,0.0089108,0.11353,0.036769,0.018038,0.050409,-0.01441,0.27956
-0.31748,0.051853,0.04125,0.010654,0.012862,0.0091208,-0.073681,-0.5093
-0.40276,-0.0083047,-0.32243,0.12475,0.047861,0.016018,-0.0073802,0.079792
0.13722,-0.14559,-0.042936,-0.13582,-0.055932,-0.0292,0.083213,-0.023886
0.30098,0.1032,0.018504,0.018649,0.029907,0.02264,0.049659,-0.14778
-0.091193,0.052154,0.2194,0.010442,0.0083178,0.031004,-0.014531,0.29565
0.086999,0.10035,0.04111,0.034945,0.011484,-0.012483,-0.13319,-0.058634
-0.2558,-0.21363,-0.052722,-0.056552,-0.0083992,-0.015146,-0.025483,-0.02091
0.070868,0.10872,0.21923,0.040054,-0.0054884,-0.0017869,0.11292,0.2154
0.038777,-0.13024,-0.19251,-0.043224,-0.011932,0.026229,0.070879,-0.051571
-0.044859,0.11367,-0.073962,0.028689,-0.012668,-0.049379,-0.15941,-0.33687
0.31382,0.15815,0.053118,0.075357,-0.0077877,0.0051657,0.11758,0.23445
-0.0017152,0.0559,0.072979,0.026019,0.026566,0.018,-0.058666,-0.088083
