0.027027,-0.12864,-0.033983,-0.0019466,0.020622,0.016633,0.0053873,0.020236
-0.017903,0.11589,0.26208,0.019852,0.0035766,-0.016765,-0.0040665,0.0091812
0.078216,-0.12343,0.21354,-0.012005,-0.013076,0.0047429,0.010155,0.014435
-0.068011,-0.033919,-0.32657,-0.011753,0.0020213,0.011062,-0.0064501,-0.0028136
-0.058673,0.10311,0.36985,0.035881,0.0019992,-0.0054752,-0.014709,-0.026885
-0.026862,-0.20467,-0.60178,-0.025779,0.002396,0.0020673,0.0010285,0.0046137
0.043133,0.058265,-0.10678,-0.033069,-0.0047478,-0.005396,0.0094498,0.0055387
-0.066973,0.048235,0.27112,0.013738,-0.0039732,0.003295,0.01042,-0.0087157
0.09669,0.23423,0.26873,0.036431,0.012387,0.012383,0.01157,0.024157
0.0584,-0.17241,0.20115,-0.0039415,-0.010448,-0.017342,-0.018543,-0.03659
-0.17331,-0.15564,-0.49162,-0.083663,-0.017815,-0.01571,-0.0097702,-0.034755
0.11293,-0.03538,-0.02605,0.047646,0.013763,0.0093445,-0.0090911,0.029655
0.042098,0.11824,-0.087936,0.023184,0.0062511,0.0030355,0.0069085,0.039438
-0.04255,0.10191,0.14393,0.030758,0.0066301,0.027783,0.022659,0.017968
-0.032544,-0.061547,0.27869,-0.023218,-0.00062897,-0.010226,-0.016409,-0.019262
0.00060859,0.0018212,-0.16965,-0.013756,-0.0076536,-0.009477,-0.00077078,-0.025566
0.039997,0.15788,-0.126,-0.0035311,-0.0066212,-0.0090619,-0.00058709,0.014481
-0.0092927,-0.13375,0.12405,-0.0006454,0.0024261,-0.0089836,0.0077018,-0.00082694
-0.023107,-0.030326,-0.22158,-0.0054495,0.011589,0.014221,0.0085429,-0.009027
0.045058,0.038041,0.4801,0.020771,0.0051263,0.013729,-0.005866,-0.017827
-0.078047,-0.4127,-0.17427,-0.016026,-0.0092735,-0.002571,-0.0043281,0.058951
0.053627,0.43099,-0.11014,-0.0066681,-0.0082851,-0.0033395,-0.010393,-0.059616
-0.050917,0.0081051,0.069466,0.0096921,-0.0076156,-0.01973,-0.016412,-0.037251
0.039468,-0.078122,-0.19688,0.025267,0.016129,0.010852,0.016475,0.055988
-0.048719,0.064402,0.25854,-0.014502,-0.0073693,-0.0052663,0.025538,0.017062
0.045192,0.038235,-0.44125,-0.015658,0.015666,0.017902,-0.0050819,0.02552
-0.091971,-0.33594,-0.10169,-0.032639,-0.024094,-0.013383,-0.0052734,-0.043993
0.20423,0.30879,0.42495,0.036365,0.021846,0.010218,0.017026,0.011148
0.12896,0.18255,0.1289,0.0040519,-0.0027028,-0.0051216,-0.024125,0.0029224
-0.23239,-0.23924,-0.0019251,0.01116,-0.011735,-0.0048146,-0.019204,0.009073
-0.091559,-0.13752,0.07998,0.010826,0.010449,0.018845,0.0086572,-0.025185
-0.082223,0.010068,-0.3933,-0.028277,-0.014194,-0.027979,-0.002619,0.12701
0.021359,0.14803,0.27674,0.042158,0.031617,0.026542,0.009945,-0.19771
0.17937,-0.044366,0.20909,-0.059256,-0.031708,-0.020709,0.015541,-0.021735
0.086412,0.14378,-0.53213,0.0033191,-0.00095635,-0.0056108,-0.040201,0.077977
-0.055032,-0.22478,0.29774,0.0032836,-0.0088792,0.0016228,0.030342,-0.030354
0.21543,0.24885,-0.38305,0.010972,0.022659,0.024544,0.023946,0.067934
-0.36815,-0.18476,0.15828,0.01863,0.0076651,0.00075611,0.010611,0.013398
-0.11827,-0.20474,0.070592,-0.028377,-0.014927,-0.038426,-0.033561,-0.015114
0.066996,0.20499,0.34022,0.034034,0.017197,0.032008,-0.030964,-0.10507
0.11015,0.091526,-0.29555,-0.028547,-0.0055517,-0.0067377,0.025734,0.30405
0.17596,0.10332,0.025822,0.025977,0.0025735,0.0014867,-0.020069,-0.031922
-0.047549,-0.033249,-0.15377,-0.013451,-0.0054273,0.017488,0.073646,-0.052081
-0.17739,-0.06061,0.285,-0.014132,-0.021762,-0.036993,-0.068082,-0.46036
-0.057603,-0.3617,-0.25043,0.00042261,-0.0072743,0.001993,-0.007527,0.094954
0.25646,0.24326,0.3496,0.038033,0.022607,0.040634,0.029115,0.32581
-0.087685,0.05933,-0.14972,-0.041826,-0.0099889,-0.038255,-0.035849,-0.20371
0.018452,0.15735,-0.053951,0.034478,0.035821,0.015397,0.032375,0.1018
0.066497,-0.19651,-0.34059,-0.037482,-0.011626,0.0064105,0.015369,0.19682
-0.256,-0.17375,0.20839,-0.023051,-0.027206,-0.041603,-0.00073056,-0.042884
0.1846,0.19444,0.13961,0.038945,0.028161,0.043415,0.0075677,-0.16406
-0.047557,0.056211,0.14867,0.0080087,-0.017483,0.003816,0.016755,0.15327
-0.16898,0.13749,0.072376,-0.0065053,-0.0080589,-0.019664,-0.059266,-0.36485
0.096275,-0.15627,-0.40813,-0.0047804,0.0015161,-0.019176,-0.048825,0.11714
0.17238,0.19769,0.16219,0.044124,0.018803,0.036482,0.040035,0.39607
-0.14218,-0.48071,-0.25356,-0.0164,-0.0033112,-0.016876,0.0039392,-0.43389
-0.049938,-0.027266,0.43264,0.00084002,0.013118,0.031511,0.045739,0.0031119
0.32352,0.44143,-0.39497,-0.029316,-0.010125,-0.013863,0.063589,0.45822
-0.14067,-0.034648,-0.048547,-0.0052627,0.0051092,-0.012542,-0.044331,-0.62203
0.015977,-0.27488,0.33002,-0.036134,-0.026974,-0.011512,-0.0047519,0.88842
-0.24834,0.072872,0.34708,-0.020009,-0.028016,-0.018625,-0.12238,-1.0644
-0.061207,-0.014831,-0.42386,0.043454,0.010061,0.0052049,0.0091888,0.26158
0.21604,0.14877,-0.051024,0.037247,0.024985,0.028785,0.062142,0.12355
0.23852,0.30446,0.0064835,0.023768,0.040308,0.020915,0.02904,0.44962
-0.1268,-0.36984,-0.26439,0.0026063,-0.0065057,-0.018395,0.043029,0.21415
-0.27774,0.17101,0.6016,0.043423,0.0093596,-0.0032397,-0.075383,-0.85094
-0.080334,-0.52732,0.13472,-0.096698,-0.052999,0.003812,0.017561,0.1896
-0.087935,0.19888,-0.50669,-0.0043038,0.017066,-0.0051168,0.02481,-0.15013
0.42712,0.3268,0.19035,-0.015631,-0.015034,-0.0066123,-0.014869,0.59037
0.40288,-0.095083,-0.17266,0.017878,0.014695,0.0071857,0.01539,-0.26008
-0.48892,-0.29893,-0.75062,-0.012605,-0.010838,-0.018281,-0.025286,-0.33262
-0.030229,0.46776,0.48888,0.010982,-0.0054517,0.0031203,-0.058869,0.046829
-0.073534,0.043255,0.2871,0.0037312,-5.8179e-05,-0.006509,0.047543,0.16953
0.083559,-0.53943,-0.024628,-0.017759,0.021321,0.031163,-0.0026595,-0.10354
-0.035716,-0.076285,0.5523,0.072243,0.012106,-0.0087186,0.033095,0.61107
-0.071481,0.04958,0.24649,0.00066828,-0.0040784,0.014522,0.022426,-0.69496
0.18056,0.89912,-0.55247,0.0018607,0.0040691,-0.0085355,-0.057705,0.57856
-0.19983,-0.71783,0.036371,-0.057369,-0.018208,-0.015509,0.035195,0.12518
0.17972,0.17972,-0.12008,0.0098756,-0.0085648,0.0090717,-0.03464,-0.65819
0.086381,0.37741,-0.86994,-0.047095,-0.014079,-0.020881,-0.040638,-0.19426
-0.21323,-0.80709,0.69343,0.060138,0.027543,0.019527,0.079544,-0.10016
-0.023485,0.22667,-0.36243,0.0029503,0.0067419,0.0052441,-0.0025298,0.30445
0.037957,0.52644,0.36915,-0.023663,-0.0063193,-0.0012185,-0.01385,0.23126
0.33717,-0.72516,0.08492,-0.012017,-0.019561,-0.031062,-0.0017748,0.60239
-0.15085,0.054552,-0.48856,0.04573,0.029446,0.032962,0.041051,-0.7938
-0.23249,0.1678,0.79363,-0.022165,-0.0234,-0.020049,-0.06541,0.11921
-0.088952,0.25249,0.43896,0.018855,0.0093836,0.0051984,-0.0010223,-0.12161
0.26301,0.1092,-0.53418,-0.026355,0.0027912,0.022675,0.015485,0.53653
-0.10688,-0.54188,-0.47812,-0.056124,-0.0041155,-0.0068423,-0.046939,-0.39165
-0.065835,0.32919,0.55786,0.10144,0.0042843,0.010196,0.054209,-0.13978
0.31621,0.273,-0.53739,-0.04594,-0.011083,-0.035786,-0.001033,0.029269
-0.23348,-0.34185,0.34641,0.056235,0.020076,0.026939,0.022015,-0.11423
0.012524,-0.57784,-0.30144,-0.068844,-0.0038269,0.0030043,0.045439,0.4044
0.078566,1.143,0.067556,0.023884,-0.028136,-0.021593,-0.055663,-0.39293
-0.16733,-0.3973,0.18557,-0.048577,-0.013818,-0.046686,-0.054728,0.56947
0.12704,0.085901,-0.40014,0.080901,0.062541,0.060772,0.016924,-1.1972
-0.15515,-0.03361,-0.29781,-0.0016311,-0.01,-0.011469,-0.020518,0.7604
0.048566,-0.69065,0.78146,-0.061493,-0.020469,0.018048,0.043708,0.49404
-0.0044405,0.050841,-0.29817,0.0033607,0.015605,0.024449,0.068741,-0.25258
0.49756,0.73131,0.95655,0.0060492,-0.026599,-0.046915,-0.11758,0.51986
-0.32133,-0.58409,-0.027114,0.033186,0.017247,0.030487,0.062544,-0.61194
-0.047797,0.27081,-0.63672,0.022905,-0.0087714,-0.016844,-0.016169,-0.28903
0.12253,0.2957,-0.32291,-0.016495,0.0050843,-0.0014553,0.15391,0.0063888
-0.93507,-0.34162,-0.28507,-0.030094,-0.018994,-0.024929,-0.16941,-0.43872
0.68644,-0.17318,0.38131,-0.10394,-0.033945,-0.032567,-0.017127,0.8304
0.08965,0.20986,-0.64313,0.034882,0.053966,0.045946,-0.11536,-0.5019
0.48644,0.70505,0.45699,0.088584,0.002282,-0.00037115,0.091185,0.66471
-0.41177,-0.44035,0.80231,0.11841,0.044871,0.070551,0.056214,-0.014331
-0.026935,0.13049,-0.49531,-0.041095,-0.022066,-0.046167,0.15517,-0.45472
-0.14873,-0.58278,0.27538,0.022841,0.042953,0.063323,0.0054328,0.066618
-0.051595,-0.037665,-0.30213,-0.12032,-0.065337,-0.069903,-0.18995,-0.050013
-0.18986,-0.69501,-0.56866,-0.18169,-0.089431,-0.094336,-0.071892,-0.36787
0.38834,1.0433,1.0397,0.089362,0.0097831,0.02136,0.023234,0.97709
0.26769,0.32516,-0.022572,0.13954,0.076449,0.027402,0.048069,-0.4732
-0.40436,-0.48895,-0.67428,-0.052697,0.0096612,0.072496,0.056805,-0.20882
0.27006,0.42974,0.64544,0.16316,0.060197,0.02407,0.072414,0.9681
-0.21663,-0.64642,-0.66246,-0.21885,-0.083694,-0.039603,-0.085169,-1.0475
0.17588,0.24756,-0.20836,0.013576,-0.0073583,-0.016925,0.0526,0.1188
-0.26091,0.097029,0.32273,0.048503,0.0083057,-0.0095068,-0.11578,0.14933
0.10147,0.2204,-0.52586,-0.036224,0.002431,-0.0017929,0.058517,0.018838
0.0013873,-0.027089,0.62472,0.1489,0.052937,0.053055,0.029389,-0.41286
-0.54177,-0.33839,0.48643,-0.046334,-0.051552,-0.094928,-0.13182,0.0038034
0.32618,-0.43798,-0.68646,-0.030316,0.00086496,0.015299,0.029161,0.14372
0.4027,0.58314,0.55793,-0.055174,0.014208,0.032306,0.12273,0.23806
0.16247,0.18227,0.3069,0.057019,-0.012162,-0.0047446,-0.07701,0.060457
0.085541,0.21695,-0.63749,-0.093273,-0.024085,0.0057092,0.023766,0.73921
-0.42787,-0.67993,0.13429,0.040538,0.056218,0.040093,-0.013018,-0.3826
0.21725,-0.40498,-0.6399,-0.0176,-0.005762,0.020009,0.16299,-0.31569
-0.33634,0.91991,0.23313,0.085018,-0.0068119,-0.03928,-0.15298,-0.023822
-0.34223,-0.45158,0.18436,-0.11886,-0.056026,-0.060033,-0.064329,-0.6872
0.51124,0.27313,0.14083,0.05979,0.0032593,-0.011328,0.10695,0.54133
-0.0082666,0.3389,0.16598,0.012862,0.023073,0.020669,-0.077882,-0.6584
-0.17767,-0.72945,-0.5802,-0.0010466,0.011655,0.020228,-0.0021802,0.75699
0.047735,0.14613,0.32961,0.14329,0.070883,0.081105,0.10773,0.49789
-0.12313,0.03457,0.24516,-0.13251,-0.072516,-0.046591,-0.09089,-0.6224
0.54115,0.035117,0.062695,0.061588,0.042415,0.020159,0.028629,0.63882
-0.10475,0.64508,-0.73673,-0.15009,-0.068772,-0.093341,-0.062885,-1.04
-0.08325,-0.1692,0.39673,0.060033,0.031316,0.035185,0.066447,0.36095
-0.20001,-0.62796,0.35513,-0.011424,-0.0089589,-0.0078557,-0.011088,-0.29822
-0.074753,-0.40323,-0.27556,-0.090994,-0.041171,-0.01885,-0.083112,0.93336
-0.15628,0.49842,0.26937,0.15752,0.075366,0.072943,0.16353,0.011532
0.46572,0.048008,-0.67547,-0.062416,-0.026419,-0.01343,-0.037037,-0.68796
0.076916,0.57621,0.52143,0.19484,0.044239,0.026837,-0.021929,-0.21984
-0.34872,-0.82116,-0.14865,-0.13303,-0.06409,-0.06415,-0.097768,0.53351
0.24212,0.28641,-0.0064899,0.0087349,0.062757,0.041482,0.092392,0.05077
-0.38498,-0.023682,-0.68502,-0.19242,-0.11424,-0.070708,0.0069204,-0.093048
0.24779,0.34783,0.81571,0.099328,0.076758,0.059766,0.057564,-0.28861
-0.14635,0.022559,0.097003,0.016637,-0.028443,-0.044134,-0.030806,0.006149
0.30263,-0.21412,0.51771,0.098362,0.038659,0.046825,-0.079278,-0.12509
-0.019657,-0.11535,-0.63376,0.00049295,0.035531,0.027554,0.037444,0.77797
-0.43132,-0.42514,-0.40468,-0.11321,-0.07731,-0.071004,-0.13243,-0.65988
0.13131,0.20023,-0.14639,0.10852,0.074711,0.079093,0.085142,0.62279
0.30868,0.29373,0.27504,-0.02985,-0.032202,-0.029997,0.052108,-0.90045
-0.025737,0.171,0.65848,-0.028396,-0.046717,-0.054394,-0.049305,-0.15729
-0.05418,-0.031255,-0.72004,-0.090145,-0.01577,-0.0094586,0.040734,0.77293
0.18901,-0.12164,0.22821,-0.003911,0.0060538,0.0035846,0.010875,0.27655
-0.47875,-0.62814,0.1074,0.12125,0.050226,0.039753,-0.0059614,-0.17644
0.2921,0.6779,-0.1038,0.012158,0.031089,0.028974,0.11435,0.34395
0.11812,-0.37486,0.17421,-0.041981,-0.0041944,0.02604,-0.012582,-0.26271
-0.64032,0.97034,0.035921,0.029082,-0.039735,-0.055019,-0.091792,-1.1177
0.33948,-0.67958,-0.22176,-0.024876,0.0028371,0.035693,-0.10942,0.47382
0.021707,0.023586,-0.25581,0.10054,0.014391,-0.022226,0.042658,0.15625
0.073863,-0.60348,0.1821,-0.15744,-0.051683,-0.072504,-0.065792,0.31169
0.23319,0.4204,-0.55924,-0.0098421,0.031458,0.041295,0.073239,-0.39448
0.032728,0.49927,0.58637,0.059063,0.021904,0.053897,0.15583,0.68748
-0.26923,-0.10991,0.97289,0.0027068,-0.025445,-0.049867,-0.10602,-0.90408
0.021882,-0.36744,-0.72629,-0.037866,-0.016746,-0.019551,0.0075436,0.55301
-0.0096585,0.22095,0.11532,0.078377,0.055729,0.051403,-0.049513,-0.62227
-0.27231,-0.6619,-0.42938,-0.13267,-0.089565,-0.11039,-0.018925,0.86856
0.30182,0.15178,-0.33207,0.12589,0.085941,0.14322,0.1071,-0.086353
0.23381,0.80614,0.71979,0.12725,0.058177,0.030382,-0.03909,0.66444
-0.72848,-0.3367,-0.66114,-0.19933,-0.079778,-0.059132,0.033919,-0.92282
0.56156,-0.0018374,0.3045,0.012748,-0.0081862,-0.009064,-0.096644,-0.42828
0.31352,0.24053,0.14772,-0.002643,-0.0086488,-0.0077135,0.12311,0.74475
-0.403,-0.31371,-0.27207,-0.0036607,-0.010891,-0.016496,-0.065107,-0.76962
-0.048795,-0.025544,0.65351,0.10337,0.016637,-0.0041887,-0.02853,0.53608
-0.10712,-0.0060581,-0.15675,-0.064116,-0.011412,-0.017212,-0.063586,-0.82592
0.18982,-0.48328,-0.51327,-0.091563,-0.0083383,-0.023463,0.049307,0.26046
-0.0064474,0.65106,0.13019,0.12329,0.042269,0.064069,0.029931,0.64499
-0.122,-0.22891,-0.041902,0.0030835,0.016066,0.027711,-0.0035585,-0.068355
0.21399,0.34466,0.46576,-0.060905,-0.039668,-0.053566,-0.02707,0.23441
-0.39386,-0.37157,-0.19603,-0.052628,0.023586,0.039445,0.068922,0.49682
0.30633,0.36306,-0.055952,-0.0032926,-0.028796,-0.013593,0.010563,-0.61672
-0.02117,-0.60161,0.16315,0.14921,0.021411,0.013397,0.0078791,-0.71911
-0.081125,0.75619,-0.74411,-0.056876,-0.029622,-0.052292,-0.041889,1.0051
0.26368,-0.42405,0.33928,0.049218,0.051725,0.10864,0.016309,-0.74464
-0.10862,0.083943,0.59484,0.013183,-0.00084138,-0.082896,-0.091872,-0.43746
-0.062621,-0.2892,-0.41949,-0.064397,-0.031525,0.0051717,0.08632,0.64159
0.24066,0.26336,-0.6061,-0.059029,0.0064036,-0.018128,-0.034777,0.47766
-0.4678,-0.0833,0.78074,-0.0018187,-0.027482,-0.012068,-0.032383,-0.53388
0.13096,0.041714,-0.02217,-0.0013191,0.00014476,0.023876,0.0089249,0.03624
0.25672,0.14977,0.11095,-0.0014818,-0.011543,-0.026664,0.036002,0.25906
-0.50922,-0.15494,-0.17249,0.038375,0.039825,0.048186,-0.0044385,-0.88861
0.20505,-0.38707,-0.12509,0.026021,0.0065264,-0.031972,-0.080197,0.87286
-0.16559,0.053774,-0.22696,-0.053094,-0.0093979,0.038135,0.19182,0.125
0.39129,0.60164,0.38525,0.10609,0.007824,-0.014718,-0.11857,-0.34296
0.019353,0.024577,-0.1277,-0.020289,0.026735,0.059275,0.12027,0.34907
-0.022669,-0.051054,0.067956,-0.097475,-0.06255,-0.09199,-0.148,-0.38964
0.34215,0.43112,0.21383,0.099408,0.05177,0.022905,0.043535,0.36506
-0.34997,-0.29885,-0.39198,-0.0096384,-0.006054,0.028127,0.013518,-0.16521
-0.19635,-0.85935,0.20655,0.026827,-0.01011,-0.022383,-0.0048874,0.016334
-0.10665,-0.14636,-0.34587,-0.11267,-0.046773,-0.043215,-0.11381,-1.1146
-0.028624,0.04893,-0.21663,0.001153,0.016601,0.043507,0.069706,0.73266
0.2241,0.38255,0.26224,-0.04537,0.00042819,-0.012169,0.077667,0.27217
0.30795,-0.11457,0.72596,0.045746,0.0065775,0.0087994,-0.065283,0.50794
-0.66661,0.82868,-0.3252,0.088558,0.035466,0.013116,0.0094503,-0.20483
0.13005,0.25356,-0.065091,-0.063689,-0.021862,-0.037766,-0.063954,-0.44956
0.57428,-0.083437,-0.020921,0.012364,0.014626,0.028514,0.09845,-0.27992
-0.20802,-0.41284,-0.03324,0.075567,0.020152,0.040469,0.11463,0.3739
0.010029,-0.84907,-0.52043,-0.10017,-0.067684,-0.056334,-0.093136,0.53358
0.0487,0.24409,0.88173,0.1882,0.071445,0.050731,-0.063829,-0.75648
-0.20145,-0.034287,-0.4213,-0.2395,-0.062487,-0.068003,-0.07885,0.37608
-0.12298,0.41731,-0.21694,0.069119,0.014872,0.024922,0.049004,0.11656
-0.10574,-0.016235,0.1628,-0.0038833,0.0066584,0.0013071,0.014655,-0.80202
0.10927,0.059055,-0.29225,-0.013829,-0.01677,-0.021737,0.044186,0.83887
0.0076695,-0.25954,0.36926,0.070106,0.038395,0.057277,0.019838,-0.24908
0.18409,0.31198,-0.2222,-0.072607,-0.023119,-0.027345,0.026894,-0.24407
0.076115,0.11082,0.39037,0.0032914,-0.021637,-0.017859,-0.04471,0.035234
0.15168,-0.043027,0.51338,0.063441,0.05838,0.038791,-0.023723,0.12914
-0.090802,-0.21384,-0.82251,-0.095285,-0.048857,-0.037147,0.0034631,0.38178
-0.22354,-0.11522,0.20821,0.1364,0.039247,0.012079,-0.010217,-0.36381
-0.09192,0.17175,-0.42979,-0.046386,-0.021294,-0.0010835,0.036912,0.30466
0.092168,-0.44938,-0.17893,-0.034543,0.011509,0.0014409,-0.042256,-0.63868
-0.20254,0.55834,0.88517,0.023199,-0.026521,-0.027274,-0.083071,0.80364
0.016951,-0.11111,-0.51627,-0.084325,-0.010379,0.022087,0.0948,-0.80794
0.43155,0.1901,0.58034,0.18185,0.067877,0.079145,0.12473,0.57245
-0.26227,-0.42862,-0.73599,-0.2329,-0.096212,-0.10617,-0.14917,-0.50019
0.15485,0.24421,0.16355,0.0701,0.044507,0.036385,0.10135,0.74145
-0.16103,-0.18116,0.088605,0.1068,0.021541,-0.0010353,-0.053548,-0.653
0.37503,0.4604,0.50662,0.0025862,-0.008688,-0.03876,-0.1298,-0.14117
-0.43385,-0.56443,-0.11298,-0.070313,-0.014901,0.03259,0.12999,0.43646
0.12154,0.31558,-0.54067,-0.0022469,0.034019,0.041147,0.076971,-0.1286
-0.18684,-0.23493,-0.052495,-0.074309,-0.057528,-0.0756,-0.13297,0.25849
0.22612,-0.10639,-0.14919,0.057279,0.03038,0.033867,0.031176,-0.35598
0.16509,0.60727,0.38055,0.1893,0.070761,0.064782,0.069287,0.54139
-0.36915,-0.30535,-0.064513,-0.155,-0.061747,-0.076704,-0.16708,-0.95906
0.038831,0.21003,0.16321,-0.022723,-0.015802,-6.2266e-05,0.079946,0.75592
0.031302,-0.010677,0.076372,-0.062499,-0.033609,-0.0022258,0.029203,0.19838
0.062873,-0.34957,0.10687,0.053668,0.025658,0.033995,0.063572,-0.048034
-0.10765,-0.40663,-0.33157,0.036689,-0.0016765,-0.031943,-0.043452,-0.71025
0.31693,0.34387,0.22737,0.01164,0.0177,0.011065,-0.0027157,-0.17698
0.18004,0.27947,0.18631,0.056816,0.060876,0.061712,0.068795,0.93861
-0.42521,-0.19926,-0.93539,-0.1166,-0.066999,-0.051552,-0.10978,-0.88934
0.12566,0.21346,0.48344,0.069827,0.0094134,-0.031473,-0.061258,0.54017
0.03587,0.29079,0.32226,-0.055435,-0.014399,-0.0026647,0.043265,0.39598
-0.3499,-0.46112,-0.61717,-0.023316,0.017816,0.019585,-0.021954,-0.85826
0.079453,0.11127,0.3576,0.0023328,-0.026919,-0.003572,0.056234,0.45707
-0.095835,-0.081089,0.37612,0.02933,0.015145,0.013822,0.035916,-0.051726
0.18852,-0.29893,-0.79204,0.018328,0.010762,0.024676,0.034029,0.18001
0.097317,0.36184,0.45806,0.015602,-0.0015056,-0.01834,-0.051786,0.035566
0.30938,0.22047,0.59846,0.07498,0.024704,-0.0064925,-0.035275,-0.063038
-0.24035,-0.3167,-0.20274,-0.062323,-0.0048057,0.036056,0.13678,-0.0754
0.076999,-0.053285,-0.19748,-0.014373,-0.027841,-0.047625,-0.14638,0.018013
-0.24302,0.004643,-0.48645,-0.055167,-0.013259,0.0075844,0.020452,-0.47849
0.11595,-0.02376,-0.096811,-0.012901,-0.0078157,-0.009472,0.011833,0.11816
0.049913,0.20698,0.080174,0.050416,0.027884,0.010702,-0.015735,0.67404
-0.027301,0.018295,0.20209,-0.036097,-0.0072342,0.0060627,-0.022285,-0.73177
-0.23846,-0.03485,-0.14345,-0.0054749,-0.01105,-0.030474,-0.022065,0.17562
-0.25113,0.18764,0.29366,0.096846,0.032601,0.011347,0.017742,-0.22863
0.36992,-0.20601,0.28377,-0.0091014,0.0069634,0.038663,0.098577,0.46691
0.083364,-0.2407,-0.18042,-0.064611,0.0060629,-0.0024704,-0.0050937,0.53707
0.026275,-0.25391,-0.25895,-0.061526,-0.063762,-0.064708,-0.066281,-0.55189
0.020922,0.69051,0.54867,0.10925,0.031771,0.04737,0.047598,0.53795
0.0039358,-0.22888,-0.46217,-0.021905,-0.020093,-0.018082,-0.0080109,-0.87308
-0.1142,-0.067607,0.035013,-0.0031973,0.0068281,0.011731,-0.054612,-0.24634
0.21568,0.4473,0.29031,0.062235,0.041768,0.057785,0.03928,0.25476
0.034179,-0.40292,-0.53686,0.04004,0.037381,0.017517,0.045904,0.56272
-0.031435,-0.17232,-0.43957,-0.13351,-0.077065,-0.09437,-0.074648,0.058093
-0.2034,0.39042,0.56928,-0.060641,-0.020616,-0.020734,-0.010229,-0.90705
-0.021299,-0.47054,-0.090823,0.071122,0.065976,0.058445,0.051843,1.0217
-0.29492,0.059649,0.49315,-0.073539,-0.067228,-0.067658,-0.059674,-0.69021
-0.10481,0.25676,0.11701,0.092387,0.025312,0.023296,0.015507,-0.26427
0.21991,-0.16644,-0.37774,-0.015765,-0.015451,0.011673,-0.049797,0.39795
0.34996,0.43168,-0.19837,0.087567,0.045205,0.015377,0.065455,0.25288
0.20425,-0.30053,0.20361,-0.073296,-0.018992,0.019372,0.033451,0.20811
-0.28567,-0.020303,0.10133,0.064595,0.034313,0.031822,0.033692,-0.27628
0.027096,0.09888,-0.4055,-0.076873,-0.044851,-0.040942,-0.012579,0.086123
0.036393,-0.1556,0.30521,-0.0058551,0.0090507,0.019691,0.018759,-0.45843
-0.061237,0.30875,-0.1685,0.034912,0.016167,-0.028717,-0.037209,-0.14822
0.2662,-0.3367,-0.13493,-0.056739,-0.015859,-0.014523,-0.032566,0.787
-0.43259,-0.23218,0.49633,0.023354,-0.0011993,-0.00033446,-0.061044,-0.55297
0.049743,0.029637,0.43364,0.040452,-0.010177,-0.017328,-0.043884,0.51166
-0.060657,0.4814,-0.64473,0.017824,0.019817,0.020677,0.09037,-0.009267
-0.18291,-0.20386,-0.48868,-0.11483,-0.028195,0.0046481,-0.0006305,-0.737
0.19607,0.22433,0.098764,0.080142,0.033552,0.044297,0.075055,0.1146
0.020334,-0.10163,0.11287,-0.029865,-0.029057,-0.055466,-0.056674,-0.082177
0.14787,-0.042456,0.44825,-0.0071431,-0.012714,-0.013368,-0.0049535,0.33326
0.26327,0.024943,0.31227,0.12502,0.067014,0.06881,0.010939,0.43383
-0.35757,-0.2766,-0.49428,-0.078627,-0.024347,-0.020318,0.028841,-0.17081
0.081894,-0.058477,0.12544,-0.032131,-0.013607,-0.023545,-0.031085,0.25166
-0.069727,0.021404,-0.38129,-0.0011338,-0.010496,0.011599,0.032423,-0.74791
0.43277,0.56348,-0.23257,0.006559,0.031459,0.03766,0.069288,0.38049
-0.54129,-0.15939,0.74254,0.0066276,-0.020921,-0.07074,-0.17936,-0.53164
0.018311,-0.17841,-0.11477,0.038232,0.011774,0.053493,0.1378,0.82493
-0.080206,-0.055441,-0.71507,-0.12508,-0.050282,-0.073802,-0.17385,-0.74664
0.16849,0.10148,0.5999,0.09486,0.019481,0.0087974,-0.019092,0.26962
0.36548,-0.29946,0.47178,0.065211,0.04932,0.051936,0.17436,0.63349
-0.62062,0.34564,-0.26258,-0.089217,-0.054306,-0.037469,-0.068002,-0.94894
0.23652,-0.1404,-0.085626,-0.0015667,0.029143,0.061432,0.05235,0.50214
0.04223,-0.22411,-0.13392,0.04647,0.0029959,-0.033874,-0.041784,-0.60439
