0.10688,0.061456,-0.012519,-0.01679,-0.017403,-0.059435,-0.21851,-0.024207
-0.1067,0.030287,-0.00034322,-0.016584,-0.0064752,-0.020115,-0.28338,-0.13793
0.15174,-0.029823,-0.038385,-0.0021635,0.002946,-0.074754,-0.01916,-0.20677
0.079908,0.014252,-0.040056,-0.03606,-0.028607,0.0020073,-0.095519,0.32523
0.45307,-0.422,-0.0040537,0.03824,0.01596,0.068435,0.84109,0.48244
-0.42312,0.077786,-0.014542,-0.020922,-0.027161,-0.055995,-0.73942,-0.61769
0.31862,0.21942,0.01634,0.029342,0.014479,0.026743,-0.0011703,0.48507
-0.85367,0.13032,0.012157,-0.052413,-0.0067714,0.31676,0.40595,-0.60171
0.0039433,-0.16457,0.083373,0.023506,-0.027558,-0.42742,0.0027356,-0.27938
0.80353,0.42871,0.089593,0.046556,0.093503,0.14702,0.26247,0.91688
-0.37155,-0.24724,-0.18084,-0.014441,-0.033692,-0.19261,-0.47428,-0.31444
0.18652,-0.47594,-0.010752,-0.011308,-0.033938,0.00080871,-0.10043,0.17016
-0.088308,0.6227,0.050825,0.039795,0.061381,0.22108,-0.31998,0.014533
0.22229,-0.35233,0.064012,-0.018075,-0.005961,0.04735,0.26624,-0.12074
-0.45509,0.081675,0.0031888,-0.037192,-0.064685,-0.13742,0.29307,-0.41708
0.29941,0.21348,0.10112,0.0052901,0.017375,0.025362,-0.080444,-0.084964
0.00094957,-0.29933,-0.36171,-0.10195,-0.033802,0.17472,-0.33588,0.30807
-0.30222,-0.047645,-0.049196,0.094072,0.062609,-0.10542,0.95871,0.11838
0.22121,0.19124,0.36002,0.093433,0.017324,0.04234,-0.51564,0.29764
-0.40073,-0.37523,-0.26525,-0.056745,-0.044658,-0.16467,-0.32881,-0.17816
0.5639,0.45986,0.20974,-0.020177,0.0096725,-0.023814,0.19855,0.073553
-0.16084,-0.14492,0.2087,0.0082279,-0.014647,-0.018895,-0.34842,-0.15089
-0.039205,-0.040954,-0.36832,-0.064863,4.4456e-06,0.093766,0.40417,-0.50927
0.29896,-0.019609,0.058035,0.034385,0.0071959,-0.06663,-0.099592,-0.090787
-0.29369,0.20355,0.13711,0.064132,0.015112,0.033171,-0.14227,0.3487
-0.068082,0.11442,-0.0445,-0.037858,0.00055172,-0.019445,0.68105,0.69837
-0.41766,0.10456,-0.15824,-0.013617,0.010455,0.22133,-0.34178,-0.50797
0.46571,-0.3322,0.1711,0.074385,0.044701,0.27048,0.0069844,-0.1074
0.39702,-0.22359,-0.33002,-0.14115,-0.13137,-0.63923,-0.71857,0.12275
0.097272,0.053798,0.11902,0.058275,0.044311,0.083646,-0.12802,0.14615
-0.50094,-0.22522,0.29038,-0.023071,-0.022522,-0.032136,0.59906,0.083569
-0.19782,0.35732,0.041455,0.036124,0.050365,0.29246,0.7286,0.082376
0.40405,0.049125,-0.091298,0.071109,0.090519,0.063701,0.19857,-0.25969
-0.63125,0.082679,-0.071697,-0.075104,-0.097876,-0.039307,-0.99804,-0.19796
0.73929,-0.091558,-0.050885,0.049936,0.0082785,-0.43014,-0.14111,-0.37973
-0.05689,0.022105,-0.054327,-0.022988,-0.0051567,0.11928,0.060574,0.7639
-0.96692,-0.1999,0.06548,-0.020557,-0.020732,0.048731,0.14887,-0.94527
0.30332,0.33563,-0.06608,-0.028383,-0.014386,0.1109,-0.029613,-0.17803
0.83489,0.079756,0.18551,-0.014436,0.053891,0.26156,-0.39474,0.71129
-0.16911,-0.18896,-0.16133,0.03025,-0.0022339,-0.22359,0.53808,0.61936
0.10863,0.10513,0.18597,0.052338,0.005964,-0.038249,0.055646,0.24698
-0.36062,-0.43002,-0.1517,-0.071861,-0.053229,-0.0096112,0.48903,-0.33048
0.44048,-0.16159,-0.17101,-0.04445,-0.046222,0.15945,-0.15293,0.0030688
-0.38392,0.47434,0.16946,0.096034,0.050716,-0.508,-0.69009,-0.16246
0.12449,-0.098008,-0.098003,0.0057395,0.057603,0.37774,0.36361,-0.18892
-0.25213,-0.18081,0.080662,0.012066,0.0047939,-0.052009,-0.17468,-0.52684
-0.53263,0.37625,0.23453,0.012229,0.00027762,-0.088337,0.43053,0.25585
0.26682,0.1832,0.032123,0.0047549,0.065836,0.48503,-0.73688,0.16995
-0.16602,-0.22174,0.27432,-0.019583,-0.12047,-0.53777,0.19239,-0.64913
0.75357,-0.13758,-0.62823,-0.014972,0.057239,0.54375,-0.30046,0.47014
0.036418,-0.19228,-0.28716,-0.1616,-0.15956,-0.59288,0.27393,0.083578
-0.28808,0.24381,0.13289,0.040646,0.057218,0.17606,0.18394,0.58091
0.5155,0.12105,0.26584,0.10804,0.051943,-0.079308,0.15448,-0.1765
0.1399,-0.01556,0.12968,0.057179,0.036645,0.18884,0.24842,0.056895
-0.3719,-0.50273,-0.014878,-0.056258,-0.018609,-0.087908,-0.15708,-0.2378
-0.53014,0.073874,-0.25886,-0.059578,-0.042231,-0.1336,0.45856,-0.12383
0.36993,0.48882,0.16525,0.11019,0.091795,0.32791,-0.65264,0.37938
-0.50815,-0.2172,0.078488,-0.0078101,-0.022144,-0.29466,-0.27824,-0.24012
-0.04171,0.24666,0.22265,0.047153,0.030241,0.28189,-0.11794,0.00795
0.076471,0.06965,-0.20034,-0.10811,-0.10273,-0.18335,0.26514,-0.24917
0.20311,-0.47315,-0.067022,-0.13022,-0.030796,0.10705,-0.4453,-0.45734
0.26501,0.11979,-0.29278,0.089962,0.058071,-0.12034,1.025,0.20798
0.021997,0.0061527,0.12941,0.11486,0.054,0.02465,-0.40508,0.22331
0.33837,-0.25031,0.14472,-0.016372,-0.035646,-0.013326,0.27963,0.45738
-0.36472,0.30436,-0.27784,-0.092656,-0.00029495,0.046176,-0.32617,0.19263
0.24277,0.20161,0.32296,0.034552,-0.019918,-0.10242,-0.67477,-0.064024
-0.051767,-0.192,-0.037335,-0.017594,-0.016602,0.094569,0.81932,-0.68376
-0.43888,0.28609,0.19529,0.055363,-0.013953,-0.23902,-0.51855,-0.064595
-0.22542,-0.59293,-0.19136,-0.012638,0.089438,0.497,0.46219,0.42352
0.48766,0.31673,0.12146,-0.042494,-0.065954,-0.30045,0.40909,-0.091789
-0.32639,-0.065744,-0.055088,0.090172,0.097866,0.12487,-0.1187,0.21091
0.34102,0.085448,-0.21379,-0.052639,-0.075424,-0.15024,-0.75883,-0.21451
-0.28712,-0.028208,-0.065054,0.013237,0.0079779,0.22492,0.87435,0.27411
-0.17302,0.15508,0.32254,0.045822,-0.018892,-0.24977,-0.78554,-0.2653
0.59679,-0.075287,-0.32176,-0.071393,0.016247,0.020181,-0.15439,-0.21765
-0.11185,-0.35081,0.012942,-0.14201,-0.089187,-0.073094,0.33071,0.2145
-0.067911,0.17432,0.20438,0.069646,0.032565,0.050609,0.054938,-0.31743
-0.21491,-0.044369,-0.18327,-0.013321,0.022588,0.034175,-0.048637,0.15222
0.15709,-0.08277,0.17042,0.063063,0.021723,0.24682,0.054571,0.38667
0.08381,0.55292,0.28733,0.2209,0.14705,-0.15372,0.10902,-0.26523
0.287,-0.15223,-0.046373,-0.11059,-0.10182,0.0051177,0.21685,0.61453
-0.21509,-0.1516,-0.16229,-0.026209,0.0010765,-0.042346,0.0096003,-0.54215
-0.55189,0.0069767,-0.23541,-0.11324,-0.13077,-0.13278,-0.21076,-0.11774
0.28938,-0.18557,0.17776,0.11141,0.088177,0.12327,-0.4399,-0.29337
-0.14519,0.058699,-0.17269,-0.087461,-0.029662,-0.056844,0.18596,-0.072002
0.2003,0.067301,0.0044081,-0.030395,0.015983,0.13801,0.17989,0.83136
0.21139,0.04342,-0.23255,-0.05288,0.038178,0.081683,0.10313,-0.017637
-0.17865,-0.1294,0.17556,-0.021158,-0.071732,-0.18755,0.080993,-0.24073
-0.21613,0.21415,0.74846,0.30811,0.069763,-0.076219,-0.36134,-0.036842
0.53964,0.036503,-0.23767,-0.056224,0.0022302,0.056474,0.013426,-0.11095
-0.31523,-0.22337,-0.9229,-0.1917,-0.047599,-0.015449,0.16985,0.092203
0.26751,-0.22059,0.40184,-0.012365,-0.0018348,0.060355,-0.099312,-0.080409
-0.25849,0.36565,0.29487,0.12177,0.092016,-0.0044093,0.19352,-0.34204
-0.25283,-0.20713,0.16438,-0.071722,-0.13418,0.033002,-0.090144,0.14231
-0.17726,0.34114,0.12107,0.21038,0.16224,0.14158,0.073885,0.27794
0.49029,0.086703,0.002785,-0.041215,-0.035407,-0.1475,-0.29954,-0.086
0.06036,-0.34777,-0.71009,-0.24176,-0.11856,-0.10796,0.24833,-0.025098
0.19443,0.07448,-0.089012,0.014387,0.029567,0.033277,-0.066981,0.10017
-0.54025,-0.14839,0.3525,0.039837,0.034046,0.064976,0.23508,0.29275
0.25928,0.13877,0.11942,0.061933,-0.034267,-0.013011,-0.091451,-0.088085
0.027388,-0.26741,-0.32833,-0.019605,0.01302,0.033702,-0.25282,-0.067602
-0.043057,0.055415,0.0008137,-0.039217,-0.02616,-0.10724,0.0068288,-0.49911
-0.11753,0.40506,0.39414,0.059201,-0.0023483,0.0018463,-0.05517,0.2347
0.12422,0.0092231,-0.15253,0.057995,0.16339,0.25179,0.43725,0.41073
-0.11339,-0.013783,0.44735,0.051564,-0.044077,-0.13855,-0.12289,-0.42424
-0.10122,-0.20191,-0.081989,-0.061458,-0.077714,-0.13005,-0.27135,-0.062878
0.32827,-0.10873,-0.25289,-0.10154,-0.015762,0.03504,-0.004556,-0.1458
0.053984,-0.084561,-0.19581,-0.06907,-0.0382,0.067567,0.071314,0.43083
-0.25615,0.29374,-0.017367,0.12923,0.049914,0.02207,-0.080672,-0.17403
-0.35667,-0.32423,-0.15867,-0.085283,0.0060076,0.007747,0.07909,-0.17794
0.59847,0.28111,0.28502,0.11498,0.017215,-0.038087,0.29932,0.1437
-0.13191,0.055247,-0.091999,-0.020576,-0.041812,-0.060921,-0.12606,-0.051274
-0.040389,-0.1977,-0.08441,-0.062887,0.023908,-0.014028,-0.005754,0.31242
-0.097369,0.185,0.139,0.081152,0.026562,0.071234,0.25764,0.3923
0.077382,0.068717,0.51894,0.075043,0.028386,0.13232,-0.28443,0.06259
0.17623,-0.095359,-0.42627,-0.12062,-0.056731,-0.112,-0.27406,-0.41953
0.063707,-0.090073,-0.21039,-0.052725,-0.010073,-0.052209,0.078665,-0.36481
-0.066646,0.0055941,0.12838,0.083827,0.027872,0.077558,-0.35607,-0.455
-0.50433,-0.22234,0.043197,-0.085159,-0.02853,-0.15204,0.3715,-0.031335
0.087569,0.1021,-0.013459,0.0039042,-0.022609,0.064067,0.11767,0.52195
0.13302,0.089878,-0.26925,-0.038452,-0.055484,-0.10195,0.15185,0.27586
-0.03732,0.24277,0.50887,0.195,0.14664,0.33441,-0.13348,-0.3629
0.40681,-0.039261,-0.15708,-0.037376,0.0058155,-0.20511,-0.066986,0.32233
-0.26024,-0.17718,-0.13559,-0.016816,0.021985,0.12287,0.59868,0.19246
-0.0080004,-0.069281,-0.099625,-0.1736,-0.18012,-0.2212,-0.45294,-0.33393
-0.049997,-0.067779,0.20006,0.10837,0.10221,0.28569,-0.21025,0.39964
0.13323,0.20101,0.08337,0.11675,-0.0064577,-0.38007,-0.20728,-0.3125
0.44334,0.071295,-0.27012,-0.03275,0.079452,0.48488,0.78194,0.25307
-0.38164,0.0021267,0.14753,-0.067961,-0.077729,-0.49381,-0.71705,-0.31906
-0.1882,-0.0081598,-0.17125,-0.028764,-0.024812,0.27076,0.065809,0.02034
-0.4457,-0.21073,0.24249,-0.0012977,-0.011499,-0.2516,0.097299,-0.55746
0.29291,-0.15289,0.068588,0.0070913,0.0095434,0.18212,-0.35901,0.10029
0.13295,0.20474,-0.22421,0.028693,0.038815,0.12682,0.18529,0.29872
-0.037851,-0.019676,-0.026554,-0.10695,-0.071726,-0.21497,0.30135,0.34502
0.30903,0.26905,0.22408,0.10947,0.076521,0.092754,0.31422,-0.063032
-0.095575,-0.075897,-0.12048,0.030863,0.022477,0.18842,-0.087626,-0.44067
0.28242,-0.021619,0.19036,0.064387,0.046971,-0.15702,0.37553,0.76371
-0.41515,-0.14471,-0.19397,-0.10206,-0.053725,0.17144,-0.10302,-0.26168
-0.016644,-0.17823,-0.45967,-0.062355,-0.045843,0.024085,-0.55468,-0.15278
-0.24209,-0.082048,0.44149,0.073572,-0.031374,-0.63018,-0.79607,-0.1186
0.25046,0.55855,0.010637,0.062718,0.020827,0.46041,-0.060707,-0.24458
0.18557,-0.11562,0.19359,-0.08018,0.032915,-0.26348,0.72737,0.53247
0.14729,-0.058022,-0.18966,-0.051231,-0.025729,0.13967,0.57728,0.081974
-0.31921,0.027459,0.039444,0.02398,0.0098121,0.0020282,-0.44572,-0.11475
-0.3171,-0.24309,0.027526,0.035761,0.01544,0.25641,0.33217,-0.43278
0.034804,-0.050651,0.069422,0.069984,-0.039339,-0.27534,-0.37106,-0.26007
0.13306,0.064335,-0.12577,-0.091967,0.033415,0.2735,-0.27102,0.095483
0.4129,0.14728,-0.11396,-0.0045482,0.022788,-0.17762,0.44367,0.39696
0.067139,-0.045542,-0.090862,-0.034708,-0.0013291,0.11744,0.088309,0.25046
0.24185,0.28121,0.068955,0.052082,-0.00066572,0.021294,-0.048034,0.0024875
-0.35352,-0.15512,0.19466,0.037089,0.015943,-0.14224,0.15841,0.28621
-0.68761,-0.089893,-0.11867,0.013941,-0.093193,-0.08736,-0.38688,-0.29084
0.29655,-0.070291,0.26306,0.052745,0.092893,-0.065654,-0.22957,-0.53671
0.18152,-0.127,-0.22944,-0.12012,-0.027966,0.08717,0.29087,0.12285
-0.13603,0.069539,0.037357,0.018752,-0.057542,-0.056725,-0.099107,-0.057868
-0.17298,-0.025394,-0.053197,-0.13984,-0.01909,0.12278,-0.37311,-0.10483
0.20923,0.36412,0.34318,0.22483,0.11914,0.18365,0.38025,0.59007
0.43619,0.052983,-0.3041,-0.074118,-0.048407,-0.30082,0.54989,0.12832
0.086919,-0.58967,-0.21296,-0.043866,-0.021027,0.148,-0.45992,-0.24692
-0.37193,0.24203,-0.20287,0.01143,-0.0012377,-0.02362,0.18369,-0.59635
0.031668,0.087431,0.20317,0.037343,0.058225,0.22318,-0.11772,0.72305
-0.2786,-0.061902,0.33293,0.0025084,-0.022187,-0.22987,-0.050164,-0.33283
0.27701,0.20667,0.14587,0.015783,-0.0081963,-0.079623,-0.20727,0.27013
0.14643,-0.11663,-0.0090661,-0.017446,0.013998,0.15673,0.24608,-0.41865
-0.20494,0.012971,-0.15876,-0.043555,-0.088749,-0.25636,0.074188,0.032447
-0.075015,-0.039239,-0.22868,0.045767,0.07388,0.20398,-0.20884,0.43678
-0.5018,-0.11053,0.3486,0.11687,0.025123,0.022191,-0.18263,-0.58889
0.29857,-0.084309,-0.39722,-0.1588,-0.024131,-0.16055,0.40139,0.54737
0.43872,0.1333,0.002824,0.0079424,-0.034706,-0.007511,-0.26284,-0.19655
0.093506,-0.12893,-0.22281,-0.11661,0.0014587,0.23204,0.41708,0.26934
0.014951,0.26274,0.21808,0.054592,-0.024685,-0.13676,-0.35703,-0.097779
-0.02264,0.22329,0.67292,0.21818,0.12157,0.3862,0.15584,-0.23836
-0.40216,-0.31683,-0.44076,-0.17144,-0.082934,-0.48058,-0.13116,-0.10691
0.28991,0.017982,0.12192,0.082016,0.041641,0.0046691,-0.10908,0.18781
-0.31407,-0.068656,-0.40305,-0.091285,-0.043747,0.17747,0.15967,-1.3673e-05
-0.096903,-0.24813,0.1646,0.035164,-0.042333,-0.18118,0.25393,-0.4162
0.11375,0.316,0.035537,0.015499,0.061292,0.14741,-0.12978,0.64724
0.068579,0.11643,0.20893,0.098837,0.024665,-0.086621,-0.43528,-0.53179
0.1431,-0.033946,-0.089663,-0.067378,-0.0040606,0.038789,-0.090771,0.026323
0.28257,-0.13494,-0.1737,-0.0074404,-0.0094928,0.14881,0.50642,0.50998
-0.29506,-0.045974,0.042069,-0.073435,-0.015208,-0.12369,-0.065192,-0.0042046
-0.028709,-0.079874,-0.10685,-0.062333,-0.060289,-0.013125,0.33451,0.073956
-0.068476,0.29407,0.035468,0.033971,0.035039,0.058495,-0.33487,-0.23685
0.33422,0.075175,0.015443,0.059733,0.020916,-0.13552,-0.1221,0.18366
-0.45418,-0.34668,0.10563,-0.031437,-0.016598,0.14696,0.095898,-0.58995
-0.0272,0.12159,0.24988,0.1435,0.031902,-0.17997,-0.15891,-0.10613
0.16313,0.0029496,-0.16315,-0.0015533,0.041311,0.15722,0.10499,0.32326
0.14976,0.0080596,-0.041958,-0.060936,-0.0042371,-0.083486,0.37232,0.23964
-0.34682,0.0040613,-0.060443,-0.066754,-0.10507,0.25426,-0.69947,-0.47876
0.10433,-0.2199,-0.21996,-0.066803,-0.0037052,-0.35292,0.10233,0.30383
0.23785,0.32069,0.22921,0.12569,0.057419,0.040181,0.38902,-0.051415
-0.1034,-0.030318,-0.0088329,-0.0052444,0.070408,0.21463,-0.12687,0.53374
0.45375,-0.030684,-0.0022396,-0.014071,-0.050542,-0.18924,0.2353,-0.0046098
-0.21797,0.18685,0.056785,0.045312,-0.0081778,0.21885,-0.17276,-0.1687
-0.33923,-0.25255,-0.062519,-0.052348,-0.012833,-0.084859,0.039079,-0.23397
-0.074951,-0.090747,0.018461,-0.13352,-0.095002,-0.18648,-0.341,-0.43557
0.044326,-0.038264,-0.087816,0.10038,0.11329,0.13273,0.36579,0.016693
-0.026011,-0.05569,-0.043346,-0.0053973,-0.090424,-0.10357,-0.13806,0.12577
0.076779,0.13821,0.050992,-0.012451,0.091097,0.30816,-0.16526,0.41142
0.10631,0.24593,0.27245,0.14185,0.03281,-0.31909,0.057833,-0.22383
-0.25486,0.1098,-0.18604,-0.0041892,0.023292,0.15583,0.18008,0.050976
0.30703,-0.3972,0.13294,-0.038004,-0.03207,-0.13393,-0.0090161,-0.021451
0.15828,0.03514,0.0064957,0.0071552,-0.07967,0.05392,0.18611,0.43943
-0.11035,0.17836,-0.44448,-0.17551,-0.019052,0.031663,-0.39866,-0.32911
0.13717,0.13316,0.21412,0.068393,0.039479,0.025299,0.056583,-0.083794
-0.31532,-0.35754,0.22223,0.096987,0.064068,0.11996,0.12149,0.0039578
0.027443,0.31048,-0.092808,0.058192,0.023263,-0.03681,0.13904,0.19325
-0.13459,-0.49889,-0.33973,-0.2821,-0.17648,-0.16448,-0.18061,-0.30155
0.14295,0.18114,0.35834,0.13951,0.082596,-0.044666,0.0056567,0.096313
-0.013419,0.013089,-0.019266,0.043102,0.035641,0.096212,-0.044735,-0.048629
-0.21717,0.088448,-0.039665,-0.023004,-0.0039671,-0.014625,0.019638,-0.035945
0.22442,-0.22977,0.011265,0.083113,0.0036507,-0.024565,-0.019898,-0.092679
0.020257,0.40306,-0.11368,-0.059477,-0.00336,0.028553,0.016534,0.047224
0.19141,0.18774,0.15012,0.0028582,-0.0089584,0.01307,0.28539,0.063341
0.015635,-0.14654,-0.063209,-0.011025,0.010477,0.10174,-0.18196,0.24278
-0.14506,-0.067888,0.051434,0.086205,0.039321,-0.0018264,-0.16673,0.21364
-0.1805,0.11116,-0.22508,-0.15103,-0.06316,-0.070992,0.0028794,-0.2662
-0.13083,-0.31962,0.59056,0.13646,0.0075819,-0.074775,-0.087346,-0.21503
0.27467,-0.20134,-0.72193,-0.12164,0.01706,-0.021501,0.47647,0.17501
-0.085269,0.049284,0.33558,-0.034506,-0.066047,0.025668,-0.29803,-0.10161
0.22967,-0.052259,-0.090455,0.031,0.0081988,0.0034731,0.096885,0.19189
-0.028059,0.69891,-0.033321,0.082986,0.060001,0.082968,-0.1902,-0.40979
-0.12919,-0.78826,0.13785,-0.011281,0.042256,0.052363,0.17713,0.153
0.094006,0.46539,0.061913,-0.017709,-0.045419,-0.050095,-0.026799,-0.019315
-0.10326,-0.13207,0.065566,-0.0073129,-0.023865,-0.045393,-0.16787,0.034596
-0.29196,0.256,-0.40678,0.034471,0.020368,0.011368,-0.041355,0.43352
0.20112,0.2936,0.38692,0.036088,0.00075145,-0.090801,0.034147,-0.453
0.074427,-0.16787,-0.24011,0.035421,0.057465,0.10939,0.57588,0.45591
0.29325,-0.54175,0.27634,-0.093371,-0.059683,-0.043584,-0.36014,-0.3916
-0.15311,0.018053,-0.27214,-0.05371,-0.0068187,0.029348,-0.15581,-0.11792
-0.43178,-0.17941,-0.19494,-0.14214,-0.11944,-0.077036,-0.11544,-0.174
0.0079885,0.12187,0.33931,0.13441,0.087479,0.083478,0.11239,0.17589
0.4343,0.41301,-0.025888,0.12093,0.044391,-0.035366,-0.059014,0.26019
0.058868,-0.37803,-0.022923,-0.025061,0.064465,0.16823,0.36891,0.25764
-0.025544,0.15903,-0.13542,-0.068148,-0.086216,-0.25124,-0.19187,-0.25579
0.061445,0.54852,0.31563,0.15633,0.092513,0.11979,-0.025199,0.11533
-0.47259,-0.46232,-0.062383,-0.13278,-0.11822,-0.024119,-0.024631,-0.42143
0.040597,-0.15311,-0.13966,-0.037431,0.03124,0.074023,0.017896,-0.056757
0.16804,0.22523,-0.07594,0.011973,-0.029884,-0.12557,-0.09542,0.22246
0.2432,-0.0090851,0.13314,0.022369,0.033864,0.056265,0.15708,-0.0072741
-0.15719,-0.099934,-0.12467,0.063207,0.065828,0.041165,-0.14733,0.026794
-0.0099618,0.35138,-0.030986,-0.038087,-0.082708,-0.16301,0.10091,0.15298
-0.24412,-0.58924,0.3353,-0.031954,0.010015,0.20184,0.12175,0.17692
0.024546,0.030738,-0.27542,-0.074776,-0.038784,-0.12165,-0.37963,-0.50918
0.0086489,0.11294,-0.033585,0.083604,0.06011,0.054498,0.27134,0.10465
0.28012,-0.16442,-0.13228,-0.032979,-0.013394,0.027587,-0.070783,-0.064905
0.41052,0.34757,0.3843,0.13853,0.030004,-0.061453,0.065722,0.26637
-0.65396,0.0015063,-0.067007,-0.049645,-0.043849,-0.0093441,-0.20713,0.023398
0.33721,0.0084757,-0.038307,-0.034317,0.046491,0.1058,0.5346,-0.040886
-0.25606,0.15574,-0.254,-0.080393,-0.04255,-0.098917,-0.29364,-0.048982
-0.44094,-0.49086,0.23284,0.015962,0.017345,0.017011,-0.12873,-0.48346
0.50216,0.43637,0.19661,0.13821,0.038906,-0.0074499,-0.25986,0.41431
0.11322,-0.28352,-0.47954,-0.15063,-0.063533,0.054237,0.32777,0.24549
-0.075825,0.056037,0.19622,0.016907,-0.024054,-0.055679,-0.0080335,-0.11665
-0.064761,-0.02739,0.20728,0.039195,0.0013467,-0.016747,0.027392,-0.44078
-0.16655,-0.040328,-0.2918,-0.045165,0.004984,0.022766,0.14223,0.55814
0.33646,0.26087,0.24357,0.13795,0.057092,-0.030739,-0.15873,0.024062
-0.03382,-0.090043,-0.32228,-0.045457,0.016712,0.088438,0.082554,-0.2973
0.20539,0.20024,0.030836,0.0048233,0.031708,-0.033805,-0.20655,0.14539
-0.244,-0.36168,0.29174,-0.048408,-0.031462,0.047689,0.35539,-0.016888
-0.36685,0.0068231,0.34015,0.020468,-0.05636,-0.081381,-0.60677,-0.54969
0.024664,0.02835,-0.31063,-0.078053,-0.012351,0.031831,0.29865,0.43953
0.14246,-0.041383,-0.27102,-8.7225e-05,-0.0091778,-0.07388,0.20655,0.30575
-0.14513,-0.28169,0.061109,0.044079,0.015586,0.0074961,-0.21632,-0.5874
0.43604,0.24348,-0.23381,-0.007062,0.038698,0.080433,0.26722,0.73315
0.057667,0.24998,0.18386,0.01164,-0.041027,-0.058402,-0.4107,-0.76021
-0.078346,0.28734,0.037325,0.0073637,0.050292,0.13765,0.10314,0.25514
0.26814,0.019688,0.034067,0.035374,0.016187,-0.065984,0.20786,0.28773
-0.6083,-0.42251,0.25566,0.025491,-0.049296,-0.099143,0.13751,0.0084076
-0.037628,-0.15273,0.079046,-0.022562,0.018067,0.061588,-0.30438,-0.22592
0.1044,-0.10562,-0.38612,-0.031218,-0.016052,-0.052389,0.1228,0.026583
0.16997,0.04966,0.06207,-0.01674,-0.0032422,0.05928,0.19092,-0.12857
-0.018628,0.19913,0.030749,-0.018713,0.025205,0.029952,-0.41362,-0.023184
-0.083461,0.12028,-0.029554,0.0016687,-0.0088354,-0.0068778,0.11353,0.30854
0.0021904,0.13846,0.14445,0.044484,0.011903,-0.027033,-0.1647,-0.096261
-0.071224,-0.41983,-0.21441,-0.061747,-0.045219,-0.037631,0.26829,-0.19919
0.12018,0.14813,0.159,0.050789,0.007554,-0.053769,-0.11761,-0.062166
0.037989,0.19491,-0.0081056,0.015625,0.022085,0.041986,0.11587,0.38687
0.26737,-0.058329,-0.1673,-0.0024995,0.0064731,0.054194,0.023451,-0.060298
-0.13899,-0.076478,-0.12123,-0.0265,-0.015635,0.029197,-0.13793,-0.23619
-0.24632,-0.26856,0.21019,0.029845,0.041775,0.22394,0.35658,0.26144
-0.018388,0.14463,0.1642,-0.036576,-0.047946,-0.3392,-0.23735,-0.15729
0.034649,0.14548,0.030076,0.039612,0.011815,-0.012824,0.05476,-0.3327
-0.10431,-0.28445,-0.24015,0.00010941,-0.0059278,0.022574,-0.26072,0.17534
0.25958,0.24886,0.007516,-0.085442,-0.0001525,0.024354,0.042396,0.24313
-0.045083,-0.019143,0.14503,0.016533,0.012909,0.10185,0.058682,0.081328
0.0062678,-0.16026,0.075445,0.0083009,-0.014221,-0.025852,-0.014612,-0.015191
-0.092736,0.61064,0.069505,0.092147,0.027319,-0.053479,0.10642,-0.15931
0.026516,-0.12616,-0.35872,0.0408,0.019999,0.035338,0.010554,-0.13683
-0.11924,-0.35364,-0.013971,-0.029005,-0.012841,-0.024257,0.12217,0.26609
0.11905,0.12532,-0.13688,-0.10171,-0.047568,0.002796,-0.24454,-0.041071
0.31176,-0.38915,0.34568,0.0027731,-0.021191,-0.015802,0.020378,-0.061914
-0.17437,-0.11834,0.023163,-0.042806,0.012326,-0.0016481,-0.12277,-0.20486
-0.34784,0.31232,-0.14785,0.036211,0.030397,0.029646,0.19144,0.052992
0.1812,-0.0021568,0.030672,-0.001014,0.010403,0.046595,0.19476,0.17361
0.045054,0.35454,0.25552,0.049843,0.0076753,0.017519,0.024805,-0.2313
0.17322,-0.021307,-0.2389,0.0098779,-0.032129,-0.12061,-0.22751,0.48994
-0.20747,-0.15869,-0.10236,0.027718,0.0316,0.053558,0.045132,-0.32298
-0.32298,0.030107,0.45972,0.048222,0.018809,-0.038541,-0.14244,0.1932
0.44478,-0.15676,-0.44608,-0.15618,-0.063334,-0.030018,-0.25837,-0.22333
