0.096635,0.060544,0.26854,0.050445,0.020368,0.0066546,0.063802,0.15486
-0.27537,0.0051708,-0.1921,-0.10324,-0.033868,-5.8418e-05,-0.042242,0.0011495
0.20334,0.14224,0.40675,0.1802,0.02118,0.0085415,-0.069801,-0.2031
-0.13085,-0.002454,-0.29415,0.13485,0.029236,0.024486,0.16772,0.079722
-0.011595,-0.11344,-0.51232,-0.21603,0.0058947,0.032077,0.075706,-0.15217
0.16359,-0.19539,-0.034553,-0.13032,-0.025446,-0.0076984,0.059788,0.39635
-0.2528,-0.25349,0.087236,0.079535,-0.033589,-0.10245,-0.30982,-0.45579
0.27908,0.63567,0.754,0.04651,0.02828,0.021581,-0.17324,0.25943
-0.068425,0.026646,-0.0094413,0.27083,0.050724,0.013224,0.18934,-0.14549
-0.099964,-0.082492,-0.70356,-0.32538,-0.060053,-0.01783,0.037074,-0.11518
0.12158,-0.054673,0.27841,0.16434,0.024049,0.022274,0.050867,0.31242
-0.052991,0.01964,-0.052541,-0.25203,-0.0094633,0.031744,0.08294,-0.11137
-0.11688,0.010864,0.31318,0.15995,-0.019931,-0.013465,-0.14034,0.13806
0.19438,-0.069034,-0.35745,-0.03727,-0.038542,0.0576,0.075254,-0.37602
-0.10473,-0.17509,-0.031031,-0.086051,0.044155,0.0016962,-0.0064683,0.28411
-0.085606,0.021128,0.71853,0.34143,0.0642,-0.049277,0.27652,0.00087228
0.063366,0.014279,-0.71066,-0.098886,0.052991,0.021403,-0.31186,-0.031358
0.154,0.26167,0.63044,0.10065,-0.043921,-0.036026,-0.014512,-0.095138
-0.14227,-0.18481,-0.69551,-0.23946,-0.10898,0.029513,0.1145,0.15184
-0.044304,-0.13287,-0.41129,-0.34515,-0.079171,-0.1395,-0.45395,-0.26046
0.1122,-0.07894,0.21563,0.21436,0.085164,0.060886,0.33813,0.22961
-0.0080425,0.39253,0.53495,0.19816,0.064281,0.0081276,-0.044485,0.082818
0.29918,0.17122,0.1673,0.15431,0.05387,-0.053558,0.097063,0.057656
-0.58187,-0.26961,-0.87314,-0.12741,-0.055411,0.10348,0.1479,-0.18025
-0.1026,-0.013126,0.35875,-0.19386,-0.084283,0.09622,-0.43063,-0.21452
0.34022,0.02086,0.37908,0.047917,0.05233,0.071496,0.56276,0.043419
0.083853,0.092679,0.8382,0.33861,0.071941,-0.19226,-0.60252,-0.13833
0.011799,-0.31701,-0.46942,-0.16751,-0.019094,-0.073618,0.31016,0.17931
0.077052,0.056061,-0.44598,-0.17566,-0.0034829,0.2987,0.44301,0.1137
-0.151,0.10386,-0.42132,-0.10968,-0.093388,-0.27383,-0.11586,0.53053
0.021483,0.10361,0.037494,0.060181,0.038537,0.089477,-0.065643,0.051827
-0.18848,-0.25163,-0.20783,0.12205,0.0092953,-0.25272,-0.68878,-0.84186
0.10817,0.083476,0.5009,0.34912,0.02248,0.2629,-0.44434,-0.14644
0.10561,-0.16659,-0.33567,-0.3363,0.055736,-0.033365,0.64098,0.58847
-0.040432,0.10387,0.64703,-0.042467,-0.16282,0.13506,0.76104,-0.34134
-0.017296,0.53716,-0.34063,-0.033241,0.10302,-0.18135,-0.45242,0.28364
0.027317,-0.13339,0.13773,0.13896,-0.027723,-0.041572,0.053283,-0.22168
-0.1242,-0.19254,0.093899,-0.20298,0.0012411,0.033868,-0.3508,-0.12733
-0.064285,-0.16892,-0.67545,-0.04876,-0.019919,1.3241e-05,0.17261,0.21877
0.35667,0.23639,0.74651,0.42401,0.15144,0.28724,0.052028,0.022711
-0.18086,-0.20053,-0.06401,-0.36933,-0.12554,-0.23003,0.27644,0.1846
-0.082893,-0.069327,0.12163,0.27456,-0.031474,-0.045614,-0.20547,-0.31124
-0.045156,-0.020081,-0.37663,-0.090513,0.10414,0.064686,-0.20301,0.14292
0.15795,-0.13828,-0.4272,-0.23204,-0.10317,0.082641,0.29567,0.18479
0.071957,0.44553,0.64126,0.21463,0.040315,-0.23633,-0.22724,-0.063971
0.1408,0.062912,-0.41978,0.090534,0.10358,0.23877,0.048411,-0.082903
-0.46478,-0.071202,0.70637,0.041624,-0.086046,-0.21957,-0.4772,-0.36601
0.24685,-0.18731,-0.52765,-0.22289,-0.067781,0.11511,0.44894,0.32092
-0.14602,-0.047798,-0.025634,0.0072646,0.018235,0.071599,-0.068212,-0.12209
-0.056629,-0.29886,0.053196,-0.12678,-0.061382,-0.1927,0.11473,-0.059244
0.11007,0.50576,-0.45671,0.064027,0.053992,-0.012457,0.12405,0.13813
0.15232,0.068766,0.87324,0.30065,0.11555,0.21489,0.12325,0.075125
0.0087151,-0.088136,-0.52914,-0.3052,-0.094609,-0.041409,0.047568,-0.019167
-0.21086,0.032307,0.59823,0.068702,0.02535,-0.039352,-0.55169,-0.081323
0.15746,-0.16696,-0.68803,0.0484,0.10008,0.16561,0.29067,0.23146
-0.074651,-0.158,0.37716,0.04005,-0.074437,-0.044843,-0.03758,-0.27098
0.021281,0.0094637,-0.49808,-0.082545,-0.15567,-0.3437,-0.19407,0.14962
0.053364,0.26313,0.7442,0.44422,0.20671,0.24482,0.079397,0.012358
0.19255,-0.0072848,0.051643,-0.40542,-0.0039128,-0.013804,0.11299,-0.030475
-0.35049,0.136,-0.68287,-0.11013,-0.10046,-0.025221,-0.058819,-0.051876
-0.082982,-0.28218,-0.15952,-0.085258,-0.012417,-0.022562,0.10674,0.064502
0.19175,0.14687,0.5713,0.32522,0.011096,-0.035392,-0.12135,-0.11757
-0.18069,-0.30025,-0.54696,-0.33874,-0.091075,0.10214,0.032642,-0.14959
0.17658,0.13779,0.57152,0.20586,0.049791,-0.038133,-0.016434,0.090172
-0.016351,0.081517,0.57667,0.18774,0.16163,0.07602,0.26956,0.098835
-0.055988,0.064773,-0.95047,-0.34422,-0.10625,-0.13331,-0.31497,-0.017719
0.18963,-0.059517,0.079971,0.15826,0.043219,0.083306,0.1562,-0.09269
-0.00021181,-0.018095,-0.26496,-0.038743,-0.015535,0.044946,0.16362,0.23383
0.21555,0.16383,0.089559,0.017317,0.044455,0.031213,-0.14764,0.19442
-0.21274,-0.21218,0.39731,0.23123,-0.020477,-0.084606,-0.29545,-0.09752
-0.51385,0.13896,0.45753,0.077637,-0.00082533,-0.0070705,0.032037,-0.1625
0.17045,-0.1229,-0.83091,-0.38281,-0.10857,-0.11206,0.085784,-0.044524
0.26221,0.10014,0.16326,-0.0185,0.023082,0.053378,0.11033,-0.13816
-0.12007,-0.06941,0.077388,0.10016,0.0038379,0.075679,0.01509,-0.15647
0.11947,0.21142,0.10245,-0.11167,0.01437,-0.028517,-0.0012465,0.38493
0.0066177,-0.14995,0.70267,0.19189,0.056073,0.062358,0.087701,-0.15258
0.082543,-0.072432,-0.72734,-0.1193,-0.049268,-0.072367,-0.16911,0.070497
-0.12777,-0.30948,-0.78365,-0.12868,0.019863,0.03694,0.096517,0.097526
-0.14691,0.13596,0.13488,0.18101,-0.048393,-0.10934,-0.068656,-0.1375
0.15025,0.23706,0.84218,0.11465,0.097432,0.137,0.029652,-0.029406
0.083708,-0.35478,-0.19019,-0.21988,-0.074766,-0.052923,-0.047746,0.22108
0.012252,0.57997,0.17417,0.18996,0.074174,0.1166,0.12684,-0.27573
-0.072462,0.22727,0.29056,0.20728,0.042469,-0.051075,-0.04227,-0.035976
0.008986,-0.21327,-0.67357,-0.11746,-0.054412,-0.049288,-0.056691,0.60265
-0.14175,0.050747,0.011202,0.10299,0.063532,-0.019407,-0.0034018,-0.40933
-0.10244,-0.61782,-0.34834,-0.51576,-0.20573,-0.1178,-0.062504,-0.059229
0.072602,-0.42514,0.43654,-0.22294,-0.041417,0.11699,0.039602,-0.16241
0.20373,0.76046,0.053482,0.21104,0.034359,-0.063924,-0.040262,-0.08067
-0.16283,0.049234,0.56403,0.36913,0.15632,0.15335,0.13616,0.13723
0.11206,0.029603,-0.11202,0.069362,0.014051,-0.034446,-0.016337,0.29467
0.55743,-0.0060574,-0.82135,-0.21438,-0.031271,-0.024543,0.09656,0.27362
-0.71988,-0.35132,0.0028534,0.052865,-0.017539,-0.074008,-0.087272,-0.62165
0.28566,0.2776,0.15376,0.021073,0.024311,0.075169,-0.083222,0.24949
-0.34922,-0.016501,0.14325,-0.076247,-0.070359,0.024188,-0.047347,-0.1593
-0.015178,-0.062075,-0.14162,-0.023467,-0.0060138,-0.1106,0.012766,0.012355
0.29702,0.20159,0.92877,0.15117,0.10613,0.10716,0.0036321,0.10963
-0.2459,-0.033075,-0.27302,-0.026712,-0.0093512,-0.019109,0.25363,-0.15489
0.24227,-0.12882,-0.52936,0.25775,0.012953,0.017248,-0.22928,-0.13116
-0.00065825,0.051803,0.051022,-0.31222,-0.023484,0.012259,0.023619,0.59622
-0.17499,-0.14981,-0.34943,-0.3249,-0.1816,-0.12823,-0.050484,-0.3546
-0.044661,0.10115,0.12546,0.16498,0.046847,0.0021483,-0.0068395,0.14198
0.52349,-0.16386,0.14548,-0.059136,0.061431,0.068018,0.25533,0.031714
-0.30751,-0.029452,-0.20551,0.36598,0.059085,0.046837,-0.030482,-0.075462
0.030597,0.272,0.41294,-0.11749,0.0024659,-0.021307,-0.15421,-0.38176
-0.36333,-0.14017,0.01102,-0.15336,-0.06008,-0.10421,-0.41337,0.13758
0.2188,0.22019,0.56519,0.23076,0.091145,0.16605,0.55891,0.030972
-0.0068014,-0.15355,-0.23931,-0.14259,-0.074823,-0.053907,-0.049757,0.21386
-0.026532,0.2079,-0.41375,0.094251,0.019777,-0.0062197,-0.051286,0.030723
0.24425,-0.2422,-0.38351,-0.020714,0.0068825,-0.050531,0.039742,-0.049994
-0.015303,0.16814,-0.1746,-0.11472,0.018163,0.031445,0.0060346,0.01696
-0.27368,-0.22474,0.54783,0.1532,-0.017824,-0.010839,-0.21314,-0.36507
0.11855,-0.15429,-0.059664,0.15534,0.069942,0.095542,-0.0065207,0.37809
0.10838,0.052741,0.15249,-0.43848,-0.2033,-0.19669,-0.020848,0.015377
-0.34891,0.046344,-0.5255,0.011348,0.053229,0.12785,0.29192,-0.15299
0.23345,0.50752,0.74287,0.036142,0.035484,-0.0012602,-0.1148,0.064562
0.12341,-0.67245,-0.4022,0.074423,-0.0055817,-0.060553,-0.085517,0.20473
-0.09896,0.59997,0.9678,0.32308,0.11857,0.098489,0.22166,-0.21732
0.067624,0.089335,-0.54698,-0.1537,-0.020883,-0.086545,-0.11782,-0.10616
-0.11857,-0.52641,-0.87704,-0.088888,-0.048389,0.071911,-0.028937,0.010675
-0.079881,0.00072801,0.46238,-0.16916,-0.073224,-0.019866,0.11031,-0.23653
0.08862,-0.073404,-0.41755,0.043077,0.052702,0.028742,-0.19463,0.21292
0.056744,0.085415,0.095412,0.13316,-0.054169,-0.17291,-0.11695,0.29448
0.009435,0.24138,0.76208,0.24829,0.15982,0.16421,0.21821,-0.11234
0.029932,-0.098935,-0.75917,-0.36313,-0.12684,-0.10834,-0.094336,0.057547
-0.079492,-0.069431,0.79761,0.25816,0.06127,0.16565,0.15827,-0.19555
0.20293,0.24298,0.25879,-0.037685,0.043494,-0.037263,-0.076185,0.10308
-0.27959,-0.060835,-0.77771,-0.48593,-0.15734,-0.092093,-0.052989,-0.10483
0.11442,-0.21545,-0.050847,0.22566,0.060138,0.016795,0.019146,0.28557
-0.02689,0.22499,0.38027,0.13651,-0.030345,-0.054311,0.0090048,-0.01951
-0.22369,-0.034922,0.067232,0.17706,0.071865,0.085267,0.02675,-0.3523
0.10592,-0.50855,-0.78013,-0.19079,-0.04639,-0.017554,0.025445,-0.23141
0.082668,0.24442,0.31585,0.14328,0.053385,0.066921,-0.034786,0.365
0.060671,0.1877,-0.12641,0.0082512,0.012747,-0.075414,0.024395,-0.024257
0.087779,-0.1531,-0.040819,-0.39986,-0.073797,0.039737,0.060769,0.19536
-0.016559,0.28552,0.42745,0.18516,0.067715,-0.048649,-0.20064,-0.01374
0.09664,0.12821,0.91329,0.25596,-0.015554,-0.020311,-0.0032428,-0.14973
-0.20144,-0.12668,-1.0203,-0.38248,-0.057902,0.062263,0.19129,0.015883
-0.094813,-0.38005,-0.10077,0.21527,-0.0047275,-0.027403,-0.10942,0.047505
0.076528,0.45143,0.13131,0.26002,0.12033,0.038977,0.087154,-0.31865
0.028245,-0.28273,0.29974,-0.39696,-0.12049,-0.07432,-0.10107,0.30975
0.055556,-0.14608,-0.56432,0.18921,0.053753,0.054827,0.0066233,0.24678
-0.099408,0.14283,0.52496,-0.1069,0.0021124,0.020419,0.083237,-0.2875
-0.099275,-0.26626,-0.91391,-0.11377,-0.080406,-0.075751,-0.065433,-0.21396
0.066335,0.53486,0.48211,0.26997,0.14185,0.06338,0.038124,0.061704
0.11155,-0.15483,0.028899,-0.13543,-0.081371,-0.054257,-0.019457,0.047303
0.039623,0.0023609,0.22847,0.037333,-0.00026294,0.087005,0.090327,0.53121
0.0018423,-0.047188,0.033723,0.077551,0.010046,-0.075383,-0.15594,-0.40984
-0.09344,0.11868,0.29354,-0.076955,-0.019244,-0.02593,-0.032031,-0.18415
-0.01063,-0.21136,-0.12965,-0.14457,0.052524,0.11797,0.078512,0.033899
0.14126,0.055605,-0.21031,0.078197,-0.071425,-0.097088,-0.028488,-0.031805
-0.091252,0.074847,0.12436,0.12284,0.038743,0.00048874,0.083153,0.43653
-0.076218,-0.05298,-0.26207,-0.01056,0.047247,0.10572,0.15421,-0.031819
-0.088276,-0.22702,-0.76913,-0.19722,-0.13172,-0.12541,-0.10568,-0.18792
0.1368,0.29441,0.57354,0.1405,0.056581,-0.0056046,0.036961,-0.094131
0.10532,0.073445,0.72274,0.29085,0.13557,0.074384,-0.53536,-0.061494
-0.1687,-0.11686,-0.47314,-0.52839,-0.13709,0.020735,0.4512,-0.14989
0.10998,-0.19892,-0.06448,0.1817,0.004,-0.025933,-0.010165,0.065856
-0.12271,0.029632,-0.15782,0.14667,0.042942,-0.018707,-0.019589,0.12033
0.084949,0.185,0.41157,-0.20457,-0.090867,-0.098152,-0.0052782,0.26613
0.044452,0.12547,0.12646,0.19,0.11015,0.12641,0.010553,-0.011036
0.28666,0.19388,-0.18064,0.01007,0.0052356,-0.024666,-0.041701,-0.14888
-0.40674,-0.42274,0.064083,0.0061634,-0.038394,-0.020145,-0.052607,-0.086523
-0.026559,0.057234,-0.33869,-0.26597,-0.03614,0.054017,0.22727,0.22816
-0.031471,-0.27893,0.12409,0.21862,0.051495,0.04158,-0.093688,-0.067096
-0.12176,0.12571,0.0066804,-0.092962,-0.040489,-0.072958,-0.0010343,-0.47482
0.21335,0.21144,0.014202,-0.11303,0.024591,0.0075803,-0.081681,0.30017
0.2576,0.020068,-0.27126,0.089482,-0.033758,-0.075664,0.05451,0.093191
-0.026505,-0.086955,0.10844,0.038676,-0.01959,0.0061241,-0.037577,0.076595
-0.33399,0.0084164,-0.068443,0.22655,0.028403,0.0036965,-0.091431,-0.18579
0.099768,-0.077288,0.053032,-0.043227,0.071165,0.081752,-0.0040965,-0.012455
0.046124,0.2241,0.63798,-0.061312,-0.0088864,-0.017181,0.015056,-0.0029846
0.15858,-0.13757,-0.04174,-0.079433,-0.040637,0.011487,0.1783,0.24283
0.074869,0.12301,0.088252,-0.067752,0.045224,0.042174,0.072332,0.10136
-0.56694,-0.0053847,-0.75037,-0.15982,-0.11175,-0.11363,-0.20133,-0.4343
0.25483,-0.040641,0.070516,0.042853,0.042181,0.089682,0.16895,0.3941
0.0081218,-0.022262,0.078929,0.32228,0.10009,-0.028919,-0.15425,-0.35087
0.11504,-0.28453,-0.046458,-0.15631,-0.10239,-0.033076,-0.032162,-0.10697
0.084465,0.097971,0.19571,0.03012,-0.026059,-0.0016736,0.072428,0.25802
-0.058526,-0.1981,-0.38662,-0.047221,0.040502,0.065053,0.025131,-0.092853
-0.2261,0.23067,0.17953,0.065161,-0.011323,-0.06693,-0.10482,0.19052
0.052301,0.12267,0.42173,-0.031357,0.030281,0.0016832,0.018038,-0.03437
0.051583,0.26129,-0.26636,0.045394,0.0099154,-0.040344,0.0031845,0.14444
0.21012,0.091532,0.60884,0.12264,0.037649,0.089704,0.12469,-0.21258
-0.12035,-0.39707,-0.80469,-0.37084,-0.073562,-0.020782,-0.053887,-0.17724
-0.034052,-0.16208,-0.15735,0.072059,-0.02666,0.035686,0.054745,0.29662
-0.11011,0.14278,0.75106,0.1853,0.076708,0.017784,-0.016581,-0.30632
0.17369,0.059335,-0.73105,-0.16399,-0.068461,-0.08971,-0.070841,0.085551
-0.02761,0.11495,0.27639,0.11809,0.013909,-0.068137,-0.12194,-0.096095
-0.089844,-0.090837,0.33409,0.078727,0.065419,0.06632,-0.16052,0.43233
0.15074,-0.065715,-0.1366,-0.14112,-0.023912,0.078336,0.47869,-0.11597
-0.086778,-0.15908,-0.048896,0.19325,0.018822,0.091684,0.030698,-0.10634
-0.26245,-0.21881,-0.22888,-0.15224,-0.072389,-0.1528,-0.23892,-0.10003
0.22656,0.45482,-0.52532,-0.12261,0.030398,0.023295,0.10659,0.06758
-0.0090864,0.17071,0.92402,0.13397,-0.024357,-0.084236,-0.27791,-0.15829
0.0707,-0.42733,-0.22246,-0.14793,-0.041154,0.0082569,0.019769,0.37799
0.013223,0.61548,-0.13592,0.10985,0.074024,0.05824,0.31781,-0.12149
0.052568,-0.26335,0.37784,0.13366,0.024558,0.01104,-0.096962,-0.28297
-0.12473,-0.018389,-0.074734,-0.014487,0.052803,0.093532,-0.023491,0.20472
-0.043569,-0.23797,-0.26356,-0.014986,-0.098997,-0.060931,0.20842,0.0044669
0.083497,-0.44058,-0.29503,-0.20454,-0.02463,-0.037572,-0.38662,0.15441
-0.01844,0.14428,0.95146,0.14279,0.002399,-0.054307,0.081789,-0.23663
0.071475,0.96703,-0.62083,0.034528,0.10707,0.085073,0.1924,0.026495
-0.0065326,-0.20909,-0.34879,-0.060408,-0.03084,-0.11074,-0.47534,-0.016945
-0.29126,-0.47964,0.69092,0.05397,0.0029835,0.14807,0.42406,0.11009
0.093114,0.1074,-0.76366,-0.1447,-0.095753,-0.083304,0.0017666,-0.099619
0.15553,-0.19024,0.21468,-0.053568,-0.068756,-0.031266,-0.061031,-0.028386
-0.12631,0.12068,0.63194,0.25049,0.10786,0.069563,0.0882,0.12094
0.23293,0.20649,-0.72492,-0.10659,-0.034363,-0.062701,-0.073577,-0.19073
0.14007,0.13302,0.43761,-0.007184,0.090502,0.13352,0.000455,0.56756
-0.23272,-0.24406,0.27053,0.11109,0.083702,-0.030294,0.036578,-0.29214
-0.06499,-0.15471,-0.41316,-0.0023508,-0.047504,-0.055032,-0.14513,-0.37956
-0.044081,-0.21195,-0.13049,0.011025,0.00096064,0.0041185,-0.036814,0.15677
-0.19312,0.38438,0.49075,-0.13084,-0.11509,0.037855,0.18226,-0.034493
0.1289,-0.23108,-0.73269,-0.12377,-0.09887,-0.1406,-0.11211,0.15657
0.13324,0.48844,0.17992,0.086781,0.073416,-0.022174,0.10458,0.011885
0.085537,0.11896,0.6785,0.063583,0.03528,0.097862,0.028747,-0.10856
0.32909,-0.31212,-0.17682,0.049278,0.060997,0.072626,-0.033996,0.48314
-0.54322,-0.28628,-0.72328,-0.13544,-0.059672,-0.13579,-0.26283,-0.58006
-0.048197,-0.074367,0.4295,0.16574,0.056387,0.14491,0.23273,0.0064116
0.37549,0.31898,-0.24131,-0.21172,-0.036389,-0.046624,-0.040453,0.22665
-0.33562,0.030949,0.57011,0.3171,0.098674,0.077367,-0.013897,-0.12288
0.18512,-0.041821,-0.47881,-0.17896,-0.063129,-0.047542,0.051939,-0.011366
-0.12496,-0.0087088,0.52687,0.17347,-0.0076435,-0.032958,0.083542,0.35758
-0.14072,-0.063331,-0.5923,-0.31456,-0.087804,-0.084136,-0.023964,-0.59464
0.15366,0.063005,-0.05556,0.14509,0.062584,-0.03087,0.078127,0.35036
0.24266,-0.11797,0.73747,0.067871,0.021232,0.10246,-0.14324,-0.0029813
-0.11603,-0.10218,-0.59769,-0.38927,-0.063167,0.081412,-0.039907,0.032882
0.27263,0.25457,0.24967,0.49383,0.07589,-0.038568,-0.071346,0.34114
-0.63062,-0.38913,-0.35485,-0.28093,-0.11494,-0.13098,-0.093853,-0.79619
0.30716,0.60029,0.38473,0.12438,0.11594,0.14213,0.18583,0.17668
0.05551,0.089009,0.10129,-0.046299,-0.02681,-0.13109,-0.19648,0.18285
-0.10284,-0.21448,-0.094543,0.14577,0.012794,0.059321,0.33359,-0.050099
-0.0017093,-0.13386,-0.40347,-0.10354,0.0089978,0.01193,-0.018047,0.10333
-0.021476,-0.43834,-0.079979,-0.052109,-0.069213,-0.0066201,-0.054999,0.1272
-0.066139,0.3377,0.59058,0.065047,0.02,-0.011799,-0.020222,-0.15148
-0.0013676,0.12167,-0.49776,-0.088969,0.064841,0.12066,0.099608,0.10145
0.1575,0.0061808,0.21988,0.10976,0.01723,-0.056064,-0.15189,0.10271
0.0029926,-0.040125,0.080233,-0.06633,-0.053867,-0.059592,-0.020364,-0.35256
0.087083,0.022683,0.19942,-0.047699,-0.024706,0.037605,0.077154,-0.04667
0.12473,-0.10842,0.043454,0.04019,-0.0056232,0.022659,-0.08,0.15309
-0.20854,0.25635,-0.54001,0.087827,0.002862,-0.12925,-0.047113,-0.088334
0.091409,-0.10673,0.3745,-0.021823,0.039798,0.050011,-0.081303,0.39471
-0.32932,-0.11636,-0.2011,-0.085258,-0.034978,0.04503,0.23318,-0.50522
0.060038,0.15272,-0.066095,-0.023855,0.021558,0.013035,9.0117e-05,0.24496
-0.074957,-0.24935,0.17733,0.0066554,-0.016109,-0.020996,-0.075247,0.037173
0.30011,0.039576,0.053855,0.22546,0.032792,-0.016171,0.016681,-0.049918
-0.1075,-0.32246,-0.29294,-0.22655,-0.049551,0.021508,0.034584,-0.032246
-0.02794,0.52426,0.22702,0.017892,0.018758,-0.047095,-0.068458,0.28446
0.0032313,0.17212,0.24336,0.075812,0.027041,0.013318,0.058193,-0.156
0.042808,-0.069457,-0.60677,-0.037481,-0.024852,-0.015792,-0.047986,-0.32399
0.1928,0.17797,0.42992,-0.025531,0.018811,0.11505,0.087665,0.17753
0.045819,-0.49681,-0.22308,0.16591,0.03226,-0.0015453,-0.052305,0.042919
-0.16604,-0.067302,0.25408,-0.22134,-0.016615,0.023537,-0.0083365,-0.25946
-0.36743,-0.1076,-0.24281,-0.023442,-0.027024,-0.037804,0.015804,0.48927
0.34526,0.29398,0.14111,0.16579,-0.0073114,-0.10867,-0.057778,-0.0071518
-0.01428,-0.043119,0.27506,0.041773,-0.020172,-0.041311,-0.063966,-0.29465
-0.087612,-0.0012461,-0.12049,-0.20773,-0.042018,-0.01542,0.0066988,0.010862
-0.046585,0.20234,-0.14467,0.1051,0.052569,0.071112,0.077961,0.13746
0.070501,0.046397,-0.051138,0.043102,0.068821,0.062922,0.010875,-0.0069602
-0.063386,-0.18514,-0.38022,-0.034058,-0.039622,0.031251,0.079998,-0.13169
0.083987,-0.075205,0.35383,-0.079329,-0.061487,-0.031015,-0.026829,-0.26662
0.20063,0.01228,0.25623,0.040136,0.089239,0.032679,0.025862,0.26877
-0.15888,0.057198,-0.56619,0.15235,-0.025147,-0.082485,-0.067739,0.36513
-0.026546,0.05486,0.51736,-0.008561,0.040243,0.044892,-0.051304,-0.19715
0.11218,-0.25002,0.019971,-0.20853,-0.05888,-0.0077145,0.034598,-0.0057185
-0.025094,-0.21536,-0.2108,-0.010402,-0.04179,-0.029994,-0.0065681,-0.1097
-0.32201,0.53383,-0.11861,0.046432,0.012998,0.0010651,-0.034908,-0.050576
0.088293,0.019222,0.030172,0.13355,0.05062,0.015041,0.019735,-0.096177
0.08103,0.018632,0.037201,-0.06962,-0.038226,-0.026884,0.032743,0.18936
0.14124,0.0821,0.29617,0.092987,0.082703,0.10241,0.10646,0.055102
-0.0036224,-0.35797,0.38745,0.011917,-0.039235,-0.08852,-0.11747,-0.171
-0.094819,0.076667,-0.61603,-0.22679,-0.090961,-0.091085,-0.091179,0.097465
0.040345,0.031288,-0.20233,0.080296,0.045294,0.087521,-0.016953,0.064605
0.027547,-0.073312,0.033576,-0.035044,0.0028182,0.072599,0.20725,-0.072967
-0.02326,-0.040612,-0.062911,-0.00186,0.0084522,-0.081286,-0.059135,0.0064959
-0.09589,0.14046,0.55946,0.2508,0.070032,0.086245,0.035088,-0.15654
0.29463,0.0057918,-0.52269,-0.16721,-0.00017882,-0.0038324,-0.010747,0.14227
-0.53077,-0.31454,-0.14596,-0.14627,-0.11668,-0.063506,-0.10367,0.044539
0.18628,0.090186,0.34469,0.25891,0.10282,0.070325,0.068147,0.14469
0.15702,0.26974,0.21982,-0.15509,-0.07654,-0.15766,-0.1285,-0.2287
-0.0014629,-0.0094663,0.20058,0.11133,0.063675,0.1274,0.13451,0.010613
0.014838,0.21981,-0.3462,0.003015,-0.054729,-0.097519,-0.087759,0.0426
-0.014028,-0.084802,-0.14226,-0.25385,0.013761,0.074762,0.1116,0.10196
0.082252,0.025546,0.088735,0.074892,-0.019492,-0.018577,-0.047877,-0.32657
-0.12762,-0.30484,-0.38583,0.15326,0.033563,0.014423,0.012682,0.26509
0.026936,-0.28987,0.48242,0.051679,-0.014031,-0.028203,-0.026484,-0.060556
-0.071933,0.10052,-0.11703,-0.10465,-0.029061,0.010553,-0.0245,-0.077429
-0.0022129,0.23428,-0.0014195,-0.042016,0.066747,0.029329,0.034146,-0.013239
-0.16141,0.098127,0.45888,0.1461,0.023242,0.027723,0.039604,0.16141
0.3426,0.054633,-0.61248,-0.21192,-0.035013,-0.010832,-0.01671,0.20192
-0.050924,-0.17424,0.058582,0.02475,-0.022713,-0.032961,-0.081072,-0.081882
-0.13726,-0.10943,0.14637,0.114,-0.0030611,-0.016681,0.079895,-0.28615
0.022212,0.21901,-0.41554,-0.030194,0.015497,0.052295,0.059069,0.017109
0.052877,0.21712,0.51034,0.099679,-0.029983,-0.084847,-0.14414,0.11641
0.055879,-0.18701,-0.25876,-0.1453,0.0087557,0.040135,0.079455,-0.15159
-0.016818,-0.2303,0.29686,-0.0079231,0.0068181,0.013221,-0.0042524,0.074363
-0.04192,0.037398,-0.046507,0.10495,0.0505,-0.0087776,-0.058618,0.14066
-0.076077,0.058578,-0.076497,0.083447,-0.047158,0.0063511,0.042404,-0.32484
0.011627,0.088879,-0.0040303,-0.24459,-0.01209,-0.033953,-0.0046527,0.21164
0.055594,-0.10723,-0.15832,-0.0041402,-0.039001,0.019965,-0.01109,0.18148
