-0.0085394,0.0083652,-0.022236,-0.32314,-0.20521,-0.059854,-0.041343,-0.30046
-0.061376,0.02204,0.44516,0.07278,-0.19658,-0.036478,0.10186,-0.10785
0.051045,0.033656,-0.46675,-0.018819,0.020964,-0.10759,-0.15587,0.0053372
-0.11485,-0.23617,0.12578,-0.27565,-0.39161,0.16045,0.014479,-0.26482
0.043619,0.042878,-0.35508,-0.17076,0.26505,-0.11131,-0.057714,0.30902
0.1439,-0.048909,0.1764,0.44721,0.5073,0.08015,0.13671,0.00084974
-0.1974,0.091661,0.21959,0.53149,0.76022,0.09563,-0.041684,0.068615
0.34648,0.10588,-0.054557,-0.60214,-0.45594,-0.12791,0.087549,0.1213
-0.28097,0.016564,0.071626,-0.25291,-0.61895,0.29763,0.0012098,-0.029384
-0.089576,-0.13916,-0.20755,0.36033,0.21113,-0.045909,-0.12911,-0.35316
0.11421,0.29978,0.10723,0.63954,0.34779,-0.27275,0.25845,0.19609
0.016695,-0.099809,0.38306,0.50038,0.098162,0.45621,-0.2275,0.15715
0.26589,0.018173,-0.4107,-0.76553,-0.39844,-0.44059,-0.0094717,-0.32112
-0.49713,-0.38767,-0.10093,-0.63623,-0.55953,-0.30071,-0.10341,-0.050147
0.041418,0.0021108,-0.59231,-0.68552,-0.4372,0.27479,0.10789,0.16689
0.25836,0.16495,0.38208,-0.097975,0.51525,-0.094598,0.062199,0.1207
-0.10199,0.095461,0.33828,0.86138,0.51159,0.18049,-0.04484,0.01575
0.017061,0.28938,0.78317,0.71985,0.42232,0.18967,0.036932,-0.01429
0.093684,-0.46019,-0.48872,-0.21364,-0.15732,-0.11091,-0.036433,-0.047373
-0.15237,-0.0088346,-0.37134,-0.26521,-0.088592,0.014918,0.031294,-0.16208
0.24801,-0.025475,0.23349,0.19581,-0.15072,0.012798,0.19999,0.28131
-0.041379,0.35864,-0.36428,0.099942,-0.063866,-0.15736,-0.25045,-0.10901
-0.23215,-0.09875,0.084438,-0.75964,-0.33968,0.072798,-0.1027,-0.17802
-0.19247,-0.00089476,-0.42725,0.51632,0.43097,0.013473,0.048172,-0.10653
0.17021,-0.085163,0.38432,0.38013,-0.030215,0.10008,0.16207,0.2295
0.29203,0.1447,0.092621,-0.66105,-0.54754,-0.26253,-0.25379,0.37617
-0.17234,-0.21357,0.36466,-0.39525,-0.0065133,0.065848,0.30049,-0.22956
0.15038,-0.053848,0.15551,0.94706,0.75554,0.031088,0.13793,-0.27547
-0.24937,0.17637,-0.21403,-0.22853,0.15239,0.0095858,-0.27153,-0.30063
0.017444,-0.15656,-0.72142,-0.28667,-0.18261,0.21416,0.089662,0.78899
0.19191,0.22913,-0.10299,0.1917,-0.38118,-0.3298,-0.15869,-0.32636
-0.14822,-0.20398,0.98257,-0.41205,-0.34024,0.012179,-0.068232,0.0024927
0.12263,-0.0081837,-0.13889,0.13511,0.23097,0.28025,-0.096808,-0.012745
0.15448,0.15512,0.093626,0.32285,0.26375,0.029505,0.070625,-0.06669
-0.55018,0.0071193,-0.71863,-0.10348,0.23596,-0.029401,0.44331,-0.041694
0.19142,-0.012909,0.45677,0.75521,-0.023575,-0.22535,-0.11944,0.015453
-0.086382,-0.19319,-0.30725,-0.51685,-0.33508,-0.13751,-0.11931,0.15904
0.13453,-0.080835,-0.36655,-0.47759,-0.13654,0.11584,0.12039,-0.23685
0.17576,0.29163,0.89977,0.47073,0.32902,0.24458,-0.083714,0.58429
0.03698,0.062814,-0.6303,-0.5502,-0.25191,-0.1194,-0.15716,-0.39461
-0.018108,0.0585,0.55256,-0.042569,0.096214,0.054339,0.13154,-0.23731
-0.02393,-0.090523,0.33078,0.16462,0.10688,-0.18799,-0.13322,0.20399
-0.038889,-0.12754,-0.52441,0.56377,0.044996,0.16874,0.017239,0.17173
-0.011715,0.0024893,-0.39146,-0.35212,-0.1602,0.0070762,-0.14236,-0.27035
-0.061944,-0.081273,0.3897,0.26155,0.084906,-0.094846,0.28081,0.19237
-0.331,-0.078542,-0.60642,-0.4462,-0.11788,-0.0039117,0.078342,-0.3359
0.16634,0.0070766,1.0082,0.20444,0.083648,0.046085,-0.2475,-0.086836
0.080694,0.070284,-0.056678,0.057069,0.034226,0.0012476,0.20327,0.3792
0.28218,0.098391,-0.90981,-0.14638,-0.0070737,-0.098483,-0.021861,0.24305
0.12532,0.20172,1.0056,0.51598,0.023622,0.15397,0.045584,0.051506
-0.41872,-0.12903,-0.83073,-0.67413,-0.24739,-0.0767,-0.13442,-0.18888
-0.036069,-0.046118,-0.05555,-0.035951,0.18869,-0.01673,-0.047552,-0.40205
-0.015552,0.15584,0.19388,0.21332,0.058957,-0.0098999,-0.031054,-0.090415
0.16537,-0.13876,0.38067,0.14571,0.027326,0.14655,0.13276,0.36092
0.3018,-0.013755,-0.17456,-0.26079,-0.18046,-0.055796,-0.12711,0.18449
-0.21,0.050237,0.64356,0.143,0.106,-0.086391,0.1109,-0.18347
-0.169,-0.17492,-0.73893,0.20839,0.048907,0.015074,0.049911,-0.13418
0.017051,-0.094256,-0.17045,-0.12058,0.036844,-0.025255,-0.1146,0.16832
-0.027308,0.030304,0.64122,0.34156,0.0054931,-0.0043717,0.00043577,-0.23641
0.17516,-0.037988,-0.87784,-0.44664,-0.14019,0.093542,0.12968,0.4729
-0.2176,0.17566,0.77072,-0.18267,-0.088226,-0.0045014,0.031253,-0.21033
-0.070492,0.07518,-0.33432,-0.13371,-0.025806,-0.055699,-0.19296,-0.23785
0.048527,0.1958,0.07556,0.12921,0.071586,-0.028141,-0.011317,-0.077029
0.25844,0.00039676,-0.40122,0.53587,0.26026,-0.030613,0.021958,0.28898
-0.080582,-0.1205,0.70957,0.25891,0.057722,0.21855,0.16517,-0.068646
0.11706,-0.30931,-0.60245,-0.67701,-0.2607,-0.16328,-0.096848,0.06147
0.22502,0.17335,0.14315,-0.12982,-0.029262,-0.019943,-0.013745,0.28086
-0.39925,-0.19131,-0.012912,-0.16835,-0.20763,-0.023666,-0.0072256,-0.32493
-0.17174,0.20303,0.67056,0.68526,0.36118,0.1297,-0.014838,-0.13148
-0.023589,0.025705,-0.68497,-0.17747,-0.049296,-0.076118,0.010026,-0.12376
0.31791,-0.11591,0.43855,-0.22502,-0.1741,0.069161,0.1138,0.29142
-0.41291,0.089258,-0.14466,0.14381,0.23546,-0.052189,-0.079054,0.035416
0.40148,0.11682,-0.02595,0.17808,0.0056894,-0.13581,-0.045618,-0.14236
-0.035488,-0.11187,-0.33383,-0.076562,-0.0060334,0.19326,0.088726,0.0073192
-0.11449,-0.018732,0.55597,0.011498,-0.098375,-0.049113,-0.074605,0.17098
0.16386,0.05294,-0.87777,-0.48044,-0.1007,-0.010861,-0.004233,-0.027496
0.025089,0.033883,0.15088,0.20515,0.0021866,-0.019448,-0.020102,0.035865
0.093059,-0.08205,0.26516,0.12327,0.015355,-0.035126,0.0032873,-0.20213
-0.28142,-0.12859,0.20544,0.11838,-0.0054363,-0.018267,-0.0039022,-0.046264
0.14394,0.16243,0.1716,0.082026,0.13656,0.16424,0.18518,0.15262
-0.42652,-0.19864,-0.24817,-0.32089,-0.088475,-0.19078,-0.28889,-0.0024087
0.32199,0.35277,0.60203,0.31653,0.17996,0.15842,0.2454,0.15492
-0.099762,-0.29149,-0.60842,-0.30221,-0.10437,0.023548,-0.040792,-0.27128
-0.024743,0.0091989,0.2808,0.15114,-0.074144,-0.096323,-0.062369,-0.15355
0.2446,0.14406,-0.82794,-0.10473,-0.010891,-0.11618,-0.10138,0.15845
-0.025186,0.024504,0.78879,0.32066,0.10836,0.25235,0.22447,0.08744
-0.077042,0.060988,-1.0115,-0.33853,-0.045016,-0.061314,-0.030184,0.031356
0.21176,-0.047271,0.73921,0.14402,-0.057298,-0.11165,-0.12267,0.21485
0.0019584,-0.069389,0.041061,-0.33355,-0.12397,-0.10112,-0.083211,-0.15417
-0.21788,-0.062393,0.5819,0.30647,0.16122,0.080643,0.058302,0.11604
0.02572,0.19184,-0.37249,0.20408,0.10298,0.036246,0.0064197,-0.39977
-0.30039,-0.094428,-0.18167,-0.2978,-0.17373,0.063427,-0.0033626,0.17877
0.1159,-0.4259,-0.32258,0.12793,0.096456,0.1392,0.1857,0.053758
0.033471,0.084558,0.18102,0.034959,-0.00097314,-0.18961,-0.1142,-0.15703
0.1888,0.18381,0.18853,-0.2416,-0.036967,-0.01727,0.002028,-0.11573
0.045393,0.50874,-0.088649,0.32914,0.089372,0.022592,0.032624,0.24289
-0.050577,-0.25052,0.12384,-0.11971,-0.075607,0.046273,-0.0087899,-0.12521
-0.026885,-0.17919,-0.47746,-0.35273,-0.078989,-0.048516,-0.03024,0.15719
0.19581,0.049626,0.5775,0.3662,0.1029,0.011277,0.01405,-0.025952
-0.46785,-0.12155,-0.31946,0.00029663,-0.044858,-0.032097,-0.047883,0.36442
0.54479,0.32701,0.54355,0.028623,0.056999,-0.014063,-0.004063,0.030538
-0.43037,-0.37413,-0.5672,0.0082111,-0.058908,0.089684,-0.00088268,-0.60695
0.02066,0.19371,-0.21386,-0.3404,-0.070897,-0.0088593,-0.082537,-0.072375
0.030571,0.098876,0.67408,0.077383,-0.032572,-0.15239,-0.074382,0.10289
-0.049361,-0.27623,-0.67677,-0.10603,0.16599,0.16773,0.32271,0.060285
0.12392,0.15545,0.42109,0.52944,0.048052,-0.032386,-0.077577,0.20761
-0.052439,-0.221,0.21763,0.058833,-0.0044524,-0.05744,-0.095759,-0.015897
0.31801,-0.027706,-0.17781,-0.24834,-0.055488,0.13897,0.17276,-0.31197
-0.048491,0.30833,-0.22618,0.11943,0.018201,-0.045601,-0.087357,0.15579
-0.076491,0.10924,-0.052528,-0.4351,-0.11318,-0.14355,-0.114,0.40228
-0.51832,-0.30424,-0.01646,0.14841,0.064732,0.062655,0.10493,-0.34785
0.47609,0.29341,0.076743,0.22895,0.020037,0.056224,0.011891,0.23071
-0.21853,-0.1157,0.26494,-0.46552,-0.19256,-0.070017,-0.074458,-0.12298
0.0082506,-0.050115,-0.008511,0.1537,0.083746,0.10519,0.025491,-0.29461
0.18998,0.081163,0.16,0.34794,0.11546,-0.043399,-0.030489,-0.14559
0.34553,-0.059622,-0.6701,-0.12154,0.028498,-0.070355,-0.059839,0.26849
-0.49003,-0.10556,0.23255,-0.064503,0.042363,0.071651,-0.0041808,0.40897
-0.2347,-0.094198,0.037387,0.059642,-0.061196,-0.13229,-0.21907,-0.16012
0.10711,0.21979,0.61031,0.2824,0.038422,0.21713,0.60339,-0.084778
0.10817,-0.2141,-0.40775,-0.52992,-0.13513,-0.10574,-0.17539,-0.42452
0.24607,-0.11804,-0.5302,0.058635,-0.019066,-0.045354,-0.086142,0.22221
0.32492,0.52716,0.58301,0.31973,0.13711,0.070869,0.07328,0.22541
-0.54025,-0.20625,-0.12494,-0.13096,-0.11125,0.0090698,-0.14462,-0.15515
-0.14971,-0.18573,-0.28024,-0.22395,-0.075882,-0.10544,-0.047384,0.034473
0.09402,0.21119,0.014227,0.2282,0.11106,0.094637,0.072933,-0.026612
0.28839,0.089456,0.20909,-0.17994,0.059313,0.0077026,0.073137,0.1363
-0.13269,0.24831,0.25269,0.19372,0.073475,-0.030461,-0.087615,0.24699
-0.12496,-0.36453,-0.6206,0.1245,-0.026724,0.034616,0.082081,-0.27582
0.05246,-0.40954,0.5313,-0.26067,-0.14073,-0.055121,-0.14411,-0.23185
-0.030021,0.37669,0.4913,-0.014846,-0.011987,-0.042119,0.055179,-0.17776
0.23839,-0.17748,-0.98297,-0.137,0.030069,0.003016,-0.029368,0.43261
-0.20228,0.016425,0.88118,0.37301,0.038977,0.079927,0.072768,0.037341
-0.083165,0.35326,-0.54871,-0.016882,0.037338,-0.0071533,0.027227,-0.10407
0.075832,-0.28697,-0.41056,-0.19908,-0.037773,0.04591,0.022602,-0.10643
0.098339,-0.0010686,0.059389,0.08174,-0.014455,-0.042725,-0.050017,-0.060976
-0.1302,0.113,0.87831,0.33833,0.029626,-0.0079728,0.012344,-0.028053
0.048032,0.017986,-0.76973,-0.42427,-0.021909,0.024809,0.01375,0.54055
0.023935,-0.044172,-0.37848,-0.28649,-0.019588,-0.053836,0.015835,-0.19084
0.030835,0.088491,0.57442,0.20324,-0.056088,-0.048352,-0.12289,-0.39495
0.10561,0.076624,0.23567,0.028657,-0.021105,0.033968,0.018784,0.13737
-0.14533,0.049115,0.81292,0.59622,0.18753,-0.024941,0.0029964,-0.025923
-0.014264,-0.19292,-0.76148,-0.2571,0.054386,0.088098,0.11096,0.13615
-0.051032,-0.27695,-0.26002,-0.10775,-0.13954,0.014221,-0.06337,0.34024
0.10932,-0.13364,-0.59708,-0.36752,-0.004204,0.011467,-0.0040222,-0.094559
-0.01095,0.21411,0.093366,-0.1979,-0.10287,-0.076492,-0.0075165,-0.44956
-0.099327,0.31491,0.39542,0.3646,0.071507,0.046895,0.043614,-0.27821
0.0093813,0.18673,0.67368,0.39239,0.088643,-0.071943,-0.053602,0.22652
0.12186,-0.11329,-0.505,-0.26176,-0.020555,0.082203,0.075865,0.37222
-0.06412,-0.11434,0.15969,0.21478,0.0016954,0.0012745,-0.013344,-0.11957
-0.077321,-0.4712,-0.056025,-0.28052,-0.10997,-0.064718,-0.063474,0.057856
0.13117,0.12149,-0.4854,0.01618,0.03557,-0.013923,0.0036028,-0.11821
-0.14838,0.17915,0.33579,-0.13945,0.024842,-0.0020754,0.008303,0.26567
-0.032975,0.21629,0.2246,0.2661,-0.0009702,0.041759,-0.017914,-0.32353
0.30462,0.027889,-0.10155,-0.096943,0.021006,0.040031,0.089286,0.33055
0.026723,0.025606,-0.39958,-0.25307,-0.049763,-0.10063,-0.13077,-0.23538
-0.03293,-0.15233,0.43527,0.13334,0.11464,0.11206,0.087723,-0.21053
-0.25146,-0.093683,-0.29478,0.26574,0.045004,0.037227,0.057299,0.10753
-0.15385,-0.025717,0.29217,0.15282,-0.15766,-0.15378,-0.13624,0.016081
0.15779,-0.010227,0.008525,-0.12598,0.045237,0.093018,0.10055,0.2196
0.098037,0.025188,-0.35686,-0.56129,-0.065336,-0.027778,-0.037427,-0.20983
0.035602,-0.064821,0.03837,-0.010857,-0.0284,-0.016777,0.019712,-0.11422
-0.06638,0.082565,0.1673,0.4721,0.1095,0.047533,-0.0096594,0.26537
0.052378,0.095375,-0.32023,-0.087994,-0.026112,-0.077103,-0.04765,0.069822
0.003576,-0.016668,0.53486,0.43419,0.080977,0.070492,0.05414,-0.2016
-0.093807,-0.011063,0.19624,-0.32896,-0.099987,-0.048262,-0.016621,0.26994
-0.043491,-0.12362,-0.60929,-0.30818,-0.021835,0.0047658,-0.001772,-0.22053
0.099793,0.11146,0.33594,0.073262,0.057652,0.058353,0.013209,0.0285
-0.032245,0.17466,0.55453,0.18887,0.013238,-0.043201,-0.033698,-0.046402
0.11303,0.069778,-0.86666,-0.13456,-0.022722,-0.018303,-0.024911,-0.070134
-0.021823,-0.25329,-0.10344,0.070755,0.019505,0.047181,0.071036,0.052239
0.060189,0.047568,0.015661,0.046389,-0.0012964,0.020224,0.04318,-0.044454
-0.31563,-0.39444,-0.31897,0.065605,-0.054357,-0.099651,-0.10095,-0.15472
0.37984,0.001291,0.49165,-0.1448,0.0084799,0.054079,0.044396,0.27827
-0.30764,0.41849,0.29749,-0.029514,0.0074962,-0.011533,0.0020085,0.15431
-0.010747,-0.06777,0.080895,0.092129,0.021029,0.06997,0.0056033,-0.088845
0.084349,0.093807,-0.028779,-0.00519,0.010423,-0.045744,-0.039129,-0.11613
0.10494,-0.023326,0.24436,0.062732,0.0074504,-0.023058,0.00027479,0.11761
0.092985,0.0038868,-0.71618,-0.16367,-0.042028,-0.0025694,0.037816,-0.16316
-0.13599,-0.26311,-0.05163,-0.019184,0.042155,0.05519,0.042498,0.25844
-0.087072,0.26625,0.057028,0.043825,-0.059974,-0.044338,-0.05545,-0.2204
-0.15674,-0.25654,-0.16522,-0.036961,-0.027973,-0.073592,-0.083397,-0.22497
0.13246,0.32695,0.7331,0.37863,0.12243,0.077881,0.053248,0.026501
0.17855,0.026843,-0.13253,-0.16357,-0.023159,-0.042087,-0.011931,0.15223
0.065791,-0.036243,-0.099866,-0.1728,-0.0043136,0.090584,0.11223,-0.0029866
-0.0053713,-0.18503,-0.32714,-0.041274,-0.02475,-0.039559,-0.050632,0.16294
-0.08499,-0.18497,-0.13671,0.057735,-0.053776,-0.018816,-0.05543,0.22007
0.034873,0.16993,0.43812,0.09973,0.080073,0.058206,0.097246,-0.012376
-0.16356,-0.036976,-0.057579,-0.21276,-0.060887,-0.051898,-0.085657,-0.50472
-0.15767,0.0057367,0.17172,0.14354,0.031229,0.032316,0.043319,0.21019
0.16261,0.016092,-0.062001,0.020369,-0.010457,-0.073235,-0.07143,-0.23597
0.04935,0.078401,-0.039293,0.004045,0.017663,0.10706,0.092842,0.13306
-0.0023479,0.12652,-0.36738,-0.053371,-0.040098,-0.12255,-0.089211,0.091302
0.13568,-0.1038,0.48863,0.41901,0.090238,0.089637,0.085596,0.3276
-0.13544,0.0028911,-0.42734,-0.55471,-0.083087,-0.068154,-0.030712,-0.6328
-0.056224,-0.19081,-0.078742,-0.067494,-0.020768,-0.0087938,-0.046714,0.32138
-0.040453,0.058297,-0.15609,0.29562,0.066283,0.058246,0.022976,0.090255
0.1216,0.40638,0.46882,-0.073802,-0.0018181,0.0251,0.015363,-0.075034
0.15401,-0.3027,-0.00017767,-0.010871,-0.0066899,-0.013165,0.0017173,0.029133
0.092564,0.26868,0.44265,0.24279,0.035571,-0.040002,0.0061635,-0.18338
-0.32394,-0.11722,-0.16044,-0.30484,-0.086452,-0.039391,-0.033491,-0.025854
0.15175,-0.53055,0.10631,0.080233,0.040909,0.050972,0.023255,0.2974
-0.13806,0.23566,-0.7243,-0.20443,-0.035715,0.027209,0.043065,0.081953
-0.16193,-0.15537,-0.2431,0.14446,-0.019515,-0.0024934,-0.045203,-0.2358
0.18355,0.31304,0.66461,0.30486,0.12867,0.077624,0.069984,-0.062743
-0.05167,0.040559,-0.063271,-0.053255,-0.059698,-0.09323,-0.081045,-0.070666
0.05792,-0.20747,-0.25965,-0.20503,-0.037455,-0.016201,0.0088345,0.18658
0.023487,-0.051585,0.27556,0.0046003,-0.0074484,-0.027896,-0.020085,-0.016132
0.034872,0.46185,-0.42888,-0.010668,0.061799,0.043467,0.027586,0.018284
-0.016484,-0.13168,0.2253,-0.17993,-0.079586,-0.067278,-0.043028,-0.23979
0.12638,0.090562,0.2095,0.14673,0.044958,0.015733,0.018742,0.14039
-0.16385,0.0025047,0.43009,0.19799,0.029054,0.04353,0.026118,-0.052036
0.25807,-0.20173,-0.36531,-0.18004,-0.033775,-0.014192,-0.012504,0.37715
-0.32997,0.13469,-0.23574,-0.016461,0.043708,0.12447,0.09068,-0.22275
0.12398,-0.11727,0.26675,0.25286,0.019098,-0.048053,-0.13314,0.066991
-0.10819,-0.69211,-0.54238,-0.28526,-0.12331,-0.10223,0.057827,-0.31958
0.082863,0.26525,0.49754,0.087962,0.077514,0.086519,0.045742,0.29408
-0.19205,0.042168,-0.22408,-0.073465,-0.073417,-0.076115,-0.060752,-0.016041
0.11643,0.5363,0.22361,0.096424,0.010314,0.010962,0.026773,-0.12563
0.003405,0.1367,-0.43735,0.1821,0.13396,0.042802,0.0032656,0.20856
0.08085,-0.14468,0.18832,-0.16939,-0.022239,0.027242,0.0015585,-0.11237
0.18641,0.1936,0.19945,0.056534,-0.067233,-0.11355,-0.063858,-0.49859
-0.12479,-0.42771,-0.094841,-0.32034,-0.02423,0.027138,-0.1141,0.3902
-0.18174,-0.011486,-0.06664,0.0046794,-0.026082,0.020135,0.18769,-0.23893
0.091812,-0.084707,0.19892,0.25853,0.04406,0.037686,0.0064305,0.43696
0.35754,0.16976,0.036355,-0.066169,0.013674,-0.029482,-0.01666,0.2624
-0.49618,-0.23452,-0.17481,0.20269,0.03809,0.052749,-0.0064255,-0.2951
0.22435,0.31122,0.24062,-0.15383,-0.00098259,-0.013092,0.013378,0.30062
-0.19232,-0.30169,-0.065861,0.17616,0.0047007,-0.0012822,-0.043921,-0.54012
-0.089325,0.33459,-0.48904,-0.23009,-0.047395,-0.022098,0.015991,-0.11009
0.24584,-0.074972,0.15572,0.03284,0.029609,0.0096318,0.051426,0.0019352
-0.12223,-0.46645,-0.26559,-0.2387,-0.10036,-0.031539,-0.07134,0.28667
0.17567,0.51221,1.0522,0.50217,0.063119,-0.012813,-0.0091466,-0.20904
-0.077751,0.079067,-0.77186,-0.55646,-0.041533,-0.04313,0.003479,0.34409
0.0086498,-0.033351,0.093288,0.50838,0.14166,0.10488,0.05278,-0.22385
0.0046844,0.047384,0.37777,-0.27847,-0.08117,0.0025634,-0.040231,0.18314
0.18242,-0.056427,-0.30517,0.068786,-0.04457,-0.083403,-0.032402,-0.010844
-0.23343,-0.58131,-0.13922,-0.042365,0.010376,0.090069,0.053883,-0.18668
0.013064,0.31543,-0.058412,0.021691,0.0061984,-0.031119,0.039891,0.094633
0.045476,0.2903,0.63529,0.19091,0.075822,-0.0092712,-0.065873,-0.18152
-0.25405,-0.34267,-1.1269,-0.40219,-0.070257,-0.078985,-0.05996,0.016594
0.19281,0.028356,0.71766,0.42917,0.05143,0.11072,0.096598,0.18103
-0.14421,0.16405,0.18271,-0.19878,-0.02124,-0.011295,0.028332,-0.11862
0.37705,0.32506,-0.14155,0.1036,0.046437,0.069687,0.015753,0.13202
-0.015079,-0.23618,-0.2524,-0.21126,-0.082503,-0.084624,-0.043537,0.28296
-0.16263,-0.21311,0.50052,0.23916,0.052264,0.0096425,-0.009655,-0.35487
0.037418,0.082966,0.16609,-0.27156,-0.049346,-0.03042,-0.023716,0.10013
-0.24201,0.082338,-0.8853,-0.063195,-0.058773,-0.095109,-0.070243,-0.22764
-0.055143,-0.35567,0.13281,0.16175,-0.0377,0.01154,-0.0084323,-0.18175
0.13682,0.28382,0.13451,0.10687,0.12422,0.11844,0.13867,0.12914
0.20781,-0.25068,0.35689,0.084752,-0.025274,-0.10183,-0.13629,0.034123
0.03877,0.39801,-0.16384,-0.11594,0.13156,0.25739,0.18265,0.64334
0.056958,0.46147,-0.24155,0.22276,0.079242,0.016519,0.025339,-0.30856
-0.12301,-0.39138,0.29464,-0.36883,-0.22154,-0.18406,-0.069214,-0.11096
-0.13614,-0.46003,-0.47887,-0.079017,-0.06815,-0.1338,-0.10897,-0.26461
-0.0071139,0.027144,0.38754,0.22459,-0.00023736,-0.028422,-0.01593,0.057736
0.068709,-0.047708,-0.088784,-0.082992,0.098854,0.17862,0.13957,0.51165
-0.24339,0.25341,0.25505,0.045535,0.025583,-0.0050907,-0.10324,-0.65314
0.12126,0.17407,-0.24886,0.095167,0.021839,0.037493,0.029335,0.2432
0.040204,-0.088559,0.40938,-0.19914,-0.11572,-0.09223,-0.079583,-0.14264
0.25794,-0.0013529,-0.22188,0.03795,0.050233,0.019588,0.031126,0.26796
-0.075627,-0.10178,0.11745,0.1423,0.074229,0.052361,0.12704,-0.063858
-0.17108,0.15818,-0.27911,0.07439,-0.012612,0.029242,0.05941,0.088236
0.025444,-0.25983,-0.38067,-0.13529,-0.085363,-0.089053,-0.094179,-0.24527
0.051354,0.13675,0.62026,0.090574,0.027894,-0.0057044,-0.045272,0.012655
0.34997,0.098083,-0.91954,-0.24862,0.007051,0.03727,0.002515,0.64994
-0.21324,-0.024182,0.31083,0.15947,0.071252,0.024666,0.033357,-0.30288
-0.40479,-0.23775,0.36376,-0.091027,-0.099244,-0.066324,-0.08538,-0.47071
0.0099388,0.16064,0.44547,0.071134,-0.019363,-0.039658,-0.032855,-0.13371
-0.0067558,-0.086722,0.047811,-0.0011929,0.030367,0.042847,0.027604,0.030474
0.34411,0.37953,0.088741,0.1231,0.027142,0.041047,0.096716,0.44632
-0.044544,-0.4565,-0.55569,-0.1641,0.0026281,-0.0058322,-0.0047166,0.093005
0.086929,-0.0094727,-0.44054,-0.033782,-0.019625,0.07389,0.051544,0.16007
-0.14337,0.08686,0.20756,0.076867,0.046096,-0.024969,-0.047296,-0.31236
0.084649,0.44066,0.062185,-0.0043464,0.035197,0.0094384,0.05754,-0.1603
-0.04282,-0.12123,0.54977,0.32323,-0.045249,-0.089137,-0.11904,-0.22085
-0.16066,-0.26398,-0.28269,-0.44173,-0.11012,-0.11019,-0.062014,0.33201
0.41624,0.027433,-0.12698,0.08984,0.058561,0.14145,0.11107,0.28461
-0.42378,-0.35637,-0.14082,-0.13039,-0.031995,-0.037198,-0.06072,-0.28803
0.051915,0.24151,0.192,0.24798,0.11001,0.010427,0.024482,0.15787
-0.11083,0.11901,-0.0959,-0.049173,0.023526,0.097191,0.062489,-0.31791
0.1893,0.089783,0.043206,0.29058,-0.041317,-0.065701,-0.055543,-0.0064165
0.0231,0.061059,0.13178,-0.45096,-0.076303,-0.048477,-0.11828,0.16953
0.17282,0.13499,-0.45907,-0.061754,0.036381,0.086246,0.22601,0.24148
-0.07108,-0.13352,0.46632,0.15498,-0.054056,-0.036809,-0.007164,-0.14055
-0.13661,-0.52574,0.15461,-0.080429,0.043819,-0.0039202,-0.044699,0.15911
-0.1313,0.19255,-0.23661,0.13176,-0.01304,-0.057573,-0.090136,-0.53537
0.11083,0.14617,0.23729,0.11262,0.072705,0.075517,0.028055,-0.024159
0.021262,0.1395,0.067288,0.080984,0.012131,-0.034283,0.012864,0.040992
-0.05481,-0.0075906,-0.54358,-0.24501,-0.046536,0.011742,-0.010558,0.47641
0.070964,-0.0067311,0.21183,0.063259,0.036829,0.057812,0.067587,0.073601
0.078326,-0.1088,-0.082518,-0.15947,-0.12127,-0.13769,-0.15056,-0.22151
-0.16634,-0.19751,-0.37035,0.18731,0.09562,0.066416,0.054339,-0.18371
0.10882,0.49204,0.30601,-0.10017,-0.031913,-0.040421,0.018583,-0.0035966
0.23767,-0.26699,0.10133,-0.014226,-0.027818,0.041889,0.062501,0.30673
-0.071072,0.25233,0.46767,0.33609,0.13102,0.094292,0.060656,0.09405
-0.28812,-0.55052,-0.33136,-0.50166,-0.14147,-0.079238,-0.042494,-0.32583
-0.28988,0.083928,-0.13563,0.12957,0.037539,0.012435,-0.052768,-0.20649
0.25885,0.063908,0.23608,0.14454,-0.066218,-0.077228,-0.12761,0.11391
0.084514,0.08664,-0.45135,-0.12044,0.086489,0.064655,0.13823,0.0956
0.36703,0.50511,0.29945,0.20954,0.10523,0.10907,0.064448,0.24713
