-0.010118,0.068169,-0.44515,-0.12883,-0.028508,-0.0056554,0.011148,-0.020221
0.03309,-0.73122,-0.026206,0.021536,0.00070073,0.014692,0.018427,0.023484
-0.0090537,0.17549,0.72692,0.14153,0.037453,0.0045492,0.0024856,0.0052465
-0.019145,-0.25916,-0.33954,-0.026129,-0.0038857,0.018834,0.0024381,-0.004387
-0.036098,0.48065,-0.1335,-0.13732,-0.076103,-0.051713,-0.020764,-0.028679
0.0026538,-0.16508,-0.0043235,0.03463,0.047666,-0.0039811,0.0031659,0.0027743
0.034574,-0.1906,-0.3044,-0.026092,0.023861,0.021261,0.0038562,0.011835
0.036067,0.13227,0.792,0.20347,0.047822,0.02375,0.028101,0.021806
-0.032216,-0.066491,0.024875,-0.089922,-0.044662,-0.0046779,-0.025749,0.0011773
-0.014411,-0.068461,-0.16039,-0.032139,-0.027324,-0.0097364,-0.017147,-0.019156
0.034357,0.095899,0.076133,0.016592,0.013522,0.0081876,0.01479,0.015083
-0.034758,-0.43243,-0.92835,-0.092824,-0.016253,-0.021528,-0.01591,-0.029322
0.012319,0.33718,-0.27673,0.022115,0.031492,0.01813,0.023552,0.026985
0.011406,0.73611,0.58076,0.088087,-0.023095,-0.013468,0.015988,-0.0036967
0.0094874,-0.2592,0.68829,0.035321,0.046551,0.0088491,-0.0073431,-0.0042202
-0.079041,0.16831,-0.48066,-0.2056,-0.10316,-0.047418,-0.030797,-0.036952
0.082276,-0.77588,0.013119,0.1633,0.098369,0.052501,0.02378,0.046827
-0.052826,-0.19969,0.33807,-0.0052718,-0.036008,-0.0034958,-0.023255,-0.018121
-0.015011,0.25795,-0.63269,-0.10878,-0.037188,-0.011957,0.0078395,0.0030054
0.016472,-0.10321,0.084813,0.040916,0.048238,0.019496,0.015559,0.0090441
0.080879,0.58857,0.83663,0.10029,0.017318,0.0049575,-0.0078594,0.00031256
-0.0093875,0.28503,-0.22164,-0.0012185,-0.0049094,-0.016633,0.0079324,0.00044114
0.01874,-0.45096,0.057695,0.0013325,0.0049084,0.0091717,0.0082659,0.001666
-0.11655,-0.23469,-0.40121,-0.072691,-0.02371,-0.011679,-0.014664,-0.035171
0.037213,-0.25838,-0.2779,-0.052474,-0.036286,-0.016992,0.0016446,0.030332
-0.036218,-0.0028301,0.26328,0.068783,0.021649,0.0085872,-0.020936,0.0025386
0.07669,0.41037,-0.6375,-0.030087,0.024887,0.025791,0.019142,0.013874
-0.061949,0.25702,0.17416,-0.068483,-0.065849,-0.04364,-0.026601,-0.045447
-0.0070538,-0.43086,0.5674,0.10157,0.030459,0.0033451,0.0058067,0.003879
0.12411,0.33786,0.2947,0.10477,0.10261,0.065167,0.053718,0.059976
-0.051159,0.068403,-1.0507,-0.1528,-0.068418,-0.030012,-0.02369,-0.064854
0.053355,0.093289,0.59533,0.086648,0.040577,0.030407,0.023375,0.074656
-0.093085,-0.45014,0.46889,-0.028302,-0.078334,-0.05027,-0.024002,-0.036985
-0.10695,-0.29064,-0.099948,-0.059751,0.0046032,-0.021775,-0.017437,-0.047899
0.059512,0.06347,0.13422,0.063283,0.016248,0.0068665,0.0041076,0.0502
0.024374,0.30109,-0.29807,-0.064519,-0.011641,0.012603,-0.029414,-0.078061
0.09308,0.37056,-0.59345,0.011077,0.0075232,0.011421,0.0073897,0.060072
0.0082699,-0.20853,0.81203,0.14278,0.027537,0.019204,0.029021,0.03538
-0.02689,-0.088246,-0.082402,-0.22311,-0.02917,-0.0030187,0.0046105,0.0043807
-0.10656,-0.75729,-0.38748,0.054684,-0.037284,-0.047543,-0.018742,-0.056347
0.034084,0.73181,-0.29253,0.062213,0.065679,0.049388,0.037093,0.024818
0.018929,0.34031,-0.59814,-0.036953,0.0059216,-0.0095605,-0.015613,-0.018237
0.018607,-0.1053,0.73424,0.16234,0.032795,0.001636,0.0024105,0.016967
0.031906,-0.28805,-0.10089,-0.23206,-0.026381,-0.011296,-0.010919,0.012538
0.0031548,-0.3139,0.72022,0.34064,-0.008327,0.013726,0.006395,-0.0087308
0.025524,0.35954,0.49186,-0.2148,-0.054251,-0.025091,-0.0085289,0.015182
-0.096337,0.35371,-0.76412,-0.11027,0.0074761,0.020683,0.0066384,-0.0096915
-0.041562,-0.20028,0.74944,0.06817,0.0051202,-0.028421,-0.033969,-0.044199
-0.035623,-0.20781,-0.62702,-0.14749,-0.01396,-0.015759,-0.0050599,-0.0098172
0.16512,0.037884,-0.83486,0.11927,0.060304,0.066963,0.039118,0.062845
-0.023717,-0.0040521,0.16359,0.14381,-0.044803,-0.045406,-0.010332,-0.012933
-0.030458,-0.59184,0.36381,-0.11877,0.015029,0.022492,0.018868,-0.0020059
-0.088564,0.23488,0.54807,0.059656,-0.009938,-0.026043,-0.021484,-0.044371
0.028812,0.20796,-1.1446,-0.11694,0.04425,0.027695,0.0014442,0.0087718
0.14159,0.11821,0.82701,0.054563,0.013087,0.011591,0.02496,0.063702
-0.024661,0.39257,-0.50245,-0.10634,-0.049399,-0.012225,0.0018432,-0.0048846
0.052154,0.58642,0.83034,0.55522,0.074861,0.010537,0.0020101,0.0055621
-0.12936,-0.74814,-0.71472,-0.3217,-0.052119,-0.01418,-0.029562,-0.03067
-0.046877,-0.13834,0.051597,-0.25398,-0.086704,-0.031805,-0.022726,-0.02833
0.010034,-0.29786,0.60968,0.054715,0.033971,0.020303,0.01477,0.027712
0.19,0.0080974,-0.26074,0.25322,0.14666,0.080044,0.06761,0.082579
-0.30298,-0.48129,-0.041701,-0.42278,-0.2475,-0.1723,-0.1059,-0.16824
0.094906,0.44648,0.10325,0.0051231,0.071457,0.053002,0.010449,0.0022938
0.12728,0.93744,-0.19961,0.43727,0.12016,0.069032,0.0578,0.10269
-0.18131,-0.72715,-0.16456,-0.30469,-0.13211,-0.069185,-0.049454,-0.077293
0.279,0.32073,0.25714,0.48263,0.22857,0.13833,0.10278,0.15038
-0.28907,-0.88753,-0.42644,-0.39712,-0.17361,-0.12134,-0.10298,-0.15941
0.24601,0.56832,0.1975,0.061618,0.097418,0.088549,0.074814,0.12598
-0.023978,0.47332,0.4142,-0.12088,-0.069485,-0.037669,-0.020898,-0.040872
-0.030996,-0.038309,-0.19876,0.090961,-0.074549,-0.055656,-0.031616,-0.02795
0.082275,-0.54528,-0.69576,0.20956,0.16667,0.088477,0.065349,0.09358
-0.27148,0.47412,-0.031497,-0.11118,-0.16707,-0.12917,-0.10549,-0.15358
-0.037895,-0.63054,0.49137,-0.39575,-0.021305,0.002281,-0.0051776,-0.0042663
0.19792,0.27202,0.54866,0.30944,0.12009,0.092549,0.061838,0.088304
0.031569,-0.14699,0.58332,0.18597,0.102,0.064152,0.033627,0.038462
-0.1594,0.12812,-0.30312,-0.4506,-0.28499,-0.16023,-0.073428,-0.1298
0.01051,-0.26159,-1.0048,0.31751,0.16395,0.084291,0.030541,0.052964
0.067083,0.6605,0.45069,-0.021564,-0.010541,-0.0062712,-0.0053218,0.017162
0.19155,-0.15327,-0.57988,-0.17553,0.020906,0.0217,0.038233,0.068051
-0.16246,0.045057,0.17029,0.23285,-0.022215,-0.034691,-0.026066,-0.044018
0.051359,-0.3181,-0.36361,0.12636,0.063393,0.035468,0.012669,-0.029895
-0.051228,-0.50469,0.14037,-0.31573,-0.027319,-0.010248,-0.0020933,0.00090149
-0.10495,0.64496,1.046,-0.079403,-0.11545,-0.078468,-0.039532,-0.053507
0.35696,0.33794,0.31193,0.57508,0.22766,0.1663,0.087374,0.1893
-0.29993,0.34522,-0.75165,-0.58951,-0.27255,-0.1748,-0.114,-0.15389
-0.17035,-0.82576,-0.47627,0.041157,0.039111,0.01503,0.0044583,-0.052132
0.14388,-0.14151,0.52391,0.33185,0.12271,0.079253,0.051928,0.07252
-0.098998,-0.14411,-0.71827,-0.32856,-0.061457,-0.052638,-0.026326,-0.045598
0.29721,0.15743,0.83659,0.012159,0.095642,0.08802,0.082277,0.1405
0.27106,0.20773,0.070616,0.53368,0.14086,0.087196,0.065426,0.09198
-0.59829,-0.44822,-1.002,-0.74752,-0.3708,-0.24243,-0.21722,-0.32363
0.26807,0.74727,0.945,0.66231,0.23325,0.13072,0.094062,0.15189
-0.30907,-0.37088,-0.30907,-0.35965,-0.18665,-0.12884,-0.086291,-0.14515
0.068793,0.12166,0.52325,-0.1234,-0.059079,-0.02061,0.02329,0.06678
0.32323,0.66917,-0.2855,0.18615,0.21857,0.15113,0.11048,0.16273
-0.046466,-0.27013,-0.44624,-0.15526,-0.032666,-0.0040455,-0.020079,-0.045024
0.060321,-0.15911,-0.56741,0.033758,0.10933,0.084121,0.053221,0.052361
-0.083963,-0.28547,0.7431,0.31658,-0.011979,-0.053467,-0.052896,-0.069246
-0.20666,-0.12699,0.49447,0.18532,-0.10826,-0.089203,-0.057717,-0.074611
-0.065934,-0.81179,-0.49246,-0.61101,-0.086745,-0.03927,-0.016417,-0.018943
0.22118,0.71688,0.32823,0.30874,0.098456,0.07244,0.047243,0.074121
-0.11819,-0.35611,-0.42902,-0.37004,-0.053464,-0.02777,-0.03872,-0.053065
0.0027336,0.59185,-0.22955,0.053446,-0.07426,-0.050885,-0.0085703,-0.032828
0.28004,0.30571,0.64768,0.31118,0.20776,0.13603,0.10671,0.15895
-0.18412,0.049012,-0.11563,-0.10698,-0.12139,-0.076189,-0.059713,-0.086391
0.016752,0.27493,-0.032245,0.36717,0.032314,0.015808,0.0081485,0.0052
0.11702,0.2362,0.24647,-0.2211,0.10676,0.076264,0.037177,0.090371
-0.32103,-1.2006,-0.37317,-0.20075,-0.17106,-0.12907,-0.10519,-0.19793
0.21019,-0.052904,-0.012485,0.21753,0.15243,0.11084,0.081219,0.14018
-0.070742,0.038162,-0.53144,-0.44139,-0.1489,-0.086757,-0.04415,-0.059726
-0.14048,-0.29264,0.27525,0.020286,-0.10593,-0.0577,-0.036008,-0.048192
0.21187,0.70977,0.1142,0.12129,0.10971,0.065296,0.06645,0.10382
0.12686,0.2408,0.32436,0.3413,0.19337,0.087014,0.052047,0.067504
-0.17688,-0.095998,-0.20283,-0.028067,-0.11295,-0.070615,-0.063906,-0.10303
0.13634,0.077307,0.12372,-0.0087364,0.049776,0.037726,0.03856,0.044937
-0.23059,-0.80669,0.44585,-0.10816,-0.092361,-0.064574,-0.062731,-0.098049
-0.051334,0.38707,-0.074826,-0.18638,-0.055367,-0.018223,-0.024213,-0.039562
0.25994,0.60514,-0.42783,0.21625,0.13716,0.1142,0.091588,0.15846
-0.10143,-0.68364,-0.11195,0.020093,-0.11619,-0.08924,-0.066736,-0.12041
0.052232,0.48081,-0.18099,-0.19024,0.021021,0.035538,0.032379,0.085638
-0.044395,-0.44991,-0.65718,-0.001549,0.010467,-0.011391,-0.0012748,0.011747
-0.047149,-0.079115,0.73453,-0.054783,-0.037627,-0.034571,-0.01099,-0.044627
0.028829,0.50571,0.56619,0.22051,0.080622,0.028681,-0.0041616,-0.0050584
0.11372,0.13944,0.042337,0.33253,0.12352,0.061358,0.035139,0.060129
-0.17485,-0.51423,-0.22665,-0.47613,-0.17448,-0.08486,-0.041393,-0.07593
-0.094445,-0.23622,-0.060087,-0.33813,-0.10284,-0.034974,-0.022899,-0.046599
0.23773,0.0055024,-0.1905,0.39471,0.11102,0.070229,0.059071,0.11615
-0.084937,-0.13963,-0.34831,0.03401,0.012702,-0.003971,-0.014723,-0.049438
0.10873,0.86831,1.0439,0.086192,0.030394,0.0075476,0.0050949,0.026137
0.044319,0.69409,-0.41677,0.26041,0.13911,0.080753,0.031927,0.021854
-0.15421,-0.84121,-0.34789,-0.14044,-0.10776,-0.073989,-0.028556,-0.031536
-0.10499,-0.048737,-0.4806,-0.45364,-0.1329,-0.066474,-0.051746,-0.063935
0.097637,-0.71517,0.057723,0.24218,0.055805,0.048457,0.040365,0.057595
-0.14025,-0.25099,0.3822,-0.58367,-0.1503,-0.10402,-0.064538,-0.080551
0.20512,0.55907,0.53578,0.59375,0.14087,0.10942,0.063703,0.11612
0.25175,0.35969,0.3077,0.33127,0.21257,0.10359,0.058572,0.054775
-0.35848,-0.22158,-0.98642,-0.36879,-0.22204,-0.1362,-0.086962,-0.15418
0.0088068,0.42473,0.41705,0.089392,0.0031923,0.0081727,0.018499,0.052732
0.058528,-0.047991,-0.027341,-0.17545,0.069634,0.03754,0.031873,0.027935
-0.11374,-0.3091,0.33507,0.28292,-0.084204,-0.04747,-0.038545,-0.056081
0.1655,0.4551,-0.60793,-0.40232,0.057491,0.042522,0.026236,0.043166
-0.032359,-0.035196,0.48499,0.55,-0.037212,-0.05192,-0.023814,-0.010366
-0.10549,-0.23761,-0.62892,-0.54795,0.05208,0.028109,0.0063095,-0.021905
0.078085,-0.63036,-0.41641,0.37363,0.049819,0.047375,0.014479,0.038833
-0.03051,-0.66516,0.73668,-0.19366,-0.015201,-0.0031026,-0.01571,0.01427
-0.051621,0.60688,0.0015681,-0.4381,-0.12982,-0.054357,-0.02268,-0.073718
0.20606,0.59625,0.32479,0.52994,0.063231,0.02508,0.047283,0.062313
0.1366,0.83729,0.373,0.24818,0.10152,0.054373,0.04483,0.09278
-0.33435,-0.58343,-0.63909,-0.19904,-0.1484,-0.092254,-0.077641,-0.16309
0.26673,-0.043256,0.16068,0.25688,0.055905,0.038037,0.031001,0.083257
-0.13183,-0.32036,-0.34647,-0.29961,-0.018902,0.015805,0.0035206,-0.0039766
-0.49029,-0.47522,-0.72361,-0.89289,-0.20713,-0.18166,-0.12848,-0.21303
0.35031,0.9635,0.74004,0.89098,0.25875,0.15767,0.10449,0.18405
0.21463,-0.25719,0.47338,0.27142,0.20873,0.12097,0.078397,0.11869
-0.28265,-0.37144,-0.5576,-0.1408,-0.21497,-0.11084,-0.10407,-0.17293
0.26231,0.18713,0.45384,-0.14075,-0.034639,0.010155,0.034702,0.099922
-0.067716,-0.41045,0.060695,-0.28897,-0.077737,-0.054336,-0.027848,-0.061511
-0.097607,-0.21778,-0.70341,0.025647,-0.00029317,-0.0070058,0.0057173,-0.0080544
0.17415,0.618,0.49675,0.31998,0.18973,0.097578,0.04966,0.065137
-0.16677,0.1513,0.29921,-0.14765,-0.10964,-0.045429,-0.013368,-0.061061
0.057513,0.66011,-0.23635,0.059873,-0.0083848,-0.030133,-0.011945,0.026628
0.062918,-0.76876,-0.5019,0.25391,0.024088,0.025808,0.0064182,0.030307
0.080555,0.37767,0.51985,0.034417,0.065277,0.043776,0.017612,0.034868
-0.25203,-0.81222,-0.42311,-0.4518,-0.11969,-0.070403,-0.05706,-0.10118
-0.046568,-0.14209,0.65611,-0.065248,-0.031106,-0.012342,-0.014842,-0.018973
0.21121,0.54512,-0.43105,0.19375,0.14344,0.069372,0.058205,0.078254
-0.14298,0.13389,-0.62007,-0.2601,-0.088137,-0.051829,-0.033121,-0.067005
0.024348,0.37746,0.79566,0.55901,-0.030268,-0.03992,-0.022931,-0.0401
0.13638,-0.42203,-0.17325,-0.17515,0.12984,0.12084,0.081283,0.13622
-0.13355,-0.39002,-0.089242,-0.12473,-0.068485,-0.06166,-0.04053,-0.060918
-0.0029951,-0.38448,-0.5427,-0.18663,-0.070406,-0.040577,-0.021067,-0.014044
0.22392,0.69895,0.7846,0.18681,0.12406,0.1058,0.084905,0.13607
-0.11713,0.44962,0.47893,0.23765,-0.040026,-0.052546,-0.058835,-0.11117
-0.28514,-0.11353,-0.065023,-0.30082,-0.18812,-0.1098,-0.093368,-0.13177
0.15545,-0.97225,0.22533,0.1086,0.16344,0.08193,0.074485,0.096433
0.17086,0.59387,-0.67012,0.065095,0.099709,0.068944,0.053497,0.072059
0.055314,0.4527,-0.73636,0.089683,-0.059954,-0.039918,-0.016257,-0.0030529
-0.013829,-0.052019,0.0004984,-0.28063,0.027305,0.028372,0.021079,0.049818
-0.19432,-0.61592,0.23945,-0.094047,-0.16259,-0.10137,-0.084645,-0.11352
0.16985,0.19823,0.13806,0.28963,0.21392,0.12568,0.065171,0.077496
-0.27942,-0.33613,0.79472,0.0037082,-0.18655,-0.11033,-0.075851,-0.14177
-0.015941,0.31241,-0.91028,-0.44284,-0.011513,0.01175,0.01652,-0.011843
0.26879,0.28451,0.79202,0.31873,0.13888,0.071121,0.077645,0.14128
-0.19436,-0.35005,-0.58336,0.31342,-0.06184,-0.063834,-0.05551,-0.062965
-0.057654,-0.41311,0.0048828,-0.25432,-0.15112,-0.071681,-0.053914,-0.0679
0.18969,0.66311,0.72604,-0.094505,0.13013,0.0875,0.067442,0.10443
0.19755,0.97684,0.28465,0.19189,0.14981,0.078211,0.050999,0.095205
-0.081243,-1.0143,-1.1793,-0.16822,-0.076469,-0.037103,-0.033079,-0.064664
-0.12504,-0.00016796,-0.31509,0.044254,-0.03371,-0.040219,-0.029053,-0.063804
0.063355,-0.3485,0.58121,-0.15461,-0.0042494,0.028931,0.023268,0.057085
0.01209,-0.32297,0.16145,0.54049,0.14349,0.067767,0.044938,0.046203
-0.25035,0.36189,-0.32577,-0.70566,-0.22435,-0.12777,-0.089777,-0.15274
-0.038395,0.33689,0.081807,-0.0096724,-0.02246,-0.011502,-0.006393,-0.0096555
0.20954,-0.15757,0.68429,0.48801,0.061544,0.025633,0.021415,0.060846
-0.053426,0.063172,-0.90472,-0.0099633,-0.011049,-0.00072493,-0.02196,-0.042803
-0.053256,0.13473,0.30346,-0.14549,-0.099033,-0.066877,-0.011327,0.023551
0.1327,-0.21622,0.04695,-0.037772,0.15749,0.10095,0.069179,0.057367
0.16133,0.43762,0.086354,0.14665,0.14933,0.096741,0.063485,0.090444
-0.1624,-0.040685,0.25946,-0.17281,-0.13159,-0.1029,-0.083049,-0.11904
-0.072922,-0.39799,0.36427,0.095656,-0.045395,-0.0059767,-0.018951,-0.016269
0.30455,0.41637,-0.6375,0.41211,0.18815,0.11373,0.091541,0.16433
-0.38951,-0.63133,-0.79994,-0.66832,-0.23667,-0.14259,-0.10331,-0.21022
-0.16283,-0.46362,-0.060226,-0.19069,-0.12528,-0.079863,-0.056736,-0.061901
0.15691,0.2171,0.38587,0.16818,0.15491,0.083114,0.059422,0.077998
0.39848,0.70104,0.46607,0.41938,0.16673,0.1122,0.1047,0.20177
-0.36709,-0.1677,0.70769,-0.16073,-0.17491,-0.12499,-0.10031,-0.17472
0.14202,0.54706,0.065866,0.28127,0.053069,0.059641,0.046278,0.058202
0.019765,-0.056365,-0.66153,-0.52779,-0.077703,-0.036459,-0.025496,-0.036598
-0.1481,-0.40446,-0.35572,0.066931,-0.011385,-0.014369,-0.018454,-0.052523
0.044118,-0.11145,0.44022,0.60947,0.11217,0.055872,0.020743,0.049773
0.15808,-0.063778,-0.63353,-0.3492,0.019734,0.0023955,-0.0015669,0.036068
-0.025896,-0.20802,0.33276,-0.10197,-1.2628e-05,-0.011007,0.00047969,-0.023364
-0.14926,0.17631,-0.73239,-0.41765,-0.073,-0.02391,-0.012432,-0.035055
0.0061663,-0.17172,0.093167,0.56123,0.026047,-0.01354,-0.0094783,-0.0073517
-0.14581,0.13754,0.83242,-0.064042,-0.063636,-0.011858,0.0087813,0.004305
0.26994,0.70567,0.067984,0.020453,0.11766,0.097697,0.080786,0.13185
0.097548,-0.90509,0.72209,-0.11994,-0.0012028,-0.0056206,0.010645,0.046299
-0.28738,0.62394,-0.42785,-0.33302,-0.1705,-0.12664,-0.15518,-0.26863
0.13146,-0.336,-0.31056,0.27586,0.078873,0.070776,0.075355,0.11645
0.011068,0.044953,-0.26973,0.030605,0.013437,-0.0065723,0.0071542,0.014257
-0.077506,0.18042,0.0085536,0.41037,-0.021741,-0.037544,-0.046716,-0.097929
0.17117,-0.18167,-0.65076,-0.09142,0.14673,0.088231,0.070851,0.14825
-0.13279,0.25255,0.56571,-0.39674,-0.11249,-0.057926,-0.045377,-0.058238
-0.15273,-0.41084,-0.032697,0.016634,-0.040323,-0.022031,-0.027199,-0.059652
0.27603,0.57518,0.069066,0.068682,0.035946,0.032416,0.055903,0.11408
-0.080394,-0.96382,0.30089,0.093205,0.061979,0.050892,0.032555,-0.020505
-0.096773,0.30587,0.12292,-0.17744,-0.11086,-0.076256,-0.073733,-0.11931
0.008011,-0.22746,0.18031,0.26291,0.047938,0.025273,0.025721,0.075168
0.045888,0.65977,-0.61163,-0.21978,-0.040942,-0.0049185,0.0020109,0.022961
0.023637,0.6042,-0.38015,0.092489,0.097542,0.027279,0.025949,0.027328
0.11169,-0.65685,0.385,0.074333,0.071117,0.050357,0.041679,0.070928
-0.11356,-0.027024,0.18389,-0.2197,-0.15301,-0.10075,-0.092513,-0.13704
-0.060114,-0.37022,0.054451,0.13222,0.048937,0.018619,-0.00245,-0.01211
0.1142,0.60769,0.38623,0.11445,-0.034653,0.0020372,0.02237,0.038513
-0.11518,-0.4919,-0.50779,-0.21063,-0.044462,-0.025201,-0.010235,-0.02453
0.087191,-0.0099223,0.11021,0.12554,0.090382,0.046987,0.017336,0.025705
-0.13007,0.059123,0.11484,0.28676,-0.074391,-0.038237,-0.01921,-0.0442
0.022939,-0.41029,-0.88051,-0.59434,-0.014045,-0.0063913,-0.0018339,0.0092573
0.11004,0.47248,0.25725,0.22435,0.046154,0.010636,-0.0078416,-0.0078226
0.21879,0.40972,0.21883,0.063314,0.099455,0.083804,0.072788,0.148
-0.50069,-0.12476,0.26648,-0.077037,-0.072216,-0.052228,-0.040815,-0.14739
0.21873,0.16065,0.61492,0.46021,0.11732,0.071219,0.057698,0.12207
0.1126,-0.62465,-0.53128,-0.55064,-0.1836,-0.11652,-0.061495,-0.082735
-0.20901,0.0096004,-0.42425,0.00087445,-0.030016,-0.014351,-0.031474,-0.043442
0.14467,0.099419,0.14058,0.069049,0.093331,0.04911,0.014667,0.036211
0.095181,0.31342,0.22281,0.25666,0.022074,0.018825,0.014225,0.038382
-0.053504,0.3833,-0.59859,-0.021121,0.060766,0.050878,0.04526,0.056271
-0.083521,-0.62222,0.52552,-0.13836,-0.19681,-0.15158,-0.095278,-0.1761
0.0042993,-0.60973,-0.08918,-0.21164,-0.00048714,0.0053765,0.0068415,0.013036
0.037484,0.21042,0.73171,0.18895,0.17332,0.11571,0.086186,0.12376
-0.23423,0.71417,-0.21132,-0.022787,-0.12062,-0.070414,-0.075867,-0.11715
0.20483,-0.23873,-0.31006,0.12113,0.070663,0.072031,0.059748,0.11083
0.058071,-0.039794,-0.46736,-0.021191,0.090573,0.01946,0.016311,0.026598
-0.056997,0.12097,-0.041533,-0.13888,-0.13172,-0.079978,-0.058038,-0.088554
0.12555,-0.15105,-0.11986,0.22723,0.090733,0.05463,0.03945,0.062169
-0.066002,0.68631,0.089651,-0.065091,-0.039342,-0.022298,-0.011908,-0.013552
-0.053453,-0.37127,0.74845,-0.0091972,-0.053311,-0.021799,-0.024898,-0.073652
0.030361,-0.73275,-0.27109,-0.37901,-0.021253,0.001567,0.023774,0.077109
-0.23652,0.2814,0.11212,0.25542,-0.083263,-0.076876,-0.069011,-0.1316
0.044173,0.041231,-0.11838,0.051282,0.10507,0.040177,0.025001,0.034575
0.20024,0.021011,-0.13209,0.0021233,-0.033811,0.0015491,0.016928,0.07557
0.11395,0.095196,0.13914,0.21884,0.13316,0.11213,0.063182,0.061507
-0.074766,-0.17393,-0.20122,-0.21126,0.051098,0.0046758,-0.00020268,-0.00010056
0.12547,0.60283,0.33065,-0.099618,-0.022771,0.0069657,0.014301,0.02321
-0.3016,-0.72691,-0.43856,-0.016012,-0.097109,-0.08463,-0.080814,-0.13446
-0.075037,0.57171,0.63099,0.047375,-0.094632,-0.075324,-0.04334,-0.043474
0.086624,-0.60604,-0.70165,0.043121,0.015337,0.034498,0.040884,0.038593
0.15284,0.38977,0.70828,0.29053,0.11548,0.08064,0.054863,0.073234
-0.0081258,0.3008,-0.54594,-0.31328,-0.028206,-0.022679,-0.01676,-0.0090872
-0.043514,0.23541,-0.68061,0.019406,-0.024329,-0.017246,-0.025266,-0.03566
-0.12416,-0.54039,0.54304,0.15459,-0.082832,-0.043141,-0.025117,-0.013586
0.00057485,-0.062228,0.4973,-0.36944,0.0081818,-0.013877,-0.00059346,-0.044022
0.26824,0.02903,0.5069,0.22049,0.23377,0.15691,0.11072,0.18552
-0.21234,-0.68436,-0.73021,-0.083256,-0.17144,-0.13217,-0.08988,-0.12231
0.089001,-0.01507,-0.35436,-0.077042,0.018828,0.025062,-0.0012709,0.0082176
0.061558,0.56981,-0.14889,0.53663,0.077305,0.065753,0.055725,0.068229
0.055651,0.79813,0.92918,-0.11662,0.057712,0.044095,0.025936,0.033254
-0.28107,-0.4328,-0.43748,-0.56753,-0.29873,-0.20449,-0.13785,-0.22248
0.11384,-0.21392,0.77004,0.37184,0.20257,0.1243,0.087698,0.14444
-0.0010373,3.2822e-05,-0.59977,-0.09501,-0.016833,-0.0087622,-0.023813,-0.029843
-0.13202,-0.069957,-0.15688,0.086937,-0.081741,-0.056689,-0.034462,-0.072772
0.082132,0.013054,-0.75842,-0.12897,0.0084507,0.019934,0.0329,0.071344
0.033793,0.46615,-0.079278,-0.078636,0.051499,0.018482,0.01484,-0.0026611
-0.018049,-0.42258,0.60548,0.43306,0.040523,0.017593,-0.0021706,0.010807
0.27058,0.004452,0.59092,-0.27403,0.015353,0.048917,0.036881,0.096645
-0.19494,-0.44333,-0.017099,-0.13807,-0.093893,-0.074858,-0.047638,-0.10449
-0.041426,0.3286,0.0017867,0.17614,0.017481,-0.017863,-0.0059535,-0.0071308
0.174,0.21509,0.25574,0.21492,0.099058,0.086773,0.059916,0.10666
-0.21523,-0.52708,-0.92259,-0.35003,-0.08429,-0.073957,-0.069375,-0.1235
0.046604,0.56312,-0.17788,0.3332,0.06024,0.061837,0.050858,0.059221
-0.088608,0.24328,0.54904,-0.57822,-0.10894,-0.076768,-0.048691,-0.064668
-0.11325,-1.0431,-0.09478,0.12805,-0.014533,-0.013718,-0.032483,-0.08152
0.26262,0.73903,0.25918,0.28948,0.085131,0.063159,0.068043,0.15707
0.16571,0.76262,-0.05677,0.11051,0.1274,0.083465,0.041984,0.057672
-0.19855,-0.69993,0.17488,-0.1425,-0.18436,-0.12449,-0.071349,-0.10568
-0.077657,-0.49489,-0.7255,-0.18059,0.0099046,0.010046,0.001907,0.0037367
0.030753,0.18714,-0.50028,0.049979,0.023643,0.011195,0.020118,0.027401
-0.15267,-0.15665,0.63724,0.1335,-0.079489,-0.057728,-0.039538,-0.080712
0.21701,0.26069,0.1339,0.63836,0.1548,0.101,0.057917,0.078574
0.12439,0.45362,0.39223,-0.92158,0.008775,0.011556,0.0083068,0.037047
