0.0045547,0.11416,-0.094314,-0.020344,-0.0073358,-0.0099595,0.0055982,0.20984
0.11355,-0.38082,0.07578,0.026765,0.024579,0.0065647,0.022893,0.19293
-0.018089,0.59958,0.021962,0.0043008,0.002744,0.008013,-0.01459,0.17724
0.071448,-0.30499,-0.021685,0.02943,0.0051227,0.017584,0.017918,0.15003
-0.17197,0.2707,-0.11799,-0.038626,-0.015446,-0.019716,-0.02818,-0.57298
0.0019026,-0.1991,-0.032756,0.026424,0.0031709,0.012996,0.026752,0.19887
-0.00078839,-0.48989,-0.17216,-0.010146,0.0058962,-0.017335,-0.043773,-0.13322
0.046118,0.11582,0.28431,-0.023708,-0.015428,-0.0092667,-0.0051844,-0.051622
0.016904,0.24281,-0.061667,0.016659,0.0092638,-0.0018405,0.025605,0.47601
-0.050371,0.30591,0.0084732,0.016983,0.0095535,0.0050972,0.0098153,-0.24557
0.069631,-0.10748,0.29095,-0.015,-0.022327,-0.0038382,-0.013273,-0.02196
0.02404,-0.33156,-0.23876,-0.0010782,0.0075521,0.010676,0.050171,0.27801
0.022598,-0.13817,-0.13672,-0.019139,-0.0099094,0.001979,-0.096825,-0.51952
0.087881,0.098746,0.13479,0.0014775,0.0037228,0.009245,0.053277,0.44282
-0.32731,0.66076,-0.018928,0.022106,0.0096672,0.0090278,0.031306,-0.43037
0.042962,-0.35889,-0.07481,0.0040596,0.0081227,-0.014414,-0.030413,0.031545
0.035566,0.0073889,0.053461,-0.0055025,0.0069888,0.0090508,0.023918,0.062187
0.08936,-0.2106,-0.015869,0.0013817,0.0062413,-0.014509,-0.0091324,0.27047
0.096481,0.079542,-0.031248,-0.0065452,-0.017662,-0.0070969,-0.012441,0.038914
-0.043264,0.0019055,0.079369,0.0018129,-0.010171,-0.0078063,-0.024834,0.093928
-0.078892,-0.12353,-0.018378,0.0027543,-0.0026546,-0.00094136,-0.0067223,-0.3301
0.0056693,0.086205,-0.10463,-0.0040398,-0.002986,0.0058392,-0.019858,-0.18596
0.0071792,-0.063865,0.19603,0.012372,0.012283,0.020541,0.053787,0.37083
-0.020294,0.16861,-0.10109,-0.0029301,-0.0036486,0.0042846,0.01186,-0.2211
0.047264,-0.02924,0.081119,-0.010991,0.0040181,0.0040797,0.0268,0.14893
0.005562,0.18528,-0.094713,-0.0039478,0.004145,-0.019074,-0.049592,-0.31484
0.095645,0.083891,0.065162,0.002781,0.0046255,0.0051248,0.0091194,0.435
-0.10529,-0.523,-0.057784,0.0017112,-0.010139,-0.017149,-0.024111,-0.18019
-0.10561,-0.043738,0.074664,-0.0067693,-0.001123,-8.1066e-05,-0.017239,-0.16999
0.016399,0.55122,-0.1002,0.0089556,0.0081406,0.0092991,0.075666,0.18135
-0.090595,-0.48911,-0.097593,-0.028978,-0.021551,-0.0048082,-0.043252,-0.044182
0.09733,0.28051,-0.11201,0.05139,0.026828,0.02773,0.062635,0.35238
0.33079,-0.045252,0.33404,-0.01569,-0.0031332,0.0051845,-0.036973,0.094101
-0.14738,0.027652,0.045923,-0.0039896,-0.010007,-0.025694,-0.053253,-0.63326
0.007303,0.15039,-0.023032,0.023503,0.00612,-0.002464,0.076485,0.46809
-0.18091,-0.40799,-0.09975,-0.02752,-0.017283,-0.011033,-0.22529,-0.71495
-0.054744,0.051652,-0.16942,0.022105,0.013565,0.019033,0.23764,0.61385
-0.011479,0.29103,0.24352,-0.03113,-0.010628,-0.01363,-0.033703,-0.20011
0.035956,0.048091,0.044456,-0.0077146,0.019631,0.0005895,0.016346,-0.40437
0.080563,-0.42437,-0.15763,-0.009148,0.0029086,0.015047,-0.03336,0.47914
0.03657,0.2659,0.0047494,0.035158,-0.0059819,-0.0013315,-0.018394,-0.082206
-0.018606,-0.2325,-0.029871,-0.022808,-0.030377,-0.0094007,-0.087252,0.046478
-0.00065291,0.14155,-0.21294,0.028379,0.031354,0.0064434,0.13461,0.15118
0.22091,0.4633,0.41066,-0.021761,-0.023889,-0.0086054,0.037027,-0.13556
-0.090913,-0.091505,-0.078994,0.022447,0.030442,0.031207,-0.021547,0.72125
-0.12598,-0.41014,-0.086703,0.0049804,-0.0010141,-0.0071306,-0.026383,-0.29997
-0.15151,-0.12969,-0.08057,-0.0037597,-0.0089477,-0.014405,-0.056257,-0.43118
-0.05079,0.42602,0.18125,-0.01161,0.0065789,-0.0063169,0.052642,-0.37026
0.11435,-0.40937,0.009936,-0.026483,-0.024783,-0.029715,-0.066667,-0.068452
0.048634,0.081844,-0.08883,-0.0016442,-0.0014692,0.017085,0.016105,0.043795
0.074459,0.0090771,-0.016089,0.039307,0.021876,0.017071,-0.034148,0.35323
-0.024891,0.076226,-0.008902,-0.020991,-0.0093685,0.0016603,-0.083799,0.11725
-0.044735,0.23753,-0.053998,-0.010861,-0.0091932,-0.013424,0.26615,0.063823
0.17981,0.32229,0.19851,0.046039,0.038075,0.049936,0.0080295,0.56946
-0.093414,-0.44954,-0.025564,-0.038034,-0.031617,-0.027136,-0.1241,-0.81081
-0.091525,-0.21737,-0.28064,0.017925,0.0082521,-0.018292,0.13477,0.14792
-0.026338,-0.19075,0.12986,0.010576,0.0013486,0.0059003,-0.16925,-0.5037
-0.039321,-0.14156,0.043921,-0.028974,-0.0055672,-0.0016683,0.033601,0.17317
0.119,0.83798,0.0031411,0.0086163,-0.0048079,-0.01772,-0.29597,0.59169
0.057978,0.12426,0.1274,-0.017179,-0.004301,0.0045726,0.40475,-0.28995
-0.073405,-0.37551,-0.088613,0.034494,0.027119,0.034034,-0.098008,0.33678
-0.0084933,-0.25459,-0.064771,-0.031337,-0.012149,0.016168,0.016884,0.061244
-0.074074,-0.11453,0.12212,0.020099,0.010728,-0.048742,0.10184,-0.46421
0.043703,-0.041617,-0.26968,-0.021735,-0.021355,0.011514,-0.20966,-0.14851
-0.052578,0.64316,-0.014032,0.030996,0.0089273,-0.021479,-0.011003,-0.30524
0.0046257,0.0405,0.34082,-0.0089913,-0.023253,0.00099729,0.08836,0.32385
0.074133,-0.45985,-0.097873,-0.032258,-0.008352,0.016605,-0.021498,0.068304
0.060662,-0.1945,0.057889,0.039219,0.038132,0.025345,-0.068133,0.33604
0.16499,0.3988,0.031966,0.002067,0.0068702,0.011419,0.32997,0.042349
-0.10781,-0.031061,-0.13105,0.0043738,0.0071863,-0.025502,-0.21138,0.14865
-0.07286,-0.17039,-0.12783,-0.040181,-0.031371,-0.015519,0.017643,-0.017188
-0.23204,0.11556,-0.013203,0.024311,0.01601,0.017511,0.047702,-0.72137
0.17175,0.055877,0.33907,0.033552,0.01633,0.010768,-0.23819,-0.14407
-0.095232,-0.23728,-0.33427,-0.051599,-0.022723,-0.028094,0.12193,0.14435
0.093878,0.16846,0.094871,0.0033199,-0.023056,0.018164,-0.13592,0.2615
-0.055104,0.056469,-0.22968,-0.020216,-0.0080307,-0.045521,-0.017675,0.35652
0.14829,0.021542,0.3353,0.010908,0.006883,0.0078029,0.28302,0.57077
-0.1058,-0.29612,0.041293,0.026673,0.029684,0.030136,-0.10008,-1.017
0.11417,0.26531,0.013219,0.011657,0.02147,0.021859,0.21583,-0.2034
0.0042376,-0.040579,-0.016193,0.012789,0.0057674,0.0066403,-0.098351,0.19142
-0.18603,-0.42303,-0.081184,-0.024735,-0.040864,-0.031124,-0.12246,-0.0047477
0.088755,0.51655,-0.19341,0.00038867,-0.0013202,-0.029131,-0.13188,0.14468
0.045164,0.050943,0.010244,-0.013746,0.0070705,0.035678,0.12165,0.075504
0.0088473,0.34381,0.30734,0.0028129,-0.0080412,0.014381,-0.011396,0.36328
-0.061546,-0.46308,-0.070497,-0.012739,-0.0077486,0.023671,0.10161,-0.54987
0.058886,-0.3735,-0.15587,0.0097099,0.015632,-0.046223,-0.030829,0.12963
-0.013362,0.46437,0.12959,0.015406,0.015138,-0.015825,-0.39167,0.41475
-0.0043992,0.17253,0.10818,0.0044281,-0.0014557,-0.010106,0.52867,-0.38321
-0.16266,-0.31795,-0.25568,0.016057,0.012756,0.033704,-0.33059,-0.083709
0.15491,-0.77577,-0.098013,-0.050927,-0.035872,-0.0011179,0.18023,-0.30073
-0.072299,0.40688,-0.015298,0.014852,-0.0065262,-0.020253,0.069433,0.33815
0.025584,0.25901,0.15349,0.010762,0.015113,0.015924,-0.069574,0.058246
-0.041718,0.40817,0.30266,-0.00020263,-0.0019086,0.0062952,-0.12847,-0.14155
0.023342,0.1177,-0.10491,0.013639,0.0051943,0.0057984,0.35223,0.13497
0.11836,-0.1907,-0.17087,-0.041166,-0.018051,-0.032432,-0.050762,-0.30426
0.045726,-0.061867,-0.069283,0.0073616,0.014384,0.086694,-0.4869,0.61905
0.098897,-0.59968,-0.069659,0.018467,0.016497,-0.074727,0.12941,-0.14513
-0.24162,0.85515,0.15895,-0.008227,-0.0041271,0.0062393,-0.068632,-0.016977
-0.034074,-0.11647,0.40029,0.028249,0.0068431,-0.022475,0.19332,-0.28584
0.1253,-0.57238,-0.21758,0.0099744,-0.013515,0.010584,0.26015,0.086377
-0.15503,0.07368,-0.409,-0.02474,-0.01092,0.011395,-0.10934,-0.017658
0.071212,0.1077,0.12148,0.017223,0.014316,0.026753,-0.17231,0.068081
-0.091833,0.12483,0.14812,-0.0051437,-0.00045612,0.025532,0.1418,0.14556
-0.0075931,-0.096357,-0.091799,-0.037188,-0.016135,-0.062267,-0.16718,-0.24525
0.16405,-0.14202,-0.15632,-0.039518,-0.0090647,-0.0018027,0.0097523,-0.052956
-0.041864,0.37128,0.31902,0.051,0.021104,0.004347,0.070513,0.034676
0.010169,-0.40816,-0.31726,-0.014834,-0.01117,-0.012041,-0.087021,0.13652
0.024384,0.49402,0.30547,0.045022,0.011651,-0.0037017,0.036563,-0.27644
0.015792,-0.052293,-0.014406,-0.042274,-0.011774,0.029503,0.065655,0.34395
-0.0021232,-0.19589,-0.027593,0.020419,0.0045256,-0.0063667,0.015261,0.12939
0.014344,0.20078,0.0053576,0.01423,0.013504,-0.0024631,0.072323,-0.59657
0.077299,-0.73436,-0.052499,0.0011849,0.007015,0.0091741,0.041147,0.41526
-0.22266,0.71188,0.098904,0.082148,0.039326,0.10578,-0.3752,-0.050862
-0.028338,0.43286,0.22891,-0.063932,-0.03839,0.060014,0.22992,0.043771
-0.04371,-0.59839,-0.47767,-0.086082,-0.038889,-0.26137,-0.041091,0.26702
0.13803,-0.18785,-0.14658,-0.0080211,-0.0090806,0.0010635,0.10202,-0.063696
0.1358,-0.20156,0.090676,0.0062688,-0.0034494,-0.027112,-0.05814,0.026605
-0.086959,0.066784,0.065097,0.050938,0.025275,0.069145,-0.16882,-0.54663
-0.10568,-0.0034474,0.092859,0.0093867,0.0072676,0.080016,0.083259,-0.38738
0.0039243,0.60778,0.16963,0.0072136,0.0054797,-0.0013404,0.057542,0.56096
0.0091054,0.099159,-0.077154,-0.0098203,0.0045876,0.020951,0.13615,0.35878
0.090138,-0.52762,-0.068485,0.013163,0.012482,-0.03277,0.005204,-0.17312
0.15271,0.55544,0.41365,0.029193,0.013382,0.05576,0.13946,-0.064539
-0.17977,-0.18443,-0.46863,-0.071435,-0.047741,-0.073676,-0.34569,-0.27571
-0.018937,-0.40557,0.063442,0.054571,0.031805,0.023283,-0.1469,0.14493
0.062369,-0.11767,0.093607,-0.038552,-0.029641,-0.068233,0.21177,-0.10442
-0.1178,-0.095175,-0.32469,0.00043426,0.009816,-0.02057,-0.058453,0.31905
0.024913,0.38862,0.26957,-0.0004589,-0.0061818,0.12717,0.090348,0.33264
0.15391,0.10054,-0.18469,-0.025489,-0.015039,-0.10121,0.058114,-0.023938
-0.27728,0.47999,0.064934,0.02722,0.022574,-0.025409,-0.19262,-0.53242
0.21701,-0.58806,0.16964,0.040909,0.021086,0.074029,0.25356,0.30746
-0.1034,-0.5079,-0.055644,-0.046488,-0.034746,-0.052329,-0.25097,-0.46258
0.10755,0.4171,-0.023517,-0.0080666,0.0038156,0.15049,0.16123,0.05422
0.0083399,0.22634,-0.015131,0.062589,0.027552,-0.067554,0.1773,-0.061841
-0.11798,-0.15929,0.054073,-0.068945,-0.033881,-0.027143,-0.26596,0.17127
-0.035972,0.04682,-0.06075,0.034578,0.03805,-0.010049,0.033725,0.19862
0.0436,0.16902,0.26974,0.0055554,-0.014825,-0.0089824,-0.025933,-0.1201
0.14342,-0.18023,-0.24715,-0.00025226,0.010195,-0.024301,-0.046979,-0.059049
0.019752,-0.25597,-0.098952,0.0010675,-0.0044738,0.053292,0.0094512,0.37098
-0.024771,0.5388,0.26698,0.0091784,-0.0044215,-0.057233,-0.012898,-0.25784
-0.16421,-0.26794,-0.5172,-0.054179,-0.036617,0.0039648,0.23756,0.18612
0.021425,0.017847,0.28371,-0.0014044,0.00062001,0.018715,-0.12206,-0.25406
0.10117,0.037931,-0.047028,0.019379,0.021653,0.026615,-0.013891,0.095698
-0.12069,-0.11036,0.23553,0.024257,0.019092,0.0045665,-0.0086447,-0.25535
0.028157,-0.2183,0.095297,-0.0018888,-0.0066092,-0.01614,0.026102,-0.063406
0.0020435,-0.16188,-0.43373,-0.042983,-0.023809,-0.02017,0.0041987,0.29909
0.037025,0.44852,0.36938,0.073156,0.053691,0.093467,-0.074218,0.27373
0.17402,-0.053334,-0.11887,-0.02835,-0.039643,-0.066595,0.12737,-0.26631
-0.24932,0.42193,0.12577,0.011803,0.0086033,-0.016736,-0.21818,-0.25056
0.026165,-0.26569,-0.2481,-0.040987,-0.020546,-0.05444,0.046641,0.46376
0.02472,-0.040232,-0.31119,0.016086,0.021024,0.069955,-0.084734,-0.3461
0.12937,-0.32802,0.31837,0.010803,0.023586,0.059577,0.31834,-0.04235
-0.082095,0.14636,0.24066,-0.041522,-0.044434,-0.085227,-0.14217,0.01325
0.030168,0.18923,-0.06195,0.03856,0.012028,-0.0279,0.033497,0.091325
-0.097378,0.20132,0.080081,0.00090331,-0.010292,0.013589,0.18046,-0.077859
-0.0049116,-0.50111,-0.10907,0.0017052,0.0057682,-0.0068509,-0.25713,0.10897
0.048723,-0.0060823,-0.17832,0.001934,0.029036,0.091108,0.05546,0.080833
0.023622,-0.11041,0.074142,-0.021749,-0.018462,-0.028095,-0.10147,0.06134
-0.010498,0.31292,-0.039487,0.016737,-0.0037236,-0.028455,-0.072203,0.045784
0.055376,0.43156,0.020587,-0.0074419,0.0031286,0.11324,0.12754,0.091133
-0.075796,-0.31241,-0.048705,-0.0081887,-0.021183,-0.18157,-0.21303,-0.55785
-0.044694,-0.0077003,-0.010822,0.0068067,0.017193,0.063159,0.39845,0.0011823
-0.007599,-0.23534,0.4178,-0.0014542,0.0089125,0.011016,0.11042,0.39147
-0.027117,0.18851,-0.26077,0.013896,0.00081111,-0.02587,-0.27263,-0.089463
0.14651,-0.61621,-0.20901,-0.0019058,0.0084219,-0.016458,-0.11042,0.014454
0.1223,-0.10196,0.24591,0.0057122,-0.0074281,0.070441,0.37809,0.028144
-0.12356,0.71369,-0.13008,-0.018056,-0.015577,0.039576,-0.42416,-0.51958
-0.060062,0.54487,0.12371,0.020466,-0.00042874,-0.1011,0.092861,0.34514
-0.015175,0.22852,-0.14969,-0.0037065,0.01463,0.0079582,0.039683,0.071411
-0.050738,-0.60246,0.0096373,0.0032997,-0.0093344,0.023192,-0.23847,0.21574
0.037595,-0.65816,0.08485,-0.075482,-0.03308,-0.00054744,0.31457,-0.089542
-0.0063216,0.2523,0.051261,0.049285,0.052954,0.038429,0.090527,0.22343
0.022502,0.26111,-0.092297,-0.012768,-0.032349,-0.078552,-0.019514,-0.075539
0.063306,-0.33121,0.090704,0.043205,0.031367,0.070414,-0.10182,-0.068346
0.01581,-0.19697,-0.1426,0.0062596,-0.0059795,-0.030312,0.030066,-0.14063
-0.095986,0.31415,0.043408,0.032457,0.0038507,0.0020416,-0.062943,-0.67646
-0.006776,0.31378,-0.0075111,-0.089494,-0.033179,0.011169,-0.10144,0.019924
0.016602,-0.30681,0.03308,0.014962,0.01542,-0.0029918,0.037723,0.53601
0.06591,0.30126,0.032873,0.025064,0.016541,-0.04051,-0.14713,0.49077
0.099574,0.17792,-0.01535,-0.0048632,-0.0065883,-0.015538,0.4286,-0.24761
-0.17415,-0.37568,-0.032873,0.010919,0.0084586,0.087423,0.076561,-0.046657
-0.031135,0.023823,0.066767,-0.036966,-0.039798,-0.059923,-0.25039,0.20903
0.050238,-0.00044345,-0.1457,0.039186,0.02075,0.018783,-0.051739,-0.35045
0.092542,0.025375,0.18942,-0.025881,0.0029528,0.10459,-0.2793,0.10029
-0.021148,-0.1116,0.017601,0.010488,0.00095609,-0.076088,0.35807,-0.026542
-0.047244,-0.075227,-0.20018,-0.038732,-0.016124,-0.085753,-0.082328,-0.22342
-0.12401,0.47366,0.0046646,0.022156,-0.0011583,0.0054315,0.11321,-0.19193
0.0015359,-0.63795,-0.14173,0.029306,0.022501,0.0024703,-0.091938,0.39905
0.066869,0.22497,0.31304,0.0061552,0.015683,0.093283,-0.086729,-0.23581
0.035634,0.17675,-0.014904,0.022812,0.017166,-0.0029488,0.098136,0.37571
0.1128,-0.33827,0.013816,-0.014825,-0.02813,-0.067133,-0.092794,0.02486
-0.083787,0.28136,0.0308,-0.060286,-0.026864,0.0024708,-0.036566,-0.28803
0.078145,0.34006,0.15241,0.050145,0.020635,0.065216,0.52938,0.060259
-0.074867,-0.23366,-0.44954,-0.058742,-0.026425,-0.027539,-0.33606,0.13653
0.064325,-0.1769,0.10863,0.034895,0.027295,-0.010501,-0.073847,0.13938
-0.18635,-0.13481,-0.28061,-0.020371,-0.021116,-0.0090418,-0.10852,-0.091888
0.077259,-0.19984,0.19773,0.049137,0.024002,0.054645,0.16018,-0.03716
0.080291,0.56491,0.33535,-0.021936,-0.016644,-0.10088,-0.27519,-0.29928
-0.14665,-0.15548,-0.006118,0.02444,0.0057433,0.05562,0.29049,0.091686
0.029385,0.010147,-0.15337,-0.069437,-0.0023509,-0.02258,-0.045771,-0.44665
0.054368,0.18206,0.065875,0.079219,0.021639,0.0085386,-0.17851,0.66902
0.0073395,0.12094,-0.075486,-0.021925,0.0072806,0.032092,0.15393,-0.25083
-0.064001,-0.72442,-0.11773,-0.013724,-0.014454,0.0014479,0.11869,0.23643
0.16114,0.16629,0.20322,0.0020109,-0.028317,-0.083291,-0.11058,0.15782
-0.051583,0.3619,-0.028206,0.0016337,0.027798,0.051228,0.067871,0.10847
-0.022878,-0.26238,-0.1961,-0.030591,-0.018319,0.060976,-0.058281,-0.55309
0.074759,0.27941,0.21416,0.04598,0.020622,-0.062277,-0.11674,-0.0092207
-0.16551,-0.45562,-0.59507,-0.026316,-0.0038605,0.12632,0.099928,0.07211
0.084174,0.17579,0.35977,0.0027775,-0.013515,-0.1627,0.0802,0.28811
-0.058798,0.23052,0.72615,0.047647,-0.00025448,0.023613,0.14116,-0.29505
-0.046789,-0.0010391,-0.46591,-0.10232,-0.026205,0.013446,-0.23496,0.17089
0.10578,0.082955,-0.17085,0.045349,0.034035,-0.036599,-0.025396,0.06668
-0.052819,-0.22126,0.30557,0.037693,0.024582,0.045912,-0.11196,-0.28008
0.025626,0.038216,-0.53706,-0.0080642,-0.0074254,-0.0039999,0.039084,0.39727
0.045188,0.039764,0.11435,0.0017213,-0.0071632,0.01738,0.16557,-0.19567
-0.0093942,0.087049,0.15208,0.004325,-0.013698,-0.014548,-0.2053,-0.047588
-0.021243,-0.82041,0.37564,-0.039608,-0.027155,0.025349,0.19535,-0.36555
0.071206,0.71588,-0.45398,0.01024,0.030365,-0.011517,0.002402,0.26798
-0.085,0.33689,-0.15394,0.012971,0.01795,0.022906,0.13038,-0.074502
-0.061771,-0.48044,0.13767,-0.031627,-0.017848,0.0030969,-0.06259,0.45095
0.13936,-0.017331,-0.0074821,-0.0065166,-0.014856,-0.11055,-0.25109,-0.25156
-0.060944,0.2258,0.41041,0.064774,0.018814,0.040856,0.12373,0.31363
-0.061865,-0.0097278,-0.18079,0.0025079,0.012604,0.050754,-0.035813,-0.25781
0.034872,-0.16253,0.29391,-0.0058254,-0.010214,-0.010713,0.26677,-0.15967
-0.035966,0.094512,-0.70059,-0.061754,-0.018456,-0.018557,-0.22877,0.071366
0.10148,0.081184,0.33972,0.030124,0.011358,0.027319,0.0078331,0.033507
0.042158,0.20405,-0.15847,-0.011284,-0.014382,-0.005735,-0.069557,-0.047083
-0.11882,-0.62151,0.27193,0.017355,0.01392,-0.055022,0.09605,0.0043865
-0.075398,0.11459,-0.33796,-0.00089782,0.0027866,0.067159,-0.1403,-0.048283
0.11121,-0.13947,-0.025886,-0.011104,0.0071931,-0.013996,0.076985,0.19379
0.098299,0.62704,0.11675,0.018211,0.0039783,0.029831,-0.20143,-0.33044
-0.058673,-0.03677,0.62405,0.055969,0.0011952,-0.012104,0.36322,0.02055
0.0079199,-0.35645,-0.70427,-0.11648,-0.040028,-0.092725,0.084782,-0.21538
-0.1784,-0.16077,0.14196,0.032141,0.021063,0.038158,-0.11522,0.55878
-0.00073358,0.016727,-0.12469,0.0095839,-0.002971,-0.0021066,-0.043359,-0.040615
0.094923,0.49266,0.19188,0.0032073,0.0050382,0.052188,-0.0072545,0.23166
0.16216,0.28605,0.27925,0.067485,0.021556,-0.002109,-0.0023704,0.40686
-0.042664,0.025458,-0.23808,-0.063474,-0.0082744,0.045802,-0.12538,-0.81331
-0.068164,-1.0031,-0.079641,-0.030571,-0.022171,-0.023057,0.074817,-0.14068
-0.033333,-0.082133,-0.46499,0.040953,0.010881,-0.12301,-0.058815,-0.14427
-0.057022,0.13345,0.46458,-0.013119,0.004733,0.034763,-0.025851,0.21954
0.039144,0.53764,0.17734,0.033746,0.0061057,0.051649,0.15167,0.044758
0.059062,0.29951,0.055753,0.017602,-0.00069375,-0.017765,-0.18836,-0.056195
-0.0209,-0.27843,-0.18169,-0.084736,-0.023451,0.076492,0.30763,0.022859
0.010614,-0.30021,-0.25402,0.016144,0.016069,-0.032745,-0.21022,-0.2681
-0.032922,-0.20696,-0.044386,-0.030948,-0.030409,-0.079783,0.095092,0.58215
-0.0094626,0.011488,0.32955,0.024288,0.0091581,0.013596,0.03651,0.19218
0.11397,0.83183,0.21091,0.088238,0.048953,0.060005,-0.0033048,0.39725
-0.1061,-0.38087,-0.34636,-0.050124,-0.035987,-0.057629,-0.056122,-0.66407
-0.0351,0.041122,0.24289,0.030766,0.02771,0.059228,-0.232,-0.50974
-0.023121,-0.22796,-0.42827,-0.0055033,-0.0022949,0.0043936,0.038662,-0.094304
0.09487,-0.42844,-0.0634,-0.050073,-0.024632,-0.05022,0.052097,0.35593
-0.04017,0.71546,0.55623,0.0059979,0.0073884,0.036027,0.33113,0.31187
0.087018,0.17614,-0.045505,0.0062183,-0.0079181,-0.018115,-0.093584,-0.19162
-0.063636,-0.28301,0.085403,-0.025971,-0.0080837,-0.048592,-0.035071,-0.2441
0.061087,0.064531,-0.4404,0.011229,0.0069524,0.061755,-0.18903,0.048759
-0.04827,-0.84949,-0.23863,0.008838,-0.0017447,-0.007448,0.077266,0.533
0.020856,0.11127,0.17643,0.021988,0.0050372,-0.068818,0.053127,-0.11149
-0.068528,0.52904,0.20399,-0.019252,0.0039858,0.1431,-0.15146,-0.2461
0.0191,0.18869,0.10951,0.01035,0.0029799,-0.075035,-0.027867,-0.038852
-0.03629,0.27219,0.11817,0.032709,0.025455,0.026586,0.19815,0.098832
-0.022901,-0.063604,0.032222,0.0086346,0.0010451,-0.020918,-0.02752,-0.1432
0.076093,-0.29601,-0.29985,-0.062112,-0.039063,-0.030053,0.11558,0.39437
-0.034974,-0.035805,0.0018166,-0.00010076,-0.0089617,-0.031926,-0.13067,-0.29169
0.004185,0.044112,0.22424,0.022597,0.013259,0.028424,-0.0091232,-0.061885
0.076766,-0.26709,-0.42209,-0.056596,-0.019167,0.018524,-0.044056,0.0068005
0.057549,-0.38192,0.16592,0.051442,0.026734,0.024639,0.1544,-0.14501
0.0083027,0.35085,0.12446,0.026574,-0.0051207,0.023564,-0.17987,0.0027562
-0.15012,0.24691,0.01304,-0.013764,0.002586,-0.093982,-0.070351,-0.091878
-0.020312,0.25418,-0.069176,0.016633,0.026467,0.078199,0.11609,0.54423
0.029788,-0.032424,-0.17968,-0.061681,-0.027268,0.071202,0.22385,0.27365
-0.078279,-0.035684,-0.080529,0.017091,0.013133,-0.15423,-0.2385,-0.38634
0.11655,-0.41482,0.45617,0.026455,-0.0087529,0.02673,-0.1453,-0.19335
0.021031,-0.065127,-0.28978,-0.033649,-0.022792,0.004611,0.19917,-0.10132
-0.020413,0.32812,0.5447,0.039704,0.017741,-0.025297,-0.017627,-0.064768
-0.046153,-0.0063209,-0.43727,-0.027247,-0.0044343,0.077663,0.094469,0.23514
0.03027,0.059679,0.046168,0.015086,0.0044058,0.016659,0.0033819,0.054829
0.037247,0.14828,0.16785,0.033461,0.020856,-0.020788,-0.073122,-0.013209
-0.033043,-0.23302,-0.1554,-0.0037426,-0.025319,-0.034696,-0.018733,-0.20459
0.037923,-0.10509,-0.23051,-0.065498,-0.0012113,0.013953,-0.060528,0.057398
0.0076225,-0.10324,-0.025115,0.035677,0.015149,-0.038963,0.020267,0.10704
-0.05395,-0.095121,-0.074103,-0.028144,-0.007419,0.040876,-0.033566,0.028319
-0.053244,0.18531,0.16017,-0.022206,-0.014206,-0.020014,0.029031,0.31918
0.040952,0.081552,0.23964,0.069584,0.018189,0.020507,-0.048462,-0.32695
-0.052521,-0.018186,-0.41506,-0.064833,-0.011899,0.021758,0.19617,-0.20826
0.049279,-0.096289,0.69282,0.059209,0.012562,-0.0085228,0.021758,0.073311
0.026094,0.33742,-0.31776,0.012096,0.021067,-0.054799,-0.063243,-0.067464
0.096571,-0.0041601,0.059712,-0.011031,-0.025639,0.0078296,-0.058628,0.26185
-0.036445,-0.051623,-0.42866,-0.018349,-0.010524,0.069894,-0.12866,0.079535
-0.084288,-0.1509,0.086567,0.0053095,0.0038338,-0.040563,-0.06293,-0.25195
0.062022,0.2199,0.76351,0.075149,0.025268,-0.011088,0.23926,0.043877
-0.13684,-0.21164,-0.19193,-0.15284,-0.047658,0.0020631,0.073641,-0.1789
0.084721,0.02813,-0.3999,0.040047,0.027455,0.0067626,-0.0064596,0.21413
-0.03089,-0.41849,-0.48565,-0.017837,0.00087878,0.018766,-0.36976,0.074899
0.040195,-0.030003,0.0064683,0.033286,-0.0021048,0.0070334,0.29472,0.019733
0.064146,0.23374,0.49513,0.068924,0.018762,-0.07503,-0.053421,0.14043
-0.067858,0.33587,0.032712,-0.011994,0.0011766,0.08541,0.15521,-0.073465
-0.050662,-0.21456,-0.039872,-0.045017,-0.031301,-0.065982,-0.025031,-0.52321
0.10825,-0.028473,0.24927,0.0013301,0.0073048,0.033614,-0.24213,0.20276
-0.067509,0.091683,-0.12275,-0.021342,-0.00023517,0.0094338,0.036407,0.13391
