0.30809,0.17876,-0.084418,0.00026492,0.0089247,0.012248,0.012462,0.0077274
-0.11328,-0.20079,-0.22278,-0.025225,0.0013349,0.0024999,0.012139,0.0006089
-0.21419,-0.098851,0.43881,0.01977,-0.0056703,0.00035678,0.027758,0.11567
0.16971,0.029857,-0.55196,0.026095,0.019016,0.013868,-0.073666,-0.25755
-0.38342,-0.09712,0.01679,-0.037306,-0.002994,-0.011446,-0.011055,-0.21306
0.15754,0.34783,0.48194,0.017217,-0.0095293,-0.012926,-0.01109,0.25769
0.18302,0.0056955,-0.68707,-0.029007,-0.00091811,0.0017073,-0.034747,-0.21079
0.067833,-0.16124,0.79896,0.019325,-0.0086652,0.0090426,0.15238,0.40728
-0.18036,-0.26012,-0.46686,-0.056657,-0.017268,-0.014386,-0.14495,-0.38562
0.36031,0.024412,0.30295,0.11,0.043627,0.040727,0.081133,0.1626
-0.4272,0.34381,-0.042455,0.011139,0.002351,-0.0053944,0.018193,0.31884
0.019954,-0.072829,-0.24044,-0.056752,-0.0392,-0.043463,-0.013413,-0.52598
-0.31346,-0.59905,-0.39573,-0.054998,-0.025936,-0.0032357,0.07233,0.76804
0.29161,0.35093,0.6762,0.023911,0.026916,-0.001945,-0.19318,-0.58182
0.085107,0.51738,-0.0035305,0.062629,0.041536,0.054133,0.02622,-0.46027
0.38683,-0.048433,-0.037865,-0.016947,-0.02098,-0.022517,-0.019185,0.66194
0.14901,0.50863,-0.0050633,-0.019302,0.02684,0.018083,0.20994,-0.29525
-0.17617,-0.84665,-0.33357,-0.0065827,0.0051151,0.0040315,-0.059684,0.32272
-0.75333,-0.60134,-0.036442,-0.064282,-0.086479,-0.095962,-0.19523,-0.44653
-0.051103,0.20488,-0.18039,0.034619,0.032928,0.061798,0.29527,0.52083
-0.15453,0.22206,0.75436,0.13425,0.034837,0.0084827,-0.23701,-0.48682
0.51592,0.52389,-0.14219,-0.085465,-0.026371,0.017416,0.10582,0.7804
0.85236,-0.0025462,-0.12444,-0.0229,0.013162,-0.013117,-0.036258,-0.48146
-0.15179,-0.42348,-0.47129,-0.03754,-0.0028962,0.0026408,-0.054532,-0.059798
-0.23789,0.037483,0.86518,0.136,0.0036214,-0.021433,0.026921,-0.48329
-0.96787,-0.30599,-0.66221,-0.13539,-0.021813,-0.0073616,0.043472,0.24331
0.17444,0.34216,0.038717,0.0073476,0.014803,0.013535,-0.036567,0.16203
0.55671,0.77622,0.090275,0.032686,0.027853,0.088181,0.26314,0.14212
-0.40667,-0.50753,-0.065731,0.05763,0.0020562,-0.080102,-0.28391,-0.26906
0.26835,0.049539,0.28545,0.0039735,-0.07007,-0.053466,0.03368,0.55999
0.36165,-0.94626,0.038244,-0.11262,-0.00075903,0.02012,-0.05665,0.055978
-0.52774,0.25369,-0.26396,-0.018584,0.007019,-0.0072484,-0.02241,-0.37865
0.6044,0.68124,0.36869,0.1535,0.10953,0.091494,0.090985,0.22904
-0.26155,-0.24701,-0.32231,-0.041424,-0.044939,-0.050454,0.0506,-0.55291
0.042637,0.1759,-0.26542,-0.032823,0.012102,0.020228,-0.017394,-0.029398
-0.66509,-0.44412,0.12057,-0.086183,-0.11032,-0.094923,-0.081059,-0.12797
0.30223,-0.040519,0.0041268,-0.037449,0.0093305,0.1273,0.078432,0.81166
0.25087,0.55378,0.03084,0.20694,0.12077,-0.016607,-0.039459,-0.27587
-0.011117,0.18403,0.52556,0.084147,-0.018336,-0.0036459,0.12671,-0.19839
-0.51826,-0.57184,-0.36004,-0.14067,-0.025194,-0.045167,-0.16662,-0.54649
0.47648,-0.043708,-0.10122,-0.1711,-0.10279,-0.094613,-0.030263,0.74315
0.38357,0.070148,0.06676,0.16441,0.10849,0.12126,0.22202,0.5827
-0.30185,0.078551,-0.11687,-0.071747,-0.07075,-0.05388,-0.18408,-0.3056
-0.14883,0.2198,0.19485,0.097152,0.078514,0.11429,0.016746,-0.15416
-0.31416,-0.29879,-0.30049,-0.047223,-0.021689,-0.061771,0.12938,-0.62535
0.36414,0.51204,0.62585,0.011358,0.0036362,-0.019693,-0.24397,0.26012
0.32035,-0.91996,-0.28876,-0.070169,-0.017572,-0.033119,0.092873,0.053827
-0.48058,0.7325,0.08533,0.091659,0.00028511,0.014853,0.00010909,0.1691
0.07479,-0.21006,-0.55748,-0.0026633,0.048965,0.030145,-0.013965,-0.4473
0.13189,-0.29358,0.14373,-0.087272,-0.098528,-0.010984,0.081862,0.059194
-0.23286,0.037946,-0.049486,-0.0059975,0.026219,0.039716,0.1698,0.57505
0.67583,0.34041,0.31347,0.10013,0.079298,0.033836,-0.12618,0.041277
-0.21829,0.067786,-0.19117,-0.011755,-0.025133,-0.059525,-0.0025041,0.20294
-0.36481,0.056386,0.20002,0.048149,0.010176,0.018172,0.10253,-0.60196
-1.0013,0.040753,0.6167,-0.041268,-0.056316,-0.091363,-0.40497,-0.16893
0.98617,-0.22875,-0.28155,0.12567,0.041852,0.050689,0.32726,0.15145
0.28862,-0.11046,-0.80523,-0.38876,-0.16318,-0.1403,-0.41028,-0.061952
-0.32728,-0.19618,-0.078568,0.07972,0.048079,0.086688,0.19672,0.2695
0.65987,-0.053426,0.15594,0.23477,0.15258,0.12265,0.22027,-0.1353
-0.63007,0.31314,0.26409,-0.079154,-0.0060663,-0.017212,-0.080818,-0.01123
0.56898,0.39064,0.509,0.052627,0.040172,0.10331,0.22313,0.4217
-0.19635,-0.88188,-0.23789,-0.11955,-0.084934,-0.095884,-0.32216,-0.44016
-0.54234,0.58122,-0.16835,0.021406,-0.031344,-0.054545,0.34386,-0.17765
0.066128,-0.23795,0.28348,0.060928,-0.011513,-0.016963,-0.41394,0.042141
-0.01137,0.71919,-0.33951,0.19351,0.13742,0.10914,0.30093,0.38827
0.33934,-0.15354,-0.52458,-0.30831,-0.18672,-0.23143,-0.26256,-0.31318
0.025591,-0.36017,0.37516,0.10944,0.10213,0.18065,0.13805,0.91378
-0.050325,-0.12936,0.0078958,0.063686,-0.018606,-0.10618,-0.034578,-0.39816
-0.46966,0.26631,0.34305,-0.1718,-0.055249,-0.0037425,-0.097866,-0.5577
-0.041631,-0.62998,0.20981,0.067973,0.040922,0.10761,0.037643,-0.5744
0.022442,0.08697,-0.35172,-0.035913,-0.009477,0.0035191,-0.03869,0.027997
0.41994,-0.028007,-0.37205,-0.052244,-0.017413,-0.072304,0.16006,0.76491
0.3498,0.10249,0.34453,-0.018768,-0.044475,-0.0021002,-0.060347,0.1189
0.38788,0.42791,0.19664,0.33873,0.23758,0.13557,0.10399,-0.024415
-0.2224,0.065077,-0.22186,-0.089076,-0.054698,0.011302,0.088035,0.78674
-0.4893,0.46948,0.034649,-0.1075,-0.063185,-0.040776,-0.034,-0.96109
-0.45891,-0.50151,-0.22066,0.11827,-0.023745,-0.092857,-0.086954,-0.2615
-0.024831,0.18656,0.091444,-0.17079,-0.031504,-0.013661,-0.15327,-0.10245
0.33137,-0.26797,0.42567,0.12587,0.045413,0.031876,0.052756,0.26977
0.095471,-0.50813,-0.46603,-0.31254,-0.13706,-0.12821,-0.3067,0.36
-0.2645,-0.039861,0.19192,0.12336,0.061985,0.1317,0.5806,0.042937
0.25479,0.089342,-0.082711,-0.09724,-0.091093,-0.070205,-0.37789,0.072083
0.0022684,0.51684,-0.1005,0.2996,0.19361,0.11093,0.09355,-0.36478
0.1545,0.20441,0.28845,0.21264,0.057386,0.019635,0.27904,-0.22354
0.034032,-0.86026,-0.16506,-0.27233,-0.038608,0.023358,-0.084074,0.075345
-0.181,0.97516,0.17959,0.0081727,-0.008738,-0.034529,-0.28215,-0.065355
-0.32469,-0.70841,-0.67846,-0.29835,-0.1741,-0.16275,0.15577,-0.27315
0.19439,0.31595,0.69661,0.2367,0.13612,0.1687,-0.15942,0.43258
0.65188,0.053161,0.013378,0.04205,-0.05579,-0.057072,-0.023773,0.052636
0.001303,-0.30788,0.065992,0.11706,0.077372,0.11208,0.59407,0.69256
-0.35082,0.58253,-0.57801,-0.077486,-0.027439,-0.12899,-0.38453,-0.28149
-0.37927,-0.47545,0.29771,-0.1349,-0.018677,-0.0065969,-0.14018,-0.37479
-0.11867,-0.20691,0.24608,0.016147,-0.044229,-0.074483,-0.11157,0.20158
-0.5303,0.58405,-0.4213,0.0021666,0.037589,0.12202,0.30947,-0.45931
0.8803,-0.22708,0.10802,0.043665,0.025067,-0.0011532,-0.073474,0.13545
0.24965,-0.5299,-0.0091182,-0.060783,-0.080243,-0.074956,0.004362,0.12228
-0.10597,0.13067,0.15795,0.049513,0.074654,0.066184,-0.051396,-0.27302
-0.027722,0.21866,-0.18664,0.10959,0.0064494,0.0090709,-0.0067268,0.19418
0.14125,0.58218,0.47355,0.017736,-0.018717,0.050639,0.18513,-0.026264
-0.39744,-0.077596,-0.37657,-0.16445,-0.016604,-0.067693,-0.24136,-0.28082
-0.16273,-0.4014,0.005453,-0.024398,-0.027036,-0.073947,-0.13754,0.25487
0.51298,0.11285,-0.36455,0.13143,0.089362,0.061245,0.23907,0.74654
-0.46842,-0.3271,0.69348,0.08262,0.065473,0.15624,0.060612,-0.86186
0.49119,-0.073639,-0.093097,-0.11737,-0.037635,-0.064042,0.16331,0.73796
-0.31302,0.16339,-0.10575,0.0075354,-0.033521,-0.053724,-0.17126,-0.42889
0.33054,-0.22346,-0.32695,-0.18297,-0.19607,-0.15668,-0.13019,0.052851
-0.33273,0.22828,-0.16842,0.023166,0.053081,0.04196,-0.1035,-0.22853
0.077758,0.69029,0.28631,0.15098,0.081995,0.05155,0.11264,0.1693
-0.20416,-0.020041,0.34387,0.085022,0.063778,0.069369,0.073593,-0.089418
-0.39727,-0.79949,-0.11967,-0.1264,-0.047173,-0.074535,-0.12655,-0.93115
0.36469,-0.14969,-0.11235,-0.052794,-0.054573,-0.058423,-0.089613,0.73539
0.36746,0.44817,0.13765,0.16517,0.13576,0.2433,0.72243,0.30694
0.34651,-0.020747,-0.63029,-0.043704,-0.038871,-0.068184,-0.73134,0.32003
-0.13846,0.075383,0.51768,0.030021,0.037947,0.013646,0.27321,-0.011047
-0.42185,-0.41389,0.31203,-0.099849,-0.095854,-0.15374,-0.17275,-0.20887
0.14392,0.27481,-0.016381,0.080603,0.035092,0.05255,0.069182,-0.29044
-0.32566,0.37424,-0.27481,-0.015774,-0.015502,0.060349,0.30241,-0.27425
0.15285,-0.10004,-0.24567,-0.069127,-0.013787,-0.030004,-0.20731,0.35985
0.26038,-0.54406,-0.35052,-0.040016,-0.0066163,-0.023549,0.049608,0.55453
-0.45957,0.024361,0.20122,-0.20861,-0.14972,-0.15409,-0.39999,-0.98829
0.75101,0.80992,0.35702,0.34065,0.18275,0.15001,0.096972,0.41954
-0.79948,-0.25227,0.47047,0.093641,0.093301,0.070269,0.20182,0.31957
0.53614,-0.25495,-0.21489,-0.096943,-0.065724,-0.078938,-0.24492,-0.32341
-0.23369,-0.71806,-0.51891,-0.074317,-0.059493,0.0086554,0.26759,-0.32537
-0.2954,-0.16839,0.32372,0.005114,-0.0051477,-0.017563,0.11504,0.1143
-0.0081983,0.89769,0.2109,0.0077931,0.018855,0.053503,0.092312,0.19282
0.48512,0.81707,-0.30297,0.081039,0.07442,0.08059,-0.14885,-0.035942
-0.039624,-0.54613,-0.35027,-0.081045,-0.050084,-0.10163,-0.24754,0.37707
0.36939,-0.16845,0.42971,-0.0029208,-0.011522,0.028667,0.31273,-0.53609
-0.058134,-0.46066,-0.42979,-0.052399,-0.036843,-0.030106,-0.08375,0.7703
-0.71997,0.17074,0.35469,0.067291,0.014504,-0.044825,-0.027445,0.1699
-0.0463,0.30137,0.30054,-0.010632,-0.036933,0.022915,-0.16865,-0.51653
0.35325,-0.24379,-0.56018,-0.097855,-0.018813,-0.061223,0.15007,-0.42545
0.12831,-0.24043,0.29547,0.16603,0.10849,0.10189,-0.25474,-0.24315
-0.10042,0.94423,0.45954,-0.038229,0.0017491,-0.01781,0.13869,-0.08069
0.032755,-0.42871,-0.50794,-0.037878,0.0050852,0.010796,0.017169,0.18904
-0.44736,-0.28172,-0.015796,0.0036201,-0.0063031,-0.037422,-0.16722,0.41359
0.3695,0.060639,0.30124,0.078709,-0.001114,0.080924,0.62198,0.095896
0.31755,-0.4726,-0.66692,-0.10955,-0.10437,-0.04742,-0.22186,0.14202
0.18555,0.31577,0.19769,0.071339,0.051105,-0.031508,-0.19099,-0.1638
-0.69817,0.4989,0.19397,-0.058778,-0.011238,0.019108,0.1025,0.16089
-0.18536,-0.17905,-0.026894,0.0073814,0.028965,-0.0055862,-0.15859,-0.26501
-0.0041904,-0.51553,-0.087209,-0.051011,-0.039204,-0.067532,0.035634,-0.05931
0.34919,0.0085743,0.20244,0.1484,0.07324,0.15234,0.17161,0.69123
0.070814,0.48624,0.15515,-0.09007,-0.040182,-0.058208,0.11179,-0.34816
0.46264,0.78779,-0.081433,0.077055,0.081074,0.057421,-0.27181,-0.77425
-0.090592,-0.3754,-0.14998,-0.13164,-0.10257,-0.14231,-0.28473,0.015706
-0.47981,-0.33199,0.064006,0.025961,0.0020848,0.029639,0.25401,-0.30933
0.24699,-0.47995,-0.12193,0.049909,0.042996,0.057686,-0.0354,0.61707
-0.60591,-0.2694,-0.085018,-0.0049798,-0.034822,-0.057571,-0.016105,0.26295
0.7366,0.28243,-0.19381,0.072436,0.04984,0.07554,0.38643,0.20365
-0.2834,0.17689,0.59817,-0.014464,0.031603,0.020865,-0.0037885,0.23759
-0.31455,-0.43452,-0.24769,-0.11696,-0.12027,-0.11078,-0.23101,0.12808
0.11435,0.49041,-0.25379,-0.11758,-0.061356,-0.075923,-0.31733,-0.86476
-0.023938,0.78944,0.51091,0.14012,0.068452,0.12637,0.21391,-0.17783
0.056303,-0.85819,-0.43647,0.02343,0.058821,-0.0035125,0.04143,0.26769
0.49946,0.82624,0.57747,0.25103,0.11324,0.11229,0.27293,-0.025837
-0.17647,-0.70785,-0.66443,-0.24757,-0.10416,-0.1052,-0.046692,0.39197
0.22473,0.1457,0.52693,0.043059,0.054866,0.077142,-0.21615,-0.095743
-0.3049,-0.18455,-0.38589,-0.11156,-0.081915,-0.013996,0.013171,-0.44684
0.21879,-0.13389,-0.22961,0.030879,-0.05393,-0.16114,-0.3438,-0.29698
-0.46149,0.17068,0.051264,0.033177,0.044788,0.095771,0.5488,0.6016
-0.26569,-0.83245,0.3628,-0.080788,-0.074982,-0.095202,-0.4494,0.23038
-0.096683,0.34317,0.031533,0.033117,0.047613,-0.0073567,0.091463,-0.43878
0.26068,0.59695,0.17156,0.1719,0.15465,0.25824,0.37417,0.83702
0.59954,0.16881,-0.29958,-0.14126,-0.15253,-0.26651,-0.2508,-0.66264
0.00089471,0.12197,0.15228,0.06947,0.086603,0.1377,0.29282,-0.21464
-0.33913,0.2096,-0.024268,-0.0016757,-0.019155,0.033713,0.010643,0.64558
0.39045,-0.2494,-0.1449,-0.05908,-0.048553,-0.086234,-0.33373,-0.53111
-0.46235,-0.67346,0.15659,0.13048,0.083802,0.1058,-0.06177,-0.24723
-0.37126,-0.29432,-0.40729,-0.16033,-0.044266,-0.0076405,0.40484,0.52785
0.76766,0.54823,0.050278,-0.0020041,-0.057684,-0.14552,-0.72906,-0.43116
-0.13669,0.24393,0.050705,-0.011233,-0.026274,-0.034385,0.078598,-0.16048
-0.69006,-0.18065,0.21769,-0.01502,0.066463,0.16983,0.53464,0.53891
0.65155,0.27414,0.26041,0.13662,-0.012729,-0.11039,-0.1386,0.36619
-0.19935,-0.34885,-0.33218,-0.00773,0.049831,0.071032,0.1788,-0.13619
-0.14154,-0.32369,0.043825,-0.087141,-0.05733,-0.066359,-0.027435,-0.5125
0.31776,0.25758,0.11495,0.016729,0.010239,0.056197,-0.10902,0.30925
0.10159,0.30392,-0.30071,-0.00023747,0.026227,-0.014092,-0.083025,-0.63107
-0.37432,-0.06503,0.46494,0.0024993,-0.025215,-0.035084,-0.27206,0.18204
0.36861,-0.035747,-0.13166,0.086743,0.066198,0.13342,0.39948,0.41933
-0.15936,-0.086027,-0.35262,0.0091437,-0.0286,-0.071778,-0.015977,0.24268
-0.27564,0.13179,0.24399,-0.075454,-0.0059809,-0.0030911,-0.12149,-0.7496
0.55434,-0.045157,-0.14843,-0.059069,-0.070058,-0.028509,0.24649,0.78218
-0.64248,-0.079099,-0.2568,-0.036598,0.020592,-0.047082,-0.23963,-0.064734
-0.019099,0.010985,0.76361,0.077155,-0.031353,-0.05134,-0.38309,-0.59111
0.24727,-0.13142,-0.39007,0.10224,0.078681,0.10709,0.41184,0.41908
-0.0063184,0.073518,-0.26272,-0.08614,0.030561,0.045546,-0.016915,-0.38675
0.28984,-0.14664,0.17065,-0.0421,-0.05032,0.0064718,0.20709,0.47667
0.42245,0.30253,0.13717,0.016431,0.00061935,-0.072355,-0.29849,-0.75373
-0.54187,0.070316,0.18307,0.027865,0.0042525,0.028042,0.16873,0.76936
-0.38873,-0.068221,-0.11544,0.016485,-0.038887,-0.035935,-0.072796,-0.50509
-0.059694,0.0071818,-0.32371,-0.024883,0.035711,0.00923,0.091487,-0.04305
0.51248,-0.25288,0.35968,-0.025597,-0.0060138,0.015123,0.04155,0.14096
-0.18153,0.23003,-0.38083,0.022126,0.023598,0.036427,-0.0062676,0.45233
0.014767,0.34218,0.37438,-0.014902,-0.039517,-0.067488,-0.25648,0.36512
-0.02953,-0.48024,-0.1257,0.089236,0.077942,0.094029,0.079963,-0.2724
0.37635,-0.18932,0.033547,-0.017803,-0.069569,-0.10395,0.0045302,-0.33014
-0.47433,-0.18921,0.033922,-0.024271,-0.0057546,0.0027843,-0.15983,-0.23869
0.14171,-0.19721,-0.56648,-0.063542,0.026945,0.1019,0.27764,-0.2072
0.017773,0.73871,0.29908,-0.018671,-0.041987,-0.1189,-0.1799,-0.2625
-0.38973,0.41019,0.4554,0.01671,0.02168,0.028038,0.12622,0.36726
0.069295,-0.72428,-0.2263,0.0039762,0.014731,0.081878,0.19716,0.21976
0.61319,0.87494,0.085268,0.13128,0.038675,-0.058962,-0.15485,0.15925
-0.018497,-0.52167,-0.092266,-0.085056,-0.054962,0.0038292,0.16246,0.69547
-0.088212,-0.18399,-0.24245,-0.081894,-0.0083874,-0.026839,-0.22818,-0.75916
0.2106,0.37715,0.32986,0.094327,0.04558,0.083154,-0.032398,0.23569
-0.80027,-0.32978,-0.21216,-0.071826,-0.049285,-0.072671,-0.19772,-0.44437
-0.16565,-0.26752,0.23175,0.099286,0.043025,0.021176,0.24304,-0.17449
0.23506,-0.15863,-0.4415,0.044936,0.0023278,0.0053235,-0.14847,0.49912
0.80556,0.10754,0.21968,-0.11799,-0.03056,-0.010681,0.27597,-0.10834
-0.22025,0.035423,0.26845,0.024329,-0.00070408,-0.026524,-0.10849,-0.27267
-0.13757,0.22377,-0.1482,-0.10634,-0.025013,-0.010554,-0.090561,-0.0088911
-0.19275,0.19887,0.18708,0.19324,0.076469,0.11574,0.29107,0.53777
0.17433,0.10771,-0.78955,-0.13133,-0.063242,-0.16299,-0.28349,-0.41661
-0.42812,-0.25977,0.4987,0.0062261,0.016885,0.075192,0.19413,0.4154
0.053824,0.34187,0.34736,0.043727,0.019917,0.056618,-0.18145,-0.41315
0.16564,0.091369,-0.15898,-0.057799,-0.015307,-0.039523,0.0050534,-0.24074
-0.14273,-0.092511,-0.14668,0.084223,-0.0032299,0.020415,0.020873,0.41272
0.66966,-0.61113,0.023569,0.031673,0.024408,0.0012249,-0.10874,0.071895
-0.65632,-0.11358,-0.46972,-0.091414,-0.050119,-0.066623,0.031998,-0.52239
0.50779,-0.01873,0.49748,0.026272,0.046123,0.042867,0.17094,0.7667
0.24923,0.18828,0.13536,-0.022728,-0.023185,-0.022092,0.00394,-0.13678
-0.38467,0.50234,-0.056496,0.073089,0.054274,0.059005,0.0071602,-0.32527
-0.22864,-0.32153,0.18754,0.04754,-0.049551,-0.056985,-0.02383,0.45287
-0.084035,0.074055,-0.52259,-0.091517,0.0094368,0.021505,-0.012921,-0.44757
-0.31968,-0.23524,-0.09969,-0.10119,-0.049427,-0.055957,-0.11094,-0.25526
0.12819,0.34044,0.2004,0.035447,0.0089708,0.00081304,0.031306,0.25721
0.38802,0.25635,0.42713,-0.00028214,0.036941,0.05991,-0.0022618,-0.1956
0.018935,-0.018258,-0.36183,-0.019198,-0.04304,-0.018787,-0.080231,0.29054
0.20477,-0.45274,0.070952,0.097227,0.050583,0.038154,0.17174,0.081846
-0.043742,-0.40743,0.11114,0.045021,-0.0025841,0.027079,0.21473,-0.080486
-0.022328,0.32005,-0.34825,0.027257,0.046977,-0.02952,-0.30979,0.19994
-0.39555,0.026375,0.23348,0.0041071,-0.012463,0.015621,0.029332,-0.033801
0.25677,0.43061,-0.041394,-0.11942,-0.049033,-0.07304,-0.16451,-0.12353
-0.028476,-0.2948,-0.25138,0.038134,0.0067027,-0.023006,0.0090789,-0.3742
0.04364,-0.10252,0.45356,-0.055608,-0.025563,-0.0067093,0.067408,-0.24905
-0.14532,0.1169,0.078744,-0.010617,0.010205,0.069486,0.35538,0.86509
-0.14253,-0.16042,-0.43368,0.016914,-0.026373,-0.020682,-0.095337,-0.24808
0.2088,0.66619,0.33487,0.066721,0.091928,0.098416,-0.027243,0.42105
-0.027752,-0.77163,-0.11838,-0.10229,-0.1105,-0.11146,-0.18337,-0.35224
0.05524,0.39223,-0.10767,0.058008,0.078352,0.014662,-0.10387,-0.18228
-0.056985,-0.19451,0.10889,0.017454,-0.020209,0.024503,0.21022,0.037032
0.16715,0.19456,0.20443,0.057988,-0.030444,-0.10466,-0.39033,-0.49228
-0.12408,-0.43234,-0.48266,0.0078675,0.087074,0.13547,0.3987,0.44958
0.20954,-0.25415,-0.28527,-0.11773,-0.058347,-0.012713,0.25678,0.21684
0.035035,0.75326,0.29151,0.023995,0.0093835,-0.033667,-0.44105,-0.49161
-0.35019,0.19168,0.10855,0.048981,-0.007395,-0.021501,0.18825,0.24968
0.28973,-0.079957,0.48576,-0.044116,0.023176,0.046656,-0.018992,0.80307
-0.30066,-0.57069,-0.1027,-0.0143,-0.071737,-0.079882,-0.24186,-0.54818
-0.64994,0.30368,0.48776,0.1454,0.1055,0.1138,0.26258,-0.1389
0.32992,-0.44317,-0.3955,-0.05752,-0.031583,-0.029175,0.049882,-0.038938
0.35027,0.42922,-0.89632,-0.15408,-0.076909,-0.079591,-0.29321,-0.27937
0.86217,0.1696,0.16385,0.067423,0.063443,0.10292,0.21825,-0.094597
-0.66253,-0.10528,-0.15889,-0.063721,-0.078816,-0.13013,-0.1421,0.14011
0.38667,-0.1527,0.43593,0.078782,0.067255,0.041727,0.039464,0.26773
-0.42715,-0.072622,0.085901,0.019538,0.0023067,0.056263,0.23859,0.4899
-0.00048743,0.38764,0.33464,0.12653,0.023749,-0.031524,-0.22578,-0.52368
-0.10171,-0.26834,-0.11941,-0.084328,0.014716,0.067722,0.23067,0.40425
-0.033979,-0.067762,-0.033173,-0.066436,-0.016909,-0.0051416,-0.13577,-0.24398
-0.22107,-0.045779,-0.11905,-0.008003,-0.024399,-0.038999,-0.029323,-0.039597
-0.55218,-0.35563,-0.56013,-0.066264,-0.047113,-0.072768,-0.19258,-0.61467
0.3271,0.44153,0.76407,0.14055,0.03178,-0.043814,-0.16424,-0.15426
0.7076,-0.0067954,-0.018136,0.033407,0.032268,0.15737,0.55674,0.77498
0.47064,0.24922,-0.16023,-0.052306,-0.014626,-0.062844,-0.22352,-0.19021
-0.35874,0.32149,0.031539,-0.022941,0.023828,0.069082,0.059019,0.28149
-0.018235,-0.17119,-0.27797,-0.042138,-0.0085323,-0.024906,-0.00058251,0.21518
-0.038575,-0.22667,-0.030911,0.015995,-0.0020824,-0.016624,0.036107,-0.16284
-0.24947,-0.30964,0.16827,-0.01921,-0.058006,-0.054453,-0.025773,-0.60451
-0.42589,-0.20989,-0.47951,0.025387,0.027259,-0.013334,-0.27219,0.33241
0.292,-0.12811,0.4917,-0.060118,-0.01933,-0.0026145,-0.00049149,-0.24611
0.30628,0.56575,0.28814,0.076358,-0.010032,-0.014542,0.19472,0.7273
-0.67265,-0.20802,-0.1601,0.06746,0.11765,0.19287,0.22634,-0.41334
0.52962,0.111,0.24604,-0.033016,-0.074075,-0.13074,-0.039748,-0.31703
0.27701,0.17487,-0.13123,0.070339,0.054875,0.076614,-0.12819,0.1654
-0.55036,0.015406,-0.17327,-0.030477,0.0038032,-0.037158,-0.024242,-0.0034002
-0.10447,-0.1435,-0.18338,-0.094942,-0.063926,-0.050649,0.021817,0.20208
0.42957,0.47425,-0.2215,-0.12428,-0.078542,-0.096948,-0.40371,-0.35705
0.12982,-0.035973,0.19352,0.12316,0.084687,0.10515,0.27817,0.28088
0.18934,-0.50773,0.18588,-0.016417,-0.042939,-0.053547,-0.0095877,0.029332
-0.12993,0.032497,0.061774,0.11418,0.077993,0.10697,0.10888,0.081656
-0.40985,-0.50082,0.027662,-0.077368,0.0027266,0.0089408,0.14951,0.020967
0.17534,-0.017846,-0.036926,-0.019096,-0.041516,-0.011334,0.15104,0.21159
-0.053825,0.65984,-0.29881,-0.029773,-0.015031,-0.047318,-0.47329,-0.55931
-0.33616,-0.33523,0.20012,0.0089879,-0.026667,-0.04409,0.1584,0.067642
0.30341,0.49573,0.54235,0.16818,0.095788,0.084488,0.34245,0.64953
0.099746,-0.007407,-0.66718,-0.12242,-0.045987,-0.075471,-0.45996,-0.84017
-0.46194,-0.36003,-0.012361,-0.019483,0.016655,0.023063,-0.13045,-0.25455
0.15679,0.18416,-0.25054,0.038654,-0.021254,-0.0026249,-0.11236,0.084695
0.42097,0.14945,0.21864,-0.0115,-0.0038546,0.019353,0.29974,0.06529
0.12729,-0.019891,0.43922,-0.014646,-0.009691,0.0029549,0.13121,0.68909
-0.33826,-0.41103,-0.14764,-0.0027589,0.023361,0.057335,0.14863,0.3134
0.85184,0.37485,0.61737,0.0081457,0.0012742,-0.067807,-0.11712,0.23707
-0.71935,-0.29167,-0.41861,-0.067909,-0.037038,0.0022193,-0.034955,-0.32943
-0.53158,-0.059623,-0.53208,0.02713,0.025596,0.0015503,-0.076272,-0.76201
0.39024,-0.14449,-0.34893,-0.011039,0.0017723,-0.0074091,0.17005,-0.12996
0.063481,0.38987,0.32763,0.16172,0.05573,0.045741,-0.20471,0.0010462
-0.16241,0.028424,0.11822,-0.079357,-0.077945,-0.05749,-0.07698,0.22607
-0.21531,-0.056028,0.074097,-0.0076401,0.0072018,-0.0042239,0.10789,0.15984
0.24561,-0.19191,0.33992,-0.092024,-0.040247,-0.036253,-0.19566,-0.12712
