-0.0009559,0.0137,0.18791,-0.00043834,-0.0049651,0.0016189,-0.0073282,-0.0082979
0.0074864,-0.010127,-0.13727,0.0061086,-0.0059343,0.00087776,-0.00026022,-0.00021155
0.00061083,0.005222,0.61391,0.12809,0.02397,0.015733,-0.0086599,-0.00015505
-0.0060515,-0.010394,-0.57345,-0.14195,0.0068468,-0.016195,-0.0012274,-0.00034871
0.0030118,-0.0021348,0.11427,-0.0064239,-0.025714,-0.0088239,-0.0091559,0.0070211
0.012056,0.045723,0.16285,-0.0033889,-0.010812,0.014545,0.01449,-0.0014482
-0.0024681,-0.015243,0.042511,0.0088873,0.012869,-0.0084987,-0.0083642,-0.010069
-0.0094059,-0.044495,-0.47195,-0.023272,-0.024724,0.0079947,0.008241,0.0046742
-0.024452,-0.0031551,0.15947,0.11174,0.0014521,0.0014372,-0.0060368,-0.0040119
0.01485,0.022565,0.39802,-0.039071,0.028664,0.018518,0.0033938,0.0030022
0.014723,0.016704,-0.50694,-0.11687,0.0016981,-0.026959,-0.0026963,0.010133
0.0064062,0.033601,0.6617,0.11935,0.052617,-0.0024681,0.0067184,0.0017657
0.0055211,-0.0051779,-0.48925,-0.050852,-0.0069182,0.0057954,0.0001349,-0.014306
-0.019168,-0.068584,-0.04899,0.12064,-0.029199,0.013292,0.0007525,0.008758
0.0026962,0.0074125,-0.028787,0.054,0.00098212,0.020002,0.0083991,-0.0072043
-0.0069203,0.0042192,0.54481,-0.048759,-0.010072,-0.028607,-0.0082335,0.0080994
0.014629,0.054991,-0.25221,-0.023731,-0.069597,-0.0072015,-0.0021821,-1.0437e-05
-0.010584,-0.066365,-0.045543,-0.39341,-0.051575,-0.024683,-0.020081,-0.0080555
-0.019826,-0.0077678,-0.31059,-0.0074252,-0.017255,-0.033644,-0.014688,-0.015967
0.018384,0.012508,0.018172,0.46491,0.24549,0.091399,0.030051,0.023213
0.033931,0.11982,0.27343,0.04961,-0.059377,-0.0086064,0.012992,0.0079971
-0.027751,-0.052838,-0.09403,-0.22789,0.0059051,0.0023434,0.012573,0.00093514
-0.041643,-0.13044,-0.21935,-0.17919,-0.082488,-0.024422,-0.041374,-0.02922
0.062473,0.12907,0.66766,0.39837,0.010409,0.019954,0.015147,0.011228
-0.0046717,-0.0010792,-0.20363,-0.012623,0.025414,-0.021513,-0.00564,0.012791
-0.032435,-0.1149,-0.84052,-0.28212,-0.1171,-0.04029,-0.0026227,-0.016883
0.010086,0.045157,0.72372,0.047662,0.10494,0.040936,0.054901,0.0079422
0.013167,0.080406,0.25034,0.22384,0.034338,0.049643,-0.036738,0.0089307
-0.0078693,-0.10312,-0.69655,-0.013272,0.19421,0.024532,0.018901,0.017149
0.017077,0.15064,0.70398,0.10161,-0.18847,-0.06563,-0.028404,-0.014393
-0.021459,-0.0569,-0.047297,-0.51603,-0.17506,-0.048537,-0.030167,-0.023214
0.017192,0.0007414,-0.47178,-0.027189,-0.12324,-0.017138,0.013935,0.014229
-0.069935,-0.19212,0.30994,-0.24808,-0.15609,-0.040687,-0.020562,-0.034664
0.014272,0.059757,-0.68688,0.59124,0.57185,0.11631,0.015417,0.0022718
0.11382,0.092189,0.6266,0.8068,0.53826,0.18141,0.091219,0.078474
-0.107,-0.024779,-0.29066,-0.92756,-0.6472,-0.24316,-0.073973,-0.055786
0.078513,0.22407,0.27251,0.0052971,-0.46944,-0.071221,-0.0034163,0.021548
-0.024883,-0.15393,0.16903,-0.24827,0.15632,0.10327,0.013728,-0.0097692
-0.042193,-0.026365,0.28315,0.28458,0.43953,0.10785,0.0005555,-0.0091673
0.04998,-0.010561,-0.93944,0.28656,0.20681,0.019802,0.03469,0.023204
-0.076533,-0.1609,0.21835,0.041669,-0.40243,-0.13056,-0.032852,-0.037867
0.031372,0.10935,0.63484,-0.47805,-0.27956,-0.015924,-0.015048,0.01051
0.0065146,-0.034519,-1.2606,0.13037,0.21587,-0.066557,-0.0059568,0.011865
0.052056,0.14336,0.55123,-0.0017489,0.091967,0.053226,-0.05255,0.012901
-0.01163,-0.035172,0.71027,0.25892,0.115,0.1091,0.087475,-0.0099204
0.034297,0.15777,-0.22503,-0.47591,-0.22216,-0.0080448,0.039399,0.029323
-0.11472,-0.22216,0.27025,-0.17126,-0.036182,-0.079081,-0.087043,-0.064607
-0.02104,-0.07292,-0.248,0.42732,0.28248,-0.017704,0.028821,-0.01031
0.07332,0.058489,-0.19067,0.62893,-0.0085443,0.035743,-0.081483,0.043971
-0.0034052,-0.047439,-0.11296,-0.49233,-0.13623,0.057981,0.11343,0.004681
0.022241,0.060975,-0.22842,0.10544,0.00053471,-0.029078,0.011993,0.0047851
0.00952,0.076944,-0.22083,-0.80259,0.026502,0.016709,-0.0031503,0.0052972
0.01287,0.13849,0.77866,0.65922,-0.073832,-0.04691,-0.033792,-0.009418
-0.069616,-0.10875,-0.63807,-0.3767,-0.25307,-0.087146,-0.041103,-0.023823
0.019496,-0.0033488,0.82604,0.28364,0.22397,0.060111,-0.0096207,0.0088183
0.053303,-0.1723,-0.66516,0.36467,0.16288,0.13717,0.068427,0.02584
-0.10907,-0.10877,0.12763,-0.46446,0.05656,-0.12141,-0.056881,-0.058859
0.024444,0.19527,0.11903,0.72297,0.14764,0.018909,0.013063,0.035827
0.055395,0.11631,0.32769,-0.70853,-0.43882,0.034845,0.051895,0.028536
-0.02393,-0.014977,-0.44408,-0.45628,-0.062398,-0.073533,-0.033962,-0.026113
0.13821,0.18757,0.35919,0.54115,0.11245,0.0062399,0.044657,0.051558
-0.16889,-0.56143,-0.64775,-0.41952,0.19462,0.00056538,-0.087239,-0.082146
0.039456,-0.0084021,0.6328,0.7404,-0.10551,0.088837,0.031207,0.018215
-0.041108,0.35738,0.20539,0.28745,0.12559,-0.034037,0.017025,0.0012626
-0.0039941,-0.12634,-0.556,-0.70708,-0.24544,-0.016949,0.0028216,0.0078281
0.026069,0.25169,-0.27388,-0.41414,0.22624,0.022493,-0.01163,-0.00096542
0.03359,0.013721,0.10512,0.73742,-0.16282,-0.056616,-0.0031065,0.0062468
0.01851,-0.18653,0.41159,-0.18905,-0.13149,0.011292,0.0047857,0.0060375
-0.027246,-0.032098,-0.013292,0.04956,0.46097,0.093614,0.035392,0.0061161
0.083399,0.043795,-0.65515,0.29028,-0.12729,-0.09825,-0.020659,0.021913
-0.1266,-0.13382,0.4298,-0.7235,-0.29417,-0.040233,-0.038258,-0.040561
0.022018,0.073525,0.58993,0.46259,-0.070309,-0.01292,-0.0015868,-0.0018438
-0.049137,-0.0069989,-0.92281,-0.66614,0.0057786,0.0076623,-0.027587,-0.041777
0.089585,0.06238,0.9532,0.82028,0.46567,0.14678,0.071482,0.058339
-0.030364,-0.0686,-0.60563,-0.60234,-0.18281,-0.001883,0.0067521,-0.0061101
0.060169,0.14893,0.5681,0.64993,0.059996,0.014413,0.020526,0.038496
-0.067975,-0.079614,-0.41272,-0.066737,0.021705,-0.023627,-0.004333,-0.026316
-0.054862,-0.18175,0.12118,0.14999,-0.22002,-0.13215,-0.075618,-0.059587
0.076562,0.2427,-0.838,-0.55531,-0.095058,-0.022404,0.009836,0.040602
-0.017118,-0.10211,0.49389,0.21289,0.060881,0.03218,0.0099308,-0.0066741
0.070458,0.073114,-0.22957,-0.53885,0.11555,0.055342,0.026371,0.04101
-0.05147,-0.0056274,0.31023,0.72152,-0.024092,0.016315,0.0046261,-0.027185
-0.0082634,0.012025,-0.076671,-0.27663,0.0019021,-0.068806,-0.039573,-0.016035
-0.081704,-0.21147,0.02691,-0.2244,-0.10319,0.026825,-0.03593,-0.050827
0.071346,0.11903,0.89438,0.29711,0.28524,0.11568,0.062229,0.071085
0.083102,0.15042,-0.36812,0.058049,-0.099372,-0.021337,0.067,0.067838
-0.0078588,0.022198,-0.11774,0.13989,0.12458,-0.0098154,-0.053446,-0.04561
-0.092452,-0.21151,-0.40001,-0.28386,-0.23159,-0.10822,-0.010717,-0.012042
-0.053536,-0.074043,-0.20508,-0.033865,-0.035816,0.026662,-0.02419,-0.074047
0.062227,0.11501,0.12738,-0.041962,-0.0069447,-0.042935,0.085375,0.088574
0.013063,0.0052401,-0.52097,0.20394,-0.199,0.026805,-0.08842,-0.078651
0.033877,0.12147,0.73402,0.2387,0.24085,0.048751,-0.029746,0.026358
-0.015433,-0.11308,0.19232,-0.14481,0.31416,0.054729,0.043179,0.021502
-0.032887,0.076119,0.20156,-0.26212,-0.21973,-0.040563,-0.017323,0.0013017
0.0051814,-0.060187,-0.26571,0.36197,0.038765,-0.056883,0.01613,0.028925
0.012843,0.0017507,0.012413,-0.81882,-0.30041,-0.032939,-0.012007,-0.059258
0.021151,0.0040416,-0.46967,0.065082,0.17673,0.078222,0.023701,0.0024923
-0.0014933,-0.053718,-0.070111,0.79074,0.00065975,-0.02832,-0.079774,-0.051664
0.0070016,0.04657,0.43017,-0.25499,-0.040942,0.068803,0.31016,0.23091
-0.039673,0.0072166,0.069706,0.1424,0.1751,0.0017158,-0.17409,-0.11133
-0.02457,0.014826,0.11288,0.0088518,0.0061132,-0.066241,-0.095436,-0.00082044
0.067882,0.045066,-0.59834,-0.38108,-0.11229,0.036226,0.014659,-0.062893
-0.074667,-0.13725,0.83249,0.37865,0.099725,-0.058362,-0.10934,-0.094368
0.032474,0.01409,-0.54183,-0.38513,-0.11621,0.056335,0.17358,0.11615
0.030344,0.11587,-0.23053,0.38039,-0.048713,-0.056714,-0.081353,-0.0086971
-0.018131,0.011706,0.35162,-0.38947,-0.10259,-0.068645,-0.092452,0.0085468
0.020219,-0.056008,-0.060894,0.22507,0.021206,0.083874,0.17945,-0.026681
-0.002817,-0.032051,0.15774,-0.066924,0.2314,0.034364,-0.00045474,0.018799
-0.055924,-0.040588,-0.092766,-0.063955,-0.20413,-0.0058349,0.023099,-0.01146
0.048292,0.013169,-0.38911,0.34978,0.3256,0.088271,-0.032544,0.014536
-0.018554,0.10689,0.34797,-0.42847,-0.077168,-0.082151,-0.059519,0.017309
0.032212,-0.0475,0.072144,0.20182,-0.061126,0.060364,0.35502,0.36237
-0.042064,-0.0039859,-0.33415,-0.049236,-0.18197,-0.13336,-0.46919,-0.58475
0.054993,-0.020127,0.7215,0.48977,0.082314,0.047014,0.093176,0.18242
-0.059906,-0.033709,-0.36462,-0.69677,-0.019816,-0.07857,-0.21451,-0.094628
-0.043416,0.016924,-0.54828,0.032432,0.033744,0.013281,-0.093594,0.060694
0.10418,-0.033622,0.43356,0.35844,0.023267,0.10403,0.48126,0.086671
0.023375,0.14895,0.22734,-0.20109,0.0028884,0.045598,0.058448,0.031555
-0.067019,0.00045844,-0.23813,-0.018711,0.081831,-0.02096,0.060628,0.10805
0.0051379,0.035196,0.49863,0.45503,-0.13036,-0.0562,-0.12946,-0.24442
-0.017498,-0.083406,-0.66178,-0.65258,-0.063012,-0.051997,-0.19224,0.054117
-0.056159,-0.19089,-0.37989,-0.23836,-0.12971,-0.015925,-0.058461,-0.065063
0.10084,0.13616,0.45027,0.51078,0.42,0.13813,0.05998,0.078816
0.063645,0.17378,0.020631,0.55518,0.07872,0.019691,0.13125,0.025248
-0.10457,-0.37946,0.12386,-0.45848,-0.1844,-0.074251,-0.024409,0.02389
-0.020487,-0.0045933,0.15251,-0.17335,-0.10326,-0.12796,-0.14881,-0.1217
-0.082321,0.090183,0.29398,0.087494,-0.30229,0.022701,-0.02256,0.055438
0.14735,0.32042,-0.60225,0.071687,0.21921,0.15119,0.15184,0.25624
0.066551,-0.0093711,-0.25847,-0.27687,0.11033,-0.00040364,0.062274,-0.21681
-0.075395,0.10675,0.80551,-0.083339,0.13713,-0.010434,0.16187,0.15009
0.087844,-0.037658,-0.3362,0.5674,-0.051955,-0.019898,-0.16695,-0.19881
-0.22587,-0.66549,-0.33511,-0.36173,-0.1528,-0.12302,-0.2921,-0.32609
0.037393,0.28141,0.15076,-0.032374,0.044496,0.039037,0.16062,0.35504
0.095822,-0.0055284,-0.23832,-0.0047474,0.069782,0.090751,0.010731,-0.013242
-0.035228,0.16597,0.27967,0.2384,-0.039338,-0.030857,0.1404,0.078741
0.097366,0.12214,0.22185,-0.17734,-0.057557,0.02541,-0.099219,-0.039166
-0.053033,-0.075132,0.097711,0.20842,0.084652,0.03279,-0.044263,0.056158
-0.064122,0.12962,-0.059926,-0.10593,-0.042552,-0.078993,0.086588,-0.001871
0.04904,0.0041843,-0.29664,-0.16177,0.053557,0.034119,0.16086,0.03673
-0.048849,-0.47138,0.068267,-0.031949,-0.16494,-0.064784,-0.29741,-0.18788
0.017843,0.10588,-0.4175,0.40624,-0.0090008,-0.038962,0.025145,0.0032977
0.06216,0.029993,0.44982,-0.16906,0.12456,0.10466,0.051415,0.023639
-0.056146,-0.014663,-0.055861,-0.23496,0.073056,-0.0080966,-0.076962,0.0053901
0.030277,0.030173,0.46415,-0.11119,-0.084524,-0.0094882,0.20332,0.12785
-0.022399,0.45533,-0.37289,0.016245,0.042611,0.014747,-0.13076,-0.12486
0.0042823,-0.22396,0.15177,0.51669,0.078937,0.017513,0.022221,0.090856
0.016108,-0.017974,-0.49308,-0.15443,-0.14069,-0.033032,-0.0025036,0.0014548
-0.026538,-0.016593,-0.17442,-0.19037,-0.055133,-0.012736,0.12202,-0.096282
0.063288,0.025577,0.83458,0.0197,0.13889,0.061849,-0.058758,0.094448
-0.066447,-0.28637,-0.40339,-0.031366,-0.09883,-0.060105,-0.077482,-0.067028
-0.0098183,0.067836,-0.068122,0.21097,0.066932,0.019269,-0.060223,-0.065104
0.014287,0.18826,-0.03525,-0.41827,-0.020271,-0.067433,0.094068,0.084591
0.013723,-0.128,0.51438,0.48572,-0.039822,0.031509,0.018359,0.069551
-0.019135,-0.0042443,-0.20204,-0.14134,-0.0066538,0.058756,-0.059985,-0.078993
0.025367,-0.15663,-0.28777,-0.082394,0.025457,-0.031895,0.0087596,0.045174
0.030343,0.34728,0.12291,0.012765,0.057432,-0.013166,-0.03951,-0.034535
-0.058616,-0.11527,-0.23658,-0.012804,-0.058416,0.0061835,0.038842,-0.036851
-0.0069153,0.0272,0.086636,-0.1043,0.029925,0.0031148,0.10428,-0.0007436
0.068406,0.079279,0.47576,0.37979,0.017866,0.0011896,-0.20985,0.12084
-0.051318,-0.1791,-0.81046,-0.46527,-0.047928,0.039324,0.22915,-0.14058
0.0011364,-0.0078759,0.40892,0.010723,0.097763,0.023417,0.022126,0.090288
0.02266,0.24679,0.76817,0.16878,-0.1627,-0.086031,-0.058558,-0.029999
-0.010171,-0.10462,-0.62175,-0.060347,0.11569,0.015277,-0.10002,-0.071512
0.0042311,0.17897,0.045581,0.25329,0.010969,0.038048,-0.040775,0.059627
-0.01222,-0.52732,-0.32953,0.18718,-0.054738,-0.08803,-0.029858,0.027455
-0.05168,-0.026824,-0.4718,-0.26783,-0.049644,0.035713,0.081023,0.019286
0.042104,0.0030193,0.57331,-0.33213,-0.035527,0.026868,0.10465,-0.0042552
0.026891,0.18972,0.35316,0.24271,0.13678,0.010902,-0.13029,-0.05134
0.011939,0.34788,-0.39884,-0.18502,-0.016535,-0.0039588,0.12686,0.018351
0.028336,0.10368,0.55688,0.11073,0.028142,0.029418,-0.029579,0.048412
-0.041252,-0.2303,-0.29151,0.1457,-0.081019,-0.045182,-0.091421,-0.10172
-0.01721,0.017055,-0.1284,-0.079628,-0.071321,-0.079525,-0.074187,-0.0020678
-0.0010313,-0.11629,0.45593,0.091753,0.1655,0.17598,0.186,0.10564
-0.054988,-0.20147,-0.61172,0.082525,0.042219,-0.12298,-0.11597,-0.16089
0.024398,-0.051142,-0.21477,-0.24711,-0.051774,0.077675,0.19899,0.13634
0.081271,0.23376,0.5941,-0.036961,-0.039272,-0.035107,-0.16661,0.013246
-0.040299,-0.087799,-0.59492,0.16696,-0.076942,0.022639,0.10707,0.11836
-0.012053,0.016587,0.13791,0.12333,-0.094297,-0.093028,-0.18333,-0.22035
0.025251,0.13346,0.079563,-0.44824,0.07343,0.024177,0.017003,-0.0032564
-0.053806,-0.073525,0.42988,0.1873,0.15385,0.015111,0.020997,0.019148
0.0079152,0.11281,0.027047,0.18666,-0.09407,0.012928,0.024578,0.0025231
0.12365,0.1743,-0.07472,0.0030166,0.12755,0.07268,0.07526,0.1025
-0.05117,-0.040518,-0.011293,-0.02026,-0.039961,-0.055331,0.0094658,-0.017458
-0.071915,-0.55785,-0.60009,-0.071468,-0.10402,-0.019328,-0.024137,0.009312
0.029816,0.30015,0.2938,0.020132,0.060473,0.048004,-0.0099656,-0.059736
-0.081849,-0.15447,0.0634,-0.26245,-0.093433,-0.079808,-0.065449,-0.029408
0.12484,0.5169,0.52492,0.24333,0.14504,0.11297,0.090349,0.03016
-0.036741,-0.49577,-0.55032,0.012438,-0.13053,-0.092243,-0.04282,0.0022515
-0.065516,-0.16579,-0.38868,-0.26925,0.024958,-0.023324,-0.027527,-0.010863
0.055229,0.31486,0.78573,0.47486,-0.021617,-0.0081024,-0.019876,0.015084
-0.048618,-0.17615,-0.82758,0.024766,-0.036346,0.086514,0.066415,-0.020664
0.10001,0.54225,0.72186,-0.15146,0.23788,-0.028356,-0.080707,0.030979
0.024556,0.0011258,-0.23263,-0.1239,-0.12172,0.022298,0.14073,0.053201
-0.10358,-0.45746,-0.038344,-0.25057,-0.0068298,-0.0039138,-0.11277,-0.1102
0.050632,0.17939,0.096453,0.10387,0.042495,-0.044901,-0.03658,0.06393
-0.045192,-0.31026,-0.22602,0.25541,-0.068221,0.03939,0.079843,-0.01088
0.045261,0.1487,0.4695,-0.042021,-0.15173,-0.11107,-0.029854,-0.038447
-0.022772,-0.078853,-0.31206,0.20751,0.20638,0.16714,0.18805,0.14458
0.03128,0.26352,0.39433,-0.3603,-0.016393,-0.017129,-0.14246,-0.11084
-0.089685,0.019281,-0.77442,-0.14252,-0.0060928,-0.031406,-0.045713,-0.055081
0.091144,0.064199,0.53814,0.10248,0.020258,-0.016394,-0.037857,0.022689
-0.11305,-0.16254,0.13515,0.036001,-0.29499,-0.19067,-0.10335,-0.033617
0.095606,-0.22101,-0.67869,0.17666,0.31522,0.21179,0.21914,0.088863
0.093269,0.055678,0.090094,0.42438,-0.062345,0.066486,0.047541,0.039026
-0.15798,-0.30615,0.15441,-0.1496,0.048907,-0.14174,-0.17969,-0.081116
0.053738,0.78199,0.070762,-0.27024,-0.094022,0.024955,0.054027,0.049115
-0.052176,-0.084314,0.50417,-0.44173,0.093259,-0.019248,-0.023988,0.047148
0.047934,0.15851,-0.10043,0.1472,-0.039688,0.061493,0.078925,-0.14941
-0.021159,-0.54388,-0.55715,0.069121,0.051959,0.07162,0.0035195,0.014141
0.060202,0.042718,0.54566,0.54047,0.10873,0.0030557,-0.00038058,-0.0013818
-0.044884,-0.46493,-0.46625,-0.57924,-0.29994,-0.15213,-0.08157,0.077272
0.076548,0.40914,0.21033,0.00036,0.037032,0.012503,0.11895,0.062355
-0.0061768,0.46887,-0.19015,0.14745,-0.0041587,0.020935,-0.070931,0.031738
-0.0046379,-0.060133,0.47489,-0.068374,0.070676,0.014679,-0.049618,-0.1007
-0.14551,-0.10872,-0.82213,0.34147,0.01393,-0.044253,-0.012102,-0.061534
-0.014265,-0.16255,0.28294,0.080786,-0.04713,0.017041,0.01091,-0.092796
0.1557,0.11313,0.4981,-0.28307,0.15477,0.035215,0.027841,0.14179
-0.18125,-0.53273,-0.42271,-0.25619,-0.051593,0.057335,0.046975,0.0019987
0.13228,0.11774,-0.14168,0.16874,-0.096349,-0.034243,-0.0096679,0.16003
-0.05922,0.41516,0.68414,0.13868,0.10494,-0.029673,-0.064266,-0.34493
0.088066,-0.12609,-0.69116,-0.24597,-0.02807,0.022602,0.077729,0.20566
0.12813,0.34385,0.32781,0.73404,0.072389,0.073917,0.071439,0.116
-0.12788,-0.14584,0.25683,-0.48843,-0.15854,-0.12742,-0.12349,-0.23963
0.029276,-0.02699,-0.10706,-0.30518,0.050829,0.050089,0.046434,0.22389
-0.097351,-0.37939,0.19107,0.044075,-0.11286,-0.081727,-0.091547,-0.10353
0.076987,0.32757,-0.49227,0.1511,0.2568,0.10998,0.032517,-0.04263
-0.15128,-0.28038,-0.38236,-0.13999,-0.26879,-0.12405,0.043844,-0.030964
-0.031762,-0.044819,0.20605,-0.085653,-0.00042681,0.053364,-0.056814,-0.0056704
0.13198,0.35792,0.73518,0.77581,0.21238,0.0031397,0.028566,-0.0051233
0.0055568,-0.22441,-1.1277,-0.90069,-0.065928,0.078389,0.027878,0.11997
0.059367,0.26687,0.53429,0.37255,0.0099931,0.022629,0.020539,-0.035788
0.036958,-0.11019,0.15123,0.19677,0.17554,-0.014759,0.007605,0.082949
-0.092084,-0.064299,-0.023166,0.21665,-0.13915,-0.080151,-0.080567,-0.10154
-0.046316,-0.17275,0.25935,-0.48046,-0.24667,-0.071929,0.021857,-0.026639
0.056641,0.29034,0.18688,0.12115,0.06341,0.087698,0.009929,-0.036227
-0.12008,-0.40363,-0.30673,-0.27514,0.071535,-0.094096,-0.062341,0.041272
0.17229,0.50014,0.10074,0.57468,0.1829,0.21776,0.11657,0.064844
0.010622,-0.040951,-0.58065,-0.55931,-0.15058,-0.048002,0.10806,0.010654
-0.012383,0.047846,0.3964,0.3539,0.085413,-0.048589,-0.1436,-0.082572
-0.014496,-0.2126,0.22147,-0.30786,-0.024429,-0.026968,-0.037626,0.1209
-0.12069,-0.08913,-0.75371,-0.15663,-0.082676,-0.038327,-0.035318,-0.16805
-0.0021537,-0.13606,0.27375,0.25927,0.097562,-0.035956,-0.04284,0.027265
-0.05614,-0.21871,0.15841,-0.13205,-0.11662,0.058423,0.096527,-0.027307
0.16411,0.7361,0.36709,0.78358,0.040876,0.065491,0.047524,0.11379
-0.035343,-0.26849,-0.60162,-0.72573,-0.12435,-0.09242,-0.056357,0.013256
0.0026788,-0.12823,0.18641,0.042919,0.17801,0.085093,0.02756,-0.0398
0.051917,0.29911,-0.0966,0.44623,0.097698,0.035801,0.033839,0.071747
0.026036,-0.22838,0.19261,-0.027979,-0.12191,-0.083937,-0.0063944,-0.058505
-0.021251,0.069473,0.050649,-0.46289,-0.10492,0.022739,0.015888,-0.1104
-0.052175,0.073451,0.65615,-0.097514,0.071067,-0.089546,-0.11848,0.056567
0.049158,0.13261,-0.26142,0.18978,0.10931,0.11824,0.066731,0.004876
-0.20263,-0.68513,-0.52878,-0.14956,-0.037265,-0.033519,-0.03795,-0.015458
0.074753,0.33717,-0.0028407,0.19703,-0.087837,0.0022453,0.044216,0.15964
0.068797,0.12828,-0.85732,0.11376,0.066414,-0.008527,-0.0066411,-0.16518
0.02992,0.071057,1.0829,-0.16274,-0.11415,-0.073261,-0.041467,0.025547
-0.0021498,0.018018,0.15516,-0.012823,0.088677,0.081869,0.041955,0.0519
-0.0032656,-0.076086,0.24123,0.48768,0.018181,0.019667,0.017613,-0.00046999
0.0037229,0.10327,-0.67093,-0.40159,-0.044823,-0.048786,-0.043859,-0.006828
-0.035509,-0.61372,-0.036016,-0.32778,-0.014811,0.0092688,0.037251,-0.061094
0.0041409,0.38406,-0.73008,0.038106,0.13124,0.068574,0.034089,0.047646
-0.018082,-0.050763,0.64236,0.51692,-0.14615,-0.066591,-0.061701,-0.078904
0.077213,0.58969,0.62889,0.10125,0.12145,0.056418,0.046055,0.090782
-0.030668,-0.33618,0.10727,0.025845,0.0041151,-0.031613,-0.026183,-0.013266
0.0094624,0.044779,-0.29331,-0.74792,-0.091896,-0.073247,-0.036861,-0.0079092
-0.10739,-0.26978,-0.12132,-0.37589,-0.15853,-0.053117,-0.017686,-0.04135
0.032635,-0.10257,0.14873,0.81397,0.17189,0.12237,0.046726,0.08963
0.030992,0.075636,-0.27185,0.12591,0.11876,0.015594,0.007903,-0.021274
0.028272,0.099375,0.055777,-0.11328,-0.12967,0.032686,0.037844,-0.030485
0.024478,0.030463,-0.035531,0.2035,0.091328,-0.053075,-0.05072,-0.016353
0.0040221,-0.029497,0.27658,-0.10641,-0.11612,0.023769,0.0081221,0.0052934
-0.040805,0.39681,-0.50778,-0.092933,-0.040709,-0.072834,-0.035324,0.026529
-0.016028,-0.29849,0.038982,-0.46162,0.01299,0.0086943,0.02237,-0.015116
0.039694,0.14469,-0.28408,0.52079,0.15425,0.049817,0.040878,-0.0022674
-0.0449,-0.51279,0.25413,-0.26228,0.031224,0.011911,0.0048726,0.0029111
-0.011208,0.053031,0.86908,0.1134,-0.036197,-0.018435,-0.01502,0.024299
0.047895,0.13497,-0.22578,0.19062,-0.13437,-0.016988,-0.034085,-0.023557
-0.085532,0.080084,-0.24247,-0.23712,-0.013666,-0.029786,0.0027329,-0.023031
0.050013,0.17953,-0.5145,-0.34525,-0.033697,-0.017031,-0.013585,0.0027444
0.040621,-0.027274,0.33127,0.17412,0.0084795,0.053019,0.018808,-0.00083649
-0.028141,-0.057668,-0.10898,0.64265,0.14392,-0.022647,-0.056214,0.012896
0.053759,0.014346,0.75852,-0.3156,0.098919,0.075958,0.065914,0.035622
-0.035339,-0.24615,-0.94216,-0.16473,-0.13473,-0.011287,0.033218,0.0040724
-0.00014783,0.13136,0.59324,0.098186,0.051945,-0.011991,0.0012634,-0.012355
0.064018,0.21897,-0.15723,0.60028,-0.083573,0.010187,0.070745,0.047934
-0.070663,-0.035276,0.1701,-0.8747,-0.025711,-0.016106,-0.087356,-0.065777
-0.076796,-0.18166,-0.48751,0.12246,-0.039786,-0.13066,-0.11442,-0.056994
0.0064822,-0.12761,-0.64295,-0.28497,0.11708,0.095921,0.05157,0.0039981
0.062552,0.32348,0.79452,0.45836,-0.022902,-0.015908,-0.011402,0.008242
-0.032514,-0.11391,-0.044567,-0.23062,-0.0055153,-0.0047122,0.048392,0.057999
0.066388,-0.44236,0.42278,0.43368,-0.12668,0.028634,0.020398,-0.0021655
-0.022184,0.15669,0.29341,0.10467,0.1455,0.037961,0.030109,0.016011
-0.023626,0.44693,-0.48643,-0.90045,-0.04818,-0.030831,-0.023526,-0.019707
0.039425,-0.051289,-0.17561,0.62514,0.18255,0.096104,0.039666,0.023815
-0.0045278,-0.03035,-0.081074,-0.12891,-0.053712,-0.096627,-0.076731,-0.033038
-0.022685,-0.059735,0.14628,0.033138,-0.22673,-0.06202,-0.020701,-0.010702
0.015911,-0.27334,-0.4328,0.078858,0.11559,0.059404,0.012903,0.0046519
0.0092708,0.27168,0.81403,0.15432,-0.019719,-0.013467,0.0010862,0.0049546
-0.05082,0.21283,0.083111,0.2098,0.054449,-0.069503,-0.055782,-0.033444
0.061933,-0.10131,-0.92801,-0.55419,0.025649,0.15713,0.15502,0.10027
-0.082234,-0.11043,0.50228,-0.053402,-0.13692,-0.075575,-0.03835,-0.078327
