0.044676,0.21029,0.071186,0.051647,0.016919,0.0094622,-0.0021653,-0.0017305
-0.030143,0.016388,-0.08821,0.081592,0.039165,0.079857,0.10738,-0.062759
-0.04275,-0.3564,-0.46396,-0.23279,-0.11822,-0.15464,-0.18893,-0.099636
0.0074918,-0.0037836,0.12121,0.038309,0.044784,0.063664,0.06169,0.11506
-0.011423,-0.17722,0.078914,-0.0033067,-0.0030895,-0.0075253,0.08541,0.12886
0.010828,0.24758,0.25072,0.033338,0.027213,0.014579,-0.094672,-0.10476
-0.018533,0.56768,0.26002,0.11738,0.026327,0.020673,0.083743,0.07045
-0.18466,-0.81761,-0.58149,-0.14146,-0.068197,-0.043753,-0.06682,-0.13495
0.15338,0.22587,0.29667,0.10079,0.0093629,0.0012609,0.00080189,0.044007
-0.098603,-0.073864,-0.44024,-0.10112,0.0091383,0.023235,0.01371,-0.041973
0.25334,0.096821,0.19423,0.11206,0.056277,0.038131,-0.0039528,0.028009
-0.066534,-0.035018,0.25736,-0.13495,-0.099095,-0.11003,-0.067075,0.073262
0.095103,0.22558,-0.38881,0.040248,0.043083,0.063284,0.07493,-0.063422
0.14925,-0.044421,0.2658,0.059058,0.037452,0.018953,0.047327,0.18744
-0.30506,0.020435,0.16801,-0.094642,-0.084909,-0.079229,-0.14226,-0.33099
-0.27699,-0.08947,-0.11119,0.055289,0.058511,0.06512,0.013275,0.084118
0.17902,0.16356,0.59226,0.38359,0.11576,0.099782,0.255,0.096963
-0.03669,-0.60378,-0.89386,-0.54724,-0.16359,-0.085325,-0.051299,0.11437
0.19641,0.15598,-0.14806,0.036502,0.048226,0.00919,-0.16478,-0.089173
0.093414,0.17879,0.032525,0.096326,-0.022449,-0.070161,0.10102,0.026879
-0.14608,0.076244,0.24929,-0.070182,-0.031897,-0.018692,-0.27773,-0.27784
-0.026194,0.25697,0.27525,0.19391,0.082567,0.06243,0.19929,0.084579
-0.083498,-0.12848,-0.0078044,0.0062632,-0.0068153,0.033326,0.072216,0.19412
-0.08271,-0.086338,-0.10954,-0.093947,-0.041739,-0.042541,-0.071407,-0.13527
0.36597,-0.13138,-0.016905,0.041463,0.0017657,-0.039165,0.074978,0.20652
-0.052345,-0.1228,-0.092274,-0.04899,-0.00080863,0.02869,-0.13528,-0.19473
0.065035,-0.045493,0.42716,0.071514,0.044659,0.052197,0.072634,0.10525
-0.035926,0.41192,-0.51534,-0.074223,-0.025699,0.00024132,-0.050582,-0.036006
-0.4137,-0.095987,-0.16277,-0.11165,-0.024394,-0.010297,0.11994,0.035374
0.17105,0.0068966,0.14961,0.091864,0.0014883,-0.073861,-0.15115,-0.2613
0.013696,0.10907,0.12698,0.098903,0.075014,0.089853,0.18916,0.41527
0.12209,-0.14292,0.22551,-0.051186,-0.038657,-0.012376,-0.056557,-0.39004
-0.057067,-0.2191,-0.10591,-0.029882,-0.019684,-0.014296,0.10959,0.17303
-0.060472,0.16126,0.026771,0.046046,-0.03253,-0.072842,-0.26724,0.17429
0.11474,-0.13438,-0.20956,0.036345,0.04754,0.077281,0.11667,-0.08118
0.002696,-0.18334,-0.37566,-0.1134,-0.013949,-0.016996,-0.074591,-0.12341
0.082388,0.50759,0.38822,-0.074934,-0.029439,-0.019336,-0.043206,-0.075519
-0.2226,-0.029538,0.23719,0.11267,0.016866,-0.015035,0.056265,-0.12276
0.11979,0.1041,0.19221,0.10549,0.047071,0.066962,0.12429,0.26054
-0.1172,-0.35725,-0.20327,-0.065549,-0.032343,-0.038274,-0.032488,0.091823
0.088742,0.21096,-0.070101,-0.033666,0.013188,0.005717,-0.10013,-0.096583
0.0012786,-0.10585,-0.067669,0.036696,0.011916,0.027327,0.12516,0.17989
-0.061864,-0.25331,-0.34636,-0.08129,-0.05953,-0.051581,-0.05207,-0.3216
0.12297,0.22172,0.1481,0.04982,0.02543,0.02654,0.04692,0.10085
0.16231,-0.086652,0.0027134,-0.022916,0.0089695,0.011255,-0.094933,0.12544
-0.23524,0.26748,0.40711,0.052459,0.023869,0.027068,0.12231,-0.11638
0.053876,-0.12145,-0.19867,-0.10636,-0.047102,-0.043646,-0.068409,-0.039621
-0.15807,0.083144,0.070512,0.063633,0.022568,0.0019667,-0.019618,0.019419
-0.034098,-0.13378,-0.2056,0.0080996,-0.0015469,-0.023635,-0.10662,-0.048382
0.15456,-0.00603,0.036184,0.039649,0.021131,0.0047537,0.053739,0.10147
-0.073546,0.045176,0.20972,-0.029401,-0.03443,-0.029657,-0.037661,-0.092514
0.20664,0.12997,0.001681,0.019267,0.019266,0.061137,0.17499,0.18322
-0.15829,-0.368,-0.096743,0.0053914,0.018198,0.027626,-0.033755,-0.031393
0.068144,0.22393,0.093414,0.0065385,-0.029732,-0.020428,-0.038058,-0.10298
-0.12868,-0.27341,-0.48259,-0.10268,-0.0071889,-0.02813,0.02973,-0.039161
0.087049,0.42123,0.3479,0.083885,0.031324,0.035785,-0.025641,0.050582
-0.12177,-0.12254,-0.09325,-0.06636,-0.023373,-0.016347,0.037775,0.017444
0.40703,-0.0076481,-0.046285,-0.029488,-0.030492,-0.0442,-0.069485,0.095286
-0.21154,0.22496,0.46725,0.13263,0.033484,-0.0091011,-0.058785,-0.16176
-0.0028615,-0.098592,-0.43413,-0.063776,0.012265,0.049456,0.038273,0.097333
-0.17918,-0.16745,0.1718,0.022317,0.022858,0.021659,-0.0051251,-0.14348
-0.10803,-0.23251,-0.31732,-0.046491,-0.020985,-0.0069557,0.076474,0.068589
0.039331,0.13597,0.27623,0.034235,-0.018097,-0.021083,0.025114,0.014578
0.31897,0.071757,0.25428,0.092072,0.031111,0.033774,0.012526,0.35839
-0.056459,-0.0018124,-0.27716,-0.10808,-0.053397,-0.06897,-0.11769,-0.47823
-0.069764,0.13554,0.014588,0.011163,0.025027,0.0067869,0.0093217,0.059302
-0.079312,-0.077612,-0.11525,-0.027316,-0.0071134,0.027011,0.018492,0.072398
0.024419,-0.023809,0.33971,0.080914,0.037796,0.023419,0.081697,-0.17354
-0.032821,0.16348,-0.34705,-0.093702,-0.027476,-0.011281,-0.027537,0.25866
-0.033958,-0.064052,-0.080297,-0.0037941,-0.015048,-0.029725,-0.098118,0.032589
0.33127,-0.32549,-0.20118,-0.015787,-0.0026086,-0.0080947,-0.012685,-0.039732
0.052737,0.32265,0.37944,0.074316,0.033709,0.030376,0.049213,-0.0055418
-0.051127,-0.050596,0.31316,0.095441,0.016144,0.015375,-0.0061222,0.14296
-0.55153,-0.023626,-0.092736,-0.10808,-0.023804,0.0091996,0.33689,-0.35151
0.11437,0.15463,-0.18811,-0.059447,-0.039153,-0.027576,-0.34373,0.0043324
0.0028657,-0.10713,0.16846,0.12405,0.055979,0.03741,-0.024671,0.040174
0.085132,-0.14894,-0.42146,-0.12839,-0.066749,-0.069734,-0.034098,-0.078266
0.32477,-0.20077,0.072811,0.049675,0.021982,-0.013451,-0.028206,0.14252
-0.11976,0.030847,-0.10755,0.0010243,0.040438,0.049754,0.2119,0.10154
-0.036301,0.22911,0.34077,0.060562,0.027137,0.01039,0.022347,0.24373
-0.096723,0.38014,0.10353,0.00076139,-0.018449,-0.014335,-0.049826,-0.2134
0.018146,-0.18069,-0.11819,-0.054121,-0.018599,0.014767,-0.12168,-0.0059733
0.35326,-0.16737,-0.03754,-0.026338,-0.03601,-0.0036639,0.07249,0.012787
-0.43731,-0.038223,-0.016,0.068578,0.023143,-0.0068796,-0.07665,-0.19723
0.058648,-0.12022,0.0073088,-0.073473,-0.043912,-0.049307,0.055903,-0.16736
0.066579,0.27482,0.14093,0.032918,0.029025,0.033362,-0.0064712,0.0095569
-0.17925,-0.054954,-0.31811,-0.06403,0.0239,0.030395,0.095467,0.21792
0.12673,-0.020762,-0.0015484,0.082445,0.011712,-0.0033766,-0.076001,0.15479
0.056417,0.17945,0.2799,0.051795,0.024274,0.018065,0.049161,-0.0066263
0.072623,-0.26666,-0.45612,-0.07687,-0.031811,-0.038062,-0.1387,0.10922
-0.11982,-0.21551,0.2999,0.0016095,-0.031442,-0.031133,0.039875,-0.1387
0.011442,-0.052352,0.12709,-0.056649,-0.0060143,0.038844,0.15513,-0.17349
-0.11929,0.12814,-0.021324,0.0054266,0.0050521,-0.023446,-0.050664,0.010893
0.206,0.20059,-0.10694,0.092843,0.048126,0.047623,-0.077197,-0.017171
-0.045455,0.48439,0.61937,0.11812,0.021071,-0.0057619,-0.033366,-0.0016838
0.10869,-0.38202,-0.18647,-0.053114,-0.053224,-0.074244,-0.043583,0.094957
0.16647,0.20688,-0.7579,-0.10959,0.035747,0.084323,0.11149,0.30305
-0.3579,-0.50453,0.17335,-0.036316,-0.040377,-0.022322,0.088541,-0.36214
0.019578,-0.11721,0.11145,0.096525,0.015273,0.0041566,-0.19819,0.13881
-0.12996,0.16489,-0.54808,-0.28832,-0.093977,-0.055126,0.11832,-0.083704
-0.12496,-0.097935,0.27712,0.13864,0.054085,0.034046,0.12353,-0.12174
0.13078,0.30952,0.41724,0.10545,0.061386,0.029305,-0.22236,-0.043493
0.26454,0.27295,0.37873,0.074227,0.014141,-0.0070441,0.17357,0.16113
-0.0034562,-0.29966,0.054754,0.053318,0.014034,-0.012695,-0.25199,-0.068278
0.084796,-0.24329,-0.5009,-0.098169,-0.04055,-0.0034466,0.141,0.37146
-0.0030778,0.27108,0.10734,-0.029655,-0.040415,-0.026304,0.01628,-0.1046
-0.23012,0.11225,-0.037371,-0.055071,-0.017034,-0.0032022,0.0066573,-0.207
0.22935,-0.16972,-0.24797,0.10534,0.076295,0.0737,0.065604,-0.029581
-0.21265,-0.15535,0.32307,-0.010508,-0.010475,0.0014189,0.0062924,-0.10395
-0.11188,-0.00060406,0.083306,0.0031369,-0.011601,-0.024471,-0.076562,0.084968
-0.054012,0.094369,-0.5309,-0.13466,-0.036175,-0.042646,-0.072409,0.091135
0.071812,0.19747,-0.10224,-0.032182,-0.0056753,-0.021374,0.0043653,-0.070831
0.16635,-0.19193,-0.0392,0.038752,0.0022051,0.016425,0.029841,0.058594
0.036836,0.19986,0.2886,0.11899,0.058139,0.032154,-0.026579,0.17283
0.044772,-0.4864,-0.046046,-0.039966,-0.0095552,0.010485,0.053827,-0.22265
-0.18362,0.13116,0.50908,0.0080737,-0.029049,-0.025097,0.067065,-0.099179
0.00014135,-0.051988,0.000197,-0.033734,-0.024081,-0.027976,-0.14482,0.11887
0.26683,0.73203,0.81949,0.31819,0.12202,0.11849,0.18927,0.26537
-0.026196,-0.087659,-0.87144,-0.25009,-0.060145,-0.016128,0.32458,0.011017
-0.31897,-0.29546,-0.56098,-0.076176,-0.032176,-0.057659,-0.54583,-0.42542
-0.082841,-0.44335,-0.26772,-0.13041,-0.068073,-0.084959,-0.13436,-0.12068
0.17995,0.040544,0.063217,0.023557,0.0271,0.034273,0.16811,0.2404
0.13969,0.28256,0.4909,0.2289,0.089138,0.081086,0.034504,0.067692
0.069051,0.15169,0.1177,-0.053424,-0.022497,-0.030326,0.13114,0.099617
-0.16464,0.072685,-0.028824,-0.057283,-0.034083,-0.01047,-0.0076666,-0.15217
0.0099645,-0.21572,-0.020723,0.069727,0.015758,0.0084833,-0.097299,-0.028358
-0.10065,0.050369,0.046928,0.086435,0.049442,0.019474,0.013833,0.22291
0.044911,-0.29302,-0.2812,-0.20143,-0.073064,-0.054883,2.3641e-05,-0.14016
0.019494,0.16994,0.17057,0.011774,0.00038591,0.012593,-0.098377,-0.087347
0.005108,0.14551,-0.018056,-0.031051,0.0046732,0.011354,0.085713,0.058672
-0.074661,-0.15136,0.18362,0.0064237,-0.04422,-0.03506,-0.0274,-0.11947
0.17942,0.18992,0.30467,0.18666,0.088225,0.12313,0.22348,0.21815
-0.061023,0.072028,-0.36878,0.024833,0.01908,-0.030182,-0.071675,-0.080762
0.046559,-0.47794,-0.54261,-0.21426,-0.087953,-0.10506,0.043993,0.15239
0.31281,0.77728,0.84392,0.29652,0.14158,0.085256,-0.27697,-0.045564
-0.53777,-0.82447,-0.80335,-0.2953,-0.11327,-0.069255,0.040907,-0.011317
-0.053891,0.40519,0.33686,0.048686,0.014126,0.079392,0.15273,-0.30647
0.12259,-0.026142,-0.30399,-0.038946,-0.015717,-0.0471,-0.081525,-0.02233
0.045864,-0.47916,0.15872,-0.058024,-0.054538,-0.042361,-0.1206,0.00086214
0.06771,0.55943,0.43709,0.12474,0.046156,0.015856,0.093604,0.20451
0.016968,0.094262,0.26549,0.056807,0.020978,0.042153,0.065124,0.23273
0.18367,-0.073639,0.11943,0.098114,0.042132,0.021506,0.040108,-0.044857
-0.39211,0.13028,-0.58862,-0.12593,-0.030674,-0.022086,-0.08756,-0.21321
0.1811,-0.24216,-0.25055,-0.013481,0.021592,0.021207,0.035758,0.10221
-0.057012,-0.13001,-0.054105,-0.00183,-0.027421,-0.035803,0.020065,0.048248
-0.0045737,-0.02543,0.048782,-0.082912,-0.021308,-0.01327,-0.065139,-0.14289
0.064988,-0.18467,-0.17386,0.0092455,0.0009986,-0.01273,0.012498,-0.0046502
0.073289,0.27767,0.87466,0.13445,0.039627,0.059474,0.29705,0.055048
0.066753,-0.057462,-0.36565,-0.011537,-0.006853,-0.0077926,-0.20672,-0.035006
-0.25202,0.15589,-0.20615,-0.16279,-0.06802,-0.027318,-0.14218,-0.11082
-0.078858,0.051434,0.0085795,0.047911,0.0046062,-0.046346,-0.14416,0.046934
0.16397,0.034791,0.31462,0.14364,0.070319,0.075311,0.18468,0.18907
0.054291,0.033666,-0.15222,-0.071746,0.0038709,-0.022203,-0.046415,-0.19156
0.03721,0.076646,0.10996,-0.013553,-0.015475,0.012183,0.092798,0.092654
-0.098364,-0.16686,-0.03759,0.043243,0.019526,0.029584,0.11112,0.15827
-0.11036,-0.37012,-0.53725,-0.12952,-0.071437,-0.087522,-0.13878,-0.11326
0.28245,0.068642,0.63946,0.24021,0.062626,0.074773,0.16445,-0.091015
-0.20893,-0.16114,-0.55435,-0.21563,-0.023992,-0.014696,-0.17359,0.004292
0.095506,0.35008,0.74374,0.17468,0.035775,0.011606,0.097891,0.10855
-0.061447,0.34841,-0.10891,-0.12722,-0.031297,-0.072291,-0.23126,-0.1306
0.039897,-0.21704,-0.55758,-0.1276,-0.052787,-0.007808,0.058494,0.13098
0.0023548,-0.12462,-0.4295,-0.0039842,-0.0044463,0.034003,0.14763,0.019947
-0.016367,0.088327,0.29905,0.058593,0.020928,0.007013,0.044659,-0.16392
-0.0070048,-0.05445,0.72774,0.50781,0.17271,0.14613,-0.054613,0.028433
-0.14028,-0.022615,-0.42221,-0.52949,-0.17333,-0.13433,-0.04066,-0.0083156
0.029633,0.12722,0.61318,0.080537,0.014511,-0.037593,-0.093455,-0.16121
0.025774,-0.37323,-0.33574,-0.12299,-0.021506,-0.017182,-0.065344,0.025229
0.15913,0.03538,-0.24629,0.16364,0.038589,0.074699,0.27676,0.29367
0.1381,0.39645,0.020146,0.079188,0.053453,0.026309,0.032739,0.017418
-0.10311,-0.15298,0.11061,-0.019493,-0.048234,-0.046019,-0.18216,0.17712
-0.0367,-0.014836,0.057334,0.036668,0.013627,-0.01027,0.028613,-0.16205
0.053146,-0.035938,-0.68972,-0.3331,-0.06677,-0.0077036,0.093261,-0.060293
-0.31192,0.30493,0.73762,0.33789,0.1003,0.031618,-0.19994,-0.12394
0.094423,-0.29786,-0.2105,0.07981,0.022121,0.045139,0.2429,-0.082509
-0.10926,-0.015473,-0.3389,-0.27914,-0.10603,-0.060599,-0.11607,-0.022496
0.14222,0.076482,0.34577,-0.050232,-0.033695,-0.042806,-0.18882,-0.082548
0.078793,-0.17406,-0.17918,-0.035965,0.021274,0.021231,0.1524,0.31171
0.055426,0.011708,0.4522,0.15699,0.028795,-0.00036511,0.01203,-0.021903
0.012384,-0.10268,-0.241,0.054759,0.021342,0.018286,-0.052691,-0.03881
-0.02518,0.15976,0.26456,0.10488,0.04685,0.023161,0.014606,-0.054605
-0.017691,0.20103,-0.13613,-0.09757,-0.034594,-0.0010321,0.10504,0.027568
0.03428,-0.040047,-0.15209,-0.005376,0.019473,0.047224,0.15529,0.23997
-0.26907,0.10717,-0.14983,-0.087917,-0.064565,-0.059032,-0.14128,-0.34045
0.10958,-0.20459,0.0041977,-0.02622,0.0018035,-0.04702,-0.16237,0.001909
0.15284,-0.082056,0.17137,0.13111,0.053716,0.043414,0.073487,0.23907
0.0077078,0.14863,0.19946,0.022929,-0.019103,0.00056209,0.13405,-0.10293
0.048343,-0.0023356,-0.28007,-0.063207,0.016874,0.019104,-0.22463,0.049003
-0.19415,-0.078068,-0.35212,-0.15957,-0.057776,-0.026367,0.059215,0.0033065
0.015154,-0.16646,0.36914,0.12402,0.022163,-0.010988,0.0015666,-0.13309
-0.064807,0.31107,0.19275,0.029893,0.022207,0.026312,-0.044779,-0.087182
0.012644,-0.1661,-0.024805,-0.011703,-0.018405,-3.4607e-05,0.18759,0.12697
0.037817,0.0082555,-0.13807,8.2326e-05,-0.013334,-0.042623,-0.088439,-0.034195
0.19115,-0.22266,0.013338,0.034928,0.022336,0.031962,0.066383,-0.011614
0.027343,0.27968,0.23725,0.031191,0.018873,0.036797,-0.088845,0.066612
-0.14972,0.11376,-0.23005,-0.049519,-0.007573,-0.035464,0.048119,-0.0453
0.0022629,-0.26448,-0.41134,-0.13646,-0.033162,-0.0048405,-0.069543,0.077582
-0.010658,-0.065591,0.06769,0.043971,-0.010782,-0.043122,-0.08295,0.014854
-0.0026724,0.43475,0.5645,0.16356,0.06744,0.091758,0.31168,0.078795
-0.029696,-0.088242,-0.095844,-0.03582,-0.001719,-0.022375,-0.29303,-0.20105
0.056206,0.13288,0.27813,0.062571,-0.015347,0.012497,0.21894,0.20382
0.013177,-0.36143,-0.41144,-0.16678,-0.044038,-0.046283,-0.15343,-0.13943
-0.071753,-0.17849,-0.17616,-0.036827,-0.017779,-0.035103,0.026671,-0.13223
0.037408,0.013542,-0.0031964,0.045815,0.016264,0.030042,-0.11609,0.17625
-0.17318,0.3535,0.090367,0.034036,0.042195,0.039512,0.20743,-0.074663
0.15742,0.0061687,0.13583,0.029246,-0.010549,-0.022465,-0.14297,-0.057052
0.037939,0.12303,0.14238,0.046955,0.029677,0.015951,0.013058,0.073585
0.023175,-0.61922,-0.48926,-0.11608,-0.040436,-0.0014193,0.27007,0.11557
0.088922,0.1446,0.31391,0.063473,0.013384,-0.019718,-0.23043,-0.14804
-0.094358,0.31876,0.10915,0.069922,0.019291,0.016007,-0.02666,0.14396
-0.020496,-0.26367,-0.24993,-0.10449,-0.030335,-0.011079,-0.024057,-0.15535
0.05132,0.32247,0.17539,-0.029824,-0.041374,-0.014631,0.028037,0.072286
0.14389,0.2971,0.23699,0.12248,0.033558,-0.0020326,-0.088709,-0.024279
-0.39868,-0.51264,-0.29992,-0.11568,0.0075347,0.019297,0.14922,0.031299
-0.21565,-0.12514,-0.26446,-0.040463,-0.0095349,0.018402,0.19459,0.00381
0.36686,0.11969,0.27968,0.051933,0.021794,-0.028007,-0.27367,-0.069017
-0.039657,0.014291,-0.0046518,0.0057157,-0.01552,0.0050372,0.040205,0.045528
0.21479,0.25762,0.16281,0.13349,0.034636,0.007945,-0.04474,0.0097234
0.068187,-0.059909,-0.046745,0.005275,0.015607,0.0037815,-0.045371,0.017212
-0.14431,-0.29976,-0.329,-0.12181,-0.041965,0.015508,0.20137,0.074492
-0.057484,-0.11102,-0.066834,-0.12372,-0.052853,-0.04332,0.069902,-0.12388
0.044704,0.34302,0.41171,0.14694,0.052554,0.037767,-0.17423,-0.06231
-0.059357,0.0095407,0.099008,-0.0061396,-0.01539,-0.046275,-0.15552,0.10366
-0.098642,-0.093188,-0.42664,-0.013396,0.031987,0.024663,0.11922,-0.038624
0.050358,-0.0013417,0.40527,0.10131,0.022665,0.023989,-0.020574,-0.010662
-0.018925,0.037792,0.0013255,-0.068258,-0.035428,-0.01691,0.098372,0.017865
0.15532,-0.082994,-0.51293,-0.15448,-0.0638,-0.050888,-0.061842,0.056941
-0.0031452,-0.042016,0.23055,0.12476,0.047492,0.06304,0.077614,-0.02437
-0.038659,0.28618,0.11573,0.090905,0.04133,0.012771,0.0090396,0.056534
-0.22186,-0.075408,-0.0045725,-0.12976,-0.042503,-0.021622,-0.018031,-0.082473
0.10611,-0.22177,-0.16828,-0.036029,0.0075792,-0.024182,-0.10607,-0.13677
0.16602,-0.045345,0.086241,0.029251,-0.00325,-0.0024728,0.056309,0.064726
-0.095667,0.10798,0.055951,0.066552,0.019025,0.035843,0.077373,0.1924
0.1024,0.15786,0.083936,0.044569,0.0041164,-0.010756,-0.10622,-0.052603
-0.045343,-0.053989,0.051692,0.095565,0.022133,0.013912,-0.018375,0.038368
-0.017121,0.0098739,-0.097193,-0.14074,-0.044494,-0.023131,0.012762,-0.052573
-0.065035,-0.15929,-0.16917,-0.10291,-0.032198,-0.036195,0.026611,-0.18674
-0.05063,-0.02248,0.16243,0.012761,0.019415,0.044725,0.10192,0.14232
0.00076293,0.23374,-0.15005,-0.013253,0.00044232,-0.015086,-0.16684,-0.11287
0.17372,-0.03716,0.19021,0.16234,0.066666,0.049658,0.11947,0.09469
-0.055876,-0.090231,-0.28483,-0.085614,-0.040089,-0.03478,-0.085529,0.12519
0.14793,-0.0081087,0.074495,0.00079447,0.0002748,0.0048319,0.14814,0.0033852
-0.33138,-0.21705,0.19939,0.085921,0.023663,-0.0034498,-0.13264,-0.10505
-0.02398,0.27036,0.31012,-0.0016801,-0.032254,-0.012649,-0.0061786,-0.14369
0.14172,-0.15317,-0.33423,-0.12867,-0.034302,-0.022495,-0.04316,0.076576
-0.051917,0.20835,-0.20927,-0.021053,0.0023967,0.029915,0.13098,0.033636
0.17705,-0.099232,-0.13478,-0.037672,-0.0075464,-0.019015,0.062704,0.040835
0.00058958,0.13232,0.23305,0.16562,0.06135,0.02646,-0.10769,0.090635
-0.011433,0.062971,0.16723,-0.004754,-0.0015456,-0.013035,-0.083488,-0.082886
-0.0082348,-0.31218,0.010585,-0.033275,-0.00086215,0.011055,0.033783,-0.0039086
-0.013992,0.0097222,0.097716,0.032805,0.024142,0.020502,0.0021242,0.05315
-0.1384,0.094703,-0.27605,-0.080509,-0.059743,-0.031879,0.056176,-0.10799
0.048564,0.28358,0.31749,0.13398,0.036048,0.0097049,-0.030384,-0.089612
-0.13951,-0.40139,-0.66979,-0.16801,-0.032717,-0.011507,0.031625,0.15478
0.13493,0.056213,0.089391,-0.002429,-0.00076726,0.052459,0.07028,0.00018576
-0.016981,0.11993,0.37578,0.0056072,-0.016708,-0.087787,-0.14899,-0.10776
-8.9212e-05,-0.27653,0.071916,0.059324,0.036694,0.052008,0.12354,0.089213
0.13155,0.31698,0.06041,0.065198,0.019043,-0.02024,-0.088904,0.052495
-0.0052863,-0.063344,0.1771,0.0078774,-0.014618,-0.007349,-0.020786,-0.092609
0.056685,0.14147,-0.46072,-0.065501,-0.017008,0.036445,0.15617,0.12272
-0.10667,-0.27641,-0.23537,-0.10002,-0.042434,-0.052417,-0.2061,-0.11421
0.056723,0.0048319,0.33858,0.1467,0.05783,0.046845,0.057031,0.032132
-0.23682,0.24282,0.0048756,-0.03606,0.018306,-0.0091765,0.0087053,-0.20446
0.049967,-0.18923,-0.14077,-0.015288,-0.0047581,0.0062524,-0.045817,0.15195
0.10372,0.0963,0.25522,-0.02513,-0.0036892,0.030614,0.37822,0.31951
-0.044117,0.15038,-0.094413,0.020573,-0.017778,-0.053462,-0.37534,-0.28036
0.1154,-0.17137,-0.071172,-0.034251,-0.031659,-0.019712,-0.025459,0.070971
0.052899,-0.044,0.16938,0.052671,0.024744,0.037757,0.075769,-0.12626
-0.10435,0.077258,0.025719,0.04692,0.018441,0.0092238,-0.017731,0.003619
-0.20558,-0.38647,-0.26047,-0.059513,-0.019432,-0.0040474,0.15405,-0.077464
0.12625,0.2373,-0.19793,-0.056038,-0.018614,-0.04133,-0.17551,0.053453
-0.084013,0.25491,0.48548,0.056888,0.044311,0.037887,0.14111,0.1082
0.36732,-0.13603,-0.46955,-0.05719,-0.033781,-0.016406,-0.13117,-0.045622
-0.12173,0.16069,0.74781,0.17936,0.067427,0.038052,0.14014,0.14643
-0.068035,-0.19653,-0.39543,-0.046368,-0.01142,-0.0095348,-0.083879,0.09755
-0.08284,-0.14362,-0.22905,-0.1799,-0.09059,-0.049607,0.0020889,-0.27955
-0.011962,0.031078,-0.004452,0.044401,0.017504,0.019591,-0.085262,-0.025429
0.088042,0.3118,0.3008,0.048662,0.023926,-0.0048933,-0.063369,-0.024193
0.01274,-0.18527,-0.15759,0.020839,0.014762,0.017685,0.155,0.051424
-0.050884,-0.047796,-0.035914,-0.0072408,0.02141,0.01706,0.00054952,0.13084
-0.1259,0.17519,0.21313,0.074404,-0.0028927,0.0088249,0.0050109,-0.074686
0.23417,-0.19823,-0.23775,-0.13212,-0.042458,-0.030549,0.13703,-0.095592
-0.14077,0.017504,0.11263,0.045497,-0.0035305,-0.0074264,-0.14312,0.10053
0.18101,0.27421,0.12509,0.091885,0.051337,0.039027,0.069858,0.1244
-0.24385,-0.20193,-0.31593,-0.19601,-0.065456,-0.070933,-0.15475,-0.22572
-0.062293,-0.19157,0.0021695,0.080122,0.036573,0.022074,-0.036483,0.1296
0.12483,0.048984,0.20595,0.060568,0.013508,0.03685,0.13524,0.0040413
0.14535,0.068733,0.23421,0.010444,-0.017635,-0.026521,-0.092613,-0.031145
0.013595,0.14348,-0.31836,-0.016187,0.028936,0.019548,0.046072,-0.092494
-0.12415,-0.029316,-0.17004,-0.035594,-0.018734,0.026685,0.14576,0.023388
0.15137,-0.01059,0.42139,0.068866,-0.012193,-0.028501,-0.12095,0.027226
-0.045265,-0.28395,-0.36484,-0.062514,-0.0059905,-0.044425,-0.089396,0.074499
-0.23174,0.35365,0.079807,-0.039157,0.0079356,0.0258,0.092279,-0.054888
-0.0029627,0.13585,0.14474,-0.0092504,-0.016954,0.010308,0.017772,0.082536
0.07068,-0.11815,0.22692,0.051134,0.013454,0.0028508,-0.024258,-0.093508
-0.025493,-0.21418,-0.31593,0.0019792,0.01354,0.0034238,0.027999,0.055426
0.14771,-0.23124,-0.24334,0.070435,0.038198,0.043266,-0.013806,0.13684
0.092365,0.25992,0.068052,-0.11807,-0.076593,-0.080765,-0.080204,-0.29584
-0.095685,0.048344,0.038625,0.014766,0.020578,0.021938,0.18751,0.061663
-0.070874,0.063901,0.54993,0.086033,0.0090649,-0.00020898,-0.14069,-0.040159
-0.034973,0.033333,-0.031712,0.0016362,0.021193,0.0012007,-0.025683,0.15783
