0.077524,0.0045481,0.061364,0.036312,0.0016249,-0.025328,0.056932,-0.12893
0.077046,-0.036089,0.020359,0.012309,-0.028836,-0.034473,0.102,0.16616
-0.14032,0.057339,0.032754,0.026862,0.049973,0.081845,0.23752,0.18105
0.10548,-0.090222,-0.057685,-0.053211,-0.059175,-0.12945,-0.035872,-0.16924
-0.0056417,0.20066,-0.039774,-0.040671,0.018383,0.089425,-0.2264,0.15501
-0.083219,-0.03921,0.1026,0.080065,-0.0066517,-0.011665,0.031804,-0.67414
0.19224,-0.013468,-0.098618,-0.073574,0.0062817,0.012408,-0.05216,0.65534
-0.40742,-0.12103,0.044901,0.069262,0.010453,0.012981,0.19944,0.26739
0.31077,-0.018436,-0.0050879,-0.04535,-0.032849,-0.064841,-0.33223,-0.37075
0.10177,0.0051912,-0.11513,-0.064981,0.0096969,0.060051,0.20331,0.19235
0.15799,0.12974,0.10571,0.050224,0.013679,0.0048111,0.17288,-0.53695
-0.21041,-0.04283,-0.045856,-0.019508,0.026541,0.042976,-0.27476,0.43258
-0.074869,-0.012062,0.15606,0.085348,-0.091899,-0.2393,-0.021571,-0.45397
0.088724,0.081853,0.038515,0.059804,0.049222,0.095752,0.07418,0.2648
-0.45132,-0.18266,-0.12633,-0.04996,0.082705,0.14997,-0.13483,0.22271
0.18453,0.014833,0.058806,-0.041757,-0.093277,-0.099912,0.41478,-0.11014
0.22077,0.07266,-0.21153,-0.041556,0.098947,0.22116,0.075069,0.6584
0.061866,0.1546,0.0078233,-0.034523,-0.083365,-0.19939,-0.43504,-0.79818
-0.29474,-0.0053757,0.31115,0.11951,-0.0079392,-0.096088,0.01723,-0.10323
0.29507,-0.20455,-0.31609,-0.1186,-0.026764,0.023111,0.15054,-0.35683
-0.089462,-0.029177,0.041505,0.040459,0.016159,0.0018337,-0.25381,0.37181
0.065802,0.04406,0.17431,0.058101,0.089511,0.19937,0.3903,0.51268
0.13203,0.0073892,-0.11989,-0.033919,-0.072255,-0.095298,-0.18253,-0.14595
-0.13845,0.079709,0.14354,0.022606,-0.0002269,-0.046326,-0.18305,0.02677
-0.1269,-0.0044613,-0.14526,-0.045602,-0.022366,0.0024006,0.31833,-0.089232
-0.019012,0.0049179,0.051598,0.003522,0.0098656,-0.066476,-0.25697,-0.06748
0.00064278,-0.10321,-0.025295,0.028966,0.041773,0.082793,0.090133,0.073584
0.077304,0.17872,0.1692,0.077049,0.041985,0.067212,0.069314,-0.47249
-0.20434,-0.11839,-0.14763,-0.055933,-0.013136,0.0038313,0.40571,0.25492
0.17195,-0.041703,-0.015712,-0.011046,-0.053482,-0.09959,-0.52697,-0.047674
0.23177,0.010151,-0.075728,-0.093132,-0.063554,-0.063295,-0.010793,0.2706
-0.10756,0.052825,-0.084673,0.010519,0.042604,0.058231,-0.11621,-0.037088
-0.068772,0.024072,0.23242,0.081722,0.054245,0.062177,0.1027,0.095121
-0.17136,-0.036573,0.033757,0.011933,-0.020472,-0.043274,0.16275,-0.040656
0.025786,-0.058157,-0.18652,-0.072918,-0.024857,0.02349,-0.028315,-0.33268
0.17399,0.092853,0.10445,0.078031,0.041559,0.036205,0.054361,0.24389
-0.029595,-0.012531,-0.0064537,-0.018967,-0.01612,-0.067425,-0.1272,-0.35756
-0.053091,-0.084679,-0.066026,-0.043316,-0.017901,0.025198,0.1776,0.42442
0.11849,0.040798,0.14372,0.036131,-0.010516,-0.045294,-0.13269,-0.25621
-0.079106,0.012351,-0.089636,-0.023281,0.0059944,0.017897,-0.058331,0.29243
-0.14057,0.017145,0.067954,0.051142,0.03922,0.042756,0.017438,0.12088
0.26717,0.046716,0.052055,0.0085206,-0.0049618,-0.0099728,0.11765,-0.12668
-0.16322,-0.040425,-0.20141,-0.042621,-0.0020185,-0.023324,-0.093865,-0.22731
0.2303,0.01261,0.041019,-0.024817,-0.014931,0.04154,0.070421,0.1448
-0.2798,-0.052795,-0.0019703,0.0068952,-0.020675,-0.042133,-0.14704,-0.2061
-0.036985,0.028463,-0.0014933,-0.0099631,0.019537,0.038031,0.12918,0.0026988
0.038299,0.029679,-0.0030252,0.034353,-0.0037673,-0.053947,-0.10052,0.071189
-0.075058,-0.1114,0.096725,0.0076609,-0.012383,-0.0055289,0.015604,-0.098093
0.23502,-0.011428,-0.044287,-0.058043,-0.0060849,0.0036863,-0.069502,0.23345
-0.25554,0.041227,-0.026261,0.0020137,0.0076286,0.044107,0.2685,0.014632
0.34569,0.13313,0.22193,0.11023,0.060344,0.053288,0.083221,-0.04924
0.015978,-0.0087254,-0.26831,-0.069079,-0.027324,-0.070351,-0.25167,0.23772
-0.35446,-0.024853,-0.013053,0.010878,-0.028579,-0.037844,0.01256,-0.28163
0.34236,-0.079482,0.096099,-0.0018273,0.0098532,0.025646,-0.093775,0.007999
-0.24713,-0.032373,0.034392,-0.0062147,-0.013528,0.026171,0.16335,0.10434
0.046728,0.053501,-0.066848,-0.010775,0.010631,0.0026024,-0.20015,-0.26808
0.050075,0.01364,0.00184,-0.00053869,-0.019332,-0.006145,0.082193,0.1082
-0.04329,-0.019453,-0.026456,-0.0072844,0.021405,0.0076783,0.089617,0.19375
-0.16397,0.032238,-0.019861,-0.039148,-0.008032,-0.026192,-0.067389,-0.29219
0.1408,0.01258,0.15401,0.083481,0.032687,-0.021652,0.057302,0.1358
0.08976,-0.023397,0.19848,0.071727,0.010447,0.037197,0.11246,-0.083627
-0.10598,-0.04391,-0.42461,-0.11303,-0.020319,-0.0055605,-0.14427,0.073743
0.10062,-0.0014333,0.11451,-0.01701,-0.028508,-0.016769,0.052187,0.17048
0.14714,0.0031362,-0.15071,-0.022224,-0.0063031,0.027296,-0.10357,0.072995
-0.083528,0.06411,0.13376,0.028414,-0.0082277,-0.005994,-0.0027804,-0.17332
-0.23962,-0.013478,0.064024,0.041885,0.028513,0.0084167,0.10429,-0.062489
0.015291,-0.026452,-0.053504,-0.012589,-0.0050949,-0.0076692,0.085067,0.020981
-0.067941,0.040543,0.20374,-0.0021009,0.00066476,-0.01536,-0.3175,0.029126
0.28534,-0.047428,-0.39924,-0.052,0.014792,0.024184,0.28068,-0.12415
-0.040588,0.11511,0.34658,0.063498,0.0061458,-0.014263,-0.048521,0.054222
-0.028534,-0.12119,-0.23372,0.030793,0.0059358,0.0019302,-0.1941,-0.090219
-0.091047,-0.27284,0.18436,-0.049784,-0.05631,-0.044533,0.10312,0.2027
0.18729,0.42493,0.20658,0.086264,0.069191,0.072881,0.17986,0.10738
-0.16117,0.026156,0.041009,0.016286,-0.0083961,-0.0051664,-0.11233,-0.1552
0.044024,-0.12587,-0.6263,-0.24432,-0.070457,-0.067659,-0.0009931,-0.16157
-0.11084,-0.070332,0.048751,0.086102,0.023601,0.0026761,-0.16772,0.0030687
0.0068198,0.013329,0.28706,0.055417,0.016043,0.088717,0.17386,0.35418
-0.04145,-0.10081,-0.30624,-0.085006,-0.014857,-0.043885,0.12998,-0.30455
0.2426,0.13514,0.2809,0.095986,0.024824,0.011115,-0.20876,0.27532
-0.14359,0.11305,0.1228,0.076205,0.041478,0.011512,0.053372,-0.072016
-0.06249,-0.17351,-0.043141,-0.081061,-0.058571,-0.073939,0.13341,-0.27776
0.58421,0.011178,-0.020151,0.015005,0.0059172,0.051699,-0.00021747,0.28215
-0.35474,0.027696,-0.06626,-0.010988,0.0082997,0.036988,-0.37746,-0.14244
-0.17794,0.20513,0.035595,-0.0036353,-0.012492,-0.078835,0.38741,0.058419
-0.19032,-0.096483,0.25933,0.11411,0.03714,-0.014339,-0.25605,-0.34082
-0.0075781,-0.29874,-0.40582,-0.18228,-0.053896,0.043094,-0.38882,0.26237
-0.064346,0.051293,-0.02507,0.020375,0.026759,0.015338,0.59561,-0.053588
0.58838,0.10914,-0.0066598,-0.0050298,-0.010088,0.097537,0.40453,0.25737
-0.17854,-0.0093802,-0.093918,-0.016515,-0.016126,-0.14815,-0.42806,-0.18196
-0.096623,0.22496,0.32999,0.095373,0.02414,0.0043558,0.090991,0.24996
-0.15656,-0.0028616,0.2809,0.080877,0.048077,0.023277,-0.60954,0.033366
0.18838,-0.1799,-0.34226,-0.12223,-0.038183,0.025302,0.17859,-0.49201
-0.047829,0.066425,-0.17957,-0.021532,0.023102,0.10383,0.56063,0.31938
0.37433,-0.15615,-0.15242,-0.038809,-0.064925,-0.11628,-0.16396,0.021334
-0.2904,0.058158,0.34891,0.091567,0.0025521,-0.056726,-0.047785,0.052976
-0.31029,0.10086,0.4262,0.14296,0.03828,0.017299,-0.065226,-0.4253
0.25836,-0.0024075,-0.57663,-0.23626,-0.027719,0.036147,-0.18984,0.084831
-0.11585,-0.12353,-0.065596,0.02423,0.015861,-0.054111,0.23127,-0.28458
0.052803,-0.16527,0.084706,0.065227,0.013116,0.075346,0.11078,0.53555
-0.022251,0.016172,0.10936,0.0042904,0.018999,0.050015,-0.15202,-0.043761
0.052643,0.33702,0.14997,0.0060424,-0.0053964,-0.051775,-0.054137,0.073081
-0.040037,0.086985,-0.089093,-0.030392,-0.013156,0.02769,-0.30167,0.18933
0.053077,-0.063055,-0.25495,-0.073058,-0.051225,-0.071311,0.53324,0.1131
-0.19118,-0.14681,-0.0026539,0.011438,0.0052367,0.080423,0.089673,-0.3806
0.30384,-0.026971,0.11398,0.090604,0.038808,-0.13481,-1.0252,-0.017218
-0.066455,0.050868,0.2124,0.078458,0.033574,0.040372,0.80201,-0.14604
0.31897,0.076247,-0.12973,-0.13482,-0.04204,0.090018,0.30765,-0.16876
-0.28603,-0.12394,-0.10895,0.035911,0.022585,-0.056356,-0.165,0.36742
0.0219,0.14614,0.35106,0.066223,0.031868,0.10902,-0.079473,-0.089737
-0.19567,-0.36905,-0.29086,-0.076148,-0.084671,-0.17162,-0.26797,-0.08252
-0.13249,0.029295,-0.028847,-0.0014084,0.016685,0.031558,0.022693,-0.035049
-0.097094,0.11078,0.1903,0.0086887,0.015734,0.046827,0.14765,0.183
0.22868,0.027316,-0.45446,-0.11627,-0.032617,-0.0084579,0.17421,0.099055
-0.00057129,0.15597,0.23222,0.10837,0.03597,0.053338,0.030843,0.0040595
0.22049,0.21561,0.26671,0.073781,0.049878,-0.0020637,-0.45367,-0.24306
-0.034574,-0.18633,-0.23269,-0.063092,-0.045394,-0.065234,-0.11301,0.5192
0.078372,0.1028,-0.053776,-0.051592,-0.038829,-0.050211,0.29811,-0.4866
-0.083965,-0.23389,0.27329,0.085367,0.069544,0.10549,0.071734,0.18805
-0.28471,-0.19283,-0.25067,-0.065959,-0.056316,-0.098168,-0.34502,-0.29715
0.21129,0.31656,0.19516,0.064851,0.03658,0.0027393,0.14138,-0.25817
0.30278,-0.20716,0.0017098,0.048063,0.019998,0.11114,0.87993,0.58398
-0.32944,-0.0057091,-0.13549,-0.12426,-0.059223,0.00021749,-0.53238,-0.15453
0.1068,0.13403,0.033841,0.039951,0.025544,0.02908,0.0081381,0.081089
-0.24195,-0.042401,-0.20869,-0.053109,-0.022415,-0.075868,-0.20701,0.11987
-0.19484,-0.11715,0.012256,0.018446,0.0080604,-0.025521,-0.079845,-0.14598
0.15056,0.20233,0.2046,0.020271,7.6956e-06,-0.077389,0.13903,-0.12843
0.30029,0.012359,-0.030456,0.014839,0.01608,0.050329,-0.024069,0.034477
0.13628,0.087647,0.15772,0.03324,0.009426,0.045833,-0.31302,0.064466
-0.36596,-0.1656,-0.083947,-0.057662,-0.020085,-0.027687,-0.18828,0.10543
0.072487,0.06393,0.0084172,0.061991,0.03665,0.064659,0.26524,-0.20648
0.14266,-0.014709,0.12853,0.047952,0.015215,0.049646,0.3442,0.18646
0.064534,-0.052137,-0.11517,-0.02206,-0.02224,-0.033795,0.55341,-0.23681
-0.32698,-0.19887,-0.26945,-0.15605,-0.060356,-0.10017,-0.73889,-0.037525
0.14481,0.098003,-0.16121,-0.0023452,0.0023136,0.0061057,0.23021,0.17464
0.23337,0.024606,0.25074,0.064435,-0.0060638,-0.012599,-0.12322,-0.078966
-0.26947,0.24393,-0.031151,-0.017629,0.0084288,0.022657,0.01358,0.16654
-0.0015617,-0.12763,0.3156,0.13489,0.092892,0.11124,-0.16399,0.10897
-0.02977,0.073402,-0.059343,-0.047801,-0.025898,-0.051974,0.10321,0.023524
0.064548,0.026492,0.03932,-0.0029121,0.0037813,0.0015866,-0.087389,0.0059938
0.092138,-0.15873,-0.26467,-0.081942,-0.052348,-0.02481,0.075433,-0.3934
-0.072151,-0.20793,0.089048,0.027466,-0.030172,-0.068182,0.10101,0.033998
0.20593,0.26331,0.19173,0.090673,0.07035,0.10662,-0.33503,0.14017
-0.30519,0.054058,-0.24008,-0.095746,-0.031984,-0.10099,0.13165,-0.36093
0.039001,-0.12217,-0.082787,-0.016419,-0.016801,-0.025984,0.076466,0.22325
-0.046158,-0.059708,0.05389,0.00035704,0.022209,0.098062,0.18326,0.30508
0.053082,0.15765,0.061366,0.040436,0.014769,0.013752,-0.029912,-0.17968
0.11383,-0.15626,0.035065,0.02568,-0.0078749,-0.021171,-0.01584,0.22713
-0.017769,0.10039,-0.030665,-0.020456,0.0010976,0.039601,-0.057346,-0.14309
-0.0051008,0.14543,0.030409,0.027058,0.01034,0.031055,0.1317,-0.18749
-0.036857,-0.10906,-0.045598,-0.019248,-0.011514,-0.063567,-0.16313,0.12449
-0.076926,-0.072068,0.078247,-0.065592,-0.033329,-0.073455,-0.054345,-0.06094
0.011018,0.0033367,-0.035443,0.036508,0.022936,0.04749,-0.22375,0.2061
0.2376,0.098662,0.065734,0.021484,0.00097793,-0.037007,0.23424,-0.18737
-0.073939,0.032035,-0.10394,-0.01685,0.01797,0.056001,0.22673,-0.065104
0.10377,-0.18987,0.04765,0.030944,-0.0042054,-0.0088837,-0.087979,0.18734
-0.16889,0.003342,0.011115,-0.0069601,-0.003029,-0.012124,-0.12122,-0.056856
-0.13389,0.058227,0.035254,0.017913,-0.017549,0.00025374,-0.20621,-0.1032
-0.11671,-0.038697,-0.15401,-0.019413,-0.00089313,0.0055375,-0.067472,-0.1704
-0.026712,0.097991,-0.025459,-0.07987,3.3686e-05,0.035442,0.34259,0.1406
0.27489,-0.0057022,0.077563,0.016193,0.016416,0.019795,-0.0081559,0.13531
0.0051642,-0.050843,-0.094319,0.04992,0.0090953,-0.057203,0.21376,0.25978
0.059864,-0.012795,0.1313,0.0054784,-0.0064185,0.014981,0.36419,-0.22767
-0.11252,0.10861,0.090561,0.054431,0.0088355,0.0014618,-0.45911,-0.045483
0.027708,-0.015603,0.16611,0.0010914,0.00011566,0.003315,-0.50921,-0.005863
0.15825,0.066077,-0.2675,-0.092396,-0.048176,-0.042317,-0.045475,-0.163
-0.10014,-0.10936,0.22676,0.10187,0.043772,0.020644,0.18235,0.1402
-0.17511,-0.23936,-0.5075,-0.14269,-0.036329,0.012522,0.17617,-0.079466
0.13019,0.20554,0.116,0.017935,0.0086601,-0.050916,0.056079,-0.015981
0.091262,0.099096,0.17625,0.037348,0.02275,0.0649,0.012667,0.081835
-0.03838,-0.059202,-0.059899,0.01772,0.0061378,0.0085674,0.095332,0.23815
-0.16716,0.01995,0.18227,0.037775,-0.0098368,-0.032346,-0.014673,-0.30484
-0.0057746,-0.03753,-0.15879,-0.050476,-0.0017773,0.035876,0.31607,0.124
-0.004812,0.027622,0.050143,0.034414,0.022344,0.017812,-0.26402,-0.039302
0.11349,-0.11878,-0.074022,-0.059204,-0.047091,-0.07102,-0.56758,0.00017526
-0.11433,-0.014007,0.18662,0.066772,0.031837,0.034977,0.17899,-0.0096519
0.059306,0.054382,-0.0050719,0.021225,-0.0067282,-0.039078,0.023233,0.077788
0.19361,0.1108,-0.11123,-0.047917,0.0011318,0.019601,0.067758,-0.020067
-0.052112,0.10084,-0.070219,0.023026,0.0085244,0.023947,0.4777,-0.0068559
-0.11415,-0.14001,-0.077641,-0.070781,-0.015682,-0.04897,-0.25402,-0.15564
0.053716,-0.019026,0.05439,0.0067486,-0.016564,0.035706,0.20078,-0.1918
0.066449,-0.092272,0.10026,0.052899,0.021809,0.020515,-0.40857,0.40991
-0.2277,0.099797,0.092478,-0.025509,-0.0096314,-0.024097,0.080582,-0.11408
0.11278,0.0013409,-0.20209,-0.016971,0.0065334,0.026739,-0.23998,0.19142
0.037269,-0.0055269,0.069017,0.0085944,7.7018e-05,-0.030501,0.025731,-0.023313
-0.01209,0.016549,0.054566,0.020017,-0.0056641,-0.016752,0.44528,-0.23336
-0.13912,-0.12734,-0.13642,-0.029888,0.004644,0.020355,-0.11707,0.085891
0.14721,0.20429,0.29977,0.13946,0.046188,0.033166,0.24998,0.021219
0.09696,-0.10464,-0.13047,-0.043163,-0.0065358,0.0053775,-0.19017,-0.22377
0.094076,0.025133,-0.030273,-0.031817,-0.013361,-0.016595,-0.10273,0.054052
-0.42187,-0.21801,-0.033878,-0.053815,-0.060535,-0.040718,-0.21398,0.14303
0.10647,0.14294,-0.15792,-0.078282,-0.015336,-0.027746,-0.084543,-0.0052631
-0.0055326,0.20152,0.034611,0.043299,0.044264,0.054065,0.054438,0.0051187
0.049408,-0.15244,0.051501,-0.0010777,-0.0063821,-0.036764,0.31637,0.12409
0.1638,0.10318,0.057116,0.062791,0.028512,0.036485,-0.036882,0.035624
0.12756,0.0059601,0.16908,0.040435,0.0088187,0.0088947,-0.0020057,0.14278
-0.17678,-0.039143,-0.018432,0.018535,-0.0025269,-0.0096592,0.0089277,-0.45508
-0.2505,-0.079729,-0.044069,-0.033624,-0.013012,0.012298,-0.081787,-0.055431
0.1622,-0.12353,-0.20427,-0.068873,-0.014627,0.0043944,-0.20489,0.038257
0.098044,-0.052483,0.064058,0.045703,0.0083324,0.013216,0.55158,0.071073
0.078256,0.12709,-0.14456,-0.025858,0.0011627,-0.047592,-0.22898,0.16425
-0.2036,0.14341,0.31924,0.052302,-0.0049769,0.0090369,-0.095738,-0.076222
0.032758,-0.10368,-0.098237,-0.094915,-0.033678,-0.028187,-0.15949,-0.099554
-0.04869,0.16,-0.06026,0.016746,0.047655,0.051463,0.063983,0.21417
0.076321,-0.010934,-0.035105,0.012107,-0.019066,-0.033316,0.083625,0.037908
-0.08284,-0.25794,-0.054015,0.031516,0.015827,-0.016832,-0.098406,-0.16025
0.14774,0.20667,0.27316,0.058956,0.011348,0.030741,-0.088885,-0.062149
-0.050035,-0.001401,0.023697,0.039263,0.02184,0.054859,0.13015,0.36031
0.13061,-0.18809,-0.2253,-0.10617,-0.05453,-0.053752,0.39606,-0.29481
-0.1445,0.13814,0.017442,-0.033974,0.008663,0.017445,-0.36923,-0.25733
-0.10071,0.039935,0.071737,0.029129,0.0083256,-0.028454,0.16091,0.19686
0.020388,-0.07554,-0.093612,-0.041768,-0.039716,-0.011835,-0.16476,0.019491
0.023358,-0.12863,-0.040452,0.03492,0.013305,0.020327,-0.11562,0.17127
0.11827,0.077788,0.037001,0.017494,0.019337,0.0054268,0.109,0.028006
-0.063608,0.061,0.12437,0.023647,0.025607,0.013675,0.20847,-0.033647
0.11626,0.087744,-0.15231,-0.024348,-0.0067025,-0.033138,-0.14033,-0.40214
-0.055393,0.0020112,0.12149,-0.001299,-0.007184,0.013364,-0.16545,0.1905
0.028526,-0.16571,-0.14049,-0.0088165,-0.0071442,0.0047209,0.22702,0.14485
-0.10259,0.059424,0.20121,0.062216,0.024496,0.065967,0.038894,-0.029735
-0.2312,0.034433,0.027523,-0.015148,-0.037484,-0.091855,-0.27338,0.073654
0.18913,0.037957,-0.10126,-0.045985,-0.0057932,-0.0076262,0.083623,-0.10785
0.018048,0.098914,0.015871,-0.022758,0.010059,0.022024,-0.018177,-0.0052565
0.1626,-0.026438,0.080549,0.054458,0.025662,0.0051876,-0.082215,0.027784
-0.040194,-0.25256,-0.34524,-0.087623,-0.029229,0.0046272,0.0041613,-0.018965
-0.050054,-0.0003878,0.19225,0.06697,0.017408,0.020536,0.39101,0.16467
0.0014003,0.021268,-0.0084094,0.0030601,-0.0061134,-0.0095036,-0.01567,0.053488
-0.072215,-0.044035,-0.14799,-0.021108,-0.013683,-0.0074217,0.11809,-0.48617
0.01916,0.299,0.26825,0.05727,0.010435,-0.012467,-0.40617,0.085025
-0.11428,-0.15792,-0.054398,-0.027334,0.011565,0.014126,-0.13896,0.24498
0.082695,-0.053829,0.010454,-0.032874,-0.01041,-0.013953,0.088194,0.058349
0.086837,0.15059,0.095987,0.0090458,-0.0010326,-0.018981,-0.14141,-0.15977
0.17914,0.024562,0.0062744,0.051048,0.031567,0.061153,0.37371,-0.01619
-0.28167,-0.090252,-0.21317,-0.024607,-0.02233,-0.0082483,0.070457,0.21775
-0.038762,0.092654,-0.025029,-0.023107,-0.0067775,-0.024273,-0.011872,-0.23783
0.055236,-0.10096,-0.009197,-0.03856,-0.0079046,-0.0026115,-0.29428,0.12533
0.28064,-0.0085792,0.090653,0.030443,0.0055078,-0.029101,0.021344,-0.044786
-0.23809,-0.083724,0.1485,0.043347,0.010173,0.013709,-0.048001,0.031871
-0.032183,-0.075516,-0.13299,-0.015187,-0.017028,0.040277,0.24893,-0.013592
0.063149,0.080401,-0.0037477,0.011544,-0.00535,-0.019238,-0.18069,-0.026792
-0.16169,-0.012119,-0.017894,-0.039967,0.014436,0.0075335,0.31208,0.021841
0.068509,0.070838,0.04427,-0.0207,-0.0041078,-0.011769,-0.14767,-0.095436
0.19311,0.10386,-0.05045,-0.00044405,0.0018413,-0.014286,-0.10701,0.39436
-0.22384,-0.022611,-0.011751,0.068058,0.024626,0.02365,-0.0037468,-0.30526
0.099754,0.072665,-0.0104,-0.018136,-0.0060965,-0.015073,-0.064669,-0.13848
0.046537,-0.050549,0.063806,-0.0090726,-0.012394,-0.0055508,-0.11014,-0.025554
-0.11131,-0.16902,0.16443,0.055932,0.013238,0.044151,0.21935,-0.074201
0.084885,0.042153,-0.29444,-0.096962,-0.038933,-0.053857,0.11934,0.2949
0.13997,0.104,0.17908,0.016152,0.010439,0.020259,0.019826,0.05856
0.035126,0.031064,-0.040579,0.012017,0.012639,0.039422,-0.094516,-0.088885
-0.42001,-0.20734,-0.016562,0.046532,-0.00127,-0.067154,-0.32489,0.069198
0.25693,0.023711,0.031732,-0.013333,0.015496,0.036091,0.39163,0.17058
0.0026157,-0.014644,-0.17755,-0.073903,-0.023005,-0.002622,-0.061583,-0.16268
-0.13552,0.048699,0.089411,0.02111,0.00047671,-0.019257,-0.17615,-0.24531
-0.093212,-0.032469,0.01168,0.021811,0.023544,0.048861,0.048441,0.10144
0.2494,0.11203,0.026044,-0.0013846,-0.016177,-0.032282,0.042132,-0.19204
-0.049895,0.12453,0.12386,0.014081,-0.009184,-0.035634,-0.14056,0.14988
0.11353,-0.0024615,-0.070734,0.036949,0.013391,0.031542,0.3981,0.15389
-0.0076803,0.026985,0.20723,0.035913,0.0047703,-0.017739,-0.09316,-0.23118
-0.028784,-0.10916,-0.28464,-0.11407,-0.01153,0.0044083,-0.21757,0.15395
-0.28458,-0.28003,0.0010195,0.016732,0.011419,0.059103,0.054268,-0.0091408
0.14709,0.14545,-0.082944,-0.0012086,-0.0044703,-0.025587,0.15029,0.25654
0.062594,-0.052665,-0.12052,-0.058215,-0.035742,-0.039013,-0.36057,-0.12806
-0.039324,0.0076966,0.24211,0.12735,0.042605,0.041803,0.12242,0.31175
0.15193,0.16203,0.022666,-0.014449,0.0039893,-0.010234,0.1615,-0.48092
-0.13164,0.011405,0.089732,-0.053632,-0.010999,-0.0081243,-0.13362,-0.28922
0.060439,0.05502,-0.079758,0.0020935,-0.0024126,0.00089169,0.40978,0.041895
-0.079108,-0.098986,-0.041269,-0.0036427,-0.017186,-0.03022,-0.29294,0.12131
0.095883,-0.11626,0.062806,0.038187,0.014933,0.015805,-0.10724,0.1599
-0.22095,0.2437,0.042605,0.0098704,0.0079553,0.022071,-0.15601,0.14199
0.16481,-0.16894,-0.13555,-0.018891,0.00091115,-0.0266,0.10217,0.12969
0.018812,0.12165,0.096692,0.01383,0.0016032,0.026561,0.2947,-0.12787
-0.11897,-0.12646,-0.074222,0.013882,0.0022362,0.017985,0.072234,0.15736
0.32355,-0.052526,-0.077916,-0.096993,-0.036212,-0.028516,-0.251,-0.25762
-0.17452,-0.0056759,-0.10856,0.048581,0.01131,-0.034627,-0.15838,-0.26345
-0.17263,0.15791,0.30455,0.013588,0.012032,0.015229,-0.11083,0.0081146
0.027942,-0.12082,-0.16445,-0.052853,-0.010606,0.0035726,0.20305,0.051355
-0.030439,-0.018421,0.11936,0.045308,0.029288,0.047075,0.19501,0.205
0.21756,0.092342,-0.022255,-0.011612,-0.0090195,0.0044467,0.15858,0.10473
-0.015227,-0.16267,-0.11218,0.058031,0.014953,-1.6651e-05,-0.082157,-0.036255
-0.13449,0.27832,0.20851,0.035572,-0.016126,-0.037229,-0.26578,-0.16213
-0.11778,-0.094724,-0.1396,-0.079201,-0.01642,0.0018164,-0.11469,0.10966
0.16508,0.066379,0.076058,-0.021101,-0.001567,-0.031355,0.09519,0.019703
-0.016461,0.10933,-0.029259,0.0062024,0.0050842,0.0041966,0.21454,-0.036203
0.26232,-0.27417,0.11315,0.064677,0.0037158,0.02315,-0.27923,0.024752
-0.066279,0.0070061,-0.41181,-0.072666,-0.0054364,-0.020581,0.30385,0.074555
-0.10842,-0.079524,0.12995,-0.031106,-0.014327,0.0066174,-0.14189,-0.21724
-0.15637,-0.017627,-0.026883,0.017353,0.016277,0.027265,-0.21369,0.015345
-0.10195,0.11652,0.21999,0.05707,0.039567,0.033918,0.24125,-0.016668
0.15749,0.021102,0.17608,0.041218,-0.022634,-0.035887,-0.06246,0.1177
-0.0076258,-0.01171,-0.25163,-0.022306,0.0092062,0.020703,-0.13795,-0.13404
-0.030049,0.059828,0.12484,-0.016205,-0.013556,7.3849e-05,0.39071,0.19948
0.0097656,0.089026,-0.11602,-0.057506,-0.028623,-0.035854,-0.055323,0.058339
0.023326,-0.18137,-0.091072,0.010264,0.010735,-0.048563,-0.22817,-0.16476
0.14764,0.16215,0.020427,-0.0079136,-0.004916,0.039654,0.087819,-0.14038
0.072743,-0.038098,0.047223,0.028924,0.0025756,0.0019881,-0.18114,0.26463
-0.23981,-0.15891,0.021319,0.03517,0.017673,0.018045,0.15702,-0.12219
0.068157,0.08703,0.20129,0.073592,0.032679,0.033183,0.084211,0.025911
0.0096037,0.018809,-0.21695,-0.14472,-0.030423,-0.022784,-0.12749,0.042938
-0.083074,-0.098454,-0.13162,-0.04165,-0.023115,-0.032496,0.045286,-0.1123
0.0050684,0.055841,-0.058656,0.0076241,-4.3601e-05,0.019865,0.04901,0.15199
0.28618,0.029511,0.22754,0.088679,0.007549,0.0016973,-0.17668,-0.12655
