-0.22587,-0.035114,-0.011406,0.00069649,0.013532,-0.015955,-0.044995,-0.24254
-0.075391,0.03716,-0.097361,0.0013266,0.014063,0.04605,0.18538,-0.021837
0.17165,-0.056344,0.10404,0.0017029,0.015653,-0.030493,-0.16197,-0.0030173
0.02829,0.027911,0.0071341,0.024921,0.033302,0.11156,0.24377,0.21643
0.37432,0.11026,0.026389,-0.093339,-0.066589,0.0011141,0.22502,0.19556
0.003774,0.026905,0.38877,0.13903,0.066816,0.1128,0.034522,0.30712
-0.42906,-0.057655,-0.49128,-0.051256,-0.11382,-0.39035,-0.82331,-0.73055
-0.32312,-0.095921,-0.043157,-0.09349,-0.0069945,-0.078474,-0.24012,-0.66571
0.088447,-0.040272,-0.032252,0.075404,0.03611,0.11227,0.23864,0.20059
0.13661,0.03196,0.041552,-0.098619,-0.0072104,0.17635,0.84297,0.48244
0.3956,0.12151,0.40478,0.11937,0.043651,0.053947,-0.12581,0.58294
-0.38042,-0.060098,-0.34902,-0.0828,-0.076038,-0.14304,-0.63202,-0.39284
0.1872,0.065575,0.2017,0.10734,0.10314,0.087291,0.38245,0.29886
0.21803,0.076716,0.080145,0.040973,0.058086,0.12089,-0.10405,-0.029929
-0.10747,-0.11281,-0.19807,-0.0091206,-0.039402,-0.13605,-0.029093,-0.52987
-0.25898,-0.15964,-0.14816,-0.074972,-0.049089,0.081113,0.61336,0.053604
-0.2702,-0.001833,-0.058315,-0.094796,-0.11223,-0.27612,-0.82809,-0.56436
0.13641,0.016116,-0.036771,-0.045648,-0.010811,0.016797,0.40095,0.41751
0.20642,0.14329,0.33165,0.10353,0.098144,0.043642,-0.53075,0.59007
0.51327,0.15202,-0.077322,0.095023,0.11235,0.34141,0.84344,0.40423
-0.072215,0.017723,0.32233,0.022924,-0.023495,-0.20109,-0.83655,-0.47733
-0.63115,-0.23718,-0.27473,-0.04979,-0.075486,-0.05395,0.29742,-0.83619
0.022888,0.058631,-0.20565,-0.15382,0.010842,0.29773,0.81814,0.3285
0.0083815,-0.016613,0.20777,0.12547,-0.061317,-0.37253,-0.8879,0.12817
0.32897,-0.040126,-0.19994,0.030761,0.075601,0.0065364,0.11333,0.55796
0.13079,-0.11968,0.16388,-0.023476,-0.06996,-0.14153,-0.58017,-0.18339
-0.66565,0.035746,-0.17799,-0.01358,0.0027539,0.17762,0.53493,-0.58484
-0.1011,0.068654,0.28206,-0.12708,-0.033676,0.13025,0.28061,-0.065805
0.28989,0.06627,-0.27623,0.057584,0.10249,0.054139,0.0078148,0.22637
0.21226,0.12271,0.030146,0.047566,0.036398,-0.11204,-0.036363,0.22081
0.57867,0.15137,0.51383,0.20914,0.010042,0.069549,0.11985,0.50119
-0.021593,-0.23207,-0.52821,-0.14624,-0.031729,-0.089002,-0.076131,0.017157
-0.41536,-0.084192,0.099357,0.035132,0.019923,0.051981,-0.08287,-0.57896
-0.30506,-0.070887,-0.072145,-0.10676,-0.10102,-0.086823,-0.5138,-0.31396
-0.15768,-0.068409,0.33253,-0.15016,-0.1134,-0.17844,-0.04269,0.06019
0.077725,0.18062,-0.3502,0.17105,0.12374,0.1903,0.49497,-0.1441
0.064494,0.012549,0.12262,-0.0014991,0.079793,0.17517,-0.11707,0.61393
0.13289,0.045658,-0.22465,-0.049258,-0.0021723,0.11987,0.69529,-0.037737
0.13096,-0.070156,0.23397,0.068222,-0.058771,-0.3658,-0.9856,-0.18153
-0.20942,-0.067797,-0.031925,0.055206,0.01226,-0.015447,0.20343,-0.017375
0.31221,0.053897,0.22821,-0.079815,-0.038725,6.7579e-05,0.24167,0.17581
-0.2846,0.029901,-0.1026,0.07734,0.022549,0.033295,0.12255,-0.20248
0.088176,0.055445,-0.047922,-0.036244,0.03144,0.030232,-0.46678,0.066204
0.03204,-0.088971,-0.31126,-0.054206,0.05724,0.24881,0.59693,0.035087
-0.095616,0.017266,0.15372,-0.047913,-0.15138,-0.21779,-0.4,-0.16534
0.2409,0.091401,0.05731,0.051856,0.1229,0.17605,0.27362,0.51693
0.076692,-0.0086023,0.14091,0.10351,-0.011891,-0.19637,-0.76805,-0.59259
-0.38876,-0.15094,-0.11204,-0.14366,-0.017671,0.014743,0.50389,0.027483
-0.12676,0.031225,0.086491,0.11464,0.011349,0.10475,0.61162,0.1103
0.15086,-0.078905,-0.11606,-0.035683,-0.08872,-0.26318,-0.78858,0.17907
0.31221,0.17601,0.10761,-0.0083916,0.034484,0.21552,0.51559,-0.01539
-0.17136,0.047532,0.12434,-0.18572,-0.047422,-0.036589,-0.72328,-0.026092
-0.24144,-0.20476,-0.33124,0.22216,0.081211,0.044322,0.68583,-0.061604
0.29362,0.061343,0.038712,0.036357,0.023547,-0.13375,-0.761,-0.18169
-0.41397,-0.059263,-0.18611,-0.078304,0.030937,0.13415,0.83838,0.10071
0.39626,0.14482,0.44937,0.035034,-0.083216,-0.025316,-0.34124,-0.048093
0.10813,0.040479,-0.18567,-0.099778,0.017371,0.045286,0.33452,0.17009
-0.099567,0.24395,0.47294,0.12684,-0.0034573,-0.14563,-0.78277,-0.08054
-0.041945,-0.50398,-0.85495,-0.25386,0.033287,0.105,0.39118,0.1754
-0.011908,0.068584,0.4638,0.32039,-0.021862,-0.086294,0.064343,-0.040917
0.025293,0.038398,-0.17281,-0.11173,0.0096063,0.2169,0.74853,0.048851
-0.11399,-0.0017918,0.30434,-0.019559,-0.006242,-0.088305,-0.63057,-0.12075
0.051734,0.19748,-0.2784,-0.12253,-0.046868,-0.13599,-0.44358,-0.23957
0.044626,-0.16856,-0.0013031,0.18018,0.051241,0.010385,0.057186,0.15984
0.068277,0.064479,0.13342,0.012885,0.037944,0.12375,0.0035942,-0.00068432
-0.35184,0.076877,0.28789,-0.023413,-0.055257,-0.014583,0.53664,0.014328
0.006105,-0.19306,-0.51584,-0.069661,-0.04812,-0.068108,-0.21743,0.0036269
0.22365,0.083674,0.22172,-0.079028,-0.025868,-0.15311,-0.18672,-0.15568
0.030286,0.0016934,-0.092763,0.065922,0.074699,0.13766,0.044232,0.36634
0.28722,-0.039862,-0.15332,0.029736,0.066599,0.094059,0.39032,-0.015167
-0.044276,0.029748,0.21378,0.07085,-0.018701,0.091473,-0.062324,-0.065715
-0.37941,0.077781,0.026144,0.0024169,0.029623,-0.1359,-0.53275,-0.22362
-0.1736,-0.083578,-0.019204,-0.1281,-0.10914,-0.041899,0.40042,-0.17794
0.21866,0.0059606,-0.14781,-0.039012,-0.037111,-0.11985,-0.42715,0.28812
0.31796,0.087742,0.3827,0.17622,0.088878,0.29301,0.99264,0.32888
-0.010766,-0.010962,-0.22519,-0.052602,0.010558,-0.12484,-0.81572,-0.080558
-0.057605,0.060753,0.25386,0.040109,0.048007,0.15699,0.18082,-0.042355
-0.37679,-0.33804,-0.58777,-0.12391,-0.12686,-0.28364,-0.69506,-0.72004
-0.26321,0.081866,0.15495,-0.060461,-0.013722,-0.094811,0.3872,0.19279
0.72387,0.2663,0.35632,0.24587,0.067635,0.26353,0.92175,0.72221
-0.34143,-0.14332,-0.24938,-0.095738,0.03973,-0.074432,-0.54358,-0.47245
-0.04928,-0.021182,-0.060056,-0.16358,-0.057747,0.033452,-0.024732,0.05697
0.079432,0.024007,0.042428,0.1906,0.017882,-0.083388,-0.34363,-0.1797
0.32683,0.09417,0.26235,-0.088052,0.024694,0.20089,0.69248,0.44326
-0.48,-0.14664,-0.22729,0.039373,-0.084187,-0.27753,-0.94287,-0.33271
0.56239,0.16843,-0.027199,0.088356,0.081612,0.18407,0.66145,0.31841
-0.2531,-0.14089,0.06624,-0.12087,0.05291,0.11606,0.096837,-0.090743
0.053632,-0.036193,-0.071902,0.0054378,-0.037983,-0.11548,-0.30218,-0.12597
-0.17738,0.20067,0.269,-0.0091588,-0.066521,-0.074105,0.16724,-0.048018
-0.47192,-0.28224,-0.31791,-0.0082013,-0.0095652,-0.018364,-0.34569,-0.1792
0.26323,0.14774,0.057269,0.016386,-0.023454,-0.073466,-0.042461,-0.0046942
0.66213,0.17828,0.27662,0.049219,0.095055,0.14372,0.41487,0.42128
-0.35839,-0.27619,-0.39483,-0.034551,-0.036599,0.016761,-0.034294,-0.048231
-0.15408,0.027024,0.15972,0.0072694,-0.0040621,-0.11748,-0.25575,-0.19238
0.067967,0.065011,0.080691,0.072974,0.052266,0.17157,0.58704,0.092695
-0.29042,-0.036814,-0.17108,-0.048645,-0.047223,-0.14679,-0.50611,-0.33938
0.34339,0.12801,-0.0097779,-0.10793,-0.044819,-0.0021641,-0.22344,0.30195
0.18909,0.082882,0.1581,-0.073974,0.043578,0.12848,0.63729,0.056432
-0.13676,-0.18024,-0.019454,0.3029,0.053507,-0.0057106,-0.2371,0.064511
-0.1127,-0.083617,0.14449,-0.13381,-0.0076515,0.047306,-0.15136,0.036234
0.086499,-0.0026482,-0.022491,0.022019,-0.054326,-0.16666,-0.29239,-0.2094
-0.011099,0.10917,-0.098821,-0.042135,0.0070343,-0.031219,0.2786,0.052837
-0.033383,0.079655,-0.21714,-0.037075,-0.0032235,0.11735,0.23507,0.025072
-0.16211,-0.075774,-0.064223,0.029666,0.0011197,-0.095766,-0.25739,-0.29313
0.039217,-0.021313,0.1424,-0.029033,-0.049769,0.064417,0.34908,0.19214
0.1254,0.024248,0.17763,0.084117,0.063436,-0.034025,-0.50792,-0.065443
-0.18383,-0.064024,0.027215,-0.08365,-0.033721,-0.054248,0.15504,0.20825
0.19113,0.034368,-0.13594,0.053835,0.057587,0.18415,0.40634,0.21688
0.1972,0.06972,0.079294,-0.018986,0.0015848,-0.099734,-0.64733,-0.26592
-0.16421,0.050239,0.08694,0.096237,0.0091273,0.047205,0.5145,-0.084047
-0.06391,-0.17207,-0.074377,-0.092867,-0.013805,0.19494,0.3735,0.12148
-0.22777,-0.057706,-0.28814,-0.039613,-0.06757,-0.36014,-0.78311,-0.32169
0.39146,0.11242,0.1168,0.068387,0.042803,-0.040346,-0.20588,0.3282
-0.25286,-0.02093,0.045941,0.020221,-0.0032299,0.16188,0.59054,-0.085365
0.25348,0.10466,0.092331,-0.098006,-0.033886,-0.073778,-0.4071,-0.031287
-0.33933,0.0044763,0.044296,-0.15323,-0.025691,0.10441,0.21866,0.013856
0.36744,0.053003,0.11202,0.26884,0.091775,0.14985,0.7138,0.31577
-0.055587,-0.14871,-0.37711,0.043333,0.021744,-0.18716,-0.88688,-0.14881
-0.3191,-0.085422,0.20135,-0.087628,-0.063855,-0.086095,-0.11978,-0.39525
-0.24345,0.063087,0.058026,0.086656,0.045892,0.04688,0.0085586,-0.048225
0.31147,-0.015506,-0.1507,-0.18416,-0.055356,-0.038286,0.20867,0.2285
0.40692,0.03075,0.21637,0.060508,0.030725,0.19726,0.53311,0.35697
0.040964,0.08512,-0.32414,-0.015506,-0.031903,-0.067127,-0.045124,-0.061263
-0.023203,0.015142,0.12746,-0.013854,0.0067137,-0.011532,-0.04595,-0.16699
-0.71774,-0.11654,0.14285,0.049906,0.037217,-0.026941,-0.56726,-0.21044
0.41634,0.041522,-0.12836,0.05094,-0.034069,-0.043268,0.020675,0.089551
0.042173,0.067142,0.088066,-0.049618,0.011713,-0.021472,0.013361,0.12374
-0.12897,-0.063552,-0.051366,-0.0016089,-0.012823,0.03864,-0.057453,-0.068405
0.21702,0.031821,-0.062618,-0.023699,0.033038,0.02023,0.41187,-0.0019293
-0.57358,-0.11582,0.18626,0.040347,-0.038152,-0.021612,-0.26318,-0.27784
0.3303,0.0089945,-0.13408,-0.028328,0.047055,0.015008,0.045536,0.33857
0.2049,0.093747,-0.040622,0.027896,-0.0082331,0.067766,0.49692,0.2301
0.28677,0.060432,0.26228,-0.080292,-0.039984,-0.035232,-0.32917,-0.072404
-0.094708,-0.11422,-0.35124,0.068699,0.014284,-0.044175,-0.072547,-0.21024
-0.47041,0.046536,0.23561,-0.0019675,-0.032927,-0.037465,-0.42072,-0.13726
-0.098504,-0.07435,-0.31296,0.051236,0.052782,0.094013,0.42273,-0.041521
0.30924,0.14825,0.23797,-0.045241,-0.0019922,-0.0014428,0.089989,0.17045
-0.099826,-0.098044,-0.024894,-0.033532,0.0059073,-0.019086,0.018021,0.076805
0.0090509,-0.00054596,-0.077393,0.055373,-0.01725,-0.075818,-0.26227,-0.080013
-0.076288,0.019137,0.32316,-0.098375,-0.032397,-0.046153,-0.14943,0.020679
0.40863,0.016078,-0.29183,0.076157,0.038584,0.16425,0.48936,0.16054
0.09571,0.00639,0.046285,-0.045349,0.015995,-0.014327,-0.22871,-0.12095
-0.14056,-0.056283,0.14193,-0.016971,-0.045491,-0.058039,0.063345,0.06729
-0.54231,-0.046499,-0.10662,0.11483,0.033801,-0.021424,-0.1116,-0.24301
-0.14013,-0.010921,-0.12898,-0.024834,-0.019578,-0.045313,-0.1608,-0.12952
0.106,0.058108,-0.010617,-0.037727,0.013109,0.13535,0.25807,0.18148
0.29071,0.034968,-0.00075265,-0.025916,-0.0087832,-0.027181,0.22136,0.057142
0.44555,0.082659,0.089095,0.033335,-0.030599,-0.04957,-0.47585,0.20784
0.2106,0.22327,0.51769,0.022069,0.080429,0.19997,0.69617,0.21064
-0.61858,-0.46645,-0.82362,-0.060412,-0.066385,-0.24811,-0.45874,-0.45927
-0.15308,0.13744,0.36232,0.051014,0.052334,0.012043,-0.47174,-0.11585
0.12123,-0.043683,-0.11999,-0.026691,-0.032222,0.027372,0.37709,0.13043
-0.054224,-0.10334,-0.05256,-0.0043863,-0.031028,-0.07659,0.17576,0.03681
0.023988,0.17027,0.40716,0.0010999,0.02465,0.091617,-0.24506,0.017495
0.075928,0.036307,-0.21112,0.021572,0.017622,0.064168,0.22654,0.010717
-0.13077,-0.027168,-0.073073,-0.1064,-0.03649,-0.025337,-0.087166,-0.11519
0.046749,0.0046515,0.085506,0.10995,0.041984,-0.02016,-0.19297,0.0082662
0.34477,0.085902,-0.056649,0.014785,-0.004815,0.072,0.66687,0.35885
-0.055809,-0.2204,-0.24206,0.045787,-0.0050815,-0.10846,-0.50874,-0.18751
-0.16246,0.11699,0.17022,-0.070541,0.0098612,0.016114,0.12999,-0.083367
-0.21793,-0.043039,0.0091251,-0.014133,-0.045976,-0.054816,-0.41899,-0.18789
-0.02815,0.064312,0.22109,-0.035337,0.014905,0.092331,0.12366,0.076939
0.13959,-0.015117,-0.16149,0.029549,0.036318,0.082267,0.56121,0.18733
0.44753,0.077,0.17494,-0.046343,-0.028473,-0.15534,-0.41177,0.14275
-0.32469,-0.089897,-0.32351,0.16647,0.023858,0.0047833,-0.014005,-0.25268
0.0092768,-0.031977,0.078103,-0.089934,0.0060511,0.078778,0.25527,0.13327
-0.14478,0.055329,0.091083,-0.081172,-0.066021,-0.049875,-0.21975,-0.17636
-0.16933,-0.14799,-0.081291,0.067839,-0.0046522,-0.083628,-0.29666,-0.1349
0.15545,0.077447,0.053138,-0.0099484,0.049653,0.079594,0.22955,0.16389
0.096671,0.083981,0.025408,0.0059421,0.02658,0.11189,0.43871,0.19666
0.14811,0.052042,0.053898,-0.0093363,-0.011506,-0.088433,-0.38674,-0.044283
-0.024859,-0.095959,-0.11187,0.069335,0.013275,0.0093948,-0.035337,-0.09792
-0.10897,-0.00041618,-0.042743,-0.086094,-0.024364,0.053114,0.28183,0.020155
-0.0025046,0.08077,0.25298,0.055658,-0.0074893,-0.04396,-0.27973,-0.04159
-0.16687,-0.12619,-0.25636,-0.052284,-0.022183,-0.11056,-0.20556,-0.087752
0.20947,0.05003,0.0070604,0.027548,0.040933,0.18112,0.86243,0.27246
-0.093496,-0.039614,-0.019483,-0.033043,-0.052368,-0.20016,-0.88172,-0.23416
0.032139,0.065204,0.14037,0.00017937,-0.012791,0.050614,0.17028,-0.044941
0.014633,-0.026673,-0.060486,0.0019915,0.034897,0.012042,0.0019774,0.012043
0.016827,0.012485,0.096388,0.08926,0.051769,0.067393,0.18312,0.15534
0.01448,-0.044096,-0.14715,-0.058718,-0.016889,0.045061,0.12741,-0.029605
0.11677,0.13954,0.25553,0.018602,-0.0072212,-0.047167,-0.055954,0.22216
-0.10547,-0.02229,-0.12529,0.039673,0.017925,0.048206,0.062763,-0.10569
-0.17439,-0.17749,-0.20337,-0.065911,-0.043414,-0.083395,-0.42241,-0.19333
-0.0725,0.018431,-0.0171,-0.063591,-0.011901,-0.028464,-0.089102,-0.11109
0.069553,0.01943,0.043859,0.039305,0.010692,0.01726,0.37583,-0.022573
0.035021,0.060689,0.089943,-0.045566,0.0087306,0.061411,0.051073,0.096571
0.29408,0.10375,0.24707,0.14357,0.013657,-0.02088,0.0072729,0.13021
-0.02771,-0.10109,-0.23416,-0.04876,-0.028858,-0.088567,-0.18533,0.09486
-0.08701,-0.014868,-0.025477,-0.0282,0.0066287,0.062094,0.0040507,-0.12616
0.0056365,0.041699,0.16195,-0.028834,0.0033755,0.017723,0.30908,0.20151
-0.20449,-0.010161,-0.12553,0.10555,0.032052,0.0054849,-0.19281,-0.196
-0.047152,-0.053991,-0.12293,-0.070725,-0.02432,0.0023409,-0.0020583,-0.061562
0.0075821,-0.020153,-0.088688,-0.011373,-0.0094564,-0.077521,-0.35291,-0.19272
0.15417,0.043974,0.21885,-0.0061821,0.021826,0.10951,0.22417,0.15219
0.29856,0.052193,0.13523,-0.02463,-0.001025,0.03964,0.22276,0.27763
-0.23879,0.043578,0.12113,0.13579,0.038897,-0.0062832,0.12911,-0.0664
-0.066737,-0.13785,-0.40161,-0.095674,-0.069591,-0.15362,-0.35162,-0.11404
-0.25485,0.0162,0.059334,0.01519,-0.00633,-0.0040987,-0.18629,-0.16963
0.033557,-0.040554,-0.089421,-0.062793,-0.013543,0.036055,0.18905,0.095395
0.36935,0.12998,0.25418,-0.01683,0.018208,0.0061121,0.12661,0.09546
-0.059776,-0.049866,-0.057808,0.083189,0.04997,0.14852,0.37612,0.057375
0.12872,-0.0017392,-0.095395,0.018953,-0.019726,-0.17718,-0.66525,-0.018821
-0.050181,0.024285,0.0085943,0.0095606,0.020079,0.083693,0.32844,-0.063003
-0.39418,-0.073722,0.035013,-0.11668,-0.05725,-0.022269,-0.13776,-0.15368
0.095956,0.063022,0.13157,0.069921,0.021571,-0.018999,-0.24654,0.099236
0.10724,0.051007,0.07861,0.092644,0.021972,0.061631,0.57736,0.12487
0.022378,-0.047927,-0.17154,-0.095622,0.02972,0.086217,-0.066802,0.0086367
0.13855,-0.0077004,-0.11932,0.043961,-0.04121,-0.10188,-0.055406,-0.0076316
-0.082661,-0.094138,0.047845,-0.090295,-0.042333,-0.15113,-0.52151,-0.16619
-0.09348,0.013193,-0.12248,0.040689,0.026544,0.095107,0.32495,0.072309
0.10715,0.14282,0.1833,-0.078554,0.0016734,0.036009,0.09541,0.14604
-0.28436,-0.13436,-0.064776,0.083465,0.00060949,-0.069635,-0.31668,-0.35811
0.20956,0.12762,0.16563,0.058232,0.0080559,0.076009,0.45893,0.2406
0.22249,-0.062855,-0.070129,-0.036914,-0.0070367,0.012707,-0.020274,0.01341
-0.27641,0.021184,0.04832,0.055876,0.025653,-0.024894,-0.43186,-0.070414
0.15035,-0.073189,-0.25295,-0.077531,0.0043591,0.048891,0.40505,0.059389
-0.20868,0.052429,0.41582,-0.046623,-0.032232,-0.016659,-0.024952,0.034946
-0.065352,-0.055325,-0.33702,0.070391,0.040409,-0.050703,-0.23031,0.026909
0.28222,0.09535,0.018881,-0.038983,-0.012543,0.062838,0.22523,-0.09123
0.17635,0.066487,0.12353,0.062872,-0.01953,0.0027349,-0.06617,0.24158
-0.19687,-0.17362,-0.25765,-0.014464,-0.0040859,-0.067461,-0.27802,-0.35853
-0.29171,0.046553,0.25046,-0.098886,-0.012927,-0.030539,0.15062,0.045574
0.1646,-0.015385,-0.015846,-0.057415,-0.022231,-0.0031323,0.054324,0.0011696
0.14854,0.038988,0.021991,0.21152,0.038833,0.015713,0.080369,0.056201
-0.073767,0.0066886,-0.088806,-0.042307,0.0067268,0.027118,-0.061259,0.040261
-0.0091452,-0.018295,0.058208,0.016605,0.0068411,0.11803,0.51157,0.064217
-0.18766,-0.059136,-0.10726,-0.010789,-0.030988,-0.17181,-0.76397,-0.17547
0.040267,0.064073,0.15686,-0.070433,0.033719,0.032758,-0.090832,0.071757
0.14417,0.046787,-0.032358,-0.037827,0.013044,0.075118,0.32073,0.086965
0.25715,0.045318,0.0047013,0.086795,0.031383,0.11072,0.4016,0.11936
-0.1913,-0.10437,-0.11465,-0.0089625,-0.075973,-0.22086,-0.58101,-0.13692
-0.029835,-0.011596,0.023985,-0.027789,0.026371,0.11063,0.22625,-0.081514
0.0065854,-0.0043595,0.022709,-0.05494,-0.029069,-0.012741,0.20794,0.10506
-0.090146,-0.012129,0.061826,0.050997,-0.023526,-0.12252,-0.44689,-0.17118
-0.077674,0.059107,-0.04562,0.064191,0.043331,0.06275,0.20813,0.019951
-0.12723,-0.056061,-0.09622,-0.038271,-0.015422,-0.042235,-0.17033,-0.0080048
0.23868,-0.02163,-0.051035,0.009454,0.043095,0.063373,0.15948,0.1291
0.020925,0.12317,0.40965,-0.011507,-0.03826,0.013221,0.047853,-0.098783
0.12625,-0.028351,-0.23081,-0.023453,0.0066571,0.081351,0.37556,0.12939
-0.047009,-0.00026171,0.049758,0.012039,0.0062516,-0.083556,-0.60205,-0.092625
-0.062109,0.034832,-0.046765,0.039556,0.04647,0.065246,0.33918,0.26572
0.079739,-0.10341,-0.11506,-0.035335,-0.021368,0.02735,0.17395,-0.093689
-0.23222,-0.048232,-0.0305,0.0055929,-0.057071,-0.20558,-0.84079,-0.29731
0.0085904,0.044021,0.12903,-0.056697,0.0013289,0.061307,0.49841,0.067646
0.043548,0.032972,-0.026284,0.043408,0.020473,0.038624,0.036694,-0.0074065
0.12239,0.02072,-0.026476,0.024906,-0.00011837,-0.047175,-0.20821,0.078964
0.13605,0.023603,0.075091,-0.0023742,0.040759,0.085214,0.32848,0.15539
-0.26625,-0.02793,0.0061767,-0.06129,-0.021153,0.05313,0.12526,-0.15993
-0.044322,-0.062875,-0.052661,0.1066,-0.0061704,-0.09637,-0.3792,-0.053258
0.084317,0.05211,-0.05411,-0.045006,0.015583,0.0040712,-0.028396,0.07819
0.1208,0.051708,0.20495,-0.023428,-0.025837,0.088981,0.54423,0.032222
-0.059065,-0.071835,-0.080539,-0.039294,-0.036183,-0.11494,-0.52198,-0.13604
-0.079937,0.0094126,-0.059646,0.02469,0.016337,0.025275,0.14641,0.088866
-0.020166,-0.040899,-0.25656,0.019952,0.015017,-0.052737,-0.28809,0.01864
0.096058,0.057891,0.26542,0.024246,0.014857,0.07301,0.38428,0.12077
0.20509,0.031655,-0.01011,0.036992,0.023735,0.035362,0.13162,0.049994
-0.16316,0.051554,0.22863,-0.012827,0.0023741,-0.03296,-0.2883,-0.21073
-0.16619,-0.17992,-0.29243,-0.1025,-0.026246,-0.015001,-0.1328,-0.084297
-0.10182,0.039915,-0.019069,0.025151,-0.015859,-0.036128,-0.057203,-0.086781
0.131,0.038963,0.025084,0.010325,0.025096,0.067284,0.29118,0.18829
0.18074,0.10638,0.31676,0.048161,-0.0054575,0.029173,0.22599,0.038567
-0.0067841,-0.054339,-0.2763,-0.033104,-0.029678,-0.057041,-0.29085,0.090172
-0.024422,-0.083177,-0.08905,0.063783,0.038383,0.019445,0.17112,-0.11657
-0.035015,-0.018395,-0.0030849,-0.035581,-0.019717,-0.069364,-0.33278,0.11488
-0.10745,-0.023201,0.0063321,-0.049201,-0.015923,0.098805,0.19011,-0.12849
-0.037157,0.10628,0.18249,-0.077853,-0.027678,-0.069178,-0.048864,-0.033317
-0.010336,0.011196,-0.075539,0.12917,0.047254,-0.056969,-0.16668,-0.067795
0.059794,0.0041895,0.13072,-0.029197,-0.0015431,0.01891,0.078772,0.065179
0.087472,-0.055577,-0.19937,0.0019204,0.029316,0.10422,0.14005,0.076352
0.10332,0.1048,0.15183,0.066098,-0.0086602,0.027211,0.34422,0.004142
-0.065924,-0.12479,-0.051449,-0.032476,0.0091876,-0.017054,-0.20869,-0.0197
-0.023729,0.051773,0.033223,-0.028891,-0.011432,0.0099381,-0.13762,0.10505
-0.053373,-0.061464,-0.25923,-0.0098523,-0.039881,-0.14253,-0.31922,-0.10737
0.093441,0.011628,0.14878,0.016177,0.024857,0.048249,0.16708,0.13096
-0.11553,0.036483,0.069756,-0.037132,-0.03634,-0.0042273,0.078321,-0.22746
-0.18815,-0.041565,-0.12088,0.056728,0.026386,0.059086,0.062733,-0.081037
0.15765,0.05109,0.11665,-0.045721,0.0099999,-0.019667,0.1206,0.078701
0.071832,0.056876,0.18157,0.0075925,0.016338,0.0019177,0.049497,0.088836
-0.0063105,-0.055193,-0.28472,-0.095226,-0.040161,0.030512,-0.071345,0.075684
0.042064,0.012024,0.19502,0.083851,0.012773,-0.058339,-0.17015,0.016992
0.054052,-0.022457,-0.19899,0.14669,0.027031,-0.014056,-0.13576,-0.047377
-0.19645,-0.11149,-0.067918,-0.10204,-0.028427,0.023255,0.15877,-0.17183
0.024663,0.088959,0.13532,0.017059,0.033969,0.0070923,-0.17536,0.11216
0.16967,0.040055,0.074793,-0.074672,-0.035843,0.015744,0.33192,0.030524
0.049907,0.054473,0.023681,0.036259,0.058857,0.10382,0.12643,0.20741
0.047014,-0.055218,-0.12007,0.0056282,-0.06494,-0.1899,-0.44863,-0.20178
-0.34771,-0.03906,0.15849,-0.026188,0.0066446,0.079422,0.30824,-0.072696
-0.15034,-0.014378,-0.18826,0.058033,3.1975e-05,-0.026271,0.050835,-0.11661
0.092222,0.0029836,0.042149,-0.11641,-0.030179,-0.046618,-0.42687,0.018033
0.26303,0.036191,-0.017975,0.0056437,0.048773,0.17412,0.58324,0.2064
0.12795,-0.00099978,-0.025148,0.11222,0.002473,-0.098822,-0.53827,-0.027861
-0.070764,0.031727,0.13778,0.01627,0.010561,-0.037501,0.26207,0.034086
0.010484,-0.022155,-0.013377,-0.055375,0.0026667,0.076885,0.18753,0.10309
-0.11291,0.0090415,-0.0017343,0.061415,0.0099925,-0.036596,-0.31508,-0.18824
0.012118,-0.046614,-0.10809,-0.086599,-0.061215,-0.080505,-0.039894,0.11311
-0.10629,-0.0093279,-0.019421,0.0081754,0.015677,0.10214,0.24315,-0.070879
-0.045421,-0.0038332,-0.00082922,0.0095546,-0.0091841,-0.058187,-0.32166,-0.27102
-0.014969,0.071813,0.19035,-0.043604,-0.010596,-0.021737,-0.035926,0.13844
0.2052,0.022723,-0.015818,0.090753,0.042902,0.04006,0.22714,0.10362
