0.014279,0.005205,-0.019618,0.046411,0.05334,0.037869,0.022349,-0.032716
0.22672,-0.085012,0.060035,0.005619,0.033075,0.098947,0.2068,0.20351
0.060169,0.1753,0.016175,0.035504,0.021825,0.084012,0.43465,0.15482
-0.15053,-0.17322,-0.12753,-0.051313,-0.034727,-0.10866,-0.35784,-0.36077
-0.094444,0.035469,-0.0037968,-0.028187,-0.034884,0.051647,0.20986,0.11497
-0.077896,-0.063651,-0.057869,-0.0044402,-0.017798,-0.15457,-0.57608,-0.06115
0.1166,-0.15606,0.085259,0.035574,0.024077,-0.032798,-0.17166,-0.086332
0.066508,0.13465,0.019257,-0.00192,-0.011217,0.080366,0.3348,0.061964
-0.095357,-0.081887,-0.0061183,0.0079876,0.024278,0.012562,0.11371,-0.10829
-0.0013118,0.20865,0.0086649,-0.028629,-0.0027712,0.068207,0.58652,0.18516
-0.20539,0.12825,0.023841,0.028588,0.024305,-0.0027919,-0.3554,0.0063345
-0.011859,-0.18695,-0.00052967,-0.016012,-0.043393,-0.098816,-0.57735,-0.20566
0.0869,0.11707,-0.065378,0.0012591,0.0047307,-0.00092367,-0.084295,-0.058853
0.74621,0.12883,0.062854,0.025365,0.035695,0.095905,0.1273,0.56486
-0.074504,0.00055514,0.024241,0.024801,0.033928,0.10621,0.67053,0.23632
-0.43939,-0.45713,-0.095445,-0.03178,-0.04716,-0.039688,0.18937,-0.42691
-0.60741,-0.22769,-0.038144,-0.050527,-0.082082,-0.38015,-1.0168,-0.70561
0.3979,0.4425,0.048316,-0.01552,0.007888,0.10114,0.31116,-0.013052
-0.094097,-0.096949,-0.038359,-0.0044435,0.0045865,0.13123,0.34517,0.54241
0.45029,0.13746,0.10895,0.061321,0.049067,-0.024191,-0.41601,0.11805
-0.34073,-0.26939,-0.0090008,0.033786,0.078987,0.24384,0.40033,0.33172
0.18465,0.29724,0.053621,0.030468,0.062947,0.19224,-0.029134,-0.050916
0.037144,0.098217,-0.07008,-0.065641,-0.14788,-0.54733,-0.6999,-0.77263
0.085917,0.14958,0.018449,0.011137,0.031945,0.24284,0.87713,0.26707
-0.33229,-0.27732,-0.08699,-0.036092,-0.046411,-0.18005,-0.1207,0.14497
-0.10073,-0.17071,0.035557,0.027009,0.023125,0.0043944,0.07882,0.23476
0.14633,-0.027508,-0.059082,-0.080843,-0.07182,-0.07027,-0.76631,-0.36318
0.19573,0.14779,0.027709,0.054373,0.044138,0.20657,0.47825,-0.21242
0.044993,0.078313,-0.039879,-0.043998,-0.019115,0.01598,-0.24743,0.15482
0.41068,0.1686,0.3319,0.20197,0.14514,0.015329,0.075189,0.54224
-0.62256,-0.33111,-0.22433,-0.12209,-0.072207,-0.013553,0.30013,-0.28556
0.1718,-0.043719,0.0019869,0.022481,0.0084853,-0.13328,-0.086971,0.053202
-0.41586,0.2607,-0.044323,-0.020997,0.035296,0.33503,0.46024,0.049923
-0.60206,-0.58593,-0.14506,-0.12788,-0.17989,-0.49274,-1.0059,-0.86607
0.73266,0.53671,0.16799,0.092206,0.10438,0.24119,0.49486,0.66488
0.2458,-0.31534,0.019284,0.022005,0.051433,0.0039728,-0.26888,0.20623
0.83512,0.45046,0.12707,0.060008,0.0044164,0.012994,1.0026,-0.03728
-0.52578,-0.2169,-0.24354,-0.098315,-0.060442,0.0017342,-0.60888,0.20211
-0.79493,-0.081909,0.016382,0.0081896,-0.002529,-0.12384,-0.3708,-0.95596
0.58434,0.48786,0.19555,0.082892,0.037871,0.44138,0.70192,0.79569
-0.0731,0.21088,-0.026497,-0.030197,-0.024515,-0.44209,-1.1527,-0.26723
-0.07564,-0.41116,-0.071472,-0.026112,-0.024728,-0.03034,0.48589,-0.064984
-0.12751,-0.44329,-0.095137,-0.013938,0.014786,-0.047804,-0.085385,-0.15162
-0.41435,-0.36779,-0.073234,-0.055876,-0.037858,0.078002,0.38406,0.39416
0.47451,0.17364,0.13592,0.067098,0.075862,0.20051,0.010874,0.15653
0.053066,0.25383,0.0021954,-0.027619,-0.01086,0.14126,0.56578,-0.070283
0.65616,0.33019,0.23757,0.1757,0.13168,0.010109,-0.49584,0.35927
-0.73364,0.12517,-0.16501,-0.12766,-0.14529,-0.45891,-0.48708,-0.7916
-0.16678,-0.10232,-0.16605,-0.094106,-0.076688,0.0066714,0.17494,-0.20391
-0.34466,-0.29286,-0.038944,0.0026643,0.00087103,0.069541,-0.11617,-0.072904
0.67698,-0.02472,0.11443,0.076382,0.094527,0.42342,0.52429,0.63396
-0.004042,0.42387,0.082475,0.032928,0.0083795,-0.31608,-0.55841,-0.2688
0.67695,-0.16655,0.090862,0.051632,0.062286,0.18554,0.73129,0.93959
-0.56763,-0.095675,-0.10363,-0.070922,-0.10342,-0.3228,-0.62741,-1.005
-0.087067,0.19587,-0.041033,-0.038025,-0.03573,0.11914,0.6898,0.2026
-0.11108,-0.30125,-0.058065,-0.021543,0.031015,0.011136,-0.40511,-0.0083107
-0.64727,-0.093278,-0.061382,-0.044722,-0.043654,-0.099783,-0.90463,-0.32655
0.64416,0.30198,0.16776,0.13496,0.15454,0.41183,1.0362,0.71481
-0.41749,-0.097782,0.012541,-0.013334,-0.085142,-0.34405,-0.86153,-0.48004
0.40269,-0.2243,-0.081099,-0.020479,0.010904,0.094161,0.92025,0.18852
0.26115,-0.27245,0.01257,0.0044296,-0.0025544,-0.062017,-0.12412,-0.21851
-0.38315,0.32937,0.036416,-0.016613,-0.0083239,0.016043,0.25671,0.39181
0.1128,0.44096,-0.087207,-0.06805,-0.084597,-0.054123,-0.58507,-0.543
0.72391,0.13859,0.07938,0.060804,0.057553,0.14953,0.6087,0.60294
-0.68806,-0.22343,-0.018687,0.033594,0.042922,-0.076187,-0.50498,-0.63754
-0.045354,-0.63796,0.0086992,0.01385,0.0275,-0.020599,0.11466,0.39385
0.025396,0.38354,-0.018927,-0.053691,-0.059312,-0.082604,-0.39668,-0.22264
-0.26617,0.29627,0.07723,0.025761,0.032237,0.12786,-0.24617,0.10858
0.24445,-0.2033,-0.031775,0.0018357,0.020759,0.23525,0.89813,0.41221
0.45105,0.21439,-0.049622,-0.039659,-0.070247,-0.28423,-0.75007,-0.40501
-0.69471,-0.54158,-0.015512,0.01862,0.0017073,-0.079077,0.51303,0.039491
-0.13643,0.010232,0.00059364,-0.0025797,0.010605,-0.023952,0.11503,-0.13011
0.59896,0.34589,0.030761,0.014592,0.019672,0.13188,0.22307,0.038106
0.095754,0.20929,0.0058215,-0.0072061,-0.0093682,0.0066,0.11178,0.26942
-0.092128,-0.53678,-0.033903,0.0031125,0.025754,0.093487,-0.25705,-0.17173
-0.52027,-0.013077,-0.071664,-0.063193,-0.093238,-0.17683,-0.51406,-0.20029
0.012588,0.20646,0.11205,0.067697,0.047848,0.10253,0.048802,0.62853
0.27635,0.023594,0.056521,0.036465,0.07375,-0.11517,-0.57563,-0.73225
0.21861,0.24499,-0.019832,-0.016531,0.0072769,0.060374,0.74949,0.08478
0.12082,0.41019,0.0071617,-0.0058855,0.011624,0.081464,-0.039741,0.056624
0.075327,-0.62996,-0.05111,-0.010407,-0.05476,-0.021787,0.32964,0.40252
-0.32654,0.029483,-0.00046946,0.00046281,-0.020781,0.17905,0.25489,-0.17398
0.13138,-0.35501,-0.06839,-0.059778,-0.066596,-0.31715,-0.76713,0.4447
-0.8343,-0.15938,0.025871,0.035084,0.026468,-0.06586,-0.039179,-0.77228
0.2515,0.56123,0.03227,0.011511,0.024319,0.19829,0.44561,0.081848
0.18469,-0.060618,-0.056632,-0.028815,0.0056082,-0.11038,-0.15217,-0.25004
0.47986,0.091882,0.080128,0.062823,0.072497,0.21192,0.49825,0.56091
0.20568,0.33036,0.044868,-0.0022911,-0.016692,-0.076053,-0.42149,0.10113
-0.26541,-0.4482,-0.067961,-0.051932,-0.058516,-0.29368,-0.58867,-0.32466
-0.30404,-0.034699,0.015608,0.023573,0.033049,0.27075,0.68798,0.03292
-0.070269,-0.25136,-0.024431,0.0057037,0.0079057,0.14893,0.10947,0.24294
0.30746,0.26747,0.038571,0.019624,-0.0013289,-0.25282,-0.9884,-0.21192
-0.18101,0.16944,-0.029857,-0.012668,-0.026088,-0.012923,0.41157,-0.10688
0.0027891,-0.10768,-0.050249,-0.044197,0.0038633,0.27436,0.54633,0.19718
0.18846,0.3673,0.10992,0.042319,-0.020773,-0.27435,-0.31558,0.13699
-0.12045,-0.42631,-0.080919,-0.034288,0.0096065,0.17643,0.80507,-0.14668
0.19846,-0.094068,0.033173,0.015084,0.0015635,-0.11566,-0.5973,-0.21514
-0.67673,-0.15497,-0.001228,0.0028913,-0.0055415,-0.15047,-0.44273,-0.1054
0.025758,0.098464,-0.035971,-0.0085359,0.011901,0.10368,-0.096728,-0.064907
0.29534,-0.1585,-0.0088306,0.01955,0.022602,0.15522,0.34086,0.49474
0.33032,0.48977,0.064301,0.032014,0.034092,0.0047404,0.53587,0.17702
0.36542,0.2847,0.019116,-0.026363,-0.063495,-0.18327,-0.9397,-0.2437
-0.40622,-0.22219,-0.050823,-0.0076633,0.026112,0.18512,0.47008,-0.18156
0.081613,-0.028113,0.057521,0.033012,0.036714,-0.077663,-0.046837,0.11244
-0.31658,-0.15456,-0.085468,-0.068611,-0.055533,0.0046646,0.29019,-0.066356
0.089999,0.025725,0.028273,0.0078257,-0.024192,-0.076096,-0.31754,-0.00091499
-0.35811,-0.24146,-0.022702,-0.003008,-0.0018846,0.007777,0.025428,-0.099081
0.071935,-0.27084,-0.011293,0.016562,0.027488,0.10749,0.31522,0.32535
0.18479,0.2889,0.055236,0.020234,-0.029184,-0.050691,-0.48385,-0.30674
-0.14373,0.18911,-0.010178,-0.0070752,0.016243,-0.092015,-0.14971,-0.019508
0.50913,0.096085,-0.027622,0.005351,0.047064,0.084838,0.36818,0.14733
-0.13762,0.16843,0.018483,-0.0047794,-0.0068391,0.010848,0.074353,-0.033446
0.13419,-0.068375,0.041892,0.009408,-0.0049918,0.03727,-0.0019804,0.085893
-0.020396,-0.32372,0.0030618,-0.0069405,-0.033794,-0.031528,0.50606,0.11405
-0.19636,0.13797,-0.012589,0.016235,0.062341,0.030761,-0.3685,-0.050948
-0.011386,-0.064956,-0.028893,-0.02287,-0.053225,-0.12753,-0.65295,-0.13554
-0.44903,-0.056118,-0.0069172,0.008408,0.033006,0.056212,0.025815,-0.17009
0.45394,0.21308,-0.001143,-0.0071201,-0.0073673,0.098038,-0.21573,0.14405
-0.33814,-0.32571,-0.065739,-0.053686,-0.06488,-0.079491,0.62955,-0.050059
0.022165,0.13412,0.042186,0.025194,-0.014078,0.016707,0.20814,0.055076
0.28777,-0.054392,-0.012612,0.011004,0.036382,-0.065527,0.40635,0.016736
0.14741,0.28123,0.067204,0.052307,0.048259,-0.044081,-0.57212,-0.10072
0.0063045,-0.054856,0.016068,-0.022833,-0.016778,0.081603,0.02055,0.1409
0.040999,-0.017504,-0.018,-0.011573,-0.009814,0.085058,0.10975,0.16281
0.1844,-0.039082,0.011038,0.023121,0.014578,-0.15135,-0.91924,-0.27125
-0.41209,-0.20871,0.023983,0.010387,0.017078,0.24642,0.73283,0.33601
0.091453,0.26738,-0.0036584,-0.0034079,0.028369,-0.0276,0.43631,-0.0026677
-0.41606,-0.011679,-0.10391,-0.081098,-0.10072,-0.24819,-0.7653,-0.53189
-0.06657,-0.039332,0.012025,0.027246,0.035338,0.15387,0.56361,0.08288
0.1276,-0.23729,-0.038375,-0.021902,-0.001539,-0.15015,-0.23363,0.13839
0.39015,0.20074,0.073836,0.06099,0.022728,0.066315,-0.23433,-0.028368
0.32031,0.066588,0.02169,0.010919,0.014416,0.10074,0.5397,0.17823
-0.36613,-0.26137,-0.029525,-0.038664,-0.065208,-0.13179,-0.70642,-0.013149
-0.13458,0.071725,-0.0084692,0.0065226,0.0031509,0.026119,0.31822,-0.092882
-0.077494,0.02932,0.015159,-0.0094445,0.001371,0.052091,0.10708,-0.14587
0.038736,0.034409,0.064874,0.038499,0.031571,-0.037543,-0.13622,-0.039276
0.18812,0.3208,0.015223,0.0017154,0.047225,0.28091,0.9162,0.50722
0.39038,-0.027761,-0.072165,-0.026464,-0.021918,-0.23491,-0.58004,0.13261
-0.31173,-0.124,-0.018697,0.00027876,-0.012035,-0.093299,-0.62552,-0.41495
-0.34378,-0.24517,-0.044225,-0.012401,0.013897,0.080143,0.19379,-0.16041
-0.060012,-0.058793,0.022217,-0.010349,-0.054093,-0.12919,-0.26982,-0.23731
-0.055462,0.088927,0.039417,0.037298,0.017788,0.090803,0.55535,0.19828
0.25579,0.079768,0.061871,0.013161,0.025977,0.13057,0.053845,0.1552
0.11684,0.007933,-0.027413,-0.012417,0.0015102,0.021342,-0.022752,0.088031
0.091483,0.22671,-0.048214,-0.047009,-0.071196,-0.22117,0.037618,0.11538
0.001252,-0.33165,-0.038817,0.011351,0.034696,0.12975,0.34485,0.0039238
-0.12172,-0.039249,-0.0061495,-0.00090043,0.022755,-0.11326,-0.89791,-0.26929
0.0042893,0.10655,0.03501,0.018307,0.010688,0.04207,0.14496,-0.0011668
-0.1205,0.029558,0.077508,0.038157,0.030252,0.18171,0.23079,0.19068
-0.019404,0.019675,-0.042357,-0.026992,-0.04313,-0.07717,-0.055043,-0.3428
0.01864,0.25625,0.042628,0.010501,-0.021663,-0.086165,0.083656,0.21029
0.048526,-0.31679,-0.06625,-0.013433,0.016677,0.068841,0.45854,0.27127
0.062651,0.095315,0.0055337,-0.012967,-0.014043,-0.15102,-0.79073,-0.34782
-0.048246,-0.001933,0.007434,0.0039219,0.042299,0.19212,0.62391,0.055803
0.13766,-0.09492,-0.0063469,-0.0020063,-0.025478,-0.088764,-0.10307,0.10682
-0.12206,0.018175,-0.028331,-0.023108,-0.030199,-0.10258,-0.50346,-0.21851
-0.077753,-0.10834,0.019463,0.034208,0.051199,0.072888,0.070937,0.056025
0.1296,0.15108,0.027696,-0.0020922,0.0074069,0.031404,0.057588,0.22689
0.015406,-0.038217,-0.026909,0.00062876,-0.029082,0.069469,0.37828,0.02026
-0.029715,0.20048,0.035546,0.01874,0.0040161,0.0066226,-0.23299,0.014007
-0.16175,-0.21695,-0.026935,-0.0026448,0.020682,0.068379,0.52772,-0.16681
-0.18494,-0.031066,-0.026745,-0.040265,-0.064956,-0.23074,-0.91873,-0.33419
0.41689,-0.014076,0.012678,0.0073191,0.012915,0.12397,0.92672,0.38787
0.081697,0.26448,0.067788,0.015071,0.004558,-0.11016,-0.54577,-0.014882
-0.041775,-0.05446,-0.010029,0.0064903,0.043054,-0.0034234,-0.19517,-0.10343
-0.1956,-0.017783,-0.03346,0.0051706,0.034867,0.10879,0.12844,0.0454
-0.17665,-0.25851,-0.049508,-0.035532,-0.035506,-0.030418,0.075893,-0.0050532
0.3041,0.035572,0.027753,0.025279,-0.019605,0.064433,0.19705,0.13598
0.074794,0.03602,0.026569,0.00036487,0.0043849,-0.066548,-0.25512,0.030424
-0.1379,0.11742,-0.029387,-0.016317,-0.026156,-0.0084938,0.065414,-0.065062
-0.21669,0.091628,0.016427,0.0065922,-0.017635,-0.010978,-0.090285,-0.20667
-0.020938,-0.096971,0.00022025,0.0065735,0.014128,0.0041108,0.16789,0.033755
0.21475,-0.059043,-0.015335,0.0069159,0.02984,0.028528,-0.068464,0.053338
0.14605,-0.038337,0.008847,-0.00044644,0.029248,0.045903,0.33004,0.0074563
0.13147,0.14317,0.049183,0.023244,0.027736,-0.0071537,-0.17976,0.26298
-0.25971,-0.062942,-0.035234,-0.031669,-0.029534,-0.045516,-0.28137,-0.25014
-0.020518,0.076571,0.0052447,-0.0091225,-0.033165,0.031859,0.35064,0.039283
-0.0028519,-0.071593,0.029668,0.020547,-0.0063226,-0.0329,-0.10478,0.015445
-0.050034,0.0085342,-0.032486,0.0028102,-0.0031527,0.010666,-0.075828,-0.085543
-0.012402,-0.15837,-0.071881,-0.046381,-0.046342,-0.11779,-0.26984,-0.035282
-0.091271,0.070344,-0.002435,-0.0094093,-0.025694,-0.049954,-0.41625,-0.050934
0.035646,0.0097651,0.035497,0.028223,0.098559,0.184,0.47453,0.11848
0.15903,0.21734,0.073474,0.035605,0.022125,0.030065,0.53165,0.098025
0.21719,-0.085631,0.017997,0.020701,0.026205,0.050814,0.046195,0.11327
-0.24331,-0.25658,-0.05268,-0.024378,-0.04598,-0.066886,-0.076183,-0.22837
0.033975,0.19773,0.0020561,-0.0061725,-0.0078549,-0.04302,-0.10425,0.21112
0.093693,0.066376,-0.044482,-0.034502,-0.0011957,-0.011999,-0.4648,-0.20385
-0.21519,-0.073617,0.057524,0.03075,0.0040967,0.047985,0.30526,0.024273
-0.082657,-0.083702,-0.074916,-0.037452,-0.047596,-0.090959,-0.40871,-0.12961
0.15347,0.17393,0.058067,0.033972,0.0072477,0.046969,0.15492,-0.048915
0.070338,-0.20238,0.0032891,0.018276,0.043569,0.032041,0.41591,0.29027
-0.11324,0.042034,-0.004855,-0.014208,-0.0085236,-0.04129,0.069532,-0.024655
0.40853,0.13891,-0.0053315,-0.00076123,0.015854,0.054882,-0.11654,0.00064091
-0.52641,0.1569,0.0020225,-0.026926,-0.06191,-0.068297,0.025644,-0.03752
-0.11859,-0.052728,0.0096124,0.0015607,0.0015222,-0.065156,-0.81115,-0.23021
0.28322,-0.28559,0.0020686,0.014938,0.043122,0.12076,0.47281,0.21412
-0.021571,-0.046777,-0.012532,0.021522,0.032394,0.045482,0.49274,0.13345
0.21893,-0.19965,-0.041771,-0.025196,-0.038117,-0.032492,-0.41071,-0.24428
-0.18965,0.13498,0.0082453,-0.0078677,-0.0044244,-0.097581,-0.14109,0.0032662
0.080719,0.35922,0.035953,0.026552,0.031435,0.099449,0.30956,0.047479
0.0056343,0.053557,0.025532,0.0074309,0.014009,-0.0052533,0.024514,0.089981
-0.072746,-0.094031,-0.023424,-0.018869,-0.065423,-0.093096,-0.25913,-0.051291
-0.26564,0.0009115,-0.0021224,0.0095257,0.018814,0.10753,0.45971,-0.019961
0.24546,-0.047506,0.010627,-0.0017792,0.015995,0.0012108,-0.068386,0.14168
0.091869,-0.024481,-0.02491,-0.045526,-0.050915,-0.069556,-0.060694,0.0087926
-0.11814,-0.0042615,0.046988,0.04978,0.036657,-0.011698,-0.53712,-0.23334
0.052278,-0.0759,0.015107,0.033996,0.028803,0.08102,0.32127,0.13299
0.16538,-0.069249,-0.1205,-0.061516,-0.050737,-0.11892,-0.25721,-0.11842
-0.35684,-0.046954,0.0077295,-0.017656,0.032841,0.061466,0.13031,0.029777
0.111,0.12507,0.04889,0.01766,0.014378,0.006354,0.32587,0.049135
0.15535,0.042774,0.027211,-0.0018364,-0.027566,-0.032864,-0.3906,-0.033533
-0.23114,0.029041,0.0059807,0.025998,0.016733,0.015286,0.087977,-0.12897
0.16281,0.039308,-0.0063479,0.015685,-0.008725,0.096875,0.49169,0.28108
-0.02994,-0.034146,-0.0093774,0.0065561,0.013386,-0.022199,-0.13936,-0.059689
0.11227,0.059487,-0.026429,-0.056023,-0.026264,-0.013993,-0.15819,0.012908
-0.11409,-0.17978,0.028296,0.023117,-0.010518,-0.097772,-0.036863,-0.033571
0.10308,0.17721,0.060719,0.032754,0.044901,0.10079,0.032763,-0.013794
-0.12707,-0.1203,-0.070202,-0.043103,-0.039839,-0.083049,-0.39903,0.030553
0.11748,0.020746,-0.028946,0.0061106,0.016324,0.037678,0.48442,0.13604
-0.23301,0.076571,0.012271,0.00037631,0.010044,-0.029576,-0.19432,-0.25387
0.017697,-0.1403,-0.017104,-0.013687,-0.0042252,-0.034997,-0.30342,-0.17134
0.050359,-0.098316,0.03121,0.026248,0.0045412,0.099469,0.43863,0.11032
-0.0091356,-0.023669,-0.0069603,-0.012723,-0.018531,-0.032452,-0.013775,-0.017394
0.12092,0.20095,0.032331,0.0099945,0.012376,0.069223,0.19285,0.3218
0.19821,0.19236,0.0083195,0.016302,0.0034895,0.052922,0.08424,-0.019293
0.1049,0.074663,0.02242,0.0062764,0.0095767,-0.16725,-0.59499,-0.078871
-0.43338,-0.22379,-0.042654,-0.035574,-0.055119,-0.059915,-0.2096,-0.25501
0.027826,-0.15758,-0.046259,-0.02312,0.028411,0.093955,0.37537,0.30377
-0.0041684,-0.016951,0.050861,0.043879,0.041712,0.029094,0.45845,0.081502
-0.29503,-0.0056392,-0.039977,-0.037434,-0.046179,-0.04318,-0.35021,-0.28934
0.2259,0.087414,-0.013558,0.030077,0.022778,0.025864,-0.25395,-0.15264
0.25435,0.12242,0.029133,0.020063,-0.0012769,0.0097728,0.20685,0.11677
0.17345,0.038301,0.010482,-0.036094,-0.02457,-0.03689,-0.024754,0.199
-0.055899,-0.21008,0.0011346,0.010077,0.02312,0.096476,0.22818,-0.030362
-0.22301,0.11355,0.04024,0.010081,0.00098116,0.0031552,0.19727,0.077671
0.039005,0.10469,0.018255,0.002849,0.0025088,-0.082935,-0.31489,-0.062413
-0.36371,-0.25079,-0.080803,-0.019597,-0.011633,-0.029287,-0.34827,-0.16133
0.09251,0.0012257,0.0082402,0.012897,-0.0026247,0.0078119,0.10552,0.046567
0.36916,0.20482,0.042778,0.0064604,0.037186,0.044253,0.095403,0.037643
-0.14246,-0.14046,-0.055611,-0.015527,-0.040681,-0.013189,0.11659,-0.0088079
-0.0042843,0.065692,0.0098227,-0.013997,-0.01739,-0.085729,-0.33544,-0.015267
-0.0051251,-0.0069042,-0.018704,-0.004529,0.029145,0.085069,0.35923,0.04871
0.21428,0.068829,0.046431,0.04418,0.021084,0.062128,0.28021,0.1353
-0.033955,-0.0068297,-0.021212,-0.024102,-0.041268,-0.068509,-0.37733,-0.15492
-0.27379,-0.033421,0.012771,0.0015064,-0.0092263,0.013214,0.048934,-0.096249
0.017762,0.010449,-0.0079933,0.0036769,0.015767,0.05674,0.12644,0.2092
-0.22206,-0.14191,0.033402,0.0056278,0.01022,-0.071464,-0.062242,-0.074632
0.33473,0.033061,0.0037608,-0.00071549,0.028584,-0.012731,-0.0045211,-0.095824
-0.030725,0.013252,-0.011365,-0.0077928,-0.0076565,0.13087,-0.36655,-0.056673
0.13446,0.1213,0.058075,0.046713,0.03385,-0.14084,0.43688,0.1299
-0.092026,-0.11639,-0.16295,-0.07945,-0.042637,-0.054228,-0.35143,-0.0035929
0.14083,0.037765,0.028926,0.01224,-0.042094,0.063064,0.051437,0.067416
-0.22212,-0.030464,0.0092107,0.0016963,-0.034921,-0.13208,0.15544,-0.085926
0.03776,0.15787,0.036364,0.0064379,0.041513,0.11873,0.0016043,0.028978
-0.016577,0.041788,0.040722,0.019027,0.023445,0.23766,0.067762,0.013664
-0.12625,-0.22973,0.030599,0.03982,0.036257,0.029354,0.40109,-0.015082
0.046249,-0.086851,-0.071878,-0.048086,-0.029056,-0.25658,-0.60839,-0.081351
0.0026438,0.086187,0.030128,0.013305,0.007482,-0.10514,0.077186,0.071913
0.20539,0.021514,-0.015233,-0.018122,-0.0023903,-0.11074,-0.12158,0.0064858
-0.086803,0.10691,-0.028732,-0.02521,-0.0039126,0.22602,0.22409,0.01086
0.16521,0.15954,0.028164,0.030976,0.0029202,0.24067,0.2625,0.022195
-0.070635,-0.12049,-0.01692,0.0017876,-0.02879,-0.051325,-0.35715,-0.037714
-0.22561,-0.063758,0.0074966,0.0041278,-0.0053138,-0.22016,-0.0082933,-0.074954
-0.10647,-0.10919,0.0074262,-0.0092107,-0.004792,-0.10917,-0.30601,-0.0032609
0.10484,-0.02254,0.021874,0.031743,0.043065,0.063649,0.25965,0.05274
0.21864,-0.12294,-0.042787,-0.029561,-0.018048,0.057019,0.11998,0.046461
0.12376,0.27942,0.06373,0.048867,0.053944,0.20787,0.3459,0.087368
-0.17319,-0.10934,-0.080041,-0.07677,-0.053624,-0.16262,-0.18824,-0.10594
-0.12571,0.22957,0.018568,-9.1366e-05,-0.012832,-0.092929,-0.08581,-0.018201
-0.053544,-0.13069,-0.0071486,0.013571,0.012052,0.14373,-0.28695,-0.10305
0.083879,0.038636,0.046345,0.0115,-0.010393,-0.070029,-0.013376,0.10776
-0.023653,-0.11272,-0.00036564,0.02539,0.044725,0.030819,0.61499,0.14508
0.10317,-0.12349,-0.022187,-0.014683,-0.025742,-0.070286,-0.6696,-0.1397
0.0062288,0.10725,0.0042164,0.00091823,-0.018606,-0.022959,0.33479,-0.0042936
-0.13234,-0.023561,-0.0073766,-0.013661,-0.019676,0.038695,-0.16114,-0.1045
0.13456,0.16934,-0.018323,-0.0038423,0.033719,0.14468,-0.039501,0.099446
-0.051585,-0.05112,0.025564,0.022278,0.024573,0.067436,0.22464,0.014696
0.027869,0.01533,0.0065843,-0.0060205,-0.023521,-0.23266,0.20366,0.064045
0.098483,0.053644,0.002407,0.0045527,0.014554,0.049137,-0.11553,-0.04859
-0.21645,-0.14894,-0.0029275,-0.0011207,-0.025192,-0.094228,-0.42549,-0.11176
0.02622,-0.01505,-0.0017677,7.5201e-05,0.021341,0.01051,0.10476,0.0856
0.081989,-0.0051456,-0.01751,-0.023261,-0.017706,0.083911,-0.0064817,-0.0036823
-0.11387,-0.055103,-0.026478,-0.0007666,-0.017331,-0.012741,0.29766,0.04156
0.11642,0.071895,0.049843,0.013108,0.02246,0.0034494,-0.32521,-0.10781
0.21676,-0.05109,0.00098698,0.018744,0.023513,0.18043,0.73459,0.30486
-0.18083,0.086253,-0.06322,-0.045916,-0.029856,-0.16898,-0.82856,-0.26055
-0.27175,0.0013007,0.037252,0.022669,-0.0049369,0.0016069,0.45988,0.03896
0.15548,0.15571,0.029124,0.006056,0.0043716,-0.074603,-0.44995,-0.078129
0.078527,-0.028988,0.013909,-0.0018705,0.013508,0.014795,0.032094,0.013458
-0.17313,-0.053971,-0.0086351,0.030087,0.0066464,0.11168,0.29275,-0.037101
0.24565,-0.084917,-0.02324,-0.0076623,-0.00076785,0.042405,0.23451,0.13058
-0.015522,-0.17031,0.016596,0.0095718,-0.0010359,-0.10851,-0.39581,-0.099679
0.14572,0.21206,0.0012069,-0.020091,-0.0019762,0.048767,0.54818,0.17916
-0.23894,-0.1807,-0.077347,-0.050016,-0.019086,0.076737,-0.24656,-0.0091147
-0.17716,0.041864,0.030987,0.013435,0.0025786,-0.26599,-0.72403,-0.17238
0.018546,0.21589,0.013914,0.01404,-0.014758,0.084571,0.24381,0.017011
0.23092,-0.033253,-0.003284,-0.0012037,-0.023853,-0.057224,0.075381,0.05058
0.014607,0.11507,0.089036,0.038173,0.053721,0.06829,0.37705,0.060431
0.17438,-0.40141,-0.076132,-0.016154,0.030622,0.21255,-0.057745,-0.047738
-0.11767,0.22993,0.016893,-9.6205e-05,-0.015057,-0.045594,-0.030654,0.038302
