-0.06737,0.17496,0.1708,0.033523,-0.031007,-0.076828,-0.049743,-0.10041
-0.005087,-0.18292,-0.32664,0.026505,0.055751,-0.028427,-0.067474,-0.05122
0.0028077,-0.049769,0.0013029,0.0036057,-0.003589,-0.0039093,0.08964,-0.017316
0.12953,0.042947,-0.039629,-0.0041471,0.01792,0.082262,0.2976,0.04879
-0.061332,0.079575,0.036512,-0.059398,-0.012578,0.0033468,0.017513,0.053965
0.0090046,-0.056902,0.12216,0.0019362,0.0060597,-0.037458,-0.38408,-0.055959
-0.026464,0.047898,-0.10135,0.0082165,-0.028409,0.038283,0.35717,0.055273
-0.0039218,-0.035305,0.17966,-0.024502,-0.0073993,-0.10487,-0.36961,0.0048911
0.24795,0.076753,-0.10478,0.0058775,0.02927,0.088365,0.23889,0.034801
-0.16217,-0.045163,0.0057486,-0.0017137,-0.020574,-0.022066,0.025542,-0.08217
-0.21163,-0.16624,-0.013536,0.085833,-0.0089068,-0.02168,-0.29902,-0.21412
-0.2997,0.11233,-0.05521,-0.028386,-0.053134,-0.043148,-0.00014909,0.059656
0.23669,0.0096068,0.25349,-0.11041,0.034171,0.061763,0.14156,0.15971
0.54467,0.31485,-0.35526,0.19054,0.08894,0.11281,0.36903,0.4285
-0.16653,-0.38595,0.06204,-0.07967,0.0018042,-0.047084,-0.27816,-0.13501
-0.023951,0.11807,0.035388,-0.047148,-0.063191,-0.012586,0.06735,-0.32813
-0.27957,-0.20458,-0.17789,-0.0097264,-0.012309,-0.08919,-0.1806,-0.22855
0.14323,0.075327,0.62568,0.00071284,0.02949,-0.019569,-0.10849,-0.038039
0.033047,0.20705,-0.099555,0.015274,-0.023561,0.032175,0.21265,0.26894
-0.031053,-0.2792,-0.58587,-0.0046765,0.01639,0.011793,-0.01477,0.04634
-0.21065,0.044996,0.40401,0.082512,-0.02978,0.052932,0.1384,0.077516
0.2559,0.61587,-0.22801,0.12216,0.073063,-0.0074128,0.12507,0.082501
-0.19698,-0.067506,-0.001749,-0.21969,-0.057006,-0.08222,-0.47634,-0.2823
0.10746,-0.42715,-0.093762,-0.15178,-0.012825,0.024724,0.06156,0.068069
-0.021881,-0.17307,0.18544,-0.078309,-0.043596,0.009287,-0.041174,0.25675
0.21469,-0.15482,0.023557,0.47108,0.093403,0.10596,0.37331,-0.085652
-0.43977,-0.4478,0.0046434,-0.17474,-0.031385,-0.060596,-0.11525,-0.14084
0.25563,0.95844,0.56226,-0.0083187,0.026995,0.040176,0.017814,-0.027277
0.18825,-0.19214,-0.81684,0.054719,-0.0057658,-0.11608,-0.23467,-0.16703
0.22844,0.77253,0.23634,-0.37887,-0.076297,0.0087262,0.03337,0.14393
-0.2383,-0.32091,0.31009,0.53916,0.087229,-0.0081162,0.031799,0.079234
-0.45098,-0.85806,-0.44315,-0.10098,-0.001253,0.028092,0.10252,-0.1324
0.36062,0.61886,0.27993,0.010058,0.078616,0.1561,0.37597,0.27659
-0.67192,-0.42401,-0.41769,-0.20027,-0.11958,-0.13971,-0.41599,-0.2472
0.91314,0.34019,0.20235,-0.17819,-0.049453,-0.015312,0.037021,0.17146
-0.1005,-0.18188,-0.19791,0.10023,0.015742,0.014182,0.046238,0.14108
-0.24856,-0.44144,0.20054,0.28522,0.092466,-0.011543,-0.3025,-0.30105
-0.46526,0.3846,0.52862,-0.59717,-0.23204,-0.091881,-0.031506,-0.032335
0.28293,-0.068122,-0.76408,0.68255,0.25466,0.14861,0.34565,0.1478
0.65279,0.95247,0.7696,-0.25569,-0.039725,-0.016481,0.07369,0.033917
-0.31033,-0.46684,-0.58984,0.45746,0.010931,-0.04046,-0.22778,-0.15696
-0.43013,-0.4983,-0.1268,-0.32487,0.0089031,0.068377,-0.033531,-0.14454
0.78103,0.10683,0.26334,-0.41421,-0.037721,0.075018,0.32137,0.35236
-0.040779,0.35479,0.51271,0.10412,-0.043063,-0.091427,-0.18665,-0.032677
-0.67229,-0.45883,-0.82104,0.19147,0.04734,-0.11094,-0.027292,-0.079346
0.56525,0.34498,0.95414,-0.10502,0.030135,0.071314,0.071505,0.25364
-0.86525,-0.67919,-1.0376,0.44904,-0.071331,-0.075276,0.10839,-0.43723
0.1971,0.58605,0.3541,-0.26379,-0.0069724,0.02062,-0.2613,0.069794
0.11019,-0.054613,-0.21031,-0.18956,0.012499,0.071108,-0.076845,0.0042094
0.0054554,0.054292,0.25929,-0.0092405,-0.028306,-0.0087259,0.037197,0.016876
0.13763,-0.065605,-0.59857,-0.17786,-0.012128,0.00046588,-0.058905,0.031119
0.62555,0.20007,0.48586,0.45825,0.13108,0.067422,0.24513,0.093918
-0.42351,0.19954,0.34968,-0.19004,-0.052523,-0.066337,-0.03458,0.071055
0.10213,-0.30467,-0.03307,0.26432,-0.0016062,0.035481,0.34389,0.069121
-0.34424,-0.43164,-0.074681,-0.26814,0.0010816,-0.058329,-0.59709,-0.31404
0.67496,0.6234,0.52113,0.43627,0.10238,0.11947,0.60172,0.40977
-0.46316,-0.4183,-0.50454,-0.63966,-0.16784,-0.16671,-0.66323,-0.32546
-0.072852,-0.36436,-0.39326,0.28553,0.033272,0.043415,0.21564,-0.10024
-0.28372,0.64342,0.34347,-0.2,-0.036659,0.015496,0.15895,0.014309
-0.20486,0.042143,-0.59019,-0.13126,0.029235,-0.031039,-0.25567,0.050249
0.058194,0.096607,0.3192,0.20797,0.04481,0.03,0.24561,0.1973
0.080914,-0.53935,-0.36454,0.081163,-0.027101,-0.026501,-0.070436,-0.23671
0.37485,-0.019141,0.43169,0.26686,-0.020291,0.027449,0.063605,0.1735
0.18977,0.31322,0.34257,-0.37962,-0.057701,0.028935,-0.06884,-0.061174
0.1448,-0.061428,-0.34404,-0.043838,0.05765,0.0099,-0.043568,-0.024355
0.22009,0.58494,0.16309,0.57896,0.17837,0.072082,0.13384,0.27738
-0.12519,-0.045055,0.73639,-0.37994,-0.046813,-0.073874,-0.17539,-0.21055
-0.77134,-0.90567,-0.87278,0.022183,-0.12613,-0.084843,-0.032489,-0.11403
-0.0061769,0.15113,0.31136,-0.13175,-0.099668,0.014949,0.11766,-0.059663
-0.34305,-0.029285,-0.12596,-0.39933,0.023303,-0.033116,-0.014546,0.052028
0.7621,0.65131,-0.24581,0.47477,0.17862,0.114,0.077225,0.25006
-0.12722,-0.3775,-0.31661,0.10576,-0.033841,-0.059906,-0.11713,-0.20988
0.30668,-0.018987,0.31131,-0.10955,-0.014039,0.10099,0.3762,0.11568
0.096597,-0.15048,-0.39642,0.14774,-0.020989,-0.052006,-0.30489,-0.032342
-0.26003,0.66484,0.97314,-0.33467,-0.10231,-0.06589,-0.068841,0.0016801
-0.52841,-0.84666,-0.61226,0.23874,0.077743,-0.034364,-0.19818,-0.18053
0.13761,0.11882,-0.17097,-0.32853,0.011704,0.089635,0.22887,0.11722
0.30354,0.17568,0.75997,0.51737,0.083254,0.017357,0.15865,0.14644
-0.12998,-0.11138,0.0071001,-0.075226,-0.057918,0.014818,-0.14911,-0.12229
-0.26465,0.25651,-0.37188,0.25396,-0.043156,-0.081616,-0.16086,-0.17147
0.59907,0.275,0.0067477,-0.57882,-0.074109,0.001909,0.17256,0.15672
0.039542,0.085788,0.12002,-0.35921,-0.0089019,0.02355,0.040399,0.00387
-0.1812,-0.27984,-0.13971,0.27651,0.067333,-0.047718,-0.095504,0.049888
0.086676,-0.32895,-0.38534,0.15318,0.12354,0.077219,0.11638,0.067652
0.0072528,0.19155,0.093822,0.094922,0.049894,0.046663,0.13613,0.032567
-0.20028,-0.37585,-0.050869,0.2524,-0.099948,-0.022512,0.11078,-0.06461
-0.13505,0.20584,0.139,-0.17119,-0.069525,-0.13074,-0.633,-0.18614
0.22402,0.11451,0.45895,-0.068643,-0.00085425,0.073088,0.23952,0.04989
-0.41895,0.16308,0.14186,0.18883,0.026807,0.026051,-0.030122,-0.020835
-0.19297,-0.35845,-0.37745,-0.23978,-0.0028334,-0.014303,-0.0045077,0.00046547
0.43862,0.15904,-0.35349,-0.13308,-0.050834,0.022266,0.23076,0.10674
0.11416,-0.23269,0.23064,0.082756,0.0081762,-0.0047153,-0.034763,0.025459
0.38471,0.57697,-0.024121,0.20177,0.026464,-0.055812,-0.066267,-0.03954
-0.068143,0.21049,0.55202,-0.32387,0.0048583,0.017963,-0.004158,0.01365
-0.11229,-0.24411,-0.60645,0.1942,0.10818,0.029759,0.11251,0.036467
-0.39909,0.15873,0.12217,-0.15576,-0.030184,-0.011972,-0.075762,-0.041931
0.051567,-0.83884,0.031675,0.37175,-0.019287,-0.0051564,-0.13158,-0.050433
0.1569,0.35818,-0.075721,-0.21966,-0.030855,-0.012019,-0.093991,0.010193
-0.20442,-0.12167,0.024864,-0.059432,-0.080475,0.0064612,0.19343,0.037846
-0.058833,-0.31903,-0.2066,0.089472,0.0037348,0.0030309,-0.0033658,-0.030107
0.21703,0.29813,0.2763,0.0099976,0.026465,0.039514,0.089432,0.0098349
0.35726,0.49782,-0.19855,-0.19566,0.042386,0.029108,0.019059,0.14293
-0.35598,0.15037,0.40772,0.25343,0.051409,-0.044703,-0.20639,-0.20767
-0.10057,-0.19407,0.094953,0.082785,-0.0091619,-0.0029633,0.092979,-0.048317
0.094712,0.13166,0.081964,-0.091825,-0.022439,-0.033583,0.018804,0.091122
0.052986,-0.48666,-0.46663,-0.092127,-0.020034,-0.027171,-0.18676,-0.061837
-0.13688,-0.21019,-0.67459,-0.15362,-0.041362,0.024529,0.21044,0.15713
0.1451,0.0029609,0.3897,-0.058239,-0.00075366,-0.010512,-0.063462,0.020856
0.12008,0.28021,0.41595,0.11563,0.031339,0.048343,0.076803,-0.050243
-0.42097,-0.18169,0.10148,0.31327,0.054924,0.022325,-0.064927,-0.066094
0.18726,0.15617,-0.060311,-0.066894,-0.023613,-0.017564,0.088563,0.080287
0.1563,0.40888,0.12598,-0.22037,-0.055604,-0.0084993,0.1693,0.0038799
0.087694,0.11155,-0.19999,0.13367,0.02954,-0.07559,-0.47946,-0.031251
0.0043769,-0.13163,-0.1649,-0.13824,-0.025718,0.030635,-0.029653,-0.080366
-0.18826,-0.35719,0.16689,0.11945,0.021037,0.074948,0.26911,0.0055515
-0.11634,0.047835,-0.23733,-0.070464,0.044948,0.032885,0.05038,0.0093943
-0.26558,-0.42653,0.3015,0.0025789,-0.032064,-0.0027929,0.13544,0.011689
0.14351,0.024763,-0.1694,0.049474,0.0087094,-0.071882,-0.17781,-0.07864
0.47579,0.54503,0.11684,0.12529,0.026548,-0.04187,-0.099333,0.061118
-0.037418,-0.17395,-0.31454,-0.14417,-0.072411,-0.029716,-0.026696,0.073212
0.11586,0.1382,0.30402,-0.1406,-0.0070189,0.043429,0.1736,0.1691
-0.52139,-0.34244,-0.065019,0.082613,0.011703,-0.0010615,-0.076083,-0.1831
0.21923,0.71508,0.11809,-0.043625,0.030542,0.064529,0.10724,0.014941
0.038473,-0.62572,-0.12367,0.21592,0.041553,-0.016635,-0.16719,0.003186
0.2092,0.31409,-0.010649,-0.068157,-0.049214,-0.040857,-0.017111,-0.041024
-0.46237,-0.014472,0.189,-0.036948,-0.015482,-0.0002915,-0.013759,-0.049337
0.066514,-0.41112,-0.28557,-0.050994,0.017403,0.065487,0.14627,0.031716
0.074624,0.089971,0.2189,0.020799,0.017839,0.030542,0.15675,0.029954
-0.11933,0.064494,0.012571,0.10615,0.016785,-0.02033,-0.24947,-0.085294
0.26409,0.35464,-0.10888,-0.085841,-0.032777,-0.04132,0.21534,0.038797
-0.22352,-0.12603,0.0032452,0.052869,0.0020407,-0.033161,-0.22305,0.1148
0.30322,-0.080071,-0.079029,-0.032898,-0.011244,-0.035135,-0.041275,-0.0040706
-0.24944,-0.27163,-0.10279,0.071457,-0.0017384,-0.031282,-0.097996,-0.12891
0.34253,-0.073588,0.037059,-0.16376,7.2028e-05,0.065136,0.18628,0.030232
-0.019025,0.56327,0.015848,-0.26747,-0.012789,0.02861,0.086729,0.090876
-0.019088,-0.24958,0.41437,0.36459,0.02294,0.039884,-0.058908,-0.017535
-0.45174,0.11431,-0.30504,-0.22604,-0.056257,-0.033025,-0.085061,-0.084746
0.14025,-0.4149,0.15443,0.50148,0.11702,0.060341,0.25148,0.067995
0.036468,0.30284,0.088325,-0.053703,-0.0042682,-0.047165,-0.11916,0.0022128
-0.16104,-0.0074639,-0.11481,-0.21234,-0.037832,-0.082428,-0.24393,-0.040712
0.23754,0.34732,-0.3088,-0.21797,-0.0078901,0.055538,0.19696,0.032472
-0.18626,-0.40081,-0.050211,0.16968,-0.055971,-0.016772,-0.10192,-0.067424
0.1805,-0.03512,0.2301,-0.0045253,0.0045514,0.043697,0.24915,0.042627
0.19227,0.10731,0.0082839,0.13274,0.047961,-0.029291,-0.21952,-0.082252
0.085055,-0.043796,0.034524,-0.11495,0.019102,-0.017462,-0.016622,0.066236
-0.28943,-0.026235,-0.050096,-0.10738,-0.0040704,0.00073438,0.013285,0.058767
-0.12769,-0.23618,0.051746,0.15569,0.017643,0.032938,0.064832,0.020463
0.25558,0.39161,0.19968,-0.3017,-0.087214,0.016614,0.028112,0.013665
-0.2439,-0.10904,-0.12191,0.35716,0.056997,0.0065421,0.14498,-0.0010613
-0.12117,-0.056658,-0.31158,-0.039077,-0.04897,-0.075191,-0.24871,-0.11011
0.10553,-0.013265,-0.072565,-0.060583,0.0175,0.037366,0.058213,-0.071666
0.18402,0.21542,0.61083,-0.043671,-0.00081044,0.00089301,-0.16806,0.043751
0.30809,-0.0058533,-0.23761,0.1437,0.052676,0.019021,0.18271,0.095554
-0.10102,-0.016443,-0.1172,-0.015016,0.021717,-0.0014577,0.072455,0.068369
-0.26158,-0.25763,0.066732,0.010713,-0.023678,-0.028776,-0.099327,-0.068654
-0.28904,0.14218,-0.34887,-0.209,-0.021535,-0.015632,0.090155,-0.088478
0.1087,-0.13977,0.19935,0.021683,-0.011531,-0.0086366,-0.10841,-0.0062528
0.076281,0.11429,0.14929,0.016567,-0.0020329,0.031321,-0.038394,0.092497
0.18071,0.0065201,0.03192,0.019707,-0.016854,0.033728,0.19093,0.036197
0.027835,0.11713,-0.036603,0.025378,0.022002,0.045039,-0.069086,0.04375
-0.035134,-0.20685,0.30928,0.090134,-0.02597,-0.068135,-0.12356,-0.22079
-0.037353,0.015096,-0.33072,-0.01135,0.034858,0.0060909,-0.027837,0.031478
-0.095527,0.083977,0.10432,0.010322,0.017403,0.0015611,0.18605,0.10491
0.00014787,-0.043338,-0.59741,-0.27521,-0.038853,-0.082075,-0.13908,-0.016589
0.14558,0.20637,0.38453,0.32582,0.038296,0.036309,0.081739,0.033604
0.040361,-0.079206,0.20744,0.029958,-0.024404,0.020856,0.074095,0.012693
-0.11638,-0.1418,-0.072202,-0.079256,-0.016012,-0.011025,-0.19409,-0.087661
-0.023922,-0.044778,-0.022684,-0.097776,0.0086245,0.065943,0.22976,0.10723
0.033101,0.084849,0.021887,-0.027213,0.033593,0.033276,-0.045127,0.00362
-0.1353,-0.052779,0.023671,-0.055837,-0.0039586,-0.06192,-0.22935,-0.18715
0.14916,-0.023787,-0.24355,0.11336,-0.010621,-0.0085005,0.05289,0.035686
-0.10604,0.17575,0.16486,-0.0031033,-0.025712,-0.048443,0.0058563,0.0090333
0.18562,0.08121,-0.049566,-0.11475,-0.0024761,0.02161,0.083927,0.1167
-0.1856,0.15841,0.16551,0.30343,0.027882,0.022202,0.10853,6.1389e-05
0.023994,-0.46934,-0.012865,-0.24708,-0.043823,-0.038675,-0.10705,-0.082725
0.25345,0.23689,0.28003,0.20366,0.063952,0.034331,0.023422,0.094709
-0.24585,-0.39323,-0.43405,-0.11703,-0.054724,0.0066784,0.085772,-0.05427
0.14435,0.11185,-0.085286,0.010025,0.061361,0.042018,-0.15484,0.055206
-0.044023,-0.049106,-0.03212,-0.21199,-0.064188,-0.047777,-0.066242,-0.054656
-0.33414,0.24431,0.032328,0.12299,0.0061452,0.017791,0.085299,-0.088141
0.22696,-0.052632,0.0094956,0.014539,0.04566,0.050488,0.10392,0.11011
-0.033216,0.36536,0.1447,0.079209,-0.031849,-0.083049,-0.0811,-0.077555
0.33745,0.052029,0.19834,0.12872,0.054532,-0.00023761,-0.048126,0.028507
-0.060699,-0.072769,-0.031143,-0.079937,-0.015833,-0.013409,0.054274,0.08494
-0.25228,-0.3003,0.042546,-0.063122,-0.047851,-0.036061,-0.070831,-0.087242
0.011972,-0.26487,-0.35473,-0.15723,-0.025947,0.065492,0.037481,0.0050462
0.013352,-0.044772,0.10375,0.059512,0.042212,0.065716,0.16048,0.065881
0.034227,-0.037129,-0.021158,0.0014378,-0.030557,-0.026564,0.071685,-0.091351
-0.0090864,0.18234,-0.10602,0.1222,0.053038,-0.054271,-0.34589,-0.0049837
0.33977,0.46013,0.19951,-0.08539,-0.042525,-0.024694,0.056541,0.11455
-0.47787,-0.021806,0.050905,0.14484,0.034638,0.0076198,-0.0017558,-0.052787
-0.11444,-0.12171,-0.099116,-0.077384,-0.0043817,0.042412,0.034487,0.00085977
-0.12937,-0.12891,-0.00061884,-0.0097065,-0.011184,0.032189,0.15797,0.0019349
0.45555,-0.037171,0.22938,0.011939,0.037462,0.0073219,-0.0059893,0.043961
0.19462,-0.18498,-0.26035,-0.10625,-0.038443,-0.040985,-0.16053,-0.16241
-0.055331,0.11991,-0.14911,0.081017,0.018582,0.0035435,-0.009122,-0.015956
0.037226,0.030615,0.094725,-0.098106,-0.041729,-0.031639,0.10387,0.11575
-0.17385,0.091185,0.057275,0.10645,0.022671,0.025025,0.0761,0.11504
-0.02223,0.20571,0.19162,-0.00058848,-0.014779,-0.045137,-0.14007,-0.08115
-0.34056,-0.24423,-0.088495,0.0104,0.025729,0.0082852,0.0094436,0.026568
0.21225,-0.094644,0.091463,-0.017052,-0.019693,0.0062246,-0.02252,-0.077994
0.042069,0.20255,-0.11268,0.002623,-0.0024584,0.035279,0.068813,-0.035858
0.22099,-0.10804,-0.14635,-0.071668,-0.00064515,0.041298,0.049523,0.074708
-0.25534,-0.17146,0.053279,0.15023,0.040328,-0.030102,-0.14216,-0.011771
-0.14821,-0.03855,-0.051974,-0.074227,-0.012616,-0.022647,-0.052269,-0.091755
0.085764,0.13039,0.12507,-0.018623,0.0042052,0.00094906,0.069965,0.054083
0.37979,0.15088,-0.13298,0.020296,0.020076,0.032515,0.092239,0.082608
-0.23278,0.032504,0.096842,-0.16019,-0.059072,-0.022081,0.10844,-0.044719
0.4517,0.35375,0.27605,0.17489,0.040071,0.00093374,-0.076982,0.11777
-0.49748,-0.71451,-0.28304,-0.044131,-0.05736,-0.070432,-0.14424,-0.18761
-0.19177,0.29446,-0.00319,0.081741,0.039666,0.03734,0.046652,2.3432e-05
0.124,-0.051582,0.0047052,-0.18939,-0.04323,0.011995,-0.043898,0.071103
0.017429,0.025954,-0.026815,0.1893,0.04624,0.041372,0.15412,-0.03716
0.079938,-0.2176,0.041011,-0.056002,-0.011542,-0.014816,-0.023341,0.026488
0.15353,0.14528,0.15192,0.066258,0.041766,-0.015677,-0.16193,0.089903
0.15911,0.10484,-0.077949,-0.022775,0.0033009,0.023307,0.051303,-0.0033389
-0.45038,-0.29382,-0.14111,-0.065939,-0.048862,-0.030668,-0.047289,-0.11264
0.11475,0.37734,-0.04499,-0.087093,-0.0057005,0.0019811,0.073722,-0.066013
-0.17547,0.070022,0.14113,-0.000424,-0.00062243,0.011694,0.13286,0.0039727
0.27436,0.017726,-0.057941,0.10046,0.028123,0.006057,0.0044204,0.066317
-0.28407,-0.1778,-0.13295,-0.01068,0.0094333,-0.02298,-0.2033,0.050857
0.27557,0.07893,0.24536,0.041479,-0.0027241,-0.0053271,0.13342,0.012237
0.11028,-0.13817,-0.023926,-0.039675,-0.040136,-0.019313,-0.088101,0.012694
0.024832,-0.29242,0.020211,0.13662,0.037555,0.052076,0.1002,0.04402
-0.074946,0.20096,0.12747,-0.085843,-0.0039735,0.013386,-0.012567,-0.058221
-0.15057,-0.080809,-0.022853,-0.066372,-0.00028098,0.028594,0.027626,-0.059822
-0.10869,-0.17881,-0.31369,-0.031386,-0.021029,-0.042928,-0.08999,-0.015302
0.035143,0.35569,-0.010299,0.042813,-0.034146,-0.083887,-0.2381,-0.088196
0.10963,0.50716,-0.08049,-0.25751,0.00027794,0.054379,0.14045,0.058199
-0.063975,0.014243,0.13323,0.32571,0.043896,-0.026239,-0.045971,0.018411
0.054353,-0.31724,0.038269,-0.027744,0.026845,0.065256,0.36794,0.11327
0.027741,-0.42571,0.25245,0.13504,0.035162,0.024535,-0.024032,0.006899
-0.065711,-0.15642,-0.0056997,0.024595,-0.017339,-0.038749,-0.13713,-0.012128
0.062253,0.36502,-0.22949,-0.32051,-0.053065,-0.030686,0.11242,0.0083825
0.21482,0.21039,0.14176,0.091595,-0.018006,0.0018706,-0.25456,-0.065527
-0.20367,-0.11603,-0.050277,0.0030868,-0.0066014,0.035372,0.20476,-0.0083498
0.078355,-0.146,-0.10431,0.03939,0.019641,-0.024157,-0.34739,-0.039523
-0.07329,0.013465,-0.029317,-0.064358,0.029099,0.026093,0.1115,0.059565
-0.28415,-0.062686,-0.059952,-0.065066,-0.0096138,-0.048626,0.026803,-0.10128
0.071159,0.084779,0.12472,0.16304,0.0286,0.024732,0.11029,0.010075
0.22819,0.23592,0.065041,0.089067,-0.0043957,0.050484,0.24605,0.082202
-0.1396,-0.30617,-0.12021,-0.14655,-0.069096,-0.065427,-0.22076,-0.0010846
0.12559,0.033857,0.1564,0.056916,0.014696,0.043987,0.08614,0.057777
0.24361,0.3609,-0.049338,-0.09872,-0.025986,-0.051025,-0.35566,-0.0065896
-0.29292,-0.36266,0.013083,0.11152,0.051381,0.024626,0.19671,0.0087649
0.070489,0.026883,-0.008013,0.037683,0.035974,0.005553,-0.037725,-0.021618
-0.10441,0.18394,-0.10545,-0.14951,-0.0098456,-0.0063221,0.073732,-0.07484
-0.029512,-0.23022,-0.006781,0.010377,-0.0083196,0.020685,0.15558,-0.010696
0.012997,0.19529,0.11501,0.11139,0.0088053,-0.030159,-0.15238,-0.055932
0.069312,-0.17536,-0.030204,-0.071948,-0.021463,0.021245,0.2036,0.11764
-0.0014848,0.038298,0.080218,0.0012039,-0.021346,-0.027915,-0.35549,-0.044449
0.097652,-0.0088198,-0.1323,-0.057638,0.016874,0.010029,0.068139,0.043946
-0.031071,0.097191,-0.074033,0.042742,-0.015979,0.017888,0.044523,0.015688
-0.0037534,0.19332,0.099167,-0.078712,-0.033519,0.0032941,-0.051256,-0.074753
-0.10021,-0.093346,0.052119,0.11026,0.011722,-0.01845,0.078018,0.069006
-0.19385,-0.47094,-0.081355,0.10969,0.042203,0.02256,0.05781,0.024411
0.1543,0.25883,0.19989,-0.011066,0.058346,0.039968,0.24014,0.048573
0.078108,-0.0031269,-0.079533,-0.019407,-0.049078,-0.09156,-0.46051,-0.14027
-0.00024673,-0.25553,-0.16072,-0.097265,-0.022432,0.010602,0.10463,0.0046099
0.22334,0.33698,-0.058409,-0.082858,0.0050077,0.026143,0.10002,0.0069885
-0.088532,0.33422,0.14205,0.021899,-0.0064845,-0.029124,-0.0051939,-0.030773
-0.12545,-0.2372,-0.11392,-0.0030006,0.028299,0.048253,0.039509,0.064331
-0.16319,0.030876,0.21224,0.17012,0.014955,-0.0069605,-0.13252,-0.042406
0.030419,0.0074913,0.056933,0.010342,-0.023534,-0.0068881,0.01826,0.040706
0.031829,-0.25737,-0.18305,-0.21568,-0.071715,-0.021563,0.046845,0.048702
0.23856,0.11695,0.037214,0.12636,0.05024,0.019451,-0.031188,-0.0026917
0.025541,0.18635,-0.042051,0.01475,0.014618,-0.0089128,0.010199,-0.051475
-0.16891,-0.24754,0.030659,-0.048834,0.0017037,-0.01317,-0.040992,-0.075227
-0.10105,-0.30978,0.10591,-0.18021,-0.042529,-0.0015664,0.071513,0.049697
0.0046638,0.13397,-0.16807,0.29335,0.054399,0.040979,0.07247,0.095291
0.064598,-0.063403,0.021835,0.036097,0.027312,0.082657,0.37421,0.099363
-0.075399,0.2768,-0.010587,-0.13994,-0.053236,-0.12699,-0.60264,-0.19671
0.14863,0.25112,-0.021446,0.03766,0.023726,-0.0022867,-0.077207,-0.043087
-0.020643,-0.095922,0.10821,-0.018359,-0.015378,0.019299,0.18559,0.013879
0.15047,-0.092156,-0.018593,-0.067171,-0.014544,-0.022854,-0.07813,-0.0012247
-0.41792,0.086706,0.020926,0.030717,0.010322,0.012435,0.14973,0.04594
0.33415,-0.018405,-0.085529,0.063663,-0.003535,-0.022598,-0.018729,0.0006947
0.075766,0.33707,0.18502,-0.031004,0.014011,0.028944,-0.042068,0.020555
-0.10176,-0.15375,-0.090222,0.020507,0.0238,0.05816,0.081287,0.020275
0.026648,-0.25322,-0.013934,-0.062269,-0.028869,-0.0050442,-0.031036,0.0076456
-0.1797,-0.62319,-0.11834,-0.067362,-0.026756,-0.027918,-0.0048025,0.021033
-0.055232,0.073384,0.017824,0.021922,-0.016653,-0.018567,0.017557,-0.011054
-0.003275,0.014627,0.050729,0.18303,0.048378,-0.0086669,0.010122,-0.027474
0.0659,0.31092,0.10578,0.025859,0.027712,-0.0064711,-0.084468,-0.037263
0.093688,0.40794,-0.22251,-0.13697,-0.008427,0.018911,0.043937,-0.017795
0.028556,-0.041299,0.15272,0.08488,0.0022747,0.051639,0.26875,0.0072308
-0.096552,0.063613,-0.056756,-0.15293,-0.05763,-0.10366,-0.46528,-0.047838
0.15568,0.14468,0.19652,-0.054306,-0.016563,0.0062148,-0.0013776,0.044248
0.025341,-0.12427,-0.19659,0.13773,0.05487,0.045448,0.11499,0.073403
-0.061522,-0.20651,0.068484,0.023897,0.007978,0.014161,-0.020518,-0.037729
-0.085976,-0.24704,-0.094539,-0.13099,-0.0246,-0.0016692,0.1487,0.031657
0.072461,0.031421,0.14984,0.25053,0.043012,0.021336,0.18666,0.023865
0.050726,0.041218,-0.0972,-0.035114,-0.015664,-0.0029052,-0.11674,-0.0066516
-0.30964,-0.12215,0.062586,-0.12862,-0.020677,-0.043312,-0.097314,-0.083796
0.084751,0.21091,-0.073913,0.025109,-0.0028328,-0.0062534,-0.13831,0.010647
0.11032,-0.01329,-0.15495,-0.096379,-0.016218,-0.0011089,0.025173,-0.0050208
0.082468,0.021133,0.17126,0.016193,-0.013268,0.011335,0.11112,0.0095807
-0.041955,0.12342,0.021983,0.044274,0.037936,0.023567,-0.052956,0.023198
-0.12628,-0.084663,0.037621,-0.026022,-0.018327,-0.018686,0.032625,-0.018641
0.0046751,-0.013401,-0.094918,-0.083951,-0.0020913,0.0022249,0.078756,-0.014001
