0.0097387,-0.24476,-0.041368,0.058065,0.014124,0.0095858,0.0058808,0.0024491
0.0095412,0.19962,0.00086576,-0.035199,-0.015445,0.0098089,-6.1351e-05,-0.010976
0.11752,0.56255,0.2441,0.094978,0.055576,0.025608,0.024597,0.037015
-0.048894,-0.36112,-0.24972,-0.043439,-0.015173,-0.005611,-0.0062431,-0.017867
-0.26277,-0.36238,-0.027922,-0.18419,-0.09486,-0.060514,-0.053592,-0.081928
0.17161,0.27627,0.3233,0.22062,0.090168,0.040511,0.046644,0.063708
-0.06567,-0.37494,-0.50848,-0.22619,-0.10033,-0.046311,-0.033523,-0.057252
0.19754,0.35719,0.28975,0.20322,0.091919,0.054068,0.049884,0.11025
0.17231,0.38948,0.26586,-0.036979,0.011145,0.021452,0.0080966,0.03538
-0.22729,-0.57893,-0.25838,0.085127,0.017106,-0.01898,-0.033555,-0.054874
-0.14198,-0.05161,-0.054599,0.0072169,0.00067418,0.0033108,-0.0044283,-0.027292
-0.20473,-0.30589,-0.26928,-0.2085,-0.092757,-0.067686,-0.044864,-0.092438
0.10766,0.035915,-0.041281,-0.0080172,-0.013267,-0.0051913,0.0093959,0.0078048
0.26361,0.81055,0.39622,0.04526,0.02017,0.034687,0.041226,0.054873
0.21573,0.32919,0.39518,0.26284,0.12441,0.083223,0.081787,0.13472
-0.14593,-0.40345,-0.27932,-0.23118,-0.075925,-0.047206,-0.056652,-0.057535
-0.11097,0.030571,-0.027003,0.13289,0.059396,0.025959,-0.0072192,-0.022241
-0.015473,-0.54417,-0.1855,-0.035832,-0.048047,-0.033558,-0.020242,-0.0020448
-0.13246,0.065671,-0.35807,-0.2293,-0.085908,-0.062052,-0.056927,-0.098965
0.14073,-0.092747,0.46168,0.26407,0.086461,0.065165,0.062247,0.10069
-0.18651,0.14709,-0.086711,-0.25015,-0.1089,-0.058383,-0.037794,-0.075206
-0.33901,-0.54698,-0.51974,-0.067997,0.0001096,-0.018774,-0.052391,-0.13461
0.54398,0.36012,0.90388,0.27973,0.14804,0.12143,0.15123,0.27394
0.39274,0.88647,-0.23099,0.089722,0.022439,0.0028503,0.010477,0.064388
-0.13689,0.3681,0.43376,0.064174,0.021611,-0.0072773,-0.021668,-0.099322
-0.10086,-0.76007,-0.36086,-0.14223,-0.049999,-0.033828,-0.031277,-0.053253
-0.36812,-0.94822,-0.74065,-0.23453,-0.18484,-0.11565,-0.096525,-0.11776
0.12983,0.72721,0.34109,0.090183,0.077857,0.052274,0.024878,0.05882
-0.28026,0.11941,-0.11507,0.080608,0.058416,0.048438,0.044154,0.062679
-0.044589,-0.14392,0.15751,0.025366,-0.00077757,0.013853,0.016421,0.027011
0.21921,0.066912,0.32411,0.073472,0.05688,0.0035151,-0.018756,-0.047749
0.58906,-0.014327,0.034267,-0.17971,-0.065053,0.0019725,0.032848,0.041935
0.15856,0.2629,0.42964,-0.028537,0.0010519,0.0014272,0.0075316,0.038579
-0.4552,-0.16709,-0.23856,0.29571,0.021191,-0.013877,-0.0085829,-0.0029135
-0.53329,-0.25868,-0.67163,-0.28959,-0.090326,-0.075427,-0.10145,-0.22308
-0.067303,-0.30117,-0.17158,-0.10175,0.049399,0.035237,0.033388,0.057714
0.25639,0.1894,-0.37557,0.35369,0.073088,0.036566,0.059607,0.097098
0.61898,0.45336,0.79811,-0.49248,-0.042935,0.037678,0.039198,0.12913
-0.267,0.033162,0.56326,0.63289,0.06819,0.014962,0.026315,0.036245
-0.13456,0.21805,-0.46955,0.032813,-0.015725,-0.05507,-0.088873,-0.17411
-0.35002,-0.97166,-0.051386,-0.60017,-0.15425,-0.055134,-0.041007,-0.0881
0.29776,0.94261,0.4551,0.44142,0.08228,0.01502,0.021463,0.067762
0.19114,-0.32781,-0.62694,-0.18187,0.045628,0.054181,0.020667,0.0047215
0.032234,-0.079637,0.23592,-0.24654,-0.13107,-0.054461,-0.011683,0.05925
-0.086523,-0.061527,-0.33657,0.44053,0.099384,0.033138,0.0030924,-0.057104
-0.32277,-0.051054,-0.02019,-0.27804,-0.036238,-0.0032109,0.0029936,-0.031337
0.21298,0.4351,0.62847,0.097752,0.11825,0.078572,0.074283,0.13678
-0.22222,-0.55402,-0.34343,0.068786,-0.054703,-0.073412,-0.072036,-0.12321
0.30109,0.041267,0.027371,-0.25402,-0.024488,-0.0065466,0.0013285,0.070957
0.15809,0.21213,-0.12249,0.3968,0.09093,0.044218,0.059565,0.093401
-0.2366,-0.057601,-0.31973,-0.35195,-0.13889,-0.070085,-0.061956,-0.12721
0.039615,0.20707,0.75252,0.12621,0.012076,0.032974,0.011185,-0.013732
-0.29373,-0.74005,-0.51969,0.14477,-0.003278,-0.029592,-0.026182,-0.027834
0.44372,0.77331,0.2244,-0.014665,0.080802,0.070385,0.060012,0.080116
-0.40389,-0.45153,-0.40669,-0.33672,-0.16495,-0.12,-0.11314,-0.15078
0.1947,0.76619,0.85738,0.17784,0.15065,0.11836,0.11071,0.15488
0.028085,0.026979,-0.33196,0.11381,-0.034312,-0.050124,-0.057256,-0.080389
0.14236,-0.28773,0.05095,-0.0066693,0.022789,0.015541,0.016131,0.05822
0.1929,-0.18532,-0.38974,-0.18488,0.0018784,0.042204,0.073434,0.13398
-0.59433,-0.81796,-0.32958,0.1329,0.0045753,-0.063648,-0.080265,-0.19613
0.35888,0.69829,0.93328,0.13376,0.069911,0.065386,0.071058,0.12331
0.20985,0.25236,-0.16984,0.154,-0.0052204,-0.0079677,-0.011238,-0.01635
-0.63313,-0.34875,-0.57988,-0.64888,-0.25188,-0.12719,-0.1314,-0.1925
-0.018931,-0.053609,0.084672,0.41475,0.1038,0.051752,0.046929,0.064311
0.031741,-0.30317,-0.012417,-0.18365,0.038956,0.021304,0.031923,0.020214
0.22395,0.32629,0.13604,-0.081845,-0.070785,-0.038724,-0.051246,-0.027767
0.42532,0.3634,0.082448,0.11323,0.10313,0.090329,0.086385,0.13874
0.095269,0.58916,0.65773,0.2077,0.11547,0.072174,0.085021,0.12034
-0.44923,-0.35353,-0.80257,0.029739,-0.10447,-0.11722,-0.11856,-0.18603
0.1388,-0.28673,0.28411,-0.10175,0.012825,0.029212,0.045031,0.069453
-0.27052,-0.33912,0.15431,0.22466,-0.010274,-0.051783,-0.057975,-0.075879
0.092127,0.056299,-0.47996,-0.40061,-0.088945,-0.017082,-0.029957,-0.068668
0.1851,0.14857,0.21063,0.04256,0.064938,0.06262,0.066053,0.090397
-0.539,-0.59091,-0.13085,-0.026689,-0.041393,-0.0237,-0.035731,-0.082989
0.35096,0.69601,0.12503,0.085319,0.021602,0.021043,0.032097,0.068207
0.1393,-0.1135,-0.015108,0.14384,0.043258,0.0019809,-0.0033625,0.029657
-0.052851,-0.014939,-0.15971,-0.17841,-0.06176,-0.056859,-0.047615,-0.072103
-0.088609,0.13773,0.4047,0.026593,0.051088,0.032655,0.025154,0.037828
0.3324,0.17769,-0.23249,0.13612,0.06231,0.060152,0.075067,0.11058
-0.39677,-0.48516,-0.13795,-0.32412,-0.14457,-0.07551,-0.092629,-0.1423
0.021869,0.033646,0.043055,0.18674,0.04031,0.016513,0.014553,0.013608
0.05688,0.0070555,0.031525,-0.02564,-3.8292e-05,0.00028408,0.021628,0.038748
0.19917,0.63586,0.70354,0.35119,0.10146,0.055304,0.045541,0.080692
-0.19386,-0.52876,-0.8862,-0.22286,-0.07743,-0.060931,-0.070373,-0.14284
0.26617,-0.11554,0.2303,-0.038535,0.0017907,0.018401,0.040585,0.093763
-0.21174,0.49764,-0.11207,-0.16023,0.026039,0.027357,0.0029785,-0.014847
-0.26174,-0.40896,0.33584,0.17608,-0.020793,-0.065516,-0.058479,-0.10952
0.10012,0.025639,-0.16061,-0.0539,-0.021764,0.013182,0.012385,0.05218
0.27274,0.49338,0.21942,0.16558,0.085692,0.06045,0.051648,0.080292
-0.094322,-0.7566,-0.4604,-0.35966,-0.15898,-0.087531,-0.073199,-0.12585
-0.17151,-0.28614,-0.4485,-0.06524,0.026112,0.030463,0.028846,0.036234
0.1441,0.16324,0.50644,0.34799,0.055753,0.00060933,0.0065563,0.028183
0.10341,0.42646,0.35028,0.069622,0.079045,0.057388,0.047627,0.084691
-0.19179,0.27266,0.051046,-0.14884,-0.098903,-0.041463,-0.035453,-0.044384
0.2111,0.41987,0.12229,-0.072493,0.045412,0.031922,0.022712,0.031017
-0.1266,-0.66036,-0.19684,0.18879,0.019485,-0.027536,-0.020471,-0.049326
0.027892,0.10942,-0.28465,-0.18675,-0.067962,-0.024969,-0.032688,-0.059772
0.040029,0.015679,0.090503,0.28319,0.11815,0.062664,0.063695,0.077006
-0.20895,-0.22544,-0.30721,-0.16929,-0.11059,-0.069584,-0.067647,-0.10826
-0.063997,-0.28677,0.1004,-0.19472,-0.012775,0.0079009,0.026188,0.056104
0.23204,-0.0023579,0.38511,-0.021237,0.01261,0.013988,0.0014274,0.023359
0.13997,0.39088,-0.38052,0.2253,0.035652,0.003638,0.0066673,0.01259
-0.1913,-0.059479,0.19647,-0.088114,-0.03731,-0.014979,-0.020293,-0.022648
0.247,0.38433,0.1178,0.054548,0.036269,0.020988,0.014673,0.058688
-0.23116,-0.092766,0.142,0.060293,-0.0087015,0.0024392,0.010388,-0.032135
-0.27238,-0.4611,-0.3485,-0.1793,-0.015351,-0.00016155,-0.017184,-0.052705
0.26599,0.16858,0.57481,0.31337,0.095065,0.036646,0.041597,0.067429
-0.020379,-0.33845,-0.65191,-0.36693,-0.13783,-0.043459,-0.024031,-0.031007
0.018418,0.42886,0.14226,0.28082,0.083286,0.017227,0.012603,0.019282
-0.046636,0.012725,-0.19898,-0.23457,-0.06156,-0.05481,-0.051565,-0.070617
0.16697,0.062924,0.15353,0.048786,0.021575,0.013861,0.0022504,0.019806
-0.092031,0.22742,0.12366,0.045799,0.020251,0.020202,0.017818,0.032962
0.041603,-0.2145,0.049835,-0.047541,-0.010911,0.011249,0.018565,0.031557
0.24537,-0.38299,-0.057667,0.277,0.060728,0.026264,0.020063,0.00011993
-0.30292,-0.42992,-0.46265,-0.26172,-0.054142,-0.036133,-0.024677,-0.053477
-0.065291,0.96932,0.87472,0.00018325,-0.012044,-0.0039364,0.0013583,0.0426
-0.1277,-0.36041,-0.31168,0.054417,-0.00074487,0.0056997,-0.011437,-0.024301
-0.12198,0.093645,-0.23453,-0.091886,-0.059545,-0.046368,-0.039888,-0.098182
0.35195,0.35266,0.11129,0.10731,0.06916,0.058406,0.056355,0.11748
-0.016708,-0.092577,0.14447,0.0026262,0.049235,0.038453,0.034851,0.036334
0.015402,-0.70331,-0.52886,-0.04752,-0.049204,-0.05193,-0.042105,-0.045226
0.057903,0.23237,0.44004,0.057512,0.015835,-0.010028,-0.018381,-0.010466
0.17251,0.22448,0.12723,0.020059,0.033244,0.046617,0.027896,0.046504
-0.25957,-0.11447,-0.19493,-0.027651,-0.075214,-0.038473,-0.01252,-0.054194
-0.052712,0.039366,0.020476,-0.16407,-0.020497,-0.015352,-0.014375,-0.015646
0.13521,0.025258,0.0011389,-0.006461,0.025599,0.0067348,0.0070536,0.021801
-0.10287,0.18165,-0.11804,0.2422,0.039799,0.0046382,0.0052692,-0.011702
-0.25896,-0.30268,0.025084,0.019725,-0.0011256,-0.013447,-0.019388,-0.053108
0.16815,0.11116,-0.082025,-0.18914,-0.026654,0.030996,0.027065,0.062147
0.031871,-0.02363,0.2355,0.04575,-0.013174,-0.0023305,0.0040729,0.029701
0.052948,0.1576,0.20673,0.076464,0.070686,0.027397,0.020905,0.037121
0.38928,0.23778,-0.23686,-0.049523,-0.032809,-0.028207,-0.024266,-0.017353
-0.28632,-0.48913,-0.039626,0.043492,-0.011106,-0.012966,-0.0068056,-0.055998
-0.2004,-0.2285,-0.23273,-0.10464,-0.036022,-0.0051719,-0.020854,-0.0089824
-0.041195,0.2842,0.11285,-0.11031,-0.029357,-0.0050187,0.0035659,-0.0017347
0.14307,0.28351,0.19886,0.29282,0.13398,0.04982,0.05843,0.043619
0.21018,-0.096361,-0.14069,-0.20731,-0.084964,-0.036081,-0.035995,-0.029179
-0.075761,0.30316,0.52929,0.15501,0.032624,0.018499,0.0016696,0.037934
-0.18467,-1.0933,-0.69226,-0.042473,-0.036674,-0.036384,-0.023607,-0.06709
-0.023415,0.35748,-0.14391,-0.10531,-0.035107,-0.013118,-0.025509,-0.015562
-0.11543,0.27454,0.27357,0.066867,0.037164,0.01812,0.01198,0.029003
0.17262,0.3225,0.5662,0.05858,0.10176,0.073062,0.081363,0.10608
0.099476,-0.023041,-0.41544,0.032514,-0.091666,-0.067,-0.051572,-0.088839
0.15837,0.071562,0.13337,-0.01245,0.034654,0.043196,0.035017,0.053543
-0.14181,-0.45142,-0.55186,-0.24103,-0.089941,-0.065237,-0.041907,-0.060847
-0.30007,0.10818,0.077962,0.081066,-0.004773,-0.009688,-0.017078,-0.041879
0.28606,-0.025071,0.37743,0.12625,0.11815,0.076804,0.054403,0.086445
-0.1091,-0.42187,-0.30628,-0.088803,-0.041434,-0.024716,-0.038776,-0.043587
-0.039396,0.55209,0.60826,0.20294,0.040116,0.021555,0.031267,0.052003
0.20687,0.27501,-0.39182,-0.1141,-0.058671,-0.034396,-0.024586,-0.03323
0.036564,0.087248,0.20318,-0.077412,-0.0091071,0.0028756,0.0047623,0.013256
-0.31557,-1.0533,-0.36368,-0.068374,-0.029265,-0.022597,-0.036588,-0.058263
0.009811,0.48266,-0.045648,0.09379,0.029999,0.006772,0.015898,0.010477
0.043361,-0.36494,-0.023502,-0.035613,-0.010382,-0.010145,0.0064652,-0.0065541
0.11974,0.21639,0.1852,0.10596,0.029692,0.0051573,0.013646,0.031761
0.065075,0.62974,0.39813,0.11169,0.056572,0.052903,0.029853,0.039822
0.017346,0.42359,-0.13,-0.23052,-0.06281,-0.015339,-0.023046,-0.02133
0.0048338,-0.64474,-0.27732,-0.023829,-0.00092866,0.011136,0.018776,0.043475
-0.19408,-0.40443,-0.18725,0.097083,-0.024267,-0.039978,-0.048215,-0.094231
0.26209,0.84804,0.20075,0.0052774,0.053682,0.033904,0.04893,0.072918
-0.18254,-0.68837,0.15919,-0.11355,-0.018056,-0.025572,-0.034008,-0.064891
-0.16065,-0.14617,-0.21797,0.20007,0.0019041,-0.0079029,-0.0083249,0.023264
-0.014499,-0.12979,0.11727,-0.086112,-0.01976,0.00072795,-0.0070234,-0.022156
0.078752,-0.24767,-0.27084,-0.027153,-0.012872,-0.0075167,0.0089466,0.0019853
0.15349,0.49524,0.28372,0.11949,0.030644,0.014425,0.016291,0.025524
0.10353,0.41391,0.0092606,-0.21541,-0.0057876,0.02784,0.030879,0.056499
-0.091858,-0.14024,0.086783,0.079278,-0.019741,-0.029338,-0.04075,-0.061099
-0.047919,-0.062181,-0.084536,-0.017688,-0.018059,-0.008231,-0.018641,-0.022383
0.033257,0.24833,0.081513,0.058562,0.03924,0.021217,0.034919,0.039958
-0.020016,-0.026825,-0.126,0.01333,0.020056,-0.0032471,-0.0049455,-0.014662
-0.1848,-0.067996,-0.15243,-0.28456,-0.059585,-0.01122,0.0024256,0.0090242
0.053548,-0.52525,0.025755,0.43135,0.081596,0.020672,0.0023008,-0.021907
0.19375,0.21798,0.010305,0.0047093,-0.0020327,0.0062973,0.0023937,0.040824
-0.14059,-0.3208,0.090467,-0.18267,-0.06888,-0.039002,-0.036482,-0.076396
0.18983,0.44963,0.1412,-0.10121,-0.0025058,0.017273,0.018363,0.079395
-0.011421,0.18645,-0.009781,0.098628,0.024453,0.0029539,0.002761,-0.0075574
-0.21381,-0.4659,-0.14459,0.024236,0.01135,-0.0040626,0.0025706,-0.024819
-0.019119,-0.025232,-0.07692,0.017734,-0.018806,-0.019533,-0.013512,-0.0505
0.21357,0.56932,0.31693,0.054685,0.058839,0.058085,0.048235,0.09519
-0.23382,-0.4892,-0.1126,-0.18547,-0.060253,-0.028931,-0.023121,-0.032867
-0.016689,0.084373,-0.32709,-0.030379,-0.031911,-0.022581,-0.016595,-0.020339
0.21721,0.21373,0.22033,0.13823,0.050733,0.02271,0.013223,0.031531
-0.070941,0.093843,0.030386,-0.006391,-0.030373,-0.025577,-0.035074,-0.064423
0.0091201,-0.058562,0.018429,0.013705,0.014486,0.012527,0.026209,0.051472
0.12825,0.11298,0.029845,-0.042588,0.013909,0.012236,0.0097813,0.012242
-0.16819,-0.48037,-0.30874,0.012803,-0.0084609,-0.018535,-0.02949,-0.049216
0.047828,-0.16877,0.058619,0.16423,0.048831,0.021741,0.025691,0.0076445
0.040468,0.40636,0.45285,-0.21389,-0.056799,7.4683e-05,0.0034547,0.057583
-0.066139,-0.12165,-0.071547,0.07278,0.049044,0.025552,0.020874,0.022096
-0.037659,-0.17323,-0.25772,-0.047237,-0.048397,-0.042801,-0.031646,-0.06021
-0.06074,0.38621,0.041263,0.018686,-0.02165,-0.01002,-0.013778,-0.025734
0.0068414,0.16758,-0.12161,-0.02721,0.011599,-0.0013854,-0.0039758,-0.015496
0.088997,-0.17207,0.18967,0.048951,0.035464,0.021996,0.0287,0.040541
0.039355,0.031302,0.10692,0.075261,0.010882,0.021027,0.013695,0.032875
-0.01537,-0.27779,-0.12788,-0.057208,-0.022834,-0.019817,-0.010064,-0.0072258
0.019649,-0.15538,-0.15473,-0.13663,-0.04961,-0.022195,-0.011325,-0.032742
0.066637,0.20163,0.035504,0.19761,0.06393,0.029812,0.010064,0.026885
-0.054403,0.26033,0.030578,-0.07653,-0.025384,-0.027535,-0.047175,-0.054601
-0.17234,-0.37142,0.035493,-0.18424,-0.043615,-0.014246,-0.0029741,-0.011251
0.20411,0.43012,0.036167,0.18028,0.087698,0.046474,0.049324,0.079115
-0.11333,-0.14052,-0.036854,0.064522,-0.0063205,-0.0014993,0.00071124,-0.0020083
0.070136,0.1665,0.26174,-0.008101,0.010182,0.021535,0.038947,0.018994
-0.089414,-0.49978,-0.24074,-0.069537,-0.042736,-0.032948,-0.038976,-0.037452
-0.037212,0.010458,-0.022268,-0.042969,-0.024802,-0.024474,-0.029965,-0.038457
-0.023109,0.0039022,-0.021964,0.069878,0.0011099,0.0077218,-0.0044934,-0.0073987
0.10133,0.21716,0.086855,-0.045364,-0.012208,-0.0068338,0.0059281,0.016704
0.093606,0.19132,-0.01705,0.078354,0.059989,0.025482,0.024414,0.018236
0.0155,-0.017482,-0.076089,0.072609,0.022226,0.010835,0.011554,0.0049567
0.07697,0.091325,0.21492,-0.13343,-0.0083716,0.011676,0.01389,0.047029
-0.11363,-0.42787,-0.393,-0.086325,-0.070836,-0.042316,-0.039165,-0.051104
-0.16641,0.056682,0.13265,0.027563,0.014634,0.0051302,0.00064857,0.0071085
-0.089396,-0.2379,-0.027412,0.014679,-0.0017882,-0.0021878,-0.0073452,-0.0365
0.13346,0.29578,0.14289,0.017695,0.012908,0.0061052,-0.00056349,0.013053
0.073491,0.25717,0.19005,0.030734,0.019834,0.022258,0.021192,0.046136
0.099227,0.27711,-0.082441,0.047427,0.019108,-0.0083722,-0.0043029,-0.01552
-0.045756,-0.34901,0.13619,0.060657,0.018579,0.0079795,0.017005,0.0077619
-0.22753,-0.43441,-0.44492,-0.18753,-0.10679,-0.06152,-0.047418,-0.07921
0.14826,0.021288,0.19634,0.19261,0.072622,0.048697,0.03702,0.051919
0.073775,0.17576,-0.15918,-0.065917,-0.029234,0.0026084,-0.010807,0.010822
-0.037582,0.19537,0.1532,-0.10525,0.0016254,0.0032347,0.004438,-0.0068766
0.063025,0.11404,-0.10711,0.049834,0.047959,0.027037,0.028001,0.038161
-0.071152,-0.20632,-0.0005253,0.031244,-0.023057,-0.051059,-0.034001,-0.025744
-0.058719,-0.35758,0.1157,-0.075403,-0.039519,-0.0045193,-0.025483,-0.04224
0.01327,0.58304,0.071258,0.050446,0.037702,0.026065,0.037762,0.043358
-0.012033,-0.33001,-0.062886,-0.02023,-0.025683,-0.03734,-0.024095,-0.042479
0.021649,0.25358,-0.013704,-0.052198,0.0126,0.031956,0.023223,0.028213
0.19308,0.27718,0.28779,0.17408,0.043244,0.038774,0.03123,0.059914
-0.25442,-0.53484,-0.39466,-0.12215,-0.074351,-0.055834,-0.054761,-0.064777
-0.038208,-0.1688,-0.031745,0.0201,0.019168,-0.0018007,-0.0081458,-0.010108
0.030664,0.1162,0.1719,0.022324,0.02686,0.029019,0.014896,0.0050565
0.16434,0.069695,-0.089116,0.040035,0.018946,-0.0024629,0.014445,0.027576
-0.058286,-0.011081,0.01359,-0.029194,-0.028098,-0.010361,-0.009431,-0.020583
0.16774,0.76548,0.2234,0.07171,0.034122,0.028707,0.04487,0.032646
-0.19689,-0.82577,-0.36405,-0.16544,-0.067803,-0.049357,-0.057018,-0.054658
-0.035561,0.068367,0.058132,-0.029537,0.0021758,0.013256,0.0052003,0.014672
0.041598,0.051121,0.015427,0.058242,0.0098609,-0.0021761,0.012746,0.014342
-0.083312,-0.094749,0.30619,0.11466,0.033572,0.0059567,-0.003153,-0.00077372
0.09695,0.35842,-0.15492,-0.28084,-0.051541,-0.0013689,0.004374,0.00063623
0.042926,-0.39361,-0.032438,0.32605,0.082703,0.022731,0.011912,0.010668
-0.05815,0.070583,-0.030923,-0.11078,-0.0090872,9.4962e-05,-0.011742,-0.0021681
0.035695,0.038618,0.011533,0.018206,-0.038049,-0.006854,-0.027458,-0.014795
-0.13675,0.15657,0.0064929,0.025004,-0.01228,-0.013843,0.0038927,-0.0041977
-0.01336,0.13237,-0.079717,-0.12273,-0.0024063,-0.020974,0.019861,-0.0020427
0.24906,-0.0058308,0.16502,0.073536,-0.00088882,0.018555,0.02046,0.030396
0.087387,0.0050045,0.0051719,0.04195,0.038963,0.018774,-0.0021479,0.0069937
-0.1943,-0.43034,-0.14538,-6.8865e-05,-9.9465e-05,-0.004673,-0.0089626,-0.017556
-0.1589,-0.32746,-0.051452,0.0013221,-0.0008108,0.010783,-0.0078695,-0.011777
0.11548,0.47145,0.077696,-0.063447,-0.025469,-0.020687,0.0010717,-0.014315
-0.0034771,0.19567,0.0020851,-0.17827,-0.065969,-0.028642,-0.029042,-0.032431
0.032089,-0.15156,-0.01813,0.2204,0.073322,0.026107,0.018982,0.020387
0.067282,0.34691,0.16752,-0.045807,-0.0057595,0.0030242,0.0045381,0.06649
-0.16202,-0.40035,-0.33027,-0.061509,0.0016331,-0.0041166,-0.0098704,-0.034475
0.017433,0.014109,0.34828,0.15082,0.040811,0.035873,0.038214,0.037793
0.13012,-0.058214,-0.11775,0.013479,-0.0055744,-0.017777,-0.015376,-0.029504
-0.010996,0.14709,0.0045548,-0.067452,-0.036234,-0.016837,-0.0067412,-0.025962
-0.062338,0.0029203,-0.04461,0.0089475,-0.012416,-0.0084141,-0.0063859,0.00087477
0.029983,0.077011,0.021734,0.030872,0.026563,0.022909,0.0089506,0.019077
-0.016556,-0.086337,0.061249,-0.072778,-0.028806,-0.016764,9.2488e-05,0.0046441
0.054342,0.20612,0.033938,0.017876,0.0011867,-0.0024897,-0.0095326,-0.0037074
-0.071295,-0.46867,-0.23198,-0.10333,-0.00047721,0.011088,-0.0041855,0.0095896
0.081929,-0.032568,-0.032233,0.048591,0.013347,0.00067016,0.0085554,-0.0099034
-0.025694,0.36716,0.2446,0.12309,0.042961,0.013351,0.0055761,-0.014788
-0.19107,-0.15796,-0.25055,-0.15215,-0.067619,-0.036538,-0.044011,-0.059042
0.078546,0.30894,0.14884,0.012929,0.041155,0.0388,0.047633,0.053418
0.096621,-0.23697,0.22591,0.18916,-0.013478,-0.025977,-0.0004818,0.026396
0.028369,0.027411,-0.26843,-0.12352,-0.0050265,0.0037519,-0.00072293,0.0087913
-0.047019,-0.16132,0.056198,0.035137,0.02728,0.0031573,0.015652,0.024198
0.019657,-0.10649,0.034314,0.11707,0.0050902,0.0035626,-0.029623,-0.044737
-0.083759,0.17654,-0.086381,-0.31667,-0.064014,-0.0028877,0.0038355,0.012498
0.12702,0.22593,0.13664,0.17784,0.022894,-0.0085439,-0.017085,-0.023433
-0.0281,-0.022781,0.052154,0.037011,0.0078693,0.0097602,0.016673,0.0031067
0.028424,-0.025496,-0.076457,0.010265,0.039289,0.020424,0.018876,0.0291
-0.1102,-0.074352,-0.18805,-0.082057,-0.039091,-0.031624,-0.034168,-0.05516
0.024435,-0.094064,0.029641,-0.067508,-0.016284,0.017315,0.013602,0.031468
-0.013037,0.12418,-0.016288,0.00017368,0.021849,0.010707,0.029253,0.023475
0.011982,-0.44421,0.17583,0.075181,-0.010549,-0.035974,-0.026311,-0.03198
-0.071988,0.20844,-0.095061,0.033425,0.035038,0.017908,-0.0045976,-0.0095221
0.040135,0.098335,0.0089978,0.031685,-0.013192,-0.0071565,-0.0070244,-0.0025202
0.13764,0.13272,0.075528,0.023143,0.0010975,0.01416,0.013515,0.020578
0.095482,0.34388,0.10547,0.046493,-0.00010104,-0.0036587,0.01826,0.067758
-0.14139,-0.26729,-0.11966,-0.086364,-0.0088113,-0.005474,-0.0080682,-0.025022
-0.1673,-0.42655,-0.0063416,-0.10258,-0.06389,-0.029947,-0.041673,-0.085992
0.1186,0.29655,-0.062855,-0.0024948,0.069257,0.048201,0.034961,0.048721
0.028111,0.0045114,0.022839,-0.0048405,-0.023251,-0.020927,-0.0044758,-0.0039169
-0.072211,-0.11406,-0.16358,-0.046729,-0.0053931,0.0047556,-0.019227,-0.025375
-0.011046,0.18417,0.26851,0.30216,0.09152,0.039019,0.037561,0.031021
0.086127,-0.28739,-0.14168,-0.14497,-0.076486,-0.035758,-0.021807,-0.014602
-0.023297,-0.020594,0.043523,0.01874,0.013658,-0.0013244,0.013253,0.0094436
0.08224,0.28082,0.011584,-0.057913,-0.021318,-0.014405,-0.00617,0.0092142
-0.050504,0.11515,0.0043417,-0.07798,0.0056107,0.01057,-0.0024846,0.0079553
-0.046288,-0.075038,0.11482,0.05203,0.008085,-0.0047291,0.00035962,-0.010116
0.13472,-0.16031,-0.21271,0.011225,0.0014229,0.0099906,0.0019522,0.0096145
-0.12325,0.24657,0.043979,0.05656,-0.014531,-0.015429,-0.0057584,-0.026536
-0.052489,-0.13829,0.086886,-0.04738,0.01492,0.020863,0.016269,0.022308
0.091754,-0.13635,0.048,0.14364,0.019637,-0.01358,-0.0020704,-0.0074627
-0.31278,0.018832,-0.057345,-0.14474,-0.054761,-0.0090015,-0.052551,-0.052725
0.017599,-0.037062,-0.010016,0.063514,0.042137,0.027131,0.021629,0.035691
0.55329,-0.010326,-0.090196,-0.098798,-0.0095073,-0.0064713,0.025757,0.047579
-0.10369,0.073486,-0.12439,0.017382,0.025169,0.015374,-0.0083698,-0.055508
-0.0089113,0.079554,0.18614,-0.032086,-0.0096251,-0.0087966,0.013393,0.031504
