-0.62786,-0.075337,0.11894,0.12516,-0.028497,-0.0046194,-0.031107,-0.069398
-0.67559,-0.1726,0.092785,-0.19025,0.055978,0.049293,0.00081434,-0.073656
0.39745,0.14408,0.12896,0.19045,-0.086287,-0.053722,-0.0064113,0.070042
-0.29332,-0.23553,-0.10896,-0.3884,-0.017553,-0.024393,-0.0060299,-0.021736
0.6803,0.28172,-0.30878,0.2065,0.020239,-0.026465,-0.013701,0.0021846
0.19973,-0.14824,0.084008,0.16291,0.11324,0.042013,0.0018862,0.0011147
-0.65846,-0.11142,0.43644,-0.24581,-0.13688,0.017368,0.0096136,-0.05593
0.17417,0.16569,-0.31414,0.10486,0.035506,-0.029779,-0.013803,0.0034458
-0.27333,0.16764,0.10548,0.23753,0.067779,0.033533,0.017687,0.015822
0.60613,0.08218,-0.33613,-0.38802,-0.032456,-0.0036841,0.025985,0.052108
-0.12684,-0.47308,0.47035,0.1098,-0.023238,0.006748,-0.020239,-0.0044744
-0.0044422,0.3463,-0.21698,0.21423,0.0093237,0.0019104,0.042901,0.072774
-0.096341,-0.3962,0.50891,-0.020812,0.010479,-0.0187,-0.050446,-0.12254
-0.063889,0.13663,-0.99119,-0.40808,-0.097814,-0.047767,-0.042678,0.018616
0.48846,0.43056,0.69878,0.27936,0.12997,0.039309,0.058247,0.073938
-1.1513,-0.15378,-0.28595,-0.074769,-0.079323,0.015724,-0.028961,-0.081947
0.11024,-0.42026,-0.35709,0.18713,0.063646,0.022058,-0.015168,-0.043008
0.44415,0.14686,0.61992,-0.097509,-0.065957,-0.043094,0.068543,0.11261
-0.26216,0.10927,-0.47159,-0.31009,0.05529,0.031547,-0.027599,-0.12273
0.82041,0.01204,0.67979,0.32388,-0.049426,-0.050408,-0.014265,0.040323
-0.030263,0.20404,-0.014702,0.29711,0.095977,0.031912,0.030687,0.078643
0.061234,-0.067996,-0.11404,-0.40606,-0.11072,-0.033439,-0.0096765,0.023734
-0.14951,-0.22143,-0.65462,0.0028402,-0.0062086,0.027437,-0.08827,-0.10083
-0.18876,0.22547,-0.032321,-0.070909,0.080716,0.050768,0.084112,0.10338
-0.90926,-0.27559,0.33418,0.074631,0.016769,-0.033689,-0.039363,-0.14496
0.78505,0.36173,0.66804,0.42263,0.11435,-0.038592,0.041221,0.075879
-0.23963,-0.50091,-0.8059,-0.6217,-0.24335,0.027885,0.020961,-0.01552
0.3952,0.53117,0.4673,0.3628,0.069538,0.055863,0.032338,0.057264
-0.33457,-0.58369,-0.42402,-0.19448,-0.18786,-0.095853,-0.10473,-0.065272
-0.11506,-0.0040378,0.19656,0.0035532,0.12657,0.0096757,-0.031277,-0.039505
0.32099,0.61867,0.60109,0.39512,0.21735,0.036029,0.088304,0.095369
-0.034021,-0.38434,-1.0308,-0.31551,-0.078606,-0.024962,-0.043105,-0.067051
0.59084,0.38611,0.30135,-0.50195,-0.16725,0.037447,0.09001,0.15277
-0.58375,-0.15784,-0.35598,0.92322,0.20874,0.066988,-0.035768,-0.10467
0.057905,-0.26273,0.049561,-0.27312,-0.14718,-0.12367,-0.076542,-0.050378
-0.48074,-0.13003,0.739,-0.43395,-0.041498,-0.026375,0.0070022,-0.02805
0.34861,0.55361,0.054506,0.29234,0.24248,0.031225,0.019869,0.024955
0.19478,-0.093519,0.1001,-0.0795,-0.055,0.041873,0.032706,0.038546
-0.090314,0.040433,-0.062184,-0.19975,-0.23234,0.068635,0.037998,0.067645
0.08827,-0.78202,-0.58262,0.54615,0.084689,-0.07548,-0.057776,-0.090677
-0.071367,0.63409,-0.18137,-0.18854,-0.017909,0.016175,0.050204,0.10276
-0.13463,-0.044662,0.15004,0.39813,0.023307,-0.070215,-0.075522,-0.10983
-0.11765,-0.032099,0.07946,-0.1564,0.15528,0.016979,-0.028748,-0.017541
-0.018609,-0.15761,0.38766,-0.39883,-0.065244,0.012002,0.026335,0.01233
0.35382,-0.20315,-0.11012,-0.42841,-0.17516,0.023885,0.034841,0.010911
0.0049149,0.65808,-0.4009,-0.14709,0.046234,0.04428,0.082448,0.11088
0.011104,-0.11585,0.03737,0.70835,0.10037,0.017824,-0.010806,-0.031623
-0.37915,-0.41292,-0.038831,-0.044337,-0.02763,-0.079634,-0.12015,-0.12759
0.34001,0.40768,0.70403,0.30171,0.12309,-0.0065272,0.043349,0.1199
-0.2015,-0.085923,-0.44142,-0.025777,-0.081089,0.025801,-0.059315,-0.078031
0.08579,-0.1867,0.22153,-0.58333,-0.10247,-0.021806,0.06426,0.0054962
-0.39008,0.069195,-0.22179,0.49168,0.088558,0.054021,-0.015259,-0.027549
0.61297,0.08306,0.2422,-0.31486,-0.017431,-0.058667,0.038477,0.081078
-0.26643,-0.21962,-0.6627,0.091897,-0.11705,0.00025936,-0.00071221,0.01926
0.39785,0.48651,0.6545,0.97208,0.26548,0.0050488,0.0080762,-0.0096242
0.023129,-0.40892,-0.44912,-0.67729,-0.19819,-0.027972,-0.067849,-0.060174
-0.70795,0.11056,-0.037743,-0.78547,0.0079126,0.034452,0.0058294,-0.023121
-0.081065,-0.40585,0.30155,-0.38765,-0.10764,0.059603,0.041379,0.030925
0.56442,0.21692,-0.17439,0.57727,0.26077,0.031584,0.014978,0.062418
-0.22681,0.18518,0.2756,-0.063094,-0.20631,-0.011096,-0.011372,-0.054287
0.020897,-0.06121,0.0017637,0.75214,0.061966,-0.10039,-0.053845,-0.046518
0.049868,0.42392,0.23694,0.46381,0.16724,0.0052379,0.090145,0.092707
-0.021761,-0.64938,-0.71562,-0.96758,-0.2503,-0.077544,-0.1111,-0.09054
0.37784,0.48991,0.21339,0.8367,0.26947,0.080687,0.060859,0.10619
-0.1713,0.018151,0.21919,-0.64566,-0.07135,0.073633,0.059055,0.041868
-0.47167,-0.44304,-0.24416,-0.50821,-0.17215,-0.051713,-0.053883,-0.13512
0.17434,0.29916,0.25511,0.046901,-0.11953,0.01735,-0.043207,0.020958
-0.16077,-0.17023,-0.19413,0.23381,0.19568,0.023234,0.060421,0.01097
0.63408,0.1342,-0.088488,0.81649,0.15659,-0.026037,-0.023512,-0.031021
-0.55742,-0.45661,0.23951,-0.60985,-0.12668,-0.020888,-0.028591,-0.025447
0.10811,0.22541,0.0036461,-0.36135,-0.07495,-0.039251,-0.0087929,0.029082
0.32427,0.27829,-0.10666,0.30242,0.03954,0.012816,0.028572,0.071142
-0.49786,-0.3647,-0.16105,-0.33827,-0.03205,0.065184,0.013372,-0.031533
0.48161,0.52493,0.4805,0.43398,-0.023165,0.0086271,0.031348,0.017837
0.00078466,-0.12321,-0.39472,0.34297,0.12925,-0.063011,-0.0039955,0.054481
-0.31883,-0.022205,0.26542,-0.30365,-0.012214,0.037793,-0.0075416,-0.086835
0.28632,0.050901,-0.41699,-0.13028,-0.018253,-0.0015207,0.019785,0.07688
-0.30098,-0.3847,0.32872,0.18962,-0.077121,-0.071713,-0.11036,-0.151
0.062223,0.057748,0.062918,-0.2144,0.068027,0.045758,0.046733,0.033197
-0.13518,0.32873,0.042256,-0.073178,0.080274,0.03032,0.045504,0.089892
0.32377,-0.072605,-0.47548,-0.36009,-0.22087,0.030125,-0.027976,-0.027807
-0.58568,-0.45768,0.088894,0.54547,0.070337,-0.041025,-0.040427,-0.06946
0.35314,0.098128,0.36223,0.51478,0.1022,0.0041934,0.0088388,-0.0030737
0.3393,0.46576,-0.1064,-0.63447,-0.10948,-0.021754,0.050282,0.078447
-0.25903,-0.31173,-0.080632,0.25278,0.091985,-0.0093431,0.029927,0.0039879
0.31387,0.24561,-0.23105,-0.2761,-0.074135,0.026132,-0.028246,0.031889
-0.18121,-0.016366,0.37226,-0.33614,0.080161,-0.047671,0.016698,0.00613
-0.26657,-0.25348,-0.068508,0.67005,-0.061942,0.051024,-0.085172,-0.12803
0.19903,-0.076397,0.038436,-0.48742,-0.031516,-0.021053,0.0019343,0.043215
-0.072031,0.19956,0.20621,0.071014,0.10893,0.056746,0.07458,0.042958
0.35348,0.25025,-0.12233,0.35694,0.046722,-0.043584,0.022977,0.019315
-0.47112,-0.11599,-0.38642,-0.27579,-0.20273,-0.0331,-0.067387,-0.066986
-0.059683,-0.066957,-0.039713,0.35288,0.0010009,0.017544,0.014006,-0.0050482
-0.024833,-0.15214,0.29367,0.092937,0.31409,0.04535,0.0012079,0.056825
0.038242,-0.060005,-0.23573,-0.82444,-0.31805,0.03413,0.026845,-0.021711
0.18325,0.038384,0.32029,0.25281,0.042325,-0.063502,-0.018484,0.0097069
0.23632,-0.12802,-0.19936,0.65623,0.083064,-0.044791,-0.072154,-0.067309
-0.27556,0.43637,0.13748,-0.25874,-0.070492,0.027612,0.10045,0.099082
-0.3128,-0.31946,0.1136,-0.29182,0.034988,-0.010283,-0.055078,-0.076938
0.68446,0.08424,-0.11432,-0.24127,0.01665,0.013655,0.039668,0.052982
-0.28895,0.15742,-0.085957,-0.052241,-0.11804,0.045089,0.025507,0.011983
0.79951,0.049279,0.0099297,0.94869,0.40376,-0.064072,-0.089674,-0.028541
-0.94715,-0.36574,0.054614,-0.76717,-0.325,0.037982,0.029999,-0.037934
-0.096102,0.32484,0.054529,0.33462,-0.039429,0.02322,0.040584,0.053501
-0.25072,-0.16238,-0.15532,0.085651,0.1193,0.00095294,-0.01133,0.010845
0.34045,0.31111,-0.23933,-0.19033,-0.075548,-0.021199,-0.0088925,-0.025665
-0.068311,-0.48288,0.30267,0.19744,-0.053447,-0.027867,0.00070445,-0.048388
0.27126,-0.099892,0.072753,-0.4435,0.02211,-0.027112,-0.029656,0.028682
0.099867,0.25693,0.3449,0.0061507,0.12844,0.066818,0.071788,0.07302
-0.64776,-0.044587,-0.42741,-0.22605,-0.11655,-0.043046,-0.077737,-0.094602
0.78097,0.17623,-0.29116,0.53898,0.045492,0.018304,-0.001479,0.026369
-0.22381,0.23287,0.12015,0.47842,0.12257,0.047839,0.027433,0.022435
-0.22811,-0.35043,0.086351,-0.51374,-0.088622,-0.055837,-0.0062544,-0.043416
0.61388,0.27832,0.43345,-0.27162,-0.10416,0.043429,0.093142,0.11042
-0.38429,-0.4355,-0.37253,0.20594,0.04406,-0.036938,-0.033441,-0.015888
-0.24444,-0.46093,0.0013204,0.12358,-0.003969,-0.070147,-0.14361,-0.17236
-0.041116,0.55287,0.16941,0.28129,0.1497,0.053357,0.028306,0.03142
0.46666,0.43288,0.16107,-0.36206,-0.16703,0.052412,0.060326,0.10288
-0.65638,-0.22868,-0.56323,-0.18032,0.085042,0.0051114,0.02247,-0.0053534
0.14987,0.10569,0.26353,-0.12216,-0.07797,-0.018384,0.086181,0.096801
0.66648,0.26297,0.089986,0.50707,0.063487,-0.018309,-0.045909,-0.044263
-1.0199,-0.98347,-0.15705,-0.87779,-0.12241,-0.010544,-0.1008,-0.16321
0.59843,0.6256,-0.31551,0.52845,0.11533,0.043773,0.022806,0.068092
0.11299,-0.24266,0.37808,0.37265,0.066572,-0.066382,0.012434,0.0093509
-0.20835,-0.4276,-0.08743,-0.53002,-0.14322,-0.0050118,-0.037846,-0.049749
0.41416,0.50537,0.17307,0.42035,0.017163,0.017142,0.028785,0.071255
-0.27451,0.33403,0.36234,0.57723,0.11751,0.07069,0.041152,0.029364
0.10076,-0.17331,-0.37418,-0.70905,0.0006119,0.015343,0.015556,-0.018627
-0.39875,-0.27422,-0.26038,-0.14412,-0.084796,-0.10171,-0.070937,-0.049073
0.40561,0.20062,0.33035,0.45016,-0.0072266,0.008815,0.039702,0.055025
-0.26686,-0.035127,-0.27218,-0.42467,-0.010049,-0.027991,-0.066721,-0.058451
0.15733,0.1288,0.37248,0.20629,0.10121,0.061215,0.10933,0.094057
-0.24512,0.23951,-0.043079,-0.50499,-0.17384,0.065201,0.020264,0.027271
0.097838,-0.62407,-0.69082,-0.089279,0.039948,-0.079011,-0.06133,-0.11118
-0.090663,0.14232,0.49432,0.33994,0.12599,0.0186,-0.034694,-0.040569
0.27361,0.19257,-0.10803,0.38903,0.022779,0.0058412,0.021445,0.059265
-0.060442,-0.14434,0.25798,0.05368,-0.034075,-0.024075,-0.01039,-0.022352
0.17124,-0.15352,-0.23771,-0.5176,-0.12919,-0.0011728,0.0026877,0.019866
-0.40928,0.39011,0.08162,0.27977,-0.019135,0.03543,0.014212,0.030459
0.20872,-0.46684,-0.14054,-0.11914,0.039232,-0.062451,-0.061113,-0.044452
-0.16147,-0.0059393,0.15093,0.28601,0.10112,0.026028,0.050891,-0.0010813
0.29918,0.39609,0.50867,0.030896,-0.0053915,0.020344,0.069666,0.067217
0.080068,-0.022687,-0.52446,-0.053805,-0.015306,-0.03183,-0.051133,-0.00354
-0.15061,0.30104,0.2182,-0.21512,0.031186,0.034305,0.03255,-0.010436
0.28313,-0.11126,-0.43273,-0.18969,-0.054832,-0.015082,-0.062033,-0.032013
-0.91858,-0.41988,0.11198,0.14951,-0.0091631,0.0077728,-0.014704,-0.053154
0.30498,0.088833,0.0055572,0.30189,0.06548,-0.0065648,0.018008,0.050653
0.17215,-0.08235,0.028057,-0.3685,-0.10498,0.019666,0.020116,-0.010036
0.17595,-0.039019,0.10968,-0.28242,0.010698,-0.015694,0.022485,0.037986
0.15392,0.19296,-0.075824,0.25146,0.0068829,0.01164,-0.045559,-0.039727
0.0065176,0.37078,0.052466,-0.16101,-0.013763,0.0072193,0.057879,0.077213
-0.35808,-0.58268,0.30246,0.70163,0.059479,-0.013883,-0.03458,-0.071946
-0.30545,-0.055848,-0.25224,-0.40357,-0.022082,-0.036352,-0.041761,-0.049446
0.4701,0.16501,-0.038148,0.56505,0.094131,0.0022871,0.012947,0.059057
0.14075,0.19978,-0.20089,-0.8399,-0.14603,0.024151,0.028124,0.019443
-0.16904,-0.027632,0.26969,0.56304,0.077727,-0.017201,0.019596,-0.00404
-0.15592,0.10872,-0.28885,-0.070688,0.0070453,0.042806,0.011017,0.019948
0.12342,-0.22738,0.061591,-0.22721,-0.01528,-0.037536,-0.067738,-0.049231
-0.14595,-0.12319,0.30477,-0.11853,0.025195,0.031178,0.025652,-0.00074409
0.15072,0.067645,-0.4207,-0.40784,-0.075852,-0.00089787,-0.00563,0.0011809
0.41766,0.30374,0.51475,0.41629,-0.014754,-0.0088059,0.018083,0.018841
-0.34621,-0.14352,0.15388,0.64167,0.098422,0.007256,0.02639,0.028589
-0.15632,-0.1583,-0.42161,-0.12081,-0.041288,-0.023308,-0.035534,-0.055705
-0.081188,0.18098,0.105,-0.64866,0.0037714,-0.0070357,-0.0037714,0.023618
0.148,0.047072,-0.33096,0.094702,0.054458,0.024608,0.019997,0.024281
0.011986,-0.36276,0.035824,-0.17366,-0.17746,-0.0065969,-0.0033443,-0.030296
-0.2896,-0.10063,0.2538,0.38836,0.074605,-0.0068515,-0.011262,-0.0072425
0.1842,0.28922,-0.25987,0.27832,0.11629,0.00058381,-0.0036439,0.031066
-0.080553,0.058733,0.25644,-0.093438,-0.090712,0.023787,-0.027203,-0.055832
0.43096,-0.033539,-0.21695,-0.11514,0.0087241,-0.038513,0.011971,0.029102
-0.026802,0.19912,0.45567,-0.11424,0.14904,0.01705,0.059289,0.036
-0.029619,0.067048,-0.2476,-0.62297,-0.27942,-0.020341,-0.049322,-0.035074
0.17387,-0.12804,0.22024,0.62189,0.12119,0.028944,0.029742,0.034621
-0.28954,-0.014148,-0.25911,0.093272,0.061055,-0.015047,-0.016284,-0.028427
-0.39278,-0.35907,0.11714,-0.22893,-0.046554,0.01911,-0.00022705,-0.021203
0.28474,0.15677,-0.41095,0.68168,0.047694,0.029277,0.030722,0.056189
-0.43468,-0.16882,0.02176,-0.038889,-0.0081837,-0.00076477,-0.048652,-0.05412
0.57104,0.21336,0.35885,-0.58953,-0.011134,-0.048057,0.019426,0.01507
-0.16788,0.040807,-0.36207,-0.46437,-0.1171,-0.019095,-0.0070595,0.01386
-0.034823,0.1369,0.80302,0.23503,0.018308,0.015886,-0.0027264,0.0049228
0.17185,-0.39452,-0.43615,0.39327,0.059985,-0.013011,-0.037355,-0.050583
0.026647,0.5881,-0.18222,-0.26789,0.055646,0.058983,0.084954,0.081942
0.1482,-0.23608,-0.076591,0.32526,-0.04093,-0.064116,-0.088401,-0.066071
-0.10548,-0.10324,0.20857,0.15232,-0.010677,0.0092396,0.028867,-0.041409
-0.14438,0.22625,-0.10756,-0.23773,0.068203,0.045475,0.077479,0.10901
-0.169,-0.42209,0.23413,-0.054728,-0.054715,-0.032989,-0.052126,-0.044661
-0.052173,0.03566,0.048303,-0.009345,-0.012885,0.031857,0.006807,0.012899
0.49001,0.30161,-0.58398,0.19519,0.099273,-0.010167,-0.011936,0.023533
-0.15568,-0.061497,0.4111,-0.19111,-0.12501,-0.00334,0.031641,0.010348
-0.061676,-0.29452,-0.119,-0.14431,-0.014066,-0.034392,-0.05051,-0.081585
-0.30629,0.24528,0.079198,0.094546,0.0025427,0.028547,-0.016575,-0.041427
0.21354,-0.10377,0.18033,-0.035443,0.058072,-0.0029828,0.0082887,0.044929
-0.077548,0.13699,-0.23582,-0.142,-0.026562,0.018605,0.016313,0.02919
0.02686,0.062686,-0.059602,0.33071,-0.03984,-0.0010743,0.007693,0.028714
0.24081,-0.24042,-0.010965,0.41404,0.096729,-0.054556,0.013945,-0.011059
-0.019297,0.35192,0.21221,-0.81517,-0.023089,0.053445,0.027528,0.042724
0.23208,-0.26357,0.36409,0.10126,-0.0090598,-0.06742,-0.037261,-0.067786
-0.82538,-0.097024,-0.66117,0.27652,0.028701,0.05994,-0.023991,-0.045787
0.66667,0.20064,0.25708,0.33085,0.018927,0.0065261,0.051858,0.085228
-0.37153,0.041266,-0.096065,-0.4437,-0.10185,0.0074713,-0.012708,-0.018469
0.29259,-0.31105,-0.30186,-0.074653,-0.021914,-0.045866,-0.076933,-0.059878
-0.061267,0.4165,0.43444,0.37282,0.13331,0.026835,0.023379,0.039353
-0.012162,-0.33032,-0.083514,-0.42234,-0.089314,0.015123,0.069598,0.060773
0.1273,0.012387,-0.035463,-0.075966,-0.040896,-0.026018,-0.024137,-0.065609
-0.39992,0.2202,0.50919,0.14951,0.029355,-0.018361,0.0078088,0.012052
-0.10797,-0.17314,-0.37747,0.063285,0.10683,0.030181,-0.029941,-0.065438
0.45025,0.20198,-0.42721,0.38915,0.028537,0.017759,0.049982,0.10039
-0.16109,-0.30886,0.13669,-0.68062,-0.19675,-0.048262,-0.049472,-0.021842
0.082563,-0.18918,0.1773,0.20159,0.0098166,-0.0043825,-0.023807,-0.010584
0.17362,0.44342,-0.07518,0.35082,0.07828,0.078463,0.033033,0.039978
-0.32607,0.17317,0.6011,0.15105,0.047662,-0.058139,-0.051004,-0.10502
0.52754,-0.16672,-0.82306,-0.53843,0.011276,0.038437,0.098925,0.10085
-0.58736,0.11579,0.30924,0.3362,0.0074367,-0.0071202,0.029574,0.024467
0.070198,-0.19328,-0.26851,-0.52317,-0.050701,-0.038627,-0.055989,-0.06864
0.093386,-0.15846,0.33197,0.14785,-0.085894,-0.0090045,-0.048363,-0.045522
-0.080059,0.07134,0.25564,0.63721,0.15117,0.011878,-0.025534,-0.0074004
0.074257,-0.088503,-0.1968,-0.81388,-0.15237,0.0011767,0.043975,0.038366
-0.090734,0.13836,0.17399,0.27788,0.0034537,-0.024859,-0.0036205,0.02972
0.11383,-0.1582,-0.49415,0.18457,0.11892,0.035854,0.035059,0.045093
0.36077,0.28379,0.1179,-0.064346,-0.086748,0.019556,-0.011705,-0.0091805
-0.78721,-0.086823,-0.30959,0.43517,0.14482,0.043471,-0.0032729,-0.086388
0.42709,-0.009966,0.43654,-0.61616,-0.053059,-0.02543,-0.0022826,0.024047
0.31479,0.16337,-0.1327,-0.056565,-0.086213,-0.039107,0.037888,0.056043
-0.3759,-0.20859,0.2126,0.22157,-0.016886,-0.021455,-0.039312,-0.022078
0.32974,-0.0034009,-0.25134,-0.08735,-0.0012329,-0.027571,-0.038836,-0.007466
-0.35881,0.080154,0.25826,0.25116,0.054418,0.043831,0.054777,0.0060984
-0.0047578,0.14774,0.28063,0.066433,0.079515,0.044203,-0.016311,-0.028009
-0.29549,-0.24929,-0.52905,-0.4519,-0.027866,-0.042035,-0.02542,-0.062419
0.23855,-0.12906,-0.047551,0.011477,-0.072833,0.011837,-0.0035852,0.051938
0.30941,0.13207,0.28574,0.092453,-0.0010919,-0.028341,0.026007,0.010992
0.0040743,-0.013025,-0.1243,-0.0029763,-0.031675,0.009524,-0.0067415,0.010495
-0.090836,0.084759,0.050003,0.47741,0.10094,0.047481,0.070168,0.089649
-0.05324,-0.010794,-0.1517,-0.51201,-0.048485,-0.039365,-0.063562,-0.11112
0.21051,-0.001242,-0.024784,0.7165,0.028137,0.014647,0.021676,0.087365
-0.47941,0.068167,0.010824,-0.83779,-0.075062,-0.017066,-0.041433,-0.081183
0.21309,0.23808,-0.035207,0.15186,0.040791,0.045139,0.036056,0.038805
-0.023835,-0.54462,0.5258,0.15238,0.03234,-0.072217,-0.058421,-0.061004
0.35002,0.42478,-0.51702,-0.58051,0.0014145,0.021472,0.057957,0.041011
-0.57792,-0.31301,0.29614,0.5603,-0.083165,0.013718,-0.013175,-0.030098
-0.024904,-0.11584,-0.052557,0.42393,-0.010623,-0.025147,-0.037341,-0.0162
0.40077,0.32998,0.11374,-0.33578,0.17178,0.053325,0.079301,0.083181
0.011979,-0.36575,-0.30164,-0.025681,-0.075578,-0.032139,-0.038202,-0.043955
0.01129,0.23381,-0.19175,0.1418,0.012324,0.0074564,-0.014871,0.0012295
0.022356,0.1111,-0.034782,-0.5056,-0.088488,0.0079457,0.00077142,0.015817
-0.066015,0.26299,0.48118,0.16589,0.027915,-0.022973,-0.0070217,-0.023645
0.072523,-0.064279,0.14558,-0.16174,0.049022,0.023984,0.063191,0.070141
-0.16484,-0.18689,-0.2981,0.22579,-0.032651,-0.0074714,-0.015225,-0.023443
-0.35663,-0.32632,-0.043179,0.097973,-0.028976,-0.023548,-0.054748,-0.085948
0.5835,0.3602,-0.032416,0.28682,-0.017267,0.0071257,0.022884,0.10119
-0.71851,-0.2982,-0.051932,-0.10264,0.034571,0.037861,0.0069809,-0.055775
0.56628,-0.24391,0.1201,-0.25514,0.049121,-0.063939,-0.078717,-0.072299
-0.16358,0.40219,0.21316,-0.067072,0.0033868,0.030044,0.023882,-0.0027633
0.4112,0.1367,-0.20784,-0.060652,0.045903,0.038691,0.104,0.11409
-0.21167,-0.1539,-0.14137,-0.0011325,-0.16733,-0.053601,-0.041518,-0.01841
0.48035,0.26691,0.014492,-0.037604,0.066252,0.026511,0.024565,0.076333
-0.50034,-0.022507,-0.053807,0.52339,0.058405,0.0053812,-0.010694,-0.054989
-0.47649,-0.32056,-0.012901,-0.21193,-0.051102,-8.5937e-05,-0.038462,-0.061151
0.20721,0.33083,0.56298,-0.2167,-0.0053016,0.0098011,0.011051,0.018398
-0.18275,-0.35296,-0.0028555,-0.019659,-0.015881,-0.027733,-0.018794,-0.019802
0.55937,-0.039139,-0.45754,0.26417,0.072834,-0.011317,-0.018806,0.0037358
0.14044,0.40284,0.31194,-0.1752,-0.020747,0.019904,0.05012,0.042097
-0.53689,-0.50456,-0.34533,0.05644,-0.01544,-0.035598,-0.03053,-0.068679
0.015734,0.22344,-0.45299,0.22234,-0.043821,0.025429,-0.010393,0.023161
0.52805,0.22905,0.75679,-0.24788,0.074326,0.031295,0.048443,0.075647
-0.083794,-0.024313,-0.10235,0.10143,0.0038414,0.021276,0.052625,0.034297
-0.20942,-0.30729,-0.20466,-0.31083,-0.12152,-0.043469,-0.099066,-0.10852
-0.15352,0.14061,0.033547,-0.16563,0.066428,0.0013439,0.054587,0.045802
-0.29184,-0.23327,0.077795,0.12226,-0.0017455,-0.015939,-0.0565,-0.088486
0.58523,0.4158,0.0010457,0.44984,0.11211,0.0064594,0.013159,0.059139
-0.18029,-0.060906,0.13939,-0.38938,-0.17765,-0.0094025,-0.009754,0.020144
0.042327,0.02249,-0.25961,0.63751,0.097607,-0.00090937,0.0076069,-0.025604
-0.030473,-0.30551,0.1822,-0.75985,-0.039216,0.024131,0.026093,0.023536
0.16148,0.11568,0.21669,0.84445,0.10636,0.0030807,0.014222,-0.02
-0.0089253,0.16529,-0.1154,-0.062511,-0.044802,-0.0018413,-0.012757,0.038862
-0.32456,-0.01919,0.063758,-0.57947,-0.056159,0.040221,-0.00063956,-0.026836
0.08867,0.10707,-0.483,-0.038036,0.0090453,-0.043048,0.018803,0.0324
-0.13654,-0.19862,-0.044616,0.021731,0.041075,-0.0098667,-0.072091,-0.080851
0.47701,-0.075638,0.17884,-0.29695,-0.045922,-0.0011514,0.077891,0.086035
-0.46793,-0.26327,0.0053227,0.087787,-0.040508,-0.032659,-0.078293,-0.10014
0.22545,0.32852,0.32441,0.19612,-0.035653,0.020647,0.029699,0.063545
0.058753,-0.030076,-0.15401,0.14914,0.039814,0.0026906,0.019266,0.03802
0.32257,0.50106,0.044295,0.83156,0.21005,0.062167,0.031372,0.026617
-0.47389,-0.73918,-0.5072,-0.92152,-0.079207,-0.011579,-0.066392,-0.13434
-0.22004,0.10972,0.46523,-0.043337,-0.15608,-0.05422,0.023253,0.016619
0.17101,0.26557,-0.095697,0.069912,0.0025087,0.004788,0.0116,0.058207
0.059187,-0.016741,0.59411,0.31032,0.099048,0.0172,-0.015145,-0.024629
0.28038,0.15682,-0.40916,0.14092,0.10935,0.022247,0.052569,0.057636
-0.11151,0.015522,0.20071,-0.39529,-0.068855,-0.03461,-0.0039164,0.016229
-0.4462,-0.52361,-0.41718,-0.50265,-0.17822,0.010826,-0.09082,-0.1175
0.45376,0.24672,-0.42169,0.039178,0.0076502,-0.021021,0.026224,0.05479
0.3592,0.32484,0.13262,0.21846,0.074851,-0.0050756,0.019061,0.056327
-0.84959,-0.66368,0.17795,0.44662,0.078487,0.05868,0.020449,-0.074124
0.66925,0.24486,0.10887,0.096053,-0.0512,-0.048562,-0.008762,0.030318
-0.57736,0.031393,0.10144,-0.22743,0.061355,0.06369,-0.0062006,-0.036865
0.29385,0.27141,0.52614,0.19756,-0.020859,-0.05008,0.027966,0.044435
0.36281,0.0089693,-0.068394,-0.22962,0.0072147,-0.0073052,-0.0080212,0.024085
-0.64879,-0.35352,-0.58831,-0.0015772,-0.072924,-0.0035669,-0.03624,-0.074559
-0.11238,-0.095052,-0.47227,-0.55708,-0.073633,-0.023511,-0.025635,-0.02499
0.31939,0.30806,0.48885,0.53987,0.051992,0.041969,0.023619,0.06335
0.43069,0.26034,0.51205,0.16298,0.077286,0.0051133,0.048861,0.073169
