0.011029,0.019735,0.034899,0.02485,0.017302,0.020184,0.1527,0.016723
-0.014576,0.063816,0.044465,0.035458,0.010237,-0.010727,-0.12952,-0.022174
0.039053,-0.040725,-0.0087505,-0.079322,-0.0046228,0.014058,0.22171,0.024671
-0.038822,-0.1867,0.0059161,-0.015391,-0.019639,-0.030706,-0.31742,-0.014719
0.033055,0.092464,0.039548,0.062678,0.00405,0.04205,0.15881,0.015832
-0.0033226,0.11524,-0.0030213,0.053005,0.011567,-0.026022,-0.014227,0.0069258
0.023561,-0.0023968,-0.13776,0.0024285,0.010598,0.022362,0.077083,0.0054781
-0.05082,-0.08889,0.034749,-0.049676,-0.02232,-0.055395,-0.23148,-0.058715
-0.0082031,0.090822,-0.21764,-0.14952,-0.0011478,0.060823,0.22435,0.033263
0.0025308,-0.0084165,0.11603,0.047578,-0.019407,-0.050789,-0.20327,-0.023077
0.020102,-0.16526,0.086008,0.073924,0.032607,0.031981,0.35377,0.030262
-0.010383,-0.20465,0.046798,0.047666,-0.00097119,-0.034073,-0.29873,0.0059065
0.036015,0.29075,0.14081,0.016346,0.0052371,-0.0061119,-0.097123,-0.0023522
0.018769,0.14421,-0.11609,-0.043247,-0.026585,0.038368,0.22515,0.005431
-0.069687,-0.22023,-0.061257,-0.022001,0.0053062,-0.025159,-0.15171,-0.00212
0.044465,0.5736,0.083763,0.024694,0.014991,0.04571,0.20974,-0.0017194
-0.060164,-0.46632,-0.044031,0.0020771,-0.005509,-0.0069222,-0.12095,-0.0091139
0.015395,-0.12971,-0.049951,0.0027595,0.005972,0.0040675,0.011096,-0.03216
0.013831,-0.019372,0.1488,-0.099348,0.0020942,-0.046907,-0.067849,0.062012
0.037094,0.08189,-0.19187,0.085498,0.013578,0.042598,0.24958,-0.046757
0.0072603,-0.14804,0.25586,0.033289,-0.038215,-0.040558,-0.13219,-0.01451
-0.052255,0.40595,-0.54574,-0.11556,0.01036,1.5668e-05,-0.22229,0.057394
0.045802,-0.22726,0.55451,0.17038,0.010616,0.031262,0.10376,-0.057475
-0.034943,-0.026973,-0.54142,-0.10062,0.017199,-0.0092873,0.010364,0.047134
-0.0059825,-0.074259,0.19348,-0.099662,-0.055647,-0.0041453,0.23315,0.01169
0.0070788,0.1827,0.23862,0.16634,0.034642,-0.023114,-0.29629,-0.054736
0.011479,0.14002,0.15027,0.034292,0.015143,0.059444,0.22906,0.019325
0.037986,0.11684,0.28786,-0.15114,-0.019815,-0.029252,-0.063427,0.1475
-0.054362,-0.019185,-0.70934,0.024827,0.00062433,-0.046449,-0.25766,-0.21744
-0.046978,-0.37497,0.023594,-0.070159,-0.024677,0.023844,0.17892,0.064888
0.091408,-0.33687,0.046528,0.11085,0.021697,-0.013591,-0.18307,-0.028991
-0.0062057,-0.055728,0.091381,0.059721,0.02255,0.06759,0.28042,0.0010448
-0.0035622,-0.065294,0.054681,-0.028946,0.0010698,-0.014372,0.090765,0.077113
-0.072134,0.32571,0.091478,0.023573,0.011503,0.052316,0.12005,0.019813
0.022881,0.63389,-0.35339,-0.080636,-0.024822,-0.076875,-0.12708,-0.092467
0.031879,0.29442,0.25927,0.0012768,-0.0068857,-0.019815,-0.19241,0.021715
0.017671,-0.01049,-0.023032,0.010928,-0.0054255,-0.034775,-0.17911,0.034347
-0.011725,-0.51423,0.36317,0.010689,0.0027683,0.049981,0.022118,0.031426
-0.024959,-0.62954,-0.46368,-0.085065,-0.0057311,-0.0075479,0.15498,-0.049509
0.017077,-0.14188,-0.10374,0.01339,-0.015063,0.0040424,-0.035546,-0.036514
0.028496,0.42467,0.24923,0.095949,0.037675,0.038525,0.19617,0.0080352
0.032872,0.22964,-0.036038,0.0071647,0.0045298,-0.0049381,-0.0057976,0.02182
-0.0085902,-0.0016153,-0.27069,0.013265,0.003156,0.022786,-0.029309,0.036297
-0.20485,-0.1746,0.48381,-0.041696,-0.036397,-0.08084,-0.18523,-0.049911
0.046132,0.094396,-0.14704,0.0063253,-0.0045636,0.0049032,0.018852,0.044549
0.15106,0.0077344,0.063288,-0.038268,0.02051,-0.0010597,0.097353,-0.047532
-0.092938,-0.14948,-0.31551,-0.019688,-0.0004716,0.002729,-0.1944,-0.013833
0.14216,0.0052604,0.067036,0.069348,0.033641,0.093986,0.41364,0.043758
-0.050396,0.27192,0.23293,-0.013862,-0.0026737,-0.087362,-0.41041,0.015427
-0.023008,0.18105,-0.18673,-0.027556,-0.016203,0.090564,0.89247,0.072569
-0.03457,-0.27049,0.040609,-0.02672,-0.054269,-0.084227,-0.89897,-0.15243
0.046618,0.64026,-0.17285,0.07444,0.046923,-0.019024,0.081433,0.090165
-0.085087,-0.79953,0.50716,-0.0053177,-0.0095379,0.0040571,-0.2437,-0.090328
0.01496,-0.095909,-0.28009,-0.015834,-0.012512,0.015709,0.065468,0.017226
-0.01293,0.031265,0.081889,-0.027135,0.030591,0.054858,0.30923,0.061669
-0.0046802,-0.046733,-0.21932,-0.031021,-0.028139,-0.0031388,0.19445,-0.0346
0.094663,0.0066963,-0.049905,0.043259,0.0071713,0.022283,-0.0099978,0.041445
0.066772,-0.086373,0.10765,0.078949,0.035459,-0.070639,-0.30971,-0.053521
-0.0097242,0.099707,0.16209,-0.11109,-0.028854,-0.045797,0.10864,0.055736
-0.19679,0.47322,-0.21196,0.0046425,-0.013723,-0.01065,0.0023715,-0.0214
-0.040782,0.29058,-0.090093,0.0043315,0.0026858,-0.033697,0.026139,-0.042954
0.1385,-0.47723,0.36553,0.036308,0.0045088,0.15991,-0.29108,0.02975
0.028986,0.16799,-0.12532,0.029985,0.030422,-0.030668,0.51697,0.024355
0.029447,-0.27854,0.093619,0.0084115,0.017463,0.027233,-0.19259,0.01851
-0.00050549,0.044049,-0.11136,-0.013204,-0.027001,-0.01118,-0.062082,-0.058473
-0.076336,0.0044344,-0.16365,-0.12896,-0.04081,-0.10866,-0.24083,0.0041563
0.083353,-0.40255,-0.0026261,0.074992,-0.016317,0.076254,-0.06479,0.018952
-0.13845,0.24937,0.4167,0.043955,0.046515,-0.0057636,0.28708,0.0018396
0.0084772,-0.19768,-0.57929,-0.003163,0.030719,0.11185,0.64419,0.039255
0.0008943,0.18566,0.18768,-0.034819,-0.032106,-0.10375,-0.65589,-0.11039
0.042026,1.1029,0.2556,-0.011602,-0.032199,-0.075232,-0.12706,0.0065823
0.13176,-0.8441,-0.18089,-0.0035119,-0.00048066,-0.052482,-0.14269,0.01556
-0.081854,-0.49112,0.22955,0.044346,0.0398,0.035734,0.064182,0.072864
-0.021331,0.35676,-0.23152,-0.00079607,0.0026949,0.089349,0.44752,0.053202
-0.046855,-0.12931,0.10874,0.017186,0.020795,0.10228,0.10121,-0.044048
0.090763,0.10446,-0.068383,-0.0035368,-0.023483,-0.13475,-0.63162,-0.024408
-0.038807,0.33065,-0.11223,-0.032063,0.017814,0.0045133,0.41965,0.04096
-0.014009,-0.52162,-0.1062,-0.037494,-0.043282,0.044283,0.28456,-0.12986
-0.014441,0.5086,-0.047817,0.042373,0.019446,-0.030861,-0.76527,0.033111
-0.063047,0.015984,0.6586,-0.050482,-0.028527,0.044444,0.37008,0.014316
0.083169,-0.42716,-0.35322,0.019764,-0.015252,-0.050693,-0.2326,0.0016702
0.10484,0.065127,-0.19295,0.073387,0.059539,0.011157,0.16799,0.042691
-0.23932,-0.13593,0.32531,-0.014586,-0.006878,-0.012818,0.25097,-0.010362
0.12159,-0.10408,-0.16831,0.060625,-0.010932,0.0097932,0.078583,-0.0084565
-0.030971,0.41462,-0.067749,-0.10706,0.00091188,0.032008,-0.41165,0.025357
0.068333,0.18846,0.11569,-0.056427,-0.0022816,-0.078799,0.061865,-0.01034
0.082851,-0.21934,-0.10552,0.0097356,-0.0047034,0.029328,0.085794,0.0015868
0.01943,-0.33382,-0.17129,0.044942,0.024949,-0.033776,0.067598,-0.017145
-0.060411,0.28652,0.22952,0.049538,-0.0071308,0.013502,-0.18634,0.050517
-0.18086,0.2065,0.29211,0.0081278,-0.022944,0.085353,0.14639,-0.10012
-0.014121,-0.025495,-0.23242,-0.032343,-0.0070141,-0.0059011,0.029103,0.10143
-0.036694,-0.13421,-0.14648,0.037413,0.0249,0.10647,0.034527,-0.094445
0.15023,-0.32733,0.02187,-0.048421,0.0023961,-0.16412,-0.069521,-0.054478
0.0080443,0.22893,-0.090867,-0.032253,-0.012065,-0.068294,-0.31264,0.081132
0.12299,0.26973,-0.0044606,0.023243,-0.0028531,0.057514,0.10285,0.0626
0.17481,-0.20893,-0.12995,0.01642,-0.0090064,-0.029102,0.27817,-0.008636
-0.35226,0.080534,0.64389,-0.013641,0.0085536,0.062557,-0.069508,-0.023728
-0.044348,-0.54935,-0.26852,-0.0043518,-0.0048825,0.067193,0.2055,0.016442
0.0047102,-0.16876,0.17854,0.028777,0.020919,-0.069387,0.099673,-0.022032
0.045117,0.54915,-0.25158,-0.031359,0.015513,-0.041932,-0.51574,0.0003711
0.14768,0.42065,0.063222,0.049631,0.0021682,0.040721,0.074739,-0.010986
-0.10876,0.07093,-0.4971,-0.040822,-0.042711,-0.031915,-0.029538,0.013726
-0.035906,-0.026886,0.24475,0.040887,0.005766,0.084226,0.20969,-0.034837
0.070042,-0.53529,0.08399,-0.025747,0.014756,-0.056003,-0.058495,0.023572
-0.017044,0.16306,0.09788,-0.061243,-0.039123,0.047421,-0.074401,-0.036622
-0.023651,-0.048643,0.255,0.0514,0.023931,-0.058728,0.094264,0.012377
0.049921,-0.30115,-0.037954,0.022967,0.0087303,-0.038715,-0.12004,0.015558
0.031174,0.37121,-0.053335,-0.052907,-0.022138,-0.033462,-0.019675,0.020799
-0.057282,-0.016089,-0.47696,0.05026,0.056336,0.17539,0.27962,0.020857
0.064921,-0.14024,0.2012,0.035546,0.001885,-0.092338,-0.089112,-0.0076801
-0.17332,-0.082982,0.077372,-0.07363,-0.013752,-0.055971,-0.28309,-0.049705
0.00085651,0.066729,-0.14303,0.0040042,-0.037595,0.065137,0.13324,0.011015
0.094906,0.18804,-0.17726,0.026322,0.0083897,0.122,0.60273,0.048279
0.038409,-0.083696,0.57635,-0.030023,-0.016416,-0.12012,-0.5801,0.076511
0.050206,0.48627,-0.18062,-0.024302,-0.0025227,-0.005036,0.14558,-0.17087
0.028996,-0.28357,0.27526,0.074824,0.034645,-0.048077,-0.37702,0.10251
-0.14979,-0.47486,-0.17742,0.025224,-0.0062403,-0.02201,-0.029938,-0.13457
-0.0090088,0.18922,-0.1837,-0.071517,0.023471,-0.011841,0.29804,0.055986
0.045829,0.14179,0.096626,0.0033491,-0.032328,0.10843,5.5735e-06,0.026723
-0.19541,-0.019058,-0.32263,-0.015799,-0.001718,0.0037182,0.14871,-0.025891
0.25241,-0.16237,0.14496,0.050771,0.013688,-0.036419,-0.074318,0.071085
0.053988,0.55571,0.16634,4.3677e-05,0.021575,0.0036715,-0.13691,-0.033166
-0.02467,-0.50328,-0.23812,-0.034974,-0.040721,-0.017087,0.015533,0.060073
-0.038107,-0.23387,0.038954,0.016307,-0.0014888,0.18955,0.63218,-0.016602
-0.064513,0.30661,0.38621,-0.0098324,0.021956,-0.23678,-0.81158,-0.068503
-0.057222,-0.11061,-0.16812,0.011973,-0.0017045,0.031108,0.19887,-0.01838
0.030332,0.12115,-0.089797,-0.011699,-0.0021571,-0.0074343,-0.0088603,0.062533
0.025856,0.0057853,0.0046249,-0.025944,-0.010592,0.053601,-0.15342,-0.014045
-0.024355,0.22503,-0.12105,0.0083366,0.0043394,-0.019944,0.16421,-0.0064166
0.042965,-0.19764,0.10727,0.02844,-0.011939,0.038172,-0.0084271,-0.0084552
0.078344,0.18916,0.090149,0.026102,0.018791,-0.13837,-0.053894,-0.019903
-0.036603,0.03082,0.11798,-0.022772,0.0028351,0.16229,0.13665,0.053567
0.048482,-0.73104,0.020372,0.060733,0.010513,-0.090315,0.085159,-0.052887
0.020116,0.3686,-0.10626,-0.091316,-0.020703,-0.020713,0.00029709,-0.0024891
-0.23942,-0.11887,-0.39788,0.012696,0.026328,0.12896,0.059205,0.04144
0.027741,0.42881,0.082386,0.013113,-0.0046725,0.014602,0.1582,0.024726
0.048861,0.048638,0.32863,-0.066557,-0.059014,-0.075414,-0.55528,-0.013371
0.028254,-0.081186,-0.32699,0.086596,0.027408,-0.048176,-0.088393,-0.072994
0.076767,-0.36002,0.32405,-0.042391,-0.010965,-0.013862,-0.071617,0.064156
-0.038483,-0.085115,-0.10304,0.00038744,0.036855,0.034744,0.48308,0.030215
0.066608,0.22807,0.11578,0.028176,0.0068117,0.042676,-0.12325,-0.081852
-0.02107,0.15837,-0.23419,0.010306,-0.0074105,-0.013428,0.089782,0.063125
-0.0040702,0.15235,0.068133,0.0095991,0.017493,-0.015994,0.03101,-0.027672
-0.21812,-0.022468,0.21071,-0.0286,-0.043655,-0.097236,-0.033097,0.0047276
0.16481,-0.30887,-0.088954,-0.0029654,0.0042808,0.11852,0.044841,-0.011676
-0.066594,-0.10988,0.041597,-0.031129,0.0049067,-0.00091243,-0.21446,0.0013945
0.063646,0.14066,-0.40875,0.034784,-0.0027922,0.044882,-0.017997,-0.049429
0.12507,-0.08474,0.36902,0.045745,0.0046164,-0.11893,-0.049756,0.039513
-0.094151,-0.032941,-0.22196,-0.076905,0.011568,0.038811,0.30344,0.081316
-0.04798,0.11042,0.2456,-0.005446,-0.01308,0.072442,0.28859,-0.048444
0.12227,0.024978,0.10622,0.072396,0.016744,-0.073202,-0.3067,0.017927
-0.1541,0.091335,-0.24984,0.008159,0.015247,0.054486,-0.41955,-0.031657
0.029144,0.32089,-0.079775,-0.10423,-0.048681,-0.068377,0.10072,0.021867
-0.13238,-0.17474,-0.18686,0.048082,0.0047717,0.034473,-0.093882,-0.086921
0.096223,-0.11234,0.4464,0.0046262,0.011642,-0.035506,0.26647,0.017039
0.11389,-0.50467,-0.029637,0.0081149,0.0032439,-0.036048,-0.072215,-0.041391
0.014708,0.43433,0.019525,0.03561,0.034284,0.087747,0.21299,0.12022
0.072166,0.079285,-0.21748,-0.053104,-0.020264,0.015848,0.15423,0.040274
-0.13586,-0.16128,0.15049,0.01568,-0.019842,0.061044,0.20374,0.085112
-0.031677,-0.14222,-0.13451,-0.015747,-0.011419,-0.15141,-0.55468,-0.20714
-0.10015,0.056294,-0.12,0.00098369,-0.0029209,0.0037004,-0.02218,-0.016999
0.18956,-0.21615,0.39611,0.057837,0.028971,0.065585,0.0019746,0.053432
-0.13931,0.5842,-0.16553,-0.048656,0.013826,-0.051601,-0.27282,-0.0037815
0.077252,0.17865,-0.032701,-0.022035,-0.0093944,0.066226,0.37956,0.022636
0.089389,-0.11259,-0.018899,0.035714,0.0061126,0.036189,0.14711,0.024047
-0.14952,-0.48752,0.0080736,0.02265,-0.017797,-0.14187,-0.25039,-0.053224
0.095227,-0.16182,-0.030035,-0.022438,-0.018579,0.078701,0.14907,0.002855
0.042753,0.31164,0.085879,-0.021568,0.011687,-0.01334,-0.06791,0.0057693
-0.18937,0.24699,-0.13565,-0.045049,-0.028411,-0.019871,-0.018407,-0.020354
0.078939,-0.056458,0.040671,0.047873,0.025344,0.090063,0.25804,0.049753
0.051156,0.085114,-0.071831,0.077731,0.063698,-0.0040594,-0.036224,0.012765
0.0010205,-0.36084,0.29304,-0.088031,-0.038287,-0.06011,-0.31602,-0.014742
0.014688,-0.10381,-0.1302,0.027405,-0.0071733,-0.038882,-0.1129,0.021046
0.014153,0.1493,-0.13087,-0.028869,-0.030509,0.01311,0.57345,0.11921
-0.070876,0.02961,0.11857,0.040181,0.032266,0.057344,-0.45906,-0.18191
-0.092037,0.12247,0.031533,-0.0075283,-0.0063996,-0.038373,-0.16208,-0.085811
0.083298,-0.21342,0.099751,-0.031329,-0.021534,-0.046913,0.2393,0.016952
0.1267,0.098142,-0.23931,2.6233e-05,-0.020955,0.032088,-0.097743,0.072114
-0.071628,0.076467,-0.00074994,0.047438,0.065658,0.042425,0.26426,0.0021502
-0.035672,0.066196,-0.074199,0.0092854,-0.0038859,0.022832,0.058416,0.073221
-0.0082199,0.10441,0.018189,-0.05981,-0.0030444,0.027334,0.24331,0.004347
-0.060175,-0.086774,0.1448,-0.0036636,-0.025603,-0.07775,-0.70749,-0.056134
0.17517,-0.20879,0.10325,-0.0098346,-0.024725,0.0035698,0.40626,0.047586
-0.091531,0.051938,-0.11422,0.077869,0.046443,0.075299,-0.034697,0.057053
0.069412,0.095301,0.10879,0.009384,0.00040634,-0.089434,-0.27316,-0.15336
-0.060427,-0.22437,0.052156,-0.06692,-0.014359,-0.029538,0.074742,-0.0059413
-0.14448,0.16009,-0.20771,-0.033929,-0.029045,-0.049108,0.027237,-0.0085361
0.083746,0.10706,-0.13338,0.053596,0.018911,0.079314,0.056724,0.050155
0.062667,-0.093306,0.25833,0.054957,0.027984,0.059837,0.081216,0.11614
-0.050669,-0.13346,-0.17375,-0.084605,-0.017465,0.010494,-0.020838,-0.16129
0.041102,0.092248,0.14081,-0.013601,-0.015953,-0.044761,-0.15342,0.023403
0.041179,0.11978,-0.18796,0.025701,0.0089347,-0.012085,0.32474,0.014565
0.074221,-0.15558,0.083074,0.080098,0.025749,0.037876,-0.15773,0.031188
-0.11041,0.074957,0.22045,-0.061416,0.0030262,-0.051789,-0.15026,0.018394
-0.044717,0.18947,-0.11107,-0.0082496,-0.0047278,0.069645,0.054588,0.07716
-0.0027734,-0.052395,-0.083058,-0.01819,-0.052306,-0.083037,0.35935,-0.098043
0.038481,-0.1736,0.046595,0.041677,0.016547,0.044175,-0.2548,-0.015931
-0.038175,-0.28434,-0.0037426,-0.015966,0.022261,-0.0022454,-0.071091,0.0024244
-0.0059077,0.14455,-0.05491,-0.034626,-0.011511,-0.034872,-0.066456,-0.066862
0.057611,0.21152,0.001965,-0.021853,-0.022001,-0.04566,-0.005182,0.057393
-0.073712,0.092346,0.0025028,0.069471,0.04575,0.11429,-0.18144,0.039543
0.084827,0.16553,0.024814,0.044211,0.027916,-0.038814,0.20505,-0.072994
0.048931,-0.26837,0.29583,-0.019412,-0.036268,-0.020022,0.0090912,0.040731
0.013719,0.23272,-0.30086,-0.05106,-0.021696,0.13991,0.23299,0.12349
-0.060279,-0.45801,-0.053179,-0.035131,-0.014262,-0.1915,0.010341,-0.1446
-0.14233,-0.012351,-0.10821,0.036145,0.025086,0.056263,-0.089402,0.010069
0.040501,-0.037751,-0.019296,0.006465,-0.0052787,-0.030844,-0.052856,0.0093406
0.065918,0.070756,0.26924,-0.014864,0.0039049,0.023662,-0.1799,0.0014257
0.0039504,0.30955,0.054634,0.018924,0.013406,0.10243,0.40143,0.056307
0.057578,0.15156,0.031784,0.013919,0.0073928,-0.021284,-0.3971,-0.02167
0.023677,-0.14189,-0.25364,0.016777,-0.0065474,-0.082035,-0.045383,-0.037464
-0.003845,-0.16213,0.24348,-0.043064,-0.012992,-0.017434,-0.019686,-0.030261
-0.1809,-0.29863,-0.049107,0.01384,-0.012084,-0.038457,0.25185,0.046861
0.016446,0.55024,-0.31283,-0.00019122,0.019562,0.081463,0.1857,-0.0090164
0.041972,-0.21794,0.16203,0.01632,0.0038699,0.014194,-0.17631,0.013356
0.091683,-0.026486,0.039005,-0.08503,-0.035588,0.0096539,-0.24567,-0.05756
0.049031,0.16195,-0.20519,0.086524,0.026374,-0.033919,0.073199,0.059761
0.062947,-0.24817,0.48482,0.0077507,-0.00537,0.01597,0.062343,0.0060937
-0.34286,-0.11015,-0.15551,-0.07895,-0.0056862,-0.020755,0.041617,0.06268
0.12852,0.0040452,-0.085933,0.060956,0.017652,0.058656,0.38436,-0.08314
0.023681,0.18657,-0.023987,-0.009975,0.0098869,-0.058562,-0.45888,-0.056637
0.053032,0.32649,-0.25771,0.0050637,-0.0057085,0.057206,-0.0067614,0.024669
0.059518,0.047377,0.21363,0.004331,-0.0059091,-0.1095,0.26127,0.043251
0.018726,-0.24559,0.070005,0.026649,0.016903,-0.0036054,-0.32881,0.053488
-0.14849,-0.30286,0.0065006,-0.06102,-0.031133,0.070737,0.12822,-0.069871
0.01013,-0.11619,0.14739,0.053694,-0.0015578,-0.018717,-0.046952,0.0011298
0.072138,0.12037,-0.039649,-0.035423,-0.01139,0.048818,0.1161,-0.02265
-0.040699,0.080654,-0.24327,-1.5594e-05,0.017784,0.0079988,0.026373,0.038502
0.00013197,0.40748,-0.17535,-0.034987,-0.015253,-0.047379,-0.094039,-0.026232
0.015794,-0.22519,0.5387,0.0086179,0.01482,-0.0081119,-0.11674,0.048978
0.015286,0.10614,-0.28843,0.029755,0.030097,0.070794,0.28927,0.022217
-0.078186,-0.23803,0.016001,0.052272,0.0072059,-0.084472,-0.26484,-0.10619
-0.005567,0.25854,-0.093521,-0.064254,-0.046145,-0.028934,0.025941,0.031285
0.054383,-0.36487,0.064285,0.016069,-0.005205,0.057482,0.16029,0.013116
0.086473,-0.24116,0.076867,0.058577,0.043753,-0.0050181,-0.15378,0.03491
-0.096945,0.33231,-0.18749,-0.085635,-0.016811,0.010146,0.16551,-0.035931
0.19874,0.20612,0.33418,0.028192,-0.0075094,0.017161,0.06658,0.019443
-0.2698,0.042807,-0.084994,-0.022355,-0.014473,-0.0072188,0.021586,0.0056857
0.011742,-0.081539,-0.078788,-0.0033348,-0.014321,-0.015882,0.10548,-0.030489
0.065483,-0.012936,-0.039258,0.061542,0.047707,-0.024211,-0.4329,-0.0034131
-0.0080764,-0.073758,-0.046122,-0.054378,-0.023523,-0.00074246,-0.1157,-0.01499
0.13417,0.015871,0.031986,0.00055337,-0.0012164,-0.015647,0.052958,0.075037
-0.01573,-0.033405,0.076814,0.015623,0.0054903,0.087356,-0.14806,0.047573
-0.1761,-0.095646,-0.06062,0.030212,-0.0032031,-0.027773,0.81086,-0.089843
0.0446,-0.020392,0.15874,-0.041261,0.0119,-0.017524,-0.46297,-0.071751
-0.055536,0.062201,-0.26469,0.020291,0.019612,-0.015048,0.042441,0.031487
-0.037693,0.13134,0.076035,-0.019239,-0.026943,-0.0051018,-0.13189,-0.05354
0.19299,-0.35789,-0.068408,-0.042509,-0.034056,0.027592,0.20098,0.1576
0.012148,0.22026,0.13836,0.075497,0.045086,0.028107,0.085068,0.055558
-0.025468,0.39632,-0.0068003,-0.0091055,-0.023956,-0.050502,-0.10125,-0.13313
0.0092833,0.035554,0.08935,-0.015326,0.0087529,0.0028355,0.035322,-0.0022835
-0.025191,0.018196,-0.066302,0.056502,0.01814,0.016579,-0.025702,0.0027658
-0.1144,-0.71284,0.0017469,-0.043953,-0.027133,-0.024411,-0.31933,-0.0085453
0.0844,-0.041743,0.10517,-0.043504,0.0056295,-0.0023911,0.089768,0.049932
-0.023215,0.53166,-0.12344,-0.012564,0.0069122,0.0050166,0.044781,-0.0089308
0.015688,-0.22518,-0.035048,0.041124,-0.015631,0.0059601,-0.10982,-0.044016
-0.0017532,-0.082621,-0.48755,0.03966,0.055037,0.0083191,0.1508,0.015531
-0.043687,0.19729,0.67736,-0.0088189,-0.01557,-0.0037799,0.37495,-0.017303
0.0078157,-0.17141,-0.17091,-0.064909,-0.032177,0.055057,-0.24104,-0.017204
-0.034091,0.094281,-0.053965,-0.026772,-0.033781,-0.0034163,0.10016,0.054933
0.080977,0.13477,0.083806,0.066667,0.034478,-0.039376,0.023622,0.042577
0.21242,-0.083614,-0.11718,0.043489,0.016609,-0.037883,-0.41593,-0.031417
-0.17916,0.07547,0.20112,-0.010589,-0.0089618,0.00064212,0.078825,-0.027215
-0.070809,0.26285,0.16157,-0.0099702,-0.010704,0.013635,0.055867,0.10122
0.060387,-0.33943,0.0039926,0.037165,0.019405,0.032653,0.12634,-0.14683
-0.21556,0.076762,-0.53922,-0.15072,-0.012294,-0.027631,-0.066931,0.009467
0.14821,-0.37367,0.09335,0.051267,-0.012087,-0.033613,-0.021742,0.0075747
0.058288,-0.034194,-0.098197,0.033828,0.051115,0.038968,-0.025423,0.011907
0.023036,0.20743,0.24665,-0.023089,-0.041678,0.026749,0.11037,0.054378
0.019704,0.19198,0.059337,0.06057,0.013953,0.047391,0.18222,0.0030182
-0.060398,0.065996,0.0057418,-0.011698,-0.016599,-0.10205,-0.38942,-0.078822
0.0098875,-0.19588,-0.076895,0.0026001,0.030584,0.031453,0.10409,0.036125
-0.042449,0.20812,0.030614,-0.036981,-0.039836,-0.021189,0.21465,0.035793
-0.037513,-0.23447,0.25745,-0.028851,-0.03245,0.044231,0.17398,-0.056293
0.079311,-0.20237,-0.29609,0.0425,0.068551,0.031859,-0.37147,0.048661
-0.043932,0.30315,0.040301,-0.01067,-0.02567,-0.074441,-0.19602,-0.040554
0.037333,0.18508,-0.0082368,0.037883,0.028837,-0.056333,0.09918,0.034655
-0.029494,-0.17845,-0.0050038,0.0081299,-0.017795,0.070266,-0.031166,0.039072
0.090297,0.097921,-0.13743,-0.037722,0.0063402,0.039575,0.43092,-0.020214
-0.010778,-0.053192,0.31422,0.017334,-0.00038977,-0.039069,-0.40264,-0.02648
0.11939,0.036438,-0.49997,-0.10798,-0.053768,0.02971,0.05626,-0.065767
-0.29319,-0.30682,0.26568,0.14117,0.056928,0.027321,0.37926,0.018445
0.040555,0.03455,0.16758,-0.063071,-0.020108,-0.069426,-0.23022,-0.00766
0.019672,-0.070094,-0.027517,0.0061815,0.035207,-0.010187,-0.17131,0.020679
-0.1126,0.0075417,0.094712,-0.049204,-0.058561,-0.0054847,0.14051,0.049419
0.20746,0.16159,-0.30226,0.10691,0.05786,0.038876,0.094118,0.047741
0.066886,0.27768,0.33502,-0.0098195,-0.013959,0.029562,-0.2184,-0.046735
-0.049237,-0.025436,-0.19029,-0.063572,-0.023888,-0.064367,-0.0014306,-0.031068
-0.031298,0.096176,-0.012455,0.031329,-0.0029234,0.046299,0.23657,0.039651
0.034573,-0.17081,-0.32788,-0.0066891,0.010218,0.0021286,-0.3794,-0.053811
-0.055187,-0.16345,0.30028,0.0017571,-0.015331,-0.095577,0.19024,0.016265
-0.011964,-0.10116,-0.003221,-0.013855,-0.0089038,0.12775,0.20419,0.015284
-0.070377,-0.014815,0.23814,0.024537,0.061006,0.015315,0.20246,-0.025475
0.043088,-0.012229,-0.1241,-0.00015062,-0.016434,-0.066243,-0.75939,-0.027629
0.071025,0.15906,-0.26196,-0.064236,-0.022539,-0.023645,0.34272,0.032673
-0.095325,0.025211,0.19149,0.035739,0.019029,-0.021252,-0.084656,-0.039431
0.044692,-0.24753,0.0093446,-0.020201,-0.032691,0.050228,0.44283,0.10799
0.05406,0.33396,0.14448,0.072896,0.032854,0.011238,-0.036045,0.045435
-0.012374,0.081411,-0.23119,0.018281,-0.0034496,0.010519,-0.30297,-0.12555
-0.037669,0.00015565,0.14056,-0.059072,-0.032512,-0.099967,-0.10838,-0.030184
