0.017615,0.096105,0.00096074,0.030824,0.026685,0.021703,0.025088,0.006379
0.0096893,0.027603,-0.19791,0.051659,0.0028414,-0.010849,0.00069593,0.0060241
-0.013443,-0.040386,0.12316,-0.06194,-0.0052635,-0.0118,-0.01493,-0.009878
0.018526,0.0088487,0.0022309,-0.043614,0.0025148,0.0034528,0.00171,-0.0022212
-0.011662,-0.051797,0.0090892,0.013711,-0.020612,-0.004001,-0.0041754,-0.010018
0.013042,0.027182,0.034321,0.087341,0.026924,0.020568,0.014045,0.013643
-0.016927,-0.051443,0.023612,-0.017533,-0.011216,-0.0088684,0.001342,0.006262
0.015405,0.13407,0.20424,0.058626,0.021044,0.016849,0.0042095,0.014664
-0.007345,-0.064596,-0.35246,-0.12187,-0.024963,-0.027597,-0.032404,-0.0081245
0.0084368,-0.014249,0.05011,0.057677,0.02239,0.021491,-0.0072326,-0.0075414
-0.015421,-0.050238,-0.024043,-0.0048977,-0.008979,-0.00029497,0.02484,-0.0071482
-0.0085411,0.0078496,-0.049857,-0.02894,-0.025436,-0.01509,0.0090453,0.00078148
0.021432,0.098259,0.62272,0.10234,0.027716,0.0082358,0.00010418,0.0084133
-0.026812,-0.09087,-0.73926,-0.10335,-0.02124,-0.024012,-0.0096576,-0.015449
0.018887,0.042442,0.17,-0.059807,0.023297,0.021203,0.011238,0.0074405
0.01818,0.02956,0.18706,0.092929,-0.010167,0.0036178,-0.0072236,-0.00087794
-0.013099,-0.0047411,-0.17241,-0.034988,-0.0040249,-0.0060209,-0.017823,0.014456
-0.0045295,-0.061003,0.27847,0.065067,0.0030381,0.00052554,0.018856,0.0067107
-0.026443,-0.038456,-0.49287,-0.098451,-0.027777,-0.023285,-0.021865,-0.039659
0.030384,0.10102,0.24598,0.091951,0.028612,0.024277,0.0086868,0.015964
0.01725,0.012693,0.070652,-0.035746,0.008002,0.010351,0.016872,0.017226
-0.034943,-0.085554,0.095611,-0.068097,-0.011848,-0.010649,-0.012986,-0.020438
0.029676,0.094702,-0.041129,0.11889,0.015385,0.015502,0.020458,0.019902
-0.0079909,-0.056198,0.11933,0.039615,0.01874,-0.0055249,-0.015965,0.012971
-0.0075752,-0.045918,-0.31463,-0.010254,-0.0024077,0.011623,0.017926,-0.010225
0.0073704,0.11834,0.016733,-0.086317,-0.017283,-0.011656,-0.011134,-0.018592
-0.01779,-0.054615,0.09183,-0.0796,-0.041726,-0.036565,-0.01759,-0.004345
-0.02034,-0.15723,-0.10966,0.025749,-0.013133,0.0072229,0.013944,-0.0064316
0.0078726,0.10092,0.064586,0.074315,0.029846,0.0028183,-0.025958,-0.0089819
0.028194,0.0023197,-0.084644,-0.12013,0.0019198,0.013267,0.026913,0.035209
0.041031,0.17285,0.20364,0.16261,0.03666,0.03146,0.008813,0.01712
-0.031394,-0.051162,-0.092247,-0.044904,0.0019874,-0.012167,-0.0095138,-0.016055
-0.016961,-0.076123,0.051063,0.086403,4.422e-05,-0.015376,-0.004162,-0.0093956
-0.032732,-0.09799,0.11601,-0.15401,-0.062582,-0.032357,-0.029402,-0.025287
0.0072236,0.030654,0.01319,0.061815,-0.0061591,-0.0081941,0.0088038,0.0065707
0.04809,0.10544,-0.14449,0.037858,0.051871,0.041403,0.016799,0.031357
-0.011938,-0.070257,-0.13477,-0.070704,0.01724,0.030089,0.04915,0.0097762
0.0064988,0.088257,0.14049,0.086419,0.014243,0.019681,-0.019458,-0.011588
-0.0063529,-0.013808,-0.023747,-0.14049,-0.036028,-0.037542,-0.0019632,-0.0095972
-0.019616,-0.12717,-0.025936,0.052127,-0.0014962,-0.0018267,-0.016012,-0.0079469
-0.017978,0.03689,-0.01264,0.022809,-0.070224,-0.07703,-0.061974,-0.030243
0.045231,0.064425,-0.13667,0.044519,0.054364,0.048886,0.047459,0.040647
-0.0097406,-0.012802,0.09073,0.015642,0.059787,0.047692,0.015439,0.0016546
-0.0031088,-0.029863,0.28354,-0.055622,-0.022371,-0.010026,-0.0015399,0.0091868
0.018496,0.084677,-0.06981,-0.0043941,-0.019629,-0.014284,-0.0030753,0.00096598
-0.030497,-0.050742,-0.044576,0.022072,-0.024943,-0.018926,0.0034969,-0.014944
-0.016845,-0.091126,-0.24107,-0.021658,-0.014013,-0.023013,-0.020436,-0.014868
-0.026061,-0.01195,0.011983,-0.071566,-0.017306,-0.025686,-0.027677,-0.037694
0.074996,0.12507,0.087137,0.061216,0.082927,0.098665,0.067821,0.065082
-0.033824,-0.023446,0.074057,-0.075455,-0.041229,-0.040362,-0.054401,-0.026931
0.045858,0.081441,0.045603,0.15945,0.000642,0.0023098,0.050559,0.037592
-0.014358,-0.08429,0.18352,-0.062488,0.043868,0.030693,0.014909,0.0082847
-0.027414,-0.12317,-0.095711,0.078126,0.0094179,0.020354,0.0020139,-0.0059126
0.021793,0.17454,-0.08523,0.11896,0.013455,-0.037643,-0.043451,-0.036658
0.0077698,0.026334,-0.060461,-0.20716,-0.038698,0.0041222,-0.0047327,0.0095124
-0.06985,-0.18615,-0.18488,-0.15169,-0.08517,-0.034736,-0.006957,-0.02374
-0.00030959,-0.026345,-0.1897,-0.051604,-0.016793,-0.029446,-0.018646,-0.01128
0.052357,0.12233,0.17246,0.20193,0.041678,-0.0031592,-0.00019845,0.031602
0.010236,0.11904,0.3923,0.10103,0.10649,0.068297,0.041317,0.011624
0.014298,-0.0047803,0.077731,0.18511,-0.048086,-0.024991,0.012945,0.0074155
-0.020976,-0.037547,-0.27377,-0.42027,-0.014911,-0.00066749,-0.022123,-0.011819
-0.017028,-0.15791,0.044422,0.019952,-0.027609,0.0094323,0.0068938,-0.0066834
-0.0047098,-0.11452,-0.26333,0.068952,-0.0075476,0.013801,0.022041,0.022995
0.00066595,0.20345,0.44257,0.094473,0.068905,0.012725,-0.031495,-0.032148
-0.02415,-0.046463,-0.38001,-0.059359,-0.024921,-0.048595,0.00216,-0.00036775
0.038062,-0.0040771,0.14722,0.068567,0.015315,0.040327,0.036539,0.03217
0.023106,0.033862,0.050211,0.13452,0.032887,0.028831,-0.061749,-0.020753
0.016644,0.22298,0.18311,-0.18183,-0.066429,-0.060366,0.011466,0.0046449
-0.028564,-0.12546,-0.25529,-0.08357,-0.048629,-0.0091618,0.029239,-0.0090644
-0.019142,-0.012972,0.2167,-0.093956,-0.02329,-0.021152,-0.00081461,0.00044458
-0.025701,-0.12065,-0.14369,0.20139,0.087666,-0.0028456,-0.039634,-0.013799
0.021907,-0.066539,-0.48323,-0.12688,-0.036024,0.05351,0.037945,0.034121
0.022118,0.055499,0.34227,0.21831,0.097892,0.038622,-0.017797,0.0036134
-0.032741,-0.027282,-0.04522,-0.067815,-0.034016,-0.0082926,-0.003404,-0.02713
0.013808,0.10047,0.34373,-0.071609,-0.049008,-0.05581,0.042374,0.0044671
-0.017673,-0.083114,-0.033421,0.081203,0.03716,0.0055996,-0.044287,-0.026531
0.021457,0.189,-0.22072,-0.094635,-0.10377,-0.081753,-0.052325,0.004913
0.068811,-0.058796,0.03272,-0.0062148,0.11405,0.15878,0.13545,0.090994
-0.031855,-0.037187,0.11639,0.08024,-0.02806,-0.046163,-0.043567,-0.033926
-0.061868,-0.12168,0.15246,0.047351,0.032571,0.02223,-0.0036005,-0.026107
0.02552,0.092785,-0.39429,-0.1827,-0.070907,-0.034371,-0.026078,-0.026156
-0.02765,-0.012674,-0.10638,0.054916,-0.009929,-0.036115,-0.048641,-0.010576
-0.034022,0.075638,0.19177,0.042593,0.028481,-0.045268,-0.032309,-0.033968
0.08438,-0.0035158,0.38755,-0.062149,0.036936,0.086879,0.13226,0.091252
0.0070813,-0.12663,-0.2318,0.15591,0.0079048,0.024642,-0.00024649,0.013557
-0.023901,0.11172,0.11478,-0.13837,-0.066363,-0.091188,-0.062653,-0.048352
0.045966,-0.061915,-0.64146,-0.13226,0.0014334,0.09096,0.062211,0.053835
-0.017775,0.087776,0.2447,0.24414,0.046781,-0.030652,-0.063174,-0.031627
-0.058828,-0.093674,0.19139,0.21642,0.037778,-0.0032489,-0.0091201,-0.03929
-0.022284,-0.025716,0.23424,-0.34965,-0.04195,-0.0069887,0.0056595,-0.0083355
0.021938,-0.072824,-0.31026,0.060063,-0.0056265,0.020124,0.012496,0.022157
0.027479,0.15038,-0.11104,-0.040136,-0.010059,-0.016099,-0.0041195,0.01322
-0.0051163,-0.080693,0.63024,0.0051422,0.014779,0.024689,0.049693,0.035364
0.026178,0.10216,-0.49278,0.062797,-0.024819,-0.052884,-0.029059,-0.028332
0.012272,0.034719,-0.21609,-0.14815,-0.026927,0.016987,0.0097477,0.0021216
-0.023357,0.020362,0.31697,0.0057694,0.016867,-0.015318,-0.029085,-0.02142
-0.057491,-0.099413,0.16552,0.22854,0.013527,-0.024297,-0.043893,-0.044036
0.034404,-0.038353,-0.35357,0.083456,0.080916,0.092123,0.05915,0.051589
0.017303,-0.010304,0.28788,-0.23357,-0.061707,-0.0093957,0.0066382,0.015427
0.007638,-0.033449,-0.33423,-0.058136,-0.070334,-0.039559,-0.0061611,0.0035247
0.035903,0.14818,0.16962,0.12547,0.10189,0.032893,-0.002824,0.015508
-0.046986,-0.021013,0.1355,0.0046784,0.0093859,-0.018808,-0.0070265,-0.019431
-0.022707,-0.064309,-0.091642,-0.076897,-0.051404,-0.046608,0.012159,-0.015894
-0.0085749,-0.027429,-0.19725,0.021247,-0.026295,-0.0041293,-0.031578,-0.021241
0.058114,0.14631,0.2352,0.056878,0.021749,0.061205,0.041078,0.026681
-0.0096248,-0.14214,-0.27629,0.02225,0.014259,0.031684,0.0032408,0.010537
-0.062605,-0.061956,0.3482,-0.10589,-0.017689,-0.061874,-0.035928,-0.022727
0.032843,-0.017012,-0.13268,0.086766,0.035286,0.030268,0.025066,0.020916
-0.019337,0.11935,-0.016157,-0.11824,-0.037591,-0.0044246,-0.016799,-0.02998
0.023679,0.058693,0.039983,0.06835,-0.0094834,-0.048536,-0.044066,-0.0030262
0.052861,0.019161,-0.029212,-0.040912,0.0027477,0.046861,0.092107,0.055413
-0.033352,-0.016563,0.17178,0.10066,0.038484,-0.022229,-0.029671,-0.033915
0.00691,-0.019704,-0.27388,-0.069838,-0.011379,-0.028443,-0.026087,0.0027284
-0.0065832,-0.0086387,0.13956,0.15012,0.040863,0.013368,-0.0060694,-0.0063959
-0.027591,-0.024883,0.18468,0.017757,0.0078547,0.056949,0.0072789,-0.0066263
0.037057,0.008034,-0.64564,-0.27205,-0.11811,-0.022347,0.029764,0.04094
-0.023978,-0.082289,0.63513,0.10874,0.045856,0.025512,0.014519,0.0032469
-0.031169,-0.045182,-0.39932,-0.12863,-0.062694,-0.041943,-0.022983,-0.034041
-6.3059e-05,0.027283,0.2785,0.28215,0.095288,0.016944,-0.028334,-0.03211
0.014911,0.043625,-0.32742,-0.23615,0.043124,0.0061867,0.029357,0.016653
-0.0015438,0.045262,0.12212,0.028256,-0.07881,-0.051473,-0.03779,-0.012891
0.036799,0.049762,0.32439,0.091554,0.049428,0.023042,0.019867,0.035403
0.028544,0.066126,0.037616,0.039798,-0.025728,0.018349,0.030149,0.02082
-0.018486,-0.077215,-0.14556,0.036656,-1.4529e-05,-0.0111,-0.022794,-0.0098563
0.0049781,0.0020704,-0.094603,0.0031902,0.048133,0.036238,0.017156,0.013601
-0.057471,-0.072028,-0.11708,-0.17882,-0.084525,-0.034774,-0.014092,-0.033858
-0.010635,-0.081959,-0.24721,-0.0025425,-0.022871,-0.036313,-0.038337,-0.019393
0.036102,0.14307,0.66091,0.17194,0.069358,0.078909,0.05397,0.025882
0.0047345,0.0085724,-0.27748,-0.18689,-0.049573,-0.071493,-0.025982,-0.007159
-0.010765,-0.071731,-0.09483,0.1165,0.034865,0.03629,0.034609,0.0068204
-0.017954,-0.058742,-0.096469,-0.018831,0.010523,0.011887,-0.021756,-0.017753
-0.0010064,0.024358,0.037713,-0.037313,-0.020892,-0.035235,-0.022921,-0.0024395
0.032329,0.021604,0.22962,0.093214,0.042086,0.027648,6.8142e-05,0.013884
0.011617,0.050336,0.01844,-0.095256,0.042905,0.028411,0.02386,0.0234
0.0068612,0.18861,-0.1346,-0.00075429,-0.081354,-0.064567,-0.021927,-0.013171
0.0019949,-0.10287,0.3023,0.04856,0.0048429,0.0061095,-0.0047131,-0.0024871
-0.019083,-0.074388,-0.12289,-0.057158,-0.034712,0.029115,0.043871,0.0080485
0.0057369,-0.015151,-0.2912,0.15004,0.010863,0.035432,0.029609,0.025706
-0.072191,-0.17502,-0.16111,0.13798,-0.0066929,-0.045329,-0.055768,-0.06714
0.051854,0.063609,0.0046172,-0.3129,0.053609,0.037,0.045221,0.049595
-0.0046752,0.029403,0.15392,2.7306e-05,0.020357,-0.045287,-0.042529,-0.022481
-0.0069751,0.082147,0.23379,-0.071661,-0.043493,-0.025934,-0.045392,-0.025231
0.037626,0.073417,-0.036923,0.066233,-0.0047745,0.0020462,0.021473,0.018451
-0.042329,-0.052032,0.129,0.094143,-0.011747,-0.015339,-0.020965,-0.023596
0.034663,0.08749,-0.014295,0.05973,0.03711,0.070829,0.038924,0.028919
-0.0048091,-0.048558,-0.15136,-0.05986,-0.061594,-0.020577,0.0063808,0.0045429
0.018742,-0.047602,-0.13109,-0.05348,0.058864,0.022633,0.014477,0.02059
-0.043496,-0.059183,0.22963,0.16462,0.015076,0.012244,-0.015027,-0.016893
0.042395,-0.044625,-0.14999,-0.10916,0.01735,0.056635,0.089267,0.047854
-0.028693,0.027817,-0.21568,0.015223,-0.052043,-0.09526,-0.056179,-0.035832
0.0085887,0.065738,0.23772,-0.079885,-0.0059466,-0.038098,-0.038097,-0.010814
-0.0020612,0.00079224,-0.19196,-0.019641,-0.0084855,0.024453,-0.013406,-0.010432
-0.037002,-0.02417,0.33664,0.032106,-0.02816,-0.040491,-0.044986,-0.04275
0.029197,-0.014887,-0.13943,0.099344,0.076175,0.056538,0.046841,0.032936
-0.013823,-0.040122,-0.083723,-0.11406,-0.030716,0.011632,0.035863,0.013885
-0.0013897,0.088387,-0.039378,-0.068326,-0.035583,-0.02579,-0.02262,-0.013373
0.012332,0.058019,0.12031,0.21363,0.054427,0.023383,-0.018497,-0.0012929
0.051113,0.039746,0.15269,-0.11961,-0.010215,-0.0040967,0.041121,0.042916
-0.0099582,-0.038175,-0.038446,0.095743,0.028511,0.040723,0.0083262,0.010307
-0.0226,-0.06014,0.18375,0.10908,-0.024778,-0.060744,-0.046289,-0.044249
-0.0027866,-0.035347,-0.36475,-0.19759,-0.021958,0.035078,0.041331,0.019813
-0.060363,-0.18347,-0.10984,-0.14543,-0.026012,-0.031625,-0.025947,-0.032157
0.03072,0.12011,0.070454,0.092999,0.071874,0.011979,0.0092391,0.018178
0.035598,0.078557,0.018154,0.01723,-0.033543,0.0089884,0.005728,-0.0015366
-0.014912,-0.034468,-0.095315,0.087949,-0.0067895,-0.033384,-0.021385,0.0019784
-0.0039677,0.093703,-0.058541,-0.023039,-0.012253,0.032834,0.013404,-0.0029261
0.0056854,0.0020631,0.54347,0.090593,0.012416,0.012045,-0.015183,0.0069019
0.029551,0.057482,-0.10863,-0.031865,0.036,-0.025524,0.017748,0.0078806
-0.018286,-0.052955,-0.1156,-0.046232,-0.027243,-0.0016529,-0.0049318,-0.0077974
-0.0048259,0.0064403,-0.14086,-0.084637,-0.020733,-0.017664,-0.028363,-0.0087356
-0.046907,-0.17041,0.2226,-0.013328,0.016876,0.012704,-0.0054425,-0.018111
0.035649,0.011018,-0.34441,0.020359,-0.0077352,0.050737,0.071859,0.034724
0.0012277,0.028595,0.31602,-0.029363,-0.00043289,-0.03607,-0.015045,-0.0061276
0.0066452,-0.014466,-0.26274,0.15865,0.04687,0.018137,0.0073718,-0.0075352
-0.02576,0.047484,-0.07058,-0.071524,-0.068837,-0.052145,-0.056177,-0.016141
0.0058392,0.02804,0.027207,0.068892,0.050804,0.034348,0.020867,0.022857
0.01551,0.083697,-0.062226,-0.1398,-0.06323,-0.011535,-0.0036867,0.0078743
0.049852,-0.051949,0.28553,0.12904,0.065177,0.020968,0.018626,0.0090808
-0.040091,0.033419,0.40415,-0.1185,-0.033279,-0.016816,-0.021513,-0.020634
-0.0049884,-0.0063666,0.047789,0.19401,0.047064,0.0076638,-0.0068429,-0.0034275
-0.0017944,-0.064569,-0.6082,-0.10661,0.0088251,0.016032,0.015823,-0.0098874
-0.015489,0.043963,0.15083,-0.13817,-0.054572,-0.023157,-0.0081833,-0.0089943
0.00040473,-0.096446,-0.37335,0.19323,0.013068,0.0071826,0.030472,0.022535
0.0066968,-0.048875,-0.064753,-0.31457,-0.061441,-0.033558,-0.008933,0.0065081
0.0035453,0.077832,0.35849,0.27747,0.05837,0.05789,0.029724,0.021076
0.0069797,0.058622,0.1328,-0.099161,-0.0174,-0.015092,-0.041167,-0.019586
-0.013678,-0.03401,-0.15303,0.049418,0.0089002,-0.041232,-0.041971,-0.02935
-0.0031008,-0.025729,-0.011738,0.021304,-0.010491,0.011085,0.027358,0.015473
0.00024719,0.015496,0.481,0.059229,0.042068,0.0093829,-0.0049119,-0.017648
0.028083,0.02906,-0.25117,-0.024497,0.018295,0.05548,0.064559,0.043434
0.0025526,0.070887,-0.13681,-0.011931,0.0039877,-0.037988,-0.053052,-0.027626
-0.0059828,-0.014765,-0.1674,-0.076136,-0.055913,-0.013217,0.017467,0.011472
-0.02112,-0.10306,-0.18615,-0.062134,-0.0056559,-0.018789,-0.028444,-0.0033493
-0.035368,-0.038409,0.47148,0.17742,0.013622,0.0075257,-0.011092,-0.025367
0.075855,0.10005,-0.39733,-0.16291,-0.021954,0.034112,0.061578,0.046708
-0.023828,-0.095061,0.11363,0.080645,0.012299,-0.017575,-0.037269,-0.014043
0.0011312,0.086061,0.17565,-0.060569,-0.016633,0.00046785,0.020112,0.0029446
-0.0057931,0.0017803,0.40474,0.12478,0.039573,0.0097256,-0.0088936,-0.0042177
-0.013476,-0.01279,-0.26311,-0.026823,-0.0066554,-0.013531,0.008129,-0.012301
-0.021882,0.0026959,-0.087224,-0.132,0.016509,0.016494,-0.0072341,-0.013539
0.03167,-0.0067771,-0.27165,0.1222,0.015293,-0.032961,-0.016032,0.015639
-0.024423,-0.056899,0.050803,0.017335,-0.0024524,0.033669,-0.0025387,-0.0026025
0.044524,0.10251,0.0062155,-0.055831,-0.036578,-0.025366,-0.013321,-0.0053643
0.012236,-0.067251,-0.03637,0.012081,-0.032106,0.0092556,0.045836,0.031223
-0.0038754,-0.0032011,-0.012396,0.010079,0.011394,0.0053468,-0.012028,-0.0096388
-0.066166,0.0060914,0.20468,0.039689,-0.022751,-0.044322,-0.053589,-0.049548
0.020735,-0.031145,0.068345,-0.14125,0.030018,0.048186,0.062165,0.052238
0.0068063,0.11191,0.26498,0.12364,0.03725,-0.021606,-0.039573,-0.032466
0.016954,-0.033422,-0.43452,-0.11079,0.014702,0.035301,0.055222,0.047678
0.0041424,-0.068858,0.044442,0.07747,-0.0065178,0.0076342,0.0025514,0.0032671
0.0072218,0.08342,0.34661,0.1025,0.0044436,-0.0035941,-0.018295,-0.017645
-0.02093,-0.076999,-0.68737,-0.19996,-0.046729,-0.030297,-0.015579,-0.023217
-0.0024457,0.0041266,0.35477,0.083692,-0.012217,0.0049963,-0.013139,-0.0058768
-0.015692,-0.017368,-0.21457,-0.00037466,0.0058669,-0.038872,-0.026873,-0.020409
0.0016261,0.045678,0.39525,0.039166,0.0071283,0.033083,0.013421,0.011354
0.025916,0.013346,-0.00025047,0.029582,0.022638,0.0098366,0.037476,0.034866
0.010213,0.018366,-0.31912,0.017114,-0.0022465,-0.014714,-0.0092446,-0.004386
0.024819,0.06083,-0.041737,-0.068736,0.010855,0.03789,0.021893,0.026565
-0.039559,-0.1324,0.13221,0.03029,-0.00013644,-0.019396,-0.017366,-0.020623
-0.010864,0.0094842,0.15028,-0.01279,-0.0034458,-0.014197,-0.017517,-0.013113
-0.037259,-0.05973,-0.049375,-0.1728,-0.06102,-0.0085406,0.021498,-0.01343
0.0065871,0.0044111,0.12595,-0.025814,-0.023931,-0.0098711,-0.033147,-0.0060034
0.050693,0.10095,-0.30289,0.070733,0.069085,0.028898,0.021598,0.016923
0.025013,0.074026,0.17617,0.26665,0.030621,0.014031,0.013745,0.024059
-0.0078033,-0.037259,0.16858,-0.10949,0.0089352,-0.015589,-0.0021522,-0.008053
-0.055557,-0.030044,-0.24318,0.090068,0.0036079,-0.02125,-0.065279,-0.05597
0.030074,-0.045457,-0.077151,-0.16757,-0.02499,0.066918,0.097712,0.067836
-0.0089226,-0.052846,0.025145,0.084006,-0.022745,-0.024975,-0.021017,-0.019399
0.0069196,0.025383,-0.06837,-0.079555,-0.02135,-0.039476,-0.030785,-0.012918
0.0071046,0.087334,0.18357,0.011477,0.0024243,-0.01584,-0.0095612,0.0014301
0.0071677,0.023596,-0.036098,-0.0036428,-0.013849,0.014697,0.019461,0.023751
-0.0084792,-0.0092782,0.23732,0.038782,0.070775,0.021097,-0.013721,-0.016142
-0.01623,-0.057528,-0.31284,-0.14185,-0.032282,0.0037146,0.0084125,-0.00092758
-0.0080029,-0.042141,0.07428,-0.012846,-0.025617,-0.021411,0.015838,-0.008596
-0.014743,-0.040253,-0.18524,0.16986,0.044356,0.016415,-0.01469,2.6109e-05
0.01849,0.034939,0.15147,0.0018747,-0.017378,-0.007537,-0.012818,-0.0062505
-0.0019501,0.019858,0.1774,0.031523,0.03145,0.016217,-0.0021167,0.0038055
0.041017,0.015951,-0.22674,-0.06076,-0.043676,0.0094879,0.048356,0.037887
0.0064215,0.092693,0.31866,0.045291,-0.0009032,-0.012317,-0.01028,-0.021417
0.010916,0.014192,-0.13547,-0.17455,0.010868,-0.0026359,-0.0066674,0.0052699
-0.039883,-0.041833,-0.22572,0.17686,0.014559,-0.016503,-0.027248,-0.015222
-0.013761,0.039745,0.076026,-0.081733,-0.037199,-0.022981,0.0056923,-0.005119
-0.020531,-0.14125,0.11148,0.040374,0.027076,0.024569,-0.017469,-0.0037733
0.009933,-0.031166,0.012784,0.11236,0.035265,0.040083,0.036029,0.027696
0.015225,0.026106,-0.18812,-0.15543,-0.036127,-0.023332,-0.01335,-0.02013
0.02695,0.0079189,-0.15347,-0.12229,-0.01509,0.0141,0.030023,0.03254
-0.024667,0.017362,0.3067,0.095291,-0.026319,-0.058388,-0.052169,-0.040612
-0.0061891,0.032943,-0.00029639,-0.0093441,0.0087251,0.017247,0.0061782,-0.0048633
0.0048674,0.041034,0.068469,0.14329,0.043624,0.022505,0.018023,-0.0004317
0.009003,0.012101,-0.0087653,-0.062677,0.0084787,0.0044955,0.014989,0.019958
-0.0090772,-0.083897,-0.074771,0.014413,-0.002644,0.010281,-0.010496,0.0097624
0.028881,0.073963,0.081802,-0.0075911,-0.0051814,-0.014703,-0.0036527,-0.0073674
-0.0099983,0.032593,-0.046756,0.035639,-0.022504,-0.015713,-0.0036003,0.0076999
-0.0087516,-0.14592,-0.12447,-0.074708,0.023488,0.030688,0.028554,0.0080167
-0.01458,0.061122,-0.10438,0.0048268,-9.5557e-05,-0.0083434,-0.03243,-0.03004
-0.012232,-0.058091,0.013645,-0.12465,-0.069928,-0.015673,0.0084986,0.010463
0.0057355,0.034557,0.15918,0.044115,0.016981,-0.022618,-0.020777,-0.01138
0.01555,0.033452,0.11284,0.19791,0.041705,0.0097952,-0.0032678,-0.0098974
0.024745,0.070543,-0.25959,-0.17974,0.0040058,0.011125,0.045251,0.038119
-0.021571,-0.073672,0.094285,0.1993,0.028584,0.020251,-0.031576,-0.015949
-0.014145,0.022114,0.40589,-0.079984,-0.017712,0.0056906,0.00054972,-0.015973
0.023568,-0.017413,-0.24981,-0.065238,0.0054296,0.014058,0.040016,0.037984
0.0057312,-0.020355,0.069808,0.079075,-0.011575,-0.0095691,-0.02258,-0.010315
-0.028372,0.013679,-0.2852,-0.16254,-0.045316,-0.04971,-0.023169,-0.012339
-0.00028309,-0.0083195,-0.025573,0.038777,-0.0096593,0.0030059,0.0070477,-0.0069723
0.0044741,0.024028,0.046083,0.13742,0.048927,0.023741,-0.0099587,0.0060463
-0.0058495,-0.083472,-0.16025,-0.15406,-0.017441,-0.010631,0.027514,-0.012031
0.0082045,0.068666,0.2664,0.025388,0.0027649,-0.0059502,-0.0053634,0.0016249
0.015669,-0.0031481,0.018321,0.036535,0.039747,0.030397,-0.006851,0.008236
-0.014594,0.021763,-0.056806,0.013042,-0.038975,-0.0106,0.0075921,0.00017736
0.0032641,0.0026365,0.10585,0.16595,-0.0067543,-0.0036991,-0.0087759,0.016558
0.0064552,0.0013399,0.03008,-0.20073,0.026851,0.027741,0.014441,0.0025797
-0.013281,0.0012254,0.058043,0.052285,0.0067357,-0.041362,-0.047733,-0.034199
0.021642,-0.03019,-0.25085,-0.061173,-0.028613,0.015345,0.031219,0.030869
-0.0065034,0.015246,0.068264,0.019493,0.021734,0.010067,0.01681,-0.0057243
0.011208,0.027157,-0.011923,0.066014,-0.0068586,-0.010637,0.010441,0.0041133
-0.027065,-0.081009,0.14609,0.045918,-0.0054281,-0.00017925,0.0041083,-0.0023559
-0.027631,-0.035949,-0.23297,-0.088201,-0.005403,-0.029097,-0.049241,-0.040847
0.025301,0.12362,0.13178,-0.093897,-0.014512,0.019654,0.022134,0.029332
0.0070908,-0.0078118,-0.078914,0.076711,0.014443,0.036637,-0.00057616,-0.01037
-0.0036601,-0.077677,-0.36301,-0.066982,-0.019603,-0.032835,-0.023608,-0.0034325
0.024807,0.11044,0.81321,0.24253,0.063608,0.0065971,-1.5003e-05,0.019173
0.0070099,-0.075262,-0.40742,-0.21165,-0.055695,-0.0012458,0.054671,0.026416
-0.048909,-0.055838,-0.11721,0.0016506,0.01352,-0.0015923,-0.023529,-0.020647
-0.0021561,-0.0026964,0.21537,-0.022956,-0.0019748,-0.0099797,-0.0080086,-0.012633
0.030072,0.092049,-0.24649,0.089631,-0.016258,0.020555,0.0153,0.011317
0.016359,0.064018,0.47976,0.15125,0.064195,-0.003646,-0.016127,-0.011428
0.011105,-0.0092972,-0.15501,-0.11281,-0.018806,0.00345,0.0070649,0.0049409
-0.017288,-0.050571,-0.059111,-0.040073,-0.0078806,0.0028862,0.0067576,0.013452
-0.053541,-0.099657,-0.27289,0.016326,0.002832,-0.028663,-0.03262,-0.040621
0.0036161,-0.00093062,0.0082746,-0.085446,-0.049428,0.018284,0.014034,0.0067993
0.036791,0.034307,0.027811,-0.033527,-0.024124,-0.028069,0.0062179,0.022946
0.022438,0.013781,-0.047943,-0.023236,0.0085072,0.011985,0.0065447,0.015674
-0.016034,0.11731,0.32285,0.15689,0.056454,0.005566,-0.031809,-0.03063
-0.03171,-0.05329,0.08811,0.031114,0.049601,0.038444,0.00048746,0.0011782
0.037995,-0.075852,-0.27376,-0.055906,-0.035347,0.0088067,0.064215,0.032881
0.0057028,0.018613,-0.090245,-0.0175,-0.018659,-0.013323,0.0028728,0.0096687
-0.019066,0.0036834,0.067681,0.013949,-0.0097703,-0.043827,-0.035399,-0.037319
-0.028334,-0.0034417,0.29971,-0.047424,-0.040068,-0.0047424,-0.011805,-0.014393
0.0093196,-0.018516,-0.30309,0.016879,0.030899,-0.0054543,-0.012441,0.00034111
