0.010084,-0.0097623,0.0047543,0.0049507,0.0063614,-0.0039064,-0.0022117,-0.014676
-0.0061462,-0.0021064,-0.011291,-0.010037,-0.0018359,0.0035987,-0.0090437,-0.0067121
0.0010572,0.0055923,0.003508,-0.0019097,-0.0021822,0.0035156,0.0073278,-0.0070152
0.0083024,-0.0022747,0.0023299,-0.001991,-0.0024597,0.011441,-0.0078589,6.6405e-05
-0.0077879,-0.0022795,-0.006887,-0.002454,-0.0026374,-0.0039555,0.0078681,0.0068242
-0.00027811,0.021166,-0.00052778,0.012428,-0.0026819,0.0040791,-0.0079697,0.0056015
-0.0081874,-0.010123,0.0059806,-0.0040537,-0.010372,0.0041631,-0.00061794,0.0043823
0.015371,-0.0024634,-0.0028054,-0.0048254,0.013376,-0.011623,0.014398,0.0033184
5.7246e-05,-0.010597,0.0044954,0.0024882,0.0060628,-0.0042627,-0.009681,-0.0052972
-0.0073206,0.0045146,0.0045033,-0.0054115,-0.001099,-0.012785,0.0053843,-0.0057927
0.016583,0.0038255,-0.0028059,0.0027847,-0.00037258,0.0098003,-0.002811,0.0018212
-0.0064508,0.0030233,0.005909,0.019229,-0.0074921,0.0011675,-0.010769,0.0018636
-0.013996,-0.013419,-0.0085603,-0.010893,0.0086667,0.0083843,0.0049638,-0.0057494
0.0017321,0.0093043,-0.0073148,-0.0018362,0.0011097,0.00036655,0.0052863,0.01014
0.0016991,0.00099605,0.0016828,-0.00069775,-0.0068135,-0.0071617,-0.0020788,-0.0052372
-0.0062023,0.00081176,0.0026963,0.00013001,0.0004843,0.0092443,0.0061726,-0.0050646
0.009392,0.00099212,0.011293,0.00050115,-0.0082247,0.0026218,-0.0013659,0.010633
0.0017271,0.0015422,-0.0037771,-0.0074548,0.0062001,-0.0037575,-0.0014068,-0.012821
0.0021487,-0.0053935,-0.011216,-0.0080729,-0.0029983,-0.010103,0.0059403,0.010555
-0.0049216,0.0035394,-0.0031279,0.014398,0.0033763,0.0068087,-0.0027993,0.0027046
0.0039374,-0.0030192,0.0049537,-0.0023574,0.0020096,-7.0855e-05,-0.011946,-0.012857
-0.0026042,-0.0017543,0.0052963,-0.0034499,0.0086191,0.00040203,0.0020884,0.0030051
-0.0012387,-0.00059869,0.0057579,0.0113,-0.00018049,0.00039344,-0.0073496,0.0034665
6.3744e-05,0.00034117,-0.0014739,-0.0048576,-0.0087493,-0.015661,-0.00094208,-0.0036477
0.0089595,0.0087946,-0.0008194,0.0028157,-0.001471,0.0070512,0.0059185,0.0050665
-0.005927,-0.0065409,-0.0079826,-0.0047657,-0.0017976,0.0061852,0.013389,0.0060912
-0.0056043,0.0090061,0.00038162,0.0035631,0.0058921,-0.0024813,0.0058888,-0.0085041
0.0021131,-0.0070409,0.0085648,-0.0035701,-0.0018235,0.01242,-0.0010398,0.00802
-0.0061442,-0.0077434,-0.0069252,-0.0028596,-0.0014718,0.0040779,-0.0075842,0.00084687
0.0088107,-0.000817,0.00077294,0.0055794,-0.0086346,-0.011872,0.0016315,-0.014496
-0.0075537,0.0060444,0.00043953,-0.00177,0.0079714,-0.0042137,-0.004894,0.0010086
0.007418,0.0051505,-4.5953e-05,-0.0093179,0.0014733,-0.0042537,-0.0039206,0.00049581
-0.00083809,-0.0033914,-0.0084083,0.0063813,0.0030742,0.0035762,-0.011176,-0.00034497
0.0068076,-0.0038813,0.0066898,0.0063058,-0.0029558,0.0036098,0.012407,0.0063992
-0.0087096,0.0037139,0.0062513,-0.0094867,0.0066616,0.003643,-0.0033791,0.0052188
-0.00058488,0.0037587,-0.0018841,0.013749,-0.007331,-0.0041298,0.0041285,-0.0037758
0.0076206,0.0040181,-0.0021088,-0.0098794,0.0017399,-0.0040595,0.0038591,0.0029441
-0.0076834,-0.011203,-0.0022916,-0.0022237,0.0024523,0.0038835,-0.0040397,-0.0058058
0.0002257,0.0048921,0.0053031,0.0054681,0.0025102,-0.0037154,0.0039499,0.0012655
0.0077891,-0.0024518,0.012791,-0.0024444,-0.0059178,0.004399,0.0043875,0.00074123
-0.00068342,-0.0098484,-0.011118,0.005266,-0.0071254,0.0047703,-0.0028089,-0.0073733
-0.0095603,0.006109,-0.01172,0.0051432,-0.00093955,-0.0026443,-0.0021517,0.00035136
-0.0031346,0.0063428,-0.0045593,-0.01063,-0.0027479,-0.0022788,-0.0016109,0.00045637
0.010927,-0.0013412,0.0026846,-0.010788,0.011148,-0.0020076,-0.0013245,0.0085312
-0.014064,0.0064893,0.0023586,0.004701,0.0019224,0.0059321,0.006435,0.0089021
0.0080212,-0.0014208,0.010231,0.004628,0.0088127,-0.0019202,-0.0095944,-0.0063
0.0070366,-0.0016362,-0.0048616,0.0046504,-0.0071601,-0.0021154,-0.0024736,-0.0058799
-0.0012855,-0.0097754,0.0039516,-0.0030336,-0.0069464,-0.010231,-0.011141,-0.005505
-0.0012867,-0.0023802,0.005316,0.0049941,0.001543,0.0050548,0.019248,-0.0051971
0.0069903,0.0049596,-0.00096242,0.0052493,0.0025256,0.0047643,0.01072,0.010669
-0.0078114,0.0044773,-0.0073197,-0.0023289,0.0036303,0.0045955,-0.0053593,0.0030471
-0.0067768,-0.0037791,0.0016143,-0.0099832,-0.0031314,-0.003218,-0.0054907,-0.0046013
0.0021208,0.0036702,0.0021931,-0.0021178,-0.0022735,0.0047689,-0.0053013,0.0033684
0.0031088,0.011232,-0.0057028,-0.0021607,-0.0095052,-0.0027262,0.0029658,0.0035282
0.0038851,-0.012324,0.0013591,0.0055627,0.0064008,-0.010144,0.0035931,-0.0041251
-0.0034315,0.0033286,-0.015572,0.0055039,0.0064151,0.005867,0.0042857,-0.0039786
-0.0032345,-0.0043005,0.014022,-0.010068,-0.0015763,-0.0016559,-0.010683,0.0039527
0.0045046,-0.011767,-0.0033512,0.0057839,0.0059581,0.0062746,-0.0023321,-0.0037796
0.004228,0.004363,0.010693,-0.0016137,-0.0099495,0.0061742,0.005851,0.0040725
-0.011786,0.0050059,-0.006134,-0.0010547,-0.0023454,-0.0097776,-0.0017798,-0.0037321
0.0034383,0.0057334,0.0088005,0.0073562,0.0053838,-0.010296,-0.0017842,0.0040739
0.003115,0.0064569,0.00084454,0.0078438,0.0054425,0.012509,0.0058553,-0.0037381
-0.0048771,-0.0007544,-0.0066179,-0.0075707,-0.0099993,-0.0037585,0.0055369,0.0041006
0.010744,-0.00040404,0.001919,3.0394e-05,0.0058876,-0.0042914,-0.0027157,-0.0036507
0.0030972,-0.008228,-0.01276,-0.0085008,-0.0016484,0.011018,-0.011066,-0.0035597
-0.01223,-0.00085311,0.0038778,-0.0097255,0.0063873,-0.0046289,0.0039502,0.0043512
0.003764,-0.0095257,-0.0029854,0.012079,-0.001313,-0.0043262,0.0033055,0.0044189
-0.0036752,0.0048938,0.013433,0.0024093,-0.0091585,0.0040899,0.0026704,0.0044092
0.0044521,0.0034821,-0.0016042,0.00056582,-0.0015292,0.0049209,-0.0057104,-0.0035361
-0.010965,-0.0057725,-0.0012297,-0.0088235,-0.0018382,-0.0019428,0.0016657,-0.011636
0.012546,0.016373,-0.0010432,0.0057128,0.0055849,0.0068112,0.0014278,0.0035413
-0.0031531,-0.00024027,-0.0088066,0.0052638,0.0051694,-0.015808,0.0014466,0.0029556
0.0044461,-0.00081504,0.0067944,-0.0023029,0.0047779,0.00042458,-0.0060538,0.0022837
-0.0036978,-0.0087346,-0.001049,0.006401,-0.0033636,0.00077909,-0.0054451,-0.0062168
-0.004112,-0.00055801,0.0067821,-0.0078303,-0.0036066,0.00088163,0.0032316,0.00096675
0.011064,0.00023941,-0.0087389,0.0016675,-0.0037515,0.0085829,0.004263,0.0082751
-0.0049835,0.0014025,-0.00072727,-0.0044085,-0.003793,-0.0073078,0.013145,-0.0076848
-0.0053142,-0.0049695,0.007362,0.0049621,0.0040834,0.00014826,0.0062892,0.0077919
-0.0054883,0.0044589,-0.0001365,-0.0016531,0.0042527,0.0075663,-0.008634,9.1382e-06
0.0023557,-0.001675,0.00016145,-0.000925,0.0045231,-0.00064513,-0.0161,0.00018966
-0.0052008,0.0077611,0.00038962,-0.00068832,-0.0029296,-0.0010357,-0.00051296,-0.007327
0.018693,0.0014,-0.0073057,-0.00088198,-0.010315,-0.0092346,-0.0086981,-0.0069499
0.0036569,-0.0052386,0.00049357,-0.0013794,0.0057685,-0.0018176,0.0063417,0.0091062
0.004271,0.0033887,0.0003553,-0.0020177,-0.0016029,0.0055762,0.013519,-0.0060546
-0.018647,-0.011827,0.00011777,0.0051805,-0.0012418,0.012939,-0.0026286,0.0022361
-0.0027047,0.0037987,-0.00018315,-0.0030892,0.0067807,-0.0031617,0.0048987,0.010518
0.0051581,0.0034277,0.007298,0.012312,0.0067689,-0.011459,-0.0029016,0.0031376
-0.0028787,-0.0050568,-0.0008574,-0.0032956,-0.0013337,-0.0041091,0.0052089,-0.0043107
-0.003325,0.0018714,-0.0090258,-0.0030936,-0.0097406,-0.0045105,-0.0020917,-0.0040389
0.0039172,0.0086791,0.0062098,-0.010622,-0.0028082,0.018623,-0.0092864,-0.0038676
-0.0044712,-0.00017713,0.0057551,0.0052461,-0.0039039,-0.0050002,-0.0008649,-0.011596
0.010682,-0.0090072,-0.0026071,0.013152,0.010527,0.0027434,-0.00036168,0.0040608
0.010389,0.013488,-0.003265,-0.0025985,-0.0062433,-0.0050511,-2.9244e-05,0.01971
-0.013132,-0.010779,-0.0040149,-0.010769,0.00062561,0.0028136,-0.0077112,-0.003668
0.0026001,-0.003649,-0.0048063,-0.0034952,0.0078253,0.0028364,0.01565,-0.003545
-0.0049662,0.0036648,0.010068,-0.0041101,-0.008001,-0.0050407,-0.00024779,-0.011165
0.0031635,-0.0044268,-0.0061658,0.0031446,0.0078507,-0.0052292,0.0071108,0.012519
-0.0043254,0.011169,0.0090938,0.002772,0.00064272,0.0022678,-0.0013174,0.0049751
-0.0040426,-0.012037,-0.0065721,0.010486,-0.0062946,0.0096738,-0.0098804,-0.010393
0.0039889,0.0040654,0.0015672,0.0028742,0.0025218,-0.006378,-0.010723,0.0054468
0.0041442,-0.0030808,0.0022551,0.0033295,0.0035052,0.001082,0.0040298,-0.010021
0.0042535,0.013305,-0.0045672,-0.0038754,-0.0034722,-0.0069086,0.011024,-0.0021113
-0.0034673,-0.0015911,0.004433,-0.018872,-0.0028693,0.00098423,0.002538,0.0057443
-0.0033606,-0.0010306,-0.0021305,0.012899,-0.0025262,0.0013686,-0.013528,-0.0020763
0.0046071,-0.00076115,0.0068453,-0.010217,-0.0024154,0.0020473,0.0097649,0.0056666
-0.0029707,-0.008676,-0.0078366,0.0054888,0.0053447,0.0029479,-0.0056839,0.0055075
-0.0026298,-0.0013559,0.00059893,0.0053421,-0.0025947,0.0039421,0.0026029,0.0052188
-0.0021655,-0.0021862,0.00085227,-0.010601,0.0050987,0.0048683,-0.00451,-0.0030493
0.0062367,0.0045731,0.0007438,0.0046126,0.0050437,-0.0022457,0.011926,-0.011497
-0.00088135,0.0034529,-0.0074781,0.004186,-0.0027414,-0.0018927,0.0049002,-0.0044669
-0.0079436,0.0024334,-0.00027732,0.0038041,-0.0026494,-0.017552,-0.010096,0.0024993
0.0084087,0.0016626,0.0068352,0.0034995,0.0052778,0.0055173,0.0058994,0.0017195
0.0011971,-0.0065697,-0.0016613,0.0032798,-0.010257,-0.0028561,-0.017474,-0.0066541
0.0015563,0.0012151,0.0055563,-0.012488,0.0053995,-0.0034086,-0.0020743,0.0087678
0.0015678,0.0015543,0.0050813,-0.0047511,-0.0024456,0.011885,0.005301,0.0011993
0.0011587,0.0021749,-0.010911,-0.012578,-0.0025172,0.0041342,0.0047671,0.0097127
-0.0074995,-0.004865,0.0044123,0.010907,-0.002579,0.0046752,0.0042607,-0.01265
-0.00091448,-0.0040921,-0.0036911,0.011014,0.0052386,-0.0021407,0.0038855,0.004259
-0.010209,0.012159,0.003796,0.0033563,-0.0024585,-0.0086338,0.0037032,0.005529
0.0038605,0.0047073,-0.0043959,0.0035267,0.0055908,0.0084167,-0.0040868,-0.0012607
0.01025,-0.010886,-0.0048148,-0.0041457,0.0059162,-0.0059331,-0.011705,-0.00068222
-0.0064767,-0.0033676,0.0025848,-0.0040851,-0.009371,-0.0050531,-0.0035901,-0.0084774
0.008502,-0.0039167,0.0022432,-0.011953,0.0064983,0.010872,0.012368,-0.0012175
0.00055139,0.0032216,0.0098513,0.0034911,-0.0012755,-0.0051198,-0.0029678,-0.010048
-0.0069291,-0.0052275,-0.0057933,0.0032068,-0.0015332,-0.0061274,-0.0027831,0.012102
0.0093814,0.0099615,-0.0056164,0.0028698,-0.009944,0.00017383,0.0050722,0.0029825
0.0024411,0.0098564,-0.0052764,0.0025457,0.0047602,-0.0016197,0.0049635,-0.0059078
-0.0044894,-0.0054701,0.0029591,-0.0055127,0.0035987,-0.0034309,-0.010902,0.0090663
-0.0037457,-0.004765,0.01116,0.0099947,-0.0054822,0.010624,0.0044004,0.0011383
-0.018854,-0.0037164,0.0035662,-0.0055946,0.0011168,0.0095033,0.0040663,0.0015593
0.0048545,0.0053742,0.0034915,-0.0054086,0.0079302,0.0011445,-0.01182,0.0024167
0.012736,-0.0010724,-0.0047679,0.010524,-0.0083509,-0.0066111,0.0036981,-0.01209
-0.0029393,0.0080495,-0.013404,-0.01253,0.0070353,-0.0060125,-0.0040076,0.0047019
0.012601,-0.01426,-0.0067044,0.0034987,-0.00058955,-0.0050037,0.0041466,-0.0099135
-0.0030782,-0.0055918,-0.00012177,0.0038651,-3.0111e-05,-0.0037583,0.012507,0.0064002
-0.010893,0.0027532,0.0065746,0.0041456,0.0007971,0.013161,-0.0024455,0.0066718
0.0047636,0.018574,0.0058134,-0.0035081,0.0017612,-0.0012984,-0.0017663,-0.0013051
0.0047771,-0.004989,0.0056052,-0.011302,-0.0050823,-0.00040822,-0.0012155,-0.0096638
-0.0031005,0.0024123,-0.001755,0.012014,-0.0042189,0.00010593,-0.0087263,-0.0026681
-0.003292,-0.021676,-0.0084666,-0.0038536,-0.0035357,0.0080134,-0.00094015,0.012014
0.0041873,0.0087362,0.0087728,-0.0041829,0.004744,-0.0079159,0.0065001,0.0032815
-0.0040728,0.007764,0.0028532,0.011073,-0.00282,-0.0085394,-0.0019821,-0.0052955
-0.01238,0.0067126,0.0047329,0.0029076,0.012852,-0.0093537,-0.0028419,-0.0058109
0.0027961,-0.002174,-0.0093168,-0.0051785,-0.0029026,0.013233,0.0040666,0.0095954
0.0103,-0.011022,-0.0082804,-0.0053064,0.0046281,0.012496,0.0032774,-0.005951
0.002391,-0.0041399,-0.00010361,-0.0052256,-0.011408,-0.003629,-0.0050655,0.0021995
0.018164,0.0029205,-0.00042096,-0.0048872,0.0037009,-0.0038242,0.0025809,0.0027334
-0.012708,0.010231,-0.0013094,0.0035414,-0.0046985,-0.0037071,0.0028287,-0.0044226
-0.012151,-0.0055841,0.0052462,0.020037,0.0025015,-0.0033302,-0.0043355,-0.0037111
-0.0036722,0.010203,0.0038717,-0.0023505,0.0019197,0.0050204,-0.0033614,0.0048168
0.0048442,-0.020526,0.0026297,-0.0090571,-0.0063845,0.0055948,0.0056265,0.0055077
0.0055279,0.0037593,0.0017256,-0.00023822,0.0010785,-0.001733,-0.00096576,-0.0094586
-0.0094728,0.01267,-0.0065222,0.0005094,0.0087164,-0.0014413,0.00013482,-0.0010126
0.0066944,-0.0017222,0.0013664,0.0086799,0.00090998,-0.0014033,0.0087811,-0.00039491
-0.00067169,-0.00049968,0.0019126,-0.0070503,0.0010729,-0.009438,-0.0063827,0.0080189
0.0074803,0.00055498,-0.0049934,-0.0076167,-0.0064677,0.0057519,-0.0063403,-0.0070423
-0.00011189,-0.014331,0.0039326,-0.0085651,-0.0061478,-0.0026192,-0.0066962,0.0090623
-0.0078353,0.009413,-0.0027287,0.0058702,0.0097844,0.0046211,0.0082566,0.0015778
0.0077416,0.0092239,-0.0016989,0.0046119,-0.0055945,0.0041414,-0.00042013,-0.0061336
-0.0080623,-0.0070843,0.0068947,0.011266,0.0023755,-0.0039784,-0.0013368,0.0014895
-0.0083499,-0.0003771,-0.00046681,0.0025296,0.0024411,0.0037396,0.0056317,0.0009787
0.006914,-0.0017671,-0.0081872,-0.0058959,-0.0053781,0.0038562,-0.0028661,-0.007648
-0.0012926,-0.0032563,-0.00061949,0.0016333,0.0023925,-0.0036645,0.012266,-0.00088003
0.01394,-0.0046382,-0.0011378,-0.0061641,0.0023613,-0.0032529,-0.011488,0.0057793
-0.0020588,0.0099057,0.013787,-0.0059146,-0.0054257,-0.0027794,0.003941,-0.0031438
-0.010229,-0.0063556,-0.0026185,-0.0055097,0.0025064,-0.010105,-0.0040179,0.0037531
-0.0027814,0.0091432,-0.0033781,0.010595,0.0027424,0.013799,-0.004178,-0.0046564
0.0046235,0.0016848,0.0037816,0.0032611,0.0031001,-0.0014011,0.0034233,-0.004867
0.0041386,-0.0054162,-0.012325,0.0036704,-0.0042434,0.0067799,-0.0046541,0.01093
0.0035564,0.0032706,-0.0047838,-0.0038611,0.004128,-0.0085505,0.00287,0.01141
0.002885,0.004079,0.010787,-0.0037543,-0.010874,-0.00054146,0.0026106,-0.0035577
-0.013456,-0.0032077,0.010929,0.0039638,0.0054135,0.0073398,0.0024389,-0.0028754
-0.0063223,-0.010936,-0.0044083,0.003666,-0.00172,-0.00056179,-0.0054085,-0.01012
0.008771,0.0042672,-0.0040405,-0.012432,-0.0010454,-0.00082999,0.010347,-0.0097556
0.00068932,0.0033835,0.0041499,0.0026005,0.0074145,-0.0090933,-0.0049794,0.0060071
-0.0070363,-0.0056239,-0.011145,0.0019697,0.00019394,0.0059188,-0.0045319,0.0059655
0.001261,0.00091146,-0.003082,0.0013922,-0.0071166,-0.002624,0.0038419,-0.0019704
0.017739,-0.00018398,0.0048983,0.00095741,0.0010696,-0.0034084,-0.0033368,-0.0020598
-0.004587,-0.0008502,0.0050108,0.00073852,0.0090921,0.0036359,-0.0026703,0.0057974
-0.0033884,-0.00090564,0.0051166,0.00078245,-0.006511,0.0029494,0.0058082,0.0060315
0.0055041,0.015353,-0.0025371,0.0089178,-0.006681,0.010206,-0.0013655,-0.0013619
-0.009354,0.0010114,-0.0022649,-0.013932,0.0086058,-0.0058148,-0.00077621,-0.00082077
0.0065858,-0.0050213,-0.0018275,-0.0053053,0.00034043,-0.0060429,-0.00025845,-0.0080746
-0.0092266,-0.0029782,-0.0011904,0.0034874,-0.00014615,-0.0061096,0.00016252,0.00019369
-0.0098628,-0.00094317,-0.008157,0.0045597,-0.00056838,0.0017826,-0.0073552,0.0082514
0.0048243,-0.0069899,0.0084975,0.0056394,-0.0086396,0.009802,0.01622,-0.0074101
0.0037922,-0.0057041,0.0018322,-0.0011755,-0.0086554,-0.0055109,0.00055007,6.3365e-05
0.0028872,0.0027802,-0.004823,-0.00034688,0.0072342,0.0026933,0.00031253,-0.00054639
0.010107,0.010603,0.011829,-0.0075736,0.01557,-0.004678,-0.015727,-0.009165
-0.005687,0.0021712,0.0047578,0.00053086,0.0084554,0.0035898,-0.00064845,0.013369
0.002395,0.0088368,-0.010552,0.00050977,-0.0064372,0.0040214,-0.001251,0.004657
0.0030269,-0.016125,-0.0029454,0.0080049,-0.0058345,-0.0034203,0.0059928,-0.0039643
-0.0039355,-0.0022188,0.0041193,-0.0081812,-0.0055148,-0.0031412,0.0055445,0.0031889
-0.010857,0.0038737,-0.012728,0.0067226,-0.0055826,-0.0029735,-0.0025348,-0.0051038
0.0055318,-0.0054745,0.0013527,-0.001865,0.0017437,0.012702,0.005213,0.0024121
-0.0017755,0.0089539,0.0075117,-0.0025776,0.00088989,-0.010791,-0.0024886,-0.0055254
-0.0015982,-0.0074239,-0.0018287,-0.003116,-0.00021286,-0.0031172,-0.0022685,-0.0054996
0.0060592,0.0079329,0.0047911,-0.0033894,-0.0014051,0.0045044,-0.0020299,0.0024634
-0.0021875,0.00030853,-0.0037365,0.0044677,0.013104,0.012108,0.0059465,0.01052
-0.0028072,0.00086215,-0.0039291,0.0048339,-0.0034211,-0.011524,-0.0096628,-0.0048058
0.0043139,0.0016457,0.011965,0.0054703,0.011615,-0.0038692,0.0057917,0.0033137
0.0036637,-0.013121,0.004731,-0.0015356,-0.01206,0.0038367,-0.0023714,0.0035755
0.0031513,0.011105,-0.0024026,-0.0085045,-0.011952,0.0037842,-0.0028544,-0.011885
-0.0049656,-0.0039144,-0.0018392,0.0078592,0.004081,-0.0040334,0.0044209,0.003767
-0.012837,-0.0035498,-0.0093758,-0.0072576,0.0047216,0.003807,-0.0038916,0.0036356
0.0029807,0.0043851,-0.0094749,0.0007444,-0.0023002,-0.003963,0.0035435,0.003353
0.011208,-0.003495,0.0056923,-0.0072357,-0.0014505,0.0038888,0.0033519,-0.012671
-0.0038394,-0.0036625,-0.0028242,6.3212e-05,0.0071749,-0.003901,0.0033768,0.0024962
0.0046289,0.011802,0.0042147,0.0070679,4.2139e-05,0.003912,-0.0041974,0.0020469
-0.0025512,-0.0038767,0.0035661,0.0060432,0.00050001,-0.0039193,-0.0037772,0.0016689
-0.0020465,-0.0037513,0.011019,0.0048896,0.00066604,-0.0039477,0.0045881,0.0014043
-0.0017598,0.0043967,-0.0045824,0.003696,-0.0073107,0.0038395,-0.010408,0.0012643
-0.0017525,-0.002886,0.0036453,-0.02089,1.1367e-05,0.0038277,0.0058651,0.0012262
0.0057682,0.0055919,-0.011249,0.0015246,0.0070587,0.0038326,-0.0013309,0.0012404
0.0052048,-0.0093225,-0.0025308,0.00069959,-0.0095112,-0.0039641,-0.00079446,0.0012442
-0.011183,0.0069534,0.0061954,0.00013171,0.0051148,-0.0039526,0.0074285,-0.0066322
0.0035874,-0.0003687,0.0069539,-0.00014321,-0.0036154,-0.0039673,0.0076686,-0.0068
-0.012861,-0.0001166,-0.0081935,0.0076898,-0.0043317,0.0037795,-0.015738,0.00073673
0.0099017,-0.00014459,-0.0080656,0.0079701,0.010861,-0.0041738,-0.00031956,0.0081937
0.0016486,-0.0082638,-0.00047926,0.00062781,0.0029273,0.019029,0.0070426,-2.971e-07
0.0092916,-0.00099405,0.0068061,-0.006615,-0.0047241,-0.0047429,-0.0014435,-0.00034097
-0.0062524,0.0061145,0.0060718,-0.01385,0.011266,-0.0051682,-0.0022874,-0.00057466
0.0018212,0.0053408,-0.002569,0.0022856,-0.011708,-0.013464,0.0045941,0.0071657
0.0099751,0.0045894,-0.0033798,0.0026852,0.0043726,0.0016747,-0.0041299,-0.0083337
-0.013141,-0.0038744,0.0037358,0.0029615,-0.010886,0.009069,-0.0049049,-0.00018298
-0.0051004,-0.012184,0.0032269,0.0031286,-0.0028393,0.00098151,0.0023785,-0.007451
-0.0049898,-0.0046909,0.0029592,0.0032164,-0.0027423,0.00091261,0.0021781,0.0088986
0.0028421,0.010787,-0.0048433,-0.004553,0.0050531,0.0010869,0.0023449,0.0019474
0.0028357,0.018593,-0.012345,0.0032904,0.012764,0.0015066,0.0028622,0.0028883
0.0028831,-0.02039,-0.0039129,0.0033358,0.0047844,-0.0056745,-0.0041566,-0.0039686
0.0030483,0.0031516,0.0048115,-0.012209,-0.0032636,-0.0048968,0.0046043,-0.0030635
0.0033559,0.003227,0.0059623,-0.0042659,-0.0035868,0.0037528,-0.010068,0.0055465
-0.0040324,-0.0045732,0.0072505,0.0037337,-0.0040201,0.0045528,0.006363,-0.0094308
0.012062,0.0031844,0.0085249,0.0039752,-0.0045696,-0.0025891,0.0068944,-0.001144
-0.01096,-0.0047235,-0.0060264,0.01207,0.0026026,0.0056895,-0.00073667,0.0069648
-0.010696,-0.0048096,-0.0053475,0.0045566,-0.0058793,-0.0019056,-0.0087264,0.0070952
0.0049706,0.0029831,-0.0052263,-0.018591,0.0013262,-0.0019417,-0.0092003,-0.00072731
0.0047665,0.0030743,0.0020545,0.0051085,0.0086974,-0.010004,-0.0020371,-0.0086539
-0.0034662,0.0032916,-0.0069433,-0.010289,0.00070262,0.0052368,0.012919,-0.001015
-0.0040264,0.003611,0.0069446,-0.0022701,0.00084181,-0.0029858,0.0045723,-0.0011987
0.0031911,0.0039727,-0.0029652,0.013562,0.0013213,0.01232,-0.0035159,0.0064692
0.010484,-0.0035158,0.0026413,-0.0018296,-0.0056995,-0.0034302,0.0043434,-0.0014074
-0.0054929,-0.0033053,0.00059674,0.0062531,-0.0046642,-0.0032892,-0.0031036,-0.0013658
-0.0056237,-0.011067,-0.0010424,-0.0012609,0.0043316,0.0049542,0.005327,-0.0012168
0.0022859,0.0044518,0.0057161,-0.0087777,0.0055559,-0.0099798,-0.0095365,-0.0009866
-0.0052427,0.0042438,-0.010288,-0.00071974,-0.0010929,-0.0012978,-0.00094567,0.0070841
0.018586,-0.0037799,0.013433,0.0072356,-0.0078851,0.0074389,-0.00026784,-0.00051567
-0.0044513,0.0039356,-0.001345,-0.00058123,0.0085612,0.0082685,0.00022166,-0.00043035
-0.0041398,-0.011566,-0.00010325,-0.00075722,-0.014279,-0.0067729,0.00047604,-0.0083593
-0.011801,0.012278,-0.0064786,-0.0011018,0.009532,0.0012504,0.0083039,0.0068973
0.0037864,0.0051571,-0.00504,-0.0093949,0.0018886,0.0010127,0.00030086,-0.0015475
-0.0042361,0.0060663,0.0040552,0.0056706,0.0018786,-0.0074906,-0.015662,-0.0024093
0.011067,-0.0085571,-0.00273,0.0051025,-0.0061007,-0.00074705,0.0073589,0.0043934
0.0029067,0.00019307,0.0058176,-0.0032171,0.0014019,-0.0020484,-0.00088304,0.0033552
-0.0051862,-0.006899,-0.0015331,0.0042044,0.0087659,0.0044231,0.0065352,-0.013194
0.0024932,-0.0065136,-0.0012875,-0.0038526,-0.0074453,-0.012379,-0.0016134,0.0017631
-0.0052534,0.0091025,-0.0011855,0.0038644,-0.00035088,0.01803,0.0059175,0.0014675
-0.0049724,0.00089444,-0.0011601,0.0038958,-0.0011794,0.0020083,-0.009959,0.0094223
0.011128,0.0001793,0.0066457,-0.019422,0.0057387,0.0020761,-0.0024015,-0.0056257
0.0039357,-0.0085603,0.0066212,0.019806,-0.0029639,-0.0052719,0.0051234,0.0031203
-0.0031792,0.013861,-0.0090592,-0.011274,-0.0037581,-0.0045489,0.0047907,0.0042649
0.0053407,-0.010571,-0.0013623,0.0045023,-0.0043563,0.0040692,-0.0033875,-0.0023822
-0.017433,0.0041629,-0.0015665,0.004625,0.0031447,0.0047834,-0.011561,-0.0092124
-0.0012161,0.011225,0.0059427,-0.010898,0.0031793,-0.010355,0.011578,-0.00078148
-0.00070148,-0.012825,-0.0022518,0.004827,0.0035696,-0.0023568,-0.0042199,0.014973
0.0075592,0.0022918,-0.0026575,-0.0028638,-0.0035484,-0.0024739,0.0036017,-0.0088696
0.0079518,0.0096555,-0.0030033,0.0051094,0.005152,-0.0028327,-0.0039915,-0.0019531
0.00047362,-0.014208,-0.003193,-0.0024995,-0.0017339,0.012294,-0.0035729,-0.0032121
0.00072581,0.0010002,0.0046727,0.0055444,0.0068714,0.0039579,0.012614,-0.0046426
-0.0069587,0.00061254,0.0050226,-0.0020424,-0.008251,0.0035114,-0.0024035,0.0096019
0.00080841,0.00030008,0.0056707,-0.0018693,-0.0081481,-0.0045984,0.0059399,0.00067235
-0.0072628,0.00012245,-0.0090664,-0.0017997,0.0071403,-0.0047084,-0.017169,-1.3874e-05
0.0078736,0.00013203,0.0075726,0.0059346,-0.0092243,0.0031902,0.0062926,-0.00017604
-0.00064089,0.00035305,-0.0070628,-0.0099455,0.0053616,-0.0043511,0.005959,0.00019163
-0.0015054,0.00076685,0.0015536,-0.002574,-0.0036433,-0.01173,-0.0025362,0.0088238
-0.002454,0.0091207,-0.0057822,0.0046242,0.010794,0.012273,-0.0034949,-0.013484
0.0044191,-0.0059367,0.0098967,0.0038683,0.001937,-0.0026933,-0.012417,0.011218
-0.0042317,0.010167,-0.0061277,0.010832,0.0011345,0.01363,0.0020984,-0.010996
0.002917,-0.0051667,0.00087389,-0.0056722,0.00062243,-0.0091366,0.0089476,0.0056688
0.0024702,-0.012929,-0.00023943,0.0013106,-0.015221,-0.00076155,0.0082395,-0.0091923
-0.0055679,-0.0052956,-0.0014958,-0.0071899,0.0082615,-0.00039086,0.0078382,-0.0009253
0.01002,0.0021823,-0.0027127,-0.01545,0.00071225,-0.00028546,-7.8553e-05,0.0070496
-0.0055147,0.0018145,0.0040961,5.9294e-05,-0.0066662,0.0073197,-0.015567,-0.00084191
0.002442,0.0093622,0.0034385,0.0081455,0.001712,-0.0088335,0.00035606,0.0067128
-0.0052419,-0.0063112,-0.012432,0.0088119,0.010195,-0.0018313,-0.007066,-0.0014806
-0.0051772,0.0095421,0.011157,0.009803,-0.0046729,0.0049743,0.0089995,-0.001947
0.010431,0.01004,0.011612,0.010981,-0.0038402,-0.0039201,-0.0061403,-0.0024803
-0.005277,-0.0048854,-0.0034088,-0.011276,0.0048671,0.0028755,0.0022252,0.0047392
0.0024296,-0.004093,-0.010651,-0.018098,-0.0098223,-0.0057546,0.0028792,-0.0037177
-0.0054546,-0.018949,-0.002473,0.0059817,0.0067443,0.0015436,-0.0041578,0.0034213
0.0023761,-0.0026731,-0.0024385,-0.017248,-0.0079844,0.0091991,0.012353,-0.0050493
-0.0052904,0.013426,0.0050264,0.0059597,0.02405,0.0015798,-0.0023294,-0.0056247
0.018429,-0.0019197,0.0043288,0.013182,-0.014414,-0.0057566,-0.0014189,0.0017765
-0.0046143,0.00599,-0.0044237,0.0045485,0.0015539,0.0027017,-0.00065043,0.0016077
-0.0041613,0.0059316,-0.013258,0.0036483,-0.0062206,-0.0044314,-0.00012896,0.0095495
-0.0037154,-0.0098802,0.017071,-0.0050007,0.0013112,-0.0038502,-0.0077411,-0.005634
-0.0033397,0.0054509,0.0007916,-0.0056599,0.0007415,0.0043439,-7.2947e-05,0.0028946
0.0047355,-0.0027457,0.00052436,0.0017455,0.007769,0.0044746,-0.00052705,-0.0040156
0.0048741,0.0046116,0.00069762,0.0016258,-0.0087494,-0.0034508,0.0066101,0.004759
-0.0029008,-0.0036966,-0.014335,-0.0060181,-0.00963,0.0040702,-0.001974,-0.0021746
