-0.068119,-0.23423,-0.49409,-0.039702,-0.043436,-0.17301,-0.45155,-0.28596
0.064742,0.47787,0.17473,0.037196,0.025689,0.089229,0.34313,0.050002
0.043899,0.067008,0.32256,0.020244,0.00097167,-0.13234,-0.47097,-0.037586
0.086899,-0.085035,0.31383,0.065988,0.023253,0.083684,0.53576,0.060798
0.02815,0.097226,-0.37019,-0.036332,0.022401,0.096153,0.4412,0.22833
-0.11048,-0.32765,-0.1934,-0.036695,-0.032717,0.060795,-0.70034,-0.15944
-0.088078,-0.083073,-0.33002,-0.013358,0.02202,-0.077479,0.14212,0.023193
0.00092365,0.13877,0.26561,0.0021935,-0.071198,-0.17043,-0.32833,-0.16048
0.047197,0.42759,0.51542,0.056557,0.0079045,-0.03832,0.3887,0.06379
0.004628,-0.29749,-0.20415,0.0088619,0.063929,0.14725,-0.19048,0.0091924
0.0072991,-0.076618,0.1486,-0.086347,-0.051694,0.035108,0.22401,-0.0035839
-0.068331,-0.096497,-0.40714,0.013124,0.012409,-0.014978,-0.21098,-0.0059232
0.068081,-0.018557,-0.60951,0.088709,0.076324,0.09102,0.07494,0.048266
-0.012364,-0.12776,0.92042,0.031371,-0.016435,-0.15458,0.15921,0.01691
0.042003,0.22935,-0.27522,-0.24438,-0.09418,0.076359,-0.2722,-0.008196
0.066541,0.44868,0.14894,0.090035,0.053945,-0.0052254,0.11444,0.11145
0.06017,-0.24608,0.17701,0.034983,-0.03294,0.014809,0.18373,-0.0087813
-0.18928,-0.10859,-0.31823,0.090634,-0.0030681,-0.12111,0.01129,-0.041767
0.090634,-0.03428,0.25324,0.1241,0.050127,0.040567,-0.31873,-0.12009
-0.069212,-0.36518,-0.31626,-0.13836,-0.01362,-0.023071,0.083685,-0.14833
-0.098096,0.016068,0.20329,-0.21282,-0.029915,0.12601,0.118,0.032721
0.04422,0.20949,0.16013,0.04866,0.017101,-0.011788,-0.0099257,0.067494
0.1094,0.32896,-0.29097,0.24723,0.065017,-0.037898,0.10267,0.35057
-0.16649,0.32261,-0.032125,-0.14084,-0.073736,0.047485,-0.26541,-0.32569
0.077159,-0.61259,-0.13087,0.063997,0.022505,-0.13899,-0.27259,-0.068737
0.098483,0.087139,-0.1298,-0.09136,-0.037209,0.026821,0.086072,0.074625
-0.048657,-0.13104,0.67906,-0.020815,0.020174,0.043837,0.29043,0.12589
0.20413,-0.060572,-0.49684,0.01027,-0.016686,0.051467,0.53668,0.18291
-0.10674,0.58549,0.55629,0.27566,0.062774,-0.0061731,-0.46601,-0.20454
0.0080749,-0.48138,-0.93429,-0.39616,-0.038615,-0.0754,0.37192,0.14581
-0.039664,-0.086248,0.80322,0.2373,0.014916,0.23379,-0.49448,-0.32532
-0.41523,-0.16939,-0.37541,-0.11276,0.0046206,-0.26616,-0.42322,0.035203
0.35039,0.52536,0.9079,0.13194,0.047896,0.097243,0.55621,0.12472
0.04798,-0.48803,-0.57818,-0.18488,-0.17515,-0.26066,-0.20158,-0.1885
-0.20239,0.37366,-0.50131,-0.079044,0.086052,0.24006,0.3082,0.082863
0.22777,0.29334,0.34009,0.35526,0.066534,0.21084,-0.11091,0.17736
0.052822,-0.38433,-1.0063,-0.093521,-0.1003,-0.25261,-0.067715,-0.21293
-0.33389,0.22996,0.95479,0.081687,0.070318,-0.0081581,-0.31032,-0.0057613
0.22544,-0.53878,-0.11636,-0.45578,-0.046501,-0.12541,0.046854,0.16907
0.05128,0.35223,0.61255,0.26225,0.056819,0.14534,0.71788,0.34436
0.056505,-0.18724,-0.22255,0.055778,0.020371,0.068409,-0.30191,-0.33142
-0.034569,0.34703,-0.018774,0.14356,0.085631,0.15716,0.045053,0.0078329
-0.17003,-0.04723,-0.30794,-0.14592,-0.1778,-0.20835,-0.69173,-0.38965
0.15521,0.13731,-0.63918,-0.20266,0.002973,0.015963,0.86514,0.44303
-0.04532,-0.41045,0.81221,0.12264,-0.028504,0.062364,-0.64932,-0.2847
0.047562,0.046923,0.073592,-0.012822,0.087306,0.28151,0.25912,0.2778
-0.35526,-0.55686,-0.061883,0.14964,0.0071455,-0.47435,0.50626,-0.033905
0.23144,0.12598,0.18416,0.095143,-0.049535,-0.38262,-1.1567,-0.30569
-0.1989,0.80931,-0.37723,-0.058611,0.035187,0.318,0.47377,0.2048
0.26897,0.21292,-0.30823,-0.2332,-0.027155,0.10805,0.65489,0.075698
0.2215,0.21057,0.47147,-0.045691,0.045017,0.30364,-0.10729,0.0097248
-0.20106,-0.87282,-0.29996,-0.097744,-0.029563,0.047771,-0.31562,-0.0019018
0.15628,-0.0024642,0.1322,0.43066,-0.016872,-0.42449,-0.72383,-0.17159
-0.091119,0.090789,0.14003,0.031178,0.13717,0.29984,0.58571,0.21761
-0.22632,-0.11984,0.063674,0.015568,-0.075968,-0.01612,0.3274,-0.015785
-0.00056883,0.03571,-0.12529,-0.56233,-0.094487,0.007134,0.33321,-0.23257
-0.093821,-0.23966,0.18357,0.29666,-0.028288,-0.29789,-0.38436,0.12119
0.31516,0.49261,-0.23718,0.10757,0.036409,-0.19194,-0.29593,0.20195
0.033079,0.28127,-0.18703,0.12787,0.11519,0.54166,-0.065929,-0.098484
-0.17163,0.019123,0.30656,-0.25962,-0.065237,-0.16851,-0.8105,-0.43425
-0.084864,-0.56512,-0.32381,0.015721,0.018831,-0.15094,1.1131,0.2989
0.054236,-0.000725,0.29943,-0.17066,-0.093268,0.063227,0.41837,0.08039
0.12313,-0.020278,0.273,0.24418,0.075276,0.044518,-0.16557,-0.0091104
0.037386,-0.075394,-0.016206,0.20583,0.032465,-0.035085,-0.18342,0.039989
-0.01512,0.63196,-0.070176,-0.28572,0.059705,0.4181,-0.47702,-0.029363
-0.15241,-0.24908,-0.84962,0.019173,-0.10847,-0.10382,-0.013228,-0.092461
0.022061,-0.030912,0.78858,-0.051913,-0.010891,-0.43654,0.69457,0.29485
0.06809,-0.22963,-0.52625,0.4692,-0.061319,-0.040088,-0.67112,-0.34567
0.060619,-0.17441,-0.21075,-0.37875,0.11563,0.35298,0.68212,0.28897
-0.1599,0.32065,1.0135,-0.08007,-0.042171,-0.13738,-0.80453,-0.24013
0.090962,0.23787,-0.45129,-0.1029,-0.026635,-0.070261,0.63023,-0.043133
-0.025216,-0.33922,0.044714,-0.008718,0.013849,-0.26242,-0.64377,-0.10459
0.20864,0.063454,0.29764,0.22713,0.14155,0.4845,0.59333,0.34142
-0.3019,0.10771,0.047038,0.1057,-0.15188,-0.25727,-0.18303,-0.32192
-0.0017945,-0.12208,-0.69502,-0.16928,-0.0078114,0.10639,-0.06243,0.17895
0.19622,0.29556,0.47437,0.17559,0.096339,0.38672,0.14423,0.21079
-0.19012,-0.060142,-0.62654,-0.21968,-0.019876,0.010779,-0.40722,-0.13371
0.13081,-0.27239,0.55676,0.14384,-0.013199,-0.83732,0.6334,0.034574
0.044578,-0.09482,-0.052045,0.14787,-0.0087205,0.54994,0.23386,-0.02032
-0.25875,-0.44423,-0.4495,-0.33347,-0.068559,-0.18175,0.051488,-0.14333
0.43393,0.45783,0.82961,-0.1443,-0.035649,-0.096577,-0.88561,0.11046
-0.23515,0.43565,-0.78091,0.21559,0.098929,0.34404,-0.0448,-0.19578
-0.030633,-0.11815,0.30014,0.098458,-0.054271,-0.70317,-0.052825,-0.20885
0.032205,0.31943,0.23032,0.19275,0.22451,1.0441,0.037642,0.5814
-0.23434,-0.34031,0.0010618,-0.44593,-0.27502,-0.46785,0.38682,-0.064623
0.15343,-0.65661,-0.14813,0.065837,0.033175,-0.41804,-0.29076,-0.38682
0.38191,0.623,0.26298,0.18131,0.14088,0.52935,0.50584,0.43671
-0.35495,-0.0066281,-0.53605,0.1579,-0.046534,-0.20475,-0.18774,-0.33561
0.035097,0.18473,0.36413,-0.16151,0.032256,0.29999,0.7528,0.28016
0.13654,-0.4305,-0.25137,0.042295,-0.077122,-0.12232,-0.69353,-0.11569
-0.31749,-0.30634,-0.34627,-0.13027,0.014864,-0.3014,-0.55893,-0.16565
0.16425,0.19059,0.69504,-0.25824,-0.098785,-0.011491,0.63862,0.17512
-0.10639,0.37429,-0.6435,0.24375,0.050387,0.31027,-0.4073,-0.11084
0.15929,0.19973,0.89635,0.23488,0.16568,0.26719,0.32748,0.11583
0.070465,-0.15179,-0.17636,-0.073776,-0.11168,-0.48146,-0.02768,0.22188
-0.044826,0.21934,0.085744,-0.22872,-0.054293,-0.48645,-0.17521,-0.47194
0.14943,-0.72523,-0.619,0.24717,-0.0049026,0.3189,-0.071454,0.012272
-0.18244,0.28048,0.25251,-0.14538,0.09213,0.36008,-0.26357,0.24677
-0.33674,-0.19296,-0.46672,-0.0070517,-0.020232,0.22532,0.43723,-0.22718
0.23422,0.1516,-0.091904,0.08504,0.041319,0.047937,0.62586,0.49088
0.015827,0.43947,0.83459,-0.18055,-0.1137,-0.6423,-0.79967,-0.48048
0.30595,-0.31335,-0.2,0.23625,0.053575,0.25302,0.33693,0.14828
-0.24614,-0.075043,0.35951,-0.20284,-0.012081,0.13587,-0.73699,0.0093344
0.0085061,-0.0088246,-0.94225,0.11194,-0.014574,-0.25624,0.46757,-0.063001
0.077851,0.16796,0.92128,-0.030461,0.060782,0.025456,0.35791,0.16323
-0.17107,0.082486,-0.47812,-0.11515,-0.036986,-0.022522,-0.41921,0.0055668
0.011366,0.144,0.094931,0.26282,-0.011862,0.293,0.35203,-0.14801
0.14808,-0.26094,0.16569,-0.054514,0.096497,-0.036326,0.45053,0.20834
-0.042752,-0.8549,0.0036149,0.009133,0.014462,0.10785,-0.13128,-0.074727
-0.22576,0.40464,-0.80654,-0.34476,-0.21079,-0.31077,-0.3733,-0.32494
0.26261,0.34772,0.36204,0.68744,0.10123,-0.20995,-0.85958,-0.017294
0.26566,0.43464,0.59972,-0.58983,-0.071704,0.25889,-0.02855,0.23339
-0.24811,-0.69781,-0.36869,-0.019612,0.076499,-0.37595,-0.010399,-0.070333
-0.32571,0.8419,-0.44304,-0.0066013,0.03157,0.78795,0.80014,0.37828
-0.17023,-0.51008,0.39768,0.11533,-0.080459,-0.7158,0.037864,-0.42758
0.50749,0.4396,-0.21051,0.46554,0.19404,0.66776,0.71628,0.19146
-0.12064,-0.169,0.57656,-0.47761,-0.1294,-0.37571,-0.6565,-0.18806
0.27347,-0.77852,0.41269,0.13849,0.026622,0.40807,0.43809,0.46268
0.25224,0.69639,-0.94102,-0.49071,-0.11245,-0.18061,-0.71167,-0.14021
-0.45764,-0.39625,0.80682,0.45423,0.069204,-0.20854,-0.076571,-0.2332
-0.35561,-0.48575,-0.87999,0.56535,0.085836,-0.42902,0.75674,0.026611
-0.026497,-0.054096,-0.32502,-0.69859,-0.055901,0.19526,-1.0448,-0.32881
0.19528,0.47092,0.53334,0.0039324,-0.036498,0.28914,0.40131,0.4919
0.10037,0.30697,-0.28006,0.046135,-0.14538,-0.16962,-0.0095412,-0.3672
0.19769,1.0499,0.34722,0.14585,0.19563,0.43025,-0.15187,0.1055
0.10464,-0.3188,0.48922,-0.032719,0.033869,-0.088906,-0.27348,0.077288
-0.17184,-0.56396,-0.46778,-0.10554,-0.020601,-0.29573,0.23643,0.13602
-0.19615,-0.38972,-0.068204,-0.16437,-0.013796,0.068582,0.45437,-0.10885
0.23237,-0.24184,0.32195,0.011847,-0.13232,-0.042615,0.36644,0.41131
-0.28727,-0.28984,-0.22701,0.4721,0.062182,-0.012662,0.00082179,-0.50187
0.40694,0.67587,-0.43471,-0.26661,0.10948,0.19632,0.46785,0.64803
-0.29556,0.40813,0.83032,0.085164,-0.036793,-0.097048,-1.1084,-0.64215
-0.25424,-0.53211,-0.94125,-0.11394,-0.14983,-0.28542,-0.7126,-0.46032
0.25839,-0.019576,0.47568,0.12666,0.13753,0.10568,0.76651,0.38057
0.017484,-0.19456,0.1344,-0.12478,-0.010932,0.28536,-0.54839,-0.17313
0.27517,0.44163,-0.16177,0.020365,0.03712,0.26815,0.68749,0.83361
-0.17733,0.25203,0.46864,0.20908,0.015519,-0.016193,-0.3506,-0.47215
-0.11933,-0.044391,-0.59289,-0.47322,-0.10747,-0.51126,0.63839,0.075181
0.099117,-0.067837,0.26961,0.3881,0.019386,-0.42439,-0.56091,-0.29729
0.16654,-0.38622,-0.50733,-0.17418,0.036661,0.5076,0.29525,0.30835
-0.44781,0.15796,0.38816,-0.18131,-0.055454,0.18965,0.018694,0.070428
-0.12686,-0.37142,0.080988,0.26742,0.032494,-0.19965,0.60707,0.080968
0.44116,0.23925,0.095072,-0.029222,-0.042793,-0.24838,-0.41915,-0.31777
0.051655,0.43996,0.25982,0.093786,0.054987,0.3673,-0.5153,-0.11094
0.0072574,-0.098201,-0.41471,0.13626,0.068166,-0.18026,-0.080055,0.02986
0.063298,0.21216,-0.02678,-0.28593,-0.050293,0.48892,-0.2986,0.012152
-0.17334,-0.99289,0.060655,-0.1125,-0.043043,0.017385,0.27122,0.16606
-0.4,-0.39657,-0.48364,0.17734,-0.020158,-0.55605,0.19007,-0.3265
0.64779,0.95862,-0.11626,0.041976,0.12694,0.41593,0.81537,0.94267
-0.35807,0.77144,0.7517,0.14353,-0.094663,-0.84065,-0.94228,-0.77515
0.1305,-0.22966,-0.19164,0.098242,0.072324,0.64424,0.48134,0.20016
-0.23589,-0.59149,0.58267,-0.63268,-0.10666,0.10901,-0.30566,-0.092707
0.11583,0.10641,-0.48519,-0.00092669,-0.0064646,0.15455,0.34895,0.0014969
0.13376,-0.48978,0.26948,0.18323,-0.0016093,-0.41994,0.0095293,-0.018691
-0.12515,0.11755,-0.63778,0.20355,-0.028959,-0.28946,-0.65106,-0.20973
0.10608,0.61404,0.35626,0.40594,0.17776,0.1145,0.54033,0.3092
0.13233,-0.056008,-0.065774,-0.55987,-0.084102,0.16524,-0.50761,-0.18282
-0.023821,-0.28316,-0.42912,0.11883,-0.0095964,0.15681,0.14681,0.35102
-0.22344,-0.042968,0.34587,-0.02753,0.096586,0.43591,0.21282,0.072673
0.0079502,0.21325,0.33396,-0.070802,-0.10165,-0.38763,-0.17672,-0.57423
-0.11292,-0.37947,-0.52877,0.041908,-0.034159,0.07509,0.61258,0.31574
0.36547,0.28258,0.24142,0.60593,0.033358,-0.20263,-0.40867,-0.014856
-0.18288,0.31814,0.11993,-0.6452,0.015091,0.12706,0.2087,-0.025147
-0.031659,-0.86612,0.14312,-0.22702,-0.065207,-0.34523,-0.39772,0.17089
-0.086777,0.53337,-0.28772,0.13496,-0.011802,0.058352,0.16816,-0.25053
0.097888,-0.072073,-0.21916,0.0049342,0.011629,0.0016829,-0.73631,-0.41735
0.0077349,0.31335,0.71385,0.29097,0.16153,0.54087,0.64441,0.50323
0.081273,0.044,-0.80519,-0.12276,-0.1169,-0.57927,0.51019,0.12422
-0.047869,-0.46316,0.68731,0.28761,0.058714,0.12893,-0.70636,-0.20875
0.15991,0.32732,-0.60312,-0.42395,0.039209,0.62987,0.63628,0.47275
-0.27951,0.21111,0.56882,0.12364,-0.19969,-0.60457,-0.23655,-0.46658
0.0089099,-0.34883,-0.089152,0.34207,0.14594,0.10001,-0.12468,-0.0075365
-0.06089,-0.58149,-0.6642,-0.46631,-0.10416,-0.28595,-0.36817,-0.085049
0.25305,0.49792,0.94624,0.31388,0.13575,0.14445,0.8174,0.73307
0.028536,-0.077432,-0.96585,-0.29464,-0.056014,0.29696,-0.90061,-0.66702
-0.227,-0.25132,0.40849,-0.17415,-0.092978,-0.30673,0.32534,-0.11635
0.017274,0.20976,-0.32454,0.31762,0.12722,0.0022362,0.20286,-0.022127
0.23751,0.44141,0.62036,-0.23878,-0.10542,0.28235,-0.02073,0.27289
-0.14476,0.17571,0.1598,0.23739,0.022469,-0.064711,-0.011603,-0.080352
-0.14535,-0.21186,-0.28377,0.37338,0.16006,0.25344,-0.19329,0.046544
0.10289,0.10342,-0.032123,-0.19646,-0.090659,-0.31368,0.081382,-0.046058
0.029789,-0.29783,0.23197,-0.33084,-0.088918,-0.065008,-0.10243,0.01196
0.0028114,-0.19388,-0.57375,0.0013428,0.071354,-0.21155,0.71603,0.30845
0.11611,0.10838,-0.27408,0.018039,-0.03996,-0.056071,-0.75942,-0.27301
-0.13765,-0.17022,0.62671,0.1399,0.014017,0.35805,0.36367,0.20477
0.054532,-0.14756,-0.10162,-0.064252,-0.0018437,-0.19153,-0.052279,-0.39206
-0.12716,0.46953,-0.086773,0.22429,0.044461,0.10391,-0.21394,-0.018036
-0.05732,-0.09996,0.62298,0.011735,0.042759,0.23171,-0.47567,0.1613
0.092379,0.1623,-0.45638,-0.62525,-0.18734,-0.19735,0.28481,0.0039965
0.17343,-0.013546,0.45125,0.35122,0.12707,0.19937,0.65766,0.079266
-0.095817,-0.33543,-0.42232,0.20597,0.024767,0.037657,-0.081175,0.18314
0.24491,0.39311,-0.6786,0.22778,0.021376,-0.090644,-0.05656,-0.028712
-0.30518,-0.31385,0.73125,-0.38777,-0.070278,-0.40594,-0.64588,-0.47846
-0.26249,-0.093908,-1.034,-0.2023,-0.062067,0.098792,0.13846,-0.041127
0.33339,0.3964,0.683,0.31691,0.085938,-0.24806,0.5482,0.30697
-0.041236,-0.40882,-0.05751,-0.24234,-0.023708,0.50003,-0.08715,0.089728
0.0042864,0.83611,0.76841,0.08288,0.008411,0.071226,0.31277,0.41715
0.071786,-0.69671,0.38212,0.067743,-0.074715,-0.26738,-0.52895,-0.42083
-0.010202,-0.038986,-0.6173,0.080603,0.15711,0.21934,-0.41737,-0.32149
-0.14743,-0.30809,0.053395,-0.0031902,-0.092857,-0.085969,0.29912,0.083885
0.15281,0.50475,-0.66715,0.19086,0.11267,0.12028,0.58799,0.2737
-0.069899,0.18347,-0.096252,-0.4791,-0.094024,-0.015166,-0.72155,-0.35952
0.020835,-0.35304,0.57768,0.39154,-0.065157,-0.291,-0.15886,0.20143
-0.17624,0.14453,-0.15676,-0.41773,0.018887,0.088173,0.34725,0.066812
0.27647,0.29494,-0.0011434,0.14619,0.063759,0.098087,-0.025609,0.25213
-0.30877,-0.39038,-0.38721,0.30085,-0.032539,-0.058171,0.23964,-0.18914
0.15341,-0.63284,0.31052,-0.267,-0.012448,-0.14563,0.16291,-0.19667
0.31061,0.73761,-0.27411,0.067393,0.061448,0.09445,0.44699,0.31278
-0.12724,0.00036401,0.54618,-0.11761,-0.052991,0.10036,-0.84928,-0.35895
-0.1844,0.12921,0.56556,0.42866,0.066248,0.09899,-0.14496,0.12945
-0.12696,-0.55213,-0.40127,-0.47242,-0.11971,0.12118,0.3762,-0.036294
0.21717,0.73904,-0.37018,0.20399,0.045565,-0.46704,-0.19311,0.064782
-0.13551,-0.13057,0.024504,-0.024935,0.077869,0.19202,0.15049,-0.0048601
0.019615,-0.31915,0.031249,-0.09514,-0.053951,0.057433,-0.16265,-0.033581
0.19215,0.24087,0.032496,-0.11472,-0.021755,0.12757,-0.1505,0.22988
-0.20208,-0.35955,-0.47046,0.096748,-0.020926,-0.020417,-0.10066,-0.18944
0.10384,-0.091463,0.025192,0.28924,0.096816,0.011921,0.50607,0.04617
-0.092692,0.1218,0.1323,-0.10063,-0.05937,-0.57906,-0.099905,-0.21002
-0.018682,0.32647,0.19761,-0.058855,-0.036603,0.12267,0.13059,0.027839
0.23065,0.053757,0.78502,0.029711,0.063326,0.38521,-0.060904,0.24521
-0.22981,-0.4695,-0.61421,-0.10261,-0.048801,-0.031155,-0.1398,-0.11207
0.15184,-0.016402,-0.026759,0.089475,0.072293,0.17247,-0.059958,0.08872
0.060376,0.76489,-0.10602,-0.058879,0.012673,-0.041753,-0.23214,-0.12959
-0.0062883,-0.21912,0.22839,-0.1881,-0.11016,-0.14215,0.35174,0.12264
-0.056885,-0.29623,-0.19248,0.16384,0.024586,-0.035141,0.31499,0.10218
-0.20802,-0.11434,-0.035948,-0.095122,-0.012189,-0.02589,-0.21969,-0.19969
0.011124,-0.10241,-0.46703,0.26347,-0.0089501,-0.16955,-0.25381,-0.13502
-0.013402,-0.025367,0.32806,-0.14152,0.08947,0.23666,0.080442,-0.0085693
-0.12168,0.07015,0.22735,-0.066809,-0.083857,-0.25277,-0.22871,-0.054459
0.1974,0.22246,0.14878,0.55834,0.1273,0.23691,0.49824,0.26675
0.25843,-0.00014273,0.12728,-0.75068,-0.04296,0.15835,-0.031875,0.27562
0.10869,0.53966,-0.95165,0.099122,-0.024789,-0.098621,-0.36671,-0.066878
-0.1125,-0.49811,0.80365,0.13802,-0.060887,0.011748,-0.14535,-0.33908
-0.0172,0.12487,0.17367,0.15402,0.020186,-0.26963,-0.18568,-0.10377
-0.40562,-0.30495,-0.56275,-0.11939,0.0072208,0.22015,0.80309,0.084131
0.086238,-0.1864,0.34862,0.051486,0.0095129,0.11308,-0.054542,0.13866
0.049726,0.22501,-0.2213,-0.013406,0.0037001,-0.21612,-0.24676,-0.11976
0.022659,-0.0033605,-0.057524,-0.31417,-0.033509,-0.048397,0.031221,0.11376
0.23937,0.15079,0.26689,0.28208,0.062066,0.0076562,-0.19302,0.08935
-0.22107,-0.35214,-0.069536,-0.13075,-0.068943,-0.12505,0.47222,-0.13832
0.04139,0.1505,-0.29259,0.41617,0.12019,0.35921,-0.41917,0.024338
-0.010454,-0.22764,0.51456,-0.2569,-0.073924,0.070557,0.045541,0.014541
0.14863,0.67091,-0.32328,-0.22823,-0.011018,-0.045254,0.069117,-0.06641
-0.18298,0.17226,0.066787,0.26761,0.011742,-0.15996,-0.16695,-0.062393
0.12076,-0.14244,-0.020088,0.066517,0.025464,-0.03134,0.33443,0.19859
0.044833,0.040728,-0.67219,-0.30786,-0.024434,-0.05769,0.058249,-0.0017417
-0.29335,-0.98006,0.5049,0.012189,-0.08288,-0.027728,-0.085188,-0.0063216
0.26237,0.33678,0.76237,0.23061,0.046065,0.09032,-0.47189,-0.040569
-0.18678,-0.011917,-0.76887,0.012482,0.066293,0.015729,-0.12475,-0.22817
0.2806,0.309,0.35154,0.05415,0.017626,-0.024661,0.01134,0.080518
-0.1486,-0.043005,-0.14934,-0.39352,-0.09153,0.14864,0.34121,0.097215
-0.11575,-0.03429,0.11075,0.099642,-0.026523,-0.16825,0.15698,-0.29532
-0.066996,-0.13871,-0.016721,0.072669,0.017205,0.046816,0.21537,0.30806
0.16861,0.40381,0.063967,0.18116,0.14066,0.27664,0.54265,0.52229
0.18386,-0.014689,-0.32943,0.15827,-0.024286,-0.20684,-0.74382,-0.4447
-0.053438,-0.049899,-0.062779,-0.18508,-0.049081,-0.17029,0.12892,0.05226
-0.098683,-0.061163,-0.17014,-0.2411,-0.098943,-0.11402,-0.15045,-0.052034
-0.16319,-0.22038,0.067145,0.34833,0.17677,0.24381,-0.58511,-0.35282
-0.074962,-0.12879,0.19701,-0.40174,-0.12868,0.060805,0.3496,-0.021841
0.1588,0.13636,0.39182,0.063559,0.031615,0.034113,-0.14571,0.30986
0.16417,-0.033075,-0.1157,0.096683,-0.10738,-0.33437,-0.2662,-0.27666
0.21593,0.13752,0.28688,-0.027649,0.10378,0.26152,0.45751,0.40956
-0.48135,0.0080988,-0.62735,0.30909,0.0022187,-0.19323,0.55548,0.12172
-0.090372,0.078193,-0.025851,-0.27483,-0.028078,0.089959,-0.21151,-0.34096
0.19457,-0.18518,0.26555,0.17434,0.068468,0.21094,-0.063675,0.1556
0.02247,0.39483,-0.27532,-0.17139,0.011081,0.042064,0.45435,0.056837
0.11198,-0.0055386,0.68884,0.10182,-0.0049073,-0.013554,-0.6969,-0.34891
-0.022036,-0.52239,-0.94106,-0.1002,-0.02675,-0.201,0.08316,0.18718
-0.037136,0.23249,0.94088,-0.012246,-0.047263,-0.08473,0.16237,0.10916
0.065069,-0.054227,-0.901,-0.10341,-0.04372,0.045768,-0.39281,-0.013709
-0.091979,-0.17842,0.33895,0.20423,0.10043,0.0043544,-0.2383,-0.19771
-0.09538,0.30799,0.27289,0.043344,0.0018989,0.012812,0.4271,0.017786
0.03091,0.026212,-0.40778,-0.14087,-0.042681,0.020665,-0.38164,-0.17195
-0.0097794,-0.16761,0.19958,-0.036067,-0.056799,-0.045561,0.70305,0.60025
0.1037,-0.050514,-0.042094,0.20136,0.053396,-0.064447,-0.14747,-0.18924
-0.09621,-0.06475,0.10383,0.15721,0.069338,0.13893,-0.31912,-0.18935
0.19644,0.45497,0.25504,-0.22324,0.061536,0.33931,0.57204,0.11476
-0.2908,-0.61725,-0.88666,-0.43988,-0.17297,-0.33894,-0.3595,-0.29354
0.17689,0.74687,0.73069,0.093393,-0.024707,-0.062292,0.0054882,0.20966
-0.088158,-0.43371,0.43954,0.32981,0.068855,0.040544,0.12813,0.15465
0.13986,0.046864,-0.39617,0.15205,0.021732,-0.042581,-0.17121,-0.11556
0.086387,0.42619,-0.21602,-0.002783,0.021311,0.23098,0.37469,0.086214
-0.023172,-0.45496,-0.26236,0.036508,0.028385,-0.15784,-0.19067,0.025777
-0.15055,-0.15967,0.052763,-0.051045,-0.011863,0.023104,-0.90616,-0.39771
-0.11617,-0.21708,-0.19641,-0.55487,-0.099473,-0.24253,0.24745,0.19975
0.049394,0.33821,0.55755,0.18144,0.015649,-0.047787,0.21382,-0.1413
-0.0665,-0.22231,0.053822,0.17424,0.029064,0.30446,0.49248,0.28375
0.06917,0.27919,-0.55569,-0.020667,-0.0041747,0.1448,0.66072,0.30426
0.13776,0.034918,0.84753,0.10574,0.025718,-0.070998,-0.77607,-0.2508
-0.070611,0.141,-0.16733,0.22634,-0.037155,-0.23125,-0.4399,-0.42795
0.10046,-0.0045293,-0.60356,-0.20515,0.049604,0.072048,0.021264,0.17904
0.025108,0.18124,0.32331,-0.16517,-0.0030563,0.066449,0.48837,0.27298
-0.032769,-0.44716,0.16318,-0.07589,-0.03908,-0.099363,-0.034435,-0.20913
0.057486,0.18279,-0.0097192,0.069966,0.042737,0.16792,0.0027654,0.18526
-0.3,-0.3559,0.044732,0.35763,0.015388,-0.11705,-0.33491,-0.16161
-0.052194,-0.12171,-0.64203,-0.45582,-0.074693,0.044405,0.40859,0.085593
0.25314,0.46164,-0.28648,0.30858,0.029952,-0.11482,-0.62231,-0.19868
-0.1653,-0.12921,0.74004,-0.045116,-0.030271,0.13825,0.50715,0.07876
0.13067,0.32626,0.15236,-0.23614,0.017999,-0.096017,0.13166,0.12042
0.23603,-0.20019,-0.21845,0.094557,-0.0048794,-0.05284,-0.65476,-0.26971
