-0.17734,-0.039525,0.094854,-0.12696,-0.09296,-0.099145,0.27084,0.0091244
-0.18894,0.010007,-0.20933,0.0011122,0.052178,0.040349,-0.012157,0.28947
0.17973,0.027155,-0.13775,0.097912,0.0089726,0.25781,0.44149,-0.2301
0.16011,0.35182,0.29334,-0.015901,0.043561,-0.11059,-0.89955,-0.17979
-0.15619,-0.19639,0.17062,0.019524,-0.0075788,0.021033,-0.011551,0.41053
0.21268,-0.45951,-0.3007,-0.029653,-0.081463,-0.2305,0.23748,-0.25609
-0.13571,0.010738,-0.070613,-0.077015,0.025384,0.0249,0.45362,0.32666
0.11278,-0.38463,-0.18234,0.11993,0.047506,0.1695,-0.31527,-0.50004
-0.019219,0.57351,0.21907,-0.016918,0.055185,0.093491,0.84972,0.90133
-0.081662,-0.016847,-0.051482,-0.10508,-0.0846,-0.086088,-1.0891,-0.79252
-0.21988,0.22644,0.31926,0.034448,-0.059691,-0.10336,0.49216,-0.31838
0.61542,0.70391,0.15824,0.13503,0.074825,0.026801,-0.46304,0.25189
-0.13538,-0.39091,-0.39687,-0.03105,0.021694,-0.01473,0.41938,0.011228
-0.19448,-0.077246,0.0092035,0.058529,0.022816,0.062654,0.21146,0.14682
-0.18798,-0.28763,-0.11225,-0.183,-0.039137,-0.12222,-0.62825,0.60376
-0.27839,-0.74839,0.69624,0.0018282,-0.078189,-0.00544,0.29277,-0.39177
0.24148,-0.017174,-0.44987,-0.011719,0.007429,0.031099,-0.25405,-0.45744
0.22117,0.48601,-0.49526,0.089709,0.10867,0.37816,0.25564,0.07828
0.20617,0.42316,0.055251,0.033972,0.0071803,-0.14466,-0.41032,0.2625
-0.39145,-0.41673,0.3237,-0.091487,-0.085776,-0.27326,0.51519,0.26832
0.2137,0.12237,-0.012362,0.027262,0.017525,-0.033234,0.031141,0.1686
-0.26571,0.014745,0.067928,0.0085041,-0.042257,-0.044263,-0.53945,-0.86084
0.45837,0.70805,0.11497,0.032491,0.047202,0.011413,0.5279,0.23973
-0.12537,-0.291,-0.45626,-0.018027,0.082401,0.61587,-0.039108,-0.44615
-0.038026,-0.017513,0.53964,0.035974,-0.03874,-0.14666,0.21031,0.34413
-0.46581,-0.53935,0.019705,-0.048831,-0.043346,-0.44102,0.39731,-0.027115
0.46753,-0.3229,-0.22599,0.015232,-0.049082,-0.048066,-0.63737,0.36999
-0.22805,0.354,0.13882,0.039274,0.13908,0.31521,-0.47947,0.87629
0.56067,-0.33952,-0.025457,-0.016914,-0.10388,-0.15294,-0.030171,-0.42778
-0.33993,0.72836,-0.52048,-0.060318,0.034799,-0.050413,0.44781,-0.51005
-0.50734,0.14393,0.47994,-0.067751,-0.10847,-0.18594,0.0093689,-0.30685
0.17061,-0.075881,-0.52293,-0.0077817,0.037159,0.2326,-0.16208,-0.19811
0.15153,-0.40581,0.35001,0.096626,0.050268,0.02712,-0.092863,0.11854
0.28447,0.18754,0.13623,0.081993,0.032615,0.064555,-0.27165,-0.11443
-0.16747,-0.35592,0.53823,0.0035418,0.030938,0.28022,0.44201,0.32388
0.13615,0.052278,-1.0306,-0.099249,-0.0099041,-0.2436,0.62089,0.71759
-0.46548,0.32882,0.3733,0.094261,-0.0046046,0.15286,0.097844,-0.43871
0.85761,0.030918,0.15261,0.0062973,0.030617,-0.20616,-0.5723,0.12967
-0.95659,0.043743,-0.1125,-0.15951,-0.16237,-0.33102,0.38141,-0.25714
0.56019,-0.16187,-0.039548,0.027262,0.033736,0.051111,-0.57486,-0.33473
-0.16351,0.25182,0.1112,0.012912,0.08053,0.10575,-0.56639,0.29369
0.0037148,-0.47933,0.17933,0.0016488,-0.0756,0.085977,0.66838,-0.099823
0.036902,-0.27615,-0.44188,0.010081,0.019793,0.19883,-0.088749,0.51547
-0.16705,0.28356,0.42188,0.085721,0.047684,-0.020562,0.15909,-0.53937
-0.086395,0.29291,-0.20296,-0.068222,-0.030026,-0.28014,-0.57301,-0.19195
0.16746,0.59377,-0.10133,0.032048,-0.025417,0.10923,0.39471,0.94376
-0.064288,-0.68415,-0.36914,-0.0053097,0.13939,0.21793,0.099934,-0.808
0.29339,0.0098363,0.79774,0.013328,-0.075544,0.091536,0.31947,-0.46679
0.20583,-0.055291,-0.22488,0.031371,0.01591,-0.20185,0.076287,0.32986
-0.2989,-0.39162,-0.2555,-0.031109,-0.025337,-0.14135,-0.10247,0.68516
0.019139,0.59098,0.3254,-0.0036504,0.0023141,-0.13556,-0.11407,0.020754
-0.34063,-0.21945,-0.73758,-0.19957,-0.12109,-0.10817,-0.46603,-0.18874
0.084292,0.42566,0.53419,0.16222,0.064656,0.38498,0.56945,0.25676
0.078929,-0.43486,0.54062,-0.011566,0.051563,0.20266,-0.53522,-0.41152
-0.030836,0.020219,-0.46739,-0.024762,-0.019463,-0.28824,-0.23412,-0.32085
0.12089,-0.0040743,0.073093,0.07683,-0.030611,-0.11127,0.70164,0.035904
0.1108,-0.25508,-0.31414,0.05991,0.10486,0.26474,-0.34805,0.042458
-0.181,0.76251,0.22299,0.073883,-0.01066,0.035106,0.39651,0.021035
-0.31413,-0.47931,0.19319,-0.16168,-0.071708,-0.23748,-0.62085,-0.057838
0.63338,0.069395,-0.75399,-0.075788,0.023913,-0.021298,0.25342,0.36875
-0.20852,-0.12782,0.1012,-0.074112,-0.074878,-0.010786,0.62396,-0.24021
-0.16558,-0.1393,0.50131,0.093763,0.077538,0.15464,-0.52414,0.46226
0.66918,0.37987,0.18784,0.045207,-0.042162,-0.023595,0.58891,0.12569
-0.4228,-0.038714,0.057266,0.053504,0.019066,0.0028744,-0.77427,0.1097
-0.68265,-0.28612,-0.14339,0.047808,0.057827,-0.061546,0.14039,-0.69385
0.59578,0.18353,-0.33155,-0.16024,-0.08254,-0.12221,-0.34275,-0.14814
-0.081757,0.29085,0.65402,0.2799,0.15218,0.31342,0.22611,-0.15134
0.1763,-0.082502,-0.67262,-0.015513,-0.035332,-0.10649,-0.085448,0.23096
-0.18116,-0.21843,-0.37371,-0.47674,-0.23129,-0.14058,0.53283,-0.19577
-0.32839,-0.35133,0.35743,0.14611,0.087688,0.022338,0.047889,0.50127
0.23304,-0.011835,-0.21822,0.0018988,0.023312,0.099477,-0.29159,0.067813
-0.022292,0.45716,0.67623,0.1695,0.099359,0.073698,0.50602,0.06834
0.69132,0.27502,0.2779,0.18884,0.07406,0.053164,-0.66801,-0.3733
-0.56904,-0.61319,-0.6306,-0.26752,-0.22406,-0.28311,0.2353,0.19077
0.1421,0.36915,0.059816,0.050838,0.064688,0.041473,-0.92106,0.086923
0.10425,-0.14807,0.199,0.04235,0.065454,0.058853,0.72689,-0.58899
-0.55278,-0.0049697,-0.43438,-0.15265,-0.12803,-0.22974,-0.081726,0.50593
0.28475,0.12948,0.32885,0.090345,0.10904,0.38807,0.41471,0.19726
0.13712,-0.077751,0.041214,0.067679,0.026304,-0.055104,0.10098,-0.22861
-0.21672,-0.0056884,-0.21244,-0.017964,0.0061378,-0.011457,-0.23421,0.21147
0.36267,0.33562,0.20873,-0.0027551,-0.045663,-0.074346,-0.077794,-0.14503
-0.24968,-0.60045,-0.21728,-0.035103,0.011163,-0.025209,-0.16822,-0.44129
-0.26376,0.24392,-0.15219,-0.13035,-0.12046,-0.013141,0.31813,-0.32425
0.22044,0.17929,0.42222,0.079124,0.067252,0.10155,0.033721,0.78939
0.048328,-0.39572,-0.40588,0.015667,0.03539,-0.072781,-0.33599,0.15757
0.12747,0.066876,0.16944,0.12492,0.034183,0.017678,0.092145,-0.077587
-0.010241,-0.041688,0.14808,-0.03837,0.016991,0.044178,0.15679,-0.43022
-0.060279,-0.23858,0.45044,-0.060337,-0.11757,-0.16544,-0.40304,0.0685
-0.10161,0.5806,-0.47274,0.058597,0.099344,0.11546,-0.33972,0.02563
0.020802,0.27386,-0.092887,-0.01799,-0.027566,-0.05812,0.39073,0.021684
0.15733,-0.26574,0.11135,-0.032658,0.025122,0.1112,0.4945,0.40734
-0.10687,0.2425,-0.26713,-0.0089645,-0.031656,-0.016665,0.089129,-0.032192
-0.03748,-0.53128,-0.087013,-0.10297,-0.033771,0.051001,0.47676,0.079833
-0.094648,0.70914,0.33353,0.076381,-0.0045094,-0.13066,-0.89427,-0.55286
0.17627,-0.68231,-0.11964,0.037478,0.07198,0.055924,-0.021985,-0.24223
-0.19148,-0.17546,-0.044923,-0.00043851,-0.04623,-0.060809,-0.15399,0.13038
0.01503,-0.024536,0.21642,0.048827,0.00047327,-0.043136,-0.028494,0.41166
0.11768,-0.4722,0.10309,0.0055106,0.055993,0.21841,0.4779,0.082879
0.070314,0.54541,-0.30719,-0.052669,-0.059332,-0.14348,-0.51707,0.064592
0.028832,0.38064,0.42119,-0.024778,-0.025311,-0.090108,0.09799,-0.17412
-0.00029783,0.32836,-0.41004,0.072876,0.079673,0.14351,0.13029,-0.39705
0.051174,-0.09437,0.10197,-0.072752,-0.072865,-0.084154,-0.02755,0.30513
-0.21752,-0.33614,-0.12408,0.045892,0.071365,0.14775,0.6721,-0.071332
0.019628,0.13491,-0.13745,-0.086703,-0.011431,-0.0055181,-0.26361,0.40003
-0.051405,-0.13592,0.42775,0.068994,-0.0011778,-0.1072,-0.37549,-0.4089
-0.1267,0.27944,-0.069159,-0.0019309,0.0005034,0.045554,0.10015,-0.27504
0.25465,-0.36863,0.052539,-0.033081,-0.076562,-0.046891,-0.064434,0.62549
0.10089,-0.3966,-0.29905,-0.0082188,-0.028958,-0.086686,0.17803,-0.16576
-0.095098,0.13311,-0.12167,0.010408,0.010848,-0.033314,-0.3341,-0.038204
-0.03577,-0.018058,-0.0068723,0.038184,0.12124,0.1383,0.028397,-0.14817
-0.048726,0.24185,0.53137,0.058726,-0.0024017,0.023377,-0.11202,-0.036008
0.13984,0.036753,-0.20148,-0.038505,-0.032173,-0.0256,0.11702,0.29602
-0.016669,0.53656,0.20842,0.0264,0.023659,0.077492,0.10208,-0.20194
-0.049197,0.018631,-0.091519,0.0022326,-0.015191,-0.003898,0.39135,-0.048925
-0.11357,-0.3905,-0.63402,-0.16647,-0.063354,-0.091345,-0.30599,0.31412
-0.052965,-0.47261,0.71234,0.14521,0.042859,0.0088491,0.17736,-0.2957
0.039516,0.27821,-0.26428,-0.085507,-0.024723,-0.017414,0.17861,-0.30289
-0.06207,0.086158,-0.2437,-0.029136,0.0076725,0.11771,-0.48121,0.54074
0.57243,0.04291,0.3294,0.097375,0.023538,-0.10981,0.23089,0.1485
-0.21296,-0.15748,-0.18437,-0.10251,-0.054342,-0.035718,-0.37626,-0.49489
-0.24626,0.12541,0.21643,0.12283,0.025001,-0.034151,0.29847,0.36995
-0.019574,-0.34982,-0.099687,-0.061503,-0.018837,-0.041244,-0.57019,-0.39493
-0.21244,0.77772,-0.19442,0.10255,0.072519,0.13984,0.32792,0.2999
0.28472,-0.12287,0.24485,-0.041792,0.033626,0.13543,0.38247,-0.20572
0.1049,-0.47943,-0.055919,0.012073,-0.01854,-0.092664,-0.14981,0.0059078
-0.087919,-0.087533,0.33184,-0.042112,-0.053277,-0.044196,0.033173,-0.21095
-0.012981,-0.29843,-0.15572,-0.018467,-0.040092,-0.055486,0.043477,0.34015
-0.077578,0.55868,-0.60566,-0.082427,-0.026708,0.021018,0.060547,0.17401
-0.0098351,0.28575,0.47362,0.069783,0.071997,0.059128,-0.41863,-0.1184
0.20396,-0.051079,-0.011509,0.031537,-0.0024986,-0.075235,0.35868,0.41181
-0.070962,-0.22255,-0.2946,-0.13453,-0.039801,-0.00038407,-0.23868,-0.68552
0.10131,0.49292,0.1725,0.1971,0.10039,0.087566,0.35351,0.25713
-0.061266,-0.67396,-0.030697,-0.050915,0.003941,0.047643,-0.0024462,-0.13034
-0.15213,0.20533,0.71426,0.10672,-0.0085454,-0.096538,-0.40316,-0.012777
-0.021302,-0.15638,-0.33387,-0.055579,-0.022358,-0.016167,-0.028664,-0.20896
-0.22084,-0.34783,-0.71354,-0.17746,-0.098982,-0.022657,0.19351,0.011124
0.23683,0.24756,0.35689,0.0076509,-0.10433,-0.13816,-0.28717,0.48017
0.018902,-0.26846,-0.0051956,-0.01508,0.080092,0.099458,0.23765,-0.21899
0.27616,0.75958,0.051802,0.16895,0.16632,0.22232,0.27325,0.28475
-0.20912,0.0628,0.45731,0.052049,0.0065141,-0.058328,-0.30891,-0.21714
-0.031241,-0.13116,-0.41436,-0.10054,-0.055675,-0.024033,0.18122,-0.20846
0.081254,-0.13728,-0.1817,-0.063158,-0.021056,0.0040899,0.22853,0.20806
-0.085506,-0.015572,-0.096738,0.037815,-0.016041,-0.15473,-0.19966,-0.11085
0.16841,-0.18689,0.15025,0.044477,0.059177,0.1078,-0.39531,0.050047
-0.089391,0.36555,0.23545,0.041048,-0.015934,-0.1076,0.07534,0.0307
0.0067304,0.097698,-0.040322,-0.06776,-0.055364,0.1127,0.41152,0.054242
-0.19169,-0.53176,0.43634,-0.056505,-0.052245,-0.043815,-0.12468,0.094734
-0.065954,-0.20171,-0.32961,0.066469,0.063464,0.032569,-0.28597,-0.13024
-0.11344,-0.33058,-0.33931,-0.065872,-0.02814,-0.024794,0.019709,-0.34693
0.20014,0.50065,0.15072,0.1098,0.056728,-0.059087,0.19809,0.30568
0.26799,0.64851,-0.19145,-0.077002,-0.016532,0.11763,0.17174,-0.10734
-0.072548,0.10878,-0.0078736,-0.01512,0.011364,-0.010034,0.12221,-0.14572
0.00647,-0.22662,-0.064077,-0.0073123,0.016812,0.081329,-0.3303,0.21632
0.20647,-0.29647,0.28087,0.15138,-0.0068585,-0.17098,0.15415,0.51918
-0.30344,-0.49475,0.36198,-0.014086,-0.019811,-0.03287,-0.62288,-0.50269
-0.13568,0.21302,-0.41004,-0.22147,-0.084203,0.042306,0.28876,0.063714
0.16029,0.59554,0.044174,-0.0016629,0.042047,0.23415,0.14332,0.12292
-0.25292,0.039617,-0.19156,0.10589,0.08498,-0.21505,0.099933,-0.31904
0.35117,-0.15217,0.4246,0.12356,-0.026581,-0.086212,0.081263,0.221
-0.33084,-0.4094,0.20601,0.041887,0.065656,0.027355,-0.0080051,-0.28845
0.28135,0.067155,0.051253,-0.031761,-0.07695,0.024592,0.039282,0.24718
-0.12219,-0.31215,-1.0232,-0.24004,-0.049171,0.39811,0.1943,-0.16266
-0.15642,0.02784,-0.22595,-0.0065497,-0.031448,-0.4612,-0.6818,-0.047232
0.35977,0.4664,0.45563,0.081617,0.022707,0.024805,0.21779,0.3374
-0.018594,0.31075,0.96603,0.21939,0.1133,0.098108,0.22454,0.054725
-0.1751,-0.29072,-0.45137,-0.077171,-0.02491,-0.093254,-0.39077,-0.52035
0.13091,-0.0047083,-0.13762,-0.11937,-0.031884,0.22365,0.47271,0.58758
0.19456,0.6017,-0.15941,-0.069492,-0.031741,-0.0063931,-0.26211,-0.076595
-0.36052,-0.64077,-0.2157,-0.0035408,0.023385,-0.11186,0.055563,-0.11677
-0.11298,-0.21304,0.51799,0.15871,0.025103,-0.014749,-0.063476,-0.1913
0.06272,0.070251,-0.1342,-0.010667,-0.041345,-0.042958,0.055687,-0.16886
-0.16786,-0.20417,-0.14587,-0.11219,-0.073768,-0.14912,-0.13128,-0.010948
0.13475,-0.0013441,-0.18711,0.057449,0.076555,0.11267,0.40078,0.3999
0.47247,0.21581,0.29697,0.059978,0.08138,0.14913,-0.19885,0.095887
-0.044085,0.11026,-0.39813,0.0032046,-0.01294,0.015027,0.22624,0.086094
-0.25842,0.57095,0.5997,0.064737,-0.004135,-0.032289,-0.25376,-0.14379
-0.10886,-0.67901,0.34912,-0.070109,-0.041683,0.037455,-0.060698,-0.66297
-0.026838,0.18253,-0.7242,-0.14539,-0.11883,-0.22238,-0.42067,-0.0020294
0.071276,-0.056315,0.5562,0.087675,0.15413,0.18684,0.30016,0.58134
0.23767,-0.43025,-0.59241,-0.035344,-0.059404,0.0062481,0.14223,0.59444
-0.24091,0.54762,-0.28645,-0.053054,-0.041026,0.032281,0.61481,-0.46372
-0.038147,-0.16806,0.18802,0.04345,0.037337,-0.14872,-0.5857,-0.031774
0.094866,0.58054,0.39805,0.16183,0.10559,0.026999,-0.27916,-0.51678
0.025099,-0.35237,-0.64362,-0.11057,-0.054577,-0.1886,0.17474,0.12806
-0.012389,-0.57938,0.8482,0.078927,0.010562,0.24582,-0.084562,0.012998
-0.047315,0.094027,0.00023092,-0.058095,-0.10452,-0.081613,0.30034,0.40538
0.055363,0.052354,-0.61059,-0.099597,0.030669,0.26033,0.14719,-0.27073
0.024916,0.36961,0.46471,0.15729,0.034074,-0.21212,-0.17188,0.16656
-0.081077,-0.043114,-0.20229,-0.077024,-0.070226,-0.1636,-0.22993,-0.01537
0.044794,0.022247,0.37291,0.064021,0.14003,0.24019,-0.021303,-0.049927
-0.17343,-0.34428,-0.27806,-0.13108,-0.10856,-0.01098,0.31218,0.047342
-0.015727,0.29728,-0.07495,0.040383,0.058641,0.15042,-0.12013,-0.34155
0.28357,-0.19314,-0.44246,-0.02334,-0.01532,-0.23908,-0.30141,0.39906
0.12944,0.54245,0.37004,0.083992,0.043592,0.060903,0.22362,-0.11562
-0.31653,-0.45982,-0.25841,-0.028122,-0.054716,-0.12995,0.40303,-0.0049898
0.098534,-0.14118,0.58518,0.015501,-0.0064555,0.0093138,-0.61963,-0.26331
-0.035328,0.32272,-0.098671,0.050998,0.047179,-0.16014,0.11127,0.45935
0.13786,0.038301,-0.26219,-0.11675,-0.057976,0.34861,0.16782,0.0057911
-0.087526,-0.01947,0.039983,0.082759,0.0066203,-0.047643,-0.050849,-0.061454
-0.040731,-0.49116,0.18104,-0.022119,-0.00033186,0.01289,0.32985,-0.2804
-0.033814,-0.1174,-0.20267,-0.079572,-0.015129,0.031838,-0.19146,-0.18032
-0.22112,0.40903,0.014584,0.035668,0.033837,-0.076097,-0.038684,0.15538
0.1425,0.0049565,-0.052023,0.011339,-0.078867,-0.16284,-0.50309,0.11204
0.13074,0.27416,0.35099,0.042914,0.092803,0.23133,0.28833,0.02747
0.090509,-0.016566,0.014518,0.021069,-0.0056579,-0.13755,0.63098,0.30859
-0.014951,0.054662,-0.13063,0.023863,0.094092,0.10349,-0.70254,-0.24075
0.018628,-0.13025,-0.41125,-0.073843,-0.061971,-0.02404,0.21731,-0.14624
0.027101,-0.55696,0.13596,0.0012303,-0.053153,-0.084216,-0.062228,0.29984
-0.2172,0.39062,0.069715,-0.071359,0.025594,0.10947,-0.048194,-0.28111
-0.12228,-0.24116,0.013098,0.0051831,-0.092324,-0.10737,0.25253,0.33432
0.20044,0.57124,0.35671,0.12923,0.076904,0.031231,-0.10444,-0.567
0.022491,-0.42936,-0.077524,-0.02743,-0.03713,0.018336,-0.016783,0.10009
-0.0092353,0.16403,-0.41952,0.011573,0.034631,-0.06675,-0.14802,0.11747
0.057416,-0.195,-0.14208,-0.074385,-0.027562,0.042851,0.025625,0.11204
0.15965,0.11056,0.63397,0.073612,0.073782,0.098225,0.17624,0.2427
-0.23339,-0.2093,-0.095108,-0.099715,-0.067106,-0.032688,0.16341,-0.0031778
-0.1754,0.43749,-0.37263,0.029937,0.073414,0.087967,-0.42654,-0.59147
-0.086965,0.38492,0.3431,0.0086813,-0.075107,-0.18826,0.39145,0.27704
0.033231,-0.45457,-0.41527,-0.039245,-0.020931,-0.04135,-0.20965,-0.021054
0.24858,-0.011223,0.25074,0.073001,0.063413,0.036085,-0.22842,-0.0633
0.56713,-0.22138,-0.12122,0.11846,0.052238,0.13733,0.063268,0.35297
-0.40223,-0.6445,0.28653,0.02688,0.007537,0.0041928,0.36986,-0.12521
-0.37136,0.52868,0.048597,-0.1229,-0.10208,-0.082342,-0.39393,-0.093649
0.30722,0.43625,-0.15131,-0.16533,-0.018415,0.026101,0.43552,0.23447
-0.21856,0.17672,0.27719,0.026811,0.0016362,-0.068776,-0.49508,-0.3615
0.012442,-0.44992,-0.48852,0.081233,0.029763,0.039595,0.20186,-0.14826
0.024609,-0.028977,0.097674,-0.030582,-0.010566,-0.0077457,0.084808,0.32738
-0.19627,-0.14078,-0.54155,-0.17364,-0.039724,0.047402,0.53998,0.035415
0.10898,0.39734,0.41614,0.30935,0.060547,-0.13068,-0.62413,0.23592
0.56621,0.3677,0.49678,0.12104,0.024991,0.028237,0.2069,-0.65419
-0.27783,-0.45603,-0.0082058,-0.23286,0.001559,0.30498,-0.45219,0.25077
-0.17426,-0.11219,-0.30043,0.03322,0.020193,-0.23872,-0.25635,-0.10946
-0.093806,-0.56715,-0.035795,0.063467,-0.04603,-0.017885,0.79771,0.17239
0.33617,0.63723,-0.097852,0.0021209,0.035086,-0.033482,-0.3088,0.064405
-0.28492,-0.092523,-0.058415,-0.021253,-0.0040739,0.041882,0.069842,-0.014012
0.2446,0.66882,0.948,0.18713,0.061679,0.067295,-0.13988,0.42534
-0.10682,-0.4556,-0.79088,-0.14555,-0.01028,0.10556,0.47165,-0.37237
-0.22105,-0.40338,-0.2755,-0.39153,-0.18026,-0.11582,-0.21102,-0.03684
-0.025795,-0.33798,-0.013031,-0.3199,-0.21233,-0.29067,-0.22691,-0.31385
-0.20592,0.3499,0.084216,0.36329,0.19251,0.16872,0.17257,0.013654
0.57712,0.29107,0.47181,0.2326,0.15363,0.068822,-0.13214,0.40715
-0.057518,0.019556,0.25395,0.51706,0.055475,-0.050005,-0.24541,-0.19317
0.10989,0.31582,-0.74682,-0.11918,0.086303,0.15652,0.32212,0.076377
0.079246,0.15231,0.095894,-0.10023,-0.043246,0.00044343,0.41177,-0.044777
-0.39257,-0.6103,0.094903,-0.3283,-0.17028,-0.0039931,-0.7986,-0.39548
0.021328,0.15332,0.1712,-0.065362,0.047303,-0.03071,0.66656,0.39529
-0.10203,-0.3606,0.23689,0.19305,-0.0093589,-0.089788,-0.29453,0.35313
0.13513,0.23348,-0.33578,-0.11724,-0.060263,-0.0035454,-0.25943,-0.14679
-0.11111,-0.2467,-0.39375,-0.65996,-0.15286,-0.054559,0.33545,-0.2077
-0.05162,0.011255,0.19262,0.61382,0.22079,0.084894,-0.56326,0.026768
0.16509,0.40765,0.51428,0.5196,0.13173,0.040378,0.91281,0.045204
0.33536,-0.10152,-0.32924,-0.43957,-0.12995,-0.1008,-0.36057,-0.10901
-0.16693,0.26801,0.57512,0.16817,-0.039756,0.069468,-0.086326,-0.14183
-0.12468,-0.17669,-0.78809,-0.35953,-0.057816,-0.0015362,-0.092841,-0.0082627
0.18688,-0.25448,-0.24558,0.18746,0.058478,-0.11683,0.21313,0.32195
-0.37439,0.27728,0.29098,0.11172,0.14502,0.21684,0.38589,-0.35465
-0.12176,-0.41763,0.10585,0.043231,-0.040813,-0.070575,-0.67609,0.31348
0.17932,0.41008,0.24119,0.049498,-0.10907,-0.089022,-0.24567,0.24828
0.28,0.087826,0.41059,-0.18397,0.064573,0.12902,0.44387,-0.25334
-0.099012,-0.45518,-0.68085,0.068845,-0.0047079,-0.0040072,-0.5516,-0.40997
0.083764,0.37477,-0.055421,-0.105,-0.0044865,-0.013163,0.94067,0.6539
-0.27849,-0.3751,0.22484,-0.42168,-0.11412,-0.079413,0.15514,-0.38085
0.10566,0.27241,-0.42613,-0.22161,-0.051739,-0.10966,-0.83105,-0.16064
0.034884,-0.18202,0.53791,0.65459,-0.011993,0.12276,0.19895,0.62993
-0.1851,0.058937,-0.25912,0.58384,0.25554,0.017056,0.23478,-0.90408
0.1566,0.40164,0.071875,-0.13689,0.024268,-0.10523,-0.51524,0.47539
-0.050521,-0.38071,-0.10381,-0.18124,-0.018918,0.18695,0.75138,0.076296
0.25382,0.36778,0.39144,-0.271,-0.046925,-0.13649,-0.19316,0.025842
-0.1286,-0.22798,-0.10059,-0.11271,-0.084386,0.026721,-0.55198,-0.2066
0.041252,-0.16754,-0.026623,0.22054,0.047397,0.082914,0.50433,-0.11444
0.12004,-0.10588,-0.11378,-0.47578,0.066705,0.070645,-0.51401,0.47119
-0.25331,0.15426,-0.58034,0.071878,-0.30748,-0.18291,0.052236,-0.094648
-0.27434,-0.11926,0.48137,0.21651,0.08982,0.016446,0.58891,0.31602
0.10509,-0.19015,-0.40323,-0.039761,-0.0056558,0.050504,0.12967,-0.56685
0.12971,0.43471,0.81468,0.69588,0.14978,-0.05013,-0.51939,0.24588
0.091786,0.12196,-0.043113,-0.051306,0.27619,0.17537,0.14981,-0.49689
0.1507,0.36175,-0.022794,-0.44411,-0.18023,-0.32725,-0.44167,0.14335
-0.011468,-0.44287,-0.36658,-0.13789,0.04654,0.23197,0.60311,-0.080806
-0.22942,-0.21735,0.4876,-0.26479,-0.21535,-0.083346,-0.28015,-0.04102
-0.042388,-0.14446,-0.82792,-0.34769,-0.28646,-0.014342,0.59444,0.58598
0.1029,0.15678,-0.16495,0.59805,0.11402,-0.052539,-0.38346,0.16912
0.0087549,0.13141,0.53893,0.60339,0.37607,0.21618,-0.83113,0.052191
0.25825,-0.19592,0.049256,-0.051505,0.06131,-0.029179,0.76797,-0.47716
-0.32329,-0.36992,0.34215,-0.17318,-0.1049,-0.039907,0.056111,-0.16339
0.090057,0.59627,0.11979,-0.73276,-0.17084,-0.098945,-0.39448,-0.063454
-0.041965,0.52501,-0.36924,0.25955,0.041686,0.18264,0.70682,0.51647
-0.12559,-0.4653,-0.53277,0.19244,-0.015467,-0.15738,-0.96748,-0.6114
0.059122,0.25065,0.44038,0.21317,0.12558,0.005458,0.38657,0.17885
0.10018,-0.67138,-0.13809,-0.48325,-0.074493,0.062189,0.65741,0.060866
-0.0077135,-0.56041,0.067644,0.17402,-0.17779,-0.19678,-0.37706,0.16168
-0.14494,0.75441,0.058071,0.27206,0.15266,0.043136,-0.11921,0.0063879
0.24511,0.72526,0.46693,-0.015673,0.11371,0.049996,0.12261,0.34582
0.069833,-0.55488,-0.75929,-0.038962,0.019733,0.27148,0.064639,-0.66396
-0.061145,-0.0083555,0.25564,-0.49905,-0.15856,-0.032713,-0.79395,0.17127
-0.17176,0.20077,0.1848,0.40275,-0.052155,-0.25208,0.41516,0.08417
-0.028696,-0.61442,-0.27535,0.19931,0.059199,-0.01138,0.085373,-0.18491
-0.016134,0.10968,0.46993,-0.1159,0.098309,0.087172,-0.037354,0.40156
-0.057453,-0.062974,-0.46911,-0.47188,-0.10648,-0.090655,0.55095,-0.11029
0.22864,0.42358,-0.029288,0.22509,-0.016719,0.19532,-0.41973,-0.11857
-0.14366,-0.14873,-0.10081,0.028814,0.038059,-0.096299,-0.1188,0.15169
