0.0085469,0.030686,0.046153,-0.0049462,-0.0013503,0.0031143,-0.029143,-0.010124
-0.020613,0.020933,0.086991,0.033808,0.028953,-0.01349,-0.0035789,-0.048142
0.034419,0.0078848,0.062608,0.0097652,-0.011065,0.0026923,0.095727,0.093243
0.056309,0.092781,0.13575,0.055702,0.011557,0.020646,0.13357,-0.054188
-0.048513,-0.044585,0.0399,-0.015918,0.0031887,0.032486,0.28654,0.37722
0.087675,0.088425,0.11071,-0.0019636,0.0029661,-0.032517,-0.37826,-0.51063
-0.28429,-0.25752,-0.86233,-0.082042,-0.028143,0.028039,0.21479,0.11835
0.13347,0.058954,0.43434,-0.021597,-0.019841,-0.021145,-0.63855,-0.024937
-0.16592,0.085471,-0.021176,0.015564,0.02781,0.13148,0.1874,-0.065762
0.28697,0.033632,0.24939,0.021904,-0.010298,-0.2258,-0.070549,0.12821
0.1095,0.12281,0.41166,0.075759,0.021931,0.023745,0.10694,0.36105
-0.011182,0.10369,-0.31439,0.052214,0.069629,0.13792,0.93501,-0.41467
-0.13057,-0.07752,-0.55288,-0.10348,-0.086134,-0.13286,-1.02,0.32425
-0.10911,-0.45864,0.18893,-0.024303,-0.0079912,0.087208,0.19011,-0.023398
-0.14319,0.1415,0.34892,0.039516,-0.0084959,-0.06027,-0.027247,-0.87837
0.078779,-0.20528,-0.30709,-0.045039,0.0061495,0.011639,0.022869,0.683
0.16553,0.30674,0.27555,0.02658,0.020459,0.014684,0.32292,-0.14963
0.13234,0.1854,-0.20824,-0.0035113,0.026816,0.082161,-0.083247,-0.03051
-0.12245,-0.086229,-0.087384,-0.049406,-0.052691,-0.090523,-0.17569,0.34624
0.0029377,0.36415,0.12123,0.076369,0.032126,0.066671,-0.098399,0.1837
-0.053505,-0.20158,0.29875,0.045631,0.02359,-0.040544,0.0053961,-0.58209
-0.04094,-0.49066,-0.52539,-0.071392,-0.054782,-0.037816,0.063879,0.29611
-0.005103,0.12605,0.67059,0.084593,0.054845,0.066448,0.022076,-0.25571
-0.077483,0.22417,-0.34099,-0.080177,-0.038164,-0.048473,-0.041117,-0.11657
0.1573,-0.19722,-0.13065,-0.065599,-0.02916,-0.054606,0.016405,0.66291
0.10655,0.21421,0.021249,0.081697,0.050556,0.095028,0.12608,-0.084227
-0.16664,-0.2347,-0.28967,-0.075436,-0.033458,-0.060217,-0.093264,-0.19552
0.025213,-0.033038,0.048461,0.033694,0.023392,0.011272,-0.17168,-0.52259
0.079839,0.26788,0.32715,0.042196,0.010055,0.012935,0.32902,-0.048415
-0.30875,0.16331,0.181,0.04394,0.0045214,0.069937,0.096486,0.1202
0.32646,-0.42252,-0.20972,-0.047116,-0.024591,-0.028695,-0.31471,0.7989
0.11631,0.36334,0.34174,0.096835,0.05542,0.005874,0.18118,0.092461
-0.35511,-0.71299,-0.37751,-0.1731,-0.099262,-0.10798,-0.19712,-0.41811
0.19199,0.84833,-0.073169,0.064457,0.04259,0.051184,-0.22287,-0.36317
0.092797,0.22652,0.041155,-0.058139,-0.011211,0.037612,0.22924,0.16561
-0.050992,-0.6256,-0.16948,0.005626,-0.018497,-0.086582,-0.11411,-0.10339
-0.39453,-0.37192,0.20777,0.060184,0.028468,0.076737,0.25462,-0.1686
-0.084344,0.14453,0.071161,0.042876,0.0514,0.03518,0.32673,0.81488
0.67892,0.72178,0.14807,0.01614,-0.0046132,-0.070691,-0.39909,-0.69146
0.054173,-0.82661,-0.30208,-0.082472,-0.030418,0.063927,0.20851,0.66368
-0.25296,0.68731,0.1056,0.051945,0.036369,0.01751,0.00011975,-0.87094
-0.23264,-0.82317,-0.064188,-0.072365,-0.069783,-0.053066,-0.40707,0.17911
0.054002,0.73347,-0.0048559,0.092139,0.042133,0.009351,-0.1446,0.49842
-0.13474,-0.052731,-0.043276,-0.10992,-0.06471,-0.10663,0.18842,-0.29911
0.052158,0.47771,-0.069774,-0.013527,-0.01443,0.01422,0.071707,0.43169
0.46459,-0.49237,0.33674,0.038489,0.03765,0.052593,0.26613,-0.10093
-0.079901,-0.56037,-0.12232,0.007725,-0.0014448,0.0012884,-0.10114,-0.72672
-0.092741,0.23298,0.16794,0.15226,0.11089,0.18846,-0.037309,0.32752
-0.25767,0.036985,0.11161,-0.10625,-0.055081,-0.097478,-0.0045509,0.32851
-0.055195,0.48793,-0.28488,-0.01851,-0.023379,-0.1234,-0.091835,-0.65919
0.1052,-0.59609,-0.45899,-0.054348,0.0018678,0.038664,0.048054,0.5073
0.23704,0.44801,0.2785,0.011505,-0.043118,-0.074085,0.16799,-0.43592
0.058496,-0.24009,0.35263,0.14649,0.090325,0.17721,-0.056984,0.40999
0.047211,0.064101,-0.49828,-0.1193,-0.075548,-0.075991,-0.26318,0.61419
-0.70816,-0.44065,0.16703,-0.021063,0.013106,0.11089,0.30558,-0.94303
0.17929,0.37887,-0.21927,-0.043605,-0.042543,-0.098049,-0.24068,0.68053
0.4724,0.39469,0.65567,0.10996,0.054486,-0.16288,0.069724,0.20108
-0.065742,-0.29776,-0.0071881,-0.028691,0.023515,0.10545,-0.063042,-1.0228
0.030596,0.44933,-0.11074,0.049002,-0.0017031,-0.041065,-0.023617,0.21403
-0.35992,-0.35773,-0.028108,-0.030979,-0.012181,0.1106,0.16288,0.16637
-0.055624,-0.38389,-0.085822,-0.072233,-0.092615,-0.070579,-0.18587,-0.47095
0.42786,0.27839,-0.32029,0.066927,0.07844,0.065,0.058446,0.45114
-0.38027,-0.31167,-0.00017669,-0.089164,-0.02159,0.080189,0.29506,0.19834
0.35212,0.088432,0.21792,-0.00084249,0.014007,-0.048915,-0.20449,-0.17692
0.27628,-0.13478,-0.29649,0.11335,0.044606,-0.073432,0.032128,0.24912
-0.29284,0.60307,0.26575,0.01882,0.0072614,0.028584,0.1788,-0.049457
-0.29747,0.06756,0.58224,0.07434,0.026185,-0.025645,-0.1145,0.022307
0.18881,0.10267,-0.36447,-0.12718,-0.094899,-0.049906,-0.056432,0.19682
-0.093078,-0.65922,-0.55337,-0.11005,-0.028812,0.033084,-0.38522,-0.80297
-0.36106,-0.32948,0.30868,-3.1095e-06,-0.010685,0.012049,0.41326,0.15233
0.28578,0.087766,-0.033875,0.1635,0.091842,0.035558,-0.27725,0.64707
0.15553,0.60925,0.075451,-0.049256,-0.049459,-0.075599,-0.070973,-0.47337
0.57975,0.46003,0.58806,0.11212,0.11252,0.17144,0.36444,0.15613
-0.72799,-0.69961,-0.6869,-0.16416,-0.070137,-0.097602,-0.013323,-0.1965
0.22588,0.48452,0.050845,-0.064687,-0.081115,-0.061748,0.08099,0.5454
-0.097783,-0.086728,0.26532,0.098977,0.056916,0.09202,0.095541,-0.27268
-0.29415,-0.58174,-0.3838,-0.039587,-0.053781,-0.14379,-0.42922,-0.49884
0.43122,0.14559,0.26407,0.11377,0.048218,0.09809,0.0066749,-0.44214
-0.29969,-0.43588,-0.4105,-0.089533,-0.0041204,-0.018427,0.15978,0.62544
0.432,0.42602,0.31027,0.060753,0.070207,0.060961,-0.018829,0.2798
-0.04022,0.062766,0.075036,-0.077214,-0.057557,-0.031484,0.10899,0.59207
-0.17072,0.33705,0.50222,0.12003,0.064803,0.047378,0.04864,-0.051198
-0.060695,-0.24899,-0.62485,-0.060038,-0.032464,-0.015487,-0.12374,-0.5877
-0.15321,0.15641,0.087201,-0.0015558,-0.029914,-0.095393,-0.057781,-0.12918
-0.15524,0.090481,-0.18644,-0.041234,-0.053085,0.010779,-0.011516,-0.037286
0.31334,-0.083108,-0.12969,-0.022844,-0.039556,-0.056014,-0.077965,0.047151
0.27367,-0.025001,0.36252,0.077846,0.15952,0.18921,0.22873,-0.38033
-0.28504,-0.58332,0.28538,-0.050151,-0.10348,-0.15124,-0.21459,0.50805
0.0076596,-0.08979,-0.39033,0.01702,0.070914,0.12651,0.15633,0.20012
-0.22225,0.51572,-0.070158,-0.10919,-0.074035,-0.09416,-0.126,-0.43065
0.23446,0.15408,0.088933,0.026123,0.0094195,0.022995,0.20447,-0.17347
-0.0015006,0.21618,0.092618,0.088074,0.040533,0.017012,-0.032417,0.54951
0.21195,-0.015279,0.078231,0.05334,-0.0040922,-0.026513,-0.02543,-0.068206
-0.015468,-0.74092,-0.40358,0.046011,-0.0077107,-0.014422,-0.096608,0.016024
0.043365,0.40993,0.77574,-0.021603,0.036663,0.099429,0.13509,-0.14243
-0.24225,-0.18343,-0.78612,-0.050158,0.0029916,-0.09194,-0.14423,-0.14716
-0.062754,0.28847,0.14224,-0.057454,-0.023798,0.043698,-0.021155,0.31799
0.0042535,-0.099285,0.43423,0.048626,0.018041,0.0060245,0.07483,0.22425
-0.18567,-0.084758,-0.48834,0.017364,-0.028057,-0.040885,-0.034931,-0.68378
-0.071072,-0.37606,-0.0067223,-0.2212,-0.091585,-0.026381,-0.036342,0.042465
0.14528,0.59815,0.32729,0.084226,-0.015653,-0.043647,0.0020779,-0.10774
0.29166,0.08678,0.19724,0.029308,0.060012,0.04076,0.035026,0.63818
0.0696,-0.038271,-0.45511,0.13169,0.073802,0.071092,0.16507,0.35964
-0.04887,-0.32854,0.015004,-0.01325,0.0029029,-0.030572,-0.10754,-1.0495
-0.13413,-0.094116,-0.475,-0.10778,-0.019706,0.001219,-0.0098868,0.39207
0.17005,0.41762,0.72546,0.12927,0.052518,0.12689,0.081934,-0.075624
-0.19634,-0.15663,0.2107,-0.0061839,-0.07803,-0.13084,-0.13811,-0.13441
0.29177,0.34528,0.096926,0.093714,0.095556,0.094584,0.086532,0.23606
-0.13691,-0.38071,-0.39933,-0.11956,-0.060345,-0.11908,-0.11999,-0.04729
-0.31451,-0.51121,-0.3122,-0.22546,-0.15557,-0.12329,-0.062643,0.015834
-0.070896,0.075906,0.074139,0.14252,0.12243,0.11385,0.13383,0.36031
-0.17892,0.4957,0.34317,0.00012613,0.0085917,0.069927,0.032596,-0.23018
0.1215,-0.33275,-0.17095,0.012213,-0.050822,-0.089776,-0.068621,-0.38812
0.70839,0.85134,0.077427,0.078425,0.10155,0.11238,0.11997,0.31542
-0.11865,-0.70988,-0.68617,-0.16721,-0.11924,-0.088566,-0.080904,0.036083
-0.13145,0.073899,0.63071,-0.020723,-0.056357,-0.012874,-0.022816,-0.014428
0.10768,0.53998,0.36206,0.34624,0.28243,0.18258,0.067218,0.2062
-0.64464,-0.53879,-0.22137,-0.090247,-0.11124,-0.12843,-0.069412,-0.49087
0.26577,-0.28068,0.049137,0.028183,0.050628,-0.033433,-0.058686,0.060587
0.031801,0.0018341,-0.2278,-0.17471,-0.12386,0.004972,0.082813,0.40505
0.24509,0.42867,-0.054023,-0.10625,-0.010921,0.094766,0.15125,-0.43403
0.20904,0.59238,0.31283,0.12368,-0.002039,-0.10082,-0.10367,0.17732
-0.36543,-0.52701,-0.18692,-0.015965,0.027491,0.035317,-0.10351,-0.58822
-0.10189,0.14121,-0.07888,0.014794,0.038928,0.0038918,0.043234,0.21359
-0.02095,-0.89067,-0.28473,0.037694,-0.029372,-0.060892,-0.044843,0.82871
-0.22029,-0.31878,0.025237,-0.078503,-0.012174,0.0068245,0.0011067,0.16372
0.50746,0.61401,0.19627,-0.18403,-0.19733,-0.18176,-0.10641,-0.01848
-0.35738,0.26373,0.15004,0.29996,0.22079,0.21856,0.11806,-0.1679
0.19551,-0.15173,0.25045,0.10001,0.078592,0.12259,0.19047,-0.80529
0.29182,0.65658,-0.3145,0.11375,0.10254,0.084916,0.0086351,-0.41131
-0.1713,0.35287,0.24844,-0.3242,-0.16111,-0.12193,-0.10074,0.43369
-0.11869,-0.77209,-0.33356,-0.051222,-0.096027,-0.17902,-0.11611,0.26857
0.37531,0.47499,0.40653,0.13468,0.12505,0.15434,0.14808,0.31328
-0.48257,-0.86917,-0.11963,-0.0091922,-0.045262,-0.044887,-0.036181,-0.024171
-0.36791,-0.24909,-0.53854,-0.21702,-0.14608,-0.14442,-0.18518,0.23419
0.29485,0.78712,-0.044622,0.082324,0.026151,0.0043252,-0.017358,-0.52047
0.16067,-0.090436,0.79601,0.085233,0.065958,0.11306,0.10128,-0.10896
0.30762,0.022102,-0.21977,0.034868,0.060095,0.03444,0.063096,0.2175
-0.099316,-0.66883,-0.47918,0.1036,0.087283,0.089874,0.080922,-0.066074
-0.11322,-0.33649,0.42996,0.064688,-0.00075351,-0.024525,-0.038946,0.20303
-0.20084,0.32235,-0.21935,-0.20771,-0.14968,-0.1522,-0.092376,0.024113
-0.21943,0.9124,-0.13076,-0.089895,-0.024357,0.0034435,0.038048,-0.071312
0.38772,0.52514,0.0062447,0.16671,0.085059,0.066621,0.023637,-0.51166
0.19251,-0.46525,0.16352,0.029677,0.044605,0.043952,-0.011831,0.22858
-0.23376,0.1067,0.40326,-0.040732,-0.045153,-0.026889,-0.023131,0.081558
-0.10184,-0.6674,-0.23922,-0.20856,-0.08331,-0.030065,-0.012053,0.22918
-0.099765,-0.16532,0.19054,0.12846,0.039301,0.0020996,0.019784,-0.022451
0.34163,0.20602,-0.35433,0.010575,0.018267,0.029963,0.047759,-0.040281
0.32249,0.19235,0.087554,0.048612,0.041788,0.022337,0.032269,0.20591
-0.71325,-0.53371,-0.10609,-0.013886,-0.045379,-0.059081,-0.1046,-0.42657
0.25697,0.44722,0.54769,0.10534,0.031372,-0.041018,-0.041592,0.1455
0.061088,-0.48941,-0.33881,-0.13227,-0.031488,0.023687,0.035308,-0.033851
-0.32374,0.032549,-1.0866,-0.0080209,-0.014203,-0.01138,-0.051767,-0.40468
0.14275,0.32498,0.58785,0.047913,0.029264,0.019698,0.066141,1.0857
0.01666,0.65705,0.35972,0.10507,0.060215,0.079213,0.10133,-0.61862
0.26008,0.23088,-0.026764,-0.13428,-0.046386,-0.011927,-0.047068,-0.48705
-0.048412,-0.56812,-0.01834,-0.02242,-0.048779,-0.035269,-0.019829,0.44137
-0.10457,-0.099431,0.64429,-0.098933,-0.080553,-0.10917,-0.044436,-0.11424
-0.042581,-0.45739,-0.51926,0.065617,0.11507,0.12389,0.05728,0.44049
0.041809,0.56232,0.12331,0.096178,0.091611,0.091341,0.025697,-0.0030275
0.13077,-0.2152,0.0062235,0.08656,-0.019295,-0.045039,-0.015924,-0.25634
-0.36353,-0.33552,-0.15553,-0.080319,-0.04675,-0.029345,-0.061103,-0.32602
0.37813,-0.10578,-0.090441,-0.044961,-0.077311,-0.14403,-0.040203,0.26613
0.043304,0.19297,-0.015533,0.075629,0.052959,0.079347,0.10938,0.13148
-0.34328,0.25692,-0.1433,-0.1245,-0.10084,-0.13983,-0.16622,-0.19655
0.11924,-0.21147,-0.31464,0.034797,0.055909,0.1295,0.07969,-0.11442
-0.26915,0.85417,0.24999,0.022871,0.11034,0.17048,0.098753,-0.12861
0.072867,-0.46059,0.089473,-0.034611,-0.053457,-0.061788,-0.04494,0.48785
0.10098,-0.33985,0.53127,0.019193,-0.028116,-0.08109,-0.021982,0.054566
0.48061,0.57619,0.096093,0.028392,0.015278,-0.018827,0.035611,-0.047269
0.063217,-0.21321,-0.47172,-0.053904,-0.0010699,0.047744,0.042161,0.22724
-0.28547,-0.05945,0.13948,0.053103,-0.053885,-0.10767,-0.049423,-0.18601
-0.3412,-0.2723,0.28602,0.075115,0.082791,0.061497,-0.083447,-0.63131
0.13569,-0.44704,-0.54398,0.018807,0.056478,0.038799,0.048738,-0.013953
0.041515,-0.21435,-0.1355,-0.14045,-0.071366,0.073046,0.033888,0.3403
-0.23446,0.66498,-0.12376,-0.013034,-0.03607,-0.05589,-0.0036455,0.12994
0.080649,0.51747,0.24075,-0.013594,0.013253,0.017833,-0.040935,-0.1967
0.26816,-0.033752,0.55323,0.10782,0.013833,-0.01939,0.031015,0.50291
0.17217,0.086145,-0.13648,-0.0076454,-0.065418,-0.16827,-0.038097,-0.31811
-0.18357,-0.18282,-0.39487,-0.077772,-0.013042,0.01623,-0.045453,-0.28696
-0.009882,-0.36356,-0.046129,0.039312,0.13262,0.17487,0.1492,0.43588
-0.12717,-0.4337,-0.17292,-0.084819,-0.073016,-0.027936,-0.048367,0.19652
-0.17629,0.096787,0.62517,0.058669,0.0033934,-0.013624,-0.037136,-0.2373
0.12378,0.13129,-0.073507,0.025029,0.026139,0.038474,0.088617,-0.15159
0.33542,0.60404,-0.36439,0.056445,0.0029095,-0.01987,0.047278,0.11492
-0.11938,0.64449,0.28036,0.074235,0.01923,-0.071394,-0.22371,-0.8365
-0.099548,-0.58637,-0.0032372,-0.070988,-0.011403,0.024536,0.018166,0.73074
0.03636,-0.89543,-0.24367,-0.044367,-0.0035905,0.033596,0.015839,0.055185
-0.054162,0.075778,0.37478,-0.096826,-0.059237,0.01848,0.043789,-0.17053
-0.25234,-0.01579,-0.51837,-0.010153,0.0013122,0.018658,0.15789,0.56645
0.17012,0.66794,0.23178,0.051547,-0.0091427,-0.11367,-0.1798,-0.61269
0.27729,0.11454,0.57929,0.10432,0.050585,0.044161,0.11758,0.38816
-0.18751,-0.19575,-0.7461,-0.054199,-0.06102,-0.092925,-0.12908,-0.50856
0.15894,0.23301,-0.14561,-0.032533,0.062901,0.085158,0.049181,0.25084
-0.14474,-0.27544,0.33211,0.060725,0.039915,0.078808,0.035043,0.21895
-0.14672,-0.5619,-0.11947,-0.062967,-0.03617,-0.018278,-0.0078772,0.29175
0.057205,0.34451,0.30125,0.049679,0.029683,0.0042828,-0.041182,-0.43913
0.21446,0.5151,-0.23923,0.007824,0.010379,0.075198,0.11401,-0.0687
-0.10756,-0.65234,0.118,-0.025022,-0.10256,-0.17397,-0.1916,-0.58927
-0.12272,-0.066775,-0.036824,-0.026208,-0.020735,-0.072631,0.0098805,0.054651
0.0022293,0.14958,-0.092566,-0.027871,0.060013,0.12807,0.10047,0.75491
0.093324,0.35674,0.74015,0.062895,0.014343,0.028884,0.024792,0.40305
0.26659,0.43677,-0.42119,0.07355,0.037443,0.02006,0.063605,-0.28994
-0.22007,0.0059784,-0.356,-0.066596,-0.026857,-0.0076873,-0.048937,-0.50483
-0.11514,-0.59894,-0.27053,-0.15443,-0.068927,-0.053805,-0.039224,0.3032
0.36572,-0.13171,0.39817,0.22447,0.11475,0.023286,0.0074526,-0.14969
-0.60902,-0.12262,-0.14274,-0.10887,-0.061257,-0.056435,-0.087483,-0.49884
-0.018455,-0.0031651,0.137,-0.005097,-0.03392,-0.041636,-0.088192,0.66004
0.2053,0.096402,-0.1606,0.0055479,0.025417,0.068895,0.10065,0.4432
0.38713,-0.23275,0.08966,0.0020721,0.023447,0.11198,0.17572,-0.21145
-0.29817,0.10861,0.034621,-0.0071113,-0.023917,-0.044792,-0.065257,-0.48183
0.024993,0.60808,0.068137,0.0094375,-0.038478,-0.11254,-0.11435,-0.31802
0.10478,-0.094912,0.31493,0.082701,0.081151,0.079903,0.074624,0.12753
-0.04723,0.16473,-0.12697,-0.092683,-0.04825,-0.015418,-0.01536,0.13986
0.37595,-0.39113,0.14278,0.16204,0.088365,0.061171,0.15292,0.60465
-0.62386,-0.1078,-0.40613,-0.1463,-0.040898,0.0038034,-0.14903,-0.53946
0.17448,0.25249,-0.31131,-0.049758,-0.038178,-0.047757,-0.00096416,0.12058
-0.30327,-0.29956,-0.03053,-0.040958,-0.075734,-0.14857,-0.099188,0.22245
0.51134,0.42036,0.48091,0.1223,0.10414,0.11559,0.11082,0.51196
-0.061051,-0.071612,0.12189,0.010782,-0.0061781,0.034463,0.035981,-0.75737
-0.15873,0.026776,-0.018993,0.015885,-0.023443,-0.031621,-0.13484,-0.1278
-0.23891,-0.89114,-0.52352,-0.13492,-0.040834,-0.019127,-0.032748,-0.29581
0.17151,0.18175,0.3474,0.0045367,-0.010908,-0.020958,0.07051,0.052311
0.28759,0.16154,-0.15188,0.11451,0.12927,0.15085,0.13715,0.4433
-0.14531,0.58993,0.18488,-0.0079323,-0.049803,-0.050577,0.034952,0.092606
-0.047358,-0.16493,0.20272,0.027565,-0.0013274,-0.047578,-0.12688,0.043884
0.034614,0.21485,-0.5132,-0.03747,-0.0068823,0.041891,0.072696,-0.050834
0.18513,-0.24617,0.63597,0.092935,0.026801,-0.0096164,-0.03166,-0.29911
-0.22324,-0.058785,-0.46327,-0.21499,-0.12736,-0.14039,-0.13661,0.056575
-0.0058289,0.26318,0.028049,0.092658,0.11615,0.11,0.06921,0.24048
0.084778,0.0483,0.37881,-0.023696,-0.032019,0.014843,0.014806,-0.016773
-0.21891,-0.24941,-0.66448,0.0061146,-0.017238,-0.050657,-0.0109,0.20225
0.19159,-0.38485,0.31042,0.026015,0.051239,0.062454,0.039339,-0.22379
-0.16018,-0.26625,0.18652,0.028599,-0.045067,-0.027951,0.033476,-0.23539
-0.078138,0.19337,-0.25276,-0.024666,-0.0089304,-0.00083655,-0.066581,-0.14635
0.32163,0.62234,-0.05044,0.023024,0.058441,0.074118,0.037028,0.23927
-0.12394,0.13453,0.52502,0.039374,-0.069224,-0.1464,-0.076755,-0.091943
0.06229,-0.48449,-0.68504,-0.12359,-0.0089265,-0.045026,-0.016793,-0.035275
0.28672,0.11996,0.25413,0.050175,0.098778,0.19845,0.16235,0.46725
-0.37272,0.097674,0.026275,0.0063594,-0.011758,-0.033525,-0.055196,-0.12856
-0.12719,-0.32524,0.35268,0.065634,0.018787,0.055433,0.072194,-0.039815
0.1562,0.48221,-0.39883,-0.052936,-0.075232,-0.074265,-0.10462,-0.047327
-0.084498,0.40825,0.36424,-0.020984,0.0031328,-0.032385,-0.047248,-0.0345
0.050266,-0.97892,-0.65806,-0.10404,-0.12877,-0.13158,0.0016172,-0.057325
-0.016151,0.022809,-0.0014653,0.03374,0.060511,0.0267,-0.028578,-0.33623
0.061594,0.20294,0.71139,0.20447,0.16486,0.16932,0.088738,0.095752
-0.082313,-0.35856,-0.25967,-0.069077,-0.042327,-0.015859,0.002194,0.52595
0.22489,0.68479,0.17356,-0.0065183,0.016814,0.010495,-0.0066861,-0.19562
-0.039983,-0.37522,-0.14962,0.0083622,-0.041013,-0.087489,0.023306,0.3283
-0.072656,0.46333,-0.19292,-0.11906,-0.044543,0.057198,0.014275,-0.4341
-0.16315,-0.23664,-0.38659,-0.061284,-0.041252,-0.055827,-0.057024,-0.10746
0.054374,-0.31242,0.80244,0.18928,0.10121,0.072935,0.043983,0.075323
0.047097,0.34237,-0.3172,-0.046857,-0.031463,-0.010136,-0.049656,0.18715
0.0008467,0.16102,-0.052488,0.051174,0.0060977,-0.047606,-0.048602,-0.33886
0.14051,-0.4003,0.048053,-0.078296,-0.027994,0.022849,0.063041,0.094737
-0.25426,-0.25242,-0.10348,-0.074966,0.023007,-0.0018413,-0.027055,0.30365
0.1901,0.42907,-0.20568,0.015128,-0.059067,-0.1058,0.0013786,-0.1789
0.05056,0.024613,0.2204,0.012865,0.0075794,0.055086,0.054243,-0.14969
-0.25953,0.088243,0.38552,0.12154,0.043659,-0.0032011,-0.095708,0.053215
0.36902,-0.01949,-0.08018,0.090886,0.1353,0.24304,0.21464,0.363
-0.19613,-0.13159,-0.0094242,-0.071923,-0.061285,-0.08108,-0.015753,-0.29664
-0.2273,-0.43117,-0.10295,-0.10208,-0.10878,-0.15523,-0.18623,0.090944
0.18342,0.26674,-0.15477,-0.055024,-0.062132,-0.096626,0.0073846,0.32405
-0.11821,0.022313,-0.11346,-0.056272,0.047169,0.086959,0.010464,-0.32864
0.19801,0.098273,-0.089112,0.089382,0.070539,0.10661,-0.02786,-0.25973
0.21988,0.32643,0.41264,0.20255,0.078263,0.048562,0.18271,0.2587
-0.20742,0.29484,-0.22847,-0.10675,-0.038951,-0.071191,-0.15315,-0.026403
-0.27831,-0.66782,-0.091933,-0.12673,-0.13249,-0.13504,-0.072971,-0.50604
-0.00029935,-0.3826,0.42296,0.0028921,0.032244,0.076143,0.041658,0.039525
0.18108,0.11763,-0.44331,0.040738,0.0023476,-0.031176,-0.0039889,0.40783
0.31208,0.34636,-0.069557,0.010782,0.0045236,0.027363,0.26647,0.30075
0.024595,0.51215,0.45913,0.15538,0.14033,0.18894,0.10992,0.43269
-0.29953,-0.36399,-0.2663,-0.064789,-0.027903,-0.08612,-0.40482,-0.64184
-0.47371,-0.68286,-0.12724,-0.23631,-0.17241,-0.15802,-0.076337,-0.25443
0.29819,0.37372,0.26546,0.13989,0.096975,0.073928,0.10161,0.05781
0.21084,0.42109,0.51039,0.11741,0.029771,0.030809,0.10445,0.2254
0.076049,-0.26094,-0.44208,-0.10951,-0.061933,-0.03789,0.03325,-0.070956
0.025806,0.31104,0.20435,0.059851,0.04817,0.03955,0.028821,0.092889
-0.058126,-0.26188,-0.50021,-0.023491,0.016278,0.021177,-0.10331,-0.17722
-0.1222,-0.42499,-0.45395,-0.023696,-0.040247,-0.084613,-0.096181,-0.17159
-0.15182,0.0095675,0.082525,-0.10448,-0.058536,-0.034805,0.075238,0.22001
0.41487,0.5891,0.50868,0.1255,0.086916,0.093386,0.021893,0.054738
-0.25813,-0.55341,-0.039633,0.0031247,0.029455,0.058585,0.088771,0.093681
-0.13898,0.72234,0.5342,-0.064407,-0.13671,-0.15427,-0.18443,-0.40208
0.15638,-0.24087,-0.56594,0.048651,0.080857,0.11125,0.077148,0.32781
0.0046319,-0.13185,-0.08505,-0.024524,-0.0053402,-0.035682,0.013219,-0.23871
0.017032,-0.13944,0.18869,-0.0027798,0.026277,0.052798,0.21598,0.461
0.015686,0.12627,0.18979,0.074286,0.042368,0.00090194,0.027334,0.12144
0.1661,0.40775,0.36556,0.065224,0.003236,-0.051582,-0.32012,-0.28972
-0.34329,-0.88715,-0.79892,-0.1324,-0.068249,-0.011593,-0.015148,-0.18712
0.026896,0.18188,0.31467,0.043288,-0.0083376,-0.0045236,-0.081654,-0.1873
0.11232,0.21217,-0.53281,-0.11097,-0.035701,-0.014758,0.14484,0.30573
0.12315,-0.0034183,0.70367,0.14753,0.068933,0.036192,0.17334,-0.20427
-0.019866,0.26489,-0.5136,-0.078483,-0.021664,-0.022905,-0.10381,0.23267
0.033586,0.35513,0.19435,-0.013948,0.0061126,0.074342,0.041818,-0.20707
-0.24105,-0.75545,-0.26845,-0.17274,-0.15136,-0.17916,-0.20055,-0.20771
0.077326,0.34641,0.47087,0.19659,0.14729,0.1468,0.20943,0.52073
0.035227,-0.41946,-0.1693,0.047891,0.089793,0.10711,-0.032253,0.023079
-0.21105,-0.26707,-0.0074568,-0.017595,-0.035235,-0.08739,-0.097525,-0.15892
0.27628,0.74516,0.13479,0.022131,-0.072625,-0.14021,-0.073086,-0.12659
