-0.024021,-0.025472,0.38547,0.065649,0.022037,0.00052654,0.017386,0.021972
-0.020067,-0.0093903,0.12812,-0.064394,-0.041803,0.026556,-0.1196,-0.049348
-0.0056451,0.10795,0.27408,0.038444,0.0030586,0.0063032,0.016168,-0.0029016
-0.0050339,-0.19394,-0.48889,0.038399,0.0086312,0.04214,-0.13707,0.013147
0.011863,0.0094374,-0.23298,-0.056359,0.006628,-0.013915,0.13236,0.030168
0.03597,0.049552,0.20228,-0.010994,0.0052618,0.056918,0.035953,0.0012194
0.13647,-0.38904,0.28112,-0.0047313,-0.0030083,-0.066029,0.08181,0.0041711
-0.27339,0.17703,-0.4465,0.0331,-0.018084,-0.031807,-0.042631,-0.023876
0.024832,0.11585,0.39027,-0.014524,-0.00099397,-0.0051786,-0.11901,-0.013083
-0.0077667,-0.20304,-0.24286,-0.022678,-0.006693,0.013233,0.086444,-0.0029784
-0.00343,0.41098,-0.058346,0.094262,0.065984,-0.031692,0.026154,0.013873
0.10111,-0.062363,0.27987,-0.023544,-0.025608,0.10205,-0.1755,0.013803
0.080046,-0.11263,-0.28125,-0.02502,-0.016268,-0.062063,0.074772,0.012391
-0.042622,0.051009,0.29242,0.05043,0.0077628,-0.055045,0.19083,-0.037087
-0.047834,-0.16436,-0.36275,-0.10193,-0.031751,0.068744,-0.16321,0.0063192
0.072322,0.022589,0.35069,-0.013008,-0.017508,0.028405,-0.026135,-0.013177
-0.13528,0.18963,-0.64999,-0.01024,0.035178,-0.058576,0.008762,0.014331
0.079402,0.031591,0.7624,0.047947,0.025183,0.073639,0.12175,0.050311
-0.088158,-0.10806,-0.16911,-0.0093328,-0.070466,-0.035779,-0.17871,-0.053234
-0.012659,-0.1746,-0.0076247,0.0062338,0.029859,-0.066509,0.18611,-0.030389
0.032824,-0.1442,0.05755,0.1029,0.03731,0.03607,-0.0019779,0.025183
0.095463,0.2258,-0.17145,0.015028,0.030017,-0.032869,-0.1332,0.043033
-0.043381,0.14663,0.11518,-0.078207,0.023426,0.054602,0.034853,0.0071968
0.061458,-0.14764,-0.53799,-0.13081,-0.11557,0.048244,-0.15413,-0.043763
-0.0044642,0.29498,0.68789,0.035788,0.0033279,-0.0522,0.049418,0.03801
-0.030735,-0.32429,-0.35611,0.045365,0.043926,0.034297,0.24623,-0.083993
-0.10382,0.0936,0.26017,0.178,-0.0017418,-0.043957,-0.018074,0.042879
0.025897,0.10071,-0.41521,-0.13761,0.0069072,-0.013517,-0.11218,0.0042451
0.045711,-0.047342,0.50994,-0.042837,-0.070726,-0.014846,0.10303,0.049986
-0.052187,-0.086154,-0.22056,-0.053697,-0.0080494,0.030459,-0.12359,-0.030746
0.08388,-0.031255,-0.1835,0.056367,0.1246,-0.049163,-0.042518,-0.042357
-0.03035,-0.021742,0.48131,0.092433,0.038042,0.074667,0.26854,0.062474
-0.051126,-0.0079865,-0.57755,-0.046308,-0.049142,-0.043264,-0.46251,-0.10633
0.044814,0.060375,-0.032534,0.00058417,-0.058996,-0.035863,0.17266,0.084618
0.10088,-0.16467,0.3417,-0.10153,-0.069719,0.1513,0.0045635,-0.020396
-0.024,0.24166,0.1607,0.22693,0.10628,0.2054,-0.089621,0.047784
-0.080204,0.023192,0.17276,-0.16883,-0.015078,-0.39724,0.51658,0.039393
-0.021066,0.015964,0.11878,-0.053089,-0.034924,-0.055104,-0.27799,-0.084595
-0.049615,0.093495,-0.89234,0.020491,0.0081897,-0.0023247,-0.27097,-0.16028
0.02988,-0.082857,-0.17252,-0.064763,-0.010277,0.081842,0.41088,0.21043
0.12435,-0.11023,0.31882,0.14413,0.027166,0.17444,-0.21136,-0.0042043
-0.070113,-0.46863,0.1617,0.060348,0.089347,0.02583,0.016123,-0.023541
-0.099635,0.51088,-0.079788,-0.02855,-0.042641,-0.10611,0.0054258,0.042403
0.059729,-0.017499,0.97002,0.25053,-0.10352,-0.11222,-0.10393,-0.10383
0.080041,0.28908,-0.91595,-0.47936,0.046918,0.1633,0.0083659,0.037321
0.039269,-0.33472,0.16706,0.092746,0.033258,0.001177,0.046515,0.0047412
-0.062997,-0.16083,0.22511,0.067532,0.011481,-0.067758,0.020252,0.032917
0.04618,0.36797,-0.086674,-0.023771,-0.034125,-0.13744,0.22882,-0.057426
-0.071082,-0.245,-0.47115,-0.01634,-0.072199,0.073467,-0.4114,4.4451e-06
-0.024253,0.14456,-0.12158,0.03645,0.045966,0.080942,-0.046994,0.034159
-0.055261,-0.28018,0.18445,-0.02794,0.055087,0.0026532,0.23706,0.022466
-0.01511,0.030296,0.18583,0.11219,-0.02108,-0.082798,0.22974,-0.010864
0.12811,-0.086835,0.33996,0.028124,0.036423,0.114,-0.062238,-0.065272
-0.070404,0.53189,-0.44416,-0.084431,-0.037989,0.093203,0.30458,0.070421
0.0066204,0.032373,0.11502,0.00089246,-0.017891,-0.16868,-0.76578,-0.025795
0.13995,-0.60511,-0.28208,-0.044721,0.01049,-0.078122,-0.1192,-0.088821
-0.046468,0.57545,0.77304,0.019891,0.031136,0.052045,-0.062116,0.13047
-0.061935,0.01464,-0.7977,-0.087696,-0.073587,0.049528,0.59176,-0.017485
0.1154,0.068469,1.1221,0.21729,0.016194,-0.047103,0.3887,0.13021
-0.19547,-0.67828,-0.51467,-0.19118,0.026643,0.027225,-0.13226,-0.115
0.09067,-0.54444,-0.47138,0.22517,0.082453,0.13129,-0.16567,-0.14442
-0.080773,0.8176,-0.20335,-0.20599,-0.066563,-0.15732,-0.5146,0.073026
0.11929,0.28046,-0.16191,-0.047305,-0.014176,0.24693,0.057806,0.014254
-0.096503,0.0061667,0.62712,0.013955,-0.064912,-0.28104,-0.22659,-0.038664
-0.054206,-0.31294,-0.39086,0.02522,0.039392,-0.061247,0.38533,0.02474
0.045139,0.021339,0.65234,0.48734,0.049243,0.10236,0.35689,0.07278
0.12505,-0.18595,-0.071069,-0.5048,-0.0035013,0.085829,0.11088,0.020462
-0.0088892,0.43796,-0.19553,0.026726,0.038047,-0.10181,-0.40048,0.024642
-0.036419,0.22465,0.032466,0.036616,-0.044268,0.040546,0.10912,-0.016017
0.018092,-0.57364,-0.30042,-0.13757,-0.093722,0.04495,-0.63785,-0.25008
-0.026637,0.14677,-0.06313,0.15405,0.0071684,-0.057024,1.0961,0.11895
0.022811,0.13124,0.7877,0.021854,0.1022,0.10162,-0.46677,0.14522
-0.022849,-0.20884,-0.768,-0.10422,-0.0041552,-0.15946,-0.001575,-0.015591
-0.016496,-0.10805,0.48393,0.079841,0.039163,0.24474,-0.18935,-0.0046436
-0.044674,0.10773,-0.046407,0.18179,-0.041976,-0.18679,-0.052774,-0.10358
-0.013477,-0.010526,-0.45567,-0.074198,-0.021787,-0.025184,-0.24531,-0.00011137
-0.054912,0.050052,-0.30032,-0.0033814,-0.018176,0.04153,0.60448,-0.061452
0.15252,-0.15877,0.33291,-0.29594,-0.023861,-0.010203,-0.014094,0.11876
0.031931,0.077644,0.19375,0.077241,0.062468,-0.047358,-0.35416,0.032892
-0.087579,0.39398,0.63364,0.18529,-0.0091485,0.0085822,0.40048,-0.037662
0.044488,0.19631,-0.050684,0.028116,-0.066539,0.0017319,-0.22462,0.032181
-0.025043,-0.15005,-0.53109,-0.13543,0.03138,0.033798,-0.15878,0.0080514
0.062678,-0.60106,-0.432,-0.029935,0.042941,0.28429,0.40134,-0.024142
-0.029097,0.12944,0.2872,0.0034896,0.0076833,-0.30975,-0.39072,-0.11129
-0.012147,-0.093666,0.2621,0.20211,0.035353,0.21201,0.20368,0.0044445
-0.09022,0.29861,-0.23008,-0.10319,-0.04568,-0.31502,-0.13964,0.057498
-0.021357,-0.0223,0.018018,-0.082124,-0.086851,-0.031677,0.16174,0.079173
0.17906,-0.46267,-0.6929,-0.24118,0.036889,0.17947,0.019169,-0.039898
-0.11329,0.37578,0.84291,0.30269,0.075536,0.12378,0.0014852,0.012733
0.04782,0.20326,0.85277,0.32986,0.013427,-0.080491,-0.29765,0.02605
-0.11005,0.13546,-0.53174,-0.26306,-0.13389,-0.13525,0.052726,-0.093732
0.054519,0.029791,-0.89945,0.021509,0.055337,0.1873,0.26588,0.059735
0.057517,-0.10768,0.73802,-0.26436,0.0027976,-0.22127,-0.13965,0.017978
-0.0074755,-0.20732,-0.31846,0.017637,0.091058,0.06929,0.057787,-0.077922
0.030666,-0.19768,-0.16573,0.12357,-0.016115,0.058939,-0.15514,-0.039922
-0.07146,0.018283,0.16298,0.036827,-0.037775,0.12201,-0.097536,-0.023785
0.083128,-0.09334,-0.17693,-0.13346,-0.075755,-0.10995,0.60547,0.11136
0.0086673,-0.14364,0.17381,0.33965,-0.044308,-0.12295,-0.52418,0.060664
-0.10054,0.56062,0.73108,-0.14459,0.15804,0.34684,0.10477,-0.0045928
0.067621,-0.15624,-0.54404,-0.17093,-0.039027,-0.29589,0.36433,-0.0072733
-0.15836,0.36326,-0.26111,0.17601,0.028646,-0.020975,-0.38105,-0.026668
0.027286,-0.093806,-0.069152,-0.25077,-0.060663,0.015,0.21841,-0.024778
0.087069,-0.1573,0.30441,0.1829,0.005773,0.031231,-0.4157,-0.01009
0.022774,-0.18557,-0.29766,0.0094396,0.032939,0.19295,-0.00069387,-0.076436
0.086043,0.064012,0.31907,-0.051588,-0.025665,-0.23253,0.16174,0.058008
-0.034416,-0.0088371,0.15416,0.039262,-0.0368,0.022314,0.28653,0.003752
-0.095836,-0.12737,0.01254,0.12566,0.054664,-0.056357,-0.30956,-0.026802
-0.090527,0.3395,-0.21384,-0.16789,-0.0086863,0.079694,0.0021598,0.038139
0.1604,-0.32576,-0.11619,0.017236,-0.015632,0.095233,0.1304,0.043513
-0.1022,0.3104,-0.35482,-0.08547,0.0026787,0.20895,0.24783,-0.0022162
0.1434,-0.46512,0.31699,0.21848,-0.016377,-0.41586,-0.12309,0.0025081
0.0047881,0.0962,0.075725,-0.1575,0.051838,0.15701,-0.31302,-0.021081
-0.058702,0.14076,-0.18415,0.043989,-0.012002,-0.089625,0.17438,-0.003806
-0.048203,0.24292,0.70368,0.080623,0.017949,-0.0010565,-0.086984,-0.048626
-0.034475,-0.01763,-0.26068,-0.18817,-0.054382,0.12454,-0.17174,-0.0085055
0.092178,-0.15773,-0.3996,0.026826,-0.010929,-0.057501,0.36933,0.20133
-0.16722,0.076739,0.18924,0.046051,0.014997,0.061786,0.11901,-0.21676
0.040422,-0.077381,-0.3352,0.0022891,0.062235,-0.087815,-0.18264,-0.052068
0.20119,0.23338,0.74822,0.10624,-0.01756,0.072409,-0.03655,0.15658
-0.12864,-0.27748,-0.32317,0.013722,-0.036474,-0.065915,-0.33299,-0.035452
0.028662,-0.004141,-0.15453,0.091484,-0.017263,0.0062923,0.20306,-0.0179
0.1034,-0.28378,-0.099222,-0.18419,-0.0059519,0.055996,-0.23053,-0.00073425
-0.17782,0.30676,-0.23519,-0.086648,-0.0016653,-0.17344,0.93208,-0.01436
0.020488,0.2396,0.4161,-0.076256,0.027581,0.10779,-0.06317,0.051194
0.10384,-0.26174,0.28761,0.035434,0.0041077,0.087362,-0.70455,0.024342
0.032361,-0.55938,-0.085397,0.16359,0.02172,-0.21186,-0.21476,-0.040233
-0.17122,0.81989,-0.66768,-0.11273,0.041004,0.41987,-0.098158,-0.017754
0.11763,-0.050655,0.68482,0.19913,-0.063724,-0.32381,0.51509,0.028955
-0.17164,0.048807,-0.47873,0.059928,0.066037,0.32882,0.16542,-0.072285
0.03123,0.070638,0.2254,-0.15609,-0.078404,-0.38147,0.13385,0.084582
0.12461,-0.51073,-0.31287,-0.10629,-0.08369,-0.080425,-0.081562,-0.00048621
0.030188,0.09103,0.35749,0.21599,0.081009,0.13057,-0.35926,-0.11646
-0.041576,0.21717,0.72553,-0.2682,0.0015534,0.12758,-0.11772,0.03367
0.10391,0.069209,-0.27471,0.12836,0.076619,-0.1736,-0.18985,0.020341
-0.065453,-0.23599,-0.97429,-0.031468,-0.013625,0.18221,0.80263,0.10915
-0.10513,-0.088063,0.10942,-0.082766,-0.096673,-0.045225,-0.089329,-0.05167
0.085992,0.01491,-0.19554,0.17091,0.023466,-0.16692,-0.42295,0.11561
-0.13268,-0.081026,0.69041,-0.042818,0.011488,0.16942,0.13665,-0.24106
0.020693,0.38388,0.22295,-0.043531,0.024153,0.073084,-0.21466,0.010626
0.13311,0.090284,-0.048049,0.067384,0.061783,0.027551,0.37672,0.073381
-0.05971,-0.26687,-0.15885,0.031715,-0.094264,-0.23427,-0.47661,0.0094688
0.0061293,0.38882,-0.39646,0.04392,-0.030031,0.03589,0.37771,0.084476
-0.074432,-0.25007,0.060415,-0.10019,0.066686,0.062873,-0.071906,-0.068616
0.19942,-0.56182,0.094238,-0.018777,-0.0076712,0.064038,-0.040548,0.0036839
-0.14074,0.23941,-0.13272,-0.079651,0.058886,-0.11777,0.46686,-0.065276
0.07684,0.26803,0.54045,0.053009,-0.12479,0.048386,-0.21182,0.061099
-0.11709,0.053285,-0.21864,0.028029,0.042385,-0.054464,-0.59132,-0.12429
0.0033019,0.20347,0.17129,-0.052268,0.044431,0.12124,-0.085762,0.16827
0.12475,-0.68778,-0.33309,-0.015109,-0.056364,-0.10319,0.47572,0.017451
-0.081552,0.6148,0.17173,0.19498,0.052466,0.11709,0.40381,-0.045185
0.04016,-0.16818,-0.03344,-0.06211,0.019501,-0.12308,-0.33529,-0.066439
-0.080665,-0.026247,0.10075,-0.036266,-0.053387,-0.025922,-0.010181,-0.023046
0.040326,-0.20625,-0.47509,0.24105,0.02173,0.22951,-0.34269,0.068974
-0.010801,-0.119,-0.13627,-0.5353,-0.082784,-0.20023,0.47698,0.013746
0.00048073,-0.042938,0.3209,0.087252,0.01634,0.036384,-0.29533,0.01372
-0.027332,0.49259,0.24785,0.32686,0.061617,-0.045421,0.17532,0.0135
0.077504,0.2617,-0.24071,-0.20766,0.029735,0.01461,-0.079751,-0.073515
0.025579,-0.2986,0.34911,0.084709,0.029961,0.07492,-0.25487,-0.021309
0.019514,0.029123,0.014821,0.10193,-0.023944,-0.05307,0.10465,-0.0021395
-0.097468,-0.12384,-0.46882,-0.023568,-0.046439,-0.011078,0.32875,0.046291
0.072699,-0.16485,0.82623,-0.081003,0.0011672,0.21559,-0.42467,0.0302
-0.14191,-0.00044154,-0.80617,-0.14838,-0.029798,-0.092401,0.77534,0.051271
0.040324,-0.33322,0.30334,0.0013244,-0.053445,-0.21636,-0.55476,-0.077737
0.12019,0.33776,-0.47832,0.15009,0.055354,0.0005093,0.16367,0.0029454
-0.07308,0.28662,0.61783,0.0097517,0.062456,0.012422,-0.3033,-0.057731
-0.077337,-0.041592,-0.29896,0.073394,0.046225,0.18805,-0.0098988,0.022082
0.092887,0.046814,-0.052586,-0.064472,-0.055659,-0.096025,0.052226,0.047686
0.016436,-0.17775,-0.072708,-0.15332,-0.047808,0.083475,-0.077465,-0.042883
-0.048721,0.10107,0.30717,0.22901,0.03851,-0.030298,0.37444,0.039803
-0.001533,0.051028,-0.050366,-0.12061,-0.046787,0.0083501,-0.34275,-0.0088192
0.00059924,-0.073377,-0.24458,-0.014892,0.039937,-0.12894,0.57416,0.029865
0.00292,-0.11757,0.0056261,0.037881,-0.037375,-0.021085,-0.24408,-0.02419
0.13642,-0.010727,-0.10042,-0.29109,0.049285,0.13539,-0.22161,0.00040177
0.024482,-0.19545,0.76526,0.41134,-0.020506,0.057785,0.061495,-0.021862
-0.029249,0.028066,-0.32339,-0.07464,0.026583,-0.028759,-0.1146,0.05706
-0.20457,-0.03008,0.032493,0.093568,0.018591,-0.047289,-0.27333,-0.13021
-0.10211,0.58852,-0.035596,-0.21787,-0.083606,0.05621,0.70362,0.088236
0.076891,-0.18226,-0.365,0.17005,0.0012309,-0.27297,-0.47078,0.025186
0.061436,-0.043035,-0.12747,-0.20371,0.03095,0.30958,-0.075348,-0.068927
0.049288,0.10835,0.67987,0.11453,0.060328,-0.21835,0.50957,0.072024
0.11262,-0.51039,-0.64775,-0.077139,-0.051133,0.10569,-0.10456,-0.043692
-0.068059,0.38769,-0.069709,-0.18331,0.0014125,-0.05274,-0.14281,0.021741
-0.024478,0.10472,0.69934,0.40716,0.0072017,0.15904,-0.10433,-0.012829
0.015126,-0.32267,-0.42885,-0.21822,-0.041398,-0.14128,0.050193,-0.014743
0.040391,-0.044847,-0.12042,0.13686,0.027651,0.14756,-0.2186,0.015594
-0.053145,0.10091,0.5513,-0.074131,0.0035331,-0.1473,0.14318,0.015075
0.13811,-0.011304,-0.69971,0.18751,-0.0043262,0.011635,0.20456,0.05328
-0.30962,-0.069768,0.39305,-0.19627,0.035284,0.10694,-0.0049243,-0.08929
0.087244,0.24486,0.68783,-0.078149,-0.057456,-0.058403,0.082986,-0.0070434
-0.061521,0.21247,-0.9821,-0.037378,0.045375,-0.0091043,-0.27603,0.03393
0.089257,-0.20769,0.10648,0.073527,0.031039,0.05894,0.080146,-0.029076
0.041664,-0.0017525,0.41926,0.011665,-0.077249,-0.18217,-0.17806,-0.016299
0.016752,-0.061751,-0.62393,0.081223,-0.0062093,-0.036131,0.40171,0.14292
0.19631,-0.42737,0.56238,0.024043,0.07222,0.084546,-0.50867,-0.12115
-0.17589,0.21428,-0.31753,-0.027314,-0.060672,0.22854,0.46653,0.059416
-0.051999,0.091225,-0.11273,-0.096456,0.0014899,-0.063353,-0.015217,-0.072365
-0.13487,0.47927,0.64871,0.082183,0.01669,-0.20387,-0.3977,-0.031311
0.090801,-0.2905,-1.0067,-0.085058,0.039792,0.11245,0.22682,0.027001
-0.00861,-0.11325,0.57171,0.050534,-0.022813,-0.08302,0.093958,0.048301
0.17508,0.092376,0.040716,0.0050402,-0.022603,0.21709,-0.31122,0.0092328
-0.015792,-0.23321,0.38352,-0.0099913,0.0013767,-0.25376,0.46449,0.065759
-0.0748,-0.064354,-0.48088,0.013951,-0.021228,0.30019,-0.38417,-0.087412
0.059408,-0.11089,0.31858,0.030704,0.073566,-0.21595,0.28244,-0.013584
-0.12164,0.4784,-0.17526,-0.060651,-0.0034021,-0.014031,-0.021195,0.02859
-0.032061,0.045257,-0.16872,0.037263,-0.072538,-0.16491,-0.17873,-0.070975
0.024063,0.054887,0.18823,-0.058072,0.022337,0.42499,0.47371,0.10914
-0.038138,-0.12232,-0.4867,-0.0028675,-0.046949,-0.29883,-0.61007,-0.18118
0.048248,-0.077205,0.24645,0.046397,0.071139,0.0077119,-0.084768,0.28484
0.16721,-0.4,-0.22571,0.07362,0.025018,0.11841,-0.32329,-0.17979
-0.12576,0.34392,0.56197,-0.0077779,0.0021631,-0.099342,0.81708,0.05844
0.0055261,0.0052184,0.12101,-0.13598,-0.028702,0.065326,0.15811,-0.20284
0.037325,0.10074,0.24302,0.22749,-0.059781,0.041791,-0.26859,0.16985
0.023607,-0.077291,-0.92261,-0.30834,0.010494,0.095206,0.028256,0.036348
-0.10685,-0.11028,0.17828,0.12368,0.057146,-0.21238,-0.12515,-0.0016498
0.10607,0.006933,0.51267,0.023806,-0.036979,-0.014022,-0.059425,0.079085
-0.11944,-0.087943,-0.6408,0.056537,0.048456,0.27639,0.043349,-0.14382
-0.088209,0.077599,-0.0039682,-0.14483,-0.030291,-0.36395,-0.099887,-0.022612
0.15316,0.18517,0.34182,0.12318,0.00021514,0.042528,0.15063,0.012314
0.00364,0.18762,0.47949,-0.069056,0.014986,0.075184,0.0059909,0.093145
0.034215,-0.30032,-0.31215,0.0047674,-0.032797,0.086724,-0.23592,-0.093071
-0.035792,0.076581,-0.15177,0.19565,0.052302,0.023246,0.21547,0.00030148
0.028348,-0.014902,-0.023967,-0.098711,-0.04202,-0.0056592,-0.013234,0.084171
-0.16394,-0.10332,-0.62287,-0.074305,-0.042074,-0.12541,0.0089563,-0.036622
0.05115,0.20547,0.53831,0.0028137,0.036764,0.045842,0.15775,-0.018026
0.31377,-0.38819,-0.068462,-0.031425,-0.00064295,0.23338,-0.36369,0.030999
-0.23605,0.075628,0.54453,-0.12969,0.0097924,-0.10315,0.20192,-0.014047
-0.05195,0.19925,-0.22919,0.25572,0.052269,-0.20697,0.04121,-0.011993
0.021984,-0.046402,0.04205,-0.14765,-0.076726,-0.11772,0.26277,-0.016976
-0.076778,0.22459,-0.65643,0.012657,0.05194,0.11767,-0.2041,-0.044114
0.1911,-0.50775,0.38623,0.1669,0.0079558,0.030803,-0.50755,0.094488
-0.095774,0.3927,0.21597,-0.083235,-0.021754,0.28629,0.36906,0.055314
-0.061845,0.030397,-0.1062,-0.050549,-0.045399,-0.2247,-0.041471,-0.13035
0.035498,0.079425,-0.097782,0.053393,0.030643,0.091972,-0.2297,0.037323
0.063571,-0.099285,0.075201,0.087228,-0.043447,-0.06813,0.47742,0.011103
-0.095084,-0.48139,0.074921,-0.12937,0.076555,0.013921,-0.076073,-0.029821
0.10573,0.31623,-0.49873,-0.20616,0.0085196,-0.11476,-0.14105,0.070225
0.063464,-0.11303,0.73568,0.091148,-0.059274,0.15557,0.38997,0.0059593
0.027064,0.22198,-0.87916,0.14551,-0.04015,-0.25269,-0.3683,-0.11378
-0.16841,0.038242,0.64042,0.074342,0.050834,0.16882,0.23791,0.062132
-0.023394,0.02871,0.32541,-0.012798,0.042098,0.022072,-0.51196,-0.036898
-0.068974,0.02665,-0.30821,-0.11588,-0.0038875,-0.052227,0.045392,0.057762
0.023732,-0.06418,0.22517,-0.055328,-0.0093355,0.14867,0.27761,0.025848
0.15436,-0.019015,-0.53314,0.23902,0.0017441,-0.1261,-0.21234,-0.046491
0.050878,-0.15884,-0.40805,-0.19384,-0.057265,0.14571,0.14778,0.059856
-0.11355,0.056013,0.44021,0.091521,0.07862,-0.013741,0.25046,-0.092124
0.029216,-0.30243,-0.1878,-0.17011,-0.044199,-0.30086,-0.0044867,-0.033116
-0.020325,-0.091223,0.53877,-0.0093245,-0.043136,0.14309,-0.25703,0.049952
-0.066899,0.7153,0.16003,0.19188,0.0428,0.075954,-0.046332,0.032566
0.10774,-0.014178,0.33128,0.012438,0.0029575,0.037436,0.033222,0.016586
-0.020663,-0.029275,-0.55185,-0.023582,-0.029417,-0.13535,0.090078,-0.076068
-0.015593,0.012972,-0.75908,-0.17369,0.01646,0.0043369,-0.056374,0.066877
0.059551,-0.29531,0.32209,0.10104,0.055047,0.02823,0.11661,0.030899
-0.022415,-0.31543,0.14801,0.12037,-0.030598,-0.0079109,-0.039707,-0.043965
-0.074189,0.0055377,0.050504,-0.061987,0.048649,0.123,-0.12679,0.068265
0.037323,0.432,0.36224,-0.10356,-0.097943,-0.047914,-0.073886,-0.1563
-0.030946,0.018153,0.22163,0.0098466,0.013768,0.064587,0.033683,0.024295
-0.09062,0.20178,-0.28619,-0.074786,-0.030584,-0.024933,0.20426,0.024143
0.030959,-0.19572,-0.58999,0.17254,0.096809,-0.098839,-0.030668,0.030973
0.068538,0.04624,0.4772,0.2275,-0.02622,-0.0095646,-0.17909,0.006068
0.060919,-0.23386,-0.056358,-0.12115,0.037597,-0.0075216,0.32091,0.0044802
0.069648,-0.41584,-0.36403,-0.2402,-0.071263,-0.13948,-0.047048,0.026515
0.077616,0.39387,0.068992,-0.15978,-0.048162,0.15759,-0.29929,0.0020804
0.0050377,-0.013342,0.32738,0.17655,0.060068,0.22038,0.25141,0.025079
-0.33697,0.30885,0.0099339,-0.018231,0.011351,-0.17697,-0.24621,-0.12312
-0.035032,0.086303,0.0099194,0.11714,0.016772,-0.11209,0.1307,0.002917
0.098565,-0.19131,0.31939,0.068374,-0.0329,0.11048,-0.10081,-0.0029662
-0.013197,0.15172,-0.43166,-0.046894,0.057777,0.092049,-0.048596,0.062383
0.10795,-0.35027,0.12691,-0.026008,-0.078265,-0.19134,0.32758,-0.0042863
0.073293,-0.19412,-0.58907,0.090757,0.051282,0.15021,-0.44061,0.062311
-0.10771,0.37416,0.78922,-0.041919,-0.0065543,-0.094973,0.50567,-0.082139
0.058194,-0.038424,-0.17343,-0.058299,-0.017211,-0.075951,-0.053821,0.022577
0.032299,-0.049746,-0.29368,-0.053043,-0.097656,0.13656,-0.11337,0.031955
0.040801,-0.065043,0.26972,-0.1825,0.11952,0.10493,0.098259,0.14852
-0.20625,0.16036,-0.45284,0.11654,0.0016751,-0.1394,-0.28784,-0.31553
0.0087546,-0.0027788,0.34393,0.26732,0.05674,-0.14286,-0.16304,0.061822
0.083105,-0.026814,-0.080575,-0.22075,-0.059018,0.19674,0.21526,-0.0079221
-0.030984,0.053507,0.61171,0.20844,-0.025349,-0.17457,0.17668,0.054268
0.17376,-0.47665,-0.59256,-0.28796,-0.068951,0.18131,-0.13597,0.085396
-0.099624,0.51074,0.23847,0.14175,0.059977,0.10075,-0.048494,0.016168
-0.061757,-0.1623,-0.50264,0.012447,0.048656,-0.2052,0.011359,-0.06668
-0.11823,-0.011259,0.13105,0.0023673,-0.1111,-0.041407,0.31029,-0.045497
0.059886,0.22794,0.3596,0.12519,0.13491,0.021354,-0.24546,0.017314
0.1374,-0.22898,-0.29263,-0.19143,-0.010727,0.12307,-0.25852,0.0043202
-0.049303,-0.042326,0.5421,0.12891,0.0061188,0.075541,0.40983,0.094691
0.02322,0.24436,-0.27658,-0.086698,-0.072801,-0.23901,0.069853,-0.13415
0.002914,0.041016,-0.2017,-0.010234,0.033558,0.24157,-0.36649,0.02015
-0.009552,-0.24136,-0.42065,-0.22678,-0.088751,-0.21704,0.51347,0.088078
0.047235,-0.17451,0.55113,0.29655,0.076372,-0.012788,-0.5484,-0.079452
-0.10117,0.32793,0.15141,-0.016316,0.037529,0.24585,-0.12154,0.040525
0.0055151,-0.013047,0.067977,0.063202,-0.063663,-0.20556,0.28809,-0.020996
0.015607,-0.28768,-0.33966,-0.27585,0.023841,-0.053317,-0.098412,0.0094025
-0.023522,-0.20287,-0.18885,0.076626,-0.019347,0.055132,0.096059,-0.016518
-0.040517,0.22163,-0.12075,0.21415,0.026171,0.010884,-0.017922,-0.059314
0.083213,0.42576,0.45735,0.10434,0.0044086,0.12622,0.028207,0.13151
-0.041458,0.011818,0.11423,-0.23114,0.0089438,-0.013881,0.15465,-0.037235
0.12586,-0.036888,0.25432,0.2214,-0.0076802,-0.059403,0.13983,-0.010316
-0.10922,0.027216,-0.33511,-0.32879,0.00051335,0.097188,0.035187,-0.029419
0.034926,-0.29106,-0.17098,-0.078005,0.024642,0.0088596,-0.38081,0.030866
0.034661,-0.24441,-0.11309,0.043908,-0.037932,-0.23183,-0.22681,-0.040108
-0.1342,0.11858,-0.37178,0.053234,-0.031883,0.070059,-0.033662,0.023421
