0.026522,0.083793,-0.01736,0.019503,0.016942,0.010077,0.036846,0.0070673
-0.012031,0.013726,0.27318,0.03492,0.016387,0.022992,-0.039136,0.005566
-0.011716,-0.056326,-0.14382,-0.0032658,0.00056836,0.028536,-0.059779,-0.0033754
0.019664,0.068906,0.1192,0.045548,0.00072671,-0.0042391,-0.0020559,0.019479
-0.01164,-0.079419,-0.76695,-0.076809,-0.04574,-0.0049127,0.032091,-0.0039492
0.0037429,-0.0092116,0.15037,-0.011575,0.017249,0.0029827,-0.0044927,0.0043844
0.034566,0.12323,0.38521,0.13898,0.048873,0.011383,0.020864,-0.0025758
-0.012891,-0.072685,0.62866,0.030497,0.0099024,-0.0034727,-0.0090308,0.0062003
-0.044805,-0.065556,-0.4708,-0.19671,-0.045067,-0.026255,-0.023762,-0.024167
0.0014381,0.019834,0.40348,-0.034738,-0.014449,-0.018084,0.031514,-3.5297e-05
0.00097654,-0.011593,-0.20031,0.0090827,-0.023106,0.005386,-0.046177,-0.0073385
0.00080775,0.059075,-0.22748,0.0058137,-0.00049716,-0.0026023,0.0088773,-0.0069097
0.024431,-0.010346,0.041278,0.096861,0.030187,0.012849,0.032601,0.0092246
0.0015004,-0.024736,-0.51626,0.0015462,0.014452,-0.0027267,0.024874,0.0099677
0.03345,0.070226,0.0043505,0.024742,0.030501,0.036762,-0.022314,0.018842
0.049775,0.14909,0.55009,0.2209,0.054841,0.0376,0.031458,0.035822
-0.13721,-0.28853,0.078592,-0.30895,-0.12363,-0.062802,-0.079554,-0.079851
-0.0041814,0.0071903,-0.24772,-0.010757,-0.0051267,-0.053691,0.074382,0.015354
0.050439,0.028541,-0.2194,-0.010008,0.027353,0.033466,-0.014296,0.039946
0.02679,0.072808,0.30923,0.068123,0.036195,0.12036,-0.16546,0.0015292
-0.051465,-0.01565,0.20804,-0.08088,-0.041124,-0.12123,0.1605,-0.053142
0.034651,0.060689,-0.39048,0.1606,0.022,-0.0037987,-0.03591,0.00091749
-0.058474,-0.15861,0.27611,-0.16005,-0.063438,-0.011618,0.050333,-0.015895
0.0050718,-0.017109,-0.13358,-0.04245,-0.00054962,-0.035154,-0.065123,-0.0018697
0.10006,0.18813,0.374,0.20097,0.10122,0.10543,0.054901,0.066592
0.10892,0.11278,0.066252,0.14804,0.10107,0.082061,0.042587,0.095877
-0.19538,-0.16588,-0.41259,-0.15494,-0.14965,-0.13655,-0.032551,-0.13266
-0.024193,-0.10965,-0.91543,-0.22436,-0.041748,-0.027117,-0.030667,-0.017355
0.028502,0.046379,0.93464,0.12664,0.026263,0.042929,-0.030441,0.020019
0.0096245,0.051917,-0.39665,-0.0085936,-0.0080015,0.0030407,0.03045,-0.01257
0.036687,0.047808,0.40988,0.080893,0.035453,0.040543,-0.035223,0.01006
-0.030386,-0.12928,0.1271,-0.08888,-0.022617,-0.01649,0.031023,-0.0056733
-0.0034355,0.060862,0.042807,0.08436,0.013594,-0.027314,-0.066769,0.018451
0.01661,0.010145,-0.041268,-0.04696,0.011696,-0.022884,0.070786,-0.0035451
0.014606,0.0010173,0.3385,-0.021069,0.01101,0.020686,-0.032137,0.037506
-0.048271,-0.090738,-1.083,-0.032659,-0.050934,-0.028893,0.077918,-0.015012
0.070125,0.11001,0.32531,0.051349,0.044395,0.05544,0.0023347,-0.03657
-0.021129,-0.038008,-0.14285,0.051111,-0.00030175,-0.0072098,-0.0095561,0.011405
-0.033447,0.026258,0.71093,-0.026116,-0.037143,-0.044849,-0.14627,-0.0043059
0.07951,0.097654,-0.11902,0.037594,0.066113,0.028284,0.19261,0.041072
-0.065546,-0.029225,0.12672,0.038241,-0.019124,-0.0070167,-0.040765,-0.016505
0.0076374,-0.028336,-0.37833,-0.032669,0.027209,0.16108,-0.042293,-0.0205
-0.099473,-0.16672,-0.35054,-0.21447,-0.14642,-0.18691,-0.038543,-0.056327
0.050729,0.12557,0.18255,0.00088537,0.030631,-0.0047648,0.057043,0.048571
0.099098,0.10719,0.3983,0.25477,0.10577,0.11334,0.019045,0.060531
-0.094737,-0.12609,-0.00046364,-0.12361,-0.060979,-0.16081,-0.38549,-0.11359
0.1569,-0.3839,-0.19169,0.04658,0.038799,0.07148,0.36825,0.073439
-0.17723,0.36044,0.35172,-0.030559,-0.024146,-0.0017368,0.031232,-0.011127
0.058991,0.063054,-0.56818,-0.0028896,0.023813,-0.0047676,0.056866,0.054312
0.013733,0.20271,-0.29672,-0.050058,0.0029138,0.063083,0.046266,0.0035953
0.014789,0.014871,0.20388,0.16337,0.045672,0.046118,-0.14228,-0.031131
-0.078774,-0.38344,0.40838,-0.097933,-0.12959,-0.11785,-0.096123,-0.07395
0.06096,0.037799,0.58727,0.071076,0.039146,0.024335,0.073982,0.030915
-0.026994,0.026561,-0.26407,-0.096449,0.012406,-0.0041031,-0.015777,0.0020055
0.048141,0.14296,-0.71446,0.023493,0.024236,-0.0082812,0.0013868,0.011273
0.021096,-0.045103,-0.092097,-0.046281,-0.011514,0.011246,0.024159,0.0043361
-0.021664,0.11653,0.33609,-0.016889,0.022234,0.10857,-0.0091837,0.044119
-0.10295,-0.32685,0.31002,0.033719,-0.069874,-0.15437,-0.058523,-0.095536
0.066904,0.17848,-0.53277,-0.11283,0.032474,0.057949,0.064658,0.054372
-0.16012,0.093108,0.12423,0.18446,0.04804,-0.004701,-0.14679,-0.0296
0.16921,-0.23126,0.31569,0.058596,-0.038783,0.024875,0.1822,0.019436
0.062328,0.0183,0.083681,-0.01386,-0.0014043,-0.10308,0.058885,0.044664
0.026246,0.31106,0.079607,0.037236,0.058689,0.16656,0.091538,0.060988
-0.010488,-0.11036,-0.78688,-0.13202,-0.014602,-0.071899,-0.10396,-0.057294
-0.049083,-0.065998,0.29325,-0.17785,-0.080396,-0.075656,-0.12244,-0.076291
0.011066,-0.063508,0.36481,0.071974,-0.036775,0.030826,-0.073753,0.0039016
-0.15077,0.076928,-0.18202,0.16499,0.077609,0.052616,0.10503,-0.019459
0.10633,0.0039987,0.32594,-0.046392,0.0053287,0.03674,0.11055,0.049779
-0.091624,-0.13336,-0.71003,-0.014437,-0.0033484,-0.11068,-0.22706,-0.0059762
-0.079078,0.087536,0.25318,0.027131,0.036025,0.070922,-0.22596,-0.0057787
0.21597,0.066289,-0.26408,-0.077624,-0.048578,-0.044052,0.37347,0.012422
0.12313,-0.00034468,0.57114,0.12434,0.039367,0.020283,0.0017262,-0.0053159
-0.16127,0.26427,0.26312,0.070096,0.0025128,0.060167,0.2287,0.081865
0.0037609,-0.44289,-0.41912,-0.14726,-0.0033802,0.059527,-0.041051,-0.10917
0.071093,-0.32351,0.26883,-0.059691,-0.088091,-0.13021,-0.22417,0.014502
-0.13972,0.33432,-0.66418,-0.058455,0.013762,-0.094725,0.10622,0.092372
0.042159,0.046428,-0.2496,0.074741,0.036493,0.049391,-0.27879,-0.064315
0.021879,0.50739,0.59716,0.13651,0.01927,0.04517,0.23676,0.035519
-0.045314,-0.003134,0.42039,0.017408,0.063877,0.041932,-0.17509,-0.054204
0.0038398,-0.46388,-0.56476,-0.21999,-0.12628,-0.068999,0.088779,-0.068141
0.0047006,-0.16617,0.14517,0.2605,0.089714,0.0017855,-0.039442,0.01737
0.066281,0.036591,0.41302,-0.1501,-0.0066066,0.23857,-0.13503,0.054532
-0.030348,0.11985,-0.014789,-0.04499,-0.063433,-0.077858,0.33576,0.036426
0.17574,-0.21364,-0.30416,0.060895,0.021002,-0.20604,-0.1412,0.042107
-0.19812,0.48162,-0.73584,-0.16764,-0.026596,-0.068613,0.16088,-0.091711
-0.04224,-0.3877,0.49784,0.20758,0.043835,0.17756,0.14714,0.00264
-0.12182,0.24898,-0.012199,-0.0083084,-0.0099275,-0.069435,-0.34851,0.012766
0.20422,0.16511,0.63838,0.12234,0.12449,0.21379,-0.00041,0.00090066
-0.11838,-0.05362,-0.99817,-0.22106,-0.13905,-0.18345,-0.076419,-0.04916
0.22309,-0.34504,0.23783,-0.078212,-0.042942,-0.096677,0.18756,0.11181
0.10368,0.13447,0.23745,0.16707,0.061069,0.11528,-0.16995,0.045496
-0.2736,-0.12263,0.48206,-0.14268,0.0088085,0.0545,0.12493,-0.084718
0.0052163,-0.037518,0.22348,0.23342,0.011183,-0.083359,-0.090638,-0.076097
-0.012981,0.33608,-0.3117,0.051998,0.0057244,0.014321,0.13808,0.024478
0.00019143,-0.329,-0.68589,-0.18002,-0.06219,0.019228,-0.023243,-0.032616
0.013945,0.06164,0.06384,0.005746,-0.012826,-0.030051,-0.12807,-0.020155
0.09914,0.28938,0.35701,-0.031054,0.13036,0.15485,0.15233,0.17201
-0.15004,0.056914,-0.023286,-0.2192,-0.14836,-0.25499,0.052307,-0.064788
-0.038158,0.16032,-0.19623,0.24737,0.11171,0.16938,-0.061606,-0.050404
0.2704,-0.706,-0.10635,0.14369,-0.027225,0.013393,-0.18259,0.12158
0.040466,-0.050565,-0.087821,-0.16944,0.0047885,-0.020008,0.18048,-0.048948
-0.2291,0.11846,-0.20262,0.051224,-0.026924,-0.11027,0.011082,-0.077944
-0.023942,0.51982,0.75757,0.048296,0.041524,0.047922,-0.066253,-0.036127
0.10798,-0.096355,0.24662,-0.14716,-0.055476,-0.099242,0.018784,0.068301
-0.11521,-0.28469,0.40123,0.12822,-0.059881,0.17576,-0.34275,-0.03841
0.15022,-0.16253,-0.80974,-0.032844,0.067801,-0.079384,0.53738,0.10446
-0.009096,0.25409,-0.091263,0.071659,0.07813,0.010833,-0.2385,-0.0579
-0.20903,0.24595,-0.62454,-0.27013,-0.01266,0.1887,0.072407,-0.056833
0.052129,0.023713,0.64606,0.15218,-0.11806,-0.21792,0.025106,0.029476
0.11215,0.072112,0.20984,0.15885,0.06706,0.18111,-0.16952,0.16973
-0.11328,-0.5607,0.076353,-0.085549,-0.035136,-0.24753,0.11318,-0.23769
0.30663,-0.29427,-0.56865,0.099609,0.098866,0.066135,0.15398,0.072834
-0.15107,0.6089,0.56529,-0.37038,-0.031068,0.10638,-0.094411,-0.015876
-0.033509,-0.38687,-1.0504,-0.03333,-0.12058,-0.20475,-0.19471,0.050932
-0.060268,0.2446,0.39068,0.30701,0.11108,0.14087,0.15005,0.023375
-0.16231,0.20776,0.29336,0.041583,-0.016364,-0.012747,-0.19257,-0.059307
0.0807,0.16605,0.51068,-0.009795,-0.027006,-0.017114,0.098242,0.029686
0.22967,-0.070732,-0.25843,0.1281,0.086341,0.23686,0.12442,-0.029656
0.20496,-0.54595,0.43766,-0.3045,-0.090921,-0.20457,-0.13745,0.098963
-0.46342,0.25087,-0.28882,0.010498,-0.066978,-0.092265,0.26531,-0.18564
0.12992,0.29138,-0.34989,0.32888,0.18926,0.072892,-0.043193,0.046564
-0.14032,-0.186,-0.022695,-0.67104,-0.16586,0.10271,-0.14225,0.05365
0.17138,0.074687,0.13902,0.54151,0.15708,0.020322,0.16234,0.085713
-0.043693,-0.38715,-0.052976,0.24837,-0.060065,-0.19747,-0.58332,-0.083906
0.24667,-0.31913,-0.74149,-0.39262,-0.019629,0.075098,0.54249,0.099203
-0.394,0.90753,0.64675,-0.19944,-0.11136,-0.15298,-0.13162,-0.15443
0.027374,-0.5467,-0.71845,-0.13816,-0.045388,0.1978,-0.073356,-0.024945
0.066105,0.43898,0.66069,0.37186,0.15543,0.03494,0.18745,0.04971
0.30841,-0.48481,0.48208,0.20746,0.061593,-0.085994,-0.011756,0.092607
-0.0035279,0.24471,0.66516,0.16631,0.079076,0.061843,-0.15397,-0.037145
-0.2683,0.18079,-0.67328,-0.33793,-0.089694,0.064026,0.011834,0.035296
0.037434,0.50831,-0.093562,-0.36927,-0.141,-0.18973,0.11124,-0.088552
-0.12524,-0.41604,-0.37834,0.4138,0.080389,0.18995,-0.027606,-0.033637
-0.0059038,-0.60179,-0.90544,-0.24914,-0.059186,-0.10292,-0.19425,-0.042031
-0.025836,0.13873,1.0963,0.11599,-0.013349,-0.10067,0.24315,0.20671
0.16708,-0.22339,-0.013716,0.31188,0.17095,0.16482,0.072349,-0.084167
0.12,0.27691,-0.0059362,-0.28762,-0.12315,-0.056528,-0.30971,0.030695
0.12183,0.24605,0.75905,0.47372,0.15194,0.0014046,0.23618,-0.018993
-0.04677,-0.32733,-1.0056,-0.78566,-0.21383,-0.14485,-0.09582,-0.10041
-0.35541,0.37163,-0.37289,0.11632,0.030525,0.14648,0.11548,0.067767
-0.070659,0.037832,0.56304,0.14384,0.010894,-0.029744,-0.21594,-0.022158
0.0098091,0.058516,-0.30649,-0.23083,-0.061167,0.046077,0.1839,-0.026221
0.33069,0.19345,0.652,0.5266,0.29114,0.054091,-0.15266,0.14179
0.040019,-0.54898,0.078646,0.043125,-0.11205,0.064613,0.072683,-0.025649
-0.15153,-0.10567,-0.73996,-0.14947,-0.068172,-0.21179,0.06459,-0.11416
0.091888,-0.07625,0.33194,-0.013158,0.070435,-0.033567,-0.042806,0.07186
-0.20623,0.28579,0.15425,-0.269,-0.21267,0.043891,-0.2174,-0.1002
0.079442,0.018916,-0.0011,0.14231,0.058379,0.23082,0.24417,0.065082
0.097957,0.28951,-0.25432,-0.38435,0.047169,-0.26243,0.083617,0.028559
-0.18101,-0.10848,0.0078913,0.78822,0.13628,0.094882,0.018705,-0.038202
0.25935,-0.59808,0.53914,-0.1163,-0.041488,-0.14298,0.095022,0.028313
-0.23591,0.25796,-0.7741,-0.43589,-0.10318,0.10953,-0.36053,-0.030445
0.014181,0.2092,-0.28738,0.047284,-0.025122,0.11769,-0.083153,0.19097
0.1982,0.22261,0.60485,0.24755,0.193,0.076528,0.036258,-0.073765
-0.20659,-0.6589,-0.17936,-0.36489,-0.27665,-0.068758,0.26364,-0.23131
0.1203,0.29223,0.7312,0.32956,0.25371,-0.11486,-0.040904,0.12462
-0.10278,0.22241,0.20803,0.029279,-0.14545,-0.14713,0.021921,-0.099246
0.076332,0.087872,-0.37651,-0.059274,0.025926,-0.055229,-0.031507,0.1058
0.046844,0.14768,-0.54703,0.012448,0.056799,0.33396,-0.044498,0.068974
0.0024198,-0.18355,-0.44339,-0.21374,-0.076495,0.021704,-0.11076,-0.028924
-0.058562,-0.35779,-0.22711,0.014127,0.016345,-0.28005,0.14432,-0.085453
0.050095,-0.62215,0.47261,-0.037434,-0.040016,0.12457,-0.01433,0.095219
-0.11766,1.0834,0.47954,0.32657,0.23855,0.087128,0.076443,-0.018064
0.086558,0.0090008,0.64743,0.11242,-0.14018,-0.10385,-0.12335,0.027512
0.069629,-0.59282,-0.35156,-0.088686,0.00376,0.30079,0.11994,-0.073371
-0.28452,0.48519,-0.22984,-0.4752,-0.18053,-0.15297,-0.084683,-0.055913
0.0019385,-0.52549,-0.17716,0.16058,-0.020195,-0.32518,-0.13553,0.047742
0.21913,0.31741,0.039236,0.29239,0.21252,0.11989,0.12427,0.049252
-0.077766,0.15052,-0.14278,-0.073917,-0.067201,-0.051874,-0.085486,0.002602
0.44691,0.3902,0.030017,0.037355,0.15713,0.21481,0.24429,0.18075
-0.24691,-0.52562,0.04025,-0.13914,-0.10635,-0.040365,-0.10384,-0.29152
-0.36381,-0.45772,-0.40094,-0.46152,-0.2095,-0.035806,-0.058469,-0.023522
0.21969,0.41891,0.49597,0.744,0.29987,0.22045,0.12334,0.070975
0.064904,-0.47049,-0.86408,-0.64558,-0.27509,-0.4366,-0.26913,-0.03887
-0.32085,0.6032,0.54505,0.37142,0.1106,-0.0085413,-0.19719,0.069216
0.35175,0.39243,0.6976,0.56939,0.21267,0.4713,0.62723,0.16893
-0.041303,0.24419,0.60165,-0.27031,-0.056716,-0.0461,-0.086536,0.010349
-0.17826,-0.54726,-0.49661,-0.49979,-0.13653,-0.12505,-0.16075,-0.22691
0.13779,-0.47386,-0.11051,0.04406,0.027181,0.24129,-0.042784,0.019517
0.095768,-0.063099,-0.73667,0.039977,-0.12793,-0.73586,-0.015607,-0.00042724
-0.25651,-0.14393,-0.46945,-0.083116,-0.077439,0.16382,0.013485,-0.083584
0.050032,0.39442,0.77419,0.38523,0.19591,0.24778,0.036588,0.0358
0.16347,0.014731,-0.87002,-0.13338,0.037815,0.066268,0.0077873,0.14694
0.15322,0.068874,1.0588,0.017243,0.028267,-0.041411,-0.03196,0.031185
0.018135,-0.094587,-0.24136,-0.076884,0.051599,0.028981,-0.017623,0.094843
-0.59447,0.43109,0.099825,0.13146,-0.149,0.04457,-0.18085,-0.18547
0.37721,0.4936,0.3572,0.033631,0.14568,-0.017971,0.28544,-0.043969
0.026773,-0.80489,0.013469,-0.15825,-0.17369,-0.10514,-0.1484,-0.034974
-0.27809,0.12832,-0.30378,-0.34876,-0.10739,0.11683,0.096206,-0.064173
0.26825,-0.34802,-0.06392,0.33906,0.10976,-0.02659,0.15125,0.11129
0.049742,-0.083895,-0.24645,0.0086903,0.1022,-0.17865,0.038267,0.10137
-0.27635,0.073999,-0.52744,-0.080541,-0.0056409,0.056932,-0.35476,-0.085813
0.43907,0.06377,0.72926,0.22834,0.14503,0.092838,0.10998,0.1356
-0.22572,0.31085,0.43366,0.26322,-0.18067,0.030178,-0.10119,-0.063039
-0.044477,-0.3826,0.012345,-0.4068,-0.13151,-0.005609,0.23667,-0.065351
-0.017889,0.62185,-0.44283,-0.32274,0.057975,-0.13054,-0.10353,-0.036331
-0.037439,-0.45251,-0.4793,0.1537,-0.02625,0.086709,-0.066484,0.0075684
0.0679,-0.13448,0.40357,0.25448,0.15503,-0.016132,0.075979,0.01112
0.094311,0.28676,0.0041192,0.21968,0.047308,-0.10151,0.029306,0.06011
-0.1227,0.089726,-0.19156,-0.19443,-0.099303,0.19111,-0.039817,0.014174
-0.052036,-0.13658,0.45064,-0.21523,-0.03477,-0.14556,-0.14454,-0.071395
0.13459,-0.093327,-0.18612,-0.061432,0.092432,0.16178,0.18577,-0.0082743
8.746e-05,0.26835,0.35822,0.30684,-0.053692,0.096804,-0.19635,0.024714
-0.025291,0.17042,-0.043309,-0.37471,-0.10599,-0.028982,0.33397,0.028283
-0.073686,-0.67089,-0.38563,0.12204,-0.048838,-0.38845,-0.091663,-0.11438
-0.097568,-0.3102,-0.26545,0.25152,0.1959,0.080149,-0.10029,0.049753
0.13799,0.49723,-0.16205,-0.13388,-0.012408,0.048311,0.09474,0.11382
0.031787,0.209,0.35982,0.22383,0.084017,0.19567,-0.016681,0.029869
0.26367,-0.16944,0.20487,-0.081918,-0.014869,-0.0010841,-0.014353,-0.0706
-0.12732,0.047151,0.30977,-0.12199,-0.16843,-0.13564,-0.18027,0.022048
-0.38357,0.27767,-0.02059,-0.1624,-0.09533,-0.044072,-0.10793,0.033398
0.049312,0.1978,0.082539,0.023488,0.07963,0.10129,0.22716,-0.16977
-0.047905,-0.096024,-0.68217,0.34255,0.10664,0.0028586,0.0061161,-0.11847
0.17558,-0.57866,-0.30937,-0.501,-0.037649,0.058247,-0.13692,0.13344
0.15611,-0.36647,0.12217,0.0096508,0.013792,0.173,0.31446,0.024603
0.20469,-0.16279,0.60497,0.36758,0.049593,-0.39537,-0.022523,0.14995
-0.17254,0.3042,-0.079538,0.11985,0.045642,0.12686,0.062441,0.01821
0.046438,0.98424,-0.12023,-0.21863,-0.12383,-0.14215,-0.29885,-0.073269
-0.42037,0.24703,0.135,0.21777,0.0014774,0.041296,0.13487,0.016202
-0.0023497,-0.17188,-0.040318,-0.15107,-0.00066208,0.18683,-0.20718,-0.15111
0.11439,-0.5997,-0.25929,-0.29592,-0.0051352,-0.055413,0.034651,0.033814
-0.091292,-0.36236,-0.0056532,0.31306,0.0042638,0.011124,0.10355,0.008214
0.47709,-0.072271,0.34368,-0.098062,0.044121,0.10572,-0.061487,0.061051
0.0096585,0.091254,-0.042443,0.018236,-0.087538,-0.13128,0.16611,0.012737
-0.40566,0.27254,0.27878,-0.12549,0.032263,-0.044612,-0.09517,-0.0036746
0.044708,0.21213,0.18209,0.1839,0.029327,0.051735,0.11626,-0.050397
0.024818,-0.043665,-0.49325,-0.17636,-0.017896,-0.11739,-0.043442,-0.056905
0.26803,-0.019391,-0.5443,-0.0015396,0.27316,0.28233,-0.075109,0.19557
-0.41497,-0.56185,-0.4594,0.16974,-0.34047,-0.18792,-0.12072,-0.22289
0.22345,0.18233,0.3539,-0.15582,-0.039644,-0.07577,0.20875,0.062146
0.18863,0.43819,0.17619,0.39416,0.18993,0.20456,-0.010088,0.12018
-0.2404,0.35746,0.90368,-0.098239,-0.090532,-0.19802,-0.09873,-0.034111
0.044139,0.11335,0.20273,-0.32484,0.071129,0.10807,0.051577,0.074922
-0.020907,-0.36347,-0.37342,0.12446,0.010346,-0.032174,-0.0044739,-0.1002
-0.021092,-0.64884,0.10832,0.043927,-0.077473,-0.070621,-0.18816,-0.098657
-0.15035,-0.17521,-0.31061,0.018939,-0.043165,0.0093371,0.14998,0.11135
0.24188,0.19089,0.14695,-0.10481,0.075506,0.044135,0.12835,-0.10966
0.0018685,0.42207,-0.82438,0.013044,-0.00099896,0.14306,-0.072224,0.021156
-0.1023,0.040012,0.037051,-0.074181,-0.028601,0.063316,-0.052491,-0.017904
0.040765,-0.011081,-0.3232,-0.030756,0.010112,-0.12569,0.00041497,0.048082
0.14329,-0.13948,0.63686,0.15876,0.061848,-0.042022,0.047284,0.21221
-0.091243,0.0021659,0.70951,-0.053905,-0.12263,-0.12367,-0.084361,-0.13477
-0.22593,0.13327,-0.50283,-0.031774,0.011326,0.012289,0.10456,-0.056073
0.10493,-0.19379,0.37908,0.23409,0.11127,0.0072489,-0.0041613,-0.045289
0.055365,0.49284,0.0024059,-0.047566,-0.035389,0.20624,-0.020835,0.052025
0.060201,-0.21121,-0.86617,-0.030392,0.084787,-0.1236,0.04614,0.054312
0.10098,0.15704,0.69198,-0.23756,-0.08528,-0.051262,-0.17834,-0.00094317
-0.051422,-0.67996,-0.50858,0.14248,0.014723,0.033493,0.064003,-0.083483
0.046405,0.29979,0.25282,0.35098,0.031633,0.22453,0.0084896,0.033027
-0.39546,-0.25356,0.7301,-0.48677,-0.26967,-0.24451,0.015791,-0.064902
0.076455,0.24269,-0.58438,0.16301,0.20482,-0.062619,0.095114,0.04586
0.29965,-0.10343,-0.56006,-0.15521,0.049954,0.1197,0.021143,0.046677
-0.19996,0.14474,0.18168,-0.18302,-0.13874,-0.012388,-0.18181,-0.10757
0.1119,0.071272,0.32181,0.49699,0.14078,0.15613,0.033498,0.053334
0.0038913,0.29703,-0.18907,0.10895,-0.023651,-0.071725,0.096505,0.030254
-0.076057,-0.3258,0.023354,-0.62964,-0.083689,-0.063898,-0.1108,0.034209
0.030168,-0.13573,-0.089185,0.27228,0.023924,-0.038809,0.027474,0.0097979
0.19847,0.18997,0.58592,0.39875,0.22105,-0.14346,0.22846,0.15099
-0.21967,0.042461,-0.93765,-0.64425,-0.20399,0.046335,-0.14229,-0.2392
-0.12367,-0.16446,0.51153,0.40351,-0.018065,0.056724,-0.015851,-0.068653
0.14104,-0.079025,0.45792,-0.059195,-0.0039192,0.054318,-0.104,0.044208
-0.013622,0.15213,-0.30577,-0.088631,0.00888,0.040941,0.014993,0.020622
0.24598,0.041053,0.40083,0.406,0.16765,0.12669,0.083881,0.16534
-0.24642,0.071521,-0.40608,-0.25077,-0.11416,-0.056105,-0.12278,-0.13816
-0.055175,-0.074333,0.40986,-0.054604,-0.12562,-0.11835,-0.025486,-0.04497
0.10751,0.030509,-0.86884,-0.32847,0.047867,0.18001,0.19734,0.039991
-0.024575,-0.74755,-0.11676,0.098052,0.0010325,-0.2961,-0.015978,0.039902
-0.17005,0.38052,-0.18589,0.076343,0.0084726,-0.040798,-0.048028,-0.05202
0.28901,0.48442,0.20219,0.3181,0.18848,0.12438,0.10857,0.12419
-0.16968,-0.12576,0.30514,-0.26921,-0.11436,0.10525,-0.10178,-0.095459
0.10375,0.068384,0.7863,-0.036031,-0.055874,-0.066658,-0.039523,-0.0082501
-0.045474,0.15269,-0.45237,0.27607,0.020217,0.078276,-0.049313,0.033469
-0.022201,-0.30509,-0.18645,-0.20021,-0.042668,-0.15407,0.16529,-0.049405
0.088884,0.081505,0.23939,0.1828,0.18463,0.24542,-0.067408,0.070274
-0.11743,-0.13741,-0.18972,-0.052598,-0.15785,-0.27667,0.011242,-0.061404
-0.030949,0.08111,0.41286,-0.11071,-0.015903,0.17916,-0.46468,0.03949
0.13013,-0.054465,-0.84233,-0.17984,-0.014814,-0.12847,0.48282,-0.033317
-0.071402,-0.36521,-0.45446,-0.017976,0.040666,0.011906,0.042397,0.0096469
-0.0027684,0.18088,1.165,0.33629,0.049106,0.077031,-0.019672,0.0050931
-0.10183,0.3667,-0.14956,-0.12385,-0.051748,0.027763,0.046525,-0.061608
0.26356,-0.39972,0.058064,-0.11587,-0.035074,0.027873,-0.13477,0.044953
0.014274,0.75784,0.31219,0.33024,0.16962,-0.040223,0.028968,0.1069
-0.23368,-0.38689,-0.8027,-0.34705,-0.14856,-0.075354,-0.010476,-0.12522
0.01056,-0.31893,-0.087877,0.10281,-0.044389,-0.10909,0.003553,0.0049291
-0.043471,0.5699,-0.22407,0.0002308,0.16158,0.2021,-0.1328,0.12975
-0.037785,-0.47944,0.28888,0.071453,-0.1247,-0.14982,0.025568,-0.22038
0.12003,0.024521,0.34043,0.05031,0.0027162,0.092712,0.041391,0.093957
0.28038,0.0036942,-0.18379,0.014338,0.11388,0.10113,0.12613,0.055747
-0.073219,-0.15833,0.45568,-0.15408,-0.064774,-0.070491,0.092885,0.11681
-0.089423,0.055217,-0.070587,-0.12699,-0.072294,-0.01667,-0.16719,-0.091049
-0.17386,0.028051,0.17561,-0.07615,-0.0022548,-0.074121,-0.083456,-0.091698
0.034503,0.33061,0.10476,0.42836,0.13783,0.14716,0.1255,-0.0020764
-0.19612,0.024401,-1.0152,-0.14453,-0.10483,-0.095302,-0.048181,-0.039979
0.098415,0.14638,0.029425,-0.21682,-0.011125,-0.066979,-0.1437,-0.00077516
0.046362,-0.25152,0.23613,0.24226,0.036353,0.13902,0.24498,0.031352
0.34566,-0.17976,0.28587,0.1303,0.037704,-0.13249,0.00044258,0.11272
-0.10381,-0.077697,-0.050261,-0.014655,0.04755,0.11197,-0.1353,-0.044595
-0.12245,0.0073561,0.17447,-0.24818,-0.114,-0.10281,0.11116,-0.018308
-0.094739,0.014016,-0.87941,-0.039527,0.005875,0.052355,-0.17409,0.12866
0.093572,-0.00057131,0.7706,-0.068317,-0.038494,-0.039131,0.1734,-0.19076
