0.036393,-0.003158,-0.13683,0.008888,0.015168,0.0021555,-0.068044,0.013833
-0.038308,-0.050634,0.20756,-0.024049,-0.0081407,-0.013089,-0.0043639,-0.001798
0.057682,0.035709,-0.90946,0.12145,0.053297,0.016987,0.038581,0.020903
-0.06665,-0.019106,0.47795,-0.12444,-0.050418,0.014336,-0.016923,-0.019576
-0.028642,0.0022044,-0.03842,-0.081365,-0.061211,-0.044087,0.00076601,-0.029327
0.054644,0.067133,-0.060926,0.0014073,0.036936,0.014228,0.028324,0.023143
-0.011708,-0.028362,0.17641,0.046407,0.0023014,-0.05216,-0.052679,-0.0024942
0.038545,0.051185,0.26072,0.15564,0.038474,0.06995,0.045406,0.026873
-0.043848,-0.076978,-0.41586,-0.10047,-0.033858,0.029502,0.00097125,-0.029126
0.015323,0.079966,-0.2113,0.051288,0.058973,0.0063928,0.016243,0.017179
-0.04109,-0.12526,0.2112,-0.11622,-0.050168,-0.030754,-0.018445,0.0017874
0.0061068,-0.058293,0.32829,0.044706,-0.0020198,-0.0042324,-0.055802,-0.028475
0.055467,0.10289,0.10031,0.025475,0.015681,0.015035,-0.04787,0.027802
-0.033901,-0.022944,-0.23942,-0.018306,-0.028621,-0.05956,0.061582,-0.017108
-0.0048368,0.041912,0.15186,-0.0010879,0.0053839,-0.017688,-0.11638,0.0083987
0.032325,-0.0067198,-0.62464,-0.032312,0.023668,0.10115,0.17753,0.010304
0.013962,0.13564,0.25204,0.052346,0.010395,-0.031395,0.014517,0.0040059
0.0014904,0.015062,0.3306,-0.027836,-0.034566,0.0065802,0.074396,-0.010646
-0.0059153,-0.18997,-0.15966,0.016885,0.01373,-0.034678,-0.11228,-0.018075
-0.071125,-0.09007,-0.23901,-0.031546,-0.01659,-0.029746,-0.078162,0.0052151
0.071692,0.032513,-0.10778,-0.039757,-0.00049384,0.045336,0.089023,-0.0031305
-0.076681,0.13038,0.31395,0.10974,0.038615,0.027038,-0.1126,0.0039547
0.0084381,0.086348,0.36236,-0.004971,-0.032065,-0.029505,0.10441,0.011033
-0.023045,0.041572,-0.22962,-0.048331,0.014012,-0.022442,-0.010993,0.0026158
-0.044738,-0.13592,0.11328,0.018061,0.036189,0.0483,0.056496,0.002192
0.26469,-0.42959,-0.32347,-0.056608,-0.067111,-0.051804,-0.044179,0.0097236
-0.1334,0.20804,0.17541,0.086246,0.040091,0.028466,0.016392,-0.013961
-0.020501,0.19105,-0.0097765,0.00070665,0.0063677,0.023016,-0.033349,-0.0065053
0.00097291,0.19046,-0.50507,-0.00099217,-0.011793,0.025094,-0.33188,-0.038351
0.039152,0.13429,0.40881,-0.051511,-0.045314,-0.020413,0.26344,0.077926
-0.05575,-0.089045,-0.25853,-0.095598,-0.015712,-0.05126,0.21498,-0.03267
0.027607,-0.24736,0.17493,0.016063,0.038266,-0.059673,-0.133,-0.0028565
0.015063,-0.18593,0.53944,0.10479,0.054306,0.063906,0.14079,0.0034761
-0.14041,0.055872,-0.26531,0.062103,-0.0066639,-0.00050229,-0.12145,-0.052513
0.077213,0.0963,-0.2393,-0.064501,-0.027674,0.044366,-0.12508,0.05596
0.059402,-0.054492,-0.10249,0.029854,0.0065048,-0.027706,0.13529,-0.01468
-0.083442,0.13007,0.22111,-0.04571,-0.0061759,0.11164,-0.061199,0.024709
0.01682,0.043902,0.0023696,-0.026185,-0.011504,-0.12343,0.096576,-0.013416
0.13426,-0.075825,0.1607,-0.029592,0.013593,0.017081,-0.173,0.027043
-0.059083,0.0227,-0.21979,0.12289,-0.03263,-0.068459,0.0057743,-0.049466
-0.032307,0.0666,-0.2728,0.01647,-0.0017131,0.026101,0.071948,0.014604
-0.0518,-0.046362,0.064418,-0.083638,0.028428,0.035022,-0.011452,0.00025908
0.045503,-0.036599,0.16032,-0.013403,0.011256,-0.0027759,-0.093829,-0.0067315
0.10236,-9.7329e-05,0.28258,0.040036,0.0096649,0.076599,0.17816,0.016999
-0.085129,0.029566,-0.23032,-0.21173,-0.022847,0.0073251,-0.07721,0.016798
-0.056351,0.026972,0.34315,0.12269,-0.02349,-0.11703,0.31997,-0.061901
-0.0064465,-0.063885,-0.4864,0.098609,0.03915,-0.007544,-0.32617,0.015451
0.01057,-0.032595,0.27594,0.052265,0.0010247,0.023248,-0.001104,0.069352
0.042602,-0.12116,-0.40642,0.014779,-0.052063,-0.040223,-0.0030211,-0.048487
-0.057625,-0.024221,-0.031508,-0.045622,0.035868,0.099059,-0.19252,-0.033296
0.078117,0.063698,0.46427,0.018751,0.045701,0.10536,0.21072,0.021168
-0.080728,0.36981,-0.33325,-0.21472,-0.1011,-0.16172,0.073388,0.021072
0.1223,0.050711,0.54311,0.089399,0.056007,-0.037877,0.082855,0.028785
0.054119,0.051844,-0.71433,0.032513,0.071408,0.06307,-0.10441,0.028557
-0.090647,-0.44696,0.82783,0.067974,-0.04723,-0.014933,-0.066071,-0.089043
-0.070684,-0.13277,-0.49117,-0.10839,-0.042033,-0.021769,-0.23903,0.0041781
-0.011862,-0.26257,-0.089532,0.011866,-0.029908,-0.027779,0.22106,-0.019699
-0.0086156,0.49291,0.48296,0.10125,-0.041639,0.037148,0.22096,-0.0041055
0.016777,0.11911,-0.55602,0.027432,0.12647,0.17265,-0.12189,0.059126
0.12669,-0.024052,-0.17429,-0.068677,0.014046,-0.01237,-0.034012,-0.0094005
-0.061582,0.063172,0.34954,0.06305,-0.026886,-0.17458,-0.02342,0.017015
-0.071274,-0.24542,-0.4262,-0.14768,-0.027306,-0.0095603,-0.16072,0.052356
0.019741,0.34512,0.1193,-0.052455,-0.057476,-0.095448,0.35065,-0.098991
0.024176,-0.019086,1.0199,0.17684,0.06213,0.091443,-0.21609,-0.054713
0.035946,-0.53554,-0.57507,0.0011201,0.065552,0.10621,-0.032935,0.067379
0.016139,0.036205,-0.096222,-0.0015851,-0.032029,-0.011631,-0.13901,0.047859
0.035275,-0.015904,0.14152,-0.16742,-0.1061,-0.0039628,0.25465,-0.035781
-0.10941,0.33106,-0.29464,0.11258,0.069439,-0.042551,-0.0083803,0.026901
-0.003287,0.32706,-0.16539,-0.060629,-0.052678,-0.010336,0.063728,0.0012699
0.0028729,-0.32454,0.30087,0.13244,0.081945,0.045493,-0.099802,-0.042308
0.034967,-0.068455,0.24447,0.042424,0.051247,-0.031718,0.023992,0.099702
-0.070249,0.08068,-0.52069,-0.11284,-0.1136,-0.023609,-0.033967,-0.21259
-0.0076005,-0.20366,0.18003,0.025353,0.024957,-0.00077915,0.015337,0.045234
0.05094,0.11991,0.16268,-0.035427,-0.0095051,0.060087,-0.21062,0.092943
0.0029662,0.12472,-0.58479,-0.060484,-0.021406,-0.0050117,0.0074837,-0.013877
0.057806,-0.16229,0.62014,0.09954,0.091176,-0.11773,0.26414,0.030037
0.14296,0.098353,-0.002354,-0.046128,0.016174,0.058207,0.036653,0.021709
-0.072099,-0.33252,0.35221,-0.050473,-0.074061,0.09349,0.2241,0.0077338
-0.042609,-0.038982,-0.49758,0.05695,-0.054049,-0.097449,-0.42302,-0.075004
-0.23086,0.29171,-0.28108,0.058775,-0.0014815,0.13414,-0.037104,0.038339
0.034803,0.65007,0.35802,-0.05199,0.060521,-0.09432,-0.031895,0.011059
0.16944,-0.21736,0.20608,0.052884,0.061783,-0.02485,-0.04777,-0.14183
-0.16081,-0.47155,-0.45735,-0.033487,-0.029041,-0.055793,0.36065,0.048058
0.070219,-0.3286,-0.17176,-0.03892,-0.01697,0.008173,-0.10371,0.025878
0.12321,0.14422,0.66523,0.066179,-0.043159,0.0732,0.0039174,0.072904
-0.061847,0.57606,-0.20238,-0.032456,-0.030138,0.021869,0.10461,0.056437
0.016713,-0.16019,-0.37393,-0.04734,0.083914,0.04132,-0.16972,-0.085862
0.078296,-0.33848,0.090241,0.12978,0.048398,0.060808,-0.11678,0.13059
-0.14311,0.04991,0.50411,-0.095316,-0.051176,-0.23258,-0.10426,-0.18458
-0.03936,-0.17275,-0.65532,-0.14428,-0.097803,0.098362,0.28952,-0.17164
0.067435,0.30854,0.7519,0.20252,0.08049,-0.063661,0.0022538,0.18543
0.097178,0.45732,-0.11188,-0.061347,-0.00030294,0.039238,0.081235,0.066688
0.032439,-0.34901,-0.41307,0.018832,-0.003669,0.016627,-0.12143,0.042683
-0.20627,0.071283,-0.2791,0.069579,0.024193,0.0093317,-0.18336,-0.0037169
0.10687,-0.41281,0.36607,-0.18138,-0.080134,0.0018324,0.013039,-0.08048
-0.19235,0.10657,-0.025832,0.016523,0.027592,0.025341,0.077285,0.03084
-0.0021017,-0.18166,0.39622,0.06939,0.0038482,0.071882,0.27487,-0.09199
0.2562,0.19239,-0.60181,-0.00022249,0.075119,-0.054049,-0.11337,0.042907
-0.10462,0.20589,0.34833,0.25153,0.030101,-0.079101,-0.041118,0.036887
0.15761,0.39009,0.12334,-0.0521,-0.05364,0.0046688,-0.016711,-0.024188
-0.01219,-0.46671,-0.79815,-0.30341,-0.051707,0.0023581,-0.15763,0.015962
-0.13802,0.079566,0.92986,0.02764,0.0276,-0.030706,0.067451,0.032431
0.0062131,-0.32419,-0.25301,-0.043762,-0.097212,0.039023,-0.0051082,-0.052791
0.16268,-0.28105,0.13938,0.29525,0.11297,-0.014386,0.0081545,0.018208
-0.38668,0.77014,-0.89962,-0.2902,-0.029016,0.035971,0.00631,-0.035757
0.21118,-0.14044,0.98974,0.060725,0.032014,0.049386,0.067871,0.097839
-0.010362,0.048837,-0.5369,-0.017679,0.015365,0.11909,-0.064976,-0.073201
-0.07232,-0.10017,0.47201,0.14761,-0.10194,-0.15422,0.27926,-0.0020274
0.058785,-0.29106,-0.51725,0.11189,0.063178,-0.10751,-0.040664,0.0066376
0.10328,-0.055373,0.1719,-0.0076748,-0.020559,0.06294,-0.14247,-0.0238
-0.00079301,0.34113,0.46598,-0.21936,0.029363,-0.1202,-0.088907,0.078504
0.01941,0.19533,-0.051755,0.046457,0.079595,0.20981,-0.38756,-0.053682
-0.017462,-0.22705,-0.17971,7.7076e-05,-0.034579,0.068486,-0.09252,-0.045425
0.0033851,0.019612,-0.64435,-0.17921,-0.071594,-0.083021,0.87505,0.095353
-0.20978,-0.18132,0.43114,0.05533,-0.063136,-0.18958,-0.093742,-0.084625
0.1687,0.10076,-0.067175,0.14128,0.12346,0.17132,-0.053525,0.047264
0.16038,-0.22663,-0.18233,0.28966,-0.097583,-0.062119,-0.12193,0.014254
-0.41551,0.65056,0.018834,-0.42137,0.016376,0.12641,-0.38562,-0.051017
0.065804,-0.1019,0.69471,0.25802,0.1378,-0.15315,0.32652,0.10918
0.14389,-0.81842,-0.1154,-0.18022,-0.17802,-0.0020146,-0.10316,-0.12228
0.10877,0.34586,-0.045991,-0.041066,0.077204,0.079931,0.051815,0.05175
0.16477,-0.014921,0.079637,0.15187,0.013087,0.014421,0.057363,0.014556
-0.17911,0.27053,-0.56208,-0.13269,0.059299,0.012079,-0.11721,-0.069138
-0.32019,0.48969,-0.19229,-0.019578,-0.042227,0.095961,0.028701,0.027983
0.15652,-0.33632,0.94618,0.14775,-0.02627,-0.17956,0.2612,-0.013682
0.18148,-0.22578,-0.58264,0.072832,-0.026088,-0.033367,-0.31014,0.017323
-0.065034,-0.22009,-0.39249,-0.14233,-0.018627,0.058043,0.056778,-0.019433
0.097065,-0.39891,0.075947,-0.098876,-0.01976,-0.27229,-0.036816,0.1024
-0.21484,0.62013,0.61634,0.10204,0.064179,0.34308,0.42424,-0.031859
-0.00075105,0.32982,-0.11172,-0.06271,0.092644,0.060536,-0.31826,-0.040297
0.12975,0.044106,0.18966,0.18053,-0.074761,0.20035,-0.37392,0.09169
0.012187,-0.71938,-0.51263,0.050603,0.03889,-0.33145,0.39018,-0.16807
-0.010325,-0.036524,-0.090437,-0.40566,-0.089364,-0.14452,-0.041228,0.10167
-0.11051,0.66527,0.77754,0.22567,-0.09959,0.1281,0.012065,-0.028987
-0.031616,0.099072,-0.72894,0.045892,0.17283,-0.029281,0.003726,-0.075465
0.108,-0.30361,0.73451,0.24219,0.0017802,-0.093138,0.043507,0.079965
0.025877,-0.2836,-0.25899,-0.34211,-0.12034,0.24916,-0.1888,-0.077624
0.15844,-0.20737,-0.25011,-0.12937,0.048547,-0.11168,0.16595,0.085234
-0.018489,0.2217,-0.05661,0.082916,0.03919,0.089966,-0.017724,0.10804
-0.23169,0.11145,-0.00012731,-0.10446,0.053903,0.19778,0.0095073,-0.048142
-0.27758,0.35732,-0.62606,0.45604,0.076066,-0.13198,0.10635,-0.070971
0.11837,0.048626,0.34132,0.38846,-0.090595,-0.46941,-0.21205,-0.06237
0.47338,-0.33565,-0.28477,-0.71422,-0.12647,0.13911,0.14005,0.10225
-0.04663,-0.027616,0.95354,-0.23515,-0.086524,0.16301,-0.39964,-0.038382
-0.23668,0.13208,0.29021,0.14632,0.14667,0.15768,0.42721,-0.039084
-0.048307,-0.3516,0.15711,0.18904,0.058141,-0.2124,-0.18337,0.02209
-0.089646,0.61482,0.16203,0.027516,-0.030883,0.20894,0.53496,0.012592
0.28851,-0.24742,-0.92446,0.1715,0.044601,-0.1415,-0.49539,0.057801
0.070821,-0.46458,-0.46298,-0.34586,-0.13652,-0.02274,-0.31322,-0.06063
-0.20384,-0.28788,0.01803,0.054997,0.098043,0.37624,0.32353,-0.029861
-0.16895,0.4693,0.010996,0.19516,-0.001689,-0.44602,0.070605,0.12688
0.033818,0.35966,-0.22892,-0.28482,0.0014146,-0.021845,0.16153,-0.16848
0.22333,-0.12886,0.97859,0.36421,0.075454,-0.047023,-0.10007,0.123
-0.086511,0.45754,-0.74786,-0.22644,-0.16315,0.17396,-0.074583,-0.038022
0.13365,-0.35197,0.91184,0.25389,0.13644,0.071618,-0.090868,-0.042549
-0.10236,0.094904,-0.19444,-0.30598,-0.13564,0.08471,0.20245,0.085547
0.15716,-0.0033124,0.23016,0.084699,0.059446,-0.19932,-0.23322,0.002085
-0.072919,-0.86148,-0.052461,-0.12179,-0.020388,-0.036756,-0.076525,-0.090179
-0.24554,0.14304,-0.97013,-0.034966,0.00019282,0.15196,0.0020337,-0.027454
-0.039294,0.25976,0.94739,0.14253,0.027898,-0.061678,0.25379,0.072924
-0.085209,0.0053391,-0.85949,0.23188,0.071004,0.034075,-0.21874,-0.046881
0.23593,0.65501,0.34127,-0.29709,-0.010736,-0.09949,0.8269,0.14448
0.13679,-0.46912,-0.46543,0.21289,-0.11552,-0.017266,-0.75806,0.03004
-0.045746,0.2904,0.57488,-0.11226,0.053633,-0.15757,-0.15416,-0.2414
0.20386,-0.011237,-0.39308,-0.15466,-0.0032513,0.41566,0.082904,0.1041
-0.14666,-0.43653,0.90028,0.18779,0.041936,-0.018244,0.21011,-0.034434
-0.13799,-0.30581,-0.065747,0.016972,-0.029557,-0.024002,0.031662,-0.0079337
-0.19373,0.67039,-0.64189,-0.11234,0.008872,-0.10376,-0.046152,0.020065
0.21604,-0.069336,0.35048,-0.051921,-0.053628,-0.22796,-0.069728,0.073309
-0.073376,0.070605,-0.18487,-0.021086,0.0017946,0.024273,-0.22576,0.011168
0.047617,-0.4856,-0.047952,0.041688,0.058018,0.14506,0.30699,-0.033884
0.025304,0.0065502,-0.32767,0.346,-0.017805,0.26017,-0.056649,-0.039021
-0.0059835,0.12685,0.48164,-0.32062,-0.038364,-0.26957,0.18373,0.018436
0.088362,0.28194,0.12903,0.39195,0.0663,-0.15324,-0.22202,0.051807
-0.088286,-0.021809,-0.24447,-0.49383,-0.032424,0.23615,-0.055847,-0.1426
0.028196,0.24348,0.19871,0.09997,0.10244,-0.037107,0.04822,0.091174
0.087532,-0.72421,-0.35137,-0.013359,-0.060806,0.083084,0.096429,0.02664
-0.1985,0.42051,0.061358,-0.058685,-0.077081,-0.027394,-0.076963,0.00012705
-0.11865,0.351,0.017764,0.060031,-0.047894,-0.25104,0.12026,-0.073651
0.31114,-0.57095,-0.23814,0.040483,0.066178,0.13066,0.0073267,0.048283
-0.20697,0.22929,0.61428,0.079896,-0.015529,0.17957,-0.32242,-0.062977
0.13783,-0.13199,-0.26237,-0.16449,0.020158,-0.13651,0.17836,0.038504
0.10894,0.097106,0.18339,0.18214,0.064465,0.11103,0.19076,0.1265
-0.085322,-0.18055,0.2909,0.29818,0.055282,-0.1491,-0.0017265,-0.064626
-0.12726,-0.1228,-0.6009,-0.4122,-0.12446,-0.13643,-0.19314,-0.11337
0.08243,0.066347,-0.37907,-0.045052,-0.029616,0.32824,-0.27105,0.07333
0.0031705,0.36205,0.47702,0.13981,0.026947,-0.263,0.28292,-0.021004
-0.12338,0.15199,-0.10379,-0.26507,0.021292,0.20723,0.087886,0.0089523
0.17993,-0.13932,0.46574,0.20891,-0.00022771,-0.010635,-0.19148,0.13892
-0.10096,-0.42563,-0.53772,-0.023336,0.11038,-0.095743,0.25635,-0.18639
0.036305,0.36171,0.13278,0.008539,-0.13156,-0.10226,-0.047738,0.071799
-0.10864,-0.11608,0.39693,0.11116,-0.05424,0.056111,0.025333,-0.031721
-0.064324,0.52069,-0.57538,-0.11989,0.092468,-0.019008,0.17443,-0.019898
0.10122,-0.37111,-0.021026,-0.073947,-0.05828,0.24238,-0.15909,0.029929
0.44421,-0.62863,0.42343,0.077636,0.064291,-0.13698,-0.54837,-0.014111
-0.30812,0.13114,-0.091287,-0.048336,-0.0080713,0.01383,0.42731,0.020786
-0.038771,0.15171,-0.47127,0.47664,0.006317,0.021936,0.034293,0.065058
-0.092304,0.23171,0.60176,-0.35696,0.037447,0.089679,-0.2329,0.0019646
-0.16528,0.23957,0.29573,-0.12915,-0.11768,-0.44734,0.26196,-0.15279
0.11581,-0.20749,-0.84772,-0.13064,-0.013814,0.23142,0.038176,0.045829
0.077484,0.084316,0.38446,-0.0031861,0.098792,0.17362,-0.28383,0.011271
0.093018,0.065124,0.18237,0.33867,0.040041,-0.19772,0.27466,0.078661
0.035692,-0.18296,-0.12198,0.074803,-0.034337,0.040551,-0.012175,0.090861
0.06017,-0.070071,-0.39789,-0.24717,-0.054582,0.25679,-0.012146,-0.14823
-0.14724,0.18196,0.11226,-0.024556,-0.036819,-0.32942,0.15585,0.0014715
0.045745,-0.40513,0.20683,0.10344,0.088906,0.0011001,-0.088533,-0.06175
-0.12609,0.035742,0.0054384,0.021178,0.017756,0.52186,-0.41934,0.052969
-0.075439,0.052824,-0.15337,-0.074515,-0.062675,-0.57204,0.1853,-0.060051
0.074872,0.35939,-0.33797,-0.033842,0.043264,0.21911,0.052829,0.068674
-0.063202,-0.1668,0.85866,-0.012034,-0.085763,-0.15966,-0.027481,-0.028905
0.1456,0.14874,-0.1109,0.12425,0.05872,0.064913,0.28123,0.13208
0.046789,0.21449,-0.0058736,-0.054775,-0.053866,0.025534,-0.22289,0.044024
-0.093316,-0.2569,0.30505,0.043883,0.13173,-0.012342,0.0082964,-0.16037
0.14663,-0.45159,-1.0538,-0.1593,-0.063832,0.060302,-0.086742,-0.020446
0.04628,0.10019,-0.19074,-0.049023,-0.046744,0.086566,0.15649,-0.044368
0.12684,-0.046156,0.86581,0.56791,0.018697,-0.17669,-0.066837,0.087907
-0.55152,0.5862,-0.3249,-0.31053,0.03043,0.034991,0.21915,0.040329
0.12647,-0.13589,-0.015434,-0.21719,0.011225,0.095432,-0.32251,0.023903
0.019033,-0.3385,0.08032,0.018969,0.015053,0.058369,0.025754,-0.1174
-0.022524,0.44536,0.27814,-0.0317,-0.029035,-0.1548,0.13012,0.015151
0.25227,-0.46616,-0.21796,0.13954,-0.051164,-0.036102,0.052436,-0.0078448
0.039654,0.28409,0.15264,0.018637,-0.0046271,-0.029968,-0.012159,0.063773
-0.18268,0.13184,-0.13789,0.029415,0.016938,0.099448,-0.36017,-0.020038
0.062898,-0.5176,-0.13484,-0.06057,0.029503,-0.036647,0.25143,-0.017378
0.042942,0.15626,0.49856,0.086254,0.056992,0.0089171,0.14405,0.079074
-0.25742,0.20948,-0.65049,-0.11493,-0.095389,0.18298,-0.18113,0.065597
0.36557,-0.14449,0.40518,0.023891,0.025947,-0.23231,0.12067,-0.18335
-0.21257,0.51176,-0.42307,-0.098991,0.061962,0.02878,-0.020144,0.074074
-0.13203,-0.23202,0.59137,0.070405,-0.08872,-0.042319,-0.032905,-0.12307
0.19343,-0.55958,-0.72852,0.3903,0.034884,0.076377,0.074537,0.069285
-0.1501,-0.014684,0.53612,-0.39853,0.026463,0.15641,-0.049746,-0.01232
0.20447,0.18564,-0.093032,-0.22723,-0.043796,0.078637,-0.2267,0.10939
0.11622,0.11925,0.18722,0.34822,0.06616,-0.14285,0.13654,-0.025841
-0.1341,-0.036876,-0.73479,-0.14187,-0.073464,-0.18848,-0.031383,-0.019104
-0.17207,0.77464,0.46517,0.075501,-0.033036,-0.19856,0.19016,0.020443
-0.045069,-0.24219,0.21851,0.27388,0.093681,0.33602,0.081139,-0.055707
0.13707,-0.53244,0.30593,-0.31163,-0.060493,-0.1608,-0.12523,-0.0056696
0.038027,0.08458,-0.27508,0.062527,0.059123,0.18821,0.078128,-0.033036
0.0089897,-0.044241,-0.12988,-0.062765,0.014967,0.056841,-0.20734,0.17414
-0.13022,-0.35018,-0.26272,-0.23231,-0.099353,-0.16323,0.12062,-0.22844
0.17442,0.027855,0.05683,0.15736,-0.010625,0.16075,-0.49125,0.15715
-0.062253,0.69606,-0.13536,0.12312,0.10116,-0.089612,0.39643,-0.0053913
-0.0051239,-0.12031,-0.10724,0.032345,-0.029996,-0.14301,0.058961,-0.091278
0.0091934,-0.49219,0.40517,0.079189,0.040864,0.20097,0.099304,0.094805
0.042893,0.21983,0.42415,-0.15284,-0.10063,-0.099468,0.1899,-0.032851
0.0024756,0.28641,0.12857,0.28606,0.076593,0.00023224,-0.40397,-0.059733
-0.15803,0.069824,-0.51307,-0.32646,0.017897,0.21741,0.22284,0.046045
-0.046454,-0.2262,-0.27355,0.061169,-0.073302,-0.18252,-0.15766,0.043042
0.07353,-0.040677,0.013125,0.18143,0.0066611,-0.22972,-0.062466,-0.067972
0.055575,-0.1189,0.045575,-0.49713,0.0085187,0.18746,0.21847,0.049618
0.042147,-0.26191,0.15635,0.23802,-0.066919,-0.076335,-0.19789,-0.049024
0.18294,0.43967,0.069066,0.077602,0.11703,0.013494,0.087363,0.058152
-0.27939,0.082701,-0.57907,-0.0053871,0.0062466,0.3115,-0.27641,-0.066557
0.060978,-0.25901,0.91807,0.11077,-0.024026,-0.2818,0.20404,0.013737
-0.10188,0.27038,-0.34487,-0.17927,-0.01292,0.10942,0.30299,0.001157
0.042652,-0.15171,0.091472,0.080444,-0.023311,-0.18728,-0.3308,0.027208
0.12506,0.036589,-0.29234,0.016083,0.069208,0.30284,0.33366,0.10606
0.025711,0.14914,0.27947,-0.044904,-0.095442,-0.10262,-0.024653,-0.1621
0.023551,-0.21685,-0.1212,0.10602,0.036726,-0.031739,-0.42225,0.16698
-0.19575,-0.02477,0.10919,-0.019222,-0.019273,0.043809,0.17141,-0.079077
0.0464,-0.26796,-0.20571,-0.050053,0.056418,-0.19853,-0.032967,-0.15005
-0.070559,0.1231,0.088056,0.13416,-0.025545,-0.025641,0.027418,0.033148
0.11028,-0.064159,-0.087405,-0.26706,-0.023076,-0.0079881,0.040829,-0.0045097
0.10596,0.22136,-0.3387,0.119,0.024821,0.27715,-0.093329,0.11386
-0.15187,0.481,0.65931,0.080774,0.02458,-0.0045478,0.13362,0.030766
-0.020327,-0.15422,-0.19665,-0.38073,-0.062588,-0.022912,-0.012228,-0.041342
0.073117,-0.024866,0.12335,0.43995,0.052693,-0.072608,0.06281,-0.023407
-0.057057,-0.26252,-0.24198,-0.26653,-0.051141,-0.15934,-0.032511,0.01447
0.19225,-0.26511,-0.014646,0.049951,-0.022269,0.038972,-0.10388,-0.0063261
-0.1311,-0.070754,0.15945,0.18125,0.10823,0.13299,0.089754,-0.0087213
-0.011025,0.096296,-0.27423,0.04328,-0.0033048,-0.064157,0.039638,0.0058942
-0.033566,0.1543,-0.005538,-0.14453,-0.067834,0.080242,-0.14539,0.036057
-0.019582,0.63296,0.46872,0.062751,0.047394,0.096663,-0.11376,0.11174
-0.055966,-0.38135,-0.22496,-9.9657e-05,-0.12645,-0.19588,0.04132,-0.29138
0.04349,-0.0035525,0.21104,-0.09242,0.098069,0.083825,0.43013,0.0060155
0.21473,-0.55023,-0.081455,-0.020365,0.01781,0.06701,-0.43846,0.082175
0.010749,-0.024425,-0.24015,-0.18346,-0.031271,-0.3102,0.21779,0.19546
-0.23417,0.43058,0.34221,0.33181,0.09151,0.13872,0.032392,-0.098646
0.025459,0.030532,-0.49722,0.041079,-0.12157,0.05378,-0.18183,-0.064881
0.085599,0.099448,-0.082092,-0.13337,0.040554,0.051932,-0.026542,0.016336
-0.11655,-0.055884,0.047598,-0.13621,-0.046998,0.078468,0.060212,-0.049624
0.083439,-0.16955,0.13411,0.095733,0.053395,-0.093045,0.06972,0.10491
-0.055709,0.21021,-0.1201,0.055123,-0.025384,-0.071751,0.063321,-0.019786
-0.095171,0.22143,0.7585,-0.07817,0.03697,0.048939,-0.038359,-0.04086
0.27125,-0.65475,-0.54909,0.10194,-0.0018275,0.058555,0.060424,-0.028768
0.045048,0.10956,0.25932,0.23564,0.0143,-0.042291,-0.20363,0.055234
-0.1787,-0.027746,0.092045,-0.33384,-0.016414,-0.065378,-0.018332,-0.047126
0.069808,-0.092633,-0.3868,0.0024717,-0.047273,-0.095893,-0.10219,0.062025
-0.22432,0.55361,0.13503,0.041359,0.031002,0.18714,0.52206,-0.055443
0.040781,0.12071,-0.083505,-0.15438,-0.031574,-0.083036,-0.22269,0.021703
0.06022,-0.071343,-0.10879,0.17369,0.085438,0.2734,-0.53064,0.17569
0.083177,-0.25608,-0.0036271,-0.075261,-0.10214,-0.32187,0.7242,-0.28927
0.092562,-0.22814,-0.085015,0.11498,0.062175,0.068175,-0.25439,0.032788
-0.062083,0.23495,0.29396,0.064951,0.00042379,0.075784,-0.083298,0.11833
-0.039331,-0.69014,0.00078302,-0.17096,-0.060756,-0.11207,-0.12983,-0.032558
0.010139,0.71269,-0.026433,0.093965,0.081699,0.09026,0.55873,0.056936
0.045543,-0.20051,-0.18664,-0.024191,-0.056785,0.057785,-0.51035,-0.089415
-0.027681,0.11201,0.46251,0.020271,0.085996,-0.14662,0.14685,0.028774
-0.076389,0.064488,-0.72592,-0.007978,-0.044969,-0.092596,0.030145,-0.041228
-0.1538,0.45117,0.52704,0.13278,-0.0046309,0.23629,-0.09459,0.060335
