-0.081864,-0.074425,0.0035856,-0.0090939,0.0051824,0.012296,0.14824,-0.10449
0.2416,-0.022737,0.024926,-0.024556,-0.0094312,-0.011497,0.12594,0.17241
0.58928,0.059172,-0.023394,-0.0073717,0.007422,-0.019711,-0.2859,-0.19504
-0.16696,0.14795,0.03751,0.026954,-0.0069712,-0.012534,-0.086938,-0.0038782
-0.0090063,-0.099688,-0.04316,-0.023202,-0.021559,-0.029081,-0.065938,-0.051545
-0.14003,-0.011073,-0.016092,-0.0018834,0.00257,-0.014551,0.019517,-0.12796
0.0079528,-0.038281,0.047925,0.059112,0.057523,0.085993,0.26329,0.43769
-0.38161,-0.28178,-0.06224,-0.075352,-0.06764,-0.070886,0.032459,-0.20743
0.35031,0.29839,0.13791,0.14853,0.056838,0.08541,-0.14218,0.013488
-0.23902,0.31202,-0.077754,-0.027895,-0.053293,-0.062132,-0.066089,-0.04932
0.14243,-0.44428,-0.083553,-0.14433,0.00056301,-0.0056889,-0.005925,-0.12358
-0.063918,0.10657,-0.027088,-0.0057262,-0.00018704,-0.0032289,0.052818,0.0086223
0.88161,0.1035,0.053425,0.044322,0.0774,0.10902,0.31227,0.56563
-0.77954,-0.15093,0.14308,0.022037,-0.032217,-0.067744,-0.39228,-0.56956
0.00072885,0.48951,-0.046736,0.029896,-0.01651,-0.018237,0.087481,0.33044
-0.22751,-0.74266,-0.054943,-0.024784,-0.031746,-0.063032,-0.27139,-0.4517
0.087448,0.34673,-0.061417,-0.055037,-0.023301,0.00085266,0.36035,0.17187
-0.18936,-0.062863,0.058404,0.072759,0.063418,0.071828,-0.070439,-0.2265
0.1585,0.029364,-0.024189,-0.023735,-0.02953,-0.037563,0.10214,0.68319
0.29931,0.046981,0.033951,0.014941,0.049269,0.071182,-0.04975,-0.5353
0.1024,-0.062362,0.10732,0.063514,0.0027928,-0.015945,-0.094789,0.64193
0.56744,0.14149,-0.077822,-0.042613,0.0028075,0.052672,0.093246,-0.76213
-0.83156,-0.36231,-0.13088,-0.061908,-0.075714,-0.090065,-0.11005,-0.076792
-0.028324,0.36597,0.06556,0.012803,0.009497,-0.029923,-0.10338,0.93065
-0.47283,0.070115,-0.10527,-0.076804,-0.038248,-0.063505,-0.30987,-1.0541
0.55708,-0.14746,0.13053,0.090803,0.078178,0.0986,0.68993,0.91284
-0.22345,-0.34923,-0.00010036,-0.015804,-0.015973,-0.0041927,-0.037086,-0.43504
0.65177,0.2454,0.16706,0.12676,0.085737,0.089317,0.37998,0.32412
-0.37348,0.43201,-0.07118,-0.075232,-0.085362,-0.042651,-0.55521,-1.0197
-0.10448,-0.34573,-0.12131,-0.059181,-0.021494,-0.095521,-0.33827,0.94897
-0.31451,0.019724,0.016411,0.010989,0.019394,0.039773,-0.10404,-0.76028
0.68474,0.065596,-0.00977,0.0026519,-0.0097671,-0.012221,0.74108,0.91627
-0.52733,-0.67075,-0.11396,-0.037113,0.015804,0.044863,-0.4105,-0.79461
0.30105,0.52003,0.0085499,-0.0065568,-0.021289,0.015242,0.022773,0.64501
0.26573,0.097347,0.20933,0.15694,0.074089,0.10172,0.33447,0.25612
-0.63076,0.090903,0.011621,-0.062214,-0.049754,-0.16455,-0.4861,-0.84736
0.2863,0.10856,-0.038159,-0.031288,-0.025702,-0.049024,0.37817,0.9875
-0.30034,0.078746,-0.034492,-0.031674,-0.010022,-0.035655,-0.41282,-1.0152
0.43266,-0.45231,-0.095454,-0.016668,0.044189,0.11047,0.11973,0.049879
0.089561,-0.14056,0.11402,0.076077,0.011977,0.077342,0.46851,0.37918
-0.27303,0.22633,-0.078586,-0.089489,-0.075369,-0.11911,-0.34418,-0.39937
-0.46679,-0.20084,0.037377,0.041264,0.03997,0.067946,0.16352,0.85132
0.42952,0.065233,0.055864,0.054262,0.029843,0.020969,-0.066366,-0.90309
0.4997,0.34782,-0.11618,-0.011387,0.019211,0.012794,-0.33408,0.013622
-0.18957,0.016536,0.053614,0.0084859,0.0315,0.034954,0.29513,0.51869
-0.43987,-0.091104,0.004163,-0.042182,-0.081659,-0.10054,0.24156,0.43404
-0.27979,0.017773,-0.036446,-0.045929,-0.062262,-0.11256,-0.54966,-0.13868
0.84046,0.06192,0.066028,0.021026,0.043134,0.092941,0.07891,-0.64592
-0.035977,-0.48244,0.015863,0.026231,0.023986,0.016698,0.16074,-0.081558
-0.10637,-0.0062745,-0.069022,-0.01439,-0.0021259,-0.004378,0.26101,0.068234
-0.12035,0.57616,0.030362,0.039949,0.027583,0.015092,-0.28187,0.16128
-0.94241,-0.32109,-0.053428,-0.02954,-0.011785,0.0055897,-0.13815,0.13371
0.7368,0.20818,0.085178,0.034719,0.01247,0.022206,0.083112,-0.17995
-0.10823,-0.43008,0.007699,0.013585,0.029737,0.057069,0.44317,0.16376
0.61411,0.40399,0.033326,-0.015268,-0.046326,-0.085628,-0.47474,-0.17364
-0.2636,-0.24421,-0.1359,-0.083489,-0.059871,-0.039485,0.15369,0.44524
-0.16865,0.091943,0.045974,0.058678,0.074742,0.093038,0.17575,-0.34267
0.12554,0.29259,0.0079957,0.020574,-0.0019932,-0.016995,-0.28752,0.005856
0.062025,-0.59824,-0.086156,-0.056999,-0.024392,-0.073288,0.20631,-0.043365
-0.32401,0.89349,0.036785,-0.025279,-0.054745,-0.060493,-0.17201,0.22687
0.025238,-0.7729,0.1502,0.13955,0.13379,0.2089,0.25811,0.082471
0.41766,0.38678,-0.12876,-0.14816,-0.15384,-0.23368,-0.5551,-0.81015
-0.59572,-0.37591,0.043627,0.033615,0.051227,0.057312,0.033427,0.63907
1.022,0.14539,0.1439,0.16134,0.13174,0.19138,0.44292,-0.34578
-0.89344,0.18178,-0.070018,-0.11684,-0.076625,-0.073722,-0.032631,0.26435
-0.35621,-0.65237,-0.21497,-0.051368,-0.066487,-0.0976,-0.17852,-0.095926
0.26948,0.57707,0.11594,0.076034,0.091383,0.14287,0.13998,0.014296
0.36229,-0.056731,-0.076421,-0.016264,-0.009638,-0.032259,0.34457,0.46364
0.12118,-0.24854,-0.048856,-0.070645,-0.08065,-0.15423,-0.47314,-0.41244
-0.13059,0.54645,0.17607,0.030109,0.026903,0.07415,0.019184,0.58735
0.046427,0.36301,0.028581,-0.010635,-0.038137,-0.080779,-0.13591,-0.73467
0.28608,-0.47634,0.04778,0.026266,0.045156,0.12414,0.42447,0.26801
-0.6143,-0.063108,-0.071472,0.047511,-0.0037714,-0.044389,-0.42832,-0.60074
0.69721,-0.45622,0.045009,0.069148,0.08914,0.12552,0.39698,0.30013
-0.81014,-0.18886,-0.04124,-0.080377,-0.035077,-0.068638,-0.061707,0.60478
-0.44825,0.21617,-0.22174,-0.15089,-0.12633,-0.15796,-0.52298,-0.88072
0.56429,0.53512,0.04189,0.03726,0.049478,0.075886,0.31906,0.33621
0.046765,-0.09514,0.10075,0.054153,0.054246,0.069448,-0.13532,-0.26156
0.47277,-0.186,0.040468,0.047741,-0.011344,-0.030238,0.10032,0.9393
0.0089624,-0.023121,0.0013772,0.017345,0.039201,0.11112,0.46545,-0.067167
0.17165,0.39548,0.2019,0.16533,0.0017964,-0.039355,0.1416,-0.10832
-0.50022,-0.2579,-0.2411,-0.19644,-0.061768,-0.10012,-0.50995,-0.53445
0.2753,0.1331,0.10968,0.0098315,0.0044805,0.014121,-0.07273,0.64245
-0.66263,-0.30021,-0.034645,-0.082815,0.036755,0.10826,0.11263,-0.61697
0.11494,-0.028152,-0.12652,-0.051705,-0.073477,-0.17601,-0.2937,-0.50367
0.62736,0.20604,-0.047481,0.041955,-0.043665,-0.1025,-0.17034,0.53792
-0.68004,-0.17606,0.063578,0.090331,0.1043,0.26851,0.43169,-0.48843
-0.015198,0.20873,0.099234,0.055807,0.0047445,-0.12331,-0.17312,0.43741
0.51654,-0.39674,-0.0090281,-0.029348,-0.036483,0.075303,0.31927,0.66971
-0.058436,0.039265,-0.025547,-0.039788,-0.0031729,-0.0097798,0.0065168,0.14474
-0.69341,0.18835,-0.035754,-0.046255,0.0029727,-0.058433,0.092559,-0.94876
0.78649,0.47112,0.1084,0.075116,0.051408,0.068772,-0.33811,-0.27137
-0.37891,-0.13814,-0.01619,0.01799,0.031337,-0.01294,0.11859,0.87086
0.9827,0.029673,0.096473,0.05396,0.066048,0.1863,0.59446,0.61409
-0.35062,-0.25453,-0.21977,-0.12336,-0.14298,-0.10908,-0.40854,-0.52366
-0.5555,-0.41409,-0.029431,0.023863,-0.026708,-0.14281,-0.39973,-0.86674
-0.041959,0.23874,-0.0060168,-0.10648,-0.085763,-0.1576,-0.40699,-0.24391
-0.0058879,0.206,0.17752,0.10302,0.086156,0.11266,-0.00079073,0.55966
0.26003,-0.079096,0.005092,0.02825,0.036564,0.036475,0.29808,0.32619
-0.64885,-0.29991,-0.15606,-0.056,-0.069485,-0.095365,0.2975,-0.36883
0.31279,0.10197,0.030455,-0.0076265,0.081546,0.19533,0.35052,0.45929
0.0058706,0.2616,0.034078,0.026234,0.068607,0.17528,0.4395,-0.031405
0.4721,-0.12559,0.082123,0.062055,0.01715,-0.069233,-0.64511,-0.33137
-0.23997,0.97725,0.026864,-0.024924,-0.088391,-0.10891,-0.38277,0.2005
0.017207,-0.88706,-0.17797,-0.039771,-0.02949,-0.053946,-0.14682,-0.085973
0.13772,-0.14533,0.046261,0.0557,-0.0017891,-0.069322,0.35165,-0.41408
0.24655,-0.28645,0.020288,0.025991,0.002282,0.00056466,0.23731,0.10706
-0.25282,0.66317,0.18203,0.026275,0.053017,0.053966,-0.082586,0.74042
-0.17729,-0.12516,-0.20246,-0.17076,-0.075885,-0.057246,0.0048833,-0.1362
-0.29716,-0.38371,-0.038963,-0.026258,-0.0011114,0.081659,-0.22005,-0.099598
0.1023,0.43882,0.016748,0.05388,0.043595,0.049611,0.17474,0.077798
-0.052015,-0.79225,0.027588,0.015824,-0.003662,0.058266,-0.11006,-0.42251
0.30864,0.64026,0.0094434,0.063832,0.013793,-0.079417,-0.44217,-0.34705
-0.24621,0.13224,0.1186,0.042814,0.057028,-0.019568,-0.063961,-0.29967
0.55635,0.10869,-0.051435,-0.054094,-0.069486,-0.05147,0.44485,0.78171
-0.28444,-0.50822,-0.04016,-0.023188,-0.022538,-0.0272,0.40794,0.69486
0.019339,0.091335,0.026859,0.018491,0.025211,0.052492,0.12181,-0.44143
0.16935,0.33971,0.008448,0.031601,0.010344,0.069496,-0.034771,-0.1253
-0.69518,0.32408,-0.13489,-0.078232,-0.0055625,-0.0084619,-0.037334,-0.15947
0.4717,-0.16538,0.034056,-0.015013,-0.0076992,-0.080869,-0.54219,0.067542
0.20899,-0.50903,0.015112,0.02491,0.03456,0.12475,-0.22834,-0.19189
-0.69332,-0.31146,-0.012216,-0.045494,-0.10573,-0.20489,-0.061605,-0.10712
0.5323,0.35688,0.10022,0.13209,0.071324,0.20321,0.6907,-0.20696
0.17755,-0.57965,0.039481,0.095819,-0.0044813,-0.14319,-0.2589,0.75263
-0.29366,1.0082,0.00029076,-0.16275,0.018753,0.08443,0.23456,0.045998
-0.081598,-0.10934,-0.033518,-0.03447,0.008722,-0.0036575,-0.24479,-0.20217
-0.26993,-0.10004,-0.046627,-0.019041,0.052021,0.015726,-0.15148,-0.35264
0.52546,-0.14118,-0.046707,0.0093529,-0.069299,-0.019847,0.17622,0.5066
-0.10161,0.12723,-0.056486,0.044164,-0.04963,-0.069508,-0.30515,0.076614
0.4258,0.18862,0.10498,0.063499,0.041715,-0.006503,0.4128,-0.43318
-0.66796,-0.30259,-0.0060181,-0.040423,-0.028648,-0.016878,0.077596,-0.32801
0.20799,-0.090401,-0.067476,-0.063078,0.029188,0.1034,-0.065884,-0.31829
-0.12115,0.17574,0.12512,0.043395,-0.034231,-0.036133,0.28813,0.78471
0.20146,0.089896,-0.10712,-0.033101,0.046827,0.12639,-0.070321,0.5059
-0.013462,-0.60406,0.095153,0.035297,-0.009313,-0.11354,-0.34968,-0.17694
-0.40741,0.39339,-0.065836,-0.017947,0.015152,0.0078464,-0.26332,-0.73971
0.035241,-0.21957,0.095773,0.071353,0.056365,0.051028,0.072758,0.83341
0.11996,0.30135,-0.062744,-0.0032263,-0.043473,-0.095162,-0.38365,-1.1295
0.95749,-0.012037,0.050214,0.022218,0.0032386,0.021173,0.54655,0.83233
-0.12209,0.54196,-0.02805,-0.088069,-0.062398,-0.045735,0.41848,0.22711
-0.85063,-0.71968,0.013983,0.032344,0.048202,0.087304,-0.22122,-0.92119
-0.36564,0.33913,-0.11272,-0.061827,-0.055351,-0.078611,-0.078035,0.43507
-0.0074003,0.11991,-0.024288,-0.033848,-0.02839,-0.065356,-0.41515,-0.14879
0.26649,-0.30295,-0.054791,-0.038601,0.028935,0.16002,0.35257,0.19464
0.8179,-0.19693,0.040208,0.058337,0.040116,-0.0025369,0.4793,0.65238
-0.13351,-0.26464,0.19252,0.14124,0.037898,0.049549,-0.0091503,-0.27675
-0.50284,0.41067,0.036438,-0.015501,-0.015712,-0.097403,-0.40007,-0.28983
0.14444,0.23938,-0.044663,0.03372,-0.034338,-0.045262,-0.44884,-0.46713
-0.14133,-0.33656,-0.082533,-0.070895,0.044253,0.056616,-0.0030425,-0.2484
0.36148,0.01459,-0.039501,-0.08812,-0.069919,-0.082219,-0.0099456,0.2936
0.031156,0.35718,0.066845,0.043311,0.07488,0.15376,0.39728,0.82816
-0.75284,-0.17639,-0.039047,0.0096907,0.00047372,-0.057473,-0.038606,-0.43653
0.42194,0.20043,0.062852,0.021024,0.0021884,-0.014364,0.355,0.73914
0.31349,0.12423,-0.011514,-0.024745,-0.093072,-0.077503,-0.069965,-0.45908
-0.76401,-0.2533,-0.082888,0.0051938,0.026493,0.14302,-0.0011289,-0.093672
0.44978,-0.67052,-0.064925,-0.060604,0.0014208,-0.087302,-0.19661,-0.63096
0.090272,0.42466,0.066931,0.044208,-0.0037329,-0.033599,-0.1486,-0.51117
-0.16092,0.015936,0.0095528,0.0079598,0.027599,0.062971,-0.16096,0.70258
0.45488,-0.06737,0.053671,0.034528,-0.004954,-0.014894,0.010332,0.065197
0.28118,0.68532,0.107,0.038513,0.040459,-0.0077006,0.063326,0.68545
-0.68295,-0.2769,-0.055993,-0.0032651,-0.022595,0.023754,0.28242,-0.1193
-0.298,-0.35608,-0.052008,-0.028307,0.017596,-0.020576,0.13933,-0.12104
0.12295,0.0065513,-0.16235,-0.13055,-0.088553,-0.037983,-0.145,-0.86103
0.064493,-0.14651,0.10468,0.072529,0.057454,0.026871,0.016415,0.53807
0.66841,0.29651,0.052924,0.025948,0.010059,0.010007,-0.31415,0.48259
-0.63381,0.016236,0.017304,-0.0049345,0.026623,0.098478,0.27598,-0.42679
-0.1839,0.090184,0.028019,0.057799,-0.002768,-0.044535,-0.34833,-0.21399
0.34804,-0.069712,-0.04085,-0.035987,-0.047374,-0.092043,0.35687,-0.11221
0.20535,0.064533,0.0053845,0.026151,0.025233,0.071949,0.083706,0.6871
-0.19759,0.20785,-0.0053569,-0.076069,-0.035151,-0.022367,-0.17863,-0.58239
0.18561,-0.69816,-0.11187,-0.030038,-0.064503,-0.11798,0.036162,0.72271
-0.13051,0.24194,0.061538,0.078468,0.09349,0.10492,0.14064,-0.44646
-0.35041,-0.20813,-0.046661,-0.031634,-0.0064179,-0.0023192,-0.1858,-0.3943
-0.006621,0.50565,0.088011,0.030401,0.018566,-0.010044,-0.23905,-0.29135
0.72802,0.0088056,0.091435,0.045857,0.0511,0.1209,0.22516,0.44904
-0.80336,0.084094,-0.098347,-0.071265,-0.049715,-0.085872,-0.1731,-0.018398
0.3052,-0.22714,0.081283,0.053904,0.012682,0.033916,0.29584,0.55125
0.069232,-0.40646,-0.20591,-0.086609,-0.05883,-0.089725,-0.0057837,-0.10134
0.18406,0.2992,0.15665,0.03831,0.016925,0.0124,0.18208,0.29961
-0.39706,-0.02905,-0.019343,-0.016729,-0.05678,-0.041958,-0.28758,-0.41033
0.77923,0.33006,0.023127,0.045141,0.07198,0.10722,0.21093,-0.25587
-0.70849,-0.090507,-0.044762,0.0052266,-0.018167,-0.07068,-0.42392,0.067524
-0.21109,-0.17293,-0.075047,-0.04263,0.024869,0.06549,0.14343,-0.5156
0.10037,-0.22242,0.088314,0.026677,0.037469,0.031673,-0.025337,0.4387
-0.11723,0.18911,-0.038992,-0.044575,-0.058219,-0.086138,0.099806,0.26106
0.7534,0.17634,0.13707,0.071792,0.019118,0.016525,-0.037585,0.09773
-0.25725,0.22841,-0.17991,-0.10859,-0.058781,-0.12956,-0.033569,-0.70009
0.059986,-0.25163,0.13562,0.13297,0.12186,0.27184,0.44506,0.51591
-0.25839,-0.18077,-0.048523,-0.02389,-0.095573,-0.14724,-0.22951,-0.38073
-0.21533,-0.25656,-0.044237,-0.048005,0.0073072,0.026541,-0.059616,0.65278
0.43639,0.12114,0.0084149,0.0059182,0.023957,-0.012107,-0.023096,-0.28934
-0.29741,0.31901,0.0083064,-0.010507,0.0010812,0.017728,-0.23686,0.47749
0.19967,0.18885,-0.0052427,-0.011204,0.0011517,-0.024571,0.066772,-0.81801
-0.1107,-0.29189,0.014668,0.019656,-0.053852,-0.060502,0.055475,0.066912
-0.030867,0.20634,0.10688,0.035427,0.047207,0.066892,0.085442,0.28885
0.28671,-0.064502,-0.09626,-0.04182,-0.015746,-0.024283,-0.041667,0.24781
0.026665,-0.11767,-0.0016151,0.022402,0.015314,0.034133,-0.13436,0.088379
-0.82892,-0.48958,-0.055215,0.0015219,0.031151,0.024245,0.28631,-0.8308
0.24103,0.16606,0.015659,-0.034291,-0.046324,-0.092428,-0.084169,0.28187
0.69423,0.31214,0.038467,0.047511,0.040638,0.090566,0.017695,-0.25583
-0.20845,0.40256,-0.010798,-0.034678,-0.044039,-0.036361,0.033038,0.0084114
-0.18477,-0.2743,0.062731,0.0078028,0.011975,0.002754,-0.0046059,0.88656
0.34215,-0.19722,-0.014675,0.026128,-0.0024206,0.003895,-0.07773,-0.24021
-0.38103,0.22421,-0.086869,-0.058147,-0.040475,-0.02616,-0.058834,-0.047599
-0.40619,-0.46701,0.025964,0.043845,0.069626,0.060021,0.048301,-0.60462
0.57312,0.35844,0.03514,0.01957,0.031014,0.066319,0.10141,0.49361
0.26917,0.37785,0.035046,0.0098024,-0.039045,-0.16398,-0.10191,0.55609
-0.027365,-0.35477,-0.028151,-0.078884,-0.046656,-0.013764,-0.2229,-1.047
-0.78272,-0.25993,-0.067519,0.011783,0.00055798,0.017308,-0.022866,0.32771
0.13196,0.048417,0.0038966,-0.0067361,0.0012371,0.023596,0.15927,0.019063
0.57379,-0.28458,0.022917,0.053547,0.049296,0.08396,0.21072,-0.2345
-0.23118,0.34751,-0.017673,-0.010133,0.0041834,-0.011861,0.0017427,0.27548
-0.24266,-0.098076,0.046364,-0.010125,-0.024777,-0.044642,-0.060154,0.13383
0.56548,0.48259,0.042846,0.022235,-0.0065269,-0.01418,0.13385,0.41892
-0.39646,0.26928,0.02571,0.016332,0.02738,0.079463,-0.082253,-0.66461
0.1344,-0.59172,-0.068603,-0.043896,-0.032798,-0.10773,-0.34388,0.11241
0.023247,0.19268,0.032189,0.0051335,0.0078904,0.064527,0.28406,-0.23878
-0.30975,-0.60851,-0.086998,0.014576,0.039791,0.009954,0.14387,0.19976
0.06313,0.46159,0.010633,-0.047077,-0.030989,-0.029474,-0.27239,-0.34174
0.013968,-0.029518,0.012302,0.038859,-0.0091049,-0.03038,-0.15873,0.46768
0.030337,-0.036074,-0.011561,-0.024378,-0.02717,0.015135,0.088737,0.1763
0.25375,0.044085,0.0019593,0.013454,0.0088937,-0.05682,-0.027366,-0.083285
-0.17693,0.0020087,0.03778,0.019836,0.021342,0.08204,0.10444,0.16369
0.085578,-0.25328,0.018284,-0.012784,-0.012918,-0.013532,0.20373,-0.48404
0.089675,0.15606,0.014147,0.0017011,0.031343,0.070439,-0.011653,0.08758
0.031234,0.28696,0.080237,0.016456,0.021387,0.021241,0.15104,-0.31949
-0.40143,0.0077826,-0.15059,-0.031099,-0.042857,-0.12232,-0.17126,0.58208
0.49715,-0.41594,-0.0455,0.022932,0.033759,0.045821,0.040985,0.15898
-0.16663,0.19431,0.083062,0.014299,0.0010646,-0.01336,-0.05909,-0.29903
-0.087969,0.3679,0.0087294,-0.010276,-0.031651,-0.01831,-0.57456,-0.60295
-0.57635,-0.36587,-0.041617,-0.058661,-0.048709,-0.046588,0.19821,0.249
0.076551,0.046258,0.065232,0.064519,0.0047737,0.035351,0.39439,0.22691
0.27528,-0.11498,-0.084407,-0.062435,0.011899,-0.013949,-0.16981,0.31553
0.58787,-0.1224,0.033165,0.037286,0.058892,0.14201,0.14254,-0.04071
-0.18508,-0.13853,0.0039324,0.0045656,-0.0025017,-0.059047,0.092968,0.015607
-0.24553,0.36986,0.038616,0.019298,0.015227,-0.015691,-0.11278,0.18522
0.81146,0.40457,0.042989,0.034719,0.0025146,-0.001875,-0.11419,-0.26035
-0.7829,-0.61148,-0.085179,-0.07417,-0.056614,-0.049636,0.010209,-0.32951
-0.25901,0.11069,0.0049344,0.0050292,-0.021977,-0.058347,0.0087123,-0.50541
-0.18281,0.17142,0.00015646,-0.0012952,0.043479,0.13511,0.034974,0.36328
0.45135,-0.0095575,0.0093922,0.031647,-0.016883,-0.040415,0.21105,0.36641
0.010144,0.15904,0.032464,-0.0057322,0.0076008,-0.015234,-0.16892,-0.039094
-0.044481,-0.47343,-0.11017,-0.027687,-0.016028,0.022829,-0.15382,0.18847
0.19582,0.25579,0.10538,0.035948,0.052848,0.050378,0.12258,0.14359
-0.21171,0.03421,-0.0077356,-0.033669,-0.035646,-0.11183,-0.26134,-0.12032
0.1338,-0.26176,-0.042515,0.029064,0.04687,0.099561,0.41451,-0.082658
-0.3127,0.018926,-0.0060715,-0.0023702,-0.035163,-0.072085,-0.19937,-0.2548
0.40286,0.16081,0.02399,-0.01067,-0.039076,-0.023824,0.13372,-0.02286
-0.30548,0.057754,0.024482,-0.0034816,0.0044165,-0.012105,-0.18574,0.16553
0.46764,-0.045506,-0.028102,-0.011856,0.0099021,0.050114,0.085693,-0.28431
-0.31829,0.17261,0.084629,0.034713,0.024668,0.014989,-0.04408,0.24512
-0.18056,-0.15535,-0.10665,-0.043308,-0.044834,-0.055078,-0.076341,-0.31534
0.19958,-0.046765,0.030205,0.019774,0.051313,0.13592,0.1816,0.33257
-0.17124,0.12824,0.018016,0.012974,0.00021358,-0.10887,-0.12549,0.41648
-0.020327,-0.19644,0.0047652,-0.0013778,0.027767,0.091336,0.31079,-0.25839
0.30823,0.037943,-0.11133,-0.023562,-0.023101,5.6456e-05,0.041351,0.22994
-0.18563,0.10157,0.076029,0.032018,-0.0204,-0.072041,-0.014458,-0.2591
-0.0096938,0.078005,0.012397,0.016591,-0.019471,-0.079253,-0.53687,-0.55314
0.41425,-0.237,0.034105,-0.0075825,0.034047,0.064105,-0.047472,0.20839
-0.42151,0.25057,0.016596,-0.017141,-0.016016,0.022834,0.051626,-0.066445
-0.079362,-0.41863,-0.094404,-0.05101,-0.012914,-0.060813,0.19587,0.1009
0.073638,0.3519,0.021751,0.016154,-0.010506,0.088829,0.21187,0.46191
-0.01712,0.03443,0.013729,-0.01828,-0.023415,-0.11957,-0.058857,0.1575
-0.2502,-0.054666,0.053521,0.049358,0.043094,0.050558,-0.096914,-0.83696
0.37392,-0.1382,-0.0072906,0.039862,0.017915,0.046049,-0.12764,0.51491
0.07313,0.044854,-0.067202,-0.023006,0.018638,0.023767,0.30058,0.037571
0.33849,0.082709,0.0064853,0.0093029,0.0061731,0.022361,-0.066201,0.11783
-0.19037,-0.023531,0.041739,-0.019559,0.011337,0.01705,0.06337,-0.12237
-0.49821,-0.078782,-0.094463,-0.047363,-0.068162,-0.095715,-0.1214,-0.44237
0.017205,0.36852,0.097599,0.034887,0.00899,0.041202,0.030474,0.0021671
-0.17347,-0.38751,0.00037394,-0.015433,-0.023682,-0.035197,-0.093846,0.29199
0.44841,-0.17093,-0.011587,-0.011263,-0.0028154,-0.045173,-0.33129,0.0095109
0.08173,0.092051,-0.048152,0.015738,0.032062,0.041809,0.46042,0.1129
-0.16067,0.40463,0.14022,0.088662,0.057312,0.046226,-0.30859,-0.43205
0.0050452,-0.25318,-0.14993,-0.058353,-0.02857,-0.023139,0.33571,0.26894
-0.029286,0.1775,0.065664,0.019919,-0.0065507,-0.031915,-0.085508,0.3661
0.095222,0.14749,0.02939,-0.059224,-0.048047,0.021735,-0.20819,0.023106
0.087374,-0.55468,-0.14106,-0.045471,-0.011872,-0.086982,0.15016,-0.48129
-0.11098,0.23661,0.055097,0.046037,0.032238,0.0808,-0.1117,-0.018376
-0.11348,-0.13912,0.032825,0.028369,0.0066489,0.049234,0.21486,-0.0072447
-0.057319,0.026447,0.019582,0.0036291,0.021061,0.037008,0.1643,-0.093665
0.21768,-0.026326,-0.022983,-0.019976,-0.010365,-0.050426,-0.097526,0.66317
0.013404,0.075563,0.06178,0.051467,0.045054,0.035589,0.15757,0.056932
-0.18705,0.19615,-0.046404,-0.039955,-0.05518,-0.089352,-0.47394,-0.60128
0.22609,-0.0055744,0.027157,0.017912,0.024466,0.03419,0.012895,0.22045
-0.23724,0.0412,-0.085299,-0.064505,-0.075787,-0.055844,0.047754,-0.69401
0.15306,-0.055845,0.092068,0.08721,0.065622,0.046249,-0.12439,0.22967
-0.098511,-0.050095,-0.06649,-0.05092,-0.03586,-0.050085,0.056034,0.62894
-0.096577,-0.25842,-0.0069637,0.0050652,0.018173,0.030772,0.048015,-0.31237
-0.07906,0.002114,0.027921,-0.01068,0.016874,0.0398,0.16169,0.22112
0.49613,0.43051,0.053415,0.026836,0.0072873,-0.0062507,0.010331,0.47265
-0.34635,-0.30454,-0.079129,-0.022828,0.0052398,0.057735,0.37675,-0.73039
0.095799,-0.017474,-0.0025808,-0.02653,-0.051569,-0.11118,-0.46646,-0.15566
0.046402,0.064481,0.048752,0.055191,0.032345,0.057801,0.20443,0.15504
-0.11589,0.043483,0.035988,-0.01946,-0.016326,-0.021141,-0.12231,0.12877
0.59635,0.31967,-0.048401,0.023282,0.029064,-0.0044555,-0.16155,0.14633
-0.70414,-0.44814,-0.039967,-0.019483,-0.011134,-0.0019665,-0.025681,-0.33243
0.088753,0.094821,0.085207,0.024238,0.011514,0.079488,0.033806,0.26267
-0.18271,-0.1652,-0.078572,-0.033028,-0.012399,-0.065395,0.024933,-0.50518
-0.010264,0.048502,-0.015091,-0.050684,-0.067304,-0.030906,-0.034982,0.36516
