0.019542,0.047076,0.010747,0.017132,0.0078229,0.011808,0.0061549,-0.011482
0.0091236,-0.13363,-0.019078,-0.0068087,-0.0077534,-0.0023313,-0.024102,-0.032612
-0.072843,-0.44909,0.014598,0.0092152,0.016076,-0.00016233,0.0003897,0.039989
0.07741,0.6245,0.017703,0.002752,0.0011926,0.010132,0.0091707,0.042002
0.068643,0.11141,-0.064838,-0.0028429,-0.0055708,0.012483,0.0099445,0.012204
-0.060221,-0.1591,0.040007,-0.0077802,-0.0043132,-0.0013608,-0.0051636,-0.018412
-0.12126,-0.34983,0.081858,-0.0045684,-0.02644,-0.039554,-0.028359,-0.081265
-0.0041189,0.071558,-0.11149,-0.0014169,0.03722,-0.00071227,0.010684,0.01112
0.011285,-0.03484,-0.040281,-0.0065635,-0.0088713,0.005812,0.010429,0.024507
0.051416,0.51076,0.092209,0.057721,0.030379,0.011485,0.0099578,0.021678
0.07066,-0.096962,-0.010924,-0.035427,-0.017066,0.0010445,0.0092808,0.0030063
0.030734,-0.14835,0.10356,0.034158,-0.002827,-0.0016402,0.00059318,0.00013382
-0.068237,-0.090478,-0.087487,-0.053779,-0.028385,-0.0039631,-0.0082637,-0.017847
-0.023682,-0.23774,-0.060174,-0.02553,0.00024649,0.01003,-0.0094023,0.0039921
0.03829,0.26748,-0.024814,0.0099826,0.0053064,0.0092775,-0.018312,0.01108
-0.0087517,-0.044873,0.0036731,-0.0013709,-0.004959,-0.006193,-0.0035537,-0.020035
0.013412,0.17599,0.088454,0.058147,0.032369,0.0025604,0.011639,0.027712
-0.021445,-0.15593,-0.035625,-0.021971,-0.023017,-0.027193,-0.0038202,-0.0099405
-0.051601,0.10061,-0.016861,0.0084996,0.016531,0.021446,0.012632,-0.008226
-0.038208,0.072019,-0.0039651,-0.022331,0.010333,0.0075595,0.021851,-0.0064361
0.11282,-0.075578,0.17427,0.072802,0.0050162,-0.014414,0.0079816,0.018671
-0.11338,-0.23021,-0.1003,-0.073672,-0.031061,-0.013405,-0.013699,-0.018991
0.19829,-0.060957,0.046262,-0.016875,-0.00461,0.010491,-0.012331,-0.0023398
-0.13077,-0.088759,-0.27764,0.0084198,-0.0020233,-0.0052468,-0.019505,-0.025202
0.001997,0.31308,0.083527,0.0019249,0.015388,0.017545,0.011442,0.045168
0.027036,0.2778,0.074705,0.018182,0.0083173,0.0086362,0.0023561,0.021203
0.015155,0.023162,0.031796,0.010307,-0.0077001,-0.00061423,0.00028271,0.0044028
-0.0099935,-0.1875,0.22068,0.0018438,0.0064658,-0.0022605,-0.0022564,-0.020885
-0.071887,-0.20883,-0.26443,-0.022659,-0.019293,-0.019585,-0.004827,-0.031179
0.032357,-0.075248,0.030263,0.0073149,-0.0065457,-0.021167,0.00083261,-0.010708
-0.010165,0.085616,-0.12883,-0.048664,0.0060019,0.0087974,0.015099,0.0095377
0.081286,0.037832,0.14202,0.059565,0.018707,0.015777,-0.00085401,0.022097
-0.021983,0.1327,0.054735,0.027428,0.016255,0.031133,-9.6792e-05,0.0039218
-0.023665,-0.12876,-0.061609,-0.027811,-0.024555,-0.0075908,0.0094334,-0.013372
0.01324,0.23203,0.12199,0.050163,0.021422,0.0011391,0.0040291,0.032992
-0.075707,-0.29796,-0.19844,-0.097941,-0.033249,-0.036524,-0.016663,-0.028719
0.029587,-0.14573,-0.038049,-0.018875,-0.0010725,-0.011354,-0.013949,-0.011026
0.071255,0.26905,0.19705,0.060946,0.024137,0.0061528,-0.0037737,0.015578
-0.067808,-0.0054878,-0.032457,-0.022405,-0.028051,0.015787,-0.0098101,-0.019546
0.050082,0.077473,-0.086692,0.051431,0.014061,0.025133,0.038119,0.031609
-0.051405,-0.085073,0.033072,-0.053593,-0.0060177,-0.0050966,-0.0084682,-0.018945
0.057661,0.058904,-0.12808,0.021583,0.028595,0.010838,0.0067078,0.015808
-0.052187,0.076298,-0.025463,-0.020439,-0.0074551,-0.013125,0.0056062,0.0026465
0.06454,-0.16144,0.32291,0.038409,-0.012974,-0.030123,-0.019459,-0.011828
-0.084224,-0.12602,0.039836,0.0020737,-0.0039202,-0.0087795,-0.013637,-0.027705
0.017202,0.20417,0.076844,0.018335,0.0038418,0.012107,0.01545,0.033258
0.025053,0.024234,-0.2931,-0.0069733,0.018036,0.0094633,0.0055115,0.030748
-0.0060738,-0.12531,-0.12367,-0.027022,0.0075145,0.01494,-0.0041745,-0.089468
0.048667,0.094442,0.025205,-0.025788,-0.019605,0.0054647,0.010028,0.040319
-0.045299,-0.24222,-0.084841,-0.072773,-0.047215,-0.018695,-0.014221,-0.024722
0.0086976,-0.20911,-0.019745,0.04406,0.011216,-0.010541,-0.006503,0.036073
-0.039512,0.51792,0.13853,0.029009,0.015668,0.022077,0.0097725,0.035348
0.013101,0.066584,0.1426,0.054949,0.036959,0.00085292,0.0032998,0.019892
0.04154,0.12553,-0.13197,0.013132,-0.0027364,-0.0041939,-0.010439,-0.073084
-0.032214,-0.21202,0.51624,-0.010377,-0.0096339,-0.016849,0.015214,0.006005
0.002979,-0.25262,0.052412,-0.03938,-0.01522,0.025043,0.001867,-0.016711
0.045835,0.11034,-0.63744,0.011317,0.026925,-0.011614,0.011748,0.10842
-0.051755,-0.055837,-0.073461,0.00016032,-0.00095898,-0.0019967,-0.025693,-0.13442
0.030864,0.15231,0.069108,0.019999,0.0021149,-0.00084666,0.0065767,0.043828
-0.073182,-0.095548,-0.078484,-0.054857,-0.050252,-0.031532,-0.032114,-0.020716
0.019162,-0.0040006,0.24202,-0.01383,-0.0020779,0.03111,0.022366,-0.0074424
0.011141,-0.065925,-0.045348,-0.020998,0.0059689,0.0076072,0.013934,0.052744
0.058975,0.28899,-0.10145,0.025468,0.028737,0.015362,0.013133,0.03516
0.099996,0.006661,0.24127,0.094745,0.03528,-0.00013817,-0.0032244,0.010362
-0.16294,-0.3025,0.087478,-0.047102,-0.059971,-0.05441,-0.034912,-0.091799
-0.0035467,0.066039,-0.068465,0.0065282,0.032401,0.047882,0.019796,0.049087
-0.023631,0.027927,-0.29582,-0.025414,-0.023263,-0.029259,-0.018719,-0.059113
0.057925,-0.048043,-0.079016,-0.010053,0.015398,0.010905,0.021371,0.03675
0.0067075,0.26921,0.36217,0.083838,0.015625,-0.011517,-0.01635,-0.061788
-0.013208,-0.46466,-0.028592,-0.056278,-0.014817,0.036047,0.031906,0.090467
-0.0096366,0.34443,0.074833,-0.031947,-0.013553,-0.010713,-0.0060753,-0.0067336
0.0095202,-0.022648,-0.22015,-0.022769,0.011437,0.012057,0.017794,0.021218
0.028419,0.065848,-0.048033,0.0026331,-0.0025229,-0.028577,-0.029579,-0.029313
-0.054858,-0.2042,-0.097578,-0.025967,-0.024355,-0.031043,-0.038965,-0.018261
0.079549,0.18092,0.20855,0.12574,0.04735,0.05951,0.044363,0.030431
-0.061019,-0.1088,0.041793,-0.058155,-0.060987,-0.045665,-0.021548,-0.047649
0.007431,-0.028064,0.058167,0.015528,0.048943,0.044491,0.013704,0.013013
0.081589,0.047102,-0.37529,0.041351,0.025461,0.017973,0.033439,0.04071
-0.12751,-0.2352,0.33505,-0.059626,-0.037771,-0.062234,-0.039943,-0.050063
0.044638,0.19572,0.19704,0.032239,0.0076463,-0.023869,-0.018485,0.014776
-0.057506,0.13782,-0.21864,-0.050566,-0.033557,0.00046047,-0.0034483,-0.0062087
0.027936,0.23346,0.096755,0.012443,0.041885,0.057583,0.044312,0.036164
0.059778,-0.36659,-0.28479,-0.020193,-0.0079676,0.022171,-0.0081735,-0.052806
0.038932,0.22333,-0.079615,0.040253,0.020344,0.057704,0.049648,0.055391
-0.041727,-0.38427,-0.097367,-0.10155,-0.075931,-0.086574,-0.040576,-0.014155
-0.033398,-0.076918,0.36793,0.095067,0.031688,-0.036454,-0.029449,-0.027289
-0.068891,-0.13347,0.11536,-0.024779,-0.015915,-0.0035606,-0.011269,-0.015752
0.14831,0.56432,-0.025896,0.086648,0.086045,0.035086,0.02918,0.090085
-0.12464,-0.27361,-0.25939,-0.10174,-0.045351,0.0090137,-0.0098733,-0.030847
0.11133,0.43537,0.42073,0.096961,0.02709,-0.0035084,-0.011245,0.027001
-0.097935,-0.15017,-0.55122,-0.11542,-0.072097,-0.048949,-0.0060105,-0.13533
0.066807,-0.084041,0.25832,0.071797,0.031554,0.013908,0.021751,0.01315
0.057752,0.17347,0.11866,0.070644,0.02504,0.021688,0.017715,0.1053
-0.11797,-0.48523,-0.32547,-0.17553,-0.021689,0.10792,0.036952,-0.030457
0.015886,0.17845,0.24345,0.12075,0.047473,-0.023572,-0.029527,0.012644
-0.001563,0.015768,-0.058942,0.021045,-0.032978,-0.083073,-0.032903,0.016463
0.0098075,-0.14192,0.18132,-0.10764,-0.059536,-0.030926,0.0037682,-0.073068
-0.027412,0.024254,-0.25312,-0.022524,-0.00037364,-0.038511,-0.03635,0.010209
0.067332,0.14003,0.023225,0.051088,0.020168,-0.0039613,-0.0045434,0.040102
-0.04102,0.12882,0.014054,0.028941,0.010494,-0.013216,0.0055604,-0.053551
0.031113,-0.321,-0.034223,-0.02464,0.07256,0.238,0.095421,0.072905
0.026506,0.12541,0.093539,0.048269,-0.0044742,-0.040225,-0.0087715,-0.0027272
0.039291,0.46401,0.32284,0.084895,-0.017698,-0.091322,-0.026384,0.0081263
-0.14127,-0.6954,-0.55472,-0.2187,-0.076961,-0.0026524,-0.020695,-0.09821
-0.0073465,0.44121,-0.053671,0.08298,0.03587,-0.017769,0.0075036,0.091834
0.042527,0.32151,0.27076,0.052071,-0.015777,-0.083028,-0.012749,-0.0080004
0.03152,-0.65526,-0.075708,-0.0074982,0.048832,0.10573,0.011934,-0.022785
-0.0408,0.25344,0.4192,-0.034219,-0.012799,0.017362,-0.0043855,0.00080326
0.051511,-0.22475,-0.17036,0.025575,-0.0054006,-0.01153,-0.014456,-0.046189
0.0733,0.17839,0.17527,0.06946,-0.0068624,-0.081363,-0.025418,0.0086489
-0.14035,-0.21223,-0.46854,-0.12968,-0.016714,0.043626,0.026059,0.017377
0.10505,-0.046329,-0.15753,0.013923,-0.010893,-0.041426,-0.023279,-0.0040834
-0.16767,0.19999,-0.10962,-0.062049,0.019071,0.086494,0.061552,0.02237
0.18181,0.53621,0.38863,0.088136,0.01905,0.029643,0.015205,0.072915
0.05988,-0.63673,0.020252,-0.011605,-0.034058,-0.071208,-0.03743,-0.0093748
-0.32193,0.59036,-0.0083586,0.045322,0.055087,0.096049,0.05162,-0.014372
0.24046,-0.17773,0.094031,0.055865,0.0049241,-0.094408,-0.069914,-0.013109
-0.079853,-0.80498,-0.18779,-0.081793,-0.060156,-0.049896,-0.020012,-0.11538
0.038661,-0.11656,0.19927,-0.024432,0.023102,0.064425,0.044371,0.022563
-0.153,0.68663,-0.334,-0.030531,0.011641,0.036684,0.0055668,-0.012883
0.26758,0.0039701,0.71594,0.12585,-0.017185,-0.071242,-0.027217,0.060301
-0.16057,0.53787,-0.069184,-0.0010016,0.06109,0.060734,0.0086837,0.016444
0.054089,-0.36256,-0.8174,-0.11423,-0.06622,-0.035954,-0.0034623,0.051639
0.090147,-0.37301,0.15782,-0.03372,-0.031718,-0.0092132,-0.016133,-0.021129
-0.069343,0.28328,0.29551,0.085098,0.02455,-0.045778,-0.0051814,-0.061136
-0.050588,-0.37449,-0.41605,-0.084794,-0.0059282,0.066136,0.037838,0.025091
0.044069,0.22082,0.35676,0.090588,0.041899,0.046045,0.035245,0.041694
-0.082388,0.14575,0.0028023,0.010677,0.0049199,-0.043003,-0.020589,-0.019798
-0.023143,-0.19317,0.042923,-0.01142,-0.045809,-0.04451,-0.043809,-0.058411
0.0042012,-0.24706,-0.042979,-0.038121,0.022945,0.072701,0.012152,0.019227
0.055784,0.8468,0.097331,0.10197,0.03934,-0.027653,0.014038,0.017731
0.015806,-0.80588,-0.1087,-0.10774,-0.075096,-0.0414,-0.023011,-0.007968
0.018042,0.11178,-0.11903,0.018935,0.06961,0.11684,0.06465,0.0051251
0.00026414,0.38504,0.3253,0.035267,-0.0039446,-0.061202,-0.035757,-0.020487
0.055699,0.040614,-0.14245,-0.021009,-0.031016,-0.067985,-0.043075,-0.013885
-0.043455,-0.41924,0.23653,-0.018102,-0.020189,0.018351,0.0037336,0.056623
-0.056718,0.030118,-0.38657,0.012165,0.012362,-0.028546,-0.0044635,-0.011922
0.068761,0.052931,-0.084463,0.0072323,-0.035175,-0.036448,-0.0048507,0.0068833
-0.067049,0.42984,-0.051861,-0.032452,0.087265,0.19815,0.09662,0.034468
-0.019878,-0.59031,-0.066544,-0.035713,-0.057464,-0.043203,-0.020153,-0.054807
0.06155,0.45983,0.31462,0.076715,0.046834,0.0052515,0.0042883,0.035248
0.052745,-0.2023,0.11405,0.040457,-0.028822,-0.11745,-0.080091,-0.055324
-0.18572,0.016016,0.13546,-0.018285,-0.025875,0.0026132,2.2632e-05,-0.006574
-0.035002,-0.38584,-0.25583,-0.090666,-0.029577,-0.0019764,-0.0055429,-0.037338
0.23324,0.58406,-0.039763,0.066276,0.0778,0.063858,0.059276,0.10256
-0.059084,-0.33217,-0.12008,0.023328,0.023143,0.051455,0.030237,-0.00055015
-0.028041,0.091894,0.1913,-0.03966,-0.052852,-0.070626,-0.053757,-0.057139
0.045651,-0.12866,-0.29434,-0.075954,-0.017563,0.041219,0.025918,0.058282
0.068185,0.23169,0.38123,0.093711,0.027035,-0.097483,-0.043315,-0.044508
-0.10157,0.069787,0.065808,-0.015701,-0.013392,0.028833,-0.0036701,0.0019485
-0.034652,0.086793,-0.13545,0.016858,0.0089173,0.037312,0.035497,0.0024468
0.018186,-0.35992,-0.054793,0.042043,0.022967,0.013835,-0.011703,0.011619
-0.084284,0.29046,0.15585,0.043367,-0.026544,-0.088566,-0.035849,-0.033237
-0.022168,-0.49435,-0.63879,-0.183,-0.007268,0.13624,0.072467,0.04726
0.11832,-0.16782,0.13027,-0.028132,-0.0054065,0.016262,0.008573,0.010561
0.17287,0.91102,0.68926,0.17186,0.064944,-0.065718,-0.0087697,0.012567
-0.22604,-0.3509,-0.18795,-0.082943,-0.061647,-0.04708,-0.065458,-0.079815
0.022717,-0.085612,-0.10215,-0.0032418,-0.0019856,0.01,0.018287,0.0066829
0.059197,-0.034722,-0.029015,0.020625,-0.021192,-0.050209,-0.023009,0.006389
8.1725e-06,0.15363,-0.15529,0.05921,0.01408,0.0072965,-0.0016633,-0.010332
-0.061577,-0.3018,-0.13666,-0.059217,0.026175,0.089377,0.05906,0.034753
0.069501,0.39572,0.31628,0.016954,0.031043,0.024596,0.026462,0.071456
-0.067626,-0.22271,0.0083505,-0.0091361,-0.033675,-0.038449,-0.036933,-0.03292
0.043085,0.13983,0.26774,0.065698,0.035117,-0.0061701,-0.0061885,-0.02826
-0.11326,-0.34441,-0.41315,-0.11773,-0.036165,0.035059,-0.006427,-0.055042
0.065818,0.20036,0.2475,0.019087,-0.0055151,-0.024733,-0.0065323,-0.019317
0.0031776,-0.013774,-0.52256,-0.038947,-0.021502,-0.022099,0.0090189,0.071369
0.13718,0.21772,0.58313,0.16194,0.04866,-0.059094,-0.030129,0.029825
-0.054956,-0.15839,-0.48005,-0.12761,-0.060561,0.043685,0.040105,-0.01864
-0.018176,0.10143,0.17297,0.030354,0.026014,0.012765,-0.014589,-0.011264
-0.10393,-0.45496,0.059652,-0.028033,0.011713,0.043634,0.016807,-0.041633
0.039229,0.32135,0.0089302,0.025155,-0.0017584,-0.02744,-0.0062636,-0.00034388
0.0047637,-0.10889,0.028116,0.0018161,0.0090531,0.018686,0.0021702,0.049971
-0.012454,0.28468,0.14656,0.041616,0.012743,-0.044174,-0.020405,-0.0081792
0.057312,-0.038463,0.0096976,0.0027524,-0.0066352,-0.012613,0.0040729,-0.003375
0.041491,0.08394,-0.073504,0.04809,-0.0026536,-0.019315,-0.0026248,0.05601
-0.076316,-0.099789,0.026455,-0.11242,-0.022683,0.091909,0.037493,-0.08843
-1.4826e-05,-0.41109,-0.30218,-0.018399,-0.012497,-0.038576,-0.03197,0.00027198
0.043146,0.23575,-0.044761,0.041066,0.050998,0.0028727,-0.0080194,0.024848
-0.064499,0.036818,-0.09914,-0.097547,-0.035491,0.051689,0.031128,0.00073541
0.067503,0.16565,0.48187,0.082373,0.0093171,-0.056663,-0.0083037,0.037362
-0.021589,-0.3366,0.036865,0.058618,-0.0096591,-0.033444,-0.01688,-0.044667
-0.010887,0.16494,-0.18914,-0.034772,0.0017242,0.01189,-0.0022647,-0.010478
-0.016681,0.031111,-0.045271,0.0063403,0.012717,0.024859,0.012329,0.015579
0.032442,0.13736,0.095084,0.057589,0.023854,-0.0096912,-0.01189,0.026407
-0.16708,-0.18114,-0.18931,-0.1074,-0.058122,-0.0051689,0.003469,-0.04762
0.22162,0.22217,0.18714,0.026779,0.017171,-0.015554,0.0039317,0.03624
-0.074328,-0.20232,-0.065787,-0.032644,-4.8786e-05,0.037895,0.0052309,-0.026365
0.054483,0.089206,0.034651,0.065111,0.015241,-0.024123,-0.0004755,0.022426
-0.033104,0.023588,0.088275,0.022315,0.031624,0.025022,0.010073,-0.0051525
-0.033442,0.051794,0.15615,0.017875,-0.0059103,-0.033711,-0.02593,-0.015915
-0.033855,-0.84295,-0.5047,-0.12066,-0.043083,0.064695,0.016122,0.012779
0.096983,0.52681,0.019809,0.012663,-0.0021823,-0.039956,0.0029971,0.025328
0.0061859,0.48237,0.10547,0.019433,0.0070822,0.010833,-0.0031818,0.013032
-0.033698,0.18181,0.16768,0.04839,0.015761,0.020992,0.028569,-0.0091794
-0.0072938,-0.052044,0.059426,0.006286,0.016005,-0.041208,-0.042483,-0.041665
-0.093793,-1.0364,-0.28059,-0.067225,-0.062379,-0.043055,-0.028761,-0.037473
0.098652,0.56805,0.3748,0.07062,0.038659,-0.0076813,0.023108,0.066428
-0.045373,-0.2741,-0.029153,-0.017213,0.014728,0.065552,0.027563,-0.0024844
-0.047268,0.29968,-0.33691,-0.049169,-0.032319,-0.025639,0.00067256,-0.032129
0.087083,0.25259,0.17693,0.092048,0.05399,0.039927,0.0053699,-0.076034
-0.00023918,-0.34426,-0.14525,-0.085835,-0.054358,-0.026077,-0.036106,0.10893
-0.050742,0.086246,0.077947,-0.020582,0.0019916,0.011204,0.01712,-0.0001464
0.10719,0.22104,0.18121,0.053029,0.027579,0.01132,0.0089154,0.04205
0.019257,-0.13154,-0.055253,0.048557,0.022163,-0.002403,-0.0060467,-0.0072094
-0.089912,-0.062321,-0.30411,-0.042352,-0.014542,0.0087608,0.011172,-0.039513
-0.042975,0.15044,0.18411,-0.017081,-0.028125,-0.049396,-0.0099437,-0.0091736
0.063938,-0.54407,-0.059531,-0.071345,-0.034425,-0.0054859,0.00067681,-0.0032909
-0.028999,0.55482,0.48854,0.14619,0.052376,0.0072344,-0.011903,0.016286
0.044078,-0.24882,-0.45229,-0.083216,-0.033366,-0.019419,-0.024479,-0.06813
-0.037567,-0.055364,0.080151,0.053198,0.044358,0.062693,0.040869,0.016878
0.023472,0.30194,0.15811,0.016893,0.027869,0.018959,0.012088,0.076413
-0.12297,-0.14198,-0.32516,-0.10545,-0.043597,-0.033625,-0.025033,-0.060664
0.087616,-0.15661,-0.093116,-0.031738,-0.029231,0.0063651,0.023132,0.044031
0.032528,0.1835,0.31048,0.098258,0.00083021,-0.05645,-0.031001,-0.038336
-0.059498,-0.21284,-0.27587,-0.06638,0.0076632,0.043583,0.015662,-0.0024136
-0.0070664,-0.20396,0.02415,-0.017539,0.014787,0.03317,0.014712,0.058423
0.15955,0.94394,0.61637,0.229,0.069082,-0.048376,-0.010317,-0.0042204
-0.059513,-0.58374,-0.32969,-0.11642,-0.07171,-0.013217,-0.043647,-0.04998
-0.047706,0.053635,-0.24002,-0.031355,-0.0014685,0.029647,0.024283,-0.0012145
0.037502,-0.061363,0.11446,-0.040374,-0.0094098,-0.013177,0.0061569,0.03211
-0.055391,0.28728,0.19692,0.035116,0.037132,0.030466,0.034932,-0.013078
0.008083,-0.4096,-0.091271,-0.079159,-0.057267,-0.034592,-0.022125,0.003406
-0.031076,0.0047303,0.051354,0.061671,0.027641,0.0025803,-0.00094205,0.011019
0.037329,-0.045523,-0.19643,0.05916,0.041841,0.024638,-0.010941,-0.052725
-0.036969,-0.080099,-0.27049,-0.10193,-0.061519,-0.0077452,0.0024978,0.02336
0.043041,0.33492,0.24723,0.071281,0.061371,0.02232,0.015884,0.028751
-0.034762,-0.14828,0.088845,-0.0063164,-0.026895,-0.010414,-0.025468,-0.051688
0.0035068,0.33982,-0.11453,-0.021371,0.0097489,0.018942,0.034766,0.048123
0.048825,-0.30986,0.23636,-0.0044074,-0.03947,-0.084842,-0.037635,-0.015246
0.015426,0.01019,-0.19835,0.0060277,0.013132,0.014447,-0.00027679,0.023956
0.082987,0.1009,0.21574,0.033625,-0.01976,-0.026519,-0.0091811,-0.014049
-0.15486,-0.081683,-0.16288,-0.054433,0.010434,0.066156,0.037412,0.0032769
-0.018518,0.074621,0.10808,0.054148,0.041288,0.027226,-0.0010031,-0.010393
0.062391,0.40162,0.094471,0.038734,0.04935,0.013127,0.016211,0.030471
-0.013397,-0.33741,-0.067968,-0.046318,-0.051414,-0.038696,-0.020428,-0.038535
0.012464,-0.71286,-0.21162,-0.052812,-0.050211,-0.011354,-0.025192,-0.030117
-0.085902,0.011807,-0.011117,-0.051161,-0.0018852,0.024364,0.0094444,0.016618
0.067199,0.57477,-0.053173,0.068046,0.0074875,-0.064918,-0.010593,0.015829
-0.027706,0.11331,0.30412,0.039294,0.040298,0.071806,0.039363,0.014583
0.11397,0.068962,-0.31915,-0.020137,-0.012919,-0.042492,-0.01287,0.036538
-0.078266,0.092874,-0.020735,0.0069253,-0.0038131,-0.017512,-0.026925,-0.082172
0.0122,-0.35305,0.21878,-0.0046914,0.0050202,0.037213,0.020454,0.033585
0.032961,0.20707,0.066374,0.030628,0.029115,0.020134,0.019818,0.016685
0.029952,-0.12708,0.070407,-0.02815,-0.033155,-0.0217,-0.013154,0.0077646
-0.075779,-0.0062269,0.011919,0.045143,0.021333,0.021404,-0.00014099,0.006812
-0.066028,-0.14335,-0.22799,-0.0857,-0.041709,-0.0063591,-0.0033047,-0.040857
0.0043463,0.1322,-0.0035837,-0.0066878,-0.003349,-0.026327,-0.022195,-0.018012
-0.01291,0.0076932,0.20553,0.024525,0.019478,-0.030108,-0.0094317,-0.0026961
0.054505,-0.23487,-0.1346,0.00046714,-0.0042132,-0.0015347,0.0042192,0.013004
0.15242,0.39024,-0.072692,0.030945,0.0039125,0.02856,0.026936,0.06823
-0.10154,-0.092045,-0.10172,-0.01646,0.020498,0.044751,0.027639,-0.016694
-0.043012,-0.13374,0.059824,-0.0086893,-0.017049,-0.02335,-0.024997,-0.030904
0.039047,0.023327,0.076944,0.0073913,0.00037301,0.011399,0.0015216,-0.0058204
-0.050687,0.003546,0.068019,0.0081018,0.017661,0.0077825,-0.010503,-0.027623
-0.0075831,-0.022757,-0.090984,0.00080377,-0.0047246,-0.034911,0.0086282,0.012771
0.058963,0.47347,0.19412,0.055259,0.010908,-0.00019617,0.0036269,0.021315
0.02403,-0.42422,-0.13152,-0.055599,-0.021659,-0.0058215,-0.0025514,0.036807
-0.11999,0.14165,0.19715,-0.011752,-0.0087132,0.018202,-0.017994,-0.011241
0.072535,-0.079864,-0.14079,0.038396,-0.0046939,-0.029726,-0.011475,-0.021296
-0.054245,-0.22892,0.041954,-0.092231,-0.0090873,0.014695,0.017238,-0.0010047
0.13289,-0.20212,-0.42595,-0.012239,0.0022467,0.019109,0.0060808,0.0031444
-0.060999,0.019087,0.0037639,0.037175,-0.0089891,-0.031523,-0.0053209,-0.06295
0.012762,0.81306,0.42688,0.088272,0.075077,0.035286,0.014877,0.059233
-0.098861,-0.082714,-0.060562,-0.014371,-0.034149,0.0091474,-0.0031083,-0.051469
0.025898,-0.17383,0.098063,-0.020299,-0.01619,-0.023589,-0.012014,0.082066
-0.027354,-0.57654,-0.3383,-0.10141,-0.011848,0.0076237,0.0039775,-0.055512
0.1627,0.39614,0.3022,0.12461,0.040889,-0.014359,-0.0020276,0.043504
-0.029679,-0.15621,-0.15361,-0.015063,-0.030582,-0.034986,-0.0068165,0.0036075
-0.074101,0.075628,0.15128,0.0017977,0.015078,0.039204,0.012659,-0.019795
-0.010469,-0.053264,-0.18464,-0.052677,-0.010468,0.043749,0.024656,0.0035034
-0.019162,0.16326,-0.03179,-0.023417,-0.0063552,0.009448,-0.010404,0.009944
0.1416,0.50969,0.29456,0.088714,0.0035309,-0.08758,-0.038295,-0.0013507
-0.12201,-0.18933,0.050502,0.0177,0.050309,0.049168,0.026589,-0.038726
-0.028442,-0.33366,-0.27201,-0.056611,-0.06113,-0.041502,-0.019039,-0.00070594
0.00098983,-0.25791,-0.10122,-0.047584,-0.017781,-0.00034001,0.0045328,0.0037014
-0.033018,-0.27037,-0.12167,-0.032205,0.0013781,0.047645,0.0037302,0.0064916
0.08113,0.29971,0.053422,0.045595,0.004949,-0.030287,-0.005544,-0.00699
0.062647,0.29618,0.12354,0.038761,0.024899,0.015975,0.0082692,-0.012302
0.005465,-0.17956,0.38125,0.057798,0.046119,0.030299,0.014197,0.06953
-0.004569,-0.05932,-0.31979,-0.076305,-0.017093,-0.010633,0.0046265,-0.0031326
0.0088414,0.23754,0.028407,0.003758,-0.016364,-0.020755,-0.0047119,-0.026993
-0.14991,0.4363,0.19757,0.078795,0.0089259,-0.015535,-0.0059847,0.0055608
-0.082602,-0.56947,-0.28432,-0.10209,-0.0667,-0.026028,-0.022664,-0.054408
0.10918,0.22061,0.11763,0.053706,0.053099,0.057368,0.02332,0.058045
0.089601,-0.006672,-0.085236,-0.033177,-0.022792,-0.015119,-0.0087075,-0.0093688
0.061988,-0.34514,0.033137,-0.0044384,0.0099285,-0.040185,-0.017213,0.00052058
-0.035956,0.097849,-0.076523,0.006333,0.010392,0.021322,-0.0022076,-0.037746
-0.11031,-0.071013,0.092767,-0.016873,-0.013677,0.036556,0.028489,0.024057
-0.028153,-0.077601,-0.051949,0.0041035,0.015899,0.028809,0.020179,-0.0093287
0.10122,0.20677,0.13216,0.085299,0.028997,-0.0099498,0.0040956,0.057707
-0.042439,0.053468,-0.11731,-0.061641,-0.036586,-0.048685,-0.043208,-0.04779
0.01747,-0.13246,-0.08578,-0.01395,-0.00077571,-0.0094079,0.0032816,0.0028997
0.023189,0.30365,0.19122,0.0027566,-0.011571,-0.017123,-0.004817,-0.047435
0.013834,0.069748,-0.064749,0.0049685,0.0095886,0.029873,0.026345,0.051721
-0.073039,-0.3861,-0.23485,-0.061343,-0.038492,-0.0088059,-0.020294,0.011646
0.012629,-0.23535,0.19678,0.054171,0.024097,0.0077236,-0.019619,-0.019125
-0.057256,0.36394,0.28365,0.046798,0.033311,0.017145,0.036249,0.021742
0.13916,0.16596,-0.062553,0.041153,0.027999,-0.011763,-0.0089655,-0.0067794
-0.062274,-0.18559,-0.26673,-0.080618,-0.031324,0.022402,0.0086667,-0.042757
