0.21839,0.2169,0.31739,0.031182,-0.045262,-0.35738,-0.34274,-0.19548
0.015277,-0.24077,-0.0097699,-0.082958,-0.0135,0.1275,-0.041367,0.15434
-0.090728,0.25527,0.28631,0.028962,0.056641,0.03155,-0.032633,-0.0093678
0.016921,0.21938,-0.036852,-0.11823,0.0020604,0.24718,0.8285,0.17506
-0.099233,-0.52329,-0.02645,0.076421,0.042442,-0.067311,-0.16666,-0.10188
-0.11003,0.21845,-0.26863,-0.20777,-0.15738,-0.40217,-0.87809,-0.2432
0.18198,0.44788,0.47899,0.51348,0.074961,0.33787,-0.30303,0.074399
-0.22801,-0.60461,-0.12644,0.3107,0.11462,0.13798,0.66388,0.079653
-0.086574,0.15996,-0.55985,-0.71389,-0.11677,-0.39256,0.10304,-0.039061
0.21103,0.30351,0.1185,-0.090412,0.059903,0.22166,-0.15113,-0.071523
0.22959,-0.53944,-0.1516,-0.15329,-0.051488,-0.09167,0.68374,0.45649
-0.15505,-0.22461,0.48306,0.31011,0.032491,0.11791,-0.052785,-0.40398
0.24391,0.43263,-0.063168,0.19967,0.021887,0.19912,0.23263,0.6162
-0.13817,-0.1719,-0.13551,0.0083743,-0.037125,0.02444,-0.18871,-0.58866
-0.2653,0.23955,0.86442,-0.021737,-0.027755,-0.34524,-0.34134,-0.20913
-0.031505,0.35718,-0.45041,-0.14964,0.010889,-0.066491,-0.99626,0.15189
0.067902,0.056671,-0.1936,0.15399,-0.0068421,-0.2319,-0.060228,-0.19246
0.13204,-0.33494,-0.61818,-0.20689,0.052415,0.52812,0.36173,0.54158
0.10471,-0.35897,-0.1,0.039019,0.0018499,-0.27549,0.56649,-0.18124
-0.16311,0.13824,0.67512,0.10117,-0.11097,0.055763,0.59438,-0.059694
-0.13994,0.1232,0.59404,0.12746,0.15205,0.4541,-0.51531,-0.15998
0.0031145,-0.19472,-0.5486,-0.31907,-0.11496,-0.72755,0.5942,0.20072
0.32184,0.0038842,-0.80927,0.075543,0.11156,0.65152,-0.75522,-0.01501
-0.08887,-0.023765,0.44222,-0.28041,-0.082517,-0.43329,-0.56552,0.0052912
-0.0013664,0.32311,0.091824,0.30268,0.029087,0.26614,0.69772,0.017786
-0.047505,-0.019322,0.56168,0.38112,-0.030548,-0.025698,0.1535,0.035233
-0.10921,0.25943,-0.12768,-0.28654,0.066335,0.025533,0.20208,0.085403
0.11127,-0.17898,-0.20067,-0.099043,-0.11807,-0.60425,-0.64561,-0.31165
0.0054528,-0.11807,0.13224,0.12205,0.072313,0.50735,0.43608,0.32582
-0.035197,-0.29375,0.058894,-0.070394,0.035841,0.20571,-0.41208,-0.25363
-0.2132,-0.034368,-0.25483,0.0091847,-0.086822,-0.46001,-0.26571,-0.26883
0.088792,0.075394,-0.27312,0.24203,0.10284,0.074965,-0.20675,0.22662
0.049923,0.1553,-0.32398,-0.56802,-0.074776,0.26535,0.85504,0.17204
0.25481,0.27913,0.62712,0.13364,-0.018095,-0.52928,0.28236,0.014777
0.013938,-0.21344,-0.40653,0.13675,0.022803,0.50196,-0.12647,0.053393
0.10617,0.040504,0.62042,0.0048222,0.032099,0.13687,-0.020597,-0.0079275
-0.29103,0.035993,-0.14567,0.082654,0.040757,0.026846,-0.56654,-0.059455
-0.34323,-0.32659,0.0023323,0.066298,-0.02967,-0.02105,0.28699,-0.14826
0.20704,0.28178,0.25375,0.096686,-0.085701,-0.2617,0.21635,0.029882
0.09515,-0.27188,-0.15732,-0.068418,0.14598,-0.088974,-0.90592,0.044838
0.010754,0.14402,-0.23272,-0.27294,-0.13142,-0.29269,0.43464,0.02922
0.15992,0.30075,-0.46722,-0.11067,-0.0035128,0.41824,0.39444,0.069096
-0.16512,0.00016439,0.76152,0.25463,0.014613,-0.014192,-0.38484,-0.14761
0.061977,-0.43286,-0.81441,-0.027946,0.01734,-0.16185,0.76239,0.098423
-0.086335,0.18599,0.40479,0.026901,0.013103,0.13841,-0.54517,-0.20796
0.023863,0.033608,0.53499,0.13887,0.080525,0.12741,-0.13445,0.089622
0.095609,-0.17331,-0.4873,-0.24596,-0.053541,0.013309,-0.067163,0.10011
-0.036406,0.064071,0.51692,-0.0022403,-0.021852,0.072521,0.33674,0.17399
-0.1088,0.29244,-0.28075,0.11991,0.019185,0.040084,0.17098,0.028371
-0.015099,-0.26096,-0.21582,0.12764,-0.12607,-0.63247,-0.57258,-0.36993
0.2493,0.10065,-0.052606,-0.081697,0.065375,-0.14402,-0.23842,0.12573
-0.068634,-0.0034733,-0.077997,-0.15787,0.069569,0.65663,0.5943,0.068761
-0.049449,-0.18022,-0.16426,0.046158,0.05784,0.4588,-0.0054843,-0.056796
-0.14773,0.14337,0.23822,0.029169,-0.079714,-0.41558,0.023156,-0.054891
0.073742,0.20424,0.47527,0.009025,-0.0076008,-0.24557,0.13977,0.13097
-0.11064,-0.50326,-0.42098,-0.2022,-0.085495,-0.090087,0.10144,-0.12157
0.26986,0.18648,0.45529,0.46589,0.053687,0.040937,-0.58353,-0.075058
-0.23516,0.11788,0.055599,0.068627,0.13662,0.35096,-0.061464,0.24227
0.1429,0.0016904,-0.64566,-0.48656,-0.14104,-0.46973,0.48388,-0.026511
0.00066067,0.35253,-0.0021725,0.0050369,0.049315,0.40404,-0.59881,-0.15342
0.098312,-0.31545,-0.12486,-0.14227,-0.041673,-0.1387,0.094206,-0.03679
-0.13285,0.019641,0.26675,0.3857,-0.014898,-0.20848,0.31742,0.11894
-0.020254,0.012852,0.18816,0.097924,0.16934,0.3727,0.261,0.233
-0.13448,-0.50054,0.037962,-0.31783,-0.19939,-0.32021,-0.31718,-0.35448
0.023233,-0.07539,-0.3479,0.12204,-0.027055,-0.15977,0.56455,0.086747
0.28671,0.66335,-0.071446,0.040706,0.1551,0.58041,-0.34886,0.13082
-0.21404,0.012342,0.86636,0.091909,-0.036069,0.13967,-0.61085,-0.15517
0.32248,-0.0996,-0.69204,-0.063001,-0.023047,-0.6433,0.27955,0.22688
-0.33347,0.17746,0.5334,0.34714,0.052692,0.18592,0.41785,-0.25447
0.15922,-0.42431,-0.77043,-0.62423,-0.028538,-0.020207,0.002812,0.097708
-0.24802,0.069418,0.084349,-0.062939,-0.033225,0.20088,-0.72553,-0.2446
0.19445,0.25855,0.31019,0.17318,0.053622,0.32122,0.56889,0.16044
-0.020108,0.22079,-0.45761,-0.053931,-0.13548,-0.84876,-0.26806,0.075359
-0.061184,-0.4177,0.74483,0.14934,0.063619,0.30088,0.040517,-0.050228
0.012072,-0.44318,-0.32974,0.074679,0.026356,-0.133,0.045563,0.083664
-0.12468,0.17962,-0.35907,-0.041858,-0.027825,0.14361,0.23537,0.0097078
0.28219,0.11914,0.49347,0.2845,0.13628,0.12871,0.18347,0.07901
-0.037907,0.21503,-0.10096,-0.2049,-0.074206,-0.039326,-0.14687,-0.10121
-0.17706,0.18026,0.1291,-0.058538,-0.017868,-0.11396,-0.37924,-0.089035
-0.06478,0.053678,0.11062,-0.15328,-0.053385,0.41514,-0.036313,0.049122
0.24296,-0.22198,-0.40146,-0.037494,-0.055231,-0.45153,0.077595,0.036094
0.2749,0.11456,0.020202,0.26465,0.16442,0.53478,0.42356,0.06433
-0.42533,-0.11376,-0.43049,-0.30923,-0.081873,-0.31581,-0.46718,-0.10988
0.076328,-0.38831,0.48056,0.24167,0.025979,-0.3498,0.16301,0.036925
-0.21528,0.3656,0.32441,-0.21442,0.018685,0.41475,0.071547,-0.21254
0.10405,-0.0095819,-0.28034,0.12802,-0.081146,-0.41446,0.08594,0.081732
0.24441,0.2138,0.074337,0.081653,0.037949,-0.0023361,0.041309,0.063299
-0.2235,-0.40632,-0.023859,0.052009,0.031074,0.17431,-0.50077,0.00044398
0.3112,-0.044879,-0.15927,0.076618,0.061189,0.35759,0.31032,0.30118
-0.50863,-0.071611,0.075656,-0.041836,-0.13043,-0.31995,-0.15909,-0.3465
0.35087,0.27599,-0.060365,-0.094323,0.072859,0.43781,0.81683,0.18937
-0.068747,0.39166,0.18314,0.027303,0.022513,-0.26866,-0.91873,-0.022822
-0.0077178,-0.45813,-0.25634,-0.35674,-0.11698,-0.4249,0.55566,0.084797
-0.090016,0.19381,0.24566,0.15316,0.069355,0.28079,-1.0259,-0.31823
-0.19073,-0.11711,0.016308,0.051442,-0.026595,0.1609,0.39859,0.18837
0.58737,0.33081,-0.14104,0.13782,0.026305,-0.041348,0.98509,-0.10676
-0.23432,-0.33468,0.03775,-0.02245,-0.028372,-0.12075,-0.58731,-0.093359
0.11522,-0.11771,-0.14409,-0.075735,0.052681,-0.074398,0.48562,0.34003
0.055766,-0.083142,0.11692,0.18206,-0.0032955,-0.11778,-0.42121,-0.11624
-0.28883,0.018894,0.24967,0.047542,0.046044,0.23648,-0.064999,-0.037221
-0.18395,0.26859,0.04297,-0.082182,-0.057465,0.037316,-1.0068,-0.31875
0.075247,0.11507,-0.58101,-0.26383,-0.0020923,0.011879,0.66944,0.29851
-0.14909,-0.35086,0.18317,0.062839,-0.062321,-0.051912,0.16882,-0.013566
0.2008,0.1727,0.0083634,0.13017,0.057565,0.077495,0.32061,0.063591
-0.083569,-0.020838,-0.12016,-0.086797,-0.057626,-0.033653,0.19494,0.050105
0.53009,-0.092526,0.69651,0.082995,0.11457,0.10223,-0.069178,0.19163
0.23633,0.26348,-0.58086,-0.048087,-0.0046884,-0.21445,-0.17742,-0.12575
-0.57662,-0.086519,0.39853,0.16107,-0.032996,0.091283,0.32866,-0.15578
0.001901,-0.26253,-0.41332,-0.17922,-0.064139,-0.067929,-0.73207,-0.15832
-0.18003,0.17639,0.22474,-0.020838,-0.0040379,-0.0899,-0.30458,-0.00045385
0.1171,-0.11103,0.054406,0.10628,0.10108,0.066961,0.30084,-0.070435
0.063902,0.3463,-0.56449,-0.17166,-0.036963,0.055057,-0.045271,0.21396
-0.17527,0.0045434,0.5493,0.18532,-0.057836,0.0040365,0.39478,-0.0095018
-0.12223,-0.20202,0.11709,-0.025439,0.00028985,-0.10506,-0.21308,0.029543
0.27223,0.030227,-0.31887,-0.069588,0.013076,0.028138,0.21637,-0.040364
0.28391,-0.20357,-0.27097,0.20081,0.098024,0.27276,0.0076417,0.11839
-0.0072265,0.068945,0.31027,-0.19948,-0.018394,-0.11325,0.41256,0.11474
-0.18624,-0.39709,0.20738,-0.068384,-0.078837,0.024776,0.049162,-0.13172
-0.15167,0.28661,-0.2833,0.12428,0.025318,-0.01131,-0.37763,0.016113
-0.060706,0.14803,0.13253,0.033834,0.019755,-0.22495,-0.3084,-0.12534
0.022641,0.26773,0.1614,-0.051302,0.0052142,0.10708,-0.49193,-0.082901
0.03412,-0.010748,-0.15547,-0.10804,-0.050154,-0.041305,0.36666,0.055271
0.22203,0.1379,0.28538,0.066728,0.064329,0.27363,-0.22301,0.06195
-0.016589,-0.29091,-0.53682,0.012344,-0.11213,-0.44069,0.14892,-0.085414
-0.065323,-0.12253,0.43713,0.39341,0.14754,0.20697,0.50893,0.18561
0.099316,0.060943,-0.41065,-0.53148,-0.10899,-0.11022,0.099235,-0.14558
-0.36537,-0.039068,0.15632,0.17611,-0.013606,0.023342,0.22774,-0.013642
0.18328,0.024028,-0.099445,-0.18586,0.04393,0.35117,-0.32635,0.10718
0.060545,-0.22213,0.24257,0.12586,-0.013862,-0.11019,-0.038566,-0.12561
-0.13676,-0.1853,-0.63872,0.1903,0.118,0.077163,-0.49719,0.10041
-0.03873,0.43065,0.599,-0.16382,-0.10746,-0.37573,0.067427,0.06512
-0.026478,-0.039981,0.32743,0.016781,0.012433,0.28114,0.51133,0.078614
0.087685,-0.16369,-0.52955,-0.088521,-0.015194,-0.23326,-0.11192,-0.13548
0.39597,0.66155,0.41797,0.33205,0.074539,-0.11376,-0.40945,-0.025293
0.020316,-0.13772,0.081,-0.17561,-0.047123,0.28877,0.71877,-0.030443
-0.1604,-0.17703,-0.30275,-0.18286,-0.028992,-0.11089,-0.63092,-0.058118
-0.1501,-0.22994,-0.35542,-0.034422,-0.011742,0.086086,-0.061799,-0.014137
-0.16261,0.03909,-0.073644,0.20648,-0.026373,0.11399,0.26287,0.12664
-0.22258,-0.18935,0.42982,-0.046571,0.021304,0.0033547,-0.13941,-0.070688
0.19426,0.15835,-0.15179,-0.07508,-0.024506,-0.18453,0.24837,0.10782
0.30926,-0.099081,0.39938,0.32401,0.10993,-0.076197,0.058476,-0.077253
-0.24885,0.1413,-0.52607,-0.36489,-0.020706,-0.040328,-0.3846,-0.16291
0.1802,0.25045,0.32237,0.061505,0.028578,0.21094,0.30245,0.30494
-0.025132,-0.50843,-0.070142,-0.02158,-0.039671,0.21607,-0.055468,-0.13493
0.14521,0.48784,0.13327,0.12835,0.016071,-0.20451,0.16808,0.25047
-0.14405,-0.18463,0.06652,-0.027371,-0.062552,-0.17482,-0.44164,-0.30667
-0.30796,-0.16166,-0.80035,0.019534,-0.025784,-0.02128,0.59061,0.097423
0.26046,0.38822,0.53423,0.035253,0.032784,-0.030754,-0.25125,-0.0082455
-0.098444,-0.40054,-0.0059848,-0.22175,-0.0034774,0.11937,-0.24653,-0.1487
0.22085,0.17509,0.9014,0.13203,0.014716,0.24352,0.2742,0.034768
0.027188,-0.23811,-0.97578,-0.082418,-0.013241,-0.25102,-0.39835,0.050216
-0.02595,0.45851,-0.14325,0.065127,0.022892,0.057569,0.39765,0.10176
-0.017984,-0.082515,-0.24776,0.19993,0.029955,0.027324,-0.34472,-0.082637
-0.30771,-0.26367,0.14905,-0.19372,0.0081512,-0.14884,0.57257,0.084392
0.16987,-0.057562,0.56239,-0.1163,-0.050547,0.45566,-0.93372,-0.13821
-0.12804,-0.14715,0.09972,0.27516,0.0017164,-0.52184,0.41856,0.062679
0.1081,0.85588,0.28891,-0.20004,-0.039012,0.079779,0.056549,-0.078576
-0.16397,-0.83086,-0.5774,0.042985,0.12322,0.23506,0.62165,0.32812
0.24651,0.6053,-0.11281,-0.0045454,-0.067129,-0.025509,-0.58548,-0.18686
0.035835,-0.31861,0.2029,0.25824,0.014297,-0.1778,0.41141,-0.13222
-0.30553,-0.32661,-0.61607,-0.4815,-0.085971,-0.12602,-0.18749,0.092994
0.61654,0.27214,0.39186,0.2607,-0.032003,-0.031119,-0.36226,-0.019122
0.077171,-0.11249,0.11984,0.14931,0.18431,0.45433,0.80711,0.031997
-0.5006,0.2026,-0.022194,-0.40876,-0.09279,-0.056657,-0.59964,-0.11191
0.22911,0.11064,0.21973,0.12627,-0.011138,-0.45945,-0.31068,0.034954
-0.21358,0.23032,-0.21351,0.12215,0.039209,0.5449,-0.43225,-0.065163
-0.39125,-0.74276,-0.23379,0.24321,-0.0663,-0.38654,0.58935,0.049481
0.23058,0.69054,0.64392,-0.18242,0.047607,0.23017,-0.12767,0.14446
-0.22498,-0.6668,-0.36237,-0.014345,0.021642,-0.25498,0.43309,-0.062549
0.41334,0.19857,0.073664,-0.11217,-0.034899,0.22591,0.67647,0.19994
0.18378,0.26846,-0.06585,-0.10877,0.04187,-0.15813,-0.64463,0.023223
-0.010028,-0.22531,-0.30651,0.18358,-0.060743,0.12133,-0.65619,-0.36074
0.061023,0.30864,0.35786,-0.00021714,0.079012,0.38226,0.50463,0.054123
-0.025399,-0.15502,-0.31587,-0.081339,-0.062306,-0.31429,0.2064,0.0015532
-0.33484,0.1481,0.2657,0.12061,-0.062683,-0.4765,-0.19845,-0.18183
-0.028299,-0.50888,-0.014638,-0.034472,0.04687,-0.11145,-0.12195,0.25583
0.22479,-0.0707,-0.36784,-0.17139,0.00099384,0.64958,0.50305,0.12192
-0.064827,0.47974,0.75269,0.45188,0.057689,-0.050987,-0.35443,-0.065007
0.10707,0.12112,-0.23179,-0.38396,0.021675,-0.070979,-0.29207,-0.075682
-0.13632,-0.081565,-0.38455,0.078135,-0.075971,-0.01897,-0.31088,-0.017503
-0.20899,0.0070645,0.71565,-0.0299,0.053454,0.15178,0.019282,-0.014508
0.04696,-0.25904,-0.97814,0.048863,0.0032153,-0.26286,0.35463,0.011253
0.11849,-0.19046,0.54268,-0.17855,-0.11002,0.032401,0.66927,0.16007
0.18812,0.049857,-0.087354,0.0059381,0.041386,0.16863,-0.3088,-0.25769
0.062932,0.29787,-0.25638,0.42215,0.019597,-0.1681,-0.31694,0.27091
-0.17741,-0.025884,0.18689,0.02293,0.074421,0.091738,0.80205,-0.030313
-0.04802,0.10717,0.4248,-0.3558,-0.059765,-0.23922,-0.60159,-0.14811
0.13833,0.083941,-0.46257,-0.10426,0.023482,0.24636,0.27535,-0.021615
0.013773,0.0097302,-0.0055873,0.08304,-0.011394,0.2847,-0.5587,0.012629
-0.00044144,-0.12686,0.40482,0.04322,-0.077923,-0.6062,-0.15405,-0.029333
-0.24038,-0.21089,-0.22492,0.09014,0.066706,0.18547,-0.079924,-0.044643
-0.025837,-0.22701,-0.029803,-0.048347,0.0090508,0.20081,0.45794,0.35917
-0.035374,0.27184,0.011086,0.050595,-0.05507,-0.31682,-0.18099,-0.33934
-0.033266,-0.015544,-0.37817,-0.011023,-0.031629,-0.078379,0.011852,0.095939
0.51283,0.06359,0.36278,0.079161,0.18092,0.65694,-0.14394,-0.036915
-0.045158,0.07589,0.091697,-0.26548,-0.034949,-0.019621,0.72268,0.098498
-0.37198,-0.46004,-0.2628,0.024273,-0.12514,-0.36908,0.11152,0.025323
0.054037,0.67567,0.40029,0.2674,0.073693,0.042938,-0.58315,-0.18705
0.25373,-0.080423,-0.1535,0.0016409,-0.0094776,-0.17653,0.16299,0.10851
-0.36183,0.31587,-0.04107,-0.18037,-0.02362,0.065374,0.14677,0.0825
0.2905,-0.55311,-0.18369,0.017529,0.015388,0.1445,-0.24024,-0.039596
-0.017915,-0.43301,-0.3462,-0.1236,-0.04863,-0.24139,-0.23644,0.007341
-0.076912,0.69731,0.29256,0.17786,0.058138,0.34099,-0.053036,-0.057667
0.08301,-0.053185,0.61615,-0.069486,-0.038718,-0.51843,-0.10833,-0.14762
-0.17644,-0.34686,-0.054465,0.29953,0.067731,0.40263,0.31516,0.082935
-0.13289,-0.063107,-0.14044,-0.49519,-0.051575,0.17679,0.061323,-0.10623
0.053899,-0.14288,-0.39854,0.10986,-0.0055486,-0.21883,0.23138,0.27106
0.083444,0.28517,-0.092701,0.24816,0.026335,0.16753,-0.25537,0.091032
0.18552,0.39577,0.084112,-0.11914,-0.041926,-0.42501,-0.25652,-0.30223
0.056954,0.072439,0.072195,-0.015746,0.10186,0.2649,0.16324,0.18441
-0.13875,-0.22558,0.19455,0.1202,-0.058434,0.20136,0.99815,0.065108
-0.099544,-0.43179,-0.45319,-0.14184,-0.031156,-0.22143,-0.9397,-0.14646
0.20937,0.42525,0.86379,0.30669,0.089446,0.1811,-0.1124,-0.046119
-0.045285,0.07454,-0.82464,-0.55042,-0.095406,-0.060893,0.41755,0.020566
-0.16555,-0.36341,0.29081,0.067858,-0.07023,-0.43847,-0.47186,-0.017967
0.15679,0.21801,0.68217,0.24754,0.07126,0.25463,0.36711,0.009603
-0.13563,-0.088066,-0.4057,-0.0032785,0.047961,-0.10981,-0.10073,0.1581
0.003344,-0.2098,-0.32911,-0.0046058,-0.046223,0.12957,-0.61749,-0.16553
-0.08129,0.08247,-0.84937,0.095266,0.09347,-0.038261,0.24146,0.00070472
0.027426,-0.074626,0.92242,-0.21935,-0.064254,0.24917,0.56554,0.10333
0.083402,0.10368,0.064575,0.012242,0.011709,0.070993,-0.33855,-0.07525
-0.026351,0.53381,0.35243,0.28979,0.0086857,-0.073967,0.13726,0.028404
0.069157,-0.47873,-0.21088,-0.34775,-0.081241,-0.16529,0.32296,0.10245
0.12287,0.43257,-0.32462,0.45919,0.054488,-0.050792,-0.47209,-0.17307
0.097642,-0.21035,-0.10967,-0.6169,0.025518,0.1403,0.43984,0.092533
-0.15398,0.17704,0.48467,0.2609,-0.03485,-0.19704,-0.50656,-0.038384
-0.20974,-0.50716,-0.56196,-0.046864,-0.032226,0.13043,0.55189,-0.0036338
0.063305,-0.12103,0.17414,0.039009,0.073146,-0.049543,-0.60666,-0.069272
-0.10035,-0.10696,0.099386,0.081662,-0.054056,-0.040405,0.40806,0.092296
-0.075552,-0.21885,-0.069096,-0.11428,-0.030615,-0.01154,-0.18153,0.082023
0.41114,0.77354,0.57949,0.21592,0.08106,0.18859,-0.21874,-0.046061
-0.046931,0.34904,-0.31075,-0.062126,0.022891,-0.12448,0.20732,-0.17542
-0.16967,-0.42219,0.036947,0.096461,-0.065099,-0.12036,-0.51281,0.14654
0.033042,0.22263,-0.092004,-0.25556,0.066253,0.28802,0.55969,0.13039
-0.18397,-0.29194,-0.37135,0.16947,-0.052729,-0.11839,0.01156,-0.19268
0.21461,-0.28475,-0.0038547,-0.27744,-0.016628,0.096384,0.13051,0.021377
0.27153,0.72235,-0.10418,-0.056813,0.025527,-0.023241,-0.11155,0.038854
-0.39998,-0.63478,0.20668,0.30918,-0.020263,-0.058168,0.10527,-0.068964
0.29842,0.25874,0.49576,-0.044902,-0.0054387,-0.14372,-0.12094,0.011579
-0.1664,-0.30743,-0.4361,-0.054766,-0.046752,-0.086337,0.40762,0.10976
-0.13057,0.16213,0.59339,0.26543,0.11425,0.30085,-0.2209,-0.039092
-0.11584,-0.49151,-0.40708,-0.37252,-0.10769,-0.27071,-0.51087,-0.082874
0.092018,0.98738,0.085175,0.28161,0.077091,0.19271,-0.1362,0.025305
0.13018,-0.56023,-0.45526,-0.077218,0.12214,0.45899,0.31783,0.089547
-0.08259,-0.092035,-0.15602,-0.23097,-0.20674,-0.86775,-0.13802,-0.039733
0.40333,0.83805,0.48011,0.22575,0.066956,0.26961,0.055088,-0.15318
-0.43223,-0.7169,0.23183,-0.09067,-0.072601,0.052679,0.51053,0.21615
0.29542,0.45847,-0.051384,-0.0089882,0.10864,0.029333,-0.17544,0.20713
-0.35863,0.024143,-0.31628,-0.060896,-0.02251,0.18385,-0.16671,-0.3457
0.11248,-0.92966,0.29582,0.26897,-0.021079,-0.11785,0.096748,-0.075969
0.11307,0.32162,-0.68374,-0.12109,0.042325,0.05955,-0.077202,-0.046275
-0.015683,0.34058,0.44898,-0.11392,-0.066877,-0.036656,-0.42879,0.13463
0.012597,-0.45657,-0.0078334,-0.053215,-0.02065,-0.20602,0.95814,0.061711
-0.10921,0.45724,0.32244,0.24087,0.1029,0.18216,0.024831,0.088092
0.023347,-0.1012,-0.19911,-0.16889,-0.071109,0.040873,-0.46427,-0.042283
0.10465,0.23141,0.30415,0.45231,0.08251,-0.23912,-0.15505,0.14113
-0.021529,-0.15932,-0.55686,-0.69965,-0.084455,0.27321,-0.68964,-0.26612
-0.11991,-0.18633,-0.14016,0.047775,-0.032712,-0.11515,0.37854,0.02673
-0.079579,-0.1004,0.24271,0.46084,0.011373,-0.46396,-0.13567,-0.0099954
-0.054913,0.33027,-0.079839,-0.36626,0.055749,0.66697,0.51109,-0.29698
0.30745,-0.10932,-0.038202,0.129,0.04579,-0.10308,0.4729,0.34602
0.21205,0.48208,0.41254,0.18056,0.0049386,0.078539,0.071047,0.16078
-0.20744,-0.58056,-0.2932,-0.25938,-0.074624,-0.18663,-0.14383,-0.15889
-0.33357,-0.52884,0.66113,0.3314,-0.028799,-0.15747,-0.39871,0.071916
0.39595,0.61742,-0.19675,-0.06392,0.064419,0.42207,-0.21984,0.20139
-0.35534,-0.11348,-0.32229,-0.19617,-0.075997,-0.32515,-0.032171,-0.39128
0.052476,0.5348,-0.35629,-0.22177,0.034603,0.036334,0.20205,0.040681
0.1264,-0.35155,-0.25734,0.20364,-0.0019774,-0.096724,0.13328,-0.059674
0.037439,0.018697,0.19786,-0.020253,-0.0059547,0.03236,0.01771,0.15834
0.19874,0.14966,0.26512,0.10812,0.045981,0.1418,0.11573,0.16416
-0.14837,-0.53075,0.098511,0.019935,0.067506,0.20033,-0.73059,-0.24323
-0.10623,0.11786,0.2958,-0.10416,-0.074802,-0.33849,0.28401,-0.12318
-0.23784,0.041303,-0.24311,-0.0061936,-0.0066713,0.10418,0.29356,0.10615
0.24559,-0.0884,0.24596,0.1569,-0.064755,-0.0019947,-0.15497,0.049845
0.039363,0.21166,-0.11583,0.11026,0.070693,0.00018285,0.14678,0.054433
0.20609,0.21071,-0.39621,-0.25726,-0.014706,-0.083774,0.22383,0.051079
-0.56661,-0.4349,0.23548,0.060421,-0.063172,-0.081462,-0.30115,-0.17121
0.3619,0.5838,0.04861,-0.055105,0.089604,0.085326,0.003595,0.15162
0.15564,-0.20854,-0.16196,-0.096452,-0.0012257,0.22085,0.15355,0.12624
0.0098375,0.20295,-0.099053,0.10872,-0.022554,0.058606,0.2261,-0.11781
-0.13791,-0.30792,-0.018167,0.030385,0.010669,-0.19934,-0.50495,-0.09155
-0.20126,-0.22565,-0.23619,-0.025051,0.028802,0.18829,0.31498,-0.094309
-0.14815,-0.21999,0.5706,0.0614,-0.084735,-0.31794,-0.40908,-0.010193
0.21015,0.24539,-0.13453,-0.12281,-0.0013315,-0.10042,-0.36207,0.035851
0.42195,0.4753,0.22703,0.28264,0.076198,0.13122,0.54772,0.13103
-0.11287,-0.43406,0.38822,-0.20641,-0.023938,0.10548,0.17962,-0.0037418
-0.38538,0.0053987,-0.57575,-0.12955,-0.036287,-0.081659,-0.020618,-0.029961
-0.043448,0.078905,-0.24643,0.13708,0.015277,0.071831,-0.21764,-0.093542
0.014302,-0.09311,0.099848,-0.0018058,0.083218,0.42672,0.21084,0.21384
0.17741,0.17876,-0.429,0.09277,-0.098892,-0.7899,-0.17023,-0.16894
0.29549,0.30119,1.0737,0.059988,0.054056,0.43717,0.5843,0.055555
-0.22786,-0.3047,-0.53832,-0.19488,-0.013346,-0.1589,-0.43399,0.0042755
0.32323,0.41461,-0.59748,-0.023687,-0.0047009,0.16234,-0.11901,-0.003338
-0.57726,-0.65876,0.56424,-0.16039,0.017346,0.35989,0.2367,-0.11704
-0.016963,0.085168,0.20814,0.31794,-0.087608,-0.69303,-0.72927,0.12257
0.13658,-0.062292,0.086532,-0.0013454,0.040369,0.11158,0.14476,0.034272
0.25171,-0.058289,-0.10466,-0.10897,0.011438,-0.063096,0.31777,-0.10982
-0.2628,-0.015435,-0.23376,-0.10535,-0.0094717,0.0090354,-0.11085,0.079925
0.19024,0.30489,-0.2956,0.080439,0.056553,0.20274,0.30915,-0.037698
-0.14314,-0.21957,0.48749,0.057685,0.053839,0.63498,0.55048,0.1778
