0.35272,-0.08141,-0.0090967,-0.05086,-0.026756,-0.062624,-0.049231,0.010422
-0.62665,-0.026272,-0.024573,0.011707,0.011017,0.01461,0.094043,0.027582
0.72135,0.11646,0.055255,0.044817,-0.012735,0.014839,0.059721,0.010139
-0.21367,-0.14598,-0.019814,-0.04561,-0.012073,0.054239,-0.051256,-0.027455
0.20491,-0.02528,-0.039166,0.028972,0.020636,-0.21989,-0.060308,0.076984
0.38486,0.29816,0.12963,0.064844,0.030386,0.15227,0.19525,0.18066
-0.31377,-0.19181,0.048683,-0.071367,0.024606,0.021275,-0.082806,-0.17151
-0.47549,0.012362,-0.28228,-0.13007,-0.075181,0.11298,-0.10635,-0.26987
-0.018419,-0.11268,0.16788,0.20884,-0.0035836,-0.096377,-0.078812,-0.028835
-0.13085,-0.26977,-0.15544,-0.23425,-0.065351,-0.098807,0.0081228,0.052233
0.064827,0.29931,0.24021,0.26748,0.11464,0.11423,0.10097,0.13091
0.011402,0.24329,0.019278,-0.03556,0.013227,-0.13574,0.076411,0.091622
0.57492,0.2263,-0.075654,-0.13509,-0.033312,-0.011212,-0.079394,0.13892
-0.058449,-0.44712,-0.10682,0.070861,-0.016828,0.059795,-0.07587,-0.093455
-0.61035,-0.10532,-0.15235,-0.1831,-0.054263,-0.069688,-0.029299,-0.24579
0.85131,-0.092201,0.021683,0.071756,0.034166,0.23419,0.20886,0.2364
-0.81447,0.2564,0.39086,0.2882,0.13118,0.1047,0.12228,-0.084826
0.70975,0.32365,-0.069818,-0.15165,-0.060347,-0.16138,-0.24357,0.00099428
-0.15101,-0.62432,-0.13576,-0.022143,-0.072081,-0.14266,0.086146,0.040478
-0.35525,-0.071349,0.25344,0.097598,0.0095718,-0.1758,-0.17157,-0.23978
-0.26745,0.6469,-0.30238,-0.23077,-0.050237,0.34006,-0.0024766,0.082352
0.25682,-0.26651,0.00050355,0.015662,0.084016,-0.080072,0.076975,-0.024079
-0.034876,-0.030841,-0.22056,-0.006939,0.021398,-0.046088,0.090064,0.18321
0.50523,0.14996,0.12955,0.022077,-0.042949,-0.058467,-0.040886,0.20394
0.026542,-0.13908,0.56113,0.50184,0.070655,0.2026,0.044428,-0.22039
-0.79669,-0.17998,-0.42258,-0.43392,-0.043856,-0.12285,-0.066832,0.026459
0.91397,0.23008,-0.091454,-0.12793,-0.081415,0.042686,-0.068646,-0.064287
-1.0406,-0.20552,-0.028012,-0.055785,0.036665,0.026723,0.10274,-0.14171
0.76568,0.22502,0.17676,0.095814,0.037629,-0.093052,-0.067297,0.22376
-0.65584,-0.11766,-0.22542,0.13987,-0.054375,0.034781,0.031244,-0.27211
0.38488,0.088265,0.34397,0.24843,0.058151,0.0042247,0.031337,0.074744
0.30288,-0.21049,-0.14733,-0.063002,0.024083,0.034688,0.065488,0.23422
0.097524,0.29964,-0.060945,-0.51341,-0.062644,-0.15409,-0.16388,-0.12074
-0.014457,-0.31051,-0.024922,0.22525,0.001008,0.087454,0.13914,0.12777
-0.21559,0.25574,0.47306,0.19228,0.16004,0.041624,-0.049935,-0.059061
-0.59479,0.19286,-0.37455,-0.064775,-0.18759,-0.040875,-0.060184,-0.18146
0.16578,-0.57868,0.1491,-0.13866,0.012282,0.043247,0.037361,0.12715
0.38472,0.3378,-0.33159,0.11233,0.016948,0.0044619,0.015741,-0.04032
-0.15761,-0.051745,-0.56601,-0.31105,-0.01779,0.037023,-0.04698,0.010584
0.25721,0.18066,0.53315,0.044344,0.040517,0.069146,0.021315,0.044722
-0.23021,-0.65381,0.13913,0.052393,0.0040854,-0.21328,0.041401,-0.079067
0.56772,1.0456,0.17449,0.70293,0.013337,0.08674,0.068556,0.21711
-0.74723,-0.57283,0.0685,-0.39802,0.013473,-0.10991,-0.15439,-0.28538
0.22378,-0.27425,0.56978,0.26142,0.08264,0.16516,0.060697,0.13265
0.028393,0.19242,-0.37803,-0.21262,-0.16178,-0.11117,-0.012186,-0.012453
-0.22278,0.32862,-0.51033,-0.53294,-0.039732,0.093346,0.018057,-0.12609
0.43284,-0.24686,-0.076652,0.23027,0.043063,0.030185,0.06583,0.2301
-0.19038,-0.24357,-0.65286,-0.43647,0.016854,-0.064479,-0.032753,-0.076007
0.11243,0.52686,0.35837,0.65016,-0.00070739,0.029975,-0.074592,-0.0049803
-0.50906,-0.48226,0.31236,-0.12285,0.037481,-0.14571,-0.05215,-0.11935
0.16415,-0.029418,0.25848,-0.025344,0.02977,0.0034589,-0.02069,0.017924
0.091984,0.79805,0.61088,0.33541,0.061717,0.017101,0.065762,0.085686
0.27197,-0.70488,-0.43785,-0.20443,-0.085974,0.17621,0.096638,0.028164
0.35669,-0.21198,0.287,0.23643,0.086176,0.1516,0.28934,0.19581
-0.49409,0.47073,-0.47037,-0.27424,-0.20337,-0.21469,-0.32611,-0.14664
0.020311,0.56968,-0.0039029,0.30782,-0.040493,-0.018392,-0.055214,-0.21047
-0.21993,-0.93703,-0.78471,-0.79248,0.13777,-0.034785,-0.046497,0.020231
0.33949,0.79003,0.907,0.43258,0.066496,-0.0073475,0.013346,0.069901
-0.080321,-1.0017,-0.79171,-0.33571,-0.13636,0.047827,-0.0068637,-0.03655
-0.091523,-0.29046,0.21935,0.077412,0.076665,0.0061647,0.12162,0.054046
-0.64809,0.39855,0.49393,0.40182,0.041697,-0.27179,-0.20046,-0.18044
0.28887,0.26481,0.060928,0.062094,-0.0071746,0.34058,0.26318,0.31534
0.4371,0.66866,0.46206,0.18452,-0.047274,-0.014479,-0.064438,0.11931
0.67614,-0.28353,-1.0769,-0.61431,-0.04063,-0.12478,0.012075,0.058612
-0.95375,-0.083082,0.69007,0.28812,0.12874,0.049323,0.0073849,-0.44643
0.27159,-0.021058,0.022652,-0.20583,0.0145,0.093572,-0.088136,-0.045934
0.26845,0.086967,0.43009,0.67271,-0.040238,0.014873,0.09822,0.14145
-0.5021,-0.71424,-1.0614,-0.56496,-0.16833,-0.14127,-0.18586,-0.057103
0.26402,0.27916,0.030036,-0.086264,-0.048891,0.092398,0.22958,0.24084
0.051374,0.20472,-0.41192,-0.08823,0.17852,-0.10569,-0.10972,-0.058271
-0.5754,-0.44401,0.34301,0.046459,-0.070725,0.0058984,-0.071187,-0.12572
0.70106,0.8617,0.7693,0.28064,0.18121,0.09893,0.15057,0.1878
-0.15839,-0.69036,-0.072042,0.016024,-0.096013,-0.11516,-0.19303,-0.1402
-0.82319,-0.10649,-0.089426,-0.063581,-0.066039,-0.08859,-0.10803,-0.23384
0.73423,0.32538,0.68215,0.19462,0.11472,0.19532,0.26667,0.25129
0.049928,-0.01265,-1.06,-0.4631,-0.10123,-0.043796,0.0026176,-0.036052
-0.11378,0.094707,-0.71446,0.099359,-0.011717,0.046116,0.0065867,0.075925
0.50444,0.094124,0.44305,0.048218,0.046331,-0.0036835,0.012691,0.094615
-0.069694,0.70317,0.033152,-0.22521,0.048612,0.079842,0.18414,0.042874
-0.45215,-0.94804,1.0964,0.70007,-0.028858,-0.086717,-0.22234,-0.22041
-0.22044,0.34061,-0.17209,-0.27209,-0.053406,-0.011687,-0.17639,-0.078166
0.19622,-0.89413,-0.12466,0.096974,-0.079462,-0.11713,-0.014367,0.0090519
-0.19377,0.20594,-0.71477,-0.45467,-0.012727,-0.058999,0.029597,-0.028179
0.18059,-0.2189,0.34835,0.053319,0.10841,0.10872,0.096874,0.10039
0.41357,0.33093,-0.1177,0.28946,0.13611,0.066691,0.1572,0.17716
-0.2526,0.5492,-0.22081,-0.34222,-0.054224,0.034603,-0.093224,-0.1174
-0.34215,0.52628,0.64635,0.54799,-0.0093365,-0.025957,-0.0054899,-0.095625
0.27606,0.13198,-0.60062,-0.45353,-0.14336,-0.036701,-0.032793,0.046576
0.28713,-0.60846,0.042008,-0.056168,0.043517,0.041043,0.066434,0.12046
-0.10078,-0.54414,0.67208,0.1956,0.0042575,-0.020166,-0.013504,-0.016285
-0.03087,-0.42035,-1.0751,0.10933,0.074711,-0.065283,-0.086273,-0.060775
-0.20817,0.27872,0.76836,0.22698,-0.041979,0.091885,-0.043563,-0.077074
-0.46946,0.35352,-0.45161,-0.59726,-0.064477,-0.057654,0.090441,-0.058401
0.45126,-0.064712,0.66046,0.12301,0.061983,0.063366,0.088878,0.13554
0.024036,0.1252,-0.012657,-0.056398,-0.045414,-0.092334,-0.11837,-0.072954
0.15702,0.13342,0.14261,0.22392,0.07412,-0.0090405,-0.015046,0.051502
0.18032,0.090222,-0.41798,0.025345,0.021856,0.063785,-0.061152,0.041594
-0.27148,-0.12667,-0.27702,0.15816,-0.022906,-0.05268,0.11937,-0.054223
0.16232,-0.017248,-0.17046,-0.30248,0.025407,0.11133,0.058759,0.093668
-0.29079,-0.083792,-0.056364,0.10899,-0.036542,-0.10723,-0.10162,-0.13073
0.1275,-0.080059,1.089,0.25696,-0.029014,0.065888,0.083929,0.038975
-0.3874,0.052155,-0.52603,-0.31352,-0.061038,-0.0015508,-0.095513,-0.076703
0.32035,-0.050515,0.022015,-0.12627,-0.038286,-0.082735,0.00035258,0.060957
-0.3128,-0.070838,-0.98161,-0.20368,0.071132,0.048861,0.035029,-0.0098482
0.91448,0.15337,0.84263,0.29249,0.041153,0.072658,0.070349,0.2565
-0.3127,0.01991,-0.4788,-0.0097814,0.075074,-0.066433,-0.081826,-0.25861
-0.028184,-0.02554,0.7413,0.47064,0.063274,0.0296,0.0076944,0.091936
-0.367,-0.036567,0.45129,-0.41223,-0.17455,-0.04585,0.010512,-0.028745
0.23218,0.09769,-0.75676,-0.13344,0.0561,-0.027379,-0.03434,-0.081947
-0.089773,-0.050887,0.57237,0.40912,0.02006,0.022435,-0.0095039,-0.0048744
-0.54979,-0.051178,-0.88211,-0.38646,-0.12694,-0.021374,-0.031885,-0.14044
0.59728,0.012013,0.55043,0.39304,0.1228,0.12251,0.094098,0.18434
-0.23887,0.0457,-0.41935,-0.39404,-0.10541,-0.053707,0.01703,0.079938
0.28859,-0.035689,-0.37549,-0.18612,-0.068718,-0.096991,0.018125,0.054904
0.50199,0.0022221,0.77257,0.26608,0.16332,0.070555,-0.035643,-0.038964
-0.684,0.0028808,-0.4913,0.071407,0.013278,0.0032782,-0.074277,-0.12382
0.20641,0.020464,0.56884,0.1591,0.083111,0.083598,0.058158,0.073134
-0.12543,-0.0081345,0.40897,0.16139,-0.080254,-0.048212,-0.029165,-0.019171
-0.15828,0.0024346,-0.66286,-0.58656,-0.10991,-0.064236,0.0074873,-0.026356
0.36359,-0.0029807,-0.5888,-0.023338,0.095206,0.0042823,0.043314,0.027838
-0.4599,-0.0090221,0.071165,0.1622,-0.051375,-0.053344,-0.046299,-0.12213
0.18271,-0.0079147,0.67793,-0.00031727,-0.042286,0.0055203,-0.010848,0.063209
0.10338,-0.015113,0.48186,0.54985,0.13785,0.15017,0.033007,0.060992
0.028466,-0.022495,-0.25203,-0.25927,-0.050056,0.0061408,-0.0080432,-0.018881
-0.089058,0.064034,-0.47029,-0.13981,-0.12146,-0.13713,-0.039976,-0.027673
0.35221,0.0025546,-0.51016,-0.28744,0.088007,0.0096245,0.070063,0.15177
-0.41353,0.0041111,0.27599,0.10333,0.047405,0.04011,0.017194,-0.059013
0.38716,-0.040773,0.95057,0.25328,0.0069897,0.071299,0.0041611,0.058183
-0.50322,0.039482,-0.39193,-0.076738,-0.033124,-0.061208,-0.086709,-0.24718
0.18181,-0.013369,-0.39872,-0.21908,-0.033924,-0.014028,0.0019165,0.032344
-0.11891,-0.012298,-0.76379,-0.23272,-0.0034249,-0.029661,0.027464,0.052922
0.23693,-0.0045907,0.87314,0.74453,0.065874,0.047958,0.028766,0.072582
-0.084878,0.017308,0.14487,-0.20755,-0.076378,-0.039016,-0.025482,0.029252
-0.067295,-0.016958,0.24566,-0.073039,0.069505,0.029841,-0.018001,-0.092166
-0.045438,-0.013452,0.54088,0.14716,-0.027925,-0.034319,0.0045239,-0.0021218
0.34798,0.02041,-0.58071,-0.13454,-0.0014851,0.034384,0.026694,0.088815
0.10459,0.0070424,-0.96386,-0.43558,-0.030621,0.017447,0.0018403,-0.02228
-0.37029,0.0017352,0.18908,0.40677,0.12737,0.047886,0.039491,0.024021
-0.09325,-0.018382,0.80276,0.24358,-0.12831,-0.06946,-0.10245,-0.14734
-0.04929,0.0018265,-0.89175,-0.38556,-0.046714,-0.05323,0.052626,0.057308
0.37865,0.00011958,0.74351,0.16918,0.052838,0.026342,0.028189,0.090992
-0.31686,0.02341,-0.25579,-0.25445,0.061842,0.052113,-0.0038268,-0.015081
0.02885,-0.006613,-0.19199,-0.25643,-0.10508,-0.038422,-0.027697,-0.034372
0.0022397,0.0034314,0.63718,0.69511,0.15374,0.043706,-0.035466,-0.068479
-0.045113,-0.0094423,-0.67112,-0.29924,-0.06843,-0.068895,0.0042749,-0.03157
0.40167,0.0089388,0.85997,0.07792,-0.11639,0.037501,-0.0021074,0.099547
-0.11992,-0.027819,-0.57594,0.29845,0.094275,-0.02037,0.062587,0.043185
-0.072987,0.0049554,0.27708,-0.24511,0.061733,0.069464,0.018533,0.017473
0.15729,-0.00227,0.0048776,0.12087,0.065369,0.025223,0.013866,0.037292
-0.66547,0.044274,-0.43595,-0.20242,-0.11517,-0.11447,-0.13934,-0.25746
0.38731,-0.050554,-0.24814,-0.14758,-0.035656,0.025143,0.097516,0.20298
0.073475,0.018216,0.11275,-0.18346,-0.094838,-0.032498,-0.010362,-0.073769
0.04277,-0.0069009,0.28132,0.35694,0.10622,0.048843,-0.0022947,0.037525
0.00073935,0.01504,-0.11304,-0.013009,-0.0093379,0.011916,-0.0033151,-0.017104
0.10683,-0.0094521,0.15329,0.02649,0.11501,0.052795,0.041491,0.075983
-0.2917,0.029164,0.067963,-0.13383,-0.042024,-0.054215,-0.070528,-0.11148
-0.21506,-0.017491,-0.033266,0.060243,-0.087711,-0.050449,-0.010598,-0.038947
0.22199,-0.032273,0.079286,0.090969,-0.067121,-0.028942,0.0032382,0.0058276
0.20015,0.015941,0.013289,0.18042,0.13815,0.049813,0.018471,0.094009
0.12499,0.0097768,0.043953,-0.31927,-0.033922,0.05307,0.051099,0.061722
-0.27935,-0.0041079,-0.16612,0.14447,0.041264,-0.0039262,-0.03167,-0.099439
0.22548,0.0053144,-0.37015,-0.22966,-0.059345,-0.067305,0.019785,0.023243
-0.083832,0.0065965,0.13931,0.028859,0.053077,0.064902,-0.029637,-0.017462
-0.14139,0.0074083,0.66461,0.38199,0.0014131,0.0085693,0.0066109,0.0028257
0.13541,-0.015751,-0.66152,-0.067504,0.025785,0.043713,0.065044,0.12892
0.26064,-0.015977,-0.054969,-0.059487,0.0073685,-0.072764,-0.011399,0.054582
-0.73385,-0.0087715,0.71707,-0.2616,-0.19535,-0.067809,-0.12161,-0.33026
-0.064085,0.02168,-0.79673,0.043746,0.1442,-0.02712,0.023488,-0.0175
0.45384,0.0052831,0.68974,0.1314,-0.074586,0.07358,0.0025307,0.11136
0.20765,0.0047406,-0.65993,-0.21373,0.0015031,0.0011987,0.058611,0.097436
0.14721,0.0045703,0.57724,0.10733,0.093268,0.093162,0.013168,0.044712
-0.26325,-0.034232,-0.8549,-0.048027,-0.070703,-0.10224,-0.023294,-0.036658
-0.33485,0.028926,0.86496,0.4116,0.081505,0.033288,-0.026433,-0.097969
0.0096707,0.0064346,-0.11552,-0.11119,-0.050803,-0.05436,0.0042576,0.041462
0.18915,-0.023739,-0.49516,-0.28599,-0.014525,0.0098156,-0.02498,-0.079324
-0.090353,0.016363,0.32081,0.027959,0.025369,0.045533,0.033757,0.022991
0.61057,0.0016029,-0.076317,-0.069757,0.051655,0.051728,0.093552,0.23711
-0.12026,-0.01341,0.67517,0.28439,0.023297,0.019255,-0.018708,-0.072234
-0.053109,-0.0052379,-0.86207,-0.19561,-0.10071,-0.08447,-0.054267,0.0065004
-0.12768,0.010568,0.74091,0.49301,0.076536,0.020744,-0.014097,-0.083432
-0.67101,0.010694,-0.88326,-0.46668,-0.11762,-0.1188,-0.031477,-0.1088
0.11818,-0.035973,0.79053,0.14878,0.059089,0.1063,0.018753,0.032005
-0.081159,0.011292,-0.53789,-0.23201,-0.095554,-0.061174,-0.057952,-0.089471
0.50477,0.011894,0.092369,-0.10025,-0.08006,-0.0030694,0.020864,0.11485
-0.14779,0.02045,-0.5501,-0.25776,0.19321,0.070808,0.022199,-0.032155
0.2475,0.013359,0.24309,0.45575,0.085134,0.0052174,0.033221,0.0031669
0.54382,-0.02523,0.93148,0.404,0.065476,0.097716,0.13287,0.33975
-0.47966,-0.017425,-0.39249,-0.35449,-0.1623,-0.12021,-0.12391,-0.24041
-0.14047,-0.0024647,0.48779,0.19865,-0.090691,-0.078432,-0.057794,-0.04227
-0.24211,0.011766,-0.56396,-0.060103,0.13111,0.12874,0.041328,-0.059199
0.22442,0.0018907,-0.40435,-0.1929,-0.021311,-0.022871,0.0082657,0.050854
0.0039993,-0.016276,-0.14165,-0.14553,-0.064519,-0.026221,0.037159,0.1298
-0.26554,0.027867,0.15315,0.034142,0.016411,-0.0069569,-0.037041,-0.15989
-0.18589,-0.00597,0.078889,-0.014571,-0.0054481,-0.02019,-0.027452,-0.022389
0.32314,-0.039336,0.43536,0.21452,0.010506,-0.0035713,-0.012347,0.010646
0.31189,0.045218,-0.026611,-0.069654,0.064518,0.035193,0.039854,0.0801
-0.27833,0.0056636,0.41899,0.083568,-0.022713,0.041718,-0.018577,-0.039828
0.20414,-0.0095257,-0.40831,-0.055226,-0.10236,-0.069518,-0.022654,-0.043419
0.026972,-0.016058,0.031156,0.16723,0.099315,0.037867,0.020744,0.10162
-0.30911,0.017137,-0.45443,-0.18148,-0.026956,-0.018535,-0.0048327,-0.09605
0.50015,-0.027362,-0.47474,-0.11889,0.073452,0.042837,0.12758,0.2625
-0.60102,0.029875,0.89616,0.37777,-0.03716,-0.012197,-0.10546,-0.29135
0.073614,-0.014514,-0.6308,-0.55,-0.054341,-0.10545,-0.040264,0.0077904
0.23398,0.0033387,0.79053,0.4597,0.076438,0.075515,0.064692,0.14387
-0.073571,-0.010452,-0.4853,-0.34713,-0.097938,-0.016373,-0.056979,-0.14146
-0.11471,0.022163,0.043459,-0.020567,-0.014745,0.063901,0.070582,0.10443
0.032646,-0.031645,0.27425,0.19399,0.06081,0.011288,-0.021868,0.0061786
0.024926,0.031272,-0.11016,0.019105,-0.0035685,-0.033948,-0.037632,-0.077047
0.30726,3.0972e-05,0.29558,0.12896,0.042621,-0.025221,0.0078341,0.018804
-0.30862,-0.031551,-0.59897,-0.085403,-0.034644,-0.056424,-0.041246,0.012614
0.066532,0.030345,-0.043134,-0.063028,-0.00088233,0.020916,0.042352,-0.0094623
-0.27228,-0.0095285,0.56397,-0.080537,-0.090653,0.082014,0.032759,-0.031577
0.44633,-0.018303,-0.1924,0.32659,0.17214,-0.0056029,-0.030412,0.13392
0.13459,0.011882,0.10245,-0.25241,-0.088171,-0.054035,-0.037512,-0.07543
-0.27893,0.057637,-0.43915,-0.0090662,0.057347,0.0074069,0.034829,0.012149
-0.19272,-0.060679,-0.07698,-0.18062,-0.063865,-0.039739,0.10028,-0.11916
-0.066474,-0.014883,0.47127,0.20037,0.00085909,0.093738,0.048852,0.069465
0.047626,0.015397,-0.3298,-0.045424,0.032638,-0.014043,-0.19041,0.085605
0.34049,-0.016659,0.61903,0.2714,-0.046409,0.011761,0.0226,-0.031824
-0.098165,0.053037,-0.89474,-0.34614,-0.0091515,-0.063488,-0.077965,0.053104
0.16481,-0.033353,0.68953,0.13681,-0.018895,0.0098865,0.10174,-0.10476
-0.68053,0.0053388,-0.77192,-0.22147,0.050116,-0.018447,0.015226,-0.098837
0.28881,-0.0029031,0.84862,0.1757,-0.012505,0.015261,-0.016696,0.07133
0.34567,0.012064,-0.38595,-0.068273,0.027796,0.048227,0.053332,0.14057
-0.090348,0.0032029,0.70229,0.35174,-0.016742,-0.083862,-0.11815,-0.17204
0.1802,-0.0061536,-0.71816,-0.18236,0.071974,0.087538,0.11732,0.12574
-0.40962,-0.016013,-0.22173,-0.047526,-0.027253,-0.00021507,-0.0061577,-0.021008
0.057686,-0.0028195,0.42989,0.1288,0.051896,0.01223,-0.020317,-0.050345
0.26616,0.010231,-0.0082764,-0.14781,-0.089597,-0.062485,-0.019485,0.13856
-0.20792,4.1561e-05,-0.10779,-0.042932,-0.10808,-0.0052551,-0.011985,-0.095687
-0.15337,-0.0017553,-0.44636,-0.1429,0.028171,0.004792,0.033129,-0.050519
0.080514,-0.0026138,0.60277,0.052966,0.02322,-0.016007,-0.05602,0.0082113
-0.017909,0.0055412,-0.60645,-0.071125,0.034498,0.011216,-0.013492,-0.052094
0.25943,0.015006,0.95169,0.34575,0.070914,0.06365,0.090979,0.17545
-0.16844,-0.028988,-0.61204,-0.22662,-0.069953,-0.084921,-0.04658,-0.13633
-0.22711,0.01391,-0.070999,0.18054,0.026049,0.018579,-0.027031,-0.025443
0.21861,0.0026392,0.41718,0.03476,-0.0010382,0.022092,-0.0061019,0.079362
0.059515,0.014786,-0.032815,-0.04908,0.089828,0.06535,0.063312,-0.047858
0.19195,-0.0048907,0.044751,-0.0036025,-0.06999,-0.016863,0.0092055,0.085231
0.049404,-0.0021759,-0.72006,-0.24576,-0.0053276,-0.053856,-0.043882,-0.029557
-0.49831,-0.0086246,0.26475,0.18324,-0.0062442,0.031535,0.043984,-0.033667
0.2544,-0.0086877,0.27246,0.024758,-0.041809,-0.01118,0.029859,0.10306
0.11557,-0.010007,0.71873,0.12333,-0.033428,-0.0021858,-0.086889,-0.065787
-0.33161,0.0034267,-0.9713,-0.32338,-0.050238,-0.09695,-0.025353,-0.087962
0.26388,0.0086938,-0.59007,-0.17121,0.1125,0.057402,0.073876,0.12206
-0.22903,-0.024911,0.53905,0.11512,-0.082586,-0.053169,-0.08566,-0.15435
-0.1036,0.02026,0.4827,0.24246,0.04554,0.0025614,-0.0032708,0.020955
0.28554,0.058558,-0.40503,0.065069,0.18511,0.14763,0.056216,0.055243
-0.11918,-0.0036906,0.89171,0.38099,-0.054539,0.04664,0.015382,0.012147
0.413,-0.041607,-0.81685,-0.40396,-0.0022344,-0.011477,0.06218,0.13486
-0.38077,-0.00076646,-0.18352,-0.088382,-0.065373,-0.074335,-0.022029,-0.14625
0.031692,-0.045553,0.22354,-0.073181,-0.10459,-0.088368,-0.049967,-0.0028461
0.016634,0.011226,0.015671,-0.1969,-0.08969,-0.039183,-0.037731,-0.0054768
0.20437,0.052147,0.60996,0.38973,0.1583,0.087741,0.06097,0.11868
-0.44772,-0.0088753,-0.75416,-0.3853,-0.024988,0.018141,-0.051298,-0.15468
0.4548,0.0077902,0.22801,0.28942,0.055778,0.0015291,0.031284,0.14228
-0.32622,-0.015031,-0.43281,0.11648,0.02578,-0.01696,-0.011845,-0.13971
-0.12197,-0.022592,0.45634,0.11143,-0.099122,-0.029452,-0.032306,-0.032523
0.41722,-0.0070049,-0.69917,-0.27997,0.12661,0.058025,0.055924,0.10416
-0.052956,0.00054129,0.93591,0.37292,0.10945,0.097341,0.026453,0.067194
0.077778,0.046947,-0.10926,-0.38145,-0.2284,-0.18459,-0.058026,-0.010328
-0.34465,0.0071969,-0.5035,-0.41598,-0.089628,0.03292,-0.002037,-0.13572
-0.098335,-0.0093767,0.4012,0.256,0.034176,0.039302,0.053903,0.082287
0.13281,0.0050122,0.15548,0.33963,0.13585,0.030226,-0.015165,-0.082202
-0.0071896,-0.043352,-0.40405,-0.093728,-0.11217,-0.079938,-0.053003,0.0041872
0.28107,0.009723,0.3073,-0.31788,0.095028,0.037152,0.034084,0.091773
-0.0090858,-0.0074098,0.13168,0.55574,0.0072485,-0.0012348,-0.019614,0.016457
-0.31564,-0.00071641,-0.5015,-0.070194,0.022225,0.00013043,0.020171,-0.073747
0.10941,-0.040245,0.43378,0.088927,0.037298,0.040991,0.0048754,0.070396
0.513,0.061658,-0.4154,-0.072858,0.004307,-0.011867,0.043732,0.080741
-0.41297,0.0080901,-0.053973,-0.45733,-0.093565,0.012939,-0.08216,-0.15304
-0.085564,0.048816,0.14197,-0.19095,-0.17904,-0.088213,-0.0057539,-0.022307
-0.24111,0.01156,-0.20876,0.13331,0.067848,0.020196,0.030645,-0.035215
0.080816,-0.080708,0.34969,0.43243,0.13167,0.033213,0.026972,0.066176
0.21709,-0.040901,0.49916,0.24218,0.059939,0.03671,0.022301,0.079325
-0.080232,0.029177,-0.95568,-0.47127,-0.076119,-0.04728,-0.037935,-0.065131
0.25399,0.0045112,0.63033,0.078476,0.068285,0.086314,0.018397,0.087109
-0.26979,-0.020945,-0.35149,-0.18244,-0.044886,-0.069747,-0.042669,-0.10334
-0.024385,0.039097,-0.052584,0.17846,-0.070954,-0.092884,-0.033103,-0.080639
0.33539,0.013157,0.896,0.16219,-0.040389,-0.0057933,0.03207,0.14833
-0.088287,0.010947,-0.69343,-0.044618,0.13333,0.11405,0.036223,-0.040864
-0.12366,-0.029823,-0.11858,-0.03827,-0.065067,0.032713,-0.012411,0.031609
-0.15423,0.0080943,-0.13741,-0.24441,0.0051203,-0.0074743,0.026969,-0.048649
-0.079485,-0.015999,0.1267,0.19972,0.031178,-0.045752,-0.064507,-0.032427
-0.04925,0.030563,-0.14255,0.031954,0.0048027,0.0033763,0.040879,0.0010015
0.2942,0.014818,0.49119,0.12355,0.034654,0.029938,0.029987,0.097141
0.17552,-0.047704,-0.048925,-0.15304,-0.12231,-0.083871,-0.019807,0.020225
0.13956,-0.024191,-0.15018,-0.24425,-0.013862,0.028622,0.015772,0.050312
-0.21402,-0.00049072,0.06721,0.17065,0.10136,0.031148,-0.051338,-0.13369
-0.3397,0.031352,-0.5083,-0.031561,0.043005,-0.0060988,-0.010491,-0.12576
-0.058324,0.024589,0.30091,0.10493,-0.048727,-0.028355,0.0055142,0.04322
0.16189,0.010517,-0.078052,-0.03391,-0.033328,0.011471,0.004789,0.030364
0.095933,-0.02657,0.73393,0.19565,0.03474,0.058979,0.026886,0.12588
0.14453,-0.00095109,-0.21366,0.069694,-0.039281,-0.041794,-0.029201,-0.012827
-0.049021,-0.01451,-0.85732,-0.51922,-0.020209,-0.024986,0.055777,0.01366
-0.091491,0.0026957,0.81021,0.28934,0.061638,0.062672,0.008721,-0.051863
-0.16818,0.042513,-0.88481,-0.32483,-0.16005,-0.13035,-0.084301,-0.052924
0.23025,-0.012484,0.97653,0.28588,0.13568,0.099002,0.057883,0.04941
0.11227,-0.021751,-0.16419,0.37757,0.1522,0.031798,0.020965,0.028187
-0.36618,-0.039858,-0.28005,-0.27871,-0.13411,0.011545,-0.078209,-0.078068
