-0.0036213,0.0076308,-2.7738e-05,0.0014197,0.010023,0.0088902,0.00014792,-0.011242
0.0039132,0.0071821,0.00048122,-0.0062264,0.0091208,-0.0073872,-0.001752,-0.0034562
-0.011686,-0.0088211,-0.0066895,0.0013298,-0.023065,-0.00058012,0.0043401,0.0042919
0.004285,-0.0090799,-0.0059993,0.008471,0.0073012,0.0060158,0.0029537,0.012056
0.0049261,-0.009177,0.0024523,-0.00036863,-0.0090777,-0.018663,-0.0058177,0.0042649
-0.0020183,-0.0012598,-0.0048689,-0.0016478,-0.0018232,-0.0041076,0.009301,-0.0034172
-0.0010283,0.0068921,0.011022,-0.0030424,0.013482,0.026415,-0.0064142,-0.0031641
0.0077674,-0.00033226,0.0031998,0.0034147,-0.0022119,-0.0051155,0.0016442,-0.0028002
0.00079744,0.0082963,0.0029014,-0.013373,0.013572,0.0028848,0.0021264,-0.0023565
-0.0064306,0.0092745,-0.01329,0.0014139,-0.00953,-0.0043432,-0.012876,-0.0018744
-0.013998,-0.0053206,-0.0062568,0.016616,-0.0090863,-0.003509,0.011252,0.0064165
0.009314,-0.0043802,0.00063987,0.0010159,-0.00079301,0.0051958,-0.011472,0.0068546
0.0010271,-0.011488,0.015301,-0.0063529,-0.00033525,0.0059508,0.0048758,-0.0083995
0.0080871,0.0044829,-0.0012537,-0.0055789,5.8196e-05,-0.017028,0.0056072,-0.0081128
-0.0006486,0.0043967,-0.002082,0.0032068,0.0081781,-0.0013303,-0.0014632,0.007707
-0.0016138,0.0038713,-0.0027662,0.0042277,0.00058096,0.0061608,-0.00072026,-4.915e-06
-0.0024874,0.0029709,0.0045272,-0.0026622,0.00070841,-0.002293,-5.4432e-06,1.3319e-06
-0.01096,-0.013802,-0.0036336,0.0058581,-0.0070545,0.0046943,0.0084482,0.0077261
0.0043115,0.00060014,-0.0038114,-0.017157,0.00074401,0.0038532,0.0011511,-0.0080786
0.004317,-0.0005113,0.0039965,0.0064037,0.00068526,-0.0046504,-0.014127,0.0072824
0.0046807,0.0064705,-0.0036387,-0.0015484,0.008419,0.0027547,0.0016559,-0.0086718
0.0053479,-0.0017733,0.0045471,0.013754,-0.0072735,-0.0051035,-0.006173,-0.0012192
-0.0015944,0.0060523,-0.0026847,-0.010088,0.00051977,-0.0047758,0.0093073,0.0062526
-0.0084619,0.0064721,-0.0018978,0.0051598,-0.0072253,0.011496,0.0012902,-0.0096349
0.00023824,-0.0084385,-0.00092988,-0.0029109,0.00077433,0.0045426,0.0010992,0.0058623
0.00095666,0.00022001,0.00016144,-0.0029827,0.0089122,0.0054774,-0.0068318,-0.0019032
-0.0063802,-0.0067954,0.0090972,-0.0028363,0.0015583,-0.017087,0.0087745,-0.0016708
0.0016384,0.0016023,0.0023214,0.0053345,0.0021156,-0.0085749,-0.0067829,0.014347
0.0094056,0.0018595,0.0031428,0.0058635,-0.012918,0.0075132,-0.0066844,-0.00078497
-0.0064626,0.0017377,-0.011993,-0.0091292,0.0032455,-8.1718e-05,0.016796,-0.0080839
0.0087955,-0.006556,-0.004106,0.0071519,0.0036294,0.0077439,0.0010588,0.0079914
-0.0072391,0.008311,-0.0044748,-5.5078e-05,0.003761,-0.00018529,0.00070741,-0.015125
0.00019604,-0.00040748,0.0025548,0.00044822,-0.0042506,-0.00034418,-0.0077392,-0.0071562
-8.934e-05,-0.0013099,0.0092525,0.00083284,0.00299,-0.0082785,-0.0086366,0.0084621
-0.0080564,-0.0020603,0.00011348,-0.014504,0.0020531,0.007316,-0.0018942,0.00050915
0.015373,-0.0025382,0.006527,-0.0064465,-0.0069963,-0.0082297,0.004826,0.0080915
-0.0079345,-0.002672,-0.010429,0.0094439,-0.00060149,0.0075647,-0.0039183,0.0078155
0.0079331,0.0053605,0.0040637,0.0097788,-0.0020404,0.007771,0.0032975,-0.00028472
-0.0073751,0.0058789,0.0032395,0.0023807,-0.0033253,-0.0076839,0.0031612,-0.016187
0.00078689,0.0065845,-0.012817,-0.0049803,0.0035155,0.0001876,0.011342,-0.00081321
-0.0066815,-0.0082935,0.0028235,0.011043,0.0029687,7.858e-05,0.0043553,0.0067887
0.0092526,0.00015667,-0.0045116,-0.0043551,0.0028878,-0.0080333,-0.010117,-0.001176
-0.013932,-0.0072524,0.012024,-0.0044098,0.011048,0.0071226,-0.0010036,-0.0012508
0.0175,-0.0071577,0.0054782,-0.0048154,0.0039088,-0.009079,-0.0075582,-0.0012357
0.0019746,0.0082421,-0.0086474,-0.0055722,-0.010862,0.0059537,0.0013102,-0.001135
-0.013644,0.0077461,0.00073967,-0.0066036,-0.017788,0.013262,-0.0057485,-0.00097847
0.0096966,-0.0085508,0.0022162,0.0078565,0.0064532,-0.010499,0.0024849,0.0069865
-0.0061333,-0.0014692,-0.0043823,0.0067328,-0.00070716,-0.0027622,0.010417,0.0070513
-0.0064445,0.013481,0.0042506,-0.001993,-0.00021967,-0.0025651,-0.0053177,-0.00087613
0.016588,-0.010482,-0.0032136,0.013055,0.00013023,-0.0021166,0.0022421,-0.0012459
-0.0073252,0.012636,-0.0033517,-0.010564,0.0082004,0.014143,0.0019205,-0.0019023
-0.0078368,-0.01871,0.0038861,0.0052576,0.0084075,0.0070518,-0.0062376,-0.018438
0.0072834,0.012648,-0.0048342,-0.0020611,0.00077672,-0.01569,0.009027,0.0039373
-0.0009796,-0.010525,0.001875,-0.0092051,0.00094051,0.00049845,-0.0069954,0.0028837
0.0064849,0.0054599,0.00072403,-0.00068565,-0.014539,0.00085246,0.0081564,0.0020256
-0.0015286,0.0058451,0.0074727,-6.3603e-05,-0.0065963,0.00096194,-0.0080537,0.0093485
-0.0093594,-0.0094324,-0.0012122,0.0081939,0.0013489,-0.014787,-0.0009518,-0.0062779
-0.0013605,0.0064531,-0.0018286,0.00059878,0.0015117,0.00834,0.006048,0.0098719
0.0068452,-0.0012145,-0.0021636,0.0005806,0.001731,0.0079124,-0.010426,-0.004755
-0.0082038,-0.0011889,0.0055885,0.00035681,0.0020141,-0.00037628,0.0044164,0.0043962
0.015938,-0.0012598,-0.0098513,-0.01564,0.010147,0.0069665,-0.0039912,-0.0097339
-0.0067507,0.0064315,-0.0016498,-0.00046409,0.01044,-0.0012744,0.011343,0.0073424
0.0017486,-0.0093019,-0.0011066,0.014706,-0.012825,-0.0016431,-0.0041834,-0.014866
-0.0055534,-0.0015159,0.0073467,0.0064893,-0.012869,-0.0097523,-0.0036643,0.0016356
0.00249,0.0064142,0.00020806,-0.0016385,0.010237,-0.002148,-0.002762,0.0020908
0.0023693,-0.0010943,0.0086548,-0.0018459,0.0017812,-0.0022426,0.0062293,0.0021171
0.0018724,0.0072198,-0.0064523,-0.0019373,-0.014758,-0.0021937,0.0075212,0.0095702
-0.0067809,-0.0077318,-0.0061221,-0.017531,-0.00022128,0.013646,-0.0068931,0.0010917
-0.0078774,0.00086384,0.0017793,0.006072,0.0064683,0.0062184,0.017484,0.00022069
0.0065277,0.0016651,0.0094156,0.006386,0.0054586,-0.0088782,-0.02106,-0.008554
0.0053399,-0.0054374,-0.014449,0.0068573,0.0046892,0.0073657,-0.013227,-0.0016763
0.0043366,0.0028806,0.00055228,-0.0081481,0.0042431,-0.00762,0.0097399,-0.0024685
-0.011983,0.0030808,0.0076293,0.0003951,-0.0036653,0.00078223,0.001056,-0.0030168
0.011144,-0.0049105,-0.00092557,0.0011682,-0.0034364,0.0012706,-7.0662e-05,0.0045654
-0.0043898,0.0023113,-0.0015688,0.0097021,-0.010761,-0.013989,-0.0012854,0.0046863
-0.0039405,0.016953,-0.0020234,0.0024549,0.0055235,0.0097028,0.013188,0.0051428
0.0045864,-0.015596,0.0055823,-0.012854,-0.0093684,0.0020681,0.0043933,0.005871
-0.0023736,-0.0092669,-0.0021687,-0.0050343,0.0069682,0.0022121,-0.0041818,-0.0088543
0.0062908,0.0048669,0.005955,0.0024667,0.0075706,-0.013273,-0.0047273,-0.0079001
-0.00079821,-0.0042503,-0.0091603,0.0018817,0.015802,0.010303,-0.0050931,0.00081003
-0.0081122,-0.0051871,0.0071003,0.0011163,-0.007453,0.010404,-0.0053288,0.0015648
-7.6956e-05,0.017815,-0.0078444,0.00029294,-0.015341,0.0025929,-0.0054769,0.002125
-0.00013056,0.002311,0.00061556,-0.00046065,-0.007842,-0.013209,0.017877,-0.0053396
-0.00041539,0.0029561,-0.0066482,-0.0010353,-0.00052134,0.0019988,-0.0055818,0.0026168
0.0069585,-0.0038038,0.0093766,0.0064535,0.014528,0.0013145,0.010104,0.0025778
-0.0013545,-0.0025168,0.009595,0.0064068,-0.0016444,-0.0074177,-0.0053469,0.010191
-0.0096399,-0.0089999,-0.0060064,-0.0090068,0.0057529,-0.0084831,-0.0050179,-0.013588
0.013426,1.2653e-05,0.0016426,-0.00077861,-0.0022623,0.013878,0.003321,0.0093786
0.0053947,0.008776,-0.0064886,-0.0080455,-0.0022105,-0.0026812,-0.011544,0.00098089
-0.0024521,-0.0061997,-0.0069064,-0.0074504,-0.0019034,-0.0033404,0.0050943,-0.0075054
-0.010099,0.0019742,0.0082779,0.024369,-0.0013779,0.011986,-0.0014647,-0.00041222
-0.0097268,-0.013516,-0.0077248,-0.0063991,-0.00069856,-0.003562,0.0077864,-0.0089297
0.006472,0.0099131,0.0076658,0.0017631,5.2684e-05,0.0046468,0.0014926,-0.0017395
-0.0083957,0.0098325,-0.00017913,0.0019587,0.0007883,-0.0025634,0.0029424,0.0055947
0.01594,0.0019065,0.0078282,-0.013623,0.0092379,-0.0018954,-0.0036648,0.020924
0.0090914,0.001755,0.00042563,0.0019177,-0.0059176,-0.0012935,-0.0028765,-0.0026238
-0.0056105,-0.0062905,-0.0068073,0.0017482,-0.0056627,-0.008662,0.0051723,-0.01039
0.0029573,-0.0066673,-0.0061253,0.0015412,0.0021701,-0.00059554,-0.0030207,-0.0024263
-0.0043921,0.0005696,0.0023962,0.001336,0.0019648,0.0073108,-0.0039911,0.0055855
-0.012128,0.0075852,-0.0047523,0.0011503,0.0015689,-0.00049091,-0.0054285,-0.009833
-0.0046678,-0.0012192,0.0036176,0.00097241,0.0010369,-0.0082789,0.00068303,-0.001822
0.010201,-0.010141,0.011833,0.00076272,-0.015193,0.0074696,-0.0010324,-0.0016206
0.0091289,-0.003435,-0.0035779,-0.0073485,0.015441,0.007738,0.0052991,0.006422
-0.0077479,0.0034083,-0.0035734,0.015645,-0.0007627,0.00033002,0.004253,0.0067039
-0.0012053,0.010513,-0.0037847,-0.00060265,-0.0012749,0.00080748,0.0037557,-0.00077157
-0.0023336,0.0023385,-0.0042024,-0.01702,-0.0017122,0.0012558,0.0038146,-0.00040723
0.0046242,0.002348,0.010824,-0.002293,0.0057296,-0.014065,-0.011291,-7.44e-05
0.011942,-0.0051193,0.0022711,0.0046286,-0.0024026,-0.0061921,0.0051419,-0.0076648
-0.019415,-0.004524,-0.014187,0.003893,-0.0026836,0.0091879,-0.0017852,0.0079903
0.0042761,-0.0037922,0.0083791,-0.0043488,-0.0029247,0.00081274,0.0067893,-4.5565e-05
0.0048102,0.0047748,-0.00029105,0.0034603,-0.0031077,0.0077827,-0.016161,-0.0083574
-0.0023002,0.013276,0.0067227,0.0039384,0.0046132,-0.0088865,0.0074155,-0.0012912
0.006255,-0.017399,-0.0096092,-0.0029425,0.0046526,0.005598,-0.0084099,0.0056125
-0.00089319,-0.0013069,-0.0023941,0.0061403,-0.0029563,-0.0033349,-0.0010551,0.012486
-0.008211,-0.00090312,-0.0028802,-0.00024846,-0.0025746,-0.0043204,0.0061665,-0.011759
-0.00012226,0.0073227,0.012358,0.0011063,-0.0020298,0.010555,0.005573,-0.0044512
-6.5316e-05,5.5662e-06,0.012048,-0.005638,0.0064434,-0.0055039,0.012892,-0.0045077
-0.00018578,-0.007183,-0.011642,-0.0050263,0.0071447,0.0022437,-0.018696,-0.0040243
-0.00041287,0.0091933,-0.01185,0.0028518,-0.0078304,0.002572,0.012372,0.012633
0.0071464,0.0022017,-0.0041967,-0.0054345,0.00048851,-0.020151,-0.0033191,0.0063141
-0.00087476,0.0029837,0.011342,0.0014627,-0.007035,0.012163,-0.011143,0.0080817
0.0068203,-0.0042244,0.0035518,0.00027182,0.00080824,0.005691,0.0044713,-0.0057615
-0.008816,-0.0039352,-0.0040955,0.0068158,0.0083931,0.0072084,-0.0033804,-0.012071
-0.0087379,-0.0040627,-0.0037676,-0.0021523,-0.0076781,-0.0068488,0.0043716,0.0045086
0.0070126,0.010982,0.0045266,0.0047663,-0.00045953,-0.0053722,0.0043313,-0.0030963
-0.0006854,-0.005632,0.0051183,-0.0035916,0.0066989,-0.0041299,-0.0034381,0.0040946
0.0071671,-0.0069033,-0.0098818,0.0040424,-0.00174,0.0045604,-0.011058,-0.0051188
-0.00073708,-0.0082709,0.0063034,0.0041912,-0.0022653,0.0049698,0.012767,-0.0071228
-0.0010001,0.0061024,0.0066986,-0.011036,0.0051721,-0.01078,-0.010077,0.0061658
-0.0092592,0.012975,-0.00096206,-0.0026678,-0.0028456,0.011978,0.01412,-0.0039983
0.0057562,0.0046762,-0.0089005,-0.0020419,-0.0028885,0.010779,0.0071481,0.009568
-0.0027753,-0.0031135,-0.0014674,-0.0014143,0.0050137,-0.014285,-0.0076725,0.0080499
0.004288,-0.0026162,-0.0098278,0.0069796,-0.010432,-0.00056835,-0.0070279,-0.00058791
-0.0042111,-0.0017611,0.0052129,0.007483,0.013229,-0.010376,0.0011669,-0.0084908
0.0030676,-0.0085326,0.0047448,-0.0077376,-0.0021721,-0.0044278,-0.006582,-9.3849e-05
0.0027584,0.0081255,0.012345,0.0081781,-0.0097918,0.0096771,0.00097782,0.0010281
-0.005098,-0.0066562,-0.003143,0.00053564,0.0059761,0.016485,0.00046843,-0.0053064
0.0029382,0.0094807,-0.010438,-0.0072228,-0.0017485,-0.015154,0.007617,0.00415
-0.0044194,-0.0060469,0.00604,-0.0072634,-0.0017102,0.0085193,-0.00089209,-0.0020233
0.011823,0.0014332,-0.00068904,0.00045217,0.0061041,0.0014852,-0.0015035,-0.00052032
-0.0031131,0.00072149,0.00047469,0.00034856,0.0060854,0.0026529,0.005877,0.00076209
-0.010259,-0.00026373,0.0015534,0.0081004,-0.0095608,-0.0037957,-0.0021279,0.0017855
-0.0018853,-0.0013787,-0.0054172,0.00030596,-0.0017541,-0.018056,-0.0020568,0.010361
0.0063223,-0.0024641,-0.004926,0.00041343,0.0060858,0.0065855,-0.0017302,-0.020364
0.0065253,0.0044427,0.010781,0.00059225,-0.0094632,-0.00029324,-0.0011806,0.0033939
-0.0012666,0.0038351,-0.0051673,0.00080026,-0.0015176,0.015949,-0.0082706,0.0035382
-0.0013847,-0.012031,0.0019773,0.00098316,0.0064812,-0.014989,0.0081857,0.0035262
-0.0093842,0.0037252,0.0010718,-0.0067229,0.0067007,0.0085038,0.001237,0.011178
-0.0017448,0.011987,-0.0077512,-0.0067283,-0.00089553,-0.0072473,0.0020465,0.003059
0.0059879,-0.0029784,-0.00091736,0.00095483,-0.00072889,0.0081485,0.0027093,-0.02082
-0.0017537,-0.010063,0.013881,0.0085242,-0.00065592,7.3073e-05,0.0031367,0.0098849
0.0063012,0.014022,-0.0023331,0.00038036,-0.0085157,-0.00017126,-0.0045542,-0.014143
0.0066927,-0.016789,-0.0026409,-7.4939e-06,-0.00086687,-0.0081782,-0.0047759,-0.0068859
-0.00064035,0.0067919,-0.0026678,0.0073901,0.014519,-0.0083115,-0.0053345,0.016114
-0.0079699,0.0066161,-0.0024507,-0.008653,-0.0091563,0.015049,0.001636,-0.0075831
0.00024308,-0.0094659,0.0057619,-0.0012438,-0.0014843,0.0071981,0.00060332,0.015786
-0.0073172,-0.0022981,-0.0015389,-0.0016171,-0.001429,-0.00063343,0.0073089,0.0080476
0.00056759,0.00481,-0.00098469,-0.0019461,-0.0089179,-0.0084619,-0.0015652,-0.0074609
0.00046579,-0.0036311,-0.0082572,0.0055947,0.0073223,-0.0084796,0.0053354,0.00038022
0.00022545,0.0037425,0.015667,-0.0024234,0.0081862,-0.0006764,-0.0031634,-0.0076124
0.015522,0.0035614,-0.0073554,0.0052503,0.0091879,0.0071566,-0.0035818,-0.008075
-0.008282,-0.0041657,-0.0070153,-0.010457,0.0023533,-0.00058128,-0.0037221,-0.0088199
-0.00083688,0.011762,0.0088857,0.012936,-0.004683,0.0073766,0.0042124,0.01367
-0.0011841,-0.0034357,0.001302,-0.0027244,-0.012071,-0.00021992,-0.0032501,0.0048528
-0.0015035,-0.0029916,0.0015021,-0.0027747,-0.0042675,4.7305e-05,0.0050956,-0.0038458
0.0060196,-0.0026264,-0.013937,-0.0028547,-0.0046964,-0.0074814,-0.0020493,0.0033688
-0.0020468,-0.010211,0.0096813,0.0048516,0.0023747,0.00059085,0.0065182,0.0031823
-0.0022492,-0.0023163,0.002043,-0.0030684,0.0014978,0.00079037,-0.0083049,-0.0043549
-0.010185,0.0054676,0.0022012,-0.0031337,0.00068814,-0.0069052,0.00032537,-0.0036531
0.0054298,0.0053911,-0.0054875,-0.0031046,0.015749,0.0087507,0.0011379,0.0051703
0.0055649,0.0053314,-0.0054231,-0.0029339,0.007731,0.0087123,-0.0058816,-0.0093157
-0.0019507,-0.0024793,0.0023654,0.020843,-0.015531,-0.0069851,0.010504,0.015174
0.0063122,0.005408,0.0022235,-0.0099054,-0.0072285,-0.0070422,-0.0044088,0.00030524
-0.00093298,-0.0022777,0.0097508,0.0063449,0.0090676,0.0085973,-0.003773,-0.0072155
-0.00030906,-0.0021404,0.0014948,-0.0086002,-0.005873,-0.0147,0.0045618,0.00033473
-0.0075136,-0.009848,-0.014729,-0.00013675,0.010289,0.0090427,0.0049261,-0.00047235
0.00082128,-0.0019893,0.00016888,0.00040522,-0.0050644,-0.0061002,-0.0027226,-0.0095253
0.0012054,0.0058138,0.0071809,0.00077729,-0.0051102,0.010159,0.0050247,-0.0031907
0.0014254,0.0057831,-0.0014274,-0.0068638,-0.0054489,0.010881,-0.010897,0.0031502
0.0014856,0.0057913,-0.0021284,0.00092222,0.0018231,-0.0040294,-0.0035807,0.0097408
0.0014167,-0.0097142,-0.010462,0.016355,0.0012146,-0.0034334,0.0035995,0.0011512
-0.0065453,-0.0094144,0.0048829,-0.0073863,0.00068001,-0.018685,0.0029176,0.0087417
-0.0067221,0.0067396,0.012675,-0.0077392,0.01596,-0.0029853,-0.0055361,0.001272
0.0087433,-0.0003004,0.0050726,-0.00026733,-0.0075704,0.012377,0.0017483,-0.0057174
0.0086258,0.016311,-0.0023755,-0.00054594,0.00039817,0.011783,0.0013693,-0.01238
0.0007371,-0.0059988,-0.009773,0.014893,-0.0070733,0.0030896,0.016755,-0.0032795
-0.0071342,-0.0048408,0.0062097,-0.0086294,0.0011579,-0.0058129,0.00097935,-0.0020414
0.00059961,-0.011595,-0.017012,-0.00081235,0.0015308,-0.014824,-0.014785,0.0067971
-0.007348,0.0048594,0.0064579,-0.00074347,0.0017468,-0.00039164,-0.0071801,0.015306
0.0080637,0.013162,0.014128,-0.0006389,0.0017322,0.014164,-0.0075137,-1.7696e-05
-3.8207e-05,-0.010199,-0.017384,0.0072918,-0.006345,-0.010113,0.0076313,-0.0079297
-0.0081877,0.0050644,0.0057576,-0.008209,0.00099287,0.012796,0.01484,-0.0083805
0.0071023,-0.0035208,0.0055209,-0.00025685,0.00040092,-0.003003,0.0063612,-0.0012696
-0.0009842,0.0031869,-0.002387,-7.7703e-05,-0.00018185,-0.010635,-0.017719,-0.0020841
-0.0089555,-0.0059408,0.0055244,0.00017042,-0.00062253,0.0054776,-0.0026175,0.012767
0.014474,0.00049499,-0.0019784,0.00051012,-0.00081268,-0.0016251,-0.0029327,-0.0034446
-0.0010027,-0.00078868,-0.0014771,0.00094412,-0.0085085,0.0070038,0.0048367,0.0040791
-0.00072146,-0.0018427,-0.00083216,0.0014459,0.015339,-0.0078263,0.0050914,-0.0036645
-0.0081702,0.0052425,-0.0079218,0.0019576,0.008143,0.0084499,0.013436,-0.0032403
0.015649,0.0048847,-0.0071947,0.002397,0.0010114,0.0010493,-0.0092555,-0.0025241
-0.015264,0.0048817,0.016901,0.0026728,-0.0062233,0.0011703,-0.0083932,0.0061831
-0.0072114,-0.010454,0.0017999,-0.01292,-0.0059004,-0.014622,0.00028716,0.0071115
0.016341,0.0056629,0.0099493,0.0024483,-0.0059306,-0.0072064,0.0010553,-0.0077026
-0.0071125,-0.0015491,-0.013369,0.0097148,-0.014147,0.0078905,-0.0061713,0.00067141
0.00056649,-0.00091451,-0.0056563,-0.014503,0.0085717,0.0073492,0.0098071,-0.0069174
0.00034104,-0.0081021,0.0018693,0.00020794,0.00766,0.0069023,0.0021015,0.00075267
0.0078659,-0.015314,-0.0063549,0.0071025,0.014518,-0.0011903,0.0019807,0.0080951
-0.0080809,0.01651,-0.0068103,0.0063142,-0.0019585,-0.0090945,-0.0061343,-0.00041538
-0.00060101,0.0014225,0.024022,-0.0098578,-0.0025968,-0.0012164,-0.0065546,-0.0011962
0.0068869,0.0096938,0.00026587,0.0055287,-0.010772,0.0067453,0.0007909,-0.0018942
-0.009038,0.0021807,7.6029e-05,-0.0022032,-0.003037,0.0068815,0.0081563,-0.017978
0.0063282,0.010024,-0.0078062,-0.001851,0.0049518,-0.0087156,-3.2574e-05,0.013167
-0.001684,-0.0059445,-0.0077958,0.0064909,0.0053185,-0.0088681,-0.00031077,0.013469
-0.0018062,-0.014542,4.8859e-05,0.0070766,-0.0020163,0.0063907,-0.00048918,-0.0014787
-0.0018354,-0.0079436,0.0078536,-0.0080265,-0.0015091,-0.0019899,-0.00058817,-0.00053095
-0.0017633,-0.00948,-5.6483e-05,-0.0076614,-0.0010439,-0.0027086,-0.0006411,-0.00729
0.0062184,0.0044796,0.0075416,0.00031329,-0.00067203,0.0043123,-0.00068288,0.0014936
0.006465,0.010742,-0.0084105,0.00028081,-0.00041819,0.0035346,0.0070734,0.0022112
-0.0088702,0.017366,-0.0088117,0.00010874,0.015347,0.010665,-0.0086311,0.0025575
-0.00076838,-0.0067093,0.014221,-0.0079337,-0.015845,-0.0054821,-0.0087247,-0.013131
0.0072885,-0.0066959,-0.0095327,0.015297,-0.008005,-0.013608,0.0068153,0.002068
-0.0081722,0.009582,0.005965,-0.00045477,0.0076784,0.0019398,0.006766,-0.0064108
0.0075194,-0.012678,-0.0095133,0.0073248,0.0078239,0.0021138,-0.0010402,0.008474
-0.0081335,0.0044589,0.0065827,-0.00045434,-0.0075318,0.0025363,0.0068386,0.0078321
-0.0082327,-0.0017391,-0.00043818,-0.016037,0.0084916,-0.0046252,-0.0086744,-0.00038417
0.0072572,-0.00025133,0.00060649,0.0073863,-0.0066375,0.004026,-0.00073476,0.0073411
0.0071241,0.0009163,0.0017748,-0.0005444,-0.0061098,0.0049907,-0.0006322,-0.0080503
0.0070249,-0.006182,0.010704,-0.008593,0.017797,-0.001809,-0.00059501,-0.0075617
-0.00083122,0.0018299,-0.0040481,0.0067057,-0.0053254,0.0069807,-0.00065797,-0.0069369
-0.0086192,0.0015244,-0.011405,-0.0014608,-0.013063,-0.007777,-0.00084539,0.0093026
-0.00070496,0.0085977,0.0041425,-0.001761,0.0023419,-0.0070709,0.0066437,0.0097615
-0.0083285,-0.008083,-0.004316,0.0058841,0.0096304,0.0012681,0.0061867,0.0021349
-0.00022893,0.014129,-0.0054694,-0.001907,0.0010307,0.0016295,-0.010012,-0.0058309
0.0079736,-0.010543,0.00082953,0.0061352,-0.0077423,-0.0059488,-0.002856,-0.0063237
0.00064243,-0.01163,0.01479,-0.0012594,-0.00093581,0.0020151,-0.0035479,-0.0070872
0.0011767,0.011009,-0.0024127,-0.00070654,-0.0018407,0.0099288,0.011411,-0.00018252
0.009508,-0.0050208,-0.003681,-9.0066e-05,0.0053103,0.0099885,-0.0047874,-0.0010768
-0.013517,-0.01279,0.0033507,-0.0072955,-0.0028076,-0.0056369,0.0026118,0.013823
0.010129,0.026753,-0.0046502,-0.0067589,0.0051171,-0.0057333,0.0024148,0.0055709
-0.00557,0.0041553,-0.0042277,0.0014768,-0.0021685,-0.0059623,-0.0053401,-0.0023378
0.0018506,-0.01822,0.0045477,0.0095736,0.0065156,-0.0063425,-0.0050159,-0.0099168
-0.0066485,0.014138,-0.0019116,0.0097044,-0.0080188,0.0087634,-0.0044454,0.014011
0.00026994,-0.0083245,0.0074343,-0.0059532,0.00094242,0.00034022,0.011941,-0.0087864
-0.0085058,-0.0076369,0.0010953,-0.0061564,0.0019809,-0.00028628,0.0049899,-0.00029856
-0.0015626,0.00048118,-0.005537,0.0012799,0.0027623,0.0069757,0.0058383,-0.0074919
0.021252,0.00038394,0.002974,0.00073958,-0.0046271,-0.0090318,-0.016886,-0.0069818
-0.0024537,-5.9676e-05,0.0030827,6.1628e-05,-0.0046029,0.0064574,-0.00078943,0.0090331
-0.0023291,0.014898,-0.013029,-0.00070613,-0.0049538,0.0066215,0.0071861,0.0093232
0.0059644,-0.0014517,0.0016164,-0.0014958,0.010024,-0.016331,0.0070316,-0.0060784
-0.0089248,-0.0098597,0.0003399,-0.0022261,0.0013821,8.2138e-05,-0.0090079,0.0019174
-0.00026182,-0.0023382,-0.00097908,0.004998,0.00049905,0.0011177,-0.0017519,0.0020662
0.00055591,-0.0021878,0.0057373,0.0046219,-0.00031972,0.0023042,-0.010105,0.0021599
-0.0065961,-0.001524,-0.0027243,-0.011123,-0.00098309,0.011324,-0.002653,-0.0056569
0.0016386,0.0074531,0.0050245,-0.0031692,-0.0014367,-0.0032261,0.012921,-0.0058123
0.0017934,0.0011987,-0.002243,0.012824,0.0061474,-0.002439,0.0054244,0.0094569
0.0016992,0.0029547,0.0066265,0.0055323,-0.0095003,-0.0020721,-0.0017422,-0.0067552
0.0014092,0.0046495,-0.0076283,-0.0017075,-0.0015516,0.0056051,0.014727,0.0080497
0.0088065,0.006002,0.017232,-0.016816,0.0064915,-0.0028556,-5.647e-05,-0.0085966
-0.0151,-0.016676,-0.012811,0.0069891,-0.0010683,-0.011759,-0.015065,-0.0019411
0.0078726,-0.0010521,-0.012043,0.0071494,-0.00086357,-0.0053371,-0.0070531,0.0046715
-0.0081746,-0.001862,0.0037791,-0.0085312,0.0070479,0.0087894,-0.0073804,0.011352
0.007085,0.0044221,-0.0044246,0.0068661,-0.00080736,0.0073868,-0.00042588,-0.0052218
-0.0010428,-0.013234,0.010319,-0.0090694,-0.0088112,-0.0015566,0.013914,-0.0058782
0.0064831,0.0079729,0.0013248,-0.0015333,-0.0013129,0.005511,-0.003239,-0.013967
-0.0016128,0.005879,-0.0077322,0.0061575,0.0061174,-0.0026251,0.0030292,0.0096256
-0.009724,0.0042284,-0.00098773,0.0062884,-0.0020713,-0.0025705,0.0016881,0.010219
0.0055854,0.003245,0.0061259,-0.0089017,-0.010178,0.005572,0.0085381,-0.0044227
-0.0025405,-0.0047787,0.0059074,0.0074534,0.013108,-0.0017664,-0.0075651,0.0046602
-0.0028144,-0.0042433,0.0061809,0.0005944,-0.0024986,-0.009087,-0.0075314,-0.0017392
-0.0030036,-0.0031056,-0.0087631,-0.0061665,0.0054878,-0.00085718,0.00078333,-0.00034799
0.012556,0.006216,-0.0078348,0.0026376,-0.0020486,-0.0005571,0.0016558,0.00086402
-0.0029925,0.015637,0.00095135,-0.0044074,0.0060619,-0.00036641,0.010581,-0.0060378
-0.0027874,-0.01417,0.0017646,0.0038068,-0.0093276,0.007572,-0.011644,-0.0054946
0.0053127,-0.013102,0.0022431,0.0037492,-0.0014074,-0.00012042,0.0051642,0.0024914
-0.0022022,0.0030901,0.0022719,0.0032059,-0.0014541,4.2783e-05,-0.0015958,0.0023522
-0.001979,0.0031303,-0.0060001,-0.013399,-0.0094466,0.00026914,-0.0085549,0.0019983
-0.0019075,0.0027078,0.0087206,0.00093176,0.013742,0.00054041,0.007691,0.0093573
-0.0020393,-0.0058598,-0.00032131,-0.00050165,-0.0021103,-0.0070104,-0.0075505,-0.014527
0.0054259,0.008838,-0.017322,0.005942,0.0055928,0.0087889,0.0082347,0.0085497
0.0048982,8.2476e-05,0.012618,-0.0029787,-0.0021346,0.00098149,0.0081957,0.0004978
-0.011355,0.0070597,-0.0040407,0.0041403,-0.0096271,-0.0070573,0.00017513,-0.0074398
0.0036547,-0.0014039,0.0031886,-0.0038648,0.0065474,0.0080877,-0.0079772,0.0003157
-0.0046312,-0.0096553,0.0031626,0.0042602,0.0072776,-0.0082396,-0.00058687,0.0080678
0.0029691,-0.0020815,-0.0041016,0.012816,0.00029339,-0.0012644,-0.0010253,0.0079245
0.003102,-0.0021577,-0.0030574,-0.009585,-0.0066905,-0.0099179,-0.0092108,-0.015807
-0.0042045,0.013503,0.0061332,-0.0084231,-0.0059552,0.012827,0.0061943,-0.00066429
0.0044474,-0.0098396,0.007629,-0.0073068,0.002428,0.0046129,-0.0016082,0.0064779
0.0055156,-0.0097375,0.0090133,0.001432,0.0027955,-0.0032111,0.0064903,-0.0099622
0.0066613,0.013762,-0.013345,0.0098815,-0.004855,-0.0027981,-0.00076195,0.0047791
-0.0079088,0.0059293,-0.01269,0.010183,0.0029417,0.0058096,0.015642,0.0039194
-0.0070943,-0.0020198,-0.0046621,-0.0054707,0.010608,-0.0009388,-0.014716,-0.0046389
-0.0066193,-0.0022919,-0.0048054,-0.005779,-0.0052371,0.00023058,-0.0060287,0.010423
0.0012995,0.0051158,0.010472,-0.0062842,-0.005479,0.0013225,0.010318,-0.0055455
0.0088925,-0.011016,0.010097,0.00092573,0.0021123,-0.0056423,-0.012658,0.0021468
-0.0071788,-0.011565,0.0020353,0.00032253,-0.0058744,0.0026545,0.010922,0.0022272
8.8493e-05,0.0035452,0.0019897,0.0076061,0.0018193,-0.0050875,-0.004882,-0.0053401
0.0073815,0.0031403,-0.0056759,-0.00062297,0.0017465,-0.0054076,-0.0053266,-0.004965
0.0069826,0.018527,0.0023784,-0.00093195,0.017322,0.0017814,0.0018709,0.0033288
-0.0010582,0.0028485,0.002562,0.0066378,-0.0061681,0.00098162,0.0011987,-0.0039059
-0.0089242,-0.012665,-0.0052874,-0.0014117,-0.006246,0.015769,0.008386,-0.0032314
