-0.022356,0.0094326,0.049575,-0.014112,0.0017145,0.0082677,0.029164,0.017717
0.093691,-0.050287,-0.058264,0.011461,-0.014105,-0.015268,-0.043088,-0.029112
0.083223,0.022935,-0.0019948,-0.049441,0.0010863,-0.007873,-0.061483,0.0092144
0.0017377,0.041173,0.11627,0.037371,0.0082232,0.0070582,0.012268,-0.078246
-0.32946,0.03532,0.04612,0.014049,-0.00045992,0.006188,0.091741,0.0055583
-0.13594,-0.065151,-0.20478,-0.049,-0.0092383,-0.010334,-0.041959,0.042202
0.5909,-0.049334,-0.042425,0.028082,-0.002346,-0.011083,-0.044877,0.00083414
-0.31265,-0.026458,0.018153,0.042368,0.0047533,0.004111,0.028795,0.045895
0.012594,0.019379,0.071569,-0.052842,-0.00341,0.0041206,0.0078803,-0.017658
0.22212,0.12755,0.12657,0.070715,0.020161,0.028059,-0.0052702,0.005607
-0.24774,-0.014166,-0.019192,-0.008724,-0.010404,-0.010046,-0.0020821,-0.024957
0.46112,-0.022815,-0.099619,-0.12698,-0.0013544,0.014691,0.033704,-0.0079051
-0.45701,-0.078056,-0.036552,0.1458,-0.0074421,-0.030701,-0.0068539,0.033172
-0.28391,0.030963,0.052399,-0.033937,0.018085,0.0020412,0.0092498,-0.073731
0.08988,0.0072236,-0.021119,-0.080007,-0.018687,-0.020046,-0.10554,0.030681
0.50091,0.022445,-0.03955,-2.0249e-05,-0.0085777,-0.0033272,0.031284,0.11199
-0.2531,-0.048508,0.11289,-0.028269,0.0091471,0.020871,0.083295,-0.16579
0.094194,0.03646,0.0050813,0.038252,0.0030347,0.021248,-0.012661,0.017558
-0.37871,-0.035198,-0.090793,0.097615,-0.011472,0.0055824,0.023939,-0.0022764
0.52337,0.080273,0.19161,0.34456,0.090484,0.028543,-0.073233,0.11026
-0.25484,-0.015512,-0.14016,-0.47157,-0.08961,-0.06611,-6.3081e-05,0.034318
0.67652,-0.033387,-0.085664,0.047066,0.018569,-0.0048797,0.0087257,0.019319
-0.82382,-0.059141,-0.073533,-0.25618,-0.053622,-0.014222,0.0077677,-0.17742
-0.28737,0.016784,-0.016324,0.071669,0.022127,0.0232,0.052013,-0.0014691
0.083045,0.053951,0.064147,0.23373,0.027294,0.021603,-0.037675,0.055122
0.38188,-0.0099831,0.22396,0.1754,-0.0066507,-0.0032566,-0.02615,0.0085396
0.5007,0.10633,0.065595,-0.048564,0.014208,0.019008,-0.0062867,0.11756
-0.48933,-0.15179,0.050312,0.29633,0.074338,-0.0053322,0.014942,-0.17126
-0.095377,-0.034357,-0.33767,-0.73493,-0.084037,-0.013796,0.014744,0.034047
0.19084,0.091345,-0.051933,0.069193,-0.031217,-0.029839,-0.069069,-0.054343
-0.38026,-0.024773,0.024217,-0.016941,0.014085,0.0090442,0.029007,0.087898
0.45754,0.10939,0.046598,0.1718,-0.010549,0.024782,0.097464,0.11739
0.46295,-0.060905,0.16332,0.2379,0.066878,0.0018364,0.057237,-0.03644
-1.1128,-0.15287,-0.14935,-0.15411,-0.05038,-0.020637,-0.030305,-0.2261
-0.23734,0.052269,0.061384,0.15183,-0.0028651,-0.026959,-0.21313,0.015642
0.56693,0.062331,0.20915,-0.11852,-0.01716,0.021906,0.070472,0.1087
0.23751,0.041362,-0.17527,0.057038,0.047208,0.016448,0.07015,0.12127
0.52319,0.043967,-0.21726,-0.36965,0.0024483,0.03454,0.0048564,0.16851
-0.67238,-0.086258,0.16891,0.1395,0.012238,0.021171,0.00027553,-0.33705
0.44397,0.033302,0.014614,0.29501,0.013673,-0.039615,-0.059766,0.05699
-0.50692,-0.14443,0.046915,-0.10598,-0.063878,-0.069948,-0.064777,-0.2038
-0.15392,0.11472,0.016636,-0.054712,-0.0096219,0.023815,0.079954,0.24125
-0.16404,-0.040953,-0.0048503,0.028357,0.051535,0.03862,0.12502,-0.090085
0.10177,0.036829,-0.27423,-0.33956,-0.044142,-0.048739,-0.11703,0.023545
1.034,0.082287,0.1001,0.27258,0.0085335,0.035501,-0.013826,0.10038
-0.81935,-0.10785,0.20467,-0.0094903,-0.039885,0.026057,0.14467,-0.17774
0.54416,0.10693,-0.12457,-0.060968,0.053257,-0.045549,-0.11917,0.26088
-0.80962,-0.14835,0.010177,0.30439,-0.0086613,0.086461,0.14681,-0.036487
0.57664,0.11869,0.16235,-0.063981,0.047764,-0.062272,-0.26113,-0.12506
-0.69864,-0.091519,0.17412,0.26888,0.05034,-0.015284,-0.0070883,-0.14677
0.54121,0.049796,-0.40143,-0.47278,-0.048325,-0.0071255,0.12038,0.16226
-0.15261,-0.050333,-0.11238,-0.34511,-0.092558,-0.0067497,0.044103,0.096975
0.38732,0.062016,0.0094372,0.26106,0.018726,0.032527,-0.062885,0.046228
-0.20423,-0.13594,0.22978,0.12812,0.02745,0.040238,-0.1683,-0.25699
0.057449,0.12177,0.03377,0.14892,-0.042941,-0.046214,0.41602,-0.0088454
-0.1648,0.061701,-0.046207,-0.25976,0.065611,-0.070614,-0.29421,-0.022136
-0.04545,0.034999,-0.024584,0.17807,0.0097582,0.1077,0.1693,0.23457
0.27113,-0.037162,-0.048794,-0.29353,-0.038185,0.012253,0.032192,0.10554
-0.69626,-0.13216,0.15523,0.88087,0.015889,-0.08335,-0.23008,-0.31476
0.078338,0.0070583,-0.17799,-0.9086,0.00029228,0.047642,0.092392,0.029116
0.82352,0.083106,0.0059265,0.031794,-0.030322,-0.047688,-0.055807,0.27856
-0.25564,-0.068308,0.034404,0.41849,0.017542,0.013657,0.05942,-0.22975
0.1167,0.0059901,0.14869,-0.12609,0.026271,0.028677,-0.085202,0.075194
0.27236,0.032779,0.11342,0.26293,0.042235,0.013028,0.049897,-0.15753
-0.85315,0.03574,-0.36914,-0.52543,-0.036586,0.013509,0.05916,0.080438
-0.10271,-0.0084204,-0.065187,-0.030832,-0.046414,-0.087236,0.23237,0.00037093
0.9417,0.040881,0.11101,0.20814,0.0049237,0.077755,-0.34387,0.17265
-0.97881,-0.1291,0.13616,-0.11181,-0.030711,-0.007367,-0.03621,-0.17644
-0.262,0.012496,-0.028422,0.15193,0.050388,-0.0068351,0.062053,-0.055322
0.83535,0.082412,0.12564,0.3531,-0.016642,-0.030092,0.49036,0.18356
0.45374,0.14279,0.044298,-0.17034,0.073684,0.047915,-0.69631,0.14079
-0.83912,-0.2284,-0.32637,-0.53394,-0.099838,-0.10859,0.20541,-0.31727
0.59166,-0.015382,0.076971,0.32589,0.017891,0.078738,0.031468,-0.011447
-0.08315,0.087053,-0.1432,0.05809,0.0050525,-0.0070683,-0.14805,0.066025
-0.25783,-0.076532,0.30305,-0.14217,0.080079,0.063823,0.40841,0.11875
0.33593,0.088614,-0.099204,0.091479,-0.038927,-0.060124,-0.22207,-0.094577
-0.7292,-0.064947,0.04882,-0.086141,0.0065459,0.027242,0.13099,-0.096277
0.19825,0.041713,-0.12014,0.12776,-0.065676,-0.04928,-0.26048,0.060031
-0.057088,0.0106,0.12782,0.17644,0.032654,0.038183,0.14903,0.086054
0.73712,0.12295,0.20596,0.1518,-0.0037171,0.00033208,-0.086651,0.16956
-1.0136,-0.27795,-0.29287,-0.29105,-0.0031467,-0.030195,0.31358,-0.32259
0.96425,0.18988,-0.14292,-0.5429,0.050114,0.016832,-0.3058,0.13214
-0.67215,-0.11526,-0.024487,0.24878,-0.085692,-0.030443,-0.16979,-0.17069
0.46898,0.12585,0.1402,0.046823,-0.034924,0.023391,0.34095,0.24397
0.27982,0.037288,0.2494,0.42384,0.13283,0.037861,-0.34153,0.054377
-0.14387,-0.069035,-0.017276,-0.12584,0.0041655,0.0053263,0.066076,-0.021755
-0.41681,-0.10732,-0.18332,-0.16328,-0.061008,-0.042792,0.38543,-0.1958
-0.88014,0.024345,-0.11603,0.17909,0.00011333,-0.03602,-0.31287,-0.061179
0.46059,0.06887,0.098559,-0.16973,0.00011477,0.080477,0.611,0.094059
0.0047628,-0.16032,0.030614,0.11677,0.0091932,-0.052542,-0.7509,-0.056677
1.1028,0.19701,-0.21065,-0.46359,-0.03542,0.0025351,0.20864,0.08205
0.21958,-0.038262,0.35116,0.77439,-0.0012784,0.058289,0.0031595,0.035128
-0.66651,0.024619,0.012737,-0.60101,0.095595,-0.057125,-0.0095926,0.030015
0.030985,0.10405,-0.015069,0.34628,-0.026421,-0.015618,-0.12735,0.10595
-0.15566,-0.11316,-0.20871,-0.087391,-0.031678,0.034245,0.079508,-0.1204
-0.31699,-0.065348,-0.18494,-0.27658,-0.029719,-0.024956,0.31475,-0.06406
0.0067353,-0.011059,0.26791,0.22541,-0.05964,-0.013879,-0.42836,0.023823
-0.11937,0.0024141,-0.036618,0.069133,0.081759,0.059229,0.24983,-0.08428
0.29496,0.053173,0.22291,0.14772,0.050854,0.0063964,-0.079246,0.11107
-0.18768,-0.053742,-0.38217,-0.55196,-0.027239,0.038131,0.32743,0.086386
0.67528,0.026026,0.14888,0.19091,-0.074345,-0.064596,-0.57662,-0.2751
-0.1482,0.08224,0.10539,0.32289,0.08138,-0.067443,0.15387,0.17577
-0.63788,-0.10322,0.034063,-0.085538,0.0023335,0.014231,-0.044099,-0.14616
0.3878,0.063855,-0.15951,-0.25406,-0.014729,0.048166,0.3286,0.11128
0.55325,0.060274,0.086208,0.33883,-0.016765,0.0038756,-0.09633,0.20615
-0.081234,-0.035757,-0.13621,-0.10627,-0.050631,0.0071957,0.28154,0.021122
-0.4714,-0.11487,0.13297,-0.068582,0.04788,-0.027054,-0.3824,-0.18645
0.037054,0.10419,-0.052655,0.043357,0.052478,0.026664,-0.29161,-0.010868
-0.94712,-0.1129,0.055972,0.0015058,-0.075543,-0.042374,0.030743,-0.22605
0.74861,0.054305,-0.15121,-0.47584,-0.0076859,0.078184,0.39025,0.15997
-0.26522,0.0043341,0.26287,0.52595,0.0298,-0.065287,-0.032164,0.014351
0.39469,0.018426,-0.19411,-0.27304,-0.0019742,0.01864,-0.094541,0.040328
0.46917,0.041658,0.0014822,0.41017,0.029797,0.016562,0.14956,0.089531
-0.037792,-0.05148,0.2017,-0.063264,0.015538,0.036965,0.013429,0.075955
0.00042492,0.027307,-0.32702,-0.41839,-0.037287,-0.11618,-0.20563,-0.16469
-0.74404,-0.0041566,0.24455,0.38492,-0.019728,0.072302,0.15654,-0.015513
0.97147,0.07976,0.097332,0.19104,0.028754,-0.038276,-0.43924,0.085755
-0.92882,-0.15138,-0.3455,-0.53893,0.037554,0.067987,0.36604,-0.17343
-0.14241,0.052005,0.0030823,-0.15679,-0.11064,-0.077078,-0.022015,0.027455
0.36371,0.010257,0.096948,0.14149,0.029555,-0.0039573,-0.13559,-0.0065044
-0.22522,-0.065223,0.03003,0.18299,0.020826,0.061589,0.43028,0.19395
0.59142,0.052946,0.29411,0.45075,0.027515,-0.020367,-0.060234,-0.050408
-0.24687,-0.024861,-0.033553,-0.041009,-0.036053,0.024087,-0.25704,0.018555
0.05078,-0.00077695,-0.00090644,0.011381,0.0725,-0.03924,-0.33316,-0.1459
-0.17973,0.14162,-0.47601,-0.66569,-0.037369,0.023911,0.53892,0.12024
-0.41799,-0.12842,0.13455,-0.071202,0.0093325,-0.0055745,-0.42981,-0.08158
0.72771,0.11115,0.018555,0.0001363,-0.060892,0.0046036,0.26921,0.021872
0.028145,-0.10074,0.044064,0.25432,0.04878,0.046089,0.34814,0.024165
-0.10845,-0.06904,0.0090294,0.11598,-0.021036,-0.10032,-0.56646,-0.12956
0.3257,0.10435,0.047145,-0.014677,-0.020287,0.018234,0.042686,0.13866
-0.52924,-0.041777,0.08841,0.27655,0.01206,0.050146,0.31773,0.070863
-0.29769,0.00021009,0.046446,-0.0042566,0.037036,-0.059093,-0.28694,-0.083062
0.67957,0.066178,0.13105,-0.024371,0.023435,0.050227,0.19045,0.15339
-0.86496,-0.10169,-0.28433,-0.43623,-0.044415,-0.019943,0.05495,-0.31345
0.38224,0.098158,-0.013805,0.2329,-0.072928,0.019797,-0.068557,0.1963
0.29933,-0.076515,-0.11334,-0.23859,0.09387,-0.049117,-0.29781,-0.16081
-0.53141,-0.00088838,-0.11499,0.077612,0.0024917,0.031098,0.3975,-0.03294
0.72197,0.043459,0.19193,-0.21675,-0.019333,0.017994,-0.476,0.23628
-0.40677,-0.022079,0.11217,0.2782,0.051481,0.012681,0.25999,-0.095532
0.49707,0.083161,0.12256,0.23649,-0.05092,0.038041,0.65874,0.29919
-0.22396,-0.086739,0.23905,0.3402,-0.053134,-0.10958,-0.84347,-0.42416
-0.50198,0.030218,-0.26449,-0.38503,0.04504,0.061633,0.60413,0.10059
0.55873,-0.019372,-0.37175,-0.4842,0.01746,-0.010935,-0.45954,0.036641
-0.61416,-0.0088993,-0.12859,0.036356,-0.033732,-0.038029,-0.17453,-0.061878
0.65857,-0.0004474,0.29442,0.34962,-0.014155,-0.019184,0.038456,0.094078
-0.027827,0.053614,0.078428,0.096974,0.022064,0.038432,0.0089138,0.22384
-0.82609,-0.13478,0.15437,-0.088428,0.067496,0.026126,0.27704,-0.51522
0.42499,0.068252,-0.023829,0.074643,-0.033981,-0.00083626,0.46049,0.20656
0.0043659,0.015247,-0.057567,-0.14073,-0.040318,0.028211,-0.15987,0.023655
0.28415,0.09752,-0.15822,0.0305,0.024685,-0.05853,-0.72573,-0.13281
0.2754,-0.059632,-0.053223,-0.029593,0.012087,0.027817,0.33964,0.33183
-0.9665,-0.065725,0.26414,-0.24373,-0.016145,0.0056211,-0.14466,-0.16821
0.40778,0.0083926,-0.19155,0.18399,0.025473,0.046286,0.64115,0.12419
0.11986,0.044715,0.055459,0.18986,-0.0821,-0.13189,-0.59947,-0.15952
0.70972,0.026669,-0.15153,-0.20404,0.051675,0.033248,0.095736,0.010182
-0.11157,-0.0075885,0.41401,0.53985,0.020667,0.010266,-0.37274,0.037805
-0.87443,-0.035331,-0.28658,-0.47819,-0.034227,0.072573,0.55216,0.031396
0.0334,-0.041338,-0.010411,0.045684,0.043595,-0.014096,-0.041471,-0.048736
-0.3588,-0.010033,0.13407,-0.021323,-0.034586,-0.038611,-0.14435,-0.085194
0.58302,0.051037,-0.22723,-0.10012,-0.034147,-0.0085477,0.25173,0.048029
-0.059085,-0.0060762,-0.10149,-0.36073,0.045005,-0.033051,-0.4946,-0.12405
0.3924,0.022324,0.37077,0.59764,0.054343,0.099011,0.74778,0.26757
-0.23608,0.011756,-0.20955,-0.0039215,-0.0689,-0.065356,-0.58589,-0.041083
0.24063,-0.0061706,0.070107,-0.14801,0.0030159,0.036407,0.24424,-0.041045
-0.59531,-0.046932,0.34038,0.38495,0.05873,-0.017587,-0.091837,-0.060013
-0.054277,-0.0012135,-0.41688,-0.60847,-0.058373,-0.0086489,-0.34523,-0.074919
0.44195,0.068265,0.10849,0.1204,-0.028202,-0.0071781,0.31195,0.20222
0.31358,-0.018484,0.086789,0.36635,0.024218,0.0023573,0.036483,0.043267
-0.38764,-0.027375,-0.34952,-0.45115,0.020953,0.01206,-0.084772,-0.13167
0.15506,0.033592,0.28502,0.31404,-0.029812,0.021857,0.21477,-0.019507
-0.56172,-0.069986,-0.030534,0.089849,0.091167,-0.023007,-0.11893,-0.027683
0.38129,-0.0020214,-0.31613,-0.35118,-0.084322,-0.028853,-0.14047,0.0073176
-0.35325,0.034664,0.33839,0.16295,-0.024543,0.012043,0.071596,-0.047204
0.35184,0.0013955,0.030404,-0.069731,0.028675,-0.0019943,0.024236,-0.04214
0.48222,0.039193,-0.065539,-0.10196,-0.033887,0.061705,0.2634,0.20322
-0.5612,0.015572,0.012785,0.26396,0.10019,-0.0079533,0.0071761,0.0025366
0.51398,-0.014563,0.12445,-0.063374,-0.014743,-0.039239,-0.5257,0.20845
-0.77274,-0.074561,-0.24015,-0.1758,-0.035443,-0.040061,0.27497,-0.38908
0.20764,0.023031,0.18952,0.29499,-0.032837,0.020821,-0.1751,-0.055026
-0.025838,-0.011027,-0.066576,-0.11173,0.047177,0.057565,-0.10809,3.9175e-05
-0.15076,-0.005171,-0.26194,-0.24817,-0.038027,-0.046814,0.28289,0.10426
0.20003,0.047963,0.53015,0.61098,0.031667,0.02829,-0.016052,0.11664
0.094179,-0.00062619,-0.34074,-0.43427,0.0063446,0.0097895,0.47235,0.12235
0.26851,0.074996,-0.047361,-0.049426,-0.051129,-0.070698,-0.62734,-0.09842
0.56711,-0.038269,-0.13628,-0.10278,0.023878,0.029347,0.40212,-0.10934
-0.67462,-0.090877,0.23752,0.10036,-0.025778,-0.0023399,-0.36332,-0.013002
-0.36274,-0.012732,0.16189,0.13012,0.042709,0.037461,0.18338,0.0024743
-0.22133,-0.0068758,-0.079722,-0.05249,0.0032132,0.00022881,-0.20984,-0.10209
0.2087,0.075494,-0.17274,-0.04896,-0.042559,-0.020553,-0.028805,0.079966
0.023171,0.016206,-0.021663,0.093771,0.030197,-0.0096716,0.20232,0.041622
0.88404,0.034687,0.11691,0.070756,0.064724,0.024566,0.022517,0.11981
-1.0363,-0.1184,-0.053222,-0.055857,-0.041261,-0.027707,-0.060011,-0.043871
0.52178,0.026231,0.38995,0.088693,-0.038536,0.028428,0.10388,-0.011069
-0.58088,0.0080016,-0.47571,-0.27673,0.040996,0.01306,0.069779,-0.085849
0.085078,0.07703,0.10706,0.12977,-0.045227,-0.050374,-0.27063,-0.017821
0.59443,-0.055854,-0.15929,-0.26095,0.015295,0.0024179,0.021401,0.0056662
0.29943,0.030928,0.15417,0.5214,-0.019234,0.039039,0.39258,0.047009
-0.57645,-0.10054,-0.023737,-0.52162,-0.015307,-0.10405,-0.6087,-0.1598
-0.11772,0.080546,0.009171,0.28302,0.035734,0.13615,0.3081,0.34548
-0.051593,0.019107,0.12684,-0.23617,-0.037192,-0.075894,-0.074573,-0.22715
0.097169,-0.019493,0.172,0.48273,0.047727,0.017775,0.048574,0.082125
0.57809,-0.027531,-0.12182,0.055349,0.0094346,0.026437,0.12266,0.030036
-0.21647,-0.01272,-0.21592,-0.42674,0.089908,0.035688,-0.1347,-0.07958
-0.59413,-0.0060529,-0.047576,0.28413,-0.12547,-0.064344,0.079178,-0.075238
-0.20266,0.05534,-0.14718,-0.42337,0.057878,0.030503,0.050714,0.066711
0.46982,0.015613,0.095878,0.19188,-0.079547,-0.062999,-0.082275,0.026809
0.28154,-0.015497,0.20631,-0.11234,0.0085692,0.029963,-0.056645,-0.037288
-0.0095386,-0.053356,0.15379,0.17278,0.0094651,0.036051,0.2119,0.10274
-0.68463,-0.011926,-0.092637,-0.16193,0.0091583,-0.036535,-0.18333,-0.17629
0.82507,0.077459,0.27139,0.7294,0.031466,0.00030717,-0.092971,0.17407
-0.90653,-0.066725,-0.59077,-0.93237,-0.016783,-0.016786,0.094469,-0.228
0.53497,0.03945,0.21082,0.29989,0.013487,0.030015,-0.24309,0.14895
0.42774,0.028232,-0.0038314,0.26344,-0.033404,-0.038539,0.13181,-0.0083739
-0.24966,0.00059434,0.015609,-0.18944,-0.00082607,0.058917,0.081156,0.056156
0.1125,-0.0049118,-0.097082,-0.035151,0.01759,0.0096253,0.39555,0.16825
-0.3917,-0.08236,0.042252,-0.1101,0.02948,-0.022961,-0.16695,-0.22951
0.24741,0.065063,-0.049462,0.053476,-0.020285,0.022803,-0.34948,-0.0068716
-0.35602,-0.10148,-0.019875,-0.069375,0.023905,0.0053545,0.53369,0.037402
0.13443,0.1294,0.28715,0.26943,-0.049613,-0.083961,-0.54287,-0.019393
0.1758,0.00050864,0.13609,0.13806,0.016291,0.05115,0.20045,-0.044036
-0.84264,-0.11254,-0.42828,-0.31718,-0.044538,-0.058291,-0.33109,-0.058401
0.77413,0.10329,0.3493,0.16764,0.080116,0.080061,0.167,0.09617
-0.1233,-0.10169,-0.33836,-0.25221,-0.039431,-0.080192,0.062219,-0.17911
0.25879,0.1476,0.069488,0.14987,0.026805,0.086636,0.23787,0.31366
0.64843,-0.0083646,0.25194,0.015604,0.01375,-0.012448,-0.087011,0.029576
-1.0266,-0.10114,-0.37614,-0.24683,-0.093496,-0.04863,0.05617,-0.14751
0.53374,0.040777,0.031024,0.091525,0.010546,0.064544,0.010574,0.13401
-0.51285,-0.020438,-0.015878,0.20486,0.053165,-0.055456,-0.2168,-0.23605
-0.30577,-0.019367,0.19714,-0.19412,0.019271,0.036719,0.029559,0.029996
0.66503,-0.0029603,-0.069555,0.3017,-0.028393,-0.026299,-0.031952,0.055499
-0.080651,0.0053724,0.13866,0.090661,0.019452,0.0051511,0.044173,0.026323
0.11225,0.029127,0.079785,-0.20311,-0.0094843,0.0056558,-0.077251,0.011371
-0.03621,0.037073,0.01833,0.083216,0.040406,0.0060602,0.12838,-0.068547
-0.68663,0.021326,-0.36803,-0.70776,-0.065991,0.021673,0.13118,-0.01097
0.33,-0.049521,0.26986,0.62633,0.022201,-0.057048,-0.25506,0.035399
0.51913,-0.050676,-0.24992,-0.24286,-0.023643,0.012096,0.30667,0.055044
-0.55952,0.0098615,0.070982,0.37234,0.030629,0.0027275,-0.33135,0.18124
0.44149,0.030426,-0.065178,-0.19959,-0.0024036,0.047979,0.23745,-0.26494
-0.069849,0.050114,0.154,-0.15375,-0.06771,-0.054888,-0.19011,-0.071506
-0.27356,-0.079317,0.13524,0.40819,0.069602,0.014806,-0.067586,0.075264
0.35937,0.0096736,-0.25343,-0.39705,-0.027396,-0.031731,0.17457,-0.042113
-0.42455,0.059754,0.1452,0.10939,0.0168,0.039981,0.1056,0.10092
0.28473,-0.0066441,0.26178,0.32502,0.077531,0.057967,-0.20547,0.059841
0.17104,-0.095208,-0.45748,-0.50881,-0.071629,-0.08744,0.12281,0.022446
-0.19,0.021102,0.027341,0.16206,-0.032307,0.048625,0.050149,-0.10523
-0.3149,0.045716,0.1467,0.095447,0.031216,-0.018728,0.028797,-0.019206
0.24257,0.017749,-0.083136,0.0028136,-0.037607,-0.032182,-0.25407,-0.048658
-0.093197,-0.0083544,0.088252,-0.11483,0.057794,0.039135,0.045624,0.086418
-0.060928,-0.02531,-0.018741,0.064147,-0.0031452,-0.023726,-0.0087228,-0.068375
0.02268,0.067698,-0.052885,-0.1542,-0.0018285,0.037068,0.052939,0.14208
0.30112,-0.066116,0.19602,0.26253,-0.071109,-0.02825,0.083563,-0.01742
0.22896,0.0099384,-0.19496,0.057238,0.054707,-0.023953,-0.12661,-0.016067
-0.56136,-0.025084,-0.00043339,-0.4262,-0.014867,0.027049,0.25912,-0.1116
0.41238,0.031588,0.27849,0.53045,0.032836,0.00030924,-0.18088,-0.0065963
-0.55648,-0.038823,-0.34337,-0.48009,0.002633,-0.0021167,0.14698,-0.0047699
0.36372,0.060847,0.01646,0.30643,-0.05855,0.027933,-0.038962,0.09037
-0.23758,-0.051669,0.037777,0.14634,0.021104,-0.050015,-0.10631,-0.087204
0.53449,0.038386,-0.091386,-0.52412,0.0070458,0.029595,-0.26632,0.15091
-0.10349,-0.04326,0.23912,0.29417,0.070891,0.0008605,-0.042638,-0.03075
-0.33154,0.024343,0.1473,0.11656,-0.061094,-0.019466,0.18164,-0.054075
-0.038551,0.030707,-0.27234,-0.20508,0.024888,0.093093,0.60911,0.11955
0.16188,-0.0083488,0.13701,0.10357,-0.077575,-0.13073,-0.48777,-0.15906
-0.069117,-0.038221,-0.39771,-0.12815,0.029943,0.042998,0.2022,-0.062633
-0.60129,-0.012378,0.25649,-0.031652,0.027287,0.0046243,-0.25206,0.01739
0.74954,0.045202,0.091749,0.21469,0.00069145,-0.0037593,-0.1329,0.088183
-0.18582,-0.006754,0.16252,0.24473,-0.0025832,0.01013,0.32493,0.086849
0.41319,0.026424,-0.44569,-0.54239,-0.036824,-0.0081343,-0.16699,-0.010153
-0.36191,-0.019842,0.31345,0.4474,0.0076907,0.012139,0.010246,-0.093224
0.78162,0.0026013,0.0019081,-0.51245,0.076517,0.0088949,0.0077371,0.088206
-0.37986,-0.023415,0.017723,0.33566,-0.002104,-0.0096018,0.0083782,-0.11341
-0.8428,-0.058492,-0.16267,-0.047758,-0.079738,-0.011692,-0.12523,-0.064139
0.08559,0.054216,-0.062531,-0.13991,0.015398,-0.0048736,0.12516,0.057488
0.10822,0.0029478,-0.017363,0.18335,0.017535,-0.020219,-0.13742,-0.067897
0.14105,0.014992,0.059329,-0.039919,0.0046308,0.036028,0.33693,0.20861
-0.17215,-0.018465,0.14461,0.19697,-0.062559,-0.016001,-0.078571,-0.097587
0.55467,0.051296,0.16066,-0.18513,0.057956,0.042089,-0.020051,0.082901
-0.051306,-0.010147,-0.025261,0.14897,0.0065683,0.0066896,-0.2731,0.021979
-0.21616,-0.070332,-0.38983,-0.58229,0.0095758,-0.044606,0.18884,-0.094679
0.59787,0.065494,0.15276,0.39473,0.012002,0.012716,0.24431,0.012453
-0.23681,0.045127,0.071172,-0.083424,-0.033302,-0.024816,-0.28951,0.0062027
-0.71526,-0.10076,-0.087667,0.39034,-0.0093615,0.0067112,-6.51e-05,-0.10607
-0.1054,-0.036618,-0.12059,-0.31597,-0.0022114,-0.025444,-0.25413,-0.058309
0.10749,0.04991,0.19104,-0.053306,0.0038178,0.019608,0.16143,0.06476
0.68198,0.041766,0.010831,0.16296,0.032356,0.11102,0.60962,0.13205
0.19845,0.040864,-0.060581,-0.28445,-0.049097,-0.11012,-0.67073,0.051676
-0.69915,-0.09294,0.069234,0.24474,0.0098467,-0.0027534,0.074899,-0.080953
-0.1242,0.00023931,0.36753,0.34378,0.029897,-0.0040175,-0.001137,-0.10062
0.39562,-0.0073047,-0.58887,-0.62832,0.0035974,0.011295,0.049194,0.055686
-0.074453,0.025281,0.26191,0.20332,-0.021913,0.0041515,0.25828,0.028398
-0.22836,0.012026,-0.048544,0.081244,-0.015232,0.060326,0.10215,0.097988
0.56639,0.038551,-0.31562,0.16248,0.093991,-0.047074,-0.38216,-0.15081
-0.46572,0.0027456,0.15845,-0.52056,-0.10056,-0.021617,0.060079,0.022787
0.054598,-0.010127,0.20484,0.32242,-0.04433,0.04248,0.0034549,-0.015385
0.34164,-0.039777,-0.02505,-0.14353,0.11403,-0.034876,-0.17267,0.053892
-0.32791,-0.031989,-0.0054515,0.050744,-0.031959,0.011678,0.33353,0.0033791
0.23736,0.028679,-0.071174,0.27196,-0.013837,-0.021052,-0.16745,0.02821
-0.36346,-0.029504,-0.19131,-0.051544,-0.011591,-0.0079322,-0.1062,-0.12911
0.16591,0.0439,0.51516,0.10164,-0.025527,0.012284,0.23615,0.039948
0.10024,0.0073387,-0.25942,-0.3645,0.061256,0.05565,0.22015,0.10668
-0.37782,-0.052552,-0.057737,0.024607,0.021969,-0.041414,-0.59747,-0.22476
