0.021951,0.074922,0.08075,0.033236,-0.0051287,0.017663,0.012789,0.050197
0.0057986,-0.036862,0.091461,0.021992,0.0018739,-0.0055978,0.011049,0.0121
0.013864,-0.00022908,-0.21432,0.010816,0.0090233,0.0029953,0.0099122,0.036196
-0.00083033,0.012936,-0.19725,0.015776,0.0085991,0.012095,0.0093677,0.14458
0.016107,-0.052068,-0.037299,-0.056574,-0.0071843,-0.0097339,-0.014142,-0.28876
-0.037286,0.031373,0.34448,-0.0029556,0.00070793,0.0075812,0.0095415,-0.10799
-0.01297,-0.017833,0.02807,-0.003031,-0.014657,-0.014327,-0.060321,0.16364
0.018456,0.019335,-0.0073926,-0.0021924,0.0013464,0.0024706,0.010624,-0.027818
-0.029049,-0.067727,-0.63408,0.015031,0.0096126,0.0031717,0.019324,0.092064
0.0086785,0.01036,0.54902,0.03281,-0.013314,-0.020052,-0.018466,-0.077301
0.014728,0.050664,0.090631,0.011851,0.0028786,0.0031835,0.022362,0.042873
-0.01052,-0.0093276,-0.27413,-0.063703,0.003508,0.0026977,-0.0066199,-0.00033674
0.034896,0.095765,0.41521,0.01687,0.0041854,0.025515,0.027254,0.12095
-0.0049451,0.0061255,-0.22576,-0.035671,0.0048669,0.0092641,0.029924,0.11716
-0.020464,-0.1069,0.097459,0.051969,0.013288,-0.014718,-0.045911,-0.34035
0.011823,-0.017236,-0.26631,-0.0015726,-0.017527,-0.0073311,0.033679,0.1154
-0.033194,-0.076783,-0.18687,-0.016699,-0.017361,-0.03108,-0.067592,-0.2966
0.05518,0.12057,0.052338,0.069023,0.03715,0.054636,0.032938,0.18213
-0.074948,-0.073607,0.41849,-0.095998,-0.041515,-0.039278,-0.039631,0.060383
0.076045,0.059536,0.2857,0.066392,0.020118,0.015278,0.035368,0.20625
-0.023463,0.0044245,-0.85402,-0.084325,-0.012237,-0.0082754,-0.0071562,-0.067174
-0.02223,0.073506,0.62485,0.053608,0.0099843,0.015052,0.013089,-0.072322
0.040443,0.024431,-0.34669,0.082018,0.047854,0.01494,0.018526,-0.044058
-0.038698,-0.11958,0.22556,-0.1316,-0.054761,-0.016433,-0.021723,-0.069259
-0.033105,-0.09305,0.063027,-0.0088467,-0.024352,-0.040028,-0.013792,0.12432
0.033874,0.07275,-0.51875,0.013001,0.0062791,0.0066136,-0.020357,-0.066114
0.053037,0.073335,0.38173,0.11371,0.037066,0.037487,0.059707,0.030279
-0.037881,-0.10651,-0.26425,-0.027082,0.021003,0.013437,-0.00078483,-0.063754
0.027026,0.19787,0.20888,0.0044844,0.004793,0.0046726,0.0084317,0.07345
-0.048793,-0.16909,0.28555,-0.096542,-0.050792,-0.043577,-0.0069671,0.1844
0.024088,0.10585,-0.34833,0.052391,0.01821,0.024917,0.0073848,-0.25346
-0.042999,-0.14066,0.21826,-0.033266,-0.02256,-0.024139,-0.12035,-0.043494
0.031602,0.029473,0.051601,0.060508,0.030181,0.028214,0.078993,0.026902
-0.0017331,0.015098,-0.36043,-0.048996,-0.018586,-0.020815,-0.02665,0.037584
0.029173,0.003872,0.04876,-0.009997,-0.01223,-0.014547,0.024567,0.1307
0.030758,0.26128,0.66735,0.11528,0.010578,0.024033,0.022588,-0.083378
-0.082876,-0.33813,-0.68499,-0.13383,0.018905,0.0093812,-0.0006914,-0.041873
0.024085,0.14246,-0.24921,0.039702,-0.0027155,-0.011382,0.0018585,-0.011017
-0.023655,-0.11815,0.36033,-0.02816,-0.007461,-0.022619,-0.032478,0.054602
-1.115e-06,-0.0037223,-0.48541,0.021774,0.0043867,0.030086,0.02063,-0.081562
0.047547,0.18787,0.96736,0.025063,-0.014527,-0.017901,0.027364,0.14822
-0.0067579,-0.1537,-0.20024,0.059308,0.028942,0.0044611,-0.0056225,-0.071176
0.023784,0.048847,-0.54916,-0.016688,0.016974,0.041475,0.06121,0.39869
-0.0022111,0.083888,0.82674,-0.015904,-0.01972,-0.032899,-0.13231,-0.61541
0.00059592,-0.01773,-0.92572,-0.07922,-0.026804,0.014817,0.022866,0.058173
-0.11656,-0.20137,0.55026,-0.073758,-0.03562,-0.034688,-0.043392,-0.040533
0.091637,0.21302,0.20492,0.16494,0.047763,0.037275,0.060214,0.090457
-0.061942,-0.10974,-0.5268,-0.11249,-0.034053,-0.034357,-0.0090676,0.21155
0.056182,-0.020088,-0.3185,0.086901,0.039802,0.032881,0.023317,0.020772
0.079697,0.092623,0.34478,0.052865,0.051169,0.022037,0.0099391,-0.10451
-0.10762,-0.15313,0.43217,-0.14381,-0.08536,-0.064692,-0.0016043,-0.021973
-0.0048531,0.017209,-0.11762,0.075177,0.029037,-0.0062496,0.035899,-0.0041869
0.029413,0.29191,0.040967,0.029974,0.0039411,-0.034965,-0.057298,-0.074543
0.019172,-0.031729,-0.54309,-0.029856,-0.012187,-0.0088355,-0.0081408,0.063174
-0.019669,-0.14113,0.13249,-0.03461,0.011776,0.017798,0.010906,-0.029719
0.0066291,-0.23173,0.023089,0.085392,0.028727,0.059643,-0.00081047,0.067168
-0.027223,0.079048,0.84186,-0.08442,-0.055351,0.051994,0.034246,0.19603
0.073559,0.33783,-0.62004,0.11195,0.048359,0.10097,-0.024983,-0.30863
-0.027661,-0.13531,0.17054,-0.098882,-0.027519,0.01528,-0.038098,-0.03384
-0.12855,-0.28602,-0.63629,-0.19311,-0.079972,-0.14628,-0.020748,-0.058428
0.043504,0.088378,0.023127,0.14232,0.062828,-0.0038319,0.050638,0.23452
0.21431,0.42469,0.32095,0.28304,0.096171,-0.027767,0.09034,0.21227
-0.11675,-0.41869,0.26386,-0.18449,-0.058093,-0.11675,-0.096728,-0.37484
-0.09858,0.14293,-0.60419,-0.1272,-0.040649,-0.13699,-0.010395,0.036177
0.010834,-0.14969,0.90729,0.056449,0.015593,0.03028,-0.017773,0.055266
0.094379,0.28799,-0.012753,0.1005,-0.0066795,0.019282,0.068616,-0.0045195
-0.066354,-0.13118,-0.69944,-0.073748,-0.013851,0.20556,-0.040404,-0.01768
0.060437,-0.025067,0.55948,0.072054,0.056465,0.52598,0.053447,0.19587
-0.10269,-0.01872,-0.56883,-0.15813,-0.030174,-0.14607,-0.048424,-0.22294
0.085609,-0.025434,0.49166,0.1726,0.054364,-0.2889,0.005457,0.054199
-0.014629,-0.028045,-0.63306,-0.06114,-0.057004,-0.12194,0.019802,0.027443
0.042432,0.19434,-0.38471,-0.023537,-0.028136,-0.057674,-0.052109,-0.045293
-0.016312,-0.28556,0.95298,-0.026938,-0.0071798,0.26019,0.016553,0.00012529
-0.16731,0.12832,-0.27063,-0.21161,-0.040695,-0.19947,-0.023894,-0.06286
0.21432,0.086148,0.37098,0.52445,0.16847,-0.1997,0.061207,0.1719
-0.14518,-0.16908,-0.48669,-0.44328,-0.12171,-0.19812,-0.040488,-0.084889
0.1053,0.2998,0.56311,0.38556,0.096609,-0.25539,0.030367,-0.013295
-0.1051,-0.65716,0.066008,-0.29339,-0.098583,0.4468,0.00010205,0.026849
0.21531,0.98882,-0.21429,0.11387,0.073759,0.51785,0.032396,0.042904
-0.090041,-0.50737,-0.41972,0.0060794,-0.01158,0.53712,-0.006003,-0.020141
-0.036788,0.24995,-0.081152,-0.11643,-0.042242,-0.070442,-0.029523,-0.045178
-0.17144,-0.6005,-0.039632,-0.16731,-0.065119,-0.58698,-0.06959,-0.071045
0.11611,0.47983,-0.016857,0.20536,0.052713,-0.061181,0.030128,0.051216
0.10804,-0.070367,0.68869,0.38462,0.12394,-0.28942,0.066851,0.08014
-0.20255,-0.34988,-0.10428,-0.38732,-0.16374,-0.3208,-0.060456,-0.10851
0.036536,-0.057993,-0.84405,-0.079458,0.033506,-0.0025583,-0.054331,-0.0063255
0.059719,0.31726,0.46375,-0.051618,-0.01876,0.25437,0.062284,0.035419
0.3039,0.29503,0.7164,0.47688,0.17921,0.48192,0.12561,0.19626
-0.23217,-0.044415,-0.79385,-0.4164,-0.099555,0.0042809,-0.075295,-0.14155
-0.05011,-0.33364,0.46461,0.11181,-0.019579,-0.34582,-0.017272,-0.025776
0.239,0.14439,-0.35323,0.31122,0.12967,0.45813,0.010128,0.07383
-0.56154,-0.27783,0.98569,-0.84952,-0.39425,-0.93552,-0.16556,-0.24991
0.18808,0.42645,-0.95587,0.34053,0.15084,0.65663,0.12696,0.12734
0.22213,-0.40391,-0.40923,0.49856,0.23388,0.54678,0.074705,0.1115
-0.091634,0.66423,-0.24299,-0.25053,-0.12136,-0.29198,-0.064843,-0.063008
0.20099,-0.075357,0.41167,0.12425,0.09332,-0.036843,0.090986,0.08856
-0.27361,-0.90517,-0.0039939,-0.32275,-0.15294,-0.6934,-0.16869,-0.16756
0.072026,0.42565,0.91304,0.064454,-0.00043215,-0.047358,0.031396,0.044404
-0.018451,-0.50982,-0.082965,0.15311,0.066771,0.39107,0.074468,0.053384
0.12814,0.99572,-0.27768,0.15464,0.033293,0.14516,0.00013093,0.024213
-0.057495,-0.013949,-0.38731,-0.42997,-0.05378,0.060432,-0.019161,-0.042467
-0.18407,-0.37816,0.27012,-0.029041,-0.069282,-0.28998,-0.045367,-0.060274
0.12365,-0.038838,0.23636,0.17926,0.10408,0.13597,0.054757,0.072566
-0.048659,-0.22065,-0.6569,0.040027,-0.041477,-0.10479,-0.046652,-0.042422
0.24358,0.18593,-0.35848,0.39781,0.12678,0.46525,0.08015,0.11794
-0.04766,0.33561,0.12032,-0.4114,-0.14917,-0.21706,-0.033749,-0.063994
-0.2129,-0.0011303,0.59519,-0.12279,-0.04934,-0.075628,-0.037153,-0.065345
-0.034961,-0.6719,0.059053,-0.011413,0.027363,-0.17597,-0.024343,-0.0039164
0.062783,0.47544,-0.0063076,0.10802,0.041277,-0.13081,0.011854,-0.013121
0.21971,0.46855,0.40092,0.39699,0.16358,0.51779,0.086389,0.11744
-0.14315,-0.61689,-0.24346,-0.38141,-0.12988,-0.15419,-0.012299,-0.034559
-0.026166,0.007389,0.22296,-0.1122,-0.035055,-0.34292,-0.011247,-0.0085147
0.14895,-0.0091786,-0.62996,0.46099,0.12732,0.56157,0.02681,0.062568
-0.32809,-0.15627,-0.096541,-0.61542,-0.26787,-0.53251,-0.16369,-0.19634
0.059391,-0.21173,0.22064,0.12016,0.06872,0.010736,0.058261,0.066438
0.086051,0.67171,-0.8861,0.16947,0.090823,0.21061,0.021398,0.038671
0.057781,-0.22195,0.76157,0.042968,0.0024262,-0.18702,0.031156,0.025391
0.25682,0.68697,-0.062919,0.47045,0.1717,0.68814,0.057011,0.089483
-0.22242,-0.49198,-0.10259,-0.45861,-0.14254,-0.47438,-0.033274,-0.081157
-0.15299,-0.4862,0.58443,-0.38132,-0.13472,-0.35356,-0.028411,-0.056442
0.12152,0.6405,0.97564,0.1507,0.016223,0.15146,0.017007,0.031225
0.085552,-0.61311,-1.0171,0.2959,0.23268,0.66367,0.016913,0.041627
-0.45621,-0.22443,-0.36664,-0.57771,-0.35232,-0.8043,-0.154,-0.21237
0.23837,0.1732,0.61066,0.49774,0.16731,0.064295,0.058526,0.10542
0.52068,0.78242,-0.70452,0.56638,0.26759,0.65637,0.20869,0.27633
-0.49248,-0.39759,-0.84284,-0.58703,-0.27894,-0.23446,-0.13371,-0.20763
0.026455,0.0066793,0.39419,-0.014546,-0.0046762,-0.40736,-0.06287,-0.049979
0.24869,0.14946,0.49531,0.30216,0.18296,0.37114,0.1084,0.13938
-0.30299,-0.10428,0.722,-0.36744,-0.15456,-0.33578,-0.10442,-0.14793
0.081897,-0.092361,-0.76063,-0.2285,-0.02568,0.10688,0.048792,0.048576
-0.042108,-0.36256,1.0134,0.055265,-0.0087023,-0.17248,-0.041006,-0.029162
0.1924,0.62464,-0.9547,0.26769,0.10766,0.63479,0.079853,0.079822
-0.081228,-0.87884,0.31025,0.069223,-0.027403,-0.36581,-0.033285,0.00081439
-0.0028247,0.97387,-0.037352,-0.058629,-0.061308,0.03989,0.010883,-0.03914
-0.32154,-0.53208,0.69811,-0.25967,-0.1024,-0.48204,-0.11518,-0.16447
0.45556,0.73223,-1.0332,0.45392,0.28767,0.66266,0.15143,0.24253
-0.218,-0.94859,-0.4705,-0.29122,-0.16409,-0.050559,-0.071983,-0.11466
-0.10787,0.12287,0.77072,-0.15174,-0.074868,-0.45237,-0.019982,-0.0094323
0.42601,0.1502,-0.81068,0.62789,0.28925,0.52393,0.11944,0.19859
-0.18764,-0.016506,0.33368,-0.20592,-0.16627,-0.23517,-0.060711,-0.12392
0.026498,0.65856,0.51709,-0.11833,0.010758,0.23513,-0.014407,-0.016709
-0.3859,-0.63392,0.048769,-0.49605,-0.21175,-0.71683,-0.078431,-0.13669
0.37892,0.37434,0.1062,0.40015,0.19684,0.63354,0.12154,0.16404
-0.21081,-0.20407,0.046221,-0.21252,-0.11531,-0.19081,-0.047746,-0.083548
-0.061362,-0.19247,-0.50103,0.13467,0.023733,-0.31393,-0.094195,-0.059165
0.45269,-0.13047,0.20545,0.66179,0.30177,0.6257,0.16989,0.25302
-0.11327,0.69504,-0.057687,-0.64451,-0.17916,0.021677,-0.051887,-0.091932
-0.3599,-1.0628,0.92375,-0.17987,-0.1763,-0.73991,-0.10265,-0.14826
0.096492,0.39912,-0.72618,0.15231,0.06874,0.2816,0.065184,0.053268
0.13169,0.67348,-0.18936,0.0029189,0.040885,0.40137,0.038203,0.036479
-0.050688,-1.0701,-0.78781,0.25647,0.060891,-0.22254,0.012222,0.036031
-0.0051927,0.74212,-0.045974,-0.17228,-0.058464,0.035757,-0.067163,-0.06516
0.064758,0.29773,1.05,0.16946,0.018826,-0.12853,0.026644,0.029685
-0.028994,-0.60939,-0.020931,-0.17266,-0.019889,-0.075683,-0.011244,-0.0078427
0.079868,0.24945,-0.21643,0.080862,0.035982,0.23184,0.02972,0.048398
-0.070446,0.53898,-0.16884,-0.25149,-0.095283,-0.082766,-0.03065,-0.06769
-0.035206,-0.41975,0.71836,0.19595,0.10143,0.025545,0.057134,0.057539
-0.080134,-0.70251,-1.0201,0.00036546,0.031926,-0.17917,-0.051109,-0.037112
0.20932,0.78955,0.79148,0.18504,0.0006121,0.55977,0.034984,0.046773
-0.20489,-0.7321,0.16636,-0.35106,-0.10975,-0.64099,-0.044005,-0.065562
-0.0010947,0.17338,-0.23793,-0.052178,-0.025519,0.17946,-0.014458,-0.029891
-0.029461,0.03452,0.28193,0.051736,-0.066604,-0.31452,-0.047894,-0.040913
0.070443,0.34099,-0.73297,0.25873,0.16593,0.23685,0.082685,0.089481
0.22875,-0.32507,-0.033995,0.26491,0.10224,0.43524,0.057379,0.09612
-0.062665,0.74108,-0.34321,-0.42171,-0.10895,-0.16495,-0.037586,-0.044245
-0.086107,-0.016306,0.77183,-0.0045724,-0.037903,-0.048878,-0.0067792,-0.03485
-0.030611,-0.28802,-0.032699,0.14058,0.033965,-0.069124,-0.014322,-0.016697
-0.06975,-0.21119,-0.75398,-0.39348,-0.096835,-0.12502,-0.029156,-0.029396
0.14654,-0.19601,0.29095,0.50158,0.16297,0.25957,0.042201,0.067086
-0.22651,-0.010336,0.4785,-0.39397,-0.18712,-0.48536,-0.058345,-0.094976
-0.040871,-0.15395,0.2988,0.028354,0.016493,-0.085293,-0.0029253,-0.015983
0.28181,0.79,0.073947,0.46321,0.21093,0.74268,0.098891,0.13978
0.031368,-0.83773,0.099246,-0.081941,-0.033668,-0.23385,-0.034257,-0.010515
0.060573,0.64053,0.019759,-0.013175,-0.037562,0.14335,0.035123,0.041129
-0.23847,-0.4884,-1.3397,-0.3687,-0.13631,-0.49896,-0.075658,-0.14239
-0.12193,0.40462,0.042691,-0.084408,0.0067071,0.16876,-0.022589,-0.03703
0.21649,0.063725,0.19104,0.24819,0.11121,0.1788,0.061901,0.10792
-0.15936,-0.24621,0.006508,-0.20436,-0.11083,-0.093222,-0.056114,-0.073983
0.18891,-0.1066,0.64102,0.34921,0.091553,0.15762,0.061299,0.097574
-0.012027,0.50072,0.23006,0.027409,0.00018351,-0.20171,-0.046495,-0.041124
-0.26294,-0.4931,0.19597,-0.4432,-0.11926,-0.35163,-0.027852,-0.08387
0.27822,0.33528,-0.29184,0.27964,0.17014,0.42533,0.1014,0.1251
0.10118,-0.13658,-0.47316,0.42742,0.070343,0.24443,0.004814,0.030221
-0.22664,-0.3261,-0.42595,-0.43331,-0.13113,-0.45935,-0.076134,-0.10405
0.049754,-0.070174,0.43468,-0.12683,-0.060937,0.068895,0.013977,0.017944
0.25625,0.78891,0.46697,0.33569,0.13889,0.59959,0.07126,0.1139
-0.38174,-0.33907,-0.0010764,-0.50089,-0.17312,-0.573,-0.10794,-0.15278
0.13602,-0.16806,-0.44424,0.47252,0.14353,0.26035,0.077743,0.085023
-0.079396,-0.66156,-0.092454,-0.0080805,-0.03549,-0.36172,-0.043321,-0.054966
-0.29075,0.5601,0.39781,-0.68946,-0.22447,-0.22721,-0.087706,-0.14979
0.38832,0.49241,-0.15784,0.44825,0.18767,0.44753,0.093917,0.16137
0.18788,0.20715,0.067093,0.20637,0.093314,0.23616,0.049415,0.090938
-0.30325,-0.046022,0.19072,-0.32533,-0.15455,-0.4123,-0.079692,-0.12545
0.1901,-0.80012,-0.76888,0.6291,0.21055,0.22432,0.050973,0.091116
-0.058269,0.11429,0.24571,-0.4607,-0.10811,-0.10916,-0.027094,-0.040415
0.11481,-0.32865,0.5564,0.31073,0.10771,0.073074,0.068754,0.081123
-0.24563,0.65038,-0.60337,-0.56652,-0.23669,-0.080425,-0.060438,-0.12325
0.022086,-0.020222,-0.18342,0.16244,0.068434,0.030762,0.022086,0.025057
0.040551,0.0025271,0.72179,0.072508,0.0063377,-0.064291,-0.036046,-0.0063401
0.042036,-0.21932,0.56098,0.18407,0.060503,0.26441,0.0066472,0.0081738
-0.092185,0.50919,-0.3056,-0.29449,-0.089928,-0.24392,-0.014377,-0.025789
0.21513,-0.8592,-0.66693,0.43185,0.17985,0.32995,0.049134,0.086807
-0.2941,0.19068,0.67353,-0.48949,-0.20037,-0.7112,-0.060515,-0.1071
0.044412,0.31467,-0.98335,0.011599,-0.019352,0.28023,0.00077781,0.0021856
0.33277,0.57505,-0.26294,0.7951,0.27013,0.59359,0.077256,0.12605
-0.20959,-0.39508,0.71253,-0.77054,-0.22223,-0.5823,-0.041506,-0.078796
0.058653,-0.0087552,-0.60719,0.089804,0.058404,0.28587,0.027724,0.04428
-0.28377,-0.84995,0.41494,-0.3095,-0.138,-0.5573,-0.097623,-0.11388
0.099535,-0.04877,0.42155,0.26766,0.118,0.19517,0.051224,0.040508
0.14638,0.67125,0.82535,0.37723,0.13076,0.34975,0.028751,0.038569
0.38036,0.62517,-0.49568,0.42616,0.15773,0.4933,0.10802,0.16132
-0.59683,-0.6466,-0.30648,-0.9917,-0.43408,-0.83513,-0.15675,-0.23992
0.058712,-0.24599,-0.44271,0.099959,0.042973,0.019896,-0.00034623,0.022185
0.15201,0.43422,-0.27718,0.29462,0.11288,0.17424,0.037871,0.064847
-0.05075,0.17172,0.51623,-0.12647,-0.051568,0.079587,-0.0030812,-0.017919
0.13872,-0.076701,-0.21617,0.22775,0.12892,0.17222,0.033265,0.055645
-0.14584,-0.42427,0.63404,-0.25901,-0.094483,-0.41579,-0.040129,-0.065328
-0.036315,-0.053294,-1.0795,0.0081909,-0.025557,0.12782,-0.027326,-0.036318
-0.094497,-0.019246,0.51361,-0.19603,-0.02321,-0.29823,-0.021414,-0.036308
0.31274,0.20251,0.0091356,0.47291,0.20151,0.43155,0.10317,0.15392
-0.10391,0.1774,-0.078494,0.0072813,-0.0083532,0.23954,-0.028248,-0.035835
-0.12663,0.24541,0.43238,-0.43755,-0.20866,-0.33497,-0.032856,-0.066867
-0.014765,-0.73754,0.53083,0.12085,0.052256,-0.081181,0.018678,0.028778
0.081241,0.20892,-0.28286,-0.015701,-0.055221,-0.0074175,-0.014939,-0.0078667
0.3467,0.056075,-0.98774,0.51654,0.18637,0.27621,0.10762,0.16562
-0.25945,0.3046,1.0537,-0.12963,-0.012929,-0.15296,-0.098931,-0.13173
-0.31678,-0.42192,-0.85551,-0.55861,-0.20817,-0.19396,-0.057234,-0.12748
0.25224,0.37313,-0.26851,0.46242,0.17897,0.25449,0.08378,0.11537
0.026131,0.16935,0.77319,-0.089847,0.00079539,0.051943,-0.011948,0.010907
-0.1657,-0.23389,-0.29171,-0.40879,-0.17909,-0.23847,-0.047273,-0.08872
0.014599,-0.22422,-0.70938,0.12621,0.031249,-0.022049,-0.0059756,0.028404
0.053535,-0.093977,1.1425,0.042879,0.062721,-0.024214,0.026807,0.0197
0.13272,0.42136,-0.46558,0.1658,0.072502,0.27171,0.020679,0.034742
0.13638,-0.41119,1.0016,0.30308,0.092314,-0.086636,0.054524,0.09007
-0.18474,0.20883,-0.40643,-0.20739,-0.11224,0.033908,-0.066409,-0.094981
0.17728,0.11464,-0.48502,0.25966,0.10687,0.25825,0.080057,0.08921
-0.39506,-0.47725,-0.36554,-0.72672,-0.29786,-0.63278,-0.14665,-0.20115
0.074267,0.1256,0.40712,0.27639,0.12604,0.086762,0.065804,0.07278
0.045605,0.20768,-0.015798,0.14888,0.026496,0.23654,0.013966,0.012213
-0.012894,0.35591,-0.85748,-0.18252,-0.057753,0.050343,-0.052605,-0.03169
0.25752,-0.0014714,0.77584,0.34997,0.19345,0.19963,0.08433,0.1125
-0.27666,-0.070967,-0.012534,-0.44293,-0.20431,-0.36271,-0.067952,-0.10259
0.21191,-0.1069,0.6909,0.21136,0.09271,0.0039998,0.068164,0.095965
0.15213,-0.30091,-0.41413,0.36771,0.12357,0.1126,0.031311,0.051434
-0.45663,-0.2731,0.40864,-0.59775,-0.22113,-0.15351,-0.13973,-0.20532
0.1197,0.17071,-0.92645,0.082618,0.043025,0.08926,0.054935,0.075514
0.17816,0.02343,0.22909,0.38011,0.18175,0.2167,0.052938,0.081467
-0.21029,0.47466,0.16558,-0.30409,-0.19537,-0.10646,-0.090716,-0.12467
0.064749,0.33972,-0.57434,-0.15496,-0.017681,-0.24701,0.038504,0.043544
0.17639,-0.80831,0.18777,0.45428,0.16837,0.36539,0.06613,0.086712
-0.21013,0.17333,0.90683,-0.44439,-0.19929,-0.30085,-0.085446,-0.10393
0.0076297,0.0044885,-0.20955,0.23439,0.067172,-0.051211,0.0295,0.011193
0.095678,-0.25249,-0.46734,0.10596,0.077276,0.20686,0.036222,0.049551
0.045984,0.23695,-0.093257,0.065836,0.010576,0.0030896,-0.026146,0.011195
-0.095364,0.48595,-0.13418,-0.24881,-0.047384,0.038901,-0.032715,-0.041573
0.10793,-0.27428,0.15109,0.18989,0.066867,-0.054534,0.031883,0.031483
-0.025203,-0.47668,0.30644,-0.019157,-0.022334,0.1512,0.0032278,-0.0044941
-0.16787,0.35266,-0.25217,-0.47893,-0.16713,-0.47729,-0.040951,-0.064035
0.1869,0.57181,0.28639,0.3028,0.10865,0.38843,0.078658,0.07907
0.023224,-0.58442,-0.22295,0.32754,0.13301,0.19498,-0.0054341,0.026206
-0.32258,-0.20741,0.84589,-0.50375,-0.30488,-0.62581,-0.098098,-0.16011
0.11914,-0.34799,-0.74919,0.12453,0.14683,0.15526,0.027176,0.051558
0.21673,0.092115,-0.11692,0.37943,0.13688,0.14235,0.050149,0.091135
-0.083383,0.2966,-0.45793,-0.21324,0.017113,0.23598,-0.0055857,-0.0099072
-0.11637,0.50213,0.18617,-0.23026,-0.19671,-0.25816,-0.053895,-0.063971
0.0086035,0.15386,0.19863,0.086363,-0.0045864,0.050276,0.014775,-0.0086357
0.15831,-0.29789,0.20758,0.3373,0.12466,0.081622,0.059932,0.085539
0.14435,0.16555,0.81183,-0.11196,0.042489,0.075601,0.034781,0.046332
-0.15158,-0.43012,-0.8575,-0.10715,-0.063594,-0.033102,-0.068441,-0.071903
-0.081998,-0.30082,-0.59095,-0.025123,-0.013739,0.010839,-0.0074839,-0.019347
-0.15519,0.018934,0.59378,-0.11705,-0.065377,-0.30975,-0.047861,-0.084993
0.12907,0.26257,0.20892,0.10113,0.024266,0.051776,0.037164,0.067461
0.037352,-0.20914,-0.74312,0.044106,0.091824,0.073111,0.021239,0.024563
-0.053936,0.7868,0.886,-0.20874,-0.12767,-0.063869,-0.0016914,-0.025458
-0.065157,-0.53424,-0.75821,0.10193,0.038094,0.11225,-0.008077,-0.0038004
-0.041996,0.051358,0.59208,-0.11632,-0.090514,-0.13826,-0.044814,-0.050636
0.43794,0.41543,-0.34427,0.61378,0.29078,0.50659,0.13011,0.19352
-0.17254,-0.60205,0.95524,-0.20003,-0.084495,-0.28081,-0.05392,-0.076272
0.047368,-0.044936,-0.79122,-0.15224,0.0090806,0.014534,-0.01133,0.0066045
-0.10702,-0.3567,-0.30112,-0.033083,-0.023417,-0.10114,-0.00027303,-0.02733
-0.29359,0.69742,0.41434,-0.46093,-0.25324,-0.2236,-0.083489,-0.12411
0.1582,0.31158,-0.26938,0.36018,0.11599,0.28579,0.043615,0.059443
0.099114,-0.25896,-0.12144,0.13287,0.045259,0.073947,0.013896,0.030812
0.013368,0.13057,0.24824,0.16175,0.027265,-0.086469,0.022798,0.032097
0.049776,-0.57083,-0.69849,-0.18575,0.070647,-0.10165,0.0079637,0.00089924
-0.095604,-0.11718,0.44527,-0.088965,-0.065871,-0.080195,-0.022708,-0.023515
-0.04688,0.29285,0.936,-0.070963,-0.037745,0.072922,0.0088945,-0.017484
0.024911,0.28965,-0.05882,-0.045608,-0.024135,-0.039361,-0.014534,-0.0042618
0.13602,-0.25316,-0.28921,0.36986,0.14701,0.30285,0.055258,0.078766
-0.041341,0.38274,-0.5628,-0.21556,-0.079159,0.014222,-0.047554,-0.041782
-0.054019,-0.66173,-0.36095,0.041249,-0.0312,-0.17087,-0.0027986,0.0013103
-0.02721,0.12999,0.70154,0.022349,0.0090516,-0.24522,-0.044888,-0.057529
0.070023,0.66549,-0.098923,0.1802,0.064438,0.32921,0.06065,0.063063
-0.098568,-0.74113,0.46079,-0.35273,-0.099897,-0.30814,-0.014085,-0.050782
0.091807,0.71658,-1.0506,0.0096484,0.054826,0.34154,0.020284,0.030883
-0.062027,-0.85802,0.50793,-0.15389,-0.088627,-0.2384,-0.03902,-0.027592
-0.10682,0.33365,0.66968,0.087425,-0.014461,-0.056452,-0.0041657,-0.0071982
0.27802,-0.011599,-1.1245,0.56301,0.24641,0.38709,0.054802,0.10788
-0.14146,0.27924,0.84028,-0.21018,-0.14149,-0.24351,-0.033813,-0.072901
0.12743,-0.011867,-0.77587,0.034706,0.087964,0.20092,0.066023,0.06766
