0.053512,0.04534,0.14649,0.077481,-0.014082,-0.017494,0.019251,0.0075493
0.074705,0.00036049,0.039184,-0.017578,0.061398,0.042142,0.033289,0.029227
-0.16061,-0.16882,-0.27386,-0.32856,-0.19738,-0.11574,-0.076677,-0.11253
0.089766,-0.087319,0.32987,0.20791,0.17054,0.1106,0.080065,0.097939
-0.057104,0.096621,-0.28529,-0.28259,-0.11635,-0.060098,-0.051232,-0.050293
0.10167,0.078755,-0.051905,0.48135,0.20708,0.10633,0.060486,0.091159
-0.10608,-0.13261,0.37903,-0.1101,-0.12549,-0.10145,-0.061645,-0.087183
0.038044,0.048705,-0.24445,-0.1362,-0.028885,-0.012073,0.0038918,0.016101
-0.021024,0.0443,0.02959,0.16694,0.074321,0.045767,-0.001085,-0.0054234
-0.049288,-0.10777,-0.54131,-0.22622,-0.15231,-0.069121,-0.03004,-0.05822
0.18726,0.41111,0.87945,0.30719,0.18946,0.13499,0.088623,0.13873
-0.085137,-0.20599,-0.55816,-0.33611,-0.12676,-0.053125,-0.028097,-0.03197
-0.077613,-0.26601,0.42166,0.092928,-0.0066758,-0.039763,-0.020898,-0.054874
0.092619,0.31516,0.55643,0.32877,0.1052,0.042506,0.032162,0.038696
-0.042982,-0.18985,-1.1266,-0.33832,-0.0088794,-0.024534,-0.024941,-0.0090085
-0.054268,0.00075283,-0.23258,-0.1249,-0.12137,-0.076053,-0.035577,-0.06496
0.051625,0.14685,0.32099,0.089036,0.034183,0.052903,0.016376,0.035254
0.064559,0.040882,0.3737,0.040772,0.028605,0.019436,0.014271,0.04206
-0.21,-0.78171,-0.064323,-0.23605,-0.083367,-0.03519,-0.041405,-0.083194
0.22075,0.69899,0.60093,0.72082,0.24468,0.11587,0.068432,0.12073
-0.096043,-0.16187,-0.72652,-0.33872,-0.12099,-0.074404,-0.01549,-0.064809
-0.05895,0.16124,-0.58262,-0.28338,-0.1035,-0.0519,-0.027706,-0.053982
0.25334,0.54352,1.0961,0.57167,0.23331,0.15126,0.1017,0.14507
-0.12103,-0.54024,-0.79227,-0.47996,-0.1664,-0.067521,-0.065328,-0.06187
-0.12066,-0.28097,0.57935,0.019432,-0.061193,-0.076376,-0.045007,-0.065969
0.042405,0.027872,-0.3909,-0.11242,-0.044982,-0.016664,-0.017545,0.022913
0.00011507,-0.048076,0.2516,0.099514,0.085772,0.0096721,0.016705,0.0013051
0.0097854,0.401,0.64426,0.17844,0.0038391,0.033881,0.018534,-0.0059349
0.094826,0.12964,-0.34487,0.14102,0.0854,0.056295,0.050501,0.07159
-0.0099463,-0.25463,-0.6087,-0.049685,0.089502,0.030606,-0.0043612,0.023237
-0.124,0.02919,-0.27015,-0.33605,-0.1859,-0.097192,-0.051983,-0.11929
-0.019707,-0.13467,-0.33173,-0.12103,-0.029121,-0.0061143,0.0017374,-0.0038959
0.030617,-0.4231,0.37707,0.13754,-0.025797,0.0075184,-0.01477,0.018345
-0.01902,0.40975,0.69715,0.16863,0.026961,-0.0090847,-0.007564,-0.020993
0.081826,0.24268,0.19205,0.043655,0.042423,0.006622,0.023372,0.050009
-0.0029246,-0.21796,-0.42417,-0.089319,0.089612,0.030932,0.015356,0.02793
0.23381,0.49088,0.40786,0.40846,0.20597,0.14923,0.12428,0.14654
-0.31068,-0.58325,0.0624,-0.36438,-0.34456,-0.19388,-0.1425,-0.18872
0.065396,0.2544,-0.40231,-0.051835,-0.0086739,0.024285,0.0036539,0.013584
-0.060971,-0.20082,-0.28837,-0.1022,-0.013739,-0.032785,-0.015659,-0.051795
-0.026395,-0.18518,0.025524,0.052864,0.054334,0.017451,-0.012941,-0.0099917
0.21598,0.71359,0.30483,0.25656,0.173,0.12044,0.090243,0.13935
-0.16912,-0.48228,-0.82113,-0.29484,-0.10137,-0.067006,-0.057068,-0.087361
-0.00073995,-0.046641,0.61734,-0.021081,-0.12598,-0.075245,-0.016577,-0.024942
0.027421,0.060039,0.39033,0.12746,0.046803,0.018711,0.0094456,0.023108
-0.075161,-0.11422,-0.61297,-0.18251,-0.073149,-0.034031,-0.017317,-0.028104
0.028836,0.072673,0.36408,0.12111,0.031159,0.017411,0.0051751,0.017403
0.14492,0.051755,0.1863,0.25756,0.18043,0.087545,0.061395,0.089459
-0.062749,0.1285,-0.36959,-0.11795,-0.0088596,-0.0034272,-0.020854,-0.038915
-0.024491,-0.21276,0.26759,0.0079236,-0.03057,0.0016361,-7.0259e-05,-0.017049
0.21162,0.54272,0.51842,0.39793,0.16771,0.093835,0.07596,0.12265
-0.12152,-0.21599,-0.61974,-0.2006,-0.11166,-0.056214,-0.035889,-0.074124
-0.3066,-0.53757,-0.97021,-0.88303,-0.35494,-0.22308,-0.15669,-0.20203
0.053689,0.068534,0.80822,0.20212,0.030648,0.045605,0.02563,0.027522
0.18524,0.18709,0.12041,0.29073,0.20144,0.1168,0.073555,0.13015
-0.068397,0.067573,0.2711,0.19796,0.017854,-0.017019,0.0030547,-0.026544
0.15228,0.3663,0.44931,0.16128,0.067468,0.043318,0.033479,0.065928
-0.066443,-0.46305,-0.89684,-0.22283,-0.077566,-0.037181,-0.037609,-0.037027
0.088387,0.13509,0.10359,0.15676,0.084346,0.047138,0.056029,0.071455
-0.18744,-0.3539,-0.52186,-0.30885,-0.11765,-0.093565,-0.091449,-0.10042
-0.049717,0.29751,0.19132,0.082655,-0.042654,-0.02916,-0.011174,-0.06032
0.0567,0.027628,0.1827,-0.037779,0.066617,0.052866,0.046652,0.043197
-0.039685,-0.0067863,0.32703,-0.03984,-0.017585,0.0036322,-0.004398,-0.024572
0.28641,0.62422,0.93384,0.68322,0.25781,0.16606,0.10061,0.1734
-0.16017,-0.67299,-1.0022,-0.61305,-0.21045,-0.10932,-0.06876,-0.082171
-0.098127,-0.47645,-0.23762,-0.16442,-0.025348,-0.042294,-0.013133,-0.02612
0.1991,0.53429,0.67435,0.38037,0.070122,0.061677,0.032772,0.060016
-0.17475,-0.039063,-0.49724,-0.5091,-0.2678,-0.16491,-0.11067,-0.14409
-0.10246,-0.21999,-0.09747,0.25486,0.1179,0.035979,-0.013314,-0.013164
0.11911,0.41291,-0.51488,0.17441,0.11139,0.047832,0.067829,0.070464
-0.033554,-0.071112,-0.11174,-0.16246,-0.082646,-0.050275,-0.030391,-0.025464
0.025221,-0.032983,0.79805,0.19882,0.060605,0.06292,0.036587,0.035432
0.18551,0.30676,0.49404,0.21194,0.15139,0.11467,0.089576,0.10489
-0.061291,-0.18627,-0.074248,-0.20159,-0.075714,-0.043181,-0.03542,-0.05162
-0.16143,-0.60674,-0.95245,-0.55063,-0.18369,-0.098341,-0.073149,-0.059546
0.17331,0.33439,0.88089,0.51493,0.23275,0.12832,0.092878,0.10395
-0.10451,-0.23705,-0.43038,-0.1939,-0.14787,-0.10611,-0.069427,-0.10077
-0.18246,-0.038472,-0.025099,-0.053367,-0.10785,-0.083563,-0.060827,-0.095908
0.11961,0.53305,0.37988,0.44354,0.16459,0.10178,0.055674,0.071636
0.037028,0.28321,-0.66506,-0.30494,-0.080753,-0.042323,-0.024746,-0.00403
0.063255,-0.27971,0.24483,0.076734,0.062744,0.046971,0.041931,0.068369
0.17629,0.25084,0.48654,0.08206,0.11938,0.096919,0.061007,0.086536
-0.23184,-0.47614,-0.64544,-0.099422,-0.10491,-0.10249,-0.083861,-0.12836
0.043205,-0.12331,0.48992,-0.2386,-0.14781,-0.05806,-0.016751,0.010389
-0.14606,-0.14134,-0.41808,-0.051608,0.0076289,-0.018912,-0.018089,-0.059195
-0.04911,-0.12852,-0.57902,-0.020712,-0.0048551,-0.015718,-0.017004,-0.032204
0.15437,0.33256,0.63109,0.19877,0.11972,0.10006,0.088227,0.10682
0.088774,0.088022,0.11325,0.44207,0.18556,0.10137,0.070738,0.060407
0.01846,0.40395,0.067844,-0.10586,-0.082062,-0.051868,-0.054584,-0.023932
-0.0036619,-0.38577,0.92417,-0.10529,-0.13035,-0.032981,-0.030974,-0.0067451
-0.010906,0.34722,-0.84592,-0.17823,0.046388,-0.0076209,-0.0080319,-0.02205
-0.1459,-0.18448,-0.0071538,-0.024678,-0.053837,-0.055348,-0.033687,-0.078682
-0.035263,-0.23748,0.020097,-0.17167,-0.018398,0.0025141,0.0084871,0.025825
0.070073,0.01845,-0.65776,0.003955,-0.051077,-0.02194,-0.0068613,0.0022167
0.10745,0.26726,0.70397,0.42427,0.16083,0.082466,0.06098,0.061706
-0.14908,-0.52302,-0.54972,-0.41639,-0.14734,-0.081908,-0.060955,-0.076304
0.15325,0.24357,0.17465,0.47782,0.18999,0.10329,0.073389,0.089063
-0.13243,-0.092523,0.17076,-0.31042,-0.13012,-0.079376,-0.050735,-0.07408
-0.051349,-0.18186,0.29731,-0.19827,-0.098117,-0.034959,-0.03402,-0.01805
0.046396,0.035785,-1.0403,0.099785,0.12336,0.081225,0.030527,0.038985
0.31816,0.97076,0.7793,0.37599,0.1525,0.12911,0.10437,0.15983
-0.212,-0.36721,-0.010419,-0.11787,-0.064901,-0.10988,-0.085643,-0.12422
-0.043887,-0.17393,0.74766,0.079341,-0.060059,-0.042099,-0.016066,-0.039851
-0.13082,-0.02203,-0.67044,-0.48677,-0.15362,-0.074118,-0.046481,-0.063837
0.050204,-0.27414,-0.24356,0.048492,-0.025841,0.012438,0.025847,0.014544
0.12357,0.19167,0.44512,0.38493,0.22097,0.09218,0.059771,0.077913
-0.10676,-0.11884,-0.34399,-0.13744,-0.10936,-0.061833,-0.023426,-0.037974
0.11626,-0.049889,0.17532,0.11832,0.091636,0.05783,0.01785,0.041672
0.0027497,0.18864,-0.21417,-0.10875,0.018323,0.036719,0.0033979,0.043152
-0.073012,-0.072997,-0.20855,-0.03176,-0.041073,-0.031791,-0.035878,-0.057274
0.03687,-0.1448,0.079779,-0.0031175,-0.024642,-0.0073789,0.0014846,-0.0020819
0.066542,0.2565,0.45701,0.032535,-0.010708,-0.023012,0.014113,0.028847
-0.18694,-0.18076,-0.50229,-0.13361,-0.061473,-0.047377,-0.052212,-0.097324
0.11297,0.46457,0.38618,0.22048,0.13636,0.091714,0.068821,0.088342
-0.10308,-0.44258,-0.70306,-0.29975,-0.15039,-0.073965,-0.051689,-0.054392
0.025413,0.07101,0.58017,0.06736,0.040589,0.0031124,0.0088801,0.0062473
0.069866,0.048592,0.033986,0.074864,-0.00035362,0.011086,0.016716,0.013001
0.077969,0.43253,0.59951,0.12293,0.024573,0.020751,0.018962,0.028836
-0.028029,-0.42697,0.24463,0.1335,0.1157,0.055751,0.023348,0.030598
-0.084205,-0.23219,-1.0341,-0.16058,-0.10234,-0.063738,-0.040863,-0.0598
0.018201,-0.1909,0.064272,-0.019926,0.010084,0.013378,0.0053287,0.015246
0.02042,0.030049,-0.21197,0.16926,0.092149,0.036376,0.012658,0.01313
0.046333,0.53029,0.053103,-0.11976,0.0016138,0.012222,0.0037319,0.011421
-0.10829,-0.19251,-0.16576,-0.42086,-0.24737,-0.13803,-0.076845,-0.076431
-0.02248,0.084151,0.39895,0.16287,0.03942,0.02243,0.0048085,-0.0088334
0.037491,-0.099521,-0.3187,0.0059617,0.064574,0.055676,0.05314,0.041818
0.14164,0.38741,0.55377,0.32757,0.10936,0.070911,0.060349,0.09075
-0.045941,-0.12376,0.45093,0.12073,0.0023935,-0.017702,-0.020205,-0.010715
-0.13429,-0.42093,-0.5924,-0.39481,-0.12267,-0.10826,-0.078739,-0.098559
0.095888,0.089941,-0.011627,0.20363,0.12583,0.08882,0.041522,0.061777
-0.13595,-0.051463,-0.36047,-0.23175,-0.17293,-0.097675,-0.07291,-0.11523
0.18652,0.32875,0.74438,0.44801,0.21645,0.14547,0.10195,0.12102
-0.10014,-0.13238,-0.5635,-0.25656,-0.18959,-0.10294,-0.035006,-0.056886
0.027888,-0.13113,-0.49365,-0.28225,0.023583,0.0014481,-0.006949,0.0001883
0.00044775,0.099825,0.47955,-0.010921,-0.010942,0.013736,-0.0091234,-0.0040751
0.043996,-0.13071,0.34314,0.4023,0.19115,0.066946,0.059898,0.071265
-0.021427,-0.059067,0.060708,-0.010154,-0.065791,-0.042065,-0.011109,-0.0081358
0.069484,0.47005,0.0014926,-0.020692,-0.032332,0.0067825,-0.0037501,0.030925
-0.16007,-0.31766,-0.55223,-0.21453,-0.12319,-0.075983,-0.05116,-0.085409
-0.08514,-0.1426,-0.25701,-0.20856,-0.057768,-0.033082,-0.059794,-0.084178
0.19289,0.10939,0.74478,0.37202,0.18685,0.1349,0.095307,0.12795
0.03379,0.16773,0.16101,0.15934,0.086885,0.036744,0.023653,0.042882
-0.04633,-0.013619,-0.25457,-0.097632,-0.029689,-0.015523,-0.0088647,-0.050371
-0.062594,-0.021688,-0.18627,-0.19704,-0.15496,-0.08471,-0.040967,-0.057926
-0.053684,-0.09351,-0.31822,-0.11666,-0.022962,-0.053687,-0.033256,-0.041995
0.058688,0.071929,0.46313,0.095632,0.0074401,0.0074544,0.01453,0.04465
0.10254,-0.15447,0.42114,0.25957,0.093123,0.075738,0.063456,0.10076
0.030592,0.082657,-0.47588,-0.10934,0.08626,0.050214,0.043169,0.024974
-0.11088,0.014203,-0.32807,-0.065378,-0.16111,-0.099725,-0.093409,-0.1124
-0.064799,-0.1751,0.10994,-0.068707,0.069995,0.032718,0.01277,0.0009718
0.074406,0.25496,0.22531,0.084857,0.021746,0.026024,-0.0058696,0.021044
0.032759,-0.056166,-0.094355,-0.041088,-0.0014715,0.028746,0.029976,0.03339
-0.041602,0.031626,0.0068083,-0.078475,-0.0705,-0.053003,-0.03627,-0.040477
0.0075263,0.28407,0.54739,0.14496,0.0092665,-0.016458,0.021711,0.002256
-0.077503,-0.64978,-0.98721,-0.16796,-0.05206,-0.041841,-0.030613,-0.049592
0.070789,0.35613,0.68306,0.29417,0.096201,0.049885,0.017603,0.053802
0.054268,-0.15002,-0.12478,-0.11104,0.054742,0.054898,0.033495,0.046684
-0.033104,0.0049768,0.19367,0.19234,-0.0053286,0.0037803,-0.014213,-0.016359
-0.066279,0.080055,-0.48465,-0.39947,-0.09237,-0.057148,-0.0083362,-0.057267
0.02493,0.036822,0.17031,0.025813,-0.011277,-0.0032332,0.0042909,0.0098779
0.12308,0.25823,0.31757,0.076576,0.097561,0.063903,0.047223,0.091392
-0.061166,-0.23258,-0.38212,0.088792,-0.10108,-0.074217,-0.066815,-0.078162
-0.035794,-0.1861,0.015495,0.016691,0.026785,-0.010743,-0.017164,-0.006263
-0.0038654,0.19421,0.12911,0.034184,-0.0017619,0.0051697,-0.014318,-0.012748
-0.050945,0.0022935,-0.045057,-0.17635,-0.0054461,0.013554,0.028151,-0.0032848
0.0424,0.012554,0.4367,0.067728,0.017177,0.038774,0.048194,0.046176
-0.027621,-0.1873,-0.51949,-0.066727,-0.026577,-0.02782,-0.024168,-0.027876
0.075871,0.24105,-0.01476,0.07086,0.11378,0.056359,0.045596,0.064015
-0.060403,-0.22318,-0.0102,0.044095,-0.101,-0.075867,-0.062869,-0.076425
-0.053198,-0.35117,-0.62493,-0.24096,-0.054593,-0.010802,-0.021655,-0.027425
0.089636,0.21782,0.6753,0.33916,0.10315,0.055567,0.036081,0.054396
0.078503,0.60874,0.52277,0.14124,0.057997,0.028649,0.0083696,0.035648
0.037474,0.21064,0.49153,-0.033276,0.011328,-0.0064793,0.0041811,0.032821
-0.15957,-0.49497,-0.99561,-0.43757,-0.16331,-0.081781,-0.039336,-0.095405
0.080047,0.12118,0.40468,0.22274,0.087886,0.044489,0.041618,0.041022
-0.15851,-0.62405,-0.83889,-0.1786,-0.14149,-0.057458,-0.042177,-0.081689
0.085351,0.27447,0.54114,0.1633,0.13352,0.065729,0.045158,0.067622
-0.055471,-0.14576,-0.42706,-0.046943,-0.062491,-0.038606,-0.0323,-0.02652
0.021011,0.24752,0.16268,-0.088123,-0.0014907,-0.010508,-0.024498,-0.01224
0.073181,-0.15494,-0.031081,-0.051217,-0.017965,0.01775,0.013934,0.024889
0.085951,0.58475,0.42495,0.41004,0.18611,0.093424,0.067412,0.061752
-0.026227,-0.072194,0.065694,-0.069746,-0.060497,-0.056762,-0.020288,-0.026438
0.025935,-0.14121,0.089202,-0.075682,0.023603,0.035898,0.016497,0.041679
-0.16368,-0.50478,-0.39385,-0.092204,-0.085334,-0.074083,-0.048699,-0.085414
-0.0090082,0.36137,0.061703,0.020599,-0.0050343,0.011533,-0.012553,-0.0014131
0.037068,0.060492,0.071868,0.035153,-0.025134,-0.012072,-0.015377,-0.0030751
0.021745,-0.10787,-0.13058,-0.25267,-0.067969,-0.019902,0.021356,-0.0042604
-0.0077478,-0.054332,0.2108,0.16414,0.038046,0.0037801,-0.019131,-0.012531
-0.012079,-0.31421,-0.59222,-0.16811,0.027134,0.027905,0.019739,0.027028
0.094752,0.37369,0.52308,0.36737,0.13357,0.052646,0.044366,0.052038
-0.0077721,0.10537,0.0030596,0.074907,0.021295,0.015601,0.0077889,0.015588
0.047057,0.20952,0.13067,-0.030257,-0.044236,-0.0051156,0.026887,0.011218
-0.23362,-0.47149,-0.20154,-0.43293,-0.22728,-0.15806,-0.12537,-0.15673
0.11039,0.090375,-0.43706,-0.0085656,0.073545,0.056576,0.034845,0.058228
0.031526,0.35938,0.32381,0.32054,0.1316,0.076036,0.038316,0.054142
0.076137,0.10397,0.57371,-0.06319,-0.01405,0.0094306,0.017512,0.033854
-0.099809,-0.53981,-0.43784,-0.066377,-0.074244,-0.041936,-0.051144,-0.065296
0.0036699,-0.067567,0.029902,0.25597,0.099607,0.046713,0.019902,0.0066715
-0.081959,-0.19202,-0.30647,-0.20573,-0.11733,-0.084157,-0.050386,-0.062648
0.15932,0.61798,0.4255,0.15787,0.11101,0.049748,0.0586,0.086276
-0.10799,-0.3863,-0.65177,-0.37165,-0.13719,-0.059386,-0.020049,-0.046402
0.022791,0.28943,0.60011,-0.028038,0.0052119,0.018188,0.010725,0.015962
0.044123,-0.040048,0.16404,0.24434,0.061455,0.040376,0.018146,0.031158
-0.059489,-0.11483,-0.34319,0.032527,0.054667,0.015093,-0.0057061,-0.00092547
0.15726,0.31674,0.25133,0.22826,0.10949,0.059648,0.040535,0.052382
0.022431,0.099656,0.21594,0.02002,0.077191,0.033579,0.023866,0.03476
-0.2843,-0.56191,-0.71061,-0.64606,-0.47982,-0.24256,-0.15737,-0.21776
0.073089,-0.22167,-0.13993,0.26966,0.15742,0.059673,0.03598,0.037301
0.087016,0.5198,0.38711,0.22836,0.090958,0.065666,0.049475,0.066058
-0.17977,-0.52418,-0.59303,-0.52015,-0.15514,-0.091446,-0.077454,-0.091895
0.18695,0.50612,0.82118,0.46087,0.2244,0.12755,0.09305,0.13417
0.023017,0.024409,0.37966,0.24025,0.042383,0.019407,-0.0012856,0.010014
-0.031388,0.11544,-0.50723,-0.43407,-0.10756,-0.041334,-0.016713,-0.027123
0.054257,0.019585,-0.0027795,0.17766,0.047498,0.030558,0.046516,0.02995
0.075947,0.070842,0.086914,0.088658,0.03804,0.038962,0.023889,0.047558
-0.23272,-0.54478,-0.10728,-0.22635,-0.14454,-0.13401,-0.11636,-0.14706
-0.0284,-0.24965,0.023387,0.044285,-0.0085817,-0.0043624,0.0081299,-0.015531
0.17341,0.4882,0.44226,0.19008,0.10207,0.076417,0.069017,0.09814
-0.087448,-0.12626,-0.90669,-0.3731,-0.030874,-0.039539,-0.050815,-0.040185
-0.04405,0.065721,-0.34852,-0.025167,-0.070503,-0.023121,-0.0072376,-0.023524
0.11775,0.18389,0.70179,0.34677,0.07823,0.048754,0.028491,0.039842
-0.14727,-0.082148,-0.19954,-0.20687,-0.10674,-0.05709,-0.052279,-0.06759
0.15447,0.22989,0.85606,0.33245,0.13356,0.074344,0.063626,0.077206
0.0003481,-0.082634,-0.2551,-0.080328,0.034153,0.029469,0.017301,0.021926
-0.10957,-0.19966,-0.26842,-0.37444,-0.16276,-0.082436,-0.050478,-0.076863
0.07398,-0.37982,-0.39125,0.21481,0.11242,0.042652,0.031951,0.061826
0.010513,0.21931,0.23591,0.052511,0.053692,0.012984,0.014032,0.007495
0.041837,0.11927,0.11767,0.088885,0.0030863,0.014674,-0.011283,0.024549
-0.11545,-0.16699,-0.4863,-0.21838,-0.11931,-0.06306,-0.029272,-0.075928
0.013153,0.27101,0.93956,0.11981,0.028691,0.020784,0.013906,0.0093824
0.0041245,0.15539,-0.34005,-0.031861,-0.014876,-0.015815,0.00041468,-0.0096689
-0.018555,-0.081175,-0.18495,-0.17497,-0.070678,-0.040287,-0.03884,-0.024344
0.16364,0.3694,0.44522,0.37755,0.16634,0.10392,0.068026,0.098071
-0.042452,-0.2459,-0.52341,-0.17048,-0.021614,-0.019943,-0.022391,-0.016988
-0.14326,-0.79489,-0.25482,-0.15327,-0.10971,-0.074856,-0.036037,-0.079577
-0.058683,0.1779,0.10642,-0.084021,-0.065192,-0.020573,-0.011192,-0.026022
0.11202,0.36522,0.45019,0.2744,0.19146,0.097128,0.060771,0.090255
0.0039706,-0.15512,-0.026987,0.080904,-0.034057,-0.0099834,-0.0069228,-0.026465
0.0019145,0.055055,-0.24538,-0.13889,-0.01464,-0.0055149,-0.010615,0.0074926
0.036816,0.081929,-0.50165,-0.19609,-0.023722,-0.006608,-0.012523,0.012894
0.062225,0.40051,0.56867,0.36293,0.14141,0.064561,0.042066,0.052248
-0.094182,-0.32943,0.28699,-0.22788,-0.16832,-0.089402,-0.042357,-0.085761
-0.019548,-0.13877,-0.19374,0.030278,-0.016085,0.0074843,0.01511,0.020099
0.042228,0.12609,0.10367,0.041906,0.050737,0.010978,-0.0047052,0.009704
0.02672,-0.19614,0.4507,0.10967,0.024095,-0.0089126,0.007155,0.0073539
-0.11478,0.22394,-0.46004,-0.28407,-0.17411,-0.067908,-0.059044,-0.073426
0.069345,0.043406,-0.49713,0.15581,0.18288,0.084062,0.046422,0.040484
-0.062523,0.037076,-0.04178,-0.056394,-0.037552,-0.005987,0.010861,-0.018218
0.075107,-0.30005,-0.010241,0.015984,0.0084073,-0.0020212,0.0060194,0.031755
0.05264,0.1384,0.39631,0.11482,0.062744,0.041237,0.0083801,0.049874
-0.082522,-0.15622,-0.035507,-0.056605,-0.046895,-0.032665,-0.028982,-0.049714
-0.0092351,0.051592,0.25658,-0.052435,-0.024324,-0.005329,0.0032881,0.006457
-0.023395,-0.11837,-0.24259,0.034444,0.0046939,0.013444,0.0036358,-0.00040112
0.13378,0.4388,0.16996,0.14262,0.10199,0.038874,0.034603,0.054637
-0.15408,0.062402,-0.53888,-0.35172,-0.2407,-0.14808,-0.091239,-0.12538
0.097961,-0.38535,0.78296,0.20884,0.11713,0.085287,0.063696,0.061082
-0.047346,0.13663,-0.63689,-0.026288,0.019437,-0.0031467,-0.016133,-0.018784
-0.019751,-0.042453,-0.065366,-0.11896,-0.072415,-0.030335,-0.0025367,-0.021163
0.13355,0.1559,0.86149,0.38414,0.17028,0.12124,0.057647,0.10872
-0.033203,-0.057554,-0.25135,-0.11884,-0.040943,-0.048079,-0.0074358,-0.019681
-0.13767,-0.50356,-0.65865,-0.28483,-0.12744,-0.084817,-0.064941,-0.078139
0.038563,0.37207,0.064911,0.10398,0.083102,0.042558,0.010206,0.027198
0.034474,0.13925,0.12691,0.030979,0.005062,0.0061556,0.0072103,-0.00040065
0.037749,0.10245,0.26746,0.096899,0.037147,0.032725,0.020038,0.034582
-0.02147,0.066434,0.11076,-0.02692,-0.09383,-0.018199,-0.021356,-0.023832
-0.056603,-0.31988,-0.28815,-0.0437,0.026458,-0.013653,-0.007319,-0.034692
0.050245,-0.086842,-0.0061914,-0.03898,0.0076723,0.023084,0.038949,0.041408
-0.083106,-0.1472,0.0052751,0.027178,-0.024915,-0.056254,-0.023026,-0.053047
0.12188,0.42237,0.006055,-0.015841,0.038273,0.021935,0.017719,0.057136
-0.014392,-0.1034,0.38092,0.0678,0.033237,0.023393,-0.010797,0.0047895
-0.039103,-0.13008,-0.44657,-0.079858,-0.079232,-0.036239,-0.022878,-0.038399
-0.015421,0.16239,-0.12362,-0.098327,0.0051737,0.014782,-0.0032408,0.0052997
0.071324,0.20238,0.15513,0.1614,0.07491,0.058953,0.055513,0.065014
-0.045597,-0.40313,0.25699,0.042942,-0.011423,-0.037026,-0.03455,-0.039587
-7.7442e-05,0.19432,-0.029356,0.0063948,-0.004665,-0.00814,-0.00040183,-0.004433
-0.0039463,-0.0087221,0.16263,0.050305,-0.0071528,0.0043359,0.001379,-0.009694
-0.049954,-0.21861,-0.57398,-0.23339,-0.042908,-0.0079941,-0.0059791,-0.032195
0.041439,0.2184,-0.16926,0.020639,-0.026288,-0.0064851,0.00090335,0.014001
0.028338,0.066563,0.67379,0.13111,0.066176,0.016498,0.014318,0.027585
0.0051976,-0.1115,-0.020677,-0.074928,-0.069869,-0.032695,-0.020168,-0.014436
0.019919,0.25622,-0.0091642,0.1443,0.097385,0.041609,0.022827,0.029111
-0.051266,-0.29581,-0.19619,-0.078105,0.021734,0.0056057,0.0031324,-0.0052875
-0.10552,-0.3882,-0.52517,-0.16309,-0.11646,-0.069704,-0.047525,-0.062482
0.11614,0.48405,0.27904,-0.023336,-0.011934,0.019502,0.011908,0.045333
-0.049506,-0.17423,0.29561,0.11621,0.062293,0.0081935,0.0098803,-0.017662
0.10892,0.093938,0.16522,0.12432,0.043958,0.053027,0.024686,0.060967
0.036637,0.3298,0.24616,0.14295,0.050328,0.036988,0.017258,0.015389
-0.11847,-0.31028,-0.62782,-0.21752,-0.059237,-0.055602,-0.012561,-0.060916
-0.021434,-0.062639,0.21237,-0.042442,-0.07383,-0.029654,-0.018167,-0.019762
0.045335,0.27996,-0.048731,-0.026871,-0.0090559,-0.0026754,0.00013347,-0.0019412
0.033743,-0.11538,-0.06997,0.00099265,0.041421,0.0093704,-0.0048168,0.023744
-0.096357,-0.22246,-0.25957,-0.13896,-0.07855,-0.040707,-0.033229,-0.044228
0.013578,0.024443,0.14678,0.11495,0.045111,0.010878,0.00070873,0.01297
0.066168,0.020255,0.21854,0.15208,0.068489,0.054496,0.04225,0.046939
0.037827,0.18476,0.44724,0.20513,0.092732,0.058661,0.036683,0.04981
-0.047813,-0.029476,-0.55061,-0.21997,-0.062481,-0.039343,-0.02382,-0.025456
-0.057448,-0.29355,0.12266,-0.0078082,-0.046338,-0.044361,-0.022101,-0.054096
0.10338,0.39437,-0.033767,0.066862,0.046711,0.035736,0.026181,0.049582
-0.14261,-0.24448,-0.55958,-0.46527,-0.19789,-0.10367,-0.066502,-0.097407
0.064737,0.15971,0.57617,0.27886,0.11027,0.061055,0.043589,0.043944
