0.0101,0.037592,0.091464,0.06599,-0.0019728,-0.036442,-0.034114,-0.029072
0.044075,-0.0084116,-0.064237,0.058303,-0.042148,-0.074876,0.043143,0.017076
-0.030324,-0.0049365,0.20467,-0.095526,-0.10431,0.01209,-0.032789,-0.0058044
0.020994,0.077807,0.10064,-0.090773,0.077534,0.091546,0.065797,0.035181
-0.060281,-0.13703,-0.20548,0.22837,0.17517,0.014878,-0.029041,-0.024212
0.1002,0.20799,0.019576,-0.037454,-0.069744,-0.022815,-0.029167,0.026544
-0.006084,-0.13878,-0.49069,0.16522,0.084076,-0.029534,-0.029225,-0.008416
-0.028174,-0.0064725,-0.15871,-0.35243,-0.27066,-0.060063,0.0013643,-0.035919
-0.013326,-0.082785,0.89806,0.088182,0.083846,0.065323,0.20289,0.021668
-0.047516,-0.031042,-0.25024,-0.12299,-0.048336,-0.059458,-0.28402,-0.0078503
0.010211,0.15027,0.28682,0.22494,0.10604,0.034589,-0.060635,-0.046466
0.012064,-0.005565,0.087128,0.23408,0.10194,0.035196,0.037436,0.030884
-0.017689,-0.1058,-0.95881,-0.53201,-0.22407,-0.073132,0.080713,-0.025616
0.046788,0.093597,0.3289,0.14675,0.050752,0.12363,0.36596,0.073313
-0.012596,-0.031138,0.060296,-0.072023,0.060134,-0.030995,-0.19324,0.0075507
0.015451,-0.034283,0.11924,0.27372,0.10175,0.0017083,-0.11325,-0.0040139
0.045,0.13842,-0.11021,-0.018508,-0.17541,-0.13023,-0.1292,-0.00032906
0.0054486,0.040553,0.62312,0.16077,0.11953,0.10411,0.18809,-0.020308
-0.080225,-0.13408,-0.53924,-0.37636,-0.10721,-0.01423,-0.21613,-0.055891
0.014075,-0.011966,-0.088952,0.010033,0.058121,-0.016475,0.08049,-0.0051395
-0.024476,-0.0083257,-0.072751,0.10822,0.036935,0.011661,0.016337,0.030863
-0.039723,-0.092438,0.040444,0.0034782,-0.06973,0.00026661,0.053501,-0.0020694
0.062226,0.087422,0.28146,-0.007737,0.034523,0.043605,0.2791,0.029278
0.039493,0.11015,0.24345,0.12132,0.029031,-0.060908,-0.31368,0.023536
-0.029434,-0.10126,-0.41019,-0.21863,-0.070752,-0.0081067,-0.020988,-0.027208
-0.034893,-0.12375,-0.17229,0.09765,0.078939,0.046092,-0.069042,-0.0061743
0.046659,0.19198,0.29248,0.023496,-0.076421,-0.031007,0.089,0.015655
-0.019277,-0.10686,-0.53204,-0.18323,-0.10692,-0.036414,0.062086,-0.040672
0.048195,0.17467,0.5332,0.24288,0.15951,0.099797,0.05256,0.058365
-0.032698,-0.042568,0.096746,-0.011237,0.011991,-0.052646,-0.1047,-0.031722
-0.012553,-0.010026,-0.16283,0.038016,0.083214,0.075882,0.0031741,-0.030188
-0.048174,-0.17461,0.042214,-0.055557,-0.056761,-0.046524,0.25786,0.062771
0.063152,0.12636,0.10124,-0.066121,-0.095745,-0.037536,-0.41185,-0.073015
0.008723,0.056097,-0.064758,-0.033091,0.059767,-0.022375,0.087344,0.031646
-0.039557,-0.19023,-0.41686,0.0046451,-0.082489,-0.079079,0.0054838,-0.021028
-0.0033217,0.083271,0.28793,-0.053749,-0.12396,0.08176,0.23374,0.027531
-0.007179,-0.012857,-0.034611,0.12101,0.23251,0.062209,-0.11755,0.0061773
-0.0037892,-0.016159,-0.13201,-0.13372,-0.051815,0.042492,-0.02375,0.017072
0.093241,0.1843,0.56884,0.31626,0.17182,-0.0081679,-0.069525,0.021553
-0.020391,-0.0664,-0.30433,-0.059064,-0.096366,-0.081606,-0.066237,-0.05832
-0.047531,-0.056435,-0.23365,-0.22755,-0.15307,-0.013526,0.19005,0.011817
-0.034879,-0.051065,0.08708,0.045711,0.056528,-0.0069167,-0.14408,-0.049457
0.017652,-0.0035696,0.017819,-0.043835,-0.045529,0.0085971,0.14207,0.046647
0.02415,0.062038,0.073803,0.034799,0.07219,0.07207,0.08677,0.041978
0.03148,0.082412,0.16001,0.030931,0.0035864,-0.043152,-0.2096,-0.040387
0.00054176,-0.037128,-0.15517,0.076283,0.014334,-0.040384,0.18909,0.057011
-0.084335,-0.086473,0.0087779,0.044416,-0.067575,0.025384,-0.28874,-0.12708
0.058042,0.058817,-0.045679,-0.10539,0.093451,0.036571,0.035644,0.047714
-0.041147,-0.1171,0.07803,0.00021659,-0.010947,0.031797,0.3102,0.057775
0.039871,0.057789,-0.17606,-0.077711,-0.029872,-0.028426,-0.2541,-0.018875
0.027511,0.021342,-0.019513,0.14422,0.036004,-0.050675,0.10104,0.013047
-0.039369,0.01618,0.063144,-0.10001,-0.11074,-0.027288,-0.1392,-0.049545
0.010847,0.019176,0.14234,0.018021,0.045196,0.049606,0.088625,0.012199
-0.033072,-0.032127,-0.016229,-0.00079674,0.035051,0.0083973,0.011965,-0.020319
0.047324,0.057295,-0.15489,0.0637,0.038794,0.013572,0.10029,0.064021
-0.045102,-0.080326,0.13998,-0.075835,-0.08366,-0.051557,-0.1147,-0.054897
0.056644,0.13239,0.070963,-0.0035508,-0.011288,0.016625,0.13282,0.060614
-0.014703,-0.10217,0.23138,0.071242,0.053553,0.038824,-0.1415,-0.042406
-0.032522,-0.034508,-0.47244,-0.14709,-0.013423,-0.0081568,-0.0080629,0.0033699
0.01121,0.01494,0.11661,0.28747,0.1399,0.047617,0.0096057,0.010552
0.0074661,0.015252,-0.17164,-0.20315,-0.21271,-0.13773,-0.033912,-0.044225
-0.0042411,0.029699,-0.12389,-0.13511,-0.01651,0.044905,-0.021579,0.0031213
-0.031237,-0.081262,0.2859,0.14671,0.11891,0.048244,0.10102,0.050982
0.012862,-0.011742,0.091178,0.219,0.06809,-0.026613,-0.0025136,-0.017961
0.034637,0.098737,0.051045,-0.2089,-0.1618,-0.00045571,0.018749,0.0070215
0.034249,0.047847,-0.092245,0.025612,0.11601,0.07942,0.32033,0.039735
-0.066463,-0.10936,0.20706,-0.094151,-0.067932,-0.068525,-0.52811,-0.068515
0.036977,0.087936,-0.25612,-0.037421,0.028013,0.00093729,0.082412,0.025821
-0.022958,-0.017038,0.22702,0.23503,0.075444,-0.0089088,-0.059081,-0.028906
-0.027919,-0.096974,-0.34527,-0.11977,-0.097457,-0.035161,0.086819,-0.0060856
0.045136,0.058126,-0.028446,-0.045938,-0.044983,-0.014736,0.20822,0.06321
0.0083746,0.041115,0.029379,-0.14366,-0.055538,0.045201,-0.12386,-0.039504
-0.068127,-0.14094,0.16546,0.26801,0.17635,0.04366,-0.033806,-0.032684
0.049884,0.12084,-0.12619,-0.052237,-0.075146,-0.018983,-0.021177,0.037052
0.018649,0.02933,0.33587,0.099058,0.081101,0.013615,0.078299,0.021426
-0.013305,-0.056111,-0.54109,-0.22373,-0.096933,-0.038435,0.014651,0.014229
-0.022371,-0.025905,0.24285,0.033227,0.054604,0.035369,-0.07157,-0.047126
0.0072978,0.026553,0.24882,0.079625,-0.019511,-0.038986,0.0070563,0.016867
-0.0021742,0.007978,-0.033425,0.039111,-0.015323,-0.0042698,-0.093246,-0.036204
0.035398,0.07515,0.31501,0.11362,0.08203,0.045289,0.088505,0.059066
-0.043829,-0.068258,-0.4665,-0.23666,-0.087454,-0.0077831,0.08363,-0.0099913
0.0024951,-0.070163,-0.36423,-0.035345,-0.00069461,-0.046354,-0.11566,-0.032528
0.0104,0.038628,0.10561,-0.016323,-0.048337,-0.031201,-0.0016625,-0.024177
0.011148,-0.015027,0.17045,0.11047,0.066803,0.069236,0.042505,0.030746
0.012491,0.034582,-0.011491,0.033815,-0.0062911,-0.033732,0.016337,0.022957
-0.0091264,0.046656,0.20288,-0.041898,-0.016968,0.050851,0.10668,0.0072393
-0.0226,-0.018312,-0.043542,0.032715,0.058817,0.018515,-0.13247,-0.016338
0.0031714,-0.0047318,0.05552,-0.0075259,-0.020688,-0.060361,-0.068878,-0.03211
0.028996,0.0084933,0.055384,0.10288,0.02596,0.017277,0.10181,0.10056
-0.0468,-0.065341,-0.23169,-0.15229,-0.082558,0.001264,0.01242,-0.1105
0.017871,0.038763,0.22475,0.0072728,-0.010603,-0.007031,-0.078845,0.014398
-0.011488,-0.046777,-0.34189,0.049319,0.10856,0.0078483,0.031832,0.014324
0.0055879,0.013852,0.020761,-0.058273,-0.069343,-0.040143,-0.037495,-0.024797
0.045448,0.048919,0.062379,0.051128,0.033323,-0.010416,-0.043775,0.029793
-0.0015303,0.0040975,0.064332,-0.021073,-0.036945,0.081426,0.20899,0.021721
-0.010579,0.004905,0.24585,0.045689,0.032166,-0.014559,-0.07572,0.036749
-0.0052858,0.020705,-0.0017646,-0.01363,-0.0093076,-0.017045,0.0005487,-0.026887
-0.040331,-0.088479,-0.35753,-0.16701,-0.075172,-0.0040644,-0.1094,-0.052161
-0.006129,-0.032954,-0.22713,0.078524,0.085008,0.001059,0.039213,-0.023507
0.027428,0.062826,0.48351,0.059532,-0.051675,0.0062939,0.094267,0.03573
0.00624,-0.00386,-0.053704,0.17479,0.10907,-0.011593,-0.030625,0.016434
0.016911,0.10314,0.23908,-0.075659,-0.112,-0.036731,-0.085656,0.012756
-0.018043,-0.077116,-0.31834,-0.067054,0.011997,0.032701,0.093366,0.0095604
-0.019995,0.017702,-0.093781,-0.13568,0.067123,0.032869,-0.079052,-0.039517
-0.0042963,-0.081463,-0.048825,0.069701,0.0064594,-0.0048316,-0.0006836,-0.0012126
0.036856,0.039086,0.19878,0.0019796,-0.068625,-0.033504,-0.038008,-0.023652
0.017221,0.0039826,-0.10147,-0.0030115,-0.017808,0.0092169,0.16889,0.065143
-0.024698,-0.0074225,0.12026,0.070305,0.0022817,-0.033216,-0.14544,-0.055301
0.011944,0.028007,-0.097493,-0.043768,0.0068485,0.041878,-0.020413,-0.0026133
-0.01424,-0.022806,0.065054,0.092105,0.10482,0.0073852,-0.0037796,0.058456
-0.0023549,0.058655,0.19339,-0.061409,-0.079232,0.01897,0.42658,0.056748
-0.01537,-0.087168,-0.32986,-0.028083,0.0089773,-0.025463,-0.44179,-0.071106
0.0012075,0.078679,0.23781,0.019897,-0.0058367,0.022149,0.27258,-0.021145
0.0084066,-0.014115,-0.11044,-0.027032,-0.0066122,-0.049259,-0.34526,-0.043806
-0.0012438,-0.029479,-0.14638,0.026452,0.061421,0.02611,0.032713,0.017114
0.011828,-0.021833,0.077465,0.0087039,-0.067061,-0.016901,0.165,0.068221
-0.014303,-0.022062,-0.11625,-0.14236,-0.094694,-0.060418,-0.095407,-0.053852
-0.00098104,0.017101,0.22761,0.15189,0.10412,0.076028,0.081461,0.01117
0.028762,0.064733,-0.10076,-0.0299,0.006532,-0.013099,-0.052495,-0.017035
-0.010787,-0.011801,0.10166,0.054821,0.034902,0.016449,0.066799,0.010755
-0.010226,-0.048462,-0.049478,-0.0078143,-0.005803,0.055482,0.034045,0.055975
0.030302,0.10296,0.12273,-0.0068906,0.0094639,-0.036785,-0.041212,-0.021873
-0.030088,-0.065723,0.04435,-0.09105,-0.083528,-0.042054,-0.11272,-0.02773
-0.0042148,-0.023689,-0.25713,-0.018442,0.0039572,-0.0078313,0.091698,-0.0012189
-0.017395,-0.044765,-0.0036222,0.10896,0.068382,0.049582,-0.070273,0.025661
0.023847,0.097346,0.27951,-0.060858,-0.046936,-0.018837,0.38396,0.036506
-0.013515,-0.066212,-0.29083,0.065414,0.0013573,-0.033797,-0.42997,-0.070896
0.0031763,0.019298,-0.017861,-0.090754,-0.0058137,-0.0032653,0.057183,-0.015697
0.042566,0.025918,-0.00027525,0.071889,0.040704,0.025966,-0.076862,-0.0011105
-0.036031,-0.077382,-0.0078048,0.1235,0.070504,0.030739,0.13695,0.0434
0.0095582,0.084614,0.057061,-0.20151,-0.15073,-0.035413,-0.019226,-0.014514
0.0075064,0.012073,0.10362,-0.035622,0.033458,0.023283,0.13556,0.013241
-0.0029989,0.009789,0.14147,0.074821,0.037514,-0.003667,-0.17072,-0.013367
-0.037371,-0.10187,-0.032254,0.02899,0.0025529,-0.014325,0.00066855,0.0076977
0.029678,0.083402,0.11259,0.0073703,-0.023999,-0.016232,0.056916,0.0064007
-0.020266,-0.051527,-0.47289,-0.067428,-0.025991,0.014196,-0.024941,-0.017215
0.00062354,-0.01437,0.10739,0.078584,0.051677,0.014471,0.03635,0.022613
0.03011,0.077812,0.093502,0.0081954,-0.017342,-0.0077089,-0.017435,-0.0072578
-0.025411,-0.071736,-0.031619,-0.052028,-0.0065135,0.0099347,0.16458,0.033397
0.037181,0.029247,0.043889,0.030472,0.044815,0.0046066,-0.25432,-0.0511
-0.0010109,0.013571,0.070148,0.044312,0.026759,-0.0083939,0.068966,-0.0031855
-0.023052,-0.009496,-0.2022,-0.13606,-0.17853,-0.06844,-0.076939,-0.0026258
-0.0058075,-0.016711,-0.022303,-0.026847,0.12355,0.066397,0.096909,-0.010267
0.0035668,0.054173,0.40745,0.16825,0.010479,0.013132,0.028152,0.036607
-0.010764,-0.015853,-0.19381,-0.043477,0.020816,0.021692,-0.0016634,-0.017994
-0.002033,-0.031673,-0.052703,0.0015748,0.037126,-0.0016374,-0.070344,0.013643
0.014126,-0.032443,-0.13849,-0.0016692,-0.088985,-0.087964,-0.021435,-0.0090155
-0.0012821,0.020943,0.17305,-0.061315,-0.115,-0.010505,0.11381,0.0077116
-0.0012828,0.034903,-0.095508,-0.036921,0.069005,0.027873,-0.047643,0.0089161
-0.0014043,-0.060625,0.086422,0.11051,0.088695,0.089902,0.087516,0.02553
0.021856,0.086208,0.10138,-0.04085,-0.008445,-0.035205,-0.13747,-0.036526
0.0060231,-0.0008937,-0.042506,0.079487,0.051465,-0.0036592,0.05037,0.017823
-0.033283,-0.048282,-0.18799,-0.075065,-0.082945,-0.042099,0.064847,-0.038059
0.0133,0.030115,-0.052176,-0.058774,-0.028916,0.029012,-0.14869,-0.039976
-0.033914,-0.070339,0.17949,0.074223,0.080504,0.00637,0.035142,0.035831
0.0047963,-0.013744,-0.09241,0.019896,-0.004995,-0.032047,-0.039277,0.017926
0.051375,0.074767,0.0089052,-0.080409,-0.090381,0.023058,0.20696,0.023954
0.019984,0.046527,0.07036,0.070885,0.074183,-0.00018449,-0.13944,0.062105
-0.042386,-0.051894,-0.0566,-0.056881,-0.026937,-0.015747,0.015851,-0.093961
-0.04187,-0.0020876,0.18921,0.021042,-0.042056,0.015572,-0.014404,-0.022334
0.013809,0.0081324,-0.061762,-0.039027,-0.0022321,-0.0076349,-0.019359,-0.0044257
0.0074961,-0.029268,-0.023485,0.036076,0.061446,-0.014935,0.0396,0.037562
0.040699,0.04969,0.0040043,0.12856,0.024028,0.040605,0.044547,0.032866
-0.035183,-0.1143,-0.26327,-0.035877,0.057281,0.010517,-0.0054052,-0.011212
0.037398,0.041448,0.10258,-0.12223,-0.12812,-0.042808,-0.040819,0.0064005
0.015922,0.056237,0.061843,-0.037634,-0.0090643,-0.010166,-0.038947,-0.047488
-0.060878,-0.015022,0.052656,0.12353,0.1016,0.037936,0.031097,0.030058
0.017681,0.077821,0.33455,0.017192,-0.038517,-0.0080598,0.0052808,-0.010904
-0.014136,-0.079236,-0.58215,-0.16914,-0.08573,-0.04673,-0.1316,-0.013821
0.0078034,-0.001821,0.05548,0.041378,0.061667,0.062481,0.17585,-0.017251
0.0056205,-0.02589,0.086203,0.024143,-0.0022873,-0.00072659,0.014469,0.018482
0.0031285,0.036076,0.1139,0.099872,0.011837,-0.017514,0.072663,0.047102
-0.022679,-0.034591,0.12436,0.12824,0.010631,-0.034602,-0.24253,-0.032484
0.022347,0.0044323,-0.10086,-0.18748,-0.029113,0.010699,0.046006,-0.0012827
0.005678,0.03611,0.0077397,-0.07379,-0.0057747,-0.0064232,-0.045889,-0.015576
0.005552,-0.017574,-0.17656,0.016234,0.018016,0.023552,0.16912,0.033715
-0.0015488,0.0074461,0.16431,0.035826,0.05761,0.053826,0.010792,0.0054627
-0.0080678,0.0016588,-0.14394,0.071157,-0.012323,-0.017156,0.032937,0.00062479
-0.022197,-0.019602,0.17787,0.013219,-0.043618,-0.041003,-0.085799,-0.028259
0.033761,0.021371,0.042311,-0.043766,-0.0051277,-0.017774,-0.065177,0.012113
0.003164,0.0068987,-0.18409,-0.036788,0.017345,0.013431,0.0080934,-0.026915
-0.028334,-0.016628,0.014516,-0.043517,-0.061764,-0.017698,-0.038258,-0.012489
0.0329,0.044152,-0.15777,-0.048045,-0.046619,0.021683,0.022373,0.024423
-0.070871,-0.12347,0.15209,0.18399,0.11799,0.022231,0.26073,0.013956
0.043418,0.07428,0.062948,-0.1056,-0.11445,-0.047307,-0.33026,-0.01994
0.016783,0.04395,0.2794,0.14488,0.23264,0.094259,0.15652,0.0482
0.0059289,0.020466,-0.18966,-0.018775,-0.036403,-0.053188,-0.035856,-0.031291
-0.019947,-0.089161,-0.33588,-0.13688,-0.10974,-0.028864,-0.047245,-0.0004452
0.0020174,-0.0027903,0.10642,0.016004,-0.02729,0.0030228,0.13851,0.0078869
-0.02171,0.0070466,0.1213,-0.06876,-0.024261,0.0033043,-0.11897,-0.037744
0.018287,0.0036319,0.23162,0.15539,0.094041,0.042259,-0.030727,0.034229
0.020295,0.049989,-0.11006,0.0012034,-0.016408,-0.012879,0.059112,-0.010925
-0.016004,-0.056855,-0.20107,-0.10082,-0.066424,-0.052624,0.12648,0.02178
0.018334,0.065644,0.044359,0.045859,0.038226,0.024736,-0.12627,0.022728
-0.0099793,-0.020679,-0.037699,0.020851,0.040465,-0.0072194,-0.012391,-0.047252
0.015815,0.066029,-0.15,-0.15094,-0.11356,4.3022e-05,-0.10285,-0.047491
-0.053026,-0.11283,0.31722,0.09419,0.10815,0.062164,0.18787,0.045626
0.0099329,0.019838,0.15324,0.069429,-0.012596,0.0072004,0.0080548,0.0057994
0.0016302,-0.036805,-0.37654,0.0091908,0.032225,-0.04779,-0.11093,0.020804
0.023856,0.037053,0.039736,-0.071544,-0.10124,-0.048263,-0.035919,-0.02634
0.006633,0.05377,0.33848,0.14634,0.13348,0.029106,0.0070103,0.012891
-0.018423,-0.08021,-0.36442,-0.12773,-0.084472,0.0045917,0.06526,-0.0099983
-0.0041105,0.02619,0.19541,0.057881,0.0099317,0.03449,0.092418,0.029808
0.018553,0.014201,-0.13138,-0.10264,-0.036896,-0.037326,-0.020558,0.014867
0.0027994,0.048543,0.23295,0.038595,0.032622,0.039323,-0.11723,-0.047264
-0.0045204,-0.042037,-0.27378,-0.033896,0.023216,-0.016606,0.029023,-0.0005082
-0.019164,-0.030456,-0.056899,-0.038091,-0.049185,-0.02522,-0.042745,-0.024593
-0.0022742,-0.017897,0.064663,0.035009,-0.0043974,-0.0097822,0.011165,0.021216
0.022481,0.050549,0.029897,0.10077,0.033142,0.037633,0.10476,0.012153
0.0080173,0.018687,0.11352,0.043122,0.024871,-0.0079451,-0.035472,-0.012421
-0.014567,-0.051078,0.058517,-0.098193,-0.060143,-0.01378,0.012291,0.057159
0.009349,0.05197,0.0057315,-0.010547,0.067209,0.051198,-0.033259,-0.052328
-0.029582,-0.02404,0.017383,-0.022501,-0.023012,-0.078903,-0.054983,0.0029636
0.0015525,-0.021642,-0.16488,0.075997,-0.034446,0.048722,0.025187,0.019861
-0.014294,-0.027124,-0.18221,-0.083386,0.016584,-0.0037546,0.011847,-0.064315
0.032383,0.029514,0.18387,0.12317,0.051209,-0.0022426,0.0063895,0.070463
0.032277,0.062082,0.058427,0.03845,0.014083,0.0061895,-0.038334,-0.005835
-0.022437,-0.03897,-0.034771,-0.21313,-0.10304,-0.041028,0.10387,-0.0044861
-0.0068601,-0.023712,-0.11873,-0.0066514,0.012234,0.051489,0.088849,0.0039244
0.00073504,0.029775,0.18967,0.088013,0.055441,-0.028559,-0.22434,-0.019811
0.0001987,-0.003334,-0.015803,-0.022061,-0.074446,0.0081934,0.19545,0.0024522
-0.00075312,-0.036809,0.053515,0.07041,0.013927,-0.041026,-0.21408,-0.015029
-0.041189,0.0078476,-0.0093959,0.053956,0.063515,0.066314,0.031992,0.0062007
0.019612,-0.01741,-0.25247,-0.16433,-0.042204,-0.013259,-0.018678,-0.035017
0.025581,0.012748,-0.028428,0.056729,0.040964,-0.045207,0.048837,0.064828
0.00038769,0.059457,0.19285,0.13142,0.063198,0.064254,0.05556,0.0013367
0.0067707,-0.010082,0.19172,-0.096529,-0.084941,-0.044349,0.064352,0.02464
-0.0097514,-0.016351,-0.22765,-0.057027,-0.020877,0.050665,-0.04206,-0.052804
-0.0099693,-0.0065408,0.21599,0.10122,0.036332,-0.04939,0.048316,0.018818
-0.017248,-0.03572,-0.27359,-0.18453,-0.15581,-0.032267,-0.1575,-0.057654
0.038715,0.059808,0.04711,0.10115,0.15243,0.070575,0.058387,0.045591
-0.02186,-0.040537,-0.046582,0.044019,0.023322,-0.022255,-0.062576,0.015766
0.0039797,-0.016575,-0.060259,-0.035803,-0.02772,0.0094923,0.15103,0.016718
-0.016822,-0.0089122,0.039507,0.072346,0.030335,-0.060743,-0.089972,-0.037602
0.016999,0.068532,0.27006,-0.04598,-0.060541,0.017091,-0.12135,-0.022195
-0.0042562,-0.026204,0.030747,-0.00061423,0.035393,0.071184,0.2135,0.039603
0.028475,0.019633,-0.20973,0.028282,-0.0023076,-0.015587,-0.21002,-0.031713
0.013383,-0.012467,-0.038332,-0.076879,-0.040877,-0.024424,0.20215,0.045321
-0.03404,-0.059817,-0.019351,0.011774,-0.049014,-0.017787,0.020425,-0.018156
-0.035639,0.018318,0.07153,0.020743,0.090605,-0.0034379,-0.11463,-0.050122
0.00097286,0.04227,0.11477,-0.026409,0.018794,0.042137,0.023374,0.043231
0.029276,-0.011474,-0.21205,0.026844,0.032642,-0.02157,0.0046029,0.011872
0.0028493,0.013182,0.11292,0.008997,-0.086376,-0.014718,0.047829,0.02757
0.031538,0.05354,0.26074,0.10796,0.021346,0.031617,-0.073223,0.012067
-0.032689,-0.078088,-0.49515,-0.15241,-0.034576,-0.030835,-0.076741,-0.058185
-0.033313,-0.053709,0.041354,0.0095178,0.035159,0.0089873,0.069271,-0.042593
0.02975,0.05632,0.2154,0.086314,0.035446,-0.028568,-0.025055,0.012026
0.015762,-0.0057759,-0.025981,-0.093584,-0.096091,0.0048548,0.039259,0.012055
0.0025549,0.0022748,-0.040491,-0.045576,-0.015706,0.054361,0.020151,0.027956
-0.010291,0.010237,0.2045,0.097607,0.12799,0.018073,0.0031583,0.020776
0.023636,0.025944,-0.19638,-0.0079,0.0065195,0.0050069,0.128,0.029594
-0.028896,-0.020969,0.030643,-0.010859,-0.052443,-0.055471,-0.075316,-0.023797
-0.019738,-0.013434,-0.067695,0.049166,0.052188,-0.015116,-0.17842,-0.053611
0.027568,0.071846,0.14873,0.093461,-0.0080755,-0.0067433,0.15353,0.01811
-0.027511,-0.093351,-0.086416,-0.066018,-0.092757,-0.014541,-0.025355,-0.0040758
0.01059,0.014408,-0.14113,-0.21871,-0.12362,0.0008819,-0.1291,-0.018671
-0.0062241,-0.011002,0.18687,-0.0054008,0.11841,0.071142,0.12421,0.0055746
0.01614,-0.0052726,-0.22043,0.12084,0.10251,0.024661,-0.029902,0.0687
0.015437,0.031927,0.22988,0.089857,0.024343,-0.052483,0.034939,-0.032378
-0.016034,0.038452,0.10733,-0.051382,-0.11591,-0.04316,-0.031552,-0.024211
0.02324,-0.024443,-0.26841,0.048648,0.095738,0.060199,-0.02533,-0.00057859
-0.0075498,0.015351,0.35229,0.069425,-0.028533,-0.00058483,0.014896,-0.00060798
0.00072411,-0.060795,-0.25701,-0.20029,-0.12198,-0.030603,0.034161,0.053749
-0.022488,0.012736,-0.11906,0.059583,0.12744,0.055739,0.15663,-0.0094379
-0.014839,-0.014205,0.15027,0.10681,0.024072,-0.046443,-0.12669,-0.04954
0.0002089,0.037778,-0.19733,-0.19113,-0.12751,-0.0559,0.011114,-0.0039735
0.022758,0.019808,0.027446,0.025762,0.047838,0.051009,-0.12619,-0.0053871
-0.0016794,-0.021804,0.16198,0.094337,0.027065,0.0090209,0.093782,0.040187
-0.0025563,-0.025198,-0.027395,-0.0078099,-0.025191,-0.0095502,-0.15692,-0.02328
0.012521,0.032428,0.17784,-0.014077,0.0089072,0.019153,0.07549,0.023127
-0.018825,0.02554,-0.09065,-0.0096573,0.028412,0.0095038,-0.012812,-0.031467
0.020607,-0.014937,0.2826,0.13084,0.057235,-0.030545,0.063333,0.031623
-0.0020904,-0.034341,-0.36048,-0.13168,-0.15436,-0.015106,0.093401,0.016904
-0.0089671,-0.024532,-0.29468,-0.11796,-0.0048201,0.03216,0.1945,0.0022475
0.0154,0.054214,0.19038,0.13999,0.15406,0.048415,-0.30578,-0.043863
0.00052125,-0.031554,-0.10029,0.086469,0.056187,-0.029217,0.091825,0.0033587
-0.03027,0.0082689,0.22497,-0.092131,-0.21311,-0.07607,-0.17587,-0.028081
-0.022298,-0.044083,0.081494,-0.037521,0.040809,0.017016,-0.015475,0.010246
0.016696,0.030884,-0.068711,0.038439,0.036067,0.023412,0.11217,0.040292
0.024333,0.022584,-0.037645,-0.028958,-0.0012906,0.029148,0.043508,-0.0081317
0.0085466,0.079342,0.31511,0.080307,0.076838,0.0031906,-0.0018984,0.02917
0.0006616,-0.057211,-0.47222,-0.11024,-0.073417,-0.038546,-0.038808,-0.035194
0.01631,0.0026568,0.13043,0.071704,0.024626,-0.0019987,0.027266,-0.0058246
-0.046132,-0.070223,0.03595,-0.013751,-0.06618,-0.0040702,-0.006339,0.00016381
0.0085474,0.027849,-0.15498,-0.092269,-0.0015292,0.064837,0.11051,0.021917
0.00054976,0.014873,0.31517,0.14961,0.10209,0.0095521,-0.12239,-0.018583
0.0079159,0.007651,0.024899,0.0018499,-0.028026,-0.099561,-0.049184,-0.0040113
-0.00064054,-0.025048,-0.42317,-0.10512,-0.094292,-0.0047164,-0.037631,-0.012343
0.0061518,0.018732,0.16,0.055779,0.12259,0.075235,0.067936,0.011243
-0.0028818,-0.0087797,0.12774,-0.046454,-0.056718,-0.0083067,0.056036,0.012141
-0.027626,-0.044285,-0.06519,0.08034,0.016277,0.0022547,0.19186,0.0059698
0.033619,0.069239,-0.12081,-0.11883,-0.072704,-0.041775,-0.32171,0.00042887
-0.0065153,-0.003542,0.12527,0.058616,0.058649,0.015579,0.11685,-0.0046964
0.00051894,0.011151,0.11774,0.033807,-0.012267,-0.02126,-0.14852,-0.02532
-0.007708,-0.0038277,0.034821,-0.0066037,0.033991,0.066237,0.10135,0.016368
0.0078917,-0.017461,-0.094262,0.030294,0.063726,0.020123,0.09351,0.034144
-0.015199,-0.037989,0.025229,0.01881,-0.025372,-0.042433,0.00031072,-0.0034427
0.032346,0.05125,-0.13972,-0.02584,-0.069709,-0.066623,-0.060755,-0.041783
-0.021416,-0.031508,-0.01977,-0.15838,-0.11625,0.0024894,-0.11308,-0.026126
0.0031312,0.025816,0.0022402,0.059028,0.11657,0.06368,0.11653,0.020275
