-0.0072383,-0.029648,-0.36508,0.0068138,0.024443,-0.0089038,0.0018678,-0.00049017
-0.0074573,-0.053543,0.30176,0.085971,0.0017995,-0.015694,0.0016556,-0.00044101
-0.007792,-0.014184,-0.74559,-0.10075,0.010433,0.031912,-0.0062441,-0.02391
0.015245,-0.051942,0.28807,0.087141,0.018942,-0.022472,0.0015894,0.015003
-0.0086114,0.012935,0.1518,-0.022264,-0.074378,-0.038247,-0.0061347,-0.0087046
0.0066072,0.27399,0.15022,-0.046118,0.011617,0.023725,-0.006031,0.0065677
0.045291,0.051029,0.31534,0.054739,0.03469,0.02298,0.017473,0.021826
-0.056619,-0.27381,-0.49979,-0.032059,0.0026674,0.0065915,-0.021607,-0.02534
0.0055641,-0.021566,0.035083,0.045192,0.024997,0.0059973,0.025129,0.013596
-0.025963,-0.083424,-0.12444,-0.057129,-0.046637,-0.041163,-0.0064097,-0.017539
0.028507,0.087212,-0.0070737,0.012639,-0.0011397,0.013612,-0.0068648,0.0063019
0.020563,0.1232,0.029949,0.0045582,0.0054154,-0.0015688,-0.0074883,-0.00081567
-0.0028938,-0.092294,0.15197,0.043659,0.012262,0.014765,0.015173,0.0079357
-0.010596,0.089741,-0.078476,0.0049473,-0.0038956,0.015595,-0.0013461,0.0012063
-0.010349,0.09193,0.45453,-0.064707,-0.011725,-0.014864,-0.0022985,0.0022921
-0.0021495,-0.16299,-0.22795,-0.016871,0.012222,-0.01425,-0.0032312,-0.0045943
-0.0016293,-0.064694,-0.16011,0.0078211,0.0053752,-0.0060855,-0.0040509,-0.0039824
0.038076,0.043976,0.20999,0.079649,0.030097,0.025249,0.0031526,0.011824
-0.031494,-0.086215,-0.52583,-0.059279,-0.038793,-0.021741,0.0028412,-0.011916
-0.015067,0.029513,-0.024438,0.0049488,-0.0061696,0.0015055,-0.0049255,-0.0048681
0.024793,0.17226,0.19924,0.076795,-0.0050147,0.0091861,0.011119,0.0018098
-0.021382,-0.04942,0.31884,-0.11746,-0.012022,-0.029846,-0.01156,-0.0073647
0.0025382,-0.0042153,-0.085189,-0.015618,-0.011655,0.01725,-0.010552,-0.00098091
0.026112,0.071537,-0.088702,0.061745,0.058537,0.025411,0.021825,0.021106
0.025789,-0.13675,-0.11177,0.05197,0.050106,0.041368,0.015107,0.019935
0.0093266,0.18162,0.35448,0.080076,-0.029096,-0.020995,0.00040236,-0.012255
-0.062296,-0.19315,0.14627,-0.095869,-0.046143,-0.03683,-0.02239,-0.020773
-0.040485,-0.0033557,-0.69776,-0.11597,-0.063343,-0.037441,-0.029866,-0.013452
0.012522,-0.060516,-0.13179,-0.088861,0.01332,0.0084951,0.0092597,0.0096826
0.034539,-0.019046,0.28014,0.15037,0.043507,0.015238,0.016955,0.0095571
0.018038,0.068681,0.075032,0.063444,0.035265,-0.0013226,0.0089589,0.0096146
0.010069,0.1112,0.44573,0.0024031,-0.011296,0.013751,0.00099032,0.0020635
0.010645,0.086855,0.061416,0.0063832,0.020959,0.052812,0.00090764,-0.01307
-0.027266,-0.14405,-0.51011,-0.065645,-0.00098866,-0.016926,0.0086961,-0.012328
-0.010201,0.043437,0.03408,0.019883,-0.054007,-0.047133,-0.01477,-0.0035271
0.02244,0.015623,0.13095,0.027539,0.033461,0.024484,0.00073809,0.021108
-0.0077764,-0.072708,-0.51534,-0.0047036,-0.020085,-0.021072,0.00046517,0.0068085
-0.030745,0.042416,0.5821,-0.038699,-0.027273,0.0034778,-0.015614,0.00032251
-0.0074742,-0.10922,-0.37788,-0.082852,0.0040873,-0.003582,-0.0005936,-0.01413
0.0074125,0.049498,0.28826,0.11264,0.027224,-0.0032561,0.014358,0.002353
0.029701,0.15884,-0.25211,-0.053612,0.0032192,0.020091,-0.0097138,-0.0050476
0.020533,-0.17936,0.37023,0.012599,0.033765,0.011836,0.028864,0.018282
-0.012084,0.020026,0.03843,0.069682,-0.0060612,-0.02012,-0.010451,-0.0057753
-0.0054972,-0.0075771,-0.29576,-0.022375,-0.014678,0.018061,-0.0026187,-0.014627
-0.045546,-0.065848,0.044665,-0.044295,-0.038972,-0.037612,-0.025773,-0.015918
0.039695,0.16624,0.0017903,0.012133,0.030428,0.023853,0.013787,0.021809
0.015873,0.095134,0.41649,0.022186,-0.017379,0.0071815,0.014416,0.0050134
-0.023253,-0.21701,-0.33006,-0.029571,-0.0026119,-0.0094703,-0.0083585,-0.0036466
0.00045503,0.057081,-0.011039,0.083591,0.027989,0.012996,0.0078625,0.0037168
0.0088932,0.088215,-0.19439,-0.028763,-0.011365,-0.0034962,0.00049166,0.011452
-0.029169,-0.0074352,-0.26665,-0.13203,-0.018994,-0.02763,-0.022721,-0.019627
0.01127,-0.019562,0.027138,0.024051,0.020773,0.010985,0.00069554,0.0040434
0.012982,-0.19036,0.4571,0.009961,-0.0014888,-0.0047626,0.0082413,0.0041266
0.022738,0.090225,0.27598,0.13822,0.023442,0.026738,0.015568,0.011691
-0.029953,-0.035873,-0.70379,-0.10704,-0.014048,-0.003888,0.0070935,-0.020248
0.0031059,0.073609,0.4833,0.015826,-0.028307,-0.018576,-0.017131,0.0020513
-0.0033577,0.021854,0.15161,0.099788,0.01164,-0.0018219,-0.017989,-0.0072491
0.005086,-0.033647,0.34057,-0.074784,-0.019428,0.014958,0.012391,-0.024522
0.02044,0.09519,-0.32423,0.061642,0.042442,0.0081528,0.0037542,0.059853
-0.012041,0.040987,0.019221,-0.07734,0.009774,0.016683,0.0030354,-0.027312
0.032759,-0.017477,-0.70894,-0.0073779,0.031185,-0.0063941,0.025919,0.018889
-0.055799,-0.19101,-0.92059,-0.21239,-0.10394,-0.053232,-0.021283,0.0032943
-0.042881,-0.067254,0.75694,0.16783,-0.0045575,-0.014321,-0.029135,-0.042773
0.025186,0.094302,0.62776,0.063928,0.009481,0.016795,0.010233,0.013494
0.05518,0.26095,0.89416,0.15644,0.063564,0.04814,0.010927,0.015775
-0.022828,-0.13089,-0.69675,-0.12444,-0.0061419,-0.0060704,-0.0036104,-0.0048076
0.0022396,-0.12868,-0.22909,-0.10683,-0.0043288,-0.0051783,0.013452,-0.0015459
0.01303,-0.0059179,0.092608,0.068208,0.0062483,0.0038354,-0.00049407,0.0019294
-0.0065402,0.065956,-0.20426,-0.061076,-0.021749,-0.010505,0.0012621,0.0054129
0.0053596,0.0018697,0.086176,0.027788,0.020475,-0.0016169,-0.01273,-0.014737
0.0089168,-0.040754,-0.36913,0.083888,-0.0082716,0.014594,0.0042019,0.011602
-0.0043508,0.15817,0.80901,0.16129,0.00094852,-0.024571,-0.0027958,-0.017302
-0.034882,-0.25153,-0.99816,-0.27142,-0.045825,-0.0097974,0.0052425,-0.015651
0.018782,0.40332,0.75694,-0.041929,0.031151,0.019951,0.004872,0.063329
0.00065644,-0.25893,0.04581,0.10072,0.029055,0.025854,-0.0038219,-0.0069838
-0.049619,-0.12795,-0.71327,-0.19373,-0.067272,-0.054257,-0.028491,-0.0078389
0.017153,0.078116,0.92981,0.20889,0.0083124,-0.0090963,0.009193,-0.048543
-0.032643,-0.25779,-1.0205,-0.15918,0.00624,0.013182,5.2755e-05,-0.027392
0.090625,0.44976,0.63415,0.28834,0.067381,0.051789,0.030179,0.055814
0.051259,-0.027036,-0.33156,-0.003721,0.0433,0.036393,0.029336,0.045063
-0.064956,-0.033898,0.41714,-0.0913,-0.081848,-0.05662,-0.049352,-0.035966
0.022736,-0.1202,0.1035,-0.022966,-0.0037362,-0.016596,0.0049887,0.0082615
-0.06918,0.0004779,0.33217,-0.097314,-0.019613,-0.023525,-0.010853,-0.048635
0.088259,0.21641,-0.41768,0.17657,0.073382,0.055155,0.028049,0.043481
-0.099257,-0.25521,-0.65833,-0.14712,-0.099818,-0.046315,-0.042404,-0.035623
-0.05386,-0.1179,0.52921,-0.0054264,-0.0078027,-0.0076213,-0.0034483,-0.012486
0.14643,0.35586,-0.69972,-0.13925,0.060715,0.046364,0.035586,0.073788
-0.036995,-0.30041,0.022853,-0.015561,-0.018815,-0.016959,0.0044458,-0.011273
0.037199,0.15097,1.1518,0.28151,0.082177,0.044851,0.028186,0.021262
-0.098897,-0.012644,-0.82658,-0.051363,-0.057849,-0.049212,-0.041598,-0.078745
0.039906,0.25175,1.1514,0.1661,-0.016854,-0.0020748,-0.0095814,0.008903
-0.045753,-0.62286,-0.34335,-0.058534,-0.013628,-0.024555,-0.0085841,-0.020561
0.01946,0.23282,-0.59984,-0.21058,-0.017146,0.0005536,-0.0073809,0.02031
0.18862,0.44419,0.077536,0.35714,0.1519,0.1044,0.064295,0.10022
-0.19496,-0.63877,-0.55239,-0.56752,-0.18666,-0.11166,-0.051438,-0.10904
0.071053,0.37883,0.020145,0.014592,0.068237,0.063001,0.043761,0.04866
-0.029952,0.24188,0.094601,0.23586,0.025467,-0.012608,-0.025218,0.0028604
-0.0068414,-0.2431,0.79857,-0.044396,-0.034124,-0.01072,-0.0084894,-0.020046
-0.032448,0.019603,0.36839,0.24426,0.0063625,-0.0097549,-0.015526,-0.020203
0.0018604,-0.060535,-0.65591,-0.030847,-0.0016469,-0.01771,0.00047612,-0.01333
0.087817,0.084413,0.42105,0.028823,0.082502,0.066936,0.047289,0.063049
-0.095019,-0.27165,-0.70579,-0.31097,-0.16287,-0.099464,-0.046974,-0.064452
0.18792,0.33568,0.32265,0.32512,0.22354,0.13957,0.069261,0.10428
-0.17223,-0.45481,-0.48583,-0.1248,-0.16405,-0.090655,-0.057101,-0.063373
-0.057552,0.1222,-0.41239,-0.71449,-0.12198,-0.063227,-0.035385,-0.051575
0.040686,0.019714,0.45652,0.67427,0.13929,0.058106,0.03291,0.022751
-0.02497,-0.20902,0.43136,0.0267,-0.028271,-0.015476,-0.008382,-0.012002
0.24642,0.80702,0.25802,0.39006,0.24269,0.15367,0.083024,0.11005
-0.14432,0.037157,0.36779,-0.39998,-0.17283,-0.098474,-0.044315,-0.056184
-0.016871,-0.31819,-0.23107,-0.14115,-0.025,-0.0062798,-0.023058,-0.0027022
0.0041817,-0.10029,-0.15482,0.1106,-0.017169,-0.022868,0.014177,-0.010616
-0.19813,-0.32381,-0.45477,-0.083553,-0.14952,-0.11693,-0.096445,-0.11109
0.16522,0.019897,-0.89695,0.17376,0.14034,0.086642,0.067181,0.094348
0.06273,0.057653,0.62459,-0.35245,0.071166,0.07236,0.044296,0.050926
-0.053042,0.41819,0.67333,0.34559,0.002395,-0.019068,-0.024407,-0.038419
0.11398,-0.087667,-0.28582,0.0027974,0.051298,0.062339,0.04068,0.052559
-0.093449,-0.021575,0.095741,0.17489,-0.11017,-0.082008,-0.041933,-0.051548
0.0033369,-0.083483,-0.30343,-0.44144,-0.091306,-0.038318,0.00082962,-0.0074393
-0.010666,-0.034042,0.19662,0.18654,0.12354,0.060244,0.0044755,0.012588
-0.15181,-0.53918,0.41971,-0.28358,-0.15318,-0.099217,-0.047047,-0.069926
0.071649,0.33668,-0.26849,0.12558,0.10961,0.061024,0.02559,0.033856
0.12827,0.066925,-0.45237,0.41399,0.17717,0.095281,0.050258,0.058199
0.025892,0.47438,0.39726,-0.32567,-0.13856,-0.059264,-0.027849,0.00309
-0.032154,0.019758,0.54191,0.2951,-0.017925,-0.020026,-0.013396,-0.022035
-0.092414,-0.37011,-0.8118,-0.39852,-0.078802,-0.037099,-0.015606,-0.032674
0.025256,0.042117,-0.27609,0.29335,0.13142,0.069293,0.036099,0.026049
0.055826,0.078864,0.21162,-0.14002,-0.043737,-0.036502,-0.0063711,0.013769
-0.07811,-0.093297,0.82704,0.13534,0.013108,0.013184,-0.0098113,-0.030123
0.030502,0.045281,-0.32816,-0.18576,-0.049005,-0.015401,-0.0050812,0.0041293
0.069978,-0.35855,-0.26581,0.34319,0.028702,0.019058,0.015974,0.023183
-0.16209,-0.13995,-0.48705,-0.77505,-0.13541,-0.085919,-0.047957,-0.058515
0.10824,0.4772,0.094431,0.2134,0.15512,0.092026,0.053243,0.056214
-0.032909,-0.19079,0.10399,0.10966,-0.012842,-0.01721,-0.0085814,-0.023084
0.086138,0.63352,1.1342,0.52688,0.048656,0.031562,0.016382,0.031712
0.019489,-0.41376,-0.89718,-0.18862,-0.0355,0.0034976,-0.0049955,0.017293
-0.17124,-0.088296,-0.25506,-0.012422,-0.086315,-0.070906,-0.057485,-0.090126
0.1301,-0.13149,0.82372,-0.085725,0.12942,0.073061,0.053805,0.068369
-0.085344,0.18285,-0.61051,-0.18376,-0.10846,-0.081142,-0.038688,-0.046776
0.08007,0.033244,0.48438,0.042596,0.073641,0.067304,0.039764,0.048369
0.016542,0.12126,0.29238,0.1846,0.026171,0.0023512,0.0077898,0.01756
0.052281,-0.37493,-0.6014,-0.22861,-0.0092468,0.020884,0.021702,0.032575
-0.21053,-0.050304,-1.0773,-0.28448,-0.14185,-0.11099,-0.082306,-0.12518
0.041715,0.31309,0.47182,0.67243,0.090181,0.060771,0.024319,0.013456
0.029145,-0.15234,0.045269,-0.20971,-0.038211,-0.001664,-0.0016337,0.019391
-0.0046345,0.092338,0.58742,-0.040054,-0.032941,-0.054764,-0.018977,-0.012954
-0.011606,0.054926,0.61049,-0.075869,0.021999,0.012076,0.011824,0.01858
0.21196,0.0089148,-0.8148,0.37905,0.21419,0.14505,0.083239,0.10656
-0.07619,0.1419,0.31525,-0.63501,-0.15063,-0.069544,-0.03127,-0.053638
-0.12683,-0.17875,0.26617,0.43818,-0.040958,-0.046004,-0.042886,-0.056036
0.066528,-0.15588,0.25457,-0.22771,0.019181,0.027357,0.024483,0.028487
-0.15399,-0.39861,-0.92463,0.033178,-0.057476,-0.053845,-0.048523,-0.082077
0.16305,0.28844,-0.21632,0.042704,0.11783,0.068259,0.049959,0.095831
0.1256,0.29549,-0.24114,0.036147,0.089831,0.079653,0.045937,0.061465
-0.16579,0.28554,0.58777,0.083775,-0.13573,-0.099075,-0.076596,-0.084163
-0.024035,0.13196,-0.28733,-0.26875,-0.044958,-0.031291,0.0025117,-0.0053946
-0.034861,-0.6124,0.49234,0.26521,-0.013982,-0.029822,-0.013547,-0.030318
-0.033482,0.19163,0.56758,-0.18497,-0.035419,-0.016326,-0.0073306,-0.025794
0.074931,-0.26114,-0.86691,0.17352,0.06287,0.056739,0.029334,0.047776
0.11187,-0.1261,0.51455,0.031889,0.13327,0.088749,0.049948,0.066021
-0.12471,0.02862,-0.56633,-0.011745,-0.1824,-0.12241,-0.054549,-0.072024
0.22537,0.74519,0.41448,0.14989,0.19534,0.15075,0.083239,0.10287
-0.13426,-0.4886,-0.48208,-0.2569,-0.075927,-0.059817,-0.052204,-0.065247
-0.21119,-0.33383,0.1783,-0.37878,-0.17469,-0.12865,-0.085841,-0.091853
0.18217,0.68797,-0.41343,-0.071561,0.15782,0.11637,0.068281,0.10119
-0.079199,-0.43046,0.70649,0.66944,-0.038639,-0.051266,-0.027316,-0.048696
0.067208,0.41931,0.60345,-0.39305,0.017572,0.032455,0.025851,0.028711
0.051066,-0.27266,-0.14859,0.34671,0.045289,0.015849,0.024716,0.0208
-0.080765,-0.36084,-0.73194,-0.085097,-0.10411,-0.062165,-0.02285,-0.041265
-0.054903,0.10482,-1.0768,0.1954,0.069006,0.024833,-0.015241,-0.016923
0.17541,0.50447,0.84985,0.13306,0.095374,0.089211,0.05538,0.078171
-0.13219,0.039418,0.30171,-0.53924,-0.15836,-0.11134,-0.053169,-0.060681
0.092357,-0.32216,0.643,-0.25304,0.026059,0.040242,0.018484,0.043084
-0.15907,-0.22017,-0.12129,0.05241,-0.10964,-0.088999,-0.065618,-0.087101
0.12101,-0.035538,-0.67428,0.2195,0.13729,0.086683,0.069485,0.072165
-0.013102,0.13278,-0.24726,0.34879,0.032136,0.035787,-0.0059804,-0.010456
0.031968,0.18586,0.23166,0.0019475,0.10582,0.04707,0.01253,0.008624
-0.11138,-0.2103,0.45769,-0.29839,-0.15757,-0.11417,-0.015819,-0.027087
0.017392,0.20277,-0.39902,0.017232,-0.031669,-0.010725,-0.020976,-0.0085249
0.12883,0.20535,0.43974,0.16677,0.030367,0.036907,0.035841,0.056151
-0.035192,-0.13467,-0.38159,-0.17069,0.0052483,0.013065,0.0059443,-0.0052657
0.03294,-0.023801,0.24201,-0.057832,0.026142,0.019439,-0.0014616,0.010102
-0.1746,-0.21556,0.064177,0.0056363,-0.086137,-0.084315,-0.064555,-0.085357
0.076789,-0.02526,-0.52795,0.20021,0.083031,0.045928,0.035495,0.028742
-0.0015286,0.061366,-0.20101,-0.019794,0.010722,0.0043196,-0.0057969,0.0010915
0.059819,0.1542,0.42618,0.065769,0.041056,0.025579,0.014975,0.019596
-0.066582,-0.25211,-0.31132,-0.51835,-0.099242,-0.022879,0.0043619,-0.0011957
0.073094,0.47931,1.0862,0.22101,0.0038252,0.0074476,-0.0061235,0.01733
-0.067429,-0.2558,-0.037362,0.20604,-0.0015873,-0.031973,-0.0084865,-0.033785
0.090402,-0.48331,-0.82926,0.037878,0.095003,0.085195,0.059857,0.072319
-0.12506,0.19208,0.3065,0.23869,-0.058525,-0.071031,-0.05891,-0.086079
0.020606,0.11731,-0.89181,-0.21681,-0.025249,-0.024387,-0.013285,-0.0011578
0.14444,0.58251,0.54225,-0.40109,0.045887,0.053022,0.032587,0.061346
-0.1132,-0.15582,0.62318,0.16039,-0.017341,-0.010793,-0.02292,-0.031586
0.0051897,-0.31991,-0.21227,0.052026,0.011498,0.026378,0.015471,0.0088455
-0.055438,-0.29751,-0.55943,0.19479,-0.078426,-0.085315,-0.016302,-0.028588
0.0092812,0.38245,0.03132,-0.24738,0.0022744,0.0059343,-0.0010318,0.0042693
0.0975,0.13682,0.24886,0.1714,0.058779,0.0504,0.022237,0.029049
-0.0097567,-0.077236,0.1458,0.19458,0.044793,0.017084,-0.0011868,0.0065095
-0.0079495,-0.28508,0.43535,-0.29318,0.023416,0.031169,0.006791,-0.00093601
-0.022127,-0.20546,-0.11735,0.038606,-0.051662,-0.032245,-0.0085734,-0.0088912
-0.020968,0.28041,-0.44401,-0.010517,-0.031492,-0.01687,-0.0082814,-0.01722
-0.043342,-0.051394,-0.14813,-0.16435,-0.0719,-0.055513,-0.01582,-0.033498
0.043851,0.15349,-0.26906,0.063982,0.07743,0.047145,0.023483,0.028505
0.0065483,0.31144,0.94586,0.13725,-0.013041,-0.0057559,-0.0075363,0.012833
-0.0065478,-0.20121,-0.74709,0.15788,0.047243,0.0045442,0.000561,-0.0021699
0.098451,-0.0092044,0.24025,-0.17134,0.0079545,0.031147,0.016613,0.046093
-0.1238,-0.30059,-0.18039,0.0074968,-0.037739,-0.027594,-0.03741,-0.053369
0.053064,0.14241,0.80356,0.26233,0.042191,0.023467,0.033883,0.027381
0.0037026,-0.024887,-0.36916,-0.24564,-0.034393,-0.011224,-0.0038432,-0.0088105
-0.037922,-0.029618,-0.97099,-0.27719,-0.04961,-0.046028,-0.025597,-0.029439
-0.0097322,0.14377,0.30997,-0.02247,0.011426,0.02029,0.015426,0.012098
-0.013666,-0.051222,0.40774,0.11794,0.015392,0.0077238,0.0019097,-0.017207
0.16093,0.15168,0.65108,0.59562,0.17299,0.1035,0.050869,0.085673
-0.12675,-0.12969,-0.29158,-0.10603,-0.21884,-0.1457,-0.072271,-0.077696
-0.025186,-0.47313,-0.48195,-0.67492,0.027744,0.056925,0.015108,0.00057033
-0.034336,0.34769,-0.23418,0.22504,-0.0085979,-0.0073206,-0.023101,-0.015355
0.064683,0.36307,0.77744,-0.10862,0.016556,-0.025748,0.031734,0.038696
0.0064177,-0.42864,-0.057784,0.3487,0.072635,0.025376,0.015488,0.0065407
0.033244,0.4393,-0.19143,0.34073,-0.011644,-0.0098375,-0.009328,-0.0024323
0.035994,0.24631,-0.85216,-0.55254,-0.0014638,0.025231,0.01987,0.027376
-0.11008,-0.69605,0.79871,-0.14932,-0.084046,-0.009709,-0.045188,-0.060313
0.095375,0.22216,0.15912,0.25578,0.11575,0.041862,0.02231,0.054831
-0.073731,-0.29353,-0.59594,-0.15533,-0.081723,-0.054239,-0.019509,-0.041141
-0.054302,-0.30154,0.23384,0.22084,0.0032365,-0.016649,-0.0062387,-0.01988
0.021498,0.4532,0.25485,-0.075225,-0.020008,-0.0015685,0.0077516,0.0017454
0.068296,0.27257,-0.32727,0.011784,0.067271,0.037855,0.03051,0.031904
-0.046389,0.035353,0.37647,-0.026249,-0.063113,-0.015655,-0.015989,-0.015032
0.036774,-0.19427,-0.45347,0.028202,0.034008,0.025237,0.01663,0.017366
0.012599,0.0046615,0.27154,-0.069056,-0.0088142,-0.027204,-0.012475,0.0040811
0.0051617,-0.11341,-0.15424,0.054474,0.011159,-0.0013904,-0.0098902,-0.00043276
0.036675,0.29006,0.80172,0.12271,0.023121,0.024242,0.0083665,0.011212
-0.081675,-0.10347,-0.2047,-0.093322,-0.012526,-0.028725,-0.01277,-0.039653
0.031778,-0.018477,-0.57126,-0.056345,-0.010336,0.026978,0.020151,0.03391
-0.03777,-0.006153,0.011164,-0.095433,-0.0019005,-0.0040903,-0.010227,-0.010763
-0.001433,-0.27957,0.39663,-0.038706,-0.010765,-0.028183,-0.010175,-0.0099061
0.031867,0.020979,-0.25694,0.32564,0.017932,0.0095196,0.0048062,-0.0026482
0.0006361,0.069948,-0.79274,-0.17275,-0.032556,-0.00010736,-0.0041129,-0.0044419
-0.054678,0.19951,0.34958,-0.19613,-0.05221,-0.0020462,-0.0053931,-0.014918
0.0080488,-0.26553,0.25615,0.39791,0.092511,0.027499,0.016873,0.021097
0.049517,0.14737,-0.35493,-0.3032,0.042901,0.03417,0.023841,0.033791
-0.023139,0.0263,0.3946,0.19363,-0.067741,-0.091162,-0.031248,-0.031107
-0.0065348,-0.042724,0.79119,-0.16596,-0.051715,-0.020251,-0.015587,-0.024901
0.098903,0.58672,0.73201,0.18802,0.12211,0.090619,0.047278,0.060283
-0.035979,-0.23729,-0.68022,-0.049905,-0.070126,-0.032193,-0.030339,-0.017868
-0.05322,-0.45623,-1.1037,-0.31839,-0.027509,0.009403,-0.0064618,-0.025249
0.037863,0.13747,-0.21255,0.24067,0.053889,0.011834,0.01716,0.022179
0.025069,-0.24705,-0.34299,0.14946,0.04052,0.029321,0.0091571,0.006905
-0.10017,0.11698,0.7659,0.031955,-0.060372,-0.063525,-0.022685,-0.03224
-0.0098411,0.0052115,-0.15274,-0.26099,-0.014708,-0.0013066,-0.0079775,-0.0016055
0.0075708,0.18691,0.99619,0.036001,-0.0021381,-0.0027839,-0.0012516,-0.0027073
-0.023418,-0.10717,-0.90177,-0.20969,-0.061363,-0.028686,-0.010122,-0.019761
0.10948,0.21278,0.52342,0.36197,0.081663,0.046368,0.043724,0.064642
0.009126,-0.053556,0.31319,0.13478,0.013613,0.027531,-0.0036463,0.00071731
-0.05001,-0.068951,-0.69483,-0.24938,-0.0069833,-0.02224,-0.011566,-0.031681
0.041994,0.22104,-0.26487,-0.015626,0.012654,0.0067942,0.012105,0.014413
-0.019516,-0.22421,0.51861,0.032881,-0.013017,-0.017955,-0.018687,-0.017233
-0.00059106,-0.35243,-0.26431,0.046136,0.041191,0.028585,0.0052941,0.021794
-0.034785,0.0054523,-0.1659,-0.052543,-0.035656,0.0057269,0.0057973,-0.016985
-0.044852,0.39356,0.058519,-0.30108,-0.10306,-0.078874,-0.040689,-0.024222
0.14024,0.17684,0.41095,0.50424,0.088728,0.063627,0.04551,0.046956
-0.13641,0.11949,-0.1938,-0.30859,-0.069978,-0.059199,-0.040249,-0.061244
0.085724,-0.28652,-0.13956,0.2594,0.12353,0.068024,0.045862,0.065261
-0.045001,-0.2666,-0.0075505,-0.22335,-0.04221,-0.015883,-0.0085797,-0.026657
0.0028332,0.12714,0.65824,0.21717,-0.013087,0.0013662,-0.01602,-0.0011059
0.010849,-0.16412,-0.49987,-0.16407,0.061853,0.049294,0.015745,0.0089993
-0.0048562,-0.08163,-0.31637,0.075528,-0.06011,-0.075309,-0.014877,-0.0043022
0.049934,0.45631,0.89867,0.090099,0.011292,0.018202,0.024869,0.029126
-0.050981,-0.25916,-0.67846,-0.30902,-0.052171,-0.02942,-0.029162,-0.031518
-0.026165,0.20151,-0.11094,0.073449,-0.00031959,-0.0070263,-0.0051801,-0.030131
0.030604,0.18721,-0.34965,-0.050535,0.011025,0.03875,0.0029826,0.0097444
0.0018986,-0.33037,0.47739,0.26617,0.044957,0.0065515,0.010877,0.017739
0.082619,0.33778,-0.10783,-0.19294,0.0083631,0.021484,0.02625,0.032898
-0.094932,-0.20548,0.10466,0.050878,-0.043507,-0.03366,-0.021259,-0.030709
0.023424,-0.13751,0.93354,0.17132,0.061626,0.036295,0.0011359,0.014442
-0.078349,-0.22725,-0.74151,-0.064776,-0.043221,-0.042298,-0.023745,-0.042538
0.091711,0.18101,-0.45678,0.077501,0.032595,0.027225,0.021339,0.048426
0.002353,0.25374,0.14008,-0.42533,-0.070428,-0.044345,-0.0041302,-0.0094214
-0.041497,-0.30109,0.24336,0.066835,-0.0087404,-0.0070396,-0.0062526,-0.020597
0.069981,0.046393,-0.54016,0.31098,0.092441,0.068934,0.030782,0.030751
-0.17824,-0.14224,0.52001,-0.13145,-0.071742,-0.066197,-0.049076,-0.073861
0.20669,0.61581,0.52064,0.11342,0.092376,0.072257,0.051246,0.087729
-0.087076,-0.23735,-0.3091,-0.010163,-0.079238,-0.054413,-0.043082,-0.046705
0.011336,-0.074269,-0.38044,-0.026462,0.022939,0.015069,0.019628,0.015243
0.025744,-0.10584,-0.31463,-0.27182,-0.022722,0.015347,0.012878,0.023709
-0.082748,-0.11552,0.43269,0.30079,-0.067495,-0.061226,-0.032096,-0.044722
0.029528,0.080203,0.1578,-0.08919,0.076373,0.04318,0.017422,0.012978
0.010683,0.0073549,-0.27844,-0.12808,0.018378,0.01593,-0.0028139,-0.006533
0.0633,0.42586,0.5805,0.20898,0.063124,0.012977,0.0085032,0.021424
-0.039875,-0.35721,-0.36196,-0.1157,-0.070957,-0.020784,-0.0036268,0.0027019
0.036351,0.20062,-0.5061,0.078609,-0.0015923,-0.0077284,0.0073368,0.014995
-0.10714,-0.40339,0.19336,-0.16076,-0.081031,-0.042116,-0.021421,-0.059301
0.052573,0.025398,0.20293,0.064329,0.064988,0.03966,0.019221,0.021653
0.03868,0.090025,0.026583,0.16686,0.068592,0.049756,0.019741,0.038873
-0.047222,0.16102,0.072172,0.020117,-0.023865,-0.03545,-0.043316,-0.031175
0.01392,0.21962,0.34631,-0.034212,-0.0017146,-0.0050189,0.0098595,0.014695
-0.043018,-0.43989,-0.79559,-0.32629,-0.083666,-0.03845,-0.015799,-0.042066
-0.022132,-0.0078418,0.50745,0.17353,0.0040926,-0.010392,-0.0027725,-0.0058329
0.11621,0.043191,-0.60366,0.02695,0.027852,0.05618,0.049299,0.061272
0.052124,0.17648,1.0042,0.17168,0.058794,0.013325,0.0079422,0.019017
-0.081313,0.1189,0.012089,0.11686,-0.003696,-0.0056804,-0.017201,-0.030681
