0.0073952,0.0079286,-0.0023813,0.046933,0.026353,0.00129,-0.0071258,0.0074688
-0.024512,-0.0014895,0.12944,-0.016161,-0.0042747,0.0071845,0.015459,-0.00089492
0.0061392,0.005823,-0.0986,-0.015863,0.0038961,0.0052108,0.0072235,0.0064184
0.0055908,0.014304,-0.052341,0.0087156,-0.0038849,-0.0044547,0.0073167,0.0059227
0.012901,-0.0074216,0.043169,0.0026594,0.019207,0.0095889,0.0078972,-0.0024379
-0.0031748,0.010681,-0.14655,-0.018767,-0.051842,-0.015043,-0.014613,-0.0030806
-0.0035637,0.0057507,-0.22197,0.045585,0.017385,-0.00014922,0.0020641,0.011802
-0.019498,-0.030385,0.6533,-0.0077844,-0.0073809,-0.00037851,-0.012637,-0.028057
0.01154,-0.012072,-0.23995,0.00056219,0.022455,-0.00010707,0.019183,0.0024454
0.0036297,-0.0019694,-0.01251,-0.070069,-0.0022966,0.00062404,-0.011998,-0.0059288
0.011468,-0.015737,0.02873,-0.00080738,-0.0033356,0.0017332,-0.012464,0.0094649
-0.0040075,0.032619,-0.17357,0.021118,-0.0039634,0.0031021,0.010055,0.017486
-0.011553,0.025999,0.1436,0.0038522,-0.0041093,0.0045865,0.0010533,0.0025494
0.020071,0.011341,0.0015801,0.064874,0.027472,0.013848,0.0076456,-0.0041413
-0.03414,-0.058233,-0.10858,-0.0065817,-0.026487,-0.016121,-0.016799,-0.01053
0.013309,0.020334,0.031916,-0.030816,0.013565,-0.015099,0.0060393,-0.0011784
0.0061675,0.043806,0.018057,0.007667,-0.024422,-0.0065571,0.0059509,0.00026829
-0.00088755,-0.042609,-0.054129,-0.024153,0.0078064,0.017344,0.0063633,0.0092556
-6.7091e-05,-0.012401,0.12297,-0.0092962,0.0085186,-0.0058269,0.0071588,-0.0055817
0.0085874,0.0094705,-0.0022594,0.028668,0.01665,0.017771,0.00033122,0.010418
0.0015829,-0.0081017,-0.20057,-0.019647,0.0008865,0.0022804,-0.0065267,-0.012987
-0.0055157,0.021046,-0.11859,-0.0135,-0.015318,-0.020999,-0.013605,-0.013149
-0.01276,-0.020008,0.49423,0.016081,-0.016234,-0.0051867,-0.013206,-0.0055035
0.011066,0.040853,-0.14415,0.03031,0.013949,0.018425,0.010277,0.010129
-0.019986,-0.069653,0.050143,0.0060212,-0.01828,-0.0049288,-0.0055859,0.010423
0.0034588,0.015687,-0.09766,-0.033134,0.020136,0.01059,0.017461,0.011014
0.018909,0.023306,-0.11418,-0.032354,-0.011234,-0.013237,0.0092508,0.011793
0.018554,0.077945,0.029002,0.023973,0.012703,-0.0061623,-0.0066631,-0.0030651
-0.013237,-0.039475,0.048699,0.034134,-0.0096632,0.0083671,-0.0067818,-0.010362
-0.0061573,-0.040194,0.030143,-0.025579,0.015231,0.0069724,0.0088897,-0.018121
-0.022696,-0.01033,0.0051874,-0.0070881,0.01678,-0.0024016,-0.014397,-0.010833
0.015312,-0.035802,-0.28225,0.050161,-0.0053548,-0.0039355,0.0091992,0.0037003
0.0063803,0.03207,0.10779,-0.018229,-0.0045939,-0.013024,0.0014533,0.0099918
-0.010319,0.029647,0.31859,0.037535,-0.020177,-0.0059999,-0.0064654,0.0082736
0.020028,-0.0034887,-0.11627,-0.10289,-0.020862,0.017316,0.0010275,-0.0011867
-0.019648,-0.012158,-0.1249,-0.033101,-0.014292,0.0023234,-0.0073103,-0.0025226
0.0035581,0.0039885,0.19173,0.020633,0.015453,0.0036736,0.0076356,0.00443
-0.0040644,-0.0018031,-0.15117,0.05083,0.01403,-0.0022391,-0.0009268,0.0041045
0.012151,0.017186,-0.05329,0.049944,0.044235,0.015558,0.0061605,0.0042655
0.005243,-0.056657,0.061741,0.033714,0.012499,-0.0057772,0.0055485,-0.010843
-0.0093013,0.05729,-0.057969,-0.068225,-0.026459,-0.019708,-0.010509,-0.0023318
-0.00040075,0.014549,0.15626,0.0017651,-0.018054,0.0047385,-0.010727,0.0061897
0.0083379,0.048809,0.094025,0.0091059,-0.024971,-0.010724,0.012706,-0.0088482
-0.014474,-0.090433,-0.21359,-0.077583,-0.023986,-0.0036206,-0.0027436,-0.0084538
-0.0064214,-0.028383,0.015454,0.046393,0.039395,0.010528,0.0053646,-0.00044833
0.024667,-0.0070814,-0.13903,-0.025056,0.032213,0.016302,0.0057059,0.015207
-0.01491,0.013003,0.012706,0.020826,0.0012493,-0.0016598,-0.0096073,-0.00049127
-0.0078651,0.032553,0.25425,0.043682,-0.014465,-0.0040198,-0.0015734,0.007201
0.0068657,0.013243,-0.24849,0.004636,-0.014907,0.0016626,-0.0014769,-0.00074314
0.0059706,-0.0052355,0.052199,-0.049407,-0.015626,-0.015658,-0.0015091,-0.00087272
-0.0026388,-0.014683,0.11675,-0.017031,-0.00087996,-0.0011517,-0.0016463,-0.0088125
0.0045312,0.055297,0.20892,0.078029,0.0060274,0.0061926,0.0059653,-0.0011225
0.0040532,-0.045498,-0.10391,-0.038037,0.028658,0.014194,-0.0020658,-0.001222
-0.0041002,0.0419,0.0030205,0.032859,0.0046038,-0.00063689,0.0055507,-0.009072
-0.0043497,-0.050193,-0.10616,-0.053256,-0.0035914,-0.007148,0.013221,0.014444
0.003261,-0.025356,-0.30852,0.047353,0.011889,0.0023493,-0.010282,0.0068802
-0.012542,-0.0011042,0.21564,-0.071342,-0.058352,-0.01134,-0.010241,-0.0082892
-0.0048823,0.014598,-0.032776,-0.03393,0.0044065,-0.001469,-0.0022467,-0.0076242
0.01064,0.013941,-0.059475,0.011655,0.012634,-0.0072185,-0.0018751,0.0088355
0.0028088,-0.0029611,0.20857,0.058049,0.0053634,0.010363,-0.0012654,-0.0058659
0.01853,0.049988,-0.077562,0.058637,0.037241,0.019918,0.015238,0.018475
-0.012493,-0.045799,0.13097,0.0056019,-0.0011617,-0.0020983,-0.0070611,-0.0041962
0.0034935,0.014513,-0.094568,0.031487,-0.0083397,-0.0010929,0.0020805,-0.0036643
-0.019453,-0.011113,0.14414,-0.12196,-0.031215,-0.0083861,0.01128,-0.0034229
-0.0032131,0.0025148,0.041491,-0.017732,-0.015118,-0.0083792,-0.018717,-0.0191
0.020963,0.0166,-0.39601,3.0944e-05,0.0087148,-0.0088579,0.013431,-0.0037741
-0.0016105,-0.0075652,0.096061,0.040468,0.0090689,-0.0097453,-0.0096876,0.011377
-0.00062369,-0.022683,0.040416,-0.013668,0.0094102,0.012505,-0.010127,0.010795
-0.022972,-0.028336,0.06196,-0.029502,0.0097353,0.02676,0.03545,0.0023246
0.0016093,-0.055468,0.012752,0.094643,0.025621,0.017493,0.0098636,0.017195
0.018351,0.11474,-0.067294,-0.008315,-0.036767,-0.023032,-0.094569,-0.0071545
0.027144,0.021058,-0.1304,0.028881,0.017798,-0.0088248,0.050526,-0.0082943
-0.0033822,-0.0012528,0.17566,-0.067149,-0.029488,-0.02578,0.047051,-0.0096979
-0.026455,0.015509,0.34329,-0.038501,-0.0067317,-0.0035358,-0.03429,-0.003514
-0.018692,-0.10181,-0.057492,0.036872,0.015849,0.042337,0.033456,0.00258
0.0042979,0.028307,-0.49611,-0.020453,-0.0084618,-0.0052894,-0.061875,0.00099393
0.0035391,0.037566,0.0030818,-0.053908,-0.0013498,0.0020717,-0.07787,-0.023626
0.01042,0.0034117,-0.037423,0.077437,0.021729,-0.021483,0.17305,0.022729
0.017282,-0.05863,0.2643,0.10035,0.045261,0.033437,-0.043582,0.01524
-0.030426,0.062934,0.18875,-0.14137,-0.079161,-0.036301,0.0063496,-0.0069809
0.023631,0.04898,0.001014,0.0084101,0.0077877,-0.011967,-0.029101,0.010649
0.0076073,-0.13787,-0.07259,0.12754,0.040368,0.036083,-0.025372,-0.0024337
-0.0082072,-0.042533,-0.10215,0.020391,0.0028035,0.006225,0.024931,0.00030134
-0.0082379,0.040006,-0.36033,-0.25865,-0.042564,-0.023501,-0.0035265,-0.020583
-0.00035214,0.11908,0.17758,0.10269,-0.0021371,-0.014143,-0.0093879,0.0048967
-0.023653,-0.11699,0.13033,-0.03633,-0.0088645,0.041988,-0.00053872,0.0062023
0.0077727,0.15209,0.093117,0.09765,0.023064,-0.027115,0.015254,-0.032381
0.023595,0.019173,-0.13621,-0.026703,0.015399,0.0049948,0.0068686,0.029819
-0.0074662,-0.11107,0.14564,0.090465,0.030524,0.021045,0.0057333,0.0054568
0.0082772,0.017212,0.1333,-0.035415,-0.0097764,-0.018055,-0.027021,-0.0036856
-0.0073943,-0.027603,-0.21371,-0.060778,-0.035214,-0.018523,0.018168,0.0026274
9.2619e-05,-0.012688,0.16539,0.045566,-0.030085,0.0041185,-0.014778,-0.0066422
0.022822,-0.07955,-0.38734,-0.044347,0.037069,0.010954,0.014919,0.0077304
-0.0095732,0.20921,0.064423,-0.0097724,-0.0052987,0.017777,-0.0097999,0.0067868
-0.034566,-0.11449,0.22329,-0.10786,-0.023974,-0.022134,0.0049237,-0.017235
0.002656,-0.026011,-0.082414,0.084042,0.036136,-0.014928,-0.011137,-0.001827
-0.0070682,-0.039445,0.062148,0.12911,-0.019959,0.015984,0.028016,0.0061174
0.022466,0.049819,-0.22476,-0.058175,0.0032224,0.031487,-0.026028,-0.0090632
0.013401,0.032001,0.1205,-0.087183,0.019715,-0.023232,-0.0014017,0.015083
0.012833,0.024895,0.38015,0.11196,0.021485,0.01573,-0.0075369,0.0003699
-0.018172,-0.0027772,-0.22631,0.022844,0.0081641,-0.008031,0.057023,-0.0063995
-0.0014621,0.11245,-0.15146,-0.050841,-0.075368,-0.063367,-0.073507,-0.0053117
-0.015241,-0.075714,-0.21516,-0.11785,-0.010762,0.045015,0.006922,0.0035372
-0.012796,-0.13083,0.34871,0.12582,0.068883,0.02813,0.094953,0.0044222
0.021273,-0.030379,-0.029611,-0.031006,-0.024047,-0.020112,-0.11433,0.0050622
0.016393,0.029736,0.15838,0.021303,0.015211,0.0098836,0.12106,-0.010241
0.0035417,0.010223,-0.25073,-0.013389,-0.0084153,-0.0066409,-0.12088,0.02097
-0.017535,0.090824,-0.32675,-0.040271,-0.032079,-0.022588,-0.012064,-0.034111
-0.00016616,-0.0095193,0.44606,-0.05039,0.014905,0.032516,0.095984,0.027692
-0.022611,-0.0093597,-0.04997,-0.019367,-0.039042,-0.052207,-0.062245,-0.027904
0.024461,0.021112,-0.042635,0.10014,0.040589,0.020042,0.044659,0.0023457
0.0082808,0.019447,0.036376,0.065749,0.042769,0.038104,-0.0050123,0.016993
-0.016342,0.040385,0.20792,0.017226,0.0062398,0.0094383,-0.015786,0.00050304
0.013271,-0.20499,-0.28075,-0.015554,-0.0069918,-0.011703,-0.0031499,0.0076073
-0.019855,0.025811,0.1226,0.10648,-0.044349,-0.010129,0.0017644,-0.0085729
0.01731,0.053562,-0.044535,-0.21954,0.026518,-0.0096173,-0.063444,-0.0012019
0.0077816,0.019415,-0.15747,-0.0021336,-0.021194,-0.010326,0.106,0.014046
-0.0092132,-0.005857,0.24587,-0.077094,-0.02337,0.011255,-0.0054634,-0.009738
-0.010124,0.063942,-0.26956,-0.01378,-0.0030857,-0.014884,-0.014936,-0.010048
-0.0027132,0.017837,0.12772,0.095583,0.0089955,0.0054865,-0.016093,-0.01809
-0.0026269,-0.050758,-0.097779,0.065177,0.013555,-0.0051984,-0.071351,-0.010356
0.013481,-0.025218,0.025789,0.052648,0.0033949,-0.0073556,0.022486,0.044461
0.014207,-0.015576,0.20344,-0.019357,0.025797,0.030634,0.10138,-0.0098787
-0.0084577,-0.022438,-0.064585,0.013225,0.010561,0.022974,-0.061292,0.01406
-2.785e-05,0.039715,-0.029758,-0.10031,-0.0034389,0.0086143,-0.020384,-0.0010505
0.00026448,0.07698,0.1722,0.11548,0.0068074,-0.036211,0.028511,-0.00071001
0.00013529,-0.0042361,-0.048288,0.0031042,-0.037372,0.005222,0.0069214,-0.0085385
-0.031664,-0.14099,0.18805,-0.1415,-0.027137,-0.039451,0.0082566,-0.0090306
0.014342,0.011124,-0.59788,-0.045358,-0.00978,0.009038,0.14165,-0.0021975
-0.0022958,0.062237,0.03049,0.018208,0.030082,0.025411,-0.25702,-0.019175
0.020194,0.0052277,0.12095,-0.020565,0.0064509,-0.0060593,-0.015703,0.01057
-0.0039411,0.01245,0.019757,0.11249,-0.010284,0.0084426,0.10035,0.024813
0.0035429,-0.0018896,0.18346,0.066396,0.042541,-0.0011872,-0.049009,-0.023059
-0.019831,-0.053654,0.045281,-0.033612,-0.0067517,-0.0033906,0.12264,0.015573
0.035236,0.12219,-0.25135,-0.031535,0.013927,0.010007,0.0062335,0.015768
-0.018907,-0.061115,0.13098,0.11887,-0.043635,-0.015312,-0.093459,-0.014738
-0.010575,-0.026349,0.11402,-0.13789,-0.022932,-0.0086969,0.04216,0.0098029
0.013178,0.0069547,0.055508,0.1194,0.03726,0.022301,0.037765,-0.0046007
-0.018089,-0.039846,-0.015993,-0.28923,-0.01119,-0.015916,-0.083599,-0.019118
0.020581,0.020595,-0.2833,0.11308,-0.01956,-0.0061432,0.037098,0.020783
-0.019203,0.0010074,-0.069607,0.022412,0.0045373,0.0046081,-0.061307,-0.025568
0.0033114,0.050373,0.20898,-0.013226,0.014286,0.023868,0.011725,-0.0018423
-0.0054445,-0.049315,0.012509,0.13233,0.040807,-0.011262,-0.0094153,-0.0016273
0.025036,0.023043,-0.033631,-0.086892,-0.017776,0.015938,0.16438,0.022149
-0.0066367,-0.0053119,0.18922,0.032656,-0.0056762,-0.027802,-0.099709,-0.00066604
0.0012184,-0.063625,-0.29331,0.061132,0.006265,0.029011,-0.10647,0.00031065
-0.013848,0.043546,-0.033431,-0.0412,-0.02932,-0.024793,0.13607,0.0094011
0.010643,0.081622,-0.1852,-0.080047,0.012203,-0.025202,-0.028594,-0.0048133
0.0042965,0.0032591,0.64348,0.091894,-0.033402,0.0044791,-0.022588,0.0042977
-0.025207,-0.067157,-0.22659,-0.14359,0.0057725,0.002032,0.083661,-0.010399
0.015722,-0.0052084,-0.11633,0.06433,0.028368,0.045949,-0.045683,-0.010043
-0.0059063,-0.0144,0.3635,0.019913,0.026888,0.0038001,-0.082122,0.0052773
0.019107,0.045841,-0.39039,-0.066003,-0.013949,-0.0068872,-0.025028,-0.0034485
-0.010957,-0.05854,0.050169,0.1192,-0.031341,-0.040542,0.056074,0.0030324
-0.0024692,-0.022216,-0.065658,-0.064868,-0.001644,0.0045589,-0.041162,-0.014054
0.013254,0.061872,0.0043711,0.11647,0.020547,0.0034837,0.097903,0.015927
-0.010654,-0.086739,-0.21543,-0.1021,0.011774,0.018715,-0.010889,0.0073275
-0.0037936,0.14188,0.15124,0.0064067,0.011001,0.0032918,-0.0162,-0.016229
-0.0050636,-0.0021158,0.3244,0.028463,-0.020964,-0.0038543,0.10479,0.031243
0.0013792,-0.073707,-0.10154,-0.058637,0.001717,-0.0028779,-0.10193,-0.0066109
-0.0076652,0.020125,0.084153,0.019454,-0.0069185,-0.0017427,-0.035684,-0.020645
0.014891,-0.026328,-0.20555,-0.08782,-0.01555,-0.0083893,0.0059267,0.00446
-0.001117,0.035819,0.074499,0.11267,-0.024025,-0.022913,-0.039961,-0.0019255
0.030298,0.057152,-0.11667,-0.034652,0.03034,0.032749,0.037634,0.01462
-0.031542,-0.07234,0.22721,0.0094899,0.01488,0.017925,0.043799,-0.00075628
-0.0070986,-0.016874,-0.38684,-0.0052907,0.0077653,-0.028359,-0.10679,-0.032466
0.0018551,-0.041705,0.34611,0.052813,0.024527,0.011041,0.13339,0.021143
-0.0049161,0.010234,-0.080426,-0.052086,-0.021005,-0.012362,-0.094534,-0.011616
0.027059,0.022829,-0.20338,0.2251,-0.027592,0.018572,0.13935,-0.0055036
-0.0039419,0.01279,0.12047,-0.25016,-0.011201,-0.013375,-0.06345,0.039715
-0.0042404,0.035636,0.049881,0.012964,0.0357,0.0089854,-0.031372,-0.016402
-0.02849,0.005812,0.024308,-0.079979,0.0035867,-0.00023628,-0.014854,0.0059308
0.032823,0.0090944,-0.049021,0.02576,-0.013772,-0.0096922,-0.022138,-0.0026474
-0.023199,-0.02549,0.22034,0.096583,-0.023999,-0.0036147,0.055848,-0.018754
0.0068377,-0.013011,-0.16892,-0.0068388,0.0044772,-0.0052731,-0.023184,0.02002
-0.0018047,0.0063532,0.10134,0.076404,0.0017348,0.0089337,-0.063807,-0.034848
-0.0098697,0.023817,-0.29184,-0.2069,-0.0084148,-0.015555,0.05146,0.035333
0.029597,-0.031536,0.031666,0.16003,0.052434,0.054137,0.15114,0.011808
-0.0006551,-0.066054,0.053872,-0.048671,-0.010892,-0.024189,-0.16278,-0.019449
-0.0070741,0.037892,0.11681,0.049973,0.020342,-0.00060869,-0.046196,-0.042736
0.0022279,0.062449,0.26643,0.018159,-0.010247,-0.0080481,0.1027,0.020149
0.0034743,-0.0068359,-0.31758,-0.05099,-0.048166,-0.023191,-0.067571,0.044259
-0.011456,-0.090622,-0.056197,-0.04886,-0.031105,0.008549,0.091297,-0.0094729
-0.011528,0.046475,-0.0023863,0.047283,0.032976,0.0089843,-0.038188,-0.00049776
-0.0046328,-0.016825,-0.12257,-0.04431,0.011175,0.0093379,-0.050237,-0.014898
0.009299,0.078905,0.28898,0.0042573,0.020628,0.0017983,0.070224,-0.0138
0.0070272,0.036274,-0.16369,0.052392,0.022233,0.0098198,-0.09142,0.0025942
-0.003351,-0.067576,0.13858,-0.063752,-0.046556,-0.029074,0.10499,0.018486
0.02536,0.00047955,-0.037354,0.015493,0.025141,-0.0054813,-0.043937,0.0025116
-0.00028542,-0.010817,0.23074,0.13415,0.0028939,0.03375,0.032062,0.0015151
-0.048786,-0.032163,-0.39347,-0.027918,-0.043016,-0.020723,-0.065197,-0.023495
0.012837,0.0061946,0.13586,-0.14254,0.020227,0.010819,0.0085604,0.021404
0.0049614,-0.01295,-0.057618,-0.0066764,-0.010465,-0.0043978,0.043126,-0.011962
0.021297,0.035916,-0.17859,0.0123,0.013401,-0.0038361,-0.054428,0.0017231
0.014833,0.083406,0.36509,0.17973,0.0059311,-0.018709,-0.025529,-0.0075227
-0.030261,-0.13495,-0.053162,-0.12974,0.0061939,0.044759,0.075671,-0.00035605
0.0029616,-0.00080456,-0.10678,0.0053652,-0.0014811,-0.032175,-0.047524,0.0077739
-0.0029174,0.0024207,0.038725,-0.095028,-0.017185,-0.0073475,0.11245,-0.0065453
0.006603,0.13311,0.06179,0.14688,0.021469,0.017621,-0.070044,0.026851
-0.01547,-0.069582,-0.26507,0.0043233,0.0050125,0.0035741,0.0056139,-0.032969
0.0089416,-0.020103,0.37017,0.032019,-0.0040905,0.01289,-0.028794,0.055762
-0.013897,0.046414,-0.29801,-0.097882,-0.037038,-0.024874,-0.017932,-0.035535
0.017625,-0.027231,0.19988,-0.087948,6.6674e-05,0.015166,0.084478,-0.0025656
0.017635,0.0080521,0.037109,0.039174,-0.0019255,-0.023325,-0.034213,-0.001829
0.0018176,-0.0046503,-0.050011,0.08126,0.043182,0.00024321,-0.045535,-0.02556
-0.014152,-0.081225,-0.35603,0.039153,0.018442,0.023386,-0.034666,0.027968
-0.014597,0.059768,0.058971,-0.07092,-0.036913,-0.0085285,-0.094353,-0.051844
-0.007274,-0.018589,0.24402,-0.076881,-0.021252,-0.0094841,0.2061,0.055748
0.0078849,0.01264,0.52097,0.146,0.026316,0.012792,0.0080846,0.0074132
0.0075144,-0.00198,-0.78133,-0.051448,-0.027176,-0.0041232,-0.063065,-0.009034
0.0073014,0.0084546,0.25092,0.048442,0.052414,0.010145,0.062803,-0.016894
0.0072806,-0.010568,-0.10991,-0.016499,0.0069981,0.0087689,0.0022791,0.03846
-0.023803,0.034369,0.15795,0.041651,-0.054315,-0.03946,-0.097059,-0.015087
0.0077506,0.033082,-0.0099622,-0.16854,-0.03017,-0.0016876,0.03734,-0.013825
0.00029145,-0.023382,0.29852,0.0010621,0.063696,0.028383,-0.032719,0.0027974
0.016207,0.03563,-0.65252,0.081967,0.0085425,-0.0038833,0.020544,-0.0046156
-0.022744,-0.025282,0.17503,0.012439,-0.0079968,0.026573,-0.076246,-0.020653
0.008342,-0.10513,0.25742,0.0045315,-0.009121,-0.020816,0.083591,0.017126
0.0078445,0.0070691,-0.25669,-0.0030095,-0.049212,-0.028806,0.078854,0.01507
-0.0086112,-0.00055187,0.24263,0.030045,0.028297,0.0026448,-0.11313,-0.0031552
-0.0018982,0.013758,-0.32212,-0.028219,-0.0028977,0.003241,0.063044,-0.0059819
-0.0031422,0.066974,0.36983,-0.067919,0.021401,0.019829,-0.048348,-0.00087195
0.003451,-0.011479,-0.10317,0.035998,0.030843,0.0054482,0.037364,0.01251
0.0024446,0.037221,0.06356,0.056567,-0.02948,0.0068258,-0.039165,-0.035874
0.0018284,0.010522,-0.22382,-0.0069936,0.004126,-0.007477,0.026547,0.03385
0.0017381,-0.013335,0.42541,-0.0072918,0.0062123,0.0014042,0.054431,0.0030049
-0.0055691,-0.073672,-0.46487,0.0076611,-0.031467,-0.029196,-0.088806,-0.0034467
0.0033326,0.024323,-0.057817,-0.025681,0.00013332,0.002187,0.049465,-0.001273
-0.0029033,0.014432,-0.055317,-0.12373,0.0071076,-0.0060163,-0.078074,-0.037575
-0.0010117,-0.064874,0.38772,0.18184,0.012942,0.047837,0.05948,0.020175
0.00096649,-0.003204,-0.055771,-0.0308,0.0022601,-0.015788,0.0087676,0.02323
-0.005035,0.0036114,0.075645,-0.026846,-0.001094,-0.0013825,-0.0037849,-0.0052815
0.03543,0.12692,-0.23392,-0.039868,-0.020058,-0.025926,0.0061434,0.0046848
-0.034078,-0.016658,0.0067217,0.10304,-0.0072427,-0.011104,-0.055191,-0.0095676
0.020715,-0.037054,0.2961,-0.12827,0.022171,0.035413,0.062269,-0.0012546
-0.026739,0.026191,-0.086172,0.056257,0.013801,0.012138,0.030505,-0.0015934
-0.0044382,0.016565,-0.13369,-0.045791,0.01464,-0.0028004,0.060615,-0.0026156
0.0018997,-0.11274,-0.1911,0.042412,-0.045713,-0.017281,-0.27688,-0.035319
0.0081674,-0.0097271,0.06946,0.031549,-0.019096,-0.023603,0.12764,0.03341
0.0068094,-0.0095572,0.077945,0.022416,0.055008,0.024977,0.00095362,0.024172
0.013642,-0.0019053,-0.016674,0.029483,0.0042303,0.026773,0.13229,-0.0081235
-0.010309,0.1079,0.10636,-0.018893,0.0077636,-0.033943,-0.10333,-0.032116
-0.0025684,0.015881,-0.013802,-0.077078,-0.028559,-0.00099252,0.059644,0.038128
0.0054923,0.034854,0.13804,-0.020972,-0.042518,-0.0072365,-0.035225,-0.00062499
-0.0019276,-0.038357,0.053265,-0.054086,-0.0029815,0.0019735,-0.036564,-0.0079114
-0.0093827,-0.055669,-0.25343,0.065954,0.027593,0.0031493,-0.0069903,-0.022962
0.0064293,-0.025386,-0.21241,0.058601,0.041553,0.027464,0.022262,0.024413
-0.0014235,0.0051669,0.19962,0.018683,7.1215e-05,0.012314,0.035737,-0.014273
-0.017284,0.0044595,0.20982,-0.005652,-0.018461,-0.026787,-0.083459,-0.029618
0.013641,0.0036982,-0.27432,-0.036552,0.017483,0.011639,0.040026,0.025334
-0.010066,0.081185,0.11606,-0.0025471,-0.032441,-0.036495,0.03932,-0.00558
0.013294,-0.075255,-0.15631,-0.027739,-0.019511,-0.0070603,-0.022875,0.026128
0.0056798,-0.08244,0.12876,0.02122,0.0018649,0.021977,0.0019033,0.018878
0.0061528,0.17712,0.1987,-0.050899,0.02412,0.019593,0.019732,0.0038304
-0.0088144,-0.022968,-0.29805,0.044545,0.016177,0.0016716,-0.024427,-0.04259
0.0074921,-0.026506,0.48151,0.040985,-0.014095,-0.015925,0.017391,-0.0033385
-0.038871,-0.115,-0.56554,-0.047346,-0.004292,-0.017391,-0.081897,-0.019145
0.055044,0.054847,0.16854,0.03567,-0.017167,0.012987,0.075659,0.011508
-0.023377,-0.095689,0.080747,0.15546,0.025015,0.012701,-0.041569,0.018331
-0.00071153,0.26865,-0.10331,-0.23637,0.012404,0.0050876,0.074029,0.017021
-0.025309,-0.040272,0.16306,0.085715,0.014835,0.0056079,-0.046263,-0.0079423
0.012388,-0.03858,-0.096014,-0.027008,0.00066117,-0.009361,0.15255,0.021685
-0.0045721,-0.070212,0.066235,-0.12089,-0.077218,-0.024357,-0.1883,-0.034593
0.017793,-0.088094,-0.082575,0.13346,0.031192,0.0073925,-0.044533,-0.012574
0.009351,0.0021119,-0.40753,-0.027842,-0.0020144,-7.8644e-05,-0.07141,-0.021488
-0.014191,0.0059592,0.3509,-0.0013242,-0.020189,0.0001453,0.20076,0.06381
0.017453,0.088446,0.099792,-0.01185,0.039658,0.015958,-0.039836,-0.037811
-0.013021,0.047217,0.096629,0.12145,0.013936,-0.0072463,0.042972,0.017473
0.0035879,0.031126,0.042979,-0.093136,-0.0032417,-0.0069183,0.011368,0.018735
-0.011022,-0.0067046,0.0536,0.01601,-0.0038696,0.0013073,-0.088623,-0.034086
0.0055139,-0.043199,0.1961,0.073025,0.019871,0.025173,0.046446,0.022948
-0.0093637,-0.055474,-0.70367,-0.087376,-0.064987,-0.013559,-0.053584,-0.036899
-0.00094747,0.034043,-0.13138,0.010096,0.022541,0.017806,0.21936,0.028355
-0.0082175,-0.032851,0.092563,-0.041847,0.0086985,-0.037067,-0.31539,-0.0080708
0.031434,-0.10007,0.28154,-0.048481,0.010362,0.0093106,0.083875,-0.0057706
-0.014717,0.058954,0.17129,0.1464,-0.011796,-0.014863,-0.0046513,0.011615
0.0096096,0.06149,0.23174,-0.027072,0.012351,0.007745,0.052378,0.020478
-0.020637,0.071593,-0.5522,-0.11496,0.0045875,0.0070046,0.013632,-0.010551
0.0037881,0.018777,0.092638,0.00083233,-0.027263,-0.0012954,-0.0027283,-0.026826
0.012385,-0.06604,0.27469,0.047682,0.0028384,-0.0014332,-0.027035,0.010763
0.044021,0.058955,0.19592,0.15105,0.0013141,0.037839,0.019572,0.0086085
-0.042083,-0.098678,-0.44916,-0.095284,0.015251,-0.016394,0.1376,-0.017439
-0.027232,-0.023283,0.08951,-0.051148,-0.0020077,-0.015869,-0.17266,-0.0046017
0.010525,0.012101,-0.40566,0.228,0.020047,0.0079689,0.026453,0.023973
-0.022356,-0.077749,0.15347,-0.37596,-0.019994,-0.015348,-0.093093,-0.0017684
0.03849,0.059602,0.26186,0.13615,-0.012654,4.3013e-05,0.039066,-0.0035026
-0.0097332,0.049944,-0.023141,0.068397,0.0030485,-0.00051242,0.12607,0.0267
0.0051338,0.057811,0.097208,-0.040371,-0.02759,-0.0012628,-0.027458,-0.012687
0.0051351,-0.010549,0.23281,0.044354,0.043792,-0.0020212,-0.062328,-0.04357
0.013724,-0.022815,-0.42196,-0.067609,0.013937,0.020848,0.0054963,0.019902
-0.0083038,0.074847,-0.033412,-0.031874,-0.023586,0.0050035,0.042716,-0.017717
-0.022155,-0.10918,0.10638,0.05068,0.016961,-0.010406,0.0018623,0.046521
0.003078,0.010202,0.033364,0.063473,-0.02086,0.0058692,-0.094267,-0.037607
0.012357,-0.14565,0.36216,0.046005,0.0034374,-0.00093936,0.011537,0.026509
-0.01024,0.14977,-0.45551,-0.063994,-0.035212,-0.023154,0.25629,0.027647
-0.0024114,-0.032846,0.025735,-0.11023,0.035086,0.001564,-0.25875,-0.057892
0.02015,0.018084,-0.36444,0.039997,0.019118,0.010556,0.0367,0.035325
-0.012797,0.02204,0.3532,0.019291,-0.0048428,0.011497,-0.068102,-0.020895
0.00050723,0.0030624,0.10367,0.092985,-0.0053731,0.0042881,0.067913,0.031356
-0.0099539,0.00055592,0.085154,-0.098655,-0.029186,-0.011126,0.039089,-0.057654
