0.05606,-0.018732,-0.37633,0.015017,0.014214,-0.0032266,-0.0076337,0.029373
-0.026288,-0.060342,0.25891,-0.022018,-0.023292,-0.01746,-0.022719,-0.15233
-0.060591,0.011372,-0.083384,-0.012658,-0.0064229,0.0072303,0.025552,0.0072196
0.038501,0.014926,0.072117,0.027343,0.0022107,0.0082302,-0.0036477,-0.031948
-0.010857,0.17573,0.12937,0.0041917,0.0025668,0.016721,-0.0012555,0.080232
0.040797,0.079503,0.21824,0.011683,0.0024809,-0.0063886,0.0011023,-0.0018808
0.13055,-0.42912,-0.43001,-0.020367,0.017654,-0.006406,0.026489,0.59479
-0.15591,-0.020051,-0.013236,-0.0058127,-0.014301,-0.0067301,-0.034771,-0.68599
-0.12327,0.11413,-0.0095503,-0.0068839,0.0083234,0.0083368,0.012476,-0.0012095
0.1427,0.12496,-0.10664,0.015785,-0.00025273,0.0076501,-0.011433,-0.03811
-0.060805,0.0074254,0.29822,-0.0078262,-0.016426,-0.0086589,-0.012533,-0.068863
0.086888,0.01351,-0.0036408,-0.014996,-0.0087912,-0.017011,0.0017266,0.12719
-0.031173,-0.074806,0.10002,0.025622,0.007146,-0.0016564,0.016162,0.15363
-0.086836,-0.062873,-0.26288,-0.026673,0.00019162,0.0062379,-0.015688,-0.05058
0.044668,0.21146,-0.21489,0.023162,0.017186,0.014494,0.0080253,0.0775
0.1754,0.097035,0.11255,0.026246,0.018926,0.023038,0.032694,0.037041
-0.038891,-0.065351,0.38357,-0.0023567,-0.018262,-0.0073464,-0.02778,-0.25207
-0.059512,-0.30163,-0.24698,-0.039791,-0.032185,-0.022171,0.0059063,0.13709
-0.09742,0.066367,0.47606,0.030636,0.023703,0.0017982,0.023846,0.19381
0.066601,-0.047512,-0.38034,-0.041379,0.0006718,-0.021534,-0.0057832,0.01725
-0.16025,-0.095367,-0.053862,0.0019463,0.0078917,0.017129,-0.028778,-0.51894
0.020153,0.30756,-0.29697,0.043693,0.014043,0.016244,0.0092615,0.20244
0.1794,-0.078571,0.40499,-0.024968,-0.035468,-0.016267,-0.040126,-0.067261
-0.080041,0.19373,-0.20499,-0.0079737,0.0080526,0.0057082,0.018623,0.041438
0.10149,-0.092672,0.0475,-0.013851,-0.011247,-0.0035559,0.014107,0.24209
-0.018722,-0.33546,0.10378,0.036344,0.01649,0.010839,0.017234,-0.14272
-0.027821,0.26999,-0.063018,0.0026462,-0.0098089,-0.0056163,-0.02608,-0.27571
0.088164,-0.15994,-0.097167,-0.028608,-0.0037906,-0.0059232,0.033097,0.71052
-0.11774,0.54539,0.13723,0.020772,0.019182,-0.0056546,-0.015863,-0.39582
0.064164,-0.45915,0.047809,-0.013562,0.012296,0.018604,0.006819,0.16173
-0.11659,0.0048179,-0.20212,0.016218,0.0066501,-0.0035534,-0.00053396,-0.11803
-0.08142,-0.1731,0.18139,0.007697,-0.021532,-0.0019621,-0.014751,-0.20404
0.077204,-0.17336,-0.19705,-0.032288,-0.025838,-0.015867,0.010702,0.30347
-0.021736,0.46435,0.41441,0.020306,0.0088446,0.0092299,-0.0026392,-0.37366
0.029849,0.090872,-0.037309,-0.0071873,0.0039134,0.0028451,-0.0081631,0.20653
0.16306,-0.075916,-0.34655,0.056613,0.044934,0.019539,-0.021645,-0.52127
0.011337,-0.27137,-0.071329,-0.061838,-0.024556,-0.011063,0.066261,0.67385
-0.027196,0.73811,0.57689,0.012776,-0.009261,-0.018637,-0.049061,-0.276
-0.12558,-0.75076,-0.59456,-0.070412,-0.018378,-0.0030958,-0.02374,0.011395
-0.082426,0.20826,0.12308,0.00987,-0.012495,0.0044597,0.0095193,0.33664
0.16283,-0.31225,-0.059181,0.051553,0.024473,0.0042109,0.027313,0.14549
-0.039969,0.40213,-0.22631,0.05559,0.030517,0.027586,0.037372,-0.11853
-0.043557,-0.37865,0.32518,-0.016408,-0.025189,-0.019025,-0.030814,-0.41097
0.1126,0.13885,0.14032,-0.03135,-0.0095517,-0.010553,0.0099676,0.29048
-0.063234,0.33314,0.17476,-0.020638,-0.0084327,-0.0016971,-0.020273,0.058087
-0.05421,-0.37205,-0.48711,-0.039504,0.0014566,-0.0081832,-0.020215,-0.49249
-0.030428,0.2338,0.29767,0.09872,0.051013,0.032315,0.041284,0.27478
-0.068035,0.17129,0.41902,0.033695,0.0069293,0.0102,-0.031029,-0.33581
0.15506,-0.22077,-0.57846,-0.11052,-0.0454,-0.035701,-0.02599,0.076621
-0.039643,-0.24555,0.12345,0.032534,0.010733,0.01941,0.025491,0.21066
0.11382,0.27007,-0.31134,-0.037581,-0.020299,-0.019911,0.0066069,0.20116
0.028922,0.25005,0.44837,0.01504,-0.029205,-0.0052535,-0.004181,-0.17947
0.1574,-0.24681,-0.4341,0.081374,0.046671,0.032212,0.063668,0.5871
-0.49481,-0.096404,0.17726,-0.072284,-0.018873,-0.032337,-0.063194,-0.50068
0.070275,0.055132,-0.35952,0.015877,0.016839,0.012283,0.013639,0.13813
0.03056,-0.11504,0.56557,-0.036028,0.0058826,-0.0055341,-0.0028098,-0.050346
0.017521,-0.029208,0.42252,0.046259,0.019027,0.039464,0.027979,-0.15148
0.38978,-0.10892,-0.6009,-0.025761,-0.021527,-0.032213,-0.026853,0.19604
-0.11058,0.0045113,-0.084673,0.0059183,-0.0062408,-0.0016979,-0.042259,-0.4956
-0.21741,-0.082907,-0.51801,-0.0073655,-0.021065,-0.001777,-0.0103,-0.2661
-0.26551,0.63711,0.61433,0.058765,0.011953,-0.0012681,0.030124,0.28478
0.29364,0.043385,0.16026,-0.054416,-0.0012446,-0.0081354,0.032252,0.629
0.063573,-0.16888,0.60585,0.089568,0.017064,0.024278,0.027331,-0.042434
-0.039592,0.22433,-0.32975,-0.041452,0.019558,0.0097748,-0.0082501,0.18724
0.0016674,-0.31106,-0.41928,-0.034015,-0.0019965,-0.0050298,-0.043579,-0.60257
0.13418,-0.19756,-0.2071,-0.028878,-0.0088722,-0.012547,-0.00099112,-0.15435
-0.17233,0.02929,-0.015828,-0.072536,-0.048127,-0.028547,-0.005994,0.35841
-0.050304,-0.29345,-0.22735,0.062387,0.02868,0.032864,0.050323,0.13631
-2.6524e-05,0.35633,0.24791,0.0019435,-0.020454,-0.023563,-0.051134,-0.37814
-0.014648,-0.3075,-0.17091,0.036236,0.00011468,0.0054582,0.017597,0.33592
0.11516,-0.068989,0.56801,0.072302,0.043916,0.034213,-0.0090647,-0.43432
-0.089343,0.29518,0.10095,-0.02229,0.0097933,0.00045663,0.0097682,0.13841
0.080242,0.19284,0.10882,-0.06011,-0.031604,-0.040871,-0.0035775,0.12481
0.3557,0.14419,0.34857,0.052154,0.013707,0.027646,0.021811,0.48759
-0.32769,0.18724,-0.83044,-0.037706,-0.010409,-0.020372,0.00068432,0.026744
-0.15103,-0.27025,-0.21959,-0.033473,-0.010194,-0.0051145,-0.019373,-0.5737
0.072928,0.050709,0.17977,0.00184,-0.0013486,0.018789,-0.022088,-0.55852
-0.32673,-0.21312,-0.45251,0.036709,0.023803,0.0044452,0.0086713,0.085463
0.39421,-0.24461,0.4242,-0.077339,-0.020851,0.014265,-0.012756,0.45657
0.058721,-0.052105,0.21838,0.050451,0.005116,-0.022211,0.038609,0.29187
-0.12732,-0.038488,-0.099413,-0.0094348,-6.6573e-05,-0.011422,-0.017283,0.13033
-0.013219,0.41325,0.11974,0.047787,-0.0053537,-0.00044389,0.014191,-0.062446
0.089963,0.3927,0.55411,0.081435,0.035942,0.018339,0.046143,-0.21426
0.14358,-0.43744,-0.83857,-0.096214,-0.032581,-0.0021241,-0.039697,0.10473
-0.079417,-0.5537,0.51548,-0.0011056,0.015545,0.00052362,-0.041257,-0.19163
-0.21298,0.20009,-0.49755,-0.039809,-0.01502,-0.005078,0.017173,-0.12596
0.15555,0.54113,0.29854,0.060905,0.024214,0.02787,0.025714,0.12503
-0.24082,-0.11283,-0.53541,-0.11305,-0.061955,-0.064742,-0.039147,-0.28449
0.13586,0.0045038,0.26674,0.086922,0.023494,0.021744,0.026091,0.24776
0.073859,-0.062256,0.3795,-0.010726,0.015066,0.013869,0.011251,0.22476
-0.075774,-0.10653,-0.51326,0.024079,0.0144,0.01317,-0.035769,-0.17722
0.022516,0.50709,0.68718,0.012024,0.013677,0.019624,-0.0044774,0.17956
0.21217,-0.17915,-0.5065,-0.015341,-0.010629,-0.021467,-0.065723,-0.14566
-0.038331,-0.58209,-0.043397,-0.0031368,-0.011783,-0.016316,0.15626,-0.26648
-0.18223,-0.022166,0.23541,-0.045014,-0.013354,-0.019496,-0.041243,-0.0009409
0.014963,0.081318,-0.14562,0.070003,0.031473,0.047326,0.060521,0.68315
-0.055703,-0.063902,0.11762,-0.025257,-0.025683,-0.018664,-0.054399,-0.1049
0.075267,0.47722,0.156,-0.018256,-0.0049348,0.0016625,-0.074041,-0.076616
-0.19277,-0.13447,-0.23636,0.01295,-0.0075233,-0.024107,0.016615,-0.61527
0.078569,-0.076176,0.14846,-0.048729,-0.0018039,-0.0096823,-0.009539,0.11524
0.30399,0.37039,-0.46564,0.038984,0.012612,0.013915,0.034579,0.40495
0.13218,-0.38428,0.40383,0.049562,0.043833,0.054544,0.015871,-0.22886
-0.31197,0.16937,-0.11899,-0.063935,-0.033004,-0.020773,-0.026797,-0.15941
-0.028838,0.00048485,0.24726,0.018609,-0.014838,-0.017089,-0.023275,0.13013
-0.14379,-0.14821,-0.30902,0.031237,0.019936,0.018214,0.080942,0.11629
0.030436,0.2333,0.057157,-0.049923,-0.022863,-0.032612,-0.034677,-0.01513
0.040729,-0.16247,-0.043615,0.016835,0.020294,0.017422,0.028074,0.38095
0.12952,-0.34263,0.1472,0.0045012,0.0082366,-0.011748,-0.035674,0.057852
0.40659,0.095329,0.020142,0.061181,0.018622,0.020327,0.024019,-0.42668
-0.4869,0.21273,0.081936,-0.024205,-0.042612,-0.02694,-0.073963,-0.225
-0.034763,-0.3107,-0.028848,-0.087507,-0.011503,0.0029314,-0.0089632,0.22318
0.029227,0.26678,-0.4166,-0.011226,-0.0051112,0.00092751,0.078931,-0.33991
-0.146,0.11461,0.32167,0.041046,0.023758,0.014332,0.018492,0.22074
0.080383,0.09444,-0.21574,0.0073261,0.0052374,-0.0033633,-0.095877,-0.263
0.1925,0.13473,0.31216,0.05211,0.0023058,0.0027809,0.095744,0.74449
0.072268,-0.31572,0.12233,-0.043116,-0.015869,-0.0062056,-0.10162,-0.19029
-0.094297,0.18206,0.0035299,0.034135,0.021313,0.024294,0.077754,-0.18944
0.034674,-0.12092,-0.30046,-0.02108,-0.0032204,-0.015292,0.024305,0.18589
0.035426,0.066437,-0.24685,-0.01385,0.0042309,0.0075893,0.0032824,-0.087843
-0.17159,-0.30614,0.30287,0.047588,0.0044234,-0.0088625,-0.032686,-0.29311
-0.10255,-0.067131,0.25429,-0.048004,-0.034142,-0.017916,-0.029413,0.052634
0.18052,0.2002,-0.29899,-0.0038091,0.036726,0.019492,0.036134,0.66624
-0.070854,-0.35072,-0.34225,0.024164,-0.03316,-0.029295,-0.13318,-0.82885
0.012689,0.57534,0.027715,-0.033879,0.013922,0.0078783,0.1266,0.23039
-0.12116,-0.15634,0.023336,-0.083501,-0.025144,-0.0092752,-0.03612,-0.023751
0.092059,0.09162,0.60303,0.071304,0.013792,0.052375,0.050556,0.08044
0.10656,0.2669,0.30721,0.056049,0.021475,-0.010076,0.011601,0.042832
0.094095,-0.23206,-0.0063433,0.034973,0.0058274,-0.009056,0.011019,0.14433
-0.048173,-0.094836,-0.11385,3.5385e-05,0.0059728,-0.0071528,-0.045004,0.0013879
0.036996,-0.49682,-0.71235,-0.057181,-0.032776,-0.012408,-0.0080196,-0.28548
-0.066888,0.24525,-0.089536,0.010914,0.014525,0.013918,0.02837,-0.076862
-0.025969,0.34594,0.08072,0.00028486,0.0071588,0.008971,-0.083953,0.48558
-0.20081,0.1532,-0.33171,-0.089848,-0.031541,-0.019765,0.046096,-0.21586
-0.091413,0.015992,0.60151,0.052509,0.0077075,0.013394,-0.07316,-0.13402
0.20182,-0.5436,0.052946,0.028762,0.015465,-0.016696,0.074331,-0.11134
0.016837,-0.010022,0.093545,0.01879,0.0073253,-0.00069037,0.082537,0.39356
0.24664,0.16462,-0.19209,-0.00036699,0.0067383,0.014615,-0.040797,-0.41302
-0.18469,-0.15077,0.30086,-0.035853,-0.0096756,-0.0018695,0.055543,0.33971
0.11516,0.27229,0.071958,0.0068205,0.0050669,0.012566,-0.074302,-0.10252
-0.25138,-0.056753,-0.56212,-0.027909,-0.019193,-0.0043503,-0.055927,-0.33841
0.098538,0.55077,0.30692,0.024552,-0.019773,-0.0055309,0.016413,0.14144
-0.031168,-0.3419,0.11803,0.031676,0.011313,-0.029862,-0.01384,0.28228
0.014333,-0.1716,-0.26705,-0.014351,0.019498,0.024334,0.040738,0.23057
0.069079,0.007977,0.015603,0.0033717,-0.003009,0.00084862,0.00058303,-0.41582
-0.11128,-0.43434,0.12191,0.014018,0.013995,0.00901,0.0065678,0.15848
0.1039,0.027082,-0.31261,-0.037743,-0.007852,0.0018137,0.0042927,-0.20821
-0.013852,0.43367,0.076592,-0.027563,-0.0063813,-0.020935,-0.0059779,0.10399
0.21385,-0.1034,-0.071097,0.05964,0.025867,0.018661,0.03847,0.044265
-0.3072,0.15078,0.38378,-0.010839,-0.020772,-0.0046087,-0.026254,0.071327
0.095477,0.32777,0.0090769,0.0031338,0.0019938,0.01848,0.018762,-0.065018
-0.1624,-0.45056,-0.27023,0.008055,-0.0073399,-0.013681,-0.08411,-0.34735
0.12486,-0.13413,0.41339,-0.042432,-0.03288,-0.022888,-0.03779,-0.030069
-0.20377,0.17792,0.0029402,-0.0069857,0.0039358,-0.0089387,0.10324,0.57878
0.38596,-0.019618,-0.35747,0.0058061,0.017687,0.0050163,0.010977,-0.086357
-0.15823,-0.0043254,-0.12637,-0.0033439,0.016663,0.019292,-0.0098808,-0.067932
-0.10065,0.26842,0.1361,0.044176,0.0090039,0.010722,-0.037642,-0.13578
0.13682,-0.42784,-0.02784,-0.0077373,-0.0051961,0.0029152,0.028896,0.017322
0.19346,0.1204,0.26915,0.035984,0.020775,-0.0040941,0.017364,0.15056
-0.23781,-0.16023,-0.29497,-0.051828,-0.038467,-0.010408,-0.0024563,-0.142
-0.011593,0.42393,0.052941,0.02484,0.027492,0.015015,0.00022118,-0.03291
-0.021631,-0.47987,-0.10821,-0.02404,-0.01627,-0.014026,-0.029578,0.054419
-0.075307,0.079563,0.090082,0.011579,-0.0061548,0.0037619,0.0018489,-0.25737
0.083292,0.075054,0.03204,-0.025224,-0.020581,-0.033409,-0.10061,0.33332
0.093881,0.13313,0.28907,-0.0019743,0.010684,0.014924,0.12437,-0.13822
-0.082509,0.30715,0.0024614,0.026672,0.017449,0.015852,0.0053838,0.15195
-0.054275,0.054262,-0.10865,0.022027,0.0078064,0.016204,-0.03529,-0.1363
0.086465,-0.12319,-0.20016,-0.062148,-0.025699,-0.015282,0.0025988,0.24339
0.044872,-0.46551,-0.31042,0.0014839,0.0032266,-0.00047265,0.025323,0.15587
-0.059696,-0.23566,0.17114,0.018388,0.008924,-0.001841,-0.021994,-0.24294
0.040467,0.26593,0.19155,0.051719,0.030615,0.019727,0.11032,-0.20099
-0.15284,0.24092,0.29187,-0.023076,-0.033237,-0.037239,-0.12494,-0.34659
0.12738,-0.16958,-0.057198,0.0051411,0.020413,0.022712,0.021989,0.14689
0.069477,0.075494,-0.28372,0.0035328,-0.0038866,-0.01117,-0.019212,0.24745
-0.18566,0.072781,-0.29295,-0.051523,-0.020328,-0.0058474,-0.1155,-0.14793
0.15068,0.18488,0.35278,0.019398,0.0022745,0.015476,0.18669,0.40244
-0.14113,-0.0069486,-0.17541,0.012909,0.0014529,-0.0016759,-0.02619,-0.030043
0.25002,-0.49987,0.1677,0.0069278,0.0085899,0.013168,-0.058378,0.0053417
-0.27129,0.31793,0.37976,-0.022117,-0.022992,-0.025857,-0.0033668,-0.14528
0.09774,-0.23117,0.020613,-0.011797,0.00065804,0.0062241,0.076321,0.088879
0.097507,0.20595,-0.56053,0.0065896,0.009364,-8.8426e-05,0.00068733,0.13764
-0.12511,0.044394,-0.052638,0.0017223,0.010948,0.0018663,-0.027671,-0.48199
0.022519,-0.15303,0.0051257,0.035974,0.020889,0.011815,-0.024994,0.1793
0.16486,0.066296,0.11415,0.023215,0.015461,0.0060278,0.039424,-0.19933
-0.23705,0.27133,0.48802,-0.021165,-0.036959,-0.0079409,-0.030058,-0.013509
0.028477,-0.39169,-0.43235,-0.011452,0.011697,0.00098283,-0.045968,0.38284
0.056407,0.21497,-0.26857,-0.04154,-0.018528,-0.0063175,0.0076068,-0.20655
-0.10486,-0.13084,0.26321,-0.0098896,-0.026176,-0.02976,0.021818,-0.071687
0.18687,-0.3234,0.0078647,0.044548,0.02791,0.016793,0.02854,0.19137
0.0032334,0.70396,0.058307,0.0048048,-0.004444,0.00079767,-0.018541,0.09357
-0.13138,-0.31773,0.02883,-0.050735,-0.029128,0.00065043,-0.0018884,-0.083498
0.10379,0.061928,0.17263,0.050034,0.047972,0.032177,0.031666,0.21251
-0.056942,0.059996,-0.10961,0.0025653,0.016192,-0.0061076,0.011536,-0.11652
0.026614,-0.27702,-0.081138,-0.0056172,-0.014971,-0.020519,-0.00030427,-0.3494
-0.060314,0.16926,0.23045,0.048848,-0.0065029,-0.003438,0.0033074,0.078904
-0.029481,-0.028069,-0.44234,-0.037286,0.010156,0.029234,-0.11107,0.039135
0.14177,-0.099232,-0.036083,-0.053181,-0.019947,-0.016546,0.0233,-0.057225
-0.070631,0.054557,0.12481,0.040214,0.012299,0.0074208,0.1015,0.36729
-0.10457,0.086996,0.053914,-0.02262,-0.018298,-0.039627,-0.0561,-0.35019
0.20392,0.17467,-0.3046,0.00069917,-0.002439,0.014184,0.003895,0.15234
-0.027733,-0.20245,0.27413,-0.014604,-0.0025801,-0.010709,-0.038413,-0.027803
-0.15052,-0.55073,0.14594,0.009752,0.0048546,0.042167,0.020545,-0.097676
0.078582,0.22272,0.093574,0.026892,0.012231,-0.0066099,-0.014167,0.16501
-0.042554,0.54432,0.0061819,0.044423,0.019708,-0.00052857,0.084259,-0.073007
-0.051986,0.33076,0.19229,-0.0083644,-0.019499,-0.0096908,0.050289,-0.091618
0.22297,0.11484,-0.017516,-0.014793,-0.0038288,-0.018337,-0.10828,-0.062862
-0.16259,-0.89069,-0.63641,-0.045671,0.011939,0.012642,0.014732,0.46469
-0.021275,0.075394,0.0034767,0.031468,-0.0035992,0.020705,-0.088492,-0.37131
0.0055546,-0.27765,0.064383,-0.041273,-0.019368,-0.033328,0.043054,0.081559
0.072857,0.31733,0.046944,-0.0058692,0.011361,0.022247,0.050153,0.11618
0.092991,0.044417,0.12569,0.020974,0.010383,0.0075378,-0.020138,-0.31003
-0.045266,0.12872,0.43726,0.024276,0.0011489,-0.022965,0.035439,0.21455
-0.17171,-0.15727,-0.70978,-0.018737,-0.016231,0.024325,-0.056547,0.087474
0.095331,0.028308,0.24231,-0.021585,-0.018124,-0.022563,0.047498,-0.26857
0.091414,-0.021772,0.091885,0.055103,0.01915,0.00042204,0.011327,0.094159
-0.065738,0.2948,0.22156,0.023859,0.017716,0.023044,0.029846,0.148
-0.17943,-0.22741,0.13747,-0.021795,-0.0065972,-0.024856,-0.13955,-0.36071
0.15857,0.38334,-0.45197,-0.0041316,0.0010184,0.0053592,0.080908,0.11106
-0.15107,-0.1213,0.23201,-0.02517,-0.0062991,-0.0032875,-0.0042717,0.23822
0.12016,-0.4662,-0.35926,-0.069686,-0.020835,-0.01156,0.0033351,-0.1105
0.16891,0.18773,0.031503,0.04955,0.019719,0.027517,0.017962,0.33822
-0.11385,-0.11476,-0.32164,0.0042959,0.021358,0.012385,-0.053834,-0.14391
0.029039,0.18972,0.56709,0.067998,-0.0083777,-0.010175,0.04614,-0.24718
-0.044519,-0.13736,-0.043021,-0.040513,-0.0072309,0.0065469,-0.017682,0.009585
0.015097,-0.074726,0.32544,0.014796,-0.0066165,-0.02359,0.02843,-0.079681
-0.044022,-0.037944,-0.39028,-0.062882,-0.030029,-0.030467,-0.057561,-0.063943
0.15173,0.15042,-0.0588,0.023346,0.031965,0.040457,0.005578,0.34492
-0.22629,-0.05301,0.20826,0.0078247,-0.00015914,-0.0062167,0.077041,-0.071568
0.072446,0.64926,0.13504,0.054552,0.014449,0.0091855,0.0002757,-0.038591
-0.1068,-0.26091,-0.26468,-0.039663,-0.017715,0.016397,0.0014946,0.094493
0.035024,-0.1949,0.078813,-0.0014051,-0.0026796,-0.031362,-0.10711,-0.20088
0.13308,-0.32358,-0.39593,-0.025926,-0.0027899,-0.0011472,0.010187,-0.023531
-0.029389,0.072415,0.12626,0.01976,0.013273,0.0056293,0.033039,-0.058594
-0.013717,-0.060088,0.27419,0.018748,0.0064233,0.0047468,0.00060389,-0.11704
0.047313,0.57136,-0.11205,-0.044226,-1.098e-05,0.0041553,0.045902,0.55933
0.058793,-0.38668,-0.19294,0.010894,-0.0061966,-0.0038549,0.0051323,-0.046011
-0.090803,0.14486,0.42429,-0.0030975,-0.02014,-0.011417,-0.043311,-0.083506
-0.029233,-0.025731,0.067983,0.01549,0.0048437,0.012716,-0.013245,-0.16524
0.021888,-0.26767,-0.10745,0.027494,0.013909,0.005987,0.040855,-0.083135
0.036653,-0.019165,0.11318,-0.0065049,-0.0086842,-0.0082693,-0.013647,0.035391
-0.1038,-0.11663,-0.90756,-0.02459,0.015125,0.0088772,-0.004745,0.055882
0.053039,0.66504,0.70039,0.04282,-0.00061727,-0.013027,-0.0026822,-0.084907
-0.11738,-0.10728,0.057582,-0.070662,-0.024629,-0.0037989,-0.054356,-0.12919
0.15977,-0.36171,-0.17534,0.032738,0.021285,-0.0026062,-0.00367,0.2437
-0.027524,-0.099679,0.07785,0.0088265,-0.011204,0.0061062,0.078752,-0.098752
0.026193,0.39334,0.33265,0.029344,0.018662,0.022305,0.067438,0.28092
-0.0049585,0.032979,-0.49519,-0.046122,-0.013967,-0.0086956,-0.061632,-0.023983
-0.072237,-0.039533,-0.0038507,-0.037337,-0.015187,-0.016544,-0.027806,-0.068802
-0.025928,-0.20606,-0.0011472,0.017444,0.0073318,0.0066407,-0.0034435,-0.18213
0.18926,-0.19064,-0.06758,0.017614,0.01464,-0.0093568,-0.035665,-0.0591
-0.10643,0.48841,0.49763,0.057882,0.014625,0.0137,0.063103,0.059365
0.008295,0.02682,-0.042908,-0.0093634,-0.016128,-0.0022037,-0.027044,0.074169
0.016831,-0.5641,-0.076351,-0.050726,-0.015148,-0.0022896,-0.01636,0.12169
-0.13665,0.049643,-0.42909,0.004374,0.0018594,0.0056797,0.0022361,-0.10632
0.06233,-0.19519,-0.15607,-0.016016,-0.0042999,-0.017363,-0.017315,-0.30089
0.11271,0.37214,0.52942,0.012692,0.0052603,-0.0011721,0.027183,0.20561
-0.12705,0.10018,0.037218,0.019479,0.022514,0.022879,0.09698,0.12616
-0.024915,0.1859,-0.075976,-0.0043877,0.00035434,0.0077517,-0.14394,-0.047154
0.11374,0.096193,0.16757,0.041632,-0.0067553,0.0079608,0.085227,-0.059094
-0.055418,-0.26774,-0.24659,-0.038762,-0.014616,-0.031325,0.0024969,0.05411
0.099975,0.32928,0.19943,0.027065,0.0079328,-0.0086223,-0.033602,0.090319
0.03279,-0.54191,-0.2558,-0.050436,-0.0093972,-0.0020453,0.015214,0.24495
-0.11629,0.097334,-0.21485,-0.021349,0.0038568,0.011944,0.015599,-0.15338
-0.14368,0.15052,0.081863,0.020907,0.0010806,0.01008,-0.048244,-0.32122
0.13904,-0.014098,0.13078,0.014526,0.0060474,0.0081953,-0.074523,-0.026985
0.014415,-0.43865,0.25825,-0.016124,-0.019948,-0.024761,0.10922,0.073745
-0.039469,-0.15475,0.12738,0.047157,0.017165,-0.002692,-0.058741,-0.007053
-0.013261,0.3461,-0.39577,-0.0056355,0.00043027,0.027622,0.094302,0.057955
0.15683,0.16526,-0.047806,-0.0097179,0.015887,0.011519,-0.040358,-0.034993
-0.15334,0.37796,-0.17656,-0.050609,-0.022442,-0.027596,-0.017027,0.012163
-0.006017,-0.18656,0.29742,0.028021,0.0024628,0.003958,0.03151,0.32439
0.043744,0.13285,0.052564,0.038428,0.020024,-0.0032759,-0.035689,-0.4446
0.1044,-0.19351,0.25706,0.0035415,-0.016942,-0.018123,0.015165,-0.074088
-0.11444,-0.1112,-0.15713,-0.030448,-0.0071717,0.014037,0.0036548,0.44207
-0.012699,0.090323,-0.094884,-0.0095994,0.01003,-0.00060936,-0.00063661,0.098917
0.13476,-0.3455,-0.15613,-0.012732,-0.01236,0.0081739,0.0016995,-0.063996
-0.21222,-0.00057667,0.14659,0.029911,0.01155,0.0090383,-0.028746,-0.17227
0.070699,0.13239,0.02178,0.00078942,-0.0041264,0.0018663,0.0095431,-0.15574
0.030305,-0.12376,-0.16301,-0.037728,-0.012392,-0.0056474,0.01526,-0.020587
0.034183,0.46229,0.064007,0.031623,0.01035,0.0020352,-0.042351,-0.051397
-0.088751,-0.087978,-0.34676,0.013777,0.025195,0.0014545,0.032658,0.35327
0.021888,-0.089111,0.4702,-0.02059,-0.0146,-0.022951,0.029995,-0.26457
0.085901,-0.14576,-0.19014,-0.00074913,-0.0073871,-0.016345,0.0048855,0.030032
0.018287,-0.028321,0.31743,0.0034088,-0.0078135,0.0058532,-0.057967,-0.076692
-0.078676,0.084585,-0.23918,-0.0077373,-0.00025533,0.020421,-0.025688,0.023363
-0.024861,0.37187,0.14757,0.044245,0.02307,0.019712,0.085878,0.054329
0.015821,-0.27802,-0.15791,-0.035737,-0.008194,0.011616,-0.020602,0.26173
0.058874,-0.0086649,0.37104,-0.0053726,-0.0081609,-0.011709,0.044881,0.16203
-0.067945,0.02851,-0.22415,-0.0052581,-0.0081273,-0.026945,-0.06989,-0.37913
0.048845,-0.16887,-0.33941,-0.0042103,-0.00032297,0.0047965,-0.0060975,-0.029206
-0.15401,-0.18036,0.099186,0.0054224,0.0074014,-0.0025977,0.024974,-0.15979
0.18198,0.18117,-0.18435,0.007765,0.015009,0.0054197,-0.023606,0.18559
-0.014397,-0.013668,0.37964,0.010308,-0.0087833,-0.002479,0.028095,0.13609
0.0060169,0.27479,0.10468,0.036128,0.014124,-0.0028643,-0.030356,0.056632
0.086365,-0.085901,-0.06934,-0.024493,-0.017834,0.027754,-0.010803,-0.10801
-0.17984,-0.14281,0.032659,-0.031196,-0.010875,-0.027716,0.024933,-0.31767
0.020127,0.22825,-0.32796,-0.015364,0.003826,0.0027204,0.014915,-0.023092
-0.0083324,-0.08337,0.22722,-0.00040859,0.0029456,0.0098101,-0.017084,0.31776
-0.076649,-0.024309,-0.27548,0.029478,0.01787,0.0014758,0.05399,-0.16739
0.03514,0.099771,0.18938,0.0042756,-0.013767,0.0012411,-0.014276,0.18718
0.14061,-0.47703,0.33362,-0.0053616,-0.01374,-0.022089,-0.0035775,-0.0011806
