0.0023992,-0.022254,0.05409,0.024132,0.019244,0.009947,0.047128,0.014577
0.18558,0.064088,0.065822,0.030479,0.025254,0.02852,-0.028593,-0.0027624
-0.11765,-0.12978,-0.16462,-0.026077,-0.023777,4.7183e-05,0.15386,0.072435
0.099615,0.4583,0.19874,0.026408,-0.010421,-0.027881,-0.13926,0.21531
-0.1085,-0.54743,-0.25812,-0.07758,-0.035959,-0.038953,-0.040226,-0.42683
-0.1014,0.16462,0.1212,0.03714,0.024907,0.045521,0.24052,0.12203
0.11384,0.12498,0.055679,0.0036356,0.024011,-0.039729,-0.27323,-0.1222
0.13244,-0.04157,-0.063688,-0.021535,-0.030629,-0.0134,0.075003,0.21658
-0.23883,0.15762,0.091651,0.024437,0.0095094,0.03045,-0.16011,-0.21141
-0.083527,-0.49504,-0.16539,-0.014455,0.011548,0.052079,0.044521,0.11941
0.1943,0.072445,0.095198,0.041598,0.0065172,0.034872,0.29751,0.039275
0.010289,0.010294,-0.0014988,-0.018389,0.017502,-0.077008,-0.011687,0.17489
-0.14292,0.33552,-0.010367,-0.0071441,-0.018426,0.012208,-0.032986,-0.13673
0.17911,-0.037265,-0.049142,-0.042243,-0.031383,-0.0029875,-0.19759,-0.23123
-0.1196,-0.19454,0.068804,0.039876,0.0095232,-0.083861,-0.077079,0.2581
0.18425,0.26841,-0.0091833,-0.011324,-0.020928,0.18395,0.22629,-0.18554
0.21197,0.30259,0.23921,0.061477,0.049086,-0.14392,-0.15464,0.22523
-0.24288,-0.5394,-0.226,0.00011171,0.040008,0.090283,0.30442,-0.29288
-0.018457,0.0067071,-0.084981,-0.062748,-0.055689,-0.11164,-0.37157,0.15636
-0.39653,-0.10617,-0.04074,-0.041045,-0.042288,-0.0057093,0.12401,0.039614
0.077323,-0.15049,0.016819,0.026531,0.025978,-0.067131,-0.081836,0.18326
0.06214,0.21931,0.19043,0.046783,0.024526,0.10311,0.10632,0.0080204
0.077072,-0.088669,-0.22952,-0.089054,-0.069789,0.012361,-0.029318,-0.24426
0.18012,0.33287,0.17999,0.072668,0.071243,0.16687,-0.020028,-0.45589
-0.040505,-0.22746,-0.05697,0.0088104,0.01777,-0.084214,0.15659,0.38222
0.2987,0.43909,0.090825,0.02406,0.0194,0.34222,0.21738,0.26397
-0.14689,-0.20232,-0.041419,0.01655,0.0052744,-0.49389,-0.22281,-0.19172
-0.19176,-0.20273,-0.064328,-0.068933,-0.095492,-0.055217,-0.37722,0.00090587
0.067996,0.34058,0.090951,0.024816,0.044767,-0.060963,0.096137,0.33483
-0.07266,-0.11318,-0.01437,-0.030861,-0.027296,-0.025844,0.087061,-0.33819
-0.30208,-0.26615,-0.01386,0.021539,-0.01474,0.18497,0.025495,-0.073057
-0.018287,-0.55187,-0.21999,-0.03674,0.028105,0.11317,0.2878,-0.010663
0.49898,0.29385,0.15718,0.036811,0.031502,0.058303,0.1263,0.13027
-0.12321,0.036514,0.072432,0.047475,0.043014,0.2882,-0.018407,0.49101
-0.0078489,0.65222,-0.14401,-0.10555,-0.10074,-0.53156,-0.70528,-0.51303
0.19796,0.38864,0.31471,0.10194,0.053904,-0.064367,-0.18866,-0.34078
-0.52115,-1.1034,-0.48709,-0.11845,-0.078649,0.088132,0.37016,-0.075946
0.162,0.22204,0.24858,0.053967,0.040698,-0.090464,-0.035346,0.26779
0.2923,0.18852,0.11563,0.072352,0.067916,0.36722,0.65652,0.23041
0.16394,0.28139,0.027254,-0.016768,-0.028818,-0.16568,0.052034,0.50652
-0.46029,-0.29658,-0.14325,-0.065629,-0.039359,-0.035089,-0.37729,-0.61733
0.096925,0.11068,0.1253,0.096771,0.097919,0.092735,0.042195,-0.082788
-0.10327,-0.28463,-0.16949,-0.1086,-0.10996,-0.018462,-0.1953,0.18314
0.30629,-0.041299,0.15003,0.13002,0.1177,0.091083,0.023192,0.026842
-0.3058,-0.066738,-0.23786,-0.14097,-0.13332,-0.10225,-0.17913,-0.087215
0.094293,0.32045,0.041316,-0.038832,-0.050293,-0.39441,-0.24661,0.018139
-0.13076,0.030522,0.18321,0.085157,0.086147,0.26338,0.44134,0.014526
0.15524,0.14705,0.079449,0.044052,0.050292,0.029913,0.084958,-0.30688
0.072288,-0.58193,-0.28418,-0.052093,-0.063195,0.056215,0.25211,0.12056
0.012727,0.46599,0.11721,0.023933,0.051156,0.039729,-0.63064,-0.11961
0.0081423,-0.36944,-0.098006,-0.0086414,-0.0045801,0.044176,0.4243,0.48628
-0.044076,0.15579,0.10989,0.014469,0.01194,0.23374,0.29325,0.29506
0.057043,0.2913,0.13153,0.0072768,-0.0088567,-0.40028,-0.55563,-0.51738
-0.25379,-0.10584,-0.11176,-0.053945,-0.090898,-0.11736,0.016141,-0.18314
0.17677,0.28887,0.23844,0.088172,0.093262,0.20551,0.14601,-0.15496
-0.083427,-0.52081,-0.38137,-0.12155,-0.066502,-0.19148,-0.21645,0.26885
0.37018,0.43044,0.16879,0.1055,0.10098,0.41659,0.26135,0.28064
-0.44745,-0.54691,-0.11901,-0.035666,-0.061089,-0.19015,0.15489,0.048232
0.073376,-0.10149,-0.033264,-0.037345,-0.021807,-0.11372,-0.2092,-0.10471
-0.16779,-0.22396,-0.05726,0.022419,0.031254,0.099274,0.082998,-0.12766
0.2525,0.82274,0.24,0.026691,0.0045366,0.0044434,-0.14689,-0.19567
0.085799,-0.10678,-0.07784,-0.039789,-0.039033,-0.11553,-0.091604,0.041125
-0.080756,-0.017715,0.060204,0.018699,0.010509,0.0066797,0.064789,0.2467
-0.051261,0.06042,0.044763,0.0072177,-0.0024246,0.0055401,-0.088148,-0.36674
0.23678,0.17529,0.039282,0.035439,0.039986,0.10111,0.023002,0.070086
-0.21703,-0.4464,-0.21507,-0.068319,-0.017994,0.098775,0.43141,0.3484
0.17284,-0.015685,0.054042,0.055418,0.019292,-0.15772,-0.19852,-0.24896
-0.3437,-0.1497,0.0098639,-0.015197,-0.0042563,0.080953,0.061638,0.051981
0.10112,-0.11378,-0.011987,-0.014543,-0.041794,-0.084809,-0.22034,0.31322
0.11795,0.59245,0.082524,0.0105,0.015881,-0.039149,0.23367,0.025682
-0.002292,-0.31227,-0.12768,-0.0025685,0.090375,0.46674,-0.10273,-0.17917
-0.14823,0.22594,-0.063412,-0.077199,-0.20928,-0.71636,-0.34103,-0.3333
0.064606,-0.18541,0.11228,0.075605,0.13217,0.32543,0.50235,0.071674
0.090107,0.37256,0.11873,0.0025453,-0.0028892,-0.1263,-0.42354,0.014351
-0.22077,-0.51795,-0.1613,0.00018156,0.0022656,0.085509,0.062727,-0.10353
0.30948,0.225,0.099467,0.0055544,0.0065385,-0.077275,-0.16934,0.15158
-0.072858,0.043204,0.18857,0.080609,0.064173,0.40179,0.61688,0.080117
-0.17721,-0.49542,-0.38026,-0.1424,-0.10642,-0.22679,-0.2333,0.035936
0.40544,0.7178,0.22705,0.054853,0.010224,-0.11916,0.085282,0.14444
-0.055783,0.059219,0.016927,0.0002789,0.039209,0.13065,-0.13896,-0.072657
-0.040015,-0.33497,-0.058028,0.0064823,-0.019092,-0.20439,0.11588,0.091956
-0.34415,-0.3346,-0.20042,-0.043308,-0.015617,0.078271,-0.26159,-0.40567
-0.098101,-0.066192,0.10693,0.015639,-0.02771,0.017118,0.031354,0.07759
-0.015078,0.3673,0.022533,0.0044364,0.031369,0.20539,0.086863,0.22439
0.14658,-0.075593,-0.02917,0.0019817,0.013846,-0.17768,-0.03356,0.031062
0.050777,0.13188,0.12599,0.016667,0.0060476,-0.085615,0.036864,-0.52002
0.13363,0.11519,-0.033877,-0.01375,0.00017931,-0.050045,-0.1862,0.34441
-0.030661,0.0045206,0.022964,0.043414,0.034934,0.28025,0.43815,0.19628
0.019272,0.12274,0.030219,-0.031096,-0.062258,-0.0012674,-0.20695,0.069899
0.20217,-0.38086,-0.060645,0.027565,0.059278,-0.19168,-0.16026,-0.38222
-0.058374,0.056621,-0.0097196,-0.039319,-0.070119,-0.0097526,0.14097,0.1414
-0.13745,-0.1104,0.032125,0.033041,0.056612,0.060361,0.25173,0.0046677
-0.019713,0.26977,-0.038773,-0.029397,-0.014103,0.050446,-0.42901,-0.28066
-0.11041,-0.36729,-0.090979,-0.039375,-0.063578,-0.0074075,0.12304,0.58513
-0.11691,0.25273,0.078202,0.034519,0.041331,-0.033992,0.057513,-0.28727
0.10035,0.16443,0.070881,0.020941,0.020023,-0.0828,-0.10848,-0.11699
-0.026761,-0.40049,-0.15063,-0.055884,-0.056352,0.034792,0.12659,0.10167
0.10028,0.13422,0.063994,0.039309,0.047435,-0.00068964,-0.095429,0.099515
0.10507,0.1962,0.044933,0.0026489,0.0039741,0.029867,-0.12544,-0.24517
-0.13061,-0.29587,-0.073175,0.014434,0.024653,0.087154,0.20823,0.16436
0.047689,0.44987,0.19535,0.028103,-0.0075861,-0.009375,0.052841,0.32379
-0.03544,-0.22216,-0.055134,-0.0032182,0.0008352,-0.018874,-0.023226,-0.36365
-0.034244,0.2178,-0.035695,-0.017294,-0.0051719,0.0024027,0.17299,0.13225
0.1915,-0.53031,-0.24712,-0.092685,-0.065189,-0.12671,-0.18101,-0.13244
0.068974,0.13862,0.14526,0.059159,0.031197,0.1552,0.1478,0.0022517
-0.061969,0.23558,0.10862,0.01587,0.017918,-0.16013,-0.36411,-0.2706
-0.1667,-0.071783,-0.046151,-0.012039,-0.011584,0.052507,-0.12159,0.14919
-0.077363,0.12742,0.14825,0.029804,-0.0027824,-0.073196,-0.067276,-0.1699
0.015624,-0.027842,-0.059206,0.016197,0.044304,0.096879,0.33339,0.17474
0.10307,-0.31087,-0.20802,-0.05294,-0.026479,0.14237,0.18518,0.45787
-0.21331,-0.063491,-0.0010458,-0.013513,-0.0040039,-0.036837,0.13098,0.060393
0.25534,0.33487,0.10956,0.040859,0.0026117,-0.12704,-0.24241,0.00088223
-0.012466,-0.22088,-0.077846,-0.038055,-0.021961,-0.041497,-0.13103,-0.21957
-0.0069629,0.31279,0.18841,0.085924,0.04758,0.079469,0.33797,-0.11588
-0.10182,-0.16959,-0.10574,-0.079153,-0.069754,-0.076867,-0.51813,-0.4831
0.10957,-0.01687,-0.0060668,0.013791,0.024649,0.074661,0.18003,0.057884
-0.045438,-0.017012,-0.035596,-0.017934,0.010517,-0.084419,-0.10986,0.17016
0.10329,-0.037834,0.024058,0.028828,0.012724,0.25671,0.45327,0.59755
0.014368,-0.019106,-0.02351,-0.025687,-0.00026907,-0.19291,-0.21049,-0.35178
0.0057055,-0.01903,0.031019,0.021481,0.010188,0.033684,-0.0080355,0.060976
-0.24492,0.6926,0.37333,0.076368,0.028016,0.044446,-0.10292,-0.26141
-0.05876,-0.51328,-0.36536,-0.056537,-0.033116,-0.036333,-0.048178,0.028294
0.16601,-0.1477,-0.045415,-0.010156,-0.025002,-0.067858,0.24473,0.16651
0.0012534,-0.23583,-0.20603,-0.089133,-0.049205,-0.064667,-0.32259,0.1068
-0.019191,-0.16042,0.10677,0.058306,0.042959,0.014149,0.16718,0.059059
0.22521,0.82249,0.31643,0.049707,0.033182,0.084938,-0.064339,-0.19753
-0.043115,-0.31525,-0.1844,-0.036391,-0.0076785,0.079693,0.23479,0.17058
-0.21119,-0.046398,-0.010954,-0.012116,-0.008787,-0.0074964,-0.15345,-0.22141
-0.072788,0.13287,0.017961,0.021185,0.0068081,-0.1364,-0.10465,-0.32763
-0.024095,-0.2195,0.020265,-0.006817,-0.023222,-0.056763,0.098117,0.52414
0.22495,0.13307,0.042679,0.028599,0.041664,0.35576,0.16318,-0.13317
-0.091788,-0.082066,0.021722,0.0097372,-0.0019869,-0.15022,0.064205,0.046818
0.086076,-0.068817,-0.036388,-0.017186,-0.029685,-0.076495,-0.052967,-0.065643
-0.049736,-0.056134,-0.13354,-0.037226,-0.010784,-0.13586,-0.51039,-0.21776
0.13676,0.20217,0.072201,0.02717,0.046322,0.15455,0.1679,0.0064161
-0.14852,0.068482,-0.04564,-0.035287,-0.030704,0.020338,0.13871,0.38081
0.12107,0.13918,0.066742,0.025348,7.565e-05,-0.12467,-0.11999,0.13087
0.020299,0.1752,0.15134,0.029641,0.0058576,0.1184,0.18264,-0.22248
-0.28827,-0.71742,-0.15072,-0.029692,-0.020897,-0.062013,0.15758,0.13762
0.11793,0.12409,-0.049285,0.012125,0.037497,0.022815,0.048078,-0.13621
-0.094294,0.052426,-0.081905,-0.055058,-0.037067,0.03815,-0.13772,-0.21111
0.094932,0.23502,0.21402,0.058545,-0.0017299,-0.093201,-0.3064,-0.11254
-0.30951,-0.33875,-0.17564,-0.029347,0.011281,0.019837,0.0021555,0.010364
0.39218,0.11019,0.10955,0.040877,0.025789,0.174,0.29473,0.14232
0.078147,0.024497,-0.078498,-0.051206,-0.044038,-0.20954,-0.070367,0.21404
0.054305,-0.060881,0.033257,0.022079,0.043795,0.21181,0.085666,0.06259
0.069795,0.53539,0.23278,0.080344,0.023202,-0.19613,0.027842,0.087339
-0.24516,0.094041,-0.028342,-0.03348,-0.012701,0.073112,-0.27533,-0.23461
-0.081659,-0.54336,-0.23607,-0.038902,-0.041152,-0.083033,0.012223,-0.11392
0.06437,0.088894,-0.0088434,-0.022393,0.015399,0.1396,0.14101,-0.0034482
0.025816,-0.12147,-0.026948,-0.015397,-0.0074702,-0.024522,0.080531,0.1051
-0.16787,-0.1295,-0.032386,-0.017734,-0.039525,-0.16846,-0.15273,-0.14679
0.076744,0.087692,0.1398,0.041408,0.036629,0.10742,0.035818,0.070202
0.073194,0.093455,0.0065943,0.022089,0.010481,0.0076922,0.24852,0.29655
0.042235,0.030173,0.014777,0.010959,0.0075774,0.049527,-0.27179,-0.33355
-0.091825,0.20455,0.07187,0.0085998,-0.0027816,-0.054796,0.0067403,0.071634
-0.014154,-0.28031,-0.14944,-0.031516,0.0032861,0.078517,0.076825,0.036196
0.15987,0.037069,-0.016087,5.1335e-05,-0.020829,-0.081286,-0.084484,-0.033562
-0.014004,0.17933,0.12783,0.017164,0.018675,0.0048578,0.007562,0.072731
0.0036291,-0.31655,-0.1482,-0.035269,-0.018987,-0.015072,-0.014059,-0.013232
0.056323,0.25736,0.068749,0.014117,0.0064857,-0.0012547,-0.055762,-0.10546
-0.11416,0.19465,0.043073,0.00074287,0.024355,0.17811,0.31158,0.083461
-0.10193,0.054971,0.14088,0.049183,0.0029355,-0.22803,-0.15516,0.10669
-0.1728,-0.36638,-0.18539,-0.043943,-0.026882,0.052798,0.027212,-0.115
0.056032,-0.037963,-0.029618,0.002579,0.020633,0.10578,0.08408,0.081923
0.2876,-0.23112,-0.031965,-0.021999,-0.042035,-0.1789,-0.25893,-0.23984
0.013648,0.010922,-0.01175,-0.00011363,0.01185,0.08919,-0.096081,0.022123
-0.14968,0.19249,0.016675,-0.017227,-0.036151,-0.066416,-0.03673,0.048781
0.26469,0.090963,0.093595,0.044314,0.079948,0.29202,0.61485,0.099391
-0.22971,0.19324,-0.014521,-0.0026505,-0.045795,-0.30393,-0.45322,0.14398
0.044667,0.17942,0.044114,-0.0017462,0.0086607,-0.017995,0.033109,-0.043151
0.0080135,-0.12413,0.081524,0.054715,0.079228,0.21259,0.168,-0.14134
-0.19203,-0.30685,-0.16899,-0.075805,-0.092113,-0.15104,-0.27506,0.036739
0.12464,0.025376,0.025524,0.028077,0.025554,0.06313,0.19582,-0.13446
0.045584,-0.03778,-0.047308,-0.024785,-0.013454,-0.0041609,-0.044947,0.18016
-0.02807,0.3133,0.13483,0.038618,0.017125,-0.0090384,0.017471,-0.13758
0.008536,-0.3287,-0.077079,-0.0085167,0.015584,0.1112,0.17136,0.090877
-0.13812,-0.056628,-0.018851,-0.033378,-0.033645,-0.22128,-0.34165,-0.21375
0.026955,-0.12568,-0.11943,-0.035733,-0.044362,-0.0060675,0.079796,0.30675
0.2555,0.31154,0.075535,0.023883,0.022908,0.12444,0.20165,0.12009
-0.14747,-0.030213,0.083084,0.02876,0.028012,-0.016901,-0.18618,-0.0010123
0.18403,0.42256,0.10766,0.057457,0.041692,0.031063,-0.027742,-0.35361
-0.27596,-0.4298,-0.15444,-0.045972,-0.0060727,0.08862,0.22539,-0.077794
0.1332,-0.094736,0.04722,0.0076599,-0.037059,-0.10229,-0.2221,0.14022
-0.014111,0.12972,-0.037434,-0.016072,-0.012303,-0.12021,-0.0016576,-0.0023595
-0.072902,-0.047862,-0.041782,-0.047037,-0.010195,0.081211,0.059491,0.10607
0.032353,0.12726,0.072346,0.039514,0.039209,0.032727,0.11008,0.037964
0.089354,-0.043531,0.085173,0.048023,0.033953,0.046412,0.095047,0.068456
-0.050289,-0.10226,-0.12146,-0.037326,-0.049745,-0.081146,-0.38501,-0.23115
-0.25237,-0.19962,-0.04046,-0.021313,-0.016804,0.048372,0.2857,0.053349
0.27462,0.49126,0.12467,0.025766,0.015501,0.075642,0.0040181,-0.031828
-0.099066,-0.27197,-0.13387,-0.044411,-0.023082,-0.18665,-0.044107,0.13696
0.10626,0.050667,0.082733,0.057387,0.03949,0.019564,-0.15686,-0.0045837
-0.059854,-0.12495,-0.10773,-0.051486,-0.023128,0.014793,0.0085366,-0.083453
0.084099,-0.0072885,0.053195,0.0040696,-0.02325,0.010009,-0.032894,-0.062427
-0.17209,0.086183,0.058277,0.028728,0.039229,0.067487,0.17949,0.30708
0.038376,0.19744,0.071947,0.022346,0.039299,0.19454,0.20033,-0.32727
0.20636,0.26671,0.1725,0.047177,0.0081056,-0.21887,-0.12643,0.11264
-0.099733,-0.71145,-0.32756,-0.06112,-0.054497,0.02971,-0.13626,-0.23972
0.03988,0.12414,-0.076688,-0.037145,-0.015809,-0.11484,-0.054883,0.28872
-0.11095,0.024518,0.011018,-0.013803,-0.00084519,0.058411,-0.0060368,-0.058466
-0.15492,-0.14303,0.044924,-0.0066381,-0.025115,-0.020345,0.058771,-0.014392
0.15774,0.40946,0.16557,0.062718,0.044426,0.056116,0.024159,0.01557
0.12447,0.10934,0.0524,0.014921,0.020564,0.015636,-0.014408,0.07081
-0.32383,-0.21869,-0.15444,-0.063738,-0.041751,-0.077927,-0.063431,0.049554
0.27527,0.1166,0.013135,0.030143,0.029515,0.10473,0.14336,-0.17381
-0.10816,-0.24821,0.070036,0.015443,0.0078024,-0.052818,0.06671,0.15773
0.065803,0.16012,-0.031212,0.001489,-0.0054946,0.019971,-0.12252,-0.30032
0.11763,0.12096,0.02941,0.0036857,-0.010688,-0.075729,-0.019788,0.092147
-0.0079158,-0.39706,-0.16204,-0.025189,-0.00036434,0.081013,-0.080367,0.10832
-0.28071,-0.079777,-0.034692,-0.007418,0.0016279,-0.034596,0.021616,0.084153
0.251,0.17746,0.076358,-0.0059001,-0.0050601,0.23995,0.26849,-0.089514
-0.14851,0.15192,0.1252,0.018106,-0.020656,-0.37026,-0.26315,0.040745
-0.034918,0.12863,0.0033066,0.017527,0.025082,0.078886,0.050862,-0.001298
0.13819,0.1809,0.070606,0.01576,0.038494,0.094548,0.10901,0.097177
-0.035332,-0.55674,-0.21959,-0.057386,-0.058315,-0.034282,-0.19718,-0.53076
0.015482,0.05655,0.062228,0.017115,0.00061469,0.044478,0.15732,0.43535
-0.11463,0.089875,-0.014041,-0.0025309,-0.0030898,-0.05881,-0.11445,-0.0045453
0.044177,0.11904,0.066677,0.016951,0.032498,-0.077256,-0.049395,0.039913
-0.053996,0.29732,0.046014,-0.0021057,-0.0017002,0.060753,0.018385,-0.14269
0.091453,-0.3236,-0.16243,-0.020251,-0.011745,0.004772,0.082241,0.15801
0.16814,-0.15244,0.026955,0.0096453,0.018065,0.14619,0.15023,0.027512
0.058495,0.08283,0.051514,0.0095396,-0.0060455,-0.045924,0.0029005,-0.010835
-0.44915,-0.071032,0.036227,0.018397,0.0017704,0.0065043,-0.025227,-0.26909
0.15994,0.17623,0.0515,-0.003097,-0.028913,-0.14217,-0.17812,0.04286
0.15061,-0.25136,-0.089991,-0.016236,0.0033653,0.038885,0.081617,0.035864
-0.047936,0.2426,-0.020828,-0.021407,0.0047784,-0.036676,-0.18472,-0.0072047
-0.10767,0.0043263,0.017065,0.020107,-0.0012901,-0.017587,0.030165,0.047796
0.026372,-0.050346,-0.007301,-0.0013227,0.016356,0.080314,0.085844,0.16245
-0.028021,-0.061352,0.023468,0.015741,0.010762,0.10059,0.10802,-0.015114
0.058011,0.1192,-0.054595,-0.038077,-0.018195,-0.0038651,0.08987,-0.017395
0.011768,-0.2447,-0.0071746,-0.0064273,-0.015998,-0.22554,-0.29572,-0.11985
0.18543,0.39148,0.14207,0.032722,0.03278,0.15394,0.31934,0.09702
-0.10022,0.095572,0.04904,0.024848,0.0029393,-0.053312,-0.18922,-0.10346
-0.12609,-0.29061,-0.14599,-0.022099,-0.03536,0.0039155,-0.023919,-0.074649
-0.079424,-0.1507,-0.044841,-0.0064721,0.011563,0.11447,-0.012322,0.049566
0.055637,-0.10905,0.039974,0.0014532,0.018757,-0.034154,0.12739,-0.043537
-0.0098131,0.14118,-0.016287,0.0016807,0.0020295,-0.10578,-0.1042,0.021607
0.20079,0.24386,0.0447,0.0020173,-0.014885,0.11886,0.051265,0.29309
-0.078444,-0.34416,-0.073287,-0.020972,-0.0238,-0.22671,-0.17147,-0.00080654
-0.035628,0.2711,0.060066,0.010858,0.0069184,0.17081,0.18854,-0.10016
-0.0076852,0.13095,0.085812,0.01941,-0.016176,-0.094133,-0.041112,-0.16667
-0.23812,-0.34216,-0.14439,-0.049982,0.016431,-0.0055623,-0.20534,-0.30727
0.30279,0.014452,0.064468,0.044857,0.042158,0.26455,0.35809,0.40218
0.14472,0.16636,-0.046095,-0.01644,-0.0018185,-0.11252,-0.064054,-0.27106
-0.15905,0.33555,0.22612,0.070704,0.063679,0.010683,0.11171,0.29086
-0.22669,-0.39723,-0.15117,-0.061047,-0.097885,-0.07793,-0.14018,0.13413
0.19145,-0.029134,-0.15541,-0.044674,-0.041756,-0.066872,-0.14924,-0.032337
-0.029166,0.11569,0.072135,0.03373,0.036364,0.058851,-0.025089,-0.19607
-0.020039,-0.19135,-0.0078131,-0.029083,-0.027729,-0.068039,-0.055834,0.07674
0.11155,-0.036021,0.097122,0.063687,0.062969,0.052912,0.13552,-0.02209
0.032325,0.2559,0.074997,0.030773,0.02758,0.071021,0.16876,0.075166
-0.16104,-0.022429,-0.065549,-0.034028,-0.039612,-0.067307,-0.24252,-0.11696
-0.16108,-0.29549,-0.19855,-0.075909,-0.044244,-0.0016349,0.0053828,-0.12126
0.018785,0.19997,0.13008,0.045944,0.02989,0.057925,0.085607,-0.12292
0.20007,0.23441,0.046186,-0.011973,-0.035502,-0.020997,0.31085,0.34251
0.17178,-0.25119,-0.074682,-0.007209,0.033275,0.019428,-0.0071474,-0.017848
-0.13779,-0.10671,0.07238,0.044858,0.056549,-0.0086725,-0.45568,-0.04405
0.21419,0.19091,0.0028339,0.011607,-0.020582,-0.066884,0.096526,0.063448
-0.21288,0.10821,0.091214,0.0025359,0.012435,0.078386,-0.047133,-0.092679
-0.093918,-0.14754,-0.077182,-0.005728,-0.03235,-0.10488,-0.051522,-0.052173
-0.087642,0.052035,-0.14362,-0.052218,-0.038147,0.070179,0.2706,0.088802
0.10136,0.27285,0.11015,-0.0041083,0.0025975,0.032811,-0.018112,0.045185
-0.1679,-0.63718,-0.11303,-0.017657,-0.0039419,-0.053127,-0.24543,-0.14861
0.073828,0.13211,0.085238,0.032078,0.020446,-0.031355,0.20618,0.19795
0.31971,0.28309,0.11127,0.051201,0.029068,0.098364,0.16506,0.18228
-0.20268,-0.33974,-0.12078,-0.023064,-0.0013268,0.039563,-0.079653,-0.46407
0.14018,0.33584,0.01413,-0.019244,-0.03156,-0.15253,-0.1686,0.070367
-0.19835,-0.17979,-0.0075614,0.023112,0.032114,0.038318,-0.21117,0.028724
0.14877,0.12387,0.087365,0.0097699,-0.0057424,0.042411,0.1989,-0.13312
0.1344,0.41331,0.13459,0.026289,0.034346,-0.077222,0.022604,0.20606
-0.23373,-0.64554,-0.30357,-0.099378,-0.074414,0.078218,0.12711,0.074345
-0.16618,0.042323,-0.0083692,0.0078652,0.0037291,0.0088403,-0.042412,0.046529
0.11143,0.063452,0.043833,0.0046312,0.018696,-0.051157,-0.10345,-0.18622
-0.16512,-0.011823,0.040943,0.016487,0.0095995,0.085277,0.14678,-0.058966
0.33392,0.3316,0.17878,0.067527,0.023491,-0.051256,0.012704,0.33557
0.039674,-0.25881,-0.15936,-0.06038,-0.04873,-0.11773,-0.27126,-0.18256
-0.10943,-0.19062,-0.043422,0.00041779,0.0041916,0.20551,0.32665,-0.099059
0.066545,0.3785,0.058054,0.0079676,0.0028845,-0.1054,-0.38009,0.021676
-0.081298,0.040974,0.043524,0.048195,0.056983,0.13694,0.22708,0.19317
-0.10085,-0.22764,-0.032443,-0.027567,-0.013031,-0.16876,0.0012647,-0.18801
0.10031,0.033091,-0.013814,-0.024388,-0.035221,-0.060908,-0.1109,0.0016757
0.012983,-0.4502,-0.080533,-0.028654,-0.025257,0.00822,0.086688,-0.16053
-0.043722,0.54954,0.1187,0.021698,0.024523,0.03947,-0.0075611,0.15306
0.10899,-0.17014,-0.072633,0.00129,-0.0033088,0.095922,0.10539,0.090764
-0.1622,0.20383,-0.0063678,0.019214,0.0081189,0.0057949,-0.04499,-0.04278
-0.052798,-0.11742,0.051568,0.012781,0.034993,0.0029676,0.1171,0.29922
0.093516,-0.04047,0.038345,-0.018108,-0.032461,-0.030773,-0.12164,-0.35216
0.12844,0.13703,-0.0073028,-0.010968,0.00069278,0.028235,-0.083481,-0.043992
0.036456,-0.24224,-0.070023,-0.0048022,0.0013469,-0.016653,-0.050741,-0.002918
-0.073095,0.2347,0.092223,0.047394,0.016215,0.021091,0.031266,0.14618
-0.16913,-0.2689,-0.17678,-0.049497,-0.032815,-0.14013,-0.031714,-0.080688
-0.1191,0.027852,0.037276,-0.0061679,0.0028887,0.023555,0.059054,-0.057896
0.31887,0.3908,0.10981,0.029225,-0.0091302,-0.0023657,0.1105,0.19973
0.003891,-0.24957,-0.005522,-0.013335,0.0097143,0.018087,-0.023663,0.029019
0.084301,-0.040406,0.12938,0.053936,0.044291,0.08664,-0.021425,-0.10043
-0.19755,-0.2614,-0.26618,-0.065589,-0.037767,-0.021794,0.047846,-0.18009
-0.0911,0.19061,0.02702,-0.012349,-0.0095608,-0.017237,-0.24542,-0.014235
0.092116,0.15289,0.0093055,0.0028217,0.011901,0.061439,0.20748,0.037737
-0.029363,0.19663,0.10268,0.034607,0.026635,-0.0050557,0.022495,0.15488
