0.03933,0.080329,-0.12737,-0.068379,-0.034205,-0.04304,-0.040131,0.10271
0.1523,-0.020621,-0.030243,0.071022,0.068092,0.052718,0.098827,0.096981
-0.062654,-0.23538,0.036495,0.030875,-0.0083861,-0.0066341,0.082853,-0.033525
-0.026746,0.021483,-0.045336,-0.047742,-0.0059504,0.0051724,-0.11207,0.016055
-0.020881,-0.0087675,0.098492,0.01538,0.028278,0.048602,0.27074,0.058108
0.25179,0.39134,0.014423,-0.037126,-0.023222,-0.0097487,-0.153,0.1157
-0.029313,-0.15469,-0.1882,-0.017521,0.0032493,0.040462,0.16998,0.0086528
-0.20833,-0.085889,0.39718,0.050679,-0.041069,-0.13717,-0.5191,-0.30248
-0.1293,-0.020762,-0.44761,0.12797,0.015471,0.019624,0.076454,-0.075633
-0.1127,-0.13986,-0.065659,-0.091118,0.032146,0.042177,0.22296,0.0018803
0.19302,-0.021563,0.16859,-0.084131,-0.0066269,-0.030086,-0.08595,0.13359
0.17062,0.33457,0.044515,0.13226,0.00087298,0.037773,0.1438,0.14804
0.038668,-0.10165,0.2887,-0.23971,-0.077934,-0.034874,-0.093728,-0.017046
0.15617,-0.078659,0.23695,0.15092,0.07752,0.057197,0.085815,0.27108
-0.22733,0.10071,-0.42325,0.061762,-0.0012923,-0.03725,-0.082306,-0.39415
-0.27623,-0.2491,-0.43372,0.00088091,0.029528,-0.0056601,0.0036331,-0.091245
0.1579,0.092439,0.26899,0.086136,0.037221,0.073623,0.030616,0.077995
0.036365,0.11882,-0.18873,-0.2596,-0.15014,-0.034195,0.060129,0.019844
0.023986,-0.052126,-0.078911,0.019549,0.037615,-0.0014982,0.012775,0.10961
-0.034628,-0.045662,0.58364,-0.0049986,0.0064955,-0.063139,-0.19867,-0.1366
-0.0059836,0.19174,0.30638,0.15195,0.029615,-0.016335,-0.044074,0.039479
-0.11643,-0.32628,-0.45157,-0.001545,0.036266,0.021571,0.006949,-0.049405
0.078931,0.12436,-0.31849,-0.37213,-0.091169,-0.0040785,0.086618,0.057597
0.25881,0.29105,0.1545,0.63293,0.13131,0.11001,0.24146,0.1257
0.21882,-0.062761,-0.32617,0.066944,0.031614,-0.026512,0.041671,0.21683
0.028252,0.053876,1.1887,-0.58697,-0.1714,-0.046149,-0.012534,-0.12259
-0.571,-0.55429,-0.75673,0.56894,0.1087,0.012394,-0.45178,-0.35354
-0.21872,0.083005,0.040295,-0.41032,-0.03337,-0.014566,0.03752,-0.12389
-0.31141,0.17946,-0.066759,-0.39833,-0.15883,-0.071956,0.058456,-0.0028594
0.54416,0.17604,-0.36262,0.075935,0.093155,0.074953,0.12835,0.175
0.3192,-0.20501,-0.013008,0.31972,0.0051067,-0.026707,0.1706,0.30929
0.24959,0.21087,0.7624,0.16325,0.046593,0.021591,-0.094992,0.04116
-0.28193,-0.34062,-0.85823,0.10751,0.061462,0.055656,-0.050997,-0.19227
-0.32397,0.60889,0.64504,0.18333,0.080251,-0.042043,-0.13552,-0.15009
0.1517,-0.43483,-0.24981,-0.31409,-0.054713,0.040478,0.06414,0.10331
0.32899,-0.021977,0.072489,0.10501,-0.056232,-0.041118,0.257,0.22998
-0.18602,0.43719,0.904,-0.42113,-0.13719,-0.045196,-0.10591,-0.24048
-0.55178,-0.86598,-1.0198,-0.13651,0.021041,-0.0034191,-0.14366,-0.22301
0.27009,0.72158,0.33326,0.028379,-0.035774,-0.07226,-0.10758,0.063721
0.28831,-0.052044,-0.152,0.44082,0.25443,0.22483,0.26744,0.39418
0.020691,-0.34345,-0.70525,0.21876,0.0090952,-0.049489,-0.16668,-0.26903
-0.51436,-0.096743,0.14229,-0.074346,-0.17714,-0.043347,0.0052813,-0.09589
0.17017,0.44059,0.7218,-0.062673,-0.021707,-0.1001,-0.0040226,0.087159
0.0057758,-0.11095,-0.070873,-0.6208,-0.038657,0.03848,0.088555,0.015543
0.70396,-0.10723,0.043927,0.11834,0.10169,0.060309,-0.019941,0.27541
-0.13444,-0.037326,-0.20911,0.61494,0.049083,-0.034305,-0.04701,-0.2042
-0.19071,0.26506,0.25277,-0.60109,-0.11755,0.028241,0.062607,0.04417
-0.34166,-0.28503,-0.69287,0.58563,0.17232,0.091685,0.11344,-0.090407
-0.19798,0.11673,0.53228,-0.13156,-0.19893,-0.15665,-0.14532,-0.07028
0.16194,-0.15632,-0.050489,0.31603,0.19744,0.017294,-0.058668,0.072395
0.17646,0.18229,-0.062489,-0.41609,-0.0070228,0.050644,0.028178,-0.037598
0.073826,0.2623,0.19405,-0.48355,-0.19644,-0.056995,-0.073708,-0.063858
-0.1831,-0.044223,0.27599,0.20167,0.11247,0.076834,0.19698,0.096121
0.094698,-0.40351,-0.36838,-0.16965,-0.11223,-0.048142,-0.08246,0.06846
0.024984,-0.019622,-0.25777,0.39849,0.051163,0.036669,-0.0061253,-0.028669
0.044653,-0.0091971,0.021186,0.42522,0.13424,-0.012496,0.082399,-0.061863
0.16767,0.012446,-0.0062728,-0.12612,-0.04977,-0.000178,-0.050575,0.054901
0.14959,0.35277,-0.015981,-0.41086,-0.038965,-0.019816,-0.075785,0.09467
-0.37897,-0.23518,0.47359,0.062541,-0.066692,-0.031908,-0.030857,-0.029194
-0.33353,0.05598,-0.56391,0.19059,0.032016,0.018746,-0.1096,-0.14559
0.12164,0.024959,0.35178,-0.10751,0.085908,0.031081,0.18925,-0.036381
0.17515,0.33653,0.15198,-0.42841,-0.15479,-0.057009,0.10866,0.055975
0.14171,-0.54878,-0.25005,0.63932,0.24721,0.16094,-0.030964,0.030043
0.024086,-0.11669,0.2832,-0.20323,-0.10716,-0.12755,-0.081813,0.081608
-0.25319,0.46677,-0.37799,-0.26203,-0.16412,-0.055505,0.0018058,-0.093334
0.16338,-0.12871,0.17504,0.43126,0.24717,0.14238,0.030932,-0.0096938
0.016721,0.032323,-0.031359,-0.083965,-0.061741,-0.073347,0.027608,0.02842
-0.12346,-0.12989,0.21033,-0.39262,-0.20871,-0.046815,-0.18886,-0.01774
0.11594,-0.053786,-0.17138,0.28805,0.17315,0.096705,0.13113,0.12525
0.1071,0.30736,-0.26887,0.2255,0.021482,-0.041362,0.019116,-0.074201
-0.1298,-0.2177,-0.28946,-0.43779,-0.085074,-0.062569,-0.10216,-0.10104
0.16791,-0.018348,0.68611,0.24523,-0.044162,0.0019521,0.073254,0.036209
-0.12692,-0.24145,-0.43022,-0.075658,0.12952,0.089872,-0.031454,0.079036
-0.30422,0.23953,0.22597,-0.22775,-0.024081,-0.048654,0.022317,-0.059063
0.10527,0.1757,0.54097,0.6017,0.10518,0.10208,0.078934,0.090318
-0.053022,0.004999,-0.39788,-0.20488,-0.099338,-0.098567,-0.049088,-0.12132
0.14512,0.0083319,0.025986,-0.39055,-0.12173,-0.033516,-0.01076,0.024988
0.2177,-0.40907,-0.30685,0.40287,-0.01668,0.00018496,0.11479,0.014074
0.049416,0.41547,0.061457,-0.32596,0.11398,0.088274,-0.087721,-0.0050326
-0.17122,-0.12883,-0.1536,0.046618,-0.003774,-0.07413,-0.16629,-0.031728
-0.03785,-0.097718,0.34206,0.38658,0.11356,0.059685,0.12825,0.082907
-0.074523,0.18027,0.038681,-0.26025,-0.081958,-0.033822,-0.063909,-0.051487
-0.11034,-0.29454,0.0056,-0.082175,-0.05243,-0.018747,0.046286,0.010395
0.33031,0.22885,-0.038446,-0.017291,0.03706,0.042462,0.18572,0.11206
0.059331,-0.005876,-0.35053,-0.026861,-0.032947,-0.037563,-0.2623,-0.15315
-0.22802,-0.18463,0.015795,0.30314,0.049821,0.014812,0.05431,0.081515
-0.054632,0.13142,0.42886,0.21518,-0.026811,-0.011113,0.096928,-0.067091
-0.32581,0.013356,-0.48566,-0.71975,-0.074495,-0.0057293,-0.11074,-0.005377
0.16262,-0.015437,0.36587,0.31193,0.064256,0.02335,0.13452,-0.045786
0.45833,0.18485,0.27156,0.10075,-0.038839,0.0059479,0.035859,0.10098
0.04586,0.058116,-0.067068,-0.39067,0.015974,0.020249,-0.10205,0.028994
0.010632,-0.1785,-0.17523,0.40183,0.11249,0.003745,-0.060338,-0.027026
-0.28905,-0.2061,-0.30428,-0.012576,-0.092574,-0.098313,-0.041865,-0.02776
-0.16697,-0.017735,0.03754,-0.086241,0.072555,0.057731,0.016293,-0.012125
0.094587,0.12863,0.077536,-0.16288,-0.1037,-0.051677,0.091172,0.019896
0.096624,-0.00090145,-0.057532,0.32713,0.057337,0.081132,0.034718,0.0057113
-0.1686,0.039903,0.0018858,-0.047152,0.015422,0.018494,-0.027913,-0.039227
0.11977,0.072374,0.38316,-0.060654,-0.043055,-0.021017,0.012509,0.080176
0.032825,0.027079,-0.2947,-0.081929,-0.048621,-0.029747,-0.031951,-0.042559
0.024391,0.13119,0.35209,-0.065005,0.076426,1.6552e-05,0.017767,-0.071702
0.14173,-0.29463,-0.18427,0.20863,0.035262,-0.017659,-0.081201,0.016017
-0.13858,-0.070516,-0.25596,-0.40902,-0.085665,0.042352,0.13153,0.12674
0.081588,0.053649,0.26105,0.37984,0.03482,-0.015016,-0.024045,0.0026179
-0.26852,0.19519,-0.34501,-0.15032,-0.063168,-0.025374,-0.12602,-0.12974
0.10763,-0.14575,0.2379,-0.037791,0.019853,-0.011804,0.036881,0.018843
0.2177,0.077773,0.12695,0.18632,0.12066,0.072881,0.0042976,0.026706
-0.35218,0.02191,-0.27126,0.06824,-0.064965,-0.028925,0.026906,-0.027793
0.1015,-0.22776,-0.026634,-0.088722,-0.037014,-0.0046581,0.074057,0.035249
0.063581,0.16401,0.27505,0.026075,0.024368,-0.010665,0.0055133,-0.034039
0.1673,0.079047,-0.1322,-0.2221,0.0089711,0.0074978,-0.084891,0.084652
-0.10277,-0.061962,-0.03847,0.13395,0.056356,0.0026016,-0.017701,0.00054405
0.065837,0.021002,0.40614,-0.078476,-0.084578,-0.041391,-0.004362,-0.083514
-0.16307,0.061312,-0.30039,0.039144,0.014911,0.054794,0.040375,0.0040175
-0.06331,-0.074352,-0.16005,0.10497,-0.02081,0.017367,0.10013,0.067502
0.091274,0.051719,-0.041522,-0.035592,0.02677,-0.028911,-0.11487,-0.096429
0.058106,-0.2704,0.18734,-0.091415,-0.029682,-0.013804,0.012043,0.035537
-0.10065,0.12507,0.081594,-0.076073,-0.017797,-0.015335,-0.027218,0.033722
0.028773,0.029336,-0.11515,0.20744,0.0475,0.0058383,-0.045117,-0.054863
0.18838,0.11641,-0.18191,-0.2164,-0.0049068,0.0032585,0.028989,0.043461
0.081209,-0.10424,0.25904,0.3167,0.10692,0.071164,0.18004,0.17277
-0.23791,-0.014644,-0.19583,-0.1391,-0.13212,-0.055588,-0.08342,-0.2056
-0.19051,0.080198,0.21359,0.10263,0.020508,-0.032853,-0.026233,-0.052168
0.05987,-0.024247,0.02004,0.025019,0.041528,-0.0010167,-0.13984,-0.014954
0.013747,0.21666,-0.36203,-0.40421,-0.12373,0.016517,-0.0017451,0.039152
0.085467,-0.21533,0.34795,0.29881,0.1262,0.05862,0.20871,0.1415
0.12642,-0.033576,0.023324,-0.14707,-0.052611,-0.023541,-0.14911,-0.083118
0.089016,0.033667,0.013401,-0.32719,-0.027594,0.0038692,0.096288,0.0054472
0.019026,-0.092315,-0.090483,0.60302,0.11502,-0.015989,0.076946,0.12523
-0.030056,0.057877,-0.19669,0.0035512,-0.015692,-0.013331,-0.14563,-0.10734
-0.34812,-0.076535,0.021466,-0.18796,-0.099714,-0.043215,0.0056638,-0.12258
0.088151,0.0068268,0.2353,0.19208,0.04241,0.06608,0.10813,0.094844
-0.040767,0.083873,-0.21114,-0.27145,-0.05041,-0.021308,-0.11208,-0.040905
0.0010415,0.023784,0.058109,-0.12676,-0.0032427,-0.023855,-0.045491,0.033196
0.20769,0.085441,0.13813,0.24976,0.1136,0.043218,0.042885,0.013264
-0.090903,0.0031564,-0.14159,0.013315,-0.027972,0.016302,0.013426,0.0017719
0.0048561,-0.052316,0.11074,0.046204,0.0096306,-0.026048,0.039173,-0.0082929
0.096729,-0.012529,0.020886,-0.1201,-0.031288,-0.02099,-0.035054,0.0070131
0.01202,-0.10619,-0.12175,-0.054895,-0.048992,0.00043748,-0.044454,-0.053785
-0.11807,0.039759,0.096885,0.22787,0.027063,0.0070441,0.065903,0.058949
0.10294,0.017755,-0.11251,-0.5509,-0.068478,-0.024699,0.053532,0.024156
0.063987,0.0070086,0.1091,0.49384,0.1334,0.092493,0.058306,0.051805
0.021942,0.00011374,-0.12925,-0.12033,-0.054622,-0.024481,-0.069227,0.015935
-0.35894,-0.064289,-0.046627,0.076566,0.023799,-0.032163,-0.10353,-0.13104
-0.23359,-0.051796,0.20828,0.077026,0.017048,-0.032324,-0.061014,-0.092505
0.3064,0.25023,-0.013235,-0.17436,-0.035973,0.045277,0.081338,0.053661
0.1228,-0.11768,-0.070829,0.055193,-0.018299,-0.049257,0.0032289,0.042552
0.19409,0.032985,0.027375,0.013487,-0.031722,-0.0031725,0.056585,0.054856
-0.033489,-0.0083017,0.0076259,-0.075316,0.056382,0.035443,-0.015833,-0.009961
-0.075964,-0.093273,-0.18504,0.02093,0.003698,0.027887,0.052222,0.036418
-0.052113,0.16023,0.23042,0.12081,0.036734,0.036947,-0.043395,-0.032154
-0.081536,-0.26437,-0.19145,-0.12826,-0.063265,-0.085668,-0.0445,-0.051679
0.004971,0.0615,0.11962,0.054759,-0.030652,-0.011865,-0.052492,-0.053945
-0.0058824,0.23055,0.085502,-0.11866,-0.0060424,0.0003257,0.073204,0.10077
0.056196,0.038785,-0.0046063,0.00098221,0.073024,0.044262,0.027654,0.059791
-0.059341,-0.27212,0.029254,0.13381,0.011126,0.0022373,0.0057808,-0.029531
0.062103,0.11025,-0.38276,-0.078199,-0.027848,0.022104,-0.016316,0.0038123
0.093873,-0.0012572,0.25219,0.14732,0.034031,-0.01388,-0.0078202,-0.074999
-0.20411,-0.16837,0.013011,-0.01702,-0.022133,-0.012388,0.038774,-0.086196
0.045491,0.18801,0.0098524,-0.055205,-0.0088533,-0.0048722,-0.079755,0.06457
0.0088987,-0.001409,0.13392,0.048512,-0.019709,-0.030315,0.0039284,0.018906
0.047044,-0.024927,-0.31765,-0.29179,-0.12465,-0.049297,-0.077002,0.012331
0.066845,-0.014996,0.15496,0.15829,0.1534,0.079377,0.10764,0.08496
-0.088307,0.036049,0.066756,0.055101,0.041527,0.051693,0.19116,-0.020269
0.11152,-0.013034,0.026123,0.078431,-0.069171,-0.092643,-0.27915,-0.053035
-0.11698,0.086816,-0.038447,-0.060744,0.040323,0.04531,0.017253,-0.044711
0.036325,-0.024809,0.043733,-0.034449,-0.012773,0.028333,0.10383,0.043279
0.022322,-0.1066,-0.18142,-0.061848,-0.048998,-0.034159,0.011675,0.077411
0.065876,-0.080954,0.066809,0.059468,0.017143,0.013903,-0.0016823,-0.068068
-0.068212,0.09893,-0.063209,-0.0074224,0.0053713,-0.023133,-0.038121,-0.03442
-0.30164,-0.027538,0.10863,0.056651,0.016597,-0.012881,-0.043223,0.021712
0.16354,0.0090168,-0.018492,0.078703,0.018951,-0.018278,0.0062875,-0.024763
0.079068,0.13116,0.064212,-0.090531,0.0041346,0.061843,0.016618,0.013851
0.14222,-0.12927,0.076504,0.095545,-0.02812,-0.015017,-0.0043784,0.012952
0.042316,0.07959,-0.18376,-0.073533,0.0003171,0.0087521,0.037102,-0.011355
-0.13333,-0.039078,-0.051636,-0.2996,-0.082134,-0.023172,-0.062064,0.042928
-0.14178,0.053606,0.24707,0.13024,0.045377,-0.0013484,0.049589,-0.05047
0.07184,-0.0098185,-0.248,0.077668,0.071046,0.02755,0.090629,0.083553
0.093111,-0.15146,0.010385,0.12296,-0.020016,-0.029904,-0.0094613,-0.00039123
0.069806,0.0036169,0.014467,0.017649,0.03066,-0.0014291,-0.118,-0.083756
-0.17857,0.22896,0.24052,-0.24552,-0.081122,-0.011598,-0.00058929,0.012892
0.081562,-0.2017,-0.038669,0.33287,0.043342,0.041531,0.022682,-0.054451
-0.056673,0.047926,-0.13652,-0.155,-0.025617,-0.01366,-0.0947,0.073362
0.0078481,0.15784,-0.022882,0.030833,-0.030408,-0.028657,0.038258,-0.057019
-0.076696,-0.27806,-0.12854,0.067673,0.08322,0.0042122,0.038943,0.030717
0.048919,0.03697,0.20176,-0.20274,-0.052515,0.01429,0.047865,0.031574
-0.037295,0.1416,-0.087415,-0.0238,0.03827,0.040142,0.064541,0.023345
0.42239,0.1758,0.28468,-0.075416,-0.012275,0.018722,0.080404,0.099503
-0.072032,-0.18147,-0.28368,0.32287,0.06094,0.02768,0.016525,0.0099574
-0.27814,-0.024621,0.01235,-0.10869,-0.070514,-0.12857,-0.31515,-0.29194
-0.10165,-0.057122,-0.084563,-0.16516,-0.10197,-0.04377,-0.016257,0.0068966
-0.21356,-0.044508,0.23102,0.045759,0.052804,0.032378,0.0074993,0.05583
0.26213,0.17784,-0.1259,0.09552,0.050566,0.069138,0.10092,0.066844
0.044926,-0.20167,-0.02941,0.14073,0.071652,0.020234,0.1403,0.11899
0.064645,0.13828,0.060369,-0.076929,-0.062986,-0.020065,-0.091865,-0.1153
0.00017481,-0.1843,-0.06699,0.0038321,-0.024707,-0.004567,-0.0088193,0.004575
0.24821,0.19819,0.057398,-0.048305,-0.0085166,0.0042749,0.061572,0.079618
-0.31862,0.1059,0.034823,-0.17252,0.016887,0.014055,-0.029483,-0.031822
0.13322,0.022483,0.067792,-0.096776,-0.019015,-0.014702,0.014047,-0.0028501
0.078575,0.01725,-0.055465,0.33429,0.063031,-0.012188,-0.082386,-0.014293
-0.18604,-0.34832,-0.18738,0.081307,0.0046235,-0.010134,0.031675,-0.074755
-0.16712,0.073501,0.030709,-0.058545,-0.0073947,0.014535,-0.0040178,0.0029943
-0.025768,-0.0064972,0.067136,-0.48292,-0.2002,-0.094624,-0.05713,-0.046397
-0.00012042,0.02928,0.17188,0.53587,0.25387,0.14675,0.1145,0.090277
-0.031248,0.13479,0.040686,-0.20398,-0.059515,-0.019015,-0.051263,0.023321
0.25145,0.076682,-0.13811,0.048818,-0.038773,-0.044791,-0.030321,0.01145
0.32627,-0.20665,-0.14456,0.045355,0.0038636,0.0072355,0.037463,0.047532
-0.12752,0.058805,-0.078873,-0.19801,-0.017052,-0.018854,-0.042522,-0.094665
-0.081103,-0.0018234,0.052408,0.11591,-0.014939,0.01788,0.01148,-0.0089173
-0.13209,0.04862,0.14855,0.072892,0.034329,0.016148,0.10594,0.038839
-0.058208,-0.032771,0.0065056,-0.069752,0.014193,0.023028,0.076737,0.016889
0.097732,0.026517,0.039544,0.16382,0.0032459,-0.055101,-0.1936,-0.0049246
-0.16666,-0.00099637,0.15229,-0.055207,0.025176,0.023989,-0.025793,-0.042575
0.015149,0.016805,0.030114,-0.10231,-0.045001,-0.044439,-0.029637,-0.0024572
0.019198,-0.14695,-0.31348,-0.055667,0.0034619,0.044151,0.028849,-0.0095028
-0.042914,0.10163,-0.020743,-0.1415,-0.048531,-0.022991,0.11026,-0.0087967
0.12056,0.028761,-0.18615,0.1252,0.056403,0.027225,-0.0044655,0.031193
0.051002,-0.14597,0.089023,0.018546,0.020931,0.030324,0.075036,0.032555
0.1482,0.24242,0.22001,0.085822,-0.030371,-0.021928,-0.1358,0.0031552
-0.16597,-0.28975,0.17727,0.41294,0.042773,-0.0048907,0.0036011,-0.018096
-0.095898,0.15628,-0.091952,-0.54748,-0.11144,-0.03597,-0.03784,-0.031521
0.22342,0.049035,0.078183,0.20374,0.061561,0.0098143,0.091842,0.11872
-0.077623,0.051878,-0.31085,-0.23272,0.061791,0.031101,-0.059873,-0.13803
0.0067855,0.023144,-0.16426,0.095581,-0.055939,-0.057659,-0.015721,0.096441
-0.071175,-0.077307,0.24506,-0.046043,-0.033603,0.025292,0.0061965,-0.099681
-0.10013,-0.062762,0.073323,0.17843,0.082192,0.030474,-0.0014973,-0.046434
-0.13299,-0.019387,0.15579,0.034985,-0.012952,-0.0026228,0.10192,0.076938
0.06737,-0.017046,-0.26667,-0.25724,-0.084395,-0.01906,-0.051049,-0.010356
-0.0038603,-0.085945,0.022882,0.028529,0.024308,-0.0031903,0.0077029,0.012321
0.2808,0.10342,0.037934,-0.18607,-0.061764,0.013537,0.042923,0.066913
0.008579,0.052362,0.065427,0.62165,0.21201,0.04637,-0.12598,-0.010863
0.030858,0.02742,0.095787,-0.13546,-0.092082,-0.037968,0.10184,0.075436
0.05699,0.013193,-0.083009,-0.021291,-0.021242,-0.028989,-0.078692,-0.08875
-0.079551,0.11074,-0.1977,-0.38076,-0.044571,-0.012969,-0.026934,-0.1288
-0.3267,-0.095097,0.033767,0.35597,0.056399,0.0021149,-0.015907,0.0098391
0.07913,-0.09004,-0.011969,-0.32614,-0.015333,0.086613,0.1504,0.061734
0.12918,-0.039412,0.15945,0.21528,0.013751,-0.056136,0.019668,0.035125
-0.17623,-0.076874,-0.19972,-0.21235,-0.12169,-0.1133,-0.21983,-0.046007
0.070588,0.13325,0.34992,0.027025,0.063173,0.11862,0.11217,0.076642
-0.034554,-0.018089,-0.18258,0.32718,0.13914,0.05403,0.086321,0.051823
0.41673,0.19648,-0.046853,-0.26263,-0.10424,-0.025556,-0.0004607,-0.081333
-0.27703,-0.2454,0.13953,0.18058,0.052097,0.020638,-0.038964,-0.010483
-0.0056138,0.040161,-0.16345,-0.023284,-0.063547,-0.11983,-0.076374,-0.040623
-0.058182,0.046276,0.17584,-0.055811,-0.044976,0.021764,-0.034935,-0.0002446
0.07214,-0.023363,-0.18744,-0.10755,0.045051,0.0078322,0.014678,0.055633
0.0010632,0.018873,0.074073,0.33345,0.06546,0.04134,0.072131,0.02521
-0.046488,-0.061729,-0.032125,-0.025541,-0.039046,0.0048598,0.082435,-0.060373
0.076529,0.2419,-0.38099,-0.76572,-0.089487,-0.00037237,-0.048427,0.002039
-0.0682,-0.27437,0.56674,0.64209,0.1556,0.009635,-0.04722,0.017288
0.15993,0.1149,-0.11847,-0.24047,-0.093479,-0.004565,0.031271,0.087192
-0.19921,-0.091309,0.10233,0.28229,0.061287,-0.0042135,-0.062904,-0.084807
-0.1598,-0.018754,-0.13061,0.03986,-0.005206,-0.028513,-0.02484,-0.068704
0.014298,0.25404,0.12747,-0.2781,-0.09736,0.00074202,0.028626,-0.012688
0.16056,-0.30414,-0.20201,0.17476,0.066767,-0.0020769,0.035405,0.098965
0.14706,0.2134,0.0058434,-0.098769,-0.011801,0.010398,0.089631,0.0083329
0.090877,0.0106,-0.02982,-0.13509,-0.066228,-0.015942,-0.066237,-0.034933
-0.11073,-0.24739,-0.034626,0.14618,-0.0015793,-0.018054,-0.080529,0.085816
-0.069135,0.1672,0.20367,0.1294,0.12839,0.09039,0.062311,-0.012855
0.096107,-0.033574,-0.11822,-0.075326,-0.011763,-0.034216,0.010487,-0.0033738
-0.17972,-0.036336,-0.038224,-0.20263,-0.054903,-0.016996,-0.10355,-0.19858
-0.10135,0.12029,0.23335,0.33228,0.092131,0.024499,0.13381,0.096818
-0.044498,-0.024714,-0.24887,-0.19118,-0.10291,-0.035243,-0.059151,-0.062212
0.18631,-0.034449,0.14711,0.052865,0.0071738,0.014169,0.051521,0.15297
0.084134,-0.034915,-0.048809,0.062125,0.01493,0.00040606,0.020227,0.016424
0.087793,0.20706,-0.018039,-0.19666,-0.010338,0.0091345,-0.035912,-0.010362
-0.05122,-0.2394,0.034556,0.14224,0.024477,-0.022177,-0.093254,-0.067591
-0.13609,0.04667,0.052813,-0.27346,-0.11522,-0.030829,0.0049241,0.0012171
0.0846,-0.099329,-0.08924,0.39998,0.14109,0.038243,0.040542,0.01642
-0.13782,-0.052477,-0.22008,-0.18835,-0.026371,-0.0098248,0.022144,-0.084597
-0.036546,0.37505,0.10586,0.072007,0.015946,0.028499,0.083173,0.088555
0.20189,-0.0036548,0.32678,0.018333,-0.043625,-0.026216,-0.096305,-0.0035146
-0.085971,-0.35969,-0.16575,-0.19174,-0.032425,-0.0098624,-0.0084554,-0.025243
0.16251,0.12023,-0.073834,0.12269,0.050176,0.061752,0.01824,0.15581
-0.36567,-0.063196,-0.0059706,-0.02183,-0.014169,-0.014855,-0.0090969,-0.15595
0.16429,0.10617,0.11667,0.062681,0.040304,-0.013551,0.018005,-0.0075507
0.063106,0.097341,0.028975,0.063719,0.010352,-0.012839,0.0048508,-0.078642
0.11761,-0.074103,-0.29998,-0.26137,-0.049663,0.026133,0.13034,0.15445
0.10662,0.0056236,0.23157,0.28969,0.016052,-0.045042,-0.043454,-0.026673
-0.30022,-0.085787,-0.10285,-0.096653,-0.082066,-0.093277,-0.25086,-0.043471
-0.12022,0.1512,0.15771,-0.10119,0.069574,0.11625,0.047765,0.034074
0.067715,-0.22909,-0.1665,0.071993,0.048713,-0.0019046,-0.029401,-0.090741
0.19355,0.093404,0.21346,-0.062168,-0.051167,0.021399,0.17509,0.10547
0.016441,0.017039,-0.22601,0.12101,0.011987,-0.0089793,0.076456,-0.018191
0.023021,0.049632,0.11655,-0.15964,0.0038095,0.00060433,-0.058835,0.053447
-0.21354,-0.027531,0.0067242,0.20574,0.010378,0.010727,0.035272,-0.0082412
0.012967,0.074626,-0.094538,-0.16482,-0.030552,-0.033824,-0.13343,-0.063041
-0.091508,-0.081422,0.12534,0.2298,-0.017093,0.03045,0.036213,0.013869
0.029858,0.058973,-0.34141,-0.33566,-0.073907,-0.062536,-0.089283,-0.11331
0.34687,-0.1839,0.36451,0.17923,0.17429,0.054153,0.051724,0.071478
-4.3035e-05,0.1431,0.024117,0.088243,0.024538,-0.025725,0.012955,0.045467
-0.082611,-0.092754,-0.089621,-0.43582,-0.16376,-0.020657,0.019954,0.0046808
-0.13751,0.14768,0.030517,0.5137,0.10147,0.030748,0.12641,0.027833
-0.12058,-0.026107,-0.069195,-0.22752,-0.062787,-0.011598,-0.066971,-0.080065
0.012437,0.010964,-0.0063985,-0.0042595,-0.031778,-0.022185,0.087695,0.048145
0.17352,-0.092582,-0.1094,0.18181,0.13178,0.10875,-0.18312,0.037092
0.07233,0.0071026,0.20791,0.031704,-0.033211,-0.056104,-0.082032,-0.012308
-0.16646,-0.025802,-0.085242,-0.12081,-0.073666,-0.0089078,0.040444,-0.10084
0.012339,0.16039,0.0040195,-0.12916,0.049544,-0.0076197,0.021724,0.044154
-0.038499,-0.14518,-0.039159,-0.28361,-0.10872,-0.044666,0.12124,0.062682
0.21387,-0.036269,0.10622,0.5717,0.13146,0.051548,0.0201,0.040329
-0.31483,-0.005197,-0.12966,-0.1643,-0.049981,-0.063003,-0.093209,-0.16356
