-0.024667,0.0594,0.15816,-0.09448,-0.011757,-0.0099912,0.088916,0.074297
-0.058409,-0.15871,0.048731,-0.019592,-0.035312,0.028994,0.15914,0.022361
0.10121,0.32768,0.0024965,0.11898,0.012381,-0.0091545,-0.087525,0.010315
-0.046228,-0.10756,-0.22199,-0.10903,-0.0093963,-0.01528,-0.025924,-0.055768
0.092864,-0.30974,-0.10873,0.10019,0.07884,0.057178,0.085703,0.13622
0.10458,0.3835,0.42801,0.011141,-0.0044464,-0.0030754,0.04322,0.015388
-0.018407,0.22841,0.1141,-0.13514,-0.072076,-0.01669,0.087366,-0.036082
-0.27531,-0.49478,-0.27032,0.074432,-0.069671,-0.12456,-0.38507,-0.09686
-0.09476,-0.044093,-0.085826,0.092398,0.096267,0.055973,0.038387,-0.11256
0.18843,0.19071,0.2604,0.0047664,0.02713,0.063914,0.16119,0.17468
0.090863,-0.0072451,-0.38051,-0.039182,0.011914,0.047745,0.21697,-0.016038
0.058445,0.020961,-0.00047873,0.03249,0.011595,-0.015862,-0.15379,0.034669
-0.11975,-0.081028,0.19034,-0.49675,-0.12993,-0.072048,-0.13809,-0.16468
0.0088004,0.0099042,0.060218,0.34431,0.040704,-0.011222,-0.00047148,0.081857
0.083624,-0.055791,-0.1477,-0.075,0.015961,0.018442,0.010597,0.18878
0.048702,0.050745,0.1218,0.23106,0.022672,0.017222,0.10782,-0.11719
-0.11284,0.070881,0.032638,0.23922,0.021959,0.0088112,0.011667,-0.023677
-0.24562,0.017886,-0.25971,-0.28599,-0.0095677,-0.0066123,-0.042049,-0.11692
0.1657,0.22418,0.50926,-0.088913,-0.072012,-0.060248,-0.10713,0.10268
0.12149,-0.38457,-0.075557,0.023073,0.076588,0.066548,0.074466,0.056643
0.067968,0.42242,-0.084899,0.26612,0.08439,0.053202,0.15069,0.049432
-0.063896,-0.13845,-0.29157,-0.30702,-0.095728,-0.022538,-0.05925,-0.1534
-0.15555,-0.31758,-0.35,-0.22848,-0.073272,-0.067345,-0.12719,-0.0048603
0.075442,-0.08973,0.35984,0.21295,-0.0044573,-0.026919,0.023306,-0.028202
-0.15145,-0.13875,0.29423,0.096593,0.017158,0.012537,-0.031236,0.011145
0.15599,0.32913,-0.17699,0.017924,0.085618,0.11343,0.24702,0.1445
0.0048689,-0.0095617,0.072434,0.06456,0.052796,-0.028821,-0.32227,-0.050152
-0.012511,0.21573,-0.21615,-0.12171,-0.081071,-0.077981,0.081192,-0.088725
0.45359,0.092212,0.047875,-0.08745,-0.097124,-0.017977,0.16903,0.42686
-0.020471,-0.23289,-0.054755,0.10419,0.14523,0.1361,0.20034,-0.16767
-0.6702,0.065153,1.0867,0.037686,-0.096378,-0.18556,-0.54976,-0.44251
-0.011335,0.27064,-0.8935,0.17204,0.084058,0.12682,0.11585,0.032538
-0.1834,-0.55115,-0.016039,-0.11961,-0.024687,-0.043788,-0.10596,-0.14018
0.43286,0.2128,-0.056604,-0.18221,-0.086916,-0.033465,0.16073,0.47765
0.37119,-0.27583,-0.22483,0.35918,0.11599,0.11047,0.20491,0.081768
-0.47546,0.27185,-0.070488,-0.52531,-0.056565,-0.026724,-0.021381,-0.23422
0.24603,-0.10305,0.23453,0.32333,0.11439,0.10105,0.183,0.20073
0.29396,0.28289,-0.15993,-0.52093,-0.19107,-0.13971,-0.051475,0.13538
-0.55101,-0.46415,0.19248,0.39106,0.051001,-0.022845,-0.3519,-0.36905
0.037737,0.49632,0.7048,0.10929,-0.041713,-0.13429,-0.12572,-0.063415
-0.30132,-0.25396,-0.58823,0.24474,0.085846,0.15915,0.048989,-0.072819
0.10128,-0.18957,-0.3041,-0.1249,0.097836,0.022255,-0.045236,-0.068417
0.85245,0.31442,0.17052,-0.05674,-0.099761,0.026158,0.34377,0.44332
-0.0030414,0.13094,0.57916,-0.50018,-0.1326,-0.05496,0.062189,0.096777
-0.5448,-0.10311,-0.28122,0.49297,0.15461,0.037204,-0.1145,-0.33328
-0.44523,-0.18931,-0.11339,0.35533,0.073244,-0.05658,-0.24765,-0.1352
0.015002,0.047277,-0.53262,-0.47173,-0.0731,0.038481,0.14708,0.026821
0.53283,0.001158,-0.018868,0.22043,0.10539,0.11096,0.20135,0.40959
0.11838,0.19342,0.63814,-0.71698,-0.35256,-0.19914,0.069383,0.019243
-0.15555,-0.0090851,-0.13019,-0.21217,0.12359,0.084104,-0.26685,-0.2009
-0.1071,-0.59678,0.0075932,0.97983,0.15963,-0.0085368,0.026403,-0.057341
-0.15671,0.2307,-0.093058,0.073273,-0.016619,-0.0085522,-0.11488,-0.14498
0.27427,0.079459,-0.44431,-0.32719,-0.083374,0.013786,-0.034933,-0.010917
0.036984,0.56356,1.0498,0.67146,0.10148,0.011898,0.21998,0.11129
-0.065033,-0.55521,-0.66465,-0.94488,-0.13269,-0.052805,-0.13768,0.02014
0.013558,0.10073,-0.057445,0.20749,0.035284,0.031164,0.13639,0.061447
-0.15062,0.10255,0.58809,-0.13659,0.027571,0.0065012,-0.025829,0.049773
0.13666,-0.13654,-0.57433,0.093528,0.023596,0.037649,-0.067567,-0.02884
-0.031203,0.28754,0.31252,-0.062756,0.014758,0.015422,0.1612,0.021927
-0.18504,-0.32345,-0.16644,0.25424,-0.015735,-0.04457,-0.10422,-0.20393
0.20752,0.058732,-0.42467,0.11507,-0.0067202,-0.033152,-0.027683,0.14466
-0.28957,-0.0058514,0.21977,0.20745,0.024919,-0.020979,-0.11751,-0.14433
0.37984,0.30165,0.52825,-0.20272,0.0079132,0.054008,0.062658,0.20889
-0.22851,-0.50343,-0.59669,-0.46662,-0.12855,-0.019626,0.003298,-0.062937
0.21389,0.33743,0.34099,-0.21651,-0.017264,-0.00020676,-0.0086487,-0.070671
0.15207,-0.59633,-0.13251,0.25117,0.029714,0.064916,0.17293,0.35651
-0.11796,0.28255,-0.016048,0.32698,0.1303,-0.019938,0.12395,-0.32085
-0.13637,0.31854,0.40835,-0.1151,-0.035026,0.034115,0.10832,0.014826
-0.33396,0.26137,-0.44775,0.5008,0.12036,-0.061906,-0.55449,-0.22127
0.085218,0.031622,0.59157,-0.69593,-0.23901,-0.096692,-0.059469,0.011493
-0.0046047,-0.17728,-0.7671,0.61097,0.08235,0.024135,0.079172,0.034979
0.18488,-0.52342,-0.11392,-0.14498,0.068785,0.090406,0.16058,0.20958
0.59811,0.023467,0.38358,-0.37298,-0.061181,-0.022134,0.077961,0.2385
-0.39088,0.29967,0.0043256,-0.23837,-0.081332,-0.03169,0.013278,-0.14487
-0.0016387,0.041424,0.21612,0.095452,0.05479,0.077578,0.014893,-0.0048388
-0.17193,-0.17793,0.10535,-0.056607,-0.020459,0.0086282,0.012926,0.14865
0.05982,-0.10483,-0.56834,0.65274,0.20809,0.026588,0.17085,-0.32677
-0.4297,0.33429,0.58084,-0.10081,-0.10373,-0.095799,-0.45801,-0.31474
-0.02083,0.0087713,-0.45887,-0.41537,-0.15934,-0.078003,0.093404,0.15386
0.34378,-0.26058,-0.53488,0.51624,0.15837,0.11846,0.096884,0.10391
0.13498,0.16543,0.57537,-0.30449,-0.048873,-0.037983,-0.050384,0.13908
0.22864,-0.020981,0.14799,-0.15041,-0.077488,-0.023916,0.096249,0.12085
-0.29782,0.28536,0.4262,0.22842,0.018524,0.043726,0.15396,-0.011669
0.55354,-0.044946,-0.23152,-0.22301,0.13061,0.048214,-0.28291,-0.031176
-0.60293,-0.42178,-0.20268,0.0026382,-0.10759,-0.04113,0.083617,-0.10188
0.1519,0.37162,-0.17051,0.014242,0.10148,-0.012787,0.020534,0.017548
-0.4885,-0.54745,-0.021599,0.19399,-0.015151,-0.02251,-0.17386,-0.15066
-0.055827,0.19043,0.1158,0.009752,-0.12144,-0.038717,0.11099,0.056329
0.47432,-0.082879,0.028555,-0.078781,0.016724,0.055868,0.10233,0.11411
-0.099173,0.0041216,0.012566,0.075175,-0.038824,-0.00457,0.073641,-0.040362
0.50734,0.47083,-0.43199,-0.53817,0.054614,0.068567,-0.038202,0.077154
-0.40709,0.13205,0.7115,0.68061,0.19413,0.0011675,-0.062463,-0.14247
-0.10665,-0.011897,0.085116,-0.067358,-0.098339,-0.04346,-0.07866,0.035642
-0.10643,-0.97824,-0.77057,-0.10399,-0.13665,-0.081618,0.04469,-0.028578
0.41348,1.0268,0.28643,-0.094194,0.21105,0.097191,-0.029344,0.14193
-0.071522,-0.12537,0.5384,0.0012193,-0.078944,-0.022751,0.026869,-0.038456
-0.42244,-0.7039,-0.59984,-0.13686,-0.16225,-0.089589,-0.028803,-0.12439
0.062003,0.48415,0.059762,0.079647,0.040738,0.10825,0.069792,0.087034
0.12223,-0.2653,0.08796,0.16917,-0.014659,-0.037781,0.0031777,-0.013949
0.25678,0.23591,0.18056,-0.021564,0.033413,-0.011152,-0.079253,0.0096963
0.16005,0.17733,0.2444,-0.51332,-0.24244,-0.061105,0.03432,0.22791
-0.1447,-0.19589,-0.837,0.96146,0.63599,0.21911,0.086749,-0.29696
-0.56297,-0.26326,0.14013,-0.33845,-0.15094,-0.092253,-0.093488,-0.11162
0.26626,0.1814,0.12151,-0.49908,-0.22085,-0.096951,0.048324,0.16721
0.017305,0.33567,0.42733,0.3457,0.003054,0.048267,-0.027148,-0.045726
-0.072753,-0.23684,-0.044836,-0.18863,-0.10621,-0.03227,-0.054758,0.039341
0.26418,-0.16919,-0.27319,0.2318,0.10539,0.074782,0.058652,0.11042
-0.001503,0.013744,0.41198,0.38623,0.065461,-0.029661,0.070291,-0.0041951
-0.017866,0.52829,-0.40569,-0.44572,0.045796,0.028911,-0.067241,-0.10943
-0.18437,-0.54249,-0.14225,-0.061874,-0.071846,-0.077904,-0.0887,-0.049639
0.090455,0.37674,0.076052,-0.22801,-0.092523,-0.014224,0.052588,0.041519
-0.071515,-0.50525,-0.024608,-0.36541,-0.1566,0.0013309,0.012855,0.014706
0.3498,0.35727,-0.12342,0.84727,0.33826,0.11745,0.11256,0.13478
0.0077552,-0.11378,0.5933,0.48929,0.080625,-0.0015031,-0.085495,0.041883
-0.4745,-0.081285,0.2444,-0.50087,-0.18613,-0.058368,0.012828,-0.33434
-0.03482,0.042646,-0.64466,-0.48968,-0.1718,-0.060715,-0.076357,0.092435
-0.046968,-0.013133,-0.23574,0.35931,0.22611,0.046333,-0.00096957,-0.09112
0.38225,0.19097,0.20009,-0.14878,-0.0151,0.020734,0.067611,0.19403
0.18588,0.10175,0.11039,-0.1698,-0.090291,-0.004585,0.020398,0.17531
-0.39044,-0.22552,-0.1358,0.28096,0.086686,0.017345,-0.072097,-0.17796
-0.062655,-0.26777,0.11102,0.070773,0.03146,-0.0071367,0.040078,-0.076496
-0.008812,0.38795,0.12428,-0.089712,-0.10768,-0.06232,-0.041827,-0.05175
0.25556,0.029061,0.15278,0.0019225,-0.010644,0.047186,0.11134,0.22392
0.22898,0.060081,-0.12604,0.39152,0.095701,0.0011195,0.061401,0.01551
-0.17725,-0.37201,-0.16825,-0.37518,-0.054603,-0.020838,-0.21577,-0.21666
-0.28695,0.052236,-0.18006,-0.32255,-0.13383,-0.010964,0.013638,-0.012114
0.044814,0.20774,0.33574,0.44728,0.24034,0.093048,0.01488,0.066443
0.065228,-0.045451,-0.47443,-0.65173,-0.12019,-0.076275,0.030054,-0.027837
0.33529,-0.088928,0.77896,0.7244,0.11987,0.035409,0.14526,0.16619
-0.3636,-0.17126,-0.26357,-0.11153,-0.071388,-0.00974,-0.053162,-0.062116
-0.1625,0.10722,-0.58559,-0.0031296,-0.10075,-0.094803,-0.15061,-0.17341
0.15268,0.29411,0.54871,0.025931,0.14089,0.12384,-0.0057975,0.13725
0.078035,-0.071535,-0.14013,-0.46247,-0.12768,-0.017845,0.11632,0.15908
0.047216,0.040894,-0.025295,0.4604,0.12522,0.027251,0.075709,-0.19373
-0.15529,0.044421,0.15252,-0.026837,-0.14657,-0.13113,-0.11157,-0.014803
0.17556,-0.34321,-0.13694,-0.12051,0.010962,0.046558,-0.070344,-0.08529
-0.061591,0.13522,-0.026104,-0.01658,0.083087,0.021711,0.011736,0.087103
0.17078,0.018853,0.59424,-0.074547,0.023634,0.036882,0.071676,0.14305
-0.13812,-0.50411,-0.94049,0.33119,0.020493,-0.040575,0.0070913,-0.081577
-0.062453,0.48147,0.072118,-0.20421,-0.035693,0.039251,0.059124,-0.063533
0.042131,0.47657,0.6783,0.040143,-0.0046117,0.026018,0.078235,0.056228
-0.10139,-0.69801,-0.42709,-0.13613,-0.043048,-0.065172,-0.17089,-0.011762
0.06695,0.3168,0.31831,-0.22222,-0.0031599,-0.0083612,-0.079421,-0.010095
-0.055597,-0.10509,-0.23373,0.27693,0.044231,0.0083982,0.047954,0.02966
0.10157,0.34717,-0.082687,0.34789,0.083199,0.055039,0.03995,-0.017658
0.086918,-0.062569,-0.13405,-0.54724,-0.19097,-0.040433,0.022654,-0.019205
-0.11264,-0.68731,0.15982,0.47418,0.10476,0.019035,0.0052611,-0.037272
-0.24407,0.24568,0.0025694,-0.19874,0.0098839,-0.023917,-0.042061,-0.016832
0.015947,0.095988,0.18329,-0.1781,-0.068867,-0.03583,0.014685,0.050304
0.49801,0.41156,-0.095479,0.016965,-0.09985,-0.078502,0.027808,0.094152
-0.11658,-0.36064,0.18076,0.10917,0.17491,0.13773,-0.018144,0.060241
-0.13193,0.039025,-0.13002,0.15736,0.14591,0.050713,0.017048,-0.18415
-0.11872,-0.24717,-0.21664,-0.12262,-0.10914,-0.05046,-0.00032165,-0.12341
0.070411,0.25065,0.029463,0.11907,-0.020493,0.06828,0.061371,0.13303
0.11372,0.095374,0.17071,-0.1646,-0.10428,-0.08578,-0.049114,0.20231
-0.060504,-0.018027,-0.21405,-0.0268,0.092344,-0.0054243,-0.059381,-0.087452
-0.14088,0.14389,0.10314,-0.081722,-0.16491,-0.073967,-0.071649,-0.11118
0.098498,-0.32633,0.077112,0.041831,0.10093,0.052059,0.13266,-0.056227
-0.053484,0.19526,-0.0014117,-0.14407,0.0077108,0.036698,0.0069759,-0.039582
0.059606,-0.24505,0.087552,0.19233,0.04828,-0.01827,-0.088693,0.15766
-0.0071774,0.0091175,-0.32732,0.16263,0.0043592,0.035966,0.018331,0.0042541
-0.081606,0.13038,0.11313,-0.24854,-0.045796,-0.057985,-0.0071355,-0.0078049
0.25059,0.09649,0.34549,0.41023,0.19443,0.083054,0.10888,0.019486
0.036294,-0.16159,-0.014418,0.1356,-0.11148,-0.048498,0.0072335,0.0074085
-0.083991,0.028994,-0.42116,-0.42031,-0.12058,0.00053661,-0.038751,-0.013403
-0.36044,0.020223,0.26473,-0.019249,-0.23991,-0.14499,-0.060668,-0.1528
0.12869,0.16339,-0.41041,-0.48439,0.31102,0.17866,-0.0042857,0.08119
0.00049936,0.1373,0.47553,0.45649,0.11763,0.041329,0.036219,0.032449
0.16111,-0.35615,-0.084337,0.053933,-0.0079236,-0.034055,-0.041003,-0.0095195
0.11026,-0.036993,0.0051758,0.0052161,-0.05006,-0.024522,0.013949,0.065328
-0.16814,0.12505,-0.23097,-0.10879,-0.17259,-0.071005,0.037089,-0.078188
0.29406,0.082592,0.12251,0.31633,0.046904,0.060806,0.028618,0.060634
-0.43346,-0.35187,0.011393,-0.23279,-0.047006,-0.089836,-0.081529,-0.1427
0.14106,0.3454,-0.057086,0.042046,0.21066,0.094652,0.042794,0.10887
-0.099632,-0.20026,0.21999,-0.054351,-0.25739,-0.11962,-0.074864,-0.020741
0.055767,0.089364,-0.23049,-0.23389,0.072873,0.13496,0.073287,0.061676
-0.0013097,0.05764,0.22082,0.26721,0.17817,0.030549,0.033975,-0.02749
0.17558,0.12558,0.1174,0.32953,0.081707,0.012529,0.041357,-0.0079088
0.18932,0.10454,-0.027672,-0.18972,-0.060799,0.0026792,0.0092952,0.11178
-0.33372,-0.10028,-0.1216,-0.19827,-0.22651,-0.13198,-0.14041,-0.082999
-0.19695,-0.34879,-0.39763,-0.05588,-0.033049,-0.024364,-0.04828,-0.17045
0.21003,0.015541,-0.00094777,-0.035043,0.14451,0.11461,0.020373,0.03737
-0.1669,-0.076397,-0.090725,0.030506,-0.052901,-0.13676,0.073779,0.0021982
0.10184,0.16636,0.58862,0.18286,-0.023108,0.096795,0.026401,0.076592
0.24972,0.33191,-0.12966,-0.35601,0.10178,0.057726,0.026913,0.097387
0.040606,-0.21845,0.16433,0.33848,-0.0058096,-0.074142,-0.034082,0.026101
-0.066885,0.032124,-0.10606,0.12726,-0.0096933,0.09958,0.038443,-0.090249
-0.10653,-0.14262,-0.14486,-0.044254,-0.019442,-0.10104,-0.05287,-0.0097649
-0.19772,0.17075,0.037173,-0.16966,0.026843,0.026739,0.011753,-0.05336
-0.037239,-0.036907,0.076344,-0.032745,-0.043603,-0.0097101,-0.065015,0.028234
0.21823,-0.17357,-0.17283,0.20707,0.065107,0.0079873,0.013456,-5.2119e-05
0.03807,0.22,-0.050808,-0.17989,-0.022906,-0.014151,0.059688,-0.0059212
0.11133,-0.084066,0.31388,0.17891,0.0042706,0.056649,0.081773,0.057233
-0.2708,0.054225,-0.20584,-0.31956,-0.17388,-0.11539,-0.17764,-0.021534
0.0033923,-0.18528,-0.016692,-0.050566,0.060028,0.063768,0.016365,0.00018748
-0.095188,0.06552,-0.17235,0.095996,0.097095,-0.0227,0.039243,-0.11159
0.38039,-0.082557,0.21991,0.29339,0.055134,0.039572,0.02407,0.12795
-0.11588,0.10651,-0.0090354,-0.20678,-0.049639,0.0007595,0.017697,-0.054187
0.025442,0.18889,0.32333,0.14374,0.0097819,0.032736,-0.0036422,0.068906
0.092803,-0.060975,-0.468,-0.083767,-0.0085453,-0.013104,0.068867,0.020872
-0.39144,-0.21304,0.14226,0.25964,-0.065493,-0.051101,0.031456,-0.081032
0.094884,0.42767,-0.12604,-0.5524,0.0029522,0.012197,-0.21798,-0.018097
0.12086,-0.62412,0.27429,0.46464,0.11858,0.012498,0.031187,0.022064
-0.0020905,0.17716,-0.039848,-0.19676,-0.078062,-0.019047,-0.0022453,-0.038829
-0.017105,0.25966,-0.022308,-0.16891,-0.0088398,-0.019895,0.017997,0.080296
-0.050023,-0.24532,-0.25996,0.17383,-0.048702,0.056995,0.10027,-0.027016
-0.023526,0.37182,0.097835,-0.24615,0.013368,-0.077214,0.01078,-0.0016105
0.24912,-0.13986,0.058047,0.016508,0.0055411,0.08551,0.046927,0.039097
-0.045207,0.031751,0.27625,0.58614,0.13871,-0.0015519,-0.15811,-0.022284
-0.20373,-0.53496,-0.27157,0.047214,0.037739,-0.0024005,0.036473,-0.060901
0.2034,0.16086,-0.33593,-0.45395,-0.21169,-0.034247,-0.025526,0.024747
-0.15891,0.25328,0.53575,0.088189,0.030751,-0.011233,0.03861,0.039375
-0.054724,0.11081,-0.30556,-0.50799,-0.063318,0.027487,0.0099304,-0.04817
0.010327,-0.093558,0.23332,0.61585,0.15433,-0.02753,-0.010297,-0.0033754
-0.01597,0.00026725,0.042589,0.1474,0.058584,0.034625,0.055682,0.0020134
0.18124,0.30663,0.21595,-0.37275,-0.16307,-0.059479,-0.065992,0.12435
-0.18531,-0.51823,-0.55853,-0.11382,0.0051091,0.018308,-0.024189,-0.073801
0.20549,0.09589,0.056397,0.27137,0.13364,0.072694,0.063517,0.024817
-0.0060754,-0.14011,-0.07791,-0.14326,-0.04276,-0.0056902,-0.021918,-0.15002
-0.18086,0.25818,-0.09976,-0.30774,-0.10957,-0.044975,-0.01502,0.034653
0.19438,-0.12324,0.50861,0.65491,0.050904,0.0095283,0.084232,0.14935
-0.094123,0.08268,-0.063938,-0.22364,0.0017063,-0.060902,-0.12239,-0.086948
-0.14288,0.18024,0.034361,-0.015012,0.024531,0.040672,0.013922,-0.049028
0.11625,-0.16723,0.099211,0.30921,0.057154,0.040901,0.024921,0.075755
0.18988,-0.046603,-0.51239,-0.33296,-0.072276,-0.021074,0.020532,0.021831
-0.085954,0.18181,0.0088559,-0.54726,-0.13747,-0.028021,0.024713,0.0079148
-0.12397,-0.21703,0.15943,0.51403,0.18133,0.020032,-0.032431,-0.067662
-0.21862,-0.063624,0.24859,0.27772,0.086483,0.021421,-0.010018,-0.056607
0.054946,0.10337,0.055107,-0.32021,-0.10258,-0.016217,-0.0095361,0.033099
0.12933,0.097403,-0.03158,0.30627,0.027421,0.0084722,0.039214,0.10752
0.20977,-0.13492,-0.25323,-0.30993,-0.094393,-0.0062827,-0.028101,-0.060129
-0.10134,0.0093275,-0.13893,-0.072028,0.008355,-0.013765,0.014688,-0.032607
0.023314,0.13287,0.033811,0.047377,0.031203,-0.0062388,-0.028189,-0.0055365
0.07366,-0.20114,0.12128,-0.095908,-0.079963,0.008505,0.038121,0.044187
-0.102,0.25733,-0.074698,0.040944,0.058448,-0.016299,0.010084,0.061564
-0.085315,-0.18766,0.03602,0.35112,0.095653,0.044524,-0.034474,-0.10207
0.097272,0.15805,0.32328,-0.13329,-0.0068066,-0.011951,-0.025403,0.037582
0.022103,-0.089806,-0.087318,-0.014865,-0.068944,0.0019751,0.029473,-0.011543
-0.18599,0.14547,-0.025496,0.11777,0.026386,-0.0072827,0.020903,-0.0069138
-0.0020702,-0.41069,-0.18219,-0.082901,0.0054096,-0.039604,-0.043078,-0.010509
-0.063937,0.17856,-0.085486,-0.097515,-0.062095,-0.016799,-0.0059489,-0.021711
0.14754,0.092818,0.10334,-0.42191,-0.0048556,0.11583,0.077881,-0.0086792
-0.020503,-0.11284,0.16879,0.55065,0.08282,-0.024563,0.0055348,0.083705
0.16882,0.19512,-0.21287,-0.29829,-0.065104,-0.055229,-0.082162,-0.002197
0.0056653,0.20506,0.35508,0.37514,0.098043,0.015955,0.018063,-0.0086935
0.012994,-0.62126,-0.28345,-0.076167,-0.060515,-0.02981,0.0016166,0.016956
-0.14702,0.27156,-0.22805,-0.27495,-0.056131,0.018386,-0.014281,-0.019547
0.022835,0.071505,0.16526,0.19561,0.025721,-0.0035394,0.025017,-0.064094
-0.097684,-0.10398,-0.22448,-0.19284,-0.033132,0.0059335,-0.013428,-0.0077924
0.066893,0.21385,0.30193,0.20286,0.080385,0.031092,0.042047,0.055306
0.12419,0.056074,0.19272,-0.24822,-0.023883,-0.0063317,-0.027576,-0.031134
-0.13728,-0.42911,-0.12096,0.36894,0.06059,0.041917,0.035243,0.068941
-0.068411,0.23467,0.071609,-0.18009,-0.11927,-0.11341,-0.0040753,-0.034832
0.019974,0.10203,-0.0045921,0.10374,0.10043,0.035371,-0.059663,-0.01398
-0.01048,-0.20192,0.10902,0.039224,-0.022818,0.035088,-0.0064097,0.014685
0.11602,0.0026905,-0.56651,-0.22693,-0.08313,-0.020435,-0.015905,-0.02662
0.057691,0.12231,0.1936,0.045939,0.0832,0.025233,0.045072,0.010817
-0.012369,-0.038313,0.0057029,0.075571,0.038414,-0.015143,0.036334,0.0021654
-0.039122,0.090936,-0.036259,-0.20877,-0.10825,-0.039699,-0.018315,0.03341
0.0082365,-0.037267,0.12331,-0.096043,-0.044302,-0.0012837,-0.017103,-0.051778
-0.011909,-0.10327,0.20437,0.38286,0.10531,0.061238,0.0087273,0.027669
-0.046077,0.09532,-0.073247,0.0095448,0.020334,-0.0083153,0.0042881,0.01368
-0.032874,-0.098357,0.056786,0.073226,-0.010125,0.00091624,-0.030792,-0.023716
0.050346,0.36224,-0.069374,-0.12154,0.013896,-0.0050302,0.043634,0.032411
-0.08589,-0.53065,-0.47534,-0.22348,-0.024878,-0.010835,-0.022945,-0.044695
0.042699,0.19221,0.47909,0.12645,-0.048422,-0.040273,-0.012246,0.010497
0.061168,-0.077759,-0.11283,-0.017177,0.0056989,0.039158,0.0050591,-0.028575
-0.077355,0.058818,0.06091,0.041083,0.043735,0.00066207,0.0053234,0.02567
0.18944,0.13403,-0.09382,-0.11243,-0.027988,0.0081801,0.019761,0.063983
-0.092012,0.09375,0.071159,0.11657,0.032853,0.0070239,-0.021806,-0.061942
-0.00043418,-0.10094,0.047951,0.064619,-0.023584,-0.018312,-0.0019058,-0.00042778
-0.01298,-0.075244,0.11792,0.052483,-0.0096472,-0.0051079,0.0017312,0.0064203
-0.067503,-0.14217,-0.19516,-0.27111,-0.01897,-0.023386,-0.01825,-0.0022787
0.023567,0.072677,-0.38302,0.17206,0.096958,0.020914,0.02455,0.020394
-0.03604,0.060836,0.48455,0.12413,-0.052452,0.026514,0.068048,0.011986
0.020421,0.28269,-0.11558,-0.29787,0.0172,0.001438,-0.090557,-0.019625
0.12414,-0.38717,0.0040767,0.13247,0.0012704,0.00048111,-0.0057581,-0.035297
-0.2154,0.011897,0.085192,-0.0068788,-0.17829,-0.07792,-0.021261,-0.019332
0.2065,0.12825,-0.060677,0.041777,0.15048,0.07864,0.0425,-0.010756
0.0082719,0.0088224,0.096556,0.1143,0.081413,0.01688,0.052437,0.068512
-0.13749,0.083527,0.22774,-0.41436,-0.2136,-0.075879,-0.046545,0.077703
-0.074496,-0.20979,-0.3629,0.47143,0.27319,0.089273,0.034148,-0.030286
0.21223,0.17616,-0.19063,-0.11107,-0.083412,-0.050258,-0.010618,-0.029144
-0.13801,-0.28158,-0.027585,-0.036683,-0.13519,-0.049178,-0.040553,-0.09876
0.099461,0.30807,0.22983,-0.078601,0.10199,0.053502,-0.016745,0.018602
0.070873,-0.10924,0.13074,-0.025602,-0.020508,0.015678,0.013989,0.049574
-0.26511,0.099527,-0.36199,-0.23686,-0.12003,-0.084457,-0.018423,-0.036909
0.18325,-0.20623,0.44792,0.3813,0.12365,0.065595,0.034806,0.064074
-0.077681,0.098375,-0.11169,-0.054388,-0.023964,0.02042,0.0178,-0.030098
0.092076,0.013082,-0.034592,0.11136,0.054203,0.014189,0.032435,0.0087994
-0.002445,0.021978,0.14542,0.05689,0.045498,0.0075872,-0.022645,0.047943
0.046365,0.14044,-0.17618,-0.34428,-0.065827,-0.023049,-0.022346,-0.0064969
-0.12642,-0.20977,-0.17396,0.19563,-0.029783,-0.046577,-0.029165,-0.045225
-0.096047,-0.0051383,0.23622,-0.0037406,0.052252,0.03082,0.011533,-0.013561
-0.054769,-0.018869,-0.18835,-0.20007,-0.17867,-0.11873,-0.025337,-0.052023
0.086039,-0.024068,-0.02496,0.045187,0.090587,0.10673,0.055434,0.0036511
0.18751,0.057654,0.15808,0.28073,0.12639,0.059168,0.019338,0.059927
-0.023361,0.22633,0.019717,-0.28021,-0.13306,-0.065795,-0.032231,0.038807
0.030451,-0.29959,-0.15601,0.16941,0.09396,0.06009,-0.021352,-0.051955
-0.067544,0.088612,0.14105,-0.055948,-0.0048929,-0.039855,0.020498,0.04516
