-0.13338,-0.43717,-0.25891,-0.080822,-0.049748,-0.036531,-0.034478,-0.046288
0.064988,0.5306,0.24262,0.031388,0.0099175,0.014615,0.0019222,0.007802
-0.14052,-0.61365,-0.35175,-0.066739,-0.031137,-0.011271,-0.031449,-0.0309
0.10257,0.46122,0.34946,0.039928,0.01514,0.019105,0.029938,0.033195
0.18506,-0.20262,0.16729,0.12569,0.086583,0.043474,0.061391,0.090774
-0.1437,-0.039988,-0.17898,-0.145,-0.074628,-0.063259,-0.05422,-0.10842
0.29443,0.63836,0.31085,0.2042,0.10923,0.073473,0.065679,0.11473
-0.2448,-1.1123,-0.80855,-0.14009,-0.073548,-0.039234,-0.055982,-0.092231
0.041149,0.70716,0.32994,-0.06209,-0.038013,-0.0038138,-0.0058241,0.019727
-0.044729,0.22014,0.62476,0.2412,0.11324,0.053876,0.051365,0.090323
-0.15944,0.080559,-0.66605,-0.2553,-0.14407,-0.0934,-0.080337,-0.14667
0.11149,-0.52632,0.098577,0.13468,0.088002,0.054016,0.067456,0.10553
0.1055,0.29635,0.37239,0.051192,0.0047734,-0.011625,-0.013102,-0.019793
-0.30796,-0.87393,-0.91432,-0.29456,-0.12763,-0.063295,-0.048261,-0.099725
-0.087414,0.6897,0.82478,0.090652,0.035437,0.0091446,-0.037421,-0.093759
0.37855,-0.074462,-0.41816,-0.010234,-0.0048597,0.0034793,0.012374,0.085621
0.25515,0.31074,0.7,0.31885,0.19016,0.13151,0.13316,0.20545
0.1284,-0.52999,-0.67341,-0.13105,-0.058174,-0.051408,-0.03379,-0.030186
-0.26815,0.5345,0.60081,0.071449,-0.014776,0.0097575,-0.0036828,-0.019382
-0.57647,0.063676,-0.41615,-0.37718,-0.13244,-0.059969,-0.034202,-0.051498
0.15524,-0.42298,-0.34234,0.20323,0.041904,-0.010853,-0.03174,-0.09613
0.18382,0.28147,0.1737,-0.039118,-0.015586,-0.015236,-0.043535,-0.045113
0.094839,-0.075882,-0.14079,0.058845,0.061576,0.035693,0.047083,0.061109
0.091593,0.2073,0.82486,0.057994,0.022477,0.039813,0.036391,0.057111
0.19808,-0.085633,-0.21672,0.034384,-0.0088934,-0.0033467,0.072231,0.1839
-0.49123,-0.77765,-0.56844,-0.045422,0.036819,-0.0081523,-0.049019,-0.13748
0.20402,-0.11892,-0.11146,0.10573,0.041697,0.025304,0.055144,0.14728
-0.30958,0.79012,0.85865,-0.15399,-0.14305,-0.10597,-0.18564,-0.46166
0.19434,0.32519,-0.64157,0.0032948,0.021773,0.020191,0.025737,0.083214
0.074185,0.07863,0.48197,-0.070048,-0.088286,-0.041146,-0.0056188,0.15002
-0.031195,-1.189,-0.70847,-0.16922,-0.0036283,0.054062,0.041087,-0.010297
0.29763,0.27086,0.53621,-0.065561,0.057881,0.063715,0.064649,0.13417
-0.02013,0.2178,-0.73866,0.54757,0.15939,0.018862,0.0026488,0.0054537
-0.33045,0.90035,0.68356,-0.40667,-0.17543,-0.080969,-0.043591,-0.11552
0.43597,0.60443,0.80038,0.86108,0.46722,0.25579,0.25356,0.34091
-0.12632,-0.84428,-0.82035,-0.53271,-0.31954,-0.21362,-0.19242,-0.25871
-0.94412,-0.7811,-0.055617,-0.61285,-0.33334,-0.20044,-0.24916,-0.39905
0.49506,-0.36462,-0.35962,0.43932,0.16738,0.11573,0.15352,0.28735
0.048396,-0.18548,-0.14633,-0.15103,-0.020863,-0.0068114,-0.046599,-0.09708
0.15878,0.060789,0.29633,0.39653,0.21916,0.13588,0.13545,0.18331
0.33008,0.78253,0.43104,-0.25406,-0.073175,-0.033425,-0.0026765,0.043907
0.0011674,0.63761,0.08774,0.053987,0.047947,0.03296,0.00069933,0.0013322
-0.27486,0.31992,0.31469,-0.25647,-0.19039,-0.11759,-0.11952,-0.17838
-0.21326,-0.61404,-0.88748,0.37827,0.14195,0.077558,0.10559,0.15291
0.2812,-0.683,-0.4487,-0.25946,-0.071931,-0.030308,-0.011631,-0.037016
-0.18151,0.15279,0.59872,0.096664,0.035248,0.019164,0.012687,-0.022996
0.30583,0.47765,0.42478,0.11867,0.057151,0.022072,0.0060017,0.076256
-0.25428,-0.25727,-0.4183,-0.14701,-0.092383,-0.069267,-0.071426,-0.084316
0.096266,0.15858,0.27758,0.095594,0.13323,0.10384,0.084574,0.080443
-0.064297,-0.38159,-0.021435,0.12661,-0.070949,-0.060568,-0.049653,-0.10142
-0.40478,-0.44159,-0.32491,-0.36748,-0.20506,-0.12506,-0.13022,-0.2308
0.36938,1.0126,0.36707,0.026785,0.11374,0.082544,0.069924,0.18573
-0.023852,-0.31704,-0.19323,0.23137,0.16694,0.12538,0.19212,0.28254
0.30573,0.58666,0.42093,0.25497,0.10341,-0.02694,-0.051839,-0.11071
-0.46338,-0.91337,-0.85341,-0.48672,-0.25596,-0.10786,-0.13773,-0.18812
0.36903,0.43689,0.32092,0.15693,0.019202,0.047595,0.060095,0.11347
0.03998,-0.39848,-0.42175,-0.19449,-0.10168,-0.067687,-0.075216,-0.041877
-0.28627,-0.23119,0.27802,0.054851,0.085028,0.062316,0.042257,-0.0063468
0.13047,0.17019,0.25295,0.085868,0.024828,7.705e-05,0.052698,0.046996
0.075519,0.5557,0.26071,0.2266,0.092387,0.026344,0.049003,0.061887
-0.23715,0.11545,-0.063531,-0.12621,-0.049169,-0.023901,-0.071576,-0.17437
0.054483,-0.012157,0.26203,0.13362,0.09085,0.066785,0.041158,0.13341
-0.02329,-0.067232,-0.39353,-0.34982,-0.1613,-0.07807,-0.059446,-0.047414
0.15029,-0.3148,-0.10754,0.23123,0.075276,0.016686,0.016156,0.047884
-0.13107,0.16853,0.47383,0.1849,0.064582,0.037445,0.02514,-0.034061
0.34952,-0.16727,-0.59646,-0.27317,-0.084973,-0.039846,-0.0091271,0.0040868
-0.29113,-0.53939,-0.48662,-0.14423,-0.13911,-0.11364,-0.09394,-0.11
-0.044116,0.36385,0.26595,0.15862,0.11395,0.11352,0.04516,0.039379
0.34308,0.66399,0.74631,-0.0021875,0.035229,0.025515,0.11265,0.20411
-0.7041,-0.89621,-0.87869,-0.2782,-0.1465,-0.11847,-0.17127,-0.27798
0.35755,0.50658,0.80945,0.45332,0.28205,0.19861,0.14784,0.18849
-0.10076,0.086959,-0.17745,-0.13808,-0.1301,-0.092242,-0.030569,-0.051641
0.11167,-0.089937,-0.14227,-0.079146,-0.10012,-0.091637,-0.073164,-0.091638
0.21534,-0.1175,0.10106,0.00014078,0.083723,0.11504,0.098237,0.16987
0.29619,0.73593,0.60209,0.36616,0.14013,0.059124,0.077002,0.14619
-0.5147,-0.90292,-0.9212,-0.32617,-0.18959,-0.15035,-0.19226,-0.35135
0.12334,-0.21524,-0.019252,-0.056583,0.030528,0.024984,0.02398,0.058684
-0.098215,0.35716,-0.017909,0.029918,-0.021777,-0.064293,0.052946,0.062429
-0.49586,-0.15321,-0.19724,-0.048154,-0.036094,0.065069,-0.090535,-0.14605
0.4971,0.31605,0.65456,0.071696,0.11065,0.08379,0.092867,0.21343
0.049653,0.19416,0.4373,0.26854,0.088836,0.053341,0.024519,-0.0084
0.081817,0.57529,-0.15885,-0.10041,-0.055451,-0.042619,0.00095683,-0.062161
0.37428,-0.85036,-0.56657,-0.2307,-0.087758,-0.094939,-0.024842,0.043989
-0.30633,-0.037579,0.010856,-0.034487,-0.038299,-0.017272,-0.0059269,0.0053601
-0.13691,-0.046387,-0.28296,-0.0079744,-0.030168,-0.0038566,-0.02009,-0.021364
-0.57378,-0.85468,0.04996,-0.075717,0.017287,0.017249,-0.051102,-0.16026
0.55321,0.75783,0.47825,0.50228,0.21617,0.1339,0.23782,0.33229
-0.15539,0.05936,-0.39624,-0.33921,-0.22013,-0.26924,-0.26948,-0.28414
-0.021302,0.090349,0.33188,-0.32312,-0.094649,0.059191,0.013952,-0.038854
0.14776,0.50532,0.073171,0.4816,0.14779,0.088473,0.02653,0.0465
0.22889,0.28258,0.11747,-0.035667,0.14696,0.17748,0.089131,0.12947
-0.34943,-0.96343,-0.40545,-0.073995,-0.036798,-0.050328,-0.024708,-0.078495
0.4474,0.37015,0.26362,0.29057,0.06999,0.0043227,0.1377,0.24252
-0.1767,-0.37388,-0.44655,-0.29242,-0.20019,-0.12994,-0.19019,-0.26818
-0.1754,-0.11108,0.26691,-0.063772,-0.014552,-0.06488,-0.0096249,0.012385
0.23229,0.53304,0.49667,0.096602,0.05443,0.025957,0.092096,0.12096
-0.0067891,-0.1429,-0.10763,0.2019,0.13881,0.12633,0.027837,0.0084401
-0.24748,0.014081,-0.033438,-0.34103,-0.16682,-0.075707,-0.039172,-0.045611
-0.24731,-0.2463,-0.85775,-0.22402,-0.21959,-0.17237,-0.14051,-0.18269
0.0051674,0.16411,0.041824,-0.16014,0.0070905,0.1276,0.075602,0.058189
-0.16372,-0.32884,-0.060753,0.50566,0.3135,0.10782,0.016077,0.021691
0.72951,0.24827,0.67242,0.068616,0.014963,-0.010893,0.049056,0.076476
-0.20737,0.23568,0.25841,0.11903,-0.011831,-0.070929,-0.011939,0.013281
0.34219,0.22249,0.03222,-0.036691,0.022359,0.08442,0.013661,0.036737
-0.32375,-0.36015,-0.61217,-0.21219,-0.10249,-0.045293,-0.092296,-0.13335
-0.074233,-0.11393,0.2387,0.18273,0.087836,0.062212,0.0845,0.14411
-0.1401,-0.063724,0.080761,-0.052304,-0.057918,-0.071159,0.028346,-0.037213
0.2464,0.53066,0.44664,-0.00070706,0.043596,0.029629,0.020193,0.033126
0.032577,-0.40294,-0.53822,-0.010647,-0.046895,-0.089733,-0.026275,-0.012712
-0.24727,-0.13115,-0.66974,-0.37386,-0.2128,-0.023616,-0.12699,-0.17531
0.1463,0.19011,0.63283,-0.16902,-0.0081543,0.01703,-0.0086678,0.01373
0.14283,0.3439,0.085364,0.51148,0.17801,0.024882,0.12563,0.16371
-0.54426,-0.81507,-0.21882,-0.017132,0.019685,0.055391,-0.11454,-0.2096
0.30846,0.22493,0.13597,0.021863,0.097002,0.039018,0.16167,0.23775
-0.074217,0.24134,0.18413,0.19403,0.0051806,-0.062736,-0.069061,-0.072238
-0.029749,-0.15321,-0.17975,-0.16235,-0.05984,0.070667,0.0057206,0.047862
0.064532,0.17594,0.025139,-0.22555,-0.10611,-0.1234,-0.059546,-0.089727
0.73588,0.807,0.65441,0.32534,0.19357,0.16719,0.15661,0.17865
-0.47488,-0.81631,-0.93679,-0.25969,-0.13861,-0.11276,-0.11973,-0.20207
-0.075844,-0.47812,-0.17528,0.026869,0.01327,-0.05743,-0.060897,-0.02901
-0.38917,0.29457,0.26112,-0.19037,-0.14077,-0.026502,0.028065,0.033772
0.2541,0.11536,0.03703,0.33821,0.14104,0.11275,0.053196,0.056833
0.084948,0.1451,0.34682,-0.036213,-0.024022,-0.061461,-0.032451,-0.021935
-0.040879,0.11563,0.25048,-0.00168,0.052064,0.083875,0.021166,-0.030258
-0.41615,-0.32641,-0.26361,-0.30116,-0.10654,-0.013511,0.026665,0.047738
0.28343,-0.24458,-0.31711,0.25173,0.10247,-0.10341,-0.039223,-0.022329
0.39765,0.35291,0.062263,0.18684,0.07804,0.18153,0.0581,0.11082
-0.077472,0.0053689,-0.27725,-0.20835,-0.15614,-0.15073,-0.017009,-0.061124
0.19823,0.49484,0.85017,0.095893,0.071736,0.017152,-0.037607,0.023797
-0.21531,-0.15382,-0.56307,-0.13599,-0.035539,0.013523,-0.065728,-0.080138
-0.27211,-0.46974,-0.14773,-0.076461,0.06065,0.026158,0.01632,-0.052719
-0.31458,-0.30958,0.013697,0.071567,-0.10108,-0.10867,0.021505,0.028224
0.14534,-0.20154,-0.10589,0.074771,0.049266,0.14062,0.059535,-0.047579
0.33987,0.77133,0.94287,0.23183,0.074078,-0.0069235,0.1071,0.21298
0.064916,-0.11546,-0.84467,-0.2596,-0.073398,-0.10579,-0.1406,-0.095354
0.046163,0.52162,0.36139,-0.092292,0.044644,0.19561,0.034861,-0.0029808
-0.015117,-0.44329,-0.18886,-0.31862,-0.24329,-0.21223,-0.077916,-0.048416
-0.74769,-0.051433,-0.082874,0.50059,0.20375,0.021893,-0.026339,-0.044048
0.36557,-0.18074,0.090584,-0.11064,-0.0047778,0.0067642,0.040621,0.017551
0.45626,-0.10755,-0.023695,0.12048,-0.009735,-0.055291,0.044336,0.065212
0.20034,0.40032,0.35165,0.36391,0.21955,0.31131,0.085927,0.10552
0.014186,0.17782,-0.12284,-0.50029,-0.16148,-0.1523,-0.069322,-0.011368
-0.4678,-0.61068,-0.28573,0.071679,0.018238,0.060736,0.031525,-0.083655
-0.25917,-0.22159,-0.23992,-0.19633,-0.17154,-0.23776,-0.080253,-0.073264
0.049903,0.71424,0.28029,-0.079604,0.026912,0.022338,-0.052816,0.0037437
-0.081862,-0.32482,-0.01284,0.10864,-0.018778,0.021061,0.020599,-0.086823
0.1579,-0.025302,0.14858,0.18135,0.1064,0.095245,0.03128,0.1089
0.34883,0.51871,0.42356,0.34303,0.17712,0.1837,0.07366,0.084189
0.0089901,-0.36639,-0.84132,-0.37302,-0.25063,-0.25108,-0.023563,-0.058182
-0.11665,0.027505,0.38785,-0.13634,-0.011686,-0.027844,-0.025653,0.026611
-0.017708,-0.052879,0.10551,0.10232,0.10561,0.0032417,0.059686,0.050308
-0.13732,0.07711,-0.45223,-0.27214,-0.070424,0.17134,-0.064539,-0.08818
-0.083142,0.11896,0.53611,0.53086,0.2177,-0.0073699,0.023273,0.048839
0.029001,-0.74748,-0.6321,-0.37078,-0.25736,-0.27513,-0.13816,-0.14801
0.47368,1.0346,0.87114,0.43674,0.19861,0.2815,0.2008,0.1962
-0.31061,-0.61683,-0.22833,-0.45406,-0.14996,-0.057421,-0.061731,-0.035835
-0.24482,-0.56409,-0.79109,0.056331,-0.030778,-0.082529,-0.11353,-0.21921
0.20312,0.83845,0.50952,0.16063,0.008367,0.048133,0.13106,0.16935
-0.1537,-0.045738,-0.070297,-0.20641,-0.072244,-0.010953,-0.070396,-0.073551
-0.041662,-0.0112,0.50703,0.31211,0.2114,0.03559,0.047468,0.14539
0.55443,0.58284,0.16217,0.019107,0.085789,0.046142,0.070371,0.052067
-0.39004,-1.0312,-0.81653,-0.18767,-0.089507,-0.057732,-0.07993,-0.11995
0.21679,0.62738,0.031692,0.012711,-0.063978,-0.0021377,0.049747,0.06602
-0.32283,-0.73496,-0.33198,-0.25287,-0.1493,-0.15306,-0.10279,-0.14851
-0.050701,0.30683,0.31934,-0.020583,0.022783,0.053767,-0.021351,0.0095462
0.26491,0.38938,0.43876,0.27541,0.10975,0.13603,0.060467,0.032372
0.090455,0.087913,0.50987,-0.0024202,0.034601,-0.0058364,0.010704,0.021902
-0.26323,-0.41152,-0.65641,0.21843,0.016926,-0.049948,-0.0058267,0.041265
-0.023599,-0.022874,-0.10909,-0.17844,-0.052318,-0.050089,-0.01991,-0.025973
0.35617,0.20076,-0.022143,-0.2172,-0.0015095,0.15008,0.062248,0.094372
-0.26384,-0.40973,-0.19384,0.06875,-0.026771,-0.11423,-0.048846,-0.097062
-0.038556,0.39132,0.47723,0.40289,0.20661,0.093121,0.075642,-0.0060573
-0.23983,-0.14247,-0.35917,-0.30412,-0.24807,-0.12027,-0.081044,-0.10891
0.28233,0.32022,0.45594,-0.016228,0.068795,0.087494,0.073661,0.11786
0.18532,0.063018,-0.34716,0.07706,0.007787,-0.050888,-0.00030934,0.072516
-0.10842,-0.3737,-0.39722,-0.27482,-0.080016,-0.06789,-0.14732,-0.096888
0.096336,-0.31,0.28591,0.15568,0.11798,0.067095,0.05442,0.046593
-0.17751,0.32368,0.048415,0.027181,-0.022572,0.033735,0.011567,-0.005499
0.06943,0.19764,0.62532,0.10074,-0.0084324,0.01227,0.021834,0.01964
-0.13967,-0.041885,-0.36743,-0.18266,-0.064875,-0.050984,-0.015301,-0.097256
0.14873,0.36039,0.10629,-0.015332,-0.034361,-0.021919,0.026186,0.026323
-0.19686,-0.86376,-0.56677,0.08906,0.10763,0.061805,-0.0091577,-0.0081025
0.10702,0.0098372,0.007827,0.13889,0.041479,0.0062127,0.019728,0.088772
0.29755,0.60426,0.655,0.32077,0.11901,0.0077197,0.081624,0.098698
-0.45034,0.11346,-0.17388,-0.5236,-0.22246,-0.10481,-0.12066,-0.212
0.20202,-0.30701,-0.15067,0.11082,-0.01473,-0.010808,0.052949,0.055963
-0.17318,-0.4306,-0.51585,-0.1616,-0.0085729,0.062924,-0.085661,-0.049716
0.080847,0.36053,0.13984,-0.038599,0.029493,0.060941,-0.02924,-0.075214
0.04895,0.2162,0.41374,0.21254,0.051661,0.036774,0.088982,0.15955
0.23617,0.060364,0.29352,0.083219,-0.028915,-0.01877,0.018762,0.052954
-0.010072,0.19269,-0.0075041,-0.15311,0.068188,-0.067985,0.025651,0.01074
-0.054023,-0.3834,-0.33992,0.051075,0.03763,-0.018191,-0.0231,-0.04615
-0.16609,-0.57812,-0.40736,-0.045364,-0.074084,-0.018403,-0.072627,-0.06418
-0.10791,0.19823,0.2727,0.019773,-0.048181,-0.021718,0.0023284,-0.0054181
-0.022239,0.27677,0.49434,0.1853,0.022077,0.081841,0.061457,0.019896
0.16893,-0.020829,-0.48803,-0.19596,-0.057679,-0.058256,-0.012091,-0.027715
0.10032,0.48419,0.20487,-0.075969,0.0028955,0.043606,0.016395,0.023742
-0.24018,-0.078875,-0.18018,0.15566,0.11147,0.044873,0.022215,0.065509
-0.090319,-0.37991,-0.20825,-0.12523,-0.090011,-0.13945,-0.088131,-0.096731
0.32011,-0.1058,0.18947,0.10545,0.094725,0.17867,0.021474,0.0069557
-0.028411,0.34554,0.73934,0.074643,0.0098805,-0.016291,0.022986,0.073025
0.10111,0.05411,-0.33071,-0.13947,-0.071252,-0.10747,-0.052382,-0.077318
-0.23569,-0.092716,-0.42394,-0.005959,0.0068711,0.037332,0.084245,0.04078
-0.14114,-0.28994,-0.20761,-0.1271,-0.077209,-0.067028,0.0028416,0.0054077
0.23398,-0.15064,0.0037555,0.17565,0.073539,0.016165,-0.031432,0.026964
0.03468,0.13732,0.1461,0.010137,0.08267,0.11435,0.0043294,0.01076
0.085174,0.12259,0.27991,0.054301,-0.027643,-0.015181,0.0080436,-0.0053043
-0.063597,0.16677,0.26104,0.19701,0.022977,-0.02895,-0.028523,-0.038009
0.093266,0.098762,0.036866,-0.17255,-0.12518,-0.098869,-0.019693,-0.033607
-0.32865,-0.63845,-0.75262,-0.28957,-0.026542,0.064326,0.0032175,-0.03173
-0.2591,-0.012522,0.0065087,-0.068094,-0.031874,-0.031167,-0.0065495,-0.016883
0.28756,0.91024,0.62905,0.08651,0.10217,0.099516,0.091895,0.16747
0.094791,-0.30036,-0.37641,0.35549,0.11123,0.02718,-0.0057715,-0.03277
0.11042,0.094085,0.32618,-0.063914,-0.073867,-0.16183,-0.056945,-0.069934
0.11793,0.18227,-0.13766,-0.021286,-0.03829,0.056173,0.0013132,0.0099319
0.017367,-0.28193,-0.00039493,-0.10084,0.015172,0.0015428,-0.041513,-0.034591
-0.36228,-0.45528,-0.19532,-0.15285,-0.015167,0.0022307,0.0024472,0.031477
0.13555,0.041717,0.24552,0.17499,0.042081,0.11256,0.07097,0.021019
-0.0047141,-0.27295,-0.4023,0.0078533,-0.0091094,-0.074215,-0.015495,0.0044824
0.11544,0.51445,0.15489,-0.053144,-0.052324,-0.042967,0.00084527,0.020841
-0.23807,-0.21791,-0.23293,-0.17304,-0.041364,0.010595,0.010443,-0.016097
0.091501,0.44852,0.65962,0.53739,0.17956,0.055047,0.013016,0.018339
-0.051616,-0.12344,-0.30223,-0.39228,-0.13192,-0.065745,-0.069897,-0.087111
-0.050058,-0.2615,-0.27072,0.020667,-0.030355,-0.031058,-0.019871,-0.035829
0.080063,0.19447,0.37294,0.16542,0.093998,0.042561,0.061253,0.086065
0.2358,0.42333,0.38571,-0.2168,-0.055187,0.0074256,-0.0064168,0.028428
-0.038249,-0.45498,-0.45404,-0.03261,0.022676,0.059563,0.026974,-0.0057771
-0.16686,-0.25316,-0.22064,0.0072331,-0.09379,-0.081742,-0.033979,-0.048033
0.40166,0.69137,0.12863,0.22368,0.11913,0.021258,0.0059785,0.041956
-0.49913,-0.66919,-0.15954,-0.17148,-0.026064,0.0090941,-0.017248,-0.017466
-0.073502,0.33051,0.6787,0.18984,0.079668,0.014147,0.021335,0.015454
0.18683,-0.17207,-0.58321,-0.074472,-0.072071,0.012277,0.020186,0.01534
-0.044043,-0.34813,-0.40453,-0.10456,-0.036716,-0.052074,-0.028452,-0.080544
0.042157,0.38478,0.26439,0.013845,-0.010342,-0.0079252,-0.022922,0.03247
-0.026746,0.29162,0.1924,-0.14899,-0.032659,0.034564,0.0056625,0.018682
0.050495,-0.23614,0.53862,0.23487,0.091228,0.020166,0.057485,0.042665
-0.1757,-0.24444,-0.27305,-0.01456,-0.029427,-0.0044462,-0.039105,-0.058903
0.20301,0.32875,0.28956,0.24314,0.16808,0.062477,0.052092,0.082071
0.077487,-0.25402,-0.70321,-0.26548,-0.19853,-0.13006,-0.082695,-0.15845
0.11019,0.25073,-0.35361,-0.15726,-0.089392,-0.12025,0.017768,0.056341
-0.17068,-0.19858,0.36074,0.045126,0.11368,0.20231,-0.01344,0.023968
-0.011203,0.08731,0.024372,-0.047855,-0.017984,-0.0051649,0.019183,-0.028742
-0.11843,0.34172,0.50272,0.21346,0.055592,-0.038796,0.029748,0.10113
-0.19872,-0.50042,-0.22198,-0.076132,-0.0087445,0.039267,-0.020936,-0.040216
0.3787,0.44115,0.15252,-0.0019858,-0.015485,-0.013256,0.0074369,0.0070816
-0.089871,-0.33443,-0.24337,0.068628,0.0038759,0.014077,-0.0028035,-0.0082432
0.083885,0.28445,-0.020955,0.0021155,-0.0059734,-0.05138,0.025892,0.037584
0.01126,-0.48491,-0.21249,0.062764,0.094719,0.10201,-0.0086128,-0.051689
-0.28958,0.21196,0.29941,-0.063562,-0.07781,-0.11244,-0.013044,-0.065599
-0.073857,-0.11026,-0.2573,-0.21442,-0.11036,-0.031194,-0.058012,-0.035338
0.30106,-0.082597,0.096239,-0.00050578,0.0355,0.04871,0.020468,0.047439
-0.10922,0.063483,-0.09826,0.13978,0.046888,-0.021035,-0.0040418,0.035132
0.10893,0.15043,0.2554,0.057599,0.0096269,0.033377,0.064048,0.069281
0.40684,0.31077,0.22147,-0.036108,0.01754,0.017103,0.0063458,0.010045
-0.64797,-0.33432,-0.33992,0.054305,0.016128,0.0087063,-0.043969,-0.087383
0.418,0.6605,0.42256,0.079403,0.029075,0.031935,0.046247,0.089688
-0.19472,-0.82555,-0.71083,-0.15538,-0.044905,-0.038082,-0.050866,-0.083836
-0.096916,0.19351,0.078842,-0.15696,-0.096133,-0.068591,-0.022614,-0.061353
-0.093106,0.069491,0.35259,0.10687,-0.0070993,-0.036377,0.013934,0.078662
-0.033083,-0.21295,-0.094013,0.074566,0.11315,0.10509,0.011939,-5.8355e-05
0.11737,0.11322,0.058374,0.1063,0.046174,0.019469,0.018225,-0.00089164
0.033597,0.1607,0.12165,-0.016125,-0.01246,-0.012424,0.024847,0.044767
0.039105,-0.43215,-0.74814,-0.28469,-0.13288,0.0012564,-0.0387,-0.09749
-0.066962,0.17838,0.77734,0.15201,0.0053408,-0.049039,-0.0085539,0.025526
0.56797,0.72065,0.30804,0.090384,0.10538,0.1024,0.076066,0.093645
-0.39219,-0.66154,-0.92854,-0.10307,-0.082772,-0.2003,-0.10521,-0.11951
0.090646,-0.018858,0.33449,0.19589,0.16742,0.16076,0.057086,0.089407
-0.31278,0.14511,0.10642,-0.052436,-0.089381,-0.024472,-0.054026,-0.060664
-0.16578,-0.27507,-0.07209,-0.1531,-0.11883,-0.15346,-0.00073361,0.00076631
-0.085779,0.083176,0.019203,-0.12164,0.0087965,0.16527,0.021981,-0.0074144
0.41188,0.018772,0.069001,0.22993,0.11385,0.018215,0.061258,0.078952
-0.01612,0.52469,0.046791,-0.066307,-0.014579,-0.0085772,-0.0077697,0.0021202
0.13034,-0.2041,-0.35977,-0.048496,-0.017156,-0.017019,-0.028881,-0.042546
-0.0086654,0.25313,0.40355,0.057531,-0.01124,-0.015715,0.013366,-0.015929
-0.0048378,-0.33934,0.22634,0.056737,-0.020596,-0.037017,-0.05319,-0.058607
-0.15711,-0.87325,-0.83827,-0.16061,-0.0066449,0.019387,0.0054893,-0.029947
-0.22569,0.40856,0.41875,0.20136,0.076893,0.011663,0.025008,0.12464
0.17772,0.13076,0.049892,0.04734,0.0028178,0.040365,0.028512,0.037719
0.17628,0.71484,0.045098,-0.14793,-0.018505,-0.035806,-0.038923,-0.048994
-0.00448,-0.28539,0.097553,-0.042429,-0.0656,-0.029604,-0.013404,-0.042376
-0.18492,-0.39496,-0.29444,-0.09051,-0.060471,0.0044724,0.034661,0.025608
0.2297,0.5793,0.54787,0.36362,0.19239,0.043588,0.050563,0.083987
-0.34465,-0.60697,-0.56287,-0.26547,-0.119,-0.036332,-0.075002,-0.12551
0.19617,0.70877,0.31231,0.023674,0.02959,0.015835,0.025319,0.068854
-0.06688,-0.52832,-0.37854,-0.063602,-0.0015273,-0.0096829,-0.038845,-0.1061
0.12659,-0.058852,0.10265,0.014372,-0.031691,0.013173,0.014077,0.053351
-0.26068,-0.49674,-0.25567,-0.052373,-0.020994,-0.039778,-0.018703,-0.022235
0.25631,0.30303,0.60483,0.13655,0.046766,0.042883,0.066229,0.097772
-0.049814,0.51687,0.069435,0.13678,0.038979,0.05814,-0.012198,-0.015474
-0.017134,-0.21109,-0.47056,-0.18475,-0.044565,-0.088012,-0.043022,-0.07233
0.24182,0.21449,0.14759,0.084601,0.053358,0.033566,0.028308,0.036796
-0.1749,-0.058889,0.1004,-0.026229,-0.043108,-0.030993,0.0062016,-0.0085831
0.096748,0.2467,0.40686,0.08161,0.016648,0.037806,0.023116,0.072267
-0.24991,-0.67868,-0.56301,-0.055373,0.013017,-0.042067,-0.046311,-0.088585
-0.03551,0.072781,-0.18102,-0.14999,-0.093673,-0.0056491,-0.0070593,0.015854
-0.024143,-0.03651,0.057069,0.023481,0.047883,0.05283,0.0078965,0.01766
0.013892,0.42534,0.36797,0.0043971,-0.015334,0.015909,0.037612,0.064765
0.16867,-0.2881,-0.23301,-0.018462,-0.009487,-0.061789,-0.066205,-0.13989
-0.055486,0.13322,0.083549,0.089615,0.058175,0.0073631,0.032638,0.021035
0.15757,0.071678,0.054603,0.072858,0.039788,0.02052,0.029763,0.024555
