-0.024341,0.057755,0.044623,0.024518,0.012684,0.0029354,0.089338,0.02259
0.22091,0.011936,-0.032046,0.017754,0.0052756,-0.011181,-0.09554,0.022705
-0.17639,-0.016979,-0.0072389,-0.0041751,0.0053597,0.020981,0.13219,-0.00045005
0.046369,0.025224,-0.006303,-0.010129,-0.0027254,-0.0023273,-0.12604,-0.054877
-0.052062,-0.041704,0.0017048,-0.0080881,-0.0033733,-0.018708,0.04381,0.015488
-0.10057,-0.015157,0.0087684,0.0095553,0.0034313,0.018726,0.063675,0.04646
0.42088,0.018563,0.03827,0.0035371,-0.0056847,-0.014881,-0.035029,-0.0088451
-0.48997,-0.057876,-0.089365,-0.026308,-0.022789,-0.017695,-0.03326,-0.072178
0.3458,0.052469,0.055824,0.021477,0.014784,0.026278,0.014717,0.036386
-0.46151,-0.025188,-0.041397,0.0062386,0.0056625,0.00026675,0.023516,-0.057862
0.30157,0.029728,0.033488,-0.0094838,0.012523,-0.0093945,-0.053092,0.067215
-0.0018951,0.022107,-0.015951,-0.0099709,-0.011378,-0.010208,0.027756,0.060202
0.030747,-0.024539,0.08411,-0.010726,-0.003488,0.013619,-0.038012,-0.078931
-0.11208,0.053779,-0.025425,0.027435,-0.0029048,0.007382,0.078178,0.087106
0.25246,-0.055626,-0.047514,0.010855,0.013687,0.0099449,-0.053171,-0.051412
-0.50672,-0.0014117,-0.0368,-0.0057249,0.0070357,-0.0024885,-0.018117,-0.088641
0.18069,0.0053206,-0.055867,-0.030101,-0.023075,-0.022565,0.073524,0.053182
0.68796,-0.019837,0.12944,0.031468,0.024709,0.011734,-0.013322,0.053503
-0.73797,-0.00644,-0.043768,-0.0085233,-0.029451,-0.017206,0.11113,-0.033056
0.39138,0.014545,0.041175,-0.0016198,0.017498,0.023132,-0.22583,-0.0032465
-0.060315,0.0044326,0.078938,-0.010263,-0.014103,-0.015812,0.053235,0.010405
-0.040747,0.0026697,-0.11863,0.0047064,0.0086716,0.0301,-0.028701,-0.054203
-0.32396,0.033004,0.026023,-0.0034653,0.0078746,-0.026377,0.043804,0.068988
0.38836,-0.029393,-0.08901,-0.011229,-0.0084845,-0.0051605,0.091106,-0.041518
-0.57241,0.010786,0.020549,0.01273,-0.016796,-0.015164,-0.081905,-0.026099
0.59491,-0.0028804,0.034549,0.013711,0.022108,0.0065541,0.017242,0.091864
-0.62898,-0.047264,0.023654,-0.00058213,-0.0089495,-0.017802,-0.0017725,-0.039343
0.13371,0.017865,0.05081,0.00090595,0.0071331,0.060357,0.0097941,-0.013799
0.73487,0.059269,-0.031972,0.010119,0.03894,0.037845,-0.0024384,0.050877
-0.10158,-0.025001,-0.021175,-0.0044325,-0.023101,-0.046522,0.024355,0.037062
-0.4514,-0.0086754,-0.0024216,-0.027304,-0.030726,-0.013421,-0.089156,-0.15716
0.70941,0.0065365,-0.0067173,-0.011699,0.0081573,0.00395,0.048031,-0.024161
-0.56421,-0.065272,-0.033869,-0.0044532,-0.023623,-0.049412,0.0065959,0.029758
-0.29394,0.033926,0.017837,0.010197,0.0068706,-0.009629,-0.033481,0.043752
0.59531,0.054504,0.031329,0.032451,0.021718,0.052941,-0.0095534,0.13517
-0.4736,0.012572,0.076988,0.10158,0.036774,0.021178,0.10176,0.062025
0.035706,-0.083531,-0.087357,-0.16505,-0.01808,-0.0032275,-0.012307,-0.14417
-0.040253,0.055752,-0.032056,-0.025146,-0.025541,-0.0045119,-0.024107,-0.13152
-0.65232,-0.10044,-0.061898,0.021329,-0.040288,-0.037247,-0.067034,-0.063645
0.61545,0.057469,0.11982,0.12275,0.046943,0.023653,0.022379,0.19279
0.74691,0.12321,0.051916,0.028998,0.040627,0.029814,0.056132,0.05231
-0.07491,-0.10663,-0.094062,-0.14292,-0.043895,-0.042142,-0.052035,-0.078549
-0.015226,0.015869,0.0018308,0.013089,0.019629,0.010981,0.0024725,-0.082643
-0.6261,-0.017797,0.050169,0.028188,-0.019075,-0.0060409,0.040105,0.0083303
0.24863,-0.020901,-0.058714,-0.011669,-0.0039373,-0.014987,-0.055979,0.14667
-0.61072,-0.048879,0.010965,0.034283,-0.013125,-0.015776,0.050645,0.050056
0.88961,0.22577,0.048299,0.002222,0.0316,0.046323,0.0011494,0.084593
-0.34948,-0.15828,-0.0089746,-0.0059978,-0.0023156,0.038483,-0.032074,-0.2349
0.37311,0.017609,-0.051064,-0.068223,-0.0051307,-0.0081114,-0.025199,-0.11967
-0.84746,-0.019787,-0.007119,0.018858,-0.031117,-0.046678,-0.001479,-0.0068826
0.33681,-0.043379,-0.0015813,0.0052693,0.01387,-0.0069809,0.023389,0.057476
-0.1932,0.010093,-0.0027417,0.031449,0.020761,-0.021862,0.080323,0.10586
-0.12689,0.071188,0.036524,0.050125,-0.0024675,0.025896,-0.0030934,0.076967
0.626,0.00011589,0.038063,0.0060678,0.0066741,0.011366,-0.047812,-0.02051
-0.0423,0.0006725,0.087507,0.09402,0.02457,0.0049373,-0.054424,0.01693
0.73386,-0.036101,-0.12034,-0.31147,-0.050652,-0.0011695,0.031354,-0.037432
-0.58088,-0.031941,-0.0626,0.086269,-0.0084412,0.0008148,-0.0015235,-0.051356
-0.33564,-0.0025771,0.049279,0.060764,0.017991,-0.043928,-0.0044102,-0.080322
-0.32436,0.20017,-0.035008,0.0030041,0.012669,0.090967,0.03099,0.015484
0.4502,-0.041159,-0.0030398,0.022899,-0.0012279,-0.024415,-0.082179,-0.014605
-0.22251,-0.22678,0.075003,-0.019606,-0.016029,-0.046515,0.047356,0.20398
-0.15125,0.049518,0.0040801,0.079096,0.030756,0.024556,0.060729,0.030442
0.31884,0.022219,0.0032619,-0.086922,-0.040449,-0.045568,-0.065244,-0.30071
0.054889,-0.12881,-0.059973,0.0059107,0.044005,0.032298,0.13814,0.30465
-0.5764,0.29965,0.0020734,0.0060011,-0.043731,0.0083522,-0.15758,-0.26224
0.64116,-0.020646,-0.0058356,0.0069499,-0.0064942,-7.7805e-06,0.015848,-0.016241
0.4281,-0.137,0.025615,-0.038334,0.023149,-0.023884,0.064111,0.20746
-0.67098,0.13737,0.064999,0.033971,0.0062927,0.038316,-0.067965,-0.10612
-0.17791,-0.19059,-0.083248,-0.0029353,-0.010152,-0.040078,0.0099448,0.012106
0.48402,-0.012392,0.049365,0.030418,0.028419,0.053212,0.0087149,0.062149
-0.29743,0.13221,-0.084228,-0.09272,-0.0031604,0.0054171,0.037911,-0.050077
0.85812,-0.022789,0.070613,0.072818,0.012112,0.01164,-0.019246,0.10454
-0.5651,0.046075,0.0609,0.081627,-0.011831,-0.037542,0.040924,0.0096988
-0.71182,-0.027923,-0.073973,-0.07412,-0.067187,-0.024751,-0.14034,-0.35863
0.73886,-0.095499,-0.075716,-0.089668,0.018053,-0.043297,0.078155,0.35072
-0.95012,0.047583,0.040567,0.097635,0.017573,0.0011841,0.04056,-0.16714
0.089206,-0.089682,-0.037195,-0.09014,-0.013645,-4.0439e-05,-0.034214,-0.13881
0.67955,0.12653,0.066186,0.011256,0.034011,0.078517,0.017757,0.25603
0.53376,-0.029735,0.069298,0.12068,0.035635,0.065152,0.0085373,0.064148
-0.84858,-0.042839,-0.036207,-0.050969,-0.063567,-0.095052,-0.015668,-0.058458
0.60688,0.1569,0.02228,0.01178,0.032985,0.04262,-0.0087713,-0.034018
0.38502,-0.033255,0.0094577,0.050852,0.012359,-0.022663,-0.0027851,-0.011282
-0.46168,-0.075746,-0.098894,-0.20746,-0.016524,0.059813,0.048581,0.025291
-0.58527,-0.011106,0.048383,0.18199,0.0084704,-0.069969,0.01223,-0.1115
0.24494,0.081454,-0.025147,-0.015192,0.0012336,-0.021647,-0.041443,0.11815
-0.38785,-0.048476,-0.076613,-0.09566,-0.06941,-0.052848,-0.10419,-0.23781
0.046042,-0.12703,0.051346,0.042536,0.015595,0.0010628,0.027801,0.15773
0.37393,0.011056,0.024096,0.0092816,-0.0011121,0.02367,0.011531,0.04014
0.30584,0.10975,0.04595,-0.015222,0.029369,0.078198,0.058544,-0.035466
-0.62105,-0.055546,-0.069797,-0.0071311,-0.002007,-0.022415,0.03629,0.024379
0.82421,0.055927,0.13019,0.13532,0.068913,0.073389,0.046155,0.15613
-0.17567,-0.039131,-0.096711,-0.16605,-0.054935,-0.056726,-0.045259,-0.11056
0.10833,0.13602,0.084442,0.12754,0.047907,0.055197,-0.035666,0.1444
-0.03154,-0.14596,-0.0073804,-0.023462,-0.013707,-0.068293,0.035019,-0.033625
-0.91806,0.066488,-0.14705,-0.11962,-0.060555,-0.029484,-0.068199,-0.48141
0.23079,0.036954,-0.046775,-0.028722,-0.030407,-0.063088,-0.064279,0.097978
0.50536,-0.080376,0.10504,0.13153,0.022068,0.057609,0.078303,0.18982
-0.45404,0.095675,0.08917,0.0404,0.026855,0.044161,0.00085358,0.029947
0.2447,-0.14667,-0.078749,-0.060212,-0.03117,-0.10252,-0.03008,0.15123
-0.13911,0.14589,0.046994,0.048328,0.043872,0.10294,0.025499,-0.062175
-0.020028,-0.2677,-0.032881,-0.071413,0.010283,-0.018361,0.10582,-0.0078346
-0.21457,0.10659,-0.051819,-0.067609,-0.022271,0.02622,-0.093415,-0.13077
0.79229,-0.002557,0.022458,0.052354,0.047813,0.033533,0.037169,0.084495
0.50351,0.016071,0.042525,0.046819,-0.045292,-0.043744,0.020685,0.10635
-0.6279,0.14796,-0.021982,0.0022635,-0.0050834,-0.01104,-0.10432,-0.31556
0.076517,0.033855,-0.021953,-0.0027244,0.011749,-0.033245,0.052232,0.27953
-0.63331,0.063469,0.074264,0.016549,-0.010813,0.045183,-0.010091,-0.21769
0.065881,-0.077315,-0.030082,-0.07258,-0.010531,-0.010542,-0.0024615,0.068018
-0.45958,-0.093494,-0.061689,0.011126,-0.0031132,-0.036388,-0.04209,0.050917
0.83235,-0.22105,0.080676,0.11128,0.034973,0.014869,0.074294,0.02007
-0.85748,0.054706,-0.0722,-0.10824,-0.052295,-0.059271,-0.020279,0.037601
0.60204,0.21806,0.010413,0.00079237,0.040061,0.093488,-0.028739,-0.077
0.66875,-0.066215,0.03893,0.00071265,-0.015812,-0.0262,0.10369,0.26101
-0.6243,0.054687,-0.018377,0.039871,0.038087,0.043014,-0.068348,-0.40289
0.58066,-0.06624,0.02559,0.016698,-0.032544,-0.026928,-0.068484,0.11747
0.10737,-0.013682,-0.0013481,-0.0062357,0.037871,0.021507,0.11864,0.14919
-1.0264,0.0022101,-0.083753,-0.075686,-0.055487,-0.054413,-0.14788,-0.3004
0.96329,0.10658,0.090803,0.027228,0.054413,0.080586,0.17864,0.33913
-0.6917,-0.099526,-0.040149,0.005724,-0.046622,-0.074101,-0.065923,-0.087654
-0.56864,0.070302,0.023498,0.047304,0.0085417,0.020188,-0.037654,-0.048123
0.61029,-0.010345,0.0084485,-0.035659,-0.014444,-0.019449,0.021636,-0.024845
-0.64031,-0.10853,-0.061724,-0.0090605,-0.013922,-0.059969,-0.051549,-0.04708
0.50722,0.13395,0.024007,0.095466,0.049282,0.086619,-0.014354,-0.097319
0.40245,-0.064758,-0.023408,-0.14439,-0.0044419,-0.024381,0.055731,0.18528
0.50115,-0.056153,0.085028,0.075644,0.0045923,0.02168,0.026354,0.059314
-0.39327,0.051188,0.0445,0.067788,-0.009647,0.0064672,0.014877,-0.022104
0.31597,0.0086617,-0.1373,-0.22275,-0.016081,0.008256,0.013307,0.049593
-0.50302,-0.049154,0.047385,0.14166,0.031961,0.011288,-0.080435,-0.070737
-0.22454,-0.026684,0.059607,0.13013,0.009302,-0.016059,0.045374,-0.033204
-0.58069,0.12451,-0.13158,-0.20993,-0.052908,-0.043056,-0.039878,-0.073807
0.3242,-0.0086133,0.075859,0.12995,0.0094043,4.9436e-05,-0.0011858,0.0092645
0.19357,-0.050753,-0.044032,-0.083895,-0.030203,-0.02787,0.03562,-0.011422
0.48344,0.013257,0.0015168,-0.0071213,0.047211,0.083748,-0.023836,-0.026927
-0.075167,0.080723,0.056688,0.0091226,-0.0081458,-0.016868,0.031025,0.17358
-0.42267,-0.09215,0.012275,0.066517,0.0070073,-0.0094355,-0.01859,-0.073877
0.89064,-0.022817,0.032177,-0.022668,0.03805,0.043696,0.054172,0.27776
-0.99919,-0.088066,-0.087202,-0.0090038,-0.047863,-0.083719,-0.054762,-0.32593
0.089397,0.14809,-0.0028021,-0.010502,0.014792,0.03065,-0.032004,-0.040832
0.59432,0.0048778,0.081484,0.081288,0.022774,0.004531,0.021961,0.071098
-1.0712,-0.026026,-0.061589,-0.05478,-0.047426,-0.04434,-0.016743,-0.067558
0.76273,0.032019,0.020644,0.010429,-0.00047755,0.040749,0.0013274,0.020565
0.52306,-0.039059,-0.02353,-0.082597,0.0074833,0.017893,0.045636,0.1878
-0.62159,-0.034929,0.024811,0.080527,-0.0077364,-0.011309,-0.016344,-0.15123
0.28647,0.046007,-0.091718,-0.187,-0.0068895,0.0075966,-0.012948,0.0037328
-0.91194,-0.052298,0.02587,0.13914,0.017947,0.0038283,0.047324,0.043194
0.7107,-0.031307,0.042133,-0.0027184,0.027685,0.008016,-0.00063404,0.083877
-0.081275,0.05556,0.066729,0.1145,0.02213,-0.0039285,-0.0017738,-0.070224
0.42268,-0.033274,-0.0097533,-0.0013169,-0.022489,-0.024745,-0.050974,-0.11519
-0.59735,0.069181,-0.078298,-0.17092,-0.044083,-0.039159,-0.00062391,0.049827
0.054976,0.025983,0.055816,0.14396,0.019459,0.038681,0.016098,-0.060039
0.3499,0.069886,0.07163,0.0048862,0.01943,0.013638,0.022793,0.21121
-0.24202,-0.074432,-0.054795,0.0047772,-0.028622,-0.027963,-0.073648,-0.18326
-0.14069,0.013203,-0.15176,-0.22402,0.00044427,0.031572,-0.0066381,0.1006
0.70278,-0.082341,0.054397,0.099758,0.0054058,-0.0025465,0.045189,0.071168
-0.56906,-0.040882,0.017431,0.0078898,0.0023595,-0.0048747,0.03585,-0.091124
-0.33738,-0.025572,0.01946,0.040329,-0.016,0.0014442,-0.018514,-0.10413
0.35207,0.043495,0.07702,0.088761,0.036703,0.016518,0.03836,0.064333
-0.12538,-0.011106,-0.05916,-0.088014,-0.018943,-0.045676,-0.036211,-0.038071
-0.043834,0.00034017,-0.029325,-0.036151,-0.0031891,-0.0056971,0.0068863,-0.028049
0.56369,0.11072,0.080534,0.088424,0.036923,0.050148,0.041589,0.11001
-0.14134,0.016016,0.0043347,-0.0269,-0.0083329,0.0042497,-0.026836,0.10209
0.0022604,-0.057708,-0.063358,-0.062313,-0.03004,-0.018793,-0.058422,-0.052953
-0.20317,0.1302,0.0016004,0.020456,-0.0052266,0.011963,-0.022089,-0.044107
0.24923,-0.031896,0.010935,0.05641,0.026671,-0.028629,0.027844,0.0098841
-0.75669,-0.20272,-0.074945,-0.080366,-0.051743,-0.031142,0.0062736,-0.087576
0.46973,0.060826,0.087529,0.078144,0.056397,0.074989,0.015866,0.069029
-0.47294,-0.063072,0.061047,0.12527,0.0075241,-0.037949,-0.020371,-0.098453
0.20209,0.057789,-0.11482,-0.24371,-0.073026,-0.03352,0.015656,-0.011235
0.83572,0.064346,-0.025274,-0.044044,0.033907,0.041898,0.077561,0.12875
-0.22506,-0.050173,0.049217,0.10779,0.024039,0.009012,-0.045619,-0.028616
-0.7452,0.051652,0.039036,-0.021698,-0.0085618,0.0086752,-0.034098,-0.013194
0.8044,-0.0035938,-0.016299,0.1152,0.014402,-0.021596,-0.021595,0.051092
-0.17469,-0.027022,0.01614,-0.019957,-0.0008136,-0.0038651,0.037676,-0.0070378
-0.24366,-0.0411,-0.035771,-0.067519,-0.02311,0.0068233,0.041103,-1.5832e-05
-0.28487,0.02492,-0.008536,0.042712,0.001937,0.010015,0.0035279,-0.10012
0.022671,0.061566,0.058009,-0.049085,0.0037024,-0.018197,-0.067593,0.051309
0.18852,0.029257,-0.024462,0.007997,0.0053237,0.0077193,-0.047098,0.00026496
0.70066,-0.010252,0.0011482,0.010117,-0.0012408,0.0015492,0.018792,0.066229
-0.075476,-0.081131,-0.045301,-0.019907,-0.0083002,0.010062,0.060782,0.037615
-0.69358,-0.05107,0.039222,0.10503,0.0075854,-0.044798,-0.052776,-0.17968
-0.15767,0.095427,-0.010612,-0.091738,-0.00034125,0.032504,0.030743,-0.0075688
0.21036,-0.039802,-0.014488,-0.0083916,-0.0084396,-0.015527,0.023015,0.054222
-0.073928,-0.057741,-0.049691,0.0040467,-0.00084276,0.0067694,0.0024273,0.076459
-0.19778,0.0032353,0.040904,-0.10056,-0.016386,0.021573,0.031224,0.028422
0.072351,0.026509,0.047086,0.1395,0.03103,-0.017778,-0.00066856,-0.019093
0.70214,0.17639,0.04741,0.045184,0.0086555,0.037252,-0.070797,-0.09697
0.83416,-0.086376,-0.059635,-0.094088,0.025818,-0.0086624,0.015089,0.099697
-0.74329,0.01108,-0.00093609,0.057603,-0.027001,-0.0071773,-0.0017664,-0.022771
-0.75171,-0.03988,-0.027111,-0.047015,-0.040631,-0.052182,-0.036107,-0.11288
-0.77293,-0.044782,-0.021754,-0.049276,-0.0074866,-0.011025,-0.010162,0.0088582
0.5017,0.026998,0.069032,0.16712,0.0097094,-0.008888,0.029152,0.084273
0.90463,-0.074795,-0.0054181,-0.11745,0.034195,0.079017,0.13673,0.12067
0.018728,0.040617,-0.026782,0.01034,0.003301,0.033684,-0.085478,-0.1482
-0.15099,-0.0090966,-0.026444,0.057924,0.018459,-0.035798,-0.058891,-0.0042962
0.11161,0.065776,0.042642,-0.14657,-0.029778,0.0031124,0.01386,0.051742
-0.62551,-0.0075831,-0.030031,0.084785,0.0070448,-0.04508,-0.022996,-0.00399
-0.082997,0.036876,-0.025117,-0.036354,-0.027188,-0.0085152,0.049723,-0.054467
0.23794,-0.042891,0.05803,0.053406,0.016225,0.034883,0.03707,0.064605
0.39164,-0.028269,-0.014392,-0.027898,-0.018588,-0.023832,-0.052857,-0.075818
-0.23841,0.033537,-0.0076019,0.0094341,0.0094469,0.026882,0.03797,0.040902
0.61515,0.017139,0.086391,0.1032,0.030469,-0.015408,-0.010612,0.04883
-0.46671,-0.015264,-0.10747,-0.12166,-0.025461,0.021827,-0.034446,-0.019478
-0.67548,-0.048145,0.0043302,0.029756,0.0059458,-0.040612,-0.017879,-0.10038
-0.069178,0.043662,0.015146,0.0099796,-0.0080951,-0.015018,-0.046927,-0.060347
0.48949,-0.075378,0.026099,0.0449,0.018166,0.035958,0.042236,0.10858
0.34792,0.017159,-0.033574,-0.10827,0.0062166,0.025848,0.085113,0.1558
-0.195,0.017132,-0.008032,-0.020271,-0.02104,0.0163,0.034199,-0.06839
0.21993,0.081183,0.024265,0.011782,-0.0095241,0.014076,-0.017515,-0.057966
-0.11283,0.014124,0.031829,0.14408,0.040178,-0.036572,-0.078595,0.1226
-0.11153,-0.012353,-0.055776,-0.13891,-0.044285,-0.066206,-0.032425,-0.18469
0.015506,-0.10026,0.011463,0.069182,0.033674,0.041855,0.066069,0.081499
-0.58852,-0.00019674,0.022776,0.042017,-0.0072437,0.0063273,-0.056363,-0.14947
0.8923,0.10752,0.025379,-0.048266,-0.018391,0.0073517,0.0462,0.16208
-0.74806,-0.090148,0.004157,0.07215,0.0084868,-0.040151,-0.023749,-0.11527
0.45021,0.070514,-0.02461,-0.07278,-0.019752,0.0055501,-0.030764,0.067267
-0.2074,-0.066898,-0.13831,-0.12304,-0.0008639,0.012797,-0.020717,-0.077403
0.53949,-0.049244,0.062181,-0.0076152,0.018917,0.037282,0.085247,0.10084
-0.14879,0.022027,0.077393,0.11782,0.032272,0.025014,0.068705,0.14994
-0.51695,0.061098,-0.0065402,0.0035694,-0.023032,-0.031518,-0.031393,-0.13291
0.50345,0.083652,0.0054852,0.02449,0.0014526,0.0004017,-0.012402,0.048758
-0.87852,-0.019711,0.0034713,0.039328,-0.0038887,-0.02809,-0.054696,-0.12626
0.63911,-0.038122,0.088049,0.078297,0.0073915,-0.00044839,-0.041801,0.012772
-0.22163,-0.041917,-0.038712,-0.055144,-0.012117,0.020101,0.0022582,0.042873
0.71178,-0.10912,-0.15901,-0.20589,-0.00828,-0.014011,0.030229,-0.036823
-0.75067,0.096474,-0.0078787,0.00024357,-0.012836,-0.0096106,0.0028759,-0.031549
0.58846,-0.049712,0.11756,0.12545,0.03635,0.032901,0.037351,0.035018
-0.51342,0.1325,-0.087213,-0.080091,-0.0093695,-0.019501,-0.022582,0.03004
0.10597,0.049814,0.065764,0.07952,-0.017222,-0.010596,0.010571,0.023914
0.6012,-0.11773,0.053688,0.050378,0.028531,0.02068,0.050817,0.047997
-0.26202,-0.026191,-0.052484,-0.080781,-0.020304,0.0042629,-0.05036,-0.053849
-0.67572,-0.019307,0.060302,0.13203,0.00067261,-0.0048332,0.019497,0.023203
0.66442,0.019971,-0.029413,-0.076326,0.021533,0.025013,-0.04424,-0.03312
-0.3548,0.067934,-0.055718,-0.072719,-0.01984,-0.046449,-0.046052,-0.10527
-0.77249,0.030459,-0.018425,-0.0053958,-0.037175,-0.031383,0.030023,0.010349
0.71052,-0.061629,-0.01117,-0.0070514,0.032262,0.039214,-0.0031074,0.0017564
0.47207,-0.068126,0.059852,0.086441,0.024511,0.017033,0.073689,0.22876
-0.37697,0.026231,0.014927,-0.013976,-0.013596,-0.0042083,-0.036207,-0.16776
0.45116,0.080571,0.041433,-0.0036921,0.027141,0.029987,0.065715,0.093421
0.17812,-0.038015,-0.10304,-0.10164,-0.033226,-0.036957,-0.065972,-0.050482
-0.39985,0.037731,0.049937,0.10595,0.015953,0.01331,0.013789,0.017251
-0.5754,-0.043508,0.023432,0.10305,-0.020885,-0.007111,-0.0625,-0.13363
0.31782,-0.031344,-0.018895,-0.056066,0.012348,0.0030154,0.048624,0.058819
-0.1799,-0.019039,-0.1165,-0.23122,-0.056287,-0.050263,-0.02804,-0.023091
-0.13787,0.064224,0.081814,0.12407,0.031041,0.020489,0.0042907,0.034282
0.80451,-0.078,-0.0024128,-0.013942,0.016574,0.0043962,0.051872,0.14466
-0.42895,0.10143,0.10711,0.12014,0.025349,0.042227,-0.0024071,-0.059379
0.6335,0.079119,0.058648,0.080846,0.026097,0.040421,-0.025621,-0.07794
-0.89413,-0.16073,-0.20249,-0.18656,-0.051574,-0.086759,-0.025464,-0.012474
0.76842,0.045608,0.073923,0.075825,0.026598,0.043704,0.029416,0.082704
-0.7053,-0.0054265,-0.15069,-0.17862,-0.067616,-0.060176,-0.024974,-0.1277
-0.16243,-0.040823,0.10878,0.13649,0.040739,0.015863,0.014511,0.052494
0.69297,0.095314,0.095337,0.092026,0.023582,0.045445,0.015026,-0.039847
-0.59946,-0.11289,-0.065218,-0.11608,-0.033017,-0.033783,-7.3558e-05,0.080508
0.29705,0.03758,-0.02074,0.0048934,0.0039485,0.028266,0.00034905,0.015713
-0.28194,0.038899,-0.005358,-0.013422,-0.0059323,-0.018413,0.000552,-0.023087
0.22309,0.04743,0.082341,0.09472,0.023458,-0.002039,-0.015178,-0.0048577
0.055661,-0.0069254,-0.062852,-0.038021,-0.017149,-0.0087355,-2.7314e-06,0.054194
0.79922,-0.030095,0.019203,-0.03704,0.036317,0.031561,-0.032024,-0.065499
-0.47391,-0.084168,-0.0083438,0.018979,-0.011537,-0.0064279,0.013825,0.041434
-0.60761,0.018803,0.048972,0.074757,-0.020223,-0.029217,0.059501,-0.032025
0.20988,-0.056735,-0.12196,-0.13583,0.002308,-0.0057617,-0.043366,-0.1536
-0.18524,0.095659,0.025476,0.058819,0.0012795,0.032582,-0.0056884,0.098307
0.13931,-0.00071587,0.069561,0.025906,0.0079451,0.015523,0.031896,0.051826
0.75949,0.059863,0.010816,-0.0076816,-0.001025,0.021346,0.01467,0.15245
-0.55022,0.034326,-0.0015281,-0.017933,-0.025438,-0.066844,-0.033941,-0.044833
-0.86412,-0.023726,-0.1697,-0.12133,-0.041627,-0.045545,-0.020144,-0.20371
0.68285,-0.045026,0.077437,0.12029,0.075605,0.030957,-0.014131,0.012162
0.26101,-0.053763,0.091998,0.027705,0.0060477,0.030183,0.023349,0.056309
0.11801,-0.097074,-0.00084647,0.0073042,0.0074766,0.046059,0.037833,0.022828
-0.50827,0.067537,0.0017614,-0.0036752,-0.006227,-0.02302,-0.017352,0.068194
0.19547,0.058064,0.0054332,-0.021464,-0.043163,-0.021068,-0.040524,-0.073165
-0.2104,-0.0071808,0.0015076,0.062495,0.044777,0.020225,-0.02388,-0.065445
0.98835,0.14645,-0.042109,-0.072956,-0.02395,0.0066002,0.094917,0.22388
-0.64389,-0.12838,-0.040109,0.0090071,-0.022981,-0.031152,0.0030662,-0.1743
-0.058339,-0.034014,-0.047453,-0.10605,-0.00708,0.00041689,-0.010755,0.044386
0.014024,-0.038764,0.053169,0.050619,0.023797,-0.0081398,-0.025055,-0.04997
-0.56912,0.068357,0.043457,0.096505,0.022903,-0.025405,-0.040131,-0.043334
0.62362,-0.0020082,0.017792,-0.053817,-0.0095949,0.027104,0.0063867,0.11912
-0.0042928,0.046458,-0.023189,0.037713,0.004591,0.009214,-0.033879,-0.12488
-0.20311,-0.036944,-0.039935,-0.089367,-0.0047185,0.022924,0.081491,0.060851
-0.057844,-0.010737,0.038112,0.057423,-0.013988,-0.0017591,-0.014343,0.020235
0.049111,0.038558,0.093738,0.12661,0.023732,-0.017815,0.054003,0.19862
0.014376,-0.12378,-0.076435,-0.085016,-0.032117,-0.0018474,-0.064673,-0.20096
-0.19873,0.080314,-0.074368,-0.077632,0.021662,0.030327,-0.026341,-0.069266
0.50154,0.041685,-0.017683,-0.085802,-0.017972,-0.015314,0.020736,0.0076647
0.11666,-0.059553,0.061986,0.10127,-0.002498,-0.037487,-0.032772,-0.040497
0.19166,0.0036712,0.062797,0.092916,0.029091,0.0026551,0.078672,0.23948
-0.33159,0.013072,-0.023214,-0.04056,-0.0091146,0.019058,-0.01234,-0.081873
-0.13561,-0.031059,-0.055443,-0.03349,-0.0077673,-0.0039111,-0.056135,-0.12148
-0.33771,0.074438,-0.018176,-0.0030136,0.0096009,0.019757,0.025021,0.042835
0.17562,-0.022245,0.0497,-0.04285,-0.011853,-0.019196,0.043237,0.051924
-0.29761,0.029977,-0.0078302,0.057951,-0.017644,-0.01909,-0.040872,-0.047184
0.045043,-0.050751,0.012622,0.01032,0.031074,0.043599,0.014699,0.0033332
0.43096,-0.015015,-0.02148,-0.021692,0.0012869,-0.0029544,-0.024426,-0.023244
0.54189,0.074258,0.054207,0.024424,0.03348,0.036579,0.029452,0.19308
-1.1754,-0.072157,-0.049089,0.00029024,-0.067705,-0.095603,-0.042049,-0.21536
0.77823,0.0068104,0.059559,0.054485,0.04156,0.04584,-0.027527,-0.014704
0.063011,-0.086905,-0.12736,-0.18777,-0.044775,-0.023408,0.065672,0.091378
-0.24244,0.084686,0.023217,0.062872,0.0017038,0.024857,0.0035213,-0.0069361
0.24225,0.0063956,0.003615,0.0097776,0.017253,-0.020236,-0.018521,0.088504
