0.044427,-0.35354,0.028796,0.0053076,0.0025117,0.022034,0.016784,0.070429
0.00045236,0.11537,0.029009,0.02101,0.010321,0.007575,-0.010105,0.054115
-0.056036,-0.031673,-0.064617,-0.010106,0.002853,-0.0057448,-0.034199,-0.060409
0.014782,-0.060122,0.013395,-0.0021842,0.011329,-0.0026607,0.01434,-0.0078011
0.016253,-0.07771,-0.0026678,-0.0021608,0.0044055,-0.014938,0.025142,0.085963
0.0092148,0.17608,-0.0034276,-0.010065,-0.010249,0.01152,0.02023,-0.13998
0.0076024,-0.037822,0.01904,0.0053669,-0.0093604,0.0058322,0.13081,0.21114
0.049102,0.080286,-0.0053672,0.0051277,-0.00088495,0.014422,0.042899,-0.15124
0.015772,0.14163,0.048633,0.012741,0.0072714,-0.017646,-0.15076,0.16262
-0.16261,-0.095501,-0.09209,-0.026385,-0.016163,-0.035674,-0.27855,-0.31609
0.014967,-0.30405,0.033667,0.012835,0.014804,0.015305,0.10544,0.17135
-0.035677,0.10732,-0.011434,-0.0023613,-0.0012781,0.026432,0.033771,-0.1937
-0.038883,0.15084,-0.016465,-0.0016651,0.0060503,-0.0094266,0.1488,0.12993
0.11694,0.018144,0.026156,-0.00076884,-0.0099379,0.017843,0.053769,0.0036505
0.11322,0.1122,0.022227,0.0080119,-0.0022491,-0.039521,-0.13288,0.13979
0.036826,0.14191,0.057071,0.0010687,0.013557,0.014295,-0.012177,-0.039382
-0.081095,-0.041351,0.059705,0.040719,0.014045,0.031077,0.36095,0.098141
-0.15565,-0.8574,-0.21262,-0.076316,-0.055539,-0.075231,-0.38156,-0.11358
0.30358,0.4948,0.09133,0.048312,0.046874,0.054261,-0.0222,-0.19276
-0.34618,-0.41667,-0.11434,-0.054145,-0.014806,0.0046736,0.062754,0.12342
0.064789,0.3516,0.045752,0.022658,0.0092626,-0.029734,-0.096463,0.31689
0.065872,0.6639,0.11913,0.02889,0.0095711,0.067098,0.1949,-0.37172
-0.063016,-0.49266,-0.065289,-0.019615,-0.029585,-0.010512,-0.0084755,0.11969
0.16184,0.43647,0.11823,0.041418,0.024602,0.064925,-0.057662,-0.082979
-0.087602,-0.58307,-0.18912,-0.053453,-0.023103,-0.14418,-0.061103,-0.23547
0.2911,-0.2053,0.098939,0.024028,-0.00067756,0.011204,-0.0019749,0.16501
-0.35664,0.25792,-0.048816,-0.022942,-0.001681,0.0010241,0.12881,0.34807
-0.036281,0.24438,0.047081,0.024397,0.036577,0.022264,0.12928,-0.089881
0.028432,-0.0026353,-0.035681,-0.021508,-0.042006,-0.17328,-0.48416,-0.186
-0.018949,-0.0034623,-0.016424,0.0032977,0.020458,0.15813,0.0075027,0.16212
0.019423,0.044753,0.10425,0.02835,0.020824,0.13461,0.50231,-0.1629
0.12954,-0.5127,-0.096071,-0.016839,-0.025378,-0.032858,-0.1336,-0.099718
-0.016475,0.07906,0.085394,0.015999,0.0067002,-0.048259,-0.057995,0.17801
0.0488,0.17131,-0.038943,0.0017286,0.038774,0.14928,-0.0069336,0.019703
-0.029078,-0.19568,-0.078252,-0.051908,-0.07772,-0.38759,0.11195,-0.037716
-0.16826,0.20578,-0.00082456,0.019156,0.0087161,0.15941,-0.17071,0.15238
0.16563,0.27366,0.022069,0.0040564,0.024654,0.030895,-0.041958,-0.14558
0.1086,-0.17504,0.069136,0.020095,0.0092228,0.23387,0.43731,-0.041364
-0.24152,-0.069067,-0.12487,-0.018552,0.0015791,-0.083045,-0.81636,-0.15173
0.32398,0.3155,0.20572,0.021005,-0.013814,-0.35615,0.066987,0.016621
-0.55459,-0.43315,-0.14259,-0.025286,-0.0056539,0.15872,0.12083,0.14488
0.23383,0.27911,0.11075,0.04564,0.049504,0.042129,0.52569,0.24234
0.06773,-0.11027,-0.058599,-0.039774,-0.035877,-0.047424,-0.086738,-0.28357
-0.19659,-0.19426,-0.096838,-0.016058,-0.027488,-0.13186,0.10071,0.059906
0.44612,0.40493,0.15945,0.030702,0.019906,0.375,-0.033847,0.13994
-0.14759,-0.43228,-0.12588,-0.0011724,0.012489,0.081177,-0.20651,-0.05181
-0.16893,0.021016,-0.038516,-0.017984,-0.026347,-0.43026,-0.11697,-0.27395
0.06449,0.11909,0.062922,0.027165,0.051813,0.25855,0.083887,0.18361
0.022473,-0.15732,0.0076263,-0.029685,-0.034275,-0.028682,0.14632,-0.086076
-0.16275,0.39173,-0.023522,-0.016486,-0.050204,-0.2334,-0.87197,-0.028765
0.413,-0.30791,0.13464,0.074797,0.11346,0.72782,0.65142,0.37882
-0.33159,0.019697,-0.15771,-0.060272,-0.082284,-0.87972,-0.16005,0.019574
0.060609,0.28928,0.037332,0.0082467,0.0032894,0.39944,0.37927,-0.70779
0.10906,0.20287,0.063494,0.030577,0.073396,0.17977,0.39102,0.25959
-0.19763,-0.25745,-0.048395,-0.039982,-0.12188,-0.91427,-0.70079,0.18773
0.059629,-0.070887,0.052542,-0.00020195,0.058167,0.73525,0.68159,0.092514
0.050972,-0.33328,-0.056376,0.032743,0.019803,0.011773,-0.75343,0.052232
-0.052314,-0.022099,-0.016557,-0.027174,0.0052019,-0.33564,-0.0019987,0.19194
0.086214,0.4647,0.038527,0.030794,0.029912,0.35321,0.15014,-0.64458
-0.086722,-0.49619,-0.10255,-0.043641,-0.085875,0.14094,0.081521,0.12095
0.14186,0.26154,0.04424,0.03823,0.024873,-0.21085,-0.15662,0.074634
-0.28036,-0.025593,-0.021373,-0.036483,-0.03645,0.094717,0.23818,-0.22869
0.22711,0.37032,0.12222,0.052164,0.10499,0.0079945,0.68703,0.65613
-0.044561,0.20735,0.076283,-0.0086309,-0.066599,-0.69388,-1.0281,-0.39646
0.039061,-0.445,-0.057896,-0.023735,0.026796,0.4463,-0.28793,0.26092
0.049305,-0.35389,-0.11643,-0.0087983,0.0022932,0.96591,0.37946,-0.1621
-0.06033,0.10399,-0.044557,-0.018372,-0.022899,-0.39098,0.71208,0.012987
-0.17288,0.23975,0.017473,0.025946,0.021656,-0.47727,-0.96632,-0.003509
0.078096,-0.056744,0.070383,-0.00048122,-0.043504,-0.75816,0.70619,0.030903
0.011743,0.097392,0.029212,0.035538,0.024104,0.15715,-0.08962,-0.26523
0.017204,0.070166,-0.058076,-0.076616,-0.095522,0.389,-0.82313,-0.092802
0.56157,-0.18383,0.13767,0.085137,0.19943,0.72281,0.8236,0.30858
-0.75526,-0.014281,-0.21087,-0.041647,-0.10656,-0.49471,0.20622,-0.32448
-0.020714,-0.14574,0.021755,-0.042991,-0.068224,-0.16982,-0.6485,0.32952
0.18592,0.4158,0.10898,0.08091,0.15797,0.70905,0.42695,0.1374
0.16081,-0.42995,0.019139,0.0016896,-0.029859,-0.061628,0.03863,0.11287
-0.033751,0.33308,-0.061084,-0.046492,-0.10862,-0.70441,-0.31489,-0.16121
0.22754,-0.14721,0.093835,0.029999,0.12455,0.48566,0.55486,0.22586
-0.57013,0.18231,-0.095312,-0.073489,-0.16636,-0.8262,-1.0206,-0.41604
0.12926,-0.37607,-0.012255,0.041674,0.05783,0.13518,0.026602,-0.27542
0.3118,0.37002,-0.0013317,0.0086241,0.063072,0.70887,0.26505,0.10193
-0.17679,-0.16054,0.0701,0.023047,0.052943,0.0014295,0.74729,0.28932
0.056126,0.014014,-0.10242,-0.039724,-0.11269,-0.30067,-0.5072,-0.34961
-0.034521,0.26694,-0.049622,-0.015431,-0.027159,-0.095268,0.041795,0.16611
-0.095841,-0.47264,0.057226,0.033421,0.075426,0.49443,0.50192,0.32427
-0.13501,0.33512,0.054584,0.020666,-0.03927,-0.94309,-0.44346,-0.053289
0.34777,-0.57344,0.13024,0.039631,0.097305,0.62619,-0.16706,0.024872
-0.015775,0.29668,0.018564,-0.019581,-0.023068,0.12665,0.083387,0.12621
-0.12591,0.43295,-0.21032,-0.08717,-0.096234,-0.29153,0.15505,-0.33164
0.19477,-0.068116,-0.0098112,0.016184,0.025702,0.044309,-0.43098,-0.072062
-0.032632,-0.39988,0.057453,0.055969,0.084494,0.30577,0.41903,0.20563
-0.43502,0.3916,-0.13344,-0.07706,-0.13884,-0.50826,-0.55071,-0.39177
0.29112,-0.58475,0.2616,0.10185,0.18383,0.9991,0.41304,0.38497
-0.12005,0.30235,-0.17092,-0.086467,-0.18944,-0.91584,-0.34254,-0.29133
0.19931,0.24584,0.14779,0.030448,0.030839,-0.11351,0.31015,0.26901
-0.022915,0.016448,-0.11758,0.0077585,0.056054,0.11666,0.84096,-0.11878
-0.081976,0.041324,0.0021455,0.017614,0.058456,0.25933,-0.46162,0.079032
-0.10915,-0.29848,-0.086656,-0.05719,-0.12586,-0.34894,-0.16185,-0.0030853
0.076371,-0.050387,0.045416,0.040825,0.0811,0.42517,-0.46503,-0.059993
0.18597,0.13801,0.15545,0.053227,0.022625,-0.16055,0.033343,0.36069
-0.022786,-0.59841,-0.023298,-0.059862,-0.044187,0.11193,-0.24559,-0.35203
-0.082035,0.5635,-0.093727,-0.025876,-0.026447,-0.071203,0.38616,-0.13761
-0.047685,0.36096,0.060013,0.05286,0.067196,0.21042,0.52374,0.3617
0.024343,-0.53195,0.0071976,0.011782,0.0095388,0.018229,0.17682,0.0045385
0.015968,0.33897,0.036419,-0.024228,-0.043448,-0.2259,-0.89498,-0.27113
-0.010625,-0.034238,-0.19582,-0.039218,-0.021271,-0.34087,-0.22157,-0.088632
-0.016013,0.29254,0.061481,0.014428,-0.01702,-0.41757,0.6274,-0.28141
-0.20237,-0.46371,-0.1042,-0.065365,-0.053071,0.71971,-0.2309,0.012567
0.17382,-0.070486,0.12143,0.058523,0.043756,0.0046802,0.78884,0.63908
0.027958,-0.18566,0.09935,0.035636,0.10292,0.66724,0.013883,0.3177
0.25178,-0.14652,0.04941,0.046502,0.047462,-0.27507,-0.97059,-0.04592
-0.27129,0.35034,-0.14526,-0.05687,-0.12179,-0.75182,-0.43836,-0.5082
0.099442,0.3346,0.077376,0.030225,0.025289,0.17281,0.18106,-0.047881
-0.12084,0.015136,-0.033807,-0.020697,-0.034732,-0.13733,0.66927,-0.11206
0.020252,0.20204,0.043172,-0.022756,-0.020951,0.17257,0.16707,-0.084364
0.029631,-0.54444,-0.052505,-0.015753,0.058168,0.41747,0.15837,0.23878
-0.14826,0.25875,-0.095359,-0.023856,-0.04824,-0.017621,-0.014213,-0.094263
0.36864,-0.27078,0.2188,0.085115,0.11195,0.096638,-0.47725,0.098255
-0.31868,-0.2788,-0.28173,-0.064333,-0.071687,-0.36062,-0.2713,0.37301
0.086249,0.39586,0.13816,0.043077,0.00143,-0.078431,0.12614,-0.22173
-0.033983,-0.10736,-0.051701,-0.030377,-0.067977,-0.29789,-0.058446,-0.25584
0.14084,0.29693,0.071677,0.051119,0.11792,0.52379,0.74592,0.13731
-0.084567,-0.74398,0.032539,-0.032789,-0.074014,-0.42012,-0.67842,-0.16092
-0.0069656,0.67317,-0.059438,-0.055514,-0.050071,0.28354,0.20858,0.19895
-0.0246,0.073824,0.068898,0.068974,0.11968,-0.038154,-0.23331,0.11303
-0.027852,-0.043198,0.15896,0.043963,-0.025204,-0.17656,0.19845,-0.13967
0.069478,0.17726,-0.17308,-0.083436,-0.01533,0.66079,0.12726,0.14221
-0.11517,-0.65408,-0.17037,0.0073908,-0.013987,-0.1502,0.019462,-0.32365
0.19965,0.61923,0.1196,0.012108,-0.0047524,-0.14218,0.11463,-0.0061796
-0.15775,-0.70556,-0.10014,-0.045488,-0.057195,-0.34176,-0.31577,0.1499
0.15656,0.67792,0.14742,0.061486,0.071462,0.22344,0.2278,0.012986
0.09596,-0.29684,0.050602,0.036372,0.053443,-0.28697,0.20026,0.10018
-0.29226,-0.045441,-0.092705,-0.066067,-0.1034,-0.15059,-0.62839,-0.040215
-0.015386,-0.074846,0.0074667,0.027516,0.053776,0.21492,-0.11873,0.23358
-0.13531,-0.15581,-0.12488,-0.065941,-0.069369,0.42386,-0.13006,-0.70276
0.19216,0.31698,0.18999,0.07507,0.12795,0.3727,0.67341,0.39318
0.16245,0.12086,-0.0015385,0.0048079,0.0042569,-0.27532,-0.14788,0.075836
-0.052966,-0.18609,-0.075478,-0.034943,-0.10522,-0.48824,-0.13065,-0.0069075
0.14654,0.15635,0.076265,0.072712,0.095964,0.20525,0.78565,0.18333
-0.1231,0.345,0.046163,-0.070762,-0.11096,-0.6358,-0.64737,-0.08839
-0.089687,-0.33807,-0.072965,-0.012093,0.016623,0.52553,0.23259,-0.2754
-0.066604,-0.064056,-0.047057,-0.00087872,-0.043908,-0.22664,-0.578,-0.096163
-0.061865,-0.23834,-0.12566,-0.020898,0.0053357,0.065835,0.40202,0.20015
0.089147,-0.5629,0.02834,0.022281,0.10284,0.74956,-0.0080135,-0.072822
0.012628,0.67428,0.088476,0.035537,-0.0006373,-0.65218,-0.062972,0.21113
0.10074,-0.026351,0.095597,-0.0041355,0.078039,0.77915,0.47154,0.021694
-0.10594,0.40462,-0.097224,-0.018462,-0.14562,-0.89202,-0.83691,-0.25785
0.026501,-0.035364,0.057803,0.054891,0.070071,0.47544,0.46639,0.52869
0.068873,-0.21756,0.021769,-0.0267,-0.0647,-0.4695,-0.58301,-0.55674
0.075626,0.52503,0.020643,-0.0060225,0.027389,0.22828,-0.25376,-0.007145
-0.12599,-0.68717,0.014212,-0.032145,-0.005926,0.002937,0.71471,0.23906
0.048656,0.0099461,-0.06146,0.01158,-0.0088814,-0.30999,0.29742,-0.13932
-0.19099,-0.49376,-0.18435,-0.047083,0.010474,0.56537,0.33873,0.14596
-0.033825,0.59272,0.003722,0.018269,-0.049437,-0.51477,-0.36986,-0.21055
0.23776,-0.085693,0.13475,0.074845,0.11621,0.26793,0.27075,0.24353
-0.0097689,0.44559,0.052013,-0.049098,-0.10178,-0.065024,-0.65877,-0.25824
0.13739,-0.58061,0.12254,0.045053,0.062382,-0.11028,-0.2108,0.18952
-0.11737,0.23187,-0.083261,-0.033166,0.030654,0.57282,0.49427,0.17193
-0.35924,-0.058366,-0.03377,-0.033639,-0.10321,-0.4287,-0.49576,-0.37416
0.2333,0.081634,-0.15025,0.035885,0.082609,0.15775,0.32519,0.25416
0.075793,0.26843,0.060366,0.01137,0.0021493,-0.06073,0.030791,0.2369
-0.025543,-0.24286,-0.0024465,-0.021237,-0.0633,-0.14957,-0.30892,-0.65923
0.13377,-0.12824,0.045214,0.016207,0.034856,0.15405,0.61321,0.067497
-0.12503,-0.0097284,0.032413,-0.024697,-0.0077841,-0.11293,-0.37119,0.21615
-0.012474,0.30327,0.1004,0.01237,-0.026783,-0.27969,0.30322,0.16404
-0.146,-0.71668,-0.21941,-0.036567,-0.021749,0.028644,-0.25334,-0.016485
-0.010816,0.52127,0.057062,0.016077,0.023264,0.39853,-0.24615,-0.011487
0.46985,0.25763,0.18691,0.092236,0.13186,0.29944,0.23331,-0.085945
-0.32286,-0.33625,-0.22151,-0.10494,-0.11007,-0.47911,0.23081,-0.013457
-0.015713,-0.017842,0.057241,0.049536,0.039439,0.2113,-0.085764,0.0097993
0.11629,0.19819,0.029925,0.016577,-0.0059137,-0.21586,0.15255,-0.056653
-0.0060436,-0.23377,0.062929,-0.031955,-0.074663,-0.30855,-0.24093,-0.066174
-0.21121,-0.24215,-0.13324,-0.049158,0.0046948,0.54129,-0.39808,-0.091098
-0.030079,0.34597,0.058611,0.043162,0.028764,-0.15213,0.63622,0.53055
0.10084,0.3751,-0.095504,-0.020518,0.020829,0.18031,-0.54072,-0.26567
0.057931,-0.083895,0.092621,0.041149,0.019915,-0.20428,0.13112,0.049925
0.084881,-0.1398,0.045723,0.025106,0.0026384,0.17847,0.25234,-0.12507
-0.020119,-0.50266,-0.10251,-0.068636,-0.085558,-0.63924,-0.51282,-0.23587
0.1658,0.1493,0.17993,0.064566,0.099271,0.71168,0.8208,0.49998
-0.30984,0.16181,-0.090753,-0.04412,-0.044177,-0.25035,0.035517,-0.25116
-0.040474,-0.17376,-0.078242,0.011463,0.023473,0.056176,-0.41439,0.021569
0.028676,0.23856,0.014531,-0.026577,-0.033359,0.064429,-0.39483,-0.20968
0.1006,0.19733,0.08604,0.021395,0.020055,-0.12094,0.51753,0.034722
-0.12976,0.015975,-0.20758,-0.04778,-0.11286,-0.38845,-0.77715,0.038154
0.33695,0.014892,0.18811,0.078366,0.11494,0.41868,0.74646,0.24653
-0.12516,-0.18153,0.077347,0.016979,0.023739,-0.1228,0.30122,0.11958
-0.21253,-0.54312,-0.15763,-0.052318,-0.035181,0.15552,-0.056385,-0.14249
0.097094,0.030279,0.029324,0.011022,0.031432,0.19376,-0.43424,0.08895
-0.017697,0.35731,0.02027,-0.035265,-0.019262,0.024749,-0.6281,-0.43295
0.24698,0.48283,0.041055,0.035333,0.022995,-0.09985,0.54243,0.20942
-0.36704,-0.11119,-0.072923,-0.035014,-0.061101,-0.15355,0.12441,-0.0026199
0.17165,-0.25543,0.0061954,0.034968,0.017219,0.095789,0.28941,0.039082
0.051332,-0.069469,0.044118,0.03441,0.0080073,-0.4759,0.16182,0.19474
0.054522,0.14811,0.13505,0.018107,0.036675,0.10426,0.053569,-0.18125
-0.26244,-0.50946,-0.29052,-0.099728,-0.099205,0.014739,-0.53534,-0.11572
0.0084766,0.45089,0.041838,-0.014232,-0.0081605,0.091377,-0.39304,-0.095569
0.17359,0.30492,0.062876,0.040404,0.09187,0.5211,0.40423,-0.12339
-0.047193,-0.47523,0.0078404,0.025272,-0.0016459,-0.3705,-0.4459,0.50813
0.080968,-0.19819,0.049099,0.018576,0.0005884,-0.002995,0.050612,-0.10493
-0.036038,0.12404,0.077259,-0.0031391,0.028079,0.18507,0.38613,0.0060873
-0.00090312,0.37683,-0.12698,-0.024369,-0.052543,-0.2244,0.38646,-0.044131
-0.065309,-0.35298,0.060442,-0.021873,9.7966e-05,0.39541,0.48401,0.036783
0.20633,0.63665,0.075857,0.043187,0.036681,-0.23567,-0.85971,0.094746
-0.18777,-0.69634,-0.23808,-0.032527,-0.029505,-0.20955,0.67547,-0.15721
-0.053635,0.51875,0.13341,0.032078,0.0041574,-0.12408,-0.64387,-0.05193
-0.10291,-0.30878,-0.13823,-0.059966,-0.073427,0.081684,-0.50929,-0.26421
0.1253,-0.089391,0.11886,0.019434,0.034815,0.0025609,-0.092812,0.29904
0.17835,0.34612,0.092491,0.035903,0.055919,0.18078,0.52339,0.030002
-0.16172,-0.30746,-0.068379,-0.026186,-0.032933,-0.11367,0.11959,0.0023323
0.051275,0.014171,-0.019427,0.02845,0.018876,0.053373,-0.18653,-0.14676
-0.0022612,0.033525,-0.0023234,-0.011197,0.00089029,-0.0019847,0.30829,0.048253
-0.056213,-0.47888,-0.02449,-0.0045945,-0.0084993,0.14424,0.039761,0.075706
0.03809,-0.033817,0.039324,0.001299,0.021984,0.031491,0.25314,-0.046083
0.10882,0.9348,0.048631,0.01427,0.021851,0.15081,-0.36416,0.3871
-0.16432,-0.15756,-0.098053,-0.05155,-0.095145,-0.39053,-0.52594,-0.57841
0.070329,0.32863,0.099375,0.038404,0.030027,-0.24328,0.37248,0.27435
-0.015028,-0.34426,-0.038589,-0.012437,0.022066,0.48131,-0.010182,0.10693
0.0021062,-0.39164,-0.058512,-0.00055771,-0.025468,-0.44428,0.29004,-0.12228
0.099167,-0.060159,0.032207,0.027591,0.090504,0.60504,0.63715,0.13946
-0.3166,-0.032821,-0.094108,-0.036975,-0.07523,-0.50249,-1.1415,-0.48378
0.18538,0.48575,0.05509,0.0091657,-0.014625,0.21913,-0.028307,0.10204
-0.058428,-0.44149,0.0737,0.0020943,-0.016423,-0.16586,-0.15946,0.12472
0.17066,0.093756,0.11,0.027713,0.044729,0.17982,0.32272,0.18769
-0.042198,-0.069679,-0.12556,-0.031385,-0.018353,-0.12611,-0.044078,-0.13692
0.13747,0.29764,0.038153,0.050984,0.10704,0.37677,0.69866,0.45693
-0.15163,-0.075566,-0.13411,-0.069416,-0.1337,-0.33655,-0.32097,-0.56154
-0.13021,0.022693,-0.041613,-0.0024848,-0.021942,-0.096675,0.014394,-0.06787
0.23127,0.33462,0.25246,0.079406,0.10611,0.39029,0.17855,0.22556
-0.24009,-0.09347,-0.10386,-0.058524,-0.070289,-0.49586,-0.70085,-0.042774
0.080506,-0.23079,-0.056043,0.0053302,0.049922,0.19536,0.01799,0.077751
-0.10324,-0.44423,-0.02583,-0.018208,-0.025998,0.0090583,0.29663,0.04564
0.11611,0.17377,0.049606,0.019342,0.021759,0.26489,-0.020163,0.15584
0.029125,-0.23391,0.06135,-0.0068406,-0.041555,-0.22397,0.25719,-0.42081
0.051318,0.46021,-0.083834,0.0129,0.018265,0.067978,-0.1957,-0.012282
0.10575,0.25796,0.098925,0.047664,0.052872,-0.074715,0.22072,0.26556
-0.080274,-0.54344,-0.046188,-0.034977,-0.046752,-0.23375,-0.46975,-0.14746
-0.27986,0.43716,-0.10476,-0.062754,-0.076887,0.09552,0.13405,-0.10008
0.077273,0.14143,0.048471,0.027206,0.056967,0.22215,0.30272,0.058902
0.19395,0.16589,0.093347,0.024287,0.011851,-0.1864,-0.043027,0.11284
-0.047467,-0.44018,-0.040382,-0.0087767,0.0072128,0.21546,-0.3097,0.34397
-0.038076,-0.43146,-0.048064,0.0062524,-0.0033332,-0.22076,-0.40399,-0.45111
0.15917,-0.16247,0.070187,0.038099,0.097611,0.61237,0.53955,0.19491
-0.1045,0.42074,-0.068612,-0.04621,-0.1041,-0.50733,0.16525,-0.087391
-0.31363,0.62438,-0.0037225,-0.02038,-0.030667,-0.2248,-0.331,-0.26142
0.19584,-0.47004,0.022468,0.021505,-0.010725,-0.052322,0.33715,0.30348
0.10365,0.18111,0.11915,0.032228,0.072329,0.64685,0.64071,0.17627
-0.0041501,-0.45619,-0.17476,-0.027582,-0.00083358,-0.38788,-1.0213,-0.18238
0.13027,0.4275,0.031273,-0.0097108,-0.027588,0.0061941,0.2576,-0.12308
-0.11809,-0.63288,0.065312,0.015412,0.022947,0.14947,-0.091171,-0.057914
0.016391,0.55218,-0.033586,0.0087235,0.0021345,-0.44109,0.26464,-0.038975
-0.11463,-0.072126,0.047087,-0.029673,-0.058804,0.24448,-0.75364,-0.040201
-0.11248,-0.23483,-0.075482,-0.0058605,0.019941,-0.0023878,0.36419,0.33102
0.13253,0.3486,-0.057589,0.0022155,0.012022,0.19525,0.20069,0.138
0.05815,0.38315,0.11627,0.033752,-0.0042077,-0.23968,-0.50456,-0.36209
-0.054372,-0.37958,-0.015057,-0.020581,-0.020761,0.091186,0.46396,0.23503
0.04452,-0.093242,0.0090828,0.018838,0.048367,0.19457,0.35925,-0.096949
0.05702,-0.22171,0.071188,0.026851,0.054692,0.11575,0.28386,0.045184
0.028672,-0.14759,-0.094624,-0.02018,-0.0097112,-0.13107,-0.0049873,0.20586
-0.167,0.28112,-0.082214,-0.052117,-0.098062,-0.29635,-0.85228,-0.53019
0.17184,-0.015022,0.046021,0.02471,0.016214,0.18352,0.30378,0.0093139
-0.064881,0.31607,0.016984,-0.00057981,-0.010455,-0.28236,-0.6924,0.045052
-0.001982,-0.50592,0.073411,0.0050314,0.0019742,0.17748,0.30205,0.29878
-0.2164,0.050005,-0.018387,0.01061,-0.00071943,-0.46337,-0.1706,-0.1949
0.27833,0.11382,0.039193,0.00089942,0.067879,0.60406,0.59577,0.145
-0.32759,0.10104,-0.19849,-0.047202,-0.049673,-0.19585,-0.030268,-0.023606
0.15612,0.37638,0.058159,0.022784,0.021789,0.40248,0.16097,0.018161
0.22395,-0.011455,0.11409,0.046858,0.024366,-0.017899,0.38406,0.11257
-0.35713,-0.50847,-0.046366,-0.014172,-0.034454,0.20186,-0.37538,-0.14155
0.4286,0.1492,0.076413,0.0034561,0.0010787,-0.53845,-0.20308,0.088344
-0.099725,-0.12558,-0.1042,-0.033482,-0.049296,-0.19039,-0.62169,-0.3339
0.071414,-0.12899,0.028079,0.030832,0.10295,0.47572,0.93425,0.22186
-0.22459,0.40037,-0.012075,-0.022709,-0.066031,-0.55792,-0.65413,-0.10521
-0.091693,-0.44473,-0.01458,-0.0068031,-0.00173,0.13124,-0.017823,0.16132
-0.00035668,0.48623,0.098091,0.0082434,0.0068369,0.11658,0.28551,-0.016355
0.11896,-0.30223,-0.025859,0.014831,0.045884,0.19175,0.48143,0.075028
-0.046068,0.055342,-0.10501,-0.033539,-0.063833,-0.099435,-0.56333,-0.14746
0.11485,-0.20009,-0.0059964,0.019849,-0.032743,-0.22199,-0.16258,-0.14157
-0.17052,0.32045,0.014165,-0.012055,0.030233,0.27111,-0.10105,-0.099827
0.09116,0.020428,0.05792,0.019526,0.039436,0.19944,0.68517,0.675
0.10366,0.34078,0.032278,0.013176,0.026134,-0.20571,-0.040102,-0.47271
-0.047076,-0.34168,0.0080096,5.9405e-05,0.0056788,0.32444,0.06235,0.0030992
-0.096067,-0.53442,-0.11639,-0.0592,-0.092767,-0.42623,-0.16222,0.053395
0.18215,0.12899,0.0806,0.061467,0.089503,0.14729,-0.27518,0.20627
-0.041749,0.4283,-0.0032552,-0.005703,-0.041927,-0.42624,0.069392,-0.16684
-0.042142,0.19749,0.1234,0.012174,-0.011008,0.18916,-0.50694,-0.10047
-0.022473,-0.38595,-0.094893,0.013122,0.057029,0.23839,0.84669,0.16869
-0.26356,0.27727,-0.1743,-0.07335,-0.09552,-0.3049,-0.48484,-0.086743
0.071682,-0.43223,0.072514,-0.020586,0.00054673,0.14361,0.18232,0.024872
0.29729,-0.079096,0.075519,0.031145,0.041252,0.20748,-0.021459,-0.040571
-0.27271,0.10803,-0.02403,0.019881,0.027433,0.15787,0.2921,-0.1305
0.1362,0.502,0.048173,0.016541,-0.032293,-0.61858,-0.50526,-0.34948
0.43059,-0.12597,0.10556,0.045109,0.050202,0.4735,-0.10597,0.75234
-0.50723,-0.14534,-0.2573,-0.089341,-0.029424,-0.082189,0.55331,-0.16533
-0.061249,-0.19094,0.022671,0.003979,-0.044582,-0.22587,-0.04416,-0.0071475
0.20451,0.40764,0.10194,0.051562,0.027884,0.092883,-0.16652,-0.17207
-0.023835,-0.46731,0.035021,-0.017175,0.046845,0.46275,0.84722,0.22799
0.080945,-0.026055,0.0088173,0.0083062,0.0038701,-0.28541,-0.64607,0.063987
-0.067155,0.41306,-0.040055,-0.0052516,-0.054768,-0.39027,-1.1006,-0.2548
-0.16261,-0.24054,-0.0032596,-0.011368,0.042338,0.4733,0.53903,0.0091861
-0.047531,0.19694,0.0088385,-0.01032,-0.080063,-0.67263,0.18936,-0.077517
