0.093737,-0.0080512,0.0032225,0.002075,0.00042872,0.020311,-0.00042856,0.030248
0.073526,-0.042642,0.018493,0.00085828,-0.015011,-0.04134,0.005683,0.0043385
0.15615,-0.045316,-0.013326,-0.00020845,0.0085821,0.029856,-0.04262,-0.022124
-0.16573,0.014223,-0.014037,0.0067946,0.00085721,-0.016253,0.011262,-0.0098408
-0.21225,-0.013399,-0.030414,-0.024975,0.00085761,-0.0079342,-0.0042788,-0.013209
0.18056,0.035145,0.015783,0.029452,0.016403,0.015651,0.012426,0.0306
-0.010982,0.05009,-0.015961,-0.017485,-0.030593,0.0075851,0.045638,-0.010878
-0.12322,0.078356,0.054107,-0.0096078,-0.0072588,-0.0008496,-0.053417,-0.01232
0.17921,-0.20768,0.0072378,0.0061565,0.016165,-0.0017335,0.027257,-0.0047177
-0.15128,-0.057154,-0.039458,-0.001469,0.0084888,-0.010516,0.20898,0.019881
0.087537,0.046651,0.023263,-0.0090495,-0.0068242,-0.026979,-0.35249,-0.024487
0.082174,0.042275,0.0077624,0.0303,0.0092671,0.019413,0.076966,0.026029
0.11294,0.08672,-0.023553,-0.0084127,-0.0058101,0.0038378,0.075489,0.030406
-0.2896,0.047443,0.0074425,-0.0080025,-0.0052929,0.0045072,-0.10664,-0.027526
0.19465,0.0023011,-0.024142,0.0080747,0.018504,0.037009,0.10138,-0.031202
-0.37139,-0.065043,-0.024357,-0.022711,-0.020468,-0.031631,0.043803,-0.012479
0.24777,0.063226,0.038272,0.0089808,0.0027216,-0.0063584,-0.099238,0.043776
0.17098,-0.27784,-0.0079564,0.017181,-0.0056799,0.01878,0.039697,0.066958
-0.068493,0.14551,0.055747,0.0096801,0.016891,-0.011176,0.19503,-0.044517
-0.17178,-0.0028555,-0.075449,-0.036971,-0.023192,-0.033917,-0.32086,-0.071634
-0.12939,0.050683,0.035638,0.0022289,0.014852,0.02861,0.20273,-0.021673
0.30966,0.072245,0.068261,0.010098,-0.0016338,-0.011042,-0.21097,-0.0033081
-0.1592,-0.10159,-0.071768,0.0022665,-0.0022091,0.0035342,0.12535,0.070139
0.45533,-0.0092368,0.005867,0.017794,0.013196,0.025681,0.071009,0.011791
-0.50474,0.0217,0.043293,-0.013646,-0.017917,-0.022493,-0.03806,0.032969
0.028519,0.054068,-0.084242,0.0016802,0.021579,0.015467,-0.022081,-0.0068663
0.14625,0.0177,-0.048069,0.0012624,-0.0012363,-0.00091332,0.017518,-0.029784
0.017852,0.037566,-0.011523,-0.0070765,-0.008361,-0.0012382,0.041835,0.018526
-0.17894,-0.38651,0.11207,-0.0076742,-0.015534,-0.040183,-0.15209,-0.088945
0.070294,0.3077,0.065468,-0.00046914,-0.0072147,0.038453,0.029602,-0.032283
-0.21913,0.072916,-0.065168,-0.0088276,0.00092829,-0.031061,0.016615,0.063241
0.42998,-0.013244,0.04813,0.022,0.024509,0.032381,0.082252,0.10375
0.18317,-0.15453,-0.063907,0.029547,0.024479,0.041114,0.21059,0.05022
-0.058853,0.038943,-0.019223,-0.033061,-0.022573,-0.067521,-0.31752,-0.1519
-0.93386,-0.027363,-0.060846,-0.0017937,-0.022857,0.01886,-0.010352,-0.11177
0.46757,0.036401,0.029208,0.006117,0.015863,-0.0044784,0.045797,0.092731
0.02355,0.12803,0.16443,-0.0093687,-0.0079075,-0.020306,0.006962,0.0086459
0.71316,-0.034097,-0.11642,-0.0013969,0.0074674,0.065254,0.1075,0.16726
-0.3293,0.018853,0.12418,0.0065944,-0.00043899,-0.04448,0.050723,-0.0018745
-0.83033,-0.14996,-0.25409,-0.0088223,-0.015949,-0.052423,-0.27243,-0.22566
0.39608,0.093603,-0.031958,-0.0085824,0.0078246,0.057227,0.075942,-0.035804
0.20632,-0.045476,0.1428,0.015103,0.0083424,0.018934,0.010283,0.020308
0.44775,-0.15878,0.18487,0.030927,0.032384,-0.0032751,0.093374,0.27035
-0.040673,0.076038,0.047838,0.015363,0.0016896,0.0060464,0.15347,0.16714
-0.89643,-0.01931,-0.43991,-0.086367,-0.083894,-0.0784,-0.23913,-0.59402
0.55644,0.16488,0.15911,0.053791,0.048932,0.078951,0.11858,0.24499
-0.20753,-0.0051883,0.055635,-0.032926,-0.021806,-0.0066578,-0.14066,0.012987
0.52266,0.22604,0.13211,0.028535,0.031969,-0.0074155,0.014371,-0.078139
-0.67267,-0.03516,-0.096255,-0.011706,-0.00067389,-0.0094391,0.0056666,0.17582
-0.039572,-0.29209,-0.036082,0.0027652,-0.010294,-0.028347,0.10685,-0.11482
-0.041793,-0.031834,-7.2981e-05,-0.0059924,0.011038,0.022014,-0.072511,-0.066614
0.76332,0.080017,0.043072,0.02469,0.0088066,0.024865,0.014544,0.16429
-0.26039,-0.25336,-5.173e-05,0.0011889,-0.0089527,0.019826,0.024192,-0.03978
0.28863,0.15712,-0.13665,-0.029551,-0.034169,-0.078415,0.034302,0.10143
-0.66623,0.12668,0.087147,0.010592,-0.0040785,-0.011442,-0.041461,-0.093141
-0.28915,-0.11482,-0.10917,-0.058142,-0.043458,-0.0053407,-0.12543,-0.42972
0.83251,0.44365,0.24369,0.10004,0.1447,0.15891,0.19605,0.5512
-0.20203,-0.30467,-0.049376,-0.038479,-0.048989,-0.057724,-0.038226,0.012598
0.34657,0.079412,0.027075,0.065129,0.0081443,-0.030483,-0.086124,-0.17892
-0.83717,-0.505,-0.14466,-0.10497,-0.059177,-0.072295,-0.025582,-0.12483
0.52519,0.6371,0.14563,0.036978,0.03776,0.074098,0.089105,0.26935
-1.0377,-0.62829,-0.21223,-0.048188,-0.045158,-0.068455,-0.0071719,-0.22157
0.97194,0.52515,-0.00028077,0.030117,0.027678,0.077619,-0.024816,-0.025495
0.34083,-0.21732,0.13238,0.03754,0.0060132,-0.0037677,-0.033713,0.023572
-0.37841,0.20448,-0.041376,0.0053907,-0.0087541,-0.039514,0.013236,0.083632
0.59379,0.24943,0.16547,0.027509,0.061435,0.063943,0.10818,0.19503
-1.0324,-0.74007,-0.19274,-0.10693,-0.08026,-0.10748,-0.069472,-0.22755
0.87642,0.79807,0.17286,0.094419,0.066299,0.11042,0.089181,0.065803
-0.82544,-0.79172,-0.065735,-0.071383,-0.076779,-0.078932,-0.22108,0.0040672
-0.031875,0.27332,-0.040883,0.044332,0.04551,0.05924,0.10864,-0.20294
0.76311,-0.3566,-0.18142,-0.034765,-0.011781,-0.029278,0.062422,0.44348
-1.1997,0.16357,0.10754,-0.01161,-0.0061031,-0.039338,-0.023875,-0.42512
0.69447,0.32608,0.022545,0.012325,-0.015282,0.013812,-0.1032,-0.075466
0.20664,0.48866,0.14274,0.083862,0.070238,0.067889,0.11388,0.4135
0.68842,-0.30513,-0.062599,0.0074769,-0.022959,-0.02554,-0.03621,-0.068207
-1.0041,-0.45803,-0.14049,-0.1078,-0.076275,-0.079203,-0.045198,-0.28665
0.67805,0.75235,-0.0059094,-0.012406,0.050606,0.07834,0.024777,-0.0078095
-0.78024,-0.63766,0.18339,0.01198,-0.0021043,-0.037849,-0.044885,0.010159
0.77844,0.082707,0.15995,0.097801,0.1089,0.17322,0.26136,0.55601
-0.23648,-0.15402,-0.1638,-0.028607,-0.10114,-0.11703,-0.10368,0.012377
-0.77943,-0.33436,-0.10138,-0.039145,-0.046515,-0.11971,-0.12479,-0.59719
0.51138,0.15844,0.081715,0.019528,0.046193,0.055947,-0.11495,0.079436
-0.31929,0.41784,-0.23026,-0.047436,-0.041543,-0.042704,0.066036,-0.15193
0.11912,0.051263,0.12167,0.049709,0.057881,0.077246,-0.011882,0.061808
0.63937,-0.19634,0.016064,0.014912,-0.03782,-0.028728,0.22134,0.3239
-0.0020706,0.20524,-0.09024,-0.065056,0.015626,0.054118,-0.054773,-0.028236
-0.91117,0.40761,0.063623,-0.017628,0.015494,0.013704,0.019145,-0.11086
0.84113,-0.4791,0.16676,0.032586,0.016662,0.029807,0.12305,0.55289
-0.65626,0.38897,-0.078071,0.015238,-0.035615,-0.11655,-0.39867,-0.80295
0.81486,-0.64293,0.02976,0.086059,0.038056,0.066364,0.1425,0.31306
-0.7483,-0.14056,0.14216,-0.05279,-0.059673,-0.07046,-0.18185,-0.42034
0.90894,0.20153,-0.387,-0.058826,0.022202,0.0036682,0.11387,0.22243
-0.027431,0.083288,0.42095,0.090044,0.033142,0.061727,0.022661,0.31071
-0.80543,-0.33157,0.014272,0.0098435,0.0039774,0.025286,0.33367,0.13262
-0.58247,0.02006,-0.43826,-0.15173,-0.073329,-0.082342,-0.18831,-0.42209
0.75454,0.49701,0.30479,0.1364,0.10592,0.13732,0.22857,0.41933
-0.53659,-0.27933,-0.63767,-0.18783,-0.13771,-0.18273,-0.26928,-0.39041
0.63243,0.84733,0.55847,0.12653,0.10244,0.12185,-0.035346,0.070545
-0.32958,-0.61954,-0.21896,-0.013024,-0.087181,-0.14398,-0.22722,-0.29899
0.56252,0.38262,0.22272,0.019755,0.036061,0.066897,-0.071938,-0.076569
0.80629,-0.46817,0.34098,0.13213,0.12873,0.17644,0.60282,1.0118
-1.2137,-0.20451,-0.49419,-0.22219,-0.15283,-0.17482,-0.358,-0.71323
-0.037992,0.19791,0.24155,0.11308,0.058404,0.067568,0.086249,0.17017
0.0094895,-0.31132,0.023971,0.035959,0.027716,0.012656,0.14032,0.38052
-0.20068,-0.17727,-0.12549,-0.048106,-0.034404,-0.097669,-0.24128,-0.73859
0.66336,0.75977,-0.10778,0.00057163,0.020061,0.10362,0.10645,0.30521
-0.20599,-0.4712,0.012216,-0.061075,-0.035738,-0.047477,0.012064,-0.12794
-0.30234,0.13597,-0.079719,0.039771,-0.029991,-0.074118,-0.11047,-0.021128
-0.29758,0.32109,0.16248,0.052871,0.029664,0.039795,0.042981,0.025713
0.48895,0.0099112,0.16079,0.040924,0.010794,0.005748,0.02623,0.061006
0.54296,0.23562,-0.2793,-0.20642,-0.00016392,0.08986,0.10383,0.32021
-0.54851,-0.83743,0.10122,0.053873,-0.018325,-0.074732,-0.092457,-0.27447
0.39454,0.13376,0.092632,0.10399,0.081728,0.097994,0.13961,0.36241
-1.0739,-0.19562,-0.15571,-0.023996,-0.074757,-0.14993,-0.27858,-0.58284
0.23164,0.72059,-0.13563,-0.0092767,0.0044555,0.079588,0.1842,0.11469
0.6286,0.14807,0.34006,0.038874,0.030153,0.012672,-0.12006,0.015739
0.4178,-0.31065,0.22354,0.049811,0.041092,0.070759,0.082863,0.22017
-0.81887,-0.62259,-0.59598,-0.18809,-0.16626,-0.25432,-0.214,-0.27348
0.97758,-0.090385,0.419,0.18367,0.12639,0.11529,0.27907,0.36172
-1.0387,0.77989,-0.31105,-0.1249,-0.050175,0.023183,-0.047109,-0.29699
-0.31286,-0.50334,-0.037011,-0.044257,0.0067567,-0.0073248,-0.044514,-0.078318
0.86104,0.41814,0.084621,0.065717,0.062458,0.1174,0.17652,0.30654
0.082052,0.34584,0.38246,0.13454,0.03076,0.014448,-0.072797,0.029611
-1.0568,-0.28768,-0.22046,-0.071944,-0.064959,-0.089677,-0.067164,-0.24447
0.68673,0.042919,-0.019408,-0.021944,-0.0057903,-0.030828,-0.057413,0.086954
-0.032,-0.77747,-0.30157,-0.10525,-0.049147,-0.1056,-0.012391,-0.083948
-0.16109,0.77802,0.052,-0.024023,-0.022547,0.053664,-0.17352,-0.21617
0.62964,-0.13651,0.19886,0.12112,0.098173,0.096035,0.34358,0.53616
-0.34854,-0.49709,-0.087067,-0.051941,-0.053458,-0.032544,-0.13875,-0.23114
0.68942,0.019662,0.24837,0.10554,0.054364,0.074685,0.076919,0.1321
-0.94208,0.38753,0.063023,0.007448,-0.015572,-0.097625,-0.21076,-0.31822
0.26619,0.073548,-0.12191,-0.034341,0.010128,0.04427,0.13205,0.074629
-0.51961,0.43551,-0.19946,-0.075434,-0.032951,-0.023336,0.089866,-0.0099521
0.22756,-0.083483,0.19558,0.10973,0.065539,0.058474,0.099339,0.22382
-0.20564,-0.66652,-0.25812,-0.12031,-0.070101,-0.093664,-0.067685,0.071029
0.3908,-0.10766,-0.060378,-0.039535,-0.026491,-0.019355,-0.23353,-0.32214
0.60282,-0.28874,0.11835,0.039446,0.008316,0.038759,0.10758,0.21376
-0.81922,0.73431,0.24128,0.046586,0.033976,0.049119,-0.01474,-0.14379
0.6876,0.20009,-0.040463,0.091822,0.050381,0.02721,0.070397,0.18948
-0.032507,-0.51452,-0.099361,-0.066326,-0.043904,-0.05036,0.0034006,-0.20917
-0.94752,0.614,-0.12107,-0.020899,0.0014398,0.019757,-0.066779,-0.0037952
0.63927,-0.30573,0.10615,-0.083814,-0.055317,-0.08238,-0.10002,-0.10768
-0.012143,0.21048,0.1522,0.089024,0.059772,0.065567,0.21749,0.41018
-0.83647,-0.28861,-0.39081,-0.088283,-0.066886,-0.12969,-0.097351,-0.26898
0.84115,-0.4696,0.1776,0.079275,0.033797,0.12905,-0.059231,-0.057815
-0.047041,0.73942,0.37758,0.12234,0.072888,0.05285,0.13693,0.29467
0.11776,-0.6871,-0.1067,-0.053652,-0.020032,-0.014711,-0.055927,-0.297
0.26557,0.17389,-0.26243,-0.10582,-0.026525,-0.019374,0.072407,0.15144
-0.3232,-0.0028356,0.21342,0.058873,0.029528,-0.0086068,-0.025966,0.045705
-0.03303,0.55113,-0.48402,-0.14593,-0.086712,-0.061151,-0.13335,-0.22431
-0.46744,-0.48379,0.18574,0.13132,0.054064,0.041258,0.14788,0.31725
0.020263,0.413,-0.016824,0.008194,-0.02492,0.0093181,-0.15134,-0.24406
0.46785,-0.21886,0.23983,0.0010319,0.02007,-0.024101,0.10985,0.099645
0.030866,-0.16457,-0.072156,-0.076786,-0.037357,-0.050851,-0.14594,-0.080708
-0.25185,0.11503,0.26877,0.095956,0.076545,0.062406,0.05893,-0.080969
0.52618,-0.21833,-0.21999,-0.034656,-0.028459,0.042838,0.14743,0.10791
-0.35307,0.79338,-0.13159,0.016301,0.023034,0.008188,-0.067072,-0.005138
-0.20084,0.078308,0.041388,0.0069054,-0.042038,-0.04894,-0.084169,-0.091284
0.64103,-0.86184,0.047806,-0.023794,-0.0046231,0.0044866,0.1741,0.45109
-1.0672,-0.17707,0.050219,-0.029171,-0.020764,-0.058084,-0.16017,-0.41774
0.4505,0.47194,-0.12481,-0.0096512,-0.0044413,0.00536,-0.017747,0.011922
0.21997,-0.47743,0.068232,0.065494,0.091167,0.132,0.19389,0.17599
-0.53881,-0.085115,-0.098294,-0.046472,-0.038814,-0.053542,-0.096639,-0.2005
0.68151,0.22206,0.062371,0.068002,0.03501,0.0030408,0.039754,0.27194
-0.059139,0.26512,0.049735,-0.028989,-0.04708,-0.026646,-0.10783,-0.13369
-0.023197,0.24371,0.066585,-0.025205,-0.043227,-0.080209,-0.14017,-0.22949
-0.44328,0.33672,-0.059225,-0.030105,-0.00056881,0.014314,0.045673,-0.069
0.97887,-0.14123,-0.054505,0.0032604,0.065104,0.13217,0.24055,0.39636
-0.34033,-0.28514,0.080527,0.020388,-0.002527,-0.046616,-0.022476,-0.081557
-0.83383,-0.050402,-0.044913,0.037124,0.0074763,-0.029542,-0.030998,-0.001153
0.54501,-0.2894,-0.30588,-0.086985,-0.092355,-0.050781,-0.1279,-0.13487
-0.73986,0.20363,0.48521,0.11688,0.049564,0.014671,-0.0084457,-0.052862
0.79378,-0.56419,-0.17138,-0.015393,0.026967,0.041579,0.029712,0.23634
-0.44857,0.15285,0.12322,-0.015205,0.035107,0.12323,0.18032,0.020288
0.96187,0.20496,-0.028774,0.015704,0.01139,-0.061295,-0.043111,0.0079174
-1.0556,-0.095851,-0.23586,-0.11812,-0.09115,-0.12203,-0.11172,-0.27171
0.65778,0.62369,0.0029785,0.028595,0.024313,0.073296,0.097224,0.15595
-0.21905,-0.21914,-0.061285,0.010572,-0.048452,-0.13973,-0.17592,-0.21064
-0.088169,0.031611,0.11114,0.046672,0.026579,0.12162,0.067754,0.10416
0.93539,0.68513,0.29391,0.082325,0.093278,0.099724,0.03893,0.17034
-1.0531,-0.57594,-0.099316,-0.10114,-0.074799,-0.13473,-0.02743,0.058496
0.011326,-0.27161,-0.21021,-0.019298,0.0068038,0.043779,-0.02068,-0.16034
-0.054303,-0.27115,0.17078,0.038788,0.017811,-0.0047846,0.037468,-0.070996
0.45287,-0.034116,0.034429,0.026281,0.0051122,0.040503,0.070813,0.24204
-0.76123,-0.43845,-0.15148,-0.041085,-7.4346e-06,-0.022883,-0.012494,-0.25859
0.66807,0.31992,-0.090234,-0.022471,-0.020872,-0.045937,0.0080012,0.17904
-0.22894,0.80325,0.10958,-0.0034759,-0.018185,-0.012522,-0.11629,-0.20087
0.50798,-0.225,0.043428,0.047577,0.0084221,0.030911,-0.0015173,0.11922
-0.25563,0.25274,-0.044112,0.029588,0.035993,0.045592,0.032675,0.054986
-0.31247,-0.50847,0.013585,-0.025774,-0.020883,-0.0074212,0.033395,-0.11124
0.19056,-0.14868,-0.20314,-0.11041,-0.036724,-0.034462,0.062939,0.14433
-0.44334,0.85287,0.10393,0.025756,0.0044204,-0.028021,-0.082459,-0.15535
0.25014,-0.038875,0.16928,0.054406,0.016683,0.011394,-0.0054018,0.019623
0.61562,-0.67811,0.19475,0.12352,0.038882,0.028411,-0.011942,0.19064
-0.49613,-0.10309,-0.079926,-0.0019694,0.023576,0.037859,0.052592,-0.12924
0.45281,-0.034647,-0.040722,-0.12751,-0.014432,0.015473,0.022486,0.065095
-0.068733,-0.30535,-0.34716,-0.058518,-0.052658,-0.102,-0.056968,-0.11947
-0.27671,0.69451,0.21677,0.07169,0.040786,0.067654,0.00037427,0.018257
-0.1644,0.1169,-0.34293,-0.073045,-0.07077,-0.11652,-0.087727,-0.046254
-0.40826,-0.47898,0.23085,0.077671,0.041938,0.095437,0.16259,0.10874
0.10039,0.11323,0.23525,0.055404,0.011665,0.047506,-0.029871,-0.055023
0.49616,0.12007,-0.11786,-0.06909,-0.0050429,-0.0020153,0.07772,0.18283
-0.35922,0.14634,0.14161,0.001516,-0.031051,-0.091531,-0.16184,-0.30054
0.24598,-0.098738,0.19478,0.087891,0.09062,0.084387,0.057867,0.20036
0.44993,0.20688,-0.6132,-0.16133,-0.11584,-0.1376,-0.16736,-0.26539
-0.019651,-0.10216,-0.031044,0.05074,0.02988,0.08686,0.22709,0.16332
0.029587,0.29215,0.28607,0.091113,0.059459,0.047194,-0.13977,0.14369
-0.51012,-0.75211,-0.051708,-0.063965,-0.034783,-0.069036,0.030138,-0.019557
-0.56077,0.26666,0.22947,0.022616,0.020447,0.05822,0.041864,-0.038179
0.95552,-0.075689,-0.026679,-0.0088863,-0.0017806,0.0065412,0.10571,0.13324
-0.75697,-0.019426,-0.062684,0.020962,0.023046,0.017406,-0.053269,-0.31173
0.78963,-0.49674,-0.027501,0.0027315,-0.03837,-0.034905,0.00028626,0.070587
-0.0076766,0.5231,-0.19505,-0.094654,-0.045772,-0.049394,0.029677,0.091466
-0.60062,0.11,-0.065656,-0.0051884,0.016288,0.020529,-0.1156,-0.17942
0.31145,0.44961,0.032407,0.037257,0.0072111,-0.04384,0.00056075,0.15632
-0.56308,-0.11876,0.24749,0.056623,-0.010314,3.5176e-05,-0.098934,0.013172
0.85169,0.27253,0.18881,0.045475,0.096804,0.13707,0.094113,0.094974
-0.87702,-0.62079,-0.25333,-0.081961,-0.069593,-0.10871,-0.052023,-0.19904
0.66764,-0.529,0.014377,0.010184,0.014155,0.067878,0.17506,0.20216
0.40774,0.34807,-0.07102,0.024773,0.0044261,-0.035978,0.011199,-0.091484
-0.64347,-0.5488,0.060574,-0.0073031,-0.020617,-0.0061529,-0.081511,-0.16556
-0.11533,0.72936,-0.012541,-0.039513,-0.021947,-0.014686,-0.055551,0.089432
0.79954,0.62429,-0.024085,0.013848,0.015983,0.0083952,0.0032262,0.0093243
-0.043939,0.32072,-0.082336,-0.011335,0.022767,0.062665,0.0788,0.23446
-0.4451,-0.76113,0.0093898,0.010072,-0.0094902,-0.078851,-0.001404,-0.14183
-0.8176,-0.35584,0.26811,0.047111,0.028531,0.028861,-0.058472,-0.19029
0.23259,-0.70412,-0.13313,-0.040469,-0.027238,0.026317,0.047617,0.24501
-0.14838,0.45468,-0.17805,-0.041368,-0.0205,-0.05511,0.035382,-0.17202
0.80357,0.38969,0.19594,0.044682,0.0019774,0.0036783,-0.11835,0.027511
0.29686,0.20557,-0.035178,0.0068362,0.016904,0.02351,0.055925,0.047084
0.014121,0.13842,-0.044402,0.0012317,-0.014629,-0.034088,-0.13599,-0.0033863
-0.49,-0.11656,0.0652,-0.011503,0.0012549,0.011117,0.041524,-0.10768
0.43014,0.25134,0.0498,0.061938,0.048989,0.081389,0.19887,0.2269
-0.5503,-0.11992,-0.17804,-0.060169,-0.043324,-0.080925,-0.085269,-0.10083
-0.15503,-0.70139,0.068033,-0.0032164,-0.0023527,0.031888,0.0014863,-0.051667
0.3229,0.428,0.037421,0.037283,0.038931,0.028872,-0.010451,0.077448
0.092356,-0.43346,0.066029,-0.024567,-0.0055882,-0.020144,0.057176,-0.065306
-0.40889,0.038225,-0.2441,-0.11037,-0.065755,-0.045393,-0.10209,-0.11315
0.82163,0.45788,0.17033,0.045932,0.030196,0.0072973,0.10374,0.2381
-0.86061,0.03472,-0.14291,0.038516,-0.0068537,-0.010928,-0.084602,-0.12936
-0.46691,0.055537,0.027858,0.031761,-0.012859,-0.030053,-0.12891,-0.1146
0.9046,-0.24922,0.33928,0.12731,0.066867,0.07475,0.13476,0.2036
0.44291,0.051669,-0.0054733,-0.065611,0.021384,0.084661,0.10543,0.17625
-0.72812,-0.042945,-0.28009,-0.1333,-0.079005,-0.094041,-0.11409,-0.38456
0.54397,0.22117,0.030746,0.02539,0.031317,0.023147,-0.0065723,0.14607
-0.30908,-0.21616,-0.13558,-0.043024,-0.046071,-0.07917,0.03912,-0.02071
0.24527,-0.095769,0.16644,0.11436,0.056063,0.029022,0.0011486,-0.01716
-0.25973,0.43524,-0.070483,-0.04937,-0.045024,-0.042527,-0.174,-0.029987
-0.44506,-0.1364,-0.017462,-0.0028793,0.0023014,0.042465,0.20173,0.0041713
0.68838,-0.12679,0.13093,0.043093,0.041828,0.073291,-0.020327,0.14856
-0.8807,-0.41998,0.093964,0.01065,0.0032203,0.0031195,0.057329,-0.10416
0.3211,0.23524,-0.26106,-0.092178,-0.035489,-0.074462,-0.082472,0.035156
0.30764,0.014059,0.05771,0.039472,-0.0041397,-0.02697,0.011545,-0.0040481
0.10848,0.53831,0.26825,0.069785,0.07366,0.12957,0.017267,0.058984
0.19734,-0.42128,-0.3414,-0.094927,-0.067855,-0.089586,0.034866,-0.0888
-0.33686,-0.071095,0.18858,0.045351,0.016572,0.010673,-0.10822,-0.025954
0.35823,-0.10312,-0.049056,0.021847,-0.001119,-0.0071361,-0.021201,0.083299
-0.53105,0.21073,-0.047207,-0.032677,-0.019175,-0.033377,0.046916,-0.081197
0.19593,0.23729,-0.04059,-0.047984,-0.029498,-0.036352,-0.11319,-0.073715
-0.41713,-0.28336,0.025506,0.046138,0.038534,0.093835,0.24259,0.035954
0.12666,0.18452,0.088899,-0.00044857,-0.010138,-0.040803,-0.15736,0.076361
0.9965,0.051208,-0.0061663,0.038652,0.043353,0.044355,0.071153,0.13359
-0.79394,-0.061785,-0.016931,-0.0086224,-0.0041725,-0.017906,-0.0243,-0.13633
-0.23792,-0.66481,-0.060006,-0.033067,-0.020121,0.0143,0.024959,0.031649
-0.054431,0.18619,0.12299,0.043336,0.049881,0.070179,0.069728,-0.003897
0.86642,0.29599,-0.029839,-0.068469,-0.060107,-0.08517,-0.047484,-0.024991
-0.16957,0.36879,-0.10379,0.014475,0.0090889,-0.022466,2.1979e-05,0.10845
-0.46563,0.062535,0.13625,0.042444,-0.023802,-0.046571,-0.1797,-0.26779
-0.13739,-0.4568,-0.20738,-0.046697,-0.010155,-0.0011349,0.06859,0.13563
-0.41008,-0.17958,-0.047985,-0.033815,-0.035559,-0.010839,-0.060381,-0.18847
0.78741,0.12231,0.25561,0.08141,0.095716,0.14349,0.19882,0.24505
0.22857,0.028157,0.00051538,0.0022935,0.0012256,-0.022153,0.057224,0.12436
0.27211,0.19491,-0.063475,-0.013322,-0.021936,-0.03878,-0.14892,-0.14388
-0.5987,0.23213,0.08645,0.057884,0.041873,0.054575,0.026108,0.073239
-0.11917,-0.22762,-0.20691,-0.11243,-0.073154,-0.1016,-0.018785,-0.060421
-0.22698,-0.2865,0.039705,0.014577,0.0076572,0.00029196,-0.025252,-0.15456
0.31326,0.10153,0.16901,0.016827,0.026109,0.047522,0.038539,0.14991
0.07413,-0.087987,-0.085441,0.011404,0.020912,0.032145,0.048197,-0.076836
-0.44902,0.096832,-0.0991,0.0060985,-0.039432,-0.053653,-0.065999,0.040261
0.55189,-0.0096389,0.13578,0.00093892,-0.014401,0.0089997,-0.022299,0.1108
0.0093842,0.51255,0.025695,-0.0040432,0.02573,-0.021875,0.023376,-0.16183
-0.059393,-0.64348,-0.34299,-0.055748,-0.051711,-0.052318,-0.092954,0.0038395
-0.076606,0.13733,0.18631,0.041009,0.042507,0.097477,0.15974,0.01406
-0.0055528,0.45491,0.12927,0.028156,0.027262,-0.010044,0.015342,0.079509
-0.56934,-0.39437,0.04014,0.038129,0.027579,0.070173,0.012196,0.059019
0.74946,0.1765,-0.066405,-0.062323,-0.050386,-0.068553,0.024546,-0.0012799
-0.61083,-0.3998,-0.012015,-0.0079903,-0.019317,-0.028293,-0.20605,-0.19593
0.78801,-0.048141,0.014398,0.036786,0.026819,0.010819,-0.00024514,0.09163
0.43215,0.34698,0.11331,0.0016491,0.025355,0.025097,0.071656,0.1189
-0.39306,-0.020355,-0.17659,-0.019401,-0.0081269,-0.008845,0.033426,-0.12179
-0.58632,0.058883,-0.034365,-0.049255,-0.050064,-0.043753,-0.0050402,-0.10639
-0.65179,-0.090945,-0.05206,-0.0090161,-0.0064069,0.0069717,0.027111,0.056689
0.3241,-0.49987,0.038523,0.039683,0.013893,-0.0042859,-0.057228,0.056081
-0.01607,0.2596,0.045122,0.019515,0.0113,0.032657,0.11709,0.041293
0.51772,0.49427,0.0019649,0.0091715,0.009648,-0.022211,-0.090695,-0.010319
0.77022,0.35968,0.083272,0.016688,0.02479,0.057935,0.0065712,0.05789
-0.47165,-0.24806,0.01689,-0.0049614,-0.021399,-0.0083135,0.025603,-0.027544
-0.16721,-0.20611,0.013771,-0.017193,0.0036628,-0.034031,-0.080944,-0.079476
-0.17813,-0.48334,-0.083542,-0.0050662,0.0058156,0.018964,0.045943,0.0031113
0.22459,-0.060733,0.019677,-0.0083791,0.0080076,0.0012208,0.015447,0.055577
