-0.085677,-0.12938,-0.019218,-0.010805,0.0067308,0.0045434,0.0099918,-0.016546
0.061889,-0.036669,0.14779,0.36608,0.077274,0.051913,0.026153,0.0088219
0.15923,0.031785,-0.10229,-0.49299,-0.11082,-0.057396,-0.019923,0.042285
-0.20003,0.028495,0.10677,0.31943,0.036102,0.020263,-0.0034826,-0.033741
0.14874,0.078408,-0.13731,-0.038854,-0.0052011,0.0036418,0.0049513,0.030362
0.1911,0.041471,-0.12936,-0.26929,-0.038972,-0.060257,-0.041622,-0.023505
-0.38385,-0.33906,0.062214,0.21553,-0.017707,0.016309,0.0052193,-0.023599
0.12101,0.10217,0.16535,-0.21639,0.0045614,0.022711,0.028376,0.006689
-0.089507,0.030378,-0.085181,0.044147,0.043958,0.013939,-0.0032472,-0.018359
0.056203,0.071178,0.075514,0.18324,0.030358,-0.0019746,0.012083,0.034405
0.23848,0.19317,0.090903,0.22958,0.026051,-0.0015091,-0.011426,-0.029952
-0.042811,0.12195,0.12243,0.18767,0.053891,0.023076,0.027872,0.077977
-0.16354,-0.37062,-0.35617,-0.38336,-0.11352,-0.029984,-0.026251,-0.047808
0.015464,0.041791,0.16045,-0.2048,0.015142,0.026535,-0.0019519,0.014693
-0.093455,-0.05633,-0.29014,-0.20739,-0.12335,-0.057641,-0.024297,-0.047007
0.28929,0.17023,0.2684,0.32074,0.1425,0.037595,0.016009,0.040454
-0.025113,0.0030135,-0.12385,0.10115,-0.046665,-0.00035524,0.017324,0.01133
-0.31865,-0.29108,0.035161,-0.11983,0.020473,-0.015218,-0.0048057,-0.040759
0.049184,0.19621,0.052641,0.014034,0.032083,0.00092996,0.012047,-0.0065656
0.03973,-0.11877,-0.068962,-0.21184,-0.042285,-0.0064491,-0.018129,-0.0033983
0.11463,0.13312,0.1175,0.19752,-0.02998,0.0018267,-0.001653,0.054544
-0.014483,0.023297,0.089481,0.22727,0.085234,0.041417,-0.0089007,-0.028224
0.0043975,-0.018704,-0.16099,-0.022423,-0.086925,-0.028384,0.0069447,0.013701
0.0072192,-0.033423,-0.0021639,0.070201,0.062948,0.018799,-0.0010411,-0.02307
0.063885,0.21095,0.12688,-0.18668,-0.0044879,-0.0047793,0.021795,0.0096302
0.017459,0.2191,-0.017696,-0.15682,-0.031935,0.017842,0.012942,0.033443
-0.2109,-0.51976,-0.062165,0.45324,0.10497,-0.015026,-0.027564,-0.029889
0.10489,-0.031208,-0.17895,-0.74884,-0.10222,-0.048665,0.0097464,0.022776
-0.17588,-0.13636,0.077513,0.23727,-0.029002,-0.020361,-0.046836,-0.066181
0.15813,0.24357,-0.041813,0.02308,0.011849,0.031177,0.029479,0.0082804
0.076527,0.07145,0.25341,0.40091,0.074972,0.043864,0.020199,0.027876
-0.028956,-0.032878,-0.35597,-0.53206,-0.16761,-0.036615,-0.019753,0.00090589
0.069461,0.034943,0.27908,0.24243,0.20621,0.071227,0.011345,0.013718
-0.1896,-0.0040101,-0.013528,0.10828,-0.19395,-0.070066,-0.011476,0.004063
0.069724,0.0079782,0.093243,-0.052489,0.18673,0.039362,0.0054051,-0.012393
-0.097395,-0.030216,-0.0038407,0.53889,0.012349,-0.02266,-0.0007997,-0.0045678
0.12937,0.060589,0.060605,-0.36333,-0.037473,-0.014308,0.00074369,0.035018
-0.039533,-0.12704,-0.33199,-0.51285,-0.087783,-0.0062392,0.017372,-0.050302
0.23092,0.26481,0.044458,0.21244,-0.021336,0.0012937,0.0095808,0.035949
-0.28702,-0.26522,-0.035975,-0.10286,0.0058541,0.039437,-0.0073076,-0.034648
0.31164,-0.046213,-0.024724,0.23712,0.11921,0.014509,-0.0021117,0.026851
-0.49757,-0.1957,0.064938,-0.054417,-0.11821,-0.065442,-0.04492,-0.037282
0.22224,0.3881,0.25108,0.088592,0.091021,0.026515,0.013221,0.038853
0.056922,0.13554,-0.081512,-0.017265,-0.17453,-0.013865,-0.014452,-0.017774
-0.024323,-0.12439,-0.0099271,0.092821,0.2338,0.0013556,-0.0021139,-0.019204
0.11218,-0.15641,-0.14362,-0.50005,-0.059097,0.017833,0.043162,0.050601
-0.14184,-0.10823,0.024093,0.2604,-0.030164,-0.018953,-0.003135,-0.02683
0.0037999,0.059653,0.092863,0.085073,0.01529,0.031567,-0.00026703,-0.0092305
0.042253,0.1832,0.16983,0.62085,-0.09534,0.012847,0.012393,0.0094984
0.028818,0.11361,-0.23146,-0.55684,0.10599,-0.020922,0.018531,0.013361
-0.075426,-0.2046,-0.12811,-0.24021,-0.060972,-0.015669,-0.037488,0.001821
0.033807,0.016612,0.21365,0.69281,0.075317,0.035784,-0.00043522,-0.0023025
-0.066288,-0.036364,-0.11989,-0.9552,-0.071162,-0.038984,0.019407,0.00039657
-0.0020746,-0.18483,-0.057254,0.033492,-0.03932,-0.045034,-0.056708,-0.06086
0.29517,0.31272,0.012488,0.24478,0.061775,0.056547,0.028797,0.071488
-0.012046,0.13569,0.075237,0.046361,0.0059311,0.023648,0.0026675,-0.0087968
-0.33115,-0.23917,-0.016431,0.28253,-0.050271,-0.010639,-0.0017436,-0.020183
0.11076,0.048194,0.308,0.6879,0.11994,0.00099134,-0.0070893,0.006594
-0.17823,-0.32152,-0.24121,-0.59705,0.0010072,-0.034697,0.0031275,-0.029363
0.19356,0.23884,-0.040443,-0.37726,-0.19621,-0.015613,0.0062712,0.013281
-0.045673,0.16787,0.1664,-0.54329,0.13753,0.02747,0.034195,0.025785
0.020008,-0.28369,-0.35659,0.54609,0.025506,0.03241,-0.0065274,-0.022656
0.095443,0.29832,0.15522,0.17337,-0.079217,0.038471,0.0013238,0.055641
0.017822,-0.11794,0.13924,0.17607,0.09685,-0.094946,-0.028412,-0.051938
-0.14975,0.044447,-0.17714,-0.45987,-0.15704,-0.016419,-0.025822,-0.017645
0.11611,0.13551,0.18424,0.75107,0.10475,0.078469,0.032048,0.087636
-0.028975,-0.1744,-0.19639,-0.5187,-0.054891,-0.05282,-0.011533,-0.064866
-0.039078,-0.34742,-0.11375,-0.47243,0.091004,0.026839,0.014891,-0.0070063
-0.016829,0.22529,0.1839,0.53771,0.02716,0.035865,-0.0061751,0.0029496
0.005551,0.067258,0.23663,0.62018,-0.082112,-0.010334,0.0032096,0.0038379
0.050758,0.23393,-0.0024097,-0.80415,-0.041386,-0.033683,0.0039326,-0.0043167
-0.17855,-0.19537,-0.24507,-0.34552,0.078995,0.012843,0.011692,0.0021733
0.2471,0.038605,-0.09459,0.4172,-0.080532,-0.065737,-0.02802,0.00027609
0.015165,0.038967,0.15786,-0.00097968,-0.028131,0.0044618,0.0022355,0.013896
-0.26495,-0.28658,-0.13828,-0.21787,0.024754,0.036386,-0.014444,-0.034667
0.08649,0.03193,0.17137,0.71119,0.31969,0.038167,0.023772,0.018952
0.077313,0.19848,0.015253,0.21525,-0.22211,0.033329,0.015522,0.049878
0.15284,0.21341,-0.05248,-0.75283,-0.093384,-0.017392,-0.007851,-0.020077
-0.014963,-0.22815,-0.15651,-0.28639,-0.028884,-0.083207,-0.02294,-0.034871
-0.23055,-0.040975,0.23556,0.31124,-0.020879,0.046189,0.016974,0.036452
0.014374,-0.015201,-0.061942,0.38614,0.10268,0.065434,0.0022662,-0.032965
-0.060689,0.066633,0.10174,-0.68385,-0.017202,-0.072927,-0.004862,-0.016786
0.08421,-0.17962,-0.48971,-0.11482,0.15115,-0.033331,0.010925,0.014557
0.043662,0.1198,0.2362,0.51677,-0.095015,0.0044226,-0.0052823,0.0063722
0.1151,0.22164,0.25753,0.47648,-0.13823,0.0092329,-0.014521,0.0056216
-0.1311,-0.1952,-0.24552,-0.58938,0.060691,0.012704,0.0066949,0.012441
-0.023551,-0.029644,0.22641,0.073001,0.032999,0.046563,-0.0039264,-0.012091
0.022649,0.069801,0.13257,0.65387,0.083308,0.0097628,-0.0069826,-0.0053595
0.19364,-0.037143,-0.33411,-0.93772,-0.12441,-0.026885,0.013576,0.024901
-0.23076,-0.091903,0.03472,0.34147,0.15199,0.0073845,-0.0043074,-0.046264
0.099863,0.10194,0.088425,0.5527,-0.02492,-0.019837,0.025699,0.062427
-0.13543,0.061329,0.028761,-0.95866,-0.25654,-0.030079,-0.013313,-0.023982
0.14941,-0.01706,-0.23049,-0.5946,0.066779,-0.046524,-0.01966,-0.024171
-0.12289,-0.18668,0.014562,0.52576,-0.1094,-0.02218,-0.032469,-0.039598
0.064774,0.1237,0.062329,0.48657,0.45727,0.18349,0.057378,0.047042
-0.074863,0.047386,0.078676,0.22216,-0.092619,-0.039221,-0.0083522,0.0092836
0.053687,0.07656,0.21357,0.38311,-0.001402,0.027871,0.035425,0.02686
-0.087344,-0.26587,-0.32909,-0.15627,-0.1052,-0.09251,-0.038433,-0.017457
0.15102,0.30819,0.19266,-0.25832,-0.24781,0.012955,-0.0039006,-0.0066102
0.10434,-0.22597,-0.23812,-0.80994,0.039714,-0.070421,-0.017623,-0.034565
0.029188,0.13026,0.27488,0.55213,0.023421,0.039779,0.0061438,0.015596
-0.27161,-0.13227,-0.06771,-0.42483,0.25854,0.062197,0.020573,-0.0048663
0.027962,0.11813,0.27085,0.28928,0.13618,0.012646,0.002501,0.036563
0.082238,-0.10368,-0.39847,0.10885,-0.25745,-0.014684,-0.024177,-0.0088177
-0.11018,-0.024621,-0.18527,0.042896,-0.016127,-0.066049,0.0035985,-0.0083922
0.15322,0.24602,0.27109,-0.086835,-0.015143,0.038947,0.016082,0.022121
-0.041415,-0.12716,0.051516,0.77553,-0.012851,-0.034939,-0.017497,-0.042243
0.017825,0.0051883,-0.12142,-0.43176,-0.072475,0.040985,0.012549,0.0096308
-0.16751,-0.19166,-0.063774,-0.34099,0.23479,-0.0063729,-0.003065,-0.017268
0.13101,0.12745,0.11122,-0.23284,-0.17016,-0.0050798,0.0058321,0.018073
0.001168,0.065457,-0.0076,0.018603,-0.014914,0.01337,0.01546,0.022308
0.014826,-0.14992,-0.0048189,-0.1713,0.16057,-0.0062104,-0.0059011,-0.043263
-0.014475,0.20082,0.18164,0.59733,0.090083,0.037095,0.0037485,0.048176
0.12461,-0.030597,0.15908,0.71639,0.14864,0.056699,-0.010701,-0.00013249
-0.16189,-0.024262,-0.11479,-0.49306,-0.6083,-0.072902,-0.033884,-0.024143
0.023721,-0.085823,-0.53438,-0.7029,0.17241,-0.12539,0.0044665,0.030705
-0.061849,-0.044745,0.24042,-0.32806,-0.077349,0.016485,0.010768,-0.046708
0.13483,0.097457,-0.11368,0.18429,0.0041888,0.024879,0.0087859,0.0090511
-0.082778,0.034647,0.19813,0.75315,0.19246,0.079879,0.0067463,0.002511
0.034242,0.10943,0.19818,0.42931,0.058798,0.049014,0.0050549,0.0038776
0.05541,-0.022584,-0.043457,-0.45588,0.16544,-0.0050567,0.011848,0.013094
-0.19162,-0.36919,-0.24508,-0.33678,-0.051737,-0.051147,-0.011745,-0.024554
0.1446,0.19531,0.14116,-0.11571,-0.056279,0.01987,0.0046338,0.015916
-0.068569,0.14087,0.10098,0.52539,-0.21059,-0.0032713,-0.025052,0.017283
0.13028,-0.25754,-0.45004,-0.61661,-0.072125,-0.14429,-0.022893,-0.012698
-0.031639,0.21244,0.34124,0.28876,0.01336,0.096649,0.026431,-0.0037911
-0.05353,-0.13566,-0.070691,-0.25414,0.084011,0.024255,0.013178,-0.010772
-0.043898,0.18286,0.096405,-0.091284,0.077491,0.0058654,0.015081,0.01316
0.0059389,-0.11366,0.085231,0.67374,0.0026524,-0.0051545,-0.015104,-0.025791
0.11238,0.21588,-0.041692,0.21782,0.15016,0.061772,0.023885,0.052059
-0.10681,-0.087748,-0.17536,-0.89296,-0.22036,-0.10561,-0.024367,-0.018865
-0.018572,-0.15874,-0.035139,0.40569,-0.013356,0.031942,-0.019219,-0.035343
-0.037153,-0.05271,0.073633,0.37952,0.077422,0.029264,0.00048359,0.018383
0.14933,0.0035488,-0.10742,-0.68357,-0.0092882,-0.051064,-0.0039202,0.0096468
-0.046094,-0.012833,0.29633,0.37855,0.055501,0.017562,0.0071629,-0.014537
0.20344,0.16498,0.003615,-0.30346,-0.024596,0.016393,0.01868,0.024057
-0.15019,0.069832,-0.039916,-0.044174,-0.14006,8.719e-05,-0.00010391,-0.0073419
-0.18611,-0.21857,-0.28655,0.17811,-0.048848,0.015477,-0.0097541,-0.02282
0.04834,0.15264,0.21816,0.43233,0.35018,0.0078342,0.02115,0.047845
0.022064,-0.057991,-0.13346,-0.57161,-0.17796,-0.04629,-0.02463,-0.053293
-0.061107,0.0090252,-0.027073,0.40778,-0.0012031,0.0093826,0.0089035,0.032982
0.14365,0.040628,0.19517,-0.2001,-0.08909,-0.012586,-0.0036499,-0.01379
0.090616,-0.19084,-0.21578,-0.020107,0.010749,0.012876,-0.0080794,-0.029662
-0.11765,0.13347,0.036889,-0.12195,0.078931,-0.00013435,0.026396,0.063435
-0.082099,0.16825,0.21756,-0.16865,-0.025622,0.0030187,-0.0099848,-0.015732
0.19747,0.0058234,0.15201,0.802,0.18905,0.029977,0.0075388,0.0063753
-0.17761,-0.28456,-0.2645,-0.6853,-0.22236,-0.028929,-0.038285,-0.041937
0.065595,0.054416,0.12869,0.14387,-0.0096135,0.013418,0.0010903,-0.0041833
-0.026685,-0.14907,-0.28084,0.032039,-0.01604,0.031614,0.0087201,0.010519
0.03713,0.29304,0.082921,-0.19309,-0.092727,-0.021555,0.023976,0.018012
-0.016825,-0.1262,-0.12468,0.26401,0.22947,-0.044714,-0.023158,-0.020639
0.05348,0.086312,0.073337,-0.059828,0.013235,-0.037849,0.0081553,0.019553
-0.056499,0.18922,0.21755,0.30914,0.02407,0.077386,0.03988,0.036867
-0.10418,-0.17619,0.083642,-0.25708,-0.12123,0.0045061,-0.013964,-0.0080376
-0.0031002,-0.19695,-0.17735,-0.25333,-0.071659,-0.045079,-0.020707,-0.029559
0.17694,0.11948,0.0074501,0.31869,0.055032,0.022843,-0.0039746,-0.0045722
-0.024655,-0.0078823,-0.078507,-0.26019,0.13345,0.036759,-0.018631,-0.027048
0.017142,-0.055431,-0.12107,0.18301,-0.078678,-0.057813,0.0055174,-0.0033193
-0.072938,0.11746,0.18538,-0.091481,-0.1358,0.036025,0.021554,0.035414
0.056141,0.018374,0.067514,-0.23656,0.15799,0.029074,0.0060664,0.011179
-0.15876,-0.10319,0.03247,0.66553,-0.17308,-0.016415,-0.02525,-0.036769
0.15675,0.16612,-0.046075,-0.83497,0.14525,-0.069487,0.013619,0.055818
0.017883,0.012982,-0.029219,0.7644,0.051186,0.033637,0.0055386,-0.015616
-0.067681,-0.17267,-0.090638,-0.48049,-0.079897,-0.011962,0.0052078,-0.016622
0.017432,-0.00063251,-0.036605,0.21919,0.072295,0.012306,-0.01866,-0.0096788
-0.070059,0.021272,0.11612,0.34642,-0.13329,0.036028,0.011988,0.013024
-0.01702,-0.012796,-0.047086,-0.73374,0.02131,-0.018964,-0.004493,-0.011018
0.075621,-0.00055709,0.06752,0.85932,0.1445,0.05046,0.017772,0.0041417
-0.026056,-0.034941,0.04637,-0.71203,-0.061596,-0.06814,-0.014983,0.0038409
0.08434,0.056625,-0.18782,-0.36257,-0.074414,-0.0074497,-0.0089547,-0.019706
0.078453,0.10267,0.037884,0.93149,0.035189,-0.0094654,-0.018711,0.019451
-0.1927,0.095428,0.14646,-0.59424,-0.0063569,0.01199,0.018426,0.004103
0.11392,-0.074721,-0.056367,0.093173,0.035632,0.0024779,0.0089044,0.012315
-0.15081,-0.18939,-0.046266,0.23739,-0.0022149,0.048151,0.0076023,-0.0028798
0.13765,0.06365,0.16963,0.12819,-0.072091,0.031961,0.014664,-0.01033
-0.098936,-0.13601,-0.26761,-0.58643,-0.048025,-0.085114,-0.024515,-0.017926
0.077195,0.094575,0.087533,0.37304,0.00046744,-0.0062597,-0.00054875,0.013363
-0.013025,0.068118,0.0084475,0.23812,0.17539,-0.0050672,-0.0072405,-0.010187
-0.025009,0.073787,-0.052106,-0.26038,0.01581,0.0041673,-0.0056404,0.013066
0.010877,-0.0057854,0.12393,0.092682,0.068208,0.052397,0.0040866,0.0051062
-0.021811,-0.10867,-0.0035099,-0.44002,-0.14459,-0.01696,0.0061044,-0.02615
-0.01326,-0.040472,0.087752,0.64769,-0.037227,0.03796,0.0079805,0.0053034
0.059982,0.1508,-0.20519,-0.28472,-0.055348,-0.025275,0.032896,0.036975
0.025597,-0.012496,0.038298,0.069433,-0.10514,-0.02708,-0.036569,-0.009315
-0.0078725,0.070451,-0.018651,-0.45026,0.16538,-0.037662,0.00255,0.014763
-0.025871,-0.23333,0.021948,-0.065587,0.022475,0.02143,-0.029483,-0.05498
0.064267,0.11581,0.34771,0.78323,0.099585,0.041338,0.031488,0.015724
-0.17583,-0.099528,-0.41567,-0.51649,-0.032575,-0.024187,-0.0017988,0.00025093
0.16743,-0.033703,-0.1186,0.41347,-0.14738,-0.018272,-0.0039912,0.023609
-0.13249,0.1279,0.13095,-0.22237,0.059566,0.020519,0.001889,-6.8972e-05
-0.051672,-0.026915,0.11565,-0.049411,0.025188,-0.0012877,-0.030627,-0.031601
0.12167,0.057767,0.039725,0.21947,0.014421,0.041305,0.023782,0.015088
-0.017708,-0.086537,-0.01032,-0.37956,0.034443,-0.023864,0.024661,-0.00049902
0.21085,0.25034,0.098262,0.37686,-0.055792,0.013626,-0.012388,0.01547
-0.23093,-0.28483,-0.32267,-0.45166,-0.053252,-0.057819,-0.017274,-0.030737
0.040285,0.14166,0.15552,0.29675,0.034507,-0.0045064,0.017427,0.032702
-0.076825,-0.034987,0.0082504,-0.41052,-0.073234,0.063585,0.01311,-0.013083
0.073942,0.0036531,0.10949,0.70721,0.038234,-0.010235,0.0083503,0.034877
-0.078027,0.037755,-0.088258,-0.41262,0.072597,-0.038693,-0.036309,-0.034516
0.11517,-0.12804,0.032101,0.019231,0.030151,0.025084,-0.01172,-0.026074
-0.050325,-0.14901,-0.26332,-0.10645,0.035819,0.001604,0.0039715,0.0054435
0.10431,0.13277,0.20614,0.53069,-0.098346,-0.022855,0.0031283,0.013155
-0.10152,0.10989,0.0041919,-0.71786,-0.013681,-0.008832,0.0016924,0.020536
-0.0045723,-0.020627,-0.047646,0.61663,0.039011,-0.002827,0.0078494,-0.0035991
-0.027313,2.2369e-05,0.27024,0.28438,0.012153,0.081367,0.014124,-0.020132
0.0018503,1.2048e-05,-0.37778,-1.0029,-0.17283,-0.068631,-0.018317,0.0022227
0.083008,0.095644,0.14078,0.091805,0.15584,0.047144,0.035605,0.016597
-0.0099455,0.02758,-0.057808,-0.031333,0.084358,0.0066622,0.0039538,0.01517
-0.080929,0.020696,0.37668,0.6449,-0.066393,-0.034024,-0.035306,-0.025501
0.019467,-0.27007,-0.36969,-0.10483,0.00123,-0.067271,-0.027684,-0.019452
-0.012393,0.029787,0.076879,0.14189,-0.14946,0.063093,0.026651,0.017768
0.090102,-0.063593,-0.018645,-0.32619,0.021297,-0.017891,0.010417,0.031604
-0.0082003,0.0059096,-0.046785,0.15402,0.12324,0.010233,-0.021702,-0.055886
-0.088067,0.24808,0.11054,-0.12981,2.1365e-05,0.085174,0.031933,0.044566
0.030305,-0.17882,-0.24829,-0.61667,-0.020851,-0.12096,-0.031676,-0.04185
-0.012718,0.0626,0.11295,0.55144,0.075147,0.032639,-0.0014604,-0.0025024
0.0088214,0.12918,0.17252,0.49055,-0.033682,-0.0085736,0.021122,0.037644
0.047191,-0.018632,-0.052728,-0.51904,-0.0049596,0.028882,0.02049,0.0081915
0.11703,0.078697,0.078267,0.52981,-0.058466,0.019971,-0.011187,0.026133
-0.22012,-0.29959,-0.16153,-0.53515,-0.093041,-0.019778,-0.019286,-0.049429
0.050607,0.031853,0.054731,-0.39351,0.14172,0.01108,0.003916,-4.3063e-05
-0.016571,-0.0069517,-0.063891,0.58809,-0.0092295,-0.051617,-0.011966,-0.029096
0.05482,0.14527,0.050803,0.11374,-0.02059,0.034275,0.026781,0.035103
-0.063095,0.011528,0.11557,-0.057502,-0.14797,-0.020283,-0.02827,-0.010659
0.052065,-0.024966,-0.12113,-0.36971,0.10301,0.019152,0.0026228,0.028934
0.010311,-0.072499,0.011763,0.060921,0.070044,-0.027028,0.017972,-0.025741
-0.015851,-0.051387,-0.1029,0.10993,0.13701,0.036518,0.002225,0.0051045
0.052225,0.063539,0.067021,0.058454,-0.18031,-0.01683,0.002304,-0.011242
-0.035121,0.070732,0.054325,0.24954,0.015824,0.00025595,-0.0052221,0.026864
-0.098067,-0.091163,0.087529,-0.028915,-0.041662,0.017202,-0.036014,-0.021143
0.11332,-0.023206,-0.26887,-0.55156,0.035997,0.018083,0.027043,0.01665
-0.057448,0.23534,0.088369,0.39173,0.0046526,-0.012978,0.019801,-0.00034017
0.03771,-0.11318,0.043158,-0.08178,0.04228,0.017665,0.012492,-0.0017371
-0.023498,-0.10121,0.10365,-0.04896,0.085197,-0.061751,-0.018363,-0.01868
0.00071882,0.090363,0.22254,0.7193,-0.15612,-0.00086512,-0.025869,0.0036794
0.16475,0.038728,-0.21054,-0.92963,-0.017322,0.0055764,0.013505,0.02648
-0.19557,-0.16278,-0.32192,-0.26509,-0.075597,-0.018333,-0.017277,-0.05164
-0.025445,-0.013926,-0.019163,0.15423,0.060947,0.013929,0.006957,0.011659
-0.012021,-0.0061426,0.45444,0.44799,0.018516,0.040206,0.0082172,0.005482
0.07959,0.11947,-0.30026,0.29608,0.016586,0.021409,0.0099755,0.031281
0.054644,0.043682,0.22425,-0.1478,0.094148,-0.027285,-0.019129,0.018467
-0.047313,-0.09215,-0.10478,-0.52963,0.023655,0.018309,0.022199,-0.025563
-0.046304,0.016826,-0.068228,0.66664,-0.024761,0.016536,0.016381,-0.0075419
0.065509,0.041986,0.084522,-0.27808,0.040524,-0.025826,0.0098511,0.001769
0.014446,0.013496,-0.20046,0.074148,-0.040267,-0.039279,-0.021208,0.0098674
-0.020263,0.24242,0.27294,0.28081,-0.11996,0.014829,-0.014513,-0.014596
-0.054833,-0.36648,0.099201,-0.8002,-0.17524,-0.035294,-0.024724,-0.016782
0.0038702,-0.1191,-0.44768,0.07583,0.31067,0.037476,-0.0046703,-0.011938
0.030294,0.11662,0.19508,-0.0068204,-0.097425,-0.023759,0.014914,0.0082727
-0.046294,-0.042357,-0.02729,-0.016097,-0.11517,-0.0069991,-0.0043987,0.013157
0.094172,0.24018,0.14256,0.14325,0.0029034,0.018436,0.008312,0.026615
-0.024923,0.066361,0.11007,0.71371,0.34565,0.092327,0.030057,0.0020348
-0.03624,-0.24273,-0.18051,-0.50246,-0.13962,-0.034995,0.014151,-0.013696
0.060573,0.10279,0.011943,0.26206,-0.13182,-0.012055,-0.0082596,0.01044
-0.030833,0.002258,-0.18067,-0.18219,0.040382,-0.042407,-0.0062812,-0.011905
-0.13012,-0.16842,0.25673,0.019171,0.00031066,-0.025124,-0.035118,-0.010905
0.10716,0.13856,-0.066541,-0.45319,0.0032744,0.031301,0.0062364,0.012994
0.0019065,-0.0055926,-0.056331,0.17471,0.10111,0.032535,0.00012203,-0.010828
0.0076716,-0.068884,-0.16501,-0.095807,0.033316,-0.029609,0.0087334,-0.012156
-0.023861,0.066401,0.31152,0.62904,-0.17094,0.016627,0.008541,0.016947
0.11025,0.064532,-0.0789,-0.17645,0.01846,-0.016115,-0.0081493,-0.0091371
-0.043569,-0.10588,0.00053686,-0.53529,-0.10165,-0.018105,-0.0098012,-0.011841
-0.079657,0.046908,0.089548,0.5633,0.016556,0.0033225,-0.0038434,0.017121
0.0013931,0.13942,-0.18642,-0.23503,0.17156,0.0095963,0.017936,0.0078418
0.074132,-0.14159,0.11038,-0.1272,-0.080085,0.032359,0.008996,0.030896
-0.096032,-0.12495,-0.13715,-0.044479,0.091356,0.009318,0.00079826,-0.030828
0.0065636,-0.037794,-0.17129,-0.59906,-0.078732,-0.059553,-0.014417,-0.021199
0.093102,0.14286,0.37479,1.0085,-0.0042272,0.028616,-0.0055025,0.012629
-0.054815,0.11201,-0.10108,0.051095,-0.021711,-3.8792e-05,0.0038717,-0.015669
0.016277,0.033429,0.21269,-0.084605,0.13316,0.002411,0.013396,0.034105
-0.021543,-0.13998,-0.22404,0.3762,0.075981,0.074552,0.007119,0.020932
-0.043276,-0.056826,0.032983,-0.28512,-0.24159,-0.096448,-0.023053,-0.047669
0.060214,0.048437,-0.14988,-0.5366,0.0076227,0.0049323,-0.0069899,0.0078452
0.069752,0.01962,-0.0074164,-0.2191,0.034363,-0.019584,0.024005,0.0078185
-0.022982,0.013169,0.24171,0.17363,0.0033871,0.010082,-0.015922,-0.0163
-0.023104,-0.18938,-0.23009,0.003059,-0.076072,-0.022728,-0.009383,-0.017313
0.030141,0.31072,0.10927,0.66502,0.063451,0.0544,0.0048279,0.012967
-0.16776,-0.11128,0.081061,-0.41134,-0.029325,0.023136,0.0035564,0.035823
0.11034,0.036984,-0.03257,0.10219,0.21734,0.016493,0.01829,0.0046193
-0.14252,-0.19759,-0.13719,-0.42001,-0.11773,-0.035886,-0.0055082,-0.018056
0.14493,0.15368,0.19731,0.72273,-0.050328,-0.0092594,0.0025127,-0.0088371
0.043818,-0.010908,-0.14615,-0.30272,0.059183,0.0022324,-0.004585,0.0086313
0.023276,0.0037728,-0.058341,-0.21511,-0.056418,-0.025275,0.0043113,0.002814
-0.065282,0.017866,0.15569,0.29539,-0.055263,-0.029657,-0.025657,-0.018778
-0.011633,-0.085937,-0.082674,-0.54952,0.099905,0.051309,0.0069115,0.0060965
-0.004442,0.14546,0.19477,1.0017,0.024869,0.029968,0.015955,0.0069535
0.03303,-0.17067,-0.30935,-0.85479,-0.031118,-0.031229,0.0014076,-0.0084619
0.044763,0.012737,0.22485,-0.27402,-0.013326,0.024,-0.005494,-0.0010537
-0.032741,0.20376,-0.16383,1.0587,-0.10063,-0.023007,-0.012535,0.029288
-0.051488,-0.19104,0.063501,-0.65725,-0.018147,-0.047136,-0.0040469,-0.050099
-0.058135,0.047348,-0.022931,0.2796,0.02493,0.022041,-0.0034356,0.010938
0.018488,-0.041835,0.014248,0.042049,0.14752,0.051813,0.036173,0.032832
0.0078288,-0.028846,0.010761,-0.51492,-0.039636,-0.012435,-0.0024499,3.2472e-05
0.036421,0.11749,-0.057139,-0.073239,0.057992,-0.0065819,0.0056222,-0.0093054
0.058834,0.14702,0.33367,0.71789,-0.0047958,0.053812,-0.0099996,0.020452
0.068368,-0.081033,-0.22323,-0.38396,-0.10347,-0.088961,-0.033735,-0.035675
-0.098417,-0.27765,-0.016647,-0.0045344,0.034571,-0.0050502,0.004743,-0.013564
0.0038931,0.17454,-0.092648,0.11946,-0.068247,-0.0067387,0.011772,0.0244
-0.093815,-0.18502,0.065879,-0.12608,-0.022237,-4.4082e-05,-0.0046908,-0.031004
0.053065,0.23015,-0.15622,-0.022265,0.062461,0.069906,0.025841,0.023506
