0.0079692,0.011044,-0.092533,-0.0014692,0.024636,0.050272,0.031594,0.01051
-0.014079,-0.13537,-0.2329,-0.087177,-0.039659,-0.061261,-0.018132,-0.0066875
-0.022738,-0.085953,-0.12371,0.020327,0.0047958,0.0060264,-0.0052772,-0.0090719
0.028912,0.14434,0.13662,0.094755,0.049077,0.010292,-0.007615,0.026945
-0.069739,-0.18533,-0.24513,-0.23074,-0.133,-0.05583,-0.032657,-0.054687
0.017819,0.10641,0.1876,0.11446,0.068144,0.050351,0.044806,0.027511
0.10481,0.38066,0.78883,0.24768,0.08998,-0.069125,-0.025145,0.031592
-0.034568,-0.20484,-0.43254,-0.11229,-0.013077,0.093908,0.046486,-0.026583
-0.13401,-0.28959,-0.25019,-0.098327,-0.030536,-0.015093,-0.0061318,-0.0061784
0.10385,0.16619,-0.040401,0.016156,0.013669,-0.021251,-0.027068,-0.016388
-0.016101,-0.10273,-0.19543,-0.15142,-0.091779,-0.018701,-0.024506,0.03668
0.037318,0.20071,0.28333,0.18855,0.051441,0.038843,0.032447,0.0046919
0.06063,0.1391,0.23897,0.052619,0.037325,0.033526,0.018519,-0.0029097
-0.063879,-0.11555,0.11717,-0.018974,0.0071268,0.042874,0.027319,0.013905
-0.094601,-0.3521,-0.69789,-0.18898,-0.10072,-0.14443,-0.097384,-0.085503
0.046089,0.031322,0.014613,-0.026497,0.0039173,0.049677,0.043015,0.011292
0.060999,0.25369,0.31155,0.19589,0.048629,-0.085441,-0.043409,0.046314
-0.065575,-0.11466,-0.29769,-0.091855,-0.0049236,-0.002344,0.010814,-0.011963
0.080582,0.16809,0.42936,0.14103,0.077889,0.11216,0.057454,0.054812
-0.070517,0.038618,0.045879,-0.052023,-0.039191,0.024306,0.026262,0.003964
-0.010652,-0.066743,0.040753,-0.024451,0.0023311,0.03136,0.010881,-0.008762
-0.067566,0.17109,0.15938,0.026189,-0.0019709,-0.077561,-0.067062,-0.06973
0.134,-0.44414,-0.47821,-0.13671,-0.053603,-0.0058476,-0.0047569,-0.030756
0.062851,0.22781,0.30342,0.21935,0.095987,-0.011803,-0.021235,0.069081
-0.070181,-0.21113,-0.342,-0.26623,-0.13248,-0.01007,0.016154,-0.043428
-0.015338,0.0056908,-0.22721,0.11707,0.065034,0.069156,0.029303,0.0384
-0.015063,0.35622,0.19671,-0.044469,-0.014699,-0.016618,0.026242,0.049505
-0.061694,-0.29097,-0.12116,-0.023243,0.0037991,-0.0095914,-0.00044129,-0.048565
0.086988,0.33076,0.47999,0.26033,0.082403,-0.018839,-0.050212,0.010393
-0.021918,-0.20005,-0.073625,-0.18428,-0.1136,-0.059427,-0.028733,-0.030953
-0.075546,-0.0086808,0.072873,0.011748,-0.0047549,0.002149,0.0020361,-0.05508
0.090563,0.099379,0.10896,0.013912,0.027311,0.0024728,0.003399,0.094409
-0.046735,-0.19731,-0.15215,-0.075047,0.053812,0.12946,0.077009,0.019016
0.090773,0.061032,-0.23397,0.058217,-0.0028955,-0.01527,-0.0039503,-0.023723
0.018521,0.20152,0.31626,0.15639,0.060342,-0.0023973,-0.0056937,0.0047922
-0.15457,-0.40937,-0.64233,-0.31163,-0.13967,-0.082633,-0.03844,-0.12261
0.063018,0.06386,-0.1645,0.060194,0.021415,0.063423,0.053119,0.10903
0.053358,0.38659,0.49174,0.099398,0.011528,-0.072951,-0.067815,0.011525
-0.043633,-0.14447,0.30224,0.12539,0.064246,0.046597,0.020033,0.021805
-0.0019336,-0.08422,0.054434,-0.1208,-0.039857,-0.015802,-0.011686,-0.024598
0.053176,0.23116,0.30041,0.10952,0.019062,-0.0022926,0.0012918,-0.0028336
-0.081405,-0.42517,-0.5021,-0.22401,-0.095181,-0.021817,-0.010762,-0.045556
-0.045982,-0.029957,-0.23128,-0.052186,0.0001884,0.035728,0.023317,-0.011668
0.10531,0.48708,0.16519,0.22576,0.10996,0.03841,0.034167,0.052686
-0.025299,-0.28792,-0.31383,-0.085919,-0.046944,-0.091042,-0.071086,-0.0313
0.047236,0.30965,0.2538,0.16122,0.076512,0.062113,0.044133,0.018503
-0.074982,-0.29748,-0.20097,-0.14181,-0.050786,-0.033002,-0.0027016,0.01532
-0.0088019,-0.17839,-0.082778,-0.095794,-0.045913,0.022056,0.0070483,-0.024794
0.081813,0.3793,0.83625,0.13626,0.052197,0.02381,0.0025856,0.015411
-0.053265,-0.38855,-0.052733,-0.077219,-0.045332,-0.0049355,-0.0012266,0.034054
-0.0237,-0.051069,-0.32818,-0.055282,-0.02574,0.028793,0.010345,-0.055442
0.084214,0.36889,-0.06118,0.14066,0.05661,-0.016377,-0.010428,0.035144
-0.0032658,0.097636,-0.23673,-0.058966,-0.047951,-0.10975,-0.040756,-0.015382
-0.044098,-0.053429,0.020395,0.033632,0.067106,0.060919,0.03622,0.026599
-0.0069524,0.07805,0.23509,0.043241,0.0035071,-0.012081,-0.013825,-0.019088
-0.079008,-0.33792,-0.18361,-0.14015,-0.074672,-0.023662,-0.042044,-0.058819
-0.10352,-0.084084,0.041551,0.060674,0.043373,0.081474,0.038181,0.0092232
0.31848,0.34669,0.32884,0.15255,0.052719,0.014954,0.01674,0.044995
-0.085981,-0.24053,-0.59912,-0.23255,-0.07035,-0.019443,0.027273,0.0024145
-0.011997,0.054087,0.7214,0.1705,0.033304,0.017883,0.00016992,0.015148
0.03259,0.07639,-0.66159,-0.060222,0.0041697,-0.052382,-0.032835,-0.0097957
-0.14782,-0.23383,0.20412,-0.16657,-0.087445,-0.073801,-0.032462,-0.040632
0.032257,0.18004,0.19065,0.070873,0.032007,0.070791,0.02467,0.016609
0.033171,0.076813,-0.011295,-0.003436,-0.012308,-0.0094802,-0.0023844,0.0055435
0.080876,0.26871,0.3349,0.25948,0.10787,0.013019,-0.0047894,0.042885
-0.09867,-0.48029,-0.46397,-0.14025,-0.02151,0.090693,0.063626,-0.02055
0.048658,0.14729,0.087188,0.015748,-0.0021497,-0.050792,-0.040112,-0.013801
-0.0792,-0.086577,-0.46807,-0.17967,-0.11562,-0.060826,-0.035533,-0.031561
0.048594,-0.013855,0.21266,0.061342,0.059484,0.059714,0.045449,0.019083
0.11925,0.58858,0.20029,0.20616,0.046088,-0.080446,-0.039815,0.059404
-0.13301,-0.6098,0.10637,-0.11361,-0.031318,0.04183,0.028804,-0.074946
0.018437,0.085435,0.043418,0.023103,0.053434,0.051642,0.017054,0.022359
-0.0042645,-0.035731,-0.20384,-0.14952,-0.098283,-0.12863,-0.066823,-0.031065
0.0025292,-0.087754,0.047592,0.0097104,0.060488,0.1425,0.066923,0.038944
0.078623,0.3789,0.27709,0.24424,0.061389,-0.032323,-0.02616,0.045812
-0.11101,-0.24784,-0.38817,-0.23318,-0.13395,-0.058165,-0.017028,-0.064148
0.01272,-0.12679,0.061155,-0.014183,0.022249,0.027049,0.0014186,-0.016549
-0.049269,-0.019029,0.032211,0.0048277,-0.015871,-0.0023047,0.0063954,-0.021558
0.10998,0.3442,-0.052799,0.13016,0.026063,-0.044044,-0.0095537,0.069751
0.022126,-0.11404,0.048083,0.081503,0.10969,0.097357,0.062948,0.030956
-0.023757,0.011551,0.099714,-0.086386,-0.053721,-0.00019164,-0.0030102,-0.028786
-0.02021,0.12435,0.061769,0.00073746,-0.011138,-0.05605,-0.051811,-0.024067
-0.038211,-0.25652,-0.12208,-0.12732,-0.044314,0.014818,0.0094958,-0.010326
0.062014,0.19993,-0.039633,0.050993,0.017808,0.0082424,0.0082139,0.027217
-0.095444,-0.39397,-0.17713,-0.036649,-0.036711,-0.029927,-0.017301,-0.045066
0.066704,0.24691,0.33875,0.17039,0.087975,0.063517,0.041839,0.029961
0.032172,0.22157,-0.0010604,0.022213,0.00033461,-0.079192,-0.072389,0.017462
-0.05884,-0.25993,-0.19731,-0.13827,-0.05029,-0.044235,-0.0083642,-0.020267
0.074766,0.084439,0.14832,0.048185,0.052971,0.13722,0.093561,0.041832
-0.082524,-0.13376,-0.15112,-0.1444,-0.1039,-0.065748,-0.055281,-0.053764
-0.022558,-0.036449,-0.024207,-0.027382,-0.0048784,0.034882,0.029895,-0.017529
0.052036,0.098535,0.12433,0.09602,0.030321,-0.029082,-0.017762,0.018276
0.032449,0.15709,-0.063162,0.08663,0.033642,-0.038389,-0.010554,0.022942
-0.041716,-0.17881,-0.061624,0.0080986,0.021328,0.022938,0.012489,-0.010911
0.0096716,0.10762,0.20061,0.087662,0.017243,0.0065954,-0.003445,-0.0049036
0.030659,0.25078,0.076054,-0.057309,0.021593,0.0062242,0.011717,0.017572
-0.072364,-0.31264,-0.16133,-0.098865,-0.043732,0.05275,0.010814,0.040752
0.083418,0.0098129,-0.026971,-0.013889,-0.014742,0.012906,-0.0064155,-0.021553
-0.017719,0.021582,-0.083421,-0.013577,-0.024309,-0.035645,-0.016698,-0.0055512
-0.0087379,0.034281,0.090978,0.050422,-0.025528,-0.10104,-0.066924,-0.052064
-0.053876,-0.2962,-0.043245,-0.064009,0.012976,0.058817,0.061804,-0.028343
-0.059568,-0.071352,-0.15084,-0.10678,-0.025823,0.0066582,0.033847,-0.004628
0.11461,0.45901,0.20458,0.19548,0.092554,-0.0070177,-0.0097604,0.073918
0.0074645,-0.11918,0.013648,0.022048,0.00086675,0.041923,0.017383,0.019941
0.0015344,0.16232,0.19624,0.028376,-0.019893,-0.033264,-0.040505,-0.018056
0.010582,-0.0021394,-0.093534,0.064952,0.022027,-0.020968,-0.034573,0.014559
0.026561,-0.066929,-0.068516,-0.064636,0.016739,0.032396,0.019865,0.0004405
-0.03655,-0.0097048,-0.034601,-0.025234,-0.020584,0.017615,0.021393,0.0018935
-0.10048,-0.32318,-0.17943,-0.19982,-0.090186,-0.0029783,0.0090148,-0.074982
0.014846,0.047657,0.013698,-0.0018471,0.0032929,-0.022033,-0.0097428,0.011969
-0.025922,0.080548,0.093783,0.062178,0.018004,0.0066514,0.011493,0.036293
0.12161,-0.05087,-0.053591,0.064292,0.024803,0.027623,0.025185,0.006027
0.028304,0.29591,0.14472,0.060901,0.0086613,-0.061406,-0.055331,-0.031688
-0.024273,-0.026041,0.0034918,0.037661,0.040369,0.012438,0.019267,0.009287
-0.028318,-0.031604,0.11779,0.0029086,0.010781,0.053514,0.014082,-0.019443
-0.070108,-0.22876,-0.11385,-0.082782,-0.056755,-0.039796,-0.016474,0.022564
0.068487,0.26427,-0.083064,-0.017471,0.0092485,-0.03292,-0.017704,0.08802
-0.011761,-0.061931,0.020782,0.033014,0.0050627,0.019843,0.0028689,-0.042407
0.0086151,-0.17796,-0.046784,-0.058332,-0.030946,0.025227,0.014496,0.0056617
0.011663,0.11758,0.11823,0.11286,0.056824,0.0071465,-0.0056415,-0.049533
0.0046244,-0.051608,-0.056348,-0.032942,-0.0055443,0.012855,0.021201,-0.036368
-0.028411,0.055965,0.07678,-0.0042759,-0.038587,-0.043372,-0.029467,0.0061771
-0.05614,-0.16131,-0.25615,-0.19947,-0.057856,-0.02088,0.0067426,-0.030857
0.054637,0.20339,0.12507,0.13236,0.054184,0.025501,0.020558,0.071938
0.078032,0.26831,0.14351,0.16462,0.094973,0.07989,0.043131,0.057507
-0.1101,-0.43387,-0.074207,-0.17116,-0.083243,-0.061127,-0.050773,-0.042194
0.022435,-0.026533,-0.10436,-0.013707,-0.026637,0.00065969,-0.0036221,-0.023503
-0.0078833,0.12478,0.22668,0.068307,0.031038,-0.016079,-0.010957,0.012322
0.026204,-0.09567,-0.19679,-0.025553,0.0043071,0.0059713,0.0052386,-0.012768
0.023565,0.15694,0.079428,0.064582,0.0028053,-0.018799,-0.017501,0.010487
0.039019,0.23467,0.055931,0.096375,0.01094,-0.058666,-0.03215,-0.004082
-0.076037,-0.37825,-0.22034,-0.20432,-0.018347,0.10562,0.086484,0.013562
-0.025139,-0.002924,0.16422,0.0051558,0.00052666,-0.0020868,-0.013008,-0.022769
0.011439,0.015553,-0.064756,-0.042083,-0.026666,-0.014439,-0.0024723,0.0039204
0.025199,0.12078,0.067906,0.12147,0.032364,-0.025309,-0.022671,-0.0080548
0.0076209,0.021808,-0.0019931,0.025988,0.020858,0.035167,0.0042184,0.0037272
-0.0029019,-0.0018824,0.036187,-0.0011643,-0.014739,-0.0055921,-0.00035528,-0.0076889
0.016505,0.0092435,-0.069355,-0.030692,-0.0044178,-2.947e-06,0.025633,0.012249
0.0029449,-0.015888,-0.038856,-0.046942,-0.018646,-0.027045,-0.019813,0.008625
-0.043765,-0.10846,0.22049,0.01301,-0.018363,0.0063292,-0.0041828,0.0045424
0.017066,-0.025353,-0.16653,-0.053231,0.0043589,0.021577,0.0021115,0.038659
-0.0017527,0.016384,-0.1759,0.02085,0.026268,0.0030181,0.0070181,-0.0066219
-0.029398,-0.1061,0.053018,-0.021704,-0.0071238,-0.041205,-0.02035,-0.10037
0.05195,0.29692,0.068917,0.13226,0.060609,0.0067573,-0.0091486,0.054144
-0.030491,-0.069531,0.12382,0.037774,-0.036017,-0.0319,-0.013456,0.011692
0.0050948,0.10829,0.18063,0.0073558,5.2802e-06,0.039082,0.029798,-0.032087
-0.036208,-0.16916,-0.16526,-0.092014,-0.01866,0.040861,0.042909,0.017081
0.12702,-0.11315,-0.31114,-0.12782,-0.029281,-0.01815,-0.012982,0.042651
-0.067761,0.10343,0.087322,0.032481,-0.00029703,-0.012684,-0.028546,-0.064094
0.027641,0.14317,0.069121,0.084053,0.029584,0.0024928,0.0037706,0.048982
-0.063681,-0.11286,0.19604,0.0033723,0.0060003,0.050449,0.028883,-0.023973
-0.076499,-0.26023,-0.03323,-0.092469,-0.047398,-0.072489,-0.047397,-0.017164
0.10599,0.35558,-0.12048,0.13224,0.06472,0.0080833,0.024544,0.053702
-0.032217,-0.13414,0.026056,-0.026029,-0.0016174,-0.0052258,-0.028994,-0.046059
0.031995,-0.0040045,0.045097,-0.0053958,-0.0046656,0.012236,0.010631,0.026822
0.024885,0.14373,-0.049198,0.0059493,0.0002894,0.02908,0.026275,0.0061579
0.00090162,-0.042589,-0.038855,0.023023,-0.010826,-0.048386,-0.020974,-0.014847
-0.0010061,0.023683,0.052753,0.022076,0.016137,-0.0012193,0.0019003,0.0024403
-0.027635,-0.16374,-0.046918,-0.11392,-0.044144,0.0067651,0.0091555,-0.01253
-0.016156,0.053705,-0.031626,0.021996,0.019235,0.014835,-0.0068833,-0.012898
-0.044111,-0.10239,0.045847,-0.05335,-0.020027,0.023082,0.016339,-0.021902
0.022089,-0.035322,0.031143,0.013082,-0.0051951,0.00020361,-0.0071412,0.038932
0.02703,0.13238,0.035136,0.043021,0.033066,0.024139,0.016341,0.045028
-0.036383,0.050582,-0.097616,-0.025048,-0.037528,-0.061613,-0.038318,-0.011028
0.066646,-0.015142,0.062529,0.043481,0.033348,0.016153,0.016302,-0.066437
0.0079959,0.050674,-0.047829,0.060428,0.011348,-0.023937,-0.0073226,0.0039519
-0.0096652,-0.020795,0.12442,0.032063,0.03681,0.029096,0.00022362,0.02824
-0.018433,0.063158,-0.07112,0.0031411,-0.023611,-0.035464,-0.015648,0.029684
0.027491,0.13412,0.34802,0.096413,0.056011,0.040573,0.023317,0.0079861
-0.037046,-0.38186,-0.65088,-0.36186,-0.13895,0.0076692,0.031306,-0.021572
-0.0019817,0.0052136,0.072057,0.025737,0.0083484,-0.016525,-0.03065,-0.028053
0.038452,0.21705,0.22791,0.15768,0.052593,0.0074272,0.0093671,-0.011659
-0.064165,-0.17411,0.036378,-0.066465,-0.037142,-0.045262,-0.028343,0.027562
-0.012455,0.022947,-0.047926,0.058383,0.020971,0.012901,-0.0032164,-0.011835
0.02258,0.016152,0.070487,0.01116,0.016688,0.041045,0.029955,0.011027
-0.020516,-0.13483,-0.13018,-0.065202,-0.010292,0.01527,-0.0070844,-0.012896
0.023292,0.050752,-0.008017,0.026421,0.010791,-0.018163,0.0027078,0.010474
0.092191,0.45829,0.16431,0.11516,0.056676,0.018205,0.012318,0.042342
-0.04013,-0.16948,-0.14422,-0.041106,-0.044623,-0.04028,-0.017428,-0.034334
-0.022329,-0.045051,0.1911,0.0021583,-0.01219,-0.0065264,-0.00065693,-0.032048
-0.026897,-0.21068,-0.24437,-0.10803,-0.041799,-0.013496,-0.0076886,0.0099941
0.015627,0.071683,0.12672,0.064139,0.03795,0.024871,0.00058519,-0.0022229
0.026244,0.055634,0.038059,0.017015,0.00010395,-0.0082645,-0.0070071,0.048136
0.0042602,0.034563,-0.16714,-0.047538,-0.014959,-0.018671,0.00086549,-0.01119
0.011827,0.045369,0.010808,0.026035,0.023932,0.041024,0.024256,0.053822
-0.13849,-0.26405,0.13429,-0.051393,-0.015966,0.0071642,0.0084824,-0.12428
0.030352,0.0057699,-0.015479,-0.0058996,0.0061569,0.0049963,0.016006,0.016898
0.026889,0.02892,-0.063588,0.053995,0.012422,-0.012288,-0.039171,-0.022626
0.078512,0.10508,-0.010249,-0.011361,-0.020352,-0.0057067,-0.00084707,0.085433
-0.017198,0.096341,0.12072,0.0098185,0.0018084,-0.0066739,-0.017458,-0.025882
0.029247,0.075019,-0.061819,0.024324,0.00093994,-0.015355,-0.0030017,0.018672
-0.00083126,-0.098562,0.12913,0.040119,0.031815,0.038463,0.050461,0.04744
-0.084268,0.044149,-0.13491,-0.0055082,-0.0071152,-0.024906,-0.020975,-0.095651
0.012781,-0.19332,-0.14311,-0.05832,-0.029954,-0.033479,-0.0062138,0.011414
-0.0072316,-0.0002148,0.14386,-0.056334,-0.013336,0.012917,-0.006702,-0.029684
0.011266,0.043466,-0.21097,-0.023413,-0.0042177,0.012899,0.0010498,0.023343
0.10675,0.4127,0.254,0.17304,0.075452,0.052526,0.032641,0.076821
-0.10399,-0.51068,0.015967,-0.13103,-0.047825,-0.016624,-0.013588,-0.025452
-0.011768,0.03098,-0.073107,0.0099244,0.0087202,-0.030592,-0.020597,-0.033468
-0.0306,0.030514,0.1119,0.0024754,-0.020567,0.010414,0.011445,-0.025378
0.042899,0.012677,-0.030677,0.011025,-0.0028922,0.0045699,-0.0035548,0.0065725
0.037275,0.24481,-0.14169,0.043627,0.0070396,-0.040573,-0.018842,0.01543
0.046808,-0.099431,0.0131,0.022249,0.024822,0.031019,0.035827,0.079219
-0.045102,-0.088795,0.16816,0.032755,0.0035242,0.0082706,-0.003626,-0.091236
-0.026914,-0.011251,-0.34803,-0.12818,-0.025696,-0.015123,-0.027794,0.0039395
-0.0074239,0.055573,0.32448,0.0079397,-0.00046487,-7.5101e-05,0.010261,0.028679
-0.14238,-0.091625,-0.094912,-0.035744,-0.014683,0.014433,0.016874,-0.040586
0.20137,0.054136,-0.019759,0.02174,0.017424,-0.0027281,-0.01568,0.022568
-0.038564,-0.047624,0.011037,0.062923,0.017579,0.0032703,0.006434,-0.016374
-0.0029822,0.10126,-0.026278,0.040653,-0.014333,-0.02992,-0.0026439,0.045567
0.034194,0.053448,0.039329,0.024998,0.031025,0.038485,0.01966,0.0051469
-0.013688,0.041428,0.073774,-0.038867,-0.018144,-0.0022875,-0.020327,-0.012694
-0.038076,-0.15498,0.059934,-0.033687,-0.020995,-0.027064,-0.0053322,-0.015711
0.022757,-0.012998,-0.089562,-0.076296,-0.016222,0.01902,0.0022363,0.0041282
0.043235,0.1395,-0.047647,0.13865,0.066975,0.011132,0.010282,0.0081601
-0.14098,-0.30574,-0.20539,-0.17704,-0.091185,-0.050594,-0.020192,-0.049936
0.0092069,-0.08914,0.09372,-0.022483,-0.0058592,0.0057847,0.0045842,-0.013285
0.080038,0.29123,0.1709,0.14988,0.073233,0.055229,0.029863,0.040561
0.0016288,0.12607,0.0353,-0.01131,-0.033604,-0.050876,-0.038254,-0.013021
0.0087755,-0.0055281,-0.11627,0.048211,0.032647,0.023087,0.018745,0.044779
-0.015418,-0.072226,0.045693,-0.016344,0.0056794,0.034486,0.020874,0.018336
0.030711,0.050305,0.014452,0.074798,0.048657,-0.0015592,-0.0009336,0.016362
0.08459,0.11875,0.0093821,0.077862,0.0043874,-0.015218,-0.015698,-0.032352
-0.16646,-0.39147,-0.1725,-0.35222,-0.15135,-0.053729,-0.02358,-0.074078
-0.019492,-0.051455,0.10127,0.010418,0.010696,0.0077431,0.022286,0.030977
0.072263,0.11513,-0.013775,0.087733,0.045212,0.028642,-0.002939,0.086956
-0.03179,0.053971,0.075088,0.021228,-0.00047281,-0.0063604,-0.020819,-0.16412
0.059127,0.18769,0.12455,0.1405,0.061954,0.020398,0.015926,0.098295
-0.021939,-0.021863,-0.077337,-0.068325,-0.024303,-0.0077028,0.0061504,-0.0080683
-0.0012903,-0.050441,-0.11719,-0.017572,-0.031643,-0.0041536,-0.010738,0.0019191
-0.011511,-0.13965,-0.10456,-0.065205,-0.013861,-0.030969,0.0045223,0.019692
0.017866,0.13266,0.13281,0.1178,0.053081,0.029368,0.020689,0.01473
-0.030281,-0.13973,-0.0761,-0.11673,-0.049334,0.012923,-0.0014846,-0.043669
0.031519,0.066372,0.066679,0.019901,0.038099,0.0055436,0.0079737,0.0010503
-0.054647,-0.15569,-0.00030543,-0.035741,-0.028895,-0.039929,-0.037293,0.0083194
0.086076,0.38884,0.098671,0.1603,0.061398,0.047953,0.03418,0.032657
-0.007395,-0.08195,-0.089295,-0.00288,-0.020042,-0.051616,-0.035732,-0.020025
-0.038289,-0.12338,0.14641,-0.026754,-0.016243,0.020267,-0.0050001,-0.025156
-0.030076,-0.13445,-0.17933,-0.092122,-0.021581,0.036668,0.024839,0.0089936
-0.0061424,0.0016465,0.018444,-0.074543,-0.02073,-0.026046,-0.0085227,-0.0039244
0.025816,0.11283,0.012229,0.065129,0.0098064,-0.019424,-0.0032105,0.01389
0.042496,0.050583,-0.042412,-0.016182,-0.0077131,0.0020767,0.017707,-0.0080839
-0.002881,0.12742,0.14328,0.081031,0.028867,-0.0080082,-0.0079119,0.031632
-0.055619,-0.22696,-0.17275,-0.0092152,0.026453,0.02115,0.0061625,-0.038803
0.0013582,-0.020344,0.041237,-0.020243,-0.022193,-0.011488,-0.0023807,0.038568
0.035003,0.044189,-0.11249,-0.0060554,0.00049459,-0.0039304,-0.010033,-0.071973
0.013737,0.11521,0.24185,0.010107,-0.0069241,0.036256,0.014413,0.059533
-0.00030219,-0.025759,0.089335,0.012332,0.017924,-0.015916,-0.015121,-0.011955
-0.023063,0.012397,-0.13198,0.078086,0.012217,-0.0044215,-0.012908,-0.012764
0.0077543,-0.074297,0.007989,-0.02784,-0.0088458,0.01563,0.020793,0.0025729
-0.0094259,-0.12086,-0.18584,-0.14217,-0.045693,-0.018802,0.0075829,0.026295
0.019351,0.037767,-0.02585,0.031413,0.0028942,0.0089092,0.0018844,0.0036609
-0.053954,0.090006,0.058207,-0.022915,-0.011727,-0.034542,-0.027782,-0.042039
-0.033508,0.036463,0.22227,0.069988,0.058831,0.030182,0.035605,0.053053
0.081215,0.041325,-0.096795,0.013648,0.0037124,-0.0080295,-0.026793,-0.055033
-0.0062452,-0.0521,0.068814,0.011703,-0.020653,-0.0085451,-0.0040356,0.016314
0.048058,-0.041653,-0.032066,-0.013494,-0.006224,0.013164,0.010217,-0.014309
-0.037187,0.0088461,-0.10373,-0.038177,-0.015263,0.0026646,0.00050046,0.0092519
-0.051338,-0.081703,-0.053344,-0.038781,-0.031935,-0.016311,-0.0017306,0.024467
0.10672,0.34955,0.13425,0.20339,0.092356,0.019029,0.0037463,0.031366
-0.079099,-0.26848,-0.04862,-0.12435,-0.025108,0.0073809,0.0015178,-0.048083
0.0001946,-0.037451,0.00036762,-0.014355,-0.0092963,0.00365,-0.00042221,0.0050291
-0.014956,-0.074015,0.048101,-0.037055,-0.016474,-0.015415,0.0058784,-0.012208
-0.0073228,0.013535,-0.13043,-0.02053,0.00019825,0.0050494,-0.0029232,-0.0057897
0.015515,0.10152,0.044483,0.035404,-0.0061972,-0.0129,-0.018963,-0.014528
0.022657,0.05048,0.074105,0.037255,0.003363,-0.022203,-0.0031691,0.0086457
0.014456,0.048567,0.021653,0.0086795,0.021018,0.016377,0.020993,0.095058
-0.047903,-0.18561,-0.14416,-0.058073,-0.031434,-0.0064229,-0.0012327,-0.099113
0.030963,0.065678,0.14616,0.024319,0.025566,0.050036,0.023802,0.035279
-0.0068927,0.042886,-0.054241,0.0054038,-0.011293,-0.033121,-0.036846,-0.017738
0.017914,0.07981,-0.005136,0.040762,0.013998,0.0016472,-0.011448,0.0070607
0.019055,0.057219,0.088308,-0.034438,-0.0081949,0.04457,0.037346,0.039005
0.019612,0.044005,0.19315,0.13067,0.039088,-0.07669,-0.031225,-0.0080763
-0.082184,-0.35078,-0.41034,-0.15183,-0.023972,0.02803,0.024913,-0.048277
0.018392,-0.0089393,-0.018994,-0.038203,-0.033296,0.0067847,-0.0052611,-0.0032783
-0.076797,-0.029732,0.032278,-0.035771,-0.012125,-0.0078617,-0.0046049,-0.021115
0.078074,0.12128,0.026589,0.098574,0.016463,0.01527,0.0034424,0.039364
0.022667,0.14286,0.19279,-0.016794,0.0060675,-0.0096438,-0.0045152,0.014634
-0.031545,-0.1261,-0.13098,-0.036916,-0.019384,0.0036182,-0.0049604,-0.032389
0.072002,0.28504,0.12733,0.10168,0.057705,-0.030475,0.0022129,0.054733
-0.088568,-0.24052,-0.039199,-0.045793,-0.020233,0.021358,0.0014934,-0.052214
0.056711,0.030454,0.0022937,0.036254,0.0046367,0.0033174,0.000794,0.060472
-0.024049,-0.052871,-0.069252,-0.035575,-0.0085055,0.0095182,0.0079953,0.0094305
0.043339,0.068802,0.049564,-0.0044832,-0.013164,-0.0066968,-0.015941,-0.065333
-0.015396,0.095207,-0.12717,0.026716,0.013604,0.0094026,0.022717,-0.00030992
-0.083754,-0.2657,0.008377,-0.1073,-0.045915,-0.0048149,-0.0010849,-0.030246
0.033161,0.093349,0.072081,0.068962,0.034364,-0.0027471,-0.0092863,0.032237
0.030602,0.069906,0.062933,0.047007,0.019701,-0.016004,-0.017569,0.031023
-0.013004,-0.12472,-0.12125,-0.087455,-0.004156,0.01753,0.013101,-0.0022891
0.043576,0.14381,0.073996,0.072108,0.0096868,-0.0040492,-0.011019,-0.012528
-0.05666,0.026282,0.31295,0.057692,-0.0010225,-0.0028684,0.011677,-0.014798
-0.039397,-0.16203,-0.38811,-0.090521,-0.035817,-0.0103,0.0031341,-0.0086322
0.072729,0.034732,-0.098438,-0.089942,-0.0081245,0.051801,0.033746,0.029738
0.0068814,0.056307,0.066149,0.076412,-0.0031664,-0.050787,-0.037032,0.014513
-0.002261,0.0213,0.060265,-0.0043758,0.010974,0.0025065,-0.013815,-0.030949
-0.032854,-0.077719,0.057122,0.027789,0.0035288,-0.014569,-0.005932,-0.013186
0.0085019,0.14138,0.073263,0.016785,0.013732,-0.015774,-0.013371,0.012661
0.027462,-0.033895,-0.031636,0.024594,0.017941,0.061622,0.05758,0.03043
-0.015767,0.011498,-0.031403,0.011056,0.023393,0.0067927,0.011523,0.00052578
-0.012549,-0.076265,-0.012981,-0.048752,-0.017639,-0.00060118,-0.018856,-0.01497
