0.017389,0.028022,0.081366,0.041138,0.0031792,0.026767,-0.038862,-0.020924
0.001084,-0.022734,0.014585,0.042938,0.0040964,-0.016991,-0.018947,0.024276
-0.00056065,-0.012405,0.013268,-0.011399,-0.019078,-0.077599,-0.022532,-0.0087051
-0.010744,0.012697,0.063114,-0.012757,-0.0039301,0.063315,0.1304,0.0053586
0.002163,-0.040081,-0.70082,-0.086141,0.0027296,0.1009,-0.028603,0.011979
-0.00044731,-0.059869,0.13828,0.049988,0.016734,-0.19134,-0.07743,-0.0043381
-0.025936,-0.013819,0.51266,-0.033498,-0.024111,0.061904,0.10127,-0.0044844
0.011994,0.013424,0.0022028,0.031325,0.0055274,0.079919,-0.015835,0.019314
0.011965,0.045877,0.15416,0.026494,0.012187,-0.027236,-0.053622,-0.0033536
0.020822,0.10653,-0.15758,-0.023868,-0.0039507,-0.047843,-0.058842,-0.041368
-0.0085528,-0.0015062,-0.13071,0.021336,0.019654,0.011071,0.046759,0.0067053
0.05625,0.1255,0.11455,0.06855,0.020402,0.040831,0.013246,0.031382
-0.035223,-0.10925,-0.29189,-0.069812,-0.033154,-0.020556,0.012398,-0.014296
-0.056799,-0.19309,0.17135,-0.050316,-0.0084371,-0.016626,-0.049891,-0.0053898
-0.0086925,0.027982,-0.051165,0.025007,-0.0072218,-0.05692,0.013218,0.0033586
0.0075434,0.068564,0.033544,-0.024075,-0.01402,-0.024855,0.021107,0.0040856
0.023379,-0.031846,-0.056723,0.012817,0.0023751,0.094156,0.097718,-0.0032578
0.015728,0.06457,0.38432,0.049215,0.034188,0.072173,0.0077437,0.012546
0.0162,0.032702,-0.25695,0.061215,0.019008,-0.0063774,0.18818,0.051501
-0.076528,-0.16288,-0.086629,-0.092173,-0.027436,0.23996,-0.33736,-0.081634
0.011002,-0.010753,-0.36805,-0.012735,-0.0034959,-0.43967,-0.13036,-0.0039035
0.051973,0.077962,0.21202,-0.01302,-0.010682,0.064002,-0.048478,-0.0041568
0.06151,0.097187,0.035144,0.039925,0.021326,-0.092018,0.058766,0.019407
0.046777,0.10962,0.85589,-0.0098399,-0.0090708,0.03908,0.19317,0.020115
-0.20381,-0.30796,-0.34621,-0.029067,-0.023826,0.07637,0.019719,-0.033192
0.051479,0.31836,-0.053289,0.092111,0.023822,0.060736,0.045893,0.015667
0.023429,-0.10077,-0.45799,-0.052076,0.016547,0.095046,0.074659,0.033632
0.016978,-0.045358,-0.40768,-0.03154,-0.0067376,-0.078013,0.11105,0.020308
-0.061005,-0.018283,0.40878,0.028995,0.0085213,0.21306,-0.035624,-0.0091357
0.032554,-0.19315,0.14884,-0.050052,-0.054959,-0.32967,-0.54788,-0.06293
0.048654,0.13285,0.40179,0.051554,0.02935,-0.004539,0.095968,-0.0085336
0.019482,0.038867,-0.39783,0.028864,0.019305,-0.023903,0.044109,-0.0022559
-0.062053,-0.0746,-0.088347,-0.079463,-0.030282,0.15802,0.21189,0.0029486
-0.031494,0.13097,-0.078749,0.069839,0.04485,-0.060892,0.1018,0.077754
0.0096198,-0.068484,0.299,0.046623,0.0027758,0.18664,-0.079816,-0.027359
0.13126,0.094616,0.047176,-0.047873,-0.046827,-0.25499,-0.11875,0.00061857
-0.11252,-0.14433,-0.47449,-0.08874,-0.017706,-0.056613,-0.066871,-0.056603
0.02747,0.10529,0.50592,0.096094,0.035737,0.07989,0.17936,0.035696
0.034776,0.092555,-0.053666,-0.12571,-0.019101,0.07753,0.073959,0.027701
-0.099136,-0.11373,-0.2508,0.043384,0.020991,0.10117,-0.094211,-0.049333
0.023682,-0.038693,0.24666,0.088454,0.015317,-0.083262,-0.07629,0.0075405
0.028023,0.12095,0.2483,0.049156,0.010523,-0.022901,0.10249,0.0183
0.038962,-0.049639,-0.44264,-0.050737,-0.0015657,-0.062236,-0.052166,0.037192
-0.068203,-0.21449,-0.25548,-0.094039,-0.052639,0.071107,-0.042368,-0.006571
-0.019611,-0.029078,-0.11009,-0.042051,-0.025956,-0.12406,-0.13561,-0.050911
0.099247,0.03129,0.19965,0.096731,0.062463,0.24178,0.17444,0.0054452
-0.023758,0.38201,0.43467,0.10265,0.0013918,-0.20725,-0.042961,-0.017293
-0.04465,-0.2337,-0.16847,-0.087784,-0.006197,0.051774,0.094387,0.021606
0.060056,0.20804,0.32837,0.071428,0.0397,0.10467,0.35976,0.067742
-0.022276,-0.050746,-0.075995,-0.053106,-0.056067,-0.14984,-0.62936,-0.073791
-0.073195,-0.25288,-0.46245,-0.11777,-0.027566,-0.047089,0.018477,-0.03536
-0.015003,0.038324,-0.092463,0.010647,0.016242,0.10904,0.25766,0.042795
0.065841,0.048692,0.20994,-0.018582,-0.010116,0.030374,-0.03516,0.004668
0.090653,0.19186,0.20739,0.18631,0.06568,0.0067957,-0.045674,0.045613
-0.066092,-0.25099,0.0076449,-0.014119,0.017421,0.031204,-0.029985,-0.029861
-0.021973,-0.13909,-0.32668,-0.18136,-0.060921,-0.013021,0.1148,-0.011188
0.0041193,0.16055,0.18289,0.13831,0.01822,-0.10981,-0.1184,-0.016049
0.0045844,0.030697,-0.24141,-0.023733,-0.026488,0.022442,0.082877,0.017532
-0.043395,0.095856,0.38152,-0.042864,-0.031197,-0.069174,-0.11032,-0.028081
0.064317,0.1676,-0.037136,0.056705,0.035019,0.029453,0.081767,0.049942
0.047768,0.11972,-0.42262,0.18804,0.078,0.1931,0.18061,0.02496
-0.1854,-0.44736,0.31423,-0.21236,-0.035523,-0.14133,-0.18307,-0.079434
0.022296,-0.003085,-0.090834,-0.16096,-0.056017,0.10334,0.12952,0.0027468
0.015415,-0.23494,0.11137,0.037054,0.0082887,-0.20699,-0.2813,-0.02487
0.051918,0.084404,0.22251,0.029909,-0.0069821,0.15284,0.076248,0.025761
0.12337,0.36251,-0.27787,0.16143,0.038631,0.033041,0.022919,0.06136
0.087797,0.13994,0.049715,0.095901,0.012332,-0.020523,-0.080715,0.0041149
-0.12693,-0.027256,0.30869,-0.049166,0.0080862,0.030768,0.29826,-0.0052488
-0.038358,-0.17718,-0.22472,-0.10151,-0.012759,-0.086244,-0.049283,-0.029326
-0.15593,-0.33279,-0.73358,-0.099731,-0.049628,-0.081473,-0.1686,-0.037104
0.034989,0.13874,0.42148,-0.035424,-0.023716,-0.10954,-0.042836,0.017995
0.041995,0.17456,-0.1415,0.052985,0.026601,0.19089,0.1412,0.010689
0.045287,0.047486,0.99414,0.11922,0.015956,0.056078,-0.030435,0.011081
0.02245,0.053605,-0.27712,-0.11755,-0.00061942,0.057799,0.043429,-0.012198
0.068464,0.067158,-0.45855,0.2803,0.086289,-0.029731,-0.075513,0.026761
-0.10459,-0.31866,-0.16267,-0.14835,-0.03609,-0.050269,0.0023053,-0.051691
-0.034937,-0.041547,0.091475,-0.20084,-0.055777,-0.027965,-0.0602,-0.0052991
0.07471,0.14092,0.010584,0.14569,0.050023,0.012532,0.20464,0.064436
-0.017822,-0.10657,0.065704,-0.03901,-0.047437,-0.12555,-0.20407,-0.029958
0.10126,0.2949,0.51526,0.088378,-0.012703,0.18915,0.041187,0.016196
-0.021509,-0.13042,-0.68889,-0.019208,-0.025728,-0.14619,0.072905,-0.00026264
-0.089465,-0.046006,0.20021,-0.13515,0.038433,0.062815,-0.085456,-0.024667
-0.063431,-0.068799,0.42034,0.08455,0.031459,0.22968,0.14455,0.013331
0.025843,0.14484,-0.3929,0.030893,0.016045,-0.40353,-0.15056,-0.003329
-0.0083339,0.0085527,-0.11934,-0.030144,-0.046675,0.20251,0.10813,0.0037078
-0.024433,0.037328,0.12014,0.096975,0.038752,0.0015222,-0.10974,-0.019941
0.095442,-0.16799,-0.074754,-0.11901,-0.02449,-0.060329,0.032703,-0.0036393
0.015584,-0.13158,0.4683,-0.037755,-0.0020343,0.12733,0.012821,-0.017443
0.0011839,0.075551,-0.33376,-0.042644,-0.011113,-0.051643,-0.012561,0.032498
0.027685,0.085496,-0.15566,0.13119,-0.036142,-0.12756,0.0036516,0.013246
-0.054993,0.045954,-0.38947,0.084521,0.063509,0.080027,0.030024,-0.005265
0.079426,0.4015,0.78404,0.30109,0.092607,0.079388,0.11285,0.07794
-0.047285,-0.41878,-0.59807,-0.41461,-0.097115,-0.11377,-0.15501,-0.058155
-0.08467,-0.11044,0.33509,-0.22625,-0.075712,0.047104,0.014482,-0.047037
-0.017384,-0.016911,0.021706,0.0078237,0.0086842,-0.071561,-0.012497,0.0092197
0.030192,0.11281,0.044986,0.070341,0.007917,0.19322,0.05232,-0.038062
-0.0030418,0.006959,0.35225,0.19721,0.062777,-0.081704,-0.072784,0.022122
0.001975,0.0035636,-0.52534,0.045824,0.0013513,-0.061653,0.057429,0.049493
0.031561,0.026693,0.38024,0.054091,0.049929,0.0023491,-0.041091,-0.0022877
-0.092367,-0.19519,-0.42284,-0.02847,-0.026342,0.070675,0.022951,-0.038846
0.19364,0.27669,0.11522,-0.093707,-0.032723,-0.036326,0.15674,0.049799
0.01471,-0.072856,-0.0068544,0.028655,-0.016604,-0.02891,-0.16989,-0.0092729
-0.028193,-0.056803,0.018248,-0.037882,-0.0095484,-0.038641,-0.026144,-0.012555
-0.069021,0.14395,-0.19407,-0.083349,-0.0037487,-0.02484,-0.012579,-0.030125
-0.062215,-0.026941,-0.19034,0.0092748,0.0089312,0.061057,-0.011306,0.0084245
0.0066875,-0.047781,0.45996,0.029722,0.0056456,0.064243,0.12637,0.032745
0.0041227,-0.11533,-0.46251,-0.0050823,0.010563,0.0090656,-0.045168,-0.027625
-0.0076459,-0.058622,0.53874,-0.054518,-0.030298,-0.096473,-0.01903,-0.0088796
0.010673,0.067304,0.36266,0.085911,0.016396,0.036118,0.023659,0.033954
0.059605,0.043784,-0.15808,0.15138,0.025863,0.12436,0.10457,0.0067209
-0.008687,0.011656,0.25939,0.055967,0.076096,-0.11465,-0.14525,-0.04414
-0.068738,-0.16968,-0.87686,-0.32614,-0.083361,-0.073319,-0.00068823,-0.0018585
0.051523,0.19467,-0.24596,0.066124,-0.031313,-0.026634,0.06869,0.031654
0.094174,0.19757,0.1387,0.020104,-0.018526,0.26653,-0.022997,0.048366
0.066684,0.23631,0.61781,0.40917,0.10273,-0.12389,-0.048218,0.001359
-0.22669,-0.61207,-0.45754,-0.57252,-0.12902,-0.11153,-0.020831,-0.13264
0.002754,0.11287,0.22676,0.18396,0.082829,0.062534,-0.024512,0.037349
0.0048404,-0.088492,-0.037226,-0.063187,-0.01956,-0.16258,-0.017857,0.04309
0.013974,-0.02727,0.14467,0.070011,0.048436,0.17586,0.15733,-0.013307
-0.00093964,0.033055,0.0025203,0.030509,-0.017424,-0.014362,0.0021808,0.0092556
0.030548,0.13395,0.39106,-0.070526,-0.07594,0.017724,-0.10042,-0.021765
0.11623,0.13684,-0.31195,0.32313,0.076615,-0.024661,0.059411,0.034241
-0.13478,-0.26184,-1.0885,-0.57662,-0.11392,0.068606,0.04217,-0.01055
0.081753,0.18781,0.75896,0.30846,0.10282,-0.00093289,-0.060958,0.030787
0.030925,0.15631,0.53664,0.10265,0.00035989,0.03815,0.098953,0.0090974
-0.029831,-0.13988,-0.89508,-0.13307,0.023835,0.0041843,-0.12872,-0.052865
-0.084912,-0.12528,0.72156,0.13057,-0.038122,-0.17463,0.020339,0.0084757
0.06928,0.11963,0.28377,0.23527,0.07173,-0.053644,-0.047792,0.036721
-0.25377,-0.29728,-0.92171,-0.54711,-0.10812,0.031558,-0.12902,-0.11631
0.15039,0.27216,0.49272,0.079538,0.0078603,0.074412,0.16917,0.049994
0.080102,-0.18669,-0.093373,0.13123,0.052345,0.029913,0.044475,0.01309
0.060009,0.085984,0.098502,-0.12493,-0.052576,0.048595,-0.024114,0.016117
0.028351,0.077129,0.1369,0.22749,0.045194,-0.047322,0.027898,0.028667
-0.085079,-0.054438,-0.37694,-0.027464,-0.028585,0.0013701,0.014262,0.012233
0.00045139,0.10739,0.16754,-0.082398,-0.054335,0.11724,-0.017774,-0.040819
0.0026962,-0.014374,-0.61,-0.16179,0.038976,-0.19194,-0.029618,0.0099145
-0.0092945,-0.044644,0.72332,0.18072,0.064284,-0.012819,-0.045825,-0.015814
-0.083701,-0.10154,0.44407,0.054225,0.021628,0.090881,0.0024131,-0.0016067
0.0048665,0.03198,-1.1017,-0.058567,-0.019068,-0.0073457,0.10569,0.0047833
0.052342,0.080377,0.41489,0.00357,-0.082005,-0.059079,-0.042089,0.018152
0.10493,0.17437,0.0083683,0.11203,0.050563,0.23894,-0.035723,0.014406
-0.095588,-0.28145,0.21496,0.013066,0.018192,-0.17686,-0.039822,-0.053728
0.052194,0.094836,0.56965,-0.12472,-0.047267,-0.10394,0.00024745,0.024595
-0.037579,-0.063947,-0.36946,-0.13158,-0.02152,0.043667,0.037981,-0.0082406
-0.028644,-0.014691,-0.29349,0.038707,0.032579,0.016502,0.01153,-0.0033664
-0.014202,-0.068338,-0.45435,0.043392,0.052558,0.081169,0.070099,-0.014902
0.053373,0.019089,0.015467,0.033344,-0.039305,-0.073647,-0.074638,0.028052
-0.02816,0.038204,-0.022249,0.027618,0.0077061,0.092279,0.062303,0.016622
0.015582,0.20085,0.17846,-0.11839,-0.024224,-0.13887,-0.12021,-0.0097922
0.013633,0.061766,0.55917,0.0051661,-0.063739,0.061561,0.08899,0.027077
-0.033213,0.065514,0.64675,0.32304,0.14799,0.045239,-0.028766,-0.013427
0.00065352,-0.4298,-0.76756,-0.20207,-0.052218,0.030576,-0.059502,-0.0377
0.014054,-0.011493,-0.55012,0.031957,-0.046588,-0.01433,0.066879,-0.022499
0.09307,0.35065,0.53323,0.024556,0.0088815,-0.12153,-0.0093181,0.047631
-0.082702,-0.18756,-0.21366,-0.17886,-0.010956,0.08321,0.039643,0.0085174
-0.06826,-0.12594,-0.54984,-0.01006,0.041804,-0.041291,-0.0053812,-0.038311
0.0030805,-0.010615,0.18723,0.02074,0.025678,0.051591,0.050606,0.016548
-0.0099956,0.096833,0.56586,-0.057744,-0.0057027,0.018192,-0.10505,-0.0065366
0.12603,0.20501,0.61471,0.2989,-0.029994,-0.10205,-0.034799,0.033117
-0.011707,-0.068507,-0.70059,-0.0052667,0.014362,0.02738,0.035071,-0.0129
-0.025806,-0.044193,-0.13323,-0.081299,-0.0217,0.024259,-0.035659,-0.011792
0.020276,0.12111,0.25167,-0.0082144,-0.02119,0.021896,0.042494,0.0051394
-0.046053,-0.16716,-0.23466,-0.05151,0.023964,-0.010697,0.0042018,-0.0090605
-0.0063721,-0.042499,-0.19315,-0.045875,-0.034027,0.028027,0.037032,0.00021358
-0.024591,-0.10681,-0.38675,-0.30937,-0.014576,0.059668,0.21893,0.032894
0.0014928,0.11664,0.9156,0.34057,0.098893,-0.017774,-0.2083,-0.028245
0.018217,0.058174,0.12582,-0.054005,-0.067806,-0.18133,-0.22165,-0.019152
-0.0044353,-2.5451e-05,-0.17192,0.11876,0.024906,0.029544,0.092557,-0.010126
0.028498,0.052421,-0.33144,0.079081,0.049046,0.083392,0.1091,0.053538
0.0086103,-0.018024,-0.44227,-0.00092383,-0.03467,0.0036117,0.031054,-3.5898e-05
0.030203,0.054749,0.8416,0.073062,0.015442,0.03251,-0.00087395,-0.0068173
-0.070748,-0.27612,-0.77704,-0.43527,-0.06689,-0.025003,-0.025572,-0.037192
-0.013465,0.03575,0.44863,0.049733,-0.0010624,0.01104,-0.050646,-0.00533
0.021469,0.14558,0.16891,0.10364,0.0014585,-0.0074846,0.017869,0.01051
0.056335,0.059741,0.22724,0.16168,0.034083,-0.041183,0.047357,0.057068
0.0039931,0.010909,-0.080824,0.0033582,0.010741,-0.011603,-0.047949,-0.014202
-0.027196,0.036486,-0.13893,-0.005099,0.033051,0.065924,-0.0023014,-0.031472
-0.0065838,-0.067916,0.015164,-0.10599,-0.047223,-0.097453,0.035922,0.0053067
-0.027954,-0.068423,-0.50438,-0.064159,-0.057909,0.084275,-0.050487,-0.020886
-0.0047771,0.019861,0.24885,-0.026426,0.0013348,-0.0061836,0.0039928,0.015236
0.0015949,-0.10616,-0.54045,0.18912,0.13867,-0.001933,0.019496,0.012482
-0.054212,0.016923,0.44811,-0.047803,-0.0049647,0.08096,0.15987,-0.020937
0.040303,-0.0064261,0.10635,-0.10976,-0.093351,-0.078332,-0.16883,0.001265
0.03644,0.076535,0.44263,0.02083,-0.0090746,-0.066246,-0.044818,0.0089985
-0.025987,-0.091589,-0.091615,-0.0064362,-0.017587,-0.00036096,0.031931,0.010118
0.095244,0.23996,-0.27458,0.089838,0.021831,0.040961,0.069433,0.0044586
0.0635,0.1643,0.29987,0.18377,-0.00021562,0.073269,-0.041371,0.02292
-0.13812,-0.28139,-0.19125,-0.22638,0.033283,-0.1065,-0.089184,-0.03654
-0.058066,-0.060748,-0.41613,-0.072578,0.028231,0.056496,0.082545,-0.010379
0.075544,0.17491,0.42547,0.27566,0.054454,0.05466,0.059906,0.014999
-0.051019,-0.24092,-0.38898,-0.27741,-0.10735,-0.088313,-0.02433,-0.015419
0.030295,0.018319,0.28642,0.024773,-0.051455,0.026313,0.063984,0.031048
-0.016542,0.014682,-0.088519,0.017773,0.034271,0.016064,-0.12862,-0.033014
0.019878,0.022176,-0.14658,-0.008837,0.048101,-0.0015,-0.00095421,0.011426
-0.0079999,0.057726,0.27709,0.039882,-0.0098859,-0.057251,0.0717,0.00073459
0.010278,0.037008,-0.011706,0.063926,0.0012388,0.02101,-0.074881,0.013538
-0.01799,0.047473,0.37091,-0.044509,-0.019605,-0.0087131,-0.011036,-0.027797
0.0017635,-0.01914,-0.42569,-0.018514,0.021926,0.017625,0.021109,0.0099418
0.04655,-0.084136,0.091539,0.017702,-0.014156,0.021617,0.060691,0.017626
0.0070313,0.055649,-0.05307,0.0018641,0.021187,0.0027169,0.037428,0.010938
-0.007749,-0.037646,-0.38194,0.08994,-0.019983,0.085188,-0.033093,-0.018074
-0.053051,-0.091165,-0.10503,-0.085895,-0.051397,-0.098943,-0.025958,-0.022839
0.042354,0.20697,0.85644,0.051704,0.028625,-0.0034635,-0.01936,0.035287
-0.018953,-0.26877,-0.65394,-0.16205,0.10277,0.058761,0.025764,-0.008225
-0.010723,0.16094,0.38608,-0.0089514,-0.06369,-0.13098,-0.0936,-0.013194
-0.011092,0.11316,0.24757,0.096646,-0.041632,-0.0097525,0.036818,-0.0034202
-0.019786,-0.083957,-0.34615,0.092125,0.027641,0.0013389,0.034454,0.020857
0.01055,-0.12552,-0.21113,-0.16317,-0.01283,0.15318,0.06359,-0.042016
0.064842,0.090362,0.31361,0.11979,0.039436,0.055974,0.022798,0.050205
0.010762,0.024991,-0.25821,0.042454,-0.019177,-0.1569,-0.11914,-0.014795
-0.049823,-0.094708,-0.012742,-0.13749,-0.032698,0.046009,0.02834,-0.0023514
0.0081412,0.14561,0.42676,0.1658,0.030085,-0.069825,0.10579,0.0019489
-0.026492,-0.12891,-0.54555,-0.063217,0.0053113,0.034167,-0.19934,-0.024957
0.0020949,0.058299,0.2236,0.027354,-0.0050655,0.044773,0.089516,0.018851
0.030817,0.043069,0.24743,-0.2103,-0.031782,0.047141,0.027116,0.008671
0.019978,0.0049243,-0.30503,-0.11911,-0.050858,-0.092253,-0.011443,-0.0084128
0.054944,0.053108,-0.18013,0.28609,0.12569,0.055796,0.044227,0.022387
-0.14593,-0.28116,-0.071791,-0.025388,-0.0017952,-0.032284,-0.094931,-0.047383
0.034389,0.12723,0.30769,0.134,0.01218,-0.020283,0.094432,0.039969
-0.0055204,0.012831,0.42283,-0.033121,-0.10581,-0.016931,-0.028499,0.0029865
0.039412,0.071162,0.23585,-0.03555,0.019119,-0.0056998,-0.02649,-0.033594
0.02911,0.075742,-0.69855,-0.08544,0.043024,0.053438,-0.040471,0.0080644
-0.05146,-0.16105,-0.0050542,-0.066726,-0.049939,-0.065267,0.054269,0.0026783
0.0013227,0.1026,0.27155,0.12924,0.036883,0.044899,0.054389,0.020307
0.023681,-0.079221,-0.57454,-0.068028,0.029855,0.063624,-0.032387,-0.0017488
-0.03127,-0.06668,0.16856,-0.048718,-0.016497,0.076368,0.059646,-0.0011171
-0.0076114,0.045614,0.22394,-0.030718,-0.031977,-0.15208,-0.16143,-0.032529
0.031537,0.092788,-0.12807,0.049519,0.01461,0.064784,-0.015508,0.0056215
0.054124,0.027362,-0.10598,0.036687,-0.017346,-0.16461,0.076038,0.019709
0.0046476,0.083491,0.34476,0.26734,0.044115,0.15126,0.019903,0.002106
-0.039385,-0.14474,-0.24638,-0.18802,-0.027423,-0.050431,0.035095,0.0077254
-0.02351,-0.054776,0.31165,-0.063936,0.0026062,0.0038462,-0.034654,-0.017883
-0.041163,-0.04341,0.31659,-0.056111,-0.021837,-0.021472,0.044715,-0.0041803
0.049168,0.055498,-0.20164,0.030386,0.040072,0.014789,-0.032029,0.017784
-0.071474,-0.13871,-0.48787,-0.0078089,-0.014628,0.1132,0.023551,0.0012885
-0.042113,-0.022737,-0.029465,-0.06136,-0.01396,-0.092934,-0.085948,-0.037947
0.13879,0.37305,0.27266,0.041716,-0.0047754,0.013888,0.053267,0.0016624
-0.011977,0.017082,-0.57538,0.1297,0.028489,-0.0036692,-0.011832,0.041938
0.053009,-0.12339,0.33162,0.093277,0.038819,0.018486,0.023928,0.043689
-0.018006,-0.066459,0.21915,-0.27074,-0.098986,-0.099377,-0.080849,-0.079211
-0.069657,0.013104,0.17923,0.11557,0.03671,0.04111,0.049776,-0.0066659
0.029452,0.050066,0.013516,0.0018722,-0.0074684,0.10395,0.010429,0.026728
-0.042683,-0.16851,-0.38392,-0.018386,0.057306,-0.067142,-0.026419,-0.010472
0.024753,-0.0029018,0.35656,0.038903,-0.011356,0.019985,0.048753,0.022212
-0.019673,0.02376,-0.24711,-0.099874,-0.049542,-0.048776,0.016806,-0.0081245
0.026169,0.076875,0.40208,-0.036379,-0.010463,-0.023517,-0.021595,4.7163e-05
0.0055758,0.049063,-0.24522,0.24493,0.035545,0.0018304,0.041668,-0.00012466
0.012406,-0.10438,-0.65729,-0.1936,0.010385,0.066021,-0.083854,-0.01638
-0.023038,0.048099,0.63053,-0.070965,-0.039002,-0.0032586,0.030278,0.0060795
-0.013815,-6.7299e-05,-0.031237,0.096823,0.012474,-0.0034097,0.00040207,-0.010743
-0.036826,0.11093,-0.22742,0.12964,0.047731,0.080676,0.029373,0.027029
0.049813,-0.10362,-0.11232,0.0037181,-0.026842,-0.0873,-0.054304,0.0023172
0.059701,0.19139,0.60432,0.14871,0.023325,0.00042416,-0.030909,0.0011385
-0.053261,-0.19258,-0.71131,-0.41147,-0.02024,-0.038598,-0.00062034,-0.015518
0.0003366,-0.061074,0.56929,0.019641,-0.016536,0.023004,0.022454,-0.0085592
-0.037441,-0.01611,0.07072,0.029694,-0.043237,-0.063622,0.086536,0.014222
0.004723,-0.10451,-0.062679,-0.066758,-0.037381,-0.078436,-0.080914,-0.001853
0.032181,0.1507,-0.10357,0.20881,0.1186,0.24535,0.035995,-0.033349
0.036044,0.031349,-0.068429,0.10778,0.0030172,-0.029003,0.030606,0.021268
0.0074455,0.030047,-0.044159,-0.16628,-0.040459,-0.065334,0.011318,0.029125
0.008073,0.12346,-0.21009,0.010959,0.011238,0.042199,-0.04662,-0.0020595
0.0062988,0.05353,0.33498,0.18463,0.04812,0.0036232,0.0038784,0.0057258
-0.16176,-0.27397,-0.12968,-0.17898,-0.032119,-0.065094,-0.0023177,-0.041372
0.028069,0.054573,-0.0014035,0.026795,-0.058335,-0.016777,-0.034501,0.012839
0.014444,-0.12515,-0.01076,-0.067689,0.02358,0.053776,-0.0066196,0.019942
-0.029444,0.03853,0.23858,0.035793,-0.013262,-0.080653,0.011775,-0.027769
0.17101,0.1945,-0.38747,-0.077652,0.018608,0.17352,0.045364,0.010519
-0.031896,-0.14882,0.13297,-0.0016053,0.0022468,-0.1834,-0.11533,-0.0134
-0.01303,0.016939,-0.054555,0.054007,0.016224,0.044555,0.077936,0.010072
0.00056199,-0.003239,0.13861,0.075139,0.0063994,0.006617,0.079235,0.010789
-0.015522,0.10309,-0.021781,-0.022328,-0.05012,-0.01523,-0.048607,-0.0033782
-0.015614,0.16363,0.32115,0.2165,0.058052,0.034137,-0.0013147,0.03
-0.016514,-0.1816,-0.10276,-0.33188,-0.028178,0.060959,-0.014362,-0.029894
-0.042573,-0.11285,-0.28361,0.021159,-0.0040408,-0.02901,-0.042481,-0.019283
0.0072561,0.010151,0.085364,0.041944,-0.010289,-0.096043,0.076559,0.022443
0.015701,0.023367,0.061929,0.043221,0.015273,0.14001,0.067592,0.0012219
0.0064698,-0.10411,-0.46622,-0.045526,0.02534,0.045326,-0.062863,-0.012884
0.026933,0.050071,0.23451,0.025067,-0.01962,-0.099486,-0.13573,-0.0043972
0.069861,0.15032,0.31376,0.097739,0.020594,-0.13038,0.021065,0.034463
0.034258,0.12628,-0.23357,0.022768,-0.0027412,0.10958,0.080399,-0.0055946
-0.13408,-0.20231,0.26009,-0.17781,-0.058461,-0.096979,0.012618,-0.038452
-0.036319,-0.03182,-0.2486,-0.060044,-0.0058032,0.032972,-0.094434,-0.0091887
-0.0081276,0.042593,-0.23319,0.07806,0.038375,0.10285,0.065783,0.012125
-0.010292,0.10546,0.42554,0.10289,0.00421,0.020457,0.065056,0.017874
0.12905,-0.14118,0.064586,0.10004,-0.0062717,-0.088329,-0.04107,0.031616
0.019099,0.05221,0.12942,-0.18035,0.0073082,0.057793,0.028786,-0.0013012
-0.0045421,0.053214,-0.38026,0.074915,0.037353,0.03613,-0.038429,-0.010589
-0.051634,-0.11347,-0.12102,-0.11735,-0.033301,-0.084545,0.0062143,-0.019722
-0.0053142,-0.016143,0.19619,-0.013388,-0.0095026,0.060986,-0.0026881,-0.0052571
-0.053222,-0.13675,-0.27968,0.01356,-0.00091607,-0.013704,0.019462,-0.029614
0.007892,0.26153,0.2803,0.082335,-0.0078928,-0.091629,-0.11593,0.016731
0.0065387,-0.06153,-0.16997,0.02233,0.0082906,0.11508,0.1217,0.0011457
0.021408,0.059245,0.23702,-0.025185,0.0083081,-0.097133,-0.056909,0.01752
0.021856,0.022363,-0.13211,0.025637,0.0076411,0.0064689,0.020385,0.011198
0.016181,-0.016881,0.18986,-0.013498,-0.017148,-0.0027425,0.002645,0.0055026
0.0046204,0.0022663,0.31776,0.059209,0.020025,0.11115,0.023515,0.015793
-0.036355,-0.11766,-0.61052,-0.093771,-0.029008,-0.064153,-0.025514,-0.012986
-0.021244,-0.019424,0.027478,-0.020876,-0.0076465,-0.01917,-0.026525,-0.026535
-0.013277,0.045213,0.081561,-0.059326,0.021984,0.020881,0.020945,-0.02518
0.056933,-0.010831,-0.12859,0.086918,0.013336,-0.060377,-0.00017819,0.022143
