0.017009,0.27503,0.034004,0.022436,0.052334,-0.071719,0.16771,0.65281
-0.014395,-0.33531,-0.0014697,-0.015919,-0.040394,-0.0097608,-0.32629,-0.37426
-0.014471,0.020023,-0.014186,0.00018183,-7.1975e-05,-0.002431,-0.020972,-0.24645
0.024605,0.087193,0.042294,0.023711,0.040232,0.13793,0.51388,0.46841
0.024623,0.18295,-0.043273,-0.031375,-0.044807,-0.0497,0.072862,-0.37722
0.071335,0.34996,0.025864,0.045834,0.064796,0.12969,0.51827,0.80948
-0.148,-0.19839,-0.02363,-0.02584,-0.029643,-0.043089,-0.969,-0.38058
0.11638,-0.093828,-0.019557,-0.027472,-0.039156,-0.084031,0.37768,-0.38916
-0.073176,-0.094079,0.022969,0.0021429,0.0051169,-0.016654,0.029509,-0.11982
0.07242,0.019182,0.003009,0.0086267,0.017563,-0.0046682,-0.3207,0.070715
-0.11067,-0.066901,-0.0084837,8.6918e-05,-0.032577,-0.15666,-0.39832,0.42016
0.065496,-0.086609,0.0046754,0.00017456,0.0037066,0.08312,0.48122,0.19097
0.038955,0.077877,0.035068,0.048033,0.064453,0.051646,0.083363,-0.024412
-0.18974,-0.18186,-0.026507,-0.020475,-0.02963,0.077711,0.088893,-0.67041
0.17668,0.43975,0.023017,0.0053737,0.018502,0.091031,-0.63446,0.1233
-0.049206,-0.21326,-0.027579,-0.030981,-0.033438,-0.088802,0.53659,-0.099075
0.0073218,0.16316,-0.038126,-0.020513,0.001692,0.083731,0.3,0.63771
-0.091895,-0.16705,0.0064183,0.0052012,-0.025108,-0.29151,-0.1111,-0.93282
0.32414,0.043518,0.027277,0.0068323,0.018288,0.11195,-0.12336,0.70358
0.12177,0.22928,0.047232,0.046699,0.068682,0.25386,0.23272,0.57542
-0.473,-0.47992,-0.03587,-0.031532,-0.054205,-0.27242,-0.43332,-0.86875
0.11795,0.41361,0.082215,0.076852,0.086759,0.26801,0.62981,0.44259
-0.43288,-0.40377,-0.16903,-0.12801,-0.16473,-0.52964,-0.74585,-0.53016
0.28962,0.41199,0.10109,0.049447,0.058835,0.2664,-0.28747,0.42192
0.20853,-0.19989,-0.044527,-0.0076092,0.0080865,0.10375,0.37457,-0.32139
0.043531,-0.15064,-0.019265,-0.017523,-0.034849,-0.25777,-0.30226,-0.053004
0.021614,-0.12436,0.05273,0.02792,0.03253,0.3315,-0.1337,-0.25401
0.17392,0.50725,0.031743,0.035292,0.062609,0.11394,1.102,0.81271
-0.015578,-0.1908,-0.034532,-0.010853,-0.01439,0.20582,0.17062,0.3917
-0.42218,-0.053272,-0.036125,-0.055834,-0.088965,-0.73838,-0.42322,-0.55378
0.18859,0.19285,0.058485,0.040773,0.088568,0.24002,-0.044674,-0.36465
-0.62012,-0.28255,-0.13362,-0.096419,-0.1544,-0.36909,-0.74759,-0.71664
0.16041,0.23603,0.14491,0.14926,0.22018,0.56513,0.98524,0.71618
0.37457,-0.20842,0.026081,0.011613,0.023658,0.45533,-0.28738,0.77733
0.39719,0.067715,-0.061371,-0.10365,-0.19815,-0.87104,-0.79195,-0.28905
0.14097,0.15502,0.053449,0.045288,0.06961,0.28144,0.58501,0.27122
-0.33407,-0.15146,-0.083379,-0.033912,-0.03273,-0.094172,-0.1801,-0.25443
-0.15607,0.054419,0.027695,0.041725,0.080991,0.21455,-0.015092,-0.77225
-0.18737,-0.10054,-0.074282,-0.086724,-0.12756,-0.33736,0.011863,-0.63325
0.27307,0.11372,0.10329,0.089221,0.12396,0.33017,0.87778,0.57627
-0.49418,-0.29023,-0.063849,-0.054685,-0.092916,-0.14056,-0.66229,0.39224
0.058589,0.22406,0.011096,0.029116,0.05107,0.095252,-0.076069,0.16649
0.74583,-0.049481,-0.014851,-0.018302,0.0020035,0.045699,0.41464,1.0504
-0.50805,-0.12291,-0.00058324,-0.0093358,-0.036728,-0.28197,-0.74347,-0.74708
0.15099,0.49763,0.077403,0.063541,0.067373,0.056277,0.51136,0.081959
-0.032952,-0.28996,0.039062,0.02001,0.032225,0.2462,0.013709,-0.1001
0.07406,0.089826,0.016543,0.0076712,0.020726,0.10626,0.1695,-0.34966
0.10521,-0.0078329,-0.069031,-0.052451,-0.085543,-0.068157,0.058852,-0.50662
-0.080255,0.076206,-0.038554,-0.051638,-0.045407,-0.3638,-0.59427,-0.11516
-0.15449,-0.3894,-0.071912,-0.0058105,-4.7606e-05,0.032024,-0.31246,0.38046
-0.18794,0.14618,0.042113,0.038295,0.066195,0.26115,0.35335,-0.12401
0.022582,-0.31168,-0.078582,-0.059411,-0.12732,-0.49473,-0.4038,-0.098964
0.157,0.50175,0.16069,0.11594,0.17047,0.71207,0.98438,0.69397
-0.065827,-0.06144,-0.028219,-0.051958,-0.070431,-0.20999,-0.071147,0.3323
0.26005,0.10971,0.042783,0.023598,0.0027551,-0.36095,-0.12234,0.29399
0.25882,-0.31069,-0.032434,-0.024093,0.0003133,0.27528,0.62833,-0.049808
-0.47698,0.3127,-0.03555,-0.007423,0.0008038,0.096426,-1.1402,-1.0033
0.27006,-0.11917,0.024724,0.018641,0.019729,-0.0086455,0.21914,0.050385
-0.25106,-0.18221,-0.0012353,-0.0011968,-0.02169,-0.073662,0.24493,-0.37218
-0.048444,-0.14812,0.041598,0.041625,0.062993,0.078393,-0.42156,0.49878
-0.33248,0.11698,-0.082161,-0.056868,-0.055593,-0.14854,-0.29384,-0.72761
0.43716,0.48056,0.0097192,0.015113,0.011982,-0.15438,0.43572,0.48236
0.1059,-0.22194,-0.010908,-0.024103,-0.039866,0.091754,0.49659,0.58549
-0.020014,0.1334,0.067451,0.052009,0.10094,0.45785,0.070243,0.22561
-0.025359,-0.43912,-0.082281,-0.084315,-0.15924,-0.6794,-0.74184,-0.33019
0.012272,0.29365,0.025625,0.020744,0.024013,0.22917,0.12839,-0.17651
0.07722,-0.27844,0.025414,0.032136,0.042315,0.16242,0.52825,0.29308
-0.16684,0.18036,0.012087,-0.0023679,0.021814,-0.010526,-0.000832,-0.56627
0.014003,-0.04838,-0.021305,0.0038923,0.010408,0.031843,-0.042673,0.2957
-0.21657,-0.17503,-0.027569,-0.026816,-0.030279,-0.13204,-0.47709,-0.11683
0.094369,0.37907,0.06333,0.06174,0.08747,0.22385,-0.11183,-0.13414
0.087248,-0.026536,-0.054117,-0.04337,-0.081928,-0.45631,-0.47904,0.032416
0.1445,-0.0015344,0.079811,0.04773,0.046807,0.35728,0.86783,0.28239
-0.078394,-0.077912,-0.012834,-0.017438,0.0040544,0.17104,0.58005,0.024249
-0.043674,0.032429,-0.020849,-0.036636,-0.093869,-0.47702,-0.66671,-0.46582
0.051662,-0.24955,-0.054564,-0.010547,0.033615,0.18603,-0.13408,0.57281
0.20579,0.16929,0.04182,0.044866,0.065848,0.26182,0.61916,0.19736
-0.17659,-0.11753,-0.090951,-0.073465,-0.12996,-0.54598,-1.0055,-0.44937
-0.1823,0.015166,0.00086275,0.01769,0.07937,0.33375,0.26773,-0.19362
-0.069062,0.099046,0.11506,0.037748,0.0068799,-0.059217,0.33831,0.091263
0.13296,0.18931,-0.036435,-0.0047263,-0.0030708,0.088016,0.17503,0.18016
0.011618,0.020824,0.00030245,0.00031574,0.0031422,0.1034,-0.51237,-0.21489
0.10051,-0.070004,0.046022,0.022077,0.033613,-0.076302,0.31304,0.44564
-0.066857,-0.30927,-0.032089,-0.025224,-0.05227,-0.092899,0.078164,-0.61996
0.026865,-0.032405,0.015573,0.030144,0.049949,0.11477,0.32708,0.03975
-0.00030325,0.081402,-0.022575,-0.02314,-0.042942,-0.28259,-0.59875,0.53118
-0.04698,0.11845,-0.030047,-0.013711,-0.0032678,0.050249,-0.35685,-0.28254
0.049792,0.078795,0.03948,0.018861,0.035783,0.23821,0.31831,0.53151
0.069509,0.087068,0.0060685,0.0038849,0.0036991,0.21945,0.60744,-0.070013
0.0023849,0.11126,-0.052021,-0.019749,-0.036979,-0.27814,-0.35503,-0.58237
-0.16113,-0.4902,-0.0014813,-0.020724,-0.039103,-0.23713,-0.30969,-0.19409
0.10134,0.13337,-0.029071,0.0012351,0.0055886,-0.069575,-0.12291,0.33058
-0.038473,0.25493,0.045703,0.0074628,0.02729,0.17162,-0.20925,-0.25484
-0.15006,-0.21136,0.020382,0.013994,0.034246,0.13604,0.93697,-0.13294
0.10415,-0.085049,0.028132,0.021135,0.011071,0.058244,0.14814,0.38888
0.054284,0.21322,0.02203,0.01339,0.020248,0.093569,-0.079864,0.3772
-0.12584,-0.11196,-0.021802,-0.017137,-0.04787,-0.048849,-0.28173,-0.12669
0.21357,-0.13739,-0.057211,-0.016016,-0.014054,-0.066557,0.0099889,-0.005533
0.010515,0.16113,0.016534,0.016397,0.0039753,-0.055361,-0.062078,0.043604
0.006645,0.025771,-0.0044368,-0.014,0.0057273,-0.165,-0.82821,-0.34924
-0.11194,0.025905,0.0043766,-0.013713,-0.016958,-0.0363,-0.20165,-0.054081
-0.0034615,0.12076,0.035009,0.017167,0.045152,0.10513,0.55399,-0.033918
-0.09189,0.0582,-0.045139,-0.015015,-0.010988,0.22984,0.54902,-0.13335
0.17565,-0.093484,-0.040233,-0.016257,-0.060105,-0.37099,0.023096,0.24174
-0.17859,-0.56229,0.042628,0.029409,0.038835,0.17168,0.47649,-0.055885
0.056015,0.28413,0.040123,-0.01048,-0.0027701,0.069871,-0.67394,0.29565
0.090967,0.13385,-0.039317,0.020599,0.010818,0.1439,0.14062,-0.069339
0.060509,0.30867,0.039054,0.013403,0.025232,0.088101,0.63529,0.42071
-0.0020187,-0.31444,-0.0059546,-0.0086553,0.0093924,-0.16952,-0.76338,-0.26436
-0.14883,-0.17098,-0.0027143,-0.0066791,-0.02887,-0.068296,-0.19626,-0.18592
-0.21335,0.045287,-0.0063951,-0.012179,-0.011546,-0.27373,-0.69037,-0.95991
0.14247,0.15545,-0.048859,-0.033264,-0.048223,0.16662,0.31011,0.56329
0.20121,0.14366,0.033335,0.02354,0.017076,-0.10645,0.044467,0.30614
-0.10727,-0.045839,0.013102,0.025197,0.066852,0.2595,0.59765,-0.075918
0.26285,0.16341,0.030714,0.010623,0.014843,0.10165,0.57781,0.51595
-0.2844,-0.43342,-0.070216,-0.035877,-0.05333,-0.1726,-0.22127,-0.39967
0.14644,0.16244,-0.0083723,-0.0049237,-0.020747,-0.078093,-0.31314,0.2723
-0.15092,-0.1196,0.044607,0.033241,0.042096,0.15883,0.036264,-0.19387
0.16448,-0.0052614,0.010938,0.008428,0.03358,0.10034,0.16116,0.22706
-0.15139,0.24171,-0.015255,-0.032325,-0.069642,-0.2074,-0.60434,-0.53872
-0.10701,-0.14179,0.013242,-0.018524,-0.017334,-0.054349,-0.011156,0.2042
0.03255,-0.0046997,-0.012686,0.026565,0.042411,0.082097,0.042704,-0.29797
-0.020284,-0.14963,-0.0069473,-0.0062921,-0.022827,-0.072125,-0.5194,0.20434
0.20522,0.19003,0.022693,0.015793,0.021686,0.12327,0.53859,-0.3576
-0.14835,-0.0017706,-0.048812,-0.024366,-0.019105,-0.16772,0.49101,0.0021905
0.2174,0.16366,0.036231,0.045034,0.06584,0.18003,0.31382,0.38497
-0.0091935,-0.0043434,-0.019215,-0.018315,-0.028219,0.018342,0.0909,0.59166
-0.023211,-0.12677,0.034676,-0.019232,-0.012393,0.01946,-0.37582,0.17697
-0.10609,-0.14485,-0.013183,0.0031318,-0.027534,-0.19114,-0.46343,-0.17513
-0.039347,0.17291,0.032439,0.017515,0.035525,0.27779,0.2108,-0.29058
-0.096519,-0.034321,-0.055006,-0.038489,-0.049902,-0.41669,-0.71752,-0.66747
0.035096,-0.11007,0.01368,0.038431,0.044293,0.32789,0.53843,0.06476
0.051215,-0.30253,-0.034699,-0.02491,-0.017742,-0.14378,-0.30317,-0.033371
0.014704,0.29748,-0.004519,-0.017313,-0.032742,-0.13564,0.18662,0.17919
-0.066602,0.29493,0.065468,0.030182,0.038493,0.21204,0.23133,-0.20963
0.20517,-0.13517,0.011436,0.031734,0.039787,0.12564,0.34729,0.52106
0.055374,-0.037402,-0.02589,-0.020515,-0.0054462,-0.12219,0.1006,0.35665
-0.11145,-0.12939,-0.015334,-0.009577,-0.027024,0.084446,0.21682,0.054011
0.007563,0.24503,-0.011829,-0.021719,-0.02516,-0.084128,-0.60506,-0.43659
-0.065637,-0.08709,0.0076737,0.0051492,-0.015735,-0.15289,-0.45603,0.21679
-0.081731,-0.18213,0.019264,0.015904,0.032249,0.033151,0.30883,-0.42722
0.037817,0.083082,0.014634,0.017964,0.024835,0.066991,0.18186,0.050834
-0.02576,0.027237,-0.022278,-0.0045885,-0.014674,0.042166,-0.26145,-0.25538
0.09718,-0.03046,-0.0058482,-0.012833,0.01525,0.11524,0.31765,0.4926
-0.0045044,0.096998,-0.0065222,-0.0067282,-0.033753,-0.23652,-0.37786,-0.34129
-0.070201,-0.12936,0.014841,-0.017295,-0.0052431,0.11291,0.030422,-0.24368
-0.14468,-0.029323,0.0038367,0.01054,0.015127,0.070882,0.36785,0.25143
0.21829,0.069731,-0.031271,-0.00086323,-0.0035488,-0.13494,-0.15785,0.44422
0.16667,0.15291,0.011631,0.011494,-0.014045,-0.034885,0.16642,0.42906
-0.11388,-0.16205,0.015914,0.0089811,0.022998,0.059189,-0.46582,-0.71814
0.01439,0.00011775,0.0054995,0.015334,0.021839,0.13192,0.32943,0.14661
-0.045519,0.12382,-0.011471,-0.024012,-0.03308,-0.12148,-0.014112,-0.068176
-0.077837,-0.08794,-0.034868,-0.023171,-0.0012016,-0.0061439,-0.106,-0.34433
0.12632,0.18504,0.099284,0.056717,0.046991,0.16481,0.83204,0.61134
-0.29315,-0.40877,-0.062407,-0.042463,-0.052798,-0.18737,-0.62563,-0.52279
0.094136,0.17775,-0.0047102,-0.0085556,0.003873,0.054105,0.0030115,0.098371
0.00097976,0.0075148,0.0063059,0.033106,0.021485,0.037588,-0.17945,-0.28722
0.054914,0.057505,0.0014783,-0.011505,-0.015729,-0.11159,-0.27666,0.38794
0.14133,-0.047067,-0.042953,-0.033204,-0.045337,-0.17403,-0.10601,0.40255
0.027896,-0.087644,0.036879,0.038224,0.073283,0.31985,0.50378,-0.23114
-0.0029946,0.17725,0.029972,0.00746,0.019852,0.12084,0.18745,-0.33077
-0.27937,-0.034826,-0.047993,-0.031682,-0.07277,-0.27837,-0.91205,-0.30988
0.2917,0.21216,0.045316,0.014661,0.029829,0.091082,0.40097,0.65796
-0.10369,-0.11442,-0.041457,-0.0096262,-0.00046394,0.017863,0.51383,0.35841
-0.0062144,-0.32019,0.020048,0.020596,-0.0074196,-0.030117,0.25458,-0.1504
-0.073564,0.047856,0.011322,0.0038898,0.016726,-0.10876,0.032836,-0.45864
0.076082,0.20929,-0.0049118,-0.0049507,0.025027,0.18669,0.059861,-0.085111
-0.073343,-0.14669,-0.028473,-0.013655,-0.052913,-0.090629,-0.89162,-0.32813
-0.068672,0.09154,0.011066,-0.022166,-0.029672,-0.12975,-0.078947,0.2737
0.1451,-0.097097,-0.003454,0.024238,0.079052,0.42746,0.11061,0.37079
-0.18173,0.086243,-0.0018041,-0.0072611,-0.047101,-0.41983,-0.14392,-0.35446
0.23215,0.064601,0.0080066,0.016108,0.029347,0.15632,0.37135,0.13964
0.08172,-0.044728,0.033495,0.0083267,0.011545,0.015847,0.22453,0.62842
0.01475,0.069785,-0.0038111,-0.007269,-0.014485,-0.0039541,0.00046402,-0.356
-0.15703,-0.093721,-0.0026805,0.00047589,-0.025139,-0.12757,-0.48203,-0.24331
-0.012293,0.087375,-0.018032,0.0002583,0.01109,0.069474,0.42231,0.13795
-0.097934,-0.1628,-0.018682,-0.0079037,0.016406,0.019637,0.20001,-0.17357
-0.1242,0.098994,-0.0044963,-0.023911,-0.032263,-0.032329,-0.32912,-0.47481
0.19155,-0.073883,-0.0064171,0.014899,0.013852,0.056128,0.027421,0.32823
0.11681,0.083739,-0.0005973,-0.016289,-0.032528,-0.096866,-0.43006,0.21231
0.012966,-0.11522,0.013364,0.023293,0.047376,0.14905,0.73877,0.36466
-0.13377,0.11943,0.020118,0.000875,0.0033578,0.026768,-0.080068,-0.26275
0.0060774,-0.10144,0.01974,0.010117,-0.024407,-0.22407,-0.57741,-0.27362
-0.012117,0.012779,-0.003552,0.027355,0.049386,0.18238,0.40148,0.22767
0.15538,0.18994,0.03584,0.0053976,0.044346,0.18804,0.34926,0.38662
-0.13271,-0.16291,-0.08126,-0.071714,-0.10266,-0.30383,-0.98962,-0.50221
0.052118,0.048201,0.019763,0.014502,-0.0014146,-0.029772,0.15384,0.036743
-0.072865,-0.059783,-0.028511,-0.001712,-0.0035673,0.04836,0.45506,-0.30044
0.029805,0.19228,0.00046644,0.0046765,-0.0072838,-0.037811,-0.059832,0.34038
-0.12579,-0.086816,0.028781,0.010417,0.01145,0.025767,0.28987,-0.17749
0.24805,-0.11615,0.017758,0.015803,0.045583,0.11648,0.19063,0.2599
-0.21693,-0.13004,-0.032134,-0.025701,-0.036909,-0.12229,-0.49334,-0.32768
0.18946,0.19234,0.020187,0.011216,0.03026,0.10117,-0.32875,0.23455
0.099696,0.047145,0.026632,0.025227,0.013128,0.078111,0.52364,0.18186
-0.25956,-0.16624,-0.051677,-0.038237,-0.041322,-0.14318,-0.11968,-0.11199
0.0028425,0.037319,0.027443,0.0083241,-0.00047694,-0.046521,0.020281,0.34201
-0.041888,0.19724,0.0059992,0.0085504,0.033659,0.11783,-0.25199,-0.46837
0.052686,-0.12417,-0.030389,-0.006494,-0.025442,-0.080761,0.073323,-0.33691
0.037725,0.080148,0.011636,0.0098457,-0.014338,-0.04215,-0.35924,0.099527
0.13298,-0.01904,0.03011,0.010487,0.050816,0.16954,0.90097,0.62743
-0.043662,-0.09482,0.0012485,-0.020345,-0.017828,-0.033189,-0.25725,-0.019384
0.055068,0.0080382,-0.043937,-0.0045935,-0.0094335,-0.0031272,0.27363,-0.0971
-0.08633,0.023316,-0.0039858,-0.0047256,-0.041033,-0.11598,-0.60272,-0.53958
-0.14757,0.052512,0.0039455,-0.0050016,-0.0028888,-0.0046079,-0.38237,-0.20894
-0.027168,-0.25553,0.019059,0.010369,0.019541,0.073706,0.28828,0.37693
0.063772,0.060826,0.018114,0.033748,0.026724,-0.11443,0.16675,0.090131
0.062459,0.20538,-0.022125,-0.02848,0.0033748,0.11183,0.50787,0.51194
0.046476,0.030118,-0.0077421,-0.0043702,0.0043021,-0.043423,-0.483,-0.42734
0.085287,0.12095,0.030116,0.02013,0.021573,0.029749,0.31143,-0.10489
-0.072229,-0.23354,-0.02569,-0.033187,-0.046702,0.018801,-0.26604,0.18569
0.025828,0.03614,0.043603,0.038669,0.033414,0.16529,0.19015,0.29778
-0.106,-0.17252,-0.03543,-0.022272,-0.035392,-0.18027,-0.38141,-0.47798
-0.085569,0.038054,-0.020559,0.0025906,0.0043677,0.13722,0.42185,-0.25614
0.17297,0.13603,0.017989,0.0037603,0.0041163,-0.1957,-0.063978,0.64771
-0.0095078,0.082114,-0.021229,-0.011028,-0.012639,-0.093532,-0.17857,-0.36851
-0.13186,-0.045406,0.0025269,-0.010561,-0.014402,0.068821,-0.51619,-0.37305
-0.036359,-0.019369,0.011188,0.0051526,0.0148,0.0029078,0.14327,0.16153
0.04413,-0.034068,0.020332,0.020489,0.012825,0.084595,0.2542,0.35738
0.21243,-0.041238,-0.0092806,0.0041967,0.042452,0.09597,0.16742,-0.038553
-0.077542,0.023263,0.031441,-0.0046696,-0.021164,-0.079592,0.12078,-0.022703
0.01037,-0.042016,0.017162,0.017328,0.0016824,0.026835,0.082152,0.13331
0.02279,-0.071579,-0.0446,-0.023528,-0.0062722,0.06352,0.32011,0.085711
-0.10332,0.083892,-0.044637,-0.025584,-0.045145,-0.055823,-0.32907,-0.034056
-0.087305,0.14324,0.0092614,0.019134,0.017777,-0.15182,0.0015836,-0.35298
0.015712,0.02756,0.00012957,-0.0063373,-0.020681,-0.02925,-0.16298,0.10372
0.072716,-0.022559,0.022086,0.0076362,0.034801,0.04647,-0.6615,-0.21176
0.060294,-0.071723,0.020867,0.0066141,0.0045766,0.06019,0.27326,0.17725
-0.044845,-0.14561,-0.0031566,0.014222,0.037128,0.25471,0.27982,-0.17358
-0.031622,0.12099,0.0049338,-0.016325,-0.031582,-0.28343,-0.063111,0.24485
-0.025021,-0.10139,-0.025137,-0.022553,-0.037502,0.00087288,-0.21526,-0.1603
0.17011,0.030426,0.008036,0.026646,0.0036982,0.021865,0.33072,0.6188
-0.087192,0.10263,0.026018,0.02166,0.037253,0.052843,0.24266,-0.14561
0.038584,0.053728,-0.0028328,-0.0065526,0.016186,0.046478,0.26186,-0.44801
-0.070186,-0.020991,-0.039841,-0.04267,-0.067441,-0.17766,-0.47656,-0.010136
-0.12479,-0.080579,0.00062366,-0.0010274,0.02842,0.059154,-0.067616,-0.046028
0.054211,0.048801,0.024632,0.032227,0.022362,0.099553,0.30602,0.19165
0.0057198,-0.1936,-0.038161,-0.013356,-0.015459,-0.065389,-0.29562,-0.056651
0.15144,-0.03308,0.023276,0.010599,0.0085626,0.047729,-0.052082,0.32569
0.037977,0.02302,0.02162,0.0025293,0.0083794,0.086693,0.23623,-0.13709
-0.092838,0.42738,-0.011664,-0.014079,-0.016059,-0.097103,-0.24188,-0.27887
-0.077383,-0.040111,0.017386,-7.7005e-05,-0.017848,-0.14386,-0.57431,-0.1199
-0.025441,-0.045523,-0.016047,-0.0022222,0.010948,0.048973,0.31836,0.17965
0.086173,-0.26293,0.013195,0.034319,0.031471,0.11568,0.48576,0.31134
0.077776,0.016739,-0.019753,-0.0074662,-0.034136,-0.16085,0.17997,-0.21337
-0.1753,-0.02787,-0.028831,-0.033623,-0.013706,0.080281,-0.076039,-0.18873
0.10106,0.0016656,0.0016922,-0.012676,0.0070973,0.035463,-0.44273,0.058335
-0.0062395,0.059455,0.056271,0.03998,0.051924,0.08011,0.13403,0.45703
-0.0037947,0.061243,-0.021313,-0.023882,-0.02754,0.03423,0.31394,-0.52595
0.015934,-0.0066733,-0.004531,0.014635,0.0031024,-0.056209,0.0040124,0.23879
-0.070827,-0.041056,0.012767,0.0071511,-0.01247,-0.067457,-0.030644,0.083017
0.025964,0.0059889,-0.0086362,-0.030764,-0.035336,-0.071097,-0.4856,-0.16167
0.041251,0.033028,-0.0064266,0.033531,0.043691,0.033443,-0.24233,0.12591
-0.071823,0.093961,0.0035859,-0.0033545,-0.0021489,-0.027801,0.49199,-0.11952
0.014279,-0.078354,-0.017821,-0.0011123,0.014455,0.22954,0.2161,-0.10248
0.10308,-0.017058,0.0073566,0.00087913,-0.016024,-0.2644,-0.36557,-0.32295
0.013308,-0.075548,0.008729,-0.013262,7.0408e-05,0.069184,0.35966,0.50939
-0.014603,0.088586,0.001878,-0.004623,-0.023226,0.012304,-0.13481,0.060702
-0.060372,0.045133,0.010224,-0.0044762,0.015692,0.0343,-0.17974,0.17729
-0.0079321,-0.14296,0.01033,0.01072,0.0075469,0.10422,0.011164,-0.15379
-0.052997,-0.12275,-0.044659,-0.013524,-0.016286,-0.13734,0.051577,-0.383
0.023587,0.27971,0.024977,0.032411,0.030254,0.051455,0.21028,0.18746
0.027635,-0.066033,-0.0072687,-0.0074929,-0.0011803,0.092014,-0.065671,0.06775
-0.078311,0.014133,-0.024143,-0.02368,-0.04024,-0.25833,-0.21342,-0.11516
0.066849,-0.16564,0.075992,0.030819,0.030242,0.10165,0.15672,-0.0082752
0.042716,0.1376,-0.073982,-0.023685,-0.016374,0.039039,0.0038307,0.029705
0.022077,0.04074,0.026,0.00021917,0.0072954,-0.047604,0.020796,0.06098
-0.010525,-0.03568,0.0088082,0.024259,0.038625,0.099815,-0.13873,0.303
0.030267,0.14059,-0.00050066,-0.014239,-0.031865,-0.010538,0.030645,-0.28543
-0.044232,-0.081426,-0.0018594,-0.0060625,-0.016726,-0.11269,-0.035577,0.11334
-0.071492,-0.094875,0.0048177,0.0017984,-0.0018653,0.05925,0.10648,-0.073672
0.071912,-0.07368,-0.019426,0.0014844,0.036273,0.20861,0.13568,-0.34876
-0.076308,-0.034763,-0.019787,-0.014787,-0.034932,-0.26608,-0.24511,0.23963
-0.017079,0.060513,0.019461,0.0077671,-0.0043081,-0.03663,0.12845,-0.22329
0.10856,0.1344,-0.0031828,0.014604,0.01118,0.045361,-0.23513,0.57506
0.050723,0.00037806,0.021642,-0.0097389,0.0038816,0.096982,0.30577,-0.075585
-0.11192,-0.043331,0.046964,0.028645,0.028545,0.039892,0.025735,0.0055836
-0.034719,-0.081168,-0.036764,-0.026364,-0.016456,-0.071582,-0.17562,-0.48478
0.017771,0.13836,-0.065695,-0.018426,-0.014112,-0.042628,-0.11756,-0.20934
0.062304,0.069775,0.061509,0.021249,0.027498,0.024586,0.25534,0.84096
0.053039,-0.20755,-0.04597,-0.016733,-0.040366,0.051296,-0.080046,-0.39551
-0.071681,-0.12226,0.010152,0.0003556,-0.0070606,-0.11935,-0.13962,0.011177
0.024666,0.21704,0.042264,0.025488,0.033418,0.18408,-0.0024376,0.13867
-0.0795,-0.17369,-0.020023,0.003769,-0.012847,-0.15584,0.079882,-0.31112
0.022076,0.24448,0.010735,-0.010357,0.010317,0.087514,0.17553,0.081871
-0.053695,-0.12295,0.0095152,0.014123,0.01699,-0.022966,0.04779,0.32335
0.16139,0.089956,-0.031483,-0.040166,-0.023967,-0.0099948,0.18674,0.02065
-0.028732,0.12379,-0.0028138,0.014175,-0.0108,-0.052272,-0.65119,-0.34341
0.031285,-0.21844,0.033159,0.020906,0.017681,0.0154,0.33845,0.31639
-0.15948,-0.024092,-0.063992,-0.043293,-0.039806,0.07695,-0.40572,-0.5543
0.007537,-0.075346,0.026287,0.017091,0.027946,-0.12451,0.0092345,0.061503
0.10205,0.0024812,0.038622,0.014802,0.010214,0.060007,0.39893,0.20498
0.022192,0.12371,0.0044933,0.020397,0.024317,0.075929,0.27456,0.2145
-0.060103,0.10152,-0.013419,-0.020606,-0.015644,0.071329,-0.017013,0.092375
-0.027276,-0.1726,-0.030615,-0.0064991,-0.015966,-0.095153,-0.19209,-0.081451
0.051014,0.083475,-0.00015475,0.008115,-0.00018217,-0.065093,-0.20218,-0.024488
0.011548,0.15175,0.02329,-0.00017178,0.00034474,-0.042592,-0.44502,-0.50167
-0.051013,-0.21713,0.00062687,-0.0079326,0.0089573,0.073071,0.38379,0.45604
-0.073329,0.086742,0.017727,-0.0073934,-0.036909,-0.10934,-0.006126,-0.049765
0.16398,-0.068927,-0.034893,0.01701,0.042394,0.24578,0.59377,-0.10519
-0.11221,-0.066436,-0.024564,-0.028557,-0.034412,-0.1117,-0.28073,0.07065
