0.089638,0.025861,-0.059698,0.0094312,-0.0028375,0.0006543,0.34451,-0.033491
-0.09009,0.11494,0.12292,0.010303,0.0058989,-0.042602,-0.40936,0.20633
-0.026409,-0.059048,-0.029029,0.01236,-0.00020906,-0.0070391,0.094644,-0.19666
0.10125,-0.011956,0.0075939,-0.00025424,0.017633,0.044197,0.17402,0.22441
-0.019701,-0.0179,-0.01777,-0.012296,0.0043971,0.071346,-0.040999,0.10109
0.016537,0.03921,-0.0042939,-0.016415,-0.024645,-0.059004,0.15095,-0.37917
-0.11892,0.0017556,0.03942,0.010362,0.016151,0.0043667,-0.68034,-0.23833
0.13549,0.016736,-0.067016,0.005145,-0.01402,-0.035395,0.47382,0.089001
-0.096136,-0.042113,0.011861,-0.0010751,-0.0058151,-0.068497,-0.43915,-0.39353
0.22455,-0.019406,-0.020991,-0.047463,-0.060691,-0.086397,0.33355,0.58306
-0.16838,0.076761,0.092419,0.061349,0.07937,0.1852,0.31826,0.059847
-0.14189,-0.089173,-0.069292,-0.0025806,0.00053771,-0.0029733,-0.16246,0.51323
0.054743,-0.039631,-0.05228,-0.020232,0.0076975,0.052621,-0.0058214,-0.37962
0.055469,0.062834,0.089594,0.008703,-0.00060141,-0.038717,-0.24314,-0.076142
0.0099952,0.040317,-0.017867,-0.0014106,-0.016536,-0.027539,0.24159,0.13741
-0.025874,-0.011655,0.00098765,-0.011253,-0.0089295,-0.0085078,-0.17079,-0.14172
0.1126,-0.029074,-0.048743,-0.0050138,-0.0091512,-0.021751,0.017456,-0.37691
0.0035783,-0.0030992,0.044011,0.02522,0.021744,0.041142,0.11679,-0.13054
-0.19734,0.058868,0.091615,0.016961,0.013366,-0.015785,0.25085,0.24064
0.16482,-0.077776,-0.078135,-0.029849,-0.034292,-0.0051894,-0.44006,-0.048102
-0.083428,0.023671,-0.090669,-0.021566,0.0038343,0.0030073,0.091809,0.18773
0.032766,0.05732,0.061406,0.026061,0.0028721,-0.084051,-0.19851,0.249
0.16826,0.029601,0.010578,-0.0042643,0.025482,0.1802,0.17599,-0.17465
-0.10738,0.009509,0.045732,0.020196,-0.021926,-0.17159,0.069611,0.23701
-0.12215,-0.22274,-0.067531,-0.025583,-0.022047,-0.036615,-0.093515,-0.18211
-0.1015,0.09788,0.045886,0.022488,0.04861,0.17198,0.24251,0.057141
-0.0043712,0.018081,-0.043545,-0.015212,-0.013102,-0.029846,-0.17241,-0.095012
0.3359,-0.04005,-0.054433,-0.044844,-0.0041535,0.0060953,0.15252,0.016116
-0.12483,0.11139,0.099201,0.035225,-0.018434,-0.017876,0.011903,0.0082249
-0.0013225,-0.05844,0.01098,0.021891,0.022031,0.014268,-0.22185,-0.70974
-0.17472,0.021034,-0.022544,0.016656,0.015556,0.030965,0.28496,0.038336
0.10558,0.092043,0.013757,-0.011881,-0.00668,-0.031359,-0.28152,0.47577
0.088984,-0.048694,0.009905,-0.017079,-0.060308,-0.1734,-0.25743,0.23098
-0.11691,-0.073315,-0.058147,-0.014845,0.018774,0.081154,0.25654,0.37529
0.12583,-0.11489,-0.050286,-0.013282,-0.0037565,-0.025335,-0.10532,-0.093332
0.056156,0.1077,0.087842,0.034225,0.028366,0.030966,0.017856,-0.3204
-0.071317,0.0085068,-0.050114,-0.0053355,0.036961,0.18018,0.45508,-0.26578
-0.11861,0.0017925,0.043807,0.0085537,-0.0015425,0.00072057,-0.13753,0.22737
0.10799,0.14258,0.073131,0.013396,-0.017013,-0.11669,0.082657,0.027925
-0.05584,-0.053001,-0.063058,-0.014113,-0.017425,-0.023675,-0.089283,-0.016428
-0.15593,-0.099935,-0.043571,-0.026827,-0.026291,-0.032873,-0.4599,-0.25044
0.020814,0.04164,0.054534,0.0069097,0.01896,0.043164,0.32104,-0.33634
0.18805,-0.080511,-0.025384,0.017289,-0.0064435,-0.02203,-0.051452,0.60482
-0.081149,-0.10616,-0.11031,-0.0029496,-0.00058659,-0.017264,-0.12344,-0.54695
0.12168,0.13722,0.0038016,-0.037659,-0.017759,0.01094,-0.0025685,0.86171
0.079101,0.087332,0.12996,0.038574,0.043951,0.070741,0.34465,0.045598
-0.1539,-0.02178,0.0024817,-0.0083901,0.005069,-0.032936,-0.30621,-0.15694
-0.015425,0.066774,0.050363,0.016773,-0.017199,0.012462,0.24956,0.067661
-0.053583,0.015699,0.014562,0.020096,0.02384,-0.011957,0.067299,-0.5929
0.18331,-0.059336,-0.067424,-0.014454,-0.012777,0.010699,-0.19706,-0.37311
-0.017014,-0.13625,-0.056569,-0.0092897,0.020964,0.0097625,-0.12281,0.50046
-0.35085,-0.028449,-0.047962,-0.043113,-0.07066,-0.069768,0.046159,-0.018953
0.13435,0.052813,0.043483,-0.0070942,-0.0067206,0.0063048,0.097028,0.24837
0.086768,0.037471,0.022186,0.051441,0.064158,0.08174,0.14534,0.14581
-0.079692,0.0042905,-0.0021961,0.0071626,-0.03775,-0.062011,-0.1772,-0.061948
0.24411,0.04779,0.041337,-0.0073074,0.0079547,-0.049596,0.027511,-0.1342
-0.020386,-0.065755,-0.057255,-0.015457,0.037386,0.11941,0.02564,-0.025749
0.024725,0.078083,0.046685,0.021866,0.0038954,-0.062396,-0.16587,-0.15216
-0.074106,0.041847,-0.013279,-0.0044823,-0.029767,-0.00095619,0.0095377,0.14186
-0.12156,-0.073091,0.0055434,-0.016023,-0.0086583,0.022631,-0.01644,-0.3236
-0.015404,0.014292,0.025263,-0.020117,-0.018473,-0.015102,0.28136,0.22525
-0.058867,-0.063243,-0.055673,-0.0084496,-0.0043088,-0.012796,-0.12726,-0.0077365
0.078216,0.10085,0.090741,0.058526,0.049617,0.044854,0.06256,0.36091
-0.11752,-0.1724,-0.10596,-0.014105,-0.0050595,-0.0065912,-0.0014762,-0.22317
0.26993,0.047741,0.018186,-0.015158,-0.012116,-0.034671,-0.01607,0.013294
-0.094224,0.01242,-0.00559,0.00073702,-0.0029358,-0.00058589,-0.12354,-0.055278
0.0087576,-0.011768,-0.028806,-0.0056263,-0.0011746,-0.02947,0.049505,-0.14062
0.10105,0.053782,0.018892,0.004493,0.0085244,0.034927,-0.029356,0.32682
-0.046214,0.099473,0.067151,0.030649,0.0024497,0.044272,-0.063822,-0.44247
-0.076572,-0.016282,0.014226,-0.005777,-0.011823,-0.032526,0.071162,0.12955
0.06954,0.0018402,-0.0073925,-0.019306,-0.011022,-0.039065,-0.014485,0.18381
-0.12588,-0.0433,-0.013738,-0.018091,0.0047752,0.032566,0.23475,0.14277
0.046718,-0.067476,-0.052072,-0.002296,0.0043273,0.010492,-0.12558,-0.28197
-0.1472,-0.048478,0.0023539,0.012484,-0.0044714,-0.019449,-0.19631,-0.050721
0.090226,0.036628,0.040129,0.018644,0.033198,0.028487,0.21053,0.18846
0.14369,0.00061647,-0.047917,-0.014729,-0.01532,-0.017817,-0.20964,-0.18157
-0.10169,-0.0071417,-0.0192,-0.0013129,0.0063933,0.028904,0.089808,-0.11423
0.098568,0.084997,0.056445,-0.018871,-0.042124,-0.034637,0.13175,0.63982
-0.12866,-0.065301,-0.031491,0.026614,0.011153,-0.013162,-0.037736,-0.37335
0.069393,0.090056,0.084433,0.025895,0.025717,0.0075055,0.033591,0.064268
0.091596,-0.0027977,-0.0411,-0.021052,-0.0061688,-0.011444,-0.12376,-0.30553
-0.070092,-0.062259,-0.041171,-0.012824,-0.014181,0.016274,0.044469,0.36119
-0.088251,0.0053443,0.021243,-0.0043556,0.0094346,0.0050915,-0.031968,-0.31757
0.07528,-0.02693,0.020576,0.011884,0.0098682,0.02564,-0.032186,-0.074882
-0.05691,-0.011168,-0.012432,-0.003417,-0.0052364,-0.031245,0.005763,0.098535
0.069274,0.10681,0.039104,0.0042535,0.010815,0.014195,-0.010604,0.19612
-0.054237,-0.11086,-0.08261,-0.019858,-0.020254,-0.025604,0.16999,0.28106
0.064807,0.046597,0.013448,0.018047,0.003033,0.02888,-0.084196,-0.20917
-0.35459,-0.0066859,0.038974,0.0087479,0.010371,0.013375,-0.0068764,-0.40802
0.40661,-0.059523,-0.067521,-0.031899,-0.029383,-0.048874,0.019339,0.26167
0.036038,0.060308,0.031002,0.01356,0.0089648,0.04514,-0.10737,0.17399
-0.052371,0.10315,0.077709,0.043827,0.031901,-0.0092737,0.18267,0.062915
-0.038684,-0.16517,-0.090804,-0.042443,-0.022839,-0.03231,-0.21302,-0.31346
-0.05627,0.075695,0.056882,0.0048885,0.0011766,-0.015949,0.10295,-0.063486
-0.090089,-0.11983,-0.089008,-0.040702,-0.013157,0.0087985,-0.042404,-0.04507
0.054691,0.14618,0.087748,0.047276,0.027874,0.065555,0.099841,0.055704
0.11214,0.044837,0.038855,0.018637,-0.0087055,-0.048749,-0.080645,0.091094
-0.066265,-0.088793,-0.026423,-0.009705,0.0096571,0.025133,0.040375,-0.15045
-0.05079,0.0022243,-0.031622,-0.030262,-0.018918,-0.017807,-0.068831,0.43042
0.088418,-0.018743,-0.017168,0.019139,0.0068158,0.017275,0.26349,0.2519
0.015629,0.12919,0.078624,0.021046,0.016292,-0.0029751,-0.27484,-0.29985
-0.057998,-0.21017,-0.12717,-0.032512,-0.021883,0.0068821,-0.026826,-0.15091
0.016211,0.096491,0.053581,0.014694,0.0016531,-0.0081929,0.032127,-0.20247
-0.04273,-0.10621,-0.081013,-0.048154,-0.030166,-0.04832,0.020608,0.14666
0.015503,0.12812,0.048803,0.021356,0.0235,0.027278,0.072887,-0.10103
0.074118,0.089629,0.10098,0.043812,0.022281,0.0080681,0.018373,-0.14353
0.0164,-0.1661,-0.07928,-0.035211,-0.017963,0.0040117,0.022043,0.30729
-0.1337,0.064662,0.063697,0.026665,0.020113,-0.007669,-0.1657,-0.28811
0.08524,0.078977,0.030273,0.010774,-0.0040624,0.0048834,0.14249,0.40467
-0.076413,-0.092074,-0.062613,-0.02822,-0.012414,0.0030483,-0.10098,-0.11829
-0.032624,-0.034907,-0.04383,0.0033225,0.0027421,-0.01298,-0.0066783,-0.12203
0.021004,-0.0080094,-0.008183,-0.011945,0.0021822,0.019213,0.017581,0.39835
0.075897,0.0034822,-0.011511,-0.0195,-0.014242,0.005532,0.016933,-0.29749
0.12304,0.13165,0.12483,0.050832,0.023688,0.039197,0.29437,0.10283
0.0047278,-0.014706,-0.045254,-0.011974,-0.024666,-0.05227,-0.37022,-0.04192
-0.061745,-0.068753,-0.037774,-0.012631,-0.0029838,-0.019421,0.1396,-0.028138
-0.13211,0.0085462,0.030139,0.0098382,0.026375,0.0045399,-0.043286,-0.12627
-0.0035679,-0.10281,-0.059774,-0.022586,-0.022344,-0.011801,-0.011583,0.0060067
-0.01931,0.074355,0.029274,0.030878,0.015112,0.025384,-0.044654,-0.066525
0.064274,0.025192,0.0014591,0.0063597,0.01391,0.022629,-0.17127,0.13821
-0.016429,-0.0073364,-0.0015416,-0.025628,-0.018027,-0.027468,0.25185,-0.20799
-0.032677,-0.053905,-0.057021,-0.025852,-0.025968,-0.022893,0.070796,-0.096642
-0.045109,0.12007,0.1167,0.013602,0.029122,0.036757,-0.048797,0.55027
0.27551,-0.063774,-0.050804,0.014606,-0.0012916,0.011152,-0.028249,-0.019516
-0.086331,-0.012363,0.033585,0.0082725,0.0076444,-0.0057994,0.022503,-0.24881
-0.084702,0.06237,0.025037,0.0099588,0.0010697,0.0015509,-0.015267,0.14279
0.052066,-0.05944,-0.054323,0.0036833,-0.01337,-0.0059319,-0.018779,-0.043899
-0.014184,0.011846,-0.033897,0.0046972,-0.0045542,-0.028369,-0.076488,-0.088389
-0.066894,0.056855,0.069713,-0.0029212,0.011826,0.020053,0.090431,-0.075992
0.0016039,-0.049489,-0.0095794,-0.019303,-0.0032825,-0.017017,-0.051266,0.15025
0.049796,-0.080076,-0.084104,-0.044357,-0.018555,0.0087827,0.028349,-0.0015827
-0.00034955,-0.010352,-0.0046425,0.00035123,0.013005,0.011442,0.063128,-0.043407
-0.085312,0.098678,0.0738,0.052788,0.013401,-0.0091413,-0.079459,-0.20362
0.07787,-0.056088,-0.058257,-0.027162,-0.017268,0.009371,0.015646,0.026001
-0.10254,0.026694,0.045871,0.018736,0.0069721,-0.003568,-0.04848,0.1165
-0.02312,0.035331,0.012177,0.0032005,0.007949,0.014246,0.034625,0.14175
0.17681,0.0011467,0.0051354,0.027744,0.0089713,0.015619,0.024518,0.027755
0.036763,-0.06875,-0.045828,-0.048575,-0.044838,-0.062233,-0.046115,-0.11986
-0.029686,0.13677,0.084976,0.047169,0.04162,0.030505,-0.082613,-0.031957
-0.070666,-0.071549,-0.0099954,-0.0059208,0.0025358,0.020366,0.30594,0.012927
0.044973,0.023208,-0.019671,-0.020853,-0.0059511,-0.014363,-0.013588,0.15723
0.13594,-0.041394,2.074e-05,-0.0057406,0.00054193,0.0047957,-0.18255,-0.15277
-0.2129,-0.047484,-0.061067,-0.038716,-0.024716,-0.038835,-0.084705,-0.0027361
-0.11117,0.02048,-0.0077532,0.021147,-0.0033301,0.0037791,-0.01783,-0.3383
-0.026965,-0.078983,-0.034815,0.0025166,-0.0052595,0.016038,0.12676,0.5351
0.20517,0.061699,0.030686,-0.00019178,0.0089244,0.0062295,-0.018518,-0.047649
-0.069346,0.061344,0.072897,0.021465,0.031708,0.02932,0.038376,-0.14254
-0.044353,0.03091,0.0071713,0.01325,0.00075596,-0.0084059,-0.030644,-0.040015
0.10904,-0.090881,-0.063973,-0.0090348,-0.0058184,0.0022178,-0.014523,-0.046114
0.015603,0.024744,0.0083172,0.00135,-0.011635,-0.0017063,0.016544,0.19738
0.19755,0.15123,0.12228,0.020562,-0.0013812,-0.036306,-0.031105,-0.091624
-0.20645,-0.14949,-0.09783,-0.02229,0.0011285,-0.0005334,0.1004,-0.085456
0.027923,0.027923,0.026562,-0.010647,0.011157,0.011411,-0.018561,-0.010686
-0.069977,0.0027291,-0.021392,-0.023187,-0.010639,-0.00080621,-0.075367,0.23467
-0.15751,-0.069757,-0.039642,-0.0056088,-0.0097273,0.0094857,-0.015114,0.088879
0.093427,-0.018319,0.0023429,0.026291,-0.0095595,0.018768,-0.01719,-0.36893
0.027605,0.016096,-0.020683,0.0022384,-0.0022182,-0.035443,-0.034392,-0.21586
-0.0094019,0.049102,0.047759,0.01619,0.020291,0.018815,0.10541,0.29104
-0.031054,0.073083,0.028588,-0.0018452,0.019109,0.017611,0.05076,-0.082341
0.17562,-0.013221,-0.022681,-0.0046175,-0.0055863,-0.023274,-0.034413,0.38229
0.034015,-0.076686,-0.03487,-0.015184,-0.014611,-0.01773,-0.048865,0.058744
-0.001923,0.070464,0.055254,0.01368,0.015534,0.018789,0.077287,-0.23437
-0.041444,-0.11061,-0.033085,-0.011484,-0.016695,0.0083287,-0.070412,-0.014508
-0.23338,-0.010382,0.012764,-0.012344,-0.0097349,-0.0098933,5.9973e-06,-0.25188
0.062228,0.058759,-0.018309,0.011211,0.012986,0.018953,0.0073429,-0.017537
0.13367,0.081217,0.037321,0.027929,0.0046267,0.0012427,0.03005,0.24331
-0.051012,-0.028981,0.0071952,-0.024811,-0.019133,-0.039476,-0.19698,-0.13256
-0.015957,-0.014104,0.0079031,0.016827,0.012087,-0.0015508,0.10801,0.22328
-0.019685,-0.093001,-0.10946,-0.034968,-0.0032232,0.021335,0.039122,-0.31293
-0.031775,0.070189,0.10016,0.022565,0.01308,0.013588,0.041631,0.15036
0.11865,0.030114,-0.011628,0.024987,0.014082,0.02988,0.27134,0.36357
0.10234,-0.072602,-0.061745,-0.028049,-0.03157,-0.047038,-0.27252,-0.016978
-0.16,0.01204,-0.034141,-0.02745,-0.0068539,-0.021962,-0.10653,-0.38984
0.072873,-0.05975,-0.0064946,0.0031572,-0.0057272,0.0033983,-0.012713,-0.01275
-0.019836,0.22754,0.21684,0.063702,0.049708,0.044492,0.11785,0.01321
-0.13326,-0.16533,-0.114,-0.025445,-0.012631,-0.0082497,-0.05857,-0.19384
-0.0086106,0.042689,0.039972,0.0015362,-0.013208,-0.022211,0.028866,-0.0077289
0.11361,0.070197,0.014504,-0.0034591,0.0088627,0.033681,0.060723,0.43196
0.048114,-0.14529,-0.1281,-0.039978,-0.024461,-0.020386,-0.063492,0.13358
-0.030834,0.044916,0.01051,0.0097019,0.012046,0.0030391,-0.014608,0.19071
-0.082,-0.06181,-0.030469,0.0055144,-0.014081,-0.036622,0.012902,-0.6397
-0.13507,0.074288,0.053957,0.033897,0.022585,0.040463,-0.082031,-0.1402
0.27156,0.008662,0.037631,-0.021975,-0.025968,-0.023297,0.25537,0.23462
-0.018768,0.031048,0.022492,0.0099296,0.020294,0.037981,-0.037693,0.06163
0.0081208,-0.030002,0.0087595,0.0045289,0.0053089,-0.041083,-0.1571,0.20708
-0.079701,-0.057245,-0.073898,-0.02287,-0.008443,0.0053148,-0.080106,-0.30605
0.058897,-0.0041725,-0.030444,-0.0024675,0.0022323,0.013189,0.083216,0.17844
-0.00044047,0.081569,0.08394,0.018232,-0.0021635,-0.0096963,0.05104,-0.065576
-0.017354,0.027029,0.01863,0.030764,0.024689,0.030241,0.02606,0.040804
-0.10982,-0.028368,-0.031698,-0.027946,-0.0037212,-0.015689,-0.054527,-0.18101
0.074154,0.070522,0.026183,0.013584,0.013693,0.024112,-0.042494,0.19993
-0.11231,-0.16927,-0.12054,-0.06355,-0.06397,-0.030275,0.069808,-0.010395
0.028449,0.041055,0.059364,0.022017,0.013274,-0.014913,-0.053699,-0.01401
0.053734,-0.0091371,0.042679,0.02063,0.0034882,-9.3228e-05,0.094688,-0.091439
0.051776,0.0013053,-0.045151,-0.012521,-0.014741,-0.0012789,0.053995,-0.12534
0.031841,0.011069,0.0073403,0.01686,0.021647,-0.018208,-0.081939,0.14154
0.017654,0.037059,0.036585,-0.00012657,0.019439,0.04316,-0.12534,0.067244
-0.046416,0.017872,-0.011754,-0.008484,0.0024578,0.0033822,0.010182,0.22006
0.079839,-0.045808,-0.020357,0.023128,0.0021142,0.018846,0.036162,-0.16809
-0.074936,0.018042,0.018495,-0.0069881,-0.005119,-0.012005,0.078202,-0.16221
-0.13065,0.01371,-0.0048516,-0.021025,-0.019544,-0.026777,-0.01947,0.03248
0.082252,0.0028657,-0.012639,0.0040309,0.0052807,-0.0022172,-0.022234,0.086617
0.030961,0.11728,0.10417,0.028688,0.022027,-0.0010262,0.10113,-0.093669
-0.035068,-0.15969,-0.084287,-0.017709,-0.0087371,0.0078716,-0.016805,0.10208
0.001833,-0.039685,-0.077938,-0.018149,-0.016894,0.016547,0.0064364,-0.26928
-0.0054086,0.047326,0.061077,0.0039588,-0.010235,-0.02974,-0.14193,0.31855
0.046757,-0.03125,-0.010397,-0.0058438,0.003663,0.01745,-0.0792,-0.037472
0.0043533,0.0064471,-0.010405,0.0075153,0.0017523,0.0019018,0.054037,-0.021892
-0.083521,0.028414,0.014808,0.0054307,0.0079254,-0.013849,0.07824,-0.11676
0.12095,0.004169,-0.01251,-0.003852,-0.00866,0.0092797,0.0482,0.13236
-0.029362,-0.003278,-0.022076,-0.020015,-0.00086695,0.00096207,0.05761,-0.086913
-0.033814,0.12339,0.1575,0.050829,0.031357,0.00022438,-0.026611,-0.21322
-0.087774,0.024542,0.033139,0.028927,0.048782,0.053903,-0.03301,0.4387
0.11277,-0.16756,-0.15408,-0.062535,-0.066122,-0.064573,-0.032347,-0.0091379
0.097931,-0.055134,-0.053719,-0.012993,-0.016913,-0.0035809,-0.032753,-0.083463
-0.11028,-0.0059787,-0.010429,0.0052544,0.00068138,0.010462,-0.096813,-0.11537
-0.11492,0.081043,0.061213,0.023066,0.0097929,-0.014404,0.088145,-0.0054414
0.082663,0.07292,0.036141,0.0010798,-0.0053431,0.0080337,0.045921,-0.059247
0.11421,-0.045955,-0.03061,-0.021811,0.010002,0.0077288,0.01913,0.067418
-0.12254,0.052733,0.056926,0.024677,0.0091436,0.01612,0.062822,-0.19413
-0.0028694,-0.15415,-0.12231,-0.039041,-0.038884,-0.029235,-0.11184,0.095979
0.067053,0.083765,0.096579,0.04505,0.045911,0.027809,0.026447,0.15118
-0.076476,0.0090431,-0.0044248,-0.011849,-0.0096497,0.007308,-0.014542,0.090742
0.02801,0.012652,0.0049163,-0.0063306,0.0055342,0.0026386,0.061989,0.072221
0.0060861,-0.014519,-0.031316,-0.0084508,-0.010054,-0.033492,-0.079927,-0.2087
0.022336,-0.025436,0.027626,0.013238,0.0060159,0.0079056,0.012898,-0.025864
0.014674,0.0033796,-0.044871,-0.011462,-0.024538,-0.0062708,0.02812,0.073011
-0.00097235,0.032795,0.024463,0.011218,0.023076,0.0097682,-0.16688,-0.0067146
0.03814,0.000159,0.0088309,-0.0047374,0.00020622,-0.0064762,0.24054,-0.14064
-0.10211,-0.0244,-0.045155,-0.0047911,-0.015207,-0.015812,-0.069934,0.014878
0.047368,0.060516,0.065375,0.018673,0.015774,0.013226,-0.020367,0.17114
-0.091122,-0.049863,-0.0035651,0.0029564,-0.016269,0.018389,0.045101,-0.15553
-0.017079,-0.027383,-0.04124,-0.0052215,0.021514,0.038989,0.00096171,0.019991
0.18403,-0.0047086,-0.0087509,-0.029374,-0.019199,-0.041943,-0.043922,0.018532
-0.065596,-0.0050528,0.039089,0.00083377,0.0023922,-0.02109,-0.035242,0.12922
-0.023688,0.026501,0.00062561,0.015208,0.0083708,0.00015017,0.034672,0.039054
0.012672,0.043223,0.00079895,0.0061188,0.0067619,0.021922,-0.01372,0.043946
0.011757,-0.033021,-0.038556,-0.010608,-0.017873,-0.018157,-0.0081337,-0.34174
0.019777,0.039764,0.015348,0.012071,0.0049092,-0.002827,0.0051478,0.099444
-0.07338,-0.066897,-0.040626,-0.019501,-0.018584,-0.010213,0.018955,-0.086691
-0.0027836,-0.0018742,0.059153,0.019677,0.028807,0.045527,0.026041,0.28666
0.027889,0.04693,0.025665,0.012327,0.0063456,0.00013952,-0.012277,0.023925
-0.028593,0.048011,0.046524,0.012994,0.0076126,-0.0060176,-0.0021128,-0.29657
0.10106,-0.037701,-0.065532,-0.02535,-0.014465,-0.0044915,0.017356,0.14603
-0.012794,-0.045846,-0.028864,-0.02468,-0.021006,-0.018985,-0.047944,0.032196
-0.10435,-0.038348,-0.04606,0.0071723,0.0034822,-0.0028008,0.012453,-0.12155
0.029764,0.0089772,-0.007135,-2.7421e-05,0.0042528,-0.010676,-0.036375,0.044971
-0.016445,-0.020326,0.018147,0.0007423,0.0047561,0.019973,0.047201,0.11832
-0.00062607,0.038289,0.022279,0.0018327,-0.0027555,-0.0044155,0.036093,-0.034035
0.061613,0.091108,0.11455,0.0268,0.013054,0.010161,-0.077965,-0.044939
0.0295,-0.065526,-0.072801,-0.0259,-0.025866,-0.0063508,0.040622,-0.0084931
0.012143,0.028259,-0.032961,0.0076922,0.013337,0.0087668,0.016658,-0.12055
-0.045436,0.14448,0.13904,0.057043,0.052537,0.032223,0.037627,0.29799
-0.026225,-0.17929,-0.13624,-0.057827,-0.041114,-0.045296,-0.10721,-0.19866
-0.047354,-0.030152,-0.0082744,-0.016903,-0.033289,-0.028503,0.035703,0.0064424
0.039976,0.013174,0.01458,0.015512,0.021286,0.027816,0.037293,0.085298
-0.013593,-0.017873,-0.020711,-0.007583,-0.010214,0.0063068,-0.046983,-0.070957
0.066194,0.002653,0.0037611,-0.00024543,0.01285,0.00049979,0.033692,0.030715
-0.087022,-0.064351,-0.090494,0.0064021,-0.0032391,0.010139,-0.040254,-0.12427
0.019593,0.15789,0.15889,0.020385,0.019678,0.0037108,0.028607,0.066653
0.073842,-0.039875,-0.035811,-0.020546,-0.0043086,-0.0033898,0.0061513,-0.020828
-0.04941,0.015461,0.013928,0.0088458,-0.0048693,-0.011315,0.0016459,-0.019398
0.039881,-0.019234,0.0039137,-0.0084431,-0.0054265,0.0033404,-0.024445,0.0235
-0.0264,0.059087,0.020017,0.013635,0.0018568,-0.0061916,0.013039,0.31757
-0.038405,-0.047124,-0.055506,-0.018643,-0.022039,-0.016232,0.10534,-0.052868
0.049729,-0.042057,0.018655,0.011871,0.0088843,-0.0030052,-0.053203,-0.10507
0.14356,0.010584,-0.0084822,0.0035295,0.024384,0.026048,-0.11961,-0.30106
-0.2649,-0.0074792,-0.020609,0.0031124,-0.0067278,0.00095175,0.022835,0.10113
0.074788,-0.0032896,-0.0027143,-0.012888,-0.021912,6.6999e-05,0.045958,-0.030448
0.0073979,0.0071364,0.013688,0.010202,0.025711,0.015682,0.043854,0.14191
-0.01254,0.016009,0.0052513,-0.0056892,0.003301,0.00088249,-0.060944,-0.012368
-0.061659,0.0080796,-0.012022,-0.013563,-0.011072,-0.013236,-0.0019909,-0.030199
0.033125,-0.00041193,0.0092981,-0.0054422,-0.0096632,-0.026895,0.010582,-0.14455
0.13959,-0.008746,0.022945,0.011026,-0.00035379,-0.001277,0.024268,0.17606
-0.023738,0.022824,0.045085,0.035958,0.016795,0.024327,-0.0075025,0.11014
-0.020456,-0.077055,-0.10359,-0.024377,-0.028583,-0.020592,-0.037927,0.038109
0.0070586,0.043439,-0.0010112,-0.021646,0.011897,0.020058,0.065378,-0.027564
0.048919,0.048304,0.063698,0.0048482,0.020987,0.021151,0.028298,0.18339
-0.0062016,-0.06287,-0.019087,0.015692,-0.0091968,-0.033031,-0.017118,-0.57362
-0.2691,-0.0017374,0.0080292,0.010468,-0.00060635,0.013711,-0.063704,0.1223
0.087777,0.043278,-0.0038989,0.012195,0.0076272,0.012944,0.013188,0.076574
0.13507,0.12587,0.069616,0.0049125,-0.00016047,-0.0040037,-0.0051408,-0.091312
-0.032313,-0.1767,-0.12342,-0.058436,-0.031774,-0.036974,-0.063536,0.075111
-0.076718,-0.021297,-0.0051515,0.0096774,0.0066022,0.00019922,0.065345,0.0013187
0.11314,0.0059616,0.025879,-0.0014354,0.01352,0.014039,-0.008211,0.15912
-0.070368,0.038157,0.040068,0.010226,-0.0030606,0.00481,0.052554,0.11289
0.092832,0.036923,-0.0014312,0.013963,0.011693,0.019598,-0.0096442,0.034953
0.017517,0.042335,0.026686,0.0025326,0.0032131,-0.0039865,-0.038458,-0.16938
-0.14779,-0.12412,-0.015864,0.0076729,-0.0049963,0.00436,0.059494,-0.22856
0.073013,0.023077,-0.011543,-0.0093529,-0.01293,-0.017985,-0.044684,0.058192
-0.016246,0.031765,-0.0694,-0.024993,-0.012833,-0.016542,-0.023899,0.14176
0.013074,-0.011502,0.029587,0.0075149,0.01862,0.016249,0.027013,-0.026501
-0.004147,0.018464,0.019979,0.025353,0.010961,0.0098212,0.036804,0.0054563
0.024931,0.027654,0.019021,-0.0032029,-0.0047272,-0.0047916,-0.018557,-0.075264
-0.072223,-0.031446,-0.012434,-0.0083875,-0.0051661,0.0035137,-0.04544,0.051818
0.0556,0.051224,0.034778,0.0092688,0.009534,-0.012197,-0.0043851,0.0044118
-0.0057198,-0.0065072,0.035374,0.0024763,0.00027835,0.0027967,0.042969,0.0097267
-0.052873,-0.11166,-0.081217,-0.02117,-0.017239,0.0017408,-0.042823,0.005852
0.086365,0.06344,0.012985,0.00085656,-0.0037846,0.00044391,-0.049547,0.10259
-0.032898,-0.043781,-0.041358,-0.0014786,0.0018348,0.014747,0.023923,-0.11384
