-0.015478,-0.079326,-0.17818,-0.048011,-0.02307,-0.017896,-0.01797,-0.013481
0.02386,0.077165,0.16868,0.10816,0.032475,0.028266,0.021398,0.018158
0.00041816,0.028707,0.11664,0.006373,0.017561,0.0043208,0.0064434,0.0024505
0.015547,-0.068979,0.2176,0.044612,0.0101,0.019645,0.022979,0.0017343
-0.024648,-0.02072,-0.49865,-0.090002,-0.029148,-0.01174,-0.015143,-0.023117
-0.018629,-0.037091,-0.3363,-0.061677,-0.02996,-0.011774,-0.0066052,-0.0017282
-0.013147,-2.8187e-05,0.21516,-0.026462,0.0077043,-0.019584,-0.014129,-0.0042131
-0.00012117,0.021431,-0.11313,-0.038483,-0.017545,-0.011769,-0.022227,0.00098674
0.028631,0.075632,0.30948,0.12183,0.0352,0.027292,0.023764,0.014241
0.026641,-0.031333,0.004314,0.080399,0.041279,0.02731,0.022387,0.012477
0.009902,0.068811,0.22602,-0.013568,-0.014601,-0.0038563,0.0051002,0.011616
-0.052568,-0.15462,-0.3741,-0.15177,-0.054052,-0.034907,-0.035635,-0.042853
-0.012209,0.017057,0.44694,0.025248,-0.014428,0.0045104,-0.0057832,0.0053429
0.021554,0.051846,-0.093244,0.10306,0.033957,0.0050443,0.008957,0.0076306
0.0094353,0.049976,-0.30964,0.0027934,0.044064,0.0057497,0.0087293,0.010605
-0.00207,0.017497,0.099234,-0.08907,-0.039105,-0.016856,0.016986,0.006064
0.033413,0.069659,-0.0027015,0.060706,0.034031,0.038703,0.017982,0.017005
-0.064363,-0.29535,-0.81379,-0.11927,-0.057301,-0.038632,-0.03539,-0.042937
0.024374,0.12419,0.62418,0.12796,0.0146,0.024438,-0.0028003,-0.0022329
0.049191,0.10879,0.38679,0.020681,0.030676,0.0090371,0.0060824,0.021721
-0.044856,-0.060271,0.38556,-0.058318,-0.017014,-0.014605,-0.0089743,-0.0023644
-0.01559,0.024058,-0.15543,0.094571,-0.0033878,-0.0074325,0.0065893,-0.0040429
0.020047,-0.082068,-0.62894,-0.043179,0.024969,0.0071991,0.0058936,0.0013414
-0.015589,0.0060519,-0.17689,-0.28287,-0.072119,-0.033046,-0.010951,-0.0092707
-0.012475,-0.053327,0.0288,0.08766,0.0027591,0.012674,-0.0046838,-0.012031
0.030092,0.1322,0.62238,0.17876,0.062613,0.019573,0.01712,0.032497
-0.0044423,0.0091772,-0.28396,0.029929,-0.001545,0.01125,5.4527e-06,-0.00041109
-0.0062617,-0.031269,-0.16295,-0.0075604,-0.0098506,-0.0044187,-0.0011555,-0.001247
0.0091701,0.04959,0.59131,0.08877,0.014194,0.0037591,-0.0018812,-0.0090942
-0.020807,-0.13993,-0.5951,-0.080942,-0.015641,-0.02688,-0.0099668,-0.016303
0.02835,0.10955,-0.17955,0.013043,0.0095703,0.012807,0.0057717,0.015921
0.0075339,0.015037,0.23096,-0.26327,-0.043493,0.0053853,-0.001668,0.009138
-0.029312,-0.073457,0.25452,0.066153,-0.011228,-0.018091,-0.0011921,-0.021328
0.10467,0.15552,0.40599,0.1735,0.10605,0.067288,0.046118,0.057111
-0.036233,-0.11085,-0.91063,0.020817,-0.012055,-0.035306,-0.0082686,-0.013452
-0.15515,-0.14553,0.67622,-0.093359,-0.1154,-0.075676,-0.078427,-0.092333
0.021751,-0.025457,-0.47813,-0.081172,0.030756,0.016805,0.0075926,0.031609
0.042059,0.10249,-0.026226,0.10602,0.012901,0.039376,0.031183,0.030554
0.016027,0.052373,-0.14365,-0.0070603,0.011299,0.00017513,0.00032096,-0.017045
0.030393,0.044089,0.43234,0.025431,0.02645,0.0244,0.024515,0.029699
0.030986,0.054627,0.34054,-0.00776,-0.035095,0.0026881,0.010069,0.0068486
-0.028985,-0.096097,-0.45073,0.032889,0.029813,-0.026088,-0.019629,-0.015332
0.0063524,0.090805,0.16117,0.036338,0.0099669,0.00021674,-0.017845,0.0020056
0.04249,0.020049,-0.2272,-0.030542,0.029855,0.034277,0.023031,0.027284
-0.12467,-0.29431,0.076074,-0.16166,-0.1143,-0.088422,-0.045659,-0.072674
0.05859,0.10741,0.037523,0.11831,0.069015,0.053621,0.025885,0.029934
-0.010059,0.037073,-0.47746,-0.073981,-0.022306,-0.00075545,0.0031394,-0.0088543
-0.0028962,0.057227,0.33332,-0.011772,0.0020276,-0.0094089,0.0032124,0.014026
0.087932,0.1764,0.19985,0.22764,0.087277,0.074678,0.041726,0.051802
-0.057404,-0.25265,-0.51022,-0.19047,-0.086631,-0.060687,-0.037497,-0.035905
-0.12556,-0.1738,0.30945,-0.1007,-0.066086,-0.071327,-0.038995,-0.06124
0.087622,0.21118,0.67592,0.1387,0.063618,0.058863,0.029625,0.038698
0.020691,-0.034233,-0.13041,0.028462,0.0062797,0.002207,-0.0032722,-0.0013412
-0.013025,0.11383,0.22505,0.12346,0.0046619,0.0090444,0.0031761,-0.0013952
0.049429,0.069198,-0.54638,-0.18601,0.035687,0.024851,0.017917,0.030833
0.028356,0.042045,-0.4641,0.10715,0.013505,0.0027138,0.002013,0.0093205
-0.068884,-0.16397,-0.034738,-0.099496,-0.06207,-0.041968,-0.021062,-0.034956
0.030371,-0.096693,-0.12721,-0.025519,0.011692,0.0076394,0.011142,0.022596
-0.0029264,0.016732,0.072856,0.023835,0.015536,0.018316,-0.0030612,0.0018325
-0.029015,-0.0034498,-0.05641,0.0092745,-0.011982,-0.010315,-0.0013439,-0.027353
-0.048541,-0.039634,0.47887,-0.037854,-0.032223,-0.031667,-0.022967,-0.018384
0.0084717,0.088549,0.786,0.09371,0.017036,0.0087845,0.0099928,0.0051745
0.063888,0.092679,-0.10303,0.068449,0.049734,0.040692,0.02703,0.035561
-0.038288,-0.050373,-0.37204,-0.23825,-0.090367,-0.053061,-0.011082,-0.01295
0.077358,0.081072,0.17447,0.21296,0.08903,0.0636,0.020535,0.031838
-0.065266,-0.08401,-0.87862,-0.10125,-0.044736,-0.031029,-0.026612,-0.040634
0.0499,0.047051,-0.0079611,0.09252,0.055372,0.03041,0.0037494,0.012196
-0.053363,-0.10505,0.25777,-0.10429,-0.048001,-0.04099,-0.013271,-0.02029
-0.031079,-0.049138,-0.37234,-0.0043535,-0.018798,-0.026354,-0.014989,-0.012878
0.038727,0.026717,0.42323,0.087488,0.025892,0.027528,0.022265,0.034508
0.02323,0.11469,0.33518,-0.14136,-0.023227,0.003509,0.012789,0.020231
0.00044719,0.027903,-0.19515,0.082501,0.021414,0.018758,0.0036553,-0.0090546
-0.0063571,-0.052809,0.24954,0.04037,0.011433,0.010708,-0.0050131,0.0088289
-0.005194,-0.055571,0.21017,0.052654,-0.0062428,-0.01293,-0.0053646,-0.035857
-0.0040645,0.021358,-0.92229,-0.013303,0.023126,-0.005384,0.010374,0.0049916
-0.049994,-0.09382,0.35909,-0.20416,-0.041022,-0.021412,-0.020393,-0.017312
0.020979,-0.017052,0.099712,0.058467,-0.018916,-0.00634,-0.0040385,0.014293
0.044734,0.19754,0.35293,0.095186,0.011419,0.0086306,0.0046225,0.013868
0.005616,-0.067537,-0.7178,0.015646,0.018831,0.023594,0.013292,-0.002854
0.0051808,0.092796,0.34897,-0.0080599,0.026836,-0.0082144,0.0062607,0.018995
-0.050304,-0.11241,-0.031057,-0.046102,-0.019215,-0.016393,-0.016526,-0.029739
0.042345,0.16614,0.12125,0.13597,0.0291,0.045979,0.015221,0.02305
-0.029256,-0.21433,-0.574,-0.086812,-0.062665,-0.032042,-0.023495,-0.025551
-0.0071211,0.049192,0.52644,-0.16758,-0.013387,-0.00050981,0.0079768,0.0043237
0.0074063,0.034049,0.033635,0.057677,0.043941,-0.00012806,0.0081136,0.0034252
0.014546,-0.11114,0.10411,0.15905,-0.0081105,-0.0075422,0.00039336,0.010877
-0.040226,-0.072824,0.0022174,-0.16082,0.0020321,0.00061621,-0.0073394,-0.012396
0.022833,0.02563,-0.53248,0.050394,0.011518,0.0086753,0.0083687,0.0038403
0.03175,0.27192,0.93408,0.033654,-0.0034551,0.00098496,0.00064034,0.012572
0.0018986,-0.11371,-0.65645,0.092152,0.027103,-0.0068398,-0.0071049,0.0058193
-0.012405,0.0024451,-0.4635,-0.11942,-0.045451,0.00082378,-0.0070815,-0.024402
0.019678,0.073755,0.18256,0.28828,0.044487,0.031789,0.016308,0.0077072
-0.035018,-0.017271,0.53849,-0.27912,-0.070057,-0.038939,-0.0072707,-0.015129
-0.0048221,-0.029014,0.08106,-0.047796,0.033242,0.023026,0.0081121,0.016439
-0.014724,-0.15729,-0.14925,-0.086575,-0.027788,-0.032295,-0.015663,-0.0069346
0.029258,0.074295,0.46728,0.19302,0.052271,0.013883,0.007362,0.016379
-0.044341,-0.060572,-0.87834,-0.24491,-0.054007,-0.010276,-0.016537,-0.022919
0.02279,0.0012112,-0.36947,0.063858,0.01328,0.028077,0.029855,0.0080447
0.051437,-0.0052775,0.34967,0.25482,0.051265,0.027412,-0.0018839,0.023364
-0.036177,0.092333,0.30605,-0.061026,-0.0026164,-0.035681,-0.018001,-0.016026
0.0022885,0.15345,-0.092041,0.030601,-0.015921,-0.028364,-0.010697,-0.016408
0.049587,0.02125,0.41324,0.1067,0.010759,0.03377,0.03563,0.037799
-0.082021,-0.18033,0.5229,-0.061474,-0.032636,-0.03674,-0.019667,-0.048755
0.021173,-0.02295,-0.48554,-0.25003,-0.0061177,0.017958,-0.0047191,0.012982
0.038482,-0.06262,-0.92915,-0.031963,0.019537,0.03382,0.025812,0.027724
-0.022599,0.098125,0.18762,0.043655,-0.018383,-0.012596,-0.013942,-0.0044627
-0.021636,-0.017722,0.41574,0.029971,0.005182,-0.011955,-0.01449,-0.013162
0.01789,0.0040374,-0.91161,0.06676,0.0045861,0.012241,0.00088144,-0.0060605
-0.028923,-0.039089,1.0942,0.15373,0.011521,-0.018204,-0.0067253,-0.0064645
0.025615,0.049149,-0.31842,-0.16216,-0.02041,0.006021,0.009701,0.0091698
-0.029221,-0.050552,1.0837,0.15849,0.010762,-0.01669,-0.0044613,-0.0059773
0.02548,0.037663,-0.35653,-0.16505,-0.019721,0.0073908,0.013249,0.010576
0.064781,0.11902,-0.69321,0.039783,0.067853,0.031377,0.031424,0.035295
-0.044182,-0.06411,-0.43184,-0.14019,-0.047025,-0.015053,-0.028322,-0.025735
-0.0046714,-0.082214,0.072879,0.085138,0.0024671,-0.038166,-0.025685,-0.024278
-0.01216,-0.01377,0.015251,0.044986,0.028382,0.055764,0.031202,0.016035
-0.027701,0.070522,0.5205,-0.0096047,-0.04001,-0.022353,-0.014167,-0.014316
0.026814,0.068844,0.080877,0.062823,0.015757,0.024345,0.0099425,0.017409
0.018675,-0.15162,-0.2115,0.067466,0.031542,-0.0072488,-0.0058439,0.0096616
-0.036296,0.096905,-0.079994,-0.25336,-0.094069,-0.062393,-0.030141,-0.029664
0.0027654,-0.091322,0.52181,0.01417,0.014262,0.023063,0.015407,0.0011191
0.01106,-0.020396,-0.35558,0.15855,0.021028,0.0070291,-0.0017434,0.0083864
-0.011322,0.028915,-0.16478,0.03838,0.020387,0.022391,0.012393,4.0717e-05
0.029299,0.025521,-0.12599,0.059033,0.051671,-0.0011473,0.018905,0.015173
0.023306,0.10974,0.57122,-0.20999,-0.025684,0.022298,0.017831,0.014683
-0.014045,-0.00048133,-0.30096,-0.050559,-0.016523,-0.024573,-0.022138,-0.009325
-0.0050403,-0.079766,-0.44484,0.013555,0.0085218,0.0065482,-0.0073683,-0.010064
0.010917,0.097127,0.58088,0.30264,0.0021948,-0.0016236,-0.023909,-0.0032038
-0.083531,-0.22875,-0.26339,-0.27682,-0.051464,-0.049107,-0.0015024,-0.027771
0.024176,0.12943,0.40809,-0.013482,-0.0042197,0.02043,0.013002,0.002301
0.053087,0.0076285,-0.3675,0.27282,0.057962,0.035284,0.0119,0.040339
-0.011946,-0.0074592,-0.41799,-0.22995,-0.028848,-0.012129,-0.012472,-0.014989
-0.045377,-0.031649,0.34378,-0.021431,-0.014412,-0.02003,0.0025382,-0.015048
0.047038,-0.024147,0.15305,0.12516,0.039037,0.019547,0.017964,0.024644
-0.046876,-0.076968,-0.1628,-0.17293,-0.047975,-0.026169,-0.020868,-0.028745
0.07139,0.15499,0.33815,0.22485,0.068407,0.053661,0.018772,0.03556
-0.012431,0.00052098,0.086984,0.0057783,-0.0024682,-0.014625,0.0039114,-0.0014685
0.0059096,0.068797,0.058637,-0.26791,-0.049798,-0.020402,-0.010964,0.00044828
-0.046042,-0.10215,-0.61809,0.16131,0.019972,0.0047415,-0.010422,-0.029344
0.049877,0.095437,-0.019024,0.051048,-0.004281,-0.0019892,0.0054019,0.01045
-0.011482,0.105,0.59972,-0.036297,-0.0054818,-0.0017166,0.0052123,0.0025152
-0.081915,-0.34076,-0.65055,-0.10069,-0.014877,-0.010102,-0.018745,-0.0062401
0.033923,0.014832,0.029693,0.15491,0.045787,0.027663,0.0039905,0.0078158
0.0081926,0.022905,0.33162,-0.15989,-0.057629,-0.036598,0.0033052,-0.033131
0.036657,0.10561,-0.083664,0.087976,0.034539,0.016211,0.018467,0.027534
-0.012985,0.029377,0.84463,0.008096,-0.005549,0.0067738,-0.0050464,0.010463
0.039413,0.021801,-0.90721,0.014639,0.025452,0.013541,0.010976,0.025281
-0.079262,-0.064533,0.13091,-0.048653,-0.059854,-0.025767,-0.035034,-0.045088
0.045194,0.083687,-0.22542,0.052491,0.066628,0.029552,0.020889,0.018074
-0.024762,-0.025198,-0.010602,-0.0023813,-0.032761,-0.047147,-0.0089216,-0.019776
0.046612,0.0075237,0.15613,-0.03368,0.016732,0.040784,0.015954,0.028612
-0.022226,-0.10709,0.077779,0.067991,0.011699,-0.0038619,0.0015584,0.0067039
-0.012846,-0.017438,-0.091736,-0.13469,-0.03248,-0.0017825,-0.0054079,-0.015443
-0.011469,0.065615,-0.020307,-0.016384,-0.00659,-0.008031,-0.028492,-0.030195
-0.018297,-0.068798,0.028279,0.12643,-0.0044188,0.00054913,0.0104,0.0014362
0.068141,0.16531,0.60821,0.012894,0.04442,0.023818,0.025385,0.040419
-0.033394,-0.067995,-0.4315,-0.12241,-0.063051,-0.031943,-0.0068524,-0.014689
-0.025935,-0.026649,-0.21192,0.040788,0.0092587,-0.025909,-0.00802,-0.015287
0.035968,0.046968,0.34861,0.20527,0.058315,0.034442,0.0064411,0.030985
-0.019416,-0.027071,-0.48805,-0.24679,-0.017481,0.0010666,-0.0258,-0.024174
0.01115,-0.0068135,0.11143,0.050964,-0.0073755,-0.00065708,0.020383,-0.00099802
0.0027274,-0.033066,-0.2526,0.042961,-0.0054425,-0.0017039,0.012242,0.022394
-0.013437,-0.035647,0.66195,0.048705,0.01135,-0.0019596,-0.018984,-0.016557
0.0251,0.032198,-0.22258,-0.14333,-0.019908,0.014128,0.020375,0.0070402
-0.0067513,0.0531,-0.21055,0.04469,0.017654,-0.0083722,-0.0026237,-0.008512
-0.015334,-0.027946,0.033502,0.058127,-0.0011116,0.02393,-0.01001,-0.00084478
-0.031967,-0.00048889,0.00013551,-0.1261,-0.029248,-0.029983,-0.017551,-0.0091254
0.037073,0.041103,0.46784,0.25822,0.042947,0.017055,0.013708,0.013462
0.012131,0.057124,-0.059014,-0.20223,-0.033976,-0.014835,0.0055973,0.012226
0.010481,-0.11699,-0.22435,-0.014471,0.0063078,-0.008464,0.012818,0.010663
-0.038045,0.02639,0.00092885,-0.037133,-0.046391,-0.033946,-0.027056,-0.045797
0.015179,0.042259,-0.26604,0.15231,0.058608,0.034077,0.0032783,0.0070802
0.0063105,-0.10762,0.38359,0.12467,0.0093011,0.024166,0.010207,0.021064
-0.0097301,-0.054762,-0.27146,-0.088455,0.024675,0.0070605,0.0094946,0.0041874
-0.0092934,0.10866,-0.59894,-0.28375,-0.028138,-0.01691,-0.014366,-0.012096
0.0077733,0.063939,0.63578,-0.015857,-0.024465,-0.0085104,0.0090218,0.0036217
0.0024604,-0.00012868,0.43221,0.19162,-0.0038987,0.0088143,-0.0062364,-0.0032617
-0.0175,-0.12183,-0.61087,0.072663,0.0094825,-0.019804,-0.0054577,-0.0093152
0.033599,0.042634,0.19579,0.15007,0.038461,0.022502,0.0034961,0.016603
-0.00086081,0.0551,-0.01705,-0.077016,-0.034732,0.0025206,0.0049087,-0.011655
0.0036561,0.062681,0.42496,-0.32826,-0.023037,-0.0020457,-0.0013461,0.0071837
0.0075938,-0.022318,0.47524,0.12209,0.03422,0.0084263,0.00020526,0.018086
-0.044175,-0.12369,-0.95226,0.14848,-0.011472,-0.044469,-0.006224,-0.018361
-0.011332,-0.047877,-0.23133,-0.085227,-0.0037666,0.01099,0.0026496,-0.00089688
0.027875,0.078734,0.19678,-0.086711,0.0028746,0.018539,0.011077,-0.0078528
0.034475,0.075662,0.29277,0.23818,0.024386,0.0095327,0.011172,0.023204
-0.045938,-0.041617,-0.87785,-0.235,-0.024827,-0.0080221,-0.028321,-0.024824
0.013632,0.0086307,0.24472,-0.0057481,-0.0038123,-0.0026321,0.0020446,0.0045487
0.0027615,0.032111,0.67386,0.13729,0.017398,0.010333,0.00084883,0.0022952
-0.0077287,-0.11041,-0.0080867,0.038097,-0.0078615,-0.023578,-0.00046925,-0.0077466
-0.025228,-0.034588,0.39582,0.063905,-0.0091549,-0.0026073,-0.0095216,-0.0017572
0.036461,0.065702,-0.655,-0.16812,0.0057432,0.026508,0.020736,0.020556
0.021138,0.074338,0.40555,0.0060995,0.021166,0.0013477,0.0044655,0.0046524
-0.024493,-0.055062,-0.37367,-0.061722,-0.025495,-0.0077504,-0.0036347,-0.01043
0.00076072,0.0054493,0.0014824,-0.027499,-0.017206,-0.00079958,-0.0036432,-0.0014469
-0.01297,0.012863,-0.29378,0.085804,0.030233,-0.016896,-0.0035154,-0.0077822
0.043163,0.067459,0.25421,0.19275,0.038522,0.022049,0.027833,0.024863
-0.018802,0.0037212,0.54496,-0.05,-0.054987,-0.016806,-0.034741,-0.013265
-0.035108,-0.1015,-0.64423,-0.25945,-0.031646,-0.0084848,-0.011629,-0.0052777
0.0019679,0.024474,-0.16681,0.033083,0.038187,0.023555,0.011237,-0.0060199
-0.0011917,-0.063721,-0.039396,0.17095,0.029528,0.0011548,0.010512,0.00014398
0.010431,-0.029408,0.35371,-0.11995,-0.010678,0.0023871,0.0019737,-0.002234
0.013858,0.0038055,0.087434,0.12826,-0.035444,-0.019699,-0.0063844,-0.0050341
0.025221,0.1705,0.77331,0.0083742,0.002251,-0.0026978,0.0012281,0.015559
-0.0096891,-0.074432,-0.88603,0.035158,0.055697,0.029852,0.0093008,0.013051
-0.0358,-0.0029794,0.036448,-0.16695,-0.038999,-0.015891,-0.013377,-0.020056
-0.013794,-0.044012,0.13067,-0.10588,-0.03168,-0.022812,-0.0043479,-0.0054297
0.040812,-0.0021507,-0.3417,0.20312,0.054342,0.040306,0.020642,0.025753
0.010789,0.12975,0.28809,-0.161,-0.023047,-0.014029,0.0067323,0.0031268
-0.033722,-0.0089499,-0.19273,0.19343,-0.0060294,-0.013892,-0.022833,-0.026585
0.016378,-0.068234,0.14498,-0.084039,-0.011876,0.0017387,0.0020811,0.014533
-0.011125,-0.07309,-0.37815,0.023105,0.01393,-0.0061024,-0.004594,-0.01437
0.031845,0.022127,0.058618,0.093516,0.063329,0.032986,0.019579,0.011503
-0.058177,0.076091,0.40825,-0.23209,-0.08272,-0.060628,-0.04258,-0.040828
0.046652,0.0027701,0.08361,0.069399,0.012993,0.056811,0.03556,0.047267
-0.013246,-0.18958,0.52782,0.14578,0.037732,0.01807,0.011918,0.0022615
0.012024,0.077976,-0.30078,0.050939,-0.00081758,-0.020686,-0.011827,-0.0040348
-0.041616,0.048496,-0.52145,-0.21592,-0.063584,-0.043922,-0.019945,-0.018545
0.044657,0.12112,-0.11127,0.086774,0.037088,0.042044,0.018892,0.029015
-0.03371,-0.039753,-0.44364,-0.15073,-0.026653,-0.04405,-0.012466,-0.025418
0.012525,-0.082703,0.19611,0.016808,0.018968,0.033789,0.010982,-0.0021133
0.081998,0.18706,0.81319,0.24575,0.064908,0.056926,0.042331,0.052143
-0.11415,-0.30936,-0.18844,-0.057437,-0.083881,-0.099477,-0.082533,-0.089078
0.033628,0.16943,0.14905,-0.04879,0.025864,0.04131,0.034772,0.043135
-0.021392,-0.0569,-0.11677,-0.071935,0.0035127,-0.020573,-0.0042453,-0.0041921
0.0099256,-0.10592,-0.58693,0.099721,0.012982,0.011817,0.0034991,-0.0043871
0.018193,0.1864,0.61171,-0.088557,-0.0084802,0.013445,0.018914,0.019142
0.0032953,-0.0078273,-0.54045,-0.035284,-0.01431,0.0075948,-0.012702,0.0038295
0.019713,0.0072758,0.40425,0.040722,0.010814,0.0096369,0.0024056,0.012025
-0.0031236,0.021569,0.11153,0.2879,0.019774,-0.011996,-0.0060454,-0.018972
-0.018581,-0.088916,-0.22918,-0.3874,-0.050066,-0.018554,0.0010652,-0.0034197
0.012252,-0.002641,0.12751,0.27288,0.051286,0.013158,0.00038432,-0.0039521
-0.03562,-0.022962,0.015126,-0.27774,-0.03543,-0.002916,-0.00017649,-0.012789
-0.0057668,-0.00015491,0.14511,0.039344,-0.020949,-0.035491,-0.031775,-0.0064085
0.00058808,0.043371,-0.025718,0.10743,0.016841,0.017171,0.022836,0.015373
0.030742,-0.04811,-0.66266,-0.018472,0.039095,0.022533,0.030847,0.021547
-0.0086479,0.06896,0.078735,0.028912,-0.0087318,0.0043444,-0.007807,-0.0032687
-0.00011421,-0.036138,0.012004,0.093088,0.00622,-0.0058515,-0.0073113,-0.012003
0.017353,0.080048,0.34759,-0.029581,-0.0098447,-2.0714e-05,-0.0068814,-0.004545
-0.0032994,0.047817,-0.21527,-0.081936,-0.010158,0.0063391,0.0089663,0.003486
-0.015611,-0.18255,0.37737,-0.088035,-0.03391,-0.01799,-0.022356,-0.011442
0.02671,0.089333,0.44012,0.10794,0.043789,0.020696,0.016333,0.028619
-0.025425,-0.013766,-0.31027,-0.1426,-0.019318,-0.026139,-0.015512,-0.009368
-0.016354,-0.047832,-0.04207,0.051067,-0.012317,-0.010184,-0.00055538,-0.0084449
0.053511,0.096386,-0.024715,0.27519,0.049181,0.029366,0.014503,0.015575
-0.042532,0.0059618,0.014391,-0.25891,-0.037911,-0.016991,-0.0092456,-0.031165
0.023818,-0.1215,-0.53002,0.12098,0.046774,0.038135,0.022036,0.03102
-0.028208,0.01403,-0.50744,-0.077061,-0.040451,-0.0084671,-0.0010346,-0.016519
-0.033832,-0.076106,0.0034149,-0.079492,-0.010451,-0.031849,-0.016059,-0.017347
0.023394,0.064597,0.76313,0.019922,-0.011583,-0.016397,0.00022361,0.0053213
0.027064,0.11849,0.2206,0.12729,0.026543,0.022294,0.0085398,0.012626
0.016831,0.024565,0.42451,0.070543,0.010239,0.021786,-0.0069287,0.012509
-0.02265,-0.084232,-0.27541,-0.12709,-0.0057756,-0.01003,0.00056357,-0.0028228
0.03355,0.025246,0.075427,0.057729,0.017554,-0.0027637,0.015361,0.013408
-0.010286,0.11635,-0.58042,-0.11709,-0.037006,-0.0032252,-0.032767,-0.017114
-0.021988,-0.14972,-0.44411,-0.041883,0.0023485,-0.0035585,0.0048057,-0.0086894
-0.0022982,-0.02581,0.46914,0.065085,0.026157,0.0040707,0.018963,0.0072136
-0.03004,-0.029886,0.62865,0.009018,-0.043785,-0.011587,-0.01345,-0.024238
0.034888,0.024122,-0.026022,0.10283,0.034649,0.019768,0.0093786,0.029737
0.067227,0.19056,-0.74804,-0.090809,0.042677,0.012173,0.0094854,0.028607
-0.097052,-0.24863,0.18121,0.076403,-0.050942,-0.034394,-0.020902,-0.066486
-0.012336,-0.018537,0.10832,0.057166,-0.019593,0.020675,0.0040588,0.01036
-0.014074,0.023334,-0.64136,-0.25068,0.0040024,-0.025748,-0.0017894,-0.0061955
0.070166,0.13659,0.43824,0.15224,0.019957,0.029471,0.031562,0.040329
0.022129,0.088179,0.52469,-0.015847,0.0049387,-0.0011508,-0.0055932,0.0094317
-0.04068,-0.13697,-0.17487,0.010402,0.0058888,-0.023854,0.0427,-0.01297
0.03026,0.046821,0.067762,-0.042511,-0.0084455,0.016041,-0.13626,0.0042198
-0.046465,-0.048932,0.12667,-0.065054,-0.022527,-0.0065003,0.027771,-0.025196
0.010043,0.035312,-0.23541,0.12273,0.0025365,-0.0056098,0.03485,-0.0077716
0.043077,-0.0065871,-0.36616,0.075828,0.050882,0.042053,0.033569,0.024951
-0.002496,0.019533,0.25395,-0.080567,-0.026195,-0.019874,0.016318,0.002433
-0.048889,-0.074398,-0.10466,-0.11983,-0.0023835,-0.027432,-0.024508,-0.01295
-0.018134,-0.006999,0.0095049,0.059482,-0.010682,0.011494,-0.018414,-0.0055858
0.027319,-0.050922,-0.036663,0.011806,-0.0042929,0.0031341,-0.0043105,0.0089948
-0.0060498,0.076307,0.10912,0.18993,0.009027,-0.0055961,0.017925,-0.00028505
-0.024152,-0.077095,-0.11451,-0.32053,-0.033035,0.0010246,-0.045359,-0.017584
0.059316,0.13843,0.25443,0.324,0.049505,0.023135,0.040284,0.019819
0.041541,0.12194,0.59929,-0.048235,0.0070066,-0.0016046,0.024888,0.026177
-0.053831,-0.18906,-0.98619,-0.25711,-0.027338,-0.03397,-0.044683,-0.02962
-0.031386,0.001727,0.26317,-0.0049553,-0.021928,-0.011322,-0.0044319,-0.0068591
0.038576,0.13083,-0.082837,0.060825,0.039142,0.043004,0.051784,0.016377
-0.015859,-0.13094,0.17075,0.16783,0.023248,0.027494,-0.0011745,0.0088504
-0.03069,-0.10481,-0.40581,-0.12064,-0.069536,-0.050048,-0.038449,-0.029443
0.0096413,0.14619,0.51581,0.11763,0.026367,-0.010001,-0.013286,-0.012581
0.026931,0.082976,-0.42347,-0.078543,0.0061027,0.0068976,0.011723,0.020342
-0.010179,-0.23934,0.30779,0.032253,-0.0056048,0.0083109,-0.0025355,0.0067645
0.038786,0.1097,0.19391,-0.043346,0.014317,0.017511,0.014218,0.016892
-0.029491,0.037222,-0.25754,0.13083,0.010762,0.0030835,0.0072659,-0.011934
-0.019908,-0.057548,0.046944,-0.25894,-0.024506,-0.011669,6.787e-06,-0.017416
0.051715,0.16963,0.16993,0.12237,0.01751,0.012237,0.0080139,0.031469
-0.064765,-0.18742,-0.44262,0.024292,-0.011896,-0.042393,-0.015635,-0.037371
0.013415,0.12878,0.34343,-0.14698,-0.0191,0.0042058,-0.00064867,0.00245
0.0050501,-0.0699,-0.25913,0.14011,0.019378,0.019362,-0.0094949,0.018019
0.011847,0.020425,-0.31086,0.096992,0.0099897,0.0032503,-0.0030175,0.0093267
0.018392,0.00057646,0.14282,-0.096076,-0.015686,0.010722,0.011122,0.0077189
0.0014929,0.01847,0.47724,0.053625,0.0052503,-0.0049833,0.009669,-0.01786
-0.038608,-0.1136,0.33193,-0.11751,-0.020551,-0.012583,-0.015009,-0.028074
-0.007965,0.02637,-0.092452,0.055002,0.016621,0.0034947,-0.0002772,0.00082608
0.015414,0.024682,-0.3148,0.0090272,0.015418,-0.0037593,-0.00076585,0.022265
-0.0075259,-0.01664,-0.25238,0.0027596,-0.00066683,0.012342,0.0069251,-0.0025947
