-0.017393,-0.12997,-0.40261,-0.070412,-0.014072,-0.035792,-0.03609,-0.027294
-0.002463,-0.015237,0.12526,0.025558,0.024739,0.025455,0.041497,0.0035309
0.012328,0.014002,0.045415,0.062501,0.0020525,0.18665,0.035176,0.049291
-0.0042035,0.068666,0.20443,0.1114,0.034958,-0.12359,-0.33715,-0.061927
0.026153,0.056244,0.42324,0.1331,0.021542,-0.038842,0.28417,0.029307
-0.02151,-0.01478,-0.65159,-0.43579,-0.038719,0.034408,-0.099504,-0.0049663
-0.014291,0.066497,0.81962,0.16101,-0.037009,-0.43469,-0.4156,-0.070732
0.008819,-0.060013,-0.69987,-0.0080866,-0.028477,0.36738,0.42445,0.051092
-0.014635,-0.13772,0.002884,0.094011,0.049127,0.12948,0.17307,0.032719
0.016916,0.050624,-0.038036,-0.018763,0.00051161,-0.13911,-0.12898,-0.024005
0.033126,0.081704,-0.029028,0.035317,0.0056458,0.070665,0.10493,0.029532
-0.012946,0.063729,0.091288,0.068523,-0.0052952,0.0017977,-0.047461,-0.0097529
-0.0041883,-0.058657,0.0036038,-0.12148,-0.00046566,0.013962,-0.056023,-0.024753
-0.034418,-0.10585,-0.055003,-0.15011,-0.049586,-0.10392,-0.086282,-1.7192e-05
-0.0099236,-0.022687,0.12234,-0.1242,0.035323,0.077391,0.079205,0.0017368
0.030224,0.0042441,0.18816,0.27159,0.043609,-0.08328,-0.18536,0.0037285
9.167e-05,0.069796,-0.11149,0.016419,0.030002,-0.0083383,0.018329,-0.0020362
0.0012317,0.06563,-0.0077668,0.033958,-0.052561,0.043993,0.089188,0.015569
0.010158,0.031555,-0.099812,-0.011185,-0.032581,0.049993,0.098378,-0.013826
-0.012289,-0.024283,0.11394,0.059825,0.026957,-0.037418,0.14838,-0.0042757
0.0040601,-0.078522,-0.60018,-0.21609,-0.038532,-0.038749,-0.2601,0.013031
0.0278,0.095022,0.45302,0.25179,0.012637,-0.0089483,0.092024,0.014753
-0.019331,-0.10574,0.37411,-0.055591,0.062833,0.12974,0.0093104,-0.014629
-0.043661,-0.079755,-0.29965,-0.21173,-0.052374,-0.021615,-0.071308,-0.035966
0.0016854,0.078785,-0.086415,-0.023769,-0.012949,-0.1276,-0.11171,-0.0023551
0.023039,0.025811,0.17493,0.16321,0.079376,0.045634,0.035296,0.023645
0.012734,0.018879,-0.10457,0.20069,-0.04105,-0.025714,0.11049,0.0028078
0.017833,0.0030641,-0.02918,-0.38672,-0.069394,0.13479,0.26085,0.044244
-0.0083319,0.024998,-0.077443,-0.018711,0.072828,-0.0039215,-0.093043,0.038264
0.0047693,0.029779,0.14021,0.3935,0.050261,-0.11316,-0.26458,-0.070115
-0.012951,-0.0452,-0.063751,-0.11572,-0.026935,-0.0045459,0.05067,-0.023265
-0.030012,-0.10609,0.038162,-0.059033,-0.056273,-0.098843,-0.24059,-0.063385
0.00068088,0.074073,-0.075823,-0.051249,-0.091501,0.066042,0.28469,0.11439
0.0089869,0.003782,0.049536,-0.24713,0.016599,0.17078,0.065665,-0.098985
-0.012832,-0.050403,-0.14602,0.0020657,0.018463,-0.14341,0.049514,0.070304
0.044528,0.12349,0.47237,0.50008,0.18746,0.053258,-0.097942,0.013209
0.0011294,-0.043887,-0.28896,-0.0052259,0.0073194,0.096294,-0.031541,0.0033458
0.028439,-0.098718,0.039834,0.0066163,-0.046513,-0.038557,-0.062866,0.009455
-0.069373,-0.056351,-0.43923,-0.28792,-0.084811,-0.071045,0.042827,-0.078021
0.019665,0.15329,0.28151,-0.032217,-0.030821,-0.10368,0.043201,0.037514
0.029494,0.091948,0.28725,0.084554,0.0441,0.097216,0.21111,0.13704
-0.032326,0.016311,-0.11072,-0.047155,-0.063683,-0.085924,-0.40743,-0.1077
-0.017367,-0.067108,-0.015449,-0.027539,0.028738,0.034336,0.069391,-0.13414
0.012104,-0.11261,0.024692,0.0053671,0.0016793,0.15344,0.46876,0.081469
-0.029425,-0.089737,-0.054009,-0.15617,0.012361,-0.048746,-0.54604,-0.038501
0.030449,0.071544,-0.26006,0.12371,-0.0084638,-0.12677,0.14168,0.10029
0.051623,0.082422,0.11738,0.42536,0.12764,0.12252,0.0082175,0.045233
-0.020178,-0.017412,-0.015018,-0.32063,-0.047463,0.027194,0.13165,-0.031435
-0.01284,0.030629,0.12469,0.23678,-0.049122,-0.069039,-0.18328,-0.05931
-0.020082,-0.030599,0.18562,-0.068229,-0.064927,-0.041132,0.071285,0.00049529
-0.010814,-0.013231,-0.097401,-0.45687,0.029786,0.064275,0.12188,-0.016504
-0.00097552,0.01238,-0.15399,0.11513,0.047046,-0.08831,-0.070655,-0.024977
0.048087,0.045792,0.054712,0.21587,0.025431,0.0095338,-0.10021,0.083731
-0.0046878,-0.054349,0.051755,0.00010375,-0.035464,0.092849,0.34566,0.058873
-0.003439,0.086134,-0.1007,0.029755,-0.010892,-0.025286,-0.35792,-0.06897
-0.034377,-0.10376,-0.059053,-0.12461,-0.033743,-0.032029,0.00036637,-0.0034238
0.04302,0.10219,0.23152,0.17075,0.013258,0.017932,-0.1024,-0.072854
-0.060225,-0.14744,-0.064476,-0.20784,0.013126,-0.039845,0.029668,0.035291
0.0077095,0.015203,-0.19639,-0.39961,-0.010462,0.082985,0.27973,0.0010219
0.020636,0.0052321,0.11776,0.69029,0.10676,-0.0051447,-0.00066181,0.027979
0.010212,0.011406,0.011485,-0.0078513,-0.049158,0.093218,0.00051321,-0.0082456
0.00022795,0.050533,-0.038194,-0.087756,-0.0016572,-0.16964,0.032431,0.0022713
-0.0012758,0.045345,0.1642,0.1142,-0.086804,-0.067676,-0.35116,0.013077
0.0057708,-0.027229,-0.022082,-0.31666,-0.07828,0.023981,0.099008,0.032244
0.013478,0.020151,0.0041642,0.0020441,0.09387,0.027475,0.21857,-0.033857
-0.0095799,-0.016235,-0.30435,-0.039088,0.062007,0.11524,-0.14842,0.010131
-0.0011047,0.019021,0.24738,-0.017741,0.067827,0.061441,-0.016709,0.0080002
-0.023754,-0.11713,-0.067336,0.019977,0.001529,-0.14881,-0.041278,-0.10265
-0.022902,-0.011336,0.0015883,0.22331,-0.035518,0.016407,0.099607,0.037713
0.017117,0.039113,0.20439,0.11628,-0.011849,0.04205,0.047812,0.023017
0.02611,0.065332,-0.34152,0.011533,-0.09079,-0.063632,-0.047437,0.017427
0.004213,0.020543,-0.1048,-0.31775,-0.17735,-0.034712,-0.17038,-0.033816
-0.032863,-0.055975,0.52369,0.0341,0.16751,0.0352,0.21745,0.048667
0.0086144,-0.015552,-0.19103,-0.074248,0.031265,0.09137,0.060182,0.029958
0.042557,0.0013465,-0.10928,0.01275,0.024369,-0.053939,-0.07348,0.049978
0.0061958,0.072896,0.080301,0.31009,0.0534,0.020735,-0.11486,-0.15761
-0.046119,-0.011904,0.040658,-0.28434,0.00056159,-0.02107,0.23158,0.13319
0.010275,-0.018812,0.036624,0.17428,0.11438,0.015406,-0.25357,-0.15599
-0.0045702,-0.041736,-0.24458,0.052735,-0.14627,-0.050004,0.093873,0.029639
-0.028283,-0.010489,0.056722,-0.29773,-0.080422,0.0011104,-0.19391,-0.0047666
0.025106,-0.034514,-0.12895,0.20089,0.044473,0.035776,0.095509,0.06179
0.022963,0.081487,0.23073,-0.029425,-0.030477,-0.01632,0.16694,0.058181
-0.026607,0.017215,-0.0037886,0.019553,-0.016343,0.016807,-0.040697,-0.030588
0.0095556,-0.031992,0.051068,0.067265,0.017362,-0.028768,-0.04219,-0.040062
0.0067975,0.035463,0.0049947,-0.35411,-0.029403,-0.04358,-0.0015948,-0.040461
0.012295,0.0087155,0.076658,0.444,0.18902,0.097356,0.12717,0.069582
-0.012792,-0.041763,-0.10143,-0.14673,-0.052034,0.050162,0.022432,0.00059563
-0.013651,0.0093069,-0.16232,-0.141,-0.086971,-0.11505,-0.26271,-0.029183
-0.029324,-0.11892,-0.12942,0.11801,-0.055526,0.10933,0.17663,0.034448
0.0573,0.089653,0.31799,0.013237,-0.0044762,-0.089277,0.050582,0.089582
-0.019572,0.018296,-0.14746,-0.14322,0.057648,-0.07794,-0.37525,-0.23109
-0.010176,0.0032564,0.13138,0.085206,0.16069,0.073378,0.17332,0.033477
0.038338,0.036789,-0.047778,0.2831,0.0059376,0.0058592,0.1742,-0.022658
-0.022735,-0.037572,-0.028132,-0.22299,-0.13507,0.032672,-0.0038265,0.17901
-0.006109,0.060951,0.12012,-0.012729,-0.029522,-0.0017769,-0.14051,-0.056506
-0.0056509,-0.074518,-0.17368,-0.048235,0.0092253,-0.026658,0.14022,0.060092
0.0020812,0.00068265,0.0506,-0.0098422,-0.065684,-0.033883,0.018534,0.075769
-0.014036,-0.0030394,-0.036303,-0.19443,-0.034607,0.039033,-0.20108,-0.26727
0.032154,0.031189,0.048637,0.2814,0.08836,0.035528,0.12905,0.085665
-0.030959,-0.06075,0.15557,0.067071,-0.030928,0.0019284,-0.0079163,-0.052859
0.0078046,0.01038,-0.20118,-0.00033103,0.16384,-0.0077717,0.011654,0.075052
0.0079865,0.010527,-0.053959,-0.021246,-0.076255,-0.080225,-0.079204,-0.030574
0.024319,0.072872,0.13558,-0.24475,-0.04772,0.04957,0.24188,0.028565
-0.044847,-0.067896,-0.10161,-0.1546,0.030296,-0.04852,-0.38511,0.048952
0.050287,0.057166,0.14869,0.51513,0.11776,0.062778,0.32876,0.0064861
0.020389,0.01843,0.0042524,-0.032439,-0.1303,0.063135,-0.10835,0.040931
-0.095749,-0.12946,-0.1589,-0.19596,-0.058828,-0.14104,-0.2973,-0.1533
0.037598,0.074341,0.074646,0.18053,0.10483,0.036452,0.35653,0.087116
-0.0015553,0.012572,-0.074783,-0.11404,-0.163,0.025636,-0.13828,-0.097561
0.013361,-0.0022955,0.12104,-0.39206,0.012983,0.053397,0.26563,0.089664
-0.011294,-0.056161,-0.031609,0.29214,0.078853,-0.020592,-0.19726,-0.014615
0.002783,0.03074,-0.023637,0.009407,0.058989,-0.05545,0.019669,0.0047982
0.024545,0.00067222,-0.02607,0.22116,0.079279,0.042793,-0.1388,0.063425
-0.031752,-0.0057113,-0.069893,-0.15051,-0.09403,-0.045976,0.045495,-0.16529
0.037175,0.09747,0.27421,0.050535,-0.023182,0.014359,0.095559,0.023202
-0.010744,-0.05712,-0.11976,0.003467,-0.067664,-0.0026197,0.12843,0.067439
-0.026993,-0.071269,-0.16738,-0.24558,0.061187,-0.026504,-0.23061,0.022546
0.011911,0.046958,0.098252,0.2635,0.073743,0.15366,0.23788,0.067943
-0.011202,0.023884,0.042356,-0.11848,-0.054037,-0.11845,-0.39471,-0.07077
-0.0026052,-0.078173,-0.016589,-0.056168,0.0054412,0.024224,0.24788,0.15177
0.0063763,0.045363,-0.064406,0.051604,-0.060706,-0.051347,-0.20043,-0.33659
0.0156,0.066334,0.25743,0.18899,-0.018322,-0.0094581,0.13606,0.056048
0.024853,-0.038654,-0.051179,-0.35509,0.030948,0.063694,0.1323,0.17181
-0.044252,-0.074178,-0.42702,0.17707,0.063653,-0.050924,-0.072039,-0.06078
0.011135,0.053689,0.17821,0.1525,-0.037414,0.044825,0.13073,0.068654
0.034534,0.071747,0.14922,-0.092981,0.0089397,0.030325,0.011921,0.013384
-0.021055,-0.10565,-0.1448,0.042143,0.062009,-0.016563,0.03041,-0.046034
-0.061861,-0.017229,0.0009968,-0.30135,-0.057919,-0.072562,-0.49489,-0.13932
0.037307,0.095184,0.25953,0.34578,0.078985,0.11234,0.21693,-0.03006
0.042413,-0.018048,-0.064285,-0.09374,-0.081556,-0.055357,0.1199,0.17463
-0.03829,-0.0050241,-0.025676,-0.064013,-0.10133,-0.09862,-0.12771,-0.030877
-0.00902,-0.04515,-0.05543,-0.040155,-0.026236,0.053536,-0.0076143,-0.012054
0.021264,0.0102,-0.014207,0.065235,0.082251,0.050308,0.15482,0.060237
-0.0018356,0.0048287,-0.082795,-0.13726,0.076571,0.025214,0.010277,-0.024818
0.015536,-0.0066983,-0.01966,0.29053,0.035309,-0.036865,0.083403,0.021066
-0.012665,0.029974,0.034482,-0.2452,-0.072916,-0.018562,-0.18836,-0.12398
-0.032066,-0.010696,0.13472,0.10624,0.0089354,-0.029466,-0.095435,0.030116
0.027159,0.026822,-0.18699,0.14793,0.045177,0.00011579,0.10976,0.020022
0.0081635,-0.030155,0.19511,-0.059727,-0.098637,0.12392,0.1976,0.17931
0.0040741,0.036344,0.055059,-0.058023,0.12271,-0.06546,-0.13972,-0.16596
0.0065236,-0.024292,-0.16152,-0.16924,-0.065596,0.01678,0.079561,-0.095377
-0.023942,-0.0092573,-0.0093779,-0.011975,-0.039411,0.04942,0.088303,0.10124
0.029713,0.0033748,-0.012326,0.2256,-0.0098588,-0.077368,-0.47295,0.0021132
-0.035505,-0.087525,0.039939,-0.16738,-0.062394,-0.082203,0.25663,0.14721
-0.031689,0.070355,0.013823,-0.034039,0.085255,-0.042486,-0.30621,-0.26658
0.041782,0.040445,-0.021186,0.28292,0.067237,0.10547,0.26381,0.044086
-0.025302,-0.020057,0.16853,-0.1684,-0.044753,-0.0041032,0.25127,0.10491
0.033383,-0.016604,-0.2301,0.20698,0.047354,0.075436,-0.11471,-0.003807
0.015254,0.035694,-0.014239,-0.19906,-0.10092,-0.0064755,0.06556,0.0010036
-0.024716,-0.027056,0.06615,-0.26036,0.042093,-0.030601,-0.28631,-0.066967
0.022833,-0.0019102,0.17554,0.36791,0.031071,0.018608,0.2421,0.073974
-0.029898,0.0012803,-0.16189,-0.32895,-0.040555,-0.093787,-0.1409,-0.053085
0.035327,0.044351,-0.062342,0.33724,0.10796,0.068812,0.22574,0.058594
-0.039927,-0.060925,0.045631,-0.12542,-0.15676,0.020983,-0.12171,-0.069191
0.0093599,0.012912,-0.0087189,0.0094591,0.04765,-0.12109,-0.29462,-0.024344
0.034267,0.030987,0.18183,0.18662,0.041174,0.12616,0.29208,0.19112
-0.059229,-0.085095,-0.26486,-0.18858,-0.090389,0.043459,-0.14251,-0.15896
0.033533,0.047451,0.026465,-0.054677,-0.011126,-0.11937,0.082745,0.056981
-0.038795,0.014752,0.19625,-0.29547,0.021165,-0.096566,-0.10031,-0.10692
0.060129,0.043716,0.0095302,0.58041,0.20959,0.16691,0.14663,0.13864
-0.036373,-0.060537,-0.026803,-0.16977,-0.11003,0.0075091,0.044445,-0.13501
0.00034891,0.014944,-0.25757,-0.038473,-0.0081251,-0.011753,-0.092901,0.011223
0.022299,-0.010673,0.18334,-0.033499,-0.031703,-0.015418,0.086768,0.071398
0.014146,0.042639,-0.10346,-0.01397,-0.063571,-0.0344,-0.15121,-0.069847
-0.024003,-0.059262,0.12342,-0.010722,-0.0098136,0.017441,0.082754,0.1358
-0.014114,0.011857,-0.035,-0.054541,0.0048754,-0.023873,-0.0019696,-0.084319
-0.011142,0.013776,0.053713,0.073683,0.051169,0.060403,0.030376,-0.003635
0.015767,0.0010125,-0.048081,0.030315,0.04342,-0.065718,-0.079637,-0.013535
0.042702,0.020144,0.011288,0.0417,0.020812,0.043022,-0.059771,0.12681
-0.024562,-0.015161,0.12285,0.029162,0.0066921,0.0037941,0.24565,-0.13114
0.0010678,-0.0037762,-0.22828,-0.094009,-0.046076,0.066656,-0.046035,0.14065
-0.029115,-0.016439,0.05268,-0.031752,-0.012826,-0.096372,-0.23085,-0.23097
0.03324,0.032442,-0.025248,0.090301,0.02022,-0.031947,0.14573,0.19083
-0.046125,-0.029228,-0.031156,-0.11873,-0.13459,-0.013278,-0.12558,-0.172
0.014332,0.017243,0.051555,0.0054352,0.022775,-0.0089722,-0.082257,0.0251
0.02752,0.015717,0.26247,0.14323,0.1487,0.10591,0.26115,0.080317
-0.013924,-0.056987,-0.22661,-0.047972,-0.0066399,-0.020562,0.022148,0.026461
0.0075866,0.041684,0.044581,-0.01991,-0.029027,0.048458,-0.010753,-0.02562
-0.017048,-0.015998,-0.11258,-0.18528,-0.019987,-0.039499,0.012689,-0.067021
0.021657,-0.0031017,0.073946,0.042968,-0.04209,0.05054,0.098543,0.10591
0.006448,0.0025123,0.0012234,0.32171,0.10764,-0.088488,-0.33303,0.10241
-0.008205,0.016595,0.074369,-0.15374,-0.055345,-0.027353,0.021404,-0.21885
0.0086377,0.05475,-0.051064,0.045657,-0.046845,-0.0082061,0.13793,0.00032367
-0.044921,-0.05503,-0.10179,-0.20627,-0.10917,-0.022697,-0.12371,0.024142
0.026141,-0.0082392,0.047573,0.17496,0.18727,0.078552,0.13593,0.14025
0.0028826,0.007463,-0.031815,0.016036,0.022111,0.0076273,-0.14424,-0.12913
0.01024,-0.039251,0.11428,-0.082629,-0.049995,-0.015587,0.091754,0.12143
-0.014219,0.031328,-0.052027,-0.098246,0.01003,0.056698,0.212,-0.10057
-0.015633,-0.038507,-0.0062586,0.023831,-0.032079,-0.024953,-0.18953,-0.07612
0.021867,0.017,0.057033,0.19039,0.034873,-0.057253,0.019533,0.14871
-0.0030168,0.057318,-0.057048,0.04306,-0.062122,-0.0013506,-0.060245,-0.15146
0.034947,0.05902,0.089084,-0.34658,0.021261,0.071936,0.17145,0.15758
-0.067208,-0.11081,-0.161,0.20245,-0.026855,-0.080269,-0.27872,-0.21192
0.026513,0.0164,0.10644,0.0037969,-0.0028107,0.041278,0.151,0.19422
0.011364,-0.043976,-0.054334,0.066003,-0.023522,-0.0094543,0.10897,0.0093552
-0.019064,0.020315,-0.010931,-0.15756,0.059327,0.01694,-0.12292,-0.00083997
0.044367,0.044983,-0.021574,0.21559,0.16705,-0.012757,-0.019863,-0.024302
-0.025165,-0.017032,0.12428,-0.16691,-0.10756,-0.020603,-0.033158,-0.04614
0.0064869,0.021651,0.012216,-0.0094006,-0.031278,0.024712,-0.098319,0.0031433
-0.0092479,-0.003065,-0.11591,-0.00077646,-0.081751,0.037531,0.1067,-0.0099338
-0.025491,-0.028602,0.028742,0.029468,0.0058604,-0.051989,0.20802,0.0080166
0.028226,0.015566,0.063263,0.15834,0.09066,-0.0010676,-0.067546,0.033573
-0.027504,-0.01865,-0.11382,-0.075744,-0.030166,-0.05907,-0.12694,-0.089152
0.026419,0.025461,0.099321,0.030306,-0.019851,0.13397,0.2237,0.13261
-0.012799,-0.046911,-0.093783,-0.24942,-0.056916,-0.069962,-0.13473,-0.081785
0.0035072,0.014694,0.072952,-0.023067,0.016125,-0.014384,-0.21202,-0.052211
0.0050772,-0.015987,-0.02508,0.24222,0.090909,0.050647,0.1073,0.033892
-0.0082517,0.025158,-0.020489,-0.10823,-0.066407,-0.062689,0.025183,0.058901
0.017843,0.059751,-0.014929,-0.10451,0.044082,0.0435,-0.029283,-0.032818
0.020353,-0.029941,0.084912,0.22254,0.031027,0.0091525,0.076666,0.093319
0.029984,0.060021,0.075146,0.1537,0.088546,0.044491,0.085577,0.084231
-0.086541,-0.13992,-0.23272,-0.27327,-0.14412,-0.11673,0.013698,-0.17083
0.014264,0.096112,0.21496,0.13519,-0.011922,0.064142,-0.20852,-0.086813
-0.01916,-0.091688,-0.16086,-0.01331,0.0078461,-0.022412,0.044737,0.0079708
0.00096771,0.038802,0.12365,-0.12626,0.0011057,-0.040299,0.14144,0.020401
0.028275,0.019137,-0.0644,0.10069,0.038894,0.081198,-0.19897,0.084632
0.0086919,-0.032882,-0.10734,-0.1911,-0.18996,-0.032352,0.031833,-0.039716
-0.0024865,0.03199,0.13647,-0.24215,0.0036616,-0.044385,0.045059,0.00087083
0.0030379,0.01929,-0.050291,0.49669,0.2854,0.0613,0.22352,0.020658
0.0021172,-0.031158,0.013734,-0.019149,-0.046729,0.042964,-0.12832,0.083463
0.010446,0.084331,0.12709,0.040338,-0.015642,-0.02099,-0.12803,-0.052181
0.012274,-0.079256,-0.14624,-0.15975,-0.0043335,-0.052327,0.052099,-0.05024
-0.062983,-0.060972,0.030755,0.11504,-0.029187,-0.012018,-0.025715,-0.028361
0.034334,0.060781,0.010181,0.012295,-0.028802,-0.001773,0.0055912,0.067254
-0.032077,-0.042654,-0.31745,-0.24296,-0.12936,-0.0062014,-0.025814,-0.0067502
0.010878,0.096736,0.49234,0.003581,0.043096,0.075944,0.10678,-0.095439
0.030074,0.017141,-0.14003,0.117,0.1909,0.0098995,0.036325,0.05765
-0.013836,-0.094833,-0.044679,0.10308,-0.077065,-0.071975,-0.15118,-0.033154
0.011704,0.0022142,0.11992,-0.086886,-0.10484,-0.021729,-0.049587,0.14662
0.012724,0.049919,-0.10924,0.053453,0.021529,0.0039155,0.1846,0.025721
-0.018748,0.032454,0.07873,-0.070657,0.098878,0.12956,0.082252,-0.21673
-0.02027,-0.081225,-0.30133,0.032554,0.017848,-0.074726,-0.27887,0.059765
0.0082306,-0.040514,0.13353,-0.11321,-0.065221,-0.0074227,0.17131,0.09002
0.035736,0.053947,0.063972,0.17273,0.09208,0.027018,0.11248,-0.015569
-0.0233,0.00012245,0.04631,0.087391,-0.072306,-0.1037,-0.32998,-0.091385
-0.019927,0.025649,-0.034762,-0.20284,-0.088905,0.015215,0.15713,0.059835
-0.016061,-0.01704,0.041292,-0.10931,0.019836,0.033081,-0.026796,-0.036363
0.035731,0.036644,-0.052271,0.21457,0.02851,0.075733,0.08798,0.036051
-0.012549,-0.047578,-0.088101,-0.17399,-0.014887,-0.067121,-0.19306,-0.057359
-0.0044195,0.019031,0.23864,-0.054407,-0.023567,-0.027963,0.14607,0.027891
0.036642,0.017045,-0.0099485,0.28501,0.14345,0.075962,0.073943,0.010299
-0.014681,-0.023179,-0.19401,-0.023455,-0.037519,0.041102,0.18355,0.044804
0.012931,0.03022,0.037105,-0.059733,0.010763,-0.047308,-0.35439,0.011956
-0.029651,-0.05017,-0.10648,0.056212,-0.041168,-0.10417,0.10727,-0.052104
0.020928,0.016279,0.1637,-0.092948,-0.015176,0.049383,-0.049807,0.083875
0.015646,-0.028567,0.042659,0.005277,-0.029909,0.045519,0.0017817,0.17492
-0.06929,0.0106,-0.071223,0.020354,0.054176,-0.0146,0.050891,-0.40589
0.023871,0.048107,-0.029364,-0.02552,0.002191,-0.013889,-0.13654,0.036077
0.006305,-0.017155,0.043465,-0.03847,-0.060733,0.0087638,0.15113,0.095316
0.026926,0.010664,-0.10253,0.068811,0.0067308,-0.00093836,0.024117,0.016031
-0.03865,-0.055409,0.14212,-0.34208,-0.083397,-0.011223,-0.032387,-0.06606
0.013332,0.027254,-0.089856,0.22353,0.13882,0.0097093,-0.033452,0.039767
0.011517,0.016769,0.19349,0.18957,0.0025239,0.0076492,0.13051,0.047367
0.018722,0.046097,-0.28167,-0.16943,-0.022945,-0.024896,-0.21252,-0.009947
-0.011863,-0.072259,0.10143,0.3495,-0.023452,0.021562,0.10103,0.087435
-0.025737,0.0053485,0.15493,-0.1925,0.094333,-0.009335,-0.14048,-0.10624
0.0314,0.028755,-0.24634,-0.00062637,0.040608,0.030564,0.21059,0.079341
0.01061,-0.010031,0.17117,-0.053589,-0.10729,0.023682,0.036287,0.024727
-0.033935,-0.033046,-0.045273,-0.11852,-0.053044,-0.038179,-0.077962,-0.053772
-0.0089169,-0.016986,-0.01218,0.12459,0.031363,-0.014666,-0.046347,-0.033209
0.0072624,0.077103,-0.11152,-0.16691,-0.04898,-0.015233,0.10027,-0.086688
0.014519,-0.016501,0.1107,0.040605,-0.043257,-0.016302,-0.2309,0.051232
-0.018295,-0.0088276,-0.016674,-0.1014,-0.012986,-0.017552,0.024018,-0.071744
0.010635,0.021915,0.092715,-0.035275,0.15203,0.098612,0.21041,0.09282
0.0078951,-0.049335,-0.037692,0.40506,0.11625,-0.058062,-0.1546,-0.046971
-0.010533,-0.011668,-0.041128,-0.014282,-0.042441,0.020463,0.078486,0.05741
0.010354,0.041189,-0.051188,0.0022761,-0.12173,0.013881,-0.097809,0.086702
0.00047384,-0.023511,0.071745,-0.13408,-0.060348,0.0079044,0.24566,0.072375
-0.00098371,0.028709,0.014108,0.072833,0.085682,-0.013502,-0.20496,-0.18149
-0.0018013,-0.028586,-0.029721,-0.13092,0.065223,-0.027398,0.095276,-0.012058
0.021412,0.039123,0.064599,-0.037555,-0.04427,0.028235,0.15988,0.14949
-0.04081,-0.010185,-0.17977,0.015256,-0.12567,-0.065718,-0.30209,-0.13571
-0.0088886,-0.027871,0.10452,-0.12092,-0.014378,0.026498,0.012835,-0.071736
0.01551,0.0097448,0.019578,0.15713,0.11872,0.03928,-0.012849,0.075485
0.016667,0.017012,-0.066574,-0.038382,-0.076749,-0.019344,0.012099,-0.037472
0.010127,-0.0057665,0.13613,-0.11034,0.087799,0.030685,0.12813,0.019907
0.0036314,-0.034875,0.019344,0.28818,0.058427,-0.013274,-0.037904,0.12371
-0.010696,0.023615,-0.15042,0.034573,-0.0083298,0.044637,0.11746,-0.076555
-0.048533,-0.049046,-0.075635,-0.1902,-0.057948,-0.13877,-0.38855,-0.025372
0.022889,0.051576,0.14247,0.074896,-0.028401,0.022944,0.24976,0.0042471
0.023842,0.020249,-0.027455,-0.038154,0.025051,0.084866,0.23585,0.0044811
-0.006654,-0.0032183,0.046908,0.016171,-0.046486,-0.015307,-0.14161,0.06869
0.017285,0.0036087,-0.0025239,0.056774,0.061482,0.034877,-0.0085132,0.039993
-0.021583,0.0084537,-0.028459,-0.10491,-0.12749,-0.10083,-0.28791,-0.17605
0.025138,0.033901,0.022586,-0.26623,0.090121,0.077018,0.22996,0.068426
0.0011909,-0.022097,0.15739,0.39324,0.066372,0.013011,-0.088724,-0.0081692
-0.077755,-0.1517,-0.40596,-0.14157,-0.1514,-0.090516,0.013109,-0.10902
0.0071541,0.012841,0.1371,-0.21373,0.054264,0.015699,0.081872,0.12544
0.092,0.13663,0.24011,0.48188,0.238,0.20609,0.1642,0.10176
-0.0027433,-0.005573,-0.26793,-0.10162,-0.17082,-0.21496,-0.27123,-0.11723
-0.073803,-0.084316,0.059438,-0.207,0.0069478,-0.0052341,0.064706,0.0077998
0.027364,0.0734,0.12968,0.25067,-0.04962,0.015297,0.031602,0.023861
0.0039291,-0.02391,-0.11863,-0.2455,-0.14575,0.011308,-0.042077,0.048177
-0.011311,0.022381,0.10432,-0.048215,0.1322,0.06168,0.039452,-0.10679
0.020627,0.024461,0.025519,0.1698,0.096514,-0.0047068,0.011129,-0.042659
0.0058683,-0.026189,-0.16748,-0.029278,-0.034205,-0.046606,0.014179,0.13112
-0.0088583,-0.0054798,0.11107,-0.13747,-0.064715,-0.024576,-0.10709,-0.062072
-0.0002535,-0.015886,-0.02983,0.11925,0.020552,0.069284,0.030547,-0.0051218
-0.015291,-0.026883,-0.020309,-0.12547,0.010632,-0.030845,-0.018013,0.028426
0.0084884,0.015793,0.0063097,0.2699,0.077452,0.041811,0.075277,0.014986
