0.10005,0.1172,-0.060115,-0.024185,-0.0030625,-0.015729,0.14688,1.4304e-05
0.029736,0.054261,0.023388,0.021164,0.012751,0.1022,0.31853,0.080007
0.030475,0.01248,0.012274,0.012001,-0.0023546,-0.021416,-0.21114,0.12558
-0.046693,0.10097,0.024254,-0.0045037,-0.0094567,-0.058742,0.0084265,-0.21542
0.078769,-0.18009,-0.018224,0.010897,0.022509,0.028888,0.1229,0.025054
0.023365,0.20906,0.018156,0.0035574,-0.00039657,0.045755,0.3254,0.49479
-0.3149,-0.45693,-0.014693,-0.018814,-0.031438,-0.11001,-0.62715,-0.47061
0.0796,0.1438,0.0005526,0.0060689,0.0074514,0.0067822,-0.022886,0.19947
0.14487,0.16912,0.040369,0.0076189,0.0069427,0.021189,-0.14027,-0.18117
0.14748,0.073469,-0.051774,-0.022252,-0.017204,-0.027515,-0.17829,-0.22735
-0.22381,-0.17375,-0.010666,0.0099805,0.013327,0.14219,0.76596,0.22051
0.024481,0.17727,0.014781,-0.005201,-0.0028363,-0.14136,-0.38198,0.041318
0.073174,0.031734,0.039735,0.010282,0.0047538,0.0047815,0.2859,0.20765
-0.18644,-0.14333,-0.045543,-0.013839,-0.0029265,0.04934,-0.16865,-0.4181
0.089408,-0.053113,0.016541,0.0084844,0.020926,0.14067,0.35267,0.15003
0.001463,0.058227,-0.00061061,-0.00071886,-0.017599,-0.21344,-0.72556,-0.1664
0.12624,0.032906,0.012541,0.021224,0.037552,0.21368,1.0205,0.86469
0.039598,-0.051768,-0.0061586,0.019799,0.006532,-0.16348,-0.30488,-0.82327
0.07494,0.038602,-0.017166,-0.036076,-0.063839,-0.12541,-0.77533,0.29581
-0.22319,-0.18736,-0.03556,-0.052503,-0.040652,0.024155,-0.38364,-0.017869
-0.028261,0.24053,0.025113,0.017513,0.029453,0.19246,0.52859,0.12942
-0.028215,-0.090007,0.032431,0.041232,0.045242,-0.033855,1.0282,-0.21085
0.21535,0.14317,0.010014,0.018658,0.007034,-0.060943,-0.69181,-0.43842
-0.30322,-0.097374,0.0046745,0.004398,-0.02246,-0.19421,-0.048053,0.33019
-0.026228,-0.060461,-0.015142,-0.025134,-0.011968,0.26783,-0.067869,-0.37946
0.18247,-0.05797,-0.026484,-0.01545,0.022674,0.025934,-0.83562,0.70896
0.13837,0.1132,-0.0064968,-0.0058229,0.018543,0.19449,0.8193,0.14518
0.023234,0.014886,0.01299,-0.0042581,-0.017128,-0.0025975,0.68196,-0.2326
-0.17769,-0.1276,0.054931,0.035961,0.024409,-0.27041,0.22285,0.21769
0.25388,0.19968,-0.029435,-0.010286,-0.044916,-0.38317,-0.68189,-0.33917
-0.35554,-0.10674,-0.068366,-0.041534,-0.069257,-0.12933,-0.57694,-0.52001
0.20257,0.091902,0.031945,0.051516,0.091834,0.68828,0.76926,0.68314
-0.2856,0.028486,-0.0017355,-0.0046402,0.0087466,-0.013589,-0.33751,-0.50303
0.2161,-0.27447,0.02619,-0.0069202,-0.021331,-0.052288,-0.79827,0.17918
0.0018541,0.042205,0.022272,0.029051,0.041168,0.1687,0.34861,0.18229
-0.063309,-0.0053174,-0.044479,-0.068527,-0.099994,-0.69213,0.11311,-0.041859
0.2926,0.20907,0.052707,0.036456,0.071513,0.44495,0.44198,0.067342
-0.18875,-0.0084879,-0.021938,-0.0072738,-0.013918,0.17466,0.30267,0.046868
0.016725,-0.00020222,-0.010428,0.019424,0.027175,-0.20561,0.43971,0.73117
-0.026623,-0.14747,0.0015256,-0.015797,-0.015607,0.085537,-0.53965,-0.46566
-0.15949,0.0039699,-0.071707,-0.042143,-0.071564,-0.4832,-1.1492,-1.0569
0.27832,0.23615,0.13744,0.1127,0.16419,0.61918,0.91519,0.77471
-0.42762,-0.34117,-0.12063,-0.10564,-0.1521,-0.14683,0.15206,-0.87807
-0.13273,-0.024849,0.013792,0.021735,0.01058,-0.11017,-0.15802,-0.015854
0.47833,0.36445,0.040871,0.033791,0.065806,0.1028,-0.43576,0.74996
0.17221,-0.04887,-0.016051,-0.03856,-0.088706,-0.52559,0.017789,0.78113
0.026034,-0.1327,0.037921,0.015043,0.061728,0.48621,0.74794,-0.21368
-0.049119,0.073252,-0.016686,0.014151,0.031642,-0.13099,-0.4164,-0.17908
-0.22163,0.099819,-0.0011339,0.012596,0.023043,0.48604,-0.25389,-0.43058
-0.027545,-0.45154,0.060108,0.025181,0.011509,-0.04151,0.23926,0.12082
-0.22126,0.020904,-0.076078,-0.050307,-0.073938,-0.20864,0.27848,-0.16941
0.194,0.34553,-0.027531,-0.011098,-0.02254,0.014877,0.32942,0.35427
-0.11156,-0.024443,-0.021055,-0.029043,-0.044842,-0.74452,-1.0641,-0.67885
0.43238,0.11378,0.10764,0.099404,0.13354,0.66562,0.88359,0.99132
-0.21184,-0.18594,-0.07049,-0.093756,-0.095388,-0.26422,-0.84694,-0.79146
-0.072974,-0.01862,-0.0075935,-0.0060039,-0.034762,-0.29248,-0.16673,-0.093235
0.023933,0.075214,0.016184,0.035517,0.066896,0.59555,0.81643,0.029946
-0.12885,0.031786,-0.037164,-0.023053,-0.008045,0.13945,-0.32739,0.013857
0.1356,-0.15743,0.083189,0.076616,0.092544,0.20895,0.83691,0.61957
-0.11022,-0.023501,-0.012906,-0.009099,-0.053277,-0.60276,-0.71052,-0.13094
0.35364,0.427,0.065249,0.047666,0.092913,0.42744,0.15768,0.15359
-0.22265,-0.2255,-0.13577,-0.13646,-0.21994,-0.89345,-0.3766,0.007384
-0.082081,-0.33727,0.016284,0.031545,0.077217,0.92022,0.01794,-0.11767
0.15663,-0.092372,0.03631,0.019729,0.030075,-0.083206,0.54165,-0.045399
-0.32096,0.21545,-0.013921,-0.016238,-0.049832,-0.38544,-0.50113,-0.55287
0.32687,0.33833,0.036835,0.056107,0.10252,0.2916,0.18084,0.029901
-0.050133,-0.12943,-0.061878,-0.068026,-0.099036,-0.40447,-0.56452,-0.14761
-0.047125,-0.040708,0.064703,0.033364,0.080045,0.26217,0.64325,0.83304
-0.16497,0.038953,-0.07562,-0.061314,-0.10198,-0.22863,-0.21366,-0.5129
0.18196,0.073985,0.048589,0.077981,0.074284,0.36965,0.65089,0.48849
0.1501,-0.12011,0.039232,0.01409,0.00016165,-0.20406,-0.33795,0.20806
-0.27564,0.0069013,-0.04858,-0.018349,-0.0033703,0.10109,-0.50701,-0.92773
0.014831,-0.38432,-0.026908,-0.019189,0.0017161,0.42073,0.38503,0.39068
0.10038,0.25905,0.026505,0.011611,-0.015495,-0.46241,0.030597,0.40239
-0.088726,0.085272,0.010362,-0.011928,-0.0080133,-0.22004,-0.364,-0.89633
0.0885,-0.068428,-0.012742,-0.019585,0.00063039,0.14693,-0.29698,0.24752
0.046251,0.19882,0.019606,0.0276,0.033602,0.16031,0.59194,0.069878
0.13612,-0.070801,0.0055786,0.0045215,0.020194,0.075875,0.38157,0.62536
-0.13397,0.0011498,-0.031777,-0.049853,-0.094735,-0.39764,-0.23131,-0.29851
-0.091719,-0.066254,0.016473,0.036266,0.0165,0.17514,0.10832,0.18649
-0.048741,0.058353,0.0093078,0.036243,0.07229,0.13606,0.18069,-0.23455
-0.089681,-0.13781,0.0089677,0.0047184,-0.013519,0.0070616,-0.82335,0.0073829
0.083837,-0.11344,0.0075922,-0.011429,0.032482,0.30284,0.67464,0.045772
-0.097175,0.15635,-0.049308,-0.043373,-0.086404,-0.594,-1.102,-0.60075
0.2352,0.093851,-0.020685,-0.012827,0.013014,0.31718,0.44733,0.22907
0.21361,0.065491,0.015912,0.010125,-0.012491,-0.26687,-0.13922,-0.060367
-0.10062,-0.12597,0.0063929,0.002285,-0.0061026,-0.062928,-0.014546,0.1847
-0.11566,0.016552,0.037171,0.018517,0.063913,0.37645,0.80281,0.22507
-0.20882,-0.018348,-0.032151,-0.011456,-0.059986,-0.35324,-0.10449,-0.18221
0.10211,-0.10163,0.056138,0.045029,0.059667,0.32701,0.47843,0.31715
0.1281,0.2164,-0.026509,-0.0076788,0.0084466,-0.028403,-0.03722,0.22967
-0.084625,-0.066894,-0.01513,-0.021604,-0.02679,0.016559,-0.52507,-0.3939
-0.035763,0.21897,0.058273,0.026208,0.015666,-0.10294,-0.15501,0.0044101
-0.14609,-0.42599,-0.072595,-0.036493,-0.021206,0.087037,-0.12336,0.046874
0.10158,-0.016013,0.013719,0.0088813,0.018276,0.099866,0.037938,-0.195
0.30265,0.099831,-0.034421,-0.025047,-0.030178,-0.20628,-0.33386,-0.15997
-0.16655,-0.13013,0.0098415,-0.020696,-0.033575,-0.19056,0.10808,-0.031035
0.02298,0.21103,-0.016968,0.030344,0.0086433,0.00033793,0.093081,0.091937
-0.03474,0.1489,0.042145,0.01155,0.026988,0.17397,0.057667,-0.043903
-0.066484,-0.026501,0.023836,0.0094458,-0.0010749,-0.080335,0.15705,0.13763
-0.010304,0.1299,0.0067662,0.00097054,0.003366,0.20147,0.16751,0.023663
-0.038799,-0.3284,-0.055699,-0.0059806,0.0017488,-0.087894,-0.18071,-0.057075
0.15975,0.20634,0.039477,0.019622,0.033253,0.075665,0.24818,0.48482
-0.16545,-0.32985,0.0028549,-0.016434,0.011675,0.089717,0.3472,-0.024285
0.10983,0.15585,0.013568,0.025882,0.006764,0.13189,0.065108,0.096989
0.02386,-0.00072356,0.00070835,-0.018075,-0.029053,-0.3083,-0.66899,-0.34774
-0.12725,-0.064623,-0.04403,-0.031564,-0.065186,-0.18653,-0.4033,-0.43058
0.14015,-0.0036388,-0.035005,-0.022617,0.007274,0.06562,0.19898,-0.2147
0.044234,0.12064,0.012107,0.0087947,0.0084395,-0.021503,-0.10684,0.50484
-0.11841,0.10556,0.0037098,0.016028,0.0086908,0.099056,0.30724,-0.10303
0.0038838,-0.0021849,0.026015,0.022865,0.031725,0.045272,0.090336,0.21946
-0.033598,0.038797,0.048062,0.014029,0.01538,0.24011,0.24774,-0.041037
0.098355,-0.092982,-0.015876,-0.0024041,-0.0087872,-0.17477,-0.20428,0.17391
-0.20815,-0.070548,-0.0016433,-0.010685,-0.024953,-0.089295,-0.27917,-0.16258
0.18138,-0.16028,-0.010817,-0.0030149,0.013815,0.028124,-0.15453,-0.2102
-0.090771,0.020552,-0.043462,-0.010753,-0.0097361,-0.05689,0.54523,0.2771
0.20334,0.11316,0.040997,0.028455,0.04488,0.22579,0.16187,-0.16632
-0.03695,0.17338,-0.030848,-0.041758,-0.056855,-0.25686,-0.51284,-0.077394
-0.16285,-0.14115,0.006755,-0.0026939,-0.0025274,0.057543,0.067388,0.068406
0.012894,0.0381,0.013394,0.012869,0.020376,-0.018489,0.17246,0.30236
-0.041758,-0.030044,-0.0028722,0.005028,0.0041615,0.09332,-0.07053,-0.11088
0.14072,-0.0013023,-0.018389,-0.0026604,-0.027535,-0.02871,0.097036,-0.29826
-0.08183,0.030567,0.029463,0.021152,-0.0041768,-0.11099,-0.32424,-0.2078
0.077984,-0.14587,0.0078478,0.0061878,0.050977,0.29179,0.57328,0.29778
-0.014238,0.17164,-0.013101,-0.03197,-0.041689,-0.25805,-0.66053,0.19131
0.030864,0.0054829,0.0053737,0.0081242,0.038068,0.051619,0.59665,0.1565
-0.021785,-0.028183,0.00039331,0.0012993,-0.01466,-0.014088,-0.5696,-0.16932
-0.039335,-0.0082994,0.0028364,0.0098682,0.018546,0.138,0.28775,0.25063
-0.083452,-0.0056212,-0.018838,-0.0054007,-0.034569,-0.22706,-0.32803,-0.6077
-0.035428,-0.19202,-0.0022844,-0.013376,-0.0024731,0.06999,0.094892,0.061744
0.16917,0.19071,-0.017814,0.0093308,0.020845,0.29453,0.61521,0.0045019
-0.11617,-0.083337,0.012838,-0.0075601,-0.027191,-0.33467,-0.3575,0.16291
0.0085124,0.095927,0.0039675,0.0063686,0.0097693,-0.059502,0.038534,-0.1451
0.051698,0.018113,0.033958,0.012218,0.014806,0.20655,0.10947,0.10105
0.09897,-0.019649,-0.006334,0.0023766,-0.0038829,-0.051318,0.028119,0.24074
-0.069819,-0.033066,-0.022996,-0.030755,-0.022415,-0.027464,-0.58744,-0.22486
0.043136,0.063448,0.015311,0.022402,0.037769,0.16975,0.5218,0.42951
0.13841,-0.027466,0.0070545,0.0057681,-0.0026605,-0.14622,-0.22848,-0.22934
-0.30981,-0.056257,-0.024332,-0.018038,-0.018471,-0.068356,-0.023982,-0.30022
-0.07664,-0.023202,-0.00073668,-0.0020945,-0.025217,-0.10397,-0.38669,-0.12465
0.16542,-0.01429,-0.015919,0.0066866,0.031684,0.23921,0.19943,0.36257
0.034135,0.087816,0.00041782,-0.0074445,-0.019918,-0.14085,0.56131,-0.10023
-0.023526,-0.076023,0.024793,0.025621,0.038314,0.098581,0.031907,0.039683
0.080826,0.095928,0.025867,0.011876,0.010566,0.14348,0.47399,0.22
-0.11875,-0.076043,-0.0043223,-0.017702,-0.033365,-0.17987,-0.63301,-0.19765
-0.096158,-0.0062965,-0.026902,-0.024287,-0.0079841,0.040744,-0.37933,-0.54521
0.12726,0.12492,0.0048038,0.0075843,0.008284,0.05384,0.037216,0.31519
-0.056731,-0.0034003,-0.010925,-0.0080784,-0.01591,-0.18049,-0.35228,-0.032963
0.2269,-0.14191,0.011778,0.014721,0.013302,0.001806,0.49337,0.72769
-0.12443,-0.017506,0.018267,0.02145,0.018104,0.093729,-0.14098,-0.41476
0.12185,0.18246,-0.038174,-0.026735,-0.032302,-0.14546,0.2407,0.096716
-0.10674,-0.064641,-0.0010395,-0.0045982,0.0032167,0.17663,0.039689,-0.12757
-0.13249,0.031734,0.012781,0.0099541,0.007961,0.02266,0.11636,-0.15026
0.07447,-0.18269,0.019193,0.017082,0.037005,0.10495,0.19614,0.027671
-0.11144,-0.072914,-0.036289,-0.030007,-0.042227,-0.28659,-0.49719,-0.43913
-0.041555,0.0036172,0.041722,0.024931,0.035951,0.25458,0.17349,0.42366
0.073949,0.11062,-0.0046562,-0.021316,-0.03325,-0.14671,0.095822,-0.035435
0.22817,0.28727,-0.0037455,0.010794,-5.6371e-05,0.016887,0.0027747,0.38277
-0.093859,0.07925,0.012925,0.019526,0.01804,-0.059909,-0.47981,0.032909
-0.0013808,-0.25012,-0.048688,-0.01872,-0.010534,0.012953,-0.13009,-0.23855
-0.010477,-0.20391,0.029921,0.0053126,0.0076708,0.055307,0.18937,0.087087
0.010755,0.081873,-0.0092022,-0.025613,-0.021337,0.03554,-0.00080612,-0.22031
-0.087192,0.065434,-0.0020119,0.013528,0.011651,-0.0075593,0.34241,-0.1936
0.10106,0.088739,-0.0030932,-0.002174,-0.0028336,-0.097642,0.30678,0.11321
-0.088896,0.0028057,-0.0044434,-0.002284,-0.002322,0.069802,-0.038276,0.062447
0.022964,-0.27758,0.025421,0.021133,0.021016,0.041496,-0.055469,0.16662
-0.046676,0.1322,0.00079363,-0.0099597,-0.0030776,-0.0029845,-0.25755,-0.23269
-0.030612,0.070565,0.015621,0.01385,-0.0042034,-0.13401,-0.41541,0.026421
0.080729,-0.02233,-0.031518,-0.0012021,0.0099514,0.1094,0.29475,0.2457
-0.1174,0.0042695,8.8649e-05,-0.016108,-0.015132,0.016393,0.089124,0.1787
0.18835,0.034725,0.001095,-0.0074989,-0.016744,-0.05345,-0.22806,-0.13353
0.044762,0.077385,-0.012898,0.0011212,-0.0024615,-0.0061569,0.11021,-0.15917
-0.17429,-0.18075,-0.002911,-0.0059273,0.012318,0.033496,0.0049283,-0.21135
0.052653,0.024612,0.0074642,0.010373,0.0043271,-0.0359,-0.025393,-0.025897
0.13721,0.20729,0.033628,0.010912,0.0048886,0.012257,0.30293,0.10605
-0.0089314,0.02956,0.028421,0.019072,0.029567,0.076292,0.218,-0.021204
-0.067218,-0.2521,-0.063155,-0.027716,-0.039021,-0.10968,-0.139,0.49554
-0.14767,-0.060085,0.00080091,-0.012333,-0.00587,0.071147,-0.29166,-0.3237
-0.03867,0.051393,0.0091414,0.018291,0.019278,0.079305,-0.013754,0.033156
-0.011664,-0.064782,-0.014782,-0.0061771,-0.0029983,-0.20276,-0.41485,-0.14819
0.12376,0.17137,0.030652,0.015856,0.012956,0.029433,0.27869,0.082724
0.058356,0.050837,-0.018419,-0.024895,-0.01894,0.096181,0.19227,0.20091
-0.040834,-0.057729,0.033631,0.00453,0.002916,0.06024,0.0059407,-0.29379
0.054839,0.0025686,-0.062818,0.0027614,-0.022812,-0.085686,0.047751,-0.10315
0.025893,-0.088984,0.028564,0.016892,0.029271,0.0029011,0.2702,-0.02922
-0.096955,-0.0057004,0.0034319,-0.0075495,-0.0043994,-0.0012071,-0.11687,0.40813
0.051746,0.17204,0.010463,-0.0078793,-0.013931,-0.026735,-0.28651,-0.17783
-0.038387,-0.05844,0.0028862,-0.015223,-0.0066947,-0.04159,-0.1614,0.11502
0.051629,0.097148,0.0040906,0.017332,0.01758,-0.0061834,0.29748,-0.1713
0.030042,-0.081906,-0.032983,-0.0040279,0.0042458,0.05607,-0.2996,0.035445
-0.1833,-0.20586,0.016379,0.014275,0.0077693,0.066438,0.088139,-0.014061
0.16835,0.092937,0.026838,0.0016583,0.019884,0.0315,0.29879,0.085889
-0.1416,0.01156,-0.033195,-0.010966,-0.022527,0.012036,-0.079578,-0.041369
-0.096615,-0.13469,-0.0077621,-0.0083336,-0.026391,-0.15794,-0.10782,-0.093722
0.26572,0.25122,0.032608,0.024846,0.031111,0.15264,0.30862,0.15999
-0.12321,-0.015038,-0.029395,-0.021057,-0.030165,-0.1356,-0.49452,-0.23691
0.058352,-0.1029,-0.0063015,-0.0055543,0.016119,0.078448,0.37999,0.49326
-0.063652,0.059249,0.0081824,-0.0067716,-0.025313,-0.17353,-0.47621,-0.68402
0.30011,-0.036465,0.037595,0.022304,0.033322,0.086266,0.22314,0.13482
-0.3585,0.17895,-0.011675,-0.0040124,-0.0028167,0.008067,0.22478,0.40112
0.069163,-0.16397,-0.006644,0.0083676,0.0074858,0.093895,0.040965,0.082976
0.12135,0.049211,-0.0096103,-0.01049,-0.013274,0.048768,-0.16726,-0.27195
-0.038498,0.011124,-0.01253,0.0022917,-0.0020208,-0.10238,0.097893,-0.020593
-0.1684,-0.21003,0.023911,0.00017198,0.010451,0.11794,0.0073999,0.224
-0.064988,0.11109,-0.048471,-0.024412,-0.038072,-0.1571,-0.39894,-0.54808
0.2099,0.021177,0.043974,0.022419,0.039993,0.048873,0.31881,0.3887
0.01646,0.091291,-0.011123,-0.0077844,-0.005487,-0.092877,0.016166,-0.16171
-0.050759,-0.10686,0.012816,0.0098081,-0.0029603,0.065144,-0.1536,-0.29462
0.040025,0.006529,-0.001512,0.012389,0.015853,-0.025126,-0.076125,0.46313
0.02336,-0.020127,0.015973,-0.0082613,-0.019898,0.056836,0.1747,0.25381
-0.061867,-0.060756,-0.02097,0.0021025,0.022081,0.18462,-0.24214,-0.22891
0.080803,0.34596,0.020154,0.0040184,-0.014868,-0.22904,0.72876,0.10395
-0.1585,-0.23786,-0.032787,-0.018419,-0.013783,0.017935,-0.46864,-0.11433
0.08699,0.046199,-0.0080691,0.0049946,0.0097079,0.018673,0.14698,-0.056602
-0.10483,0.0093221,0.00053668,-0.019402,-0.022313,0.0075372,-0.14715,-0.11472
0.18006,-0.052896,0.016564,0.010215,0.015521,0.08671,0.16052,-0.015493
-0.1285,-0.11794,0.016746,0.00047439,-0.016972,-0.28168,-0.44881,-0.030695
0.039979,0.079474,-0.022163,0.0064728,0.036868,0.193,0.31214,0.10167
-0.025305,0.039673,0.0015558,-0.0026851,-0.010171,-0.089136,-0.10363,0.099457
0.05845,0.013567,0.025486,0.027916,0.021703,0.17808,-0.13245,0.12855
0.064486,0.0024689,0.0027462,-0.0032246,-0.0082341,-0.019994,0.032214,0.21659
-0.17943,-0.070291,-0.035495,-0.025895,-0.029936,-0.1283,0.12642,-0.70062
0.17001,0.10132,0.0043797,0.014368,0.010913,0.048121,0.10406,0.22803
-0.020401,-0.044174,0.012852,-0.0077243,0.004555,0.039618,0.066075,-0.20845
-0.12595,-0.021856,-0.010196,-0.0065137,0.0053652,0.032402,0.088648,0.1221
0.048612,0.12922,0.04454,0.025597,0.013175,-0.01397,0.059627,0.18623
-0.051293,-0.13836,-0.057322,-0.036505,-0.034506,-0.14757,-0.27369,0.073102
0.035496,-0.028687,-0.0032321,-0.0053281,0.0031383,0.16206,0.15738,0.11133
0.020118,-0.12904,0.011579,0.017643,-0.0063829,-0.101,-0.39691,-0.037123
0.058875,0.33252,0.010632,0.0090899,-0.00018958,-0.053717,0.026839,0.16272
-0.059349,-0.14553,0.0017951,0.00038002,0.0064329,0.06226,0.089279,-0.41139
0.024428,0.037074,0.016319,-0.00059887,0.013694,-0.072716,-0.23541,-0.24099
0.16126,0.11388,-0.00053104,0.0061729,0.021616,0.18252,0.43298,0.083952
-0.2274,-0.14179,-0.025393,-0.0027681,-0.0090424,-0.038961,-0.26129,0.29524
0.069236,-0.0026573,0.027611,0.011601,0.015139,0.059616,0.48758,-0.076936
-0.065752,-0.13904,-0.0055814,-0.0054226,-0.0077986,0.0091602,0.15426,0.16294
-0.03004,-0.017483,-0.038945,-0.038167,-0.039143,-0.17511,-0.46885,-0.26543
0.075954,0.075354,0.0058271,-0.00057468,-0.0087939,0.022195,0.0027712,0.19378
-0.035499,-0.0068444,0.0039799,0.013781,0.0051048,-0.070714,-0.069969,-0.24754
0.043093,0.12787,-0.020794,-0.0027143,-0.012895,0.046643,0.18296,0.067239
0.0079302,0.14374,0.064522,0.036041,0.039093,0.11725,0.29818,0.33328
0.0077851,-0.046151,0.010026,-0.0026782,0.020834,-0.0063626,-0.72357,0.034377
0.026749,-0.10002,-0.020244,-0.0095082,-0.020424,-0.081083,0.059022,-0.11911
0.063986,-0.028145,-0.018606,-0.00018007,0.0093593,0.096943,-0.13707,-0.29924
-0.10827,-0.090732,0.0069318,-0.013927,-0.014644,-0.018752,0.038747,0.10397
-0.06168,-0.016236,-0.014153,0.0037434,0.0091741,-0.060952,0.45176,-0.017335
-0.0083958,0.061448,-0.019543,-0.0098537,-0.020819,0.040296,0.29293,-0.14534
0.027205,-0.10792,-0.001571,-0.00018364,-0.011037,-0.10637,0.11703,0.22233
0.044568,0.04642,0.03183,0.0013853,0.0070347,-0.041073,-0.70437,-0.49841
-0.050202,0.16593,-0.01321,-0.0052414,-0.0059578,0.070753,0.29912,0.63066
0.18063,0.032823,0.042849,0.034539,0.059039,0.14164,0.22934,0.30407
-0.074859,-0.03169,-0.011097,-0.0043529,-0.017046,0.04507,-0.49126,-0.13663
-0.050154,0.082576,-0.0033394,0.0030168,-0.00010625,0.13137,0.1631,-0.030408
-0.0488,-0.13139,-0.019922,-0.013691,-0.01531,-0.31883,-0.1774,-0.49744
0.024257,-0.21173,-0.0061533,-0.015368,-0.031425,-0.047435,-0.12155,0.0071072
-0.079674,0.2098,-0.00093839,0.0059356,0.0063869,-0.09223,0.20912,0.045344
0.04675,-0.17031,-0.01959,-0.0042342,0.0046757,0.12709,0.085746,0.20459
0.068226,-0.038606,0.024262,0.0013021,0.010707,0.050743,-0.055615,-0.059204
0.00035001,0.25385,0.0060971,-0.00056867,0.0014391,0.056455,0.29113,-0.023848
0.0063899,-0.04324,-0.011147,-0.0017525,-0.0071854,-0.017643,0.068413,-0.30345
-0.024531,0.10798,0.027532,0.013554,0.031877,0.024972,-0.26735,0.18188
0.077471,-0.052312,-0.0027342,0.00632,-0.0063797,-0.050079,-0.26926,0.32258
0.02121,0.020289,-0.0082722,0.015488,0.010687,0.16223,0.58624,0.49142
-0.07016,-0.090677,-0.004977,-0.021693,-0.034389,-0.25435,-0.60804,-0.32317
-0.16657,-0.058854,-0.024519,0.0038295,0.014327,0.1583,0.22431,-0.46144
0.083289,-0.056821,0.0029084,-0.017648,-0.038763,-0.16523,-0.19232,-0.0051323
0.094206,0.056615,0.04553,0.0073603,0.017079,0.014618,0.31138,0.28608
-0.077553,-0.083967,-0.022122,-0.015054,0.01769,0.23496,-0.040905,-0.55606
0.054487,0.016251,0.01054,0.016638,0.0099366,-0.013059,0.036726,0.12751
-0.085612,0.39153,0.0027095,0.0087687,-0.013937,-0.23728,-0.013713,0.388
0.0039731,-0.22872,-0.037782,-0.0072537,-0.0069682,-0.10084,-0.13288,-0.012088
0.082114,-0.12352,-0.01697,-0.015611,0.0074971,0.17139,0.043784,-0.39717
0.055114,-0.0025197,0.026466,0.015129,-0.0017062,0.09723,0.053673,0.20312
-0.0077066,0.12664,0.022693,0.01479,0.028002,0.030553,0.29492,0.41263
-0.084779,-0.041691,0.011281,-0.00092744,-0.0048489,-0.034293,-0.46556,0.032241
0.14965,-0.017294,0.0004993,-0.00076067,-0.014196,-0.040859,0.24392,-0.11571
-0.22088,0.017416,-0.048367,-0.031619,-0.023304,-0.10511,-0.2755,-0.084533
0.012657,-0.057893,-0.010114,0.00018981,-0.024147,0.0079613,-0.12045,-0.32514
0.20859,0.10519,0.060615,0.0321,0.038184,0.095246,0.30755,0.0028109
0.023267,0.089857,-0.00034883,-0.0062559,-0.00019387,-0.02349,-0.30055,0.047416
-0.36237,-0.035526,-0.021364,-0.0055488,0.017042,0.06478,0.37691,0.022498
0.030421,-0.34998,-0.018379,-0.020502,-0.01175,-0.031961,0.11207,0.10553
0.12624,0.13114,-0.0073855,0.011352,-0.0086943,-0.057456,-0.0052078,-0.086859
0.060605,0.049782,0.034685,0.019664,0.041437,0.19772,0.1131,-0.015842
0.015341,0.064348,-0.017498,-0.0034259,-0.041525,-0.3302,-0.19566,0.10643
0.12445,0.099301,-0.00013244,-0.0032788,0.015372,0.11571,-0.046506,0.18299
-0.018261,-0.022372,0.016299,-0.0033785,-0.0070134,-0.019664,-0.25553,0.067498
-0.18721,0.076791,0.039553,0.0040582,0.00047337,0.15432,0.012453,-0.23267
0.092442,-0.29647,-0.08656,-0.027846,-0.024672,-0.112,-0.38099,0.13158
-0.071947,0.015612,0.005327,0.010313,0.011517,0.11947,0.56872,-0.1403
-0.018233,-0.0016905,0.018609,0.0092147,6.1869e-05,-0.11928,0.03152,-0.20869
0.0099176,0.26123,0.023921,0.015805,0.011781,0.00064219,0.05238,0.039826
0.019465,-0.13356,-0.0096615,-0.0010876,0.00032532,-0.0043886,0.15959,0.078691
0.057095,0.055045,0.011894,-0.0023215,0.020843,0.061593,0.10628,0.21809
0.01383,0.0052167,-0.0049593,-0.011253,-0.020082,-0.058747,-0.45792,-0.30931
-0.10169,-0.10514,-0.0054202,-0.019985,-0.0050917,-0.052668,-0.23662,0.23736
0.11005,0.065971,-0.0050956,0.010628,0.0033182,0.0876,0.57316,0.14588
-0.068568,-0.17827,-0.011865,0.018163,-0.0028078,0.017981,-0.40599,-0.092836
-0.074027,0.19233,-0.033684,-0.020766,-0.015911,0.0035505,0.088825,-0.5192
0.15696,0.0444,0.085486,0.050101,0.065253,0.16865,0.32044,0.74836
