0.0092587,0.035292,0.30039,0.060618,-0.021859,-0.0099571,0.0001083,-0.0032395
-0.015034,-0.011902,-0.071715,0.0089322,0.00054481,0.0051292,-0.0070207,-0.0034945
-0.0075486,-0.011702,-0.41286,-0.081983,-0.016303,-0.010685,-0.029904,-0.0033856
0.00051623,-0.010892,-0.028802,0.014122,0.013657,-0.0027219,0.025293,0.0049038
-0.0064724,0.0061594,0.11073,-0.031104,-0.0031772,-0.0022855,0.0023995,-0.0021188
0.010479,0.015924,0.15335,0.0087839,0.0036621,0.0061586,-0.0047976,-0.0011229
0.012178,0.033837,0.42653,0.11815,0.0030617,0.014681,0.019295,-6.6354e-05
-0.017189,-0.049743,-0.25759,-0.085715,-0.0048832,-0.015914,-0.0035524,-0.0069248
0.008087,-0.00075087,-0.28964,-0.0010932,0.011114,0.0079935,-0.0031814,0.017207
0.0018208,0.00081339,-0.12222,0.044128,-0.0036622,-0.0074595,0.020247,0.0097053
0.010658,-0.0062575,-0.090236,-0.035704,0.005384,0.015779,-0.034942,-0.013873
-0.020266,0.024718,0.37809,-0.037163,-0.032203,-0.01606,-0.012519,-0.022272
0.0027117,0.0077145,0.12812,-0.02247,0.016208,-0.009178,0.032929,0.0080301
0.0014846,-0.0025464,-0.10425,0.039815,0.0019764,0.020908,-0.0312,-0.00094061
-0.00037683,-0.021522,-0.13031,-0.0065194,0.0030191,-0.019393,-0.048378,0.021318
0.0051681,0.021394,0.035118,0.080567,0.011332,0.010726,0.13012,-0.0031282
-0.012841,-0.045273,0.28309,0.066379,0.011143,0.002071,-0.011113,-0.011621
0.00058589,0.013306,-0.37842,-0.12763,-0.028874,0.0016608,-0.10477,-0.0040681
-0.0011591,0.0022689,-0.066708,-0.056574,0.0084962,0.0017724,0.020985,0.0039182
0.021172,0.046988,0.038223,-0.0098054,-0.0094123,-0.005388,0.053492,0.01227
-0.0026545,-0.031991,0.02163,0.090699,0.0036003,-0.0042496,0.00028875,-0.0025809
0.0054551,0.015389,0.24956,-0.036184,0.0010109,0.0050674,0.040741,0.0060747
-0.0014939,-0.01412,-0.037486,0.12549,0.0066484,-0.0088574,-0.083269,-0.0087976
-0.023671,-0.011424,-0.068202,-0.18945,-0.025996,0.0084646,-0.043838,-0.0082526
0.0090591,0.015283,-0.07148,0.058528,0.028349,0.01777,0.080816,0.0076626
-0.0050099,-0.012547,0.17715,0.026105,-0.0098803,-0.012366,-0.045198,-0.015709
0.0043396,0.021871,0.074741,0.0026166,0.015506,-0.0039408,0.054851,-0.00015038
-0.0019986,-0.0067877,-0.27738,0.027191,-0.0051091,-0.019502,-0.0016017,0.0075884
-0.00059657,-0.01279,-0.1047,-0.072216,-0.0018001,0.011292,-0.042399,-0.00019407
0.0085448,-0.0040159,-0.12365,0.024317,0.0093424,0.0026079,0.02648,0.015627
-0.0058406,-0.0038365,0.2705,0.01937,-0.011204,0.0092868,0.017753,0.015982
0.010888,0.01136,0.18263,0.068587,-0.0013086,0.000257,-0.052814,-0.014828
0.01178,0.02619,-0.40009,-0.039516,-0.00024858,0.0069425,-0.01331,-0.014416
-0.026696,-0.037215,0.39901,-0.086554,-0.023676,-0.025197,0.042426,-0.0063318
0.0047511,0.0088752,-0.037008,0.0054963,-0.0011236,0.0055063,0.036056,0.0093489
0.0045103,0.00056292,0.087633,0.033709,0.028634,0.020982,-0.040556,-0.0064467
-0.01179,0.016055,-0.19787,0.021991,-0.0043616,-0.017833,-0.015927,0.0010278
0.0027894,-0.0071525,-0.036539,0.017869,0.009611,-0.0016124,0.031433,0.0084475
0.0093014,0.0011768,0.14768,-0.0091915,0.00051241,0.0070475,0.015286,0.00032404
-0.0077298,-0.021578,-0.39648,-0.089797,-0.0080572,0.00020522,-0.017613,-0.0075929
0.0065412,0.018197,0.14323,0.065576,-0.0082416,-0.0066625,-0.0046467,0.00040103
0.013196,0.011013,0.087773,0.027433,0.023337,0.017545,-0.00012333,0.0086932
-0.018904,-0.027583,-0.14761,-0.0012064,-0.022829,-0.021051,-0.058127,0.001597
0.011873,0.027388,0.54763,0.041774,0.0015339,0.018082,0.033006,0.002426
-0.011635,-0.027171,-0.24765,-0.070771,-0.0053071,-0.013527,-0.015088,-0.0046047
-0.011327,0.0041169,-0.22884,-0.027018,-0.0044401,-0.0064724,-0.03003,-0.0040306
0.012733,-0.0036729,0.087568,0.00050866,0.011824,0.031529,0.12897,-0.0037891
0.0057508,0.027645,-0.073462,0.058159,0.012142,-0.024372,0.024176,0.0038706
-0.0011593,-0.011282,0.23924,-0.010652,-0.011363,-0.0099314,-0.079406,-0.004475
0.0074748,-0.0032867,0.03156,-0.018545,0.011589,-0.0030929,0.020482,-0.0053034
0.00025741,0.028132,-0.14324,-0.0044902,0.0028859,0.011917,-0.052093,0.0093339
-0.007298,-0.034292,-0.17636,-0.022899,-0.021777,0.011747,-0.0010548,0.0083445
-0.015243,-0.010938,0.12807,0.082888,0.00023338,0.0042158,0.0012076,-0.0081234
0.0076987,0.012217,0.045165,-0.02257,0.0066145,0.01269,-0.0063975,0.0069176
0.0069434,0.003925,-0.10216,-0.041882,-0.0023938,-0.025451,0.023195,-0.0089711
-0.0017161,-0.0045225,0.16578,0.017622,0.0047067,-0.00097271,-0.011132,-0.0010969
0.0053586,0.025999,-0.054187,-0.054609,-0.003124,-0.0077446,0.016203,0.01487
-0.010699,-0.029445,-0.20493,0.030708,-0.010138,0.0088436,0.027656,-0.015841
-0.010678,0.0010625,-0.050759,0.054834,0.0070985,-0.013739,0.023719,0.00041482
0.013304,0.00034575,0.30659,-0.068399,0.0093693,-0.0051815,-0.065572,0.0010276
0.006525,-0.0081886,0.15449,0.058993,-0.0036227,0.018894,0.0099803,0.0015231
0.0079102,0.045708,-0.01779,0.1239,0.030217,0.027216,0.016071,0.0096378
0.0094284,-0.0021041,-0.081024,-0.28057,-0.030187,-0.019336,-0.016073,0.0097027
-0.020429,-0.042308,-0.23397,0.16534,0.010066,0.011967,-0.10217,-0.037351
-0.0037806,0.026652,0.075535,-0.0465,-0.021195,-0.011773,0.15607,0.016946
-0.0033073,-0.03734,-0.11453,0.044825,0.00091446,-0.028104,-0.01498,0.00077993
-0.011276,0.015866,0.10266,-0.0056868,-0.0016357,0.009866,-0.021802,0.0001693
0.019218,0.014602,-0.16932,-0.11933,-0.0051167,0.00067361,-0.02869,0.0073848
-0.0054473,-0.025289,0.095815,0.048405,0.01435,0.014801,0.050101,-0.0087527
0.0086687,0.021369,0.080737,0.05296,0.026032,0.0134,0.011337,0.014305
-0.0085344,0.0062161,0.16286,0.027778,-0.024245,-0.034558,-0.2231,-0.01717
0.0056379,0.0073281,0.16388,0.012289,-0.0032321,0.027365,0.28442,0.014007
0.004457,-0.022347,-0.1894,0.029988,0.011243,-0.0038365,-0.10651,-0.017187
-0.0041804,0.0028531,-0.11646,-0.15374,-0.027569,-0.018755,-0.028428,0.006403
-0.0046262,0.020116,0.037724,0.077821,0.013084,-0.0018357,0.073594,0.0066115
0.0030941,-0.0098976,-0.20474,-0.04156,0.0079677,0.015506,-0.058091,-0.0087905
0.011116,0.02202,-0.11053,0.026523,0.027016,0.017401,-0.05626,0.014844
-0.019682,-0.024758,0.24154,0.054886,-0.023982,-0.0042506,0.071146,-0.016271
0.0044054,-0.048485,0.14015,-0.058562,-0.004881,-0.018482,0.019149,0.0072104
-0.0025868,0.037122,0.17879,0.052991,0.0057723,0.013535,0.006085,-0.00066502
0.006207,-0.0096905,-0.24438,-0.063758,-0.023575,-0.03334,0.031489,0.0069767
-0.00046678,0.0068061,-0.11417,0.075624,0.0084942,0.012747,-0.069109,-0.0089097
0.0086272,0.032212,-0.063929,-0.0051258,0.023874,0.019078,0.0087423,-0.001414
-0.02124,-0.019345,-0.055186,-0.09455,-0.03196,-0.014151,-0.0083814,-0.0017367
0.011416,-0.0074388,0.43496,-0.043554,0.020945,0.022688,-0.01863,0.0058039
0.0049174,0.044039,-0.0079088,0.046982,-0.012417,-0.034189,-0.10743,-0.0021759
0.0059943,-0.013982,-0.12599,0.12294,0.016695,0.026408,0.24148,0.0056156
-0.016752,-0.065015,-0.28604,-0.041918,-0.00084351,-0.014069,-0.072871,-0.0020505
0.01468,0.030931,0.067604,-0.010055,0.0054587,0.016382,-0.081283,-0.0017388
0.014287,0.062473,-0.032393,-0.023921,-0.0033596,-0.015005,0.10706,-0.0012876
-0.017914,-0.048684,0.12657,0.048828,-0.0038261,0.0011106,-0.070423,-0.00074101
-0.019309,-0.021147,0.077379,-0.050175,-0.019394,-0.0056835,0.010914,-0.00015641
-0.013139,-0.041986,0.14946,-0.024561,-0.0032419,0.042591,-0.0088383,0.00040315
0.016464,0.037871,-0.078262,-0.023142,0.013295,-0.041738,0.010311,0.0086882
0.0072369,0.016014,-0.097728,-0.014855,-0.0089659,-0.024477,-0.018206,-0.014418
0.014044,0.025921,-0.19827,0.07059,0.023567,0.023888,0.022261,0.0091717
0.029146,0.036847,-0.044638,0.092682,0.016953,0.009452,0.021981,0.0013126
-0.041243,-0.068108,0.26058,-0.042128,-0.021192,0.018024,-0.011355,-0.006738
0.0058724,0.00018896,0.059819,-0.13045,0.010523,0.018266,-0.0072912,0.008491
-0.0015625,0.054143,-1.1237e-05,0.12491,-0.036442,-0.06017,-0.059176,-0.0076285
-0.001223,-0.04706,-0.12369,-0.08037,0.0097932,0.024942,0.091411,0.0074816
-0.016676,-0.022378,0.01529,-0.019341,0.00091101,-0.02316,-0.12512,-0.016405
0.014521,0.026438,0.0093037,0.058349,0.015263,0.014454,0.14352,0.0067295
-0.0091803,-0.088268,-0.048851,0.0045049,0.0062639,0.013005,-0.11772,0.0066287
0.013849,0.1021,0.012319,-0.032375,-0.017973,-0.019478,0.04464,0.0067492
-0.002238,0.027047,0.10713,0.010029,-0.018141,0.0031164,0.091595,-0.0085607
-0.0026676,-0.040245,-0.27135,0.02973,0.013705,0.041824,-0.055208,-0.0081225
0.028245,0.048357,0.40953,-0.044215,0.022863,-0.020532,0.010048,0.0079582
-0.026657,-0.051217,-0.11405,0.084346,-0.0064709,-0.019959,-0.025662,0.0004988
-0.0033065,-0.018913,-0.3166,-0.030577,0.019143,-0.0034545,-0.10814,0.016265
0.012354,0.027952,0.22578,0.087102,0.0055651,0.036649,0.16853,-0.0073152
-0.018742,-0.0043188,0.085253,-0.21902,-0.055405,-0.040409,-0.10209,-0.015567
-0.010655,-0.029546,-0.057117,0.035649,0.0078045,-0.00036195,0.025311,-0.0084348
0.020988,0.0073446,-0.1772,-0.093664,0.015348,0.016091,0.043014,0.0063885
-0.0019508,-0.0025675,-0.017375,0.15157,-0.0093175,-0.0067213,-0.17389,-0.0021896
0.014238,0.0036355,0.25718,0.1783,0.027747,0.017106,0.20272,0.020679
-0.00082442,0.080932,-0.050881,-0.13794,-0.029391,-0.037451,-0.022597,-0.010821
-0.0081612,-0.051821,0.11824,-0.039079,-0.00065985,0.071778,0.02491,0.0049303
0.0077726,-0.027529,-0.019704,-0.0016559,0.0049441,-0.030203,-0.022258,0.0054074
-0.015574,0.036374,-0.23313,0.013246,0.026797,0.00039666,-0.06278,-0.0094907
-0.0078905,0.0067381,-0.15696,0.091385,0.0025974,-0.039451,0.012666,-0.00085534
-0.0003749,-0.046461,0.42649,-0.16578,-0.020713,-0.0089716,-0.11603,-0.015735
0.0070659,-0.045369,-0.34198,-0.0082511,-0.0041377,0.013893,0.11412,0.031653
0.0067277,0.080171,0.12489,0.0015835,-0.01035,0.013687,0.078779,-0.0072359
0.0065154,0.0098168,0.18093,0.074762,-0.0083512,0.0061429,-0.0025518,-0.0074325
-0.0013316,-0.021972,-0.17883,0.10971,0.048445,0.077209,-0.058884,-0.00013866
-0.0011882,0.016225,-0.060815,-0.12033,-0.027756,-0.10134,-0.19131,-0.032109
-0.00091287,-0.039432,0.084524,0.032639,0.0049709,0.0015681,0.24095,0.029633
-0.00057899,-0.0090194,0.21235,0.044577,0.02924,0.07321,-0.01231,0.013387
-0.015887,0.029556,-0.34808,-0.13204,-0.072246,-0.097554,-0.021971,-0.010393
0.015609,0.013964,0.051763,0.10377,0.044261,0.051633,0.015793,0.0052433
0.00014101,0.022429,0.15315,-0.068643,-0.027392,-0.026165,-0.079713,-0.010018
-0.0075821,-0.030959,-0.061351,-0.039962,0.03329,0.028448,0.065533,0.014055
0.0081147,-0.02906,-0.0081888,0.11195,-1.5103e-05,0.012428,0.021073,-0.00079584
-0.023021,0.020208,0.13038,-0.0029855,-0.0098586,-0.035052,-0.080701,-0.031295
0.024056,-0.01613,-0.015142,-0.032468,0.011831,0.011118,-0.028847,0.023966
-0.0068982,-0.0211,0.030237,-0.045977,-0.02065,0.010401,0.044235,0.00080931
0.0090736,0.075343,-0.069987,0.1448,0.025701,-0.0059034,0.037723,0.00073916
-0.014061,-0.01617,-0.59653,-0.22511,-0.052109,-0.0065318,0.046283,0.0003265
0.032943,0.024356,0.31924,0.071265,0.035042,0.039756,-0.15571,-0.0081673
-0.029732,-0.05336,0.21045,-0.0050618,-0.017564,-0.046741,0.12787,-0.0089915
0.016567,0.016117,0.15703,0.20186,0.047755,-0.00039816,-0.03209,0.021446
-0.023503,-0.05633,0.19146,-0.066412,-0.027044,0.014753,0.028748,-0.0026379
-0.001451,0.026275,-0.17801,-0.060709,-8.154e-05,0.0065848,0.060372,-0.018622
-0.003079,0.021983,-0.49855,-0.094405,-0.012335,-0.0091978,-0.21874,0.0048063
0.010863,0.017071,0.36191,0.034897,0.013969,-0.016897,0.050324,0.0051328
0.017139,0.051,0.20725,0.068936,0.00040224,0.022588,0.16386,0.021327
-0.023145,-0.09457,-0.34591,-0.00021236,-0.0063734,-0.015769,-0.089684,-0.0092653
0.022929,0.026072,-0.078964,-0.070799,-0.0064593,0.0085526,0.015669,-0.0087056
-0.00086239,-0.016399,0.0083378,-0.0096275,-0.0076488,0.017246,0.057579,0.0072089
-0.00081367,0.043952,-0.036664,-0.081888,0.0058112,0.010079,-0.17518,-0.016325
-0.023894,-0.058272,0.42709,0.18152,0.018509,-0.013182,0.13767,-0.0012119
0.015724,0.036416,0.28265,0.21046,0.022899,-0.013656,-0.05837,0.013558
-0.007059,-0.031391,-0.36851,-0.23723,-0.027599,0.00077225,0.041787,-0.0031089
-0.0063749,0.058423,-0.3079,-0.075699,-0.038944,-0.03233,-0.045696,-0.011937
0.017741,0.032059,-0.16085,-0.015928,0.012573,0.020052,0.023491,-0.0048923
-0.012848,-0.095363,0.127,0.03592,0.041243,0.0097898,0.01545,0.026017
0.011231,0.027128,0.30533,-0.037102,0.00036058,0.038796,0.0086001,-0.0050455
-0.01941,-0.07766,0.029977,0.12473,-0.00059602,-0.041035,-0.020447,0.011298
0.028007,0.11312,0.08156,-0.0094692,-0.031908,0.012739,-0.071913,-0.0031709
-0.018452,0.02866,-0.18914,-0.072286,-0.0233,-0.018496,0.064679,-0.025178
0.0051977,-0.042293,-0.11887,0.045697,0.032938,0.0058879,0.13089,0.0075814
0.012946,0.0095477,0.21369,-0.038527,0.0038316,0.0076348,-0.092706,0.0011722
-0.0030666,-0.034365,-0.17595,0.0027696,0.021979,0.0021315,-0.067628,0.0023275
-0.0037706,-0.025094,0.13458,0.11439,0.0011932,0.020319,0.0026384,0.010969
-0.035969,0.006864,-0.22082,-0.10262,-0.04316,-0.047503,0.047726,-0.019785
0.017659,-0.015712,-0.14693,0.023246,0.02931,0.048372,-0.018036,0.01168
0.016665,0.025271,0.62345,0.015293,-0.0081435,-0.0047604,-0.084746,0.011713
-0.0075248,0.060257,-0.31461,-0.11852,-0.038443,-0.050744,0.11388,-0.035198
-0.007896,-0.035282,-0.2181,-0.010606,0.016496,-0.0036131,-0.054307,0.011675
0.031244,0.043475,0.27247,0.11301,0.039509,0.02738,0.1065,0.027397
-0.015123,-0.031791,0.37535,0.041901,0.0072222,0.026788,0.01063,-0.011465
0.00134,-0.034965,-0.59789,-0.067334,-0.0021468,0.0026004,-0.17001,-0.0034028
-0.013271,0.017748,0.20317,0.074431,-0.050983,-0.02942,0.072196,-0.02665
0.0033729,-0.022696,-0.38653,-0.10335,0.0092887,0.0089208,0.01817,0.035844
0.0042447,-0.016218,0.26509,0.0082272,0.030389,0.00043735,0.0034708,0.012072
-0.010755,0.036738,0.25142,0.12732,-0.042196,-0.023676,-0.01913,-0.019931
0.013029,-0.0047917,-0.31037,-0.090378,0.04171,0.030248,-0.0030221,-0.0054905
0.0053234,0.038621,0.60346,-0.0046022,0.0088348,-0.0019377,0.0047728,-0.0070257
-0.025963,-0.044162,-0.65495,-0.06856,-0.023495,0.012532,0.035494,-0.01655
0.020864,0.020138,0.14957,0.061736,0.0073277,-0.020084,-0.043556,0.028677
0.0053162,-0.0029593,-0.02097,-0.042901,-0.0080069,-0.0059478,0.017842,0.0039176
-0.017809,-0.011924,0.1158,0.063485,-0.014791,-0.0074042,0.024656,-0.012476
-0.0015781,0.024565,-0.1969,-0.001292,0.002563,-0.016435,-0.046259,0.0030776
0.01493,-0.018289,0.0572,-0.010206,0.020511,0.037482,-0.038406,0.0037261
0.00037056,-0.015149,0.16711,0.021312,-0.0080069,0.013893,0.040536,0.020615
-0.006356,-0.020245,-0.10243,-0.024042,0.018309,-0.0089932,0.049922,-0.024598
0.0023557,0.052888,0.090529,0.02522,-0.018044,-0.023386,-0.002629,-0.0072043
0.010669,0.0016615,-0.1159,-0.05023,0.0076025,0.0096449,-0.031522,0.0099832
-0.0050273,-0.025028,0.1114,0.0067847,0.0090195,-0.0038687,0.048757,0.011061
-0.005761,-0.01124,0.12136,-0.0074235,-0.013988,0.021743,-0.05908,-0.01198
-0.0071399,-0.011555,-0.15035,0.1099,-0.0067871,-0.015352,-0.011586,0.0032816
-0.0090302,0.012964,-0.024592,-0.063209,0.0072934,0.017432,-0.019824,-0.005607
0.0044242,0.054159,-0.15667,-0.065584,-0.026176,-0.020675,0.033469,-0.022856
0.0022616,-0.013484,-0.028537,0.032981,0.01817,-0.028156,0.046981,0.014283
0.016025,-0.0030472,0.066333,0.037893,0.0079164,0.010663,-0.057052,0.027973
0.0068967,0.022443,0.12384,-0.16728,-0.017517,0.002153,0.0030119,-0.004951
-0.0093382,-0.085804,-0.18876,0.06651,0.02805,0.063656,0.016578,-0.0061399
-0.0013739,0.0080543,0.38043,0.19267,0.004081,-0.031235,0.015134,0.0011133
-0.008317,-0.0083045,-0.26214,-0.077989,0.0042565,-0.0089533,0.053471,-0.0065705
0.00095635,0.03739,0.25694,0.027401,-0.010683,-0.010026,-0.11844,-0.013592
0.0028282,-0.0027996,-0.0027993,-0.023258,-0.0097538,-0.010947,0.022692,-0.0044248
-0.0029082,0.035659,-0.19347,-0.082465,-0.016656,-0.011674,0.015727,0.02077
0.0069768,-0.026607,-0.14667,-0.010376,-0.00034677,0.026872,0.0010464,0.0070982
-0.01458,-0.025452,0.010139,0.012877,0.0078121,0.010936,0.040923,0.0012067
0.033832,0.085836,0.15107,0.049794,0.031246,0.018614,0.010184,0.0028712
-0.027584,-0.083732,0.05051,-0.024199,-0.023723,-0.020447,-0.05219,-0.011531
-0.003568,0.043496,-0.16393,-0.013038,-0.0085309,-0.028152,0.0022896,-0.018677
0.0043138,-0.032951,0.027191,0.0060627,0.022281,0.018934,0.025369,0.004842
-0.0038918,-0.00092733,-0.098407,0.026174,-0.024902,-0.0041503,-0.013908,0.012216
0.018777,0.006585,0.31483,0.040176,0.014079,-0.011387,-0.15426,-0.0042314
0.0021253,-0.002549,-0.31606,-0.076542,0.022087,0.052012,0.20615,0.018177
-0.014648,-0.0046385,0.36187,0.043246,-0.032131,-0.056051,-0.049697,-0.02975
0.0076678,0.024149,-0.12831,-0.014817,-0.00018056,-0.007409,0.062494,0.016204
-0.01672,-0.056359,0.023807,0.037773,0.031925,0.026022,-0.043499,0.007704
-0.009556,0.058943,-0.2711,-0.096573,-0.045278,0.0050346,-0.063443,-0.023957
0.021439,-0.0046335,0.186,0.042319,0.02593,0.023131,0.14276,0.046208
-0.0018189,0.010887,0.2581,0.039684,-0.0045396,-0.021573,-0.20661,-0.031852
0.014394,0.0039513,-0.47248,-0.0191,-0.011765,0.0033973,0.052158,-0.0081996
0.0074907,0.013511,0.21042,0.021857,0.019809,-0.0038078,0.043922,0.0077373
-0.022663,-0.093433,-0.28048,-0.056328,0.012007,-0.0042899,0.057796,0.00030499
-0.0059047,0.02665,0.58608,0.019876,-0.011762,-0.021482,-0.046624,-0.0070624
0.0029365,-0.0014652,-0.36842,-0.038306,-0.0046174,0.015115,0.027886,0.0012695
-0.0040579,0.032928,-0.079423,0.050801,-0.02901,-0.011347,-0.046367,0.0018642
0.0042987,0.0045864,0.19,0.061131,0.024526,0.024564,0.0045206,0.010317
-0.003267,0.0069983,-0.10432,-0.077121,0.0076746,-0.0095231,0.0091296,0.01093
0.020126,0.063346,0.13389,-0.019735,-0.0091196,-0.0038658,-0.063405,-0.019853
-0.0036272,-0.092203,0.14107,0.1087,0.021138,0.026141,0.091861,-0.0040506
-0.011996,-0.014438,-0.55782,-0.15243,-0.034281,-0.028825,0.014065,0.0035053
0.010678,-0.00018938,0.55369,0.11899,0.019972,0.010806,-0.039114,0.026149
-0.0058754,0.036684,-0.32108,-0.037865,0.004188,0.004149,-0.083634,-0.022086
-0.014732,-0.02068,-0.096637,-0.091761,-0.027013,-0.002256,0.13002,0.0073118
-0.00020653,-2.5505e-05,0.51507,0.082111,0.027828,0.0068792,-0.06277,-0.010472
0.014325,-0.010377,-0.54996,0.0068174,0.004537,4.1457e-05,0.11092,-0.020469
0.0054831,0.042259,0.26108,0.017765,-0.011042,-0.01509,-0.052385,0.0089073
0.0045681,-0.0060954,0.22742,0.05183,0.020111,-0.0072422,-0.12312,0.0076724
0.0038069,0.055427,-0.43414,-0.024398,-0.026982,-0.023128,0.00046008,0.022956
-0.020204,-0.085863,0.20445,-0.062918,-0.019408,0.023444,0.060963,-0.015435
-0.012744,-0.01614,-0.14696,-0.03262,0.0039219,0.01555,0.035524,0.0096387
0.018408,0.030013,0.20653,0.019836,0.019738,0.00026097,-0.0049746,0.0042125
-0.0048472,0.0055985,0.077776,0.016887,-0.0030795,0.0088948,-0.01324,-0.024251
0.0034327,-0.019078,-0.28213,-0.0094247,0.013639,0.010113,-0.012555,0.0097615
0.0041552,0.010772,0.026951,0.043309,0.015138,-0.019747,0.043811,0.0042604
-0.010568,0.0015769,0.030524,-0.097651,-0.037828,-0.010681,0.022635,-0.0020517
0.021643,0.023863,0.13704,0.091509,0.041984,-0.0020703,-0.076661,-0.017222
-0.00092552,0.023151,-0.034326,0.040422,-0.034772,0.0058332,-0.028121,0.028986
-0.01593,-0.062895,-0.12265,-0.063904,-0.018335,0.0050872,0.097448,-0.019582
-0.0078774,-0.0076164,0.16202,0.082389,0.02865,-0.0042824,-0.059597,0.009199
0.0075255,0.001494,-0.10985,-0.076371,0.0046085,0.01697,0.047646,-0.0093071
-0.00098188,0.034654,0.014334,0.0057758,-0.0043974,-0.032407,-0.088309,-0.012179
0.0057278,-0.0020851,-0.013406,-0.038995,-0.013752,-0.0035879,0.040916,0.024433
0.0043505,0.01599,0.078946,0.0078495,-0.015333,0.03351,-0.032733,-0.0085069
-0.0049291,-0.0052062,0.12583,-0.033136,0.014619,-0.01453,0.089866,0.0064061
0.0015379,-0.0034963,-0.37406,0.10431,0.021681,0.00093353,-0.059505,0.0067355
-0.0072893,-0.018187,0.44555,-0.047668,0.0060114,0.0018161,0.058487,-0.0076074
-0.0077964,-0.0025134,-0.39234,-0.019395,-0.00893,0.0036067,-0.087454,-0.013401
0.0079439,-0.026738,-0.22368,0.018043,-0.0076348,-0.0017937,0.064821,0.020306
0.00089972,0.0030828,0.48304,0.010432,-0.013768,0.0086685,0.0069134,-0.00056251
0.025693,0.063804,0.071772,-0.0031035,0.0036294,0.011147,-0.01188,-0.0059923
-0.01158,-0.031757,-0.37939,0.0083221,0.020815,-0.018151,-0.062557,-0.019653
-0.017395,0.0057352,0.49629,0.083043,-0.0015334,-0.024779,0.11216,0.0051909
-0.0076306,-0.018854,-0.48953,-0.19396,-0.016718,-0.0088222,-0.10523,-0.0018252
0.017463,0.019535,0.099585,0.066923,0.0064492,0.02197,0.011843,0.014008
0.0029978,-0.0041496,0.45012,0.075758,0.005528,0.013092,0.049553,0.013691
0.0035347,0.01153,-0.32921,0.019466,-0.027126,-0.003963,-0.10885,-0.010507
-0.012208,-0.0038897,-0.19156,-0.055227,0.018102,0.010112,0.12311,0.0039881
-0.012915,-0.011468,0.027778,-0.030803,-0.0069574,-0.0069814,-0.011925,-0.028692
0.017188,-0.0034471,-0.3027,-0.02366,0.022931,-0.00042728,0.017661,0.032143
0.00018214,-0.011051,0.73273,0.0063893,-0.0092564,0.0063945,-0.061409,-0.0087471
-0.0012042,-0.01075,-0.10636,0.037178,-0.0018953,-0.02558,0.0086456,-0.0028319
-0.010198,-0.010248,-0.17785,-0.039494,0.013722,0.020799,0.0088872,-0.0046797
0.01242,0.045218,-0.066572,0.058476,-0.017218,-0.026397,0.0093377,0.0014783
-0.0035781,0.022829,0.03283,0.018951,-0.0089554,0.028092,0.0018583,0.00017454
0.0043064,0.0084215,0.042574,0.013626,0.014887,-0.0032768,-0.029476,-0.00062842
0.0047524,-0.013803,0.04092,-0.0050378,-0.0083461,-0.011163,0.016676,-0.00081328
0.0054546,-0.051846,-0.073651,-0.045835,0.0071893,0.012222,0.038641,0.0074916
-0.0093423,0.0035231,-0.23864,-0.055151,-0.0088383,0.0043671,-0.088568,0.00083072
-0.0084979,0.019448,0.39744,0.11451,0.013943,-0.019105,0.057064,-0.0052734
-0.015517,-0.011815,-0.21253,-0.084343,-0.010276,0.0043191,0.053905,-0.0031884
0.00082699,0.0036371,-0.045654,0.019923,0.0046123,0.019977,-0.10554,0.0068486
0.017106,-0.0043156,0.24869,-0.041285,-0.011517,-0.026781,0.086905,0.0089511
0.0098961,0.02699,-0.09645,-0.0097217,0.0040029,0.01252,-0.048099,-0.012754
0.010441,-0.011737,0.073516,0.10734,0.020035,0.0051004,-0.07275,0.011848
-0.02036,0.0044873,-0.15728,-0.03336,-0.025892,-0.017778,0.13035,-0.026732
-0.0044501,0.028686,-0.2515,-0.056563,-0.0088446,-0.0014455,-0.032497,-0.0035138
0.019035,0.01384,0.28939,0.061162,0.031945,0.01498,0.016759,0.026894
-0.0046439,-0.079236,0.2066,0.038293,0.0024828,0.023597,-0.10493,0.0021485
-0.01299,0.0072195,-0.20333,-0.024041,0.0040458,-0.014765,0.10207,-0.0072263
0.0018719,0.0076218,0.099012,0.022161,-0.0026979,-0.0064578,-0.026688,-0.00099897
-0.014617,-0.015418,-0.025847,-0.089004,-0.033573,-0.021867,0.047444,-0.0023852
0.000214,0.016349,-0.35731,-0.060666,-0.010543,0.0093034,-0.02742,-0.0033898
0.030914,0.040484,0.2945,0.068412,0.027374,0.0011581,-0.087424,0.0039189
-0.016131,-0.021197,0.033717,-0.0059208,-0.0055948,0.0084815,0.02361,-0.011672
0.015392,0.042045,-0.19204,-0.0095938,0.007991,0.0079649,-0.0067731,0.01228
0.00045184,-0.035723,-0.1077,0.11264,0.02936,0.0075555,0.12623,0.0053164
-0.029823,-0.028285,0.59984,-0.02948,-0.042767,-0.031695,-0.069461,-0.0015307
0.018126,0.040634,-0.35902,-0.0061883,0.010594,-0.00034126,0.015634,0.0071076
0.003448,-0.063475,0.20951,-0.036398,0.002099,0.023508,-0.079382,-0.00026438
-0.01158,0.042273,-0.25137,-0.034502,-0.021317,0.00074334,0.083009,-0.008207
0.01974,0.022242,0.36556,0.061613,0.026246,-0.0062421,-0.0049851,-0.0089903
