0.33868,-0.015202,0.37386,0.0083128,0.018532,0.007484,-0.056116,0.093375
0.052391,-0.0392,-0.25945,-0.030176,-0.01209,-0.029193,0.064757,0.15038
-0.0024908,0.022562,-0.12002,0.026108,-0.003531,0.013101,-0.0038933,0.42873
-0.31097,-0.025559,-0.23301,-0.026212,-0.018527,0.0088691,0.011856,-0.27968
0.19628,0.23763,0.43088,0.093718,0.0208,0.027804,-0.098281,-0.20522
-0.39616,-0.087249,0.057238,-0.075498,-0.018569,-0.0010503,0.08045,-0.36523
0.34752,0.022319,-0.25395,-0.05774,0.011688,-0.00010883,-0.02165,-0.35259
0.3942,-0.12963,0.55112,0.021647,-0.00562,0.014681,0.025526,0.68766
-0.10951,-0.22285,-0.65228,0.014035,-0.0078722,-0.12076,-0.098197,0.3546
0.15531,0.46208,0.051664,0.06004,0.036411,0.078241,0.16169,-0.18152
-0.4368,-0.2375,0.385,0.089526,0.0025464,-0.020527,-0.0703,-0.3523
-0.57267,-0.21812,-0.51478,-0.18622,-0.054417,-0.01006,0.05668,-0.40317
0.24173,0.51446,0.49837,0.022337,0.022132,0.063541,-0.19257,0.63709
0.41522,-0.41312,-0.75778,-0.042078,-0.017502,-0.064713,0.11085,0.26075
0.25503,-0.29687,0.5177,0.081961,0.022179,0.11338,0.091336,0.11408
-0.28398,0.36285,-0.26714,-0.011473,0.016197,-0.027112,-0.1342,-0.21285
-0.21713,0.59572,0.43346,0.013617,-0.012183,-0.041078,0.15314,-0.38059
0.11042,-0.3118,0.021532,0.0085371,-0.0086307,-0.093026,-0.046017,-0.29919
0.30521,0.035775,0.45133,0.050873,0.018539,0.019592,-0.066525,0.51318
0.44946,-0.1532,-0.19136,0.0071031,0.014069,0.077403,-0.031941,-0.069424
-0.71038,-0.48167,-0.49232,-0.092236,-0.014762,0.064204,-0.081301,-0.17924
-0.3096,0.081874,-0.25416,-0.060188,-0.029302,-0.075145,-0.072518,0.021164
0.15906,0.15655,-0.52654,-0.014184,-0.0063182,0.010668,0.26887,-0.02895
-0.021459,0.30017,0.87849,0.15526,0.0073539,-0.014279,0.14637,0.49207
0.43383,-0.14782,0.1438,0.034524,0.05105,0.022208,-0.0029215,0.10034
-0.08711,-0.059376,-0.077448,-0.157,-0.054456,-0.043342,-0.22691,-0.17324
-0.27407,0.20798,-0.15532,0.042372,0.011712,-0.014837,-0.15206,-0.087509
-0.16125,-0.095469,-0.37496,-0.05422,0.0079433,-0.024287,0.23561,-0.65151
0.17644,-0.15844,0.32825,0.014586,-0.034014,-0.016367,-0.18264,-0.014766
0.2243,0.337,0.75923,0.20982,0.10493,0.14983,0.037108,0.40787
0.39484,-0.24479,-0.27845,-0.21879,-0.098502,-0.018061,0.1202,0.31122
-0.12033,0.41393,-0.10652,0.16571,0.050939,-0.028527,-0.34853,0.41377
-0.4669,-0.501,0.032395,-0.043648,-0.025099,0.078336,0.75489,-0.2455
-0.23622,-0.56029,-1.0476,-0.12877,-0.037913,-0.17522,-0.39077,-0.43975
-0.042377,0.5025,0.46992,0.058366,0.019884,-0.016846,-0.09861,-0.73856
0.68949,0.14214,-0.2294,0.0020543,0.06974,0.1543,0.092211,0.58593
-0.17488,0.40732,0.10306,-0.00051066,-0.013714,-0.036974,-0.27853,0.52764
-0.18983,-0.27873,0.71469,-0.019016,-0.058855,-0.027782,0.25176,-0.16153
-0.095772,-0.2749,-0.18131,0.033256,0.020154,-0.020308,0.12323,0.059181
-0.015067,0.26985,0.35857,0.032044,-0.010999,-0.075732,-0.27788,0.0036409
0.00040728,-0.13802,-0.41384,-0.12371,-0.019301,0.0574,0.28672,-0.54601
0.4608,0.030971,-0.054695,0.12863,0.034594,0.044454,-0.26495,0.60597
-0.41374,0.087661,0.21414,0.0075453,0.0025356,0.011318,0.16434,-0.69664
0.15832,-0.08624,-0.32879,-0.042317,-0.0058831,0.067657,-0.31361,0.13951
0.16073,-0.069013,-0.20726,0.048484,0.0094328,-0.11502,0.028741,0.22299
-0.063792,-0.00033239,0.46498,0.0056207,0.025001,0.1108,0.49522,0.6777
-0.14108,0.19991,-0.14793,-0.085655,-0.037462,-0.11556,0.075343,-0.37251
0.030468,-0.19994,-0.24483,-0.0068991,0.0093246,-0.022058,-0.6101,-0.0064841
0.061495,-0.28291,-0.35724,-0.031404,-0.022343,0.061945,0.6525,-0.075628
-0.44395,0.46916,0.24281,0.036695,0.031478,0.080924,-0.62644,-0.46928
-0.037327,-0.098381,0.75197,0.034142,0.0067322,-0.12167,0.29079,0.32259
0.16733,0.21777,0.11536,-0.069475,-0.065179,0.040353,-0.15344,-0.83052
0.32837,-0.24779,-0.34942,0.085873,0.026952,-0.13535,0.071151,0.22098
0.28975,-0.013509,0.016199,0.16457,0.033458,0.17261,0.29375,0.60068
-0.044284,-0.036374,-0.65513,-0.20848,-0.0062779,-0.089265,-0.45155,0.52233
-0.55277,-0.11765,0.47061,-0.049312,-0.037331,0.095676,0.18307,-0.21017
0.079332,0.13686,-0.078241,0.047679,0.018518,-0.053159,-0.35269,0.603
0.24509,0.38776,-0.047155,0.06618,0.067451,0.050341,0.74963,-0.5417
0.32303,-0.14039,0.30279,-0.041257,-0.07044,-0.062896,-0.89829,-0.33269
-0.3375,-0.38522,-0.25805,0.060964,0.034209,0.012654,1.0396,-0.15619
-0.46273,0.39746,0.11902,-0.088133,-0.017391,0.088533,-0.76708,-0.42264
-0.39364,-0.44459,-0.41251,-0.058601,-0.061494,-0.22687,0.36461,-0.14474
0.41326,-0.3747,0.24625,0.079732,0.081371,0.34691,-0.48542,0.49064
0.49412,0.3631,0.19426,-0.016298,-0.018582,-0.31563,1.0983,-0.20869
0.43897,0.73511,0.53082,0.083525,0.013666,0.08234,-0.49921,0.21227
-0.28904,-0.37989,-0.60505,-0.11264,-0.063976,-0.05264,-0.66401,0.50847
-0.38523,0.14458,0.16128,0.090587,0.037682,0.061255,0.51784,0.21671
-0.11736,-0.21595,-0.31742,-0.010115,-0.0093892,0.049702,-0.0047612,-0.15765
0.096985,-0.43343,-0.27256,0.014527,0.013585,0.046126,-0.6702,0.1103
0.31625,0.33893,0.40178,-0.039117,0.044037,-0.050606,0.75736,-0.017005
-0.29135,0.29879,-0.13313,-0.038698,-0.0041055,-0.037174,-0.2824,-0.73479
0.20922,-0.30138,0.095989,0.031096,-0.021618,-0.015166,-0.48372,-0.11938
-0.31572,0.049734,-0.079806,-0.07202,-0.055459,-0.016007,0.80787,-0.071126
0.040979,0.13848,0.44151,0.081746,0.050672,0.09288,-0.061858,0.28045
0.00049542,-0.21548,-0.31894,-0.022973,-0.046751,-0.055906,0.60002,-0.17361
0.14444,0.18469,0.06374,0.043836,0.043285,0.06095,-1.0018,0.29737
0.18766,-0.33731,0.34111,0.10281,0.024397,-0.064363,0.80365,0.19936
-0.17087,-0.089237,-0.28217,-0.19733,-0.079477,-0.072342,-0.84465,0.21028
0.017049,0.46534,-0.053055,0.018619,0.021116,0.09971,-0.16601,-0.22747
-0.067086,-0.13761,-0.2,0.016434,0.02167,-0.087078,0.74773,0.18615
-0.11025,0.081885,-0.080626,0.038396,0.0080215,0.07831,-0.60618,-0.21905
0.19933,0.1566,0.22446,0.068928,0.073534,0.072334,-0.16486,-0.2079
-0.15582,-0.52342,-0.4329,-0.071648,-0.071474,-0.13657,0.73868,0.071946
0.048199,0.19558,0.29248,-0.031784,-0.037106,0.052681,-0.031748,-0.32348
0.32386,0.34096,0.20608,0.040052,0.082206,0.17863,-0.41652,0.35011
-0.29292,-0.20122,0.25931,0.0031902,-0.049961,-0.26694,0.7296,0.0015852
-0.023599,0.13497,-0.36582,-0.072135,-0.011905,0.11424,-0.67566,0.00064705
0.02849,-0.55231,-0.1245,-0.037632,-0.045633,-0.021359,-0.098539,0.32546
-0.19974,0.10235,0.18026,0.083021,0.021227,-0.14194,0.43883,-0.84432
0.28461,0.59911,0.35185,0.14886,0.040936,0.14394,-0.78212,0.247
0.069378,-0.13799,0.19243,-0.020213,0.02206,0.0090219,0.6832,0.76706
-0.14732,-0.14425,-0.60451,-0.12768,-0.011314,0.0087039,0.22399,-0.071321
-0.10447,-0.54766,-0.10069,-0.048757,-0.019702,-0.075423,-0.23181,-0.19666
-0.25987,0.24271,-0.22116,-0.0725,0.0048361,0.069003,-0.11554,-0.31038
0.47493,0.46545,-0.042936,0.16855,0.023069,0.027302,0.23575,-0.4167
-0.062685,-0.18161,0.50138,0.042026,-0.012292,0.032879,-0.17034,0.75649
0.44779,-0.24514,-0.33086,-0.18593,-0.039321,-0.0013036,-0.42679,0.19567
-0.51819,0.21779,0.14033,0.071015,0.019482,-0.076215,-0.20394,-0.72666
-0.072198,0.42918,0.29708,0.086487,0.030723,-0.075271,0.73432,0.012685
-0.15464,-0.35128,0.26926,-0.014628,-0.02949,0.0092344,-0.17325,-0.1326
-0.057903,0.089057,-0.17557,0.06416,-0.0051825,-0.041061,0.44074,-0.10052
0.25369,0.010838,-0.26488,-0.10739,-0.005803,0.10271,-0.065488,0.73064
0.43318,-0.37778,-0.25188,0.017048,0.054706,0.089847,-0.56931,0.22072
-0.092446,-0.38156,-0.43022,-0.11765,-0.042121,-0.031984,-0.15195,-0.11071
-0.31721,0.37697,0.50755,0.066484,0.0088009,-0.05914,0.6678,-0.0055502
0.1021,0.15198,0.44744,0.022692,-0.042078,0.07108,0.012417,-0.23889
-0.22411,-0.090883,0.25323,0.087304,0.032245,-0.10236,-0.5492,-0.14024
-0.043183,0.41792,-0.29529,-0.051591,0.021202,0.013994,-0.314,0.1352
-0.015222,-0.12407,-0.14246,0.059841,0.01099,0.005702,0.71136,-0.040218
0.2082,-0.0057464,-0.065876,-0.093277,-0.021703,-0.0025842,-0.072691,-0.6879
0.045702,-0.049004,-0.73925,-0.033672,-0.022189,0.098268,0.086136,0.26095
0.16502,-0.022046,0.12592,0.043915,0.040685,-0.082461,-0.091386,0.3232
-0.4551,0.025737,0.13812,-0.094564,-0.028545,-0.060335,-0.29147,-0.20238
0.59201,-0.30558,0.35682,0.08992,0.012129,0.086706,-0.18572,0.65337
-0.31205,-0.21895,0.53313,-0.020293,-0.032775,-0.023888,0.53753,-0.096721
-0.044785,0.71728,0.22641,0.15983,0.016272,-0.024663,0.18121,0.13423
0.062512,-0.50915,-0.0077938,-0.034996,-0.012754,0.014278,-0.2882,-0.4771
-0.2825,-0.20678,-0.63952,-0.035785,0.051879,0.093043,0.34586,0.055433
0.050099,0.37808,-0.29501,-0.14835,-0.024345,-0.093064,-0.55083,-0.21328
0.23784,0.49791,-0.28576,0.048508,0.024075,0.018346,-0.15799,-0.0017659
0.23255,0.091052,0.80713,0.070419,-0.0060679,-0.0025835,0.32281,0.27747
-0.16935,-0.80442,-0.75718,-0.011631,-0.013216,0.0002096,-0.027244,0.31581
-0.35814,0.035599,0.37791,-0.055776,-0.044158,-0.051575,-0.22763,-0.45827
0.08116,0.11546,0.094573,-0.029234,-0.012784,0.037219,0.47574,-0.16052
0.14981,0.064121,-0.045175,-0.032106,0.010803,0.00082544,-0.57783,-0.07649
-0.041468,0.11219,-0.31715,0.085077,0.050223,0.034406,0.62138,0.087546
0.11003,0.20163,0.48383,0.033579,0.011816,-0.01845,-0.10616,0.37542
0.12076,-0.72494,0.43398,0.10197,0.028356,0.037418,0.05051,0.080087
-0.094706,0.48673,-0.33934,0.031251,-0.048748,-0.016848,-0.067657,-0.20231
-0.082915,0.22604,0.41412,-0.039558,0.014664,-0.025003,-0.2843,0.28678
-0.0075738,-0.44505,-0.6726,-0.2214,-0.047227,-0.072854,-0.01662,-0.297
-0.086886,-0.026397,0.059109,0.12525,0.038914,0.074245,-0.0013402,0.11536
-0.070083,0.25622,-0.4236,-0.23438,-0.047196,0.010416,0.041498,-0.29779
0.16869,0.084003,-0.055286,0.20017,0.0070883,-0.029573,0.1976,-0.068572
-0.033972,0.26396,0.29616,0.086241,0.022288,0.0092745,0.32696,-0.033089
-0.12321,-0.23973,-0.10169,-0.16846,-0.0092209,-0.013524,-0.70217,-0.050392
0.33008,-0.71971,0.50373,0.17186,0.045466,0.011326,0.37707,0.62995
-0.24579,0.56338,-0.050672,-0.11052,-0.0090079,0.052269,-0.21551,0.00025535
0.24095,-0.12731,0.31865,0.17231,0.022493,0.046347,-0.24489,-0.28366
-0.079035,0.1116,-0.63723,-0.089256,-0.039965,-0.092877,0.96092,0.050717
-0.082497,-0.11462,-0.11696,-0.11477,-0.016929,-0.006429,-0.48125,-0.052469
0.15166,0.28947,0.52862,0.079012,-0.0022784,-0.046057,0.14662,-0.00045048
-0.22754,-0.16915,-0.17095,0.068985,0.027453,0.05396,-0.61724,-0.18433
-0.22587,0.1545,-0.19472,-0.08339,-0.036914,-0.04196,0.038948,-0.049255
0.12075,-0.12814,0.096342,-0.14443,-0.015375,0.049522,0.26312,-0.024234
0.073707,-0.032134,0.14057,0.20591,0.053365,0.016472,0.20347,0.19633
0.01888,0.10666,-0.042054,-0.13378,-0.033525,-0.05471,-0.022809,0.31632
0.16889,-0.00010226,-0.036862,0.094743,0.052233,0.078419,0.1314,-0.15606
-0.015639,-0.15477,-0.41745,0.087429,0.021543,-0.0060177,-0.15359,0.060397
0.11905,-0.15731,-0.066808,-0.17067,-0.071115,-0.04264,-0.10321,-0.22208
-0.07194,0.26526,0.57138,0.13362,0.031745,-0.00061682,-0.0047369,0.050969
-0.054842,-0.17401,0.04572,-0.038167,-0.029603,-0.044507,-0.066826,-0.18286
0.05575,0.23996,-0.28415,-0.02139,0.03361,0.05178,-0.18545,0.23315
-0.4474,-0.18278,0.38387,-0.049917,-0.03659,0.084758,-0.20235,-0.38002
0.20694,0.079078,-0.7689,0.017315,0.009788,-0.1489,0.36773,0.18904
0.12046,-0.13342,0.89603,-0.061579,-0.022432,0.046115,0.85215,0.11198
-0.016987,-0.10552,-0.51736,0.06505,0.023229,0.013683,-0.42362,-0.096887
0.0096469,0.50084,0.41296,0.084499,0.045468,-0.011557,-0.62779,0.53653
-0.044508,0.061034,-0.36064,-0.034993,-0.025802,0.025382,0.6879,-0.084905
0.044576,-0.37131,0.091335,0.057369,-0.018561,-0.047099,-0.8874,-0.39447
-0.0075567,0.06127,-0.14353,-0.03774,0.020371,0.083699,0.643,0.018948
0.021119,-0.080755,0.36887,-0.0086507,-0.018412,-0.058687,0.019957,-0.057017
-0.031927,0.013566,-0.36399,-0.1216,0.021249,0.049192,-0.25559,0.0032616
0.18454,-0.093964,-0.74594,-0.10345,-0.040456,-0.053635,-0.14156,-0.13338
-0.144,0.3234,0.97732,0.163,0.015092,0.046859,0.13216,0.068788
0.049412,-0.39767,0.052972,0.17015,0.054952,-0.063386,-0.13247,0.28703
-0.22371,-0.37359,-0.51453,-0.23798,-0.13975,-0.06401,0.51458,-0.12966
0.047887,0.98957,0.59033,0.18888,0.1418,0.13881,-0.06378,0.1197
0.047649,-0.23088,0.26719,0.03679,0.0010392,-0.0095574,-0.10791,-0.30642
0.069106,-0.20884,-0.25774,-0.23322,-0.077773,-0.048196,0.0071942,-0.095529
0.024061,0.1622,-0.36063,0.07424,0.014648,-0.0084712,-0.47792,0.71117
0.07569,-0.019321,-0.1285,-0.0016025,0.012645,0.023468,0.42615,-0.1557
0.037209,0.2129,0.063515,0.016105,0.0022142,-0.069825,0.16128,-0.052153
-0.073321,-0.25147,-0.11154,-0.028472,0.030407,0.28173,-0.68227,-0.50579
-0.072112,-0.6144,-0.073125,0.044861,-0.01184,-0.24228,0.908,0.082081
-0.11781,0.43988,0.64288,0.056962,-0.014705,0.084813,-0.60932,0.10108
-0.24338,-0.1618,-0.14782,0.0083589,-0.032329,-0.2132,0.21756,0.036645
0.033577,0.29715,0.041779,-0.022355,0.0061807,0.028298,0.27128,-0.14744
0.45976,0.11874,-0.1071,-0.152,-0.0080373,0.16931,-0.83788,0.33405
0.045238,-0.076345,-0.32857,0.080537,0.034715,-0.0083779,0.64963,0.18861
-0.069911,0.18952,0.31388,-0.10607,0.017267,0.073585,-0.62331,-0.07199
0.18122,-0.42127,-0.1663,0.13144,-0.03731,-0.084956,0.97834,-0.57767
-0.31641,0.063649,-0.20194,-0.012564,0.026468,-0.054886,-0.48113,0.19633
-0.022906,0.17728,0.54678,0.11675,-0.026876,-0.055868,0.038421,-0.17245
4.4668e-05,-0.056097,-0.32303,-0.044848,0.059175,0.16099,-0.36116,0.51645
0.012164,0.13802,0.14498,0.078972,0.025516,-0.077328,0.67133,-0.10107
0.21268,-0.12084,-0.10033,-0.18513,-0.066418,0.056338,-0.24763,-0.062595
-0.43886,0.085866,0.28145,0.029227,-0.029757,-0.055852,-0.1813,-0.1722
0.082064,-0.41435,0.015024,-0.012204,-0.028625,0.015587,0.1824,0.42248
0.020857,-0.088053,-0.8214,-0.19115,-0.015591,-0.11966,-0.65659,-0.11228
0.37433,0.56151,0.55561,0.20524,0.11201,0.13295,0.5677,0.079894
-0.071026,-0.23288,-0.068582,0.093402,0.019739,0.0089967,0.043254,-0.41466
-0.013286,0.2778,0.045896,-0.016431,-0.02511,0.0021423,-0.10458,-0.24031
-0.17475,-0.29063,0.061404,-0.098766,-0.083414,-0.034513,0.3898,0.0086526
-0.1696,-0.065828,0.25716,0.027453,-0.044453,-0.099537,-0.41935,0.18529
0.027146,-0.036769,-0.65134,0.034614,0.1239,0.19883,0.10003,0.46338
0.26696,0.30531,0.12755,0.0082959,6.1781e-05,-0.10746,-0.13096,-0.031522
0.16545,0.35749,0.58613,0.088018,-0.0022741,-0.072985,0.34804,-0.20014
-0.20214,-0.64134,-0.4032,-0.33722,-0.071572,0.051793,-0.60371,-0.20479
-0.081718,-0.38346,0.16231,0.16039,0.048562,0.039253,0.24066,0.132
0.061734,0.32881,-0.57596,0.19623,0.051794,0.036329,0.34279,0.11699
-0.05688,0.39632,0.20985,-0.23121,-0.055646,0.12722,-0.43713,0.19518
-0.11261,0.54113,0.84772,0.45526,0.12344,-0.18194,0.44846,-0.0096075
0.087644,-0.46623,-0.14534,-0.49464,-0.17725,-0.001868,-0.48445,-0.060313
-0.082202,-0.84523,-0.50726,-0.18976,-0.082685,-0.12237,0.34999,-0.73634
0.2607,0.21831,0.098345,0.17569,0.071902,0.073696,0.20128,0.4518
0.086234,0.51731,0.2233,0.56421,0.16272,0.15727,-0.5876,0.16911
0.052759,-0.26336,-0.85764,-0.46012,-0.1213,-0.18305,0.20908,-0.080254
-0.36016,-0.18859,-0.23402,-0.060043,-0.036629,0.015024,0.49692,-0.57123
-0.031691,0.14436,0.27875,-0.062977,0.027036,0.096537,-0.95098,0.60946
-0.15321,0.034528,0.73064,0.14816,0.093451,0.11722,0.77948,0.077473
0.1461,0.45795,0.18314,0.056744,-0.01744,-0.047277,-0.25665,0.21201
0.0095564,0.11465,0.30931,0.043829,-0.025367,-0.076367,-0.19945,-0.11051
0.32893,0.054572,-0.34072,0.099359,0.013604,-0.1967,0.24065,-0.33693
-0.18558,-0.53206,-0.19806,-0.1383,-0.011374,0.099198,0.017005,-0.3697
0.21346,-0.50073,-0.31358,-0.11621,-0.054669,0.029525,-0.026752,0.5434
0.21754,0.35788,0.26167,0.024229,0.039223,0.25764,-0.18805,0.35731
-0.46673,-0.095798,-0.63071,0.11942,0.0045855,-0.22508,0.22758,-0.35492
-0.17908,0.071368,0.22155,-0.34454,-0.11113,0.010162,0.26609,0.34116
-0.17992,0.15319,0.37845,0.16624,0.052533,-0.03751,-0.20603,-0.57019
0.25636,0.18561,0.067785,0.15485,0.067274,0.029578,-0.15772,0.039176
0.099078,-0.031172,0.020038,0.0069877,0.012559,0.038968,-0.54951,-0.24665
-0.0016461,-0.24612,-0.28282,0.029473,-0.03245,-0.0018712,0.46335,-0.18559
0.12828,0.24225,-0.29611,-0.065767,0.018712,-0.093022,0.13208,0.34732
-0.032357,-0.24973,0.32094,-0.12278,-0.044954,0.039132,0.23124,0.3581
0.23714,0.53029,0.95458,0.24759,0.072822,0.098135,-0.011933,0.31838
-0.17101,-0.31399,-1.0338,-0.19917,-0.043001,-0.087246,-0.34739,0.094283
-0.20076,0.040973,0.55973,0.065455,0.051781,0.10883,0.28691,-0.40482
-0.17112,-0.071193,-0.38922,0.015393,-0.042236,-0.1095,-0.43009,-0.27217
-0.11215,-0.27489,-0.16111,-0.070196,-0.02095,-0.014504,0.36026,-0.086424
0.43025,-0.34793,-0.1371,-0.012811,-0.040657,0.012222,-0.29563,-0.034993
0.011189,0.19957,0.27118,0.21088,0.031975,0.073423,0.29748,0.22006
-0.096401,0.42854,0.23837,-0.18721,-0.044257,-0.15805,-0.35224,-0.097781
-0.034772,0.10226,-0.95206,-0.11148,0.036564,0.052763,0.58403,0.33948
0.17773,-0.15858,0.85686,0.0029433,0.025635,0.080934,-0.1272,-0.22337
-0.017103,0.34219,-0.12539,0.18195,0.048857,0.05872,-0.79742,-0.055041
-0.20893,0.095176,0.65194,0.029109,-0.041804,-0.093147,0.7618,0.069249
0.083349,-0.42632,-0.114,-0.10279,0.019104,0.08468,-0.019096,-0.086238
0.091985,0.1725,-0.46924,0.10677,-0.026936,-0.13615,0.086872,0.078194
-0.019423,-0.60347,-0.24856,-0.046158,0.029934,0.12549,-0.69375,-0.2375
-0.10883,0.080375,-0.40223,0.038367,0.016603,0.001103,0.099468,0.39913
-0.0089867,-0.033433,0.76271,-0.024544,-0.068089,-0.15847,0.59048,-0.13635
-0.16081,0.18163,-0.41727,-0.18233,-0.045351,-0.009544,0.10599,0.099852
-0.12199,0.76644,0.5141,0.28195,0.060859,-0.012512,-0.12124,-0.012681
0.43981,-0.69983,-0.30542,-0.32828,-0.054282,0.13046,-0.17856,-0.10319
-0.10553,-0.0066025,-0.1513,0.087973,0.062533,0.10021,-0.14498,0.13634
0.031601,0.1956,0.0055546,0.11664,0.02887,0.0072342,-0.52064,-0.62618
0.35731,0.34081,0.94331,0.00036738,0.0092492,-0.10845,0.8435,0.53598
-0.22574,-0.41878,-0.43629,0.060229,-0.042759,-0.082083,-0.59056,-0.08978
-0.15961,0.045997,-0.77219,0.015883,0.0060596,-0.069437,0.63921,0.08205
-0.12069,-0.048312,0.29501,-0.12385,0.015443,0.18752,-0.013344,0.020802
-0.088906,-0.20951,-0.32218,-0.092221,-0.045492,-0.037786,-0.14181,0.0089797
0.043563,0.18204,0.87319,0.33855,0.1049,-0.0034152,0.02686,-0.13156
0.29295,-0.23622,-0.43568,-0.33022,-0.15011,-0.014529,-0.43773,-0.18057
-0.072555,0.29165,0.30841,0.051233,0.041479,0.068836,0.049609,0.26932
-0.048955,0.092084,-0.26739,-0.047187,-0.046489,-0.19941,0.27737,-0.078135
-0.069153,-0.30644,-0.051194,0.078397,0.094033,0.14869,0.081224,0.14424
-0.19136,0.32556,0.31241,0.099988,0.048968,0.096836,-0.12467,0.037524
0.22029,-0.035189,-0.12374,-0.0065083,-0.002307,-0.058569,0.1757,-0.055212
0.13572,-0.50864,-0.49938,-0.19567,-0.13069,-0.044227,-0.0014005,-0.12668
-0.14156,0.82186,0.43138,0.22572,0.061475,-0.094287,-0.27235,0.19028
0.095949,-0.18319,0.088819,0.059926,0.042109,-0.051935,-0.5191,-0.54108
0.1087,-0.046307,-0.43332,-0.085983,-0.025456,0.1305,0.83717,0.47754
-0.10152,-0.28096,-0.10343,-0.16688,-0.016715,0.11014,-0.1329,-0.29099
0.14711,0.43781,0.37465,0.10545,0.021294,-0.096655,0.086122,0.10055
-0.25897,-0.76503,-0.095856,-0.12026,-0.059669,0.018405,-0.01431,0.35674
-0.040285,-0.23005,0.79914,0.032289,0.0065335,0.0023499,-0.0056084,0.0093867
-0.13324,0.54059,-0.47343,0.072992,0.03312,-0.07468,-0.48272,-0.34053
0.1925,0.30368,-0.098066,-0.034809,-0.0025762,0.1072,0.35023,-0.15564
-0.28386,0.01886,-0.11289,0.14863,0.0016686,-0.16353,-0.093293,0.084896
0.24888,-0.11371,-0.60375,-0.13282,0.022846,0.073418,-0.039962,0.25298
0.10141,-0.013569,0.39848,0.012288,0.0064014,0.075282,0.26835,0.0017478
-0.003218,-0.39983,-0.026479,-0.025476,-0.032188,0.0056836,-0.10518,0.00049298
0.33527,0.90447,0.81229,0.29993,0.10205,0.044111,0.14504,0.16966
-0.3136,-0.40182,-0.040455,-0.12998,-0.099122,-0.15307,-0.27674,-0.20149
-0.21846,-0.58133,-0.68586,-0.30104,-0.050114,0.023957,-0.0020284,-0.50154
0.30381,0.60381,-0.17563,0.082321,0.030114,-0.017795,0.056512,0.44516
-0.27494,-0.80275,-0.059081,-0.17614,-0.03816,0.089792,0.11904,-0.23923
0.11168,0.65825,0.32722,0.29017,0.034229,-0.15235,-0.19603,-0.09637
0.25034,0.0568,0.42883,0.074744,0.067746,0.11588,0.0027583,0.27662
-0.1015,0.11244,-0.11365,0.075894,0.054687,0.12917,0.29374,0.39029
-0.39537,-0.40003,-0.79383,-0.13608,-0.098689,-0.10489,-0.18297,0.20603
-0.081329,0.15375,0.32972,0.0092489,-0.0096862,-0.1261,-0.084928,-0.70771
0.17231,0.017324,0.24997,-0.1441,-0.014453,0.11124,0.10153,0.36403
-0.045581,-0.37862,0.18304,-0.14247,-0.019502,0.097871,0.084941,-0.48211
0.25067,1.0369,-0.080062,0.4446,0.10771,-0.17547,-0.16846,-0.32959
0.25536,-0.61855,0.13208,-0.31165,-0.093972,0.094665,0.089041,0.52753
0.26206,-0.0085773,-0.65098,0.14442,0.09405,0.024693,0.058899,0.38981
-0.24972,-0.01536,0.51466,0.087048,-0.031388,-0.14339,-0.087833,-0.026909
-0.42578,-0.7395,-0.38633,-0.35046,-0.11864,0.075238,-0.069728,0.13543
0.19071,0.67957,0.52436,0.19918,0.10591,0.1113,0.075302,-0.41173
-0.60519,0.49296,-0.0040061,0.2122,-0.013679,-0.23688,-0.17427,-0.52534
0.14062,-0.60332,-0.74934,-0.21053,-0.023975,0.12608,0.19173,0.29866
0.49425,0.2189,0.34228,0.00034331,0.036271,0.061116,0.050664,-0.059604
-0.01541,0.037067,0.31186,0.093825,-0.0045688,-0.032087,-0.072009,-0.032429
0.1646,0.17027,-0.28266,-0.048147,0.041161,0.034722,0.09073,0.81419
-0.21025,-0.17985,-0.26661,-0.035538,-0.053043,-0.097652,-0.12455,-0.33739
-0.3002,-0.67873,0.39964,-0.2514,-0.07627,0.07823,0.078935,0.16975
0.14627,0.50849,-0.1542,0.28094,0.1042,0.0068482,0.013003,-0.28263
0.34691,0.12332,0.45477,0.085247,-0.019578,-0.039489,-0.081209,-0.14203
