0.019503,0.10703,0.03697,0.038403,0.016777,0.021716,0.023687,0.23309
0.074547,0.036152,0.11767,0.015522,-0.00030387,0.0047899,-0.0010857,-0.10668
0.13377,-0.13568,-0.1093,-0.038487,-0.0095539,0.0037212,-0.024653,0.15208
-0.10357,-0.13573,0.0019437,0.008971,0.020376,-0.0048114,0.031088,0.17912
0.077332,-0.06602,-0.18304,-0.022036,-0.0042053,-0.0051222,-0.021541,-0.36412
-0.029824,0.38609,0.27297,0.024536,0.010465,0.0027868,0.012466,-0.15178
-0.37985,-0.27851,-0.058385,0.0079508,-0.02157,-0.020207,0.038973,-0.2007
0.074251,-0.042674,-0.34621,-0.0014433,-0.0065848,0.019543,-0.036176,0.59088
-0.11099,0.0095557,0.14764,0.012188,0.024159,0.028157,-0.033656,-0.072336
0.34089,-0.15129,0.01313,-0.044531,-0.0074345,-0.017931,0.10096,-0.00025673
0.15987,0.41343,0.19119,0.00076336,0.00026693,-0.017261,-0.14811,-0.24465
-0.27608,-0.13996,-0.027055,-0.015478,-0.022944,-0.01677,-0.015263,-0.42022
0.12088,-0.054914,-0.00077731,0.00091095,-0.0066406,-0.00084271,0.14018,0.31804
0.062143,0.18169,-0.067738,0.042315,0.025823,0.038366,-0.033246,0.50087
-0.13286,-0.13672,0.026351,0.0070582,0.0041527,-0.00064498,0.042678,-0.022689
0.049565,-0.060742,0.28475,0.0040616,0.0063986,-0.0084284,-0.014752,-0.06148
0.091441,0.14843,-0.14098,0.040402,0.024575,0.0072736,-0.041334,0.19982
-0.025048,-0.23027,-0.53593,-0.072304,-0.058755,-0.031602,-0.052496,-0.34498
-0.317,0.036726,0.35548,0.016659,0.013934,0.031249,0.053598,-0.34739
0.1214,0.27067,0.33781,0.080113,0.023616,-0.015072,-0.16023,-0.12055
-0.0060642,-0.36183,-0.60264,-0.14781,-0.022111,0.0013272,0.1579,0.30636
0.1537,0.13513,0.24084,-0.002838,-0.0061822,-0.01332,0.1176,0.20337
-0.092591,-0.038893,-0.18976,0.023418,0.008885,-0.012209,-0.023202,-0.45495
-0.0085183,-0.075251,0.11773,0.0021126,0.0075547,0.027968,0.016771,0.53281
0.25921,0.20866,0.24477,0.074759,0.0056304,0.0054663,-0.23129,1.0023e-05
-0.046072,-0.18583,0.021115,-0.023526,-0.004456,0.037267,-0.025284,0.30177
-0.15819,0.33449,0.0010618,0.020216,-0.0067979,0.021634,0.079998,-0.80261
-0.014698,0.14243,0.18248,0.088929,0.01452,-0.088387,0.24844,0.52222
-0.16297,-0.30438,-0.43005,-0.11441,-0.026175,-0.011475,-0.23904,-0.39015
-0.1352,-0.15801,-0.11346,-0.06668,0.011952,0.0025998,-0.11735,-0.19962
0.46566,0.086265,0.16846,0.036444,-0.011609,0.0010647,0.27689,0.44875
-0.05755,0.012463,0.26568,-0.039734,0.0047013,0.031176,-0.088369,0.23772
-0.089935,-0.49698,-0.66561,0.032656,0.0060564,-0.00052036,0.22373,-0.23563
0.092495,0.73872,0.57136,0.081536,0.023438,-0.0079729,-0.10739,0.087496
-0.16122,-0.20793,0.041622,-0.057353,-0.01383,0.024319,-0.12048,-0.092217
0.15469,0.0017848,-0.51736,0.014218,0.018858,0.05695,-0.54109,-0.11148
-0.11712,0.1284,0.61614,0.10074,-0.019467,-0.051176,0.64797,-0.2037
-0.023303,-0.028991,-0.0087131,-0.094806,-0.019649,-0.050525,0.057855,-0.077309
0.28941,-0.35183,-0.40641,-0.025526,0.026091,0.066399,-0.81773,0.54463
-0.31649,0.035173,-0.21785,-0.050588,-0.04614,-0.098896,0.94387,-0.37318
-0.10247,0.26404,0.35985,0.0022897,0.014,0.031957,-0.040424,0.64914
-0.18905,-0.034243,-0.082703,0.039899,0.0038268,0.0063301,-0.14692,-0.61268
0.29496,0.12989,0.41907,0.047163,0.017531,0.043605,0.13016,0.28761
0.15691,0.12061,0.087179,-0.0067441,0.024206,-0.0040411,-0.32076,0.021449
0.13968,-0.40098,-0.30125,0.050236,-0.0072187,-0.04242,-0.2593,-0.69411
-0.062916,-0.031044,-0.12411,-0.055442,-0.014265,0.01455,0.31367,0.20072
-0.087073,-0.38048,-0.6637,-0.050726,-0.0049431,-0.020827,0.023322,0.35877
0.046994,0.65967,0.5185,-0.022151,-0.01083,0.16343,0.12081,0.1982
-0.25927,0.26979,0.15973,0.053009,-0.0010509,-0.12872,-0.1265,0.20776
0.2401,-0.29838,0.10777,0.049043,0.031857,-0.01525,-0.30275,-0.036882
-0.42614,-0.010947,0.031137,-0.019017,-0.013922,-0.012467,0.36687,-0.81772
0.28049,-0.30987,0.019913,0.035959,0.0099369,-0.034848,-0.20307,0.37458
0.1426,0.19925,-0.22728,-0.067336,-0.029335,0.16753,0.56501,-0.45607
-0.23542,-0.11268,0.40118,0.030767,0.0090738,-0.17067,-0.36161,0.32119
0.22048,0.12459,-0.65609,-0.14568,-0.030811,0.060451,-0.14118,0.43979
-0.0014939,-0.306,0.030639,0.060387,0.0075502,-0.060292,0.23993,-0.21864
-0.19492,0.38434,0.27288,0.056066,0.054069,0.03805,-0.21965,0.12441
0.0095352,0.068019,-0.0015728,0.021715,-0.016166,0.090302,-0.020208,-0.6145
0.18291,0.0058945,0.34519,0.059237,0.0077059,-0.10652,-0.05922,0.3764
-0.050622,-0.19123,-0.30728,-0.042366,-0.015161,0.095834,0.25911,-0.09436
0.24431,0.34474,0.10789,0.036801,0.03212,-0.03747,-0.50787,0.86496
-0.42755,-0.28296,-0.3265,-0.10233,-0.038237,0.094556,0.4316,-0.44923
0.15691,0.17949,0.28562,0.031751,0.007963,-0.14922,0.024843,-0.49846
-0.075835,-0.42499,-0.53356,-0.061462,-0.032406,-0.019079,0.077482,0.1636
-0.12831,-0.015444,0.65351,0.024021,0.0049141,-0.0071269,0.089142,0.14248
0.39651,0.21912,-0.089257,0.061681,0.010906,0.0433,-0.16043,0.039753
-0.20463,0.045329,-0.12648,-0.01068,0.0094489,0.062555,-0.24379,-0.093753
0.16322,-0.20668,0.021991,-0.01291,0.016586,-0.0658,-0.053919,-0.39933
-0.185,-0.090339,0.19634,-0.0148,-0.022071,0.010444,0.53214,0.045942
0.011893,0.31503,-0.20825,0.030998,0.010767,-0.0052007,-0.40874,-0.24933
-0.2266,0.19195,-0.0077684,0.054518,0.029051,0.051375,-0.048799,0.59622
0.072107,-0.26579,-0.43317,-0.10813,-0.022217,0.086123,0.19847,0.29616
0.22369,0.38926,0.064169,0.027381,0.012774,-0.13589,-0.1657,0.67684
0.081678,-0.35164,0.3977,-0.070423,-0.053961,-0.029411,0.16504,-0.71272
-0.001922,0.16544,0.16557,0.09021,0.01932,0.0064759,-0.0028975,-0.13057
-0.075127,0.024642,0.064753,0.024322,0.0057187,0.057212,0.12886,-0.50694
0.086157,-0.28129,0.22772,0.012492,-0.0012092,-0.018101,-0.20421,-0.059375
-0.29482,-0.021571,-0.29187,0.03063,0.02193,0.0070564,0.17036,0.4666
0.036147,-0.2113,-0.33789,-0.10928,-0.010712,-0.046862,-0.53648,-0.21755
0.013223,-0.072763,-0.33752,-0.016858,0.010436,0.046955,0.27621,0.32189
0.071241,0.4165,0.41074,0.0032717,-0.023738,-0.00028709,0.099436,-0.47115
0.028816,0.045474,0.29238,0.053084,0.0042577,-0.016495,0.31426,0.08247
0.29163,-0.16332,-0.037636,0.05513,0.00097847,-0.0093547,-0.011097,0.73143
0.071215,0.4276,-0.24172,-0.083523,0.0057661,0.1618,-0.19909,-0.42616
-0.5526,-0.078538,-0.58253,-0.041753,-0.0045896,-0.19838,-0.55617,-0.34979
-0.1476,-0.36281,0.58299,0.056094,0.0091334,0.027293,0.44782,0.47448
-0.0078063,0.21159,0.16121,0.022901,0.015772,0.034146,0.1643,0.07364
0.27557,-0.094901,-0.30468,-0.0084595,-0.023714,-0.068343,-0.093461,-0.1051
0.21182,-0.068866,0.7084,0.0477,-0.015605,0.079361,-0.042673,-0.23208
0.074284,0.027558,-0.27306,0.011228,0.040036,0.047749,-0.19697,0.10138
0.01736,-0.0034499,-0.038386,-0.071544,-0.028753,-0.092722,0.26602,-0.2098
-0.18879,0.033129,-0.097314,-0.0057776,-0.011146,-0.029493,-0.16754,0.19258
-0.1497,-0.087429,0.21262,-0.065207,-0.0010258,0.12019,0.20669,-0.17475
0.14657,0.20085,-0.87372,0.046954,0.024873,-0.073535,-0.17336,-0.12932
0.15069,-0.37115,0.23335,0.018276,0.011655,0.045292,0.27795,0.29337
-0.45812,0.35703,0.3068,-0.010495,-0.017477,-0.086168,-0.22935,-0.20022
0.33756,-0.34582,-0.31476,0.03881,0.015369,0.055182,0.022262,0.61886
-0.12245,0.14678,0.21723,-0.013612,0.00062802,0.02376,-0.10907,-0.060811
-0.19999,0.49837,0.3928,0.050697,-0.0071084,0.014738,-0.007152,0.12013
0.23568,-0.12937,0.12366,-0.0030338,-0.031251,-0.065603,0.17118,-0.61231
-0.07599,-0.20878,0.39095,0.059209,0.0143,0.001704,-0.14451,-0.40698
0.0010816,0.26408,-0.90349,-0.17681,-0.026442,0.0061048,0.13982,0.24422
0.37395,-0.62809,-0.32767,-0.023476,0.034341,0.018398,0.079437,0.25655
-0.2171,-0.23863,-0.12261,0.0040454,-0.0061893,-0.031228,-0.23891,0.23344
0.098731,0.65118,-0.077457,0.054871,0.039665,0.092015,0.17787,-0.088642
-0.027941,-0.30867,0.98588,0.036002,-0.038971,-0.12726,-0.13812,-0.14531
-0.10302,0.12666,0.11087,0.088688,0.01564,0.037535,0.1029,0.23653
-0.045504,0.57752,0.1987,-0.013285,0.031449,0.14086,-0.38772,-0.12237
-0.25687,-0.57802,-0.73343,-0.16054,-0.077692,-0.14581,0.47592,-0.12869
0.1685,0.35805,0.13632,0.14662,0.063037,0.075465,-0.048907,0.067905
-0.0020018,-0.37765,-0.58008,-0.084528,-0.046455,-0.078612,0.16178,-0.081401
0.094612,0.16195,0.64556,0.0047796,9.8502e-05,0.024402,-0.19023,-0.29802
0.025466,-0.27964,-0.49171,-0.078229,-0.008125,-0.029739,-0.34076,0.235
0.16243,0.11858,0.70612,0.12692,0.030601,0.048054,0.36522,0.56049
-0.27188,-0.010782,-0.53691,-0.012858,0.01487,0.023615,-0.16684,-0.49785
0.13904,-0.10675,0.85674,0.088281,0.0072721,-0.040222,0.0080841,0.204
-0.010358,0.18687,-0.91717,-0.1633,-0.039075,0.020989,0.14813,0.021772
-0.18206,-0.056682,0.0011248,-0.10325,0.0007215,-0.02678,0.01977,-0.14034
0.11364,0.6095,0.19684,0.22978,0.040544,0.0042138,0.014964,0.022657
0.3499,-0.03221,-0.14548,-0.023119,-0.013562,-0.026571,0.033858,-0.009499
-0.1723,-0.47993,0.17904,-0.025558,-0.021145,0.013579,-0.14816,-0.22297
-0.25311,-0.1047,0.05913,-0.058408,-0.013551,0.1244,-0.54475,0.11715
-0.027734,-0.36817,0.18461,-0.02767,0.01705,-0.077315,0.52546,-0.11239
-0.051951,0.506,0.0080195,0.01207,-0.0073355,0.0017884,0.36814,0.10549
0.25252,-0.10888,0.39432,0.21701,0.054147,-0.060497,-0.53229,0.051586
-0.23033,-0.30603,-0.77587,-0.092736,-0.032599,-0.029966,0.53398,0.20648
0.10281,0.29849,0.067235,-0.20652,-0.064171,-0.0003374,-0.15398,-0.43012
0.26947,0.14218,-0.39424,0.05496,0.037763,0.1536,-0.6694,0.51974
0.013484,0.058414,0.24416,0.011609,0.0076625,-0.10688,0.54697,-0.16375
-0.14045,-0.021425,0.15597,0.10829,0.040756,0.062365,0.070245,0.015687
-0.16025,0.47098,0.35332,0.10236,0.011786,0.021064,-0.14101,0.084791
-0.10788,-0.92268,0.037401,-0.12377,-0.07184,-0.19144,0.23219,0.087255
-0.022135,0.22009,-0.51995,-0.046945,0.023771,0.12814,-0.56019,-0.31274
0.34709,0.10238,-0.024092,-0.050015,0.0090857,-0.028017,0.3425,-0.20411
0.023134,0.18588,0.52922,0.14851,0.016554,0.058659,0.14587,0.0012914
-0.23654,-0.096927,-0.20897,-0.1149,-0.032129,0.0050282,-0.10769,-0.14273
0.11439,-0.11547,-0.26104,-0.011389,0.011531,-0.01746,0.0074251,0.28804
-0.018529,-0.14226,0.22447,0.045788,-0.00061447,0.0063973,-0.41936,0.14867
-0.19072,0.084344,0.16091,-0.11457,-0.052451,-0.017457,0.11465,-0.33967
0.23781,0.28137,0.31334,0.25013,0.04413,-0.089114,0.50144,0.36931
0.024486,-0.30953,-0.91972,-0.078838,0.055385,0.065044,-0.13422,0.1068
0.020833,-0.024906,0.2206,-0.054963,-0.0572,0.10171,-0.05197,0.36372
0.00062706,-0.11661,0.017472,0.071143,0.0036417,-0.13474,0.2296,-0.13036
-0.37139,0.38004,-0.15179,-0.13872,0.019339,0.020465,-0.30076,-0.46819
0.12438,0.427,0.4881,0.14299,-0.002332,0.021062,0.096015,-0.39894
-0.12068,-0.28211,-0.085691,-0.11525,-0.014731,-0.023176,-0.26963,0.056218
0.4094,-0.30589,-0.030722,0.00069491,-0.018238,0.044065,-0.062387,0.33955
0.034601,-0.20425,-0.045695,0.061602,0.049182,0.027162,0.11696,0.21642
-0.00389,0.10308,0.19237,-0.064653,-0.047329,-0.019853,0.13739,-0.23294
-0.24667,0.11089,0.17737,0.028928,0.01991,-0.035363,-0.20988,-0.075304
0.039015,0.1977,-0.76071,-0.032066,0.016174,0.13594,0.31917,0.060443
0.062849,-0.45984,0.64686,0.12762,0.0037346,-0.17863,0.25684,0.021244
-0.081804,0.73018,-0.45403,-0.039077,-0.017499,0.04383,-0.24051,0.39473
0.097984,-0.57666,0.1242,0.006304,-0.03968,-0.11093,0.20144,-0.5927
-0.19276,0.049575,-0.14706,-0.10434,-0.00018029,0.091643,-0.7465,0.62729
-0.11527,0.11775,-0.060065,0.042011,0.038672,0.097277,-0.26505,-0.44849
0.34157,-0.26894,0.64865,0.061638,-0.0010852,-0.030978,1.0201,0.043473
0.1419,0.78232,-0.37463,0.086756,0.083792,-0.0035134,-0.07115,0.17805
-0.24302,-0.63214,-0.078356,-0.22651,-0.081631,-0.015185,-0.28863,-0.1953
0.024092,0.28759,0.0014151,0.067544,-0.0051344,-0.057846,-0.038326,-0.030216
-0.27563,-0.2442,0.49855,-0.061517,-0.030434,0.0484,-0.085444,-0.1303
0.23113,-0.052176,-0.90806,0.067059,0.0065984,-0.0088381,0.086045,0.014539
0.088061,-0.12531,0.84966,-0.02225,0.027946,-0.018594,0.22646,0.071099
0.18933,-0.023739,-0.37193,0.061941,0.010306,0.050348,-0.062471,0.26051
-0.12619,0.33938,0.35384,0.13242,0.024125,-0.0052219,-0.069805,-0.10344
-0.27732,-0.12295,-0.70198,-0.2095,-0.094558,-0.052625,-0.44413,0.10409
0.26331,0.14081,0.38117,0.12928,0.068365,-0.029539,0.50957,0.0064856
-0.17081,0.42264,0.095258,0.069717,0.03632,0.071638,-0.091877,-0.43781
-0.049001,-0.627,-0.72317,-0.30309,-0.081378,-0.022758,0.14953,0.61233
0.1457,0.54891,0.68447,0.19777,0.098005,0.10894,-0.040053,0.19417
-0.013448,-0.72531,-0.13469,-0.12317,-0.081842,-0.056816,-0.19994,-0.78626
-0.1474,0.16632,-0.11904,0.070299,0.011871,-0.066897,-0.041112,-0.35063
0.037289,0.061683,0.65108,0.020941,-0.027077,-0.0070344,-0.071142,0.59847
0.029008,-0.18285,-0.17918,-0.012717,0.0044967,-0.040908,0.24169,-0.027796
-0.012985,-0.037104,0.011642,0.009022,0.036336,0.042913,0.046452,-0.10714
0.3739,0.3968,-0.66197,0.00060861,0.0059515,0.018356,0.054699,0.57554
0.0024026,-0.062477,0.6351,0.14961,0.061721,0.073271,-0.07676,-0.50095
-0.24551,-0.051839,-0.57977,-0.14577,-0.077733,-0.042237,-0.47251,-0.1415
-0.16821,-0.063102,-0.2084,-0.042232,-0.021953,-0.015848,0.6958,0.28402
-0.040774,0.11155,0.57603,-0.071533,-0.021105,0.0035634,-0.51709,0.27102
0.010388,0.19264,-0.32068,0.14088,0.057499,0.02322,-0.11917,-0.19385
-0.015843,-0.054088,0.58487,0.047827,0.034118,-0.03562,0.93605,0.079456
0.020218,0.012077,-0.25707,-0.1242,-0.067782,-0.032841,-0.5316,-0.63163
0.31287,-0.0055109,-0.047599,0.078043,0.040963,0.023439,-0.11635,0.54643
0.024927,-0.28949,-0.26449,-0.040475,-0.014485,0.031597,-0.14661,-0.057043
0.01425,-0.2531,0.6661,-0.0028145,-0.015185,-0.016004,0.16671,-0.43845
-0.2988,-0.13419,-0.48889,-0.02736,-0.023459,-0.040887,-0.1995,0.047882
-0.048137,0.011516,-0.11986,-0.012295,0.023316,0.043322,0.47404,0.32899
0.086279,0.62115,0.53154,0.058059,0.015793,0.010487,-0.28869,-0.22407
0.24601,-0.11156,-0.32166,0.019457,0.016383,-0.014057,0.10644,0.4135
-0.17604,0.34031,-0.081095,0.066825,0.0014625,0.0089458,-0.07486,0.18526
-0.12173,-0.085785,-0.1141,-0.081566,0.017674,0.032654,0.11249,-0.35877
-0.055582,-0.080699,-0.24604,0.019192,-0.028934,-0.083657,-0.1055,0.18877
0.034579,-0.032924,0.40309,0.087681,0.017792,0.10513,-0.33118,-0.10903
0.043065,-0.4177,-0.12147,-0.32905,-0.12334,-0.14342,0.36418,-0.023968
0.15184,0.18893,0.70984,0.22264,0.086946,0.092311,-0.043885,-0.30187
0.0018053,-0.44332,-0.80122,-0.1784,-0.038566,-0.023851,0.53738,-0.13832
0.075434,0.38756,0.16856,0.085731,0.023834,0.015673,-0.54907,0.20428
-0.045264,0.58159,0.18214,0.34362,0.11804,-0.01589,-0.25675,0.075693
-0.16253,-0.45133,-0.13739,-0.20941,-0.076301,0.068772,-0.038687,0.09296
-0.047941,-0.39376,0.10448,-0.10508,-0.020391,-0.097667,0.46515,0.084189
0.13661,0.032931,-0.19913,0.015138,-0.011497,0.062869,0.037147,-0.022169
-0.0039117,0.77854,0.14118,0.1346,0.0437,-0.019849,-0.21186,-0.20616
0.16079,-0.32573,-0.24751,-0.099173,-0.034833,-0.040865,0.14165,0.19788
-0.42419,-0.17705,-0.13562,-0.030508,-0.028502,0.08623,-0.1975,0.23575
0.15731,0.013117,0.67685,-0.042282,0.023726,-0.012889,-0.087096,-0.47855
0.21411,0.27401,0.22024,0.13162,0.044075,-0.032706,0.45084,0.40989
-0.24045,-0.45193,-0.47249,-0.14064,-0.07628,-0.050455,-0.1686,-0.22077
0.13561,0.35564,0.009469,0.13438,0.06175,0.028423,-0.53088,-0.20272
-0.042774,-0.048175,-0.69396,-0.057628,-0.025581,-0.037713,0.27777,0.18779
-0.14644,-0.14963,0.35581,-0.012463,-0.0096794,0.016871,0.22488,-0.19908
-0.071851,-0.082432,0.097849,-0.057621,-0.038783,0.035455,0.26921,-0.082318
0.26627,0.0049343,0.1341,0.14285,0.082279,0.11852,-0.78759,0.069785
0.13031,0.08171,-0.10822,-0.052306,-0.014173,-0.11836,1.0041,0.4531
0.24151,0.062501,0.22376,0.043197,0.061708,0.096354,-0.47618,0.20848
-0.16428,0.0099733,0.18149,-0.033153,-0.066011,-0.1298,-0.082778,-0.18776
-0.28066,0.095547,0.046754,-0.072089,-0.031049,0.15486,-0.51239,-0.28304
-0.1981,-0.002132,0.20798,0.11244,0.025261,-0.1285,0.5398,-0.24189
0.13607,0.067205,-0.86124,-0.066445,-0.03807,-0.14376,-0.15115,0.013746
-0.050669,-0.22089,0.10299,-0.085591,-0.0022443,0.063265,0.28477,-0.054679
0.010883,0.11003,0.25038,0.08672,0.031616,0.0099038,0.022891,0.31947
0.068318,-0.14976,-0.48408,-0.0093173,0.025198,0.18256,-0.23009,0.27028
0.018295,-0.16939,0.50287,0.04197,-0.0049551,-0.026172,-0.16636,0.0021042
0.18653,0.2896,0.13838,-0.10915,-0.02666,0.002438,-0.080539,-0.39026
0.037697,0.26325,-0.20278,0.10939,0.015579,-0.14473,0.70042,0.023667
-0.12992,-0.5797,-0.30129,0.0037181,-0.010488,0.079472,-0.41726,0.17415
-0.082986,0.15496,0.5223,0.0044075,-0.010861,-0.020644,0.34656,-0.22746
-0.019983,-0.023466,-0.42965,-0.036738,0.029992,0.046268,-0.94749,-0.14976
0.20292,0.086959,0.25158,-0.034232,0.0022859,-0.049067,1.003,0.26646
-0.23974,0.34924,0.43238,-0.004794,-0.024327,-0.057897,-0.64008,0.012729
0.061393,-0.43876,-0.50036,-0.09067,-0.0037689,0.096732,0.20721,-0.044929
0.25914,0.50353,0.017837,0.19055,0.039719,-0.015795,0.15294,0.49818
-0.17143,-0.10606,0.11309,0.00085094,-0.011718,0.025828,-0.061395,-0.26579
-0.010831,0.18616,0.21666,0.14306,0.02901,0.033975,0.14228,-0.19737
-0.19373,-0.59274,-0.7152,-0.25135,-0.064735,-0.045711,-0.54022,-0.12495
-0.1923,0.033787,0.36202,0.17643,-0.011431,-0.2203,-0.068978,-0.32109
0.1547,-0.50025,-0.52809,-0.35444,-0.0058348,0.24559,0.7132,0.40362
0.070528,-0.061917,0.4919,-0.0067434,-0.015997,-0.10789,-0.20849,0.043874
0.32374,0.88219,0.80113,0.10423,0.013437,0.063946,0.049365,0.10215
0.15725,0.10768,-0.47809,0.20717,0.082924,0.08977,0.1824,0.095847
-0.29782,0.17735,0.058079,0.18674,0.036343,-0.12413,-0.51228,-0.15413
0.064301,-0.48211,-0.89001,-0.22918,-0.032774,0.01549,-0.15941,-0.10953
-0.11257,-0.088414,0.25988,-0.094704,-0.070227,0.03893,0.18665,-0.15521
-0.12984,-0.14416,0.002513,-0.011452,0.024949,0.03091,0.33096,0.37774
0.17315,0.81409,0.30711,0.20756,0.03349,-0.08012,-0.32782,-0.0061528
-0.25203,-0.63455,0.24208,-0.1962,-0.083942,0.0017157,0.24929,-0.1458
0.024809,0.03412,0.57663,0.10472,0.055524,0.057113,0.061866,0.12089
0.15448,-0.34222,-0.77319,-0.21053,-0.039921,0.039216,0.078031,-0.042542
-0.0078426,0.19302,0.12378,0.052991,-0.033733,-0.17637,-0.18717,-0.21301
0.15909,0.58293,-0.44117,0.21533,0.082567,-0.03388,-0.093354,-0.10647
-0.1145,-0.54771,-0.14365,-0.16136,0.012651,0.17895,-0.14803,0.25748
-0.021297,-0.041192,0.33539,0.024007,-0.040084,-0.036592,-0.17855,-0.21086
-0.0054812,0.1597,0.27059,0.18479,0.072712,0.078307,0.2536,0.030887
0.034015,0.30795,0.00097968,-0.039189,-0.032212,-0.13995,0.34451,0.25782
-0.11574,-0.57011,-0.50058,-0.21117,-0.066492,0.042879,-0.11656,0.031968
-0.012571,0.33264,0.12161,0.11368,0.070623,0.079196,0.11974,0.21009
0.25385,0.15077,0.51152,-0.0568,-0.035688,-0.039947,-0.198,-0.28233
-0.054515,-0.29428,-0.063278,-0.073619,-0.057862,-0.042435,-0.1341,0.034298
0.17658,0.39661,-0.17265,0.19712,0.089775,0.015809,0.067499,-0.0082675
-0.4529,-0.43228,-0.33307,-0.14159,-0.022398,0.0088869,0.022741,-0.24841
0.002507,-0.01479,0.68037,0.068026,-0.01901,-0.016701,0.051564,0.11071
0.052519,0.063872,-0.67319,-0.063308,0.014598,0.040827,-0.072001,-0.25653
0.13022,0.093562,0.32362,0.074699,-0.0067932,-0.083384,-0.018387,0.28728
-0.064806,-0.011009,-0.032928,0.068301,0.0034604,-0.052243,-0.18406,-0.064714
0.088941,-0.21059,-0.42223,-0.10628,-0.032184,0.073041,0.30804,0.21647
-0.061206,0.13493,0.22703,-0.035922,0.027261,0.067057,-0.016955,-0.075915
-0.028683,0.23511,0.26782,-0.0032498,0.025643,0.016509,0.13882,-0.080527
0.28069,0.33009,0.24845,0.13079,0.040922,-0.023682,-0.16206,0.10034
-0.19696,-0.30915,-0.2752,-0.0024725,-0.028824,-0.030389,-0.2485,-0.083546
-0.042613,-0.41931,0.22896,-0.029173,-0.059048,0.042513,0.33896,0.19058
-0.041344,-0.20528,-0.64477,-0.051423,0.012317,-0.024713,-0.2531,-0.19307
0.091816,0.16796,0.088262,-0.10032,-0.018166,-0.045551,0.3328,0.071696
0.0016095,0.26286,0.076548,-0.0031436,0.0056121,-0.036397,-0.1784,0.058008
0.099376,0.51763,0.18699,0.10864,0.052435,0.080463,-0.15496,-0.13532
-0.23347,-0.18372,0.090727,0.088175,0.036538,0.039409,0.11366,-0.031685
-0.082843,-0.22251,0.46619,-0.00054832,-0.11214,-0.22168,-0.20812,-0.1517
-0.025594,-0.61272,-0.97736,-0.19552,0.036332,0.22755,0.41976,0.06443
0.22947,0.14723,0.65664,-0.0041427,0.013422,0.012873,-0.12619,-0.09568
0.25512,0.66014,-0.32106,0.1592,0.006728,-0.075853,0.038631,0.33535
-0.27445,-0.47969,-0.2322,0.0043955,0.016233,0.03233,-0.044835,0.15189
-0.083986,0.32105,0.28951,0.084524,0.0027347,-0.091833,-0.34358,-0.21311
0.061985,-0.056376,-0.13136,-0.12568,-0.041808,0.036178,0.20628,0.0067057
0.11698,0.22146,0.34108,0.059568,0.022952,-0.052552,-0.066353,-0.026333
-0.15356,-0.45781,0.058649,-0.15779,-0.022009,0.18836,0.40881,-0.026896
0.10131,0.051357,-0.22027,-0.0126,0.010576,-0.077776,-0.25979,-0.038991
0.037079,0.27028,-0.12756,0.073653,0.0033552,-0.070683,0.058908,0.17433
-0.26892,-0.25498,-0.021244,-0.015119,-0.012508,0.021122,-0.11397,-0.1494
0.096703,-0.031413,0.053627,0.011724,0.02548,0.024845,0.17228,0.088065
0.11783,0.31841,0.21641,0.12466,0.015828,0.017953,-0.20947,-0.067986
-0.033997,-0.45174,-0.09317,-0.10444,-0.033495,0.031429,0.08317,-0.27352
0.13325,0.27205,-0.29504,0.067803,0.018376,-0.1064,-0.067374,0.28583
0.033632,0.18185,0.15887,0.024857,0.023329,0.034825,0.10519,-0.10571
-0.2545,-0.59345,0.065476,-0.155,-0.057308,-0.020411,0.11804,0.086436
0.019289,0.60487,-0.021877,0.051378,-0.0043721,-0.028663,-0.62044,0.18563
-0.08183,-0.42575,-0.012222,-0.036362,-0.020627,0.081622,0.66542,-0.19652
0.036662,0.48507,0.27803,0.034001,0.04259,0.022378,-0.35063,-0.0041719
0.30519,-0.22855,-0.16335,-0.0042127,-0.0022183,-0.07302,0.45757,0.24714
-0.08818,-0.032279,0.10492,0.10572,0.024376,0.029833,-0.60507,-0.09172
-0.13538,-0.072006,-0.13862,0.011258,0.028119,0.041381,0.52331,-0.35001
0.10887,0.2334,0.27737,-0.014908,0.016165,-0.000204,-0.033544,0.049253
