0.031417,0.082404,-0.16366,0.17728,0.016807,0.00093553,0.018746,0.012553
-0.0063784,0.010742,0.27996,-0.10409,0.0070252,0.0077571,0.0036534,-0.0032357
-0.0051111,-0.067723,-0.38707,0.071909,-0.017831,-0.024392,-0.019179,-0.034537
0.035114,0.12836,0.98917,0.20515,0.028517,0.029648,0.0047243,0.035718
-0.034252,-0.065201,-0.91473,-0.14284,-0.010011,-0.0018885,-0.0029542,-0.011332
-0.010182,-0.047198,-0.407,-0.051787,-0.016262,-0.017396,-0.0032753,-0.0039025
0.029137,0.049102,0.4229,-0.10167,0.0095441,0.029965,-0.0040723,0.026702
-0.010051,0.012291,0.61095,0.22923,0.035799,-0.0005232,0.0025552,-0.0054609
-0.033944,-0.10333,-0.32161,-0.34153,-0.0473,-0.03868,-0.014465,-0.022209
0.02787,0.045744,-0.047585,0.26376,0.0098324,0.016924,0.015404,0.015643
-0.027611,-0.017122,-0.074104,-0.11082,-0.019695,-0.0056935,0.006444,-0.040165
0.049723,0.098777,0.062289,0.012298,0.027983,0.018401,0.005696,0.0058857
-0.0056724,-0.012598,-0.24354,-0.053064,-0.011237,-0.0045598,-0.0023883,0.044614
0.0093594,0.016251,-0.18141,0.10069,0.011185,-0.012055,-0.002205,0.005847
-0.030188,-0.072101,0.71552,0.14644,-0.0060964,-0.0040437,-0.0016729,-0.024426
-0.02278,-0.089725,-0.93815,-0.28252,-0.031556,-0.0039197,-0.0087648,-0.0071958
0.031558,0.080983,0.84533,0.18866,0.036657,0.027402,0.0075946,0.010516
2.0872e-06,-0.012784,-0.48809,-0.042296,0.011289,0.0039757,0.00037827,-0.0027628
0.015371,0.16036,0.5824,0.21105,0.017512,0.0038868,0.00073419,0.0073998
-0.062945,-0.2044,-0.74574,-0.52121,-0.06959,-0.043235,-0.022627,-0.021751
0.054123,0.087848,0.87124,0.35368,0.046852,0.026618,0.024063,0.018944
-0.031884,-0.049493,-0.36429,-0.11809,-0.039492,-0.020965,-0.015384,-0.011289
0.046173,0.12498,0.3215,-0.10077,0.022814,0.017139,0.015361,0.020297
-0.00084593,-0.077008,-0.24,0.35114,0.030496,0.0081562,0.0070016,-0.011271
-0.0089549,0.047114,-0.86938,-0.20706,-0.016582,-0.0087793,-0.009155,-0.019947
-0.017258,-0.080974,0.68783,-0.0010571,0.0064856,0.013308,0.0059905,0.017885
-0.017916,-0.015679,-0.30188,-0.053195,-0.025319,-0.019213,-0.010043,0.00088024
0.012621,0.032824,-0.17095,0.16118,0.00526,0.0031604,-0.0025556,-0.00042039
-0.0035867,-0.028088,0.20948,-0.091074,-0.018811,0.0024259,-0.0106,-0.0014383
0.01962,0.029427,0.34116,0.0428,0.019857,0.0021227,0.020527,0.013604
-0.019125,-0.043475,0.04976,-0.28779,-0.0035342,-0.0055005,-0.002913,-0.041149
0.0052934,0.0039598,0.63991,0.3162,0.012719,0.0029964,-0.0027895,0.037434
-0.0087084,0.062511,-0.6439,-0.098265,-0.0094795,-0.011517,-0.0025507,-0.0085302
0.0011995,0.0066574,-0.10069,0.03073,0.0078889,0.0055029,-0.0022255,0.00052432
0.065967,0.12436,-0.72723,0.006587,-0.0057225,0.022604,0.0059543,0.025384
0.028973,0.015744,1.0028,-0.055421,0.066556,0.031739,0.029751,-0.0044098
-0.14139,-0.32842,-0.5072,-0.032615,-0.095919,-0.068878,-0.048067,-0.065532
0.054638,0.20019,0.71997,0.26012,0.03002,0.017466,0.014667,0.029453
-0.023655,-0.078554,-0.45867,-0.0073551,-0.0010785,-0.006166,-0.00079133,0.0070881
0.022273,-0.0081308,-0.79829,-0.18783,-0.0095046,0.008722,0.0071591,0.015812
-0.018262,-0.048648,0.69258,-0.093893,-0.010704,-0.0080118,-0.016114,-0.022507
0.026936,0.074447,-0.10073,-0.13067,0.0034258,0.0063842,0.0075725,0.017092
-0.0058941,-0.051875,0.12262,0.18066,0.033221,0.013131,0.0079428,0.0095294
0.0084547,0.198,0.33482,0.093008,0.0008611,-0.010949,0.0084369,0.009389
0.038805,-0.019664,-0.3614,-0.10148,0.00031171,0.0046504,-0.0066097,0.016578
-0.008645,0.013239,-0.007557,0.13107,-0.0073966,-0.0024812,-0.0060235,-0.070506
-0.040274,-0.17311,-0.13385,-0.074859,-0.030108,-0.0089305,-0.0055266,-0.0018147
-0.032784,0.013823,0.037731,0.062482,0.017978,0.0086068,0.0025967,0.011855
0.021552,-0.0050725,0.42218,0.011137,0.011658,0.01085,0.010459,0.017593
0.013356,0.15255,0.52584,0.058477,0.0053873,-0.002467,0.0024012,0.023452
0.005209,-0.091213,-0.88798,-0.22749,-0.0088667,-0.00036495,-0.0059369,0.0062146
-0.018381,-0.1104,-0.28951,-0.067978,-0.031284,-0.029952,-0.022302,-0.041784
0.013044,0.0027819,-0.084316,0.14411,0.0083311,0.0023586,0.0081013,0.0045177
0.037094,0.078322,0.075133,0.094492,0.047427,0.041803,0.022901,0.027901
-0.024298,0.10246,0.81312,-0.061677,-0.031168,-0.028795,-0.0090268,-0.018611
0.039795,0.061073,-0.2899,0.12051,0.053865,0.032836,0.013982,0.028898
-0.10663,-0.25589,0.098929,-0.20241,-0.10362,-0.062235,-0.033015,-0.056292
0.012867,0.065715,-0.51405,-0.11556,0.012147,0.014271,0.0062361,0.014738
0.030936,0.048511,0.55796,0.14789,0.041903,0.028124,0.014497,0.0075025
0.04892,0.0033769,-0.81089,0.081473,0.048256,0.026316,0.0072923,0.023488
0.0040512,0.045219,0.77603,0.21775,-0.023419,-0.014512,-0.007697,0.00015816
-0.064912,-0.16457,-0.72395,-0.36405,-0.063724,-0.039622,-0.014993,-0.031245
0.013603,0.15254,0.44099,-0.077175,0.028891,0.021327,0.01652,0.023048
0.020598,0.06455,0.41845,0.34452,-0.0034053,-0.019135,-0.0070116,-0.0087932
0.026252,0.077727,-0.083934,-0.20805,0.050305,0.042156,0.015926,-0.0017116
-0.031909,-0.14426,-0.15724,0.20267,-0.044356,-0.044757,-0.024032,-0.010331
-0.028668,-0.21767,-0.28398,-0.32182,0.0016939,0.017042,-0.001815,0.0044636
-0.033936,-0.069962,-0.094743,-0.070814,-0.06151,-0.022422,-0.011055,-0.011982
0.06221,0.15362,0.093722,0.36157,0.086391,0.047789,0.034334,0.034087
0.09633,0.37081,0.66203,0.26388,0.086069,0.047966,0.025131,0.048905
-0.15752,-0.41486,-0.92879,-0.67708,-0.17181,-0.10004,-0.046328,-0.076917
0.074612,0.24469,-0.1141,0.069108,0.039354,0.033425,0.0075853,0.0082015
-0.058475,-0.055148,0.78161,0.3687,0.01645,-0.028178,-0.0083378,-0.023796
0.052721,-0.1344,0.075212,-0.17768,0.03292,0.019868,0.0075392,0.022532
-0.013809,0.076202,-0.088428,0.26508,-0.012818,-0.0099028,0.00056279,0.0067319
0.014982,0.18393,-0.2606,-0.37393,-0.027067,0.0075111,-0.0058467,-0.00071186
-0.0099582,-0.25934,-0.7128,0.10825,0.029158,0.025165,0.01167,0.0081413
-0.026882,0.032418,0.73479,0.10255,-0.047373,-0.02741,-0.0095277,-0.021354
0.1353,0.27516,-0.10724,-0.18698,0.063541,0.052674,0.031928,0.059171
-0.1647,-0.44737,0.35106,-0.024587,-0.028833,-0.031728,-0.028249,-0.078586
0.072632,0.26975,0.17478,0.23995,0.011359,-0.0074212,0.0050367,0.041672
-0.066915,-0.18324,-0.36837,-0.13364,-0.019052,-0.0073643,-0.0090194,-0.025679
0.073064,0.28006,0.18526,0.21586,0.012748,-0.0081225,0.0076,0.047178
-0.0695,-0.183,-0.38634,-0.1475,-0.018202,-0.0095443,-0.0076298,-0.021263
0.052867,0.030624,-0.17754,-0.17577,0.0053389,0.012081,3.2386e-05,0.018841
0.0032969,0.055233,0.13436,0.076794,-0.0025307,0.0023922,-0.00055372,-0.066927
-0.030192,-0.13916,-0.070666,-0.10891,-0.026207,-0.0070698,-0.0014436,0.0027589
-0.023872,0.042001,-0.0046755,0.047108,0.020145,0.0073122,0.0052946,0.01712
0.1082,0.083341,0.6129,0.30834,0.097285,0.061184,0.027554,0.046663
-0.048329,0.054879,-0.024121,0.078182,-0.076251,-0.056525,-0.020569,-0.017812
0.0060682,-0.012826,0.14354,-0.16223,0.038426,0.036754,0.0015435,0.011318
-0.0026077,-0.011242,-1.1787,-0.33785,-0.06654,-0.034239,-0.0076918,0.001298
-0.0045256,0.16048,0.72769,0.52552,0.054325,0.011552,0.0064043,-0.016603
-0.062459,-0.57615,0.18851,-0.54207,-0.12203,-0.060298,-0.026453,-0.034561
-0.035769,0.099321,-0.69111,-0.063858,0.037791,0.0081388,0.010996,-0.0056656
0.060236,0.24212,0.60674,0.34449,0.034442,0.021807,0.0094908,0.031108
0.062061,0.087433,0.31817,0.36525,0.056028,0.03573,0.0082287,0.029025
0.032936,0.034602,-0.53922,-0.55312,0.048278,0.034618,0.015161,0.0038937
-0.018527,0.29542,0.17826,0.12382,-0.058979,-0.020329,-0.0086526,-0.012823
-0.013432,-0.26212,0.20215,0.12538,-0.0080944,-0.011773,-0.0006218,0.0025332
-0.21675,-0.67626,-0.97577,-0.44503,-0.15888,-0.10376,-0.070075,-0.098278
0.11413,0.30389,0.87325,0.45239,0.097397,0.047347,0.040789,0.052062
0.080886,0.42918,-0.55882,-0.22974,0.041216,0.027249,0.011572,0.02388
-0.019894,-0.34657,0.47635,0.58508,0.14054,0.077797,0.037422,0.012338
0.1392,0.21914,0.45435,-0.33986,-0.058439,-0.020157,0.00091137,0.056167
-0.091363,0.24331,-0.67295,-0.23365,-0.087425,-0.032635,-0.020116,-0.040432
-0.0097445,0.1002,0.36538,0.41715,0.0065928,-0.022468,-0.010312,-0.0045893
-0.15632,-0.75044,-0.46654,-0.67787,-0.1355,-0.060166,-0.048021,-0.071235
-0.00097464,-0.20861,-0.60593,0.058988,-0.0053221,0.0026679,0.0072554,-0.0064356
0.22895,0.61442,0.92841,0.58114,0.27285,0.14269,0.085186,0.12705
-0.076312,-0.24455,-0.386,-0.77493,-0.17535,-0.09304,-0.048531,-0.077066
-0.088585,0.21964,0.40942,0.76442,0.056697,-0.0012067,-0.010944,-0.032706
0.1613,0.4416,0.88039,-0.21545,0.10959,0.090218,0.04967,0.088557
-0.20093,-0.33924,-0.49361,0.026199,-0.21242,-0.14681,-0.085284,-0.10352
0.067818,-0.0077313,-0.41854,0.51858,0.17587,0.10803,0.053067,0.06333
0.038877,-0.20508,-0.22869,-1.0683,-0.14038,-0.051565,-0.0039551,0.0035203
-0.075842,-0.25802,-0.87705,0.85051,0.080376,0.0071876,-0.014139,-0.032678
0.16203,0.10257,0.76845,-0.01292,0.025406,0.04992,0.045949,0.079927
-0.1296,0.11643,0.37735,-0.72552,-0.16433,-0.087307,-0.042441,-0.080394
0.19049,0.42281,-0.20458,-0.07838,0.19179,0.13484,0.056681,0.088075
-0.15065,-0.42492,0.58093,0.39693,-0.092229,-0.10349,-0.039347,-0.062892
-0.097847,0.2194,-0.56076,-0.010419,0.0011055,-0.012645,-0.041195,-0.064246
-0.017861,-0.46877,-0.50655,-0.12952,-0.049703,-0.013817,-0.003177,0.0062513
0.17557,0.59757,0.43848,0.49703,0.085138,0.057697,0.051684,0.10208
-0.15026,-0.16929,-0.014894,-0.41134,-0.10114,-0.063279,-0.055943,-0.10466
0.0043022,-0.20348,0.6332,0.36862,-0.0225,-0.025078,0.0022552,0.018822
0.15405,0.15258,-0.053854,-0.0058072,0.22635,0.15633,0.077759,0.089363
-0.046159,0.09435,-0.82985,-0.26254,-0.12225,-0.07455,-0.025134,-0.034369
0.12059,0.18444,1.0497,0.32287,0.16323,0.085763,0.052278,0.068519
-0.12894,-0.29464,-0.70829,-0.50073,-0.147,-0.09069,-0.058036,-0.071817
-0.0075101,-0.25351,0.13916,0.2991,0.053349,0.01974,0.010254,-0.0032549
-0.008597,0.21255,-0.26745,-0.54664,-0.097489,-0.021496,-0.024806,-0.015565
-0.18742,-0.082466,-0.52955,-0.0067639,-0.21803,-0.13684,-0.069876,-0.10121
0.15167,0.2094,0.61858,0.65576,0.20728,0.11902,0.054677,0.075937
0.04098,-0.22605,0.20652,-0.27351,0.023277,0.0044039,0.021009,0.039912
-0.010075,0.0087562,-0.060805,0.33514,0.067873,0.028016,0.0093384,0.0024967
0.008094,0.014198,-0.5484,-0.41271,-0.054896,-0.012196,-0.010932,-0.0041436
0.081537,0.35025,0.63394,0.079372,0.11847,0.080157,0.046782,0.04425
-0.093103,-0.22983,-0.45662,0.21097,-0.15189,-0.084608,-0.051356,-0.047017
-0.0384,0.12645,0.88712,0.26334,-0.020392,-0.052643,-0.01591,-0.027581
0.066321,0.14442,0.076934,-0.19368,0.045444,0.035902,0.028311,0.024554
-0.052461,-0.49908,-1.0276,-0.59772,-0.00068302,0.025008,0.0032091,-0.0078716
0.09702,0.23902,0.74239,0.30211,0.036495,0.016249,0.010251,0.031192
-0.14993,-0.22344,-0.51581,-0.1092,-0.038904,-0.053044,-0.052288,-0.069452
0.14349,0.086424,0.20274,0.35911,0.092479,0.074637,0.065415,0.088369
-0.031196,0.36871,-0.5317,-0.45331,-0.10177,-0.054226,-0.035227,-0.034634
-0.080789,-0.4647,-0.012352,0.042582,-0.013497,-0.010379,-0.010569,-0.032388
-0.021318,0.14741,0.79934,0.27024,-0.011008,-0.020833,-0.016919,-0.02221
0.1235,0.41547,-0.17238,0.22108,0.092247,0.070224,0.039431,0.066099
-0.084056,-0.37899,-0.21255,-0.21768,-0.087287,-0.042322,-0.013456,-0.025407
0.058935,0.24149,0.011382,0.081,-0.0032893,0.0083099,0.011803,0.023405
-0.088413,-0.63572,0.12818,0.11771,0.023527,-0.012638,-0.0178,-0.037702
0.090778,0.084893,-0.57851,-0.34933,0.047575,0.035135,0.022467,0.040995
0.041499,0.5536,1.0406,0.29876,0.099959,0.034213,0.015121,0.0014198
-0.017736,0.068875,-0.2181,-0.4181,-0.16305,-0.077979,-0.024481,-0.01599
-0.079157,-0.17277,-0.60536,0.10939,0.016641,0.011188,-0.01056,-0.026898
0.013748,-0.16285,0.56604,0.15059,0.022408,0.020827,0.017832,0.023546
-0.082158,-0.33081,-0.28064,0.025125,-0.058897,-0.048471,-0.03283,-0.028344
0.14188,0.67487,0.67867,0.19564,0.16455,0.10875,0.056635,0.060182
-0.10987,-0.52097,-0.80763,-0.46802,-0.21996,-0.13165,-0.088181,-0.085197
0.030977,0.33161,-0.89562,-0.54206,0.02328,0.035819,0.025567,0.020579
0.15923,0.17812,0.11828,0.53544,0.11411,0.049321,0.054739,0.073402
-0.19312,-0.40274,0.70933,0.65067,-0.032795,-0.051719,-0.039285,-0.074803
0.14613,0.20728,0.69273,0.19304,0.12165,0.092082,0.05618,0.083859
-0.065344,-0.045114,0.3863,-0.17912,-0.063824,-0.02746,-0.033985,-0.036779
-0.17189,-0.52553,-0.39761,-0.78754,-0.19198,-0.11417,-0.052377,-0.085666
0.1302,0.43138,-0.18694,0.18482,0.12621,0.073193,0.047241,0.061484
0.14432,0.12306,-0.55086,0.094083,0.11554,0.072684,0.045357,0.060104
-0.13879,-0.14639,-0.40182,0.0091231,-0.12408,-0.077588,-0.05879,-0.051538
0.084135,0.41017,0.9367,0.43945,0.070146,0.05134,0.02323,0.038418
-0.047494,-0.19467,-0.39303,-0.42967,-0.044698,-0.048722,-0.021483,-0.053226
-0.018869,-0.11302,0.084998,-0.11215,-0.046774,-0.010559,0.0022769,0.0015966
-0.11151,-0.15314,0.00063772,-0.11075,-0.03701,-0.06031,-0.045922,-0.062463
0.23738,0.58073,0.42552,0.20685,0.15765,0.11525,0.084361,0.12233
-0.22135,-0.8658,-0.79283,-0.40122,-0.23473,-0.092402,-0.067222,-0.083935
0.060352,0.17177,-0.34566,0.67406,0.20927,0.083204,0.039005,0.038199
0.12288,0.24212,0.4567,0.38363,0.10032,0.064562,0.04418,0.051804
-0.25916,-0.34739,0.65962,-0.58969,-0.31857,-0.19489,-0.11387,-0.14437
0.21192,0.49184,-0.14148,-0.049913,0.15598,0.10947,0.08055,0.11372
0.052042,0.25393,0.82397,0.42357,0.10176,0.047606,0.017923,0.013243
0.065664,-0.22454,-0.54395,-0.17934,0.11951,0.064234,0.033843,0.053634
-0.29477,-0.56932,-0.86996,-0.72836,-0.40902,-0.23974,-0.13775,-0.15642
0.17296,0.38171,-0.25462,0.32128,0.19473,0.1273,0.073045,0.077766
0.014803,0.33692,0.30549,-0.039874,0.023541,0.024346,0.017465,0.013548
-0.1918,-0.56556,0.16846,0.06962,-0.20448,-0.15027,-0.078071,-0.12267
0.24815,0.56317,0.078059,0.58565,0.35414,0.21298,0.10679,0.14582
-0.12615,-0.4882,-0.24359,-0.16593,-0.113,-0.073009,-0.052731,-0.063368
-0.064177,0.19579,0.55887,-0.38348,-0.1289,-0.070235,-0.032865,-0.023062
0.09899,0.032366,-0.035122,0.32004,0.0024423,0.010925,0.018349,0.033035
0.083093,-0.37233,-0.071232,-0.23853,0.16471,0.12411,0.077856,0.082111
-0.22808,0.049527,0.3327,0.16479,-0.15675,-0.12872,-0.088404,-0.11753
0.18973,0.24841,-0.88788,0.052603,0.10931,0.080812,0.051027,0.067253
-0.0066823,0.61118,0.33477,-0.56582,-0.075307,-0.036245,-0.019388,-0.0040193
-0.043673,-0.7194,0.084504,0.82137,0.063522,0.020081,0.0050204,-0.011022
-0.061971,-0.017,-0.10036,-0.43577,-0.08314,-0.070651,-0.03992,-0.063223
0.03178,-0.17499,0.2657,-0.46217,0.023921,0.042926,0.025309,0.026709
0.11978,0.67668,0.34994,0.66452,0.15797,0.079311,0.059873,0.063233
-0.18151,-0.34357,-1.1475,-0.52495,-0.31433,-0.17273,-0.10834,-0.094573
0.095843,-0.024349,0.41984,0.39625,0.239,0.1224,0.059506,0.076353
0.060454,0.23661,-0.21601,-0.0078467,-0.019084,0.03462,0.031911,0.036497
-0.21806,-0.74618,0.48022,-0.067765,-0.15241,-0.12398,-0.074155,-0.097464
0.22849,0.85964,-0.0057257,0.31199,0.18922,0.09929,0.053619,0.048956
-0.084674,-0.22789,0.48039,-0.0023178,-0.018921,-0.0068695,-0.0067858,-0.0012607
0.045358,-0.029726,-0.21522,0.026391,0.034679,0.026019,0.025804,0.032816
-0.061119,-0.10296,-0.65523,-0.11867,-0.15052,-0.075588,-0.05955,-0.059875
-0.044554,-0.6274,0.29947,-0.36582,-0.019823,-0.038164,-0.012774,-0.013602
0.13446,0.79641,0.038224,-0.29597,0.052377,0.076078,0.049083,0.054777
-0.078314,-0.22923,0.43643,0.38884,-0.0031702,-0.029303,-0.014434,-0.03392
-0.096427,-0.01785,-0.72139,-0.6509,-0.036685,-0.010048,-0.0078412,-0.029101
0.18994,0.15311,0.15745,1.0595,0.17976,0.095271,0.053376,0.06981
-0.14858,-0.0053217,-0.21372,-0.18504,-0.12612,-0.087951,-0.057249,-0.041427
0.13813,0.33137,-0.18119,-0.2007,0.022984,0.034282,0.027521,0.059308
-0.16882,-0.51538,0.5982,0.1781,-0.060124,-0.045753,-0.028229,-0.088921
0.10214,0.485,0.89027,0.12191,0.077524,0.039078,0.017705,0.052717
0.075531,-0.38723,-0.44557,0.19764,0.029189,0.038618,0.024723,0.038501
-0.13975,-0.34271,-0.98054,-0.15353,-0.096407,-0.094207,-0.069631,-0.077374
0.22156,0.35568,0.2283,-0.1928,0.12199,0.085718,0.070637,0.087435
-0.33281,-0.067373,-0.47176,-0.74953,-0.15982,-0.085818,-0.077863,-0.1393
0.213,0.35826,0.4126,0.33404,0.11274,0.086414,0.078637,0.10945
-0.085697,-0.1992,0.77043,0.18704,-0.060146,-0.053861,-0.022403,-0.033435
0.045439,-0.26506,-0.12144,-0.1457,-0.05304,0.0089942,0.0017242,0.010421
-0.03319,-0.12964,-0.46519,0.51369,0.040827,-0.014083,0.0024083,-0.0085793
-0.00032584,-0.052817,0.30122,-0.095609,-0.020321,-0.013772,-0.028379,-0.019678
-0.034994,0.34426,0.24769,0.12266,0.091773,0.03323,0.0028838,-0.0068546
0.011467,0.21905,-0.50739,0.035537,0.056559,0.040764,0.017874,0.014527
0.17785,0.49977,-0.43635,-0.32051,-0.024965,-0.014862,0.016463,0.052354
-0.044324,-0.5123,1.0079,-0.0043904,-0.059774,-0.016667,-0.032616,-0.01848
0.031548,0.25698,-0.98326,-0.20064,-0.0016399,0.019688,0.042636,0.043989
-0.1813,-0.54693,-0.035923,0.2347,-0.014933,-0.030568,-0.03093,-0.065168
0.2385,-0.088781,0.26397,0.15766,0.17398,0.13,0.083066,0.12266
-0.47475,-0.63196,0.040651,-0.22273,-0.42635,-0.31026,-0.18513,-0.29093
0.093371,0.46892,0.46274,0.1087,0.11487,0.055927,0.032247,0.061484
0.27938,0.51683,0.4062,-0.39435,0.16602,0.15918,0.095085,0.149
-0.10376,-0.13884,0.016801,0.29264,0.0014114,-0.038941,-0.027581,-0.043697
0.17056,0.34918,-0.6563,0.14708,0.090015,0.094422,0.05485,0.061676
-0.062241,-0.48764,-0.41683,-0.38556,-0.21724,-0.1523,-0.079881,-0.081898
-0.014166,0.65191,-0.12284,0.86579,0.25788,0.14931,0.07534,0.064198
-0.06159,-0.5825,0.54116,-0.53015,-0.09609,-0.018091,-0.01945,-0.00071307
0.028544,0.0428,-0.41152,-0.051717,-0.031381,-0.031324,-0.0058082,-0.0039579
-0.0024646,0.1362,0.73817,0.18276,0.051625,-0.0013234,-0.0095103,-0.024329
-0.10011,-0.26292,-0.15561,0.16582,-0.15295,-0.10093,-0.05447,-0.062237
-0.013753,0.043678,-0.065139,-0.57674,-0.074951,-0.049074,-0.023595,-0.016183
0.02354,0.08565,-0.094512,-0.18882,0.10686,0.084576,0.05995,0.05162
-0.10369,-0.58832,-0.36321,0.18721,-0.027529,-0.018997,-0.029843,-0.045782
0.39536,0.94833,0.13384,-0.020184,0.23521,0.13407,0.098342,0.16102
-0.11075,0.069385,-0.036931,0.35871,-0.10239,-0.0091898,-0.00011668,-0.030457
-0.23847,-0.53033,0.46271,-0.039882,-0.15535,-0.13483,-0.098091,-0.12757
0.10591,-0.062679,0.15659,0.3781,0.038788,0.05497,0.039169,0.057435
0.09352,0.0089202,-0.11306,-0.09349,0.058733,0.013686,-0.0022379,0.0089406
-0.065982,-0.2735,-0.23203,-0.39011,-0.0021499,-0.048023,-0.050478,-0.070121
-0.038212,0.59801,-0.75895,-0.16764,0.026746,0.064364,0.058305,0.10117
0.058131,0.40982,0.74724,0.21465,0.10447,0.045036,0.019113,0.0067839
-0.14532,-0.68674,-0.21761,-0.12488,-0.14609,-0.075968,-0.027778,-0.072363
0.19455,0.60698,0.54593,0.21546,0.093466,0.059684,0.050142,0.074456
0.03097,-0.26165,0.12861,0.11658,-0.029706,-0.040845,-0.03637,-0.037125
-0.08058,-0.53112,-0.94828,-0.56124,-0.15663,-0.049562,-0.021692,-0.008408
-0.2246,-0.16382,0.21259,0.13843,-0.08365,-0.083257,-0.069699,-0.10454
0.092907,0.013652,-0.13869,0.47848,0.18273,0.077604,0.046505,0.065692
0.092583,0.38035,0.97581,-0.11331,-0.08239,-0.011352,0.022619,0.034105
0.17443,0.78564,-0.081852,-0.084255,0.23977,0.18974,0.093337,0.10575
-0.15281,-0.53023,-0.26091,-0.31237,-0.18564,-0.18585,-0.13183,-0.14903
-0.10784,-0.67175,-1.1033,-0.2164,0.040102,0.080553,0.050157,0.027229
0.12876,0.47331,0.63871,0.82185,0.16648,0.066554,0.037372,0.079129
-0.061909,-0.21977,0.10334,-0.27685,-0.15925,-0.095899,-0.045719,-0.072403
-0.072734,0.15278,0.52142,0.12518,-0.094807,-0.064001,-0.027859,-0.022125
0.35946,0.79702,-0.65171,0.31293,0.17878,0.11461,0.090388,0.13536
-0.17372,-0.50432,0.052063,-0.59288,-0.073703,-0.036984,-0.019478,-0.069204
-0.079965,-0.56256,0.55869,-0.42397,-0.11799,-0.073301,-0.076289,-0.088961
-0.062725,0.39032,-0.60705,0.34858,0.05447,0.021982,0.0061475,0.0062935
-0.12893,0.13259,0.46845,-0.10419,-0.047143,0.015577,0.025271,0.006599
0.1531,-0.2573,0.36247,0.40562,0.078913,0.010296,-0.010334,0.038215
-0.049848,0.14635,-0.55731,-0.14426,-0.050053,-0.063038,-0.029535,-0.046005
0.17921,-0.18879,-0.37355,-0.049288,0.20002,0.18697,0.10117,0.13781
-0.21971,-0.34016,0.30369,0.30899,-0.18593,-0.16915,-0.094354,-0.12848
0.33314,0.29449,0.079405,0.12697,0.18246,0.14948,0.10267,0.13955
-0.26334,0.10468,-0.25053,-0.14902,-0.047323,-0.053335,-0.050293,-0.11328
0.13068,0.16399,-0.64612,-0.67406,-0.12671,-0.052272,-0.0070229,0.033995
-0.010026,0.15103,0.90136,0.24079,-0.065144,-0.028334,-0.010545,-0.021357
-0.14105,0.11501,-0.054555,-0.34041,0.042117,0.017313,0.00080419,-0.022686
0.016204,-0.21859,0.083031,0.38045,-0.0171,-0.017713,-0.0048957,0.0056012
0.10778,-0.055661,0.82883,0.52878,0.17824,0.1006,0.0423,0.055064
-0.00090132,0.054685,-0.28253,0.03342,0.0027004,-0.0026071,-0.00604,-0.038562
-0.19354,-0.59813,-1.1324,-0.41245,-0.20781,-0.16271,-0.094847,-0.048488
0.21744,0.77168,0.39779,0.13345,0.10171,0.074292,0.026557,0.057126
-0.048225,-0.20929,0.046067,0.06635,0.041261,0.021961,0.023076,0.021313
0.018998,-0.58961,0.37401,-0.72572,0.033626,0.11102,0.075226,0.024716
-0.14906,0.1479,-0.48269,0.59191,-0.091986,-0.10299,-0.058531,-0.09581
0.027941,0.0059676,-0.41655,-0.18351,-0.029716,-0.033546,-0.010667,0.012034
0.083178,0.35342,0.025086,0.074943,-0.036255,0.014848,0.031288,0.020561
0.01795,0.22775,0.46598,0.20632,0.061175,-0.020499,-0.018992,0.015768
0.02021,-0.11158,0.36294,-0.1373,0.067788,0.062978,0.017515,0.0051212
0.011377,0.019686,-0.30036,-0.21025,0.030491,0.045683,0.014991,0.042595
-0.0098088,0.46584,0.75179,0.48229,-0.059021,-0.073395,-0.043008,-0.021221
-0.12328,-0.49364,-0.56812,-0.60526,-0.068879,-0.037452,-0.039972,-0.070204
0.1377,-0.16521,0.42394,0.22202,0.077814,0.074549,0.054924,0.050926
-0.15837,-0.43134,-0.44651,0.032302,-0.04991,-0.058209,-0.02406,-0.056957
0.19032,0.3996,-0.022345,0.40008,0.18749,0.10327,0.067036,0.10588
-0.082417,0.00020083,-0.86772,-0.29644,-0.24189,-0.10464,-0.038486,-0.03847
0.031556,-0.37474,0.31059,-0.0073352,0.075916,0.014248,-0.0039865,-0.0049182
-0.036944,0.61833,-0.19719,0.17742,-0.030452,-0.038889,-0.023973,-0.034565
