0.032988,0.0097674,0.043648,0.0094736,-0.0057195,-0.033764,-0.26756,-0.005058
0.053376,-0.023281,-0.073984,-0.021941,0.0085838,0.06791,-0.038029,-0.077719
0.065728,-0.017919,0.026799,0.017239,0.01524,0.012889,-0.27741,0.23512
-0.14903,0.0027435,-0.01366,0.0095063,-0.0013523,-0.050262,0.79674,0.24914
0.080405,0.031353,-0.023586,-0.014144,-0.009949,0.0035714,-0.072489,-0.62789
-0.027916,-0.04096,0.028388,-0.022587,-0.018372,-0.0052108,-0.15812,0.53335
-0.02153,0.0050101,0.0097728,0.0076595,0.012454,0.001577,-0.0072497,-0.019253
0.0288,-0.0022955,-0.00084016,-0.0091342,-0.018992,0.094287,-0.19093,-0.41397
0.12302,0.12473,-0.010741,0.013295,0.020169,-0.10205,0.016363,0.47055
-0.066528,-0.090597,0.019607,0.012809,-0.010623,-0.017097,-0.081848,-0.11878
-0.15594,-0.031431,-0.026649,-0.018094,0.0058521,0.021049,0.19303,-0.16021
0.16114,0.036105,0.0068497,0.022323,0.022689,-0.01885,-0.24589,-0.059783
-0.121,-0.13077,-0.044117,-0.022207,-0.022718,0.066309,0.63197,0.12226
-0.093877,0.13921,0.054393,0.027788,0.017897,-0.012601,-0.2909,-0.19609
0.24449,0.001709,0.043901,-0.0077737,-0.0041195,-0.0056828,-0.084511,-0.20534
-0.14363,0.042196,-0.00608,-0.0043882,-0.018672,0.040076,0.056849,0.11472
0.093635,-0.044325,-0.018224,0.0061811,0.0053115,-0.1254,-0.46651,0.57992
-0.068054,-0.070431,-0.032234,-0.0077478,-0.010404,0.076018,0.59017,-0.1366
0.13483,0.026576,-0.025022,-0.030821,0.00447,0.066315,-0.19999,0.081254
-0.11327,0.028423,0.003432,0.030649,0.018746,-0.16992,-0.52979,0.16005
-0.0034062,0.021751,-0.0011726,-0.010685,-0.0065063,0.086317,0.26622,-0.64676
0.062515,-0.13323,0.016526,-0.013865,-0.00079314,0.014993,0.45344,-0.13283
0.0036247,0.095567,0.010479,0.0059356,-0.0029674,0.053801,0.053147,0.33082
0.10752,0.14634,0.083073,0.064833,0.02625,-0.015932,0.19437,-0.078593
-0.2975,-0.25391,-0.069698,-0.047653,-0.037936,-0.0849,-0.18225,0.29437
0.14985,0.15277,-0.056763,-0.0030294,-0.0078531,0.0029428,-0.34676,-0.22929
-0.16427,-0.016598,-0.0029587,-0.019803,-0.00057256,0.059791,-0.059978,-0.085306
-0.040319,-0.012454,0.044726,0.011501,0.023009,-0.00064893,-0.37737,0.3536
0.19001,0.0083619,0.085947,0.020533,0.015965,0.032212,0.66373,-0.50414
0.0066631,0.013968,0.010847,0.030567,0.017216,-0.013781,-0.48753,0.19456
-0.065151,-0.043075,-0.10297,-0.075845,-0.035955,-0.13098,0.34574,0.059563
0.13053,-0.077247,-0.12315,0.0056571,-0.026611,0.06342,0.31702,0.223
0.20079,0.090889,0.08282,0.032531,0.0059381,0.022654,-0.061958,-0.082481
-0.076998,0.047165,0.077287,0.020059,0.030243,0.098515,-0.67204,0.21885
-0.16051,-0.060001,0.047758,0.014823,0.0071192,-0.075899,0.65039,-0.37546
-0.1556,-0.027479,-0.044722,-0.045886,-0.00095574,-0.062787,-0.63651,-0.19553
-0.0028993,0.0040853,-0.074972,-0.029355,-0.0095254,0.028757,0.45471,-0.27374
0.030608,0.08933,0.05879,0.0019287,-0.026222,0.034906,0.39483,0.3898
0.10953,0.064143,-0.018192,0.055892,0.019521,-0.028539,-0.43915,0.34277
-0.092076,-0.048014,0.084941,0.0077128,-0.012637,0.10415,0.24503,0.0085252
-0.094407,-0.16886,-0.16287,-0.03304,0.002564,-0.090418,-0.02378,0.17808
0.18418,-0.008984,0.027509,-0.019321,0.0027958,-0.049782,-0.70597,-0.46652
0.11395,0.033643,0.030984,0.0099246,0.019347,-0.0084148,0.053527,-0.23507
0.2126,0.084551,0.050338,0.01568,0.0052253,0.041312,0.40896,0.31289
-0.46438,0.081679,0.014667,0.02918,0.01486,0.10693,-0.2968,-0.37437
0.05911,-0.04504,0.032547,-0.019945,-0.038037,-0.15569,0.24743,0.22133
-0.14031,-0.10811,-0.13909,-0.030184,-0.013211,0.081126,0.2417,0.14851
0.28676,0.13446,0.13958,0.053151,0.034336,0.074744,0.21927,0.17312
0.0098392,-0.067646,-0.1163,-0.074539,-0.028401,-0.0033204,0.038712,0.0049768
0.018956,-0.035012,0.022908,0.032261,0.017297,-0.17667,-0.1859,0.26671
-0.20303,0.052551,0.088985,0.022287,-0.0081242,0.0078941,-0.85738,-0.35728
0.21051,-0.047051,-0.15135,-0.0416,-0.018448,-0.027408,0.6605,-0.67495
0.025733,0.064911,0.084713,0.059713,0.049203,0.20233,-0.58105,0.26394
-0.48229,-0.11898,0.049013,-0.040672,-0.023505,-0.044437,0.87695,-0.035078
0.14198,-0.051495,-0.069113,-0.0066589,-0.0017982,0.068854,-0.11429,0.64506
0.12,0.072166,-0.088445,-0.017966,-0.018162,-0.19943,-0.42107,0.22493
0.16521,0.19707,0.070084,0.05798,0.0057425,0.026141,0.10665,-0.37464
0.28714,0.025673,0.03941,-0.013639,0.05437,0.073954,-0.4436,-0.28735
-0.21669,-0.044577,0.12343,0.040015,-0.028595,-0.024659,0.92914,-0.49827
-0.30771,-0.29608,-0.10139,-0.10205,-0.040227,0.019226,-0.72837,0.53133
-0.28433,0.059173,0.03454,0.059522,0.019159,-0.02132,0.8873,0.37959
0.4215,0.051674,-0.14322,-0.022692,-0.022715,-0.0062688,-0.31193,0.1252
0.2915,0.19673,0.1285,0.049418,0.036818,0.047975,-0.062781,-0.2385
-0.098894,-0.04453,-0.097501,-0.036726,0.01759,-0.10166,-0.34364,-0.55326
-0.033196,-0.11679,0.09956,-0.038757,-0.018343,0.16899,-0.5458,0.21511
-0.24731,0.0044186,-0.0069648,0.059357,0.022409,-0.039231,0.59716,0.21897
-0.2183,-0.10151,-0.1115,-0.062139,-0.024423,-0.039188,0.11859,0.0020574
0.20278,0.18393,0.045487,0.066112,-0.018221,-0.080868,0.59167,0.061583
0.15017,-0.10682,-0.010376,-0.031905,0.0021587,-0.031017,-0.7306,0.011723
0.047663,0.050547,-0.058022,-0.0042352,-0.017569,0.048657,0.22455,-0.25299
0.037912,0.070481,0.076436,0.024301,0.016875,0.026322,-0.80713,0.035395
-0.17415,-0.039285,0.10533,-0.0010363,0.0123,0.035764,0.32284,-0.17772
0.076923,0.017623,-0.0019931,0.005449,0.016071,0.077764,0.58188,-0.11371
0.010753,-0.13457,-0.058197,-0.026911,-0.010533,0.004351,0.92081,0.46413
0.088731,0.15172,0.045355,0.057772,0.0029457,-0.19217,-0.55357,0.45406
-0.079647,-0.12429,-0.028261,-0.053264,0.0174,0.081768,-0.96037,-0.14573
-0.31482,0.052427,-0.092458,-0.016352,-0.014233,-0.05707,-0.065616,0.0065726
0.054764,-0.013775,0.00060949,0.012388,-0.029715,0.015762,-0.13341,-0.68318
0.41134,-0.065226,-0.10082,-0.052663,0.0019449,0.1434,0.15971,0.3112
-0.22251,0.12464,0.095547,0.062358,0.02586,-0.080975,0.91135,-0.56592
0.24584,0.079325,0.050814,0.029754,-0.012766,-0.0094027,-0.30489,0.47005
-0.31773,-0.16988,0.069631,-0.009531,-0.012388,0.084422,-0.12032,-0.3631
0.069946,0.0020313,-0.067216,-0.00067644,0.011414,-0.1198,-0.074989,0.63103
0.30642,0.071596,0.084631,-0.021892,0.0040184,-0.043642,-0.22724,-0.17115
-0.28045,-0.09402,-0.093341,-0.042211,-0.018898,0.0009644,0.70621,0.20698
-0.27609,0.13804,0.124,0.039506,0.052047,0.11628,-0.46902,0.0051305
0.14882,0.017929,-0.10826,0.050905,0.0058749,-0.079831,0.2092,-0.11036
0.10538,-0.032134,0.013994,0.014985,-0.032485,0.12407,-0.34225,-0.4136
0.13446,-0.12101,-0.063638,-0.060757,-0.02404,-0.084299,0.26507,0.42829
-0.059268,-0.021497,-0.1447,-0.082706,-0.031337,0.0058467,-0.46761,0.035772
0.009466,-0.0063674,0.16327,0.050763,0.03937,-0.027818,0.39407,-0.52597
-0.12016,0.042045,0.0030303,0.035178,0.04748,0.056219,-0.49396,0.13668
0.10585,0.053551,0.025027,0.011451,-0.030411,-0.063126,0.47114,0.097957
0.045586,0.16842,0.019731,-0.012338,-0.022415,-0.027208,0.43143,0.52733
-0.29482,-0.098561,0.018929,-0.012587,0.0011375,0.13997,-0.47235,-0.13051
0.34854,0.0014847,0.084699,0.057602,0.016754,-0.054091,-0.10197,0.039838
-0.0023768,-0.12638,-0.15138,-0.051873,0.016544,-0.093772,-0.36159,-0.63028
-0.20803,0.016914,0.0902,0.049434,0.0082488,0.044662,0.56763,-0.073636
-0.081465,-0.045645,-0.11423,-0.06053,-0.023789,0.025816,0.50121,0.012096
-0.021217,0.022013,-0.023982,-0.030311,-0.017034,0.014437,-0.66187,0.10853
0.14482,0.14243,0.16476,0.038533,-0.01043,-0.066905,0.62454,0.53944
0.13577,-0.12086,-0.21218,-0.017941,-0.0037883,-0.014524,-0.85894,0.055689
0.037921,0.061441,0.11922,0.042657,0.042171,0.11722,-0.25214,-0.11054
-0.11718,-0.051804,-0.0665,-0.037252,-0.028605,-0.038857,0.65117,-0.15957
0.045828,0.016723,0.083585,0.062864,0.034009,0.063857,0.059959,-0.051462
-0.089674,0.095476,0.0082599,-0.00057739,0.0034719,-0.15326,-0.72049,-0.21571
-0.022741,-0.02661,0.028799,-0.03215,-0.010928,0.067006,0.73437,0.10645
-0.041076,-0.17038,-0.080876,-0.070854,-0.024982,0.060059,0.24106,0.25396
-0.057091,0.1868,0.093267,0.063012,0.0079704,-0.049485,-0.18793,-0.032918
0.024619,-0.13572,-0.074243,-0.03684,-0.013845,-0.050837,0.077065,-0.10435
0.088149,0.017373,0.0017723,0.043542,0.026579,-0.022041,-0.81137,-0.033899
0.26686,0.19219,0.054812,0.0070754,-0.0037003,0.021532,0.1733,-0.12706
-0.24436,-0.18211,-0.10345,-0.021551,-0.034445,0.08021,0.040424,-0.33649
0.060914,-0.074412,-0.028399,0.027584,0.059325,-0.03321,-0.19484,0.26778
-0.069533,0.1405,0.052921,-0.041246,-0.042677,0.048664,1.1602,0.31715
0.0022587,0.088251,0.046438,0.052855,0.034622,0.052498,0.06991,0.2683
-0.2108,-0.10522,0.037924,-0.010622,-0.013348,-0.13884,-0.47891,-0.32398
0.29674,-0.12624,0.0039093,-0.012883,-0.014549,-0.0018393,-0.053599,0.21685
-0.0080254,0.081093,-0.063296,-0.031729,-3.268e-05,0.026169,-0.43054,-0.12254
0.0069939,-0.013366,-0.014929,-0.01188,-0.00082677,-0.038932,-0.17999,0.041923
-0.11876,0.098954,0.094894,0.008373,0.0067134,-0.0093428,-0.58771,-0.42095
0.014624,0.019872,-0.1158,-0.0014099,-0.016323,0.052687,0.98508,0.02327
0.050239,-0.086907,-0.036613,0.021944,0.00043,0.014444,0.74097,-0.057623
-0.19626,-0.050485,0.083572,0.047559,0.041267,0.10239,-0.78965,0.17974
0.2473,0.0026364,-0.10584,-0.073041,-0.026843,-0.058788,0.22655,-0.14626
-0.11587,0.23467,0.18482,0.097169,0.045767,0.022701,-0.098664,0.1929
0.0057613,-0.23132,-0.12249,-0.083289,-0.053798,-0.20824,-0.57847,0.50382
-0.089597,0.071671,0.073235,0.017318,-0.0056052,0.052785,0.80701,-0.087082
0.30893,0.048599,0.044279,0.038498,0.025991,0.086892,-0.30728,-0.32897
-0.12043,-0.097995,-0.17188,-0.075378,-0.029464,-0.0043528,0.51724,0.020853
-0.083433,-0.016326,0.19647,0.050098,0.031193,0.013506,-0.67129,-0.38076
-0.013142,0.029016,-0.063171,-0.0070735,-0.026198,-0.0078966,0.17662,0.029712
0.20408,-0.0071435,-0.053412,-0.019966,0.02528,0.048647,-0.1686,0.2147
-0.23959,0.080434,0.022288,-0.0034122,-0.017064,-0.0044097,-0.074558,-0.003723
0.028562,-0.034165,-0.10122,-0.034469,-0.0043517,-0.11246,-0.00019076,0.14167
-0.086305,-0.13802,0.014763,-0.0026186,-0.014337,-0.0021411,0.23799,0.19105
0.033147,0.20001,0.059396,0.10095,0.046973,0.092145,0.0040376,-0.24585
0.13816,-0.14429,-0.01242,-0.02779,-3.428e-05,0.021991,0.34167,0.28374
0.012032,0.094693,0.050828,0.025471,-0.014829,-0.08753,-0.30777,-0.43195
0.055622,0.056904,0.023528,-0.036346,-0.013273,-0.0097638,-0.058793,-0.18299
-0.14269,-0.055696,0.0074749,-0.0028532,-0.011317,0.036608,0.10553,0.31093
-0.11204,0.068053,0.010012,-0.0076106,0.021941,0.043799,-0.29905,-0.029009
0.11,-0.13555,-0.040164,-0.0045086,0.0080694,0.011785,0.0547,0.13262
0.086657,-0.018893,-0.027108,-0.0019882,0.0015446,-0.028234,0.094857,0.022022
-0.033764,-0.011956,-0.084826,-0.023872,-0.021158,-0.037226,0.29589,-0.0096469
-0.20528,0.033852,0.10609,0.039113,-0.013117,0.00046684,-0.10234,-0.22854
0.35192,-0.084173,-0.05639,-0.031629,0.0023812,-0.00095732,-0.26621,-0.11199
-0.027867,0.11094,0.037078,0.03768,0.017742,0.060294,0.052285,0.088887
-0.025747,0.056798,-0.035029,-0.010345,-0.0058757,-0.081114,0.14068,0.44294
-0.0018814,0.096844,0.071623,0.020021,0.025452,0.020409,-0.087829,-0.11412
-0.3546,-0.07436,0.01395,-0.050588,-0.028812,-0.017755,-0.039661,-0.51394
-0.12194,-0.074992,-0.098059,0.020194,0.034452,0.093496,-0.17528,0.35109
0.33062,0.04713,0.087636,0.029263,-0.011398,-0.044414,0.56102,0.0891
0.17684,-0.12265,-0.0067921,-0.0078766,-0.010228,0.0057067,-0.20434,0.035814
-0.08174,0.095329,0.017219,0.017929,-0.016833,0.048136,-0.17279,-0.034207
0.024313,-0.09524,-0.13724,-0.065461,-3.6357e-05,-0.089425,0.23561,-0.18079
-0.26322,-0.076125,0.014051,-0.00049762,-0.014554,-0.040137,-0.48526,0.029901
0.35888,0.24765,0.11143,0.05635,0.033362,0.047344,0.1112,-0.045414
-0.088218,-0.13849,-0.040782,-0.043519,-0.012544,0.016699,0.18957,-0.19819
-0.083674,0.078538,0.096017,0.051347,0.019557,-0.030461,-0.20384,-0.0097494
-0.083021,-0.054479,-0.12708,-0.05756,-0.0032513,0.070044,0.39781,0.45238
0.029168,0.055472,0.023885,0.0047202,0.004817,0.029293,0.0070601,-0.218
0.017701,0.16502,0.064275,0.050673,-0.0032835,-0.06664,0.26851,0.28085
0.078086,-0.07868,-0.06063,0.017819,-0.012068,-0.045755,-0.43109,-0.048999
-0.17924,-0.23127,-0.014657,-0.06251,-0.013783,0.0061331,-0.32137,0.058405
0.083229,0.050713,0.038611,0.036409,0.030682,0.042273,-0.13821,0.0014976
-0.031249,-0.11502,-0.056448,-0.036732,-0.042567,0.031533,0.57969,-0.31998
-0.013494,0.17129,-0.049212,-0.031602,0.0089126,-0.033793,-0.14196,-0.16761
0.28571,0.036414,0.1467,0.059974,0.013542,0.0026223,-0.080699,0.0678
-0.016339,-0.0099907,-0.062372,-0.019502,0.018465,-0.015427,0.2367,0.13977
-0.19349,-0.1071,-0.067397,-0.019838,-0.015189,-0.01762,-0.4743,-0.031097
0.081774,0.08954,0.17771,0.051148,0.0064066,-0.0039799,0.54021,-0.02244
-0.15968,0.10315,-2.6428e-06,0.013544,0.012901,0.072324,-0.14669,0.010071
0.019804,-0.067356,-0.14077,-0.047127,-0.019264,0.031562,-0.36173,-0.067289
-0.027352,-0.001835,0.027915,0.017039,0.011317,-0.079399,0.57473,0.47617
0.020673,-0.030358,0.013417,0.010203,-0.01267,-0.0026906,-0.19796,-0.030797
0.16577,0.025044,-0.019948,-0.02116,-0.0053387,-0.027236,-0.18197,-0.41132
-0.13704,-0.024212,-0.0086786,0.00091811,-0.0056988,-0.020014,-0.34096,0.032042
0.23872,0.032614,0.041061,0.045336,0.017649,0.09733,0.64256,0.26072
-0.33902,-0.17877,-0.071822,-0.082764,-0.021023,-0.05002,-0.10125,-0.0376
0.192,0.014902,-0.017151,0.0079263,0.026932,0.038005,0.01913,-0.11941
-0.20076,-0.033135,0.058284,0.013498,-0.010215,-0.021498,-0.27137,-0.059312
0.12111,0.12386,0.030358,-0.010675,-0.0074516,-0.017849,-0.16121,-0.23377
0.10783,0.22881,0.039525,0.037382,0.0038198,0.040754,0.36501,0.22586
0.12346,-0.10914,-0.08737,-0.014211,-0.0079799,-0.033643,-0.067367,0.057773
0.063569,0.069828,0.03804,0.045011,0.019177,-0.03054,0.35507,-0.15465
-0.33947,-0.18138,0.04569,-0.012402,0.022245,0.041905,-0.46014,0.10977
-0.078556,-0.075564,0.041965,0.0077279,-0.014918,0.027259,-0.034819,-0.0036778
0.050182,0.26864,-0.014727,0.026138,0.016691,-0.043213,0.031249,0.32833
-0.10743,-0.329,-0.11029,-0.098669,-0.054926,0.0025914,0.18519,-0.12772
0.16246,0.14766,0.0051007,0.04699,0.028229,0.032277,-0.08697,-0.22454
0.12075,-0.0029132,-0.10472,-0.052265,-0.038035,-0.039552,-0.096509,-0.0039259
0.04341,-0.13783,0.015984,-0.00495,-0.0029871,-0.0091972,0.18847,0.18685
-0.0055857,0.081333,0.073812,0.010577,0.0091995,-0.03242,0.12725,-0.077562
-0.057348,0.1879,0.10368,0.050545,0.022714,0.031689,-0.39037,0.028285
-0.12082,-0.16851,-0.0709,-0.0085924,0.030257,0.05031,-0.061229,-0.28607
0.10659,0.13708,0.060014,0.021732,0.016366,0.046548,0.22985,0.057573
-0.057352,0.0096553,0.059627,0.0091788,-0.019183,-0.042703,0.16025,0.091837
0.072342,-0.0061887,-0.12758,-0.023041,-0.022263,-0.015081,0.20432,0.092432
-0.014104,-0.13202,-0.12102,-0.068014,-0.017091,-0.019771,-0.29596,0.1401
-0.22401,0.082475,0.17762,0.075946,0.018924,-0.026087,-0.24784,-0.08302
0.19263,-0.19306,-0.086985,-0.053841,-0.032164,-0.026476,-0.057565,-0.161
0.13534,0.16512,0.19085,0.095547,0.047846,0.072906,0.1196,0.3213
-0.1126,-0.02275,-0.0075318,0.022629,-0.006925,0.022473,0.15256,-0.40936
-0.12671,0.13505,-0.098026,-0.031325,-0.0011049,-0.083396,-0.011395,-0.025447
-0.0056841,-0.17975,-0.1591,-0.10554,-0.043716,0.029445,0.043632,0.010793
0.10469,-0.10513,-0.025434,-0.035283,0.02206,0.025698,-0.040429,0.26787
0.10487,0.22104,0.086802,0.055831,0.0094069,-0.016065,0.16675,0.36873
-0.2384,-0.23788,-0.13927,-0.088163,-0.026318,0.037154,-0.20976,-0.43077
0.23894,0.29323,0.26872,0.15186,0.040433,-0.033484,0.025068,-0.022699
-0.057978,0.08852,0.0091674,0.011924,0.014689,0.037332,0.050585,-0.10299
0.025123,-0.078913,0.10761,0.032113,0.013741,-0.00083537,-0.25052,0.055287
0.001323,-0.25715,-0.14605,-0.060752,-0.056275,-0.078123,0.27818,-0.19503
-0.19457,-0.010519,-0.05691,0.014072,0.015302,0.031681,-0.26913,0.12439
0.044373,0.16671,-0.016918,-0.0023184,0.0093661,0.015882,0.16273,-0.055065
0.0052883,-0.086908,-0.02015,-0.056644,-0.035379,-0.047411,0.19903,0.4083
0.14789,0.18779,0.032926,0.029362,0.013568,0.037233,-0.26976,0.092689
0.1045,0.012902,0.062338,-0.0032885,-0.00028119,0.027814,0.10721,-0.12008
-0.34344,-0.19044,-0.027115,0.00089493,0.024465,-0.020793,0.016182,-0.2709
0.15634,-0.14112,-0.09578,-0.044311,-0.013872,0.032164,0.12749,-0.24472
-0.10599,0.11443,-0.0035637,-0.0059557,0.0018114,-0.047638,-0.19321,0.13617
0.15207,0.26459,0.20247,0.092959,0.02459,0.0054181,0.099817,0.21417
0.041187,-0.2441,-0.2433,-0.067312,-0.03148,0.035056,-0.071966,0.18417
-0.031242,0.14437,0.17486,0.091909,0.036786,-0.021207,-0.051842,-0.11729
-0.032965,-0.13896,-0.027309,-0.069569,-0.036078,0.024234,0.013056,-0.17297
-0.025627,0.024345,0.025399,0.02667,0.008007,-0.039339,-0.047275,-0.066281
-0.00065434,0.072941,0.036489,-0.002008,-0.025905,-0.031919,0.081651,0.18245
-0.043286,-0.07809,-0.055834,-0.030457,-0.020204,-0.0078346,-0.32516,-0.30628
0.065848,0.24402,0.03082,0.10558,0.080207,0.080098,0.59239,0.30653
-0.039962,-0.35844,-0.25665,-0.18736,-0.044672,-0.01797,0.044811,0.25748
-0.063609,0.060399,0.13053,0.020781,0.0037375,-0.036511,-0.2897,-0.4602
0.11198,0.047658,-0.032297,0.042914,0.014425,0.031907,0.039743,0.13741
-0.029335,-0.013994,0.11578,0.027778,0.018348,0.046022,-0.055255,-0.037653
0.19125,0.14042,-0.08072,-0.0088969,-0.039647,-0.041846,-0.045532,0.011179
-0.14926,-0.0058859,0.15924,0.096785,0.019565,-0.021582,-0.20577,-0.072192
-0.14577,0.061056,0.15472,0.0084662,0.015746,0.028013,0.2842,0.089979
0.18512,-0.22319,-0.22138,-0.094744,-0.03592,-0.018443,0.065987,0.32093
-0.14151,-0.0012642,0.012846,0.01314,0.020572,0.0031249,0.039924,0.046456
0.030457,-0.017193,-0.16849,-0.09019,-0.033537,-0.031858,-0.22898,-0.2433
-0.0017374,0.071299,-0.056395,-0.014296,0.012911,-0.013244,0.011967,-0.3761
0.12193,0.32574,0.22292,0.11588,0.019693,0.044325,0.26525,0.057334
-0.13684,-0.34021,-0.018464,-0.004131,-0.020515,-0.022214,-0.35008,-0.070519
-0.019625,-0.090403,-0.061555,-0.022508,0.017767,0.030158,0.026268,0.1377
0.23949,0.11495,-0.0072297,-0.0015985,0.0020924,0.037876,0.24565,0.31388
-0.25813,0.027032,0.090705,0.019486,0.0029551,-0.02242,-0.052714,0.034116
-0.075671,-0.048052,0.061258,0.024838,-0.0031206,-0.041704,-0.011834,-0.35434
0.41859,0.078675,-0.1026,-0.056342,-0.0085748,0.010567,0.13871,0.27417
-0.33919,-0.044579,0.013868,0.0097216,0.001796,-0.0071726,-0.112,-0.074844
0.26693,0.020735,0.028433,0.034935,-0.0037758,0.021249,-0.24315,-0.046741
-0.14678,0.048751,-0.07397,-0.020227,0.021061,0.016772,0.18113,0.28193
-0.10404,-0.05393,-0.12094,-0.054432,-0.033507,-0.029122,-0.0035939,-0.22041
-0.010633,0.072121,0.20827,0.088621,0.05881,0.016007,-0.015104,-0.12194
0.0096277,-0.22952,-0.13303,-0.067296,-0.045789,-0.019699,-0.046643,-0.059339
-0.018158,0.21265,0.026892,0.017429,0.0044456,-0.010831,-0.07202,-0.018485
0.079657,-0.22689,0.070212,-0.054973,-0.055706,-0.0035294,0.1773,-0.084396
0.093607,0.0058237,-0.035368,-0.0025896,0.024309,0.010963,0.03979,0.33174
-0.061402,0.27708,0.18542,0.13607,0.049783,0.025837,0.009391,-0.070702
0.099044,-0.039087,-0.14365,-0.029225,-0.025605,-0.012683,-0.13191,-0.12333
-0.1211,0.23612,0.10951,0.048648,0.064189,0.01328,0.045264,0.15419
-0.051258,-0.038404,0.015365,0.033933,-0.00091039,0.0025434,0.094428,0.022325
0.072663,-0.62032,-0.36233,-0.20597,-0.088037,-0.068288,-0.13462,0.060418
-0.016371,-0.055569,-0.10721,-0.10825,-0.025418,0.066136,-0.1439,-0.32538
-0.069317,0.38406,0.229,0.19465,0.077352,0.045926,0.24438,0.19978
0.17917,0.11458,0.094653,-0.046926,-0.053473,-0.067076,0.075556,0.15775
-0.12979,-0.26847,-0.13294,-0.035979,0.011424,-0.00011361,-0.11226,-0.1249
0.059692,0.47044,0.35974,0.24287,0.08413,-0.003785,-0.084951,-0.10234
-0.17255,-0.37169,-0.084177,-0.14856,-0.077967,-0.023844,0.025059,-0.07178
-0.019919,0.28239,0.11124,0.11683,0.063814,0.025398,-0.054742,-0.087501
0.13646,-0.35804,-0.46355,-0.2356,-0.092366,0.011065,-0.049709,0.10139
-0.0069447,0.15025,0.13306,0.089953,0.054955,0.019176,0.22885,0.058364
0.183,0.15687,0.31176,0.15531,0.037155,-0.036024,-0.054097,0.18251
0.010479,-0.4177,-0.52363,-0.274,-0.098526,0.0097682,0.031577,0.11451
-0.12726,0.30104,0.18824,0.068167,0.031301,0.039635,0.0014467,-0.21656
-0.067696,0.016689,0.10387,0.065679,0.021089,-0.024261,0.034766,0.071105
-0.10138,-0.011568,0.021501,-0.037938,-0.011263,0.0058845,-0.15033,-0.16426
0.13771,-0.10988,0.013553,0.055494,0.012959,-0.057111,-0.23412,0.037408
-0.085465,0.005167,0.051129,0.034412,-0.0074656,-0.017624,0.2908,-0.15246
0.010114,-0.25057,-0.38708,-0.21806,-0.025658,0.085554,0.088317,0.03175
-0.098966,0.52233,0.4973,0.35232,0.12208,0.018232,-0.044664,-0.066072
0.22013,-0.38728,-0.39662,-0.26343,-0.12743,-0.032049,0.0092261,0.28064
-0.0093012,0.2691,0.26686,0.073592,0.021735,-0.034174,-0.17164,0.040212
0.11078,0.090477,0.064852,0.064591,0.006056,-0.035355,0.077025,0.28981
0.033002,0.050262,-0.14471,-0.03434,0.012061,0.042002,0.060081,-0.26093
-0.078885,0.020487,0.22263,0.17414,0.085878,0.064389,-0.050574,-0.24608
-0.24038,-0.62591,-0.24045,-0.26326,-0.12446,-0.086176,-0.10664,-0.3539
-0.17727,0.27451,0.035995,0.013752,0.05295,0.12077,0.29002,0.58756
0.1196,-0.18347,-0.39292,-0.18826,-0.092401,-0.073259,-0.12659,-0.037825
0.1285,0.041565,0.10662,0.047216,0.0027576,-0.043635,-0.020904,-0.2125
0.22604,0.48402,0.26234,0.15235,0.06593,0.069006,0.05224,0.10512
-0.0085721,-0.024833,0.23915,0.21496,0.05898,-0.063037,-0.11795,-0.0041571
-0.090593,-0.34188,-0.22064,-0.10784,-0.056421,-0.02488,-0.046585,0.12617
0.0029661,0.11238,0.35107,0.058576,0.032657,0.028319,0.040607,0.044858
-0.19772,0.049011,-0.28908,-0.021634,-0.001815,-0.042892,-0.0038293,-0.16895
-0.014409,-0.048572,-0.20481,-0.1709,-0.027205,0.098468,0.11789,-0.15584
0.20768,0.091401,0.12664,0.053859,0.0030195,0.015624,-0.038958,0.11446
-0.13429,-0.064197,-0.12255,-0.06005,-0.020881,-0.002063,0.041414,-0.078803
0.13064,0.0143,0.041217,0.033326,0.018011,-0.032857,-0.047585,0.17556
-0.052631,-0.056821,0.096868,0.0059513,-0.021035,-0.038186,0.0058072,0.061576
0.050327,-0.019781,0.078462,0.077583,0.033922,0.035942,0.028763,0.02096
-0.028713,-0.22538,-0.40202,-0.17984,-0.090365,-0.045579,-0.10467,0.22242
