0.023905,0.14997,-0.0059357,-0.003506,0.00078455,0.013972,0.27946,0.024256
-0.072302,-0.16645,0.040787,0.045556,0.017027,0.012322,0.015078,0.2452
0.02865,-0.010739,-0.015002,-0.030632,-0.0066562,-0.029,-0.18931,-0.51041
0.14097,0.45498,-0.016885,-0.013557,-0.015499,0.015406,0.3558,0.38582
-0.14059,0.043535,-0.011523,-0.0049893,-0.0014965,-0.033689,-0.42561,-0.51597
-0.19875,-0.43359,-0.0064734,0.0027482,0.0043807,0.0038671,0.0073845,-0.11945
0.30156,-0.0016827,-0.0014509,0.017439,0.01027,0.0034742,0.085862,0.56899
0.1165,-0.053345,0.027281,0.007924,0.0086812,0.0044485,0.060432,0.14294
-0.13883,0.06613,-0.0059378,-0.0099629,-0.0079345,0.030265,-0.038041,-0.094769
0.26789,-0.06589,-0.046211,-0.035929,-0.023788,-0.052113,-0.0079092,-0.16308
-0.58676,0.14442,0.039376,0.00066533,0.000211,0.030267,-0.03915,0.20728
0.1481,0.057132,0.00078594,0.021998,0.032694,0.050158,0.47447,-0.40192
0.035303,-0.11587,0.0097208,0.020471,-0.0047245,-0.0088422,-0.3219,0.31067
-0.064626,-0.053483,0.034647,0.0039821,-0.0030372,-0.045891,-0.22787,-0.46149
0.092092,0.049234,-0.049764,-0.011899,0.0060878,-0.030248,0.25495,0.35965
0.046047,0.082437,0.014004,0.01172,-0.0011821,0.084783,-0.25625,0.13512
0.22797,-0.0097691,-0.024236,-0.02695,-0.032957,-0.10684,0.091826,-0.39782
-0.12745,-0.041613,0.0073639,0.020316,0.020001,0.028289,0.083642,0.39706
0.026353,0.14914,-0.0082424,-0.0028698,0.017124,0.061317,-0.12825,-0.20362
-0.13946,-0.0092016,-0.0161,-0.034026,-0.025711,-0.077119,-0.031836,-0.2836
0.14003,-0.079539,0.038795,0.01288,0.0012824,0.059149,0.12635,0.32962
-0.26053,-0.060909,0.00046499,-0.010417,-0.010766,-0.021482,0.11394,0.19741
-0.044128,-0.091532,0.0096739,0.021264,0.024595,-0.029754,-0.30333,0.19206
-0.007074,-0.15226,-0.027373,-0.0013389,-0.0093798,0.041902,0.27911,-0.3855
0.11694,-0.028179,0.021895,0.023325,0.020417,0.075679,0.25663,0.015533
0.1643,0.049798,-0.0069804,-0.0064708,0.012531,0.039473,0.321,0.032619
0.041152,0.4353,-0.044166,-0.020701,-0.048744,-0.16135,-0.70272,-0.32809
0.16863,0.20646,0.12863,0.034973,0.031652,0.011587,-0.36307,0.097694
-0.25912,-0.3342,-0.12173,-0.027261,-0.012274,-0.090509,-0.034939,0.077614
-0.079256,0.11406,0.032769,0.011167,-0.016886,0.10275,-0.14623,0.24785
-0.097254,-0.19577,0.029769,0.017465,0.033015,0.091808,0.91509,-0.27823
0.14,-0.14328,-0.083442,-0.062812,-0.027009,-0.075761,-0.19999,0.23765
-0.12442,0.0025486,0.0062356,-0.026122,0.0058846,-0.02418,-0.052549,-0.12324
0.048661,0.13091,0.049471,0.026458,0.0065289,-0.01838,-0.12714,-0.054065
0.098815,-0.046563,-0.0078259,0.017211,0.013955,0.12181,0.61353,0.4462
-0.073539,0.089922,0.03005,0.032259,0.0048357,-0.048729,-0.27074,-0.020698
0.12677,-0.033912,0.006948,0.024595,-0.012774,-0.014463,-0.57166,-0.66604
0.02838,-0.046631,-0.038277,-0.037488,-0.038514,-0.088251,0.21693,-0.0059937
-0.088008,-0.1242,0.057972,0.056263,0.053046,0.096554,-0.029911,0.13073
-0.052059,0.071743,-0.064297,-0.038641,-0.050149,-0.046625,0.033404,0.11843
0.055818,0.34645,-0.030718,-0.025893,-0.011777,0.012807,-0.29311,0.19044
-0.1811,-0.074893,0.040992,0.0083693,0.051221,0.024269,-0.029438,-0.16266
0.23455,-0.14847,0.0098771,-0.029305,0.029532,0.06545,0.56139,0.37726
0.019312,-0.0033143,0.00085004,-0.036545,-0.037924,-0.1373,-0.1058,-0.25491
-0.0079417,-0.034189,-0.032801,0.026921,0.012601,0.087942,0.29552,0.10231
-0.19141,0.052497,0.034303,0.045296,0.0088225,0.030592,0.14443,-0.25624
0.086742,0.012868,0.0073807,0.0042577,-0.034046,-0.12906,-0.47813,-0.19103
-0.015604,0.089431,0.019849,0.0063121,0.00086595,-0.015273,-0.32716,-0.13956
0.011745,-0.42646,-0.052707,-0.057536,0.035272,0.052425,0.39054,0.71161
-0.10975,0.031469,-0.053567,0.031173,-0.063633,0.043399,-0.54508,-0.52671
0.16153,0.076987,0.048779,0.09181,0.0011613,0.036094,0.48459,0.42812
-0.1021,0.1047,0.012125,-0.056777,0.026706,0.038274,0.26475,-0.2746
0.3348,0.35158,0.039265,-0.033541,0.0053012,-0.067651,-0.5818,0.24801
-0.27769,-0.04895,0.028023,-0.051221,0.01502,-0.071393,0.162,-0.16109
-0.081097,-0.067137,-0.022393,0.068294,0.06341,0.034121,-0.24081,-0.22981
0.25896,-0.13586,-0.019047,-0.012077,-0.053131,0.052923,0.58804,0.18096
-0.23597,-0.14198,-0.048536,-0.0038452,-0.046157,-0.031059,0.063062,0.44498
-0.0052493,0.090218,0.013786,-0.0085402,-0.01007,0.024203,0.15047,-0.5398
0.043386,0.081238,-0.019551,-0.017747,-0.04698,-0.13273,-0.8267,0.094347
0.088674,-0.13899,0.039355,0.0321,0.13186,0.068776,0.64044,0.16934
-0.041572,-0.0074096,-0.03538,0.0017546,0.042086,0.066674,-0.65835,-0.66397
-0.050184,0.15791,0.01485,0.033368,-0.050203,-0.0058109,0.48943,0.53463
0.024567,0.040048,0.065785,-0.012172,-0.034685,0.093814,0.17329,-0.27163
0.019755,-0.39626,-0.046098,-0.03976,-0.058373,-0.21243,-0.36605,0.5513
-0.14144,0.0085288,-0.00023578,-0.017067,0.013343,0.044184,0.04502,-0.47345
0.33917,0.4205,0.023631,-0.021512,-0.012891,0.137,-0.088646,0.51176
-0.24033,0.0039285,-0.029482,0.017483,0.0053682,-0.12943,0.29512,-0.097391
0.027328,0.038392,0.027489,0.099722,0.053836,0.080759,0.080544,-0.17086
0.10388,-0.041843,-0.032468,0.0058281,0.031511,0.041046,-0.23049,0.17241
-0.21322,0.024833,0.016865,-0.022975,0.016101,-0.16245,-0.43387,-0.25481
0.1076,-0.26539,-0.019982,-0.073782,-0.040708,0.072119,0.12523,-0.25448
0.050703,0.077015,0.021097,-0.0071617,0.015,-0.043997,0.29331,0.076846
-0.1343,-0.065994,-0.054997,-0.050767,-0.069727,0.0050318,-0.056419,-0.40294
0.082949,-0.083875,0.017643,0.060126,-0.0012006,0.047291,0.50712,0.44513
-0.056775,0.034081,0.020508,0.059219,0.022287,0.066782,-0.22954,0.055002
0.21023,-0.0050657,0.047423,0.03201,0.037461,-0.070024,0.16622,0.62303
-0.12614,0.24025,-0.050206,-0.068589,0.027408,0.10467,-0.15433,0.091652
-0.021383,0.031157,0.047534,-0.00035986,0.070333,-0.050724,-0.17834,-0.53779
0.10828,0.088327,-0.042745,-0.013017,-0.089948,0.017722,0.048781,0.046087
-0.15276,-0.20517,0.092397,0.058056,-0.0049483,-0.11215,-0.62248,-0.54135
-0.0082783,-0.12408,-0.11006,-0.083215,-0.084281,-0.24471,-0.2739,0.11322
0.22965,0.18853,-0.0019477,0.032914,0.028795,0.42561,0.94641,0.62109
-0.35938,0.034352,-0.0050853,-0.014356,-0.10594,-0.15456,-0.15463,-0.48884
0.078448,-0.18334,-0.0018866,0.025994,-0.015693,0.15687,-0.25492,0.38652
0.12398,-0.052948,0.00049574,-0.0092933,-0.034413,-0.31068,0.3636,-0.28689
-0.17325,0.041083,0.049724,0.013045,0.18088,0.20933,0.54816,0.13913
0.25142,0.051164,-0.0018808,-0.031997,0.14197,-0.0015799,0.21268,-0.36569
0.063463,0.13369,0.0025291,-0.0042912,0.029826,-0.014086,-0.9035,-0.3007
-0.1585,-0.077675,0.055494,0.079604,0.219,-0.11042,-0.39014,0.7235
0.18688,0.019983,-0.10853,-0.008115,0.083886,0.22367,0.78091,0.28076
-0.17443,0.045539,0.057192,-0.010976,-0.4136,0.010086,-0.66482,0.13655
-0.055606,-0.077271,-0.096126,-0.070806,-0.42564,-0.28375,-0.48375,-0.72849
0.027344,-0.065317,0.032625,0.038139,-0.045748,0.16164,0.83533,0.20267
-0.15221,0.012787,0.091358,0.010907,0.1287,-0.052377,-0.078395,-0.23403
-0.016015,0.017692,-0.014218,-0.0036806,0.14395,0.03569,0.41913,0.29749
0.07656,-0.21409,-0.065856,-0.035879,0.10231,-0.1355,-0.58475,-0.31035
0.1719,0.20773,0.061038,0.0095191,0.14469,0.08402,0.24452,0.56417
0.057806,0.19582,-0.0009655,0.0013733,0.13657,0.15679,0.90288,-0.055333
0.021344,-0.025561,-0.0097137,-0.019672,0.049784,0.013879,-0.70946,-0.45411
0.091306,0.048543,-0.097828,-0.013368,-0.12348,-0.17977,-0.607,-0.10171
-0.031528,-0.022227,0.0632,0.083331,-0.081111,0.083964,0.15742,0.12046
-0.38781,-0.45882,-0.018323,0.012395,-0.13189,-0.16404,-0.27972,0.37079
-0.032563,0.27681,0.048723,0.038488,-0.14742,0.11435,0.42357,-0.66998
0.22282,-0.049191,-0.024339,-0.043034,0.10293,0.12083,0.65864,0.36359
-0.2912,-0.036437,0.059562,-0.054265,0.0073408,-0.052538,-0.64991,0.082782
0.21741,0.060335,-0.027714,-0.0047219,0.041376,-0.0090569,0.213,0.38306
-0.053201,0.15098,0.010524,-0.0050928,0.033383,-0.070567,-0.14625,-0.34475
0.42245,-0.089127,-0.052558,-0.001405,0.046814,0.011859,-0.19168,0.27109
-0.097062,-0.094722,-0.0062784,0.0062984,0.0046718,0.065901,0.1276,-0.118
-0.049759,0.27643,-0.014861,0.0029533,-0.037523,-0.072258,0.072069,0.21045
-0.1012,-0.33484,0.0076049,-0.0026377,0.014235,-0.08143,-0.18552,-0.50254
-0.073575,0.14838,0.076854,0.0063332,0.042384,0.094408,0.17408,-0.37076
-0.16389,0.082986,0.013406,0.038815,0.061707,0.12086,0.63239,0.067485
0.025246,-0.19846,-0.088736,0.0019544,-0.10848,-0.1412,-0.37715,0.42702
0.10292,0.02674,-0.0027645,-0.017769,-0.07836,-0.026524,-0.78864,-0.26781
0.046045,0.098486,0.084001,0.034498,0.026787,0.098456,0.62846,0.35233
0.050568,0.044726,-0.12524,-0.075774,-0.0035868,0.046491,-0.073476,-0.12535
-0.1017,0.13664,0.056915,0.010422,0.011263,-0.13574,-0.050964,-0.17871
0.21445,-0.22036,0.05211,0.034818,0.033818,0.13718,0.44021,0.79688
-0.040271,0.083976,-0.022866,-0.018645,-0.0045135,0.013032,-0.4318,-0.11305
-0.022674,-0.28377,0.050257,-0.0018597,0.0071984,-0.18848,-0.52869,-0.3255
-0.16305,0.055305,-0.064928,-0.00095109,-0.00029205,-0.085032,0.28048,-0.23518
0.0069992,0.051152,-0.032825,-0.015965,-0.018811,0.10436,0.49318,-0.22081
0.011089,0.091212,0.068324,0.031289,0.037153,0.10612,-0.012067,-0.19079
0.0062706,0.16364,-0.050385,0.0003209,0.025832,-0.025104,-0.36708,0.82357
0.15017,-0.11989,0.025539,0.02409,0.015883,0.42165,0.73103,-0.44934
-0.18831,0.061389,-0.070484,-0.037907,-0.072675,-0.49886,-0.87824,-0.084691
0.1567,0.034224,0.029386,-0.013737,-0.015005,-0.091129,0.83824,0.23295
-0.094588,-0.040174,0.013179,-0.012791,-0.023324,-0.0032922,-0.7823,-0.20553
-0.12096,-0.25934,0.053039,0.019511,0.073617,-0.00061518,-0.13647,0.3263
0.1792,0.1461,0.0082632,0.0283,0.010303,0.22187,0.60716,-0.0099168
-0.046511,-0.069825,0.0034415,0.036776,0.0062626,0.093869,-0.030471,0.078251
0.27838,0.15236,0.03012,-0.0099839,-0.156,0.036959,-0.15903,0.14767
-0.22333,0.05286,-0.12335,-0.096537,-0.0063217,-0.21512,-0.36279,-0.17451
-0.10871,-0.21288,-0.0044207,0.019239,0.089374,-0.092837,0.1582,-0.49431
-0.10644,0.043072,0.058439,0.056176,0.092798,0.23898,0.38426,0.076523
0.17262,0.18163,0.010533,-0.024558,-0.0037601,-0.30614,-0.11837,-0.2119
0.055992,0.049103,-0.077541,-0.027314,-0.021194,0.17009,-0.28418,-0.021324
0.0049846,-0.077811,0.036882,0.048296,0.047228,0.042842,0.45134,0.6365
0.028672,-0.20327,0.026216,-0.0083068,-0.026291,9.8371e-05,-0.19991,0.33643
-0.058507,-0.065929,0.015917,-0.01716,-0.016157,0.065955,0.30131,-0.081088
-0.26991,-0.11604,0.014088,-0.0015595,-0.055525,-0.15732,-0.51393,-0.11972
0.10756,0.24955,0.044257,0.038481,-0.097035,0.026248,0.19807,-0.15079
0.083274,0.19474,-0.018645,0.0090479,0.0012163,0.046838,-0.046764,-0.6789
0.11876,-0.087263,-0.15133,-0.097963,0.0066448,-0.18118,-0.73211,-0.41237
0.049282,0.24355,0.044493,0.037372,0.046102,0.4126,0.79905,0.67374
0.20893,0.033986,0.053094,0.031793,0.08194,-0.15631,0.13311,0.64168
-0.45972,-0.54097,-0.031833,-0.037033,0.060057,-0.22407,-0.13648,-0.15955
-0.037896,0.10884,0.024037,0.033597,0.050356,0.24033,0.61408,0.17912
0.32312,0.091161,0.040921,0.063681,0.0046732,-0.091423,-0.45308,-0.067889
-0.20685,-0.038501,0.003031,-0.056282,-0.1413,-0.22729,-0.48092,-0.52521
0.097865,-0.097351,-0.0039231,0.025409,-0.022184,0.16855,-0.15925,0.32406
-0.28575,-0.15873,-0.034873,-0.026738,0.0090814,0.13496,-0.044768,-0.21171
0.27675,0.36875,-0.058765,-0.094798,-0.11839,-0.00029348,0.75924,0.2808
-0.024615,-0.080235,0.010244,-0.013782,0.040996,-0.12059,-0.45188,-0.84397
0.063205,0.1463,0.070632,0.053186,0.097567,0.15619,0.49225,0.22457
-0.011377,0.05758,-0.0024235,0.052153,-0.04897,-0.24877,-0.30029,0.12682
0.012203,-0.089425,0.010124,0.069398,0.055645,0.22658,0.35724,0.79236
-0.16086,-0.1179,-0.016346,0.018827,0.013602,0.058689,0.17622,0.063256
-0.10756,-0.024259,0.0045345,-0.084577,-0.011147,-0.28329,-0.61469,-0.97885
0.10966,-0.18832,-0.090869,-0.069924,0.066491,-0.095389,-0.57394,0.53363
0.16164,0.30725,0.025936,0.038227,0.049846,0.10791,-0.26626,0.012335
0.13231,-0.025574,0.081751,0.043534,-0.062587,0.27309,0.75203,-0.023797
-0.11379,0.1313,-0.017133,-0.023493,-0.13923,-0.091071,0.44721,-0.15834
-0.19667,-0.2149,-0.020913,0.00087368,-0.024423,-0.07002,0.11156,0.18938
0.19375,-0.11784,0.030918,-0.016073,-0.014868,0.070594,-0.34063,-0.42233
0.032496,0.10446,-0.026312,-0.019155,0.070055,-0.036907,0.34561,0.31655
-0.28232,-0.17771,0.0098244,0.0080018,0.020832,-0.018313,0.024517,-0.28222
-0.12479,0.10915,-0.041031,0.011544,0.034328,-0.1167,-0.73981,0.10248
0.21016,0.13957,0.015905,0.007842,0.025932,0.026527,-0.39073,0.113
0.1859,0.29019,0.063145,0.059913,0.051167,0.18421,0.68463,0.23583
-0.054534,-0.20408,-0.079016,-0.042966,-0.092846,-0.26898,0.046591,0.1292
-0.009338,-0.038961,0.019386,0.01944,0.01548,0.21377,0.062484,-0.26778
-0.083898,-0.12154,0.015131,-0.010967,0.016139,0.117,0.25002,-0.23502
0.1044,0.14907,0.018308,-0.048629,-0.044732,-0.18392,-0.53582,-0.091618
-0.094007,-0.34432,-0.040616,0.0076755,-0.0115,-0.032132,-0.1582,0.38252
0.084721,0.24292,-0.012475,0.024919,-0.0095166,0.080908,0.38668,0.21244
0.06825,-0.0094081,0.017332,-0.012572,-0.0075786,-0.00019938,0.10952,-0.18596
-0.25467,-0.10707,0.0021802,-0.0031431,0.017944,-0.18871,-0.28517,-0.51394
0.012969,-0.01703,0.0044621,-0.016936,0.0048424,-0.062183,-0.12589,-0.14509
-0.012432,0.14433,0.047153,0.03214,0.039288,0.30143,0.61657,0.11643
0.17678,-0.14708,-0.0033029,0.011329,0.051013,0.065793,-0.037619,0.67596
0.041946,0.33291,-0.014976,0.014275,-0.046124,-0.027813,-0.084418,0.49974
-0.002125,0.025727,-0.0043348,-0.013979,-0.018176,-0.011932,-0.47255,-0.30678
-0.032596,-0.12025,-0.065757,-0.042587,-0.045392,-0.17699,-0.094954,-0.76387
-0.064101,0.23406,0.066099,0.045181,0.051346,0.077465,0.46945,0.19427
-0.22859,-0.6024,-0.077405,-0.0089089,-0.033107,-0.19448,-0.57551,-0.25611
-0.0098436,0.26719,0.035442,-0.0098351,0.021301,0.10873,0.4751,-0.023144
0.43607,-0.27359,-0.00092234,0.0032432,0.0036163,0.042326,-0.10299,0.48672
0.038547,-0.065504,0.017384,-0.039855,-0.031258,0.099344,0.27827,-0.076895
-0.32026,0.34131,0.044151,0.025283,0.010835,0.0072666,-0.067087,0.045926
0.15567,0.12381,0.0017157,0.019492,0.013239,-0.12375,-0.3569,0.092185
-0.049942,-0.0024837,-0.0081408,0.01371,0.046848,0.12089,0.77655,0.13509
0.031501,-0.018757,-0.0088503,0.0085775,-0.004956,0.030543,-0.37706,-0.24411
-0.0055859,-0.025272,-0.031797,-0.018759,-0.016669,0.003768,-0.12125,-0.33894
-0.16747,-0.21018,-0.030296,-0.060039,-0.10509,-0.39688,-0.97755,0.22915
-0.084701,0.11951,0.0032715,0.02562,0.058161,0.30519,0.44715,-0.37227
0.33127,0.085428,0.045282,0.04292,0.051231,0.047475,0.82715,0.76605
-0.19844,0.03535,-0.060727,-0.039642,-0.071404,-0.16237,-0.12513,-0.55712
-0.055076,-0.22951,0.02871,0.019609,0.017892,0.0033663,-0.097343,0.36155
0.035068,0.038245,0.05539,0.032453,0.060571,0.12988,-0.209,-0.42504
0.3598,0.20447,0.073521,0.013691,0.024491,0.098943,-0.26917,0.16521
0.033604,-0.19171,-0.097076,-0.045281,-0.0052946,0.010984,0.67722,0.71277
-0.26751,0.10103,0.035407,0.026805,0.0095925,-0.002126,-0.079327,-0.32766
-0.06321,-0.21973,-0.076042,-0.059411,-0.10301,-0.26108,-0.4429,-0.20427
-0.18528,0.20808,-0.087478,-0.014785,-0.046008,0.078349,0.37963,-0.39831
0.15266,-0.13638,0.11882,0.036133,0.032919,-0.083997,-0.29222,0.16583
-0.081942,0.19416,0.020224,0.0081398,0.048982,0.074409,0.15354,-0.11349
0.22821,0.005388,-0.015177,0.003674,-0.019929,0.056178,-0.042803,0.26588
0.18607,-0.038658,-0.017786,0.00014862,0.038347,-0.026848,-0.3182,0.13573
-0.24505,0.061101,0.036454,0.021678,0.013737,-0.079179,-0.33513,-0.4216
-0.21849,-0.22802,-0.024054,-0.0094674,0.0081416,0.24349,0.86811,0.53519
0.10472,0.34253,0.034967,-0.015098,-0.025559,-0.16127,-0.14004,-0.13963
0.11009,-0.32989,-0.036937,0.020152,0.013434,0.063706,0.032892,0.25838
0.07299,0.14502,0.025133,-0.029241,-0.032246,0.024556,-0.42078,-0.51303
-0.27913,-0.30259,-0.053148,-0.0077311,0.0080115,0.10827,0.64763,-0.11112
0.24093,0.086146,0.00072522,0.013584,-0.0076076,-0.15726,0.00059925,0.29079
0.21768,0.28913,0.0061985,0.010504,-0.017541,-0.17291,-0.17116,0.042938
-0.33543,-0.028437,0.06412,0.013629,0.024517,0.13843,0.066166,-0.081985
0.016597,-0.037874,-0.036942,-0.032179,-0.022215,-0.15237,-0.64734,-0.18541
0.22466,0.1278,0.03873,0.044762,0.053434,0.16758,0.50516,0.75723
-0.25176,-0.23551,-0.10721,-0.052312,-0.044862,0.0622,-0.52892,-0.68163
-0.014508,-0.0043206,0.12723,0.036388,0.027405,-0.019838,0.31249,0.00079198
0.10921,-0.039763,-0.069726,-0.024385,-0.025786,-0.16914,-0.1547,-0.12214
-0.15205,0.19561,-0.02521,-0.0071848,-0.00047838,-0.00050923,-0.058108,-0.25873
0.26685,0.083436,0.043169,0.034262,0.049357,0.31545,0.62252,0.60819
-0.3033,-0.22054,-0.066559,-0.06321,-0.047636,-0.057159,-0.024923,0.20514
0.0067664,-0.0051356,0.076296,0.044826,0.029134,0.099374,0.23181,0.03804
0.15898,-0.11314,-0.0041317,0.007135,-0.032824,-0.30271,-0.76257,-0.14652
0.22324,0.20691,-0.018514,-0.012328,-0.015009,-0.2187,0.17598,-0.19658
-0.020915,-0.10589,0.0016704,0.017123,0.019597,0.16956,-0.014218,-0.077352
-0.23241,0.051482,0.0010277,0.00078648,2.2724e-05,0.071175,-0.20173,-0.27665
0.093636,0.00029107,-0.044974,-0.007852,0.042714,0.21136,0.58016,0.17999
-0.021782,0.18619,0.11235,0.021212,0.0063325,0.034658,0.35365,0.04976
0.052869,-0.086401,-0.02052,0.016609,0.007524,-0.15436,-0.78667,0.22388
-0.25246,-0.02906,-0.030617,-0.030132,-0.03989,-0.011332,-0.10252,-0.0072376
-0.084384,0.037135,-0.012361,-0.03317,-0.02638,-0.16778,-0.12567,0.10811
0.14595,-0.22436,-0.020537,-0.015437,-0.021695,-0.012435,0.045026,-0.18623
0.090281,-0.11858,-0.054647,-0.014952,0.0063025,0.15997,0.77407,-0.13873
-0.045432,0.088778,0.042554,0.024359,-0.019477,-0.039157,-0.42435,0.095648
0.084146,0.24919,0.030147,0.033636,0.050343,0.00096405,0.23739,0.22899
0.1508,0.0029961,-0.020298,-0.0093299,0.013242,-0.062986,-0.82148,-0.33932
0.098045,-0.095828,-0.021891,0.013392,0.048995,0.26043,0.61315,-0.11637
-0.24122,0.13912,0.057045,-0.0074658,-0.038211,-0.054088,0.065442,0.070072
-0.12055,-0.0043715,0.060057,0.036924,0.00060618,-0.0091572,0.14311,0.39957
0.042723,-0.16798,-0.029262,-0.0029616,-0.0077779,-0.15449,-0.079293,0.0042567
0.035497,-0.0083641,-0.032392,-0.011323,-0.0179,0.069982,-0.5282,-0.21856
-0.1429,0.10009,0.025964,-0.020811,0.023745,-0.048142,0.40124,-0.1452
0.12562,-0.12996,-0.058362,-0.0091051,-0.0085449,-0.055909,0.22915,-0.042378
-0.055142,0.054188,-0.012494,-0.023694,-0.021084,-0.014642,-0.16299,0.2301
0.099021,-0.086439,0.0073782,0.021358,-0.0054475,0.15605,0.077529,0.50881
0.036487,-0.1347,-0.060583,-0.06087,-0.038578,-0.23625,-0.75671,-0.14187
-0.099608,0.20851,0.11285,0.066565,0.029498,0.38944,0.62069,-0.9298
0.067199,0.1705,-0.096066,-0.040469,-0.018378,-0.40989,-0.58942,-0.054319
0.076132,0.04711,0.07161,0.040999,0.061319,0.093534,-0.038886,0.30064
-0.1052,-0.02381,0.038458,0.06955,0.050669,0.32935,0.75854,0.16075
-0.11181,-0.15566,-0.0078854,-0.048259,-0.042335,-0.086509,0.34819,-0.15395
0.13942,-0.032645,0.010247,0.015517,-0.0072303,0.00010154,0.13924,0.72812
0.20807,-0.033841,-0.04869,-0.044388,-0.0090818,-0.17105,-0.16457,0.081719
-0.15052,0.11133,0.032897,0.013399,-0.01013,0.054152,-0.35223,0.10932
-0.21135,-0.090372,-0.042973,-0.022904,-0.0039045,-0.19288,-0.58622,-0.40871
-0.021686,-0.013007,-0.011474,-0.021188,-0.014973,-0.029723,-0.25249,-0.85421
0.03651,0.088381,0.033338,0.064992,0.041873,0.12227,0.53245,0.089915
0.051021,-0.23525,-0.048906,-0.069148,-0.06016,0.10022,-0.50851,0.30781
0.21962,0.03636,0.0081864,0.053186,0.030769,0.14779,0.84978,0.25062
-0.13475,0.32165,0.033858,0.01843,-0.0049546,-0.17114,-0.010623,-0.11149
0.037136,-0.079155,0.013724,-0.024304,0.021148,0.050799,0.11187,0.029303
-0.00511,0.038861,-0.012044,0.019472,0.032022,0.22844,0.5812,0.2384
-0.049481,-0.027394,0.0041889,-0.052686,-0.05729,-0.39551,-0.87346,0.079215
-0.080054,-0.22485,-0.070137,-0.013701,-0.011689,0.085578,-0.15739,-0.29439
0.027734,0.084188,0.061537,0.011667,0.012918,-0.023396,-0.12236,-0.35765
-0.10222,0.091352,0.08587,0.04675,0.024247,-0.28497,-0.59752,0.28496
0.22378,0.011497,-0.053048,0.012954,-0.0094868,0.16752,0.61062,0.38443
0.0037581,-0.088607,-0.036281,-0.0045759,0.028007,0.27811,0.5305,-0.34244
0.19658,0.077373,0.033335,0.00098057,0.010621,0.20098,0.17381,0.20225
-0.30115,-0.015598,-0.040439,-0.010456,-0.031514,-0.15254,0.020097,-0.14936
-0.18603,0.0071665,-0.0080221,-0.016288,0.002244,-0.12912,-0.37322,-0.28226
0.18203,-0.14248,-0.048954,-0.0013788,0.017615,0.3314,0.14593,0.86693
0.13931,0.0061329,0.024906,-0.01262,-0.079177,-0.53773,-0.38553,-0.54814
-0.22713,0.057064,0.050455,-0.026097,0.0014311,-0.15776,-0.1778,-0.22056
0.021803,0.044201,-0.033748,0.01377,0.041625,0.13,-0.00056961,-0.15906
0.18478,0.055799,0.085732,0.037823,0.011349,0.24351,0.34757,0.21725
-0.088159,-0.0080289,-0.027949,-0.0074195,0.0055806,0.0076026,-0.13414,0.085028
0.12603,0.18955,0.055211,0.011899,-0.013705,-0.22972,-0.1191,-0.41046
-0.062705,-0.17942,-0.078858,0.0027348,0.047908,0.46432,0.45114,0.61596
-0.13882,-0.20909,-0.063219,-0.01122,-0.020319,-0.20583,-0.20473,-0.0014674
-0.063864,0.0060372,-0.046698,-0.038011,-0.038985,-0.10798,-0.0050608,-0.08197
0.12205,-0.050558,0.032751,0.0076228,-0.00097952,0.044581,-0.03613,0.089209
0.097319,0.30766,0.16685,0.062169,0.038022,0.2405,0.51178,-0.097591
0.032508,-0.006163,-0.043254,0.0072608,-0.0090341,-0.28979,0.15887,0.37059
-0.057906,0.1087,-0.0041777,-0.017633,0.020844,0.051649,-0.52591,-0.34508
-0.057493,-0.19207,-0.059878,-0.044697,-0.052904,-0.20659,-0.40721,-0.3785
-0.075846,-0.1977,-0.046296,-0.011985,-0.0042763,0.043507,-0.28201,0.085137
-0.15165,0.19375,0.075874,0.010105,0.010296,0.13004,-0.20762,-0.37744
0.31756,-0.016768,-0.060074,-0.0014734,0.022264,0.14784,0.77083,0.666
0.12214,-0.015352,0.030876,0.016555,0.016539,-0.057512,0.34502,-0.036827
-0.26775,-0.011319,-0.0099682,-0.0051095,-0.037343,-0.1636,-0.3712,-0.33046
-0.030469,-0.136,0.044534,0.043968,0.033419,0.22225,0.47647,0.62026
0.13971,0.24443,0.0072243,-0.030597,-0.035848,-0.13263,-0.35446,-0.28827
-0.1082,-0.065116,-0.051571,-0.017221,-0.0099029,-0.0082811,0.17897,0.057058
