0.0278,-0.036664,0.0083258,0.0047509,-0.00062392,0.0025172,0.0018846,-0.015872
-0.12261,0.014069,0.025362,0.024022,0.0094266,0.011229,-0.019665,-0.011757
0.4498,-0.042595,-0.051294,-0.01233,0.011823,0.0050159,0.022101,0.039801
0.095908,0.075016,-0.034384,-0.0035114,0.0060838,-0.016505,-0.014066,0.01278
-0.11576,-0.070617,0.013432,0.010847,-0.023877,0.00092855,-0.019488,-0.078268
-0.6172,0.19984,0.10777,-0.016319,-0.0080773,-0.0055426,0.013036,-0.023261
0.38631,-0.10629,-0.055856,0.0012409,-0.0013205,-0.012691,-0.0028177,0.075832
0.21371,-0.15357,-0.039605,-0.029379,-0.0034723,0.0029022,0.0031945,-0.046447
-0.42423,-0.26272,-0.14771,-0.044396,-0.021981,-0.028908,-0.062419,-0.069053
0.13765,0.23782,0.057725,0.035831,0.013981,0.024986,0.019619,0.040429
0.018668,0.3164,0.2019,0.033061,0.019035,0.024292,0.031228,0.025542
-0.012924,-0.10566,-0.012186,0.018657,0.024907,0.02398,0.02776,0.051613
-0.0015224,-0.08389,-0.08506,-0.046093,-0.030606,-0.030479,0.0097291,-0.0054496
0.14835,-0.025594,0.013685,0.010137,0.016626,-0.021906,-0.038224,-0.028087
-0.031535,-0.0021709,-0.0060273,0.021781,0.010189,0.026097,0.016697,-0.024344
0.10648,-0.037934,-0.012343,-0.0056751,-0.01119,-0.011757,0.0023508,0.044058
-0.01769,0.038582,0.001862,0.010862,-0.0088795,0.01262,-0.019205,0.027504
-0.094237,0.0088737,-0.049595,0.013803,-0.022363,-0.026111,-0.017227,-0.090967
-0.38385,0.030187,-0.010194,0.039815,0.010521,0.028041,0.031257,0.031148
0.5328,0.11985,0.13646,0.025072,0.011449,0.010887,0.032164,0.10386
-0.24449,-0.28241,-0.10851,-0.061454,-0.01963,-0.04628,-0.069338,-0.11547
-0.091579,-0.088184,0.021883,-0.0068091,0.018924,0.020813,0.0080647,-0.056412
-0.047434,0.21263,0.013317,-0.041618,0.01009,-0.014036,0.0067997,0.0081903
0.44354,-0.057978,-0.00029935,-0.09053,-0.006864,0.021495,0.013165,0.040223
-0.10153,0.21792,-0.0026466,-0.14801,-0.00048521,-0.0049384,0.0041225,0.079826
-0.016683,-0.085105,-0.063864,-0.099712,-0.0096642,-0.014804,-0.0043496,-0.082954
-0.47166,-0.12485,-0.0046525,0.34681,0.012601,0.015622,0.0036195,0.021355
0.29352,0.29943,0.27565,0.30186,0.019518,0.047396,0.059382,0.1822
0.16378,-0.3619,-0.21639,0.052657,-0.05137,-0.060165,-0.071479,-0.11598
-0.28095,0.021327,-0.06034,-0.092614,0.010891,-0.0025889,-0.037567,-0.13893
0.56225,0.14238,0.10189,-0.2024,0.010979,0.0088515,0.020241,-0.019689
-0.61835,-0.16392,-0.09786,-0.18148,0.0035555,0.0050055,0.039144,0.085304
0.52889,0.24296,0.12906,-0.011912,0.019826,0.016712,0.011018,0.074344
-0.97326,-0.12826,0.017225,0.036996,-0.0027662,0.0045355,0.0058866,-0.076115
0.6628,-0.080661,-0.15914,-0.020528,-0.025217,-0.04744,-0.031164,0.00096554
0.052049,-0.096592,-0.078461,0.066344,-0.0085126,0.016847,-0.014329,0.00064388
0.27766,0.27125,0.1279,0.08141,0.016061,0.0098199,0.0016859,0.031895
-0.21804,-0.069259,0.070718,-0.010886,-0.0062018,-0.013808,-0.006458,-0.015199
-0.02368,0.12503,0.086966,0.050914,0.026247,0.047631,0.062989,0.10093
-0.00044177,-0.10663,-0.12755,0.0042794,-0.027241,-0.032266,-0.063176,-0.057822
-0.28937,-0.046013,0.059806,-0.031518,0.0051644,-0.0033145,0.029334,-0.10911
-0.022112,-0.17078,-0.24237,-0.079012,-0.025053,-0.029381,-0.057752,-0.0062905
0.1164,0.017602,0.097452,0.049108,0.030434,0.022534,0.042828,0.024098
0.25459,0.40819,0.22609,0.086211,0.038686,0.05104,0.065418,0.099518
-0.14316,-0.18015,-0.022213,-0.062878,-0.016041,-0.021838,-0.021342,-0.060839
-0.25395,-0.1548,-0.18803,-0.063657,-0.047887,-0.047528,-0.053536,0.027916
0.24355,0.17896,0.047857,-0.018788,0.013461,0.028778,0.0077911,0.045976
0.0046263,-0.10848,0.083441,0.039941,0.0040377,-0.0037509,0.0063743,-0.076529
0.21387,-0.1258,-0.17473,-0.035825,-0.029096,-0.035653,-0.034235,-0.057989
-0.11738,0.042346,0.094697,0.05141,0.039307,0.042497,0.034636,0.10187
0.12337,0.21003,0.0027188,0.013537,0.022012,0.035389,0.033611,-0.003035
0.14314,-0.13676,0.04349,3.6203e-05,-0.018248,-0.033598,-0.036993,-0.067916
-0.44292,-0.027957,-0.023187,-0.011644,-0.010996,-0.0083244,-0.020692,0.07127
-0.05609,0.15446,-0.023732,0.010281,-0.0030353,-0.0061303,-0.0033377,-0.077786
-0.46654,-0.058039,-0.011688,-0.012233,-0.010021,-0.0037505,0.030582,-0.0075094
0.19824,-0.12678,-0.017897,-0.0092708,0.0069851,0.0064489,0.033874,0.1177
0.41309,0.15052,0.10567,0.026174,0.024342,0.00085516,0.0060602,0.024023
0.29274,-0.15695,-0.056199,-0.024167,-0.012896,0.0027388,-0.037787,-0.14832
-0.23768,0.19186,0.096337,0.018225,0.012185,0.01976,-0.0044245,0.022255
0.291,-0.046184,-0.12621,-0.035206,-0.025663,-0.018521,0.004235,0.043439
-0.42052,-0.21543,-0.022655,0.017926,0.014,0.012813,-0.011916,0.0091163
0.021682,0.23865,0.19454,0.06799,0.0060905,0.0043727,-0.021468,0.075956
0.27634,-0.23051,-0.28803,-0.04874,-0.033743,-0.043777,-0.016229,-0.12254
0.12787,0.20583,0.068567,-0.0031856,0.0040021,0.001328,0.027745,0.039512
-0.54354,0.12665,0.10088,0.02645,0.041401,0.046163,0.04846,-0.046324
0.035717,-0.2563,-0.010193,-0.083025,-0.022877,-0.026195,-0.016194,-0.223
-0.13911,-0.051731,-0.013082,-0.06417,-0.0089202,0.0032697,0.013672,0.37713
-0.14873,0.1313,0.015739,-0.032748,0.020947,0.0097812,0.0052451,-0.050723
0.41138,-0.17606,-0.070696,0.050949,-0.019102,-0.029942,-0.088507,0.031824
-0.047336,0.36932,0.041191,0.20994,0.035038,0.06386,0.12281,-0.032718
0.43891,-0.09288,0.070701,0.091131,-0.027585,-0.044763,-0.087567,-0.1053
-0.24759,-0.063847,-0.115,-0.12045,-0.01171,0.0034858,0.0067935,0.070239
-0.19686,0.07252,0.11635,-0.044868,0.027912,0.020978,0.015265,-0.14031
0.42006,-0.25483,0.021611,-0.052007,-0.025971,-0.047135,-0.023006,0.15274
-0.11619,0.032038,-0.18165,-0.034326,-0.017173,-0.013545,-0.029794,-0.12911
-0.35286,0.027239,0.091296,-0.0079631,0.022985,0.027776,-0.012885,0.05346
0.024233,0.036252,-0.035654,0.01245,0.016282,0.029688,0.12134,0.10745
-0.065768,0.075647,0.085103,0.013626,0.0094622,0.0075125,-0.0024285,0.010583
0.48009,0.0056068,-0.046948,-0.040288,-0.021076,3.258e-06,0.029409,0.068918
-0.60626,0.029703,0.060208,-0.044327,-0.0051987,-0.039978,-0.096129,-0.34108
0.058601,-0.047365,-0.14015,-0.058145,-0.0055619,0.02024,0.0034197,0.0085118
0.32053,0.094365,0.039918,0.22461,0.032426,0.0088318,-0.0001431,0.19691
-0.55318,-0.21749,0.077638,0.24938,-0.0084209,-0.0035974,-0.02059,0.0060309
0.72588,0.079171,-0.041791,-0.15713,-0.026414,-0.039951,-0.057285,0.037536
-0.30775,0.070201,0.13568,-0.083482,0.0099437,0.025496,0.10939,0.25974
0.063334,-0.040871,-0.14677,-0.11094,-0.0083749,-0.017387,-0.043066,-0.46884
0.16922,0.0046656,0.057163,-0.023766,0.004961,-0.0037907,0.04079,0.014749
0.43811,-0.073164,-0.11878,-0.042958,-0.0043652,0.012121,0.0098473,0.084359
-0.32845,0.10205,-0.017591,-0.013432,0.0029833,0.022708,0.0047558,0.12961
-0.66433,-0.23409,0.033027,0.0804,0.0115,-0.0035333,-0.053009,-0.10027
0.13353,0.17694,0.087693,0.075358,0.028928,0.034292,0.0076864,0.01914
-0.079311,-0.047736,0.005114,0.019755,-0.030914,-0.013232,0.037465,-0.090597
0.44802,0.33313,0.049652,0.016771,0.003477,-0.014402,-0.058385,0.070381
0.15827,-0.16654,-0.02258,-0.018037,0.0066796,-0.0014948,0.078701,0.25214
-0.51033,-0.11918,-0.018112,-0.028788,-0.0060678,-0.022121,-0.075235,-0.29503
-0.1726,0.14504,0.084881,-0.022458,-0.011606,0.017169,0.057781,0.18727
0.36889,-0.18012,-0.23806,-0.053235,-0.017878,-0.070937,-0.068886,-0.22197
-0.19043,-0.08744,0.059735,0.019724,0.0063887,0.034494,0.01408,0.064357
0.50557,0.048473,-0.021047,0.0010893,-0.0011725,0.006244,-0.020673,-0.1556
0.12938,0.041404,0.060045,0.046898,0.022125,0.04061,0.069866,0.20532
-0.31425,-0.075609,-0.046781,0.00051734,0.021771,0.0056404,-0.010471,0.038606
0.12199,0.15236,0.011766,0.025507,-0.0099287,0.011282,0.035654,-0.030445
-0.24859,0.21107,0.15886,0.0041281,-0.0026112,-0.036016,-0.057241,0.083745
0.043968,-0.10198,0.012269,-0.017251,-0.0031546,0.012016,-0.02371,-0.10417
-0.45835,-0.20882,-0.061,-0.054615,-0.035014,-0.0091379,0.026423,0.052855
0.36702,0.11623,-0.1087,-0.014365,0.019008,-0.014151,-0.0090272,-0.18886
0.059118,-0.27665,0.031934,0.025443,0.026163,0.051042,0.080211,0.24751
-0.29425,0.36097,0.015702,-0.0052676,-0.021235,-0.048437,-0.034576,-0.11549
0.19243,-0.17561,-0.1118,0.0031742,-0.01365,-0.016008,-0.056908,-0.059385
0.34983,0.073161,0.2735,0.066625,0.017828,0.02328,0.013079,-0.021426
0.10919,0.12182,-0.17257,-0.033603,-0.020458,-0.016338,-0.058848,-0.016539
-0.2949,-0.40533,-0.098372,-0.024226,-0.011347,0.021709,0.06361,0.29993
0.081925,0.23362,0.090368,0.01627,0.037166,-0.002831,0.0059347,-0.32114
-0.14481,0.12478,0.035118,0.0092771,-0.00026431,-0.011512,0.018597,0.097432
-0.25018,0.096957,0.04939,0.008995,0.032152,0.027104,0.016015,0.06376
0.28042,-0.15337,0.017017,0.015075,0.0089281,0.027096,-0.0094529,0.093422
0.0094758,-0.062027,-0.1236,-0.058511,-0.023451,-0.042937,-0.01876,-0.079466
-0.16351,-0.11133,0.034489,-0.00058711,-0.05735,-0.034827,-0.058945,-0.17395
0.11491,-0.08026,-0.023963,-0.013718,-0.01453,0.051111,0.07288,0.21607
-0.10609,0.11148,-0.056727,-0.0033548,0.0038567,-0.0041452,-0.0063202,-0.22959
0.27726,0.2156,0.084284,0.031385,0.03751,0.002366,0.0080033,0.20821
0.11813,0.1471,0.038969,0.020973,0.024662,-0.015292,-0.032589,-0.29809
-0.3718,-0.39087,0.017254,-0.0028256,-0.034021,-0.033506,-0.018569,0.18174
-0.10688,0.41333,0.080514,0.053872,0.049427,0.073052,0.065974,0.077734
0.13819,-0.41056,-0.076932,-0.074847,-0.045127,-0.085827,-0.059851,0.1633
-0.021392,-0.10659,-0.17444,-0.038088,0.010323,0.021526,-0.012876,0.00056025
0.29482,0.2374,0.14736,0.03822,0.035724,0.036064,0.011837,-0.30173
0.05341,-0.028696,-0.12652,0.035849,-0.016294,0.0048223,0.029984,-0.0020765
-0.13766,0.15633,0.075468,0.0085097,0.0022068,0.029325,0.057039,-0.03071
0.10435,-0.091112,0.0048881,-0.028916,-0.034147,-0.03128,-0.032354,0.088604
-0.46116,0.14282,0.085197,0.0091358,-0.023969,-0.0054708,0.026933,0.39481
-0.15132,-0.34467,-0.12766,-0.033503,0.0015238,-0.034263,-0.125,-0.58085
0.31155,0.033182,0.031018,-0.0078593,0.011262,0.022628,0.050448,0.16155
-0.10736,0.11339,0.108,0.0010388,0.028898,0.0087272,-0.001709,-0.011096
0.14976,-0.032677,-0.022594,-0.0056919,-0.0079512,-0.013548,0.015274,0.14277
0.20092,0.0019205,0.0049349,0.035561,0.010011,0.010538,-0.00013689,-0.080948
-0.331,0.053157,-0.1003,-0.014937,0.0043458,-0.020443,-0.00093757,0.27751
0.28329,-0.051588,0.027059,0.022996,0.029238,0.010854,0.020857,-0.21271
0.43495,0.33468,0.018304,0.008742,-0.0018226,0.018612,-0.02833,-0.15393
-0.016952,-0.078946,-0.010345,0.01996,-0.011188,0.026306,0.10947,0.19593
-0.81396,-0.34111,-0.059176,-0.045734,-0.061566,-0.059875,-0.12028,-0.28735
0.14089,0.031347,0.044074,0.021611,-0.0043354,0.025555,0.0013363,0.23384
-0.10643,-0.11812,0.065985,0.01794,0.03611,0.0089854,0.0057857,-0.074129
-0.28714,0.24255,0.062576,-0.026167,-0.0017667,0.0074571,-0.028568,-0.091499
0.40219,-0.041081,-0.3006,-0.079744,-0.030883,-0.018148,0.031328,0.066897
0.57963,0.18975,0.1888,0.044841,0.012363,0.010374,0.068482,0.24652
-0.527,-0.234,0.10225,0.0043062,-0.0040258,-0.031745,-0.042009,-0.10652
0.1214,-0.051767,-0.075116,-0.013215,0.021843,-0.034775,-0.02673,-0.093986
-0.10272,0.11371,-0.014843,0.04756,0.066278,0.072024,0.043874,0.14249
-0.033332,0.11553,-0.013906,-0.00050358,-0.0043502,-0.0078187,-0.072599,-0.22671
0.35938,0.024608,0.067878,0.014492,-0.019398,0.015064,0.076732,0.21085
-0.25703,-0.2844,-0.13736,-0.0093434,-0.050577,-0.031071,-0.055225,-0.21803
0.30653,-0.054936,-0.0054391,0.0055407,0.0023946,0.0099555,0.047001,0.079532
-0.44894,0.1407,0.079947,-0.011795,-0.017645,-0.010557,-0.030707,0.0094653
0.056361,0.11248,-0.038323,0.016328,0.0061189,0.0085433,-0.046121,-0.27964
-0.041287,0.40457,0.21709,0.019546,0.027023,0.027708,0.079012,0.53295
0.029657,-0.57934,-0.16225,-0.048545,-0.016709,-0.0082221,-0.014504,-0.075747
0.3402,0.072806,-0.051686,-0.054133,-0.022453,-0.037125,0.0016444,-0.10537
-0.52078,-0.038589,0.041007,-0.034917,0.010958,0.0032843,-0.020828,-0.14955
0.099577,-0.023078,0.038155,0.010546,0.029874,0.0036087,-0.0037191,0.15881
0.22182,0.073167,-0.15317,-0.025966,0.011569,-0.004738,-0.048623,-0.15717
-0.1965,-0.068887,0.046239,0.16074,0.011003,0.025424,0.055242,0.08944
0.30078,0.060029,0.082759,0.10158,0.012375,0.0085374,0.088848,-0.21935
0.05861,0.031481,-0.097444,-0.048428,-0.047352,-0.047209,-0.12004,0.19664
0.060569,0.25254,0.084165,-0.064595,0.010775,0.03037,0.045404,0.1955
-0.57079,0.02042,0.14309,-0.050617,-0.0014894,0.014908,-0.0010512,0.064961
0.23911,-0.25855,-0.030667,-0.024048,-0.022235,-0.0075957,0.021748,-0.055417
0.291,-0.12338,-0.13333,-0.025271,-0.0049017,-0.0059544,-0.026669,-0.31452
-0.15324,0.14493,0.076305,0.02337,0.027066,0.01967,0.01819,0.15534
-0.90141,-0.44523,-0.17597,-0.01834,-0.012009,-0.032507,-0.069584,-0.23022
1.0287,0.3646,-0.039005,-0.00084514,-0.020136,-0.029919,-0.054874,0.01564
0.10457,0.020242,0.10433,0.046114,0.026575,0.035002,0.031715,0.2084
-0.48646,0.12324,0.051117,0.014703,0.0034685,0.013584,0.1124,0.1009
0.75636,0.23538,0.028239,0.046796,0.0044259,-0.024081,0.038635,-0.015675
-0.92304,-0.30869,0.067208,0.010343,0.013698,0.031184,-0.06521,-0.10917
0.62649,0.23948,0.066627,-0.016316,0.0074927,0.015154,0.042006,0.022978
-0.89625,-0.51984,-0.12964,-0.049046,-0.0068723,-0.0097626,-0.055052,-0.18369
0.87197,0.2644,-0.14642,-0.041494,-0.0299,-0.020118,0.025221,0.24434
-0.54957,-0.086953,0.0088062,-0.0020784,-0.0072721,-0.070454,-0.085231,0.076943
0.50583,0.15422,0.12561,0.053055,0.029638,0.097323,0.074216,0.068517
-0.60922,-0.25197,-0.045435,-0.024871,-0.028362,-0.039828,-0.074229,-0.2366
0.13553,-0.16249,-0.10539,-0.00943,-0.0011001,0.010735,0.017234,-0.026998
0.92459,0.65116,0.23497,0.052539,0.018376,0.015082,0.053076,-0.020711
-0.62924,-0.34923,-0.11837,-0.041954,-0.023827,-0.042045,-0.027691,-0.12155
0.2583,0.11712,0.021286,0.0041307,-0.0019741,0.027087,-0.0049258,0.13513
0.27088,0.43911,0.14494,0.065932,0.053203,0.050677,0.067721,-0.058895
-0.63227,-0.58121,-0.16282,-0.067405,-0.037789,-0.057303,-0.051418,-0.074741
-0.98116,-0.22016,0.10463,0.026025,0.03737,0.0076065,0.043864,0.3169
0.76736,0.19941,-0.22533,-0.052221,-0.01873,-0.020537,-0.037599,0.20305
0.13501,0.035173,0.050371,0.041591,-0.0037598,0.0063443,-0.015451,-0.096628
0.21433,0.21617,0.065192,0.010581,0.0032375,0.033206,0.07801,-0.1076
0.11225,-0.17125,0.039134,-0.012432,-0.0064329,-0.010579,-0.10197,-0.23892
-0.0043781,-0.071141,-0.018411,-0.0040022,-0.010034,-0.00025691,-0.0093371,-0.16534
-0.19858,-0.036422,-0.11368,-0.026636,0.007646,-0.014117,0.027263,0.079495
0.47911,0.29419,0.067093,0.0055531,-0.031605,-0.028802,-0.023661,0.15795
-0.1101,-0.2182,0.23553,0.05339,0.020874,0.057243,0.10352,0.24091
-0.83248,0.029226,-0.20988,-0.031745,-0.021963,-0.044997,-0.098872,-0.25024
0.50863,0.20903,0.027153,0.023353,0.043586,0.023934,0.017828,0.028027
-0.37282,-0.51463,0.00032821,-0.00030322,0.022796,0.029761,0.10227,0.059931
0.23935,0.32659,-0.018066,-0.040401,-0.021328,-0.035211,-0.071883,0.13445
0.36058,0.27887,0.041252,0.020176,0.0053357,0.01666,-0.0044178,-0.15462
-0.4293,-0.28356,-0.13491,-0.021611,-0.029802,-0.025382,-0.030991,-0.14289
0.34145,0.099627,0.16414,0.045431,0.013974,0.018584,0.020628,0.20166
-0.15972,-0.23588,-0.15514,-0.043923,-0.035222,-0.0074109,-0.021005,-0.13535
-0.32032,-0.10247,0.087473,0.015494,0.033458,0.014122,0.047694,0.027379
0.04161,0.070583,-0.060446,-0.041469,-0.030128,-0.080603,-0.12444,0.10567
1.021,0.33844,0.12048,0.051188,0.047283,0.052362,0.1269,-0.16457
-0.9678,-0.017393,0.036902,0.020225,0.015508,0.053698,0.036095,-0.37621
0.6841,-0.12207,-0.14707,-0.017196,-0.016235,0.0014162,-0.061212,0.66599
-0.60963,0.00031548,0.10733,0.02461,-0.008974,-0.018833,0.037557,0.13267
-0.098879,-0.12002,-0.083301,-0.0501,-0.017379,-0.046535,-0.066778,-0.30653
0.13141,0.054689,0.014617,0.008144,0.013374,0.011566,0.031223,0.095512
0.1691,-0.00025179,-0.037245,-0.019949,-0.049287,-0.0012669,-0.0051257,-0.12501
-0.53021,-0.012446,0.057225,0.044851,0.013668,0.016115,-0.035769,-0.14213
0.59845,0.10345,0.0083825,-0.00089442,0.022788,0.03218,0.079616,0.11358
0.025654,0.10529,0.050296,-0.024494,0.0094253,-0.039128,-0.0574,0.04909
0.15053,-0.099953,-0.035752,0.0053828,0.043796,0.0053823,0.0066387,-0.13015
-0.37911,-0.30762,-0.0931,-0.0047471,-0.015025,-0.013735,0.03797,0.15757
0.30209,0.27354,0.058712,0.0080256,-0.019057,0.013288,-0.040696,-0.052206
-0.39449,-0.03354,0.0066903,-0.0026892,-6.3057e-05,0.016635,0.021605,-0.13021
0.074924,0.1879,0.017682,0.018276,-0.0053674,-0.010971,-0.00071179,0.23179
-0.1209,-0.34894,-0.12587,-0.045877,-0.043071,-0.029971,-0.052098,-0.1437
0.30425,-0.080182,0.11606,0.031642,0.019568,0.022519,0.039937,0.23601
-0.33177,0.22855,0.056531,-0.0069687,0.0030022,-0.0095425,-0.029034,-0.31013
0.34416,-0.010226,-0.077859,-0.0056811,-0.0065422,-0.0011632,0.014256,0.1289
0.041746,0.059756,-0.084472,0.0038271,0.014721,0.03962,0.05983,-0.013677
0.30759,0.33272,0.21546,0.052247,0.035856,0.0030321,0.0051667,0.15568
-0.24803,-0.070921,-0.0073503,-0.0016183,0.010208,-0.0020433,0.020983,-0.0944
-0.47434,-0.24888,-0.12901,-0.056652,-0.023055,-0.030765,-0.1048,-0.20541
0.11665,-0.17232,-0.017534,0.019775,-0.0092259,0.018088,0.087855,0.2107
-0.37679,-0.22421,-0.048225,-0.029978,-0.010815,-0.027485,-0.081234,0.16097
0.42484,0.19145,0.0839,0.0055741,-0.027811,-0.042376,-0.049567,-0.32224
-0.037515,0.055456,-0.0031172,-0.0055238,0.010168,0.020599,0.027055,-0.1502
0.32346,0.17006,0.051319,0.039304,0.017306,0.04466,0.016566,0.071593
0.33467,0.025012,-0.048357,-0.015233,0.017181,0.030194,0.083863,0.17551
-0.14824,0.062102,-0.097943,-0.027835,-0.013534,-0.04599,-0.012532,0.11067
-0.63856,-0.29443,0.035907,-0.0061396,-0.0044972,-0.0041759,-0.022189,-0.096753
0.49837,0.11166,0.10296,0.033761,0.020773,0.038241,0.039368,0.10918
-0.70348,-0.06571,-0.10101,-0.0030352,-0.0082257,-0.020704,-0.070239,-0.01389
0.58882,0.3255,0.21899,0.053596,0.017603,0.021597,0.070506,0.29061
5.0988e-05,0.014359,-0.080046,-0.040653,-0.050497,-0.054118,-0.10128,-0.55721
-0.23271,-0.23105,-0.039647,0.016756,0.021542,0.025181,0.039126,-0.019924
0.091007,-0.063552,-0.052474,-0.010313,-0.00090026,-0.014161,-0.055254,-0.20806
0.087232,-0.095049,-0.10404,0.0021824,0.0070201,0.02318,0.092226,0.47166
-0.034017,0.11175,0.21198,0.038797,0.014006,-0.011011,-0.010408,0.09738
-0.74357,-0.19885,-0.18898,-0.055234,-0.042384,-0.038221,-0.034774,-0.15877
0.50879,0.33654,0.10185,-0.0037414,0.025499,0.035764,0.019335,-0.11702
0.73103,0.082339,-0.037279,-0.05306,0.014749,0.0239,0.011378,0.050439
0.10746,-0.41731,-0.10296,-0.11321,-0.019682,-0.0031295,-0.011844,0.26468
-0.76624,0.052645,0.11092,-0.063325,0.016247,0.0096039,-0.0036741,-0.28803
0.12613,0.12733,0.012587,0.19296,-0.017793,-0.047169,0.0043277,0.16435
0.42617,0.21304,0.11828,0.21122,0.026929,0.037483,0.019655,-0.066948
-0.31619,0.1513,0.028737,0.060731,-0.021192,-0.017762,0.018639,0.040735
-0.36023,-0.22604,-0.10973,-0.066092,-0.0056765,-0.0020611,-0.045652,-0.23145
-0.08657,-0.095943,-0.026605,-0.11871,0.011136,-0.0014351,-0.0011746,-0.0078344
-0.044658,-0.041602,-0.084448,-0.12519,-0.025393,-0.00031838,-0.035041,0.20509
-0.032343,0.01886,0.10455,-0.019417,0.0018206,-0.022192,-0.0060839,-0.059688
0.26939,-0.073128,0.077488,0.0080524,0.0065476,0.011016,-0.0074781,0.059037
0.39611,0.080609,-0.21335,0.018209,0.027359,0.060161,0.12531,0.15669
0.40342,-0.072935,0.060529,0.058047,-0.0067231,-0.031138,-0.013719,-0.093505
-0.070827,0.039678,0.017668,0.02751,0.020731,-0.0052406,-0.049609,-0.18278
-0.49314,-0.030841,-0.066501,-0.016272,0.0074267,-0.0029603,-0.021743,-0.016818
-0.43282,0.016146,0.18517,0.0076668,-0.015945,-0.0010327,0.0068496,0.053065
0.32281,0.35554,0.0088896,0.031742,-0.026194,-0.023023,0.051165,0.089253
0.059107,-0.17483,-0.10983,-0.035592,-0.030972,-0.0065008,-0.061278,-0.03374
0.13509,-0.1368,-0.03792,-0.028854,0.0093608,0.0094543,-0.026279,-0.15275
-0.51652,0.031828,-0.0026084,0.021243,0.0019824,0.02486,0.038669,0.27778
-0.069799,-0.029215,0.11191,0.028471,0.026139,0.024124,0.016276,0.099948
-0.080652,-0.01624,0.069507,0.023146,0.0048254,-0.016148,0.016001,-0.31311
0.61295,0.015364,-0.029993,-0.027295,0.0014564,-0.0099523,-0.040046,-0.11949
0.44401,0.22948,-0.023758,-0.0070558,0.0087708,0.011574,0.0047172,0.17917
-0.38455,-0.27976,-0.09968,-0.057959,-0.020011,-0.045138,0.017863,0.16757
0.13912,-0.23037,-0.14778,-0.0011164,0.016309,0.01548,0.0075924,-0.014365
-0.2415,0.26124,-0.018112,0.030346,-0.0002115,-0.0015837,0.0055062,-0.15578
-0.11234,0.14072,0.18199,0.036582,0.023174,0.02115,-0.058432,-0.18587
0.15994,-0.053351,-0.014137,-0.044404,-0.039616,-0.0333,0.0034476,0.15417
-0.29707,0.013405,0.15287,0.014632,-0.0098809,0.022619,0.034925,0.24067
-0.0089549,-0.16944,-0.074122,0.011247,0.0022574,0.024692,0.035877,-0.19838
-0.052616,0.25414,0.046702,0.00065125,0.004193,0.0038093,-0.017409,-0.060106
-0.048918,-0.1413,-0.079659,-0.0090683,-0.011951,-0.032742,-0.05502,0.031537
0.32854,0.17246,0.02941,0.036781,0.008766,0.016003,0.031952,0.069395
0.36002,-0.032968,-0.0028735,0.020801,0.035592,0.0010478,-0.0069535,-0.0009239
-0.080859,-0.21075,-0.084093,-0.033893,-0.0089555,0.015751,0.08571,0.2503
-0.44198,-0.030762,-0.035131,-0.04167,-0.014811,-0.057206,-0.096498,-0.41137
-0.032278,-0.098574,-0.027583,-0.026155,-0.0047531,0.0089212,-0.022285,-0.02496
0.18135,-0.0029109,0.048904,0.043888,0.01397,0.05837,0.089907,0.28481
0.097547,0.15212,0.01597,-0.026706,-0.012901,-0.064386,-0.071873,-0.09868
-0.29263,0.011546,-0.01576,0.012301,-0.014788,0.008679,0.016537,-0.057493
0.16487,0.22645,0.18888,0.043948,0.039646,0.028366,0.012167,-0.036177
-0.0094828,-0.10916,-0.041904,-0.0019479,-0.029377,-0.028148,-0.053035,-0.049853
0.2981,0.14322,-0.075895,-0.0004167,-0.011177,-0.0043103,0.0089058,0.042097
-0.43938,-0.13764,0.077967,-0.0063329,0.023532,0.060745,0.073133,0.012421
0.11843,-0.14429,-0.097244,0.0034412,0.011749,0.018137,0.037848,0.38318
-0.12528,0.079181,-0.094835,-0.049556,-0.015818,-0.062548,-0.081904,-0.21463
0.35831,-0.01811,0.0611,0.014066,0.018442,0.036576,0.064634,0.021793
-0.16692,-0.2353,-0.0045001,0.006608,-0.018693,-0.029071,-0.054655,0.10667
-0.16276,0.31799,0.044794,0.013933,0.013163,-0.010126,-0.01864,-0.56209
0.34739,-0.24718,-0.13391,-0.018609,-0.034457,-0.039734,0.00033091,0.08636
-0.3073,0.15824,0.21815,0.034111,0.010511,0.03836,0.0099379,0.014395
0.34387,0.022478,-0.077887,-0.015234,-2.786e-06,-0.0021008,-0.052121,0.17696
