0.010768,0.035272,-0.36269,-0.031153,0.028177,0.0091271,0.018707,0.01009
-0.026551,-0.1772,-0.35957,-0.17487,-0.039629,-0.035522,0.012109,-0.010052
-0.024934,0.094471,0.50957,-0.086752,-0.036859,-0.017939,-0.017628,-0.015166
0.023396,0.084317,-0.49228,0.23468,0.028599,0.030463,-0.008192,-0.013181
0.087179,0.22933,0.89146,0.064222,0.078438,0.039271,0.032371,0.058377
-0.13828,-0.31492,-0.43432,-0.14408,-0.075144,-0.077489,-0.068052,-0.073894
0.0032168,0.005509,-0.12091,0.00063312,-0.049745,-0.015116,-0.004973,-0.003687
0.07405,0.104,0.65466,0.25569,0.09948,0.054547,0.057397,0.050283
-0.051006,-0.090189,-0.51367,-0.24706,0.0049004,0.014332,-0.0060297,-0.0057563
0.073052,0.055782,-0.026256,0.17091,-0.0056749,0.0048604,0.0078456,0.031241
0.07088,0.089354,0.22319,0.094719,-0.018261,0.018296,0.013117,0.028357
-0.1203,-0.15237,-0.15924,-0.29616,-0.024807,-0.031306,-0.036992,-0.069155
-0.039635,0.027597,-0.10573,-0.48547,-0.11067,-0.073575,-0.032937,-0.04249
0.023991,0.068815,0.16376,0.4969,0.11563,0.055704,0.033339,0.03046
0.047659,-0.10471,-0.49898,0.41052,0.045754,0.028676,0.029327,0.025116
-0.053762,-0.022353,-0.19427,-0.59448,-0.053662,-0.029299,-0.021192,-0.011075
-0.0058459,0.043739,0.71224,0.29554,-0.017726,-0.016251,-0.016308,-0.01498
0.04398,0.086125,0.58092,0.11216,0.044685,0.036963,0.028672,0.013988
-0.012809,-0.083392,-0.75245,-0.074893,0.0086594,0.0056625,-0.0031791,0.013754
0.050876,0.22874,0.10915,0.045622,0.030124,-0.00058697,-0.0023112,0.0079283
-0.046114,-0.12853,-0.15702,-0.25447,-0.071277,-0.028631,-0.023348,-0.019238
-0.0072637,-0.064528,0.5948,0.19515,0.0082444,-0.0004907,0.0039578,0.0021494
-0.020848,-0.027615,-0.80939,-0.29424,-0.036993,-0.033677,-0.029982,-0.0066898
0.037058,-0.11411,0.45777,-0.051453,0.010805,0.027584,0.03072,0.00032335
0.01681,0.025832,-0.29021,0.43108,0.064884,0.057705,0.044942,0.022378
0.10476,0.37598,0.28551,0.10659,0.038711,0.063867,0.06679,0.066594
-0.22344,-0.33655,-0.78736,-0.4231,-0.11491,-0.14982,-0.14651,-0.1253
0.031708,0.10082,0.51959,0.029824,0.041493,0.0099481,0.01392,0.0090736
0.026422,-0.12184,0.53132,0.247,-0.046479,-0.0038885,0.01653,-0.014465
0.097071,0.34243,0.12638,0.12737,0.074863,0.058755,0.0097021,0.046786
0.025708,-0.28417,-0.5919,-0.17209,0.085995,0.065437,0.063968,0.068539
-0.13197,-0.053063,0.20443,-0.26754,-0.16059,-0.10043,-0.070216,-0.065616
-0.1015,-0.23515,-0.36177,-0.11079,-0.054548,-0.078751,-0.040673,-0.065923
0.21168,0.43652,-0.067737,0.68226,0.21746,0.12338,0.090758,0.10716
-0.074829,0.02416,-0.090573,-0.51239,-0.10959,-0.024761,-0.081606,-0.046202
-0.031479,-0.20871,0.57129,-0.36645,-0.17617,-0.10107,-0.018361,-0.073097
0.075394,0.10917,0.21579,0.63465,0.14237,0.12863,0.085186,0.10401
0.025828,-0.0037483,-0.21827,-0.0037481,0.048185,0.0074313,0.025534,0.0076785
0.037068,0.30654,-0.095532,0.12866,0.14919,0.057757,0.012898,0.043077
-0.079891,-0.13673,-0.059508,-0.027383,-0.040774,-0.049724,-0.063046,-0.048661
-0.16998,-0.54794,-0.070647,-0.67163,-0.27349,-0.1521,-0.070475,-0.12776
0.10217,0.14977,0.28955,0.52072,0.1059,0.070124,0.075736,0.055331
0.18991,0.34824,-0.47844,0.54071,0.18267,0.11666,0.070462,0.11785
-0.10883,-0.19893,0.17571,-0.53184,-0.081891,-0.051187,-0.06278,-0.056776
-0.04226,-0.0097495,-0.24326,-0.41875,-0.14737,-0.065179,-0.0030262,-0.029974
-0.084639,0.047158,-0.098631,-0.27679,-0.081817,-0.033124,-0.069423,-0.042513
0.0086767,-0.08438,-0.13191,0.17616,0.086281,0.0077742,-0.010456,0.016524
0.060201,0.061851,0.64465,0.44857,0.12533,0.067157,0.01141,0.039176
0.063667,0.16897,0.70483,0.52345,-0.032711,-0.0097607,0.060053,-0.0047526
0.050891,-0.027527,-0.38199,-0.36175,0.058728,0.035647,0.066032,0.041494
-0.11931,-0.13049,-0.081977,-0.27845,-0.069064,-0.023177,-0.040792,-0.033156
0.020172,-0.010456,-0.23022,0.072921,0.035836,0.016076,-0.0031741,0.0049285
0.045028,0.10121,-0.13698,-0.042373,0.011863,-0.012136,-0.0098091,-0.0017258
0.046185,0.042858,0.032246,0.20973,-0.018698,0.0075166,0.00022908,0.015722
0.036579,-0.042152,-0.55408,0.48398,0.066457,0.057532,0.048746,0.032383
-0.17334,-0.25156,-0.15097,-0.82049,-0.14106,-0.098002,-0.084372,-0.085734
0.0091429,0.38109,0.70255,0.16002,0.021631,-0.0068767,-0.009348,0.0044175
0.013886,-0.37896,0.10307,0.059182,-0.023634,-0.0051838,0.015811,0.0058232
-0.056258,-0.069345,-0.4231,-0.58681,-0.018036,-0.029846,-0.031905,-0.010809
0.042996,0.32056,0.39778,0.2846,-0.022341,0.0061826,0.0046452,-0.0056292
-0.021874,0.059883,0.15528,-0.2161,-0.018957,0.0026623,-0.01408,0.0066952
0.12633,-0.058788,0.4261,0.80946,0.17347,0.093591,0.10041,0.058303
-0.042154,-0.23573,-0.7567,-0.048023,-0.0066101,-0.017154,-0.010622,-0.014253
0.020095,0.069853,0.20741,-0.27236,0.0033094,0.022152,0.0045703,0.015822
-0.007707,0.11622,-0.2535,0.25004,0.022686,-0.015466,-0.010551,-0.039129
0.131,0.37913,0.30608,0.22337,0.026683,0.05669,0.021546,0.070461
-0.049793,-0.18217,-0.07861,0.11617,-0.001786,-0.012271,0.014257,0.00031345
-0.19225,-0.31199,-0.28936,-0.75055,-0.23561,-0.14489,-0.11103,-0.10156
-0.031773,-0.30932,-0.21871,-0.36549,-0.018762,-0.013232,-0.0028708,-0.0087468
0.087601,0.33197,0.43208,0.27084,0.14948,0.062763,0.018738,0.036751
-0.091475,0.0013084,-0.48177,-0.39297,-0.1435,-0.080118,-0.037714,-0.066137
0.16636,0.29168,0.73024,0.74273,0.14316,0.11389,0.08642,0.10511
-0.14559,-0.32086,-0.58824,-0.38567,-0.0905,-0.065156,-0.084692,-0.097349
0.12982,0.22581,0.10468,0.36802,0.10954,0.078618,0.097761,0.092451
0.039746,-0.13115,0.65767,0.81139,0.14163,0.068619,0.047704,0.026018
-0.04119,-0.0091066,-0.18734,-0.95432,-0.12039,-0.064582,-0.048033,-0.015884
0.136,0.25616,0.65191,0.55982,0.1262,0.076272,0.075105,0.067486
-0.10974,-0.27996,-0.78212,-0.37778,-0.12872,-0.096164,-0.068476,-0.092034
-0.13132,-0.045771,-0.046299,-0.35834,-0.11383,-0.059754,-0.10486,-0.050025
-0.062499,-0.15642,-0.4114,-0.42509,-0.11967,-0.07323,-0.034758,-0.057098
0.14324,0.29683,-0.2435,0.537,0.12669,0.089604,0.079147,0.089666
-0.013733,0.035288,0.11309,0.24676,0.071032,0.069577,0.010621,0.031099
-0.055907,-0.28263,0.13888,0.010884,-0.051036,-0.1014,0.0025783,-0.068193
0.08837,0.14912,0.3161,-0.058052,0.10593,0.10886,0.055967,0.058144
0.037726,0.26051,-0.015081,0.12952,0.012455,0.021667,0.02333,0.043684
-0.12842,-0.20709,0.37964,-0.54804,-0.087678,-0.096432,-0.094459,-0.064029
0.12215,0.15864,0.12692,0.29476,0.033305,0.036533,0.015785,0.00894
0.04779,-0.074207,-0.59833,0.29246,0.032437,0.038247,0.049848,0.036341
-0.15602,-0.2907,0.20145,0.094328,-0.066459,-0.067568,-0.054492,-0.067622
0.041797,0.24953,0.51267,-0.19011,-0.0055033,0.00044973,0.0075629,0.025201
-0.054456,-0.3062,-0.67104,-0.72521,-0.07392,-0.023343,-0.037456,-0.021182
0.08597,0.11206,-0.2758,0.61355,0.11077,0.064058,0.052477,0.043136
0.040645,0.37178,0.35466,0.11467,0.040269,0.020256,0.034881,0.022726
-0.097247,-0.13579,0.0070736,-0.34756,-0.082903,-0.037846,-0.059425,-0.059117
0.04671,0.12131,-0.41694,0.13211,0.029574,-0.0012288,0.019003,0.016169
-0.07497,-0.51257,-0.12071,0.19287,0.0018554,-0.026559,-0.019564,-0.040734
0.037052,0.15815,0.71852,0.13752,-0.018527,-0.0049237,0.0038338,0.012007
-0.00075693,0.0083166,-0.16979,-0.31745,-0.032469,0.008499,0.018155,0.017675
0.17023,0.40454,0.5438,0.34122,0.16235,0.1304,0.085255,0.10852
-0.060087,0.017727,-0.47836,-0.27143,-0.059709,-0.069349,-0.068774,-0.020753
-0.2235,-0.53606,-0.4605,-0.71959,-0.18337,-0.13019,-0.1082,-0.12849
0.08597,0.10932,0.26009,0.43312,0.010043,0.002341,0.037379,-0.011933
0.25909,0.38291,0.49159,0.98306,0.27862,0.22664,0.15747,0.16479
-0.25823,-0.2466,-0.10028,-0.7026,-0.2052,-0.14462,-0.13785,-0.12929
-0.035288,-0.20819,-0.52213,-0.15461,0.028094,-0.025142,0.0038852,-0.026381
0.085502,0.30418,0.064035,0.39373,0.10445,0.08565,0.03675,0.083763
-0.035056,-0.20767,0.46681,-0.12605,-0.11576,-0.08498,-0.022755,-0.047879
-0.028486,0.00825,-0.22933,-0.32068,-0.069086,-0.020633,-0.025538,-0.021945
0.074869,0.00055611,-0.28902,0.08675,0.073434,0.029428,0.03654,0.045077
0.10351,0.43456,-0.13126,0.06114,0.054584,0.042359,0.046233,0.036348
-0.020918,-0.2751,-0.24435,0.090852,0.03871,0.041949,0.010926,0.029943
-0.072548,0.027713,0.72713,0.13233,-0.044573,-0.042067,-0.046662,-0.044872
-0.13052,-0.35299,0.38765,-0.65621,-0.12538,-0.092767,-0.064903,-0.087222
0.11662,0.20681,0.40284,0.48309,0.084634,0.068997,0.049088,0.050528
0.050786,0.24503,-0.97686,0.087176,0.0064042,0.020625,0.036788,0.023864
0.030814,-0.067544,-0.32186,0.44096,0.15454,0.097252,0.022752,0.074382
-0.21689,-0.37255,0.50867,-0.55494,-0.19851,-0.14719,-0.11033,-0.13419
0.05787,0.0010273,-0.45292,0.030875,0.016777,-0.0023631,0.043993,0.015272
0.035185,0.47433,-0.05614,-0.064894,0.03426,-0.0076983,-0.037274,-0.0082783
0.035807,-0.062611,0.29543,0.14618,-0.052465,0.0085687,0.037085,0.022085
0.12254,-0.039895,0.26834,-0.079386,0.10057,0.054373,0.072362,0.075538
-0.087378,-0.13733,-0.21405,-0.15418,-0.029527,0.012825,-0.040307,-0.035032
-0.031626,-0.17497,0.34811,0.089832,-0.012274,0.0093338,-0.0036996,-0.0046636
0.10976,0.34793,0.11697,-0.06043,0.004812,0.0053007,0.033908,0.026156
-0.21046,-0.36437,-0.61406,0.026313,-0.078917,-0.10817,-0.099362,-0.090999
0.023073,0.16607,-0.10718,-0.16775,-0.012691,0.0053141,0.010431,0.010979
-0.0022007,-0.11408,-0.20276,0.43938,0.071185,0.025847,0.01152,0.011646
0.18261,0.57749,0.65014,0.20851,0.20412,0.13342,0.083345,0.11398
-0.062819,-0.41487,0.70696,-0.23654,-0.20782,-0.10931,-0.032174,-0.080612
-0.050596,-0.052096,-0.46244,-0.15693,-0.016691,-0.022647,-0.030614,-0.025368
-0.030318,-0.2253,-0.78616,0.020825,-0.012209,0.010439,0.0096741,-0.017253
0.11555,0.49434,-0.11232,0.088688,0.070554,0.075592,0.010398,0.076501
-0.13619,-0.2224,0.18075,-0.16844,-0.042447,-0.077578,-0.036334,-0.072248
-0.0041862,0.029625,-0.1604,-0.36268,-0.062592,-0.01981,-0.0055162,-0.0025635
0.10524,-0.047428,0.42159,0.59868,0.18176,0.084416,0.063879,0.074612
-0.065958,-0.032389,0.40312,-0.48697,-0.16879,-0.085556,-0.054564,-0.059487
0.067819,0.035313,0.093014,0.72574,0.10466,0.087234,0.037775,0.056068
0.053071,-0.016222,0.17205,-0.39383,-0.060094,-0.030094,0.020787,-0.00056872
-0.040174,0.1492,-0.38388,-0.062251,0.048274,-0.0077399,-0.027197,-0.010532
-0.094813,-0.12423,-0.66894,-0.012116,0.00048699,-0.0016653,-0.027848,-0.028275
-0.11067,-0.14068,-0.056182,-0.28909,-0.17964,-0.113,-0.051291,-0.10032
0.15488,0.15503,0.81193,0.74029,0.18004,0.1275,0.090112,0.086259
0.046132,0.16172,-0.09273,0.23253,0.079641,0.056236,0.01361,0.055298
-0.18637,-0.40163,-0.24664,-0.99971,-0.19965,-0.16238,-0.085534,-0.099188
0.23114,0.44165,-0.2085,0.35647,0.1388,0.12021,0.097189,0.11501
-0.013843,-0.1287,-0.11341,0.12991,0.063354,0.028898,-0.0010104,0.01795
-0.117,-0.06574,0.090336,-0.86593,-0.27797,-0.14762,-0.10706,-0.12528
0.022571,-0.22869,-0.16602,0.58077,0.098797,0.058882,0.052091,0.036166
0.099351,0.23429,0.32461,0.44686,0.17774,0.13217,0.062048,0.087484
-0.02026,0.10476,0.66903,0.34888,0.029051,-0.037695,-0.03836,-0.034469
-0.15717,-0.26552,0.061358,-0.40239,-0.19877,-0.12298,-0.046101,-0.072283
-0.038217,-0.017217,0.20655,-0.60637,-0.099209,-0.053499,-0.023615,-0.049476
0.14913,0.15391,-0.84103,0.32008,0.1641,0.1162,0.083979,0.088884
-0.032327,0.28607,-0.3775,0.20256,0.052592,0.027171,-0.02772,0.0073624
0.15222,-0.14533,-0.41379,0.08623,0.012026,0.015911,0.079111,0.034724
-0.20305,-0.19616,0.78723,-0.60773,-0.13699,-0.096652,-0.11866,-0.070582
0.011562,0.085761,-0.07767,0.15222,-0.0037808,-0.0053231,-0.027062,-0.003373
0.085304,-0.21404,0.50653,0.33583,0.09891,0.047998,0.072788,0.041299
0.057245,0.18597,-0.51924,0.038135,0.022133,0.032053,0.040239,0.016536
-0.11178,0.12263,-0.54827,-0.16156,-0.039511,-0.022231,-0.070182,-0.023274
-0.086009,-0.34023,0.4082,-0.020222,0.0069561,-0.013877,-0.00094421,-0.039569
0.064122,0.017528,0.40637,0.079806,-0.11257,-0.01392,0.021053,0.0061186
0.15108,0.36108,0.44345,0.24827,0.23435,0.15665,0.097071,0.12106
0.026546,0.19884,0.16806,0.18889,-0.085058,-0.096383,-0.023053,-0.023211
-0.19975,-0.45359,-1.0411,-0.92523,-0.15619,-0.109,-0.12831,-0.10641
-0.01945,0.0361,-0.25383,0.15795,0.037571,0.0020155,-0.0074122,-0.026624
0.12285,0.29989,0.68524,0.35518,0.1069,0.057816,0.058974,0.060593
-0.092412,-0.41305,-0.57631,-0.18212,-0.13436,-0.042065,-0.045621,-0.070406
-0.031801,-0.22063,0.29019,-0.084325,0.018021,-0.015273,0.023217,0.018815
0.039357,0.40016,0.11581,0.22796,0.056821,0.068712,0.0080958,0.063365
0.20685,0.46474,0.39862,0.39483,0.19288,0.1321,0.11218,0.11828
-0.20965,-0.70659,0.29623,-0.64082,-0.22301,-0.18473,-0.086805,-0.16813
0.10916,0.16763,-1.1554,0.26544,0.14378,0.10961,0.051022,0.078596
0.013684,0.13474,0.57466,0.32755,-0.028519,-0.0015963,-0.014329,-0.0017482
0.034162,0.35961,-0.29278,-0.091835,-0.014622,-0.0038912,-0.033722,0.027473
-0.1737,-0.60963,-0.45828,-0.31627,-0.11995,-0.085655,-0.054605,-0.092231
0.030794,0.03337,0.36871,0.059381,-0.00074677,0.010535,0.032257,0.0059983
-0.046927,0.21234,0.2491,-0.46368,-0.046964,-0.043262,-0.022809,-0.044952
-0.06975,-0.46942,0.12193,-0.15576,-0.046534,-0.051056,-0.031622,-0.049383
0.10421,0.37975,0.1004,0.47939,0.18139,0.081832,0.045709,0.1104
0.038399,0.040963,0.40976,0.21881,-0.0030305,0.028146,0.030222,0.020705
0.13147,0.19227,-0.42381,0.36919,0.15025,0.10089,0.055123,0.064391
-0.023454,0.049249,0.29645,-0.46822,-0.10949,-0.059344,-0.059341,-0.040186
-0.013751,-0.22052,-0.64537,0.32112,-0.033646,-3.8172e-05,0.037869,0.003076
-0.052269,-0.14515,-0.21131,-0.024755,0.0089361,0.027799,0.0099617,-0.0021012
-0.039373,0.23212,-0.014197,-0.21338,-0.022272,-0.031652,-0.042463,-0.033167
-0.093697,-0.41178,-0.32508,-0.584,-0.026539,-0.085576,-0.042093,-0.059407
0.15137,0.6568,0.9182,0.51848,-0.011596,0.045251,0.026246,0.052001
-0.077161,-0.54489,0.031154,0.08774,-0.12483,-0.04527,-0.0014646,-0.026452
0.0034176,0.13537,0.13528,-0.35668,0.1512,0.034227,0.00031167,0.011053
-0.081324,-0.086085,-0.64086,-0.067165,-0.048522,-0.043227,-0.053449,-0.052817
0.069423,0.078083,0.50081,0.16515,0.0046151,0.043962,0.041455,0.041153
-0.089118,-0.13985,-0.23096,0.15744,0.022971,1.3774e-05,-0.042108,-0.0028403
0.19442,0.19407,0.079694,0.45139,0.13203,0.075573,0.11842,0.096966
0.084483,0.12875,-0.44423,-0.17169,-0.035942,-0.010547,0.0076491,0.012298
-0.068031,-0.031685,0.27006,-0.24536,-0.0057958,0.006784,-0.0074598,-0.015393
-0.014555,-0.11054,0.56617,0.031211,0.0018269,0.001689,-0.0056064,-0.034089
-0.006887,0.3406,-0.73727,0.18493,-0.0071364,0.012241,-0.01095,0.017541
-0.1795,-0.32419,0.22478,-0.78012,-0.22157,-0.17332,-0.13351,-0.14269
0.036793,0.11689,0.060444,0.21969,0.037625,0.022715,0.024758,0.016003
0.063526,-0.026777,0.39553,0.52755,0.14578,0.08475,0.065343,0.071769
-0.083276,-0.41232,-0.61757,-0.36342,-0.083562,-0.049253,-0.019355,-0.029607
0.073876,0.055361,0.17744,0.45504,0.054204,0.04327,0.021028,0.032884
-0.0029859,-0.17548,0.081572,-0.52259,-0.04104,0.019273,0.014971,0.017735
0.015147,0.24238,-0.069137,-0.083427,0.045815,-0.011366,-0.01388,-0.0042906
0.25368,0.76485,0.31411,0.95329,0.18234,0.12341,0.12195,0.13097
-0.29542,-0.56789,-0.96774,-1.0219,-0.17868,-0.14688,-0.15589,-0.1705
0.023379,0.13381,0.14329,0.35712,-0.030409,-0.017994,-0.0040509,-0.018617
0.091825,0.16401,0.68674,0.27576,0.032057,0.064183,0.069243,0.070362
-0.052097,-0.13736,-0.2633,-0.19804,-0.0082874,-0.04153,-0.030096,-0.0057048
-0.088899,-0.46148,-0.013298,-0.47277,-0.058805,-0.015217,-0.03661,-0.051863
0.09044,0.33764,0.79677,0.51249,0.075215,0.0414,0.041931,0.049023
-0.068561,-0.13097,-0.070947,0.030603,0.0031824,-0.02002,-0.020803,-0.030893
0.098891,0.017438,-0.37174,-0.1209,-0.00079995,0.043026,0.033369,0.044881
0.023585,0.021191,0.022913,0.3176,0.025377,-0.011206,0.017364,-0.0041798
-0.16823,-0.15369,-0.66113,-0.61213,-0.1434,-0.096322,-0.084077,-0.08358
0.079236,0.11505,-0.41923,-0.15707,0.0021086,0.038021,0.026146,0.033843
0.0011116,0.065648,0.57152,0.14633,0.087996,0.032562,0.027739,0.012458
-0.011822,0.012328,0.20133,0.36989,0.013176,0.03555,0.0064189,0.016227
0.10244,0.27449,-0.36343,0.10712,0.074231,-0.00039085,0.01643,0.052438
-0.032212,-0.057467,0.47352,-0.12845,-0.042391,-0.029121,-0.028755,-0.020426
0.090533,-0.0042318,0.18918,0.51117,0.09138,0.073538,0.042109,0.030923
-0.16373,-0.25104,0.11626,-0.35317,-0.11223,-0.091567,-0.060562,-0.091454
0.063046,0.088047,0.38024,-0.068754,-0.02987,0.02984,0.045749,0.041327
-0.042372,-0.052181,-0.69372,-0.66089,-0.0063653,-0.030972,-0.029557,-0.0164
-0.12058,-0.23424,-0.24357,0.034939,-0.12794,-0.09382,-0.075173,-0.10039
0.173,0.36485,-0.079673,0.34173,0.16066,0.12344,0.073625,0.10254
-0.082062,-0.48455,-0.33191,0.22466,-0.022129,-0.026522,0.0036111,-0.0081208
0.022249,0.16068,0.16824,-0.13977,-0.018409,-0.019137,0.0047094,-0.001483
0.050187,0.18065,0.65355,0.033463,0.056332,0.083999,0.022967,0.045451
-0.012479,0.023996,0.17072,0.17606,0.016013,-0.0056404,-0.01925,-0.0070878
-0.032139,0.11327,0.25195,0.17846,-0.068137,-0.037946,-0.0045642,-0.03363
0.053813,0.41509,-0.85883,-0.36001,0.06982,0.0024243,-0.011209,0.02057
0.0026466,-0.16085,-0.21394,0.0024134,-4.2387e-05,-0.010084,0.0073433,-0.0088516
0.071158,-0.33096,0.47074,0.31651,0.026313,0.03323,0.074037,0.02599
-0.1247,-0.33473,-0.082877,-0.58507,-0.1254,-0.071402,-0.077289,-0.055269
-0.07048,0.12116,0.30793,0.092666,0.020507,0.011444,-0.040874,-0.0033006
0.053193,-0.089472,-0.88567,0.13865,-0.013239,0.00018159,0.01102,0.017249
-0.027676,0.29242,0.6657,-0.094081,-0.016237,-0.011622,-0.02345,-0.025316
0.038282,-0.15968,0.24298,0.16276,0.042405,0.038442,0.066461,0.032772
0.055844,0.12088,-0.64026,0.13884,0.084322,0.048744,0.054037,0.042913
0.033077,0.33353,0.76241,0.094854,0.039018,0.01138,0.0016373,0.012877
-0.0062688,-0.19833,0.001172,-0.51403,-0.10927,-0.06595,-0.059611,-0.057275
-0.10096,-0.32473,-0.28021,0.399,0.0065673,0.0041493,-0.043849,-0.034575
-0.0085391,0.086874,-0.6872,-0.42428,-0.043091,-0.036173,0.0020492,0.018715
0.021192,0.10492,0.12149,0.24892,0.0076137,0.008469,0.015693,-0.006487
0.043087,0.24204,0.30928,0.36927,0.073173,0.052343,0.028542,0.030742
0.041636,0.2292,0.54144,-0.058246,-0.0177,-0.013611,0.017438,0.021281
-0.053404,-0.6241,-0.0387,-0.17691,-0.02996,0.0063048,0.013942,0.012171
-0.015439,-0.030726,-0.52894,-0.34019,-0.01765,-0.028147,-0.044142,-0.043405
-0.071033,-0.037926,-0.41712,-0.26763,-0.042769,-0.061952,-0.054985,-0.059557
0.084479,0.28518,0.90268,0.43183,0.059002,0.069159,0.051934,0.05734
0.083875,-0.04337,0.05936,0.68159,0.14699,0.11524,0.065815,0.072742
-0.08069,-0.23152,-0.81144,-0.83639,-0.16979,-0.15036,-0.067963,-0.068194
0.004836,0.42667,0.22907,0.21646,0.076837,0.061203,0.025593,0.025054
-0.018891,-0.30902,-0.09317,0.38963,-0.004447,-0.0081341,-0.012947,-0.030329
-0.081472,0.1324,0.55496,-0.58013,-0.093978,-0.038282,-0.043052,-0.046732
0.059414,0.062817,-0.42515,0.043378,0.010882,0.009696,0.03673,0.038565
0.12267,0.30086,0.71004,0.21444,0.067688,0.042047,0.038776,0.046154
-0.024371,-0.34313,-0.32012,-0.23859,-0.064213,-0.066115,-0.037048,-0.023692
-0.02225,-0.0039619,-0.45993,0.59757,0.091883,0.060388,0.01224,0.016723
-0.13658,-0.32357,0.019718,-0.57585,-0.080984,-0.047017,-0.024452,-0.04348
-0.023735,-0.013228,-0.10265,0.050768,-0.01229,-0.0054263,-0.022292,-0.02473
0.050402,0.0056881,0.31391,0.16909,0.071546,0.052301,0.049796,0.041423
0.11662,0.34351,0.3354,-0.20141,0.0065104,0.0087651,0.011955,0.029527
0.018026,0.16521,-0.69596,0.39642,-0.012091,0.004238,-0.018777,0.0093545
0.097664,0.15094,0.46265,-0.032509,0.047009,-0.0085813,0.027815,0.019434
-0.12167,-0.19153,-0.10872,-0.052171,-0.073866,-0.037908,-0.043594,-0.050022
-0.13249,-0.37819,0.00627,-0.31051,-0.038447,-0.029338,-0.021973,-0.058579
0.018423,0.14533,0.51235,-0.1174,-0.025889,0.0092202,0.01476,0.0094746
-0.027661,-0.081756,-0.98112,0.21141,0.03479,0.031006,0.012214,0.013873
0.10532,0.19136,0.23418,0.18174,0.066125,0.044133,0.025414,0.064552
0.020238,0.03646,0.027154,-0.17693,-0.04079,-0.013467,-0.0078188,-0.0019052
0.0073771,-0.083692,0.2235,-0.046975,0.034464,-0.031938,0.0065136,-0.013018
-0.15111,-0.47986,-0.15243,-0.42535,-0.099101,-0.08114,-0.079894,-0.093334
0.16233,0.41158,0.28667,0.53184,0.12017,0.097082,0.076703,0.085492
0.0099263,0.41881,-0.247,0.66537,0.042629,-0.0049136,-0.023842,-1.8834e-05
-0.046662,-0.35,0.65247,-0.468,-0.05971,0.034705,0.032274,0.0092238
0.046024,0.16526,-0.31149,-0.1882,-0.070991,-0.05775,0.0025378,0.011192
-0.018051,-0.077672,-0.080775,0.13004,0.031228,0.021992,-0.019625,-0.018096
-0.029131,0.027267,-0.30298,-0.019338,0.059,0.031246,-0.0032133,-0.0010193
-0.07392,-0.45241,0.17782,-0.20986,-0.10464,-0.053906,-0.018657,-0.047321
-0.043269,0.22376,-0.4209,-0.40214,-0.013517,-0.015082,-0.011227,-0.01654
0.086565,0.18821,-0.24315,0.38405,0.083747,0.022532,-0.0041809,0.04449
0.035039,-0.2222,0.0079133,-0.29051,-0.022144,0.019904,0.041811,0.01879
-0.017265,0.22107,0.35607,0.23739,-0.0092466,-0.01491,-0.021413,-0.015215
0.032085,-0.01067,0.8302,0.35681,0.045666,-0.011186,0.017297,0.013107
-0.011544,-0.25065,-0.39741,0.1422,0.01846,0.03941,0.017416,0.0181
0.055391,0.30045,0.35511,0.009031,-0.090599,-0.026624,-0.00545,-0.0078242
-0.0091352,0.16798,0.19376,0.0029535,0.11659,0.049043,0.02671,0.01363
-0.095767,-0.37344,-0.81837,-0.57445,-0.071772,-0.076933,-0.058137,-0.050213
-0.056192,-0.042085,-0.08053,0.030767,-0.055354,-0.021521,-0.049201,-0.035181
3.3092e-05,-0.14293,-0.092559,0.0651,0.031613,0.0043119,0.014338,-0.0037082
0.064859,0.26839,-0.21876,-0.21602,-0.031038,0.031504,0.038649,0.036379
0.10671,0.21379,0.12529,0.36618,0.099211,0.090713,0.070536,0.069311
-0.046751,-0.12115,-0.12129,0.31998,0.10898,0.0092589,-0.03071,0.0010425
-0.028887,-0.01189,0.88892,-0.55628,-0.20526,-0.088742,-0.046444,-0.043859
0.011259,-0.06958,0.082206,0.39569,0.070709,0.0068589,0.0075996,-0.0033848
-0.098704,-0.068773,-0.28739,-0.32985,-0.15611,-0.071643,-0.032718,-0.049858
0.12533,-0.064348,-0.25598,0.01892,0.084283,0.050644,0.059161,0.058628
