0.15207,0.7461,0.27811,0.076043,0.005733,0.011738,0.050223,0.044922
0.1042,0.2681,0.14961,0.026577,-0.025907,0.035093,0.049572,0.039748
0.012273,-0.11549,0.07032,0.031489,-0.041954,0.019547,0.0015659,-0.044083
-0.17038,0.31049,0.1978,-0.10389,-0.010832,-0.011371,-0.031041,-0.081653
0.040183,-0.57642,-0.17168,0.019445,0.020848,0.02038,-0.016781,0.044233
-0.0055264,0.27307,0.084519,-0.012145,0.037578,-0.04949,-0.033606,0.028949
0.03475,-0.45759,-0.20905,0.067145,0.086144,-0.0025257,0.020169,0.044423
0.057738,-0.1294,0.068605,-0.039647,-0.091567,-0.026494,0.011804,-0.034333
0.046192,-0.28038,-0.15652,0.034313,-0.027264,0.050319,0.035064,0.019199
-0.11045,-0.11061,-0.17628,-0.047462,0.028534,-0.014283,-0.035097,-0.045049
-0.014235,0.45404,0.15615,0.042507,0.0050624,0.022044,0.012156,0.030696
0.038421,0.71359,0.31688,0.037984,-0.0041981,-0.012279,0.0048066,0.0043053
-0.021413,0.89605,-0.084224,-0.061467,-0.014883,-0.030926,-0.0026107,-0.03027
-0.082219,-0.85839,0.01653,-0.021642,0.012342,-0.0022365,-0.041478,-0.0023568
-0.14926,-0.90309,-0.11363,-0.068969,-0.023566,-0.011791,0.01312,-0.044283
0.29553,-0.26356,0.011522,0.11727,0.010871,0.089083,0.067408,0.09449
0.019671,0.26986,0.13611,-0.017048,-0.0086601,-0.027673,-0.042639,-0.0074202
-0.038447,0.17388,-0.46454,-0.041656,0.019954,-0.010604,-0.035675,-0.037174
-0.011889,0.4346,0.23458,0.02827,-0.0045595,-0.024031,0.0024988,0.0053304
-0.0035597,0.10191,0.078312,0.01325,0.042743,-0.013619,0.032979,-0.012914
0.046907,-0.297,-0.0033235,0.038213,-0.057305,0.020257,0.02468,0.0013451
-0.019217,-0.086195,0.043863,-0.0065305,0.0070803,-0.00086669,-0.0066122,0.031719
-0.016767,0.62111,0.38268,0.011375,0.063144,0.024326,-0.006062,0.022577
-0.13504,-0.70284,-0.44953,-0.064788,-0.061856,-0.0058524,-0.020408,-0.019265
0.023396,-0.13352,-0.009225,-0.016633,0.02205,0.0023605,-0.010479,-0.016573
-0.11202,-0.091596,-0.086839,-0.070919,0.025533,-0.044647,-0.046535,-0.040288
0.15441,-0.15607,-0.026783,0.045749,-0.066795,0.0017949,0.03543,0.03435
0.081183,0.64603,0.13985,0.059979,0.019268,0.0091432,0.024259,0.027881
-0.018491,-0.082512,0.085827,0.042126,-0.0041299,0.016701,0.028908,-0.03555
0.10599,0.57095,-0.015655,-1.2287e-05,0.0050956,0.008992,0.0019048,0.001427
-0.060511,-0.39655,-0.16313,0.019447,-0.045369,0.025101,0.0050469,-0.00039871
0.24039,0.53578,0.24625,0.014556,-0.04504,-0.0053924,0.0064148,0.062065
-0.52951,-0.64796,-0.16943,-0.11609,0.16284,-0.03581,-0.056968,-0.098802
0.013933,-0.67031,0.012111,-0.051774,-0.015733,0.0039362,0.0022585,-0.0052988
0.11463,0.0015305,0.017346,-0.0027245,-0.074001,-0.026969,-0.010946,0.046346
0.0088441,-0.0084915,0.14264,0.13351,0.15824,0.051058,-0.009975,0.048334
0.096543,0.4978,-0.08157,-0.040608,-0.086616,-0.035423,-0.0016883,-0.015639
-0.10594,0.16566,-0.24998,-0.055629,-0.013598,-0.005071,0.022773,-0.053146
0.057118,0.31157,0.02702,0.018414,-0.046006,0.025071,0.01746,0.019928
0.28696,-0.20375,0.084408,0.087523,-0.12201,-0.0073396,0.029864,0.060882
-0.19289,-0.10165,0.32756,0.033732,0.11014,0.030641,-0.025764,-0.0417
0.043614,-0.092079,-0.11138,-0.011319,-0.036134,-0.024965,0.0065711,-0.0004518
-0.02266,0.080133,-0.060893,-0.064588,-0.012514,-0.010064,0.016885,0.027287
-0.10527,-0.0042235,-0.0052488,-0.056981,0.14351,0.020656,-0.00344,-0.06036
-0.14287,0.05486,-0.21721,0.01845,0.019261,-0.010945,-0.023954,-0.036332
-0.11141,-0.31114,-0.00026901,-0.073042,-0.0092639,-0.034565,-0.053079,-0.024421
0.1788,-0.021148,-0.017046,0.051484,0.019359,0.035734,0.026074,0.023922
0.3014,0.054421,0.18691,0.10349,-0.20735,-0.010972,0.010442,0.10272
-0.25544,0.038885,-0.19235,-0.049069,0.036818,0.020632,-0.013668,-0.028536
0.16806,0.087906,0.28252,0.047724,-0.037781,-0.017908,0.063684,0.076741
-0.12853,0.084154,0.094753,-0.066333,0.044688,-0.032885,-0.061581,-0.080703
-0.049936,0.050787,0.23465,0.078096,0.23659,0.092817,0.048545,-0.0084536
-0.0021858,-0.0051436,-0.31549,-0.057612,-0.033097,-0.047127,-0.050964,-0.0035807
0.20123,-0.14738,-0.44795,-0.043458,-0.077365,0.031602,0.069585,0.011584
-0.15253,0.29452,-0.02282,-0.019856,-0.076092,-0.077259,-0.066655,-0.072902
0.004442,-0.30553,0.11669,-0.0023266,-0.16969,-0.029927,0.016359,-0.0076083
0.22439,-0.33052,0.51126,0.13411,0.1424,0.079918,0.04453,0.12101
-0.36977,0.53319,-0.2977,-0.10294,-0.037501,-0.028911,-0.053137,-0.078108
0.0018332,-0.10234,0.075127,0.020515,0.1038,0.049849,0.019663,0.035253
0.041755,0.14202,-0.032102,0.050797,0.004157,-0.019804,-0.010853,0.031057
0.28926,-0.21291,-0.00067152,-0.0049503,0.038383,0.004173,0.027138,0.018391
-0.15333,-0.34123,0.17791,0.0010417,0.018234,0.012213,0.0089093,-0.073252
-0.12085,0.37938,-0.59034,-0.16616,-0.13559,-0.11306,-0.080605,-0.040808
0.0675,-0.24266,0.67791,0.20403,0.13808,0.10481,0.024964,0.022069
-0.048294,-0.033938,-0.5816,-0.16973,-0.16187,-0.037324,-0.02516,-0.0093791
0.33706,0.48872,0.26947,0.16585,0.1671,0.085678,0.074369,0.13863
-0.21372,0.063606,0.056616,-0.077936,-0.13264,-0.064981,-0.0041931,-0.072592
-0.20857,0.216,0.25376,-0.0099827,0.025852,-0.051433,-0.026459,-0.048935
0.031839,-0.36568,-0.32115,-0.0517,-0.0041426,0.025169,0.022828,-0.016698
0.24915,-0.4534,-0.10727,0.070714,-0.13458,0.0011254,0.025818,0.055493
0.083388,0.0030345,0.34004,0.076189,0.042862,-0.0061575,0.052023,-0.0042917
-0.42704,0.38478,-0.36922,-0.11344,0.19384,0.018936,-0.11805,-0.055682
0.11562,-0.29115,-0.0066287,0.017213,-0.032483,0.021443,-0.047395,0.041497
-0.00024732,0.26051,0.15735,-0.04001,0.058923,0.055543,0.0060241,-0.010228
0.2403,0.26417,0.3139,0.14423,0.052734,0.019035,0.081502,0.10099
0.0085452,-1.0398,-0.24407,-0.00056105,-0.2483,-0.10432,-0.00011047,-0.023845
-0.063032,0.88462,-0.17716,-0.06024,0.11454,-0.010248,-0.019362,-0.056938
0.064754,-0.49096,-0.1235,-0.10466,-0.19669,-0.066063,0.016643,-0.021674
-0.29481,0.80987,-0.027418,0.015397,0.19936,0.072211,-0.016533,-0.026933
0.062926,-0.02832,0.5321,-0.019357,-0.080827,-0.024619,-0.017009,-0.024948
-0.016125,-0.29185,-0.0024353,0.049878,0.10349,0.089388,0.062121,0.024485
0.064242,0.060086,-0.14335,0.067545,0.01877,0.0085882,-0.013762,0.060011
0.079716,-0.58757,-0.39624,-0.075582,-0.16953,-0.079079,-0.034166,0.012202
-0.085395,0.31568,0.38939,0.1434,0.14965,0.045338,0.015973,-0.0013588
-0.094861,-0.57598,-0.025765,-0.11265,-0.076696,-0.016654,-0.059222,-0.082455
0.13611,0.26096,0.12866,0.10774,0.0044255,0.015937,0.044449,0.057141
0.3316,0.95321,-0.054084,-0.08788,-0.074801,-0.044773,0.014137,0.10363
-0.19931,-0.29349,-0.41537,0.01766,0.17808,0.035173,0.0059073,-0.038267
-0.054008,-0.55444,0.042067,-0.12353,-0.096772,-0.02584,-0.019313,-0.08871
-0.087109,0.69638,-0.018495,0.0039342,-0.025475,-0.024949,0.0011276,-0.0096552
-0.097259,-0.3747,0.23103,0.12723,0.20289,0.084595,0.020648,0.042265
-0.10793,-0.57821,-0.29596,-0.11949,-0.18684,-0.040949,-0.015026,-0.12011
0.093577,0.52524,0.56976,0.14057,0.069451,-0.010825,-0.011647,0.0589
0.24479,0.2344,0.18214,-0.028106,-0.052625,0.0033156,6.7244e-05,0.088552
-0.080035,-0.12076,-0.43617,0.0012921,0.0014415,0.025193,0.028445,0.0095105
-0.041078,-0.061953,0.28939,0.011402,-0.033318,-0.015205,-0.012026,-0.036148
-0.049326,-0.62695,-0.49047,-0.1064,-0.10088,-0.016044,-0.011705,-0.031761
0.01406,0.388,0.038026,-0.016198,0.042618,-0.016196,-0.033059,0.0074902
0.15676,0.60755,0.016793,0.046817,0.055031,2.2868e-05,0.0017856,0.026694
-0.20911,-0.079117,-0.10683,0.049819,0.16402,0.048128,0.029775,-0.014068
-0.024544,-0.8386,-0.15773,-0.064035,-0.083209,-0.028422,0.026647,-0.053648
0.27633,0.66955,0.86879,0.19501,0.10187,0.035551,0.038284,0.10164
0.0014311,0.37921,0.065007,0.012151,-0.063209,-0.026103,-0.0066193,0.020511
-0.15775,-0.70521,-0.62336,-0.2393,-0.16593,-0.034182,-0.061965,-0.071769
0.31224,-0.41456,0.18116,0.13534,-0.020259,0.089134,0.051587,0.089746
-0.39316,0.3509,-0.1262,-0.050743,0.1228,0.0079135,-0.056357,-0.096393
-0.15419,-0.050258,0.062607,-0.053311,0.091102,-0.019629,-0.0021331,-0.066731
0.0026045,0.97579,-0.41662,-0.048927,-0.036751,-0.063003,-0.026568,0.039765
-0.22156,-0.26545,-0.30624,-0.17459,-0.20493,-0.14456,-0.10461,-0.11861
0.53073,-0.52246,0.86086,0.22148,-0.083845,0.02591,0.11683,0.12419
-0.06422,-0.10555,-0.29485,0.032236,0.093556,0.089931,0.037268,0.043094
0.2846,-0.035466,0.60894,0.20368,0.27353,0.15723,0.10234,0.052754
-0.22851,-0.090527,-0.0025527,-0.030949,0.0031177,-0.022551,-0.063423,0.0043119
-0.15416,0.11471,-0.59009,-0.19003,-0.093344,-0.052087,-0.015934,-0.048885
0.47088,-0.18362,0.33704,0.27743,0.0062291,0.098267,0.11819,0.16471
0.0078611,0.7806,0.05895,-0.046385,-0.035735,-0.096662,-0.1158,-0.052152
-0.50123,0.28004,-0.36083,-0.23466,-0.0019249,-0.060182,-0.094136,-0.23997
-0.39498,-0.32737,-0.84741,-0.30436,-0.072829,-0.10555,-0.11422,-0.055568
0.27989,-0.10527,0.81096,0.15903,-0.021796,0.048563,0.10543,0.048365
0.21366,-0.58472,0.4313,0.17312,-0.03534,0.059299,0.096906,0.088692
-0.25322,0.002128,-0.4793,-0.2124,-0.018086,-0.064106,-0.083952,-0.089229
0.087297,-0.12953,0.16549,0.26303,0.14897,0.10961,0.087397,0.094146
0.50478,0.35383,0.38129,0.093419,-0.040462,0.019276,0.064811,0.11611
-0.10045,-0.46465,-0.38832,0.044753,0.031582,0.025058,-0.010898,0.054548
-0.19779,0.55073,-0.21019,-0.009185,0.10713,-0.021368,-0.054157,0.0019776
0.0065508,0.53217,0.21301,-0.094264,-0.0102,-0.018943,-0.042296,-0.12944
0.10159,0.48278,-0.17598,-0.049383,0.021655,-0.0076503,-0.03095,-0.021501
-0.19141,-0.84798,0.14895,-0.12722,-0.18979,-0.035426,0.010247,-0.074394
-0.29121,-0.41606,0.13403,-0.14978,-0.091429,-0.07195,-0.028715,-0.10943
0.43979,0.025353,0.22487,0.22642,0.05018,0.022796,0.062822,0.13902
0.28998,-0.21288,-0.20254,0.12763,-0.007302,0.10799,0.11308,0.10939
-0.51219,0.81593,0.2532,-0.076447,0.18201,-0.02711,-0.11969,-0.040357
0.060915,-0.56266,-0.37069,0.015969,-0.037029,-0.0070396,-0.0019731,0.035625
-0.08651,0.11373,-0.23679,0.041226,0.047816,0.036001,0.021753,0.0035437
-0.31549,0.14696,-0.59855,-0.31008,-0.17156,-0.1474,-0.10234,-0.17382
0.23078,0.037011,0.17511,0.018785,0.0089784,0.02133,0.032736,-0.010826
0.17258,-0.25342,0.60578,0.19246,0.097869,0.13613,0.07587,0.086791
0.53351,0.37191,-0.052349,0.084822,0.064084,0.025048,0.034982,0.13435
-0.21269,-0.23315,0.92856,0.20102,-0.037826,-0.038789,-0.012074,0.013604
0.3351,-0.036187,-3.2595e-05,-0.0017044,-0.012947,-0.0089258,0.027887,-0.026995
-0.5713,0.48554,-0.036903,-0.23042,-0.16649,-0.096682,-0.088026,-0.11418
-0.054299,-0.48368,-0.90417,-0.058704,0.086916,0.057125,0.022347,0.070838
-0.35912,-0.48925,-0.29061,-0.14457,0.027995,-0.016171,-0.05548,-0.12918
-0.01709,0.42767,-0.48313,-0.026951,-0.031261,-0.027145,-0.0012954,-0.0036134
0.123,-0.36397,0.25823,0.04617,0.018032,0.02476,0.052326,-0.013037
0.2377,0.69626,0.4334,0.25003,0.23008,0.062028,0.019935,0.1168
0.004061,0.18896,0.073402,-0.25522,-0.24711,-0.047642,-0.035371,-0.027172
0.18406,-0.12743,0.33946,0.09637,0.031495,0.024155,0.035394,0.032452
0.20166,0.19318,0.25542,0.17422,0.065885,0.050834,-0.0017871,0.10868
-0.099789,-0.35359,-0.18359,0.041344,-0.10455,-0.077308,-0.037464,-0.032747
-0.10578,-0.19675,0.22384,0.0011577,0.044339,-0.0092845,0.021877,-0.063936
-0.19539,-0.32102,-0.32364,-0.14435,-0.14272,-0.03489,-0.0039669,-0.10245
-0.18554,0.11671,-0.4089,-0.078335,0.14009,0.032602,0.009296,-0.086142
0.26381,0.53663,0.14535,0.0082442,0.065691,0.083118,0.037454,0.15666
-0.1622,-0.65186,-0.33097,0.073596,0.0098542,-0.0010494,-0.037375,0.055604
-0.08926,-0.22503,0.18465,-0.11033,-0.089542,-0.079513,-0.043799,-0.084498
0.17097,0.75028,-0.20239,0.081447,0.072131,0.019711,0.025829,0.04901
0.12825,0.46816,0.64022,0.0096423,0.010062,0.00022755,0.015455,-0.028108
0.22269,-0.72033,-0.31762,-0.049914,-0.11239,-0.012159,-0.011886,0.059213
-0.12882,-0.08962,0.049985,0.0072596,-0.069524,-0.032061,0.046154,-0.01715
-0.19698,0.62465,0.414,0.074663,0.12997,-0.011565,-0.07515,-0.022856
-0.057417,-0.17126,-0.096282,0.013966,0.047739,0.073618,5.1606e-05,-0.028245
-0.15334,0.11239,-0.20591,-0.14228,-0.05922,-0.018222,-0.024489,-0.088003
0.24332,-0.45115,-0.063989,0.11384,0.0036895,0.048824,0.1015,0.11819
-0.077645,0.057366,-0.01629,0.054666,0.048347,-0.038304,-0.020587,-0.019056
0.3444,-0.25831,0.10668,0.10781,-0.066359,0.055334,0.061804,0.062619
-0.53107,0.20423,-0.68931,-0.33875,-0.075121,-0.1012,-0.11315,-0.12924
0.13716,-0.19566,0.27414,0.063824,0.076628,0.022063,0.039499,0.05338
0.45514,0.51702,0.51209,0.18044,0.11555,0.049087,0.026658,0.12562
0.044245,-0.342,0.32923,0.18935,-0.0049067,0.010486,-0.0038266,0.055784
-0.5441,-0.0011555,-0.53973,-0.4176,-0.19042,-0.14854,-0.13806,-0.26578
0.062846,-0.071155,-0.024015,-0.053612,0.036363,0.056772,0.085205,0.0047248
0.18462,0.24217,0.22075,0.205,0.043605,0.08037,0.049443,0.1333
-0.58418,0.050522,-0.64842,-0.27997,-0.050412,-0.084513,-0.10383,-0.19188
0.6728,0.52464,0.68965,0.42367,0.20856,0.10226,0.11846,0.23316
-0.088097,-0.14474,-0.28761,-0.017951,-0.076849,-0.038053,-0.056447,-0.028243
-0.16033,-1.0119,-0.19671,-0.18168,-0.12446,-0.012624,0.012435,-0.069227
0.33403,0.44474,0.32194,0.18282,0.074293,0.046066,0.075063,0.11833
-0.29069,-0.035573,0.24456,-0.065645,-0.050427,-0.049468,-0.048619,-0.10623
-0.034114,-0.6678,-0.14854,-0.15478,-0.10784,-0.041634,0.00019741,-0.040146
-0.077225,0.76201,-0.25711,0.0312,0.18303,0.053571,-0.029078,0.026909
-0.10253,0.56076,0.073572,-0.055895,-0.045773,-0.053348,-0.066587,-0.062044
0.60469,-0.10596,0.014032,0.26265,0.07951,0.09813,0.090582,0.20786
-0.28829,-0.47912,-0.28832,-0.16209,-0.013085,-0.062664,-0.096585,-0.10154
-0.074917,0.036754,0.095608,-0.18953,-0.067585,-0.0047397,0.044035,-0.037598
0.32755,0.39012,0.87659,0.36038,0.031432,0.037371,0.075288,0.040103
-0.16793,-0.81988,-0.67174,-0.13678,-0.05337,-0.030143,0.0053051,-0.016747
-0.16135,0.39926,-0.095806,-0.032026,0.060026,0.011481,0.0061706,-0.035834
-0.35143,-0.12138,0.065967,-0.1531,-0.097193,-0.064284,-0.086124,-0.086798
0.12005,0.10746,-0.060811,0.11717,0.038134,0.055078,0.033015,0.12018
0.089033,0.23994,0.00074162,0.13767,0.029738,0.033572,-0.027251,0.054532
-0.14807,-0.62498,0.023736,-0.10037,-0.081761,-0.027403,-0.017216,-0.080193
0.27342,0.23489,-0.10251,0.042358,0.056772,0.020329,0.047144,0.012968
0.28521,0.54693,0.23675,0.1348,0.14196,0.0045704,0.024827,0.14625
0.088625,-0.30026,0.12394,-0.19918,-0.20033,-0.11405,-0.053294,-0.18869
-0.11839,0.39203,-0.35903,-0.13194,0.19426,0.086117,0.015584,-0.039394
0.10215,-0.038064,0.63569,0.25875,-0.033791,0.08162,0.059391,0.16386
-0.17142,-0.15054,-0.12859,-0.11173,-0.14281,-0.025755,0.03127,-0.032446
-0.27328,-0.65981,-0.097079,0.024413,0.054055,-0.05581,-0.029414,-0.0033648
-0.34709,0.050712,-0.41497,-0.17392,-0.06097,-0.085903,-0.14549,-0.16266
0.36558,-0.047688,-0.45869,0.1319,0.058546,0.056764,0.03548,0.13088
-0.27202,0.47196,0.061687,-0.1028,0.045171,-0.040963,-0.055851,-0.082933
0.23046,-0.040235,0.46808,0.20913,-0.030867,0.066926,0.073564,0.10286
0.184,-0.45324,0.12019,-0.033947,-0.060192,0.021345,0.072672,-0.030007
-0.023623,0.93255,0.085539,0.033801,0.058758,-0.0060554,0.0039665,-0.020505
0.29732,-0.52961,0.19296,0.050603,-0.025639,0.05431,0.077839,0.11544
0.07548,0.89357,0.31368,0.13076,0.1943,0.076365,0.043337,0.056891
-0.41974,-1.1058,-0.13777,-0.34566,-0.21128,-0.13638,-0.15531,-0.18131
0.047748,0.35862,-0.56117,-0.13063,0.03093,-0.05367,-0.081518,-0.053013
-0.18506,-0.61558,-0.16856,0.079664,-0.03219,-0.043254,-0.063872,0.02726
0.078987,0.38295,-0.31054,0.01994,0.029222,0.012015,0.093016,0.035957
0.16406,0.57996,0.51699,0.23837,0.059275,0.073531,0.077205,0.059251
-0.087304,-0.91405,-0.0065793,-0.13041,-0.10561,-0.021994,-0.0636,-0.042997
0.061032,0.067602,-0.17557,0.079458,0.074135,0.1013,0.093293,0.018855
-0.05845,0.6689,0.54562,-0.0056449,-0.026099,-0.024609,-0.037507,0.026566
-0.30681,-0.091256,-0.20527,-0.18197,-0.023332,-0.071187,-0.057463,-0.13676
0.15863,0.19588,-0.079981,0.01905,0.035415,0.016311,0.064292,0.044502
0.23448,-0.81218,0.38579,0.36209,0.024662,0.050108,0.069163,0.17159
-0.20015,0.45482,-0.66545,-0.20894,0.053033,-0.064054,-0.12197,-0.076397
0.27017,0.15181,0.040163,-0.17999,-0.067866,0.0091544,0.021195,-0.028274
0.18285,-0.35631,0.16575,0.17415,0.0048557,0.034787,0.037041,0.018444
-0.31797,0.11507,0.13902,-0.084811,-0.065377,-0.057899,-0.066837,-0.06945
0.042888,0.11749,-0.33181,-0.081976,-0.0053978,-0.011316,0.006742,-0.018536
-0.061501,-0.13334,0.46117,0.15207,0.059957,0.049535,0.00074339,0.030965
-0.043207,0.50847,0.077579,0.06392,0.014088,0.031113,-0.013438,-0.0061219
-0.054609,-0.62298,-0.6097,-0.21191,-0.040523,-0.027146,0.0044071,0.019619
0.12949,0.010455,0.69536,0.18575,0.11599,0.039313,0.070863,0.10919
0.072982,0.26821,-0.20171,-0.046173,-0.14022,-0.065832,0.014618,-0.041245
-0.22037,-0.43471,-0.46233,-0.055012,0.0043463,-0.0060923,-0.0080179,-0.071799
-0.2452,0.20795,0.05825,-0.10598,0.011358,-0.030994,-0.05217,-0.15425
0.12151,0.72167,-0.18196,0.050508,0.045182,0.016024,-0.0092746,0.10944
0.47092,-0.61786,0.35286,0.17882,-0.034987,0.056903,0.033738,0.12469
-0.052683,-0.1832,0.017417,-0.0041939,-0.011062,-0.0023272,0.013422,-0.0003442
0.16946,0.92674,0.49216,0.21797,0.24089,0.09565,0.022828,0.14705
-0.26937,-0.87899,-0.21706,-0.3365,-0.22572,-0.10298,-0.094594,-0.18439
-0.23066,-0.37884,-0.396,-0.14575,-0.060642,-0.067714,-0.026197,-0.15175
0.22011,0.20304,0.41794,0.12551,0.055355,0.060171,0.072317,0.080645
-0.26388,0.27428,-0.4615,-0.13956,-0.042499,-0.016623,-0.016994,-0.080501
0.064771,0.17836,0.17092,0.16968,0.1065,-0.0013433,-0.019819,0.084566
0.33709,0.28012,0.46778,0.14099,0.026001,0.051508,0.088007,0.10842
-0.33064,-0.40144,-0.71249,-0.067416,-0.10368,-0.052945,-0.044654,-0.062308
0.030111,0.36995,-0.28987,-0.094426,0.0073701,-0.017246,0.01192,0.026516
0.067961,-0.49023,0.3962,0.022075,-0.030502,0.034206,0.0073895,-0.0074048
0.11133,0.27806,0.47656,0.11072,0.11172,0.039412,-0.027619,-0.015675
0.035393,-0.21166,0.059026,-0.1255,-0.088743,-0.06382,-0.00010662,-0.014439
-0.073866,0.14906,-0.429,0.062737,0.071607,0.013637,-0.0045393,0.018926
-0.04462,-0.29417,-0.19449,-0.075503,0.014653,0.029436,-0.025822,-0.010205
0.045084,-0.16996,0.05341,0.021282,-0.10364,0.02232,0.029548,0.038089
-0.1403,0.027038,0.40012,0.016354,0.052166,-0.00026636,0.013208,-0.08653
0.11882,0.26289,-0.047674,0.12022,0.02842,-0.022992,0.0036564,0.037933
0.01904,0.56459,0.072916,-0.057686,0.027799,-0.045968,-0.0063254,0.005801
-0.14903,-0.15266,-0.40735,-0.11841,-0.04367,-0.030015,-0.047287,0.0054723
-0.047923,-0.58564,0.35799,0.0014363,-0.076546,0.017377,-0.0013688,-0.063603
0.16724,0.53572,-0.24466,-0.033081,0.054509,0.049763,0.038185,0.010371
0.012462,-0.066071,-0.37414,-0.010204,-0.064048,-0.0027761,0.024731,0.03253
0.16686,0.051132,0.42201,0.078185,0.029262,0.00059964,0.012852,0.049587
-0.16021,-0.34789,0.69198,0.2707,0.10045,0.05201,-0.0057011,0.045082
-0.27579,0.25486,-0.95184,-0.33235,-0.014478,-0.091111,-0.078495,-0.11523
0.3252,-0.76777,0.088547,0.064021,-0.089225,0.039345,0.051462,0.059061
0.10111,0.1704,0.22422,0.21545,0.13343,0.044154,0.023998,0.066168
-0.04368,-0.093743,0.061434,-0.020607,-0.04256,-0.061839,-0.0052574,-0.001542
-0.10208,0.78308,-0.19288,-0.059379,0.077438,0.033262,-0.0053872,-0.043155
-0.22959,0.21883,-0.13802,-0.47123,-0.22573,-0.084911,-0.093556,-0.25369
0.2009,-0.27957,0.36695,0.22154,0.032299,0.075898,0.082167,0.12592
-0.29183,-0.31962,0.12488,0.091389,0.00037618,0.0083246,-0.0010122,0.035105
0.14728,0.2838,-0.18052,-0.030986,0.0073169,-0.036884,-0.029809,0.062083
0.16188,0.22901,-0.17943,0.099003,0.092939,0.0036979,0.027799,0.037078
-0.011812,-0.035739,-0.018248,0.0064117,0.015628,-0.048682,-0.03851,-0.06184
0.11078,-0.52083,-0.10086,0.035474,-0.0291,0.064577,0.084117,0.015961
0.26258,-0.34961,0.97477,0.41988,0.091336,0.086163,-0.0027092,0.13735
-0.30128,0.43016,-0.90293,-0.61537,-0.092415,-0.10878,-0.041402,-0.15192
-0.013641,-0.013115,0.32886,0.044971,0.012606,0.057654,0.045748,0.052753
-0.21324,-0.092788,-0.58484,-0.0071251,-0.063119,-0.055691,-0.10894,-0.047275
0.012207,-0.06357,0.15006,0.031839,-0.038885,0.011402,0.040953,-0.0082435
-0.12684,0.65608,0.10233,-0.0026086,0.077281,-0.030927,-0.028373,-0.057778
-0.0046776,-0.52579,-0.096653,-0.086701,-0.11292,-0.019363,-0.0046443,-0.094786
0.37224,0.69423,0.47247,0.27261,0.1956,0.13924,0.13547,0.23238
0.067845,-0.56389,0.35986,0.060804,-0.020017,-0.008599,-0.022097,-0.013296
0.02835,-0.22307,-0.43356,-0.088181,-0.024797,-0.064551,-0.047577,0.012639
-0.33206,-0.092176,-0.23718,-0.28275,-0.11506,-0.11435,-0.081431,-0.13439
0.079762,0.31459,-0.038187,0.17318,0.061186,0.053405,0.040649,0.061923
0.17686,0.5602,0.050552,0.022344,0.0042687,0.04092,0.029917,0.039647
0.15365,-0.20611,0.28343,0.14008,0.12062,0.091092,0.04298,0.10396
-0.34946,-0.77904,-0.23297,-0.12971,-0.12876,-0.04543,-0.044819,-0.14312
-0.058256,0.21305,-0.16469,-0.091766,-0.017341,-0.063473,-0.045699,-0.076171
-0.11146,0.019369,-0.21616,-0.097977,-0.029644,-0.0018463,0.032687,-0.038541
-0.0063069,0.00095005,0.22884,0.038538,0.013778,-0.0011735,0.0028426,0.0012968
0.32278,0.22385,0.52864,0.30898,0.14383,0.0555,0.028664,0.21525
0.11288,0.4505,0.11942,-0.014522,-0.053994,0.019322,0.023891,0.024901
-0.25939,-0.45478,-0.42227,-0.10538,-0.0098763,-0.016477,-0.027526,-0.1017
0.05772,-0.25309,-0.10566,-0.07446,-0.021186,-0.021174,-0.0088536,-0.024908
0.094032,0.34836,-0.01737,-0.016691,-0.033644,-0.026463,-0.037687,0.011969
0.026489,-0.046264,0.1947,0.04391,-0.039706,-0.032639,-0.028381,0.00010207
-0.15628,-0.36528,-0.40483,-0.14249,0.0074003,0.01486,0.042351,-0.022148
0.034253,0.24288,0.11732,0.10474,0.099909,0.030123,0.033877,-0.039386
0.26688,0.5425,0.32828,0.12306,0.11298,0.083596,0.055685,0.13619
-0.31189,-0.78159,0.045524,-0.0074957,-0.21098,-0.035462,-0.056075,-0.080589
-0.18692,-0.10825,-0.43746,-0.21467,-0.027954,-0.076828,-0.074548,-0.12613
0.033288,0.54212,0.093344,0.089165,0.076406,0.037869,0.055303,0.078873
-0.00093826,-0.46856,0.014005,-0.0010749,0.016448,-0.019231,-0.0098856,0.0042032
