0.16323,0.62801,0.31234,0.060524,0.031743,-0.012058,0.0090815,0.044727
-0.42149,-0.80233,-0.46866,-0.13414,0.040349,-0.016596,-0.077133,-0.076471
0.24597,0.28702,0.2803,0.054512,0.10275,0.042079,0.033257,0.020809
0.1894,0.33351,0.028536,0.033801,-0.10985,-0.02323,0.042782,0.016563
-0.34114,0.039981,-0.18418,-0.093807,0.058217,-0.0014624,-0.049129,-0.07318
0.021339,0.36693,-0.044597,0.00034918,-0.010583,0.021371,-0.071017,-0.029253
0.19042,0.15922,0.24483,0.1366,-0.089613,0.021583,0.055029,0.10176
-0.068962,-0.39794,-0.065499,-0.021582,-0.04547,-0.040252,0.0086788,0.038681
-0.11705,-0.33793,-0.069252,-0.022164,0.076068,0.015165,-0.03809,-0.08593
0.2796,-0.24534,0.15521,0.12561,0.026483,0.031272,0.08674,0.14149
-0.05174,-0.050434,0.06057,-0.071883,0.018361,-0.031145,0.10203,0.032827
-0.13514,-0.035976,-0.16614,-0.13924,0.029805,-0.031409,-0.1484,-0.13904
-0.080231,-0.15035,-0.244,-0.037979,-0.13333,-0.039583,-0.05517,-0.030626
0.07407,0.50623,0.084665,0.060112,0.0060797,0.022833,0.045802,-0.079289
-0.17172,-0.00052388,0.15588,-0.023953,0.11971,0.078099,-0.01732,-0.0032485
0.19874,0.44911,-0.053602,0.039052,-0.059046,-0.037573,0.02897,0.06545
0.2018,0.0895,0.24543,0.086279,-0.031916,0.019631,0.067566,0.088494
-0.26355,-0.25475,0.021813,0.017222,0.15201,0.038588,-0.065531,-0.011765
0.029532,-0.16866,-0.2635,-0.042408,-0.0096544,-0.067043,-0.0031118,0.061575
0.32329,-0.068011,-0.0088913,0.11083,-0.10504,0.030322,0.043849,0.058065
-0.35894,-0.1591,-0.026715,-0.20278,-0.049792,-0.076134,-0.10443,-0.16372
-0.20473,-0.29719,-0.1839,-0.053788,0.0069378,0.027173,0.036271,-0.065655
0.30153,0.42809,0.30889,0.096518,0.026375,0.0665,0.043897,0.070192
-0.090009,-0.2916,0.10801,-0.010017,-0.068393,-0.067615,0.035437,-0.077019
0.019312,0.29768,-0.24767,0.024728,0.16203,0.062477,0.018541,0.039445
0.29383,0.019481,0.47564,0.12236,-0.10828,0.011828,-0.04593,0.14638
-0.14118,0.10285,-0.55887,-0.10015,0.0056023,-0.062777,-0.087596,-0.068206
-0.20734,0.096643,0.07741,-0.025757,0.036576,-0.012268,0.01877,0.037011
0.16584,0.40168,0.25059,0.079848,-0.053496,-0.023511,0.023532,-0.084101
-0.38874,-0.27492,-0.50119,-0.213,0.16517,0.029017,0.0052435,-0.048043
0.16781,-0.48879,0.39166,0.095779,-0.065906,0.051867,0.065869,-0.018362
0.17862,-0.58077,0.053746,0.021831,-0.10733,-0.0018283,-0.028678,0.08332
0.0097325,0.34672,0.039635,-0.0052536,0.10191,0.0082565,0.057666,0.014732
0.097001,0.41341,0.13866,0.12361,0.021365,0.0034458,-0.13607,0.01764
0.4151,-0.0246,-0.28909,0.11105,-0.17811,-0.024759,0.10871,0.16167
-0.66263,0.37334,-0.43,-0.28567,0.096761,-0.037974,-0.067598,-0.16332
-0.16841,-0.31156,0.1862,-0.059272,-0.044566,-0.028928,-0.0637,-0.15334
0.030782,-0.21218,0.44392,0.14153,0.023443,0.033311,0.057618,0.027153
0.3348,0.058026,0.11811,0.10585,0.03592,0.039302,0.077297,0.1047
-0.19915,0.084363,-0.4542,-0.13459,0.017036,-0.026414,-0.05188,-0.014103
0.38517,0.12779,0.39949,0.053831,-0.095212,0.016195,0.044732,0.10104
-0.23721,0.16479,-0.15665,-0.046574,0.17589,0.042589,0.0074293,-0.0726
-0.2903,-0.11141,-0.48227,-0.13002,-0.021389,-0.063898,-0.10152,-0.12034
0.30548,-0.31289,0.53925,0.19504,-0.015524,0.033214,0.077182,0.051963
-0.16864,-0.25411,-0.33512,-0.086523,-0.088081,-0.07181,-0.11259,0.038077
0.14511,0.29915,0.22945,0.10337,0.042127,0.051172,0.071666,0.056389
0.18122,0.013428,-0.096545,0.021844,-0.12458,0.0040583,0.052277,0.051501
-0.28307,0.39409,0.03681,-0.12135,0.037501,-0.017669,-0.060869,-0.094677
0.11518,0.05883,0.27626,0.039478,0.013678,0.0093924,0.037402,-0.039272
0.26291,-0.42666,-0.098392,0.065383,0.12517,0.053734,0.05061,0.099927
-0.40458,-0.33829,-0.43164,-0.11503,-0.096201,-0.05698,-0.075664,-0.099075
0.31569,0.3541,0.39403,0.14628,-0.033224,0.020388,-0.028792,0.082937
-0.43347,0.2044,0.13815,-0.079935,0.17281,-0.027346,0.0037226,-0.14989
-0.13999,-0.55465,-0.37591,-0.12831,-0.041895,-0.0055414,-0.001677,0.016349
0.1236,0.1514,-0.12847,0.010917,-0.030618,0.022729,0.087602,-0.0106
0.2459,0.53468,0.11141,0.082215,0.0016849,0.033619,0.068144,0.23146
0.075422,-0.26633,-0.23852,-0.052951,-0.18095,-0.043385,-0.16194,-0.13176
0.14612,0.21188,0.4097,0.12249,0.092306,-0.0051289,-0.001414,0.055997
-0.088826,-0.022518,0.35246,0.015202,0.078938,0.023635,-0.020876,-0.049785
-0.21014,-0.12614,-0.5151,-0.11777,-0.040912,-0.042601,0.029427,-0.067658
0.22281,-0.12974,0.26991,0.12792,0.0073362,0.031092,0.11022,0.13347
-0.13172,0.094612,0.1688,-0.00040158,0.022219,-0.012498,-0.083361,-0.057545
0.0016831,-0.2045,0.0019798,0.017734,-0.0021336,0.053767,0.081338,0.0062687
-0.084926,-0.4622,-0.45566,-0.070352,-0.024693,-0.011822,-0.052007,-0.074485
-0.074288,0.89757,-0.17658,-0.1259,-0.004665,-0.044861,-0.061478,0.035827
0.032651,-0.36718,0.07335,-0.0090127,-0.050163,-0.013928,0.029692,-0.13121
0.14323,0.002322,0.1803,0.062108,0.019112,0.010659,-0.020321,0.24556
-0.27115,-0.032822,0.017764,-0.0046706,0.05457,0.013085,-0.023536,-0.23901
0.26185,0.13481,0.19544,0.066432,0.031861,0.032065,0.043992,0.20531
0.26165,0.14876,0.073366,0.098314,0.011933,-0.0031937,0.088949,0.071715
-0.25273,-0.022389,-0.50513,-0.070723,0.0084622,0.00051371,-0.021197,-0.084373
-0.099056,0.13415,0.090014,-0.087359,-0.058696,-0.027662,-0.083236,-0.067163
-0.0023412,-0.47989,0.11855,-0.044432,-0.074097,-0.041294,0.0042828,-0.040459
0.076964,0.45081,0.2899,0.097098,0.062652,0.068699,0.030145,0.0036537
-0.080341,-0.49212,-0.1896,0.0082144,-0.023867,-0.03372,-0.052921,-0.028593
0.071409,0.21202,0.32163,0.070174,0.041711,0.0031064,0.020242,0.057965
0.12423,-0.31263,0.050259,0.046699,-0.083322,0.015378,0.053827,0.052087
-0.20514,0.22386,-0.59672,-0.12659,0.094712,0.019105,0.01612,0.078297
-0.035857,0.58909,0.094436,-0.11522,-0.0006551,-0.03996,-0.077627,-0.13745
0.12255,-0.92567,-0.34707,-0.0059682,-0.086642,-0.036377,0.16301,0.16203
0.19861,0.19679,0.50178,0.18551,0.080099,0.061478,-0.16821,-0.21131
-0.25346,0.74581,-0.35518,-0.14946,0.047073,0.0038726,-0.094421,-0.0077522
-0.077014,-0.57677,0.32979,0.091882,-0.0059919,0.0096985,0.11925,0.061743
0.04167,0.16388,0.0001152,-0.01865,-0.071783,-0.00696,-0.018702,-0.033795
0.3858,0.40177,0.35632,0.1376,-0.1434,-0.038356,0.14086,0.19829
-0.37035,-0.81971,-0.22297,-0.11784,0.19205,0.024779,-0.065484,-0.15551
-0.11489,0.28598,-0.41578,-0.081025,0.066214,-0.012975,-0.051347,-0.055685
-0.087899,-0.0086736,0.16833,-0.056342,-0.092281,-0.026696,-0.050868,0.02933
0.28217,0.27382,0.41053,0.21382,0.067408,0.069507,0.045319,0.076152
0.18283,-0.2311,-0.33232,-0.075926,-0.16595,-0.068142,0.0025829,0.014288
-0.22328,-0.43381,0.077594,0.034322,0.043766,0.06814,0.0079443,-0.0081925
0.076726,-0.11958,-0.54205,-0.07388,-0.068497,-0.029524,-0.0017575,-0.046424
0.048035,0.71446,0.34565,0.020088,0.19341,0.0059311,0.027397,-0.022683
0.11658,0.16323,0.39532,0.072989,-0.075861,-0.021001,0.079013,0.039357
-0.13487,0.030548,-0.277,-0.064288,-0.024003,-0.024661,-0.074119,0.0068761
-0.34883,0.040484,0.30447,-0.040384,0.068223,-0.021036,-0.13553,-0.1121
0.10726,-0.20081,-0.21236,0.0043444,0.013477,0.083193,0.082181,0.065626
-0.046406,-0.28977,-0.50753,-0.085719,-0.086799,0.006319,0.0011041,0.017004
0.25541,-0.047703,0.27029,0.159,0.087403,0.060431,0.04357,0.062653
0.1021,0.1126,0.25372,0.0049048,-0.10492,-0.082858,-0.032029,-0.023887
-0.21381,-0.77414,-0.06528,-0.063039,-0.054723,-0.064187,0.0092515,-0.023993
-0.0019533,0.68745,-0.03066,0.03355,0.081464,0.01519,0.035054,-0.016114
0.16925,0.12712,0.27941,0.02118,-0.016861,-0.015973,-0.040269,0.030593
0.19126,0.49344,-0.14251,0.071459,0.15015,0.10102,0.064666,0.037637
-0.44387,-0.11125,-0.21713,-0.16749,-0.097349,-0.062525,-0.040734,-0.096736
0.16152,-0.44693,-0.075173,0.09321,0.0061161,0.01776,-0.020511,0.049411
-0.13431,0.091006,0.020824,-0.14636,-0.094298,-0.016791,-0.030836,-0.086093
0.13623,0.13668,0.27769,0.122,0.07785,0.060743,0.045653,0.091032
-0.098269,-0.40291,-0.1993,-0.030799,-0.032198,-0.054386,-0.056419,-0.043609
-0.057547,0.075163,-0.1651,-0.049361,-0.033832,-0.065768,-0.0086754,-0.020746
0.23399,-0.074594,0.13147,0.16066,0.049543,0.10392,0.079663,0.12085
-0.091846,0.66083,-0.27955,-0.10355,0.10863,0.024013,-0.0023773,-0.064157
0.0029531,-0.60145,0.2543,-0.029528,-0.075187,-0.0018156,0.010551,0.0020312
0.24397,0.56297,1.0082,0.16354,0.013949,-0.013451,0.032011,0.11573
-0.18985,-0.11453,-0.69695,-0.15007,-0.053292,-0.089501,-0.11051,-0.15337
-0.10343,-0.9867,0.28802,0.067834,-0.13579,-0.019081,0.074515,-0.032378
-0.098001,0.4619,-0.42464,-0.0038796,0.14988,0.026307,-0.038443,0.02523
0.038285,0.28579,-0.5396,-0.10021,0.062113,0.031721,-0.020025,0.011562
0.064452,0.061938,-0.054246,0.051961,-0.078284,0.021413,0.051573,0.043934
-0.10433,0.36542,0.13149,-0.055231,0.025798,0.0039329,-0.096933,-0.041467
0.079353,-0.30143,0.0028977,-0.0075516,-0.016362,0.018842,0.050381,0.021219
0.037018,-0.24351,0.48316,0.070242,-0.033337,-0.027445,0.025111,-0.041328
0.36887,-0.072694,0.57203,0.13929,0.083485,0.036783,0.077553,0.11459
-0.17717,-0.066772,-0.24947,-0.042486,0.012824,-0.0076405,-0.034278,-0.034682
-0.12682,0.24525,-0.46496,-0.13131,-0.097903,-0.083132,-0.029024,-0.020661
0.049429,-0.22095,0.31354,0.12285,0.047275,0.028521,-0.00036873,0.039254
-0.22704,0.52065,-0.49721,-0.13138,0.057108,-0.0012322,-0.10448,-0.097134
-0.05668,0.18331,-0.20818,-0.12802,-0.13896,-0.024217,0.057217,-0.038927
0.2039,-0.32304,0.58859,0.23503,0.045183,0.09229,0.078673,0.081622
-0.1523,-0.50066,-0.1275,-0.065017,0.0085325,-0.026645,-0.055518,-0.031618
-0.027233,0.033095,0.20293,0.0036481,0.04096,-0.021459,-0.0092369,0.004936
0.1844,-0.23563,-0.14768,0.066382,0.033999,0.030004,0.05354,0.043449
0.086427,0.60251,-0.22516,-0.11115,-0.081833,-0.020345,-0.015664,-0.0017386
-0.047422,0.12147,-0.1127,0.0097951,-0.032493,-0.039297,-0.03733,-0.0057649
-0.023654,0.02769,0.052854,0.045829,0.057299,-0.018643,-0.0039081,-0.0082284
0.38077,0.0034172,0.79901,0.25403,0.015586,0.057598,0.060853,0.13848
-0.45575,-0.44971,-0.90197,-0.32723,0.037286,-0.013448,-0.038652,-0.18377
0.087419,0.7006,0.50693,-0.0031282,0.0046165,0.033944,0.017675,-0.014897
-0.18837,-0.72446,-0.35641,-0.047256,-0.043971,0.012203,-0.012452,-0.0039701
-0.081658,0.25294,0.11632,0.06399,0.00046231,-0.05546,-0.058685,0.059663
0.14992,-0.39658,0.25057,0.12007,-0.034057,0.02593,0.066622,0.027615
0.039462,0.56384,-0.145,-0.066039,-0.030028,-0.056506,-0.050387,-0.02947
0.050793,-0.22252,0.21423,0.021629,0.021057,0.048433,0.051419,-0.0095171
0.109,-0.081444,-0.56675,-0.007439,0.01075,0.027961,0.012785,0.049
-0.14248,0.19151,0.14901,-0.020614,0.018115,-0.039983,-0.049101,-0.025222
0.040402,-0.31007,0.109,0.044158,-0.0030122,0.016398,0.076577,-0.0051302
0.033304,0.70877,0.030894,-0.048101,0.033587,-0.013812,-0.032268,0.00025695
-0.070589,-0.279,0.07134,-0.024577,0.0026563,-0.028965,-0.055561,-0.063549
0.03969,-0.075057,0.20091,0.028296,0.0049715,0.025741,-0.001313,0.045661
-0.020767,-0.32548,-0.218,-0.022539,-0.085655,0.017596,0.036628,-0.031646
0.066187,-0.035692,0.099813,0.15894,0.12002,0.048218,0.034854,0.11046
-0.02934,0.32855,-0.48181,-0.15339,-0.058982,-0.062072,-0.045536,-0.012807
-0.15991,-0.19758,-0.27097,-0.060328,-0.0064792,-0.016428,-0.016768,-0.058152
0.2916,0.26592,0.75167,0.10316,-0.027646,0.044491,0.066811,0.075639
-0.29114,-0.063871,0.096373,-0.060343,0.033852,-0.035569,-0.036629,-0.10379
-0.14097,-0.32032,-0.095461,-0.089024,-0.10261,-0.029993,-0.045531,-0.080758
0.22823,0.4581,0.14406,0.17391,0.02491,0.053526,0.0090523,0.059074
0.14615,-0.30495,-0.038703,0.095723,0.1207,0.043298,0.049027,0.089526
-0.17537,0.29984,-0.75575,-0.17552,-0.040713,-0.068254,-0.027329,-0.051534
0.27157,-0.19183,0.61553,0.10164,0.0023908,0.0082016,0.068701,0.05019
0.080005,0.36635,0.011038,0.051307,0.078537,0.015127,-0.022727,0.082223
-0.39978,-0.70638,-0.39785,-0.21015,-0.070093,-0.023797,-0.059937,-0.11967
-0.020743,-0.22317,0.21743,-0.0035837,-0.10008,-0.0068378,0.011325,-0.032367
-0.018424,0.39311,-0.056152,0.030191,0.066189,0.019177,0.0032936,-0.031216
0.18466,0.15571,0.2199,0.047559,0.0062429,-0.00055531,0.0018758,0.063163
0.01815,0.29435,-0.33675,0.033222,0.024233,0.043041,0.030724,0.008372
-0.10341,-0.042251,0.37503,-0.020291,-0.059962,-0.061439,-0.042554,-0.015991
0.070814,0.11982,0.36953,0.098176,0.081491,0.036974,0.0091502,0.06041
-0.15354,-0.75587,-0.48019,-0.095731,-0.090624,-0.013915,-0.0089101,-0.074798
0.31816,0.58946,0.12072,0.085338,0.10335,0.019695,0.036553,0.078612
-0.13052,-0.39862,-0.54799,-0.13228,-0.07868,-0.018867,-0.018229,-0.057171
-0.053796,-0.36019,0.19278,0.032466,0.019699,-0.0126,0.006485,-0.02082
0.056456,0.7532,0.16375,0.01702,0.047184,-0.00047655,0.024562,0.031842
-0.20589,-0.02398,0.077031,-0.076965,-0.066218,-0.029011,-0.034715,-0.078471
0.08103,0.071379,-0.12059,0.047603,0.031424,0.050819,0.0078038,0.0626
-0.020474,-0.28893,-0.037279,-0.023088,-0.050122,-0.018075,-0.035949,-0.013582
0.20014,0.21793,0.42914,0.19553,0.09577,0.061951,0.067905,0.099109
-0.07805,-0.23106,-0.21365,-0.1715,-0.093083,-0.059951,-0.040342,-0.060613
0.19881,0.20723,0.3305,0.14141,0.078833,0.030863,0.037634,0.077054
-0.25926,-0.50563,-0.61901,-0.15499,-0.099373,-0.087103,-0.057413,-0.11345
-0.13286,0.083954,-0.21134,-0.01399,0.075285,0.039408,-0.0048262,-0.031052
0.014751,-0.35345,0.26423,0.0096158,-0.030335,0.011806,0.016199,-0.019833
0.042358,0.56809,0.25342,0.032974,0.0364,0.032776,0.014017,0.01381
0.26988,0.41745,-0.13357,0.079554,0.07178,0.031311,0.028164,0.12456
0.040838,-0.11631,0.22157,-0.092776,-0.11228,-0.063775,-0.034798,-0.031253
-0.30885,0.40194,-0.27382,-0.023049,-0.024087,-0.0034079,-0.041978,-0.047303
0.033528,-0.53227,0.084355,0.046531,-0.01549,0.0084516,0.076772,-0.017291
0.17012,0.069368,0.17186,0.10809,0.10096,0.04933,0.03983,0.07443
-0.077773,-0.19218,-0.36224,-0.072788,-0.033922,-0.037272,-0.05954,-0.0064731
-0.13065,-0.069922,0.013784,-0.097661,0.00216,-0.048067,-0.034325,-0.048941
0.14597,-0.7167,0.49567,0.11175,-0.0089841,0.040944,0.044792,0.0019711
-0.18367,0.79088,-0.39285,-0.10829,0.0035893,-0.027172,-0.064539,-0.025199
0.077246,0.044399,-0.27663,0.023913,-0.014202,0.0064428,0.012761,0.0028998
0.1485,-0.6133,0.47699,0.047956,-0.030624,0.033446,0.05824,0.024349
-0.016488,0.5493,-0.14816,-0.035704,0.040535,-0.015647,-0.037033,0.0084076
0.08958,-0.19424,0.40161,0.13257,0.027394,0.047139,0.071183,0.041326
-0.26111,0.712,-0.60958,-0.19726,-0.046917,-0.082851,-0.093245,-0.095625
0.13275,-0.43323,0.15224,0.091584,0.01232,0.039272,0.024646,0.065989
-0.082477,0.55346,0.098793,0.037408,0.048067,0.014263,-0.012593,0.0099076
0.020829,0.12551,-0.4132,-0.079583,-0.026475,0.012939,-0.0020413,-0.030362
0.058048,-0.78705,0.63691,0.075362,-0.0011303,-0.0048872,0.040223,0.030151
0.051261,-0.024098,-0.40988,0.024529,0.022034,-0.0011507,0.035434,0.018676
-0.20344,-0.40372,0.3347,-0.092367,-0.058666,-0.054668,-0.03275,-0.06545
0.10627,-0.15062,-0.068286,0.013251,-0.0085467,-0.0016439,-0.024351,-0.011591
0.23086,0.0955,0.34213,0.091468,-0.022214,0.025307,0.04458,0.05538
-0.21146,0.55914,-0.52575,-0.075772,0.057549,0.0033657,-0.068218,-0.028071
-0.078594,0.27121,-0.16756,-0.065337,-0.026036,0.011576,-0.018665,-0.018923
-0.07973,-0.41868,0.048203,-0.016204,0.0091709,-0.019316,0.022076,-0.064639
0.20882,-0.0012829,0.059158,0.11248,0.030924,0.044527,0.070607,0.11696
-0.062866,0.47966,-0.0093567,-0.052671,-0.0075086,-0.061684,-0.08295,-0.012496
0.090792,0.083301,-0.14265,0.059859,0.11234,0.053211,0.023278,0.04738
0.11575,-0.08985,0.29626,0.12248,-0.047619,0.014386,0.022715,0.077845
-0.33172,-0.48184,0.26093,-0.25563,-0.18348,-0.06897,-0.037614,-0.22608
0.036855,0.019006,-0.010052,0.049631,0.03211,0.021389,0.052861,0.025736
0.048529,-0.26318,-0.05507,0.021158,0.020388,0.011292,0.035491,0.012408
0.10036,0.38208,-0.047558,0.047765,0.069962,-0.014175,-0.036193,0.053694
0.042409,0.01366,-0.17707,0.041639,0.047766,0.037889,-0.030634,0.016305
-0.0016725,-0.11713,0.024418,0.0089603,-0.046268,0.010515,0.035447,0.024888
0.0062156,0.042228,-0.2457,0.018954,0.037965,0.020413,-0.018356,-0.0067037
-0.13739,0.063028,0.11987,-0.17089,-0.089884,-0.088832,-0.051602,-0.078507
-0.01024,0.14313,0.060168,0.033735,0.070639,-0.020176,0.0064,0.03619
-0.15031,-0.39476,-0.14687,-0.045523,-0.06579,-0.0075386,0.00025613,-0.045097
0.11579,-0.057765,-0.026377,0.03854,-0.021901,0.012203,-0.014203,0.053096
0.18812,0.30028,0.18575,0.077036,0.038951,0.094385,0.081394,0.018806
-0.017927,0.58748,0.14308,-0.045446,0.00014009,0.0051737,-0.016652,-0.014637
0.021803,-0.52626,0.55183,0.14098,0.041643,0.033976,0.059458,0.015687
-0.20837,-0.17895,-0.68093,-0.1447,0.0071279,-0.076881,-0.065113,-0.077471
0.079841,0.051645,0.21721,-0.0047063,-0.064822,-0.061786,-0.039071,0.010608
0.11167,-0.19438,-0.27148,0.075137,0.035911,0.040103,0.051064,0.076603
-0.051903,0.7001,-0.29767,-0.047696,0.042673,-0.029133,-0.045458,-0.02833
0.20489,-0.51327,0.75422,0.29672,0.055972,0.10541,0.084667,0.11713
-0.51735,0.28692,-0.98362,-0.4557,-0.20633,-0.13447,-0.13732,-0.19077
0.27323,-0.70458,0.55168,0.10039,0.067717,0.079232,0.077192,0.047416
-0.040209,0.34277,0.30636,0.011831,0.026414,0.019765,0.0092484,0.0031109
-0.15212,0.35564,-0.19511,-0.11904,-0.025245,-0.039706,-0.059924,-0.066117
0.25895,-0.33155,0.079195,0.18568,0.054025,0.041094,0.057305,0.10532
0.16292,-0.18871,-0.14419,0.15415,0.046365,0.027418,0.064278,0.095698
-0.18148,0.71971,-0.14724,-0.21216,-0.094135,-0.088865,-0.077804,-0.13371
-0.031441,-0.2817,0.06876,0.017515,-0.015015,0.012374,0.014157,0.0035048
-0.01166,-0.065831,0.58824,0.12497,0.057861,0.026463,0.0045228,0.015734
-0.14554,-0.10945,-0.80107,-0.13978,-0.031337,-0.022926,-0.051706,-0.065137
0.26208,-0.5789,0.26724,0.1213,0.014364,0.03651,0.056712,0.081818
-0.20324,0.94376,0.17608,-0.09246,0.03069,-0.029057,-0.052776,-0.027291
0.043825,-0.14789,-0.12035,-0.016143,0.0093741,-0.00031249,0.026233,-0.0015899
-0.052323,-0.093213,-0.026283,-0.072287,-0.057984,-0.017411,-0.0031442,-0.028648
0.12423,-0.076065,0.023378,0.11358,0.046775,0.04492,0.030756,0.062982
0.071916,0.47135,-0.17184,-0.060533,-0.020566,-0.024256,-0.01311,-0.0087024
-0.039072,-0.959,-0.1646,0.053475,-0.057149,0.016964,0.044375,0.005328
0.039759,0.38521,0.077118,0.041207,-0.008315,-0.0038311,-0.047419,0.018119
-0.0050523,0.28199,0.46636,0.050787,0.094856,0.029866,0.0078329,0.028812
-0.18921,-0.30963,0.17216,-0.097726,-0.028598,-0.0076329,-0.0089672,-0.10373
0.011746,-0.094622,-0.13793,-0.021624,0.027877,-0.030929,-0.027552,-0.012348
-0.017318,-0.29501,-0.15628,-0.017647,-0.05581,-0.0012167,0.014871,-0.024718
0.085821,0.66119,-0.14504,0.016191,0.0094647,-0.035581,-0.013918,0.039695
-0.050713,-0.05619,0.22129,0.0259,-0.018621,0.0070605,0.027494,0.017874
0.0055881,0.062497,-0.51844,-0.034517,0.00023051,0.025873,-0.0084888,0.01238
0.061369,0.56285,-0.29159,-0.046949,0.06555,-0.0095406,-0.011757,0.03177
0.2111,-0.47196,0.77342,0.25503,0.067439,0.057873,0.065063,0.0764
-0.13181,-0.28624,-0.11488,-0.15928,-0.057056,-0.02129,-0.027849,-0.064713
-0.18796,-0.16829,0.0096745,-0.15689,-0.11288,-0.059257,-0.048465,-0.10288
0.12592,-0.35497,-0.028697,0.082306,-0.0062727,0.029812,0.041826,0.031681
0.025642,0.4066,0.14695,0.081132,0.028733,0.042352,0.0079947,0.018083
0.12568,0.71817,0.35674,0.17462,0.078649,0.001099,0.0055493,0.06681
-0.38847,-0.58023,-0.76063,-0.2477,-0.043323,-0.040087,-0.052156,-0.11149
0.18526,-0.5607,0.47935,0.086517,0.046306,0.050802,0.037425,0.053372
-0.043838,0.6965,-0.5906,-0.14397,-0.026953,-0.078443,-0.062037,-0.0089212
-0.074993,-0.39934,0.24549,0.0055334,-0.059724,-0.03759,0.00083283,-0.07177
0.20247,0.24405,-0.045606,0.10508,0.041697,0.048257,0.077591,0.099209
0.2354,0.60392,0.56625,0.15482,0.066057,0.038627,0.027756,0.11334
-0.22472,-0.63742,-0.55225,-0.13387,-0.041839,0.027613,-0.015605,-0.076356
-0.2157,0.17396,-0.16693,-0.1196,-0.032578,-0.039024,-0.059952,-0.087139
0.19317,0.29815,0.22977,0.081339,0.04643,0.01107,0.012343,0.034151
-0.1302,-0.24786,0.26238,-0.022222,-0.086433,-0.04821,-0.016951,-0.07164
0.0099508,-0.45336,0.39117,0.11756,0.037453,0.049161,0.040233,0.0334
0.15283,0.35221,-0.65787,-0.10003,0.058847,-0.016807,-0.04211,0.052945
-0.014185,-0.39004,0.083959,-0.002568,-0.068763,-0.019316,0.025552,-0.0046181
-0.15556,0.29753,-0.20276,-0.035108,0.030138,0.0027055,-0.029919,-0.029451
0.1969,0.045761,0.19502,0.036595,-0.018883,0.033665,0.064977,0.033381
-0.051197,-0.22992,0.0852,0.087065,0.01906,0.0031832,-0.010275,0.0041575
0.04495,0.012485,-0.16901,0.045239,0.003705,0.0048557,-0.0061274,0.038829
-0.18683,0.45527,-0.34513,-0.12884,0.02895,-0.024031,-0.032589,-0.027173
-0.066863,0.33342,0.35648,-0.12358,-0.04592,-0.068102,-0.012248,-0.11632
0.2176,-0.66806,0.54621,0.17747,0.013149,0.083317,0.077659,0.091099
-0.13776,-0.15685,-0.43335,-0.046498,-0.02091,-0.0075383,-0.052453,-0.014766
0.22672,0.19328,0.25824,0.087141,0.0075299,-0.0049893,0.0033768,0.050126
-0.22014,-0.067853,-0.59491,-0.14808,-0.019382,-0.010842,-0.043922,-0.097194
-0.056752,-0.10341,0.21245,0.013806,0.053992,0.0059442,0.032476,0.027652
0.30219,0.86009,0.45628,0.088918,0.055308,0.029595,0.037741,0.088863
-0.081706,-0.21584,-0.20324,-0.023747,-0.054731,-0.0024418,-0.011893,-0.022686
-0.029649,-0.54749,-0.19741,0.012286,-0.080747,-0.051027,-0.029864,-0.02541
-0.057975,0.081491,-0.30638,0.025595,0.071399,0.024681,-0.023454,-0.004834
-0.12791,-0.046482,0.38755,-0.085057,-0.066368,-0.017156,0.015486,-0.077691
0.010752,-0.65344,-0.21941,0.00082202,-0.0010153,-0.0042315,0.063607,0.05335
0.13214,0.83795,0.12136,0.033258,0.080814,0.0092137,-0.019894,0.029294
0.018488,0.052893,-0.11539,-0.011323,-0.0076943,0.03137,0.0067702,-0.0011929
-0.094831,-0.38409,0.22313,0.0074092,-0.055243,0.0077879,-0.013185,-0.038109
0.089871,0.45406,0.22471,0.018716,0.06312,-0.030227,-0.049065,0.051101
-0.012901,-0.055612,-0.3616,0.022092,0.011008,0.0031277,0.023665,0.0081353
0.0031356,-0.0081005,0.32794,-0.029837,-0.063899,-0.025252,0.0094074,-0.034845
0.067381,0.10038,-0.039851,0.042231,0.071886,0.056118,0.017464,0.015226
