0.062247,-0.090101,-0.010452,-0.010935,0.019056,0.043878,0.072913,0.063136
-0.20829,0.03717,0.019631,0.0045505,0.014084,0.013482,-0.029106,0.00080878
-0.19025,-0.037594,-0.029081,-0.042567,-0.028855,0.037863,0.11193,-0.10539
0.26133,0.053003,0.0074206,0.011646,0.0069386,-0.015999,-0.011626,0.055472
0.8605,0.082341,0.043219,0.049946,-0.019707,0.00011403,0.022067,0.17675
-0.60102,-0.020165,-0.015294,0.0098636,0.0078759,-0.015519,0.033099,-0.048182
0.012793,0.0029384,-0.027205,-0.022533,0.018954,-0.016053,-0.010139,0.074433
-0.52762,-0.09084,-0.023338,-0.039211,-0.049249,-0.056042,-0.10802,-0.37027
0.2381,-0.020373,-0.003171,-0.00082415,0.076603,0.052315,-0.049896,0.094384
-0.2739,-0.043369,0.0025778,0.006995,-0.048736,0.028173,0.054748,-0.19468
0.34705,-0.0033077,0.033403,0.023568,0.0046393,-0.003035,0.026245,0.24847
0.1771,0.10792,0.019224,0.025604,0.02612,0.013734,0.028746,0.2302
-0.26995,0.071721,0.014685,-0.010353,-0.038597,-0.030697,-0.0080291,-0.1153
0.081093,-0.065166,-0.043042,-0.05327,0.0061728,-0.019159,-0.037333,0.017393
-0.15758,-0.05319,0.0017264,0.013637,-0.026778,-0.0065965,0.034251,-0.20764
0.7955,0.13039,0.015467,0.041378,0.042387,0.053379,0.065587,0.3965
-0.78074,-0.12458,-0.018172,-0.0097302,0.0027012,0.003852,0.0013939,-0.48359
0.33607,0.064087,0.025183,0.00034157,0.018014,-0.015317,-0.10416,0.18239
-0.023182,-0.02262,-0.034574,0.0086354,-0.005771,-0.020509,-0.071673,0.026657
-0.042871,-0.056362,0.0055181,-0.00069217,0.016892,-0.0045403,0.059851,-0.099384
-0.19499,0.010452,0.0049406,-0.027548,-0.06276,0.016573,0.14245,0.23437
0.034984,-0.055464,-0.012542,-0.032448,0.0051186,0.0037043,-0.080809,-0.1743
-0.16419,0.043992,0.00041397,0.00094148,0.017491,0.0040301,-0.046263,0.03522
-0.2737,-0.010414,0.020888,0.018814,-0.033105,-0.028659,-0.026,-0.25286
0.89044,0.11012,0.0024767,0.045514,0.096083,0.01598,0.012575,0.41592
-0.37834,0.02288,0.02367,0.01151,-0.063006,0.029737,0.10188,-0.012078
0.18121,0.00087369,-0.001238,-0.027993,-0.048755,-0.064302,-0.10882,-0.098675
-0.25721,0.027631,-0.025262,-0.033747,0.014368,-0.015049,0.044906,-0.27336
0.29855,-0.077517,0.0063014,0.056579,0.071932,0.068911,0.14107,0.27611
-0.4033,-0.14356,-0.031594,-0.046565,-0.0089838,-0.015199,-0.17248,0.0020942
0.23576,-0.0070128,-0.02186,0.031093,-0.0023167,0.060573,0.064215,-0.01064
0.16516,0.050584,-0.0037325,-0.047255,-0.049539,-0.11073,-0.15007,-0.24027
-0.22813,-0.0021646,0.03814,0.022176,0.012332,0.032239,0.089531,0.19404
-0.38468,0.029817,0.040857,0.035436,-0.0053419,0.042732,0.062813,0.016578
0.19335,0.16161,0.01172,-0.023748,0.068314,0.020807,-0.0129,-0.13445
0.41891,-0.04522,-0.0029478,-0.0073278,0.037327,-0.034857,-0.0061344,0.27775
-0.32524,0.0096578,-0.011424,0.022131,-0.082837,-0.023611,-0.0039802,0.0013821
0.64924,0.059385,0.025118,0.041473,0.051999,0.03078,-0.04636,0.051167
-0.58573,-0.27971,-0.1354,-0.12057,-0.22124,-0.043231,0.15534,-0.22878
-0.09038,0.10167,0.030946,0.029064,0.067597,-0.033758,-0.14884,-0.14134
-0.2058,0.040349,0.032797,0.022608,0.068448,-0.0097144,-0.12233,-0.18337
0.094244,-0.00081427,-0.019489,0.0094579,0.079495,0.10862,0.28289,0.22727
0.48415,-0.13631,1.3368e-05,-0.017455,-0.046913,-0.067875,-0.22844,0.14159
-0.27641,0.043169,0.045078,0.0047566,0.033068,0.071297,0.29088,0.055237
0.49322,0.11858,0.076861,0.068233,0.1079,-0.0045543,-0.32124,-0.053227
-0.44133,-0.079859,-0.029891,-0.030626,-0.10481,-0.084594,-0.13331,-0.066426
-0.25275,0.081598,-0.041446,-0.042619,-0.098577,0.033578,0.49671,0.44371
0.065416,0.094729,0.0022851,0.05474,0.078476,0.04407,-0.14913,-0.44771
0.035008,-0.010854,0.014536,0.018365,-0.082284,0.015722,-0.039499,-0.11153
0.52937,-0.12047,-0.10687,-0.089891,0.028252,0.0017437,-0.12817,0.37061
-0.47649,-0.010403,0.012782,-0.020287,0.019754,-0.16317,-0.14301,-0.54297
0.30505,0.074557,0.0298,0.039849,-0.036765,0.11393,0.23445,0.51362
-0.44762,-0.14093,0.046048,0.012945,0.054878,-0.018805,0.14275,-0.21726
-0.32166,-0.064048,-0.0083886,-0.022088,-0.017039,0.017046,0.0095148,-0.21861
0.7598,0.15682,0.046518,0.029334,0.083897,0.03473,-0.24505,0.066369
-0.063972,-0.02437,5.9724e-06,0.0038351,0.014004,-0.066242,0.010984,0.13987
0.0025608,-0.028258,-0.06202,0.026805,-0.08642,0.082537,0.4106,0.28482
-0.15889,-0.072353,-0.022587,-0.057989,-0.046099,-0.17401,-0.31827,-0.091688
0.3497,0.22706,0.024232,0.030354,0.071778,0.11818,-0.40758,-0.146
-0.57245,-0.020229,0.023413,0.041208,-0.022443,0.19408,0.26289,0.22269
0.022337,-0.0096197,-0.025308,-0.06525,-0.086912,-0.25865,-0.11639,-0.30686
0.62247,0.055426,0.057639,0.046196,0.15962,0.0097035,0.14425,-0.0087194
-0.43069,-0.15352,-0.071416,-0.046858,-0.094982,0.045311,0.65485,0.085893
-0.49828,-0.11298,0.025317,-0.016504,0.032744,-0.0043896,-0.51541,-0.23321
0.065982,-0.033381,0.012379,0.043639,0.012404,0.054736,0.060329,0.089902
0.25834,0.094035,-0.031494,-0.014415,-0.061346,0.026191,-0.12974,-0.037197
0.62714,0.075101,0.0037209,-0.025935,0.023225,-0.0676,-0.26967,0.4645
-0.079305,-0.042314,-0.0064005,0.0098142,0.016641,0.030526,0.44145,-0.053394
0.11874,0.10949,0.032285,0.030985,-0.049732,0.007913,0.0089377,-0.17769
-0.43391,-0.0556,-0.020725,-0.016682,0.034677,-0.14284,-0.13029,-0.011645
0.044271,0.16469,0.053138,0.046634,0.081526,0.10262,0.056456,0.044187
-0.64894,-0.13723,-0.027851,0.0098157,-0.043219,-0.04347,-0.45095,-0.47325
-0.018722,-0.14258,-0.0065595,-0.049438,0.026237,0.10002,0.24271,0.12965
1.0493,0.10825,-0.00094724,-0.01451,-0.062982,-0.11404,0.10341,0.67212
-0.35182,-0.13561,-0.035175,-0.03443,0.031912,-0.0049743,-0.20809,-0.518
-0.27536,0.063038,0.015203,0.046546,-0.02541,0.20898,0.53013,0.1223
0.13271,0.087279,0.048329,0.040563,0.0075193,0.012213,0.069365,0.26623
-0.15581,-0.062257,-0.037362,-0.075987,-0.11838,-0.18158,-0.3645,-0.39667
0.073071,0.029281,-0.038476,0.0015807,0.074853,-0.04487,-0.039376,0.026895
0.71281,0.081376,0.037654,0.078093,0.018474,0.04673,-0.083496,-0.061611
-0.33561,0.055501,0.027548,0.013163,0.073312,-0.055735,0.17936,0.075162
-0.60879,-0.22773,-0.068223,-0.075721,-0.0017683,0.163,0.0039388,0.0099897
0.37251,0.0051999,0.039852,-0.0085501,-0.042229,-0.039496,-0.041674,0.28342
0.12688,0.22301,0.070768,0.035296,0.11586,-0.16345,-0.43535,-0.245
-0.77221,-0.22283,-0.1161,-0.076741,-0.22349,0.15802,0.41612,-0.13903
0.60005,0.13633,0.080584,0.093006,0.063726,-0.075604,-0.0029746,0.2394
-0.19967,-0.097994,-0.0036408,0.036774,0.070102,0.11153,0.049571,0.11343
0.57905,0.07413,-0.041125,-0.057999,-0.041381,-0.11741,0.10489,0.010589
0.059572,-0.050511,-0.016698,-0.027395,0.0096759,0.056973,-0.13414,-0.14284
-0.80095,-0.050211,0.022421,0.042478,0.0040075,0.11053,0.066753,-0.28691
0.50752,0.12163,0.044816,0.034302,0.089925,0.097654,0.24707,-0.02454
-0.28727,0.011534,-0.043226,-0.10665,-0.22452,-0.42661,-0.51365,0.15187
0.050132,-0.060569,-0.0070975,0.033763,0.084668,0.13257,0.1622,-0.10858
0.40457,0.10818,-0.0026588,0.03384,0.049448,0.0034604,0.16112,0.49211
-0.063721,-0.075983,0.0096292,-0.028067,0.045588,0.016272,-0.68459,-0.10747
-0.08244,-0.05023,0.022437,0.004488,0.026883,0.024585,0.074141,0.046687
-0.43093,-0.071662,-0.034145,0.022223,-0.1468,0.092426,0.54107,-0.36513
0.1612,-0.014296,0.027643,-0.0061798,0.08728,-0.060788,0.043972,0.14193
-0.24449,0.076044,0.012553,0.0049686,-0.020841,0.0802,0.25138,0.15437
0.12527,0.05957,-0.024863,0.016204,0.044274,0.0062249,-0.17095,-0.47546
0.18362,-0.063348,-0.014609,-0.027649,-0.05367,-0.1129,0.058198,0.042492
-0.0022833,0.12892,-0.0040058,-0.033325,-0.12766,-0.029553,-0.28789,0.34208
0.73305,0.1746,0.068933,0.10817,0.22798,0.22285,0.35484,0.025746
-0.40936,-0.37293,-0.061917,-0.10335,-0.11237,-0.2401,-0.49315,0.35972
-0.38775,0.055239,0.032725,0.004027,0.10851,-0.020661,-0.21351,-0.59322
-0.27935,-0.05,-0.038018,0.016502,-0.10202,0.10802,0.16778,-0.028231
0.55705,0.091731,0.0070594,-0.018591,0.052629,-0.11853,-0.15343,0.42211
0.31862,0.019155,0.027508,0.039931,-0.0055955,0.067051,0.18415,-0.14007
-0.96688,-0.0018902,-0.015357,0.020758,-0.073169,0.072949,0.35369,-0.58103
0.66908,0.021482,-0.0038167,-0.028751,-0.0087363,0.088427,0.31495,0.55357
-0.09066,0.020016,-0.0075763,-0.0067028,-0.0066708,-0.21336,-0.59311,-0.2273
-0.35738,-0.051903,0.0052071,0.016738,0.1215,0.16039,0.34735,0.38958
0.11867,-0.028917,0.0037681,-0.044412,-0.13126,-0.071626,-0.07105,-0.25219
-0.47521,-0.113,-0.0037849,0.036191,0.071439,0.01184,-0.30787,-0.20074
0.74206,0.22015,0.021663,-0.0074414,0.049857,-0.019909,0.40329,0.35397
-0.05446,-0.052513,0.0017797,-0.011703,-0.0011807,-0.011785,-0.35001,-0.23207
0.58021,0.0064086,-0.0091895,0.061973,0.034685,0.12886,0.045171,0.45129
-0.38889,-0.056822,-0.035295,-0.044692,-0.12475,-0.13792,-0.28797,-0.39662
-0.038063,-0.0088333,0.0087091,-0.043004,-0.011599,-0.14084,0.057267,0.06497
-0.24905,0.16479,0.051844,0.059007,0.092355,0.16668,0.043859,-0.29053
-0.30108,-0.11524,-0.0079862,-0.012124,-0.094265,-0.027951,0.27597,0.25584
0.24767,-0.02954,-0.014842,-0.014037,0.061644,0.10344,0.26364,-0.14539
0.12316,-0.023893,-0.015626,0.0067389,-0.048696,0.006275,0.086288,0.57198
-0.49282,-0.035757,-0.033505,-0.035268,-0.026143,-0.069311,-0.23243,-0.38413
0.052107,0.029137,0.033614,0.071392,0.067402,0.15038,-0.10698,-0.50853
0.84049,0.15602,0.0067373,-0.04,0.029122,-0.20922,-0.014383,0.5394
-0.54589,-0.1932,-0.050911,-0.056599,-0.00043474,-0.16307,-0.53264,-0.25253
0.25422,0.20888,0.07222,0.092067,0.017354,0.13339,0.40953,0.14837
0.34211,-0.17627,0.0015059,0.0075048,0.11308,0.11854,-0.19403,0.084925
-0.19843,-0.036121,-0.0208,-0.03711,-0.16704,-0.027223,0.2289,0.46802
-0.47223,0.074111,-0.0027627,-0.010944,-0.16722,0.079315,0.35168,-0.44168
-0.27179,0.01274,0.016044,0.015203,0.1359,0.0084451,-0.075136,-0.32961
0.16576,-0.0029533,-0.011917,-0.021642,0.055123,-0.19337,-0.43497,0.24408
0.72959,0.22851,0.014249,0.034403,-0.088638,0.082577,0.52054,0.26752
-0.41632,-0.21626,-0.015379,-0.04343,0.095969,0.023029,-0.32801,-0.43305
-0.05987,-0.064856,-0.022987,0.041722,0.047103,0.04923,-0.13905,-0.021063
-0.066339,0.026189,-0.008609,-0.006839,-0.031672,-0.057945,0.14048,0.25647
-0.16797,0.026231,0.012366,-0.03254,-0.077707,-0.04072,0.041222,-0.11136
-0.081757,-0.17266,0.0013046,0.0040877,0.057302,0.0074323,0.0011326,-0.22845
1.0292,0.22842,0.036846,0.01751,0.076141,0.0010438,-0.11905,0.30879
-0.56951,0.0051627,-0.013341,-0.0075757,-0.20133,-0.10628,-0.26282,-0.050494
-0.16001,-0.25444,-0.039533,-0.00068458,0.044736,0.15451,0.4856,0.25807
0.3423,0.30264,0.044364,0.045992,0.087339,0.080222,-0.33365,-0.1174
-0.58723,-0.057297,-0.00387,-0.023966,-0.042633,-0.0014462,0.60759,-0.030717
0.47263,0.14216,0.042142,0.0079149,0.045148,-0.1303,-0.50419,0.25684
-0.74356,-0.22482,-0.044413,0.00070524,0.0067132,0.16939,0.4542,-0.61015
0.38231,-0.057932,-0.029384,-0.077089,-0.0096306,-0.15772,-0.27705,0.044562
0.62507,0.14155,0.0089843,0.032227,-0.074204,-0.12753,-0.33227,0.10133
-0.33421,-0.072729,-0.007407,0.031812,0.1022,0.13522,0.24898,-0.081748
-0.35388,-0.091988,-0.015903,-0.01566,-0.11294,-0.079639,-0.25902,0.15135
0.22278,0.0915,0.030599,0.038511,0.093313,0.14304,0.28641,0.090232
0.29415,0.071846,0.015126,-0.047569,-0.07541,0.015362,0.013107,0.47028
-0.030748,0.068462,0.015926,0.015415,0.029795,-0.071035,-0.13067,-0.48065
-0.38503,-0.121,-0.013888,0.0010645,-0.012615,-0.06868,-0.048794,-0.018749
-0.049893,-0.034926,-0.011974,0.003163,-0.015034,0.20219,0.54116,-0.095224
0.084669,-0.040076,0.029225,-0.0096524,0.13174,-0.15735,-0.59548,-0.075004
0.16825,0.043216,-0.031209,-0.0063859,-0.057065,-0.0076558,0.28947,0.18488
0.28044,0.0034485,-0.021653,0.012596,-0.011708,-0.014118,-0.010117,-0.29012
-0.71806,-0.027715,-0.012577,-0.0078224,-0.092108,0.017088,-0.076089,0.094802
0.14225,0.26058,0.066295,0.080375,0.060739,0.21737,0.048715,-0.0045542
0.52515,-0.016381,-0.027148,-0.043463,0.095223,-0.12532,-0.084277,0.62047
-0.45378,-0.24328,-0.027124,-0.090462,-0.097667,-0.12092,-0.25078,-0.32323
0.33536,-0.077765,-0.01157,0.0096947,-0.048415,-0.050614,0.25908,0.12007
-0.32234,0.11232,0.074378,0.038454,0.033111,0.031697,0.070538,-0.18784
0.58436,0.061654,0.019911,0.058663,0.038728,0.24457,0.013074,-0.10293
-0.26885,-0.064457,-0.081145,-0.038623,-0.085181,-0.22273,0.026482,-0.10414
-0.25193,0.071929,0.013418,0.0048412,0.068331,0.069165,-0.019087,0.082344
0.27481,-0.1127,-0.0011008,-0.021515,-0.0084231,-0.042105,-0.096821,0.11593
-0.57029,-0.014319,-0.015365,-0.023685,0.1215,-0.0084298,-0.00011073,-0.27921
-0.010875,0.03319,0.025249,0.021887,-0.074334,0.10046,-0.014768,0.083253
0.12101,0.078054,-0.0043478,0.013621,-0.058558,-0.22343,-0.2788,-0.14169
0.086933,0.097282,0.020722,0.068572,0.026308,0.37838,0.42813,0.39481
0.58482,-0.058018,0.0065649,-0.047827,-0.0012336,-0.1581,-0.15941,0.17985
0.28738,0.14224,0.023352,-0.0076524,0.037076,-0.06903,0.02763,0.010174
-0.5798,-0.35819,-0.085278,-0.092309,-0.10178,-0.012402,0.36943,-0.17947
-0.27665,0.017212,0.04,0.049675,0.089866,0.010373,-0.29375,-0.11236
0.054002,-0.0063921,-0.046113,-0.019239,-0.098363,-0.048402,-0.1062,-0.14529
-0.23746,0.085616,0.0080114,0.075915,0.014317,0.10802,0.26499,0.17021
0.65439,0.18327,0.069641,-0.00087718,0.085604,-0.11358,-0.35378,-0.29403
0.2639,0.052005,0.013837,0.015867,-0.0079339,0.014417,-0.087494,0.29675
-0.80988,-0.21428,-0.050002,-0.030289,0.016436,0.094919,0.15146,0.11536
-0.13055,-0.013512,-0.0046898,-0.01452,0.027162,0.074644,0.15507,-0.062166
-0.16776,0.069152,0.024775,0.00058849,-0.0060335,-0.099856,-0.32322,-0.34943
0.16215,-0.17619,-0.039675,-0.047403,-0.16842,-0.083931,0.23525,0.022859
0.47901,0.17347,0.052104,0.044863,0.048202,0.068177,0.2386,0.21377
0.75021,0.041064,-0.004326,0.012129,0.089245,0.0048168,-0.19585,0.30268
-0.7329,-0.10392,-0.060195,-0.043605,-0.029851,-0.14184,-0.046375,-0.27362
0.13003,0.043473,0.0020397,0.034311,-0.0048803,0.056721,-0.18345,-0.16619
-0.16405,-0.063961,-0.0048271,0.043027,0.061821,0.35673,0.59966,0.58193
-0.30545,0.065029,0.02871,-0.072077,-0.018271,-0.23579,-0.28723,-0.32271
0.51773,0.14777,0.055666,0.048211,-0.15259,-0.066308,0.019664,0.19425
-0.62106,-0.16898,-0.025906,-0.018363,0.14201,-0.065806,-0.50486,-0.549
0.27004,0.034991,-0.0056902,0.0089112,0.075338,0.24169,0.36601,0.064874
-0.20369,0.016223,0.029627,-0.019008,-0.095691,-0.19038,-0.22491,-0.055433
-0.27004,-0.054074,-0.053494,0.0066858,-0.08256,-0.087369,0.030712,0.031764
0.36783,-0.042974,0.0022143,0.015253,0.091167,0.13082,0.48088,0.14387
0.79518,0.01133,-0.0066089,-0.0013278,0.011732,-0.080359,-0.3939,0.25405
-0.56097,-0.030337,-0.040769,-0.050808,-0.08582,0.07828,0.33107,-0.048936
0.19241,0.11501,0.064277,0.062457,0.072863,0.0069679,-0.3508,-0.061343
0.070683,0.027181,0.0045745,0.010907,-0.019035,0.066031,0.32559,0.15264
-0.20176,-0.019088,-0.008095,-0.079749,0.014395,-0.096171,-0.33703,-0.090175
-0.50294,-0.046525,-0.0041921,0.0099728,0.0019442,0.0036646,0.13501,-0.40361
0.02369,-0.01605,-0.0065701,0.038504,-0.063873,0.14496,0.090223,0.21581
0.30591,0.071685,-0.0071547,0.01403,0.10596,-0.041637,0.17456,0.13203
-0.047687,-0.16731,-0.021695,-0.063417,-0.035824,-0.12851,-0.34758,0.16395
0.31469,0.14047,0.043054,0.079255,0.010167,0.039081,-0.046126,-0.18779
-0.48112,-0.037745,-0.0090333,-0.019568,-0.030197,-0.086371,0.018556,-0.38927
0.51905,0.17176,0.047636,0.014235,-0.0090709,0.034528,0.24841,0.1651
-0.17602,-0.091119,0.048075,0.039149,0.04976,0.035804,-0.34455,-0.11396
0.10641,-0.052907,-0.070874,-0.062701,-0.056827,0.013003,0.063993,0.31649
-0.56256,-0.16582,-0.082852,-0.010358,-0.078457,0.077489,0.13314,0.23212
0.58364,0.11092,-0.018753,-0.037989,0.11838,-0.065853,0.15282,-0.21858
-0.0083991,-0.017313,0.044182,-0.0042682,0.026793,-0.040849,0.12929,0.087159
-0.2668,0.029974,0.0056423,-0.0097008,-0.063196,-0.0034039,-0.37893,0.17663
-0.2133,0.020383,0.023237,0.056266,0.052412,0.10059,-0.018393,-0.4158
0.24722,0.064424,0.020011,0.022777,-0.024187,-0.058423,0.29764,0.21186
-0.017602,0.021446,0.012318,-0.00017961,-0.034901,0.056536,0.085625,-0.1697
-0.43855,-0.13326,-0.023155,-0.012553,0.027934,-0.064725,-0.30081,-0.18598
0.78599,0.043247,0.0068381,0.00073962,-0.078488,-0.010426,-0.20894,0.20397
-0.45849,0.040055,0.015326,0.015241,-0.0036894,-0.032332,0.25133,-0.10529
0.70421,0.19762,0.040016,0.084357,0.17273,0.10304,-0.12823,-0.007103
-0.31888,-0.29947,-0.10801,-0.1291,-0.035346,0.083401,0.45504,0.23818
0.17727,0.031208,0.0075254,-0.024546,-0.051519,-0.10547,-0.17815,0.25213
-0.41213,-0.0062996,0.0029849,-0.0086811,0.013374,-0.22676,-0.38537,-0.1891
-0.25043,0.018561,0.018685,0.020172,0.088157,0.14459,-0.024076,-0.46765
0.034599,0.0221,0.015784,0.039231,-0.15531,-0.042749,0.21101,0.57134
-0.65759,0.023209,0.026212,0.002659,-0.028591,0.0032336,-0.065016,-0.41902
0.80904,-0.060314,-0.019343,0.021026,0.03265,0.26104,0.12634,0.2523
0.14094,-0.013964,-0.041607,-0.045172,-0.062887,-0.12822,0.4623,-0.028927
0.27681,-0.030267,-0.00040224,-0.023222,0.078065,-0.10317,-0.75918,0.013866
0.034319,0.22042,0.034869,0.087294,0.090665,0.16954,0.59233,-0.10766
-0.35946,-0.12128,-0.013349,-0.057436,-0.062553,-0.05592,-0.24536,-0.0056721
-0.20533,-0.080308,-0.0042812,-0.012615,-0.013863,-0.08822,-0.16737,-0.064369
0.45031,0.35624,0.077424,0.088089,0.087687,0.12368,0.42519,-0.033699
0.16873,-0.19002,-0.011048,-0.021984,-0.032967,-0.024394,-0.29491,0.39236
-0.79339,-0.2694,-0.09085,-0.086032,-0.034377,-0.14293,-0.14241,-0.13541
0.39257,0.12308,0.032443,0.027945,0.02625,-0.036036,-0.012792,-0.051512
-0.074907,0.07935,0.014313,0.03041,0.037295,0.10313,-0.039091,-0.30574
-0.54125,-0.09648,-0.028582,-0.063101,-0.1278,-0.16752,-0.15559,0.089553
0.29127,-0.013171,-0.0027217,0.028931,-0.024335,0.093205,0.18937,0.14508
0.64386,0.096415,0.013818,0.0023441,-0.0035207,0.21682,0.54694,0.47246
-0.42582,-0.062597,-0.017768,0.01403,0.006114,-0.036379,-0.45604,-0.51291
0.24876,0.1759,0.051321,0.048975,0.099947,0.069213,0.17058,0.07998
0.30194,-0.15514,-0.036371,-0.040788,0.037496,-0.17748,-0.095372,-0.31195
-0.65637,-0.085822,0.00067728,-0.059675,-0.007937,-0.12147,-0.13211,0.059793
0.26444,0.30622,0.076679,0.11739,-0.0041793,0.25081,0.41288,0.41948
0.13475,-0.010315,-0.027072,-0.0096703,-0.021209,-0.1567,-0.33679,-0.19675
-0.48225,-0.35619,-0.068401,-0.089428,-0.074844,0.036646,0.21047,0.30944
-0.11619,0.041461,-0.016066,0.010795,0.021851,-0.045833,-0.37634,-0.3307
0.14159,0.15866,0.044048,0.0018612,0.049378,0.063617,0.15363,0.1225
0.35637,-0.075278,-0.0051176,-0.014678,0.030413,-0.033717,-0.055076,-0.19954
0.32748,0.21447,0.024126,0.015889,-0.106,0.021889,0.16889,0.0079164
-0.61539,-0.24555,-0.032081,0.054501,-0.00094587,-0.01098,-0.14059,-0.14422
0.18422,0.11503,0.029549,0.015162,0.048414,0.095194,-0.025298,0.22969
-0.0249,-0.094338,-0.033102,-0.04758,0.018499,-0.33058,0.16192,0.10989
-0.12804,0.0091721,0.014281,-0.0011045,-0.012638,0.29824,-0.22057,0.0081698
0.29333,0.081679,-0.00037005,-0.0018566,-0.021612,0.03657,0.10666,-0.079542
-0.14717,0.013517,0.016391,-0.003095,0.01497,0.024877,0.25728,0.021703
0.10193,-0.023879,0.0095155,-0.0048441,0.11273,0.012737,-0.126,0.032752
0.10093,-0.085714,-0.013519,0.00081551,-0.03289,-0.20346,0.019082,-0.17828
-0.37749,0.13222,0.0095636,-0.0093283,-0.093454,-0.11626,-0.23165,-0.20552
0.026969,-0.02665,-0.030649,0.019716,-0.02151,0.17274,0.1493,0.33997
-0.19892,-0.054528,0.0066607,0.0023397,-0.074077,0.13256,0.016782,-0.060471
0.51079,-0.029207,-0.010907,0.016962,0.085674,-0.33001,-0.25086,0.05782
-0.56664,-0.10624,-0.020287,-0.014322,-0.03366,0.41072,0.39732,0.072862
0.91599,0.32471,0.033814,0.010165,0.084008,-0.12893,-0.025557,0.2767
-0.35124,-0.047744,0.026904,-0.042386,0.032405,-0.18271,-0.12973,-0.40508
-0.1248,-0.33197,-0.025105,-0.00020775,0.084423,0.16393,-0.33627,-0.092251
-0.084278,0.089944,-0.01287,0.027114,-0.081204,-0.033932,0.27907,0.019333
-0.1838,0.061978,0.0085507,0.00021487,-0.067173,0.04431,-0.06933,0.0094979
0.035693,0.12281,0.038479,0.028103,-0.030765,-0.077682,0.44282,-0.047801
0.1263,0.029243,-0.01771,-0.053685,-0.027361,-0.079452,-0.46975,0.00075159
0.41307,0.19387,0.057811,0.090404,0.052184,0.14057,-0.022783,-0.035009
-0.35737,-0.33029,-0.095132,-0.071199,0.02839,0.027479,0.3401,0.30246
0.014694,-0.14631,-0.023951,-0.038709,-0.066998,-0.12242,-0.39662,0.023879
-0.16134,0.13536,0.021175,0.015912,0.00094292,-0.11483,0.14047,-0.072882
-0.012912,-0.11851,-0.022072,-0.0010628,-0.0017868,0.11905,0.12018,0.1207
0.27109,0.10005,0.034295,0.027663,0.1358,0.15543,0.24158,-0.10073
0.14376,0.198,0.050329,0.063181,0.069634,0.14838,0.0705,-0.076046
0.028463,0.027943,0.0033425,-0.05839,-0.09924,-0.20881,-0.5768,-0.30816
-0.50915,-0.1354,-0.035625,-0.016521,-0.04321,-0.23794,-0.3752,-0.010432
-0.011382,0.10002,0.043445,0.087502,0.0031599,0.34956,0.71293,0.065436
0.058628,-0.26423,-0.079227,-0.089703,-0.053526,-0.070525,0.023853,0.41058
0.23022,0.078146,-0.0047872,-0.032041,-0.024785,-0.2773,-0.088948,0.10252
-0.04594,-0.035405,0.0092316,0.011019,-0.010682,0.11531,-0.067584,-0.22625
-0.062796,-0.0021665,0.0098252,-0.0068804,-0.001684,-0.045068,-0.00963,-0.20087
0.11122,0.092431,0.028169,0.031834,0.0037465,-0.13743,-0.14524,0.038218
0.24906,0.14644,0.024905,0.064807,0.21751,0.45064,0.13885,0.2417
0.0042373,-0.052475,-0.031725,-0.017505,-0.094664,0.11147,0.25977,0.11404
-0.7294,-0.11597,-0.0017744,-0.028085,0.082024,-0.29544,-0.31973,-0.35831
0.26115,0.039005,0.0046123,0.0089037,-0.16029,0.080048,0.03349,-0.15702
0.2431,0.010985,-0.021133,-0.032376,0.06692,-0.14744,-0.15837,0.18966
0.21044,0.023878,-0.0015219,-0.019906,-0.027536,-0.059169,0.21145,-0.049876
-0.50613,-0.017876,0.039576,0.06133,-0.14078,0.09169,0.15495,0.13408
0.0034248,-0.13835,-0.038629,-0.023357,0.11666,0.075884,0.011823,0.023222
0.22097,0.053755,-0.0016362,-0.023935,0.033436,-0.16316,-0.049771,-0.1572
0.27074,0.091584,0.049391,0.059966,0.024006,0.31891,0.030025,0.37881
-0.29928,0.024828,-0.025548,-0.036636,-0.019994,-0.19664,-0.1013,-0.1622
0.11546,-0.15104,-0.030372,-0.055127,-0.0033911,-0.10749,-0.48179,-0.050748
0.090053,-0.049976,-0.026779,-0.018134,-0.08088,-0.060732,0.078875,-0.0099617
