-0.012248,-0.041162,0.0029164,0.016775,-0.027403,-0.004059,0.0068505,5.7089e-05
-0.034648,0.097285,0.061604,0.018412,-0.0082336,0.018041,-0.0021232,0.0078654
-0.01835,0.016746,0.051459,-0.011376,0.050288,0.032766,0.02076,0.0085333
-0.018026,-0.056603,-0.0047301,-0.017959,-0.01652,0.009144,-0.010447,0.017665
0.04452,-0.029272,-0.0062308,0.014167,-0.021731,-0.013688,-0.009868,0.0038008
0.059999,0.083114,0.1633,0.069208,0.034238,0.034433,-0.0088508,0.0056221
-0.041832,-0.23475,-0.42652,-0.11864,-0.051911,-0.018688,-0.0075206,0.014834
-0.018744,0.18963,0.075452,-0.010483,-0.014445,-0.025009,-0.0060225,-0.031534
0.0042967,-0.1117,0.020645,0.057657,0.014181,-0.00050708,0.026734,-0.016627
0.0039133,0.088667,0.12789,0.0076341,0.034499,-0.0078951,0.04371,-0.010849
0.0036664,0.16643,0.15519,0.019212,-0.023218,-0.031568,-0.025554,0.0094282
0.019385,-0.057606,0.11838,0.0066229,0.021234,0.022389,-0.0092767,0.029041
-0.058033,-0.20822,-0.34946,-0.061112,0.011959,0.044891,-0.040283,-0.052932
-0.0017342,0.034885,-0.083946,0.0038757,-0.011855,-0.034047,0.0065197,0.014196
0.0010079,0.1012,0.063888,-0.0088981,-0.019054,-0.003217,0.0063185,0.027889
0.067448,0.14657,0.17286,0.072945,0.013523,0.051592,0.0062329,0.011943
-0.013535,-0.2593,-0.029651,-0.0079043,0.0073689,0.0053782,0.045568,0.028911
-0.070541,-0.20328,-0.24598,-0.079138,-0.014469,-0.063867,-0.03956,-0.062101
0.051916,0.18049,0.21197,0.00016437,-0.013241,0.015508,-0.014711,0.0040063
0.040379,0.11676,0.078817,0.081659,0.042128,-0.014562,0.034109,0.023436
-0.012405,0.056483,-0.09871,-0.0066933,-0.020234,-0.0058722,-0.010486,0.026769
-0.021349,0.24735,0.030419,-0.062208,-0.036099,0.002337,-0.0081601,-0.025579
-0.033809,-0.13287,0.051375,0.0081571,0.018252,0.080272,0.0016939,-0.040118
0.03622,-0.17106,-0.036648,0.0081764,-0.0052977,-0.037721,0.018772,0.022275
0.033205,-0.022857,-0.10148,0.046207,0.01852,-0.046897,-0.0040179,-0.0020949
-0.025867,-0.1233,-0.04971,0.011897,0.003899,0.037253,-0.012076,-0.0032732
-0.084451,-0.15573,-0.014141,-0.033025,-0.010157,-0.0038102,-0.036595,-0.035301
0.031404,0.10383,0.1227,0.036048,0.030794,-0.029208,0.0085524,0.019544
-0.08264,0.25439,0.20497,-0.054215,0.0013653,0.03163,0.0064461,0.013091
0.12162,-0.04369,-0.16536,0.0093387,0.0026878,-0.039844,0.058934,0.085866
0.019528,-0.14009,-0.097445,-0.053407,-0.035916,-0.0091679,-0.01343,-0.020415
0.016481,-0.020163,-0.028791,-0.061338,-0.0052697,0.061091,-0.022994,-0.017436
-0.030246,0.34342,0.0012652,0.080732,-0.0069177,-0.0089824,-0.032202,-0.038854
0.0090526,0.16326,0.1875,0.045819,-0.040629,0.053709,0.037047,-0.061962
0.013553,-0.091292,-0.19738,0.022001,0.034596,-0.0012014,0.012808,0.10032
-0.051513,-0.098716,0.16611,0.032593,0.031666,-0.080234,-0.019052,-0.059825
0.19399,-0.23847,0.1913,0.029927,0.021229,-0.058462,0.003933,0.036194
-0.11049,-0.30078,-0.30979,-0.065389,0.019093,0.0096022,-0.035395,-0.024844
-0.081344,0.084077,-0.0012351,-0.05167,-0.021602,0.085307,0.066181,0.0081387
-0.10632,-0.015681,-0.16382,-0.039575,-0.015034,0.0051396,-0.074015,-0.019997
0.0067953,0.14189,0.15648,0.0012856,-0.031689,-0.035027,0.020715,-0.084887
0.005997,0.04103,0.023285,0.039374,-0.032653,0.019926,0.045766,0.23591
0.19408,0.28936,0.039183,0.012477,0.060126,-0.017304,-0.030133,-0.065331
-0.16633,0.17127,0.072074,0.022912,-0.02677,-0.013998,-0.011829,-0.012444
-0.072584,-0.03227,0.05191,0.024842,0.050502,0.0060301,0.0066289,-0.12186
0.053107,-0.26996,-0.16206,-0.058741,-0.020433,0.14374,0.032642,0.01941
0.11341,-0.094181,0.25017,-0.00026753,-0.028525,-0.15625,-0.027996,0.050863
0.19563,-0.1049,-0.30537,0.013514,0.010671,-0.011812,0.027427,0.088655
0.21338,0.036041,-0.031685,0.0064486,0.019043,0.037456,0.018946,-0.0086043
-0.076252,0.19972,0.13425,0.025448,-0.0034438,-0.03998,-0.069123,-0.13193
-0.38333,-0.17022,-0.12706,0.0077042,0.01346,0.044929,-0.017835,0.0077567
-0.14129,-0.0028717,-0.049195,-0.055173,-0.02405,0.011179,0.02481,0.020243
-0.068339,-0.045852,0.14168,0.023571,0.0090043,0.031091,0.012536,-0.031294
0.067057,0.094859,0.04672,-0.0068724,-0.012346,-0.066646,-0.022762,0.033625
0.0078665,0.055538,-0.015143,-0.0926,-0.048968,-0.023627,0.052283,0.16885
0.13965,0.065432,0.29757,0.13289,0.086713,0.035678,-0.027598,-0.10945
-0.097482,-0.11636,-0.23667,0.0049647,-0.058403,0.01792,0.058003,-0.074447
0.0076983,0.041063,-0.073635,-0.015815,0.031231,0.032686,-0.034824,0.031673
0.18587,0.035906,-0.035522,-0.015586,0.011648,-0.021577,-0.032997,-0.041285
0.2253,0.20139,0.072458,-0.080265,-0.031572,-0.043484,0.016151,0.057927
0.01883,-0.20755,-0.21738,0.048209,0.041741,0.013519,-0.012838,0.0008595
-0.060043,-0.083669,0.066241,0.081241,0.027987,0.016209,-0.010967,0.037274
-0.17878,0.017579,-0.0029089,-0.011777,-0.034166,-0.035853,0.0058822,0.034301
-0.25453,-0.17619,0.024125,-0.097271,-0.090252,0.036603,-0.017109,-0.10162
0.040091,0.19725,0.22064,0.036489,0.039428,0.014474,0.052843,0.01277
0.083211,-0.092345,-0.11486,-0.031646,0.027006,-0.024373,0.020472,-0.082818
0.10913,0.053497,0.072271,0.042622,0.0057545,-0.0019397,-0.020368,0.026384
-0.18252,-0.024975,-0.032167,0.0095679,0.015319,0.011484,-0.046084,0.044064
0.14574,0.18308,0.092395,0.001947,0.017249,0.023895,0.052916,0.064189
-0.044904,-0.040008,-0.11983,0.011557,-0.042588,-0.065932,-0.027769,-0.022889
-0.35419,0.046749,0.17205,-0.024753,-0.038759,0.00027346,-0.029988,0.016412
0.12413,-0.20066,-0.36176,0.01724,0.013386,0.027732,0.015364,0.071523
0.57431,0.009498,-0.057251,0.050866,0.10614,0.071664,-0.00078758,-0.069863
0.11409,0.069542,0.12622,-0.041582,-0.041798,-0.054966,0.0076648,-0.065237
-0.18174,-0.0502,-0.019466,-0.064968,-0.024336,-0.015894,0.0016288,-0.040442
0.00082158,0.24646,0.17305,-0.0034597,-0.029202,-0.053181,0.03553,-0.04261
-0.3929,-0.036286,-0.0511,-0.0049657,-0.0019573,0.051812,-0.00047689,0.17864
0.004498,-0.079347,-0.088535,-0.029728,-0.0053504,0.0018372,0.0023768,-0.055471
0.109,-0.17805,0.10785,0.086971,0.022863,0.022835,-0.034651,-0.040544
-0.18426,-0.19541,0.26321,0.056479,0.0042713,0.0046176,-0.010494,-0.0017758
0.15557,0.19509,-0.1252,0.019462,0.047907,-0.022454,0.0042772,0.054255
-0.3069,-0.0306,-0.08421,-0.071302,-0.049752,0.042371,-0.013728,0.011267
0.52592,0.032804,-0.22645,0.025739,-6.9885e-05,-0.004591,0.029591,-0.0052768
0.10399,0.12496,-0.093409,-0.065161,0.024692,-0.0072409,-0.013603,-0.065699
0.07252,0.15487,0.15758,-0.024358,-0.014804,-0.090236,-0.0097641,0.040509
-0.35361,-0.096449,-0.012232,0.01491,0.0063632,0.0050599,0.041848,0.00010741
-0.030803,0.29768,0.39874,0.06816,-0.028832,0.029823,-0.030028,-0.015936
-0.16803,-0.37091,-0.3337,-0.028459,0.0050301,-0.014648,0.0015537,0.038337
0.10282,-0.26449,-0.12093,-0.0088616,-0.00079514,0.036859,-0.0039445,-0.03318
0.070819,0.15021,0.10204,-0.0052681,0.0091379,0.013205,0.031382,0.03458
0.2741,0.13425,0.094895,-0.024895,-0.026909,0.047356,-0.010145,-0.024282
-0.14058,-0.1432,-0.00075728,0.065549,0.055765,-0.025227,-0.019833,-0.06913
-0.14423,0.059513,-0.020825,-0.0070904,-0.023689,0.021018,0.0093697,0.040889
0.12001,0.22043,0.12759,0.007231,0.0082648,-0.057409,-0.0091946,-0.0063858
-0.13937,-0.26667,-0.23667,-0.016661,0.0029719,-0.050912,0.0020335,0.00030592
0.020942,0.11803,0.064312,-0.063481,-0.016616,0.094097,0.027103,0.10805
0.099602,-0.011483,-0.096198,0.014792,0.0035278,-0.044902,-0.01215,-0.0034275
0.041421,-0.049332,0.16321,0.045874,0.015819,-0.022682,-0.029538,-0.037322
-0.0048373,-0.031163,0.068181,0.05289,0.011813,-0.0028473,-0.0089489,-0.10313
-0.14751,0.091913,-0.18634,-0.05024,-0.024563,0.015481,0.019005,0.049082
-0.10387,-0.00010746,0.024791,-0.013438,-0.038814,-0.0056629,0.0081123,0.0053702
0.10424,-0.11337,-0.032293,0.015182,0.00037768,0.067614,-0.0098087,-0.007412
0.12651,0.11629,0.041565,-0.057597,0.030795,-0.07634,0.04373,0.058071
-0.16143,0.028484,0.083046,-0.0045556,-0.0018428,0.039501,-0.026489,-0.086705
0.21671,0.14211,-0.0087733,-0.0047341,0.0044473,0.016721,-0.01752,0.058763
0.087932,-0.078245,0.18065,0.09078,0.050006,0.011179,0.0077315,-0.012988
-0.08857,-0.11217,-0.30143,-0.022532,-0.052462,-0.016865,0.017475,-0.020607
0.0055408,-0.085967,0.037475,0.014489,0.0017963,-0.029136,0.0033485,0.03571
-0.31117,-0.053643,0.018037,-0.0096789,0.017433,0.0048965,-0.0038364,-0.024203
-0.055489,-0.07527,-0.07811,-0.0021347,0.017819,0.0066118,0.0035126,0.033353
0.13156,0.0090021,0.022823,-0.010694,-0.036133,-0.039806,-0.029238,0.035763
0.11749,0.23433,0.14916,0.0028672,-0.01155,0.014195,-0.023639,-0.025412
0.12194,0.11187,0.027378,-0.016702,-0.009845,-0.0029102,-0.026046,-0.0020897
-0.0022507,-0.051681,-0.092933,-0.038336,0.0004238,0.026523,0.050064,-0.042679
-0.011342,0.033178,0.029694,0.0006764,0.011586,0.0091818,0.025505,-0.068636
0.034001,-0.0096623,0.019363,0.069621,0.00018896,0.023498,0.025559,-0.14956
-0.14531,-0.16675,-0.13264,-0.018286,0.012842,0.0071015,-0.027906,0.27003
-0.11712,0.020294,0.080766,-0.043577,0.017744,-0.024424,0.005444,0.058008
-0.050675,-0.013316,-0.012744,0.033371,0.014097,-0.032167,0.0079357,0.050645
-0.01392,0.020038,0.016409,0.025335,0.00098158,0.0071286,0.0024648,-0.15835
0.10414,-0.012788,-0.058136,0.018197,0.016602,-0.016055,-0.050479,0.016585
0.10068,-0.056332,0.0062406,-0.02746,-0.03338,-0.00022201,0.012933,-0.0032502
0.12279,0.047273,0.085107,-0.018453,-0.055354,0.023386,-0.026018,-0.054375
0.0033173,-0.028066,0.022837,-0.017911,-0.017677,0.00013868,-0.026433,0.0033806
0.12848,0.24304,0.070068,0.043932,0.018058,0.031669,0.074611,-0.0021143
-0.2724,-0.17703,-0.13974,-0.012949,0.029686,0.00084113,0.011928,0.061884
-0.02438,0.0014493,-0.043425,-0.032349,0.010806,-0.014193,0.012412,0.023561
-0.11548,0.10634,0.015914,0.017244,-0.0060366,-0.036869,-0.0097444,-0.023216
-0.02413,-0.19938,-0.10179,0.0035448,0.034798,-0.0046955,-0.04683,-0.015822
0.093484,0.066952,0.11161,-0.018065,-0.0068533,-0.011445,-0.0054003,0.038055
0.075157,0.067349,0.070099,0.031273,0.0095682,0.052215,0.020352,-0.0098725
-0.021289,-0.036216,-0.0081313,-0.027491,-0.033658,-0.001299,0.022129,-0.010954
0.034476,0.051308,0.094614,0.017012,-0.020198,-0.015865,0.0073152,-0.0352
-0.0038016,-0.085445,-0.084001,0.039937,0.048953,0.023974,-0.016552,-0.066608
0.10927,-0.017398,-0.092325,-0.036973,-0.038092,-0.0069557,0.0051595,0.098334
-0.077077,0.036866,0.029343,-0.010965,-0.024276,-0.015039,-0.021101,-0.071331
0.024454,0.093891,0.069355,0.054937,0.050863,0.0074879,-0.032403,0.10417
-0.13258,-0.11821,-0.08949,-0.035143,-0.015967,-0.033056,0.010906,-0.0081667
-0.071993,-0.050572,-0.016795,-0.039519,-0.013728,-0.011487,0.015705,0.0052325
0.064542,0.19739,-0.00034561,-0.0054381,0.0031808,0.0334,0.021588,-0.036026
0.025462,-0.16915,0.0083119,-0.0034316,0.0038695,0.023776,0.021062,-0.031165
0.11351,0.046774,0.065395,0.0211,-0.011334,-0.00104,-0.0092798,0.058183
-0.040633,0.010276,0.039242,0.036897,0.020276,-0.025256,-0.0071936,-0.041859
0.11563,-0.020561,-0.046171,0.028358,0.020621,-0.0097612,-0.0044113,0.098321
-0.083474,0.070897,0.0042923,-0.0123,0.013031,0.021939,-0.017154,-0.20065
-0.092092,-0.044791,0.056999,-0.030344,0.0051272,0.02281,0.024311,0.046223
-0.01186,-0.04921,-0.13151,-0.056927,-0.042343,-0.02298,-0.021085,0.042873
-0.084,0.00076629,0.03109,0.017509,-0.02791,-0.0062638,-0.0051342,0.01662
0.13088,0.22021,0.12944,0.04482,-0.029637,-0.028766,-0.0059424,0.046123
-0.16158,-0.072248,-0.024838,0.033211,0.046445,0.010981,-0.0076441,-0.0090624
0.29128,-0.18997,-0.16643,-0.032482,0.0053476,0.011388,0.037031,0.05399
-0.1176,0.062478,-0.037226,-0.011166,0.027103,0.027174,-0.012084,-0.077707
-0.050701,-0.063721,0.035465,-0.05869,-0.0052044,0.0037131,0.017311,-0.014138
0.1331,0.089718,0.10744,0.0048858,-0.013314,-0.035486,-0.0072749,-0.013658
-0.12151,-0.068443,0.08608,0.062396,0.034003,0.011209,-0.01536,-0.029706
0.050972,0.018952,-0.043277,0.019837,-0.035288,0.0032327,0.0086927,0.047078
-0.062936,0.025666,-0.03002,-0.0061352,-0.010493,-0.012493,-0.013375,0.037288
0.010292,0.085377,0.040166,0.030618,-0.009063,-0.012501,0.019763,-0.097665
-0.02939,-0.0445,-0.14528,-0.042591,1.6731e-05,0.034466,0.0062412,0.041183
0.010419,0.07971,0.038345,-0.031168,0.016579,0.0033901,-0.03082,0.032385
0.15869,-0.060215,-0.026573,0.025351,0.024908,-0.0042133,0.0020323,0.016779
0.1016,-0.061078,-0.028079,-0.037211,-0.014069,-0.027472,-0.0048272,0.025561
-0.33284,0.089832,0.17382,-0.007653,-0.014363,-0.00396,0.026544,-0.035311
0.051884,-0.047175,0.10969,0.06773,0.016316,0.035002,0.0022904,0.013413
0.00039924,-0.066868,-0.24463,-0.0603,-0.031271,-0.012201,0.0083356,-0.039665
0.062977,0.007672,0.024298,0.023087,0.022714,-0.0049714,-0.017735,0.0082202
-0.10026,-0.11095,-0.052711,0.0059878,0.0065306,0.017634,0.0023962,-0.07751
0.10037,0.13462,0.08667,-0.0019288,-0.032843,-0.0068473,0.0065291,0.039041
-0.050869,0.09125,0.059776,0.038324,0.021825,-0.031473,-0.04402,-0.0014478
0.14315,-0.12869,-0.03919,0.0013277,0.022084,-0.0014773,0.015223,0.082334
-0.020389,0.039645,-0.053273,-0.019829,0.014738,0.012894,0.0049426,0.01695
-0.081742,0.042829,0.010569,-0.0024432,-0.031567,0.011676,0.011338,-0.025798
0.034785,0.037164,-0.03428,-0.040898,-0.038813,0.018297,0.0032455,0.0086898
-0.01776,0.021552,0.078571,0.012872,0.031978,0.01709,0.019618,-0.051452
0.077559,-0.076271,-0.017546,0.02604,0.0088864,-0.01543,0.013295,0.012754
-0.080646,-0.055551,-0.041209,-0.024479,-0.014346,-0.016766,-0.00048503,-0.032547
-0.049098,0.04234,0.046427,0.0025976,0.0013634,-0.033716,-0.037742,0.024388
-0.02392,0.02027,0.0026107,-0.0090975,0.032611,0.0042037,-0.020651,-0.018586
0.05005,-0.075924,0.0062332,0.0037524,-0.0065076,-0.0043333,-0.019671,-0.019888
-0.036558,0.050493,0.048623,0.0027216,-0.0144,0.034666,0.043354,-0.033513
-0.00020755,-0.037284,-0.011573,0.035005,-0.02229,0.0041843,-0.011102,0.073553
0.052238,0.076109,-0.12791,0.014598,-0.0067211,0.0058154,0.028116,0.050884
0.076152,-0.060865,-0.042606,-0.019882,0.016696,-0.0074597,-0.018495,0.061484
-0.028433,0.045491,0.064981,0.0011498,0.016712,-0.012509,-0.018042,-0.04461
-0.010803,-0.064664,0.054826,-0.0091045,0.032379,0.029322,0.037235,0.019965
-0.0821,-0.0080775,-0.0098944,-0.028033,-0.045693,-0.0073872,0.0065369,-0.13693
0.053563,0.17586,0.10576,0.021852,0.016866,-0.013593,0.014639,-0.016286
0.058727,-0.14669,-0.12914,-0.023859,-0.014287,-0.0050806,-0.024588,-0.0090335
-0.037096,0.085233,0.027632,-0.032379,-0.014076,-0.013046,-0.0018296,0.025891
-0.11055,0.049617,0.10707,0.082498,0.0097994,-0.021606,-0.049774,0.073875
0.11832,-0.16125,-0.2428,-0.030305,-0.012852,0.024317,-0.019671,-0.027819
-0.038778,0.029872,0.063454,0.028248,0.019618,-0.0076687,0.034226,0.042453
-0.11333,-0.033292,0.17381,0.0087706,0.021275,0.031203,0.018606,-0.0032931
0.090239,0.07982,-0.13865,-0.041318,-0.031434,0.0082687,0.019712,-0.00033374
0.064747,-0.043184,0.094611,-0.0044243,0.0175,0.001575,-0.0014533,-0.057852
0.10792,-0.01733,-0.087367,-0.060014,-0.011946,-0.0047822,0.009577,0.050493
-0.0058909,0.050252,0.01088,0.049725,0.012661,0.012234,0.028897,-0.011745
-0.35395,-0.28387,-0.040033,0.07456,0.044108,-0.025909,-0.03004,-0.01864
0.1113,0.39552,0.064981,-0.0093938,-0.035013,-0.017945,-0.042832,-0.033307
0.054322,0.049503,-0.0017737,-0.04648,-0.052862,-0.010856,0.0057013,0.02191
0.15485,-0.018059,0.033535,-0.013899,-0.0092605,0.0032808,-0.0018131,0.021748
-0.10311,-0.16819,-0.00065555,0.017487,0.010216,0.0013167,-0.018399,0.013051
0.06094,-0.082659,-0.049449,0.031709,0.052923,0.022697,0.018788,0.011621
-0.041485,0.0098345,-0.05806,-0.025967,-0.0056409,0.013107,0.0086637,-0.013463
-0.036362,0.021573,0.067254,-0.022448,0.014636,-0.0037523,0.037658,-0.0071004
0.059963,0.13887,0.0060653,-0.027478,-0.0031549,0.0034731,-0.011029,-0.1017
0.020696,-0.0059177,-0.023098,-0.0090568,-0.035465,0.0034672,-0.0043737,-9.1048e-05
-0.19285,-0.10005,0.026322,0.049222,0.0035909,-0.011778,-0.020486,0.1494
0.037482,-0.01765,0.0055134,0.030817,0.0044628,-0.0034526,0.010803,0.026356
0.041219,0.078502,0.023477,0.0064204,-0.0096672,-0.018668,0.011127,-0.0023747
0.062097,-0.060103,-0.037261,-0.023925,-2.3103e-05,0.0049227,-0.027581,-0.070043
0.0077525,-0.072664,-0.0049444,-0.013622,0.025307,0.012595,-0.011772,-0.052073
0.011941,0.14351,-0.027893,0.021192,0.019223,-0.011201,0.019396,-0.003424
0.067189,0.081243,0.13644,0.0095923,-0.010604,0.019631,0.058132,0.044613
-0.076803,-0.11877,-0.15982,-0.04117,-0.025146,-0.01972,-0.059501,0.0062919
-0.07712,-0.019526,-0.048854,-0.0064852,-0.016517,0.011538,-0.059879,-0.071174
0.010349,-0.059481,-0.014512,0.011932,0.0076332,-0.0036865,0.04937,0.04694
0.035802,0.056997,0.17784,-0.0014552,-0.022816,0.0049212,0.018368,0.056161
-0.017732,0.070768,-0.01102,-0.030765,0.0094773,0.013828,0.034623,-0.012293
0.020446,0.01969,0.12924,0.04932,0.049868,-0.00057338,-0.011366,-0.018115
0.016622,-0.050248,-0.1758,-0.0031359,0.01231,-0.022859,-0.018264,0.0068915
-0.029737,-0.11603,-0.060076,-0.023993,-0.001884,0.0092833,0.021472,-0.0004271
0.0922,0.12718,0.037835,0.04129,-0.0086719,-0.01365,-0.048641,-0.0015851
0.023428,-0.030901,-0.015642,0.020479,-0.023994,0.0098546,-0.0021674,0.018732
-0.14927,-0.096962,-0.041153,-0.024419,-0.024606,-0.0061116,0.012471,-0.033125
-0.034032,0.12566,0.15676,-0.015778,-0.002693,-0.0067727,0.0032338,0.023105
-0.0043431,-0.072588,-0.10884,-0.0086529,0.0029024,0.00017138,-0.021839,-0.077211
0.08194,0.067268,0.037929,-0.003172,0.039449,0.038261,0.0077983,-0.012518
-0.031728,0.0304,0.035611,-0.0069801,-0.02539,0.013817,0.045444,-0.1097
0.11635,0.0046354,-0.067835,-0.027451,-0.003678,-0.057499,0.0052313,0.28061
0.010638,-0.080477,0.017649,0.006348,0.018937,0.027451,0.027755,-0.0052279
-0.083845,-0.022348,0.019421,0.040394,0.0034556,-0.020378,-0.051132,-0.014348
0.027019,0.053205,-0.030747,0.012761,-0.011252,0.0099898,-0.028378,-0.013234
-0.080199,-0.05011,-0.0076731,0.033201,0.036907,0.017065,-0.005549,-0.12817
0.0069107,-0.005192,0.010342,-0.023146,-0.016671,-0.030305,-0.005996,0.037826
-0.049075,0.0073076,-0.024098,-0.015723,-0.024093,-0.0070166,0.0094955,-0.032181
0.16481,0.12722,0.11478,-0.022855,-0.0014068,0.032322,0.025454,0.051443
-0.00039919,0.041517,-0.027095,0.00991,0.0043197,0.0096115,0.018517,-0.047775
-0.028976,-0.07804,0.041552,-0.011375,0.0009956,-0.012694,-0.011375,0.068541
-0.060744,-0.20766,-0.1722,-0.039955,-0.02662,-0.019092,0.01369,0.080437
-0.047413,0.13785,0.02657,0.041298,0.023645,0.01367,-0.00037005,-0.12859
0.051946,-0.0012038,0.083152,0.044836,0.01189,-0.00056455,-0.022678,-0.010765
0.020632,0.017176,-0.088068,-0.029439,-0.0064906,-0.0073256,-0.022294,0.05208
-0.12386,-0.14168,0.0056142,0.0057747,0.0081239,0.032274,0.016248,-0.017226
0.010447,0.14809,0.04441,-0.0060864,-0.022089,-0.014676,0.038318,0.039937
0.2131,0.097615,0.044297,-0.0029285,0.012229,-0.0075493,-0.033926,-0.17431
-0.047654,-0.051404,-0.018097,-0.00081582,-0.006447,-0.0478,-0.012516,0.21529
-0.023283,0.043656,0.036694,0.0076708,0.022831,0.028833,-0.029706,-0.02571
0.049655,-0.087438,0.067635,0.0066434,0.02115,0.035095,0.024401,0.00077593
-0.057885,-0.047756,-0.11318,-0.0039599,-0.0045007,0.0024862,0.032968,-0.0183
0.034604,0.013075,-0.099711,-0.031771,-0.031395,-0.029732,-0.027377,-0.091382
-0.19019,0.024118,0.045678,0.0017579,-0.020946,-0.0067567,0.030594,-0.008148
0.040355,-0.045848,0.02662,0.019123,-0.028002,0.016741,0.026613,0.058995
-0.023598,0.030348,0.023585,0.013243,0.025721,0.0094357,-0.024473,-0.038822
0.14234,-0.043197,-0.079763,-0.015147,0.015639,0.010246,0.01716,0.088681
0.047444,0.0079962,0.068814,-0.0029335,0.028257,-0.020063,0.010259,0.019361
-0.10356,0.11444,0.055539,-0.012224,0.0016682,-0.019149,-0.084523,0.049908
-0.043644,-0.059404,-0.033884,0.0039561,-0.008925,0.012877,-0.040475,-0.22599
0.13446,0.056688,0.0029389,0.029765,-0.010971,0.013473,0.033586,0.074594
0.025017,0.032545,0.055552,0.0022048,-0.012093,-0.025151,0.029126,0.053547
-0.035991,-0.062176,0.013416,0.022151,0.011163,-0.0013578,0.033003,-0.022967
-0.041017,0.053239,-0.061921,-0.020509,-0.011637,0.0068253,0.030373,0.095772
-0.21704,-0.20732,-0.15532,-0.048286,0.013035,0.04637,-0.056426,-0.11285
0.13867,0.047114,0.053653,0.032176,-0.0088457,0.015797,0.014847,0.00042778
0.12736,-0.010816,0.057863,0.002058,0.00055944,-0.061395,0.025092,-0.00899
0.022345,0.12772,0.014632,-0.01337,0.017556,-0.013283,-0.0029063,0.015621
-0.027905,-0.075412,-0.0045631,-0.013572,0.018514,-0.0038986,-0.030882,0.043137
-0.054446,-0.041604,0.016862,-0.036956,-0.035729,0.0058169,-0.0049035,-0.0048641
-0.064764,0.13521,0.040361,0.049888,-0.012361,0.0158,-0.011466,-0.050988
-0.011586,0.047864,-0.059111,-0.0026816,-0.020657,0.010271,0.01168,0.059917
0.042955,-0.031716,0.092872,0.047509,0.04111,0.035854,0.0021298,0.029655
-0.072802,0.050966,-0.035893,0.01254,0.0090673,-0.024971,-0.01628,-0.04155
0.17235,-0.18221,-0.071489,-0.0067879,0.0083869,-0.00068093,0.019562,-0.076708
0.02024,0.017849,-0.030506,-0.027036,-0.023315,-0.016571,0.040038,0.11096
-0.029693,-0.02072,0.016113,-0.025662,0.0077562,-0.010305,-0.047954,-0.033382
0.014101,-0.007812,0.05257,0.0045106,-0.0077962,-0.0052982,-0.0095576,-0.040542
-0.05978,-0.0040318,-0.022392,-0.030486,0.00026506,-0.016961,0.022651,0.0045454
-0.087367,0.11018,0.010685,-0.005383,-0.0072272,0.033211,0.0095669,-0.052992
0.002016,-0.029981,0.090279,0.041467,0.0086766,0.028504,0.013376,0.046166
0.037247,-0.032019,-0.17317,0.0017141,0.0088114,-0.0071554,-0.028952,0.029939
-0.082337,0.0035113,0.026027,0.009324,0.00091209,-0.034275,-0.00088405,0.0086603
0.12834,0.13121,0.063595,0.010694,-0.015064,0.0021479,-0.012478,0.037417
-0.010285,-0.0094668,0.11177,-0.0089556,-0.0078663,0.0085342,0.013795,0.014452
0.040181,-0.13937,-0.15765,-0.025707,0.0069257,0.0083414,0.030632,0.0015761
-0.049956,-0.018955,0.012575,0.0073687,0.029404,0.017082,-0.016842,-0.095958
0.076412,0.020811,-0.011312,-0.0038494,0.0050131,-0.012328,-0.034793,-0.037032
-0.052029,0.047656,0.00383,-0.013227,-0.034832,-0.0098362,0.016189,0.021167
0.08587,-0.07323,0.033223,0.017301,-0.011827,-0.014771,0.0038589,0.023288
0.019958,0.11796,0.083446,0.055387,-0.0039306,-0.0039333,0.030487,0.062755
-0.13258,0.043032,0.14579,0.04533,0.035848,0.045921,-0.028191,-0.0088712
-0.057571,-0.04697,-0.2879,-0.076112,-0.033095,-0.060676,-0.023091,-0.058499
-0.072088,-0.087409,-0.10792,-0.082698,0.015701,0.0277,0.00716,0.10186
-0.093646,-0.067453,0.069589,0.0023001,0.033558,0.021852,-0.0076224,-0.10529
0.15587,0.055512,0.050864,0.015434,-0.018937,-0.015871,0.01827,-0.030825
0.00084899,-0.0039767,0.087707,0.051364,0.0062534,0.0081308,0.013948,0.06028
0.19386,0.03841,-0.044767,-0.021733,-0.00061761,-2.3356e-05,0.056701,0.027946
0.13387,0.07532,0.10781,0.039159,-0.016361,0.01429,0.028407,-0.025916
-0.14951,-0.048936,-0.047739,0.007955,-0.017599,-0.019196,-0.11082,0.031607
-0.058162,-0.069832,-0.089658,-0.021559,-0.0041703,-0.0065466,-0.0021245,-0.065271
-0.026332,0.15058,0.059388,0.020535,0.016469,-0.017747,-0.012746,0.042421
