0.014142,-0.071799,0.046056,-0.016155,-0.042777,-0.017669,0.0061648,-0.035705
0.0079845,-0.087017,-0.776,0.02943,-0.021974,0.013575,-0.086715,0.016798
-0.022936,0.28007,0.60908,0.0035603,0.030721,0.021841,0.10326,-0.00068039
0.014865,-0.095712,-0.18554,0.17287,0.0060816,0.053764,0.052809,0.029416
-0.011461,-0.073804,0.079033,-0.078815,0.044708,-0.039424,0.0041323,0.013604
-0.023577,-0.13847,-0.10886,-0.24272,-0.095759,-0.078376,-0.05072,-0.024567
-0.01322,-0.00040561,0.018762,0.010077,0.037548,0.014767,-0.19012,-0.038298
0.11399,0.22355,0.83681,0.29726,0.06155,0.091453,0.14027,0.058089
-0.039658,-0.0053329,-0.58704,0.064309,-0.0083293,-0.020114,0.151,-0.017061
-0.090606,-0.12428,0.15664,-0.34531,-0.10185,-0.069658,-0.095805,-0.029857
0.04773,0.24971,-0.078256,0.075523,0.01543,0.013571,0.024533,0.058276
-0.022629,-0.086355,-0.22632,0.10703,0.031207,-0.0042743,0.027515,-0.042117
0.034446,-0.34325,0.37355,-0.0098691,0.0082238,0.080446,-0.086717,0.035934
7.4904e-05,0.14329,-0.72415,-0.0030155,0.017003,-0.052182,-0.02865,-0.012235
0.030058,-0.040584,0.045807,-0.13915,-0.059558,-0.01916,-0.03196,-0.037901
0.045548,0.37086,0.31345,0.38568,0.083142,0.015357,-0.017728,0.014141
-0.10278,-0.55996,-0.055785,-0.022423,0.038589,-0.011522,0.10843,-0.042942
0.0060278,0.68998,0.21711,-0.6286,-0.11548,0.0089099,-0.082923,0.041534
-0.035115,-0.37214,0.081097,0.2557,0.058039,0.060171,0.27503,0.018113
0.085643,-0.41115,-0.064625,0.030325,-0.042769,-0.04616,-0.20151,-0.026994
-0.077423,1.0332,0.26975,0.024767,0.035047,-0.021834,-0.0062765,0.062375
0.030204,-0.65655,-0.5849,0.20873,-0.052247,0.015425,0.05424,-0.018919
0.057028,-0.15993,0.37248,0.082462,0.031492,-0.012604,-0.09985,-0.021615
-0.066985,0.070673,-0.31829,-0.44044,-0.041529,0.050777,0.030068,0.045593
0.13522,-0.065245,0.31335,0.62336,0.10407,0.011263,0.091668,-0.052513
-0.10911,0.097445,-0.033278,-0.55543,-0.04699,-0.0046489,-0.08695,-0.027507
0.0056147,0.30938,-0.156,0.21765,0.044615,-0.1358,-0.13792,0.0031104
-0.12113,-0.28896,-0.15435,-0.12006,-0.089713,-0.044497,0.14308,-0.023103
0.12111,0.35605,-0.40657,-0.052225,0.018832,0.028459,-0.17215,0.081742
-0.024473,-0.29655,1.0309,0.11794,0.10461,0.14617,0.25379,-0.009858
-0.041551,0.00087623,-0.77285,-0.15457,-0.19182,-0.058968,0.21123,-0.039361
0.11703,0.16782,0.83614,0.16318,0.14507,0.20836,-0.056676,0.0095684
-0.0099198,-0.52419,-0.90387,-0.34978,-0.017639,-0.10902,-0.4945,0.012524
-0.048156,0.32218,0.7041,0.46244,-0.14889,-0.021903,0.13277,0.03243
0.048055,-0.12906,0.018944,0.21525,0.17296,-0.03321,0.13826,0.030462
-0.074162,0.15432,-0.11764,-0.20375,-0.0055162,-0.098292,0.0070221,-0.12611
0.099588,0.84622,-0.099169,0.1314,0.088814,0.047414,0.067842,0.070463
-0.11912,-0.94889,-0.93636,-0.59537,-0.16931,-0.095753,0.00090571,-0.051829
-0.027591,-0.16481,0.68874,-0.011705,-0.037838,0.13795,-0.13892,-0.0088449
0.061749,0.15574,0.61054,0.52978,-0.0010592,-0.061301,-0.16445,0.081904
0.079147,-0.06116,-0.21861,-0.055989,0.16008,0.036224,0.34523,0.016873
-0.037039,0.24274,-0.70525,-0.21948,0.016378,-0.0039374,-0.27559,-0.048202
-0.10619,0.03843,0.46303,0.019968,-0.11904,0.086204,0.3926,-0.027949
0.013088,-0.18944,0.3329,-0.012516,-0.026801,-0.1452,-0.28583,0.030194
-0.061682,-0.2163,-0.58052,-0.27313,-0.1205,0.075313,0.17049,0.016383
0.32554,0.80521,0.44068,0.89037,0.27975,0.12153,-0.20987,0.031878
-0.25571,-0.13079,-0.22958,-0.94169,-0.17783,-0.11025,0.063395,-0.071823
0.18548,-0.4059,-0.022087,0.55893,0.17019,0.10391,0.20055,-0.013276
-0.11012,0.043982,-0.25799,-0.28939,-0.099081,-0.23073,-0.39131,-0.0029824
-0.1125,-0.40303,0.47653,0.20495,-0.064958,0.032191,0.20431,0.014355
0.26356,0.64912,0.54933,0.6544,0.34177,0.25091,0.10062,0.094099
-0.17712,-0.19773,-0.6784,-0.79751,-0.28584,-0.33246,-0.080363,-0.099057
-0.19128,-0.46424,-0.13342,-0.49081,-0.17442,0.079852,0.025964,-0.0099359
0.17608,0.41677,-0.30414,0.2047,0.20015,0.11456,-0.19268,0.064879
-0.064819,-0.13499,-0.29602,0.43675,-0.24676,-0.02313,-0.15431,-0.007334
0.080652,0.4799,0.55025,0.29241,0.19754,-0.04988,0.30726,0.038982
0.09888,-0.17129,0.46237,-0.27253,0.20666,0.028197,0.08267,-0.069756
0.014456,0.086597,0.26691,0.1284,-0.053948,0.13405,0.45879,0.010065
-0.21164,-0.76067,-0.52486,-1.0476,-0.3257,-0.15384,-0.42002,-0.018491
0.052316,0.44266,-0.02881,0.61716,0.2039,0.17203,-0.10594,-0.022573
0.085506,-0.079147,-0.20536,0.92253,0.19818,-0.27196,-0.49525,-0.025521
0.064945,0.19361,0.94691,-0.84883,-0.14881,0.22408,0.38338,0.12118
0.081559,0.0062454,-0.96652,0.037248,-0.11986,-0.17687,0.12731,-0.035623
-0.21869,0.51791,-0.14896,0.23523,0.064739,0.11016,0.19466,0.042899
-0.17346,-0.54911,0.48163,-0.45326,-0.2135,-0.11094,-0.23621,-0.12809
0.1541,-0.017945,-0.62979,0.24928,0.16952,-0.067349,-0.055804,0.036694
0.24878,-0.39713,0.057668,0.79215,0.33831,0.34194,0.073221,0.13798
-0.34901,0.12745,0.26488,-0.96061,-0.2697,-0.23518,-0.057604,-0.17663
0.13608,0.12973,0.61722,0.15309,-0.12297,0.13042,0.14091,0.092054
-0.082944,0.23181,-0.3023,-0.031245,0.013411,0.039799,0.23494,-0.048729
0.12854,0.11074,0.37424,-0.2235,0.11677,-0.21835,-0.66241,0.064784
0.13894,-0.28367,-0.30171,0.10199,0.023861,0.0043286,0.085015,-0.043907
-0.17622,-0.018688,-0.13339,0.23706,-0.14733,0.067456,0.20632,0.00064573
0.23759,0.42247,-0.18358,0.77033,0.29137,0.14353,0.18725,0.089861
-0.39368,-0.28125,-0.12476,-0.74923,-0.22209,-0.3134,-0.04248,-0.26739
0.11671,-0.351,-0.40213,-0.46886,-0.13277,0.27585,0.031456,0.17226
-0.052239,0.084711,0.18889,-0.067929,0.06713,-0.064152,0.16456,0.011538
0.31788,0.57654,0.6045,0.86722,0.28366,0.019137,-0.37254,0.13423
-0.35882,-0.34036,0.27914,-0.070465,-0.24135,-0.082863,-0.10607,-0.17774
0.089948,0.30737,0.38361,0.11036,0.24948,0.13819,-0.038306,0.07602
0.07116,-0.6151,-0.72916,-0.73138,-0.42387,-0.10649,-0.014553,-0.04195
0.1716,0.16503,0.031176,0.38894,0.40247,-0.074752,0.30039,0.0072217
-0.20947,-0.17186,-0.19474,-0.37139,-0.27142,0.045616,0.14869,-0.01903
-0.094844,-0.053732,-0.67721,-0.19831,-0.070232,-0.0037751,0.038859,-0.027472
0.14077,1.0686,0.57322,0.87856,0.30339,0.15905,0.065991,0.028148
-0.26842,-0.77924,-0.27443,-0.56163,-0.29852,-0.18571,-0.3225,-0.06382
0.35658,0.3814,0.11024,0.30137,0.31186,0.015518,-0.42851,0.1646
-0.063591,-0.72928,0.43534,0.02874,-0.27164,0.26171,0.10275,0.032961
0.30541,0.71772,0.7147,0.71964,0.32572,0.075627,0.64165,0.032785
-0.41318,-0.78506,-0.83408,-1.0039,-0.16998,-0.4804,-0.79385,-0.2348
-0.12718,0.043396,0.47712,-0.4649,-0.15001,-0.054338,0.53931,-0.090215
0.076353,0.66324,-0.22964,0.26405,-0.021218,0.18295,0.12434,0.1386
0.29849,0.55761,-0.12949,0.6036,0.40339,0.14687,0.2237,0.11613
-0.3903,-0.81407,0.0039359,-0.79045,-0.47023,-0.23942,-0.2064,-0.19622
0.12781,-0.21096,-0.55807,0.73826,0.068756,0.33746,-0.038475,0.14721
0.21317,0.24889,0.35384,0.3698,0.2704,-0.067544,-0.12897,0.044908
-0.13318,-0.27833,-0.34909,-0.37957,-0.10732,-0.11113,-0.66098,-0.018967
-0.027433,-0.026288,0.14907,-0.45413,-0.087586,0.049466,0.41098,0.0020467
0.19533,0.54536,0.37122,0.53065,0.25964,0.084919,0.28296,-0.0096501
-0.042275,-0.1245,-0.22126,-0.42263,-0.041725,-0.334,-0.011327,-0.062061
-0.38019,-0.27695,0.48751,-0.20123,-0.50671,0.20608,0.078513,-0.076863
0.13536,0.19791,0.28925,0.46416,0.21693,0.017517,-0.045147,0.024702
0.14555,0.057668,-0.68546,-0.47798,0.11419,-0.078997,0.12148,0.063924
-0.028942,-0.057859,-0.38129,-0.049341,0.060427,-0.012384,-0.20739,-0.012779
0.033801,-0.048312,0.39366,0.42927,0.21183,0.0073017,-0.052583,-0.056018
-0.010371,0.085051,0.70369,0.65013,-0.30718,0.12143,-0.03726,0.10663
-0.12323,-0.49474,-0.73154,-0.24354,-0.11484,0.064806,-0.34797,0.037655
0.24094,0.47737,0.51139,-0.00033845,0.16253,0.079653,0.58561,0.072413
-0.11447,0.0013528,-0.43129,-0.46225,0.13298,-0.34993,-0.081308,-0.18853
-0.081193,-0.13321,-0.94445,-0.47724,-0.1264,0.04124,0.10248,-0.019771
0.16041,0.41064,0.13594,0.19561,0.11048,0.15897,0.079728,0.14798
-0.06153,-0.21722,0.70936,0.19886,-0.06229,-0.067341,-0.15227,-0.092176
-0.24629,-0.56197,0.67516,-0.25964,-0.34667,-0.05967,-0.15049,-0.099715
0.17004,0.33906,0.2752,0.70923,0.2514,0.1899,-0.1351,0.11797
-0.021722,0.041992,-0.50813,-0.33328,0.031087,-0.15434,0.026328,-0.071112
0.070831,0.016368,-0.27982,0.32927,0.15869,0.064172,0.12342,0.044961
-0.027517,-0.050487,-0.75484,-0.21354,-0.23122,-0.021499,0.008774,0.068636
0.035372,0.34798,0.039663,-0.19469,0.10439,-0.13775,-0.027665,-0.04641
0.0013061,0.11584,1.2417,0.22884,-0.092556,0.18418,0.10022,0.035834
-0.052913,-0.56216,-0.4388,-0.42191,0.035883,0.01444,0.00087871,-0.067876
0.1363,0.24099,-0.10297,0.38084,0.2217,-0.030099,0.12542,0.047869
-0.081858,-0.34401,-0.12395,-0.28099,-0.22556,0.0033045,-0.036795,0.0070034
0.032568,0.14265,-0.21779,0.14326,0.29269,-0.081016,-0.066824,-0.019665
-0.0064462,0.51348,0.22018,0.46242,-0.11667,-0.0098428,0.056471,-0.0017244
-0.2934,-0.72273,-0.19776,-0.88124,-0.53326,0.068369,-0.48032,-0.048987
0.1876,0.24819,0.55417,0.75852,0.23014,-0.018059,0.38628,0.041724
0.00020444,0.25631,0.33696,-0.42427,0.13539,0.051558,0.10451,-0.018136
0.036816,-0.10273,-0.69996,-0.023655,0.059298,-0.1442,-0.28976,-0.048003
0.1744,0.1804,0.24891,0.52347,0.12915,0.16854,0.14659,0.10941
-0.13996,-0.25253,-0.6357,-0.81279,0.026957,-0.095867,-0.049463,-0.060539
-0.11593,-0.16647,0.24162,0.4617,-0.34687,-0.0389,-0.0058523,-0.01022
0.03617,0.017084,0.14881,0.075805,0.055969,0.065822,-0.00068413,0.049811
0.12095,0.37638,0.2292,-0.10079,0.14253,0.045992,0.14656,0.041414
0.067431,-0.073071,-0.10041,0.21568,0.12392,0.080701,0.15293,0.0032992
-0.1801,-0.29255,0.24036,-0.14421,-0.17207,-0.19007,-0.048038,-0.12758
-0.0055672,-0.11859,-0.32519,-0.35007,-0.1915,0.030038,-0.26665,0.054468
0.14475,0.44008,-0.28895,0.43598,0.3303,-0.040519,0.029816,0.017755
-0.12815,0.01514,0.54343,-0.57371,-0.076446,0.15299,0.046168,-0.050404
0.089741,-0.20727,-0.15061,0.40267,-0.037715,-0.076583,-0.14448,0.068816
-0.16994,-0.041003,-0.64806,0.16143,-0.093397,-0.12707,0.33742,-0.10087
-0.0001891,-0.057514,0.36669,-0.22892,-0.056627,0.22101,-0.16559,0.034653
0.12324,0.40658,0.79442,0.43176,0.24404,-0.20354,-0.19953,0.045998
0.01352,-0.14872,-0.30809,-0.40719,-0.090078,0.11541,-0.0039036,0.042653
0.1553,-0.035214,0.12435,0.28144,0.12845,0.092139,0.30813,0.02446
-0.2016,-0.55621,-0.35725,-0.39654,-0.17839,-0.14845,-0.055491,-0.13401
0.028143,0.14939,-0.76996,-0.17027,-0.13534,0.14323,0.22271,0.074418
0.0077341,0.38788,0.3014,0.3263,0.15651,-0.18184,-0.24324,-0.077558
0.02533,0.18372,0.43067,0.28105,0.13522,0.070975,-0.34015,0.10467
-0.1151,-0.26777,0.25595,-0.56205,-0.13603,-0.052079,0.051802,-0.074773
0.039199,0.032356,0.18178,0.54203,-0.031577,0.11259,0.14467,0.063506
0.12109,0.18375,-0.16087,0.018659,0.12108,0.0022272,0.34412,0.019514
-0.095516,-0.12837,-0.8921,-0.79253,-0.12291,0.04654,-0.14902,-0.08922
0.062007,0.031465,0.42887,0.76814,0.12737,-0.26981,0.02089,-0.019872
-0.15542,-0.36918,0.31875,-0.2107,-0.22182,0.2412,-0.049191,0.048722
0.034317,0.029032,-0.55973,-0.42278,-0.0067163,-0.099426,-0.10621,-0.01532
0.053779,0.094463,0.60231,0.36648,0.22515,-0.025356,0.064462,-0.00019229
0.10644,0.11046,0.30714,0.08553,0.035371,-0.004732,-0.32124,0.063534
0.098552,0.095235,-0.31891,0.27096,-0.022461,0.10344,0.1965,0.020013
-0.040466,0.40296,-0.047686,0.24768,0.12878,0.17424,0.36844,0.0178
-0.34228,-0.62817,0.31143,-0.76883,-0.43348,-0.27695,-0.02181,-0.15418
0.16145,0.19891,-0.75149,-0.14837,0.11876,0.13221,-0.34559,0.12096
-0.10775,-0.16938,-0.79811,-0.244,0.028131,-0.34106,-0.22363,-0.21191
0.045157,-0.037223,1.0345,0.9675,0.076862,0.2401,0.03581,0.12797
0.198,0.18112,0.29842,-0.59897,-0.030663,0.086049,0.3111,0.085389
0.10039,0.12535,-0.14912,0.39396,0.07397,0.11036,0.37757,0.066035
-0.17787,-0.32349,0.43887,-0.13808,-0.084889,-0.21071,-0.45226,-0.086852
-0.027909,0.28522,-0.30947,0.11094,0.071287,0.15405,0.38217,0.0091637
-0.036057,-0.23137,-0.54914,-0.24866,-0.05141,-0.13882,-0.70079,-0.028877
0.055415,0.24823,0.78973,0.28372,0.14795,-0.096506,0.2006,-0.083625
-0.096929,-0.099661,-0.70844,-0.29157,-0.15183,0.016288,0.33946,0.017252
0.054502,-0.01996,-0.12384,-0.29452,-0.061022,0.12246,0.14919,-0.038087
0.20603,0.353,0.38528,0.92364,0.27128,0.074466,-0.51358,0.18854
-0.32091,-0.55094,0.12201,-1.0117,-0.40519,-0.095895,0.23301,-0.0914
0.16216,0.3171,0.34318,0.93106,0.24568,0.0098375,-0.078636,0.05196
-0.11757,-0.4923,-0.49057,-0.84949,-0.19752,-0.10887,-0.24229,-0.053462
0.14466,0.31484,-0.26942,0.48249,0.19544,0.26573,0.41076,-0.0019935
-0.043876,-0.13127,0.21862,0.16085,-0.012544,-0.17234,-0.082796,-0.013204
0.10475,-0.060476,-0.0016018,-0.33093,-0.032416,0.16941,-0.1707,0.076091
-0.090673,0.50668,0.25104,-0.14255,0.096304,-0.21,0.034271,-0.016085
0.024521,0.10995,0.2744,0.22452,-0.0022263,-0.045395,0.15207,-0.08701
0.089641,0.028976,-0.64232,0.54224,0.12412,0.014974,-0.0041631,0.05085
-0.27103,-0.64598,-0.36739,-0.66719,-0.41615,0.026542,-0.084461,-0.10202
0.1457,0.11951,0.80761,0.0016789,0.15776,0.084187,0.056101,0.095843
-0.073354,-0.09347,-0.84005,-0.092018,0.041314,0.048513,0.31111,0.028287
-0.06737,0.18737,0.9267,0.15363,-0.053836,-0.087238,-0.45759,-0.045881
0.10287,0.11515,0.28201,0.067549,0.045354,0.021356,0.33092,-0.00090296
0.14986,0.00072661,-0.32588,0.12741,0.051167,0.05417,-0.35077,0.054207
-0.03473,-0.070048,-0.040383,0.45942,0.019536,-0.10628,-0.4192,-0.0056542
-0.091179,-0.072291,-0.22033,-0.85708,-0.095515,0.0080798,0.41367,-0.032584
0.058232,0.23893,-0.087599,0.014938,0.1283,0.036956,0.31218,0.01944
-0.056228,-0.28894,-0.41483,0.060769,-0.12942,0.065312,-0.019483,-0.014639
0.040722,0.027976,-0.19072,0.0075487,0.08389,-0.087408,-0.0094222,-0.010761
-0.058426,-0.048384,0.29183,0.37881,-0.076333,0.078179,-0.015135,0.038176
0.043829,0.13384,0.19082,-0.091511,0.10775,-0.16477,-0.16719,-0.047878
0.0033207,0.16277,0.68295,0.48637,-0.028759,0.13694,0.30278,-0.003265
-0.12508,-0.32045,-0.31134,-0.5291,-0.11924,-0.15693,-0.4768,-0.077595
0.034348,0.042267,0.30164,-0.49792,-0.046764,0.18861,0.12302,0.10478
0.076439,0.17766,-0.18627,0.18148,0.11058,-0.021072,-0.19047,0.068057
0.17428,0.30034,0.24104,0.47857,0.2359,0.066276,0.094272,0.00047911
-0.25697,-0.21934,-0.28204,-0.42576,-0.3032,-0.1425,0.26882,-0.12078
0.064704,-0.28409,-0.51534,0.11037,0.032792,-0.029762,-0.072428,0.017204
-0.047898,0.06392,-0.43885,0.064321,0.017708,0.029822,0.09234,0.031817
0.14719,-0.075174,-0.04114,0.3345,0.12055,0.020771,0.12658,0.0089844
-0.1242,0.010054,0.96082,-0.1192,-0.15078,-0.010071,-0.02964,-0.028072
-0.0038441,0.056152,-0.52135,-0.27526,0.031763,0.093329,-0.0070444,-0.025052
0.22561,0.48833,0.54156,0.4186,0.22264,0.088407,-0.099774,0.1269
-0.24979,-0.55683,-0.77697,-0.5557,-0.2191,-0.31437,-0.52221,-0.12749
-0.079786,-0.23989,0.70102,-0.39554,-0.17664,0.11106,0.083759,0.039312
0.16435,0.52763,0.26486,0.52269,0.12309,0.12991,0.22686,0.025262
0.13062,0.12979,0.63618,0.7609,0.26569,-0.086261,0.19089,0.025349
-0.087109,-0.0040259,-0.30269,-0.43061,-0.038194,-0.0063947,0.10424,-0.054264
-0.20685,-0.54731,-1.131,-0.51161,-0.29659,-0.10711,-0.19385,-0.072787
0.11637,-0.010491,-0.40242,0.2778,0.084164,0.11942,0.24447,0.063929
0.0091559,0.56434,0.0519,0.073387,0.15099,0.071725,-0.2825,0.004884
-0.05021,-0.37259,0.33516,-0.24623,-0.22087,0.031156,-0.008852,0.055393
0.15081,0.43438,0.71838,0.12753,0.25801,-0.12712,0.29129,-0.01833
0.035319,-0.29691,0.41995,0.30769,-0.060268,0.034614,-0.48486,0.010739
-0.1772,-0.30024,-1.1232,-0.52332,-0.073533,-0.13958,0.23159,-0.099312
-0.010076,0.12976,-0.01527,0.026386,-0.093638,0.10065,0.056598,0.0031384
0.11436,0.23895,0.080907,0.23745,0.028461,-0.0021723,0.090876,0.10699
-0.0079959,0.11001,0.39664,0.24005,0.19167,0.052158,-0.20498,-0.022501
-0.081608,-0.42423,0.75276,0.16267,-0.15064,0.07616,0.067621,-0.034303
0.04041,0.14024,-0.40002,-0.45328,0.048341,-0.086626,0.0029652,0.016272
-0.0028797,-0.092577,-0.41669,-0.058702,-0.024247,-0.077227,0.070542,-0.027651
-0.0019215,0.1275,-0.10408,0.0057375,0.045012,0.088236,-0.15863,0.028716
0.073526,0.10269,-0.24222,0.50266,-0.0025156,-0.0047764,0.1362,-0.0024535
-0.034827,-0.25795,-0.24705,-0.84991,-0.097389,-0.12223,-0.21688,0.019411
0.095052,0.55423,0.76734,0.55118,0.11898,0.26701,0.35185,0.00081579
-0.16884,0.17985,-0.097899,0.014194,0.021028,-0.29786,0.013141,-0.073305
-0.20015,-0.4977,-0.81698,-0.69833,-0.24312,0.18352,-0.49229,0.024405
0.20591,-0.061715,0.74611,0.48102,0.15469,-0.13204,0.38093,-0.0098285
0.035375,-0.2564,0.49203,0.45477,0.027213,0.16232,0.18641,0.035803
0.086409,0.052717,-0.024744,0.045769,0.10931,-0.11251,-0.24803,0.021337
-0.046576,-0.40286,-0.80764,-0.74537,-0.21561,-0.018637,0.0081224,-0.029478
0.011332,0.71218,0.58976,0.72864,0.10777,0.084719,-0.10553,0.00042036
0.079667,0.24162,-0.64683,-0.40964,0.15821,-0.044776,-0.070168,0.0714
-0.16313,-0.5498,0.12713,0.086825,-0.32157,0.029961,0.21184,-0.16124
-0.046599,0.58491,0.43766,-0.15974,0.090737,0.019261,-0.16192,0.10601
0.076411,-0.28979,-0.072563,-0.3467,-0.02652,-0.022862,-0.11033,0.075041
-0.10754,-0.10433,0.098621,0.478,0.053188,-0.011067,0.047671,-0.098992
0.26047,0.30247,-0.83505,0.22056,0.28267,0.069874,0.52227,0.098795
-0.16333,-0.20622,0.96615,-0.10267,-0.26834,-0.2333,-0.18943,-0.18343
-0.066037,-0.46261,-0.235,-0.24827,0.0010181,0.063919,-0.060838,0.038973
0.068612,0.34257,-0.25268,0.14464,0.0041139,0.11025,-0.058391,0.040175
0.007009,0.012127,-0.50938,-0.25056,-0.017371,0.015429,0.093959,-0.022506
0.10928,0.10042,1.0811,0.34868,0.030103,0.08443,-0.045066,0.094313
-0.11608,0.077151,-0.30068,-0.14262,-0.079912,-0.09662,-0.30511,-0.061383
0.089258,-0.2044,-0.31717,-0.044285,0.15297,0.0036217,-0.028892,0.081578
-0.078971,0.038879,0.71344,0.17489,-0.091041,-0.083532,0.0994,-0.038791
-0.12048,-0.26977,-0.41692,-0.22784,-0.045795,0.001389,0.037593,-0.10203
0.06646,0.16682,0.014092,0.17625,0.10157,0.12573,0.11873,0.047928
0.083419,0.16791,-0.69258,-0.12976,-0.062898,-0.10874,-0.04393,0.020007
-0.007285,0.32489,-0.18136,0.032354,-0.0081235,0.001254,0.13746,-0.022364
0.020516,0.10329,0.48052,-0.034224,0.14048,0.010445,-0.1111,0.029449
0.11156,-0.35174,0.70056,0.29413,0.0777,0.051458,0.37166,0.03406
-0.27387,-0.43325,-0.42866,-0.46811,-0.32976,-0.07926,-0.35612,-0.095162
0.08232,0.10012,0.89391,0.053313,0.042835,0.24266,0.083675,0.11781
0.16397,0.13241,-0.71197,0.52999,0.15642,-0.077262,0.14036,0.016417
-0.27146,-0.098962,-0.47057,-0.27214,-0.16841,-0.25057,-0.5707,-0.18061
0.12743,0.19938,0.49673,-0.06306,0.1079,0.14427,0.39652,0.066057
0.0169,-0.014826,-0.36627,-0.15369,0.032747,-0.09581,-0.63447,-0.016558
0.0533,0.0045857,-0.25322,-0.034183,-0.0027977,0.099993,0.48196,0.056502
0.0024365,0.28363,-0.05799,0.00082233,0.10312,0.037213,0.16546,-0.011087
-0.010451,-0.19254,0.38191,0.54711,-0.1025,-0.087786,0.10843,0.023273
-0.094411,-0.18277,0.02581,-0.61265,-0.11962,0.12451,-0.092303,0.042608
0.063507,-0.0021166,-0.082864,0.12361,0.043911,-0.059355,-0.029973,-0.01555
0.057633,0.18189,0.58054,0.34912,0.14592,-0.044994,0.027688,-0.010646
-0.16604,-0.23611,-0.18954,-0.12511,-0.18078,-0.12905,-0.283,-0.13025
0.00256,0.13098,-0.00035295,-0.18404,-0.022165,0.28986,0.36827,0.078778
0.10305,0.21013,0.21081,0.16221,0.13725,-0.22639,-0.14151,-0.0084205
0.057611,-0.14869,-0.62637,0.10697,0.086221,0.21187,0.29992,-0.00098457
-0.047901,-0.12539,-0.31512,-0.46824,-0.09762,-0.099616,-0.53702,0.054469
0.012604,-0.078269,0.17217,0.045624,-0.024236,-0.068234,0.11267,-0.029372
-0.050749,0.010502,0.17098,0.039751,-0.061383,0.16447,-0.069453,0.0053492
0.12822,0.38603,-0.19131,0.41385,0.18898,-0.20675,-0.20449,0.072559
-0.16245,-0.25322,1.0584,-0.10386,-0.11701,0.036794,0.40789,-0.085859
-0.032973,-0.044994,-0.99649,0.16024,-0.057213,-0.0108,0.093091,-0.056276
0.10986,0.028491,0.18027,-0.57348,-0.021638,0.049594,0.011458,0.059249
-0.062217,-0.047233,-0.24303,0.18077,-0.040701,0.039109,0.016983,-0.028851
0.083851,0.14192,0.72885,0.12729,0.15993,0.044456,-0.22581,0.053966
-0.0060193,-0.022277,0.24643,0.14201,0.018485,-0.058788,-0.0073429,0.026082
0.020614,0.11458,-0.44654,-0.15724,0.019796,0.0031172,0.24002,0.012263
-0.093011,-0.082596,-0.54378,-0.21541,-0.062632,-0.066667,-0.10424,-0.11255
-0.025491,-0.14727,-0.2699,0.3738,-0.033763,0.1145,-0.24656,0.042426
0.028833,-0.057806,0.43206,-0.20246,-0.026949,-0.12557,0.12284,-0.014658
0.00032934,-0.0027734,0.18136,0.16443,0.027437,0.03309,0.02566,0.021393
0.053289,0.064413,-0.14599,-0.26893,-0.058845,0.12922,0.14871,0.010534
-0.0079302,0.19887,0.26168,0.073825,0.057236,-0.10306,-0.24987,-0.015429
0.042329,0.065593,0.29957,0.018556,0.093781,-0.0233,0.096571,0.045505
-0.062934,-0.13106,-0.65502,0.14063,0.0033765,-0.10817,0.017657,-0.072043
-0.067551,-0.23356,0.48451,-0.26614,-0.19873,0.1657,-0.016241,0.014769
0.15966,0.071693,0.29651,0.38109,0.11232,-0.014217,0.18394,0.071386
0.08615,-0.027108,-0.57723,-0.13912,0.077253,0.12549,0.15088,0.0037269
-0.17163,0.0092226,-0.68028,0.31215,-0.0066158,-0.047987,-0.38755,-0.02455
-0.17614,0.352,1.0093,-0.51538,-0.15421,-0.22986,-0.13323,-0.099778
0.065552,-0.11715,-0.99903,-0.026418,0.010399,0.087895,0.17289,0.035535
0.070436,0.084584,0.36939,-0.084804,0.1054,-0.031875,0.0085323,-0.017275
0.027636,-0.3412,0.9254,0.15803,-0.10266,0.10654,0.077709,0.046331
0.071523,-0.028373,-0.22244,0.25451,0.090029,0.019143,-0.10357,0.085627
0.070473,0.22599,0.1202,-0.15717,0.058756,0.01084,0.26126,-0.040102
