0.44106,-0.092759,-0.061091,0.054074,0.004992,0.022361,0.021828,0.10129
0.86761,0.33818,0.020554,-0.27873,0.019061,0.010509,0.069947,0.093278
-0.99249,0.21083,0.062719,0.30051,0.0093393,0.030049,0.0024298,0.12238
0.20074,-0.38844,-0.028161,-0.0047283,-0.016139,-0.019979,-0.015787,-0.15336
-0.25382,0.43701,0.029379,0.0014803,0.028795,0.0093905,-0.0075905,-0.10046
-0.06741,-0.40244,-0.037792,-0.19564,0.01938,0.0091452,0.0037194,0.10078
0.3747,-0.05238,-0.072992,0.45187,-0.083208,-0.036195,-0.013396,-0.012399
-0.095863,0.052263,0.041522,-0.5547,-0.013123,0.00609,0.057591,0.23689
0.76539,0.5475,0.095414,0.15317,0.034494,0.034126,-0.010804,-0.013983
-0.71156,-0.50732,-0.10609,-0.04053,0.028465,0.0083653,-0.039939,-0.19003
-0.8994,-0.23052,-0.03925,0.0055273,-3.8658e-05,-0.040539,-0.069903,-0.19997
0.83819,0.082052,0.069314,0.18974,-0.0043978,-0.019468,0.046847,0.079858
-0.35289,-0.17606,-0.0075058,-0.10604,-0.0084802,0.0084827,0.02056,0.071276
0.82373,0.58529,-0.044181,0.35846,0.04185,0.058443,0.069541,0.080102
0.0024336,-0.01977,0.17661,-0.41149,-0.080558,-0.049626,-0.072025,-0.024489
-0.18823,0.34132,0.22359,0.12817,0.076908,0.043484,0.041239,0.048941
-0.83671,-0.92946,-0.56876,-0.18908,-0.056406,-0.037192,-0.066917,-0.18171
0.5635,0.12313,0.21262,0.36165,0.035039,-0.0023484,0.041554,0.074369
-0.31658,0.046452,-0.10448,-0.4233,-0.046998,9.3521e-06,-0.015413,0.091598
0.091793,0.13608,0.058534,0.019267,0.033887,0.017337,0.0052572,0.065397
0.65225,0.54528,0.093399,0.19891,0.0049142,-0.0043954,0.034196,0.010745
-1.1185,-0.64428,-0.037377,-0.085056,-0.06286,-0.041099,-0.083948,-0.12036
0.91758,0.61711,0.050745,0.131,0.089075,0.056214,0.081259,-0.016667
-0.23839,-0.38625,-0.031257,0.29488,-0.046569,-0.032402,-0.071253,-0.12454
0.52905,-0.095521,0.046016,-0.45087,0.0070327,0.0056788,0.036807,0.11011
-0.44736,-0.39537,-0.099446,-0.11291,-0.023601,0.0062613,0.0068171,-0.062791
0.72057,0.5114,0.11077,-0.042499,0.11901,0.05492,0.096078,0.2868
-0.88853,-0.28692,-0.31575,0.54105,-0.057839,-0.044177,-0.14147,-0.23111
-0.37099,0.32295,0.24531,-0.20737,-0.039152,0.0052766,0.074585,0.048219
-0.020789,-0.14656,0.074131,-0.094389,-0.028609,-0.047224,-0.037801,-0.14034
-0.13462,0.19184,0.13818,-0.20823,-0.018799,0.016726,0.012973,0.093993
0.49428,-0.22072,-0.25139,0.19103,0.044784,0.0016858,-0.031196,0.055627
0.10508,0.024296,0.0058216,0.23433,0.052809,0.017126,0.017226,0.087628
0.41214,0.16196,-0.028517,-0.07949,-0.072627,0.0008222,-0.0055068,-0.06095
0.35308,-0.1444,-0.089137,-0.016188,0.10631,0.039103,0.041728,0.14018
-1.1155,-0.091962,0.14439,-0.36384,-0.14439,-0.094178,-0.11397,-0.31746
0.45857,0.28558,0.070982,0.0046057,0.042808,0.031027,0.098156,-0.0043529
0.18778,0.1107,0.097645,0.29505,0.074395,0.047765,0.05333,0.13471
-0.66929,-0.47019,-0.19665,0.049559,-0.065119,-0.028279,-0.060988,-0.094445
0.86382,0.17447,-0.022005,-0.17454,0.046138,0.04496,0.059597,0.27066
-1.0642,-0.44785,-0.0026858,0.0072885,-0.03728,-0.068744,-0.10882,-0.24487
0.66553,0.67879,-0.005342,0.23607,-0.0031156,0.020827,0.026962,0.047887
-0.38888,-0.30434,0.071858,-0.12203,-0.023566,-0.0070907,-0.017912,-0.068913
0.38729,0.22035,0.010121,-0.16302,0.01038,-0.0044913,0.068716,0.029893
0.055727,-0.16137,0.12159,0.16462,0.035853,0.028284,-0.049218,0.1093
0.10918,-0.012985,-0.13337,-0.087825,0.036903,0.012916,0.058085,0.1524
-0.521,-0.10183,-0.13043,0.29533,-0.049188,-0.027167,-0.04653,-0.13154
0.80055,0.6091,0.16104,-0.19581,0.06659,0.048856,0.051532,0.083924
-0.54,-0.53053,-0.032778,0.024011,-0.084343,-0.063312,-0.084577,-0.23369
-0.15583,0.12666,0.061458,-0.4037,-0.040654,-0.058456,-0.071389,-0.21776
-0.22231,0.11219,-0.18884,0.077935,-0.012698,0.040561,0.10726,0.19439
0.069408,-0.46263,0.12305,0.096914,0.05487,0.023302,0.029793,0.019145
0.63678,0.10092,-0.010079,0.24218,0.053264,0.030701,0.024298,0.14809
0.20059,0.22903,0.084221,0.0081568,-0.0093288,0.039354,0.0044568,0.16014
-0.47333,-0.28491,-0.078054,-0.072967,-0.023475,-0.03693,-0.04602,-0.1631
-0.43359,-0.10168,-0.16093,0.19354,-0.0050845,0.0044918,-0.042021,-0.03278
0.51936,0.82683,0.15556,-0.27229,-0.01723,-0.055733,0.015629,-0.059006
-0.67421,-0.75067,0.050363,0.20669,0.04872,-0.0072449,-0.045628,-0.18813
1.1751,0.83389,0.17876,0.010764,0.059201,0.055766,0.11753,0.25059
-0.72015,-0.19069,-0.17121,-0.56495,-0.13483,-0.046609,-0.0341,0.029569
-0.13108,-0.63531,-0.078442,0.33056,0.0053727,0.021595,-0.062822,-0.10192
0.78204,0.25242,-0.090146,-0.0050581,-0.0045611,0.034057,0.078696,0.24648
-0.45897,-0.21059,-0.034177,-0.022986,-0.00024063,-0.04788,-0.085441,-0.22182
0.076869,0.17821,0.14498,0.20908,0.057944,0.010644,0.054935,-0.12309
-0.66069,-0.031855,0.1048,-0.032676,0.022191,0.014799,0.024079,0.17698
-0.031719,0.14079,-0.083047,-0.089658,-0.020967,-0.019379,-0.052265,-0.16344
0.77726,0.17152,0.027961,0.078775,0.03049,0.041209,0.053054,0.19369
-0.69346,-0.86243,-0.10038,-0.14396,-0.073165,-0.045484,-0.11272,-0.1325
0.64975,0.27144,0.055712,0.015201,0.0040947,0.033036,0.11458,0.023522
0.30412,0.76441,-0.011752,0.054998,0.035636,0.026649,0.031696,0.1703
-0.72876,-0.21075,0.024673,0.05947,-0.041227,-0.088284,-0.10394,-0.17664
0.79128,0.21116,0.070193,0.041976,0.038868,0.031747,0.074306,0.13021
-1.0393,-0.41956,-0.1186,-0.24199,-0.0056306,0.019299,-0.067021,-0.066953
0.34259,-0.13199,-0.011614,0.17426,0.012476,-0.0086935,-0.012972,-0.059081
-0.15718,0.1073,0.093359,-0.11709,-0.032077,-0.013418,0.048318,0.050343
0.53165,0.26265,0.03962,0.17217,0.055821,0.028318,0.022561,-0.013764
0.035475,-0.38711,-0.078986,0.13564,-0.052065,0.0069028,0.018733,-0.010363
0.092452,0.0094161,-0.074307,-0.45264,-0.012006,-0.0075519,-0.018074,0.044377
-0.77493,-0.60851,-0.031192,0.135,-0.01926,-0.022997,-0.11913,-0.16198
0.38096,0.64488,0.051664,0.0015416,0.020016,0.023031,0.098557,0.18362
-0.18458,0.64782,0.06612,0.093673,0.059036,-0.010002,0.0025405,-0.066351
-0.19859,0.11399,0.036489,0.099953,0.019728,0.0031345,-0.00043749,0.065717
0.43298,-0.55641,0.0099488,-0.12752,-0.058833,-0.023148,0.0042361,0.0027157
-0.040381,-0.19854,-0.084173,0.059693,-0.0047832,-0.0024923,-0.021967,-0.067014
0.10525,-0.34366,0.0031653,0.27837,0.017811,0.034272,0.022959,0.09928
0.34072,0.24989,0.059654,-0.40953,-0.030078,-0.037515,-0.032564,-0.22475
-0.63208,-0.036012,-0.017784,-0.0043227,-0.015554,0.016709,-0.032185,-0.00025431
0.1982,0.53956,0.042926,0.017486,0.014617,0.048504,0.094294,0.21745
0.34858,0.068685,-0.1498,-0.12478,0.0058538,-0.036079,-0.036263,-0.04146
-0.75088,-0.63032,0.044269,0.28076,0.044154,0.004804,-0.033716,-0.083076
0.5723,0.4795,-0.023073,0.16492,0.059208,0.022305,0.10136,0.21606
-0.7113,-0.41625,0.10987,-0.31506,-0.10528,-0.054271,-0.10033,-0.12197
1.0037,0.095202,-0.1417,-0.033576,-0.011872,0.0091885,0.032666,-0.027761
-0.38569,0.34943,0.20003,0.16571,0.026903,0.0016492,0.0079665,0.0064175
-0.26154,-0.41849,-0.10591,-0.069263,-0.027991,0.016943,-0.041535,-0.18267
0.1058,0.24631,0.011755,0.065139,0.026645,-0.0072096,0.017318,0.12545
0.13506,-0.20824,0.014607,-0.1122,-0.0044012,-0.015836,-0.03369,-0.098157
-0.37921,0.033398,-0.073636,0.14715,-0.0038686,-0.008673,0.016989,0.10998
0.26379,0.075844,0.036024,-0.072336,0.036065,0.037876,0.037091,0.09581
0.35782,0.22628,-0.016154,-0.0060829,-0.0096717,0.014442,0.026983,-0.061036
-0.41409,0.033056,0.066103,0.0095409,0.015025,-0.0010041,-0.013214,0.10089
0.19192,-0.66775,-0.038278,0.037327,-0.015027,-0.0087366,-0.021129,-0.082956
-0.027202,0.27091,0.013619,-0.22644,-0.068748,-0.032505,0.010736,-0.051377
0.23208,-0.060061,-0.021196,0.094694,0.03343,0.021182,-0.0039514,0.029787
-0.49308,0.43687,-0.026218,0.072656,0.018024,-0.0040408,-0.034305,-0.02882
0.021766,0.21805,-0.0097334,0.036971,0.033495,-0.01435,0.0053759,-0.0022105
0.26683,0.052578,0.15306,-0.04276,-0.029459,-0.0016622,0.013466,0.077324
-0.16577,-0.60951,-0.15492,0.083559,-0.014496,-0.0046132,-0.025552,-0.14218
-0.14455,-0.26141,0.10583,-0.045683,0.015979,0.039801,0.052617,0.034764
0.22773,0.18438,-0.095238,0.036992,-0.01609,-0.0085599,0.0060669,0.030622
0.059167,-0.072874,-0.022843,-0.076216,0.0065297,-0.016509,-0.055573,-0.005441
0.098333,0.2537,0.042727,0.050759,0.021356,-0.0072947,0.0084845,0.013121
0.093684,0.076484,-0.038304,-0.12991,0.012771,0.0034199,0.034203,0.070979
-0.22182,-0.107,0.10963,0.18624,-0.019213,0.030995,-0.0097809,-0.0038314
-0.27881,0.066102,-0.10709,-0.17986,-0.03549,-0.003151,0.048175,0.038276
0.13344,0.22964,0.13152,-0.031557,0.010895,-0.013657,-0.073482,-0.061068
0.031228,-0.17253,-0.12061,0.086053,0.0028664,-0.016752,-0.015687,-0.12265
0.072311,0.11395,0.080803,0.088909,0.01867,0.0026544,0.025986,-0.013822
0.19632,-0.071683,0.054977,-0.037054,0.027152,0.028555,0.051369,0.14845
-0.30523,-0.38247,-0.11304,0.068453,-0.041965,-0.017345,-0.056787,-0.025813
0.32792,0.2872,-0.0018522,-0.14919,-0.0090452,-0.0099921,0.0062446,0.011183
-0.33177,-0.33853,-0.10363,-0.058013,-0.01486,-0.019438,-0.0094248,-0.036441
0.28768,0.216,0.089982,0.19194,0.057546,0.025032,0.0057248,-0.11318
-0.75027,-0.0019861,0.072042,0.0047581,0.028195,0.0066925,0.036205,0.047021
0.50766,0.14928,-0.023625,-0.012532,-0.056335,-0.011526,-0.019448,0.084609
0.63893,0.39785,-0.063338,-0.15894,-0.03223,0.0019447,-0.0049404,0.11598
-0.28753,-0.46573,0.054971,0.13428,0.053493,0.016014,-0.0062057,-0.086733
-0.30486,0.04427,-0.028062,0.02274,-0.010105,0.022862,0.039244,0.099877
-0.48536,-0.070879,0.054249,-0.11821,-0.035371,-0.032344,-0.040457,-0.14598
0.39569,-0.13023,0.058809,-0.021572,0.017035,-0.0013813,0.020382,-0.044074
0.52431,0.34409,-0.077981,-0.044618,0.0068401,-0.0016488,-0.028109,-0.0087334
-0.39744,-0.57641,-0.036838,0.057337,0.028158,0.0057731,-0.021677,-0.031598
-0.42497,0.46861,0.095603,0.13829,-0.035894,-0.026025,0.032071,-0.017673
0.23036,-0.06729,-0.21992,0.028323,-0.0054327,-0.0032134,0.008299,0.089359
0.52143,0.26097,0.12635,-0.029175,0.041478,0.02749,0.0008179,0.08018
0.0030171,-0.031925,0.0024293,-0.018265,0.011012,0.011583,0.025171,0.026343
0.12098,-0.3381,-0.07494,-0.1973,-0.057955,-0.0039106,-0.036063,-0.032474
-1.0766,-0.19841,0.18444,0.0575,-0.0016167,-0.011114,-0.0035552,-0.096355
0.33428,0.33073,-0.038828,0.1194,0.039123,-0.0022624,0.020717,0.0058926
0.43452,0.13849,-0.1114,0.048948,-0.014119,-0.00095229,0.020737,0.14821
-0.28825,-0.21357,0.1309,-0.13241,-0.020926,-0.0074268,-0.074085,-0.19397
0.33312,0.25858,-0.023164,0.026691,0.034195,0.032723,0.087722,0.13462
-0.46469,-0.41349,-0.11317,0.056176,-0.012867,-0.0057557,-0.079638,-0.14001
0.68646,0.43512,0.11026,-0.013418,0.0098028,0.017599,0.064833,0.13052
-0.56569,-0.56151,-0.087824,0.13823,-0.0070464,-0.045671,-0.040802,0.0013224
-0.1611,0.24648,-0.028187,-0.33969,-0.00071966,-0.02355,-0.052127,-0.2143
0.25568,0.18068,0.046682,0.077645,-0.033475,0.013943,0.070569,0.15648
0.47663,0.015407,0.035017,0.05613,0.01213,0.0046879,-0.015952,0.0051652
-0.19867,0.079111,-0.00084945,0.066472,0.034756,0.035008,0.047948,0.10577
-0.16528,-0.24564,0.032643,0.0010723,0.003307,0.0036362,-0.026836,-0.064979
-0.28548,0.040464,-0.052231,0.12689,-0.019665,-0.026793,-0.0062816,-0.015213
0.010218,-0.071341,0.0099253,-0.11786,-0.010782,0.013968,-0.00037069,-0.034666
0.48116,0.074196,0.023638,-0.1081,0.014169,0.00066263,0.0057608,0.024213
-0.43161,-0.008192,0.051393,0.015023,-0.01536,-0.0046042,-0.04337,-0.050428
-0.23104,-0.061376,-0.17224,0.0083488,0.0019215,-0.017919,-0.0078482,0.0062724
0.39272,0.33611,0.025005,0.097134,0.042315,0.022783,0.072733,0.014133
-0.14179,-0.23773,0.065583,0.068982,-0.0037535,-0.0078286,-0.020651,0.035508
0.34021,-0.079543,-0.010825,-0.20255,-0.058256,0.0072787,0.016702,0.039377
0.51154,0.029963,0.05415,0.031296,0.019463,-0.01778,-0.025827,0.026331
-0.51934,0.060342,0.010898,0.082134,-0.012622,0.011004,-0.038279,-0.10429
-0.48914,-0.15152,-0.046669,0.23084,0.05669,0.00031107,0.034817,0.023605
0.0054087,0.05156,-0.024852,-0.33486,-0.053538,-0.025893,-0.016608,-0.10445
0.10967,0.19375,0.02145,-0.082934,0.00073921,0.011047,-0.0042435,0.028148
0.16466,0.1114,-0.0017951,0.042595,0.024421,0.010004,0.010013,0.031313
0.011854,-0.39074,-0.016727,0.1995,0.0019611,0.01029,-0.012628,-0.009092
0.15722,0.046444,0.031167,-0.032587,0.0035901,0.019727,0.091768,0.28113
-0.033581,0.32875,0.016848,-0.011872,-0.0099857,-0.024423,-0.044506,-0.16198
-0.21791,-0.20837,-0.02833,-0.10491,-0.0078556,-0.021049,-0.047277,-0.090254
0.10367,-0.049705,-0.018214,0.0085759,0.0095994,0.037084,0.043417,0.056951
0.24392,0.070083,-0.030668,0.17948,0.018598,-0.0068745,0.0078855,-0.018643
-0.27229,-0.24758,0.036078,0.023817,0.018908,0.0028078,-0.037404,-0.044204
0.010959,-0.010577,-0.021046,-0.10048,-0.083291,-0.027957,-0.0068777,-0.019347
0.10561,0.57786,0.055584,-0.28861,-0.006639,0.0022917,-0.002041,0.065094
-0.37375,-0.099634,-0.0079223,0.14573,0.053814,-0.0078696,-0.006815,-0.070078
0.5082,-0.16051,0.04556,0.23296,0.0046696,0.012216,0.034236,0.038396
-0.77458,-0.36282,0.012103,-0.11315,-0.013088,-0.015108,-0.065504,-0.19337
0.43013,0.16054,-0.093431,0.13102,0.016449,0.027842,0.085432,0.24371
0.28783,0.0033845,-0.060661,-0.21357,-0.015943,0.0086854,-0.020128,-0.025212
0.32056,0.26756,0.047679,0.049384,0.030364,0.021477,0.032222,0.22534
-0.60101,-0.030933,-0.0026461,-0.12577,-0.024453,-0.035191,-0.007504,-0.053621
-0.05386,0.053623,0.070089,-0.0034489,-0.0087391,-0.0050533,-0.038018,-0.20066
0.55561,-0.3534,0.032234,0.22203,-0.016492,-0.013189,-0.059783,-0.062068
-0.38211,0.013898,-0.12317,0.020011,0.022391,0.026211,0.075097,0.071284
0.16548,0.26504,0.089123,-0.0078133,0.029659,-0.011981,0.014559,-0.0043555
-0.43073,-0.20942,0.021447,0.10703,-0.018133,-0.0028762,-0.030833,-0.077332
0.28128,0.20733,-0.12248,-0.30003,-0.019313,0.0065718,0.040295,0.073007
-0.46219,-0.21194,0.040513,-0.081072,-0.028358,-0.022761,-0.068917,-0.081927
0.1869,0.18032,-0.012987,0.099476,0.017494,0.034066,0.016735,0.038819
0.49984,0.086294,0.052669,0.093049,0.024745,-0.010527,0.016327,0.14856
-0.3535,-0.15876,0.010315,0.11848,0.0092001,-0.00039624,-0.030704,-0.055962
0.62409,0.22624,0.030999,-0.15217,-0.013454,0.017452,0.047839,0.066103
-0.25142,-0.19559,-0.026811,0.093826,0.01921,-0.011809,0.0021468,-0.033096
-0.56415,-0.42287,0.023588,-0.10432,-0.0023716,-0.0023627,-0.003703,-0.0038992
0.22518,0.24173,-0.037051,0.019074,-0.023765,-0.024599,-0.016753,-0.10649
-0.25937,0.1207,-0.036921,0.010763,0.0016433,0.0074002,0.0017531,-0.022904
0.44146,0.028305,-0.061579,-0.043596,-0.020111,0.0077318,-0.003249,0.057524
0.20067,0.20762,-0.039978,0.011765,0.035838,0.023347,0.046007,0.086871
-0.24146,0.0098612,0.13032,-0.0035186,-0.041494,-0.031601,-0.046055,-0.11466
-0.36292,-0.27745,-0.0030369,0.073801,0.021352,0.014847,-0.037368,-0.038532
0.4606,-0.023961,0.14631,0.28975,0.052561,0.014312,0.033045,0.090071
-0.098844,0.3222,-0.13259,-0.37981,-0.064985,-0.025362,-0.022144,-0.08658
0.31134,-0.24937,-0.027721,-0.091565,0.028148,0.02865,0.055116,0.16746
-0.91666,-0.20149,0.077353,0.084188,0.0038785,-0.011147,-0.016186,-0.10761
0.14061,0.082272,-0.10729,0.0072398,-0.020569,-0.035364,-0.024939,0.010611
0.33571,0.21169,-0.0042532,-0.016978,0.0017277,0.018529,0.021118,0.014085
-0.1206,0.016377,0.01885,0.17648,0.016157,0.0021402,0.020398,0.050394
0.82466,0.20952,0.040099,-0.028722,0.0072078,0.024896,0.019692,-0.014562
-0.20657,-0.59688,-0.049549,-0.045963,-0.024971,-0.014717,-0.059219,-0.033773
-0.2103,0.19347,0.12554,-0.038815,-0.0020808,0.00052431,0.0023712,-0.0084878
-0.55731,0.066921,-0.13697,0.086813,0.0057301,0.00032768,-0.022061,-0.033262
0.26566,-0.12395,0.054409,-0.10631,-0.0014193,-0.0074848,0.00041398,-0.053608
-0.359,0.24563,-0.026167,-0.094495,-0.015685,-0.0072872,0.030898,0.055895
0.6251,0.15069,0.020253,0.075639,0.025344,0.00091433,0.022667,0.093064
-0.29422,-0.091029,0.04543,0.091795,0.051142,0.024915,0.014869,-0.073663
-0.081354,-0.068595,-0.060169,0.047785,-0.055798,-0.013442,-0.015946,0.041403
0.41635,-0.011575,-0.015807,-0.14248,-0.0067882,-0.0048397,-0.023012,-0.060597
-0.51675,-0.33629,0.0058299,0.028382,0.0024991,-0.0040444,-0.029946,-0.10545
0.11282,0.089033,0.04279,0.0050238,0.0030395,-0.0033463,0.017729,0.16496
0.49181,0.092829,-0.038807,0.13035,0.018137,0.020577,0.018254,0.078593
0.086427,0.26259,0.16634,-0.17463,-0.030297,0.0051146,0.041793,0.041183
0.010289,-0.032083,-0.20179,0.073695,0.0063788,-0.0029464,-0.021102,-0.088592
-0.58395,-0.046173,0.17694,0.13264,0.02694,-0.019271,-0.05323,-0.14731
-0.12865,-0.26132,-0.23615,-0.1776,-0.030699,-0.020395,-0.0076071,-0.088513
-0.30458,-0.073713,0.036412,-0.091121,-0.017687,0.032839,0.04563,0.10331
0.27949,0.28365,0.019379,0.025476,0.042883,-3.2214e-05,-0.010491,0.053268
0.75052,0.045451,0.065759,0.07918,-0.02065,-0.0016202,0.011734,0.074046
-0.13892,0.03904,-0.010661,0.0081586,0.018325,-0.010775,0.0030864,0.079783
-0.30815,0.075184,0.11128,0.13313,0.034698,0.019567,0.010522,-0.11717
0.057318,-0.3875,-0.13066,0.11818,-0.026454,-0.019836,-0.02846,-0.056283
0.083619,0.14074,0.020924,-0.37296,-0.040426,0.0038822,-0.0045609,0.027448
-0.40086,0.009371,0.065106,0.0028914,-0.015325,-0.0187,-0.019479,-0.069812
0.27518,0.13111,-0.11655,0.12786,0.032987,0.021647,0.035984,0.10439
-0.13951,-0.14288,0.13089,0.048224,0.018412,0.023124,-0.010242,-0.028604
-0.18581,0.039604,-0.092078,-0.033315,-0.035691,-0.014559,0.029148,0.10127
0.69667,-0.030827,0.026395,0.0080954,0.042537,0.017679,0.01337,-0.11528
0.068293,0.038644,-0.060662,0.055422,-0.012502,-0.036651,-0.049856,0.048764
-0.47889,0.0083222,-0.0090488,-0.18775,-0.021068,-0.0058034,-0.027711,-0.093266
-0.062841,-0.0022317,0.018041,0.1074,0.01691,0.0086761,0.033054,0.014433
0.082559,-0.030222,0.045129,-0.042631,-3.7636e-05,0.0069498,0.031106,0.076227
-0.36111,-0.066827,0.065457,0.09741,0.029767,0.0049232,-0.017625,-0.078602
0.39043,0.14571,-0.013903,-0.0029557,-0.049781,-0.0205,-0.019058,0.042979
0.036139,-0.034389,-0.098766,-0.077564,-0.019773,0.016952,-0.011966,-0.019615
-0.29551,-0.070205,0.068678,-0.048051,0.034011,0.00035049,0.011656,0.069317
0.4059,0.051109,-0.082307,0.19488,-0.013309,0.0079538,0.03623,0.027724
0.21964,0.25629,0.017834,-0.13037,0.018005,-0.014941,-0.024304,-0.036232
-0.40949,-0.26193,0.063454,0.006895,0.010721,0.017448,0.017279,0.0088914
0.04764,0.14321,0.11604,0.020104,0.035017,0.011112,-0.0034736,-0.095951
-0.1936,-0.27093,-0.20029,0.033643,-0.057741,-0.026439,-0.032301,0.04685
-0.098325,-0.12067,0.066973,-0.1405,-0.0099519,0.0060771,0.024167,-0.0082732
0.56336,0.17405,-0.035493,0.10671,0.014151,-0.016544,0.017233,-0.0031484
-0.46281,-0.18898,0.0081669,0.001606,-0.0011464,0.0071671,-0.014124,0.016211
0.51486,0.44105,0.018893,-0.10434,0.0066632,-0.0087037,-0.054172,-0.034994
-0.52962,-0.043542,-0.041483,0.156,0.01424,0.021897,0.037983,-0.046268
0.097965,-0.040537,0.062386,-0.014299,-0.032951,-0.010238,-0.010726,0.022267
0.31226,0.23095,-0.043649,-0.013737,0.0058793,0.020071,0.034461,0.16309
-0.23593,-0.39419,0.031597,-0.11583,-0.0097731,-0.012029,-0.021458,0.00088733
-0.0035103,-0.018726,0.0070376,0.046586,0.037323,-0.0048751,0.0091929,-0.051087
-0.20389,0.020553,0.038675,0.090731,0.0143,0.010328,0.017057,-0.040791
0.15341,0.020388,-0.077196,-0.069149,-0.039918,-0.021106,0.0020139,-0.00049621
0.058844,-0.057635,0.025848,-0.057715,0.030739,0.01017,-0.004884,-0.048036
0.32245,0.084589,0.026746,0.11774,-0.0082697,-0.0052531,-0.035086,-0.003774
-0.45034,0.057834,0.049946,0.15323,-0.00077748,0.026345,-0.0027816,-0.046807
0.062584,-0.043062,-0.1157,-0.26293,-0.04831,-0.012236,0.021701,0.11304
0.095086,0.0010041,-0.048145,-0.083002,0.0055467,-0.019425,-0.016225,-0.046296
-0.15263,-0.021534,0.026573,0.0062236,0.028241,0.0047998,0.024241,0.0077162
0.21282,0.10645,-0.00021014,0.13795,0.0044346,0.0057724,-0.020782,0.0025184
0.02067,0.11697,0.098776,0.022936,0.020303,-0.0086933,-0.026189,-0.0069705
-0.26003,-0.18016,0.034982,0.043164,-0.025601,0.01605,0.039228,0.064681
0.43364,-0.15452,-0.058582,0.048696,-0.0083232,-0.013841,0.034623,0.044433
-0.15452,0.24695,0.036693,-0.10305,0.025052,0.026486,-0.016959,-0.038047
0.080766,-0.1246,-0.031155,-0.015704,0.0038768,-0.011584,0.0089845,-0.020361
-0.5102,-0.096393,-0.075139,0.012104,0.0058794,0.0045865,-0.028677,-0.083579
0.28526,0.18528,0.052696,0.049633,-0.031814,0.0045603,-0.013153,0.0058632
-0.27059,-0.22977,-0.046417,-0.16884,-0.015728,-0.04295,-0.022755,-0.0099425
0.14887,0.060085,0.0023931,0.052955,0.014954,0.018378,0.036339,0.025841
0.089705,0.11231,0.050749,0.021524,0.021224,0.0090321,0.016031,-0.01071
0.17547,0.18649,0.059784,0.051772,-0.012329,-0.0082414,-0.012818,0.037919
0.043695,-0.27167,-0.06399,-0.03346,-0.0072497,0.0058823,-0.01829,0.040059
-0.19383,0.017972,1.2423e-05,0.018028,-0.010034,-0.010877,-0.0075262,-0.019156
0.15825,0.11556,0.025471,-0.0032161,0.018746,0.011923,-0.0034045,0.008953
0.098082,-0.013343,-0.05774,-0.026348,0.024695,0.027417,0.041306,-0.032137
0.06803,0.20611,0.023927,0.11222,0.00018223,-0.0035562,0.032956,0.067859
-0.59128,-0.23661,-0.018591,0.02052,-0.046924,-0.026484,-0.059858,-0.10593
0.15671,-0.15548,0.0098685,-0.13149,0.00050591,0.005314,0.051574,0.10985
-0.29882,-0.0035258,-0.016021,0.060363,0.040758,-0.0098807,-0.039453,-0.11331
0.38548,0.1741,0.043852,-0.038627,-0.0045047,0.013793,-0.013083,0.044972
0.18654,-0.19777,0.016955,-0.070429,-0.033964,-0.025208,-0.018121,-0.016322
0.1362,0.12668,0.082262,0.011174,0.014631,0.0060207,0.015518,-0.06972
-0.46042,-0.099138,-0.12023,-0.035957,-0.038636,-0.0095799,-0.021632,0.034278
0.71702,0.25235,0.0028169,0.1638,0.063855,0.021846,0.050133,0.038823
-0.72243,0.088567,-0.064272,0.048917,0.056343,0.045654,0.027757,0.092986
-0.029313,-0.0049283,-0.0086751,-0.090393,-0.1081,-0.031951,-0.033995,-0.06089
0.4912,-0.15486,0.099963,-0.088967,0.015863,-0.00014736,0.021186,0.11593
-0.62216,-0.32479,-0.018723,0.046338,-0.0012995,-0.015335,-0.048851,-0.11946
0.38051,0.29486,0.034655,0.16001,0.020335,-0.01515,-0.0097059,-0.041398
0.069499,0.013948,-0.028106,-0.1928,-0.0048708,0.0003359,0.013638,-0.08826
-0.19591,0.049263,0.035843,0.011532,0.0015244,0.023318,0.021199,0.075166
0.31052,-0.13928,-0.093411,-0.086495,-0.022709,-0.00080198,0.020796,0.065567
-0.57584,-0.0048516,0.068637,0.11421,0.016356,-0.0015634,-0.026633,-0.086109
0.74578,0.093979,-0.064076,0.16757,0.056268,-0.0022354,0.019527,0.12777
