0.20171,0.070765,-0.026989,-0.013186,0.0034929,-0.0062063,-0.019444,-0.063188
-0.27853,-0.027919,0.20424,0.12029,0.014343,-0.01417,0.0079214,0.056678
0.26671,-0.053562,0.095597,-0.048383,0.010142,0.024301,0.01905,0.059141
0.41674,0.012384,-0.2152,-0.013428,-0.0019352,-0.0078084,0.0057298,0.075578
-0.51431,0.062663,-0.020208,-0.026974,0.024341,0.022506,-0.0088514,-0.13738
0.1018,-0.14257,-0.17335,-0.098591,-0.075599,-0.0095712,0.02211,0.060163
-0.57294,-0.26388,-0.066526,-0.010541,-0.020762,-0.025764,-0.05752,-0.16006
-0.014315,0.02431,0.081496,0.041763,0.032654,0.01309,0.01817,0.04615
0.45297,0.18238,0.021769,-0.042477,-0.024403,-0.017972,-0.0082288,0.04692
0.26388,0.26624,0.19346,0.050611,0.027314,0.013822,0.019987,0.085659
-0.02861,-0.27629,-0.081365,0.025765,0.024267,0.0067885,0.0094905,-0.031692
-0.25466,0.026733,0.08926,0.04071,0.0059361,0.031057,0.015295,-0.038443
0.066886,-0.040237,0.026344,0.041791,0.0037825,-0.0073436,-0.0092896,0.050493
-0.5065,0.0021222,-0.12946,-0.095546,-0.02909,-0.046126,-0.032982,-0.10834
0.68217,0.21833,-0.042649,0.050444,0.024293,0.016117,0.022242,0.11778
0.10828,-0.10135,0.012731,-0.020783,-0.0004384,0.015268,-6.7951e-05,-0.045011
0.03474,0.19211,0.044062,-0.013079,-0.0098139,-0.032981,-0.0064109,0.066784
-0.69049,-0.30729,-0.011193,-0.01304,-0.0039696,0.019985,-0.012669,-0.11775
0.061648,0.056941,-0.043192,-0.0054393,-0.014075,0.01037,0.019991,0.02587
0.52225,-0.097528,0.011471,-0.029384,-0.032009,0.00097319,0.021084,-0.0026741
-0.54539,-0.043416,-0.010106,0.0091652,0.013016,-0.023548,-0.056368,-0.086339
0.81069,-0.11591,-0.067716,-0.0064788,0.012155,0.038583,0.053232,0.23582
-1.0111,0.38073,0.25354,0.096093,0.020536,-0.054713,-0.048513,-0.16109
0.58388,-0.092873,-0.17102,-0.081177,0.022757,0.032487,0.029127,0.074601
0.01138,0.016729,0.0098199,0.03993,-0.0046866,0.018795,0.0050468,-0.072641
-0.13286,0.24643,0.11543,0.052916,0.015967,0.0055366,0.012233,0.10818
0.18454,-0.086225,-0.082166,-0.042763,-0.040871,-0.038827,-0.042881,-0.13292
-0.07349,-0.29654,-0.053295,-0.036886,-0.01183,0.0025996,0.035195,0.047842
-0.23336,-0.089904,0.0052356,-0.0083036,0.016504,0.020199,-0.0033862,0.041091
0.065616,0.12615,0.021972,0.018974,-0.0032314,-0.017434,-0.033513,-0.12973
0.25388,-0.08596,0.03536,0.013397,0.0068533,0.022466,0.030793,0.16036
-0.29345,0.32161,0.0062961,-0.017199,-0.0078952,-0.031927,-0.029266,-0.080905
0.4855,-0.18075,-0.056936,0.021246,-0.0081484,0.030448,0.051768,0.13073
-0.79354,-0.22404,-0.09884,-0.06608,-0.032561,-0.04026,-0.070137,-0.22054
0.45309,0.20879,0.02212,-0.036454,0.013044,0.013892,0.049943,0.1307
0.11306,0.12622,0.12701,0.11054,0.050869,0.021096,0.020934,-0.042296
-0.34835,-0.12048,0.036544,0.0078764,-0.0048842,0.0047681,-0.016975,-0.0053076
0.44033,0.28009,0.10226,0.04604,0.03321,0.011686,0.014001,0.077551
0.10105,-0.32201,-0.2309,-0.11131,-0.046027,-0.02079,-0.042536,-0.043647
-0.38374,0.20466,0.14593,0.11343,0.030539,0.00097643,0.0088301,0.021962
0.36856,-0.27329,-0.11918,-0.077052,-0.026379,0.014459,0.004415,-0.01426
-0.64791,0.096339,-0.033978,-0.034488,0.0019413,0.0041466,-0.016107,-0.042339
0.0084516,0.16719,0.15215,0.085124,-0.056144,-0.076567,-0.020739,-0.03813
0.66377,-0.080904,0.088799,-0.022217,0.0264,0.014886,0.038141,0.10845
-0.57377,-0.42533,-0.44909,-0.18362,-0.038889,0.013297,0.0048778,-0.14112
-0.13537,-0.12033,-0.092863,-0.054247,-0.017079,0.020562,0.0047863,-0.020976
0.7337,0.70354,0.51007,0.26523,0.15466,0.060275,0.022207,0.32805
-0.355,-0.32083,-0.08544,0.017359,-0.031497,-0.016095,-0.01356,-0.18844
0.043002,0.37432,0.11193,0.02215,-0.036923,-0.060447,-0.040683,0.0066254
0.033244,0.073076,0.0065942,0.0051958,0.028274,0.0048227,0.049392,-0.025461
0.25017,-0.153,-0.099121,-0.089605,-0.0086476,0.038495,-0.017594,-0.051492
-0.16519,0.017456,0.050269,0.056559,0.023427,0.008784,-0.023555,0.068287
-0.50145,-0.38194,-0.24219,-0.15908,-0.094686,-0.045603,0.007681,-0.057145
0.47755,0.021077,-0.070758,0.012884,-0.011386,-0.0075702,-0.025488,0.025478
-0.06788,-0.10092,0.034076,0.033523,0.016041,0.05277,0.10382,0.082431
-0.51383,0.076593,0.066319,-0.041663,-0.042756,-0.10631,-0.11161,-0.1509
0.45373,0.24806,0.18458,0.14014,0.11796,0.093933,0.039984,0.068844
-0.075681,0.046917,0.070834,0.025634,-0.00085484,-0.0098986,-0.018674,-0.022871
-0.026927,-0.33885,-0.42176,-0.21996,-0.062678,-0.03444,-0.052459,-0.058066
0.60514,0.027165,0.23079,0.14628,0.018535,0.028449,0.10319,0.20579
-0.3388,0.46919,0.32478,0.15575,0.078307,0.030371,0.018742,-0.012679
-0.29251,-0.082542,-0.13349,-0.12158,-0.032631,-0.013308,-0.024772,-0.065591
-0.20661,-0.09961,0.041466,0.008848,0.012798,-0.0015188,0.0033657,0.0072412
0.02939,-0.02505,-0.55853,-0.17258,-0.091114,-0.0051918,-0.030389,-0.13086
0.65747,0.048046,0.27606,0.13019,0.022059,-0.040565,-0.025248,0.043032
-0.21437,-0.36436,-0.095951,-0.083385,-0.015223,0.032497,0.010308,-0.0025186
0.075764,0.30148,0.1382,0.045795,-0.023178,-0.020662,0.013323,0.045151
-0.3028,-0.021651,0.17473,0.095862,0.061164,0.010851,-0.00076931,0.01457
-0.055592,-0.093896,-0.047667,-0.034568,-0.01151,-0.021234,-0.0006494,0.039043
0.37024,-0.1105,-0.066876,-0.048371,-0.0061151,-0.0072165,-0.017293,-0.037264
-0.6826,0.094701,-0.061689,0.015602,0.054476,0.07674,0.03564,-0.089136
0.55904,0.0017824,-0.047245,-0.045654,-0.024739,-0.0033299,0.0023487,0.086485
-0.37334,0.17735,0.1015,0.10379,0.053143,0.026375,0.016068,-0.0029386
0.58325,0.14883,0.0091902,-0.067441,-0.09489,-0.10728,-0.032232,0.063891
-0.32865,-0.1117,-0.027934,0.01857,0.015215,0.0021554,-0.0095051,-0.05747
0.21138,-0.21127,0.0049849,-0.021211,-0.015314,-0.028002,-0.040646,-0.031746
-0.34367,-0.31264,-0.080269,-0.046325,-0.022669,0.060044,0.038374,0.0077622
0.20911,0.48293,0.30957,0.20882,0.086778,0.055188,0.024258,-0.032893
0.11186,-0.0047877,-0.24748,-0.13843,-0.038527,-0.027275,0.010461,0.018301
-0.26793,0.12929,-0.047976,-0.033054,0.039025,0.069998,0.059108,0.10712
0.078258,-0.12419,-0.067786,-0.099531,-0.094473,-0.16134,-0.12707,-0.12511
-0.20017,-0.31379,-0.01695,0.068952,0.037688,0.036028,0.0062769,0.017735
0.022693,0.12919,0.14442,0.051005,0.029341,0.067978,0.060502,0.036465
0.044165,-0.14043,-0.0050764,0.026571,-0.017961,-0.05784,-0.050377,-0.060476
0.34826,0.20422,0.12827,0.026836,0.0050523,0.018026,0.025332,0.063218
0.17586,0.12303,0.020435,0.027981,0.051335,0.038075,0.053531,0.063834
-0.45944,0.23234,0.0064058,-0.017467,0.0035315,0.0028115,-0.043526,-0.11361
0.28386,-0.0074051,-0.063236,-0.039831,-0.044705,-0.055892,-0.03105,0.10062
-0.0022258,-0.43986,-0.29073,-0.10992,-0.069898,-0.035833,-0.018034,-0.10669
-0.70109,-0.18923,-0.051222,-0.040434,-0.017168,0.024471,0.027049,-0.0019685
0.83678,-0.035184,0.21042,0.12183,0.051287,0.015981,0.02619,0.0469
-0.85464,0.21185,0.065357,0.025665,0.057675,0.087182,0.034003,-0.0622
0.38494,0.35095,0.045803,-0.0081782,-0.0055564,-0.05126,-0.020076,0.13916
0.61476,0.2121,0.12911,0.083235,0.04139,0.03761,-0.027049,-0.028757
-0.54375,-0.53162,-0.24682,-0.12166,-0.098428,-0.10786,0.012667,-0.003223
-0.10323,-0.051733,-0.0038837,0.010109,0.020084,0.027226,-0.049722,-0.16654
0.17956,0.12011,0.20908,0.11919,0.045059,0.05164,0.035557,0.091408
-0.23563,-0.10299,-0.4132,-0.25543,-0.094116,-0.034967,0.0028307,-0.0097633
0.3665,0.3871,0.44113,0.21429,0.10233,0.02519,-0.0071436,0.069877
0.058882,-0.16083,-0.13471,-0.026447,-0.021969,-0.017596,0.060598,0.018556
0.17908,-0.15403,-0.21138,-0.12619,-0.052911,-0.01433,-0.074827,-0.04607
-0.24772,0.0085118,0.2266,0.11027,-0.0059783,-0.058055,-0.030226,0.0011484
-0.32009,-0.063891,-0.094193,0.010879,0.064355,0.062871,0.061915,-0.066534
-0.11111,0.019695,-0.025247,-0.041753,-0.037009,0.028693,0.022114,0.055102
-0.050704,-0.029302,-0.082127,-0.032263,-0.0052368,0.0037634,-0.040206,-0.0017969
0.47267,0.28953,0.28987,0.10939,0.034708,-0.0041322,-0.0079759,0.066705
-0.25572,0.14039,0.15322,0.039224,0.035861,0.020322,0.040434,-0.036973
0.30822,-0.36759,-0.35135,-0.17254,-0.056655,-0.017114,-0.004661,-0.00085435
0.26348,0.0071828,0.065504,0.052291,-0.00089322,-0.023209,0.03614,0.0029433
-0.41646,-0.095484,-0.28308,-0.05945,-0.054892,-0.045241,-0.10297,-0.11143
-0.30599,0.12037,0.15067,0.07078,0.078069,0.049419,0.031133,0.047013
0.31607,0.14603,0.23499,0.076272,0.022935,-0.0047792,0.016722,-0.0055582
-0.41653,-0.28492,-0.17768,-0.11287,-0.079608,-0.043484,-0.013096,0.036059
0.46434,0.19409,0.14747,0.034862,0.044031,0.04308,-0.01893,0.054988
-0.14505,0.16865,-0.078827,0.011656,-0.027807,-0.025963,-0.00052841,-0.12068
0.53312,-0.001788,0.072195,0.059442,0.056668,0.069922,0.073427,0.24303
-0.41945,-0.36347,-0.19006,-0.10352,-0.053918,-0.028661,-0.039429,-0.18272
0.20388,0.092678,0.11688,0.0065189,0.0077253,0.037379,0.058923,0.038713
-0.38962,0.040394,-0.024567,-0.0017124,-0.016226,-0.060589,-0.01492,0.00034843
-0.18673,-0.096163,0.11836,0.14471,0.038155,-0.026315,-0.081905,-0.11075
0.20231,0.27915,0.052494,-0.023201,0.037816,0.061456,0.021488,0.080404
-0.2532,-0.2222,-0.28474,-0.14594,-0.064407,-0.063399,-0.025385,-0.027278
0.84672,0.15909,0.06071,-0.012018,0.043719,0.044161,0.035235,0.035769
-0.47253,0.040744,-0.018732,0.035745,-0.020776,0.024767,0.016075,-0.041954
0.056529,-0.29646,-0.012828,-0.017125,-0.039125,-0.019715,0.0035284,0.021763
-0.15065,0.1538,0.15134,0.080538,0.0045187,-0.05746,-0.064299,-0.014544
-0.030681,-0.056104,-0.016067,0.009356,0.048066,0.076374,0.11794,0.16198
0.4716,0.22725,0.033481,-0.027045,-0.03295,-0.039203,-0.042898,-0.073709
-0.0027658,0.13371,-0.089885,-0.052155,-0.027034,-0.028325,-0.077544,-0.081346
-0.59378,-0.4331,0.14487,0.09747,0.081908,0.055035,0.029957,-0.025537
-0.23002,0.017078,-0.20083,-0.048001,-0.057403,-0.015244,0.029732,0.046285
0.44165,0.12402,0.066659,0.0022596,0.023813,-0.0047038,0.023242,0.0086889
0.22779,-0.010438,-0.023391,-0.018772,-0.041874,-0.038656,-0.067957,-0.013548
-0.112,0.044727,0.042679,0.020526,0.088807,0.085344,0.083759,0.0030049
0.025187,0.0025507,-0.025899,-0.029058,-0.05353,-0.024279,-0.061291,-0.058672
-0.13359,0.037366,0.129,0.090061,0.022611,0.029836,0.019691,0.098548
-0.26067,-0.27816,-0.17301,-0.11396,-0.034951,-0.034585,0.0058287,-0.0016546
0.43932,0.07342,0.18513,0.023781,-0.023551,-0.0699,-0.017335,-0.046625
-0.075052,0.20242,-0.39003,-0.11278,0.0097034,0.048451,0.020355,0.010529
0.060419,0.069697,0.16464,0.071264,0.0023081,-0.031119,-0.021611,0.044686
-0.19652,-0.021089,0.14669,0.10027,0.040393,0.027692,-0.010046,-0.069386
0.049629,0.19402,0.12701,0.045019,-0.00071982,0.014606,0.0087462,0.04302
-0.11749,-0.30243,0.027758,0.061663,0.012166,0.0085688,0.0041947,-0.0090156
0.27741,-0.45727,-0.37757,-0.20194,-0.053384,-0.0052097,-0.0074079,-0.038247
0.023277,0.32242,0.19997,0.081428,0.029525,0.028687,0.044794,0.033261
-0.4726,0.18506,-0.23979,-0.1439,-0.043551,-0.02983,-0.026374,-0.036797
0.47145,0.23296,0.39686,0.15248,0.040032,-0.063284,-0.033355,0.048395
-0.46237,-0.43892,-0.16337,-0.053369,-0.00094745,0.037735,0.023632,-0.031481
0.27543,0.14739,-0.060747,-0.0037639,0.005309,0.023021,0.011321,0.083
0.27291,-0.038036,0.017883,0.020313,0.011772,0.032797,0.030674,0.0013391
-0.39051,0.091746,0.018697,-0.019615,-0.020805,-0.035029,-0.036132,-0.12779
0.10572,0.037286,0.091191,0.072568,0.016798,0.029926,0.021297,0.078804
0.25295,0.0017498,-0.083775,-0.045972,-0.016108,-0.030628,-0.047378,-0.065878
-0.3332,-0.41374,-0.067507,-0.038366,-0.049141,-0.045116,0.015588,-0.0065573
0.064173,0.2978,0.10202,0.057193,0.074165,0.041096,-0.016138,0.054224
0.33409,0.34619,-0.043107,0.038323,0.018214,0.040712,0.037598,0.062247
-0.22735,-0.25414,-0.033707,-0.094422,-0.068147,-0.05366,-0.025724,0.017768
-0.27601,-0.19966,-0.10427,-0.082923,-0.028275,-0.014911,-0.010193,-0.15736
0.23672,-0.0068626,0.24446,0.11968,0.044358,0.0090706,0.029959,0.067794
-0.27234,0.09716,0.1439,0.059891,0.024826,0.0030673,-0.030076,-0.010482
0.36424,0.20607,-0.36884,-0.091216,-0.024568,0.0062952,0.043943,-0.0023554
-0.10038,-0.05481,0.11798,0.024572,0.051951,0.057646,0.025007,0.099081
-0.10156,-0.23169,-0.054296,-0.0082522,-0.03539,0.00037683,-0.025068,-0.066444
-0.27943,0.15289,-0.0051238,0.019686,0.0016452,-0.033431,0.0023154,0.078444
0.65345,-0.1579,0.11523,0.067868,0.0060071,-0.0055424,-0.041994,-0.17768
-0.072174,0.13372,0.071217,-0.044508,-0.030729,-0.033901,-0.017876,0.040071
0.10099,0.12215,0.026533,-0.0054989,0.0552,0.037215,0.03541,0.11475
-0.4579,-0.18453,-0.2917,-0.12747,-0.07987,-0.026769,-0.0070094,-0.14055
0.44106,0.010358,0.13361,0.051335,0.0020176,-0.0069487,-0.01191,0.056199
-0.46386,0.018702,-0.062506,0.071399,0.020353,-0.027861,0.013487,0.088636
-0.39308,0.12086,-0.096125,-0.13587,-0.0083646,0.043972,-0.016104,-0.13626
0.63858,0.018995,0.20737,0.11096,0.04951,0.060854,0.063982,0.10858
0.095133,-0.0064004,0.061309,0.071121,0.030542,-0.0077699,0.027653,0.010883
-0.23756,-0.20564,0.13927,0.011117,-0.064953,-0.059773,-0.085721,-0.062206
-0.018253,-0.023771,-0.32352,-0.092262,-0.026075,-0.016638,-0.025984,-0.024988
0.24248,0.040089,0.016597,0.0184,0.068704,0.051537,0.058462,0.044081
-0.3966,0.16692,-0.10684,-0.040586,-0.023367,-0.027064,-0.051175,-0.027179
0.26237,0.045628,0.24221,0.065579,0.048639,0.0053009,0.051268,0.065738
0.54839,-0.56479,0.10887,-0.0080241,-0.059593,0.0078332,0.037548,0.080654
-0.85171,0.60971,-0.16491,-0.082698,-0.043748,-0.035352,-0.092472,-0.24784
0.14617,-0.016945,-0.041578,0.028387,0.010133,0.016041,0.036044,0.041538
0.18016,0.07777,0.024774,0.028086,0.016278,0.020995,0.00102,-0.027372
-0.0023103,-0.27172,0.11203,0.057145,0.037567,0.0025185,-0.010294,0.14725
-0.13784,-0.13755,-0.15427,-0.024599,0.0041725,-0.00076718,-0.021651,-0.0049248
0.014241,0.048845,-0.038642,-0.060209,0.0025126,0.026357,0.083764,0.078247
0.29706,0.20013,-0.086509,-0.033279,-0.060796,-0.049241,-0.077275,-0.088296
0.031218,-0.03609,0.070648,0.049109,0.040992,-0.0011897,0.10421,-0.036673
-0.49317,-0.0037226,0.2149,0.015613,-0.012473,-0.017024,-0.06741,0.0057006
-0.34487,-0.061618,-0.036523,-0.016341,-0.0026903,0.012748,-0.029785,-0.0086764
0.70432,0.010134,0.0343,0.031275,0.038681,0.033672,-0.025037,-0.072245
0.32755,0.18196,0.15247,0.12682,0.017401,-0.016443,0.033073,0.1433
-0.40432,-0.23941,-0.28527,-0.14435,-0.074807,-0.012264,-0.0033878,-0.12712
-0.14008,-0.017489,-0.13193,-0.056249,0.035166,0.062166,0.030279,0.023574
0.18934,0.013736,0.096095,0.054745,0.026894,-0.003778,0.040995,0.18221
-0.33207,0.01975,-0.069832,-0.061562,-0.052603,-0.069172,-0.072187,-0.15037
0.21525,0.14962,0.12902,0.063659,-0.031076,-0.01655,0.011523,-0.051704
0.23518,0.06705,0.092564,0.032256,0.045121,0.0058916,-0.012281,0.080108
0.022526,-0.28401,-0.20888,-0.069462,-0.010977,0.037374,0.043952,0.041939
-0.66639,0.21924,0.061933,-0.0068027,-0.0036516,-0.015829,-0.085602,-0.088383
0.48808,-0.027542,0.12442,0.048502,0.036001,0.010184,0.051749,0.016742
0.056575,-0.089736,0.21291,0.072928,0.014079,0.029118,0.025694,0.0050875
-0.24085,-0.28244,-0.3452,-0.043191,0.0082703,-0.01423,0.03081,0.024398
0.32463,0.41588,-0.012001,-0.050261,-0.028906,0.027997,-0.019563,-0.04312
-0.033044,0.059067,0.14095,0.082597,0.042559,0.01466,0.014621,0.16931
-0.19315,0.061551,-0.0827,-0.035429,-0.01996,-0.03894,-0.054444,-0.12752
-0.19887,-0.1687,0.0039681,-0.13862,-0.099408,-0.11722,-0.086094,-0.14438
-0.19524,-0.33185,-0.06008,0.046827,0.0075758,0.045711,0.084119,0.064495
0.37502,0.083714,-0.15733,-0.040992,-0.018776,0.020633,-0.019729,0.04661
0.66956,0.17587,0.29874,0.16104,0.08787,0.058108,0.048419,0.099519
-0.46013,-0.25487,0.13683,0.05967,0.023508,-0.0054524,0.015792,-0.057453
-0.24995,0.37985,-0.20506,-0.13395,0.0073617,0.0098986,-0.023416,-0.0020754
0.24267,0.17437,0.031179,0.0097774,0.00052253,0.00258,0.0012316,-0.0077004
-0.5796,-0.24772,0.002021,0.013914,-0.0049991,0.019198,0.01921,-0.043261
0.4589,0.071329,-0.081349,-0.0048902,-0.048703,-0.065671,-0.048099,0.06272
-0.31794,-0.13066,0.093977,0.0074862,-0.013969,-0.010286,0.0095653,-0.080928
0.40598,-0.022429,-0.11982,-0.0041089,0.020515,0.013129,0.0039768,0.017361
0.11887,0.28257,0.05147,-0.00089004,0.01524,-0.011223,-0.010827,0.044462
-0.21397,-0.52315,-0.063284,-0.10011,-0.069128,-0.013003,0.011571,-0.062691
0.23311,0.18433,0.059849,0.096773,0.079821,0.086101,0.063179,0.17985
-0.15029,0.10879,0.038052,-0.011613,-0.0066068,-0.041751,-0.019914,-0.071893
-0.11334,-0.052378,0.15191,0.043642,0.015488,-0.0056323,-0.041914,-0.036606
-0.45786,-0.02282,-0.21714,-0.026475,-0.041207,-0.0084124,-0.04112,-0.096737
0.43019,0.044308,0.007138,-0.011139,0.0031846,-0.026488,-0.040045,-0.056329
-0.24022,0.10478,0.064729,0.0269,0.0082009,0.041765,0.016917,0.077606
0.25585,-0.074019,0.016066,-0.037676,-0.026021,-0.0068033,0.083617,0.063668
0.42403,0.27427,0.14086,0.076106,0.11158,0.085551,0.10574,0.10558
-0.19232,-0.41309,-0.18652,-0.10063,-0.094506,-0.087476,-0.088618,-0.085457
0.042192,0.20675,-0.043711,0.018181,-0.011304,-0.018049,-0.0077136,0.0061408
-0.68413,-0.25805,0.0084273,0.011063,0.0020034,-0.026346,-0.035049,-0.018381
0.4638,0.28512,-0.11347,0.011494,0.015958,0.020679,-0.022959,-0.026625
-0.14119,-0.20368,0.062375,0.0046902,0.015177,0.021742,0.02006,-0.011138
-0.11171,-0.029579,0.070136,-0.039715,-0.015761,-0.015114,-0.015828,-0.073674
0.21228,0.21358,0.099514,0.035304,0.0013937,0.027378,0.0098147,0.082664
0.26386,-0.26304,0.010942,-0.027544,-0.0036733,0.00064365,0.026747,0.051824
0.10111,0.61915,-0.047401,0.014087,0.0079551,0.021502,0.011798,-0.033091
-0.43607,-0.45954,0.14961,0.074003,0.028181,-0.0043493,-0.0034063,-0.0077397
0.0089155,-0.045174,-0.0095995,-0.012504,0.0019213,0.0083959,0.020594,0.057748
0.20049,-0.050867,-0.37906,-0.097938,-0.063463,-0.073656,-0.079923,-0.0084772
-0.50927,0.008786,0.03907,0.019737,0.011265,-0.00091361,-0.015663,-0.19876
0.014508,0.15818,0.17296,0.089453,0.046027,0.062402,0.096266,0.13502
0.39218,-0.14106,-0.24373,-0.17874,-0.092279,-0.078908,-0.064534,-0.038894
0.41646,0.14247,0.39846,0.21459,0.11963,0.075504,0.05639,0.15392
-0.1826,-0.022912,0.022031,-0.0823,-0.037019,-0.028549,0.021207,0.040992
-0.32401,-0.0054943,-0.15325,-0.014479,0.0082365,0.031358,-0.014187,-0.11252
-0.18546,0.13849,-0.079345,0.0046106,0.013492,0.029165,-0.026645,-0.064658
0.31217,-0.20209,-0.075381,-0.11788,-0.09897,-0.073813,-0.055387,-0.041849
-0.34679,0.088367,0.086252,0.080007,0.015083,-0.019569,-0.022303,-0.012391
0.32877,-0.053824,0.10949,0.067979,0.035808,0.0043771,0.0023756,0.016569
0.016556,-0.25424,-0.10675,-0.004809,-0.0051734,0.021221,0.057799,0.084771
-0.19235,0.15117,0.10949,-0.0051907,0.040764,0.038341,0.034584,-0.010437
0.54284,0.16286,-0.07802,-0.0035239,0.040773,0.062988,0.088825,0.14513
-0.10867,0.031476,0.0097766,-0.031457,-0.052257,-0.077284,-0.092269,-0.089415
-0.32839,0.11702,-0.01076,-0.0036865,-0.0043083,-0.0079232,-0.016832,-0.027089
-0.14024,-0.033126,0.007884,0.040006,0.004562,0.0052615,-0.021015,-0.012228
-0.35572,-0.50461,-0.060193,0.0052119,-0.033733,-0.029754,0.0045911,-0.13901
0.46488,0.24959,0.034204,-0.085122,-0.017741,-0.010891,-0.033405,0.11587
-0.011576,-0.059607,0.11853,0.042169,0.029153,0.0079514,0.029726,0.026108
0.0065237,0.23176,-0.21397,-0.073921,-0.049135,-0.011404,-0.023902,-0.14997
0.32547,0.31103,0.16916,0.11355,0.060073,0.025573,0.0097227,0.12735
0.19549,-0.45473,-0.052596,-0.012468,0.036561,0.025612,0.037567,0.053947
-0.36109,-0.034208,0.011367,0.001239,-0.0025302,0.043454,0.036578,0.044245
-0.26044,0.026095,-0.013759,-0.0015206,-0.018329,-0.03068,-0.016708,-0.097006
-0.020622,-0.023095,0.075592,0.018345,0.0045216,-0.0022439,-0.013336,0.020626
-0.065732,0.053599,-0.087043,0.0062178,0.0032805,0.0028059,0.030357,-0.0016417
0.079206,-0.00053978,-0.070963,-0.061148,-0.061216,-0.047704,-0.073962,-0.062606
0.40565,0.14355,0.15633,-0.019324,-0.0013507,0.0017916,0.0010453,0.040604
-0.16436,-0.13857,-0.1069,-0.016212,0.0035363,-0.020883,-0.042094,-0.090537
0.16714,0.082835,0.015694,0.034765,0.063347,0.071902,0.085354,0.14562
-0.06671,-0.05209,-0.013835,0.048285,-0.024449,-0.047474,0.016157,-0.0085639
-0.41009,-0.036445,0.016155,-0.0064533,-0.001513,0.0045464,-0.0073018,-0.037244
0.13238,0.089541,-0.034825,-0.051169,-0.039394,-0.029056,-0.047162,-0.049667
-0.021918,0.15278,0.19992,0.05456,0.026004,0.0086115,-0.017048,0.016656
-0.08892,-0.47279,-0.14004,-0.033574,0.01469,0.047569,0.028773,0.10684
0.11268,0.17295,-0.024963,0.011728,0.035434,0.040876,0.051564,-0.099831
0.28586,-0.02767,0.16849,0.15826,0.032735,-0.0041052,-0.03444,-0.033576
-0.16531,0.17513,-0.30346,-0.25894,-0.095835,-0.041218,-0.01831,0.047166
0.38012,0.1642,0.073511,0.040661,0.023975,0.0068619,0.0060293,0.11837
-0.38775,-0.083595,0.18918,0.080134,-0.045819,-0.055848,-0.008598,-0.070393
0.06474,0.10418,-0.15995,-0.062417,0.038414,0.012474,0.015573,-0.081785
-0.43085,-0.66224,-0.036342,0.035191,-0.012134,0.008742,0.015702,-0.04061
0.68561,0.25109,0.14631,0.021943,0.029665,0.027149,0.038428,0.10056
-0.14812,0.095329,-0.095835,-0.01556,-0.015116,-0.0253,-0.049129,0.022279
-0.63998,0.035508,0.065965,-0.014145,-0.028485,-0.030506,-0.1062,-0.14163
0.37928,0.25174,0.02298,0.058041,0.060584,0.067093,0.10974,0.14108
-0.22458,0.040606,-0.020977,-0.048518,-0.013022,-0.013082,-0.010185,-0.050652
0.3984,-0.38012,0.012999,0.0024721,-0.006858,0.018372,0.0033126,0.0023901
-0.18461,0.11309,-0.0069897,0.015941,-0.0068594,-0.041711,-0.013344,0.05026
0.15345,0.010813,-0.095517,-0.023601,0.025829,0.048461,0.049544,0.045731
0.13025,-0.032031,-0.0014999,0.001074,-0.026322,-0.024268,-0.096994,-0.19155
0.13243,-0.0083848,-0.13026,-0.035114,-0.015273,-0.0028652,0.093759,0.1813
-0.1117,0.066179,-0.0047313,-0.062074,-0.035158,-0.028716,-0.027024,-0.11002
-0.30421,0.012889,0.44527,0.20886,0.062122,0.022568,0.0010412,-0.0037789
-0.068362,-0.010297,-0.093646,-0.074432,-0.020588,-0.029089,-0.017976,-0.0005208
-0.025397,0.014527,-0.060532,0.0014232,0.013361,0.027118,0.01691,0.05572
0.41711,-0.050729,0.042693,0.0060299,0.03097,0.019407,0.019317,0.078991
-0.45806,-0.22713,-0.34833,-0.09247,-0.061651,-0.059774,-0.089124,-0.16486
-0.12355,0.25273,0.11656,0.025851,0.03229,0.055551,0.043127,0.027683
0.62131,0.038041,0.08522,0.048404,0.023735,0.014185,0.017803,0.086831
-0.7101,-0.12956,-0.074911,-0.04802,-0.024703,-0.0038544,0.0070904,-0.064997
0.78533,0.27927,0.18409,0.033947,-0.026851,-0.045184,0.01136,0.033635
