-0.019989,0.052338,-0.095245,-0.042595,-0.018492,-0.01104,-0.0045228,-0.0077661
-0.0080467,-0.17525,0.52597,0.15171,0.027174,-0.0034209,-0.013041,-0.0011481
0.018299,0.054603,-0.71963,-0.14576,-0.021948,-0.012216,0.0012907,0.0044086
0.036489,0.00078375,0.65596,0.13684,0.014127,0.017486,-0.00031754,0.0092266
0.0084496,0.1333,-0.24273,-0.21783,-0.028175,0.0078893,0.021541,0.0059554
-0.033654,-0.093347,-0.16381,0.072511,0.00017627,-0.009375,-0.018717,-0.01269
0.0046108,-0.091821,0.19018,0.094158,0.0060233,-0.0026928,0.0042033,-0.0071372
0.014197,0.27987,-0.5487,-0.075188,-0.0023628,-0.010843,0.012357,0.0073899
-0.044041,-0.25047,0.35178,0.039776,0.0064828,0.0053848,-0.01767,-0.0079443
0.11066,0.14623,0.091487,0.10115,0.024649,0.014725,0.0077355,0.024992
-0.061568,-0.19363,0.62725,-0.080911,-0.002967,0.001368,0.010165,0.0044184
0.00078537,-0.16878,-0.46717,0.10066,0.047979,0.019679,0.0048634,0.00023852
-0.039235,-0.053979,-0.22698,-0.059,-0.026401,-0.016679,-0.0085812,-0.019326
0.020612,0.28891,-0.21757,-0.13099,-0.047114,-0.0065459,-0.0071019,0.0076674
0.031259,0.42667,-0.057363,0.025766,-0.0068204,-0.012749,0.0012252,-0.0052095
-0.10916,-0.035425,0.34792,-0.12612,-0.046286,-0.035484,-0.022774,-0.03487
0.091574,0.14102,0.42235,0.18935,0.069072,0.05802,0.022516,0.035712
0.0088037,-0.41362,-0.47908,-0.10298,-0.011812,-0.021198,-0.003323,-0.0043707
0.010299,-0.60573,-0.1413,0.023009,0.00077132,0.00050903,-0.0062289,0.0013402
0.018687,0.20011,0.057103,-0.0089804,-0.0097152,0.029657,0.021979,0.021932
-0.035495,0.14967,0.43243,0.34846,0.074421,-0.011605,0.0035412,-0.0046787
-0.02638,-0.00039081,-0.1374,-0.11646,-0.027804,0.0097787,0.0012749,-0.0077419
-0.039107,0.23319,-0.44753,-0.27302,-0.066396,-0.054438,-0.039274,-0.041539
0.0050728,-0.02723,0.10399,0.063483,0.052149,0.022429,0.0070215,0.011439
0.012751,-0.076203,0.078711,0.022885,-0.055397,-0.0095738,-0.00044882,0.010757
0.09328,0.27266,0.32614,0.16518,0.10267,0.052646,0.039776,0.034564
0.019676,0.12435,0.10131,-0.144,-0.067827,-0.02539,-0.020942,-0.0032298
-0.076016,-0.29348,-0.059658,-0.13938,-0.0047081,-0.0094625,0.0046228,-0.016987
0.086471,0.1288,-0.10459,0.16433,0.034104,0.037753,0.022418,0.031958
-0.15014,-0.37338,-0.621,-0.059081,-0.052862,-0.055779,-0.053778,-0.059931
-0.0054597,0.023595,-0.1406,-0.11179,-0.023148,-0.016729,0.0023727,0.0038775
0.082411,0.25591,0.65738,0.18062,0.045487,0.037674,0.018863,0.027859
0.0038676,-0.26038,-0.015271,-0.015754,0.044042,0.03715,0.011283,0.011968
-0.053474,-0.17678,0.33425,0.026778,-0.042831,-0.04946,-0.020317,-0.043674
0.067034,0.34117,-0.40354,0.058202,0.01155,0.012345,0.025738,0.025246
-0.024658,-0.10633,0.22356,-0.11787,0.01963,0.0039552,0.0011601,0.00029679
-0.046653,-0.15477,-0.63761,-0.050174,-0.034426,-0.019821,-0.031394,-0.024453
0.13448,0.90182,1.0426,0.25913,0.044406,0.027035,0.021972,0.060616
-0.12139,-0.30367,-0.54167,-0.15288,-0.048853,-0.027332,-0.026128,-0.05688
-0.040471,-0.18765,-0.038731,-0.12342,-0.02536,-0.0032886,0.011882,0.013648
0.057064,-0.26972,-0.29865,0.04249,0.036666,0.044359,0.018842,0.014203
0.06962,-0.17933,-0.24042,-0.052865,0.035709,0.021696,0.025989,0.030435
-0.042052,0.25926,0.6241,-0.0016456,-0.059321,-0.048013,-0.037027,-0.031735
-0.020409,-0.26123,0.033163,0.06541,-0.0060075,-0.032092,-0.021814,-0.024159
0.0092894,0.42226,-0.072608,0.11131,0.047452,0.022521,0.016915,0.0061064
1.0972e-05,0.12291,-0.066528,-0.06547,-0.015937,0.0064846,0.0010355,0.004357
0.04553,-0.12601,0.20759,0.028067,0.030503,0.013671,0.008709,0.017626
-0.10392,-0.12624,-0.36918,-0.069138,-0.039765,-0.010421,-0.0068833,-0.016269
0.005226,-0.10879,0.37212,0.032591,0.038842,0.020363,0.0090089,0.0046593
0.04537,-0.023569,0.16245,0.19893,-0.038433,-0.034399,-0.0060615,0.002748
-0.014217,0.069359,-0.8139,-0.29836,-0.021648,-0.018303,-0.013001,-0.021578
0.061195,-0.14918,0.37827,0.1877,0.065743,0.068729,0.027255,0.033556
-0.0095707,0.3359,0.13624,-0.21102,-0.049666,-0.02331,-0.0025072,0.0042335
-0.078362,0.19419,-0.32898,-0.096352,-0.047508,-0.028894,-0.024215,-0.031476
0.026045,-0.37494,0.22577,0.21955,0.087881,0.036185,0.0089349,0.012111
0.068325,0.42874,0.3097,0.12805,0.012728,-0.0079767,0.0031014,0.0095644
-0.062036,-0.35998,-0.24771,-0.11219,-0.054343,-0.044427,-0.010573,-0.0084141
0.0087998,-0.12704,-0.33619,-0.16456,-0.0041972,0.020353,0.0068498,-0.0033597
0.02983,0.0092201,0.79448,0.26806,0.037823,0.022087,0.016164,0.016351
-0.015242,0.049864,-0.91086,-0.19737,-0.022428,-0.015968,-0.021844,-0.012233
-0.001619,-0.087872,0.49991,0.063482,0.033413,0.038863,0.025497,0.019996
-0.038337,-0.040004,0.43958,0.19034,-0.044947,-0.047871,-0.021606,-0.035436
0.02391,0.4095,-0.78057,-0.1224,0.039239,0.036339,0.032119,0.016984
-0.0010866,-0.102,0.096418,-0.17224,-0.018621,-0.013084,-0.032019,-0.017642
-0.033678,-0.37613,0.0077149,0.0094642,-0.030693,-0.031851,-0.018542,-0.0059393
0.052648,0.42407,0.2661,0.15757,0.027007,0.019432,0.025941,0.029268
-0.053368,-0.015131,-0.088598,-0.14875,-0.02453,0.0083591,-0.0076067,-0.01302
0.03964,-0.20473,0.069768,0.17784,0.02633,-0.0021476,0.006166,0.01605
-0.011983,0.030397,0.039399,-0.15025,-0.046396,-0.035153,-0.018376,-0.016129
0.056802,0.099314,-0.32674,0.071364,0.070132,0.058032,0.028335,0.031042
0.018264,0.13814,0.37119,-0.0081713,-0.0068778,-0.019392,-0.0021022,-0.014549
-0.011944,-0.23124,-0.37331,0.0018131,0.0035016,0.0058829,-0.00044756,-0.0048492
-0.027623,0.16976,0.22998,-0.063433,-0.039967,-0.030533,-0.013867,-0.010622
-0.084851,-0.52489,0.19759,0.13073,0.049423,0.02712,0.011924,-0.0088645
0.026386,0.11763,-0.34489,0.09826,-0.033834,-0.0092318,-0.0016433,7.5325e-05
-0.030172,0.26578,-0.12393,-0.26406,-0.016985,0.0082731,-0.00029555,0.0081659
0.050447,-0.06791,0.39132,0.24564,0.037057,0.024476,-0.0077773,0.0075185
0.073707,0.11274,0.10617,-0.10758,0.0032382,-0.007778,0.014826,0.021628
-0.076486,0.13829,-0.5668,-0.16713,-0.071242,-0.049448,-0.034007,-0.043088
0.093258,-0.06112,0.60491,0.021269,0.056447,0.024722,0.033444,0.047987
-0.10344,-0.018224,-0.72456,-0.08756,-0.042542,-0.034773,-0.016828,-0.032987
-0.048476,0.10778,0.61456,0.13315,0.0076583,-0.0085351,-0.020317,-0.043535
0.086848,-0.44466,-0.043603,0.15346,0.035893,0.049419,0.031238,0.055662
0.02151,-0.030878,0.018461,-0.018328,-0.019916,0.0068431,-0.0024147,0.0069821
-0.018048,0.11154,-0.13713,0.1329,0.074654,0.028155,0.011778,0.0058438
0.022465,0.3397,-0.11131,-0.10515,-0.016659,0.0040845,0.0035807,-0.010236
-0.01376,-0.19919,0.11322,-0.08588,-0.036645,-0.042063,-0.019272,-0.025695
-0.080439,0.041606,-0.64854,-0.22511,-0.056346,-0.024645,-0.010108,-0.0015862
0.095363,0.12543,0.6923,0.18691,0.048547,0.016914,0.022988,0.022885
-0.057005,-0.32103,0.34174,0.10301,0.011906,0.0041436,-0.0062089,0.00069583
-0.029884,0.11868,-0.15875,-0.10893,-0.025877,-0.00072489,-0.019823,-0.0057852
0.043909,0.095883,-0.2138,-0.072353,-0.025675,-0.029114,0.0054013,-0.004476
0.016007,0.13714,-0.11955,0.10546,0.036262,0.036072,0.0068673,-0.0032598
-0.027598,-0.3014,-0.055831,-0.034258,0.0041503,-0.0005258,0.0079936,0.021267
0.022447,-0.068747,-0.22675,-0.091295,-0.012129,-0.0061344,0.0010115,-0.024643
0.056637,0.008658,0.34246,0.1932,0.019108,0.027002,0.001629,0.015296
-0.058044,0.16566,0.36015,0.19429,0.027834,-0.010566,-0.021305,-0.0072962
0.029748,0.041942,-0.28629,-0.26857,-0.017106,0.0060846,0.018242,0.0092167
-0.070755,0.18209,0.0089327,-0.087638,-0.053301,-0.040277,-0.012474,-0.01322
0.046692,0.15309,-0.10921,-0.014947,0.028383,0.0066143,0.011584,0.011385
-0.024003,-0.47068,0.25499,0.11932,0.0088628,0.01403,0.004465,-0.002892
-0.03256,-0.052084,-0.26713,0.1103,-0.0028691,-0.017894,-0.018264,-0.024842
-0.0021031,0.0078653,0.098021,-0.058797,0.00061905,0.004746,0.0057937,0.015738
0.028541,0.12198,-0.25709,-0.20094,-0.027894,0.011761,-0.0016188,0.0014753
0.1063,0.01701,0.077042,0.082546,0.036306,0.026641,0.021854,0.033688
-0.058047,-0.20411,0.10451,0.011206,0.0055124,0.0024745,-0.0098555,-0.0050811
-0.01956,0.28898,-0.068931,-0.085715,-0.042256,-0.053042,-0.010897,-0.036953
-0.020875,0.10038,0.16959,0.22264,0.033632,0.008371,-0.0047271,0.0082296
0.047001,-0.064259,0.6739,0.14035,0.045818,0.045942,0.024349,0.021079
-0.0035963,-0.24185,-0.94587,-0.22258,-0.044483,-0.010718,-0.0094441,-0.006049
-0.055315,0.10833,-0.15144,-0.16282,-0.041545,-0.028757,-0.019928,-0.025932
-0.029505,-0.036025,0.44578,0.1867,0.0082713,0.0076286,-0.014624,-0.022455
0.019961,-0.025838,-0.29774,-0.17444,0.011764,-0.0028176,0.038012,0.036186
0.0080922,0.17818,0.20058,0.018822,-0.022755,-0.028458,0.005418,0.0098919
0.045131,-0.049065,0.11718,0.25804,0.053501,0.024847,-0.034121,0.00062294
-0.048037,0.12807,0.30884,-0.019845,0.021912,0.0089606,0.052252,-0.0070527
0.041213,-0.23613,0.0085712,0.17705,-0.016082,0.0099471,-0.048043,0.0024419
0.085927,-0.032814,-0.61141,-0.44023,-0.029588,0.0042727,0.024188,0.028827
-0.086614,-0.12201,-0.048876,0.019537,0.012125,-0.00057203,-0.0047449,-0.037732
-0.055676,0.12809,-0.25313,-0.16911,-0.055586,-0.02852,-0.017928,-0.0181
0.044718,-0.034057,-0.024216,0.23736,0.063618,0.037041,0.015633,0.024666
0.072904,0.30341,0.89223,0.28709,0.033405,0.023704,0.025426,0.035419
-0.073346,0.20013,-0.14933,-0.29253,-0.060476,-0.068906,-0.035553,-0.040832
-0.08952,-0.53458,0.10948,0.10017,-0.0070316,0.0012645,-0.018915,-0.016689
0.071589,0.19,-0.48957,-0.058868,-0.0012859,-1.6621e-05,0.012846,0.0063818
0.020099,-0.097141,0.37742,0.26037,0.050986,0.013576,0.012899,0.013014
-0.039891,-0.02975,-0.091961,-0.17018,-0.060578,-0.012099,-0.003086,-0.012063
0.048863,0.26012,-0.50494,-0.2347,0.039597,0.032917,0.027425,0.017462
0.0059168,-0.24063,0.51663,0.16747,0.0004077,0.00068239,0.0028973,0.0081587
-0.011998,-0.12173,-0.0065275,-0.11237,-0.037265,-0.01475,-0.029745,-0.0085066
0.042095,0.1921,-0.29344,0.035578,0.020317,0.0023024,0.0077402,0.01444
-0.011727,0.049771,0.0018105,-0.0050611,0.02442,0.012587,0.0061985,-0.0089432
0.013575,-0.13796,0.39124,0.1026,0.021376,0.015716,0.0050355,0.0072159
-0.17941,-0.05554,-0.67443,0.062442,-0.036393,-0.043494,-0.042185,-0.046541
0.11196,0.024664,0.41194,0.015433,-0.032439,0.0063267,-0.010004,0.025034
0.098319,0.23434,0.21762,0.00053717,0.079475,0.031953,0.023822,0.026593
-0.12672,0.27355,-0.26209,-0.20925,-0.060435,-0.052805,-0.010879,-0.057506
0.054083,-0.25271,0.24725,0.049593,0.0086762,0.0097986,0.010692,0.022697
0.023716,0.010192,0.30704,0.30005,0.021433,0.024566,0.017622,0.0171
-0.09261,-0.25433,-0.91363,-0.51272,-0.076304,-0.0082566,0.048004,-0.011997
0.049022,-0.16611,0.49549,0.29114,0.036516,0.0053901,0.022508,0.028857
0.050222,0.063076,-0.071199,-0.11606,0.0012909,0.0033133,-0.060087,0.014294
-0.010997,-0.042497,-0.00791,0.070925,0.021786,0.0091963,0.033616,0.014263
-0.033352,0.26911,-0.01257,0.18064,0.020246,-0.023686,-0.079691,-0.065262
-0.025064,0.047032,-0.16471,-0.25548,-0.018925,-0.0093542,-0.087379,-0.029067
0.029038,0.15247,0.16052,0.1296,0.052412,0.028703,0.042567,0.0057913
-0.0042627,-0.062047,0.40933,0.093272,-0.031894,-0.011193,0.092679,0.031858
0.093541,0.0050588,-0.37749,-0.013475,0.016623,0.034887,0.072333,0.049675
-0.04472,-0.20156,-0.1196,-0.16772,-0.060353,-0.028475,-0.048141,-0.018242
-0.074958,-0.13588,0.099355,-0.18227,-0.067787,-0.03725,-0.079897,-0.038431
-0.066821,0.045232,-0.21861,0.29436,0.064637,0.016434,0.017045,-0.010326
0.10561,0.1777,0.42005,0.0045098,0.055919,0.038978,0.00087564,0.043039
-0.017606,0.082468,-0.23435,-0.082862,-0.054485,-0.031907,0.02765,-0.018773
-0.0058497,-0.24709,-0.21386,-0.1786,-0.023992,-0.016313,0.01071,-0.023948
0.047748,0.1201,0.72177,0.24838,0.092979,0.031239,0.042677,0.042825
-0.059752,-0.15851,-0.57074,0.088252,-0.023825,-0.022005,-0.088732,-0.029926
0.054157,-0.0041672,0.13229,-0.034627,-0.0073758,0.011373,-0.0020553,0.0071102
0.060597,0.19229,0.20355,-0.011477,0.032637,0.045205,0.13751,0.051624
-0.057107,0.30477,0.10293,-0.10816,-0.052587,-0.014596,-0.077006,0.009177
-0.042285,-0.18413,-0.41105,0.13666,0.017915,-0.027789,-0.14585,-0.0895
-0.020952,-0.049844,-0.40614,-0.36178,-0.076288,-0.025976,0.064047,-0.01029
-0.017259,-0.1065,0.23114,0.06244,0.00082973,-0.0015854,0.0064826,0.012466
0.085667,-0.22205,0.16174,0.13029,0.085464,0.060919,0.096396,0.049388
-0.07927,-0.021155,0.21024,0.12512,-0.040792,-0.049319,-0.024695,-0.031832
0.0039766,-0.025815,-0.24565,-0.068817,0.020815,0.0038672,-0.012313,0.0037657
0.10948,0.5708,0.79444,0.072309,0.036112,0.025492,0.0089911,0.047371
0.0035599,-0.096195,-0.81218,0.10237,0.03639,0.015923,0.0081133,-0.0099443
-0.10216,-0.18107,0.11788,-0.27741,-0.11909,-0.063566,-0.04631,-0.035085
-0.01184,-0.042017,-0.037772,0.031831,0.0069475,0.0060269,-0.006125,-0.027954
-0.0063567,-0.296,0.63767,0.1678,0.039255,0.052946,0.0033146,0.034817
0.10194,0.41554,-0.53921,-0.12999,-0.014587,-0.016588,0.036357,0.028027
-0.022922,0.0206,-0.1637,0.16002,0.032763,0.0081884,-0.01664,-0.025174
-0.053056,-0.10033,-0.19575,-0.13487,-0.021888,-0.0058139,-0.015228,-0.015735
0.089324,0.1596,0.016305,-0.13151,0.016794,0.011395,0.0092538,0.0326
-0.12743,-0.36596,-0.015202,-0.062846,-0.062034,-0.057673,0.002097,-0.044479
0.085367,0.19639,0.30801,0.11228,0.038644,0.021133,0.01019,0.041929
-0.053846,0.07266,0.12207,0.091519,0.029921,0.021142,-0.0055062,-0.020732
0.0094036,-0.11937,0.77977,0.26756,-0.0021326,0.0048618,-0.0059074,0.0019531
0.0015587,-0.11238,-0.61056,-0.20968,-0.033984,-0.019784,0.016817,-0.0070832
0.047584,0.22894,-0.35642,-0.034832,0.028159,0.009883,0.0080079,0.022645
-0.0087324,-0.14726,-0.44589,-0.13759,-0.034461,-0.0074939,-0.02446,-0.025858
0.012415,0.0038593,0.43779,0.083043,-0.010956,0.0064088,-0.017976,0.00384
-0.013765,-0.050125,0.41708,0.032439,0.036099,0.0048798,0.011998,0.018139
0.014606,0.44946,-0.39196,-0.001323,0.036305,0.011473,0.026599,0.024955
-0.12862,-0.50558,-0.1921,-0.081676,-0.026035,-0.0049932,-0.028653,-0.038151
0.049209,0.16133,0.41661,0.14996,-0.018145,-0.021048,0.0026534,-0.007093
0.040715,0.10402,-0.38398,-0.15077,-0.018135,0.0023813,0.0034089,-0.006876
0.025883,-0.023969,0.14276,0.062615,-0.002496,0.010599,0.028254,0.024968
0.059462,-0.029807,0.61594,0.20399,0.036689,0.0035789,-0.024562,0.0024361
-0.14782,0.037981,-0.56474,-0.20314,-0.05673,-0.049987,-0.014726,-0.051143
0.11449,-0.11011,-0.023608,-0.12727,0.037609,0.037294,0.018295,0.059383
-0.068318,-0.30912,-0.057285,0.072722,0.022797,0.015259,-0.0040504,-0.025566
0.029617,0.48992,0.31874,0.17872,0.031522,0.016509,0.027248,0.02191
0.032697,-0.25709,-0.19989,-0.10544,-0.022338,0.0095662,0.0025971,0.02193
-0.0047438,-0.055059,0.090604,0.041206,-0.02959,-0.0057553,-0.015491,-0.0099836
-0.043656,0.22332,-0.21505,-0.091756,-0.0059775,-0.060792,-0.026734,-0.026904
-0.036818,0.063659,-0.24081,-0.074356,-0.037439,0.00076656,0.0084841,-0.020778
-0.0070245,-0.026339,0.2875,0.11683,0.0324,0.015069,-0.018465,-0.0068142
-0.0081729,0.0066345,0.33074,0.083026,0.0084441,0.013694,-0.013021,-0.0079258
0.062033,-0.089719,-0.23731,-0.035771,0.0003103,-0.010803,-0.0057369,0.023277
0.032195,-0.10716,0.22146,0.064295,0.031627,0.020017,0.011609,0.024663
-0.027293,0.20179,-0.35124,-0.21922,-0.030337,-0.003037,0.14838,-0.027106
0.086338,-0.032006,0.071597,0.050389,0.017486,0.0059716,-0.15057,0.039614
-0.026065,-0.38002,0.19675,0.067905,0.010852,0.0077951,0.051402,0.013338
-0.099792,0.12606,-0.19008,0.044036,-0.027059,-0.013519,0.042286,0.0026746
-0.026373,0.095642,0.065411,-0.044555,-0.0027725,0.027573,0.18041,0.061489
-0.017459,0.13819,0.072523,-0.080299,-0.033703,-0.072421,-0.51159,-0.22499
0.12186,0.13639,0.075307,0.078005,0.051888,0.037799,0.13777,0.072503
-0.092843,-0.21493,-0.95394,-0.11585,-0.0429,-0.016867,0.19107,0.031989
0.096524,0.34923,0.9113,0.24503,0.064834,0.037086,-0.054332,0.028721
-0.012622,-0.21846,-0.25376,-0.057514,0.0002726,-0.011062,0.058504,0.0085157
-0.028926,-0.32398,0.63333,-0.022999,-0.033201,-0.012559,-0.10247,-0.0045475
0.0015666,0.080846,-0.61189,-0.15104,-0.035291,-0.013947,0.080582,0.013629
-0.060921,0.15474,0.019768,0.050827,0.0021102,0.00068762,-0.048121,-0.06138
0.057817,-0.20829,0.43421,0.067149,0.055807,0.062767,0.074152,0.059914
-0.055688,0.097079,-0.79998,-0.20366,-0.061566,-0.062064,-0.11506,-0.051937
0.020763,0.097712,0.33015,0.18342,0.032782,0.0088683,0.056002,0.024989
0.084042,0.0069322,0.61068,0.31373,0.041789,0.033104,-0.069099,0.0015036
-0.014626,-0.041588,-0.41425,-0.37615,-0.0036277,0.0024837,0.10316,0.01797
-0.025846,0.38101,-0.33253,-0.027949,-0.025755,-0.028645,-0.013367,-0.011894
0.010569,-0.11037,0.17532,0.036882,-0.017184,-0.021475,-0.036061,-0.0025122
-0.031121,-0.50337,0.28152,0.16893,0.013977,0.023889,-0.051006,-0.024514
-0.010866,0.089142,-0.35633,-0.12465,-0.049579,-0.0018502,0.10576,0.03907
0.055396,0.29684,-0.033154,-0.031514,0.073483,0.034375,-0.011152,0.0006528
-0.12143,-0.22627,0.0029627,0.011186,-0.061881,-0.06236,-0.065814,-0.053785
-0.017707,0.0030327,-0.035675,-0.042557,0.005654,-0.010361,0.0042859,0.00090717
0.13248,0.14096,0.8826,0.22262,0.049943,0.042344,0.050756,0.039934
0.024722,0.055563,-0.45377,-0.18388,-0.03021,-0.0055182,-0.027895,0.0088121
-0.036188,-0.16574,-0.31177,-0.096264,0.031067,0.033656,0.0027881,0.0014352
0.043428,0.095944,0.025771,0.20589,0.0073203,-0.0042961,0.01008,0.0022327
-0.072598,-0.024929,0.10458,0.044344,-0.023341,-0.018086,-0.0059372,-0.027902
-0.025187,-0.073988,-0.19279,-0.23607,-0.0063319,-0.00027986,-0.013938,-0.010967
0.029162,0.11348,0.24389,0.068341,-0.019912,-0.021578,0.0095772,0.021616
-0.0034013,-0.23599,0.14295,0.22315,-0.0017194,0.0036429,0.0099686,0.014977
-0.0055874,0.25186,-0.93868,-0.35051,-0.0065706,-0.0029211,-0.0049291,-0.023226
0.061969,0.20079,0.67284,0.088122,0.027893,0.029016,-0.0038765,0.024087
-0.097151,-0.35157,0.29884,0.06818,0.0077378,-0.017627,-0.018177,-0.038433
0.041006,0.085663,-0.092427,0.14173,0.010837,-0.033293,-0.0010604,0.015806
-0.015267,0.19148,0.043692,0.0012014,-0.017819,0.013461,0.031693,-0.00060751
0.023427,-0.23708,-0.2887,-0.17651,-0.0004646,0.044649,0.0017624,0.0062027
0.040023,-0.097314,0.24174,0.17665,0.015687,0.013439,0.010496,0.012937
0.010963,0.089296,-0.46337,-0.23752,-0.0086688,-0.017724,-0.028231,-0.0037135
-0.07972,-0.018647,0.27962,0.065265,-0.0032881,-0.017718,0.018273,-0.0045807
0.0096628,-0.059614,-0.023691,0.031545,-0.022709,-0.017933,-0.037503,-0.02084
0.03636,0.13177,0.41559,-0.047164,-0.0040501,0.012791,0.0076781,0.017864
-0.07048,0.047673,-0.29885,0.15278,0.029825,0.0041444,0.0056012,-0.021272
0.063709,0.022449,-0.2877,-0.17737,-0.021956,-0.0046951,0.011247,0.025797
0.016786,0.068777,0.33778,-0.010602,-0.01807,-0.021329,-0.01414,0.0027735
0.023066,0.065716,-0.61881,0.28883,0.10457,0.056069,0.031263,0.011158
-0.073536,-0.15451,0.69264,-0.19133,-0.091142,-0.030059,-0.0086229,-0.019426
0.06329,0.006925,-0.40274,-0.036598,0.01989,0.0017214,0.022511,0.020343
-0.18311,-0.2088,-0.18407,-0.16991,-0.06253,-0.051652,-0.070695,-0.080505
0.18004,0.082274,0.84752,0.27352,0.067367,0.05973,0.039752,0.06083
-0.026381,-0.061975,-0.17959,0.032441,0.033877,0.023122,-0.0057041,-0.0087851
-0.067606,0.058413,-0.28802,-0.061159,-0.0075607,-0.036838,-0.0041369,-0.00031215
0.12684,-0.16081,0.57659,0.15298,0.012586,0.051313,0.028644,0.047135
-0.060332,0.29266,-0.60113,-0.12501,-0.054718,-0.048731,-0.024691,-0.030583
0.0659,0.023238,0.017281,-0.021701,-0.0066457,0.0065403,0.031085,0.016459
-0.096426,0.1096,-0.19496,-0.2791,-0.038438,-0.04073,-0.05404,-0.046158
0.022633,-0.043869,-0.29823,0.018731,0.030006,0.012749,0.024675,0.015961
-0.014663,-0.15196,0.16616,0.070321,0.019656,0.011062,0.0017068,-0.0080242
-0.083378,0.053721,0.44808,0.18417,0.0093779,-0.0063083,-0.021262,-0.024212
0.058768,-0.010055,-0.045867,0.02013,-0.015796,0.023535,0.02618,0.030067
0.083818,-0.066185,0.1678,0.073058,0.053938,0.030561,0.011263,0.029948
-0.0080807,0.062663,0.062305,0.062974,-0.015674,-0.032001,-0.019171,-0.0088871
0.0018603,-0.068981,-0.22813,-0.22129,-0.029511,0.0076443,0.020706,0.015085
-0.058338,-0.20134,0.083998,-0.023461,-0.0036379,0.008648,-0.0020755,-0.023257
-0.0014096,0.1301,-0.37238,0.0056335,0.014488,-0.029282,-0.033,-0.030327
0.039518,-0.07039,0.10833,-0.027378,-0.022606,0.0029508,0.013729,0.017147
0.0094327,0.38092,0.41878,0.17178,0.033019,-0.004225,0.0052209,0.009675
-0.091937,-0.11464,-0.43868,-0.063013,-0.04551,-0.019636,-0.011642,-0.021544
0.039924,-0.024671,-0.26545,-0.20959,0.015163,0.034887,0.017921,0.025075
0.022156,-0.10769,0.23988,0.13795,-0.01137,0.0032289,-0.007493,0.0089916
0.073591,0.18872,0.70049,0.24575,0.10181,0.026194,0.013884,0.0084543
-0.079001,-0.091768,-0.4777,-0.34586,-0.097931,-0.052297,-0.02711,-0.038901
0.01001,0.024112,0.22993,0.24778,0.0071631,-0.0055621,0.0025294,-0.007953
-0.049587,-0.075601,-0.30681,-0.17438,-0.019862,0.018001,0.0091924,-0.00018448
0.000495,-0.095288,-0.61516,-0.047716,0.016753,0.0027143,0.00076001,0.01567
0.12169,-0.0033469,0.7551,0.17642,0.039159,0.034382,0.024099,0.055178
-0.06837,-0.18855,0.1921,-0.008565,-0.030718,-0.012181,-0.014616,-0.02241
0.00099973,0.28168,-0.52591,-0.23505,0.049127,0.0034674,0.0016826,-0.0063127
-0.060617,0.19965,0.065552,0.17619,-0.049813,-0.051617,-0.028698,-0.052928
-0.0031922,-0.19738,0.12427,0.10672,7.2601e-05,0.010029,0.0035001,0.0095236
0.071528,0.092502,-0.28817,-0.14847,-0.012701,-0.014645,0.0044433,0.0091493
0.038155,-0.17222,0.84829,0.24443,0.044202,0.038595,0.020959,0.031947
-0.002304,0.14839,-0.13572,-0.075903,0.02203,0.037165,0.013968,0.0077201
-0.066121,-0.041195,-0.48091,-0.2123,-0.071499,-0.057764,-0.039965,-0.03995
0.002318,0.10027,-0.27932,-0.13382,-0.0096745,0.011821,0.015418,0.014073
-0.02408,-0.2659,0.52698,0.18377,0.012544,0.011674,0.0082524,0.0058296
0.03402,0.11557,0.25626,0.11718,0.042517,0.012154,-0.0067741,0.0056859
-0.018846,0.023995,-0.64507,-0.10474,-0.028625,-0.033655,-0.01405,-0.017612
0.012667,0.020731,-0.13383,-0.1125,-0.020781,-0.0165,-0.0057951,-0.0094372
0.042795,-0.066367,0.0073586,0.12694,0.058459,0.032176,0.033561,0.022292
-0.03758,0.067889,0.70791,0.12999,-0.001861,0.010568,-0.0054282,0.0071289
0.021829,-0.028554,-0.35322,-0.096008,-0.022317,-0.0034733,0.0021622,-0.00037357
-0.059942,-0.088687,-0.31162,-0.068412,-0.018986,-0.010216,-0.014038,-0.015946
0.053307,0.16234,0.17054,0.069407,0.031017,0.013552,0.0084589,0.022863
-0.021008,-0.10237,0.49754,0.071974,-0.013475,-0.018241,-0.016235,-0.03235
0.029814,0.15708,-0.32061,-0.02488,0.0033571,0.011576,0.0057562,-0.0017844
0.0028235,-0.097958,0.47336,0.034102,-0.020291,-0.014055,-0.0035051,0.0053592
