-0.04893,-0.0021816,0.0042955,0.0077813,0.022206,0.039355,-0.012382,-0.13156
0.0099581,-0.0072767,0.010927,-0.023569,-0.033155,-0.055096,-0.044962,0.20939
0.023811,0.050198,0.03291,0.015569,0.028951,0.061469,0.054532,0.092041
-0.0082008,-0.072384,-0.031203,-0.015544,-0.0023748,-0.0093112,-0.072719,0.28771
0.13148,0.046626,0.00626,-0.0075847,-0.002153,-0.064208,0.058369,-0.41662
-0.081918,-0.092759,-0.073232,-0.046457,-0.040764,-0.032796,-0.051552,-0.31939
-0.11834,0.079974,0.074302,0.032005,0.022312,0.061569,0.074469,0.21917
0.13079,-0.0051822,-0.01969,0.032621,0.015078,0.0079554,0.022345,0.011588
-0.13942,0.02707,0.019911,0.010186,0.01553,0.032819,-0.02091,-0.066447
0.048042,-0.010571,-0.0022082,-0.011827,-0.023318,-0.035946,0.053212,0.32204
-0.01674,-0.063365,-0.039301,-0.010042,2.6934e-05,0.020093,-0.10792,-0.0094145
0.08171,0.10297,0.072454,0.0075803,0.015238,0.020914,0.049366,0.033697
0.071476,0.019492,-0.003182,-0.021664,-0.03231,-0.057182,0.00091734,-0.1498
-0.16328,-0.11867,-0.071193,0.011389,0.013767,-0.0033597,-0.05036,-0.15361
-0.066958,0.016494,0.0088209,-0.0028087,0.013038,0.0027884,-0.033786,-0.34517
0.16547,0.096887,0.072689,0.029392,0.0047832,0.016236,0.18436,0.57982
0.072767,-0.080448,-0.051444,-0.024832,-0.026421,-0.032918,-0.22273,0.10522
-0.1194,-0.14807,-0.090021,-0.040403,-0.02575,-0.0036208,0.027608,-0.31637
0.02523,0.17547,0.089917,0.045318,0.0537,0.057589,0.053871,0.25994
0.036543,0.0074273,-0.003714,-0.0096976,-0.0069192,-0.0053867,0.10693,-0.056541
-0.031909,0.011638,0.043131,0.021249,0.018725,0.02614,-0.031682,-0.21065
-0.087029,-0.054602,-0.050953,-0.041454,-0.02594,-0.019953,-0.057638,0.095654
0.058666,0.15171,0.088767,0.03656,0.022786,0.012236,0.075013,-0.057638
0.03082,-0.081205,-0.045803,0.005208,-0.038539,-0.057305,-0.033451,-0.043227
-0.11472,-0.13685,-0.064214,-0.010634,0.00080921,-0.0022178,-0.095367,-0.054103
0.021881,0.046908,0.017957,-0.0032714,0.0079657,-0.010019,-0.049496,0.27091
0.074764,0.07169,0.044796,0.011618,0.0064879,0.021018,0.09542,-0.16897
0.013598,-0.11664,-0.069016,-0.012789,0.004462,0.013053,0.049835,-0.030599
0.065244,0.092205,0.0054479,-0.021626,0.0022671,0.013269,0.048134,0.16055
-0.10663,-0.019376,-0.0044257,-0.006807,-0.023117,-0.024985,0.036119,0.088803
0.1454,0.057573,0.042635,0.0085456,0.022442,0.038987,-0.27437,0.34419
-0.12532,0.058383,0.060983,0.03251,-0.0014009,0.001943,0.10226,-0.62366
-0.045244,-0.23508,-0.098007,-0.028536,-0.0164,-0.027018,0.11265,-0.12193
0.079774,0.13048,0.041545,0.012833,0.0086301,-0.0013918,-0.17161,0.043742
-0.047865,-0.024881,0.0019899,0.0078789,0.0031271,-0.015303,0.094176,0.13967
-0.12364,0.079394,0.086712,0.034241,0.029188,0.032518,0.19173,-0.1446
0.10278,-0.042043,-0.088371,-0.010224,-0.030864,-0.029947,-0.23845,0.28746
0.077395,-0.0074694,-0.063295,-0.047936,-0.013461,-0.0073495,-0.025225,-0.061406
0.027603,0.072744,0.067728,0.030102,0.041934,0.038016,0.24425,0.12333
-0.07707,-0.10677,-0.046698,-0.026218,-0.0055309,0.0049193,-0.13464,-0.055854
0.068659,0.02409,0.023911,-0.013559,-0.038664,-0.059375,-0.022804,-0.11488
0.0042069,0.043816,0.023029,0.013886,-0.0025304,0.0095609,-0.030937,0.16371
-0.1375,-0.093602,-0.039976,-0.013513,-0.0060503,0.016679,-0.042793,-0.26882
-0.028431,-0.074456,-0.015137,0.02215,0.021668,0.048025,-0.051019,-0.015968
0.088958,0.10253,0.02845,0.0042866,0.010901,0.0019655,0.31941,0.084717
0.10488,0.094624,0.060206,0.026988,0.0090086,0.011086,-0.25136,0.50104
-0.12183,-0.058596,-0.037069,-0.019109,-0.030603,-0.10463,0.16713,-0.50158
-0.037083,0.0098815,0.024988,-0.0015136,0.017091,-0.0018062,-0.21319,-0.39136
0.19448,-0.013293,-0.036129,0.0010717,0.011233,0.045801,0.1791,0.37956
-0.11509,0.09708,0.043627,0.011381,0.0060728,0.037948,-0.12363,0.093599
0.010599,-0.10589,-0.042031,-0.018133,-0.0067467,0.0057631,-0.089126,0.056411
-0.014213,0.08729,0.041512,0.021418,0.0034856,0.0039569,0.11158,0.13578
-0.12642,-0.12124,-0.05031,-0.026417,-0.018336,-0.045421,0.32283,-0.10559
0.12024,-0.083355,-0.083298,-0.044312,-0.017742,-0.024863,-0.31447,-0.16773
0.0003912,0.068535,0.044563,0.0072258,-0.01034,0.0035599,-0.097097,0.10574
-0.055092,-0.03177,0.037346,0.035075,0.0040888,0.0012567,0.11547,-0.12057
0.025077,0.14049,0.044706,0.01647,0.025895,0.046777,-0.0050861,0.13107
0.13991,0.0085149,-0.025863,-0.0011446,0.016399,-0.015843,0.056577,-0.32504
-0.15581,-0.09067,-0.017068,0.013829,-0.00064491,0.024417,-0.074904,0.23197
0.051604,0.10139,0.079611,0.014588,0.014019,-0.012273,-0.17346,-0.10993
0.11299,-0.024498,-0.040196,-0.030305,-0.033313,-0.016878,0.16651,0.088312
-0.097496,-0.062327,-0.040588,-0.027483,-0.0020946,0.010135,0.35045,0.36642
-0.065032,-0.028231,-0.031245,0.0069472,0.005954,-0.0098568,-0.3569,-0.041503
-0.0011247,-0.00097782,0.026421,0.017815,0.00628,0.00082597,0.082683,-0.20687
-0.0076366,0.018774,-0.0087661,-0.018727,-0.024706,-0.028446,-0.089224,0.04842
-0.11591,0.053856,0.06575,0.022032,0.022277,0.034985,0.025555,-0.30865
0.2209,-0.060321,-0.055266,-0.016316,-0.0090506,-0.0041844,-0.041592,-0.10796
0.10419,0.019541,0.0026823,-0.00099542,-0.0014779,0.0026269,0.022276,-0.038864
-0.2555,0.019635,-0.0030277,0.0055543,0.013802,-0.014662,-0.047911,0.35734
0.18799,-0.060299,-0.0024196,0.011279,-0.010022,0.014526,0.092008,0.24175
-0.14434,0.16246,0.090253,0.016367,0.01304,-0.003306,-0.011036,-0.38165
0.059131,-0.030673,-0.0375,-0.0102,-0.010728,0.002362,0.0019287,0.35768
0.047767,-0.10795,-0.072921,-0.029077,-0.003184,-0.0073882,0.067615,-0.013443
0.07926,0.017433,0.039213,0.030377,0.020066,0.030029,0.1773,0.20478
-0.17398,-0.090813,-0.02062,-0.026787,-0.011257,-0.018156,-0.11499,-0.39503
-0.038843,0.053061,0.014164,0.002925,0.0044715,-0.003484,-0.14517,-0.25622
-0.03698,-0.0027722,-0.035141,-0.012982,-0.03422,-0.043126,-0.25607,-0.037461
0.036771,0.10979,0.051027,0.027256,0.02121,0.042624,0.22607,-0.12102
0.0045899,-0.13243,-0.078443,-0.040405,-0.024472,-0.035289,-0.17275,0.22196
0.024006,0.13719,0.084191,0.057261,0.039691,0.074677,0.26107,-0.021862
0.29072,-0.028021,-0.0086007,-0.00050098,-0.012948,-0.04161,-0.048413,0.40574
-0.02397,0.0027533,0.0013591,-0.011195,0.0049131,-0.0092707,0.10301,0.19711
-0.30425,-0.0071282,0.073447,0.016651,0.022663,0.015278,0.035388,-0.3659
0.080906,0.08086,0.002893,-0.0035744,0.0086998,0.0084168,-0.049755,0.11154
-0.026505,-0.19572,-0.11013,-0.056743,-0.06074,-0.037828,0.0090634,-0.16671
0.0050409,0.03755,-0.0086476,0.020996,0.0094323,0.0092508,-0.041136,0.024598
0.034343,0.015534,0.01822,0.011016,0.023847,0.040262,-0.14842,-0.0039249
-0.016533,-0.025941,-0.044411,-0.00030905,0.013896,-0.0072096,-0.08044,-0.44073
-0.084287,0.040241,0.0079895,-0.0045008,-0.020095,-0.0079827,0.25557,0.55904
0.027487,-0.072648,-0.018119,-0.032053,-0.046423,-0.055556,-0.17943,-0.1101
0.061985,0.10619,0.089952,0.034911,0.021337,0.0144,0.03727,0.019681
0.051026,0.023415,0.021065,0.0015534,0.019534,0.022415,0.031918,0.05188
-0.021113,-0.054991,-0.052213,0.008664,0.0030944,-0.023603,0.11831,0.029862
0.055715,0.07345,0.041909,0.0091913,0.018894,0.071582,-0.054051,-0.49358
-0.032296,0.040083,0.044834,0.026111,0.019819,0.010841,0.16398,0.25378
-0.036618,-0.047616,0.0021923,0.0041173,0.0054547,-0.026525,-0.16463,0.13764
0.096233,-0.050864,-0.095192,-0.041774,-0.032488,-0.033127,-0.0161,0.038116
-0.11085,-0.033487,-0.037517,-0.033868,-0.031913,-0.017133,-0.022715,0.11466
-0.1653,-0.042836,0.010518,-0.011359,-0.00085074,0.01346,-0.15246,-0.24114
0.059186,0.038758,0.025463,0.010326,-0.0095823,-0.011624,0.017504,0.18824
0.12717,0.0016612,-0.015556,0.016043,0.0046612,0.017243,0.12878,-0.092391
-0.029302,-0.050781,0.0055957,0.022045,0.042311,0.022357,0.096071,0.076879
0.091949,0.062914,0.011841,-0.0023023,-0.0055277,-0.019223,-0.033791,-0.19909
-0.11696,0.0081477,0.0040349,-0.0018676,0.0021722,-0.013277,-0.027328,-0.1276
0.078757,0.12919,0.068536,0.023513,0.0031385,0.040549,-0.042576,0.19428
-0.040462,-0.082211,-0.021347,-0.027883,-0.033884,-0.029451,-0.0038741,0.13161
-0.086037,0.044466,-0.00064616,0.0075475,0.023674,-0.0045736,0.17197,0.011715
0.001532,-0.094287,-0.042268,-0.011487,-0.027758,-0.017888,-0.064432,-0.21964
0.17967,0.046279,0.01668,0.015828,0.061257,0.055184,-0.12889,-0.014046
0.26527,0.019004,0.042351,0.010674,0.008885,0.042257,0.087441,0.43553
-0.43965,-0.16168,-0.13,-0.050897,-0.083803,-0.10405,0.038571,-0.41493
0.087023,0.050766,0.046338,0.033999,0.03289,0.022107,-0.35915,-0.25776
-0.16206,0.0006688,0.024836,-0.01582,-0.00046658,0.014249,0.13198,0.37072
0.081042,0.033078,-0.02964,-0.012493,-0.019602,-0.033895,0.26573,0.074338
0.023343,0.056005,0.040244,0.021128,0.014982,0.010671,-0.14972,0.096817
-0.025621,0.11041,0.063772,0.023261,0.010116,0.02328,-0.0024438,-0.061003
0.0016059,-0.11443,-0.059575,-0.013178,0.021119,0.035597,0.17741,-0.15666
0.093579,-0.1093,-0.047778,-0.017234,-0.021742,-0.04571,-0.14192,-0.14333
0.1592,0.048623,0.013633,-0.0040638,-0.00083914,0.014093,0.02975,0.34604
-0.2071,0.023862,0.030925,0.010945,-0.0096674,-0.011289,0.095654,-0.24331
0.07137,0.11325,0.066258,0.035597,0.022126,0.018919,0.060167,0.0025829
-0.094556,-0.129,-0.076285,-0.039727,-0.014996,-0.020249,-0.38457,-0.18998
0.1422,0.02287,0.016606,0.011109,0.0036351,-0.019487,0.095042,0.17828
-0.043631,-0.033731,-0.054265,-0.023382,-0.0083612,0.0054133,0.013456,0.21527
0.04641,0.0985,0.069826,0.028091,0.018841,0.046402,0.14418,0.051493
-0.20066,-0.11282,-0.056892,-0.014704,-0.0011517,-0.021803,-0.12887,-0.11295
0.041241,0.081281,0.0419,0.027488,0.0094244,0.034886,0.094564,-0.015799
0.0061989,-0.046662,-0.040093,-0.025287,-0.027769,-0.049401,0.019697,0.10543
-0.0074939,-0.012967,0.017536,-0.0090418,-0.034652,-0.032632,0.039162,-0.37655
-0.020532,0.08032,0.011822,0.021659,0.051394,0.092968,-0.025073,-0.0096572
0.205,-0.079562,-0.018015,-0.034457,-0.019394,-0.094383,-0.054663,0.39411
0.00096663,0.10892,0.10001,0.041762,0.034533,0.053948,-0.041179,-0.17902
-0.16829,-0.10404,-0.079346,-0.022677,-0.028717,-0.024283,-0.05483,-0.015273
0.10612,-0.030556,-0.016991,-0.016426,-0.0057842,0.0071067,0.22433,-0.22861
-0.18204,0.0018279,-0.033184,0.013945,0.017529,0.015483,-0.11855,0.27767
0.10048,0.13443,0.075307,0.045156,0.025623,0.0087155,-0.18617,0.20095
0.046641,-0.046069,-0.035093,-0.032178,-0.051887,-0.036713,0.13726,-0.28613
-0.025022,-0.031098,0.0030357,-0.0072687,0.0036009,0.00399,0.022039,-0.23882
-0.038944,0.0081531,0.02588,0.0337,0.035658,0.075852,0.31822,0.29424
0.18945,-0.091812,-0.067915,-0.034546,-0.010578,-0.040172,-0.24886,0.56854
0.079232,0.028772,0.0030004,-0.032561,-0.025867,-0.031809,0.023307,-0.26182
-0.41091,0.11226,0.082322,0.031675,0.0053415,-0.03196,-0.21662,-0.40111
0.077162,-0.060207,-0.041122,0.001833,0.012738,0.037576,0.079364,-0.18471
0.13713,0.018845,0.0229,0.0029129,0.012023,0.020793,-0.00083425,0.23359
0.020107,-0.018317,0.00046881,0.011524,0.0033378,-0.019457,-0.025134,-0.032787
-0.18593,0.038625,0.00049436,-0.019148,-0.036568,-0.02028,0.032222,-0.39314
0.09967,0.025044,-0.00079006,0.020317,0.033142,0.049917,0.032284,0.34423
-0.01127,-0.07507,-0.019107,0.0049326,-0.013891,-0.019585,0.092828,0.11135
0.061286,-0.089965,-0.093341,-0.0497,-0.029068,-0.0099919,-0.060287,0.35311
0.04487,0.042998,0.042558,0.020433,0.018943,-0.030828,0.27418,-0.21524
0.017486,0.035092,0.029797,0.019955,0.020737,0.073837,-0.10171,0.24401
-0.092305,0.0039157,0.01742,0.0035005,-0.00040578,-0.032372,-0.29233,0.10639
0.26837,0.11389,0.099689,0.017923,0.017744,0.056325,-0.042163,-0.51777
-0.33223,0.0058666,-0.043371,-0.022678,-0.018914,-0.1058,0.124,-0.30515
-0.15372,-0.062266,-0.028798,-0.016635,-0.0091854,0.035648,-0.059599,0.086393
0.35739,-0.051487,-0.059728,-0.018463,-0.008084,0.011815,0.032975,0.15878
-0.15866,-0.11816,-0.050349,-0.0045187,-0.015835,-0.060046,0.036247,-0.13784
0.040774,0.08129,0.038183,0.017574,0.014344,0.039021,0.030348,-0.01574
-0.11359,-0.0080714,0.0024315,0.024493,0.012188,0.028039,0.04057,0.46121
-0.011023,0.050861,0.052907,0.0084217,0.0013078,0.008854,-0.0020158,-0.092792
0.18569,0.1872,0.11875,0.031733,0.036667,0.052023,0.075244,0.16036
0.04779,-0.17789,-0.081886,-0.038602,-0.037632,-0.060999,0.053829,-0.24119
-0.057109,-0.006104,-0.07302,-0.023134,-0.010257,-0.033151,-0.20703,0.02717
-0.035352,0.030065,0.051203,0.015463,-0.0058021,-0.012678,-0.20766,0.13216
0.011045,-0.014974,-0.076514,-0.016619,-0.00045613,0.039695,0.12969,-0.22065
-0.08256,-0.094159,-0.01844,-0.017732,0.0060662,-0.024257,-0.15634,0.011427
0.066163,0.12133,0.069713,0.020135,0.0060953,-0.00907,0.52745,0.099874
-0.027394,-0.070509,-0.0066387,0.0034753,0.0073986,0.030602,-0.12435,-0.1107
-0.14444,-0.051145,0.018882,-0.0050123,0.0019123,0.016491,-0.0032898,-0.2574
0.13711,0.094801,-0.0015468,0.026002,-0.0029891,-0.012674,-0.11811,-0.0067057
-0.0028085,-0.076974,-0.020694,0.010499,0.0077532,0.020746,-0.10233,0.20211
0.060857,0.10591,0.016176,-0.0048804,0.0022884,0.030262,0.051602,0.17891
0.031018,0.026176,0.0229,-0.0048374,-0.012097,-0.093991,-0.077805,-0.15134
-0.038122,0.058216,0.022518,-0.013131,0.0033141,0.038297,0.10417,0.23495
0.08719,-0.056711,-0.016643,0.0090886,0.0015591,-0.0026036,0.17706,0.21
-0.14046,-0.12426,-0.087078,-0.039769,-0.032786,-0.013313,-0.30294,-0.12193
0.052119,0.0032855,0.022061,0.012365,0.010118,-0.016757,-0.022041,-0.10292
-0.15519,-0.049403,-0.0093793,0.0018185,-0.0097121,-0.0044645,0.19238,-0.24655
-0.011754,0.069353,0.014262,0.0072259,0.025615,0.047665,0.1059,-0.15065
0.061428,-0.038455,-0.015972,-0.0021438,0.015166,0.015149,-0.094844,0.011304
0.14336,0.1902,0.1112,0.028813,-0.0093743,-0.00018703,0.07295,0.21682
-0.031009,-0.080204,-0.025944,-0.0012431,0.0068489,-0.045271,-0.21304,-0.32029
-0.024124,-0.076129,-0.044714,-0.014204,-0.014411,0.027989,-0.040795,0.15374
0.046319,0.084988,0.038886,0.02093,0.020222,-0.0075278,0.095765,0.30645
0.038743,-0.042748,-0.088222,-0.036906,-0.014801,0.027218,0.078394,0.18702
-0.14173,-0.006998,0.010774,-0.00076008,-0.010719,-0.016808,0.23505,-0.055348
0.0039405,-0.042952,0.022682,0.0037957,0.00064143,-0.022836,-0.34752,-0.18681
0.0065183,0.075285,0.04065,0.015311,0.011026,0.00898,-0.0034535,0.29941
0.084961,-0.019832,0.0017509,-0.005664,-0.018881,-0.038412,-0.011471,-0.26908
-0.017588,-0.023559,-0.0082567,0.010964,0.012447,0.02287,0.084464,-0.20394
-0.14329,0.03337,0.018565,-0.0051445,0.0036091,0.021481,-0.072253,-0.36198
0.10042,-0.04342,-0.073574,-0.022571,-0.0060145,-0.018593,-0.065499,-0.2705
-0.15173,0.091076,0.044234,0.037148,0.015237,0.028077,0.12903,0.49674
0.2111,-0.12426,-0.033238,-0.036464,-0.018141,-0.017977,0.073193,0.76352
0.0098733,-0.031887,-0.023607,-0.0085066,0.0036146,0.046335,0.17896,-0.32039
-0.037083,0.017553,0.011682,0.012151,-0.012959,-0.0058242,0.068098,0.0091699
-0.024992,0.10254,0.04998,0.03374,0.033851,-0.057701,-0.46627,0.13858
0.13755,0.089902,0.076027,0.009651,0.0034214,0.0073967,-0.021404,-0.016485
-0.13825,-0.091766,-0.074384,-0.036598,-0.01845,0.0015169,0.16568,-0.6817
-0.066158,-0.03007,-0.042524,-0.003552,-0.016385,0.018083,-5.4289e-05,-0.035277
0.015499,0.0073853,0.022123,-0.0008595,0.0014951,-0.021188,-0.065279,0.14462
0.027098,-0.028232,-0.0067269,0.0023352,0.011429,0.008719,0.01061,0.25384
0.093256,-0.013514,0.010236,0.0055728,0.0053125,0.0064062,0.19888,-0.020495
0.0038333,0.10527,0.087491,0.024017,0.014174,0.0033951,-0.16153,0.35434
-0.083059,-0.086116,-0.072634,0.0025799,-0.0011719,0.031268,0.010531,-0.11097
-0.1726,-0.0010821,-0.032965,-0.027767,-0.025106,-0.018997,0.10045,-0.44399
0.13664,-0.021103,-0.02769,-0.020264,-0.018458,-0.037688,-0.10868,0.078082
0.050635,-0.019377,-0.0014761,0.017344,0.0033448,-0.0010754,0.024699,-0.0487
-0.029951,-0.033022,-0.00023866,-0.0084606,0.017115,0.0051201,-0.030699,0.2414
0.13832,0.15067,0.086474,0.019868,0.030917,0.0357,-0.010169,-0.25255
-0.038235,0.017367,0.0018338,0.001181,-0.0019164,-0.010911,0.15498,0.54067
-0.013777,0.036524,0.020008,0.0061888,-0.010935,0.013586,-0.13105,-0.2543
-0.14961,-0.16682,-0.085178,-0.042916,-0.035142,-0.031686,0.0045581,-0.20138
0.090897,0.055251,0.053503,0.041558,0.003573,-0.0064203,-0.0026173,0.13497
0.017751,-0.048167,-0.032939,0.0096545,0.034834,0.042181,0.064799,0.080944
-0.15247,-0.0016373,-0.032424,-0.029348,-0.019582,-0.0033417,-0.0046952,-0.232
0.21932,0.084286,0.054553,0.018091,0.019904,-0.0025202,0.078338,0.20355
0.062098,-0.057134,-0.014674,-0.012364,-0.018687,-0.041301,-0.16138,-0.11173
-0.24894,-0.044036,-0.029556,-0.011622,-0.010441,-0.010164,-0.16719,-0.1059
0.0216,0.091616,0.025273,0.012265,0.0055278,0.013027,0.0084907,0.11375
0.055045,0.075985,0.040333,0.012269,0.021391,0.020776,0.28962,-0.24763
0.0096311,-0.051878,-0.015566,0.0039737,-0.001892,0.0055552,-0.095893,0.38153
0.0045157,-0.0181,-0.001581,-0.012536,-0.017389,0.022236,0.12566,-0.15498
-0.0055528,-0.11867,-0.042356,-0.005812,0.0062326,-0.015086,-0.10136,0.1571
0.035136,0.038308,-0.004634,-0.006828,-0.0090602,-0.020594,0.064785,0.041729
0.064383,-0.069171,-0.020769,-0.0074678,0.0071289,0.013276,0.035504,0.12064
-0.043202,0.083691,0.058053,0.00034277,-0.0076491,-0.0075458,0.050286,-0.054583
-0.077596,0.052552,-0.010156,0.016758,0.0091022,-0.013076,-0.39304,-0.51728
0.092822,0.048699,0.024556,0.018336,-0.005189,0.027652,0.063672,0.1305
-0.064399,0.01707,0.0056299,0.0049032,0.019651,-0.026179,-0.07966,0.10105
-0.10493,-0.027749,-0.012776,-0.0082336,-0.010313,-0.0027769,0.3576,-0.25124
0.040911,-0.0091122,0.023372,0.0097805,0.029721,0.074455,0.10373,0.35844
0.1385,-0.13176,-0.097519,-0.043001,-0.047908,-0.091224,-0.21423,-0.15247
-0.069881,0.0013206,0.030263,0.0050097,-0.0011018,0.008207,-0.062976,0.24172
0.048923,0.060975,0.039189,0.013059,0.013902,0.044868,0.082676,0.14314
-0.035846,0.038911,-0.016158,-0.010989,-0.018413,-0.035687,-0.065095,-0.23851
0.020115,-0.049184,-0.026279,-0.0044269,0.01151,0.016746,-0.091602,-0.0074427
-0.032657,0.11752,0.079445,0.033058,0.017941,0.0069887,0.13594,0.13769
-0.021847,-0.085149,-0.026681,-0.0075676,-0.006745,0.0054155,0.25753,-0.032849
-0.095629,-0.10149,-0.086353,-0.016631,0.015705,0.0042101,-0.36857,-0.17759
0.097552,0.13202,0.072797,0.0060655,-0.00059619,-0.012298,0.029694,-0.50058
0.06516,-0.032139,-0.0097238,-0.0097306,-0.055675,-0.044172,0.17746,0.24854
-0.013815,0.00053049,0.010204,0.021841,0.03007,0.041345,-0.043683,0.28203
0.04715,0.089899,0.046917,0.022464,0.037771,-0.0057961,-0.11895,0.22648
-0.049908,-0.068466,-0.047846,-0.023743,-0.032697,-0.0059485,-0.13466,-0.05733
-0.0090799,-0.10735,-0.063059,-0.0311,-0.0095566,0.0017766,0.1749,0.18924
-0.018465,0.043401,0.03253,0.015816,0.021199,0.040755,0.17739,-0.18186
0.0078184,0.016232,0.0044455,-0.00028403,-0.018551,-0.021895,-0.11083,-0.18606
-0.14062,0.09186,0.063408,0.014367,0.011877,-0.022175,-0.048257,-0.21353
0.099804,-0.11324,-0.087811,-0.018232,-0.0045927,0.016447,0.05355,-0.12275
0.027339,0.056336,0.050299,0.011494,0.0024872,-0.023193,-0.1873,0.42351
0.041831,0.037173,0.031839,0.0022112,0.0020034,0.030863,0.13628,-0.29999
-0.011833,-0.030961,-0.034437,-0.0068036,-0.005937,-0.016562,-0.0063341,0.31701
-0.10957,0.054398,0.046228,0.015853,0.0099671,0.0065601,0.041468,0.01667
0.20181,-0.17582,-0.11719,-0.031316,-0.028434,-0.040263,-0.040659,0.19636
-0.10161,0.11441,0.068919,0.031346,0.027187,0.030527,-0.057858,-0.24746
0.065247,-0.027445,-0.028144,-0.015032,-0.010855,-0.015494,0.059327,-0.035909
-0.10331,0.0089502,0.0060838,0.0012417,0.013452,0.048069,0.098801,0.11016
0.016827,0.037359,0.031583,0.0018377,0.0061107,0.033455,0.028032,-0.24793
-0.012412,0.004463,0.033462,0.041266,0.029426,-0.020564,-0.31823,0.1165
-0.1834,-0.11971,-0.065642,-0.052451,-0.057317,-0.067342,0.2701,-0.45133
0.29311,0.11117,0.016218,-0.0058694,-0.01187,0.0024113,-0.0042118,0.54323
-0.03556,-0.052325,-0.017275,0.0014484,0.01755,0.01693,-0.12528,-0.029805
-0.051725,0.038302,0.01392,0.0087901,-0.0077676,-0.023491,-0.029779,-0.019533
0.034109,0.054447,0.031784,0.016434,0.014154,0.029999,0.12732,0.098893
-0.16064,-0.059527,-0.034149,-0.02223,-0.010051,-0.0018646,-0.027531,-0.04957
0.23902,0.038853,0.034464,0.025798,0.013629,-0.0093939,-0.16485,-0.15402
-0.17343,-0.081515,-0.052058,-0.011302,0.02277,0.03877,0.146,-0.04552
0.078178,-0.0079182,-0.0054184,-0.016451,-0.021834,-0.021578,0.069409,0.053356
-0.022256,0.031968,0.040744,0.0022722,0.0044817,0.020131,0.019057,0.20106
0.12644,0.00614,0.023139,0.028854,-0.0081225,-0.01631,-0.1467,-0.035646
-0.22593,0.047085,-0.012006,0.023784,0.025794,0.048248,0.21134,-0.13563
0.10041,-0.016953,-0.0025988,-0.036796,-0.034824,-0.091308,-0.10362,0.1741
0.058956,0.017681,-0.011233,-0.0047583,0.0050611,0.01794,-0.069362,0.2313
-0.18562,-0.012204,0.017027,0.0025803,0.0047563,0.0088756,-0.06932,-0.67873
0.12517,-0.15239,-0.11258,-0.04595,-0.01997,-0.03224,-0.048744,-0.034534
-0.039329,0.090453,0.030391,0.021798,0.0093256,0.035711,0.20402,0.068948
0.11808,0.0063968,0.040461,0.010908,-0.0085066,-0.0054858,-0.11455,0.098755
-0.097984,0.025807,0.035459,0.02338,0.020703,0.016485,0.03589,0.22314
0.11667,0.0082909,0.0079323,0.012722,0.019166,0.023742,0.039288,0.19325
-0.14501,0.070799,0.020405,-0.0051718,-0.0051058,0.0084736,0.037008,-0.21206
0.045696,0.072111,0.049186,-0.0067334,0.0026173,-0.045169,0.013681,0.37656
0.078509,-0.12914,-0.093621,-0.023204,-0.012445,0.026509,-0.0074368,-0.16598
-0.062794,-0.10392,-0.033358,0.007843,-0.019222,-0.034714,-0.10495,-0.4263
-0.0033574,0.045899,0.011095,0.0081784,0.013333,0.0051946,-0.060689,0.43977
-0.12562,-0.0077411,-0.006962,-0.0066734,-0.00090162,0.0054136,0.17166,-0.51784
0.047837,-0.045657,-0.055821,-0.036792,-0.030809,-0.026264,-0.15833,-0.09718
0.15096,0.12025,0.10732,0.034948,0.025089,0.027495,-0.027552,0.11834
-0.1041,-0.032969,-0.024766,0.0053507,0.010498,0.010707,0.12622,0.25156
0.010226,0.018301,0.0092086,0.022758,0.034761,0.025251,0.068301,0.33352
0.041402,-0.030951,-0.017342,-0.014529,-0.034966,-0.022317,0.017088,-0.13549
0.0051133,0.068466,0.051375,-0.020744,-0.026839,-0.045817,-0.074664,-0.48421
-0.044447,0.049774,-0.012031,0.0039344,0.020054,0.03302,-0.0744,-0.027815
-0.022295,-0.096062,-0.028922,0.028108,0.027586,0.034535,0.049119,0.33749
0.039088,0.08312,0.069974,-0.010808,-0.019834,-0.049172,0.046235,0.095157
0.060309,-0.1631,-0.098963,-0.034681,-0.020569,0.0082674,0.042666,0.16318
-0.061247,-0.0062677,0.018571,0.026908,0.025491,0.034698,-0.28091,-0.050442
0.048808,0.015572,-0.053857,-0.028983,-0.037787,-0.032713,0.029683,-0.39659
-0.086107,-0.010081,0.0046766,0.016624,0.0084469,0.00099497,0.30338,0.19603
-0.00445,0.051334,0.054504,0.01551,0.023611,-0.012952,-0.31107,-0.012258
