0.0017175,-0.037724,0.043037,0.015089,0.020622,0.0057694,-0.0041496,0.0064247
0.028652,0.081021,0.030585,0.033378,0.0066637,-0.00034719,0.012799,0.0087228
-0.030777,-0.10343,-0.052089,-0.018054,-0.014771,0.0013665,-0.009288,-0.020272
-0.083187,-0.1067,-0.095802,-0.045786,-0.028192,-0.012642,-0.015776,-0.033925
0.07434,0.10239,0.063528,0.020183,0.028773,0.02005,0.016755,0.022309
0.01211,0.086186,0.019876,0.0077354,-0.0080473,-0.025582,0.0023764,-0.015641
0.0037495,0.00070129,0.02359,0.010479,0.0097019,-0.0088895,-0.0042087,0.00076823
-0.028531,-0.084116,-0.049995,-0.018508,-0.019608,-0.0079433,-0.018625,-0.0064221
0.0016113,-0.020341,0.025853,0.0067318,0.013332,0.016363,0.013779,0.0098105
-0.030441,-0.066451,-0.092745,-0.046568,-0.016562,0.017149,0.0069855,0.018268
0.055263,0.19082,0.12496,0.055994,0.023409,0.0099569,0.01556,0.026674
0.00097981,-0.054121,0.06876,0.033136,0.0081064,0.0024396,0.00029693,-0.0042668
-0.060643,-0.052154,-0.098372,-0.037111,-0.0079305,-0.013423,-0.023311,-0.035808
0.065327,0.078758,0.059973,0.0091766,-0.0013857,-0.0065777,-0.0006531,0.01768
-0.0044465,-0.06812,-0.042997,-0.023452,-0.0035616,-0.0083938,-0.0020365,-0.0080584
0.034183,-0.0006473,-0.048289,0.013368,-0.0065901,0.0045816,0.019521,0.035431
-0.06137,-0.015189,-0.041586,-0.013138,-0.010286,-0.0065342,-0.029536,-0.1094
0.052536,0.069051,0.0092708,0.006589,0.016911,0.013284,-0.01614,0.034529
-0.030052,0.089663,0.1604,0.041621,0.0050936,-0.0058251,0.052158,0.06162
-0.074045,-0.25601,-0.15679,-0.071682,-0.021862,-0.0086839,-0.0041127,-0.019618
-0.023707,-0.067384,-0.065631,-0.02818,-0.0088679,0.0051471,-0.0051307,-0.01329
0.083085,0.21215,0.193,0.07096,0.020932,-0.0030951,-0.013368,0.010635
-0.018237,-0.064491,-0.083318,-0.00056205,0.0051616,0.0057418,-0.0054628,-0.010324
0.047983,0.15007,0.066348,0.022949,0.029691,0.02369,0.026243,0.032882
0.00053694,0.081915,0.063188,0.0085525,-0.0072908,0.0034834,-0.0043903,0.0068102
-0.11436,-0.26252,-0.14083,-0.059662,-0.043663,-0.03982,-0.035069,-0.105
0.13949,0.0053575,0.038913,0.013258,0.0060801,0.010314,0.01215,0.11844
0.057268,0.047294,-0.0081263,0.023848,0.016535,0.020458,0.0043245,0.012283
0.01217,0.13457,-0.032677,-0.020317,-0.012601,-0.0020428,0.011701,-0.072446
-0.091037,-0.0078954,0.0041657,-0.0099462,0.03571,0.012904,0.034286,0.043785
-0.16727,-0.11533,-0.0065793,-0.015289,-0.041648,-0.059621,-0.068472,-0.091899
0.0099956,-0.06275,0.0061635,0.026317,-0.010142,-0.0083006,0.031692,-0.02574
0.02747,-0.11506,-0.0036472,-0.0021374,0.036727,0.065922,-0.00096436,0.11815
0.19901,0.064804,-0.058891,-0.014624,-0.025761,-0.023704,-0.0021494,-0.018626
-0.13001,0.071652,0.051353,0.01222,0.0057455,-0.018632,-0.002878,0.017935
0.034053,0.093599,0.12319,0.039043,-0.0014566,-0.012036,-0.01857,-0.052787
0.0047531,0.13053,-0.0089398,-0.0049554,0.038519,0.058883,0.021227,0.081993
0.071574,0.11128,0.098289,-0.003206,-0.0073585,-0.0090507,0.022802,0.00031905
-0.046929,-0.37168,-0.26031,-0.073524,-0.061311,-0.028734,-0.013916,-0.079472
-0.046746,0.14138,0.0855,0.057032,0.055942,0.030405,-0.018801,-0.064306
0.0087011,-0.17048,-0.060325,-0.018023,-0.0075363,-0.0043405,0.0078699,0.037145
0.0091383,0.11502,0.068319,0.029567,-0.00199,-0.016605,-0.0045507,0.044229
-0.061699,-0.03179,-0.018977,0.020653,0.010053,0.0085861,0.05296,-0.020602
0.10846,-0.030147,-0.014618,-0.036023,-0.0024228,0.0083825,-0.10117,0.15425
-0.097351,-0.087759,-0.07123,-0.053294,-0.038916,-0.032818,0.10309,0.052455
0.016796,0.13453,0.033706,0.001447,-0.012782,-0.036505,-0.10005,-0.31069
0.029869,0.20956,0.17846,0.027913,-0.0013507,0.0057945,0.023691,0.064935
0.0052335,-0.26764,-0.15042,0.027047,0.050799,0.071428,0.09152,0.062792
0.021681,0.1557,0.055487,0.0070594,0.0035473,-0.01074,-0.06051,-0.089488
-0.037701,-0.061518,-0.072161,-0.016715,-0.017954,-0.013607,0.044372,0.1016
-0.087207,-0.2587,-0.090936,-0.014028,-0.0061588,0.00056624,-0.054474,-0.050126
0.044269,0.25504,0.15898,0.0057073,0.014831,0.023889,-0.13793,0.065781
0.16021,0.27978,0.20383,0.0796,0.0050065,-0.029912,0.12253,0.012477
0.017006,-0.016642,0.062173,0.049434,0.07269,0.073059,0.18043,0.07922
-0.050768,-0.18371,-0.19178,-0.070765,-0.04868,-0.050478,-0.15917,-0.085756
-0.044049,-0.38607,-0.29448,-0.14908,-0.10191,-0.064909,0.018098,-0.076634
-0.17401,0.010716,0.0043576,0.025468,0.030042,0.014046,-0.076592,0.012359
0.08339,0.11968,0.10583,0.047606,0.019402,-0.00096841,0.064763,-0.030082
0.034224,0.18796,0.06927,0.028475,0.0075896,0.023171,-0.0030344,0.014601
0.086628,0.11923,0.0019469,-0.006287,0.011284,0.0086915,-0.029975,0.15417
-0.14024,-0.0038866,0.026723,-0.023235,-0.023124,0.002717,0.015046,-0.11136
-0.12915,-0.33484,-0.13315,-0.036243,-0.024462,-0.0025279,0.030123,-0.063326
0.1832,0.041022,0.055991,0.088455,0.046781,0.023985,-0.016557,-0.084846
0.28882,0.23916,0.11744,0.046151,0.073353,0.089625,0.046124,0.30007
-0.00092393,0.42772,0.40786,0.046795,-0.023432,-0.14211,-0.10303,-0.06569
-0.32064,-0.68734,-0.45246,-0.12227,-0.049188,-0.0076655,0.05073,-0.089375
0.03863,0.091843,-0.023941,-0.0022092,0.018448,0.055104,0.10041,-0.014129
-0.034089,0.29985,0.14874,0.045583,-0.032438,-0.05542,-0.12629,0.073462
-0.031835,-0.45672,-0.31379,-0.097646,-0.015006,0.051637,0.097179,-0.037639
0.05331,0.26689,0.086191,0.028232,0.00020871,-0.021661,-0.064636,0.098469
-0.0042476,0.15219,0.15347,0.024823,0.0056377,-0.032486,-0.07172,-0.13413
0.039199,-0.49235,-0.20332,-0.028911,0.0018979,0.027597,-0.047795,-0.23368
-0.09598,0.12733,0.0041957,0.01687,0.0054404,0.026241,0.11789,0.098569
0.068032,0.04766,0.062049,-0.023679,-0.014147,-0.012925,0.067178,0.13756
0.086459,0.25727,0.31856,0.11664,0.084433,0.027173,-0.12887,0.15741
0.013646,-0.11635,-0.23838,-0.068761,-0.018746,0.028966,0.12366,-0.10794
0.012523,0.18484,0.08065,0.014515,-0.011115,-0.015891,0.027378,0.027409
0.13615,0.14324,0.010191,0.0071427,-0.017885,-0.045434,-0.082827,0.2329
-0.32808,-0.34627,-0.18557,-0.060136,-0.02382,-0.020994,-0.013029,-0.33797
-0.045515,-0.077102,0.1236,0.03052,-0.037192,-0.067738,-0.030291,-0.00012973
0.13953,0.0013945,0.051793,0.05144,0.043129,0.072227,0.028247,0.002765
-0.085173,0.019099,-0.10711,-0.037515,0.01367,0.039789,0.060263,-0.095097
0.086027,0.15441,0.082014,-0.010646,-0.0008091,-0.031897,-0.082869,0.10588
0.0060964,-0.13907,-0.11656,-0.032523,0.0073652,0.076233,0.0054855,-0.0092348
0.0046226,-0.16411,-0.062456,-0.017315,-0.0087334,-0.010607,0.0058698,-0.0079419
0.043736,0.19149,0.14353,0.058675,0.02123,-0.034511,-0.018071,0.050073
0.022573,0.00099297,-0.10649,-0.030599,-0.051093,-0.073611,0.044246,0.11237
0.074075,0.18867,0.16581,0.05142,0.040067,0.036092,0.029805,-0.07754
-0.22402,-0.14261,-0.10044,-0.046255,-0.033217,-0.017985,-0.013806,0.035264
-0.0052655,0.085274,0.11159,0.043976,0.02616,0.060942,0.0074535,-0.042129
0.026284,-0.1758,-0.11162,-0.044885,0.0075106,0.022779,-0.078426,-0.092376
0.010321,-0.021673,-0.035759,-0.00035506,-0.042049,-0.070083,0.064018,0.085952
0.14917,0.35776,0.26835,0.091468,0.041759,0.0087982,-0.003387,0.0068798
0.0047862,-0.28179,-0.16875,-0.043042,0.0012943,0.032738,0.054584,-0.12765
-0.11833,-0.074391,-0.12888,-0.028981,-0.0070724,0.0094468,-0.090784,0.11926
0.037881,0.12832,0.075189,0.00092299,0.0010986,-0.014255,-0.0023472,-0.0022951
-0.04145,-0.10215,-0.079768,-0.070222,-0.02106,-0.030546,0.054199,0.00048366
-0.073891,0.0099347,0.070879,0.02366,-0.0032898,-0.015915,-0.11627,-0.04327
0.07485,-0.21224,-0.12057,-0.037268,-0.016027,0.021953,0.080332,-0.0074379
0.015686,0.37485,0.29965,0.12232,0.042089,0.005078,-0.027506,0.030811
-8.0796e-05,-0.10154,-0.15262,0.0024544,0.0067141,0.027334,0.052627,-0.084236
-0.096658,0.039392,-0.032362,-0.014419,-0.0053072,0.0028596,0.02386,0.1083
0.25729,0.19586,0.16735,0.031916,0.013477,-0.013634,0.17501,0.11549
-0.056128,-0.20399,-0.14855,-0.054804,-0.0075648,0.009091,-0.34589,0.006333
-0.18676,-0.12363,0.0028279,-0.009933,-0.029579,-0.014917,0.070041,-0.32247
0.027539,-0.034804,-0.05176,-0.021752,-0.013556,-0.030956,0.063024,0.19752
0.037729,0.14543,0.092983,0.010889,0.0015643,-0.015532,-0.04687,-0.068202
0.013626,-0.046369,-0.047665,0.0021015,0.023866,0.047071,0.12314,-0.058408
0.11764,0.052171,0.018821,-0.00074614,-0.0009793,0.00069476,-0.090813,0.20283
-0.018393,0.14345,0.074654,0.018791,0.028959,0.017271,0.014735,0.24691
-0.097694,-0.31136,-0.19907,-0.032072,-0.026648,-0.0047629,-0.044125,-0.51899
-0.11162,0.0013386,0.027328,-0.0040093,-0.019198,-0.010787,0.061234,0.0084164
0.082122,0.18472,0.10681,0.048914,0.020056,-0.00092017,-0.004656,0.19859
-0.0064491,0.021868,0.048097,0.0019078,0.0050082,-0.014372,0.0085792,-0.031869
-0.10937,-0.34496,-0.22675,-0.043711,-0.025587,-0.012237,-0.086331,-0.11807
0.28317,0.45255,0.28949,0.067664,0.029447,-0.010294,0.085667,0.13714
-0.15575,-0.25703,-0.084094,-0.016416,0.0056613,0.04599,-0.038045,0.0081069
0.050602,0.31518,0.20564,0.039086,0.019951,-0.0076078,0.0031985,-0.02873
0.034107,-0.2221,-0.28806,-0.086821,-0.037175,0.0084356,0.084029,0.16612
-0.04301,0.036656,0.051142,0.01186,-0.0015313,0.00022156,-0.038127,0.0048569
-0.058101,-0.049573,-0.065796,-0.023975,-0.028996,-0.008911,-0.027659,-0.13966
0.1818,-0.10553,-0.13786,-0.037309,0.0060061,0.0044702,-0.048822,-0.27721
0.026436,0.12766,0.16487,0.058895,0.018213,-0.037637,-0.023533,0.19236
-0.3532,-0.24672,-0.12424,-0.038881,-0.01518,0.013471,0.032674,0.0028018
0.027538,0.23434,0.20763,0.045311,0.0078358,-0.021507,0.01838,0.19333
0.12314,0.025935,0.0053171,0.046322,0.056153,0.068831,0.089956,-0.16499
-0.056449,-0.11283,-0.067171,-0.02036,-0.026684,-0.0041073,-0.026009,0.014871
0.06149,0.044905,0.090501,0.024221,0.016612,-0.021168,-0.040532,-0.062866
0.11192,0.34979,0.21058,0.046084,0.0056155,-0.036769,0.014984,0.11828
0.010344,-0.23922,-0.15475,-0.073294,-0.06047,-0.050831,-0.10182,-0.058461
-0.031764,-0.20926,-0.32024,-0.069478,-0.0026539,0.10838,0.069873,0.11771
-0.030412,0.0069736,-0.068581,-0.021383,0.014538,0.01863,0.061273,-0.13508
-0.064785,0.07079,0.11552,0.016077,-0.016865,-0.047196,-0.18225,0.010266
0.043417,0.16768,0.1391,0.051056,0.028289,0.004004,0.16755,0.036966
0.089727,0.054519,0.097544,0.045296,0.025409,0.030973,0.056169,0.04549
-0.22373,-0.23716,-0.030496,-0.031377,-0.024924,-0.05272,-0.063033,-0.082133
0.024408,-0.010582,-0.07107,-0.0294,0.010744,0.033933,-0.0022845,0.0053441
0.076302,0.01011,0.040043,0.044396,-0.038853,-0.076196,-0.11283,-0.027784
0.026,-0.094041,-0.1101,-0.020238,0.037702,0.062559,0.035356,-0.024518
0.061397,0.14859,0.033621,-0.012048,-0.009299,0.0054549,0.091014,0.13348
-0.15319,0.12305,0.12717,0.029833,-0.00010508,-0.035921,-0.094128,-0.083656
0.18691,0.025804,-0.025638,0.0034217,0.0026101,-0.0062975,0.018925,0.067644
-0.114,-0.25272,-0.1918,-0.076347,-0.017166,0.024385,0.023551,-0.067641
0.084095,0.082812,0.064526,0.039664,0.018144,0.048389,0.090954,0.081705
0.022691,0.29538,0.24937,0.061469,0.037594,0.01079,0.0015026,-0.093209
-0.11907,-0.36828,-0.30307,-0.08213,-0.06882,-0.034211,-0.042595,-0.17831
-0.0914,-0.044287,-0.0083831,0.0065535,0.010873,-0.016899,-0.081138,0.27907
0.020007,0.2333,0.17916,0.045735,0.049763,0.030924,0.01051,0.051488
0.16896,0.15802,0.14171,0.027349,-0.02257,-0.062966,0.029357,0.028422
-0.010731,-0.36429,-0.22229,-0.048533,-0.034094,0.0060559,-0.070852,-0.15857
-0.049154,-0.027855,-0.029266,-0.017425,-0.015655,-0.027399,0.015548,-0.20597
-0.054595,0.099495,0.011381,-0.0035746,0.048974,0.063693,0.070925,0.17444
-0.080898,-0.080274,-0.074626,-0.037207,-0.019184,-0.016989,0.0025353,0.021209
0.25522,0.52285,0.4343,0.1485,0.054033,-0.01114,-0.024875,0.15459
-0.085291,-0.50116,-0.38845,-0.07022,-0.051044,0.042485,0.090503,-0.081346
-0.11845,-0.031708,-0.086822,-0.035986,0.0020043,0.034569,-0.042147,-0.084412
0.092528,-0.050886,-0.088216,-0.052618,-0.013123,-0.01164,-0.001463,-0.0099782
0.085828,0.42651,0.37422,0.067859,-0.0026633,-0.096498,-0.10842,0.0023359
-0.12376,-0.14717,-0.059089,0.012923,0.025321,0.029582,0.058228,0.078529
-0.013441,-0.055498,-0.046175,-0.022688,0.0078422,0.030308,-0.0019567,-0.093076
0.15082,-0.0286,0.073786,0.045859,0.022352,0.0070282,-0.00011036,0.011442
-0.31074,-0.10207,-0.10193,-0.032964,-0.064743,-0.055913,-0.022145,0.040522
0.14109,0.063254,0.031329,0.035956,0.042646,0.04474,0.041483,0.087381
-0.032673,0.0022018,-0.0073704,-0.014754,8.3115e-05,-0.011085,0.011281,-0.091208
0.15225,0.36763,0.2552,0.024369,-0.013238,-0.035626,-0.018879,-0.059137
-0.023352,-0.58479,-0.55768,-0.1367,-0.052242,0.041635,0.013483,0.072713
-0.0056305,0.12095,0.061967,0.032978,0.047179,0.033279,-0.016801,0.029589
0.071575,0.28282,0.28023,0.11194,0.043153,-0.0060645,0.038436,0.17786
-0.08173,-0.11986,-0.047822,-0.062836,-0.048157,-0.014066,-0.0085879,-0.2013
0.18241,0.065463,0.035346,-0.0054389,0.016133,-0.0065627,-0.025251,-0.15399
-0.40918,0.00016422,0.10467,0.059355,0.018043,-0.030599,-0.0037503,0.0010383
0.074316,-0.32586,-0.28098,-0.077604,-0.041669,0.030964,0.0014404,0.047051
-0.076183,-0.063635,-0.016906,-0.024159,-0.0061058,-0.0014492,-0.11082,-0.021723
0.16502,0.22067,0.2033,0.033249,-0.015442,-0.049454,0.13656,0.11655
0.081336,0.31066,0.051614,0.055981,0.032056,0.0044836,-0.021487,0.048413
0.06499,-0.26233,-0.14533,-0.018727,0.034674,0.059135,0.03262,0.14833
0.0073171,0.054047,-0.0075173,-0.012088,-0.015875,-0.025906,-0.0056222,-0.10082
-0.029435,0.24753,0.3364,0.10577,0.051554,0.030637,-0.026926,0.15825
-0.085382,-0.25807,-0.32838,-0.11205,-0.068602,-0.0058177,0.015253,-0.42805
-0.083926,-0.078498,-0.036638,-0.010823,-0.010016,-0.01068,-0.051459,0.029414
0.051437,-0.024267,-0.040951,-0.029251,-0.01558,-0.015737,0.037991,0.045781
-0.071305,0.009575,0.040147,-0.011768,0.00803,0.0018948,-0.021623,-0.050292
0.15627,-0.018437,0.073861,0.033701,0.021664,0.010516,0.034894,0.21129
0.022785,0.32906,0.1474,0.052894,0.033391,0.0098814,-0.011461,-0.066215
-0.12022,-0.25844,-0.096357,-0.0080492,-0.026554,-0.031241,0.01114,0.0015618
-0.092781,-0.081905,-0.14677,-0.030878,-0.01679,0.012446,-0.029958,-0.0062998
0.17581,0.035274,0.13197,0.048017,0.024472,-0.0069667,-0.0016045,0.097812
0.013983,-0.15979,-0.18715,-0.082867,-0.058198,-0.018496,0.0029119,-0.046228
-0.078145,0.13408,0.015061,-0.016531,0.017118,0.033235,0.007538,-0.072638
0.0086602,0.32609,0.30206,0.099005,0.032075,-0.030884,-0.010689,0.071585
0.063123,-0.14505,-0.099762,-0.017463,0.018001,0.047318,0.042348,0.0099141
0.014533,0.11857,0.019276,0.00095782,0.013689,0.017914,-0.0050165,-0.016428
-0.067068,-0.20525,-0.13191,-0.049422,-0.036102,-0.0099332,-0.019936,-0.1482
0.076166,0.1074,0.20995,0.072883,0.039761,-0.021052,-0.0025337,0.052853
-0.12562,-0.25862,-0.20727,-0.070332,-0.079812,-0.055105,6.7968e-05,-0.12271
-0.046538,0.0071448,-0.041342,0.020364,0.034188,0.035699,-0.020266,0.15511
0.017693,0.083313,0.035266,0.0086931,-0.0015135,0.00076444,-0.0092032,0.099101
0.029205,0.016676,-0.00052842,-0.019482,0.00038942,0.027113,0.040717,0.054415
0.12172,0.09698,0.086752,0.029756,0.024351,0.0050604,0.019802,-0.032945
-0.05598,-0.088801,-0.11547,-0.054206,-0.038706,-0.026454,-0.025328,-0.1709
-0.012055,-0.039724,-0.0042445,-0.02101,-0.016483,-0.01267,-0.0010882,0.085037
0.11183,0.31501,0.23385,0.098353,0.060218,0.023229,-0.0012742,-0.047713
-0.14679,-0.3685,-0.17453,-0.039822,-0.019172,0.0035283,-0.017987,-0.023861
0.1323,0.080823,-0.011375,0.001744,-0.0044328,-0.008758,-0.0041387,0.061266
-0.067952,0.12267,0.10463,0.035084,0.026355,0.01037,0.017144,0.018814
-0.092124,0.068228,0.031004,-0.010721,-0.028481,-0.055739,-0.0006553,-0.011537
0.020673,-0.11478,-0.023081,0.0043709,0.018354,0.051171,0.020936,0.071376
-0.11943,-0.059487,-0.082206,-0.037201,-0.020854,-0.012371,-0.027178,-0.099411
0.16866,0.00035187,-0.013673,0.0051874,0.010001,0.011525,0.0036152,0.094154
-0.043047,-0.11336,-0.074182,-0.01644,-0.0062767,0.021157,0.019613,-0.20588
0.098668,0.14859,0.074465,0.0081983,0.00077346,-0.015055,0.0051162,0.1507
-0.022106,-0.17986,-0.15844,-0.044677,-0.023255,-0.0038179,-0.040047,-0.2014
0.20469,0.29435,0.17564,0.045001,0.015735,-0.015946,0.024514,0.23944
-0.42401,-0.1068,0.032569,-0.0028832,-0.014757,-0.0050259,-0.035836,-0.10385
0.10686,-0.02349,-0.023561,-0.00013733,-0.0051761,-0.01828,0.044287,0.20651
0.061934,0.1449,0.07762,0.037664,0.067877,0.061289,-0.00093819,-0.056593
-0.052286,-0.22112,-0.103,-0.015148,-0.0068175,-0.00071087,0.039306,-0.17566
0.15339,0.14078,0.079941,0.019799,-0.026634,-0.047891,-0.077195,-0.0039263
-0.056822,0.00023907,0.044292,0.046995,0.023432,0.0059463,0.0089975,0.13652
0.058046,-0.0058175,0.020131,-0.013576,-0.021294,-0.018565,-0.0066602,0.11917
-0.21381,-0.20849,-0.30886,-0.14797,-0.044095,0.035146,0.0010104,-0.29917
0.056935,0.12483,0.078095,0.033296,0.017312,0.011086,0.039984,-0.0095589
0.12825,0.19706,0.15646,0.061055,0.014569,-0.0046592,0.00097887,0.035029
-0.022588,-0.19344,-0.026213,-0.0017955,0.00273,0.01918,0.0011767,0.10852
-0.09755,0.081355,-0.022283,-0.0056909,0.0058073,-0.026864,-0.029844,-0.01505
0.014185,-0.16964,-0.093767,-0.042728,-0.022401,-0.017968,0.017112,0.031936
0.071969,0.074093,0.084005,0.021803,0.020313,0.014407,-0.0065989,0.023058
0.022533,0.12986,0.093613,0.03348,0.0016341,-0.015892,0.00041867,0.098784
-0.086153,-0.17026,-0.10793,0.0015768,0.0077686,0.00031227,0.0068301,-0.12401
-0.097228,-0.113,-0.11163,-0.033975,-0.023788,0.0081662,-0.026397,-0.12213
0.13777,0.31738,0.20865,0.051978,0.023883,0.023159,0.01026,0.073208
0.08702,-0.17838,-0.14779,-0.022385,0.0096821,0.021758,0.04673,0.032757
0.015086,0.035614,0.097805,-0.031684,-0.043544,-0.042945,-0.072943,-0.16454
-0.1419,0.077842,-0.042901,0.022498,0.027677,0.016604,0.010899,0.12297
0.020886,0.20664,0.11274,0.021254,0.011927,0.013083,0.04847,0.091607
-0.044608,0.024674,0.10669,0.025533,-0.0051256,-0.045392,-0.030439,-0.17196
0.028065,-0.24625,-0.18234,-0.067336,-0.046917,-0.025588,0.016327,0.21532
0.13718,0.0094603,0.086985,0.04687,0.027465,0.01829,-0.037951,-0.074893
-0.16215,-0.22939,-0.15582,-0.037813,0.01543,0.047647,0.087743,0.18333
0.037241,-0.10526,-0.14291,-0.03914,-0.0041911,0.023791,-0.044331,-0.19825
-0.068159,-0.054676,-0.049662,-0.018079,-0.0072066,-0.0062005,0.0031503,-0.17338
0.030681,0.057352,0.0044887,-0.019726,-0.032004,-0.050139,-0.051107,0.078041
0.10036,0.43539,0.37684,0.1373,0.023448,-0.037918,-0.03512,-0.029718
0.00080351,0.031367,0.017454,0.032383,0.034315,0.053516,0.082593,0.26957
-0.088316,-0.1989,-0.27398,-0.10727,-0.023028,0.020514,-0.025805,-0.21084
0.20749,0.51628,0.35449,0.10103,0.054013,0.026537,0.06181,0.053081
-0.14391,-0.30544,-0.0054226,-0.046633,-0.07911,-0.13216,-0.099764,-0.079096
-0.12789,-0.48512,-0.42014,-0.10624,0.0063483,0.098565,0.044083,-0.0062447
0.059281,0.25663,0.097499,0.030031,0.036013,0.0464,0.024315,0.1299
0.057583,0.34049,0.33148,0.11062,0.016919,-0.054502,0.027981,0.062026
-0.023938,-0.52942,-0.32403,-0.061086,-0.051424,-0.024442,-0.039196,0.014752
0.095964,0.14323,0.050094,0.0062038,0.010545,0.0040339,0.0019777,0.017511
-0.16843,-0.032333,-0.015756,-0.0081793,-4.4896e-05,-0.0076495,-0.044156,-0.24342
0.0034803,-0.08435,-0.090925,-0.041542,-0.012295,0.019267,0.041035,0.044211
0.01035,0.17998,0.084837,0.023985,0.013661,0.0073313,-0.039193,-0.12656
0.12565,0.063954,0.046058,0.0019313,-0.022867,-0.035059,-0.0032381,0.1055
0.107,0.011345,0.030501,0.018485,0.027336,0.040926,0.055632,0.28197
-0.061526,-0.10556,-0.060568,-0.026781,-0.0070594,-0.014589,-0.026134,-0.38359
-0.13021,0.25553,0.17309,0.062344,0.061674,0.048239,0.025334,0.16571
-0.028818,-0.1777,-0.033584,-0.033924,-0.032191,-0.020985,-0.00061464,0.024919
0.039834,0.27362,0.12353,0.051703,0.0078493,-0.035291,-0.01012,-0.024534
-0.21263,-0.61154,-0.44291,-0.1264,-0.060921,-0.0030387,-0.011043,0.28984
0.27729,0.023082,-0.0081796,0.024878,0.018761,0.051905,0.0042697,-0.2603
0.026292,0.34603,0.26181,0.067196,-0.0035498,-0.089433,-0.026891,-0.067743
-0.011499,0.073101,0.099918,0.046548,0.020326,0.049545,0.012461,0.04521
-0.06194,-0.10258,-0.14326,-0.06126,-0.0033946,0.015988,0.036235,-0.039944
0.015941,0.11481,0.024199,0.0011125,0.011405,-0.0099606,-0.0025203,0.043639
0.11276,-0.10263,-0.0066168,-0.047662,-0.020875,-0.019955,-0.025685,0.054469
-0.29523,-0.17524,-0.00016432,0.027157,0.0017476,0.0021207,-0.025391,-0.17779
0.14301,-0.022234,-0.048476,0.0075902,0.0015577,0.0097306,0.0062556,-0.033947
0.043979,0.039415,-0.04015,-0.019386,0.0023059,0.018602,0.045881,0.12072
-0.07754,0.28654,0.18307,0.025462,-0.011488,-0.04956,-0.062758,0.092257
0.019699,-0.2859,-0.20534,-0.036607,0.030421,0.070449,0.070888,0.068592
0.084678,-0.028011,-0.05607,-0.025344,0.0027554,0.034295,0.016972,-0.0055839
0.038274,0.37245,0.3026,0.12958,0.0066259,-0.041458,-0.037212,-0.07709
0.043709,-0.18042,-0.060277,-0.02554,-0.02883,-0.04795,-0.021549,0.10206
-0.047968,-0.15137,-0.11575,-0.054338,-0.018227,-0.02453,-0.0064836,-0.30611
-0.2993,0.009312,-0.030886,-0.0051746,-0.0089029,-0.0024333,-0.023281,0.056198
0.14173,0.32758,0.22231,0.081303,0.061351,0.034263,0.04536,0.1022
-0.028679,0.0096514,-0.015343,-0.015032,0.012772,0.054814,0.035603,0.019406
0.089029,-0.37741,-0.27716,-0.10757,-0.068544,-0.033945,-0.036631,-0.019588
0.18343,0.055961,0.045464,0.030017,0.0052707,-0.0049213,-0.0069693,-0.013615
-0.096206,0.13154,0.1173,-0.0079986,-0.015258,-0.06869,-0.047023,-0.00047383
-0.09317,-0.31868,-0.1142,-0.0017081,0.034532,0.095189,0.046502,-0.065082
0.028572,0.11722,0.010403,0.011429,0.0067853,0.0022199,0.023641,0.16809
-0.012403,0.16452,0.1355,0.040984,0.026986,-0.0041696,0.0014766,-0.02757
-0.021079,-0.053365,-0.078977,0.010433,-0.021727,-0.018158,-0.0045957,0.019217
-0.021187,0.23405,0.034051,-0.008724,0.0092343,0.014527,-0.010498,-0.11433
0.096451,-0.20495,-0.0079097,-0.015896,-0.028585,-0.039215,0.022537,0.21151
-0.074489,-0.07347,-0.048141,-0.018967,-0.01815,-0.031031,-0.061971,-0.24609
0.05977,0.032234,-0.017312,-0.010816,0.0012173,0.039205,-0.0063229,-0.065348
-0.055392,0.19353,0.14485,0.046448,0.013556,-0.023528,0.033236,0.090168
0.025363,0.19367,0.13056,0.04981,0.034098,0.0076786,0.0021169,0.026131
0.020681,-0.24678,-0.063572,0.013406,0.015536,0.047177,0.017652,0.079725
-0.21037,-0.51585,-0.4251,-0.18124,-0.058187,0.016977,0.017475,-0.10723
0.19889,0.19531,0.035723,0.03527,0.015654,-0.012673,-0.029572,0.052073
0.1618,0.4554,0.36431,0.10001,0.041433,-0.002958,0.0093519,0.057989
-0.14272,-0.24294,-0.14286,-0.088532,-0.082601,-0.079241,-0.045461,-0.027178
-0.012146,-0.077217,-0.0086706,0.040396,0.041948,0.054968,0.032497,0.014673
-0.0014272,0.15912,0.10407,0.0578,0.024567,0.01654,0.024414,-0.0048384
