0.0020562,0.03485,0.010156,0.035106,0.0011123,0.0026834,0.01432,0.0042958
0.026143,0.029069,-0.08585,-0.0034838,0.003217,-0.0047015,-0.0089986,0.0041046
-0.0042995,-0.0076595,0.23039,0.013101,-0.002917,-0.011875,0.0065937,0.0042983
0.0042852,-0.020922,-0.27687,-0.03248,-0.0018643,0.0044922,-0.0013731,-0.002977
-0.010805,-0.026618,-0.23454,-0.0075542,-0.0093104,0.0052444,-0.00158,-0.0099967
-0.041912,-0.05621,-0.26954,-0.076271,-0.02517,-0.017491,-0.017369,-0.0090601
0.012456,0.022996,0.022767,0.050384,0.005446,0.0065703,0.0060459,0.0075317
0.0038861,0.031291,0.4458,0.028615,0.012481,-0.00070569,0.0062405,0.0084298
0.010605,0.023394,0.006293,0.0067544,0.011796,0.015364,0.0066765,-0.0064411
0.032751,0.061851,0.26561,0.047105,0.026981,0.015702,0.0073113,0.017557
-0.023293,-0.072057,-0.24621,-0.014685,-0.0044385,-0.015345,0.00022563,-0.021162
-0.0089967,-0.018941,-0.19437,-0.0305,-0.020057,-0.023131,0.00089381,0.0023983
-0.0024429,-0.013156,0.17817,-0.03967,-0.012239,0.0079322,-0.01428,-0.0055005
0.011989,0.023476,0.20742,0.028007,0.0031902,-0.00030254,-0.0063598,0.0098506
-0.0047957,0.0051279,-0.69145,-0.022668,0.0026361,0.014669,0.0011552,0.0094144
0.0096761,0.010097,0.34319,0.050856,0.0016592,0.0060066,0.0082837,-0.0067832
0.0007193,0.007364,-0.34183,-0.024281,0.0081249,-0.010594,-0.0083156,0.00034806
-0.015987,-0.018431,0.68663,-0.0051884,-0.009053,-0.0037821,0.0061972,-0.0082213
-0.0090843,-0.012323,-0.083886,-0.02397,-0.01057,-0.0046847,0.0051257,-0.0011982
-0.0018597,-0.0053135,-0.22128,-0.0097348,-0.011784,-0.0053576,0.0042665,0.0058472
0.0058422,0.0027784,-0.060228,0.037841,0.018783,0.0099435,-0.0040548,-0.0026445
0.0063267,0.019841,0.16493,0.024999,0.018764,0.002239,-0.0041267,0.0046479
0.02307,0.014565,-0.0077746,0.021692,0.011601,0.0028058,-0.0037337,0.0043565
0.0013212,0.018003,-0.041108,-0.0039835,-0.018461,0.0037914,0.0049063,-0.0034573
-0.020026,-0.040472,0.14081,-0.045037,-0.0013456,-0.0027197,-0.0017262,-0.0031227
-0.0021527,-0.020632,-0.58153,-0.00074048,-0.0076495,-0.0090634,-0.00031756,-0.002429
-0.0078414,0.0067885,0.36776,-0.043664,-0.0063962,0.0080312,0.0011662,-0.0013844
-0.0061103,0.0023251,-0.052326,0.0054381,-0.0056038,0.0015356,-0.0052556,-0.0078503
0.018453,0.020329,0.21898,0.04486,0.018064,-0.0052256,0.0036891,0.017137
0.018847,0.037126,0.094267,0.043501,0.0099326,-0.0044959,0.020045,0.0031141
-0.012759,-0.0098923,-0.14636,-0.021696,-0.014256,-0.004083,-0.010974,-0.011057
-0.021586,-0.065999,-0.20675,-0.040821,-0.015253,0.0038791,-0.019094,-0.0021702
0.00036296,0.017436,0.1083,-0.021094,0.0071586,0.0038454,0.011348,0.0061079
-0.0013433,-0.0014521,0.1431,0.030235,0.0062997,0.003708,-0.0054764,0.0057746
0.012638,0.0027454,-0.31981,0.0042346,0.005747,-0.00429,0.00091356,-0.0032736
0.011318,0.030452,0.15111,0.010547,0.013369,0.01112,0.0072802,0.002426
-0.0051034,-0.011713,0.1049,0.02579,-0.0021174,-0.0047676,-0.0018051,-0.0003799
-0.0052652,-0.0063063,-0.11256,-0.036119,-0.017375,0.0026944,-0.0027467,-0.0035277
0.010851,0.015535,0.10211,0.012018,-0.0012958,-0.0055989,0.004547,0.0012885
-0.011509,-0.00089822,0.0080155,-0.0098658,-0.00089468,-0.014045,-0.0033517,-0.016607
-0.0021571,-0.024484,-0.073869,-0.016213,-0.0084715,0.00080539,0.0047342,-0.0019674
-0.00031173,0.038353,0.34092,0.016109,0.014973,0.015562,-0.0025851,-0.0012449
0.0016762,-0.031312,-0.49798,-0.0068343,-0.00088462,-0.00094905,0.0057611,-0.014276
-0.0041589,-0.014851,-0.091167,0.0086619,0.014307,-0.0017696,-0.0094719,0.005622
0.0054851,0.017367,0.34968,0.00018244,-0.017503,-0.0024504,0.0062551,0.057862
-0.0085716,-0.020593,-0.10589,-0.0086523,-0.0024684,-0.0029446,-0.0018289,0.0008798
0.0082567,0.019742,0.1273,0.013645,0.0048282,0.0045697,-0.010286,0.013213
0.024634,0.036829,0.0016245,-0.0029942,-0.0033288,-0.0033741,0.0044054,0.015587
-0.037632,-0.047488,-0.14766,-0.011487,0.0043859,0.012227,-0.0044714,-0.14915
0.03236,0.0088762,-0.05552,0.0039296,-0.0032365,-0.0033882,0.017971,0.21388
-0.03101,0.010438,0.066681,0.0042428,-0.0027585,-0.011223,-0.013997,-0.22326
0.0066858,0.01167,0.13277,0.012847,0.021403,0.019933,0.0091826,0.0089808
-0.0028845,0.0045451,-0.068224,-0.00163,-0.0089541,-0.011477,0.0016957,-0.0099581
0.010738,-0.042348,-0.15335,-0.031552,-0.015803,-0.035094,0.010466,0.17461
-0.0069615,0.011553,0.14332,0.024447,0.0085636,0.019472,-0.042672,-0.029508
0.014505,0.017867,0.072152,-0.0056899,-0.0062629,0.011681,-0.0015947,0.011728
0.0049879,-0.015411,-0.12425,0.010715,-0.0056743,0.0040923,0.047556,-0.091564
-0.035381,-0.025504,-0.054859,-0.012347,0.018084,0.059222,-0.012669,-0.01893
0.034119,0.066035,0.1322,0.011066,0.0024774,-0.096407,0.020564,0.057302
-0.036466,-0.052984,-0.015972,-0.028347,-0.005631,0.021493,-0.032704,-0.035694
0.018492,0.023937,-0.054006,0.017974,0.001587,0.0065553,-0.0086225,0.14612
0.034884,0.0078746,-0.021039,-0.0060781,-0.0070722,-0.00071784,0.022389,-0.12523
-0.034253,-0.015213,0.090534,0.016819,-0.00027911,0.023001,-0.033402,0.016174
-0.0015389,0.0092642,-0.00083125,0.00082247,-0.0013624,-0.0082999,0.027269,-0.04782
7.6559e-05,0.010809,-0.053279,-0.0071511,-0.0023822,-0.016518,0.0015189,0.03387
-0.013926,-0.042065,-0.043674,0.00069748,0.012415,0.014015,-0.0087921,-0.074641
0.050063,0.014454,0.035569,-0.01475,-0.011552,0.013107,0.01227,0.15845
-0.019022,0.016081,0.051522,0.024556,0.011722,-0.026875,0.010288,-0.04718
-0.049417,-0.0061058,-0.042692,-0.014271,-0.011498,-0.011962,-0.045791,-0.034167
0.036907,0.041543,0.0030369,0.0093431,0.012496,-0.0044396,-0.015245,-0.090483
-0.0023125,-0.067561,-0.0064132,-0.021806,-0.010138,0.0036605,0.070666,0.058155
0.012558,0.026004,0.03077,0.0094837,0.014227,0.0045759,0.00090965,0.099663
0.0033699,-0.044847,-0.0023255,-0.0061241,-0.016103,0.12323,0.025335,-0.052029
-0.0064186,0.048149,-0.058551,0.01735,0.00032094,-0.11716,-0.043713,-0.0070026
-0.0089113,0.0082577,0.034209,-0.0060055,0.00092351,0.0018913,-0.042286,0.038229
0.027302,0.038734,0.05738,0.0097483,0.016932,0.011331,-0.048561,-0.019407
-0.053789,-0.032187,-0.082702,-0.0057307,-0.0063088,-0.034391,0.062458,-0.10335
-0.0018872,-0.016909,0.027998,0.0021955,-0.014032,0.013022,-0.013915,0.058488
0.01926,-0.055966,-0.024735,-0.013404,-0.013945,0.028547,0.12071,0.05121
0.0021197,0.030406,0.032258,0.0021138,0.009678,-0.01899,-0.025988,-0.054991
0.071887,0.046936,0.034539,-0.0059663,0.017838,-0.012256,-0.079205,0.22502
-0.068241,-0.045471,-0.049578,0.0092248,0.0027253,0.10362,-0.00010665,-0.12271
0.0035553,0.026489,0.021675,-0.0069915,0.0033336,-0.10869,0.015808,-0.25195
-0.025388,-0.0030534,-0.0098425,0.0079012,-0.011715,0.030706,-0.023746,0.035667
0.040004,0.037453,-0.01147,0.0070491,0.0042974,-0.017115,-0.0093753,0.0088911
0.019774,0.077355,0.087185,0.045171,0.0043564,-0.0098411,0.09028,0.21729
-0.023843,-0.18049,-0.11198,-0.065182,-0.01162,-0.0021003,-0.18555,-0.09526
-0.067648,-0.0096498,-0.030295,-0.011428,-0.020191,0.045147,0.18675,0.20426
0.036594,0.04306,0.020428,0.011236,0.02562,-0.01666,0.035456,-0.23717
0.023082,0.040367,0.048692,-0.004875,-0.014639,-0.0080477,-0.053349,-0.086672
0.024477,0.013863,0.031618,0.026291,0.015495,0.047271,-0.056074,0.13578
0.017205,0.0029903,0.0085857,0.0032316,-0.0087743,-0.061915,-0.027207,0.011118
0.0011696,0.015902,-0.012576,0.0040481,0.014262,0.00013633,-0.099294,0.15156
-0.093979,-0.079961,-0.055585,-0.026063,-0.009086,0.124,0.23579,-0.12668
0.0052542,0.028039,0.011861,0.014262,-0.00073642,-0.17457,-0.021677,0.0020206
0.033406,-0.019458,-0.0062043,-0.0080356,0.007928,0.034432,-0.11367,0.01388
0.029795,0.058699,0.053585,0.031796,0.0010855,0.0092618,0.069221,-0.096888
0.0025549,-0.050187,-0.098482,-0.053946,-0.021485,0.00037979,-0.043489,-0.16984
0.03016,0.083316,0.091749,0.039312,0.018139,0.031587,-0.10845,0.089794
-0.082364,-0.080123,-0.0088952,-0.016554,-0.013,0.0092875,0.20966,-0.085216
-0.022221,-0.017287,-0.025565,-0.010482,0.010031,0.027124,-0.019656,0.099737
0.05456,0.068582,0.034013,0.018701,-0.00649,-0.055886,-0.13319,0.14846
0.007477,-0.0099858,-0.025146,0.0088004,0.0078644,0.072239,0.08699,0.22636
0.055281,-0.010614,-0.014998,-0.016409,0.0064029,-0.049989,0.054372,-0.027186
-0.099023,-0.050167,-0.012952,-0.0097431,-0.026275,0.014492,-0.035924,-0.099986
0.013084,-0.0032451,0.0052199,-0.0022194,0.011624,-0.13298,-0.11327,-0.29358
0.047549,0.0055275,0.016834,0.014088,0.0031116,0.08577,0.14348,0.19198
0.019652,0.070151,0.02249,0.023523,0.010825,0.022557,-0.076883,0.20457
-0.086571,-0.0046509,-0.032159,-0.0053346,-0.0042515,-0.025344,-0.21813,-0.51551
0.0020091,-0.047229,0.024787,-0.025897,-0.018728,0.11435,0.22902,0.031961
-0.011738,0.05133,-0.0022833,0.00054724,0.014129,-0.073665,0.0235,-0.17442
0.15325,-0.022093,-0.0045603,0.011145,0.0003619,-0.050173,0.056419,0.61844
-0.13593,-0.018144,0.025034,0.0056011,0.010038,0.091059,0.022816,-0.2034
0.1051,0.054832,-0.0080239,0.0071645,0.011672,-0.15015,-0.17204,0.28439
-0.076633,-0.084712,-0.049731,-0.031095,-0.026174,0.11653,0.14225,-0.29992
-0.0089306,0.016358,0.0087949,0.0080889,-0.0098589,-0.0076886,-0.028139,-0.034966
-0.019449,-0.024459,-0.028008,-0.023539,-0.009708,0.015889,-0.083111,0.13993
0.0017626,0.043384,0.066418,0.038323,0.013409,-0.047407,0.015401,-0.059108
0.039661,0.040857,0.018829,0.014219,0.01274,0.028805,-0.022039,0.21679
-0.053722,-0.07049,-0.061083,-0.033181,0.0040453,-0.036739,-0.093617,-0.53447
0.081232,0.061343,0.030165,0.021193,0.01088,0.029575,0.18421,-0.048286
-0.016474,-0.094726,-0.035223,-0.01801,-0.021366,0.064049,0.031167,0.56622
0.043419,0.062723,0.0086305,0.013142,0.0010964,-0.17499,-0.067411,0.083888
-0.083452,0.064531,0.06813,0.012909,0.015784,0.15681,-0.16547,-0.50876
0.024045,0.019495,0.01053,-0.0032561,-0.016349,-0.11966,0.26865,-0.10007
0.052675,-0.065171,-0.078216,-0.019835,0.0062978,0.11331,-0.13216,0.32727
-0.15441,-0.088365,-0.018413,-0.0055792,-0.017768,0.020086,0.2179,-0.32
0.066462,0.020026,0.025915,0.00056814,-0.0025175,-0.094555,-0.12667,0.29287
0.097979,0.033552,-0.01546,-0.0089805,0.013083,-0.043283,-0.11908,0.16296
-0.091024,0.0072991,0.02945,0.012934,0.0056634,0.10319,-0.009172,0.12202
0.015336,0.035597,0.027946,0.019714,0.014297,-0.038551,-0.44508,0.16543
0.058033,0.04876,-0.0042704,0.0037578,-0.00014187,0.20268,0.52665,-0.35898
-0.071924,-0.13237,-0.05937,-0.027032,-0.022161,-0.32227,0.14828,-0.47631
0.016447,0.047234,0.034475,0.01323,-0.005073,0.065639,0.25546,0.34603
0.0031388,-0.021773,0.011535,0.0071693,0.011845,0.022165,-0.68377,-0.2858
-0.033485,0.019725,-0.026767,-0.02207,-0.010675,0.031378,0.37655,0.080786
0.10207,0.046189,0.028795,0.018914,0.013138,0.1635,-0.048749,0.38426
-0.058787,0.017837,-0.032845,-0.010849,0.0050622,-0.17509,-0.13975,0.0082094
0.093475,-0.027025,0.0069771,-0.0022671,-0.0036595,0.00032827,-0.04468,-0.26728
-0.13626,0.028168,0.062301,0.021054,0.010509,0.01847,0.29975,-0.30615
-0.052468,-0.051286,-0.030886,0.020029,0.0008957,0.059781,-0.71474,0.43745
0.024745,-0.11688,-0.061532,-0.059893,-0.040019,-0.1405,0.54565,0.26279
0.072021,0.097455,0.025207,-0.0075008,-0.018149,0.0044121,0.16727,-0.003279
-0.027958,-0.040332,-0.028333,0.013511,0.035578,0.096708,-0.38163,0.33897
0.052521,0.056549,0.043562,0.019154,0.012021,-0.027392,0.43652,-0.72173
0.0081047,0.052923,0.0064926,0.0097576,0.012821,0.022554,-0.099189,-0.053944
0.048932,-0.0038296,0.032182,0.016778,-0.0011883,0.027136,0.07927,-0.31144
-0.036644,-0.019799,0.0031846,-0.03005,-0.022481,-0.045921,-0.045336,0.56
-0.014614,0.01266,-0.0026639,0.0097877,0.01884,0.20065,-0.24669,0.04913
-0.080112,-0.10217,-0.094965,-0.020187,-0.010501,-0.19514,-0.32799,-0.49987
0.025487,0.11957,0.11683,0.035985,-0.0015463,-0.069903,0.45612,0.10307
-0.19648,-0.15074,-0.1406,-0.032915,-0.0092659,-0.11906,-0.62458,-0.037793
0.21653,0.10213,0.062733,0.022892,0.020939,0.22034,0.29349,0.6408
-0.038714,-0.051764,-0.022803,-0.03108,-0.035808,-0.089888,0.65872,-0.42628
0.062139,0.059322,0.0093788,0.0082911,0.016121,0.17792,0.06605,0.5199
0.066041,0.036938,0.096942,0.016104,-0.018145,-0.18617,-0.16534,-0.10932
-0.020066,-0.017285,-0.064895,-0.023115,0.025935,0.13109,-0.34323,0.20406
0.028692,-0.0016464,0.070385,0.03142,0.0316,-0.002825,-0.034453,-1.0544
-0.12581,-0.080016,-0.075894,-0.031115,-0.039919,-0.15055,0.061103,0.21835
0.037592,-0.0021662,-0.004339,0.023695,0.014615,0.15616,-0.22448,0.0099637
-0.068951,-0.025701,0.011106,0.0083027,-0.015814,-0.083435,0.20001,0.2164
0.014224,0.13857,0.0014219,0.016345,0.016987,-0.018574,0.099279,0.040431
-0.072738,-0.071898,-0.041165,-0.030443,-0.012343,0.0063148,0.098919,0.014521
0.10794,-0.0010665,-0.022553,-0.022806,0.0051722,0.10018,-0.33837,0.38288
0.033708,0.014729,0.073471,0.0001371,-0.016775,-0.14329,0.18054,-0.14142
0.096424,0.037511,-0.0023872,0.014978,0.038737,0.29966,0.29898,-0.28318
-0.17126,0.090303,0.063059,0.053077,0.015353,-0.27337,-0.48049,-0.017937
0.11487,-0.24115,-0.12808,-0.088521,-0.063409,-0.15049,0.25824,-0.048614
-0.067341,0.082362,0.041724,0.035685,0.0058373,0.099033,-0.038183,-0.36034
-0.068321,0.077036,0.033494,0.027428,-0.0030775,0.07759,-0.041058,0.62333
0.019139,-0.16247,-0.035723,-0.042866,-0.0037722,0.16057,-0.13341,-0.053238
0.047359,0.10713,0.07593,0.059222,0.027581,-0.10538,0.090148,-0.16643
0.14188,0.019692,-0.077299,-0.033528,0.020909,-0.025892,0.33137,0.87476
-0.1345,-0.080311,-0.011513,-0.0087084,-0.015958,-0.047725,-0.15353,-0.53291
-0.10986,0.026067,-0.016211,-0.014886,0.0027016,0.17894,-0.10047,-0.28766
0.082778,0.11181,0.0567,0.01811,0.013974,-0.10539,-0.22161,-0.50395
0.13824,0.0039716,0.035125,0.004203,-0.021729,-0.23008,0.1542,0.026517
-0.22547,0.0057509,0.0049112,0.021399,-0.0033712,0.26523,-0.21536,0.37312
0.1156,-0.095415,-0.11204,-0.03978,-0.0016866,-0.11924,0.40445,0.1681
-0.050731,0.011569,0.028145,0.015896,-0.0090987,0.13313,-0.1028,-0.098117
0.078819,0.021124,-0.004072,-0.014767,-0.0021846,-0.16356,0.21713,0.18724
-0.051831,-0.23101,0.002382,-0.0068276,-0.019811,-0.054274,-0.17339,0.46161
0.18115,0.18536,0.063195,0.03967,0.055562,0.12698,-0.21786,-0.52077
-0.07453,0.060362,0.037714,0.015327,-0.0021907,0.25684,0.46879,-0.039792
-0.14702,-0.010898,-0.011644,-0.0017112,0.0026816,-0.26515,-0.61087,-0.2129
0.034731,0.074533,-0.08495,-0.058235,-0.038821,-0.063528,-0.0011739,-0.071811
-0.027764,-0.096245,0.028774,0.0099841,-0.0092488,-0.044721,0.049935,0.39198
-0.12157,0.032222,0.040684,0.031317,0.044647,0.27488,0.23864,0.0016572
0.028869,-0.21167,-0.17381,-0.06426,-0.033405,-0.059048,-0.045258,-0.51051
0.22214,0.11716,0.065505,0.028216,0.022071,-0.21206,0.42203,0.77043
0.060733,0.14301,0.11855,0.051128,0.031139,0.017371,-0.098379,-0.23779
-0.10389,-0.017996,0.016957,-0.011092,-0.037748,0.073061,-0.20575,-0.49028
0.024017,-0.046736,-0.1454,-0.025738,-0.036443,0.086553,-0.014991,0.30131
0.13794,0.10256,0.17033,0.046002,0.050443,0.088237,-0.33525,-0.37921
-0.36581,-0.14114,-0.091035,-0.046213,-0.02724,-0.00031946,0.20592,0.34937
0.28432,-0.027982,-0.00050787,0.0097624,0.011715,-0.33501,-0.032384,0.4756
-0.25672,-0.033974,-0.0041423,-0.020731,0.01111,0.31959,0.28763,0.071282
-0.028438,0.029523,-0.0088175,0.010589,-0.013302,-0.40988,-0.76042,-0.91959
0.11012,0.015564,0.0085133,0.0021615,-0.01447,0.15043,0.48353,0.31952
0.1833,-0.043104,-0.069418,-0.0067978,0.039052,0.26808,0.18691,0.11913
-0.034242,0.10466,0.14825,0.054287,-0.0088027,-0.078801,0.45343,0.020119
-0.096049,0.037475,-0.087972,-0.056454,-0.017256,0.016864,-0.3726,0.50926
0.053448,0.098874,0.0038303,-0.0027813,0.0059798,-0.093382,-0.58113,-0.26099
-0.17123,-0.087021,-0.013124,-0.018842,-0.032807,-0.011942,0.48227,-0.79206
0.10495,-0.1621,0.010232,0.051717,0.014782,-0.0059065,0.034354,0.27669
0.0066187,0.044169,0.027448,0.021353,0.039262,0.13387,-0.090423,-0.097986
0.05664,0.0072571,-0.03166,-0.016367,-0.0064219,-0.14906,-0.079949,0.26881
0.17627,0.093681,0.035824,-0.022661,-0.0052948,0.27665,-0.13639,0.58578
-0.1271,-0.07176,-0.0050091,-0.013469,0.011188,-0.36334,0.18776,-0.67361
-0.33787,0.09703,-0.022139,0.0031148,-0.027431,-0.014641,0.28622,0.37628
0.23191,-0.45436,-0.0086852,0.0034582,-0.019637,0.11206,-0.65026,-0.31888
-0.2059,0.46169,0.050044,0.026553,0.026831,-0.13112,0.092013,0.0043188
0.24047,-0.14731,-0.073295,-0.036918,-0.028484,0.19392,0.42085,-0.064852
0.17375,0.27247,0.058306,0.047592,0.02558,0.2048,-0.18726,0.31136
-0.10834,-0.21776,0.015058,-0.047792,-0.01389,-0.14521,0.41439,0.071764
-0.10539,0.13829,-0.093325,0.028781,0.048558,-0.02021,0.0040786,0.015139
-0.098795,-0.098077,0.17143,-0.011473,-0.021419,0.017314,-0.66388,0.067017
0.11393,-0.1929,-0.2052,-0.027713,-0.012976,-0.15731,0.032494,-0.88353
-0.0073222,0.2062,0.043718,0.050494,0.011204,0.089558,0.65404,0.36028
0.15338,-0.039137,0.04448,-0.02686,-0.019418,-0.31113,-0.27557,0.18554
-0.20216,0.10594,-0.053426,0.0057127,-0.0034932,0.13431,-0.21505,0.090809
0.088899,-0.23686,0.094364,0.015153,0.019768,0.18503,-0.34041,-0.057263
-0.12282,0.038733,-0.012099,0.0089603,0.019071,0.15428,0.086896,-0.033081
0.084005,-0.29766,0.032908,-0.020997,-0.052395,-0.036203,0.13264,0.043574
0.10765,0.43595,0.11119,-0.00467,0.02428,-0.09839,0.032339,0.0035449
-0.11416,-0.041804,-0.26292,-0.028161,-0.016313,0.075362,0.42477,0.10446
0.028535,-0.20263,-0.082949,0.0022422,0.0057333,-0.12634,0.39881,-0.28164
-0.1354,0.61982,0.11865,0.039741,0.028085,-0.13501,-0.029146,0.44953
0.027691,-0.08168,0.15349,0.014189,-0.011686,0.087148,-0.66341,-0.20046
0.23733,-0.11158,0.067954,-0.019514,0.0035649,-0.046265,0.34182,-0.081537
-0.10739,-0.19487,-0.21612,-0.022083,0.0033889,-0.011461,-0.99226,-0.011086
0.056512,-0.29595,0.036013,0.02231,0.0032194,0.28634,0.43054,0.016012
-0.14558,-0.016132,-0.081108,-0.011169,-0.0049417,0.10645,0.085976,-0.093963
0.20853,0.07834,0.089822,0.0025956,-0.0055926,-0.23689,-0.078097,0.091377
-0.27144,0.12734,0.026543,0.0089829,-0.030007,-0.24979,0.50463,-0.16539
-0.061755,-0.094948,0.066105,0.00019734,-0.015606,0.037979,-0.28826,-0.061627
0.095588,0.099359,-0.13438,-0.015973,0.029954,0.08833,0.065683,-0.0059126
-0.018266,-0.31494,-0.10569,-0.0083371,0.028729,0.049903,-0.40068,0.35724
0.2368,0.86008,0.16003,0.023027,0.019934,0.21885,0.449,-0.041056
0.070802,-0.0096676,0.31863,0.0077165,-0.027596,-0.086194,0.47221,0.2197
-0.040852,-0.2024,-0.41184,0.0003368,0.0033425,-0.031647,-0.43049,-0.19253
-0.1305,-0.358,0.09282,-0.022613,-0.035731,-0.15923,0.71828,0.013707
-0.073772,0.031441,-0.011887,-0.0064732,0.019181,0.19273,-0.71979,0.028059
-0.042474,-0.15016,-0.13273,0.0018947,-0.0038515,0.10079,-0.65227,-0.34144
-0.21544,-0.1338,0.13629,0.033797,0.012332,-0.52921,-0.09013,-0.026664
0.10404,0.48528,0.0060923,-0.0044272,0.013055,0.2802,0.18872,0.27771
0.30035,-0.19777,0.015849,-0.01111,-0.025082,0.10919,0.98229,-0.25315
0.046604,-0.015151,-0.053091,-0.017402,-0.00046797,-0.22698,-0.64208,-0.0046685
0.062078,0.085075,0.12741,-0.03105,-0.014632,0.024576,-0.202,0.28682
-0.21604,0.06137,-0.06774,0.041698,0.033983,0.26469,0.033354,-0.23297
0.023687,-0.15982,0.087868,0.036691,-0.0031189,0.0026337,0.56443,0.15003
-0.11874,-0.0051777,-0.20276,-0.038445,0.022377,0.22303,-0.45713,-0.15765
0.011221,-0.036193,-0.088076,-0.0042963,-0.053763,-0.5203,0.92761,0.65377
0.029216,0.41014,0.15086,0.021633,0.010457,-0.049424,-0.23291,-0.4288
0.082503,0.010735,0.17845,0.0077929,0.027357,0.32093,-0.88481,-0.044925
-0.0093025,-0.22265,-0.067299,-0.014777,-0.011007,-0.27093,0.55691,0.08772
0.12862,-0.37227,-0.054539,-0.01489,0.012503,0.36829,-0.43017,-0.10645
-0.14405,0.16758,-0.087324,0.0075733,-0.019256,-0.18478,0.19739,0.0027952
-0.14688,-0.058838,-0.04787,-0.040845,-0.020201,-0.079289,-0.58354,-0.35727
0.12118,0.28312,-0.029485,0.035579,0.017702,0.036438,0.20705,0.11413
-0.0026875,0.029402,0.23363,-0.0048914,-0.014656,0.022768,0.61341,0.18109
0.053036,-0.26419,-0.032195,0.017819,0.03924,0.22522,-0.39055,-0.13342
-0.023091,0.20114,-0.01509,0.018015,0.0077282,-0.29137,0.78467,0.36499
0.019708,0.06066,-0.020753,-0.019887,-0.023116,-0.13375,-0.19592,-0.17019
0.080343,0.035776,-0.058217,0.0055133,-0.014187,0.18495,-0.23264,0.05246
-0.09879,-0.34746,0.027554,-0.01549,0.0032124,-0.10673,-0.72034,-0.092714
-0.0020277,-0.032056,-0.0066292,0.0026122,0.013323,0.33605,0.21821,0.3598
-0.16067,-0.15691,-0.028573,-0.010937,-0.030931,-0.26801,0.74913,-0.22769
0.097101,0.67736,-0.0071765,0.021611,0.042076,0.18147,-0.31202,-0.055813
0.21649,0.033324,0.10476,0.0062612,-0.010117,0.1667,-0.046188,-0.074347
-0.12299,-0.19127,-0.08267,-0.017997,-0.015905,-0.73692,-0.58645,-0.16098
-0.17162,-0.13044,0.0018647,-0.0041819,0.016664,0.46777,1.0698,-0.050584
0.17171,-0.13702,0.054831,0.0010902,0.024928,0.2783,-0.64257,-0.1635
-0.023291,-0.087046,-0.0085571,-0.0096332,-0.030242,-0.18211,0.13531,0.6828
-0.022997,0.042297,-0.062282,-0.0047178,-0.03942,-0.40649,-0.064845,-0.24293
0.070257,-0.0070292,0.0037939,0.03179,0.013171,0.081764,-0.64908,0.061711
-0.064523,0.24151,0.041652,0.014157,0.034008,0.13498,0.45142,-0.20712
0.040973,0.35041,-0.0033742,-0.034134,-0.023529,0.035589,0.5994,-0.027066
0.0038689,-0.43829,-0.022302,0.019608,0.043915,0.54269,-0.2368,0.34113
-0.034824,0.24245,0.038795,-0.0045472,-0.013488,-0.49882,-0.030193,-0.052106
-0.12115,-0.1934,-0.0086199,-0.013156,-0.023773,-0.025548,0.32114,-0.10996
0.089762,-0.19888,-0.017275,0.016933,0.0052719,-0.19306,-0.153,-0.19597
0.091322,-0.33624,-0.0039186,-0.0082272,-0.0045092,0.17883,-0.18854,0.38254
-0.14673,0.42589,0.046169,-0.0027495,0.0093299,0.035808,-0.60581,-0.21067
0.11828,-0.053493,-0.047235,-0.01339,-0.015766,0.0030713,0.21513,-0.23895
-0.17639,0.34163,0.067359,0.007003,0.0060993,-0.067839,-0.29007,0.013319
0.226,0.21078,-0.14871,-0.011494,0.0046002,0.080631,1.0125,0.083684
0.12053,-0.026751,0.024121,0.033116,0.034442,0.29959,-0.17053,-0.028852
-0.25287,-0.52184,0.047838,-0.0072037,-0.029322,-0.40365,-0.084602,0.17393
0.11129,-0.11188,0.040735,0.00065578,0.00089973,0.032986,0.001947,0.32894
-0.070184,0.35961,0.011566,-0.005664,-0.015395,-0.07033,-0.57795,-0.35152
-0.087496,-0.58173,-0.039037,-0.049639,-0.039006,0.099108,0.64854,-0.30657
0.09052,0.51347,0.029797,0.087266,0.070814,0.10434,-0.85449,0.32672
-0.058531,-0.060569,-0.024236,-0.040619,-0.013988,-0.10855,0.88386,0.081373
-0.032612,0.24054,0.064104,0.019383,-0.004356,0.078487,0.29446,0.27109
0.21008,-0.27414,-0.080695,0.0089934,0.021486,-0.083795,-0.59875,0.046287
-0.053928,-0.49275,-0.013827,-0.064391,-0.03821,0.053582,0.0012062,-0.47179
-0.11069,0.76432,-0.0013193,0.033295,0.042877,-0.11854,-0.28844,-0.42465
0.042395,0.08804,0.0034355,-0.018433,-0.04801,0.22003,0.57154,-0.20854
0.0088289,-0.33931,-0.015356,0.0069499,0.001394,-0.14993,-0.69207,0.50939
