0.010482,-0.052758,0.16804,0.066237,-0.027163,-0.0079226,-0.015665,-0.008936
0.017897,0.15898,0.037909,-0.041837,0.011681,0.0088937,-0.00067451,0.014732
-0.021665,-0.097148,-0.3292,-0.064106,-0.011387,-0.013631,-0.001454,-0.0084164
-0.01437,0.092872,-0.59969,0.015004,0.0051235,0.0025151,-0.0022404,-0.0081665
-0.014811,-0.18501,0.24886,-0.070046,-0.024847,-0.013002,0.0049232,-0.0080406
0.016163,-0.11043,-0.252,0.0403,0.007929,0.0023835,0.0045303,0.0075371
0.00048382,0.1682,0.47698,0.025917,-0.0060753,0.0019266,0.0044603,0.0073132
0.024095,0.057042,0.51529,0.043135,0.011116,0.0092186,0.0047131,-0.00085947
-0.006819,0.032283,-0.30019,0.013732,0.0203,0.00095638,-0.0025876,-0.0012827
0.016992,0.054239,0.1714,0.070234,0.013537,0.016285,-0.0019258,-0.0016807
-0.021819,-0.073222,-0.41402,-0.10807,-0.017084,-0.0072798,-0.0090522,-0.001969
-0.014029,-0.12437,-0.33822,-0.029368,-0.024739,-0.0072784,-0.0084541,-0.0020845
0.0011989,0.1111,0.39086,-0.014215,-0.0016047,0.00058947,0.0076048,0.005814
-0.0074004,-0.07017,0.21138,-0.039166,-0.010101,-0.022815,3.3306e-05,-0.0017236
0.022751,0.027409,-0.19536,0.11479,0.02803,0.016206,0.015724,0.0065021
0.005875,0.0061464,0.25127,0.0027978,0.0035733,0.00045043,-0.0077705,-0.00083735
-0.010942,-0.054732,-0.78948,-0.077721,-0.0051919,0.0080672,-6.1774e-05,-0.00039152
-0.019663,0.049119,0.3415,0.022177,0.0096678,-0.0077688,-0.0079443,-0.0078607
0.018965,-0.0093353,0.17748,0.06847,0.0013511,-0.00012287,-0.0079098,0.00014718
0.011317,0.051877,0.070569,-0.032467,-0.014491,0.0076195,0.015713,0.00018894
-0.011328,-0.017038,0.26938,-0.046384,-0.0066228,-0.00013468,0.00043521,0.00010931
-0.002175,0.14294,-0.3778,-0.004884,-0.0063371,-0.0077546,0.00091429,-3.4102e-05
-0.0082754,-0.25807,0.22589,0.052465,0.0019262,-0.0074482,-0.0063561,-0.0079906
0.0091801,0.013178,0.028285,-0.0077117,0.0024597,0.0085561,0.0019644,0.01535
0.010841,0.14298,-0.20991,0.071902,0.049856,0.016769,0.0023304,-0.00030843
0.01987,-0.010338,-0.20323,-0.060584,-0.02786,0.0015124,0.0024567,0.015327
-0.034251,-0.0021533,-0.023651,-0.10837,-0.019834,-0.029442,-0.0055375,-0.02373
0.01244,-0.043617,0.12614,0.084997,0.01138,0.0020041,0.0017617,0.0074571
-0.043149,-0.09535,-0.20469,-0.08945,-0.020161,-0.0057214,-0.014682,-0.016166
0.010076,0.023127,0.7219,0.064127,-0.005034,0.0098778,0.0077039,-0.00088396
0.039549,0.13324,-0.42566,0.07746,0.033405,0.025357,0.014338,0.022051
-0.016951,-0.052863,0.67746,-0.0022565,-0.0063083,-0.0061774,-0.0024724,-0.0020203
0.0048889,-0.0028374,-0.94883,-0.010874,-0.014714,-0.014441,-0.011357,-0.010547
0.019312,0.018431,0.011747,-0.0032136,0.031678,0.008352,0.011221,0.012166
-0.012663,-0.08255,0.0075373,-0.073306,-0.023371,-0.0081148,-0.0049759,-0.0041182
-0.020735,0.05331,0.37648,0.012903,-0.0080092,-0.0091226,-0.0052187,-0.012448
0.026258,0.073659,-0.0057589,0.036395,0.015216,0.013216,0.0026884,0.010681
-0.035877,-0.11643,-0.077552,-0.049862,-0.0084341,-0.011302,-0.004716,-0.012811
0.02709,0.21608,0.1195,0.035343,0.014747,0.011204,0.011578,0.010839
-0.019354,-0.25046,-0.4733,-0.051695,-0.032454,-0.012897,-0.0031907,-0.004333
0.004359,-0.032691,0.41239,0.095361,0.014023,0.010229,0.0055777,0.011914
0.020015,0.15008,0.36474,0.031289,-0.0098768,0.0024895,-0.0090791,-0.0030239
0.0041186,0.047864,-0.57469,-0.071951,0.036491,0.018546,-0.00036159,0.0054197
-0.0042817,-0.12775,0.011636,0.020114,0.0047132,-0.0041747,0.0004258,-0.0019258
-0.01296,0.054103,0.011634,-0.067365,-0.034869,-0.034516,-0.0067457,-0.017317
-0.0061913,-0.029948,0.0027654,0.017404,0.011537,0.013369,0.0093682,0.006111
0.0083717,0.028196,-0.06813,0.063789,0.0033706,0.0066015,0.001903,-0.0018996
-0.015942,0.035064,0.54475,-0.060674,-0.028037,-0.015789,-0.0056871,-0.017806
0.030457,-0.14058,-0.098565,0.019332,0.01115,0.016504,0.01005,0.036644
-0.02412,0.11169,-0.31962,0.061827,0.011622,-0.0058927,-0.013377,-0.018119
-0.015505,-0.020308,-0.14259,-0.073797,-0.010976,-0.012677,0.0021564,0.0054757
0.056301,-0.0058632,0.11108,0.01066,0.044867,0.042989,0.017585,0.021501
-0.04321,0.028618,-0.41273,-0.068133,-0.024093,-0.018651,-0.013966,-0.024785
0.013839,0.026311,0.42151,0.032795,-0.022721,-0.010187,-0.0065531,-0.008488
0.023991,-0.07789,-0.10558,0.16404,0.0097244,-0.0098325,0.00078305,0.0077626
-0.013103,0.12739,0.13445,-0.050438,0.010566,0.021412,0.0080766,0.0082166
-0.035245,0.0695,0.96206,-0.095889,-0.028125,-0.018032,-0.008065,-0.015032
0.02769,-0.31564,-0.55439,0.10527,0.042059,0.012506,0.014908,0.023913
-0.011825,0.088641,-0.026433,-0.15012,-0.020994,-0.011871,-0.0088914,-0.015553
0.01823,0.11114,-0.52468,0.076062,0.017259,0.018358,0.014329,0.0072792
-0.014664,-0.082289,-0.45206,-0.050976,-0.038259,-0.021647,-0.024774,-0.0090166
-0.024179,-0.0046818,0.043022,-0.02969,-0.007599,-0.0067401,-0.0011807,-0.017404
0.021337,0.011009,0.7462,0.016534,0.023526,0.031925,0.014792,0.021333
-0.002783,-0.055797,-0.14746,0.073418,-0.0072524,-0.022815,-0.015951,-0.0098867
0.020835,0.22684,0.19122,0.063617,0.032868,0.01648,0.015898,0.0061522
0.014058,-0.0070021,-0.6358,-0.04409,0.0030977,0.0090512,0.0086781,0.022503
-0.023323,-0.21037,0.51012,0.0073749,-0.010924,-0.01403,-0.0064803,-0.0078743
-0.021367,-0.087527,-0.017022,-0.095827,-0.025194,-0.0217,-0.0062574,-0.022706
0.0429,0.1484,0.56291,0.14466,0.030239,0.032767,0.017073,0.032454
-0.018484,0.096061,-0.69162,-0.06964,-0.016771,-0.0069573,-0.022455,-0.022276
-0.010572,0.064753,0.62789,-0.036796,-0.025713,-0.023671,0.00020535,-0.01512
-0.0038701,0.0046577,-0.92153,0.00045335,0.011297,0.0061706,-0.0085773,0.014887
-0.0061659,-0.24262,-0.054636,-0.067052,0.00075091,0.0046195,0.0060533,-0.010223
0.029662,-0.13112,0.57115,0.081924,0.021138,0.010953,0.005215,0.011374
-0.0053284,0.54288,-0.12835,-0.043386,-0.013059,0.0019458,0.0046809,0.0018696
-0.040274,-0.49979,-0.46149,0.050824,0.015747,-0.0066078,0.012342,-0.0071748
0.034776,0.10347,0.27248,0.0066525,-0.0015008,0.0010222,-0.010876,0.0079239
-0.0062451,0.036155,0.54754,0.0048326,-0.0021033,0.001426,0.0052463,0.00042298
-0.022379,-0.19803,-0.66395,-0.016707,-0.017249,-0.0054423,-0.0097564,-0.0062479
0.033348,0.27875,0.49047,0.058989,-0.00013052,0.0037495,-0.0013661,0.0033866
0.027972,0.19449,-0.44458,-0.042328,0.010007,0.0054178,0.01465,0.0056216
-0.038888,-0.15421,0.51785,-0.040598,-0.010539,-0.02404,-0.016478,-0.0076955
0.027545,-0.027038,0.23768,0.086293,0.039479,0.016775,0.0068144,0.025582
-0.015508,0.072943,-0.30861,-0.10818,-0.043395,0.0027146,-0.016961,-0.019849
-0.027962,-0.25629,-0.30774,0.031342,0.021784,0.011786,-0.0017398,-0.01919
-0.033649,0.083403,-0.491,-0.050323,-0.023045,-0.018586,-0.0020693,-0.011569
0.05317,0.034714,0.10869,0.037388,0.0094568,0.0053182,0.036847,0.026527
0.013763,-0.052246,0.89135,0.076002,0.02548,-0.0024167,0.0056852,0.0093577
0.0045884,0.29113,-0.0059439,-0.012116,-0.01399,-0.00266,-0.009638,-0.00030489
0.018197,-0.32475,-0.64757,-0.062332,0.00056664,0.012503,-0.0013818,-0.0021601
-0.077769,-0.32774,-0.48806,-0.058488,-0.032191,-0.019313,-0.024327,-0.02718
0.021861,0.56563,0.68137,0.13266,0.0051834,0.003561,-0.0082395,0.018598
0.020647,-0.009822,0.96635,0.06611,0.034822,0.0030708,0.0077766,0.010298
-0.034217,0.11924,-0.77179,-0.10949,-0.021195,0.0026744,0.0080972,-0.013
0.068342,-0.25748,-0.27531,0.0044771,0.024756,0.025775,0.016189,0.026749
-0.023321,-0.22614,-0.23332,-0.11526,0.0086327,-0.0058303,-0.0069791,-0.019047
-0.036072,0.14205,0.28931,0.047105,-0.054011,-0.029737,-0.014517,-0.025587
-0.017261,-0.091675,0.11065,-0.00043634,0.00074626,-0.014777,0.0013707,0.0069241
0.071603,0.33703,0.36991,0.10158,0.047737,0.039013,0.025009,0.031438
0.11278,0.72422,0.04364,0.19687,0.039932,0.0066568,0.0094563,0.032214
-0.18321,-1.0394,-0.99933,-0.27727,-0.077458,-0.033629,-0.037535,-0.068912
-0.011857,0.023853,-0.037134,-0.094584,-0.0154,0.012046,0.0011906,0.0015337
-0.021526,-0.32576,0.53588,0.0414,-0.0082173,-0.012402,-0.0071616,-0.014163
-0.024375,-0.11642,0.40359,0.099037,-0.0011167,-0.013068,-2.4531e-05,0.0013153
0.17541,0.62367,-0.6026,0.046727,0.12322,0.072655,0.046147,0.087153
0.039316,0.69349,0.77668,0.11861,-0.041357,-0.028636,-0.0091469,-0.0065677
-0.15091,-0.88318,-0.20934,-0.20101,-0.07289,-0.043551,-0.040783,-0.068878
0.011364,0.12629,-0.74354,-0.013528,0.0052062,0.019975,0.0060184,0.0017671
0.010726,0.093201,0.14516,0.0017737,0.028866,0.013337,0.01412,0.0021952
0.050371,0.13761,-0.21455,-0.060781,0.044939,0.030103,0.022576,0.041724
-0.05728,-0.24575,0.91117,0.21347,-0.040363,-0.031451,-0.023371,-0.028141
-0.046823,0.0011126,-0.54872,-0.29224,-0.070843,-0.038623,-0.014471,-0.019951
0.057951,0.1097,1.0622,0.17211,0.047166,0.016355,0.017864,0.019364
-0.0012482,-0.23314,-0.48792,-0.026777,-0.014581,0.00068393,-0.0046725,-0.01182
0.056262,0.15394,-0.4981,0.2898,0.095306,0.039423,0.01932,0.042684
0.018957,-0.31141,-0.48976,-0.14515,0.0016254,0.0076503,0.0037876,0.010939
-0.051175,0.43815,-0.41788,-0.16115,-0.069253,-0.024248,-0.020063,-0.02896
-0.037266,-0.29541,0.56229,0.01414,-0.00026182,-0.017145,-0.020934,-0.030119
-0.025295,0.1877,0.63262,-0.088487,-0.049203,-0.025681,-0.0065074,-0.015883
-0.038417,0.32031,0.067868,0.015691,0.0028491,0.020491,0.0077832,-0.0017239
0.12708,-0.28673,-0.10186,0.13254,0.085912,0.051088,0.045586,0.067245
-0.012394,-0.12568,0.5409,0.14671,0.0051177,-0.0041727,-0.0022847,0.0037278
-0.018424,0.25535,-1.2223,-0.1661,-0.028111,-0.012432,-0.026324,-0.028039
0.023922,0.0029774,0.74753,-0.0066731,-0.0055046,-0.028305,0.0047799,0.0033171
-0.025243,-0.22837,0.24477,0.00207,-0.0439,-0.020437,-0.002732,-0.0037034
-0.11855,-0.27616,-0.64624,-0.2165,-0.03374,-0.027768,-0.033296,-0.056913
0.15045,0.24905,-0.18342,0.1976,0.11868,0.090429,0.061431,0.077998
-0.10127,-0.482,-0.28715,0.0017079,-0.040041,-0.025179,-0.031164,-0.044413
0.086649,0.54478,-0.18958,0.18638,0.028615,0.015976,0.0091214,0.028774
-0.013302,0.48336,0.85309,-0.16507,-0.051059,-0.020652,-0.013126,-0.015213
0.050808,0.033749,0.75437,0.1238,0.032651,0.0052967,0.01139,0.026429
-0.05042,-0.51074,-0.99721,-0.20035,-0.033494,-0.02368,-0.018952,-0.026316
-0.044691,0.026317,0.48207,0.13315,0.01558,0.0014867,0.0051896,0.0059489
0.16875,-0.16177,0.29243,0.19288,0.10929,0.080564,0.060356,0.076158
-0.25419,0.057817,-0.59131,-0.52142,-0.18979,-0.091255,-0.064398,-0.12824
-0.00078974,-0.054704,0.37777,0.061756,-0.0062671,-0.0061341,-0.0097041,0.0022493
0.03117,-0.10404,-0.46064,0.022972,0.019878,-0.015481,-0.017758,-0.00087065
0.20205,0.35357,-0.48073,0.24818,0.15503,0.091899,0.07549,0.11276
-0.07297,0.10626,0.010535,0.16243,-0.029751,-0.027435,-0.011226,-0.047087
0.0040095,-0.23028,0.037789,-0.1457,-0.033877,-0.0059879,-0.0044786,0.0043249
-0.042728,-0.35443,0.5409,-0.12771,-0.028834,-0.015375,-0.013623,-0.013964
-0.11885,0.29083,-0.36194,-0.033162,-0.06916,-0.031979,-0.03859,-0.062697
0.12753,0.12694,1.0377,0.0044313,0.048204,0.022407,0.022311,0.053532
0.024617,0.29924,0.29527,0.16314,0.049581,0.030576,0.0052051,0.022223
-0.013611,-0.14274,-0.70235,-0.012306,0.043985,0.023665,0.019682,0.0073629
0.028265,0.15418,-0.45415,0.14773,-0.054934,-0.037565,-0.0043596,-0.0067973
-0.10782,-0.58162,-0.55389,-0.42896,-0.052256,-0.028319,-0.019881,-0.043842
0.023173,0.074849,0.30419,0.14705,0.012656,0.012152,0.0044544,0.0054641
0.069433,-0.074413,1.0458,0.055156,0.069325,0.052462,0.037385,0.047248
-0.12558,-0.17838,-0.43072,-0.1494,-0.085391,-0.071521,-0.054015,-0.067035
0.039357,0.2954,-0.56704,0.16741,0.017367,0.015203,0.0034851,0.014067
0.11845,0.41158,0.1126,0.093121,0.065284,0.03143,0.037734,0.04823
-0.060787,-0.28073,0.71102,-0.073821,-0.058627,-0.030589,-0.014084,-0.027229
0.14158,0.44661,-0.83263,0.097538,0.083289,0.063569,0.035219,0.076529
-0.14233,-0.46831,0.30212,-0.12645,-0.071403,-0.053275,-0.049005,-0.070424
-0.14749,-0.11188,-0.30181,-0.29263,-0.069636,-0.037421,-0.040392,-0.069869
0.078889,-0.41512,0.098089,0.19986,0.072773,0.048526,0.045333,0.054605
0.021104,0.37797,0.79399,0.08399,-0.011689,-0.014334,0.0050384,0.0060709
0.070008,0.29665,-0.32493,-0.032845,0.0046782,0.0082029,0.0028709,0.018969
0.13234,0.29235,0.58837,0.66745,0.15267,0.07693,0.046803,0.070048
-0.23649,-0.15932,-0.85427,-0.82497,-0.23217,-0.12072,-0.081688,-0.14508
0.17535,-0.39395,-0.0078906,0.35581,0.23278,0.11061,0.078626,0.10838
-0.17796,0.16857,0.31578,-0.31377,-0.20236,-0.11164,-0.073471,-0.090967
0.0015475,-0.51482,-0.47039,-0.11369,-0.0058695,0.0019537,0.001468,0.023018
0.0039607,0.17829,-0.80677,0.099191,0.0027651,0.01441,0.0069479,0.013304
0.11911,0.26169,1.059,0.30471,0.09019,0.059066,0.02141,0.036476
0.0035923,0.25659,-0.14134,-0.13443,-0.00037028,-0.0042627,0.013789,-0.0010919
-0.14751,-0.30939,0.51985,-0.035907,-0.11185,-0.073769,-0.047168,-0.091735
0.18059,0.40937,-0.079316,-0.015562,0.11555,0.069272,0.049252,0.076617
-0.052527,-0.88489,-0.6356,0.12164,0.025421,0.010479,0.0057411,0.01891
-0.036095,0.6949,0.15619,0.030089,-0.054775,-0.031978,-0.022042,-0.015707
0.0015074,0.15874,0.29839,0.14424,0.014458,-0.011981,-0.011322,-0.0125
0.082109,-0.14081,-0.20378,-0.18015,0.044249,0.046216,0.029467,0.051176
-0.21729,-0.15578,0.59715,-0.42308,-0.1152,-0.076873,-0.056404,-0.12991
0.14976,-0.1885,-0.13299,0.38164,0.019395,0.03228,0.035514,0.076863
-0.0038552,0.062548,-0.085372,-0.19691,0.025568,0.029699,0.016212,0.015484
0.049593,0.44074,-0.79783,0.52127,0.10647,0.032714,0.0032342,-0.00089818
-0.063043,-0.41087,0.25304,-0.59486,-0.12001,-0.059712,-0.026222,-0.018169
0.0042836,-0.25333,0.4413,0.38736,0.019259,0.0032831,-0.0088238,-0.0038739
-0.050668,-0.018507,-1.0406,-0.35653,-0.020919,-0.019397,0.0016556,-0.011452
-0.05378,-0.052649,0.72978,0.23984,-0.05126,-0.040656,-0.017365,-0.024182
0.16069,1.0854,-0.05882,0.18775,0.078245,0.073338,0.051948,0.075888
-0.14081,-0.54861,-0.064311,-0.30704,-0.061066,-0.043928,-0.055723,-0.085963
0.13523,-0.034749,0.49536,0.02245,0.038839,0.029587,0.034509,0.068118
0.073462,0.020939,0.42662,-0.034856,0.13506,0.098153,0.064288,0.060756
-0.13295,-0.043841,-0.56477,0.066266,-0.11772,-0.096993,-0.061031,-0.070203
-0.056964,-0.20407,0.22923,0.12749,0.036147,0.0053267,-0.014421,-0.029298
0.2753,0.074317,0.14632,0.35578,0.18026,0.12244,0.085829,0.13525
-0.27116,0.030884,-0.85897,-0.73764,-0.29677,-0.16878,-0.10492,-0.15569
-0.017969,-0.22454,-0.08004,0.21808,-0.013384,-0.02536,-0.016876,-0.035424
0.14407,0.80387,-0.30666,0.27435,0.10055,0.083781,0.060873,0.10555
-0.073185,-0.33847,0.73799,-0.30512,-0.0087356,-0.012754,0.0037707,-0.0055067
-0.17574,-0.94037,-0.43135,0.080894,-0.089363,-0.056137,-0.062354,-0.094042
0.096437,0.53779,1.093,0.019499,0.017304,0.017447,0.011969,0.028703
0.089162,-0.17042,-0.63156,-0.12755,0.11835,0.053069,0.032444,0.051348
0.10071,0.35323,0.030527,-0.068135,-0.057791,0.0048835,0.015473,0.029297
-0.095166,0.52299,0.29307,0.37272,0.021063,-0.032853,-0.030762,-0.037312
0.024129,-0.32147,0.0029381,-0.09144,0.034394,0.017854,0.018615,0.015095
0.034833,-0.39095,-0.085869,-0.0057886,0.074653,0.062513,0.053631,0.052691
-0.003044,0.77353,-0.71017,-0.15874,-0.063383,-0.040695,-0.020405,-0.043035
0.11892,-0.072183,0.19933,0.3791,0.047541,0.042782,0.021998,0.046889
-0.29653,-0.67009,-0.64662,-0.54168,-0.212,-0.12584,-0.10137,-0.13954
-0.047158,-0.50836,0.86851,0.09328,0.023631,-0.00058386,-0.0083527,-0.016938
0.24242,0.82787,0.38265,0.43908,0.1679,0.1057,0.058697,0.11787
-0.32463,-0.76574,-0.14167,-0.48162,-0.27873,-0.17391,-0.087412,-0.13292
0.2386,0.10157,-0.33223,0.28417,0.30236,0.17703,0.10873,0.13804
0.16939,0.56359,0.053916,0.010383,-0.047761,-0.0043332,0.023131,0.041412
-0.18576,0.3623,0.53775,-0.1691,-0.1237,-0.091651,-0.077533,-0.10119
-0.02788,-0.31774,-0.32196,0.075298,0.068787,0.025725,0.0030073,0.00037382
0.10513,0.20463,0.3159,-0.17684,0.023447,0.044098,0.054511,0.049979
0.02587,0.64663,-0.32139,-0.0025279,-0.032384,-0.020341,-0.024237,-0.014546
-0.1806,-1.1982,-0.92329,0.075173,-0.059733,-0.0347,-0.037947,-0.076095
0.24196,0.0024332,0.25621,0.52443,0.27644,0.14126,0.098957,0.15396
-0.16931,-0.30871,0.35901,-0.4219,-0.28318,-0.15728,-0.090703,-0.12193
-0.010058,0.39878,0.45246,0.24176,0.13457,0.045288,0.025136,0.032917
-0.039636,-0.17891,-0.30897,-0.31514,-0.10493,-0.041129,-0.030857,-0.046373
0.12384,0.49903,0.14958,-0.26656,0.035938,0.051322,0.021896,0.069199
-0.051137,-0.018917,-0.62428,0.65182,0.040656,0.0251,0.03446,0.011969
0.15462,0.20515,0.35694,-0.41965,0.041847,0.036105,0.014372,0.039532
-0.3283,-0.63492,0.68397,-0.17558,-0.2569,-0.18131,-0.10873,-0.17619
0.14972,0.4731,-0.28464,0.22914,0.14537,0.08408,0.05593,0.068192
0.019436,0.1414,0.23512,0.08521,0.070189,0.043681,0.024266,0.023052
-0.085658,-0.44832,-0.51383,-0.082505,-0.03596,-0.036319,-0.031498,-0.030006
0.16259,-0.51266,-0.85839,0.28162,0.13252,0.07115,0.0374,0.081081
-0.01783,1.0375,0.80703,0.04516,-0.072314,-0.031998,-0.0031778,-0.018757
-0.14399,-0.6365,0.15512,-0.44032,-0.18949,-0.10344,-0.067187,-0.072062
0.31346,0.77731,0.54384,0.16106,0.16348,0.12236,0.087539,0.13153
-0.014544,-0.38309,-0.78031,0.060501,0.079733,0.035783,0.023381,0.02105
-0.43411,-0.75387,0.39524,-0.16311,-0.23045,-0.14477,-0.127,-0.21653
0.1949,0.4135,-0.85394,-0.086631,0.13075,0.096031,0.073766,0.11386
0.0607,0.24368,-0.18493,0.18992,0.022301,-0.007626,0.0084725,0.0046066
-0.10828,-0.32609,0.59603,-0.08987,0.014346,0.0052363,0.0053565,0.0032712
0.073579,0.28886,0.44527,0.15287,-0.080486,-0.060418,-0.036883,-0.021874
0.062622,0.5464,0.20498,0.09759,0.058493,0.038082,0.022759,0.016439
-0.30218,-0.74637,0.14139,-0.23371,-0.12286,-0.08929,-0.0731,-0.11483
0.24703,0.6997,0.038889,0.19547,0.094777,0.081477,0.058738,0.10101
0.15649,-0.91424,-1.1815,-0.0088265,0.1494,0.097655,0.059139,0.086405
-0.19158,-0.20883,0.23503,-0.36587,-0.28688,-0.15784,-0.095321,-0.11969
0.09915,0.56934,0.21489,0.31629,0.114,0.072528,0.04823,0.067884
0.16614,0.68889,-0.63464,0.1444,0.17193,0.092863,0.067419,0.093068
-0.32239,-0.92526,0.88178,-0.49231,-0.21537,-0.14454,-0.093098,-0.13957
0.12234,0.33202,0.29018,0.28113,0.099691,0.062536,0.034739,0.040176
0.029089,0.051145,-0.13071,0.21614,0.092807,0.049269,0.028483,0.029405
-0.23605,-0.4418,-0.19323,-0.40333,-0.21322,-0.13014,-0.08094,-0.12572
0.007069,0.45422,-0.26181,0.16854,0.040734,0.016422,-0.0044689,-0.0033052
0.37749,0.27922,0.012337,0.21722,0.13613,0.090851,0.070727,0.14741
-0.37977,-0.83179,0.08915,-0.21403,-0.14509,-0.10928,-0.073506,-0.15665
0.12905,-0.00082876,-0.35186,-0.29334,0.041893,0.073176,0.032318,0.070443
0.12559,0.60335,0.31382,0.47425,0.018659,0.029794,0.045172,0.064547
-0.091241,-0.1964,-0.056474,-0.25361,0.020808,-0.027702,-0.026571,-0.032585
0.13565,0.41382,-0.092317,0.20258,-0.044451,-0.012883,0.020504,0.053047
-0.28789,-0.76926,0.97214,-0.19025,-0.075063,-0.081895,-0.079253,-0.14738
0.35534,0.83861,-0.061016,0.29908,0.20232,0.13996,0.10351,0.16235
-0.2338,-0.78118,-0.71985,-0.2008,-0.1114,-0.051107,-0.056765,-0.089138
0.043735,-0.04649,-0.45509,-0.24909,0.076373,0.054973,0.02517,0.018785
0.14664,0.66374,-0.029471,0.34527,0.05332,0.035398,0.028332,0.055265
-0.19226,-0.08359,0.56131,-0.038242,-0.18193,-0.14185,-0.079066,-0.089941
-0.043832,-0.25158,0.12038,-0.057853,0.0336,0.022759,0.02298,-0.0031959
-0.1811,0.1047,-0.14099,-0.15138,-0.12101,-0.095825,-0.071831,-0.098503
0.19407,-0.54419,0.51349,0.1591,0.10417,0.080845,0.066381,0.10117
0.25525,0.7511,-0.81953,-0.084506,0.13146,0.10025,0.0708,0.10439
-0.12078,-0.16748,-0.21493,0.035717,-0.022713,-0.021231,-0.026857,-0.04897
0.17684,0.019852,0.16607,0.25845,0.033273,0.053051,0.031714,0.079366
-0.40553,-0.7418,0.91907,-0.42006,-0.20735,-0.14506,-0.10459,-0.1819
0.070066,0.51526,-0.55705,-0.27788,0.0063564,0.0098169,0.0099435,0.011336
0.087963,0.35048,-0.13836,0.68674,0.14385,0.049098,0.02405,0.057619
0.022658,-0.64071,0.016712,-0.18238,-0.0054258,-0.0038479,0.0082182,0.019329
0.013921,0.7507,0.63991,0.48816,-0.0039651,0.0069557,0.0015227,0.005522
0.013789,-0.3012,-0.40373,-0.5233,-0.024021,0.0029329,0.011604,0.015736
-0.072672,0.062186,-0.12288,-0.38442,-0.08191,-0.047741,-0.016581,-0.059939
-0.0043918,-0.25546,0.014687,0.30748,0.094926,0.041807,0.010218,-0.0032751
0.053681,0.39163,-0.80079,0.2761,0.013391,0.0053609,0.0054966,0.029058
-0.023958,-0.59917,0.20801,-0.22249,0.0086636,0.014335,0.0077818,-0.0022447
0.16893,0.76652,0.65432,0.13155,0.080292,0.068498,0.047935,0.090303
-0.19527,-0.34073,0.10322,-0.38761,-0.22488,-0.14459,-0.10075,-0.12275
-0.084289,-0.2924,-0.21843,-0.012839,-0.0080101,-0.015171,-0.0084521,-0.031582
0.018884,0.013148,0.36674,0.34366,0.05198,0.019911,-0.0028617,0.028501
0.076689,-0.17082,0.75279,0.035115,0.073218,0.055228,0.041643,0.05036
0.059229,0.11338,-0.99527,0.10174,0.0097205,0.0056782,0.024194,0.018984
-0.016948,0.1584,-0.96025,-0.1747,-0.01289,-0.010873,-0.023345,-0.033944
0.17659,0.29288,0.44873,0.30734,0.16966,0.0919,0.071308,0.079238
-0.32149,-0.30761,0.17658,-0.42102,-0.28659,-0.17817,-0.11362,-0.16506
0.058112,0.37092,0.58459,-0.10189,0.055221,0.06138,0.03105,0.053025
0.024811,-0.068611,-0.35522,0.023038,0.030188,0.012995,0.01262,0.013997
0.1784,0.51232,-0.42064,0.15784,0.11392,0.089844,0.056958,0.091932
-0.17823,-0.53817,0.24232,-0.094824,-0.1398,-0.099669,-0.071101,-0.081373
0.13307,-0.74611,0.2358,0.18779,0.11992,0.076368,0.057383,0.086868
-0.17007,0.48231,0.52708,-0.033191,-0.15421,-0.10929,-0.081614,-0.12286
0.044679,-0.45069,-0.26959,-0.1413,0.061154,0.022696,0.027202,0.031221
-0.097498,-0.22514,0.17063,0.26802,-0.038435,-0.027677,-0.022449,-0.052456
0.18549,1.021,-0.79506,-0.18259,0.055308,0.060259,0.043135,0.0797
0.23877,0.58098,0.044489,0.44958,0.22584,0.12307,0.076023,0.11605
-0.44372,-0.6183,0.41126,-0.70485,-0.36985,-0.20565,-0.13405,-0.22349
-0.070995,-0.32232,-0.9778,0.055987,0.042439,-0.0031695,-0.0082059,-0.015751
0.27289,-0.081941,0.69734,0.021214,0.22905,0.16881,0.11052,0.16239
0.10513,0.47309,0.28771,0.33293,-0.059329,-0.032766,-0.011613,0.030716
-0.26845,-0.72518,-0.42054,0.087616,-0.15807,-0.11521,-0.085105,-0.12883
0.16043,0.47336,0.52665,-0.344,0.12077,0.08587,0.054341,0.066825
-0.077151,-0.36782,-0.23406,0.22942,-0.035033,-0.038804,-0.022962,-0.04659
-0.0054294,0.30608,0.4216,-0.36051,-0.10201,-0.044016,-0.0047422,-0.00092118
