-0.23538,-0.064423,0.094817,-0.075182,-0.0022673,-0.012268,-0.012091,-0.033419
0.14078,0.13656,0.014692,-0.0017383,0.0041084,-0.0052069,-0.013486,-0.015459
0.34172,-0.16745,0.015843,-0.037677,-0.012898,-0.0056571,0.00098454,0.048987
-0.24202,0.17901,0.045028,0.052016,0.025034,-0.0057476,0.0080337,-0.0044608
0.0381,-0.098929,-0.1003,-0.0054662,-0.014735,0.010162,0.015575,-0.043194
0.42436,0.12966,0.20441,0.0091368,0.00072033,0.018598,0.015824,0.088968
-0.25501,0.15972,-0.04224,0.057045,0.040197,0.035102,0.032168,0.0092817
-0.20297,-0.41651,-0.037556,-0.080497,-0.044769,-0.057623,-0.060496,-0.11017
0.0027228,0.080001,-0.025896,0.018072,0.0035528,-0.0018749,-0.020111,0.035616
-0.1372,-0.030051,-0.11847,-0.030638,-0.0024608,-0.008671,0.0047729,-0.0060734
0.19863,-0.05768,-0.03514,0.014792,-0.0082672,7.6458e-05,0.0062589,-0.023883
0.199,0.21817,0.067632,0.044145,0.0094171,0.032186,0.023358,0.068488
-0.087862,0.058002,0.12802,0.072265,0.019188,0.0017528,0.0091586,0.021274
-0.027959,-0.027837,-0.032328,-0.10456,0.0052736,-0.0052447,0.0026853,-0.017024
-0.26888,-0.31091,-0.154,-0.017861,-0.016825,-0.012216,-0.027364,-0.054332
0.1429,0.1471,0.11608,0.012149,0.0074917,-0.0035318,0.0048834,0.0028355
0.23848,0.087898,-0.072626,-0.068766,-0.039003,-0.0026558,-0.0022029,0.021305
-0.27189,0.017547,0.077105,0.076049,0.03121,0.013793,0.01382,0.0084913
-0.01437,-0.0042506,0.08046,0.0099157,-0.00054602,-0.0089533,-0.0095807,-0.012542
0.36117,0.1598,-0.016756,-0.024233,-0.00916,0.0071321,-0.0099059,0.020414
-0.021735,-0.024769,0.01062,0.083493,0.021125,0.01508,0.020692,0.036878
-0.25803,-0.1072,-0.034036,-0.01046,0.0045039,-0.0086163,-0.0036544,-0.080348
-0.34057,-0.1197,-0.049971,-0.079662,-0.019842,-0.0092915,-0.0047229,-0.01081
0.52754,-0.25685,-0.076263,0.0083007,-0.0049419,-0.018153,-0.0058358,0.027014
-0.27806,0.13988,-0.073001,-0.012748,-0.013232,0.0039717,-0.0068735,-0.0055917
0.14996,0.10507,0.055093,0.036306,0.017817,0.018185,0.015709,0.040153
-0.069995,0.064161,0.075456,0.037801,0.017883,0.0012394,-0.00050807,-0.0073523
0.18027,0.16857,0.044364,-0.00073684,0.0025395,0.0080064,-0.00079688,0.0082976
-0.043959,0.037234,0.02521,-0.087159,-0.020481,-0.01606,-0.00078718,-0.0066277
-0.2817,-0.15775,-0.028984,0.036548,0.0034108,-0.00057137,0.0072856,-0.013172
0.3728,-0.11293,0.029066,-0.051103,-0.01182,-0.0080336,-0.015723,-0.019354
-0.33137,0.15378,0.041127,0.048793,0.0040554,0.016153,0.00039584,-0.041078
0.22181,-0.14163,-0.0030028,-0.014915,0.011916,-0.0062947,0.0086565,0.038512
0.038997,0.091994,-0.082145,0.0627,-0.0038988,0.010354,-0.014484,0.023736
-0.34173,-0.18635,-0.16668,0.0081921,0.0034752,0.0033798,0.016822,0.015786
0.30558,0.45211,0.21151,-0.0068205,-0.0050159,0.0038447,0.016575,0.0534
-0.0035223,-0.53931,-0.17369,-0.037454,0.0097183,-0.027435,-0.023058,-0.051123
0.028305,0.19997,0.069811,-0.045123,-0.014776,0.0032666,-0.00049052,-0.0087032
-0.16042,-0.015699,0.084726,0.0088499,0.0075055,-0.0055355,-0.0093938,-0.061225
-0.076046,-0.043566,-0.064134,0.10085,-0.0092932,0.0010096,0.0050475,-0.020588
0.056551,0.26673,0.086241,-0.065895,-0.0025775,0.015301,0.011746,0.043733
0.19217,-0.17717,-0.032971,0.0011746,0.027751,0.021929,0.010877,0.054555
-0.042844,0.086338,0.00082507,-0.048909,-0.0041524,-0.017997,-0.020838,-0.018505
-0.12427,-0.067748,-0.031186,-0.0045227,-0.020083,-0.018438,-0.005159,-0.0029538
0.02604,0.28194,0.057795,0.033402,-0.0043587,0.0049957,-0.0045363,-0.015749
0.040119,-0.42782,0.016689,0.041843,-0.0038291,-0.0024513,0.0044319,-0.025868
0.041431,0.021006,-0.085361,0.044329,0.020554,0.021589,0.037249,0.036331
-0.21432,0.049709,0.016275,-0.084418,0.006232,0.01445,-0.0078406,0.021389
0.30952,-0.38126,-0.14001,0.061253,-2.6627e-05,-0.024035,-0.0217,0.021845
0.040282,0.69627,0.10956,-0.10539,-0.021801,-0.015864,-0.0045647,-0.010364
-0.23495,0.11742,0.14776,0.157,0.018873,0.0076533,0.012122,0.0019305
-0.025221,-0.45491,-0.22064,-0.12101,-0.018792,-0.0081497,-0.018628,-0.11369
-0.041794,0.21219,0.12157,-0.041411,0.0056907,0.022755,0.012536,0.017743
-0.08871,-0.24995,0.0022744,0.091025,0.0062804,-0.016688,-0.011508,0.013863
0.44491,0.063654,-0.00087343,-0.067201,-0.0092679,0.0064755,0.0031149,0.039555
-0.22008,-0.003981,0.11143,0.039103,0.021538,0.0064177,0.025312,0.048953
-0.010899,0.25804,-0.13812,-0.0034814,-0.010633,-0.0011778,-0.0072595,-0.042894
0.07495,-0.25894,-0.07042,0.032254,-0.0041274,0.0071214,-0.00071361,0.014818
-0.21803,-0.02225,0.033095,-0.0015918,-0.0056868,-0.0078081,-0.0018177,0.003855
0.06517,0.009159,0.11027,-0.010913,0.00047955,-0.0070023,-0.010492,-0.005268
0.1446,0.21263,0.099527,-0.018998,-0.0010719,0.0016157,-0.018867,-0.036066
-0.16672,-0.19062,-0.31016,0.013171,0.021086,-0.0054916,0.027778,-0.010698
0.13874,0.33304,0.04706,-0.039606,-0.011022,0.010664,0.0044522,0.078245
0.028577,-0.25335,0.040213,0.017677,-0.0035408,-0.0046445,-0.018556,-0.066557
-0.13963,-0.12791,0.069267,0.036213,-0.011112,-0.0045531,0.0055627,-0.00021924
0.030291,-0.19599,0.10385,-0.039077,0.0053016,0.010954,0.014206,0.019071
0.13752,0.26108,-0.10604,0.057058,0.0065447,0.0028474,-0.0162,-0.032429
-0.04668,-0.0079358,-0.03796,-0.01945,0.015898,0.0024197,0.023573,0.071605
0.030764,0.16635,0.009344,-0.04227,-0.0059053,-0.013718,-0.0072326,-0.0049338
-0.20914,0.22567,0.088065,-0.0037113,-0.012214,-0.0064544,-0.022772,-0.059019
-0.055494,-0.30304,-0.031086,0.01028,-0.018872,0.0008159,0.0003622,0.01089
0.17206,0.029011,-0.038108,0.0076084,0.013001,0.0081213,0.0075241,0.025169
-0.033174,-0.32088,0.11204,0.050939,0.02078,0.0076557,0.0066317,0.015222
0.009719,0.15282,-0.28458,-0.078262,-0.011211,-0.00060037,-0.0021641,-0.042157
0.16895,0.33248,0.30371,0.042135,0.010809,-0.0010622,0.0047433,-0.0060562
-0.14861,-0.28045,-0.20742,0.09992,-0.014608,-0.0015906,-0.0037361,-0.032418
0.065037,-0.1281,-0.034101,-0.17801,0.0064804,0.0055899,0.011588,0.11342
0.028541,0.28611,0.084678,0.091539,-0.019423,-0.018591,-0.02733,-0.029259
-0.031734,-0.19701,0.10532,-0.067593,-0.006099,0.0040227,0.012343,-0.014995
-0.17834,0.067687,-0.10219,-0.037832,0.023287,-0.004621,-0.0022465,-0.046863
-0.012616,-0.025726,0.034396,0.13424,-0.0013555,0.010264,0.0069276,-0.0077045
0.090968,0.063522,0.1095,0.065936,0.013858,0.0097197,0.0084685,0.055503
0.086218,-0.071167,-0.22122,-0.17251,-0.0013504,0.0016465,-0.0056134,0.0019788
-0.0027939,0.20062,0.1263,0.0436,-0.0079807,-0.021718,-0.0042514,0.003403
-0.05852,-0.054855,-0.053831,0.0028161,-0.006171,0.0099392,-0.011046,-0.034186
-0.010709,-0.069147,0.094393,0.009186,-0.0039177,0.0028157,0.012945,0.0061947
0.062,-0.019113,-0.065258,0.015134,-0.017047,-0.011939,-0.010464,-0.008435
0.025935,0.044383,0.011111,-0.011258,0.0089291,0.012416,0.012485,0.031187
0.020727,0.10359,0.0089313,0.015415,0.019136,0.005418,-0.0040777,-0.0077931
-0.056031,-0.2787,0.099281,-0.03016,0.0055912,-0.0018174,-0.0053386,-0.015968
-0.056338,-0.15435,-0.20937,0.047308,0.0072091,-0.0015716,0.0088671,0.0067693
0.051204,0.45043,0.20222,0.044994,-0.015185,0.0061293,0.0074776,0.021521
-0.092035,-0.2392,-0.31902,-0.1537,-0.0069635,-0.017721,-0.0093149,-0.041823
-0.055191,0.049083,0.066573,-0.040187,-0.014999,-0.010489,-0.010086,0.012264
0.038024,-0.14773,0.042297,0.081668,0.0076567,0.0045747,-0.010328,0.0042791
0.12612,0.04898,0.056256,0.0094091,0.0064467,0.0042317,0.0056519,0.020282
-0.017089,0.18674,0.32861,0.094959,0.020602,0.012079,0.014397,-0.02563
0.045461,0.15352,-0.21118,-0.0054663,-0.012197,0.01257,0.015797,0.007102
0.11722,-0.25955,0.052268,0.098353,-0.0058502,-0.0021332,0.0096579,0.055818
-0.18639,0.36146,-0.19643,-0.25048,-0.0071032,-0.016534,-0.035517,-0.098459
0.078083,-0.29699,-0.007538,0.056702,0.0075643,0.0082318,0.0050192,0.044019
-0.067415,-0.047814,0.084572,-0.082248,-0.0008774,-0.013997,-0.001755,0.014268
-0.13923,0.0091928,0.046358,0.074501,0.014433,0.010334,-0.0012822,-0.016014
-0.027779,-0.14438,-0.060732,0.02686,-0.01687,0.0029726,0.006408,0.023406
0.17432,0.26597,-0.041078,0.14216,0.0067022,-0.0048622,-0.0098676,-0.015882
-0.023402,-0.02846,0.14589,-0.032416,-0.00087301,-0.0052875,0.012531,-0.016556
0.091938,-0.32476,-0.38817,-0.19957,-0.0084247,-0.0059635,-0.0043415,0.0059791
-0.056061,-0.12167,0.2499,0.070859,0.023044,0.0089321,0.0021912,-0.010526
-0.09123,0.34747,-0.00033262,-0.08008,-0.054955,-0.0072814,0.0010232,-0.0033486
0.11966,-0.074449,0.12794,0.2542,0.054415,0.015853,0.0078667,0.019833
-0.025311,0.46,0.06433,-0.21522,-0.023875,-0.0075416,-0.016317,0.0043279
0.0040904,-0.36977,-0.16115,0.050623,0.022649,0.016249,0.006563,0.035926
-0.059177,-0.13034,0.019735,0.035758,-0.0091517,-0.0066448,-0.0016903,-0.026256
0.033373,0.48387,0.33128,-0.018176,-0.0020819,0.0017396,0.0057106,0.0049856
-0.032056,0.089703,-0.4236,0.0053919,0.004844,-0.013445,-0.0025591,-0.034652
0.071834,-0.21097,0.027858,0.16844,-0.0038986,0.0023796,0.0047119,0.010984
0.094844,-0.47791,-0.024536,-0.037075,-0.00472,0.0023156,0.0040991,0.032609
-0.24383,-0.071888,-0.18024,-0.32194,-0.028685,-0.021384,-0.019954,-0.04762
-0.083854,0.18931,0.009083,0.04098,0.010324,0.0017286,-0.0048375,-0.033985
0.16974,-0.46975,0.40598,0.036948,0.0030557,0.017123,0.0027007,0.019244
-0.07565,0.27889,-0.096348,0.080947,0.027654,0.0014939,0.0027646,0.01081
0.14946,0.38025,-0.043501,0.079914,0.021508,0.009587,0.011025,0.065792
0.048323,0.7931,0.22829,0.01844,-0.023429,0.010119,0.01182,-0.011315
0.073568,-0.21438,-0.079646,0.18527,0.025343,0.0029726,0.020655,0.04468
-0.10388,-0.69001,-0.11862,-0.1938,-0.035624,-0.019832,-0.032959,-0.040213
-0.086631,-0.58324,-0.31383,-0.29154,-0.065959,-0.027215,-0.0085897,-0.047752
-0.14114,0.3105,0.19878,0.2975,0.08264,0.011946,-0.0079584,-0.040735
0.13074,0.20241,-0.044174,-0.22397,-0.027317,-0.0039701,9.8129e-05,0.012115
-0.075373,0.35051,0.096475,0.31599,0.010558,0.018803,0.015582,0.033036
0.0069517,0.50608,0.11252,-0.26964,0.0011804,0.010031,-0.00048598,-0.0085929
0.089729,-0.8354,0.19992,0.11362,0.022941,0.0088952,0.022353,0.044226
0.18964,-0.05844,-0.29609,-0.12726,-0.041091,-0.031342,-0.032917,-0.026571
-0.16909,0.44014,-0.16241,-0.015223,0.020229,-0.0011649,0.0057446,-0.0095776
0.029578,-0.4286,0.040985,0.55921,0.003916,0.021428,0.0056556,0.048466
-0.0034121,-0.65736,0.058759,-0.31055,-0.0040271,-0.010335,-0.0018646,-0.063624
-0.026204,0.48891,-0.21644,-0.28141,-0.0036078,-0.01826,-0.0090074,0.020744
-0.28158,0.44798,0.49781,0.19271,0.0051074,0.021111,0.015397,0.019457
0.21402,0.022868,-0.0015262,-0.20924,-0.0092447,-0.0016334,0.0087043,-0.0059724
0.11581,0.52145,-0.020097,0.17623,-0.01556,-0.00064587,-0.021458,-0.001804
-0.1243,-0.26719,-0.25493,0.12228,0.017245,0.0083113,0.01066,0.015593
0.19545,-0.50189,0.11229,-0.16804,0.010867,-0.0061739,0.0033439,-0.032306
-0.012197,-0.35084,-0.34991,0.282,0.012014,0.002616,-0.012232,-0.012661
-0.16232,0.29104,0.18545,-0.38668,-0.010708,-0.0045031,0.01083,-0.018749
0.096205,0.66246,0.55395,0.10763,-0.0026976,0.0036584,0.01016,0.067472
0.076298,-0.6683,-0.68151,0.12484,0.0047816,-0.011951,-0.021839,-0.010701
-0.3223,-0.045529,0.10496,-0.2407,-0.058512,-0.020005,-0.030217,-0.033331
-0.042852,-0.24221,0.062849,0.44131,0.026314,0.026484,0.024331,-0.0071562
0.01862,0.39074,-0.025791,-0.31299,0.032881,0.0026309,0.0013406,-0.032958
0.27842,-0.060819,0.29245,0.12185,0.0082466,0.017891,0.033636,0.11617
0.14436,0.66729,-0.12343,-0.25394,0.0072414,-0.013653,-0.019565,-0.05209
-0.24241,-0.1155,0.24911,-0.026264,-0.048181,-0.021739,0.021114,0.0084986
0.1488,-0.50721,-0.5129,0.20298,-0.0095756,0.016972,-0.0087936,-0.015547
0.082233,-0.38744,0.10526,0.32374,0.060511,0.01642,-0.00031097,0.054287
-0.20948,0.35729,-0.068547,-0.44621,-0.017688,-0.023501,-0.02404,-0.08001
0.16277,0.64719,0.16938,0.14197,-0.025501,0.0065363,-0.0097657,0.057235
-0.59879,-0.1727,0.32054,0.087261,0.044832,0.01282,0.011399,-0.057903
0.51358,-0.21491,-0.16755,-0.13441,-0.048877,-0.01233,0.0085525,0.035503
-0.39799,-0.94048,-0.58143,0.23481,-0.0018939,-0.014006,-0.017817,-0.10743
0.36271,0.30097,0.089001,-0.37464,0.0218,-0.015384,-0.0046966,0.084332
0.0072448,0.29294,0.063915,-0.23477,-0.04022,0.0072286,0.0014451,0.002273
0.26223,0.40308,0.52302,0.46087,0.023014,0.02276,0.0086176,0.037767
-0.060571,-0.051633,0.058385,-0.06734,0.063016,0.023453,0.047999,0.042869
-0.50166,-0.44692,-0.13792,0.23641,-0.021914,0.0092221,0.0020737,-0.06039
0.20283,0.67962,-0.070132,-0.26827,-0.021036,-0.027959,-0.012463,-0.022184
0.074694,0.027765,0.03874,-0.12109,-0.01268,-0.010248,0.0038756,0.0008391
-0.15279,-0.36191,-0.3068,0.44216,0.026444,-0.00043473,-0.043034,0.039448
0.43424,-0.035135,-0.061422,-0.0099104,-0.067765,-0.014367,-0.0048536,0.015109
-0.38996,0.12892,-0.12293,-0.40856,0.056354,0.018147,0.0014589,-0.056765
0.087438,0.13885,0.37066,-0.098506,-0.015045,-0.012277,-0.047014,-0.051134
0.064433,-0.32611,0.22811,0.17013,0.0073866,0.019444,0.053528,0.063536
-0.52613,-0.82204,-0.34287,-0.023834,0.0067461,-0.0037546,-0.00096168,-0.063882
0.51417,0.26488,0.037023,0.14895,-0.032383,-0.019255,0.00085422,0.090513
0.039415,0.7864,-0.15245,0.033589,0.054132,0.012068,0.012111,0.0036261
0.2542,0.071355,0.38724,-0.29081,-0.046308,0.027697,0.05581,0.02715
-0.40378,-0.50711,0.13265,0.16046,0.0097831,-0.027152,-0.032935,-0.073416
0.11118,0.13778,-0.14422,0.44155,0.018898,0.019246,0.080774,0.037523
-0.21885,0.19563,-0.5552,-0.58942,0.043116,-0.01295,-0.15095,-0.031131
-0.13143,0.40408,0.27965,0.33925,-0.066364,-0.0066524,-0.010123,-0.014233
0.54164,0.34686,0.14665,-0.16479,0.041822,0.022515,0.042026,0.048783
-0.10968,-0.70799,0.24664,-0.016956,-0.054167,-0.03469,-0.01772,0.024927
-0.15135,-0.26637,-0.29702,-0.092869,-0.025915,-0.0061297,0.014473,-0.08574
-0.10954,-0.83219,-0.2276,0.053049,0.033339,0.0069845,0.0068437,-0.017303
0.30326,1.1257,-0.2099,-0.070302,0.014852,0.012843,0.015266,0.074442
-0.069315,-0.77124,0.27101,0.27314,0.020808,0.011772,0.017409,-0.036553
-0.3273,0.36825,0.80009,-0.00058051,-0.018623,0.003984,0.029742,0.040797
0.25894,0.9931,-0.3896,-0.053561,0.0061734,-0.010472,-0.087899,-0.029146
-0.17349,-0.80539,-0.61205,-0.38411,0.0013936,0.015161,0.03951,-0.011943
0.29443,0.60366,0.73307,0.50117,0.029199,-0.036568,-0.057173,0.029726
-0.24645,-0.93816,-0.65148,-0.20957,-0.035972,0.029296,0.066626,0.032975
-0.0029521,0.33978,0.71972,0.038312,-0.015126,0.0014226,0.011501,-0.049571
0.19159,0.32446,-0.31469,-0.099628,-0.010545,-0.02681,0.034215,0.11752
-0.32633,-0.26984,-0.86759,-0.077877,-0.015061,-0.00102,-0.03808,-0.16145
0.36347,-0.35478,0.62104,-0.0077107,0.072394,0.023894,-0.049883,-0.066405
-0.31317,0.0085014,0.031717,0.17895,0.0015337,-0.030304,-0.040672,0.012006
0.28675,0.062334,0.31439,0.70642,-0.024553,0.023871,0.020765,0.073882
0.15712,0.45404,-0.074971,-0.83338,-0.0056362,0.014616,0.087862,0.19751
0.16724,0.66583,-0.088992,-0.042968,-0.034977,-0.0032327,-0.034111,-0.077872
-0.31191,-0.34408,0.30951,0.32007,0.028762,0.0018034,0.030591,-0.056773
-0.25053,-0.80469,-0.43799,-0.75839,0.02237,-0.0012245,0.0015246,-0.082722
-0.59241,0.079435,0.061972,0.31786,-0.061082,-0.019764,-0.065853,-0.030407
0.4088,0.050594,-0.24273,0.70014,0.052624,-0.02217,0.016617,0.045883
0.35272,-0.21784,0.088509,-0.74962,-0.034405,-0.0080747,-0.016211,0.013766
0.0031871,0.17483,0.32555,0.87647,0.013969,0.022785,0.0077705,0.022018
0.49782,-0.19136,-0.096227,-0.62434,0.072544,0.023607,-0.0052541,0.039501
-1.0048,0.7545,-0.075806,-0.026413,-0.093655,-0.01359,0.045893,-0.12931
0.59647,0.081316,-0.065338,0.23859,0.030072,0.043582,0.035533,0.19469
0.2826,0.13739,0.23437,-0.12097,0.020737,-0.024243,-0.060653,-0.075257
-0.49844,0.16057,0.14704,-0.41247,0.0022101,0.0087968,0.014202,-0.026067
0.15374,-1.0877,-0.61233,0.69759,-0.042089,-0.021988,0.01708,-0.033588
-0.17223,-0.37566,0.19492,-0.5427,0.027855,-0.0076237,-0.013502,0.08916
0.075174,0.25716,-0.14611,0.060732,0.00096286,-0.010675,-0.038623,-0.064083
0.25499,0.1018,0.12524,0.55428,-0.020826,0.00042667,-0.018907,-0.039618
-0.30195,0.89628,0.36184,-0.65551,0.010227,-0.0049045,0.01511,0.0074134
-0.27777,-0.042565,0.18043,0.69814,-0.006211,-0.010153,0.0097204,-0.030908
0.15485,-0.35924,-0.038334,-0.53899,0.0015706,0.048132,0.083164,0.096943
0.1047,-0.40261,-0.50877,0.43287,-0.090097,-0.02454,-0.07615,-0.053075
0.03856,0.023675,-0.46924,-0.82015,0.11824,0.022368,-0.022319,-0.0036778
0.061173,0.57513,0.29505,0.28407,-0.021356,-0.014125,0.026053,0.057616
-0.0074844,-0.48488,0.74165,0.17116,0.02224,-0.0014824,-0.025108,-0.04969
0.51624,0.47307,-0.14749,0.14871,0.045159,0.0284,0.12034,0.13387
-0.15551,-0.60962,-0.19386,0.038451,-0.039749,-0.019121,0.008268,-0.034188
-0.38219,0.48207,-0.28008,-0.23038,-0.022989,-0.012208,-0.12797,-0.11824
-0.085368,0.20617,0.40017,0.47275,0.015937,0.0013816,-0.007988,0.013035
-0.16898,-0.36858,-0.3065,-0.41846,-0.095882,0.0053905,0.024017,-0.023996
0.3333,-0.44525,0.080143,-0.096203,0.10199,0.015166,0.0462,0.11445
-0.23379,0.44645,-0.46742,0.14565,-0.03097,-0.023869,-0.019046,-0.11764
-0.022591,-0.39396,0.41308,-0.033122,-0.080047,-0.056574,-0.10834,-0.10163
0.058599,0.16149,-0.10524,-0.26853,0.080781,0.034919,0.076223,0.10172
0.10187,0.92007,0.72665,0.25013,-0.023897,0.0013533,-0.011317,0.13461
0.25297,-0.92908,-0.36015,0.39755,0.060071,0.054307,0.051488,-0.056532
-0.10236,0.88789,-0.15965,-0.23136,-0.0025555,0.014487,0.038146,0.059942
-0.22953,-0.94996,0.31471,-0.14978,0.0072198,-0.024272,-0.012738,-0.11787
0.40808,0.22019,-0.34827,-0.29178,-0.035819,-0.015307,0.022958,0.057533
-0.3502,0.060976,-0.24536,0.25291,0.04742,0.040956,-0.019906,0.084894
0.10747,-0.24124,0.12313,0.51955,-0.11108,-0.090371,-0.11891,-0.19328
-0.036342,0.53157,-0.21676,-0.80099,0.042467,0.035555,0.014323,0.073667
0.011839,-0.71464,0.30248,0.074609,-0.024013,-0.026906,-0.0032701,-0.075608
0.29789,0.19197,0.1092,0.045022,0.032594,0.026801,0.11764,0.077849
-0.59051,0.89218,0.2569,0.28033,0.09472,0.0483,-0.051942,0.034742
-0.032014,-0.76998,-0.62378,0.3628,-0.072092,-0.040307,-0.034516,-0.063283
-0.20056,0.39365,0.549,0.053198,-0.0066856,0.019128,0.04593,0.10517
0.64426,0.20468,-0.28594,-0.11439,-0.044486,-0.046446,0.0027806,-0.13871
-0.23483,-0.80339,-0.17656,-1.0032,-0.012872,0.021163,-0.038357,0.025879
0.18048,-0.3695,0.67875,0.62737,0.089049,0.026969,0.00087549,0.036367
0.45257,0.54938,-0.5525,0.012875,-0.050307,-0.013173,-0.012497,-0.053149
-0.20252,0.44947,0.1093,-0.46772,0.015176,-0.013216,0.10071,0.24851
-0.15652,-0.29099,-0.14481,0.48057,0.012629,0.011194,-0.0040099,-0.020781
-0.61765,0.056175,0.49457,0.46596,-0.010833,-0.010409,-0.061827,-0.22927
-0.051306,0.11544,-0.57568,-0.80248,0.0071556,0.0076465,-0.026579,-0.0025802
0.67243,-0.4754,-0.019657,0.02297,-0.058913,-0.013113,-0.02373,-0.051675
-0.15831,0.46638,-0.21126,0.3496,0.024516,0.012855,0.024698,0.030313
0.019905,0.16124,0.35106,0.32369,0.03766,0.0070339,0.0094905,0.096028
-0.095286,-0.44426,0.34051,-0.036353,0.041929,0.023779,0.048213,0.03734
-0.12587,0.19069,0.29675,-0.31559,-0.018333,-0.023063,-0.061801,-0.058754
0.12645,-0.37624,-0.55392,-0.099606,-0.026597,-0.031989,-0.0076595,-0.04323
0.070243,0.086254,-0.18102,0.058248,-0.0064811,0.0049411,0.023345,0.076045
0.30053,-0.032288,0.40688,-0.018106,-0.027917,0.02553,0.038992,0.024956
-0.26074,0.90955,-0.094936,0.17802,-0.019664,-0.0088496,-4.0946e-05,0.083621
0.15893,-0.703,-0.36505,-0.60908,-0.01164,0.0038602,0.10117,0.024195
-0.62183,0.063431,0.10668,0.37546,0.036713,-0.013994,-0.095257,-0.27941
0.13716,-0.036594,-0.30153,0.20073,-0.0060646,-0.007363,-0.18329,-0.046543
0.18385,-0.60742,0.45275,0.069102,0.032826,0.016128,0.063673,0.074379
0.21175,0.82472,-0.026238,-0.3883,0.044292,0.040834,0.10689,0.10743
0.21946,0.31116,0.27057,-0.097017,-0.018975,-0.03503,-0.0062462,0.045851
-0.028225,-0.41023,-0.024615,0.85071,-0.0018066,0.03035,0.053014,0.078365
-0.56258,-0.728,-0.23441,-0.41358,-0.022914,-0.044724,-0.1054,-0.22359
-0.17187,0.40516,0.13768,-0.12011,-0.021471,0.0049383,0.034524,0.070497
0.45798,0.097376,-0.029372,0.24156,0.047875,-0.00069971,-0.0036231,0.023545
-0.09285,0.79893,-0.42644,-0.53739,-0.11286,-0.030605,0.0066176,0.0027022
-0.1114,-0.080163,0.27239,0.061281,0.058311,0.040147,0.018048,-0.015915
0.31015,-0.88826,0.011612,0.43209,-0.032259,-0.022779,-0.024491,-0.0096236
-0.20248,-0.2861,-0.3177,-0.45059,0.092689,0.061997,0.058164,0.067533
0.35056,0.2695,0.73102,0.31131,0.02804,-0.0022225,-0.023526,0.019329
-0.0081914,0.18231,-0.62202,-0.14811,-0.092004,-0.043354,-0.082413,-0.12373
-0.65495,0.4435,0.27264,0.57994,-0.031627,-0.006483,0.014127,-0.0027439
0.73732,0.55354,0.29804,-0.77455,0.085471,0.014878,0.023859,0.20248
-0.8867,-0.86061,-0.71841,0.24531,-0.075667,-0.057171,-0.045372,-0.33603
0.21512,-0.48317,0.2922,-0.11463,0.040183,0.011929,0.048651,0.061768
0.4181,0.21366,0.55478,0.25811,0.0033486,0.073844,0.11058,0.1775
-0.11331,0.039264,-0.24435,-0.017163,0.024269,0.011381,-0.015939,0.050528
0.20694,-0.15838,-0.18337,-0.32245,0.023893,-0.019317,-0.088847,-0.037791
-0.098049,0.35777,-0.010621,0.23228,-0.022408,-0.010618,0.024624,0.045354
-0.14621,0.56467,-0.16797,0.17631,-0.053381,-0.033026,-0.097264,-0.12192
0.26466,-0.43044,-0.49425,-0.27462,0.047073,0.0070634,0.061481,0.015193
-0.55369,-0.03022,0.43008,0.49305,-0.07336,-0.031032,-0.014185,-0.14449
0.070351,-0.005453,0.039574,-0.55552,0.030321,0.055843,0.027986,0.079303
0.48873,0.43607,0.73567,0.25634,0.12389,0.017778,0.040208,0.077888
-0.047505,-0.61462,-0.40313,-0.31552,-0.16711,-0.051382,-0.063004,-0.062241
-0.65402,-0.4229,-0.027723,-0.068714,0.0096441,-0.026595,-0.00025568,-0.0049398
0.76469,0.56149,0.25556,0.40341,0.053446,0.068647,0.064176,0.16356
-0.43814,-0.33531,-0.62962,-0.10882,0.019695,0.015431,-0.0030554,0.020579
0.1685,0.088741,0.10757,0.091615,-0.036485,-0.022436,0.0082473,-0.075662
-0.11002,-0.020085,0.087199,-0.18879,0.064673,0.0094424,-0.027689,-0.071713
0.24968,0.075167,-0.14692,0.51253,0.018213,-0.022002,0.02132,0.078296
-0.16729,-0.0023796,0.08394,-0.82646,-0.027947,-0.046609,-0.095063,-0.23552
-0.15148,0.38121,0.03849,0.5298,-0.074414,0.013749,-0.072135,0.018166
0.11543,0.8091,0.14869,-0.042621,-0.012341,0.026418,0.11388,0.17594
0.037429,-0.41072,0.1441,-0.25362,0.07985,0.038564,0.096343,0.074754
0.010775,-0.59408,-0.60493,0.093186,-0.040025,-0.035375,-0.069452,-0.096769
0.11955,-0.083833,0.88113,0.38951,-0.02009,0.015939,0.031085,0.092082
