0.017493,0.11022,0.045869,-0.018436,0.015623,-0.005696,0.0018477,-0.0034644
-0.013592,-0.19158,-0.42068,-0.034951,0.025819,-0.013229,0.0024056,-0.0018713
0.018383,0.16182,0.37669,0.065601,-0.0023647,0.026514,-0.0049084,-0.0077276
-0.011746,-0.072158,0.17121,0.048716,0.0087838,0.0039898,0.011167,0.0099757
-0.0026353,-0.018714,0.1019,-0.04664,-0.027146,-0.010672,-0.0040776,0.004107
0.014242,0.056629,-0.76236,-0.095462,0.014398,0.013614,0.019608,0.0056828
-0.023788,-0.11136,0.093231,0.019587,-0.015365,-0.024833,-0.01161,-0.0089103
0.00037179,-0.029901,-0.43295,-0.0058917,-0.015045,-0.0088703,-0.011878,-0.00070175
-0.014831,0.067339,0.8158,0.039405,-0.0080599,-0.0087867,-0.0046884,-0.016563
0.024447,0.12629,0.10568,0.062079,0.037041,0.030186,0.0099627,0.0060956
0.016781,-0.0010556,0.2729,-0.031386,0.0034071,0.0065933,0.00089509,0.012741
-0.029878,-0.11146,-0.39372,-0.014386,-0.0069956,0.01429,-0.00050894,-0.012076
-0.0060731,-0.048831,-0.066677,-0.043343,-0.0093917,-0.02477,-0.0097022,0.0021183
0.017881,0.077048,-0.11393,0.03762,-0.0034486,-0.0089817,-0.003069,0.01637
0.018446,-0.023422,-0.42671,0.032688,0.018864,0.0069723,0.003912,0.0072863
-0.012374,0.055447,0.58838,-0.097754,-0.043939,-0.016,0.011323,-0.017334
0.0033263,-0.077443,-0.26419,0.11454,0.050259,0.0079821,0.011351,-0.0028521
0.0028513,0.069811,0.35901,-0.010454,-0.0034222,0.01634,-0.0038953,0.0038144
-0.013906,-0.026257,-0.21464,-0.035366,-0.0099474,0.0168,0.0045149,0.010474
-0.0078519,-0.029448,-0.0098461,-0.077225,-0.00086788,-0.014154,-0.018253,-0.014062
0.005575,0.045146,0.20604,0.098764,0.0079279,0.0015555,-0.0020077,-0.007165
-0.020181,-0.03612,0.0093408,-0.084899,-0.022794,-0.022003,-0.0093177,-0.0077176
0.0090197,-0.092754,-0.030962,0.10687,0.00066678,-0.0066381,-0.0011307,0.0079031
0.015429,0.18065,0.037907,-0.059646,0.00026051,0.00088825,-0.00085546,0.0085871
-0.00068259,-0.0748,-0.59554,-0.052733,-0.00040791,0.016333,0.022793,0.010003
-0.00015466,-0.038709,0.18824,0.065279,-0.0011295,-0.0070733,-0.008307,-0.003562
0.0090935,-0.070808,0.15823,0.020784,0.0060999,0.0088346,0.022988,-0.0010768
0.026771,0.21874,-0.033586,0.055497,0.02922,0.0093215,-0.00060105,0.0093207
-0.017846,-0.030547,-0.13431,-0.0031357,0.013581,0.025509,-0.024495,-0.011806
0.015433,0.10982,0.69346,-0.046465,-0.0096095,-0.01309,0.0059153,0.021129
-0.10813,-0.30652,-0.58965,-0.20011,-0.079512,-0.051956,-0.018747,-0.056199
0.04874,0.0010026,0.62374,0.12926,0.038135,0.010367,0.010999,0.021715
0.025071,0.040018,-0.42716,0.01182,-0.0083287,0.0098061,0.0094383,0.0049137
0.024112,0.029619,-0.30008,0.088276,0.046653,0.016766,0.00031977,0.018592
-0.0085793,0.12679,0.37789,0.038572,-7.9704e-05,-0.0076424,-0.0081924,-0.0072516
-0.010191,-0.0113,-0.010778,-0.074428,-0.023534,-0.0085224,-0.0001496,-0.0019266
-0.019472,-0.08684,-0.25347,-0.054986,-0.015885,-0.0013059,-0.014393,-0.011927
-0.0049023,-0.052188,-0.54992,-0.027648,-0.0083538,0.014137,0.0038214,-0.0056712
0.033707,0.13224,0.44797,0.015849,0.030343,0.0065934,0.015278,0.024885
-0.012932,-0.048924,0.26772,0.075907,0.0064909,-0.0005619,0.011801,-0.0060927
0.027041,0.02933,0.28711,-0.050292,-0.0017518,-0.0074728,0.0084877,0.018539
-0.04179,-0.078475,0.24897,0.059305,-0.025604,-0.014327,-0.01871,-0.042023
0.0069724,0.010197,-0.87185,0.045364,0.020907,0.033378,0.17182,0.0072423
0.0012609,-0.0096769,0.43658,-0.068754,-0.01061,-0.036371,-0.39688,0.0019121
0.034639,0.041228,-0.041578,-0.056641,0.020534,0.018548,0.29062,0.04317
-0.049302,-0.017156,0.040086,-0.090377,-0.034025,-0.020596,-0.10932,-0.025578
-0.016303,-0.02897,-0.65115,0.08759,-0.010148,-0.0052828,-0.018232,-0.024896
0.071064,0.16165,0.17811,0.070672,0.037535,0.041166,0.13466,0.037285
-0.029423,-0.10188,0.12723,0.11624,0.01529,-0.02958,-0.095447,-0.02649
0.025979,0.055219,0.63276,-0.088727,-0.022238,0.016915,0.041876,0.010546
-0.075221,-0.24994,-0.35204,-0.17762,-0.028279,-0.0068484,-0.0077622,-0.03096
0.041988,0.10775,0.22083,0.11467,0.020435,0.016253,0.00578,-0.0021682
-0.02864,0.11291,0.15828,-0.016897,-0.0091181,-0.015443,-0.058118,0.034822
0.033191,-0.023184,-1.0129,0.044719,0.039086,0.0073415,0.07389,0.010017
0.063388,0.12945,0.92281,0.15904,0.016413,-0.017013,-0.074895,0.025161
-0.06308,-0.29613,-1.1153,-0.32195,-0.046017,0.0052617,0.050069,-0.052532
0.0053468,0.20797,0.16707,0.078936,-0.023224,-0.0038528,-0.012284,0.011187
-0.028147,-0.20982,0.5088,0.042173,0.022393,0.0026989,0.011384,-0.0026679
0.0084486,0.16911,0.7171,0.029463,-0.0026972,0.0095144,-0.043064,-0.00064105
-0.033099,0.016412,0.18274,0.025804,-0.020084,-0.022252,0.05088,-0.0064753
0.058384,0.10532,-0.58086,0.062811,0.040838,0.024747,0.011926,0.010806
-0.029387,-0.10335,-0.85899,-0.15635,-0.030636,-0.021303,-0.042766,-0.011507
0.063106,-0.031388,-0.062838,-0.0069533,0.054676,0.042663,-0.0038311,0.028018
-0.039094,-0.30345,0.63865,0.15109,-0.01574,-0.017907,0.050621,0.012157
-0.00010651,0.35448,0.46016,-0.17509,-0.03108,-0.023593,-0.051243,-0.035594
-0.030994,-0.12718,-0.27288,0.13096,0.00063909,0.0018596,-0.004662,-0.021336
0.00091127,0.096018,0.30572,-0.0094737,-0.014548,0.011289,0.018579,0.00046755
0.06424,0.23561,-0.67037,0.0048011,0.063817,0.027916,0.042017,0.045708
-0.028561,-0.29399,-0.23759,0.025339,-0.022152,-0.018669,-0.043634,-0.0025244
-0.011841,0.0073663,0.77208,0.029093,-0.014601,-0.011242,0.0038844,-0.0033569
-0.057377,-0.25103,-1.0353,-0.366,-0.085265,-0.043388,-0.010704,-0.019095
0.045892,0.37589,0.53193,0.19257,0.078556,0.033585,0.014159,0.020695
-0.030059,-0.17477,0.61691,0.018256,-0.01513,-0.0066074,-0.023144,-0.048014
0.10541,0.25269,-0.14715,0.14299,0.063486,0.039394,0.049152,0.040346
-0.032204,-0.006465,0.042367,0.16076,0.0097282,0.0076548,-0.026931,-0.0034452
-0.052525,-0.2733,-0.56877,-0.053713,-0.059329,-0.031513,-0.0094142,-0.015579
-0.018421,-0.10331,-0.2908,-0.42299,-0.034514,-0.00010783,-8.8077e-05,-0.012025
0.07751,0.16676,0.90956,0.10668,0.037059,0.02355,0.032079,0.053692
-0.02292,0.051654,0.18368,0.20623,0.014547,-0.015432,-0.030271,0.0092868
-0.030917,-0.11365,-0.84641,-0.16422,-0.024073,-0.023455,0.015898,-0.0049657
-0.016891,0.10732,-0.056229,0.1901,0.014896,0.0072443,-0.0090833,-0.059599
0.042694,0.2761,0.69699,0.081438,0.022131,0.014233,-0.0035172,-0.0062104
-0.0081137,-0.23295,-0.50427,-0.34168,-0.05692,-0.025758,-0.014036,0.0069296
0.0030162,0.20511,-0.45904,0.077375,0.012311,0.012495,0.014368,0.01142
-0.032736,-0.63539,0.25252,0.097031,0.011284,0.012028,-0.0038961,0.031165
0.018018,0.24746,0.37724,-0.11792,0.010497,0.012078,0.009621,0.0041666
0.046419,-0.034112,0.76928,0.32388,0.064769,0.028353,0.023919,0.009004
-0.048712,0.43733,-0.1805,-0.2254,-0.060208,-0.04072,-0.023358,-0.047731
0.021878,-0.2411,-0.76295,-0.015362,-0.036311,-0.023365,-0.0071919,0.013835
-0.030913,-0.16829,0.26119,0.055705,0.011404,0.0021241,-0.0058079,-0.025041
-0.035485,0.11034,-0.96269,-0.30137,-0.034358,-0.019151,-0.011598,0.007338
0.077978,-0.13971,0.71162,0.2646,0.052809,0.053192,0.037653,0.032506
-0.042742,0.18901,0.42377,0.049888,-0.00073467,-0.007659,-0.022445,-0.012505
0.10944,0.19465,0.10373,0.28813,0.093844,0.04806,0.034333,0.067099
-0.028655,0.15392,-0.66917,-0.26363,-0.054297,-0.037646,-0.018873,-0.026035
-0.090319,-0.50049,0.28633,-0.19192,-0.054683,-0.038301,-0.018221,-0.065675
0.0023873,0.016174,-0.24717,-0.12207,-0.032351,0.0070725,0.0049355,-0.005047
-0.023812,0.052511,0.17623,0.19592,-0.010642,-0.018541,-0.011882,0.0075771
-0.027814,-0.23634,-0.061248,-0.12837,0.0028295,-0.0054928,-0.0060357,-0.011773
0.069191,0.33809,0.25734,0.2881,0.070793,0.04653,0.022701,0.023399
0.10387,0.34901,0.54327,0.13299,0.060622,0.028438,0.035536,0.035556
-0.087224,-0.4804,-0.51903,-0.21091,-0.043217,-0.020506,-0.037574,0.001759
0.027561,0.1755,-0.064996,0.12353,0.0092678,0.0091638,0.0067383,0.0082617
-0.090708,-0.32623,-0.57254,-0.34798,-0.094487,-0.06225,-0.026648,-0.062032
0.050027,0.081685,-0.072555,0.14058,0.020463,0.030805,0.018651,0.032941
0.027571,0.11347,0.17916,-0.14433,0.026006,0.022611,0.017714,-0.0039908
0.0055521,0.059231,0.92018,0.34534,0.031619,-0.0087826,0.0018165,0.0064581
-0.078977,-0.059209,-0.033257,-0.2797,-0.087505,-0.047783,-0.04469,-0.037708
0.10173,0.25389,-0.61512,0.24741,0.122,0.061872,0.03438,0.050611
-0.085375,-0.023499,-0.049072,-0.16621,-0.081802,-0.04696,-0.03451,-0.033587
0.015896,-0.39113,-0.028421,-0.043654,0.012232,0.016401,0.029768,0.014199
0.069734,0.50296,0.66662,0.34141,0.060493,0.056686,0.047389,0.037679
-0.095447,-0.034645,-0.5108,-0.26958,-0.069781,-0.05891,-0.044279,-0.056784
0.083251,-0.36649,-0.7257,0.075391,0.019805,0.013329,0.0046579,0.027938
-0.018736,0.046736,0.69178,-0.16405,0.0087959,-0.00010826,-0.032426,-0.012484
-0.10415,-0.41617,0.49647,-0.059572,-0.10305,-0.05246,-0.03055,-0.044835
0.038188,-0.076659,-0.63579,0.028123,0.1058,0.059253,0.057165,0.040631
0.088007,0.7455,0.82979,0.22275,0.0099174,-0.0088884,0.0041595,0.017616
0.013851,0.21511,-0.43902,0.1559,0.054102,0.039806,0.02134,-0.012224
0.018412,-0.10583,-0.88294,-0.19698,-0.027789,0.0020311,0.0070629,0.06819
-0.10203,-0.38421,1.0823,0.030425,-0.072161,-0.059863,-0.054423,-0.069562
-0.04343,-0.032027,-0.78549,-0.42798,-0.14187,-0.075665,-0.014825,-0.035284
0.092039,-0.057996,0.65638,0.52163,0.23164,0.11864,0.047605,0.053351
-0.086708,0.26082,-0.19834,-0.206,-0.092288,-0.055071,-0.031277,-0.054111
0.037248,-0.30007,-0.67413,-0.093993,-0.0041557,0.028234,0.0063298,0.032606
0.20605,0.6194,0.58374,0.44526,0.19942,0.11862,0.090181,0.11019
-0.19729,-0.37113,-0.30564,-0.42225,-0.19208,-0.12757,-0.13895,-0.13383
-0.016109,-0.36467,0.6501,-0.19458,-0.0062486,-0.014829,0.069163,-0.0039317
0.054921,0.58625,0.91041,0.40348,-0.00016701,0.0039869,-0.011775,0.039355
-0.15531,-0.45158,-1.1132,0.01394,-0.0011189,-0.0082317,-0.022095,-0.065951
0.064954,0.2553,-0.29803,-0.041949,-0.016017,0.0036656,0.015029,0.040072
0.34143,0.36495,-0.67685,0.18155,0.17472,0.11046,0.06073,0.14696
-0.34099,-0.79017,0.3759,-0.44843,-0.17046,-0.11714,-0.072402,-0.16685
-0.067986,-0.21943,0.27681,-0.15889,-0.098138,-0.038302,-0.025025,-0.01844
0.26193,0.74077,0.62386,0.22123,0.19623,0.1126,0.10115,0.12333
-0.18753,-0.042757,0.49277,0.35486,-0.053574,-0.070968,-0.084748,-0.11686
0.16123,0.28812,-0.14962,0.16245,0.096789,0.082366,0.06544,0.10434
-0.12996,-0.43353,-1.4381,-0.52165,-0.057044,-0.014004,-0.034497,-0.049482
0.055475,0.01391,-0.24258,0.29321,-0.024158,-0.017038,0.0058643,0.022835
-0.056448,-0.52518,0.59685,-0.40208,-0.07908,-0.052347,-0.0245,-0.038345
-0.036385,0.76017,0.15156,0.11033,-0.019394,-0.018765,-0.016173,-0.03778
0.053019,-0.11781,0.33328,-0.0059951,0.037486,0.013293,0.0075637,0.024661
0.18837,0.31258,0.17477,0.13941,0.12308,0.0909,0.078184,0.1024
-0.17702,-0.64197,0.21304,0.23406,-0.027551,-0.027683,-0.038452,-0.085433
-0.058511,-0.065661,0.12339,-0.050047,-0.054084,-0.044981,-0.037471,-0.015014
-0.073035,-0.05803,-0.79419,-0.25175,-0.088275,-0.054113,-0.012533,-0.03762
0.12334,0.49322,-0.28461,0.035661,0.042723,0.054833,0.044141,0.065609
0.093149,0.65487,0.1689,0.02398,0.07401,0.039998,0.0073952,0.036758
0.10968,-0.6295,-0.23219,-0.19954,0.076247,0.065502,0.04885,0.063017
-0.16329,-0.37524,0.90618,0.44502,-0.12253,-0.087633,-0.07399,-0.10607
-0.273,-0.52533,-0.63498,-0.40747,-0.11658,-0.091747,-0.064548,-0.11947
0.21775,0.55709,0.052891,0.19827,0.19482,0.099431,0.069132,0.10831
0.16819,0.45513,0.10549,0.11564,0.099725,0.079032,0.061303,0.092582
-0.077854,-0.2949,-0.24118,-0.17752,-0.15285,-0.083142,-0.048965,-0.049556
-0.11381,0.04554,0.39463,-0.35267,-0.094906,-0.051453,-0.034972,-0.060141
0.053094,0.31503,0.58654,0.58958,0.015352,0.017822,0.0097705,0.0065232
-0.013856,-0.22003,-0.43116,-0.086876,0.060791,0.02337,0.015258,0.018189
0.045592,-0.49807,-0.52837,-0.056552,0.088756,0.028167,0.020872,0.030198
-0.056807,0.44731,0.5485,-0.0024517,-0.071854,-0.021875,-0.01217,-0.034946
-0.14861,-0.43393,-0.68944,0.056261,0.0095578,-0.016778,-0.028992,-0.067385
0.22345,0.65947,0.05865,-0.27435,-0.08802,-0.010746,0.025161,0.12061
-0.034778,-0.15059,0.11815,-0.03603,0.011049,0.012113,-0.013837,-0.049182
0.060147,0.0086188,0.80767,0.22253,0.017974,0.0049175,0.010083,0.024408
0.14749,0.081381,-0.53015,-0.022946,0.23728,0.13927,0.088851,0.11417
-0.35241,-0.81471,-0.45885,0.18853,-0.19097,-0.16343,-0.13719,-0.21034
0.10594,0.37677,0.10599,-0.22029,0.013624,0.041566,0.042665,0.065787
0.05285,0.36158,0.30275,-0.068238,-0.024877,-0.019719,0.018893,0.035791
-0.097968,-0.46674,0.058214,-0.009549,-0.033846,-0.027361,-0.036655,-0.050561
0.036625,0.30831,0.62722,0.30188,0.048712,0.026268,0.0089205,-0.0056855
0.012185,0.33668,-0.015791,-0.13917,0.027383,0.031822,0.030785,0.037949
-0.052899,-0.45938,-1.0819,-0.11127,-0.11315,-0.057374,-0.033372,-0.044155
0.1239,0.63837,0.54895,0.013232,0.026194,0.040234,0.019743,0.061041
-0.034444,-0.46467,-0.60928,-0.20849,0.016551,-0.010958,-0.0050778,-0.021005
0.058829,-0.065843,-0.15693,0.3351,0.13224,0.054994,0.040643,0.022519
0.02918,-0.24281,0.50241,0.31762,0.061544,0.035247,0.00064796,0.058948
-0.021646,0.091931,0.19887,-0.36915,-0.148,-0.077757,-0.023519,-0.052314
-0.26552,-0.39517,-0.099575,-0.24812,-0.12872,-0.096269,-0.07872,-0.1238
0.10217,0.67337,-0.0075886,-0.0069454,0.057175,0.065896,0.046053,0.071038
-0.035903,-0.27886,-0.035781,-0.091885,0.0035703,-0.0051016,-0.0084632,-0.030298
0.15595,0.84985,0.52693,0.68282,0.085375,0.034637,0.031293,0.06442
0.21642,-0.41884,0.53679,-0.19315,0.1382,0.11482,0.071652,0.12085
-0.27695,-0.44012,-0.4398,-0.074426,-0.19009,-0.14754,-0.090515,-0.15791
-0.098333,-0.20324,-1.2173,-0.11267,-0.017416,-0.010567,-0.017822,-0.045401
0.23583,0.71615,-0.051421,0.079801,0.1241,0.095563,0.070757,0.12223
-0.23621,-0.46813,0.50309,-0.35073,-0.2117,-0.11877,-0.082898,-0.11626
0.078636,0.32598,-0.1972,0.1962,0.075968,0.033356,0.028665,0.051217
0.04705,-0.41173,0.70022,0.056638,0.088075,0.059246,0.030083,0.030433
0.11411,-0.12732,-0.028893,0.22393,0.1133,0.060088,0.038229,0.063083
-0.22014,-0.21064,-0.55533,-0.034341,-0.17659,-0.12054,-0.072101,-0.12469
0.18533,0.88729,-0.24874,-0.23143,0.077989,0.056531,0.042808,0.091856
0.034413,0.74004,0.82874,0.12725,-0.067711,-0.048956,-0.023123,0.025268
-0.22645,-1.0543,0.1565,-0.58131,-0.11282,-0.053554,-0.042937,-0.16
0.060463,-0.23239,-0.017189,0.38626,0.10781,0.066974,0.030816,0.060225
0.021752,0.063904,0.084526,0.5379,0.10314,0.055652,0.026944,0.015096
-0.0051033,-0.072082,-0.46478,-0.20557,-0.08677,-0.047729,-0.030437,-0.02083
-0.018918,-0.37518,-0.62816,0.060089,0.015345,0.0073176,0.0076622,0.031588
0.058997,0.59042,-0.23141,-0.37862,0.011294,0.002202,0.016564,-0.022273
0.087773,0.054815,1.249,-0.0085664,0.010207,0.014856,0.011912,0.09904
-0.074316,0.16631,-0.048739,-0.011361,-0.066748,-0.048986,-0.030029,-0.073581
-0.0072475,0.053359,-0.38814,0.057345,0.021543,0.028662,0.015157,0.029304
-0.025876,-0.19071,-0.79602,0.17421,0.04722,0.028152,0.013879,-0.015423
-0.078028,-0.030064,0.39642,-0.23784,-0.10824,-0.090485,-0.050347,-0.060718
0.13087,-0.19556,0.53579,0.43234,0.18677,0.10165,0.056052,0.056177
0.21628,0.49689,0.14483,-0.094342,0.087644,0.088362,0.059015,0.12333
-0.4399,-0.48458,0.66372,-0.37029,-0.38258,-0.2478,-0.16681,-0.2426
0.092078,0.37137,-0.59662,0.036285,0.080911,0.061977,0.034798,0.036502
0.03979,-0.40353,-0.82866,0.056715,0.10377,0.064927,0.046909,0.054866
-0.1028,-0.44487,0.32796,-0.026806,-0.078592,-0.066488,-0.036225,-0.061674
0.45563,0.90415,-0.259,0.44202,0.26942,0.17625,0.12197,0.2504
-0.2747,-0.62785,0.31804,-0.21738,-0.1244,-0.081135,-0.06379,-0.1407
-0.10403,-0.10197,0.36647,-0.24894,-0.18086,-0.087986,-0.04601,-0.062208
-0.030575,0.14457,-0.07043,0.071641,0.069567,0.023437,0.00393,-0.036896
0.14215,1.0361,-0.72925,0.077875,0.10391,0.058234,0.039511,0.12315
-0.0073509,-0.4761,0.6467,0.25981,0.016016,-0.0067698,-0.0093844,-0.050665
-0.081044,0.3212,-0.12261,-0.38401,-0.14744,-0.069913,-0.041163,-0.042824
0.044888,-0.4933,0.20532,-0.14313,0.027116,0.017164,0.022168,0.029166
0.0014885,-0.07472,-0.18105,0.3112,-0.0078663,-0.0036069,-0.01498,-0.022695
0.13823,-0.56759,0.45443,0.301,0.18434,0.10173,0.07356,0.11349
-0.0078979,0.56754,-0.4089,-0.36646,0.0092513,0.012328,0.0060854,-0.016046
-0.23545,-0.047058,-0.50158,-0.17248,-0.2603,-0.15522,-0.10066,-0.14622
0.032714,-0.32436,-0.10806,-0.028083,0.078457,0.067303,0.034207,0.058512
0.13242,0.08239,0.68276,0.037965,0.064547,0.046671,0.051116,0.090202
-0.099638,0.042804,-0.085902,0.2926,-0.043991,-0.045444,-0.057764,-0.090094
0.002073,0.39206,-0.28649,0.032466,-0.0045657,-0.02153,-0.0031977,0.01016
-0.0059362,-0.46175,0.47966,-0.033391,0.042633,0.017052,0.011994,-0.022607
0.042189,0.88321,0.32739,0.060491,-0.058343,-0.030945,-0.011833,0.0074328
-0.016245,-0.36462,-0.69326,-0.22906,0.044118,0.030122,0.011567,0.014743
0.077227,0.05354,-0.44002,-0.14836,0.021628,0.020813,0.019863,0.046377
0.033353,-0.066059,1.0415,0.55702,0.10022,0.058414,0.02866,0.016297
-0.14102,-0.25378,-0.94204,-0.70083,-0.18952,-0.099323,-0.063819,-0.091486
0.25572,0.21457,1.0431,0.60135,0.17523,0.10212,0.10145,0.15218
-0.34061,-0.60979,-0.91049,-0.57394,-0.21216,-0.10308,-0.10874,-0.15954
0.084127,0.089833,0.48069,0.22947,0.031191,-0.011906,0.0084087,0.01199
0.044615,0.38728,0.49545,-0.015749,0.085513,0.039766,0.023068,0.025938
0.15786,-0.19308,-0.88164,0.61638,0.16276,0.091278,0.044698,0.06994
-0.26301,-0.17146,-0.7037,-0.7299,-0.25133,-0.13814,-0.082621,-0.10554
0.095858,0.36845,0.39764,0.13547,-0.022452,0.0083827,0.01664,0.039273
-0.044946,0.034053,0.17905,0.018412,0.0069966,0.0080458,-0.00064546,-0.02602
0.17592,-0.29257,0.7135,0.098422,0.17391,0.087927,0.069241,0.097826
-0.19295,0.24723,0.89709,0.19435,-0.068266,-0.072033,-0.070148,-0.10421
-0.0098341,0.40296,-0.79291,-0.21959,-0.0325,-0.011012,-0.0045999,-0.0068807
0.030181,-0.034932,-0.64044,0.017866,-0.0012768,0.012661,0.015696,0.030264
0.24664,0.30673,-0.2353,-0.088136,0.14857,0.10748,0.076151,0.10816
-0.19024,-0.69876,0.65422,0.046214,-0.15542,-0.11046,-0.074021,-0.11011
0.014147,-0.65138,-0.60407,-0.25226,0.037835,0.029589,0.017398,0.022707
0.25583,0.34671,-0.0286,0.64103,0.17991,0.12044,0.091747,0.13049
-0.33444,0.02033,0.60904,-0.69548,-0.31589,-0.18219,-0.12502,-0.17824
-0.1095,-0.36821,-0.25572,0.3562,-0.011862,-0.034525,-0.031569,0.0023766
0.18043,0.94801,0.19788,0.031354,0.10872,0.056162,0.036362,0.016283
-0.096603,0.074143,-0.56791,-0.067743,-0.014922,-0.010717,-0.022198,-0.049877
0.061042,0.021403,0.65056,0.074828,0.033216,0.031626,0.027964,0.047151
0.053838,-0.71686,-0.27346,0.013524,0.043882,0.043646,0.047116,0.058535
-0.069424,-0.080603,0.34265,-0.11958,-0.044375,-0.04423,-0.042123,-0.045977
0.098868,0.43914,-0.55641,-0.11467,0.042061,0.026049,0.03413,0.054528
-0.15168,-0.23853,0.37703,0.003482,-0.080315,-0.050513,-0.052178,-0.085178
0.33484,1.1462,-0.090109,0.18668,0.21214,0.13158,0.097114,0.14386
-0.012886,-0.38249,-0.1142,0.41042,0.0037042,0.016661,0.0049234,0.0064967
-0.21965,-0.76903,0.031052,-0.56028,-0.16802,-0.10716,-0.07154,-0.099764
-0.318,-0.64315,-0.06743,-0.053378,-0.22579,-0.15459,-0.10936,-0.1523
0.33962,1.0013,0.60948,0.21338,0.19753,0.13982,0.10209,0.14522
-0.059593,-0.11518,-0.54841,-0.23465,-0.0065995,-0.0048012,0.00023972,-0.012017
0.0080068,-0.44139,0.26677,0.30046,0.014882,-0.0095619,-0.00066766,0.0090355
0.097691,0.15329,-0.27382,-0.1314,0.0059296,0.024978,0.029361,0.052634
-0.039867,0.22868,-0.37093,0.12896,0.030644,-0.0096086,-0.034344,-0.05248
-0.13852,-0.23551,-0.06746,-0.36912,-0.066185,-0.026729,-0.019661,-0.086998
0.098811,0.75308,0.25731,0.21967,0.082857,0.044122,0.042244,0.10569
0.039142,-0.011499,0.33868,0.091033,0.055273,0.038559,0.018462,0.025698
0.1664,0.028296,0.19655,0.05662,0.052885,0.049576,0.025934,0.055657
-0.16057,-0.57056,-0.037503,-0.19018,-0.15252,-0.087888,-0.068468,-0.07822
-0.012434,0.047024,0.23138,0.26206,0.023413,0.0079931,0.0084062,-0.024784
-0.084465,-0.33141,-0.48447,0.051192,-0.076696,-0.077569,-0.017039,-0.042184
-0.10265,-0.39142,-0.58144,-0.37981,-0.05485,-0.0089318,-0.019778,-0.021195
0.17626,0.51277,0.56741,0.13169,0.1127,0.065661,0.062906,0.10075
-0.12923,0.091519,0.61465,-0.32083,-0.096574,-0.064122,-0.057685,-0.066696
0.13842,0.61037,-0.90802,0.20095,0.11546,0.071319,0.040763,0.086217
0.066084,-0.40063,0.53647,0.27674,0.1329,0.074434,0.030552,-0.041659
0.13066,0.64093,0.084591,0.11147,-0.019793,-0.0071646,0.021401,0.07347
-0.34784,-1.0526,-0.86428,-0.4418,-0.27166,-0.16521,-0.11929,-0.17752
0.059391,-0.029644,-0.040152,0.13333,0.11965,0.084806,0.030404,0.04923
0.19484,0.11995,0.0078041,0.094481,0.075821,0.047382,0.05633,0.12088
-0.15382,0.6092,0.41643,0.12018,-0.02087,-0.020084,-0.010499,-0.056464
0.0043246,-0.56084,0.78748,-0.096215,-0.0070429,-0.00095501,0.00145,-0.029953
0.058941,0.60286,-0.032532,-0.36184,-0.055313,-0.028614,-0.017606,0.020403
-0.12335,-0.57801,0.15672,0.46146,-0.025751,-0.041055,-0.029033,-0.054184
0.051069,0.13353,-0.75358,-0.34717,0.0029257,0.016054,0.021455,0.042831
0.13711,-0.3285,-0.39049,0.50002,0.15525,0.10346,0.047594,0.068986
-0.067858,0.56573,-0.1548,-0.17696,-0.030034,-0.04449,-0.021156,-0.054036
-0.13354,0.012132,-0.023824,-0.45531,-0.19377,-0.099586,-0.059898,-0.068512
0.17507,-0.32275,1.0595,0.3545,0.23431,0.13366,0.072022,0.088064
-0.1649,0.065032,0.19479,-0.4087,-0.25355,-0.14924,-0.086183,-0.10764
0.16726,-0.21809,-0.90492,0.55528,0.23351,0.1535,0.090738,0.11797
-0.007834,0.37211,0.55454,-0.094117,-0.015069,0.0030003,0.0015438,0.0072793
-0.033779,0.035751,-0.71628,0.067587,-0.092518,-0.069307,-0.040912,-0.033252
-0.097988,-0.28583,-0.67002,-0.208,-0.045095,-0.039834,-0.02847,-0.050312
0.057394,0.22222,1.0133,0.017089,0.065362,0.036873,0.039178,0.026577
-0.098868,-0.095734,0.39348,-0.20318,-0.073024,-0.050006,-0.025234,-0.036835
0.097251,0.063717,0.19852,0.13729,0.063664,0.058979,0.028428,0.064214
0.16125,-0.10716,-0.08202,0.4501,0.12412,0.090398,0.043934,0.056301
-0.1571,-0.050408,-0.54824,-0.21284,-0.11824,-0.096442,-0.064745,-0.091874
-0.06125,-0.35752,-0.13868,-0.26824,-0.046488,-0.032926,-0.01654,-0.021039
