-0.053193,-0.094175,-0.082345,-0.14977,-0.0033496,0.0013941,-0.006452,0.0073844
0.040664,0.016268,-0.024173,-0.00092918,0.024658,0.00086966,-0.0068444,-0.0013352
0.019878,-0.011592,-0.10254,-0.052814,-0.040177,-0.0076917,-0.006577,-0.001938
0.040996,-0.044972,0.13528,-0.032423,0.036829,0.0070491,-0.0057065,0.0057224
0.095908,0.17342,-0.014541,0.098655,-0.033318,-0.017301,0.0034687,-0.0017487
-0.11325,-0.0058298,0.017425,0.042745,0.0070165,-0.0024994,0.0051698,-0.0009952
0.13068,0.205,-0.082331,0.064603,0.03246,0.020317,0.0070236,0.03904
0.03671,-0.33607,-0.11957,-0.21161,0.073784,0.0043674,0.0088244,0.00090956
-0.13921,-0.0051728,0.11554,0.080584,-0.10385,-0.026861,-0.013074,-0.014081
-0.046871,-0.0059732,0.1141,-0.074903,-0.03204,-0.010881,0.0036404,-0.052992
0.024211,-0.018023,0.10165,0.20458,0.023454,0.013158,-0.019303,-0.014323
-0.073791,0.09229,-0.15695,-0.072959,-0.07792,0.021652,0.019578,0.031687
0.1139,-0.0097198,0.017664,-0.047642,0.11721,0.022199,-0.0047163,0.0070908
-0.019689,-0.017946,-0.014848,-0.12493,0.0076065,0.0067574,0.0016428,0.029303
0.012577,0.084513,-0.12065,0.11799,0.046694,-0.040475,-0.00025272,-0.0030282
-0.091451,0.048566,0.053514,0.033651,-0.10127,-0.018007,-0.0023791,-0.0038209
0.084129,-0.078488,0.0020083,-0.025546,-0.014372,-0.019516,0.0033206,-0.004264
-0.045877,-0.070144,0.055197,0.058165,0.041657,0.025525,-0.0063433,-0.035624
0.017994,-0.020601,-0.050678,-0.058723,0.01189,0.02368,0.00010001,0.019217
0.18024,0.038189,-0.11143,-0.0091196,-0.010239,-0.0090862,-0.00062332,0.011732
-0.11645,0.066352,0.2948,0.042522,-0.064125,-0.0021721,0.0071958,-0.0034749
0.29685,0.00059592,-0.13004,-0.05283,0.14683,0.0055285,0.00011207,0.012598
-0.46533,-0.073809,0.22132,0.032251,-0.065048,-0.0015943,0.0092782,-0.033828
0.079653,0.084864,0.018151,-0.031066,-0.027855,0.015385,-0.0045387,0.013497
-0.15462,-0.10171,-0.48427,-0.032487,-0.030445,-0.021912,-0.018117,-0.009467
0.067065,0.038393,0.134,0.074324,0.013519,0.026832,0.0073799,0.037934
0.16065,-0.010161,0.004855,0.078025,0.018609,-0.033989,0.0014316,-0.016152
0.042615,0.018685,0.011256,-0.21696,-0.045903,-0.0092841,0.010752,0.00016233
-0.073794,0.00042605,0.076174,0.095521,0.070388,0.0070878,-0.019446,-0.01469
0.11783,0.060521,0.052848,0.17959,0.023929,0.015136,0.02018,0.0017737
-0.12393,-0.066298,-0.033442,-0.20672,-0.029104,-0.00065608,-0.010966,0.010462
-0.057151,-0.028255,0.17051,0.046377,-0.0030981,-0.001054,-0.011236,-0.035542
0.24669,0.057521,-0.26378,-0.0059099,-0.015752,0.014133,0.019492,0.043388
-0.22975,-0.019985,0.10966,-0.066114,0.0026645,-0.017425,-0.0045785,-0.010633
0.23041,0.012479,-0.03719,0.030387,-0.042133,0.0059577,0.010445,0.036686
-0.27282,-0.025031,-0.032762,0.096519,0.1151,-0.017228,-0.013435,-0.04129
0.0096062,-0.031237,0.012908,-0.062824,-0.064863,-0.0010591,-0.013625,-0.018039
-0.063082,0.024832,0.036443,0.075756,-0.089746,0.023133,0.0021145,-0.0029275
0.17378,0.03357,-0.056908,-0.089535,0.056371,-0.0072751,0.010342,0.019746
0.10419,0.11202,0.10684,0.11286,0.045806,0.032578,0.018809,0.073554
0.018646,-0.10702,0.042391,0.0030105,0.027494,0.0019554,-0.0038458,-0.083513
-0.31581,-0.12345,-0.12598,-0.16916,-0.013727,-0.060132,-0.010891,-0.013759
0.086278,0.05519,-0.023672,-0.06753,-0.085312,-0.01303,-0.010288,-0.0060795
0.03793,0.0073351,0.099283,0.050443,0.039509,0.0027419,-0.0021627,0.0099393
0.10933,0.030162,-0.11613,0.13048,0.032654,0.042015,0.013411,0.057724
0.026256,0.061347,0.057337,0.040036,-0.020056,0.0033568,0.0051721,0.012134
-0.071911,-0.024116,-0.035704,-0.041241,-0.0016862,0.019649,-0.0033833,-0.048971
0.055599,-0.0076689,0.011893,0.01123,0.017106,-0.026321,-0.019955,-0.024371
0.071642,0.040073,0.13057,0.0013787,-0.026571,0.0059594,0.025918,0.030893
-0.12599,-0.013998,-0.015082,-0.14207,0.046591,-0.0086865,-0.021863,0.038406
-0.27934,-0.10755,-0.15922,0.079894,-0.044979,-0.0079505,0.00088658,-0.048865
0.22188,-0.045254,0.026258,-0.044463,-0.059324,-0.023249,0.00048346,-0.027786
-0.066181,0.09499,0.11146,0.17189,0.081563,0.031248,0.023792,0.015886
0.045575,0.016621,-0.0054587,-0.028853,-0.0051451,0.014882,0.0082256,0.012155
0.19903,0.008991,-0.035719,-0.10715,0.047824,-0.0098101,-0.015106,0.023915
-0.18342,-0.0058947,-0.081095,0.00044173,-0.040608,-0.0036591,-0.007298,-0.010932
0.12443,0.010916,-0.0089205,-0.1423,-0.051445,-0.013384,-0.015358,-0.0061064
0.082358,0.020008,0.016627,0.12226,0.015622,0.0080811,0.0075232,0.0073852
0.032467,-0.033818,0.050073,0.053152,0.0046896,0.014066,0.014489,0.0062302
-0.30032,0.0051491,0.0052093,0.018391,0.056724,0.0047676,0.0056461,-0.0017482
-0.11252,-0.011929,0.13946,0.18231,-0.054544,-0.043092,-0.03446,-0.047885
0.24391,0.0085657,-0.00075347,-0.23661,0.0070153,0.011215,0.019372,0.0161
-0.21498,-0.011277,-0.22047,-0.028177,-0.016345,0.011457,0.0032634,0.018129
0.37136,-0.055281,-0.012004,0.056676,0.039364,0.020063,0.0032805,0.02048
-0.22986,0.025785,0.062372,0.056075,0.041131,0.013437,0.011649,0.022935
-0.0091992,0.037485,0.0032555,-0.13228,-0.066014,-0.02427,-0.026384,-0.044992
0.097207,-0.0037801,0.1084,0.061469,-0.0089449,-0.022992,-0.0094191,-0.011531
0.12927,0.066552,-0.16806,-0.058151,0.016743,0.0092372,0.062311,0.013934
-0.19402,-0.056086,0.11227,-0.022359,-0.036039,0.017574,-0.045831,-0.0075834
0.0020474,-0.05949,-0.034375,0.19239,0.051338,-0.021481,-0.013776,-0.013448
-0.095777,0.032247,0.0015776,-0.07008,-0.0024068,0.024929,0.025492,-0.0035182
0.17555,0.069795,0.071379,0.0965,0.01371,0.016318,0.0015967,0.022288
-0.028879,-0.04156,-0.091359,0.012408,-0.048654,-0.070542,-0.015087,0.040511
0.031986,0.041082,0.020079,-0.29892,-0.0096885,0.038025,0.022504,0.035376
-0.16634,-0.073472,0.14663,0.014177,0.12292,0.0063045,-0.033788,-0.134
0.11745,0.013046,-0.20509,0.092487,-0.15074,0.0063264,-0.035205,0.032073
-0.00014131,-0.06629,-0.020408,0.061201,0.052215,-0.0087318,0.088858,0.048906
-0.050848,0.032905,0.0047802,0.084464,-0.010423,0.00011892,-0.036403,0.010022
0.07443,0.10056,0.26094,-0.033143,0.028452,0.0014349,0.01093,0.0090746
-0.077496,-0.073368,-0.22043,-0.04976,0.0046273,-0.012881,-0.027084,-0.094501
0.087305,0.01969,0.014334,-0.051799,-0.0039607,0.011535,-0.01011,0.0042034
-0.0010101,0.028603,-0.010564,0.077444,0.02595,0.043139,0.053644,0.02428
0.072428,-0.070037,-0.052128,-0.029551,-0.030738,-0.027641,0.023139,0.091136
0.019711,0.067131,0.18727,0.072491,0.013514,-0.021159,-0.023828,0.0020554
-0.43897,-0.045012,-0.065221,-0.1786,-0.059841,-0.015397,-0.040532,-0.078551
0.14323,-0.024628,-0.012299,0.038183,-0.023891,-0.017853,-0.019067,-0.04106
0.11928,0.049125,-0.020891,0.05191,0.043675,0.026588,0.01747,0.028712
-0.0021031,0.065975,0.018556,0.01987,0.033903,0.0089945,-0.016339,0.021361
0.34957,0.0019083,-0.026589,-0.056995,0.040854,0.015663,-0.0027307,0.014824
-0.19351,0.020884,-0.031093,0.087627,-0.013466,0.01553,0.05096,0.0009476
-0.0076625,-0.3298,-0.041535,0.063469,-0.051001,-0.022681,-0.042526,0.0027193
-0.36025,0.013263,0.10646,0.026823,-0.0094831,-0.021082,0.076116,0.004022
0.21575,0.33252,0.0069125,-0.20219,0.032627,0.059005,0.031506,0.020043
-0.085782,-0.027002,0.073987,-0.022337,-0.018784,-0.056308,-0.098825,-0.074505
0.24995,-0.056434,-0.21584,0.050399,-0.023418,0.015378,0.059471,0.0093774
0.090009,0.033978,0.090218,-0.03908,0.041907,-0.030922,-0.13477,-0.001558
-0.29155,-0.091472,0.030665,0.16186,-0.0026633,0.015606,0.11505,0.049354
0.11435,-0.050182,0.010987,-0.0036955,-0.024395,0.022217,-0.026955,-0.024819
-0.15936,0.12603,-0.032208,-0.11475,0.03139,0.020399,-0.013537,0.018727
-0.14988,-0.087066,0.087658,0.077617,-0.0071367,-0.028545,0.015281,-0.02258
0.41776,0.028355,-0.10683,-0.15439,-0.0070817,-0.0070032,-0.025751,-0.02335
-0.13519,0.0026355,-0.038207,0.08646,-0.0074085,-0.023943,0.012413,0.032197
-0.05875,0.038099,0.11343,0.3148,-0.039268,-0.0087388,0.044217,0.026757
0.21639,0.024781,-0.089496,-0.32151,0.069298,0.054388,-0.00058887,-0.032226
-0.13973,-0.092301,0.11884,0.013458,-0.009781,0.03258,-0.012917,0.026558
0.011239,-0.00059448,-0.12045,-0.00772,0.0047668,-0.04316,-0.024595,-0.031929
0.034328,0.065933,-0.048887,-0.17278,-0.027689,0.0064554,-0.012941,-0.0052013
-0.05638,-0.017,0.17804,0.23883,-0.013415,-0.014358,0.036901,0.012493
-0.10515,-0.045338,-0.040459,0.0025124,0.031954,-0.0044878,0.030559,0.052149
0.037148,-0.025902,-0.10994,-0.083034,-0.032196,-0.0033314,-0.0088572,-0.04244
-0.049651,0.10469,0.15767,0.16325,0.04418,0.012387,-0.057853,-0.04436
-0.074114,-0.067009,-0.18257,-0.10943,-0.020088,-0.0041742,-0.014416,0.007925
0.20056,0.029525,0.088301,0.013093,0.0016796,-0.0059309,-0.034028,0.0057729
0.041876,-0.012203,0.0015269,-0.0087158,0.0080667,-0.00036407,0.056105,0.0045812
0.013214,0.041495,0.049098,-0.01166,-0.0085755,0.012908,0.022467,0.043934
0.036099,-0.0057215,-0.042798,-0.028074,-0.016841,0.0029903,-0.017166,-0.032222
-0.16438,-0.10818,-0.040292,-0.004405,-0.047866,-0.029855,0.023309,-0.013145
0.08922,0.13137,0.0013453,-0.035472,0.054628,0.039501,0.034208,0.061528
0.044419,-0.022404,0.073722,0.19808,0.048368,-0.0077067,0.030449,0.034703
-0.066563,-0.038808,-0.050223,-0.28892,-0.012168,0.008075,-0.082659,-0.055501
-0.13571,-0.019476,0.019813,0.14346,0.02115,0.00070247,-0.032621,-0.077107
0.0476,-0.034273,-0.013117,-0.02088,-0.094215,-0.053476,0.047033,0.031841
-0.023663,0.042686,0.10124,0.28032,0.0086107,0.040687,-0.054965,-0.017858
0.042751,0.06414,-0.066236,-0.062157,0.032545,0.0018707,0.052131,0.078785
0.16301,-0.038956,-0.1006,-0.28986,0.016594,-0.013642,-0.029591,-0.036923
-0.10608,0.031426,-0.0086332,0.051566,0.023373,0.0020827,-0.018084,-0.012488
-0.0049206,-0.20042,-0.086248,-0.22367,-0.056231,0.0023429,0.025018,-0.0031472
-0.032389,0.18,0.22191,0.25361,-0.02653,-0.028318,0.030147,-0.00016788
0.10095,0.063285,-0.052805,0.024294,0.058209,0.027397,0.021199,0.043995
-0.019322,-0.027602,0.15157,0.21469,0.026499,0.036691,-0.0095435,-0.010967
-0.089461,-0.015308,-0.15054,-0.21385,-0.043255,-0.00053101,0.00016039,-0.024518
0.014223,-0.033541,0.047065,0.011474,-0.057203,-0.03758,-0.0049003,0.0028801
0.040286,-0.0675,-0.01515,-0.095342,0.047038,-0.0043783,-0.064435,-0.01547
-0.020471,0.03847,-0.065209,0.11176,0.04256,-0.0027202,0.031871,0.067951
-0.12234,-0.02843,-0.11963,0.044109,-0.016486,-0.0093484,-0.036772,-0.06809
0.20255,0.02085,0.13394,-0.074391,0.04895,0.038138,0.057501,0.083455
-0.21038,0.030248,-0.014837,-0.027098,-0.066435,-0.016518,0.049046,-0.087254
0.31841,0.02348,0.11495,0.15355,0.027532,0.0064466,-0.085373,-0.0021785
-0.21866,0.094575,-0.084448,-0.23559,-0.044321,-0.01783,0.0061774,0.010862
0.21037,-0.1078,-0.03315,0.087927,0.0072391,0.0045804,0.027304,-0.016248
-0.15901,-0.013137,0.10642,0.22793,-0.059481,0.011367,0.001956,0.042319
-0.18466,-0.082229,-0.16443,-0.44544,0.03749,0.010516,-0.014706,-0.06259
0.017958,0.052249,0.12382,0.13346,0.072388,-0.013459,0.016739,0.10722
0.036456,0.023206,-0.11456,-0.11078,0.022483,0.0020293,-0.020705,-0.057211
0.17679,-0.013093,0.080874,0.30016,-0.033615,-0.028937,-0.0098713,0.037923
-0.0057889,0.044812,0.045019,0.22612,-0.033224,0.0029631,0.0099318,-0.029537
0.11338,0.071692,0.01855,-0.21662,-0.046783,0.011664,-0.00081697,-0.033578
-0.11536,-0.065586,-0.039323,-0.0066047,0.065939,0.051656,0.019759,0.032923
-0.084503,-0.000161,0.010348,0.025477,0.0074975,-0.010109,0.086579,0.0052137
-0.0071611,-0.06822,-0.13066,-0.27914,0.011626,-0.025427,-0.11353,0.015548
0.0051805,-0.0355,0.044633,-0.070849,-0.00039927,-0.025729,-0.010798,-0.053597
-0.096064,-0.011354,0.26262,0.32111,-0.052466,-0.0032822,0.0038821,0.00084031
0.27393,0.11369,-0.40598,-0.22068,-0.027622,0.010707,-0.030412,0.022808
-0.31496,0.011604,0.11005,0.17136,0.050705,0.008587,0.1054,-0.010735
0.19995,0.0026791,0.046192,-0.033282,0.010866,0.021856,-0.0021823,0.033529
0.069406,-0.01477,-0.018315,0.017726,0.0094881,0.0039272,-0.078972,-0.031404
-0.017966,0.013738,0.26898,0.1609,-0.02331,-0.0293,0.00080828,0.044864
-0.22482,-0.083871,-0.091332,-0.017471,-0.04026,-0.02292,-0.0043173,-0.081196
0.083223,0.028262,-0.091154,-0.1812,0.021409,0.023198,0.046806,0.066999
0.16554,0.0065105,-0.097543,-0.095665,0.068048,0.023135,0.021632,0.020521
-0.17168,0.015295,-0.10259,-0.065176,0.0058306,-0.015384,-0.056434,-0.056892
0.15877,0.00049986,0.18292,0.067016,-0.063901,0.024651,0.054479,0.021862
-0.139,-0.0059285,-0.045498,0.153,0.022625,-0.013235,-0.021154,-0.024851
-0.095621,-0.034535,-0.029866,0.099419,-0.070807,-0.035514,-0.0027054,0.029239
0.24225,-0.022244,0.22984,0.11737,0.10092,0.027956,-0.0079533,0.012126
-0.024037,0.078147,-0.12594,-0.41825,-0.048175,-0.018221,-0.037342,-0.029247
-0.05915,-0.0068001,-0.074218,0.10945,0.0054096,0.013468,0.04172,-0.00086847
-0.082807,0.035083,-0.029666,0.090734,-0.027194,-0.0018787,-0.012922,0.0039428
-0.072824,-0.007738,0.030443,-0.14653,0.041755,-0.0094276,0.041177,0.016966
0.10995,-0.0031801,0.097614,0.17881,-0.021897,0.030038,-0.076821,-0.10188
0.29985,-0.061322,-0.016208,0.02,0.0085571,-0.0083619,0.039805,0.20254
-0.37193,-0.03427,-0.12387,-0.18516,0.0081325,-0.023015,-0.014777,-0.1398
-0.047521,-0.016078,0.024536,0.095056,0.0079621,0.0016673,0.02533,-0.0038693
0.24841,0.071306,0.061989,0.025215,-0.015616,0.0030595,0.019568,0.055423
-0.18803,0.001411,0.16076,0.1136,-0.0081873,0.012214,-0.024401,-0.056154
0.34614,0.0087702,-0.26454,-0.30355,0.037824,0.0054566,-0.0053449,0.059169
-0.36724,0.023219,0.013266,-0.0075009,-0.01833,0.037252,0.060686,-0.029067
0.15757,-0.0098231,0.04158,0.29823,0.010901,-0.056616,-0.068908,0.05339
-0.21018,0.050367,-0.077686,-0.0043936,0.0085775,0.020692,-0.0038045,-0.053433
0.118,-0.092924,0.23366,-0.16658,-0.18114,-0.051022,-0.017563,-0.0061185
0.043278,0.0059168,-0.063678,0.052427,0.11409,0.001929,-0.016362,-0.070281
0.075919,0.011435,0.029858,-0.012844,0.074377,0.054888,0.12502,0.18413
-0.15729,-0.067924,-0.079962,0.097481,-0.010967,-0.024599,-0.030615,-0.15628
0.0084825,-0.0049264,0.09875,0.047006,0.061159,0.029387,-0.11583,-0.012536
0.22124,0.12286,-0.24645,-0.39049,-0.10797,-0.032987,-0.052383,0.0928
-0.15349,-0.004639,0.17399,0.39552,0.012415,0.03048,0.13618,-0.050475
0.11597,-0.043841,-0.25631,-0.42122,-0.00012581,-0.0069088,0.058866,0.01902
-0.18469,0.028015,0.12757,0.31776,0.017971,0.018674,0.05889,0.035724
-0.020057,-0.055807,0.22471,0.20057,-0.0039382,-0.041486,-0.1378,-0.016321
0.059559,0.00015854,-0.13671,-0.32578,-0.026882,-0.015772,-0.0082312,0.0028512
-0.034531,0.061611,0.058274,-0.11982,0.019599,0.00186,-0.0056879,-0.040415
0.18036,-0.04463,0.089585,0.23227,-0.028226,0.003459,0.042014,0.0092796
0.10234,0.14932,-0.16169,-0.0599,-0.029311,0.027998,-0.13779,0.034073
-0.064252,-0.0051793,0.13869,0.29829,0.10267,0.020725,0.15135,0.04924
-0.34792,-0.35132,-0.15112,-0.20369,0.00080434,0.0050223,-0.042432,-0.10923
0.052248,0.15128,-0.00023746,0.19711,-0.045769,-0.042599,-0.030528,-0.0033642
-0.023017,-0.04242,-0.0095389,-0.42321,0.0019182,-0.0049787,-0.062254,-0.038667
0.07171,0.085265,-0.26334,-0.15929,0.010823,0.0085334,0.15151,0.035749
0.035683,0.11433,0.44376,0.2705,0.0041047,0.021472,0.032025,0.05661
0.11342,-0.0086016,-0.042077,0.10991,-0.0028527,-0.020672,-0.023467,0.0009778
0.062996,-0.025138,-0.15629,0.048816,-0.064876,0.0073553,0.13198,0.072063
0.14821,-0.037084,0.01645,-0.14456,0.021148,-0.011333,-0.22185,0.01954
-0.32967,-0.068798,0.11699,-0.046015,-0.0024968,-0.01393,-0.11727,-0.19629
0.48448,0.09709,-0.035207,0.041342,0.098722,0.031084,-0.015666,0.11132
-0.64777,-0.13475,0.034684,0.13374,-0.034412,0.0067093,0.17694,-0.081735
0.26274,0.038862,0.011908,0.019837,-0.065856,0.0067762,0.016016,0.10691
-0.26206,0.10101,-0.1293,0.049983,0.027861,-0.023442,0.010492,-0.057231
-0.13613,0.011736,0.038773,-0.13686,0.012323,-0.0059682,-0.02598,-0.042713
0.14174,-0.10442,-0.11015,-0.14395,0.020243,0.0042745,0.0013195,0.018082
0.28416,-0.005264,0.0016073,-0.12106,-0.034437,-0.0086324,-0.03979,0.0084904
0.30814,0.090904,0.20252,0.39973,0.0044175,0.0096751,0.022813,0.069627
-0.19193,-0.01041,-0.10798,-0.20679,-0.003897,0.011998,0.1109,0.069019
0.18993,-0.042498,0.28238,0.1065,0.00309,-0.0019608,-0.08057,-0.11037
-0.64868,-0.051031,-0.45308,-0.27708,0.017589,-0.0089993,-0.11462,-0.054532
0.2366,0.027654,0.15568,0.37736,-0.038463,0.045425,-0.023075,0.064487
-0.21729,-0.00079831,-0.062323,-0.062583,0.038146,-0.080904,0.045052,-0.081706
0.22419,0.082972,0.1121,-0.073248,-0.010302,0.033994,0.13607,0.084716
0.061951,-0.0099154,0.069442,0.048531,0.019403,-0.015902,0.022908,-0.0303
0.33657,0.02497,0.059137,-0.20509,-0.021099,0.0041107,-0.076135,0.080771
-0.69239,-0.12549,-0.13842,0.048713,0.0010716,0.047542,0.010542,-0.090129
0.28925,0.045653,0.046226,0.15381,-0.031212,-0.010213,0.017296,0.074015
-0.029797,0.029648,-0.12191,-0.053609,0.014919,-0.028166,-0.079006,-0.051853
0.20257,-0.033765,-0.064865,-0.041883,0.022324,-0.021641,-0.14493,-0.037952
-0.037307,-0.0046793,0.10832,0.19728,0.014475,0.04863,0.14067,0.030023
-0.00029087,0.069542,-0.078168,-0.31219,0.030461,-0.012569,0.052083,-0.011619
-0.21892,-0.04571,0.29852,0.14112,-0.070326,-0.025585,0.043117,0.017245
0.22734,-0.022311,-0.08093,0.026243,-0.014433,0.0015895,0.043771,0.062356
-0.06103,-0.00070066,-0.10634,-0.18017,-0.0049759,-0.0016841,-0.10233,-0.024382
-0.16274,-0.019641,-0.13658,0.27162,0.020529,0.026631,-0.059782,-0.09434
0.23468,0.054023,0.031595,-0.025251,0.06202,0.01566,0.029962,0.03999
-0.40742,0.056556,0.038517,-0.25139,-0.044693,-0.027377,0.025343,0.0034115
0.16931,-0.066448,0.21945,0.24049,0.028329,0.029799,0.12081,0.037729
0.16834,-0.025686,-0.067193,0.027358,-0.00038208,-0.00068366,-0.15298,0.040854
0.050464,-0.0084147,-0.10375,-0.09485,-0.029469,-0.017378,0.024039,-0.065926
-0.028798,0.095027,0.17129,0.045208,-0.066895,-0.043532,-0.027591,-0.02534
0.17157,-0.035303,-0.32869,-0.23212,0.020081,-0.016166,-0.018177,0.084106
-0.091849,-0.016136,0.13828,0.11284,0.098654,0.03417,0.13917,-0.026777
-0.19487,-0.07353,0.025552,0.18275,-0.018606,0.022316,-0.093528,-0.10781
-0.09837,-0.042965,-0.15852,-0.31009,0.0043421,0.01147,0.034779,0.075826
0.0034375,0.036787,0.1492,0.23723,-0.074574,-0.036959,0.0092436,-0.014262
0.065717,0.15791,0.074162,-0.033558,-0.005243,0.0021815,-0.21666,0.013265
-0.13558,-0.023728,0.13989,0.081354,0.040553,0.074014,0.059999,-0.0050246
0.49562,-0.0088567,-0.21644,0.28532,0.05506,0.0061922,0.29941,0.056269
-0.32045,-0.025012,0.1842,-0.66405,-0.055454,-0.053481,-0.038692,-0.029329
-0.029037,-0.065396,-0.37771,0.068667,-0.04102,-0.050962,0.0052133,-0.0042442
-0.10038,-0.037098,0.11278,0.084294,0.07486,0.013237,-0.085801,-0.017429
0.33761,0.082832,0.069344,0.21002,-0.036014,-0.0096078,-0.25009,-0.014878
0.18741,0.0052923,0.093558,0.12446,0.048175,0.060157,0.059056,0.01051
-0.14072,-0.034946,0.053045,-0.087592,-0.086638,-0.035093,0.13125,0.05813
-0.15754,0.0019106,0.11269,-0.11472,0.012752,0.0018494,0.006686,-0.05208
-0.41896,0.015191,-0.45294,-0.12963,0.088706,0.046373,0.061769,0.039191
0.11492,-0.017692,-0.048853,-0.031167,-0.014755,-0.026152,-0.21781,-0.074034
-0.045214,-0.072691,0.46676,0.29799,-0.062925,0.018946,0.25482,-0.0083664
0.53465,0.12386,-0.35059,-0.11807,-0.071083,-0.052508,-0.074674,0.049472
-0.12503,0.040487,0.16338,-0.028275,0.070428,0.0017613,0.11378,-0.01687
-0.11358,-0.0030948,0.11754,-0.071888,0.072681,0.0098663,-0.094545,0.035519
-0.037301,-0.031168,-0.059616,0.057191,-0.072219,0.010757,-0.19273,-0.011641
-0.043374,-0.10709,0.028715,0.25868,0.057277,0.019863,0.20903,-0.017613
0.11742,0.026314,-0.095745,-0.41178,-0.023756,-0.0099499,-0.069464,0.03296
0.059648,0.056292,0.03442,0.11663,-0.011315,-0.0086491,-0.090868,-0.032401
-0.079969,0.014314,-0.19856,-0.015524,0.047035,0.039137,0.1216,0.012042
0.10816,-0.075535,0.21351,0.18335,-0.068019,-0.046453,-0.04098,0.056022
0.0026818,0.045495,-0.048345,-0.069057,-0.028669,-0.031098,-0.078149,-0.080939
-0.27452,-0.066902,-0.060205,0.038412,0.024449,0.022788,0.21351,0.030302
0.087541,0.049051,0.12558,0.059088,0.021316,0.029475,-0.080079,-0.047954
-0.16085,0.011,-0.35606,-0.25031,0.040603,0.01269,-0.068686,0.012586
0.16968,0.03764,0.34004,0.047118,-0.018568,-0.027257,0.0048263,0.017094
0.027406,0.042461,-0.012342,-0.11115,-0.085169,-0.027595,0.02247,0.013133
0.017285,-0.014567,0.039115,0.017595,0.067986,0.0040365,0.15542,-0.021989
0.16587,-0.00957,0.33634,0.54366,0.0038357,0.02861,-0.11233,0.029581
-0.063599,-0.060741,-0.42775,-0.43029,0.042888,0.053825,-0.046265,0.066761
-0.13865,-0.035905,-0.1071,0.14374,-0.072735,-0.045563,-0.13787,-0.10553
0.09704,-0.021128,-0.086391,-0.24105,0.055101,-0.019881,0.0046549,0.012707
-0.22466,-0.02385,0.1022,0.0098955,-0.066266,-0.017913,0.164,-0.0006239
0.043028,0.09729,0.20091,0.39712,0.0079137,0.022538,0.060271,0.041621
0.234,0.015027,-0.00025327,-0.30571,0.034887,0.0075207,-0.079047,-0.040681
0.1743,0.0035415,-0.10925,0.0027935,0.029798,-0.00054811,-0.034946,0.0020225
-0.35659,0.055463,-0.14802,-0.24048,0.0079417,-0.001627,0.027982,0.028697
-0.047377,-0.08696,0.14244,0.26802,-0.054254,-0.019008,0.06162,-0.015678
0.15615,0.029123,0.24704,0.30014,-0.062965,0.017837,0.056428,0.024918
-0.24576,-0.042084,-0.28762,-0.083544,0.028931,-0.00021486,-0.12228,-0.052762
0.09151,0.0035959,-0.032887,-0.44758,0.05773,0.0052141,-0.054263,-0.022174
0.24724,0.017356,0.072155,0.14371,-0.015263,0.003101,0.040643,0.030816
-0.066395,0.022538,0.21322,0.24377,0.060252,0.0014467,-0.080051,0.0751
0.222,0.042812,-0.040922,0.016265,-0.059304,-0.015229,0.24043,0.0093198
-0.33984,-0.14785,-0.13641,-0.29606,-0.022328,0.0078654,-0.19196,-0.072506
-0.23569,0.029413,-0.11995,0.058348,0.022676,-0.022962,0.046392,-0.037225
0.37859,0.028468,-0.13863,-0.090109,0.0052891,0.02511,-0.011356,0.037447
-0.090514,0.037377,0.16144,0.19097,0.019173,-0.019846,-0.21505,-0.019913
-0.12738,0.009444,0.25198,-0.025422,-0.037251,0.021726,0.36622,0.033315
0.21306,-0.079087,-0.043678,0.2005,-0.015464,-0.0066379,-0.032705,0.0021509
-0.01503,0.12252,-0.2621,-0.08282,0.014391,-0.0036648,-0.037138,-0.027318
-0.085851,-0.027558,-0.050249,-0.37468,0.013467,0.01468,-0.01528,0.022935
0.17935,0.039625,0.26387,0.2701,0.013213,0.0168,-0.10922,0.019728
-0.32976,-0.075566,0.093037,0.18658,-0.048757,-0.036664,0.0075647,-0.045369
0.10471,-0.0066897,-0.080894,-0.27507,0.038471,0.0025324,0.10708,0.022168
0.029013,-0.050692,-0.058095,-0.046291,0.032521,0.0093378,-0.16328,0.034
0.1381,0.050922,-0.1233,0.035122,-0.020063,-0.031765,0.11003,-0.026253
-0.068075,-0.028631,0.29079,0.358,-0.057204,0.020096,0.044236,-0.018487
-0.08147,-0.029795,-0.33348,-0.18078,0.061295,0.016832,0.038276,0.041497
