-0.013513,-0.072304,0.024866,-0.0074724,0.0058588,-0.013316,0.013749,0.39172
-0.014728,0.092906,-0.23159,-0.016116,0.0066164,0.012931,0.02344,0.21304
0.039551,0.039036,0.1653,0.021793,0.0075428,0.023038,0.073758,0.38827
0.01653,0.016457,0.09174,-0.0029396,0.0085276,-0.006701,-0.038782,-0.15535
-0.02132,0.017801,0.1819,-0.0041203,0.0016436,-0.0061222,0.036829,-0.17279
-0.058436,-0.081548,-0.39895,-0.012731,-0.052268,-0.037729,-0.1141,-0.59238
0.0066653,-0.00014215,0.12346,0.010511,0.026419,0.0079999,-5.0129e-07,0.1106
-0.013624,0.011958,-0.07876,0.011032,0.011127,0.014143,0.034918,0.00096036
0.075843,-0.022168,0.095578,-0.0033791,-0.004374,0.012286,0.052868,0.5516
0.0013699,0.029658,0.16895,0.0061674,0.0033937,0.010577,-0.03217,-0.13748
-0.049906,0.033794,-0.016273,0.00032158,-0.012404,-0.014142,-0.032601,-0.30807
0.015315,0.18467,-0.10999,0.0021741,0.0029418,-0.0070058,0.036172,0.096337
0.040312,-0.23719,-0.17595,-0.012042,0.010367,0.0085998,0.0025643,-0.062299
-0.030001,-0.13063,0.24612,0.0043102,0.01766,0.001359,-0.015929,-0.093868
0.022904,0.16849,-0.20304,0.0042687,-0.0064566,0.0023577,-0.011216,0.40208
-0.043111,-0.018899,0.063475,-0.027705,-0.022929,-0.019881,0.032554,-0.17499
-0.016742,0.034853,0.070793,-0.013244,-0.0082867,0.0047066,-0.0094566,0.14373
0.0089288,-0.012609,-0.022695,0.024563,0.0063045,0.013385,0.011299,0.15455
0.019157,-0.058253,0.097749,0.023584,0.013161,0.0059699,-0.02229,-0.15869
-0.0085439,0.05546,-0.15968,0.007568,-0.0031963,-0.017653,-0.00078468,-0.23328
0.012602,-0.029977,-0.12181,-0.023305,-0.011385,0.012802,-0.01787,-0.059934
-0.018409,-0.0096214,0.039878,-0.0065224,0.012112,-0.011974,0.020273,-0.088884
0.031379,0.069198,0.22319,0.010884,0.0047953,-0.0059023,-0.0034864,-0.019339
-0.033676,-0.10718,0.34062,-0.0026347,-0.00217,0.015595,0.0046295,-0.042471
0.027837,0.14704,-0.17257,0.015033,0.0066824,-0.001942,0.036785,0.51692
0.058564,-0.021753,-0.39698,-0.02246,-9.9013e-05,-0.011419,-0.0321,-0.042735
-0.067737,-0.029618,-0.30367,-0.013918,-0.014903,0.0029681,-0.0068446,0.13717
0.022788,0.059327,0.25403,0.016963,0.0011728,0.017897,-0.020432,-0.384
-0.02225,-0.22459,0.13438,0.023198,-0.0066426,0.0021603,0.0050755,-0.025285
-0.031302,0.0092431,0.43071,0.0048565,0.00071712,-0.013022,0.030431,0.027787
-0.0041258,0.1836,-0.21615,-0.037813,0.0077135,0.0035154,0.032031,0.48056
0.020996,-0.051364,0.022739,0.0049685,0.014493,-0.010852,-0.037128,-0.49932
0.021792,0.079997,0.023781,0.00089665,-0.010023,-0.017208,-0.036499,-0.10143
-0.031658,-0.037113,-0.64075,-0.018242,-0.010978,0.015539,0.018274,0.13565
0.018131,-0.1974,0.10957,0.01834,0.0039469,0.01691,-0.0055847,0.011704
0.023619,0.077275,0.19887,0.0094022,0.0035812,0.0023573,0.024821,-0.02327
-0.077302,-0.0092515,0.011616,0.0019267,0.0035679,-0.0048423,-0.0075888,-0.29192
0.1058,0.19111,0.39997,0.019219,0.011681,0.0029896,0.037935,0.41402
0.0018729,0.044149,0.18357,0.006246,-0.0034103,-0.013286,-0.01816,-0.29229
0.016048,-0.1633,-0.40495,-0.045286,-0.033994,-0.0067855,-0.081967,0.65344
-0.040461,-0.043277,-0.055357,0.028169,0.021394,0.0069813,0.081074,0.063403
-0.10633,0.096965,-0.019704,-0.00039385,0.0064257,0.012613,0.0024364,-0.22846
0.067578,-0.072608,-0.17412,-0.04532,-0.016448,-0.0051996,-0.028575,-0.53753
-0.0034729,0.15035,0.090976,0.026127,0.015258,0.0007911,0.058588,0.50053
-0.0068423,-0.171,-0.027613,-0.0046818,-5.487e-06,-0.015915,-0.1109,-0.94468
0.08932,0.16074,0.1522,0.010962,0.0081097,-0.00031592,0.025523,0.60978
-0.089071,-0.18705,0.047064,0.026516,-0.007218,0.0087096,-0.0088582,-0.32145
0.013714,-0.27294,-0.21601,-0.067092,-0.014678,-0.012279,0.035565,0.62775
-0.038845,0.35215,0.1059,0.042828,0.0014126,0.0068029,0.087826,0.22909
0.050877,-0.1137,0.22282,0.020357,0.0020255,0.018634,-0.040441,-0.14498
-0.021396,0.30701,-0.22722,0.0059603,0.002782,0.0069692,-0.037678,-0.22412
0.11937,-0.027679,0.20499,-0.039738,0.003622,0.025804,0.0015261,0.027878
-0.003669,-0.23083,0.093088,0.015679,0.012237,0.012,-0.024924,-0.10156
-0.14883,0.012292,-0.55928,-0.039113,-0.026232,-0.10521,0.054782,0.059926
0.066156,-0.054942,0.35433,0.061228,0.02865,0.017787,-0.06355,-0.18773
-0.070136,0.27972,0.18448,0.011927,0.012657,0.0061646,0.042983,-0.081221
-0.050227,0.27679,-0.47381,-0.030609,-0.019613,0.016681,-0.022622,0.13661
0.1335,-0.58974,0.32824,-0.026899,-0.01344,0.018807,-0.17281,-0.23766
-0.058104,0.1731,-0.31837,-0.015364,-0.023341,-0.017901,0.258,0.13833
0.093628,-0.15686,0.029575,0.028202,0.0056666,0.016678,-0.010302,0.49507
0.0026957,-0.048694,0.033563,-0.0048265,0.034887,0.013743,-0.055279,0.067557
-0.018444,-0.20391,0.22071,0.011127,-0.01344,-0.002948,0.02918,-0.17834
0.045888,0.2777,0.35017,-0.0096274,0.0015926,-0.025525,-0.046798,0.16571
-0.16346,-0.088238,-0.41527,0.01867,0.001988,-0.0073018,-0.034564,-0.56402
-0.099202,0.27285,0.12397,-0.037416,-0.012312,-0.0033346,0.04858,-0.078424
0.12985,0.094966,-0.23238,0.063306,0.036579,0.040587,0.0055692,0.11566
0.10236,-0.080147,0.4558,0.0071336,-0.015775,-0.024479,-0.040163,-0.033602
0.0061846,0.34789,-0.32353,0.027266,0.0098839,0.051008,0.097731,0.40085
-0.010261,-0.069422,0.07581,0.052491,0.0037913,-0.045817,-0.0031868,-0.29998
-0.19748,-0.084989,-0.56472,-0.28479,-0.073386,-0.088636,-0.10842,0.4361
0.09981,-0.55848,0.39025,0.10156,0.04388,0.070851,-0.045288,0.018998
0.075557,-0.32184,-0.11758,-0.0064513,-0.011516,0.0028861,0.039119,-0.83542
0.1345,0.0010601,0.018049,0.040757,0.0028399,0.019915,0.013667,0.29256
-0.060688,0.55646,0.52769,0.096032,0.016934,0.059354,0.098825,-0.028858
-0.20627,0.26705,-0.4302,-0.050432,0.0076258,-0.066412,0.006993,0.48672
-0.021246,-0.19337,0.23801,0.008377,0.014213,-0.013751,-0.11241,-0.055223
0.057503,-0.050385,0.1237,-0.024133,-0.017852,-0.0092811,0.014399,-0.28518
0.133,0.28052,-0.08962,0.03936,0.0052271,0.056446,0.058997,-0.10886
0.082385,-0.35387,-0.29711,-0.036053,-0.010317,-0.019437,0.012681,0.70702
-0.27156,-0.055479,0.0051118,-0.0088921,-0.017658,-0.017731,-0.11806,-0.77747
0.0032965,0.48488,0.025618,-0.012682,0.014409,-0.015957,0.079287,0.26245
0.049527,-0.089572,0.19388,0.0066962,-9.5768e-05,-0.052516,0.0016306,-0.224
0.047932,-0.2692,-0.019422,-0.013608,-0.029964,0.021626,-0.00073845,-0.13157
0.1157,-0.41899,-0.5326,0.0044004,0.018479,0.042794,0.024508,0.55128
0.0016802,0.16752,0.09609,-0.017367,0.020098,0.034504,0.1397,0.10196
0.016204,0.23745,0.27673,0.05401,0.045003,0.19181,-0.19369,0.14995
-0.16384,-0.085593,0.4492,0.02331,-0.047692,-0.29831,-0.099534,-0.88539
-0.017946,0.45607,-0.050315,-0.023512,-0.00044395,-0.0068505,0.017441,0.0024005
-0.0018319,-0.19152,-0.26283,-0.031838,-0.024405,0.089018,-0.20058,0.71173
0.14053,-0.058327,0.050168,0.037277,0.020951,-0.026751,0.35694,-0.021686
-0.075964,-0.41613,-0.30333,-0.011577,0.0028772,0.16136,0.13581,-0.52341
0.028817,0.17454,0.20368,-0.045598,-0.00025822,-0.19798,0.018473,0.15531
-0.090484,-0.010678,-0.18186,0.04472,0.0041278,0.044179,-0.03517,-0.18471
-0.064318,0.51503,0.0075775,-0.029397,-0.022536,-0.080223,-0.24519,0.66369
0.14923,0.058976,0.42912,0.021532,-0.0016211,0.077906,0.11386,-0.34257
0.09215,-0.23549,-0.3832,-0.036383,-0.010834,0.050248,-0.23187,0.034225
-0.014185,-0.74848,0.27014,0.062947,0.036008,-0.061602,0.23371,0.25785
-0.15219,0.31135,-0.42624,0.0073784,0.021729,0.030965,-0.12092,-0.49756
-0.062996,-0.21865,0.14966,-0.085734,-0.014849,0.069232,-0.18463,0.19933
0.11279,0.43483,0.14235,0.05698,0.0039464,-0.018296,0.37235,-0.50227
0.022546,0.43373,-0.00057244,-0.06479,-0.039655,0.087493,-0.17556,0.27998
-0.015496,-0.023005,-0.036633,0.071869,0.017813,-0.2315,0.17931,-0.12794
-0.074522,-0.29266,0.134,0.052241,0.011795,0.032151,0.14649,0.51986
0.20151,0.39983,0.1642,0.024096,0.027939,0.027175,-0.34682,0.41276
-0.096996,-0.61493,-0.23162,-0.11467,-0.050973,-0.034591,0.055708,0.020183
0.027144,-0.24632,0.098281,-0.004964,-0.013766,0.0044156,0.24171,-0.75093
0.025249,0.21645,-0.59994,-0.060821,-0.0084239,0.090926,-0.15818,-0.25009
-0.095272,-0.13775,0.31165,0.038423,0.0125,-0.016048,-0.29327,0.37898
-0.20827,0.32152,-0.098004,0.058969,0.033948,-0.018903,0.15744,-0.58216
0.18104,-0.016172,0.13971,0.024914,0.025114,0.12938,-0.053834,0.69054
-0.0018752,0.16053,0.62709,0.046241,0.0018584,-0.032548,0.31059,0.047351
0.090736,-0.10401,-0.42364,-0.048483,-0.020199,-0.12265,-0.18298,-0.14418
0.0015808,-0.2443,-0.088945,-0.063719,-0.033472,-0.040274,-0.11685,0.3353
-0.16517,0.013372,-0.15604,-0.022909,-0.022727,0.0028163,0.26182,-0.70227
0.099347,0.79167,0.33026,0.034676,0.034993,0.099802,-0.186,0.06045
0.0052916,-0.44497,-0.51855,0.038333,-0.0014344,-0.0073881,0.21167,0.031297
0.042313,-0.45968,0.049499,-0.043711,0.015981,-0.076556,-0.15584,0.51282
0.050242,0.078197,0.18433,0.053566,0.0087801,-0.021577,-0.11137,-0.10222
0.11039,0.42217,0.18352,0.087377,0.039293,0.18904,-0.11916,0.21684
-0.19579,-0.23513,0.062496,-0.17715,-0.087759,-0.10074,0.4344,-0.086524
-0.043663,0.0038461,0.44524,0.048755,0.010694,-0.0080157,-0.0868,-0.20119
0.22128,-0.4305,-0.62275,0.015078,0.0069817,0.053177,0.11166,-0.25905
-0.4553,0.15115,-0.25206,-0.043518,-0.027995,-0.23752,-0.19796,-0.38841
0.038417,0.36038,0.34591,0.061023,0.047008,0.27609,-0.33564,0.53671
0.29246,0.87897,-0.44556,-0.022134,-0.0096614,-0.16376,0.0051248,-0.18177
-0.086677,-0.90878,0.42951,-0.018776,0.021094,0.33369,0.30385,0.68307
0.085566,-0.26758,-0.41011,0.048342,0.0065564,-0.40318,0.0562,-0.29636
-0.015003,-0.10327,0.60711,-0.031242,-0.014377,-0.014581,0.21858,-0.4382
0.028035,-0.040711,-0.45618,-0.0073439,-0.018654,0.070242,-0.4253,-0.19488
-0.10515,0.68577,0.53157,0.026149,0.016644,0.30484,0.12573,0.40024
0.13099,-0.44718,-0.42447,-0.04057,-0.018415,-0.25583,0.0042281,0.19292
-0.094448,0.60755,0.28942,0.041855,0.00067175,-0.002365,0.13044,0.19682
0.1134,-0.36041,0.31041,0.085181,0.034471,0.010283,-0.17799,0.28919
-0.14763,-0.014022,-0.30927,-0.090977,-0.050034,0.04718,0.10695,-0.88186
0.049013,-0.42183,-0.85157,-0.11214,-0.01069,0.013784,0.075752,0.088402
-0.080034,-0.0893,0.69274,0.076125,0.043239,-0.14552,-0.44621,-0.059024
-0.0042839,0.70484,-0.56384,0.020735,0.0025884,0.16989,0.73459,-0.15962
-0.0044312,-0.41231,0.34355,0.08919,0.031689,-0.095464,-0.42146,0.72714
0.11646,-0.010133,0.38711,-0.13207,-0.04886,0.13607,-0.38235,0.16201
0.055982,0.31671,-0.47056,0.04503,0.003408,-0.010521,0.50222,-0.44741
-0.2069,-0.48172,0.4572,-0.011752,-0.014376,-0.058166,-0.26513,-0.33138
0.072075,0.44095,0.50293,0.057399,0.015189,-0.21674,0.131,-0.10092
0.16771,0.27333,-0.45572,-0.059758,-0.0093089,0.069906,0.13862,0.134
-0.16957,-0.28093,-0.19768,0.0040033,0.0059511,0.053384,0.2755,0.13041
0.098741,-0.14249,0.093236,0.045377,0.021877,0.094505,-0.26947,0.42525
-0.10687,-0.13633,-0.73275,-0.04538,-0.0007255,0.014524,-0.73002,-0.37639
0.078815,-0.17826,0.39693,0.01249,-0.015195,0.048073,0.60473,0.58596
-0.026055,0.39744,0.058319,-0.00030028,0.0016401,0.061873,0.10919,-0.24335
0.06873,0.1895,0.29086,0.0016877,-0.01299,-0.17169,0.29793,-0.35878
-0.052331,-0.86478,-0.13857,0.010267,0.01881,-0.10711,-0.56479,0.11216
-0.061749,0.8688,-0.10467,0.033065,-0.0046709,0.027609,-0.058593,-0.40281
-0.0061308,-0.037848,-0.35199,-0.054875,-0.0053574,0.11401,0.16653,-0.021864
-0.0015521,-0.67796,0.51958,-0.034528,-0.014443,-0.10667,-0.00017423,0.37985
0.00059608,0.68883,0.50749,0.0086344,-0.00052978,0.13843,0.31516,-0.049057
-0.028915,-0.48931,-0.31641,0.051747,0.044407,-0.033722,-0.10693,0.050513
0.20092,0.24785,0.062617,0.017261,-0.012198,0.095837,0.014651,0.76317
-0.05054,0.30248,-0.52888,-0.039659,-0.0060352,0.043326,-0.48371,-0.73408
-0.040172,-0.29317,0.28376,0.029718,-0.022823,-0.28401,0.25841,-0.38269
-0.12708,0.022841,-0.45799,-0.071416,-0.015519,-0.0020592,-0.24198,0.11727
0.15713,-0.086064,-0.052883,0.04741,0.015969,-0.031214,0.33681,0.33121
-0.11022,0.41993,0.87573,0.07336,0.048208,0.2002,0.12854,0.028232
0.061971,-0.37765,-0.81628,-0.079944,-0.036083,-0.017806,-0.054068,-0.013355
0.07878,0.16871,0.29081,0.032364,0.020731,0.026022,0.069552,-0.021031
-0.23273,-1.0712,-0.0084131,-0.058835,-0.023768,0.065576,-0.3145,0.061572
0.20473,0.64247,0.24324,0.021246,0.0020466,-0.0019159,-0.012719,0.059311
-0.085928,0.59043,0.28971,-0.00087181,-0.011421,-0.22507,0.38721,-0.32524
-0.042418,0.053381,-0.33852,0.023364,0.013789,-0.058979,-0.24099,-0.26249
0.10878,-0.51758,-0.081955,0.01604,0.022899,0.22886,-0.16346,0.0077009
0.11015,-0.26784,-0.40589,-0.06949,-0.046608,0.011974,0.22959,0.28371
-0.27225,0.70067,0.067781,0.016943,0.0084338,-0.093319,-0.13869,0.21297
0.12606,-0.2174,0.35849,0.048832,0.024036,0.1082,0.10072,0.3999
-0.053978,0.31513,0.77641,0.026096,0.0080954,-0.11713,-0.23761,-0.36846
-0.10135,-0.46778,-0.70974,-0.0045768,-0.023688,-0.056857,0.17628,-0.5912
0.21022,0.058258,-0.081652,-0.035607,0.014678,0.18958,0.2968,0.30655
-0.049584,-0.3717,-0.42791,-0.051569,-0.017392,-0.14095,-0.30521,0.34235
0.024586,0.77682,0.1725,0.064627,0.028571,-0.10846,0.11221,-0.16997
0.033347,-0.5443,-0.67149,-0.061991,-0.0036477,0.23447,-0.076685,0.45225
0.12449,0.12825,0.58535,-0.017219,-0.051498,-0.17333,0.13497,0.0049765
-0.1629,0.19084,0.7511,0.058514,0.033515,0.074681,-0.19889,-0.48353
-0.14041,-0.37956,0.35673,0.032579,-0.0063617,0.047995,0.0073597,-0.47833
0.029844,0.21567,-0.039158,0.061345,0.024221,0.1588,-0.035051,-0.0083375
-0.09477,-0.11566,-0.70859,-0.12077,-0.038796,-0.28301,0.15121,-0.08973
0.027786,0.040389,-0.12739,0.033124,0.054545,0.31345,-0.19065,0.52147
0.12666,-0.2177,-0.40291,-0.023837,-0.016139,-0.39819,0.26054,0.0059157
0.11743,0.21254,-0.046004,-0.0024984,-0.0087418,0.18955,-0.29174,0.095053
-0.062431,0.49212,0.74052,0.050449,-0.0092558,-0.10394,0.2458,0.42051
0.085329,0.052148,-0.43071,-0.036599,-0.0098739,-0.028488,0.098325,0.067849
0.018423,0.095166,0.07812,-0.036776,-0.01054,0.22951,-0.127,-0.28237
-0.14228,-0.59058,0.30348,0.034557,0.020104,-0.23445,-0.25325,-0.48568
0.059907,-0.4497,-0.0085761,0.044726,0.0275,0.25348,0.19325,0.12336
-0.1364,-0.12703,-0.067567,-0.053199,-0.035113,-0.13295,0.28813,-0.22718
0.00093116,0.53279,-0.19537,0.013942,0.0042033,-0.040728,-0.31403,0.27126
-0.0052115,0.56319,-0.068208,0.026914,0.020444,-0.00019622,0.13629,0.26716
0.01819,-0.89885,0.28417,-0.046159,-0.02553,0.051441,-0.39911,-0.093976
0.018985,0.54991,0.45633,0.098758,0.038027,0.24678,0.2225,-0.16178
0.13339,-0.14112,-0.19063,-0.015451,-0.0077819,-0.30536,-0.18334,-0.27379
-0.064628,-0.14142,-0.35585,-0.13131,-0.038085,-0.090059,0.8244,0.43088
-0.048304,0.26016,-0.57109,0.024565,0.025169,0.10294,-0.58678,-0.1541
0.0052199,-0.13347,-0.083272,0.022731,-0.013339,-0.055047,-0.24206,-0.11177
0.066195,0.45592,0.34025,-0.01916,-0.02074,0.18557,0.27469,0.19173
-0.044681,0.15026,0.53541,0.06352,0.018679,-0.066174,0.12856,0.10587
0.0626,-0.55225,0.15072,0.013497,0.019059,0.064434,-0.23518,-0.12542
-0.019585,-0.56518,-0.28394,-0.012567,0.0038772,-0.23543,0.24493,-0.074897
-0.12116,-0.104,0.22751,0.048062,0.0043605,0.15887,-0.065679,0.040314
0.052836,0.56344,-0.65002,-0.10142,-0.018625,-0.073354,-0.30988,0.26598
0.039736,0.16268,0.1361,0.015524,0.020771,0.067559,0.19744,-0.14254
0.025629,0.098442,0.26109,0.00035739,-0.018139,0.19076,0.14153,-0.015545
-0.10769,-0.15646,-0.30446,-0.006389,0.013088,-0.21938,-0.09669,-0.12685
-0.0015359,-0.24214,0.74544,0.034246,-0.041716,0.095233,0.012648,-0.1379
0.0076975,0.12674,-0.57175,-0.03411,-0.010529,-0.28664,0.13282,0.090468
0.044637,0.075258,0.16918,0.0071168,0.0052414,0.057756,-0.35358,0.013623
0.077665,0.45206,-0.27614,0.024864,0.044757,0.26225,-0.079136,0.012025
0.051735,0.065523,0.45213,0.073497,0.022063,-0.055078,0.49573,-0.078569
-0.0099482,-0.50149,-0.87741,-0.12078,-0.023935,-0.12024,-0.51904,0.20351
-0.11512,0.079319,0.26358,0.058915,0.015859,0.043403,0.54107,0.069572
0.025894,-0.28842,0.39649,-0.028267,-0.015134,0.037015,0.0044956,0.049798
-0.17944,-0.43742,-0.066974,-0.030799,-0.0078206,0.094208,-0.1675,-0.30437
0.098838,0.59416,0.64291,0.074916,-0.0014082,0.065676,-0.31032,0.0012902
0.05823,0.092501,-0.71401,-0.07015,-0.027091,-0.18989,0.38954,0.20066
-0.064667,-0.22478,-0.20831,0.018853,-0.0064795,-0.024296,-0.16006,-0.0058237
0.083552,-0.00035738,0.071775,-0.0012981,0.013969,-0.10912,-0.25393,-0.18503
0.082134,0.36192,0.49748,0.041757,0.019109,-0.006085,0.17272,0.37644
0.017222,0.054623,-0.099724,-0.0078628,0.017179,0.1373,-0.18287,-0.49105
-0.1041,-0.32944,-0.091391,-0.0093299,-0.0228,-0.068862,0.43821,0.25423
0.02136,0.35153,-0.30138,-0.0094968,0.024229,0.16462,-0.011062,0.045659
-0.12404,-0.45255,-0.3022,-0.024128,-0.0059584,0.024585,0.12408,-0.15857
0.019961,0.65125,0.60082,0.016829,-0.012137,-0.02165,-0.37776,-0.015917
0.091842,-0.43615,-0.25549,0.027107,0.020892,0.27405,0.23015,0.31759
-0.089964,0.12635,0.64668,0.0063656,-0.032284,-0.51982,-0.46952,-0.40662
0.19187,-0.44057,-0.21293,-0.045699,-0.015728,0.048616,0.49712,0.024593
-0.071323,0.38635,-0.40862,0.034751,0.031346,0.025968,-0.35592,0.31692
-0.035965,-0.153,-0.037826,-0.033664,-0.02385,-0.04789,0.22098,-0.18336
-0.02183,-0.42356,-0.15906,-0.0087899,0.014172,0.078786,-0.068252,-0.10686
0.011388,0.1575,0.21534,0.046913,0.020684,0.25983,0.051603,0.56378
-0.059478,0.032228,0.095136,-0.038357,-0.035272,-0.2837,0.13767,-0.42011
-0.029107,0.42899,0.19136,0.024532,0.018427,-0.026537,-0.36202,-0.073107
0.14381,-0.030143,-0.18552,-0.014376,0.0022487,0.29018,0.39895,-0.050491
-0.10128,0.28686,0.015172,0.055871,0.0099792,-0.16938,-0.077105,-0.038814
0.033811,0.23332,0.45213,0.0087152,0.010299,0.0080539,-0.21817,0.29875
0.057353,-0.19264,-0.51328,-0.10894,-0.020367,-0.11642,-0.4062,-0.27156
-0.038953,-0.49422,-0.050268,0.046741,-0.0040529,0.17427,0.80402,0.016004
-0.045508,-0.23593,-0.091977,-0.047541,-0.0033816,0.12078,-0.23707,0.051459
0.13732,-0.39311,0.51673,0.069328,0.0050263,-0.26236,0.13254,0.33339
0.015183,0.29746,-0.72267,-0.032171,-0.041313,-0.092744,0.050746,-0.2262
-0.20292,0.48597,0.40447,0.069936,0.04517,0.020536,-0.47766,0.10467
0.16915,0.21632,-0.20598,-0.038418,0.014559,0.17981,-0.0024305,-0.11373
-0.20502,-0.57531,0.014218,-0.068293,-0.023713,-0.098339,0.21623,-0.10952
0.026585,0.55512,0.9452,0.08165,0.0084754,0.13996,0.12975,-0.12544
0.13085,-0.26199,-0.75318,-0.0029276,0.009488,-0.13628,-0.18461,0.16718
-0.015453,0.17996,-0.62634,-0.041052,-0.01299,0.072532,0.3434,-0.066127
-0.043233,0.038608,0.50445,0.013935,0.019016,0.10916,-0.44172,-0.04218
-0.0055965,-0.68658,0.27662,-0.0021428,-0.0039947,-0.035579,0.32088,0.25655
0.067143,0.44769,0.45866,0.012293,-0.035217,-0.066157,-0.1088,0.13614
-0.10618,-0.077152,-0.47867,-0.020739,-0.027765,-0.1398,-0.20466,-0.37155
0.23145,-0.28011,-0.70505,-0.015052,0.0497,-0.022401,0.13786,0.27232
-0.15588,0.68699,0.53294,0.045289,0.017632,0.18502,-0.093902,-0.13629
0.026719,0.0086874,0.38931,0.004355,0.0090063,-0.15683,0.1573,-0.22362
-0.0040402,-0.15311,-0.2684,0.010865,0.00053538,0.28204,0.080857,0.0012504
-0.085829,-0.47137,-0.26539,-0.075607,-0.070168,-0.22288,0.052735,0.46704
-0.071322,0.25718,-0.17477,0.010647,0.015705,0.041252,-0.23955,-0.26416
0.054787,-0.58343,0.11897,0.043011,0.039402,-0.080489,0.1016,0.29233
0.19146,0.49308,0.6375,-0.0021518,-0.022586,-0.111,-0.18316,-0.19844
-0.0037774,0.61372,-0.67697,-0.015792,0.024915,0.30866,0.20887,-0.66454
-0.068101,-0.4543,0.15452,0.056362,0.01766,0.1381,0.25985,0.48964
-0.053946,-0.22576,0.18622,-0.059566,-0.044551,-0.14814,-0.78258,0.062581
-0.13084,0.54946,0.59458,0.018855,-0.0056435,-0.27891,0.44644,0.062962
0.015807,-0.47269,-0.36786,-0.021117,0.017087,0.19679,0.022787,0.068534
0.082811,0.027868,-0.84798,0.00015446,0.0080017,0.066568,0.32719,0.093152
0.1098,0.27803,0.42958,0.020334,-0.017178,-0.23259,-0.25931,-0.21776
-0.013177,-0.12722,0.17141,-0.030531,0.019865,0.1983,-0.30827,0.17893
-0.029985,-0.35762,0.070835,0.012118,-0.029043,-0.194,0.47667,-0.45499
0.095862,-0.15262,-0.17609,0.0082135,0.016079,0.084758,-0.63062,0.15861
-0.12302,0.6077,-0.15979,0.028598,0.022698,0.3415,0.70721,0.2367
-0.0098148,-0.41851,0.35947,-0.020048,-0.032412,-0.50776,-0.49965,0.15423
0.034865,0.28482,-0.1274,0.0031848,-0.00069921,0.15541,0.35349,-0.063456
-0.021254,0.28657,0.12846,-0.0031581,0.016262,-0.0124,-0.24541,-0.24863
-0.052827,0.23974,-0.50004,-0.039144,-0.0051023,0.32407,0.097957,-0.45885
0.0043087,-0.75855,0.2331,0.051246,0.020898,-0.1648,0.043143,-0.0011816
-0.0034441,0.11493,0.25094,-0.052673,-0.0076154,0.11275,-0.063572,0.61366
-0.049537,-0.34724,-0.12012,0.031431,-0.02066,-0.32184,-0.36147,0.07664
0.033021,0.13322,-0.1658,0.021757,0.0049148,-0.11079,0.032121,0.55319
0.066686,0.57074,0.33397,-0.01194,0.0064141,0.27633,0.82646,-0.73102
0.11489,0.34115,0.5672,0.054845,-0.00060632,0.0036161,-0.20806,-0.013113
0.06782,-0.75604,-0.51967,-0.082931,-0.016086,-0.029673,0.0027914,-0.3048
-0.21679,0.041117,-0.27513,0.01989,0.014833,-0.11908,-0.27936,0.030367
0.094583,-0.32489,-0.5994,-0.050674,-0.0091766,0.21346,-0.44068,0.36364
-0.031928,0.23693,0.079071,0.049425,0.0058848,-0.13231,0.37613,0.23129
-0.082921,-0.027073,0.56087,0.015946,0.013347,0.031951,-0.21239,-0.32147
0.057401,0.6667,-0.11797,-0.049043,-0.010108,-0.067062,0.37255,0.10337
-0.080071,-0.33024,0.13285,0.04241,-0.001977,-0.0080517,0.007371,-0.30615
-0.088485,-0.24699,0.40972,0.017186,-0.0014272,0.17653,-0.39221,0.0058808
0.11153,0.45867,-0.14648,0.0082271,0.0069718,0.0085639,0.60482,-0.11531
0.076124,-0.78156,0.33731,-0.0079546,0.0073562,0.025562,-0.18046,0.5347
0.017429,0.6593,-0.77494,-0.04718,-0.00050297,-0.21891,-0.044784,0.3083
0.014219,0.050104,-0.25213,-0.015969,-0.01677,0.11854,-0.37124,-0.50513
0.082116,-0.16616,0.35676,0.022899,-0.0024369,-0.19587,0.40228,0.008502
-0.045015,-0.35615,-0.15147,0.037957,0.0035088,-0.02004,-0.1072,-0.16631
-0.10225,0.28045,0.491,-0.0021668,0.009081,0.24186,-0.20421,0.11163
0.058355,-0.32878,-0.39919,0.0041033,-0.024488,-0.064244,0.010247,0.046704
-0.1648,0.45579,0.37072,0.010044,0.028135,0.024382,0.31825,0.05479
