0.082942,0.087207,-0.12857,-0.013933,-0.0058092,-0.010747,0.12583,0.059699
0.26822,-0.17586,0.041791,0.010105,0.010257,0.013798,0.0073636,0.0025948
-0.054973,0.2193,0.047981,-0.0048178,0.0026458,-0.0084076,-0.10371,0.020206
-0.32085,-0.5262,-0.09551,-0.004174,0.0024623,0.00049334,-0.052226,-0.0058561
0.35017,0.0083304,0.055635,-0.0036868,-0.0059792,0.0012207,0.14536,0.025537
-0.21511,0.38542,-0.038297,-0.026806,-0.030445,-0.029785,-0.11291,-0.080609
-0.42201,0.2237,0.09128,0.0281,-0.00047541,0.0012134,0.071465,0.028213
0.091705,-0.59913,-0.10212,-0.010726,0.0060229,0.0083656,-0.12123,-0.029432
0.29884,0.084642,0.0074184,0.020906,0.020529,0.015254,0.091226,0.037095
0.12551,0.0055698,0.053983,0.01371,0.019787,0.014227,-0.024394,0.11997
0.082967,0.034488,-0.12506,-0.024479,-0.011738,0.0054211,0.02524,0.048666
-0.084758,0.41623,0.065355,3.805e-05,-0.0037503,-0.011064,0.04573,-0.21488
-0.041739,-0.12151,0.016738,-0.014421,-0.0032328,-0.01954,-0.056152,-0.068518
0.077518,-0.32931,0.049693,0.041363,0.013097,0.011288,0.039962,0.058194
-0.026677,0.11098,-0.0080618,-0.028082,-0.0096025,-0.0044723,-0.025716,0.15707
-0.38096,0.16476,0.10026,-0.0041381,-0.040187,-0.012081,-0.074304,-0.14775
0.25403,-0.04689,-0.056467,0.011558,0.022863,0.011951,0.033755,0.056475
-0.10801,-0.26994,-0.14382,-0.027873,-0.015747,-0.018288,0.0082338,0.049356
0.31347,0.2973,0.040046,0.041694,0.039342,0.022173,0.11369,0.11825
-0.11384,0.028145,0.017784,-0.013996,0.0084819,0.023853,0.16964,-0.019588
-0.25559,-0.27276,-0.054513,-0.015104,-0.014576,-0.029064,-0.45704,-0.36509
0.093466,0.2868,0.034537,-0.00053806,-0.0064419,0.0037921,0.11668,0.15191
-0.0018578,-0.21203,0.090521,0.022019,0.0015492,0.020577,0.032219,0.032156
0.39792,-0.35131,-0.072925,-0.017662,0.0014871,-0.018019,0.079871,0.1522
-0.39339,0.45894,0.068774,0.021073,-0.014518,-0.018405,-0.0045644,-0.063958
0.069931,0.011206,-0.038124,-0.010244,0.0081936,0.019393,-0.032249,-0.098337
0.052972,-0.043864,-0.04924,-0.010125,-0.0006562,-0.013874,-0.041265,-0.065986
-0.10963,0.38026,0.090367,0.013518,0.013721,0.0070623,5.4135e-05,-0.082552
0.22094,-0.51431,-0.095977,-0.0097279,-0.01102,0.0044456,0.13835,0.3604
-0.16821,0.14519,0.0085043,-0.0096369,-0.0043856,-0.0056878,-0.049083,0.020235
-0.03662,0.051147,0.059445,-0.0018908,-0.013067,0.00048201,0.053664,-0.17485
0.028567,-0.10404,-0.037602,0.029112,0.025589,0.0076178,-0.093912,-0.023958
0.089419,0.021036,0.060466,-0.018181,-0.0055092,-0.0075759,-0.11814,0.064056
0.0057234,-0.059451,0.0094301,0.020339,0.010853,0.01737,0.13625,-0.038249
-0.12757,-0.072523,0.012232,-0.003689,-0.0034952,-0.019308,-0.089,-0.12181
0.019417,0.036837,-0.20443,-0.027656,-0.0095952,-0.00076407,0.0265,0.093631
-0.074726,0.21468,0.031769,0.0032507,-0.0075928,0.017889,0.084865,-0.03257
0.099668,0.016411,0.088609,0.0032206,0.0023452,0.0049626,0.19635,0.28954
-0.018578,0.059478,0.029188,-0.0042153,-0.003392,-0.016483,-0.40366,-0.46193
0.1179,-0.43779,0.025777,0.012221,-0.0015385,0.015802,0.059262,0.21491
0.10241,0.10935,0.054996,0.0055918,0.023365,-0.03889,0.070284,-0.014088
-0.17574,0.15214,-0.070979,-0.008642,-0.014773,0.0070355,0.082972,-0.045957
-0.12466,-0.01483,-0.11842,0.0083405,0.0089185,-0.010244,-0.0041989,0.096597
0.16766,0.51245,0.22432,0.032828,0.016231,0.042411,-0.035335,0.054191
0.011905,-0.68955,-0.27803,-0.036983,-0.024097,-0.0065321,0.12956,0.17775
-0.1713,0.37085,0.11591,-0.013728,-0.018235,-0.016163,-0.21335,-0.37745
0.17227,-0.27399,0.046184,0.0088623,0.018375,0.013701,0.15416,0.19231
-0.16018,0.027286,0.059337,-0.00026751,6.7777e-05,0.01281,-0.1197,-0.14478
0.0042142,-0.38495,-0.071192,-0.017338,-0.010331,-0.01888,-0.019085,-0.029337
0.049715,0.52594,-0.02475,-0.0028644,0.010949,-0.0033526,-0.027805,0.00016669
0.18883,-0.10964,0.097778,0.027936,-0.0061284,0.012385,0.081436,0.13223
-0.045775,0.32209,-0.10888,0.0050433,0.0089253,-0.026462,-0.050103,-0.046188
-0.2155,-0.16071,0.012694,-0.0089449,0.0014605,0.0050479,0.093473,-0.065635
0.19591,-0.47985,-0.04407,0.024898,0.010434,0.020973,-0.034968,0.089556
-0.15512,0.10425,-0.012468,-0.034411,-0.01907,-0.025528,0.024713,0.028027
0.16083,0.45378,0.076984,0.023547,0.022014,0.021842,0.26353,0.25618
-0.16939,-0.14888,0.052634,-0.028371,-0.030706,-0.016582,-0.24946,-0.36059
0.040788,0.23427,0.0078834,0.028056,0.0099775,0.015432,-0.21053,0.019764
-0.030165,-0.067373,0.020005,0.020585,0.011044,0.0084402,0.12213,0.25543
0.069535,-0.19878,-0.10747,-0.066535,-0.0276,0.0014002,-0.094932,-0.43513
-0.013024,0.0030796,0.0071017,0.024663,0.019069,0.025452,0.1158,0.081587
0.33039,-0.068234,0.081544,-0.0022819,0.0027447,-0.075735,0.044712,0.096206
-0.24465,-0.32792,-0.14238,-0.0061412,0.0095671,0.018127,0.044746,-0.014235
-0.20685,-0.36816,0.0073893,-0.009672,-0.022725,-0.028859,-0.039223,0.13512
-0.0084045,0.77452,0.11752,0.042439,0.015478,0.064644,0.027851,0.038036
0.1572,0.20311,0.071958,0.0022045,-0.00062567,0.0096832,-0.019501,-0.085953
-0.012257,0.30663,-0.19055,-0.012998,-0.0084068,-0.0061448,-0.009694,0.044284
-0.076539,-0.74909,-0.043976,-0.011084,0.0078062,-0.021839,-0.037054,-0.12687
0.029283,0.35311,0.12934,-0.00024063,-0.014533,-0.02175,-0.078835,-0.06966
0.19744,-0.58199,-0.1397,0.026775,0.01819,0.033173,0.19243,0.5267
-0.2592,0.3095,0.15544,-0.016639,-0.011421,-0.021173,-0.15351,-0.58941
0.033256,0.63989,0.043838,-0.013925,-0.0020623,-0.01298,-0.038936,-0.075513
0.087918,-0.10307,0.10093,0.0031742,0.014751,0.018602,0.051415,0.15355
0.15118,-0.0774,0.12871,0.0344,0.023165,0.034403,0.07036,0.30848
-0.077925,-0.74925,-0.36712,-0.03742,-0.031656,-0.020374,0.10354,-0.0089145
0.12329,0.15508,-0.082713,-0.01669,-0.0091149,-0.0051961,0.080369,0.030193
-0.29491,-0.22584,-0.064251,0.011147,0.0049553,0.0017683,-0.34303,-0.48722
0.010005,0.20418,0.08118,-0.00017504,-0.020469,-0.022891,-0.018148,0.018261
-0.12533,0.27045,0.23209,0.01244,0.016478,0.014687,0.070969,0.25895
0.16882,0.43133,0.025368,0.01821,0.0067342,-0.010316,0.12801,0.087657
0.14638,-0.38038,-0.20696,-0.0060547,0.0052396,0.011694,0.083378,0.1615
-0.38349,-0.14197,-0.02441,-0.013494,-0.0034947,-0.012823,-0.21848,-0.51919
0.28653,0.25033,0.13704,0.003443,0.019586,0.025655,0.11367,0.34999
-0.0045255,-0.28437,0.034981,0.020874,-0.0037828,-0.021257,-0.07603,-0.10679
0.19008,0.012504,-0.043403,-0.00078516,-0.011327,0.018253,0.11102,0.031089
-0.47377,0.61541,0.015861,-0.022953,-0.011102,0.011214,-0.083037,-0.11279
0.56453,-0.57263,0.068242,-0.022526,-0.0032977,-0.011338,0.068123,0.25712
0.075643,0.48502,0.086467,0.031633,0.019821,0.0050707,-0.092086,-0.1101
-0.34953,-0.60999,-0.29966,-0.016592,-0.012002,-0.025651,0.060965,0.027433
0.044739,-0.010103,0.10356,0.012829,-0.0048334,-0.0019959,0.0034848,-0.079811
-0.4767,-0.40264,-0.2585,-0.028061,-0.0131,-0.017663,-0.053897,-0.21967
0.1571,0.60703,0.20168,0.017491,0.010345,0.021232,-0.056752,0.17996
0.12742,0.31481,0.064907,0.024895,0.0032024,0.021104,0.15874,0.17572
-0.15765,-0.45852,-0.1189,-0.029069,0.01241,-0.010092,-0.056096,-0.28541
0.45925,0.65464,0.25453,0.019628,0.014417,0.013653,-0.04527,0.016218
0.43099,-1.1043,-0.13336,-0.0089997,-0.014498,0.0063883,0.05816,0.1976
-0.66615,0.75385,0.030428,0.025168,0.011198,-0.016352,0.011832,0.148
-0.046247,0.21592,0.057659,-0.01911,-0.026121,-0.0078223,0.10478,-0.056786
0.49017,-0.093158,0.15762,0.045069,0.029422,0.0005979,-0.20968,0.041366
-0.67723,-0.79279,-0.35923,-0.071803,-0.025513,-0.022431,-0.04833,-0.34146
0.66075,0.29295,0.1224,0.012898,0.0043925,0.0089942,-0.012119,-0.035301
-0.64408,0.24523,-0.21127,-0.013214,-0.013442,0.032395,0.18867,0.20136
0.020009,0.098057,-0.0013528,-0.024737,-0.016096,-0.0068568,0.038953,-0.037063
-0.085215,-0.075264,0.15866,0.033617,0.0047627,-0.014936,-0.11723,-0.084609
0.29495,0.25257,0.16798,0.029709,0.018386,0.00041715,0.048192,0.12389
0.34455,0.063393,-0.0037325,0.01103,0.032963,0.0080141,-0.097998,-0.057081
-0.089679,-0.74518,-0.12128,0.0014668,0.017416,0.023526,0.092001,0.10946
-0.20202,0.14818,0.019015,-0.006575,-0.028312,-0.015509,0.062777,0.078482
-0.29045,-0.20715,-0.11383,-0.0678,-0.034164,-0.04656,-0.022243,-0.27416
0.69679,0.38749,0.0037198,0.020697,0.0072932,0.0085204,-0.15563,0.090352
-0.36927,-0.002065,0.42647,0.063237,0.017522,0.024739,0.12349,0.17868
-0.22713,0.64236,-0.39219,-0.034371,0.0039787,0.033324,-0.15333,-0.10474
0.51043,-0.17788,-0.084547,0.0086729,-0.0023188,-0.020473,0.014419,-0.035515
-0.51009,-0.54078,0.053316,-0.018964,-0.017076,-0.01175,0.18981,0.017039
-0.2185,-0.18144,-0.079227,-0.047268,-0.032413,-0.018746,-0.11887,-0.28489
0.65247,0.28972,0.19057,0.079831,0.045596,0.044367,0.17453,0.26821
-0.4645,0.09054,0.18359,-0.012723,0.01405,-0.0099909,-0.078445,0.011334
0.18422,-0.24044,-0.10011,-0.0045679,-0.0096621,-0.033412,-0.10455,0.0065424
0.36778,0.62479,-0.16103,-0.02057,-0.02541,-0.018066,0.056979,0.066407
-0.56735,-0.8606,0.054424,0.017577,0.037142,0.036104,0.023332,0.066549
0.16156,0.20948,-0.1584,-0.022738,-0.017402,0.0041663,-0.17394,-0.17928
0.18736,-0.19693,0.089256,0.022728,0.0061066,0.011181,0.18453,0.15116
-0.11616,0.51232,-0.040599,-0.017767,-0.0097215,0.010313,-0.095748,-0.33799
0.55359,0.90513,0.30933,0.035521,0.0052402,-0.0062305,0.1423,0.17656
-0.8527,-0.69325,-0.09722,-0.036182,-0.019446,-0.038425,-0.18667,-0.091285
0.25649,-0.69962,-0.058555,-0.014228,0.0099388,0.015334,0.081536,-0.021901
-0.16733,-0.35018,0.018417,0.054363,0.01534,-0.016755,-0.15519,0.057884
-0.11719,0.61255,-0.17063,0.0053773,0.0047373,0.021654,0.29723,0.39782
0.57077,0.080595,-0.061722,-0.044093,-0.045073,-0.017785,0.015073,-0.13685
-0.16576,0.49449,0.19924,0.015338,0.022426,0.01342,-0.074144,-0.080797
0.22038,-0.039797,-0.11107,-0.019301,0.012182,0.021515,-0.089725,-0.1884
-0.57536,-0.70447,0.049943,0.02417,0.025978,0.022055,-0.064519,-0.073609
0.087547,-0.10311,0.052735,-0.033508,-0.037588,-0.039769,0.32108,0.32985
0.45881,0.37934,0.11081,0.034707,0.032511,0.015597,-0.44035,-0.090225
-0.36816,0.36506,0.014742,-0.04418,-0.037133,-0.054148,0.035484,-0.19446
0.32522,-0.533,-0.21952,0.042635,-0.012176,0.0087451,0.28208,0.24416
-0.54679,0.030383,-0.24134,-0.040699,-0.0020729,0.0011458,-0.35422,-0.52238
0.54783,0.32746,0.4629,0.096261,0.063356,0.07934,0.41014,0.68088
-0.20195,-0.64592,-0.14876,-0.046924,-0.027015,-0.022237,-0.43103,-0.64248
0.034096,0.29068,-0.032956,-0.0021483,-0.015611,-0.030085,0.31813,0.55012
-0.23369,0.32309,0.0566,-0.067029,-0.012088,-0.0066424,0.41496,-0.019582
0.020712,0.44039,0.12426,0.046774,0.01451,-0.0065423,-0.30581,0.025546
-0.23178,-0.086964,-0.27019,0.033989,0.017022,-0.014113,-0.33001,-0.13351
0.81469,-0.51801,0.19205,-0.043238,-0.0047829,0.040986,-0.057193,-0.34773
0.074008,-0.31922,0.1907,0.096277,0.0427,0.057189,0.38732,0.3908
-1.0415,-0.14779,-0.46787,-0.15661,-0.09837,-0.13743,-0.19903,-0.074416
0.5743,0.25812,0.03983,0.042355,0.033046,0.074229,-0.088418,0.053003
-0.13755,0.48502,0.030509,-0.0014695,-0.015955,-0.042369,-0.20127,-0.47776
0.24778,-0.065113,0.016503,0.072041,0.051798,0.082908,0.20554,0.23826
-0.1494,-0.62203,0.21277,-0.017668,-0.0055572,-0.011066,0.061534,0.26176
0.30775,0.2398,-0.026353,-0.020058,-0.03929,-0.058822,0.45102,0.34041
-0.23451,0.060389,0.01887,-0.0051197,0.021131,0.025502,-0.22272,-0.37216
-0.37778,0.61794,0.042815,-0.0040135,0.0039589,-0.023669,-0.12747,-0.073684
0.05991,-0.46225,-0.066555,0.069078,0.042048,0.051666,0.24895,-0.031466
0.46583,0.15191,-0.29749,-0.090808,-0.044302,-0.052856,-0.095548,0.38683
-0.083665,0.20347,0.29872,0.055018,0.026127,0.053801,-0.35613,-0.78658
-0.26936,-0.402,0.014728,-0.040739,-0.043555,-0.049808,-0.2254,0.25521
0.10257,-0.56355,-0.1841,-0.073826,-0.058024,-0.050823,-0.1047,-0.33645
-0.47871,0.19626,0.18453,0.11156,0.068673,0.066577,0.20726,0.50378
0.75481,0.83381,-0.16111,-0.06317,-0.022858,-0.025763,0.4192,0.64507
-0.2991,-0.86354,-0.024581,0.11246,0.10478,0.14844,-0.12144,-0.31826
0.24643,0.90995,0.33893,0.013017,-0.03298,-0.098815,0.16425,-0.52772
0.12731,-0.58448,-0.23093,-0.088384,-0.061444,-0.010295,0.60198,0.40535
-0.19543,0.43964,0.043543,0.034693,0.050311,-0.00062305,-0.67256,-0.38868
-0.23729,-0.5114,-0.49752,-0.12542,-0.080834,-0.093617,-0.275,0.37705
0.40964,-0.54834,0.40717,0.033275,0.021469,0.054354,0.030868,-0.17392
-0.44551,0.81101,0.095698,0.073944,0.052445,0.091893,0.17037,-0.32337
-0.50583,-0.25763,0.037273,0.012998,-0.04255,-0.12122,-0.67872,-0.055464
1.068,0.64543,0.27746,0.023069,0.041327,0.071798,0.83579,0.71625
-0.96047,-0.48154,-0.35837,-0.114,-0.03944,-0.0081713,-0.3928,-0.79697
0.74409,0.083425,0.0168,0.063045,0.035736,-0.0090967,0.2174,0.54525
-0.030307,-0.13529,-0.15541,0.04643,0.0093299,0.077133,0.28739,0.67951
-0.55196,-0.052051,0.036032,-0.023467,-0.048079,-0.077526,-0.47668,-0.66873
0.60356,0.012508,-0.12171,0.016983,0.019983,-0.027907,0.13003,-0.15634
0.099936,-0.034543,0.39429,-0.051482,-0.051954,-0.06343,0.037608,-0.142
-0.519,0.2942,-0.01677,-0.034024,0.025228,0.081009,0.77678,0.33786
0.92162,0.27033,-0.16563,0.0065121,0.063973,0.10009,-0.8017,-0.27454
-0.80242,-0.23747,-0.073482,0.12464,0.025048,0.00098868,-0.12016,0.23799
-0.071013,-0.72452,-0.24596,-0.085899,-0.037113,-0.03716,-0.037607,-0.33657
-0.61413,-0.25392,0.14665,-0.085923,-0.08373,-0.14749,-0.5138,-0.69573
0.54334,0.62821,0.50327,0.15599,0.072451,0.099669,0.43721,0.65559
0.55027,0.67254,-0.2628,-0.12566,-0.053104,-0.05317,0.39476,0.53667
0.0023842,-0.62967,0.17464,0.077014,0.031749,-0.011661,0.2652,0.67643
-0.28486,0.3587,-0.14805,0.006118,0.030203,0.10776,0.3909,-0.012404
0.24673,-0.21269,-0.29616,-0.010403,-0.01071,-0.0066456,-0.64504,-0.77533
-0.55542,-0.0094319,0.079691,0.003772,-0.0048409,-0.018346,-0.66662,-0.67779
0.18727,0.027446,0.11132,-0.014069,-0.022272,-0.036341,0.080125,0.24091
-0.12368,-0.23142,0.0024134,-0.024955,-0.00027918,0.025414,0.029428,-0.49165
-0.017297,0.50676,0.30198,0.025911,0.0066386,-0.028516,0.74162,0.58671
0.40581,-0.2843,-0.18964,0.013873,0.029873,0.082839,0.52837,1.0129
-0.28468,-0.30114,-0.42908,-0.044882,-0.00080574,-0.02368,-1.0002,-1.0325
0.43238,-0.059069,-0.075999,-0.016836,-0.038492,-0.11403,-0.21706,0.093228
0.084607,-0.033472,0.51395,0.09874,0.049612,0.030274,0.27213,0.29796
-0.82465,0.12825,-0.23511,-0.15067,-0.088108,-0.020629,-0.051529,-0.55944
0.2782,0.28531,0.51298,0.13375,0.071711,0.13159,0.23112,0.47048
0.037703,-0.080033,-0.048354,0.0066667,0.0055219,0.010301,-0.28134,0.036683
-0.072209,0.56715,-0.43847,-0.063535,-0.044632,-0.056428,0.28994,-0.2232
0.84587,-0.17703,0.064356,0.05521,0.014805,-0.060827,0.25978,0.74764
-0.9261,0.049231,-0.22466,-0.059979,-0.0039101,-0.018539,-0.43389,-0.88607
0.14547,-0.60927,0.25253,0.042902,0.055184,0.10951,0.082417,0.15761
0.11107,-0.32488,0.27407,-0.0044136,-0.011345,-0.028206,0.0086024,0.49801
-0.15781,-0.094089,-0.31769,-0.069998,-0.063164,-0.080089,-0.30059,-0.82119
-0.23505,0.86377,0.063595,0.056515,0.024489,0.063234,-0.03043,0.3638
0.46079,-0.23841,-0.25972,0.023371,-0.014156,-0.035811,0.50838,-0.37439
0.41583,-0.12459,0.043651,-0.059848,0.0083692,0.036671,0.23969,0.56988
-0.48739,-0.30939,0.43835,0.096495,0.068714,0.061682,-0.52116,-0.53331
-0.26678,0.47024,-0.25174,-0.092661,-0.067292,-0.086059,0.074131,0.085204
-0.020047,-0.20729,0.13253,-0.0012457,-0.00090631,0.046339,0.36061,0.70819
0.69327,0.19187,-0.34447,-0.0031097,0.0026359,-0.0021559,-0.27692,0.26441
-0.34266,0.68114,0.52119,0.12159,0.053152,-0.012675,-0.16171,-0.36643
0.39952,-0.35422,-0.24716,-0.05592,-0.005152,-0.00049254,-0.30227,-0.11842
-0.58229,-0.17813,0.052859,-0.11314,-0.1328,-0.1682,-0.47946,-0.88673
-0.49878,-0.52132,-0.12658,0.051735,0.037694,0.062935,0.74409,-0.049905
0.28552,-0.10246,-0.083289,0.079179,0.13146,0.20902,0.6552,1.0543
0.24395,0.46697,-0.15401,-0.078265,-0.1016,-0.13594,0.021687,-0.54289
0.87439,-0.26239,-0.01135,0.015963,0.041309,0.090431,-0.25953,0.95739
-1.1534,-0.35213,0.63284,0.11848,0.05964,0.012712,-0.57602,-1.0977
0.14211,0.72522,-0.45705,-0.17044,-0.10192,-0.11974,0.57324,0.61664
0.30315,-0.44728,0.147,0.030851,-0.0064874,-0.010721,-0.30324,-0.3783
0.018634,0.79821,0.31817,0.15118,0.10332,0.097108,-0.039587,0.42367
0.35833,0.056452,-0.031129,0.0026572,-0.022675,0.0082694,0.12612,0.099387
-0.58616,-0.80012,-0.72216,-0.26607,-0.13433,-0.16765,-0.86965,-1.2434
-0.19312,0.4411,0.29209,0.072295,0.034396,0.023016,0.46669,0.49409
0.51011,-0.072875,0.1223,0.065781,0.054411,0.1122,0.94285,0.42396
-0.82436,-0.19738,-0.41679,-0.12806,-0.065872,-0.094743,-0.82813,-0.56361
0.65879,-0.67223,0.41952,0.19503,0.1115,0.12133,0.51644,0.81617
0.65108,0.39443,0.03955,0.051432,0.0085674,0.033904,0.26813,0.7428
-0.88209,0.15134,0.037951,-0.066512,0.0080094,-0.029256,-1.0012,-0.97426
0.36914,0.25453,-0.23441,-0.026389,-0.062449,-0.092215,0.53724,-0.20645
-0.24535,0.90689,0.19677,-0.039953,-0.023637,0.05525,-0.23325,0.011488
-0.20254,-0.35172,0.12502,0.040253,0.014601,-0.040564,-0.10141,-0.07134
0.23282,-0.46346,0.038955,0.018054,0.0051191,-0.0049067,0.43319,0.0011875
-0.17921,-0.6637,-0.13441,-0.067991,-0.0051773,0.037407,-0.19918,0.048939
0.73661,0.23073,-0.13022,0.00086948,-0.0081291,-0.061435,-0.20899,-0.56509
-0.31235,-0.2332,0.07683,-0.001406,0.0046872,0.043283,0.20085,0.77523
-0.30559,-0.044415,-0.32117,0.01205,-0.0050305,0.0011271,0.076951,0.74268
-0.30836,0.79369,-0.06749,0.0033045,0.041604,0.016304,0.19195,-0.40324
0.77795,0.26864,0.42365,0.12186,0.028015,0.034941,-0.072647,-0.20789
-0.33949,-0.81522,-0.11433,-0.084694,-0.022033,-0.0050826,-0.56219,-0.83474
-0.64246,0.091495,-0.32553,-0.16304,-0.13203,-0.15863,0.42472,0.31678
0.55703,0.60312,0.27485,0.073838,0.017863,0.050099,-0.37137,-0.28792
0.085097,-0.28003,0.26856,0.10132,0.098631,0.11199,0.3841,0.77449
0.18716,0.50185,0.20961,0.12082,0.093423,0.048769,0.19006,0.15023
0.012842,-0.26554,-0.022826,-0.10405,-0.053846,-0.047689,-0.1416,-0.57289
0.55449,-0.49016,0.012181,0.026387,0.0070382,0.00054052,-0.063995,0.75231
-0.85922,-0.24044,-0.2348,-0.0752,-0.084336,-0.0735,0.048573,0.0055335
-0.53842,-0.36941,-0.19178,-0.057753,-0.015964,0.0029855,-0.11492,-0.5116
0.31911,0.36015,-0.5153,-0.022273,-0.029856,-0.058874,-0.59147,-0.70635
0.60495,0.59469,0.30052,0.056269,0.031083,0.038814,0.62122,1.0412
-0.075224,-0.23696,-0.084939,0.0083512,0.074469,0.11022,0.079862,-0.14404
-0.87138,0.48076,-0.16573,-0.1243,-0.10119,-0.076976,0.18407,-0.67933
0.46575,0.08765,0.61088,0.1764,0.091633,-0.020703,-0.37867,0.32708
0.22375,-0.87634,0.2165,0.037198,-0.002015,0.030818,-0.031511,-0.090046
0.11785,0.19607,-0.0073119,-0.041185,-0.0063561,0.00066664,0.43417,0.11226
0.1807,0.57395,0.095224,0.065833,0.039733,0.029932,-0.19537,0.4517
-0.23773,-0.74839,-0.34135,-0.088491,-0.067255,-0.02232,-0.24308,-0.53427
0.069398,-0.14396,-0.10847,-0.037529,-0.031283,-0.00083458,0.28925,0.39807
-0.35656,0.78077,0.070979,0.028843,0.029352,0.014794,-0.302,0.018823
-0.19314,-0.23513,-0.064326,0.014687,0.019711,0.015087,0.22634,0.25817
0.94568,0.33112,0.10992,-0.034742,-0.006605,-0.056202,-0.42815,-0.57335
-0.95057,-0.40891,-0.1293,-0.018692,0.019894,0.010693,0.20633,0.4593
0.64909,0.10452,-0.16438,0.03166,-0.010623,0.027679,0.22664,-0.86367
-0.46423,-0.83991,0.0015729,-0.0077997,-0.0044369,-0.036427,0.002413,-0.13419
-0.41171,0.40734,0.11057,0.028472,-0.023668,-0.0090679,0.14426,0.81725
0.64733,0.24597,0.022981,-0.0061805,-0.0051001,-0.0063087,-0.012083,0.35914
0.26444,0.38688,-0.0032013,-0.086558,-0.049383,-0.026839,-0.4057,-0.48851
-0.10351,-0.14896,0.037605,0.038781,0.055356,0.063357,-0.015714,-0.48495
0.053529,-0.13281,0.18664,0.11293,0.067713,0.046366,0.38139,0.38485
-0.60759,0.54377,0.65349,0.05803,0.027243,0.0084133,-0.20175,0.14328
0.37323,-0.49769,-0.53472,-0.14971,-0.10499,-0.11331,-0.22856,-0.056051
0.15819,-0.082561,-0.3601,-0.0033111,0.014558,0.078806,0.47903,-0.11666
-0.24729,-0.25561,0.0078841,0.0039297,0.010383,0.05237,0.29552,0.45358
-0.017531,-0.57716,-0.41908,-0.035408,-0.0087854,-0.045382,-0.98151,-0.50443
-0.23284,0.73656,0.11513,0.033884,0.011064,-0.074812,0.1497,-0.22227
0.55817,0.17271,0.57979,0.093836,0.022472,-0.005229,0.34023,1.075
-0.37223,0.42179,-0.14782,-0.090375,-0.014027,0.038356,-0.031894,-0.84562
0.49097,0.1589,0.20102,0.020223,-0.036099,-0.013839,0.3957,-0.067702
-0.45383,-0.72147,-0.16748,0.0040004,0.018833,0.057891,-0.41349,0.15534
0.25486,0.035795,-0.07905,-0.05258,-0.020819,-0.081216,-0.16862,0.2759
-0.48349,-0.21855,-0.024486,0.054324,0.025056,0.030946,0.021897,-0.32106
0.2622,0.055928,0.051235,-0.0026179,0.024118,0.043764,0.53316,0.36921
0.0011791,0.057937,0.038222,0.0039105,-0.0075802,0.0046807,-0.59642,-0.90455
-0.10132,0.0031108,0.013551,-0.019247,0.000592,0.015377,0.40532,0.61486
0.63494,0.36517,0.1088,0.022002,-0.013703,-0.065089,-0.22891,-0.17546
-0.64967,-0.42207,-0.46623,-0.067628,-0.019224,0.02043,0.0068209,-0.091371
0.41875,-0.074918,0.23287,0.078742,0.038547,0.028864,0.048045,0.77491
-0.26314,0.68038,0.15073,-0.0082602,-0.059454,-0.11888,0.049111,-0.023659
-0.22887,-0.25935,-0.18205,0.0064365,0.053535,0.10753,-0.11677,-0.25725
-0.066795,0.36094,0.053975,-0.010982,-0.0058028,-0.027101,-0.18563,-0.65875
0.22073,-0.28968,0.0059723,-0.069324,-0.034873,-0.015577,0.42703,0.64018
0.67081,-0.61126,0.023729,0.064944,0.043956,0.06357,-0.10806,-0.21763
-0.56155,-0.11115,0.18323,0.031897,0.019363,-0.0085584,0.17714,0.16285
0.10943,0.71353,-0.033317,-0.0358,-0.046339,-0.052138,-0.3111,-0.69563
-0.29152,-0.56985,-0.11192,-0.020638,0.010994,0.01141,0.092235,0.50584
0.44173,0.083624,0.0015784,0.062552,0.035513,0.042237,-0.15772,-0.087988
-0.67063,0.39826,0.003547,-0.042835,-0.050183,-0.013276,0.10615,0.41098
0.2755,0.33115,-0.15781,-0.069687,-0.0029221,-0.021041,-0.28426,-0.25753
0.06731,-0.14742,0.061153,0.046055,-0.0090838,-0.034406,0.69071,0.32505
-0.28226,-0.44499,-0.16198,-0.030157,-0.028529,-0.02873,-0.29339,-0.29152
0.40198,-0.3623,0.077226,0.022967,0.025506,0.012456,-0.35887,-0.53604
