0.02906,0.071266,0.059797,0.044688,0.01415,0.015481,0.01895,0.013906
-0.010285,-0.0051406,0.1392,0.018922,-0.0016767,-0.00064844,-0.0032401,-0.0011158
-0.0027668,-0.0032304,0.34056,-0.006119,0.0063678,-0.0087584,-0.0024795,0.0074879
-0.01866,-0.0012721,0.24731,-0.030295,-0.01647,-0.032244,-0.0023298,-0.015039
-0.011037,-0.015062,-0.5031,0.0010467,0.0077936,0.014853,-0.0028342,-0.0062867
0.020156,0.017744,0.31269,0.025225,0.0086628,0.015336,0.00386,0.0024017
0.0046543,-0.027956,-0.27652,0.026345,-0.0062293,0.00041276,0.010058,0.0031255
0.0049789,-0.035001,-0.36563,-0.027132,-0.0057662,0.0090645,0.00031589,0.011436
-0.0023201,0.012278,-0.1964,-0.057318,-0.0056294,0.0021222,-0.0095108,-0.011787
0.0061516,0.035834,0.31888,0.021582,0.002027,-0.012715,0.0042675,-0.0040834
-0.01654,0.020113,0.52645,0.0064088,-0.0061202,-0.0042906,-0.012791,0.0032713
0.0076746,-0.011411,-0.016502,0.030027,0.024782,-0.011723,-0.0057936,0.010273
0.0084542,0.050636,0.0044441,-0.0012137,-0.014467,0.0040413,0.0097591,0.0091332
-0.022009,-0.067195,-0.37059,-0.0090893,-0.014353,0.0039731,0.0026317,-0.015713
-0.005555,-0.021136,0.038362,-0.0013438,0.017375,0.0037487,0.0039609,-0.0094671
0.0031733,0.0013959,-0.073636,-0.0013907,-0.0052538,0.011229,0.013514,-0.018838
0.027639,0.016185,0.37895,0.014194,0.019191,-0.0048115,0.0075382,0.057959
-0.025934,-0.03125,-0.48702,-0.024936,-0.0032507,0.010314,-0.0064915,0.0024377
0.022051,0.062412,-0.023276,0.0061917,-0.010319,-0.013726,-0.021049,-0.044498
-0.0004388,0.0082401,0.30917,-0.0018026,-0.0022343,0.0011738,-0.0050531,0.011155
0.015773,-0.0375,0.0023031,-0.0020178,-0.0025796,-0.015296,-0.0053937,-0.041367
-0.03107,0.01101,0.14936,0.029039,-0.0035759,0.007218,0.0015094,0.0088981
-0.00048604,-0.0027143,-0.27405,-0.017938,0.0026809,0.014107,0.0081045,0.036771
-0.0097124,-0.0086674,-0.15988,-0.025696,-0.0070461,-0.010147,-0.00092072,0.026205
0.0038149,0.016266,0.32627,0.005805,-0.0012369,-0.0029319,0.013786,-1.851e-05
0.024643,0.001499,0.0033176,0.0062462,0.012581,0.0045935,0.013362,-0.0036556
-0.0094742,-0.014083,0.065669,0.038071,0.011216,-0.0031508,-0.0021172,-0.0090062
-0.020122,-0.007095,0.091403,-0.00038412,-0.0051698,0.0050667,-0.024898,-0.048073
0.016419,-0.0008945,-0.42627,-0.023299,0.0025431,0.0057223,-0.00045969,0.011463
-0.0011821,-0.04217,-0.19622,-0.015147,-0.012566,-0.0091398,-0.0071595,0.0054228
0.028789,0.095897,0.034346,0.016218,0.0040618,0.0071806,0.017257,0.012258
-0.018601,-0.039531,0.32302,-0.030726,-0.010252,-0.00017477,0.01008,0.04055
-0.026183,-0.0028577,0.14089,0.008194,-0.001013,-8.3151e-05,-0.0053849,-0.033546
0.0059645,0.042125,0.090664,0.031576,0.023789,-0.00040816,0.017709,0.041402
0.030844,-0.013696,-0.07012,-0.015108,-0.0062966,-0.0089188,-0.053364,-0.11587
-0.022004,-0.045066,-0.061838,0.0010634,-0.005415,-0.009855,0.00814,0.066429
-0.0042958,-0.01269,0.073964,0.0097963,-0.0048418,0.0047964,0.014966,-0.051166
-0.0021311,-0.02577,-0.44668,-0.02806,-0.004551,-0.0038052,-0.0013928,0.06324
-0.0078595,0.0251,0.05361,0.012308,-0.012295,0.011407,0.013935,0.011151
0.025232,-0.00089058,0.10455,0.021271,0.018872,0.011485,-0.0014772,-0.075478
0.0032418,0.098912,0.25248,0.01419,0.010882,0.012071,-0.0086317,0.051737
0.043232,-0.0043686,-0.0022608,-0.0091445,0.0028241,-0.0025425,0.023535,0.13278
-0.06581,-0.053875,-0.049254,-0.017576,-0.0053028,-0.024689,-0.014621,-0.12388
-0.027007,-0.0037424,-0.20734,-0.050111,0.0021066,0.007962,0.0016225,0.045004
0.011284,0.01234,0.07198,0.010648,-0.014023,-0.014111,0.0017328,0.067309
0.017971,-0.060885,0.14184,0.040014,-0.0068021,-0.0050655,-0.022202,-0.15949
0.047945,-0.036055,-0.1762,-0.00072786,0.0082004,0.011621,0.0001781,-0.23689
-0.023588,0.071537,0.063986,0.013714,-0.00017532,-0.0031137,-0.0090664,0.2737
-0.016759,0.043908,0.034479,-0.010238,-0.0083866,0.013238,-0.0027864,-0.016496
-0.0095727,-0.00065495,0.078669,0.0055577,0.014906,0.0059771,0.027123,0.027589
-0.017605,-0.0296,-0.093363,-0.0015294,-0.00056793,-0.0015086,0.0184,0.11916
0.029422,0.052185,-0.045271,-0.0082962,0.007669,-0.0014894,0.0024284,-0.16168
0.022012,-0.13683,-0.012633,-0.022832,-0.015165,-0.025311,-0.012967,0.1553
-0.0087792,-0.095583,0.31608,0.032736,0.0089076,0.020706,-0.0044368,0.071064
-0.024137,0.30165,-0.090915,-0.02146,0.0015914,0.011545,-0.011188,-0.29671
0.014732,-0.054231,-0.36638,0.0020074,0.001798,-0.013655,0.0056957,0.020742
-0.0096076,-0.061865,-0.15818,0.0094239,-0.006189,-3.4131e-05,-0.016398,-0.14887
-0.027036,0.059313,0.40172,0.0087317,0.001065,-0.0020166,-0.01503,-0.0096334
0.03266,-0.14491,0.056343,-0.023317,-0.023219,-0.027099,0.033213,0.48372
0.060124,-0.15252,-0.21737,0.007236,0.0070775,0.010971,0.01113,-0.085108
-0.077301,0.30051,0.20528,0.0068259,0.021872,0.018684,-0.011006,0.023357
-0.0043095,-0.0062734,-0.012652,0.0068297,-0.0020433,0.0039627,-0.0020303,-0.2171
-0.0095081,-0.0041997,0.06484,-0.016144,-0.0019912,0.021432,0.014489,0.066228
0.0092525,0.14912,-0.009093,0.015988,-0.0091392,-0.015086,-0.008478,-0.11225
0.16203,-0.43784,0.35825,0.02498,-0.0078982,-0.020035,-0.0085721,0.13838
-0.12079,0.023805,-0.94264,-0.059655,0.017202,-0.0016848,0.006307,0.0623
-0.065093,0.31592,0.026683,-0.0037493,0.011225,0.0082644,-0.018529,-0.29794
-0.084477,0.11187,0.1508,0.036243,-0.0026931,0.017261,0.0029591,0.085571
0.063413,-0.17988,0.16615,0.02108,0.0064074,-0.0061552,0.0084623,-0.094986
0.057978,-0.064395,0.44162,-0.033747,-0.039822,-0.022942,0.0060489,0.015885
0.046828,-0.19502,-0.053333,0.004512,0.0069461,-0.0016721,0.0038088,0.32678
0.05987,0.032398,-0.09255,0.018689,0.013929,0.018934,0.0098088,0.17383
0.048539,0.0024005,-0.028948,-0.022349,-0.010906,-0.015367,-0.030447,-0.19508
-0.17641,0.3482,-0.23926,-0.0090216,0.010812,0.013082,-0.015294,-0.17465
0.00077566,-0.18142,0.0015636,0.035511,0.0090534,-0.012504,0.047448,0.18296
0.0089789,0.30925,-0.025994,-0.052504,-0.023734,-0.0059217,-0.022021,-0.44037
-0.04239,0.042938,-0.25934,0.016292,0.014204,0.025106,0.0261,0.27072
0.042872,-0.56259,0.3414,0.039,0.021395,0.049237,-0.035003,0.14861
-0.022719,0.16098,-0.043014,-0.023328,-0.017794,-0.035326,0.0053522,-0.10523
0.028406,0.023997,0.39301,0.0011659,-0.0018967,-0.041395,0.076647,-0.052869
-0.020582,-0.028594,-0.32668,-0.0048538,-0.0013633,-0.00053014,-0.05561,0.20652
0.081835,0.059423,0.11035,0.013057,-0.00071282,-0.01454,-0.17268,-0.36214
-0.030695,-0.17769,0.13345,0.0077328,-5.5048e-05,0.0258,0.2021,0.043022
0.024672,0.092008,0.070636,0.033587,0.0083686,0.026685,-0.040502,0.22413
-0.034044,0.16916,-0.83541,-0.10491,-0.0145,0.0037564,0.037186,-0.095348
0.0028028,0.0098479,0.41659,0.037447,-0.013929,-0.027304,0.0056172,0.0022046
0.047729,-0.056274,0.016051,-0.031582,0.0023197,-0.011745,-0.088234,0.27647
-0.056978,-0.060539,-0.12876,0.03958,0.01083,0.019239,0.029126,-0.21005
-0.03115,-0.012334,0.13201,0.032193,0.042813,0.0031871,0.0296,-0.20909
-0.062785,0.26543,0.01724,0.00091774,-0.011207,0.010438,0.0069437,-0.012884
0.1217,0.09794,0.72076,0.03944,-0.010754,-0.0058561,-0.085728,0.28859
-0.0551,-0.32208,-0.46361,-0.055435,-0.026287,-0.022222,0.079669,0.152
0.0016584,-0.44939,-0.11017,-0.049354,-0.011031,-0.015161,-0.051641,-0.27029
0.043208,0.37181,-0.19181,0.026511,0.02719,0.023218,0.074888,0.089173
0.023786,-0.24841,-0.28212,0.00048717,0.0025367,0.038322,-0.009687,-0.20073
-0.024571,0.41006,0.33587,-0.0021299,0.0011369,-0.03226,-0.024333,0.21173
-0.10153,0.22377,0.31854,0.018993,-0.01582,-0.008774,-0.047373,-0.59373
0.10523,-0.29825,-0.30095,-0.021796,-0.016823,-0.024007,0.085128,0.50265
-0.014253,0.20401,0.011921,0.016296,0.021775,0.00014222,-0.06435,-0.089988
0.070341,-0.32409,-0.26227,0.03952,0.021963,0.087037,-0.026953,0.48251
-0.048279,0.15624,0.54457,0.00084305,-0.00064706,-0.029062,0.041291,-0.31714
-0.011707,-0.14439,-0.29856,-0.02188,-0.0071371,-0.020159,0.039122,0.058749
-0.10972,0.055174,-0.0082169,-0.028955,-0.021189,-0.019178,0.029376,-0.17116
0.063586,0.028634,0.36166,-0.028448,0.0037748,-0.018374,-0.042318,-0.070076
0.0082461,0.065622,-0.4865,0.010753,0.012777,0.013491,-0.035097,0.32971
0.029294,-0.098779,0.17201,0.057398,0.013404,0.029567,-0.16762,-0.64481
-0.0055542,-0.034309,-0.024841,-0.013378,-0.025718,-0.024801,0.14596,0.11454
-0.041045,0.040455,0.37318,-0.021664,-0.010836,-0.0011721,0.069377,0.22373
0.11081,0.062577,-0.41786,0.040618,0.019107,0.030095,0.047405,0.68924
-0.080905,0.16378,0.084347,-0.076288,-0.013802,0.014217,0.21224,-0.58399
0.040272,-0.5091,-0.37153,0.049667,0.015689,-0.0020411,-0.37416,0.19215
-0.025549,0.55776,0.26082,-0.01115,-0.0015501,-0.026573,0.014541,-0.36537
0.049853,0.12068,0.31723,0.0067968,0.0049788,-0.012504,0.011358,0.34605
-0.18651,-0.44603,-0.45213,-0.02173,-0.011498,-0.037853,-0.10962,-0.23369
0.13277,0.41286,0.53099,0.051347,0.011525,0.038207,0.17598,-0.50717
-0.015529,-0.81636,-0.36612,-0.0087744,0.0036626,-0.0028222,-0.0058794,0.5455
0.032857,-0.013452,0.40363,0.0084291,-0.0039587,-0.0044563,0.0017503,-0.26699
0.020156,0.7158,-0.19812,-0.03798,-0.0036582,0.049079,0.042802,0.37056
-0.092881,-0.18012,-0.23242,-0.038765,-0.018978,-0.0062509,0.0075112,0.14625
0.03704,-0.043048,0.13132,0.037395,0.012527,-0.014281,0.012193,-0.22303
0.0029499,0.33003,-0.32239,-0.012352,-0.0028875,0.040461,-0.045821,0.31341
0.061762,-0.67261,-0.027429,0.054602,0.0051379,-0.076549,-0.0034965,-0.21079
0.040655,0.52285,0.17556,-0.042506,0.013235,-0.021645,-0.048984,0.13623
-0.13931,0.14527,0.046143,0.017104,-0.009787,0.056749,0.051993,-0.64241
-0.025502,-0.20946,0.56056,-0.0083896,-0.017027,-0.036586,-0.15323,0.044153
0.069572,0.1025,-0.18223,-0.0093962,0.014929,0.010962,0.054955,0.14837
0.14649,-0.31979,-0.13206,0.0063101,0.007882,0.011947,-0.088171,0.046609
-0.10611,-0.35895,-0.52884,-0.00046404,-0.0070306,-0.025897,0.2071,0.55414
-0.092843,0.35511,0.86429,0.032516,0.016943,0.037816,0.065861,-0.48968
-0.054026,-0.024109,-0.51902,-0.012279,-0.014049,0.0074033,0.018851,0.10594
-0.026925,0.28303,-0.14904,-0.0023869,0.0015078,0.10903,0.057287,0.046792
0.15387,-0.076744,0.10832,-0.024039,-0.0066731,-0.016953,-0.17145,-0.001321
-0.011079,0.010907,-0.29788,-0.053991,-0.038492,-0.18307,-0.058694,-0.13912
0.048104,-0.02908,0.38782,0.056119,0.02339,-0.0061916,0.0049593,0.016274
0.048738,0.29636,-0.05523,0.017253,0.03851,-0.032546,-0.0030444,0.17536
0.16832,-0.34986,0.22961,0.040443,-0.016444,0.04335,-0.12798,-0.068863
-0.37695,-0.40015,-0.48892,-0.06168,-0.0007894,0.026902,-0.14138,-0.28765
0.019945,0.20433,0.33665,0.0079069,-0.00048939,0.10601,0.45055,-0.0054908
-0.064668,0.45186,0.50126,-0.00064243,-1.206e-05,0.11652,-0.11703,0.026471
0.12613,-0.028289,-0.12395,0.014397,0.01614,-0.13742,0.21018,0.61949
0.14708,-0.035617,-0.47342,0.021947,-0.022463,0.023011,-0.10061,-0.2589
-0.079046,-0.14957,0.081251,-0.048138,-0.0065163,-0.11401,-0.11422,0.12479
-0.082047,-0.26843,-0.49438,-0.023842,-0.014148,-0.041331,-0.07529,-0.21401
-0.12585,0.12486,0.14195,0.024597,0.025015,0.1002,0.23305,-0.21195
0.11148,0.16537,0.27157,-0.012236,-0.02174,-0.07197,-0.13521,-0.56228
0.12336,-0.55873,-0.29986,0.045159,0.025367,0.013073,-0.14025,0.69905
0.11365,0.49296,0.99118,0.055817,0.01795,0.043587,-0.23309,0.63036
-0.12057,-0.20332,-0.62052,-0.08228,-0.028386,-0.081351,0.073534,-0.94452
-0.095078,0.74863,0.30982,0.021004,0.011266,0.28702,0.21219,0.35212
0.088246,0.071454,-0.50816,-0.025369,-0.0038634,-0.12485,0.16927,0.12313
-0.06302,-0.2551,0.34598,0.028359,0.0041896,-0.15338,0.24995,-0.038145
-0.22079,-0.53979,0.074502,-0.020933,-0.011587,0.14603,-0.29704,-0.20428
0.18537,-0.5426,-0.68936,-0.040175,-0.012206,-0.14925,-0.10725,0.15977
0.069716,0.61209,0.24401,0.04923,0.0414,0.10864,0.25324,-0.3968
-0.05214,0.076483,0.26902,-0.017755,-0.04599,-0.072729,-0.25031,0.017884
0.0069616,0.40389,0.30479,-0.0061682,0.007032,-0.0057606,-0.21426,0.27179
0.18379,-0.3194,-0.47899,0.053209,0.036596,0.13812,0.21965,0.55353
-0.069549,-0.061368,0.040149,-0.01123,-0.035232,-0.10917,-0.11205,-0.087519
-0.019696,0.037154,0.20999,0.0036809,0.010455,-0.020286,0.12084,-0.38847
-0.050183,-0.26074,-0.81128,-0.035039,0.0096871,0.092976,-0.055137,0.36251
-0.23145,-0.30475,0.70216,-0.0026968,-0.0062627,-0.10478,0.48069,-0.61061
0.14021,0.93412,0.55918,0.037848,0.025066,0.06641,-0.63565,-0.032891
0.011331,-0.62871,-0.88712,-0.062172,-0.037035,0.083073,0.27789,-0.66549
0.10222,0.84825,0.94115,0.072011,0.010461,-0.1723,-0.44932,0.31723
0.03939,-0.14726,-0.53489,-0.03628,0.0034017,0.15128,0.71388,0.78607
-0.19957,-0.18244,-0.16657,-0.0511,-0.034845,-0.17345,-0.14003,0.09195
-0.0441,-0.67412,-0.2091,0.035449,0.028487,0.063689,-0.13825,0.21268
0.23165,0.074109,0.054314,0.020357,0.013683,0.11201,0.14625,-0.091209
0.15737,0.37308,0.17998,0.075594,0.022279,-0.068055,-0.28918,-0.22076
-0.11284,-0.22666,0.28203,-0.087862,-0.0395,0.054478,-0.39207,-0.47856
-0.018712,-0.2246,-0.43733,-0.0090971,0.0080044,0.042191,0.49226,0.71537
-0.24174,0.53914,-0.056314,-0.024111,-0.03054,-0.3076,0.089474,-0.47834
-0.025078,0.28039,0.35411,0.070148,0.032358,0.076157,0.024259,-0.32401
0.0064018,-0.34043,-0.30224,-0.031056,0.0013973,0.22568,0.14056,0.5449
0.20542,-0.23572,0.78212,0.10197,0.040674,-0.17836,-0.2797,-0.49943
-0.0041992,-0.040311,-0.71312,-0.15568,-0.060696,0.38836,0.10055,-0.37731
0.10642,-0.23723,0.27984,0.024263,0.0020457,-0.43292,-0.15452,0.64149
-0.2026,0.77976,-0.11819,-0.022078,-0.0053996,0.10028,0.01187,0.15403
0.1097,0.38644,-0.091723,0.041403,0.010781,-0.066744,-0.28075,0.46562
-0.17416,-0.7238,0.17512,0.050722,0.011551,0.12033,0.22763,-0.34919
0.094709,-0.35859,-0.35988,0.005817,0.0046949,-0.057921,0.59339,0.068517
-0.021563,0.14396,0.21589,-0.023211,0.013562,-0.071141,-0.54978,-0.35618
0.17118,0.55761,0.26213,0.03362,0.014578,0.39992,0.28242,0.11927
-0.09447,-0.42611,-0.50848,-0.11313,-0.054912,-0.35674,-0.12963,-0.45127
-0.031534,0.56056,-0.062211,-0.0028913,0.0002623,0.0408,-0.30298,0.57252
0.068825,-0.76671,0.50965,0.051563,-0.015317,-0.056467,0.39353,-0.22187
-0.16233,-0.40767,0.091639,0.034434,0.031102,0.085712,-0.40107,0.31827
0.1567,0.38977,-0.49536,-0.015264,0.014501,-0.071395,0.24928,-0.2372
-0.11508,0.41665,0.56825,0.043171,0.013018,0.05884,-0.1801,-0.23745
0.038383,0.23549,-0.28952,-0.032236,-0.0045568,0.063249,0.25502,0.087741
-0.1475,-0.23526,-0.13321,-0.077068,-0.038143,-0.1354,0.045778,-0.24022
0.26617,0.098319,0.23859,0.081046,0.021767,0.072976,0.12879,0.58133
-0.16447,-0.27548,-0.088882,-0.026038,0.011306,0.016877,-0.38719,-0.18507
0.17898,0.0425,-0.10713,-0.0070394,-0.022394,-0.038084,0.067967,0.072865
-0.16362,0.20746,-0.33749,-0.056664,-0.03998,0.03271,0.057258,0.020016
0.15957,-0.016152,0.28563,0.10679,0.083829,0.080176,-0.0040519,0.57728
-0.12507,-0.37037,0.21875,-0.055528,-0.072637,-0.068291,-0.075066,-0.66375
-0.010253,0.22559,-0.28534,0.042198,0.037574,-0.022697,-0.0051349,-0.52592
-0.18422,-0.23826,0.16538,0.0011011,0.015932,-0.072465,0.2939,-0.011474
0.24288,-0.13612,0.10166,-0.038894,-0.020641,-0.061346,-0.2308,0.35448
0.012572,0.0038685,0.2164,0.022911,0.029015,0.12039,-0.18752,0.20366
0.022884,0.56129,-0.12717,-0.0018708,0.008184,0.21556,0.041028,0.5275
0.039414,0.42408,-0.3868,-0.051516,-0.052314,-0.2985,0.48517,-0.65901
-0.093609,-0.36367,0.26906,0.076558,0.019091,0.094587,-0.32565,0.057622
-0.031395,-0.40674,-0.25654,-0.047572,-0.012083,-0.018633,0.16875,0.083345
-0.13179,-0.013506,0.2303,0.013687,-0.0051014,0.1044,0.12233,0.10594
0.044505,-0.27401,-0.0041896,-0.02833,-0.0065382,-0.20811,-0.43533,-0.060963
0.022628,0.47126,-0.2545,0.030122,0.015275,0.027953,-0.036146,-0.40741
0.014692,0.2249,0.16264,0.00228,0.021717,0.23392,0.078215,0.17892
0.17722,-0.44119,-0.076926,-0.0017521,0.0053398,-0.1144,-0.24699,-0.079902
-0.021872,0.16855,-0.039985,-0.028242,-0.018009,-0.10372,0.60744,0.20194
0.040515,-0.28323,0.50241,-0.0064833,-0.0092264,0.31999,0.0027738,-0.18449
-0.13827,0.62999,0.051169,0.12616,0.031557,-0.30451,-0.43476,0.53472
-0.014258,-0.44028,-0.55833,-0.12262,-0.028735,-0.0083047,0.18566,0.030213
0.066187,0.27345,0.12541,0.04372,0.0205,0.099876,0.034959,-0.40379
-0.13314,-0.1728,0.029958,-0.039344,-0.039827,-0.21337,0.072252,0.27606
0.1917,0.042865,-0.010728,0.010511,0.024367,0.11549,0.060874,-0.19175
-0.35738,-0.36603,0.017593,0.06004,-0.005868,0.11062,-0.31385,-0.67767
0.13495,0.19074,0.020656,-0.062936,0.0021794,-0.11064,0.15752,0.4328
0.076715,0.34465,-0.032432,0.016437,0.0094457,0.10733,-0.12693,-0.057789
0.15726,-0.098576,-0.22659,-0.061205,-0.0074264,0.036636,0.24005,0.24694
0.010938,0.012908,0.252,0.048018,0.0063911,0.33184,-0.2002,0.3056
0.09966,0.043914,0.18579,0.031806,-0.011421,-0.38364,0.16494,0.060776
-0.26365,-0.40496,-0.1745,0.038801,0.033092,-0.10295,0.034387,-0.045062
-0.21964,-0.22485,0.077422,-0.040199,-0.016106,-0.10728,-0.81516,-0.3814
0.18453,0.12988,-0.37945,-0.048825,-0.025989,-0.16112,0.82161,-0.21478
0.12819,0.11691,0.63328,0.028612,0.0036313,0.41717,-0.39853,0.041884
0.0094642,0.60494,-0.44076,-0.026622,-0.013043,-0.073308,0.80421,0.22811
-0.0077731,-0.13468,-0.12676,-0.0036172,0.0021753,0.12705,-0.018735,-0.12679
-0.11887,0.15046,0.55809,0.07412,0.05706,-0.27778,-0.33275,0.50043
0.082579,-0.62546,-0.45769,-0.043513,-0.020407,0.20397,-0.62695,-0.53018
-0.067138,0.49009,-0.096603,0.033992,0.011741,0.24255,0.1024,-0.038392
0.10437,-0.15087,0.086592,-0.005964,0.0048231,-0.1957,0.071403,0.233
-0.12105,-0.39685,0.54548,-0.069664,-0.072614,-0.10551,0.67765,0.22671
-0.11778,-0.11631,-0.69557,0.038261,0.044958,0.089272,-0.35918,-0.14062
0.40376,-0.24439,0.41161,0.028912,-0.0018002,-0.29967,-0.2163,-0.18192
-0.33735,1.0212,0.017119,-0.050595,-0.025222,0.15018,0.29734,-0.49439
0.24497,-0.16395,-0.29113,-0.020303,-0.009437,-0.098291,0.15464,0.31419
-0.091506,-0.2841,0.39533,0.09658,0.053621,0.098409,-0.39019,0.50886
-0.08133,0.1835,-0.57746,-0.074823,0.0078873,0.22771,-0.48965,0.56444
0.040871,-0.23993,0.073861,0.012333,-0.029393,-0.12974,0.57772,-0.69269
0.001329,0.46478,0.6868,0.076609,0.019806,-0.074081,0.063195,-0.16123
-0.15356,-0.56047,-0.85516,-0.061994,-0.032255,-0.042839,0.53664,-0.1278
0.0364,0.33971,0.49433,0.0024047,0.0093919,0.28285,-0.49625,-0.56302
0.11695,-0.8297,-0.094674,-0.035217,-0.019698,-0.25579,-0.16389,0.58169
0.055264,0.81744,0.46863,0.051484,0.059815,0.2835,-0.39233,0.36567
0.044766,0.21297,-0.42097,-0.034418,-0.033565,-0.063006,0.75166,-0.314
0.052266,-0.35258,0.03746,0.027521,0.028202,-0.23474,-0.30606,0.36203
0.044974,0.059807,-0.33116,-0.020226,-0.020401,-0.12287,-0.14654,-0.35021
-0.32933,0.077528,-0.1774,-0.013227,-0.03845,0.10945,0.32997,-0.12608
0.10183,0.24376,0.54483,0.0020002,0.0057494,0.02679,-0.2912,0.47411
0.004442,-0.43507,0.078369,-0.013358,-0.020121,-0.13384,0.35774,-0.36204
-0.28251,-0.52024,0.39388,0.057946,0.0093679,0.083053,-0.32309,0.20769
0.22891,0.15583,-0.93537,-0.018633,0.063213,0.31164,0.1923,0.36046
0.026326,0.77796,0.094261,0.022161,0.0085921,-0.034111,-0.11639,-0.94549
-0.028674,-0.15599,0.65076,0.062646,0.0092896,-0.16675,-0.31616,0.10792
0.25978,-0.1721,-0.89506,-0.14767,-0.03673,0.16104,0.40081,0.43343
0.046702,-0.40723,0.50647,0.031495,0.0028059,0.17279,-0.1427,-0.12549
0.032528,0.33587,-0.10423,-0.017178,-0.028808,-0.52456,0.23454,0.35362
-0.16118,0.50257,0.38963,0.058031,0.0010034,0.044466,0.18925,-0.27646
-0.24859,0.2478,-0.19384,-0.015913,-0.0014654,0.083691,-0.52121,-0.029926
-0.036579,-0.48513,0.25112,0.019365,-0.0046439,-0.099728,0.24263,-0.053924
0.10708,-0.70598,-0.60803,-0.085531,-0.015835,0.068221,-0.27845,-0.34771
-0.074285,-0.29115,0.24007,0.060539,0.035837,0.11505,0.14858,0.2761
0.2187,0.68037,0.43267,0.067273,0.01022,-0.057314,0.23364,0.21473
-0.057638,-0.30778,-0.92269,-0.10433,-0.022105,-0.19686,-0.047302,0.2003
-0.03301,0.78216,0.61918,0.10023,0.11075,0.79804,-0.61627,-0.028053
-0.017668,-0.12241,-0.19809,-0.085094,-0.10708,-0.56675,0.96439,-0.090663
0.12207,0.17058,-0.372,-0.020197,0.011555,0.19745,-0.40662,-0.20882
-0.0051574,0.27479,0.60806,0.13816,0.013117,-0.25745,-0.55723,-0.15715
0.035978,-0.91398,0.60399,-0.04011,-0.05582,-0.17783,0.84055,-0.17731
-0.13273,0.29119,-0.89818,-0.10203,0.023359,0.21432,-0.61239,0.38921
-0.030474,-0.41209,-0.14776,-0.024075,-0.0071047,0.20636,0.5827,0.030216
0.17545,-0.38591,0.3472,0.030019,0.017055,-0.2954,-0.86511,-0.22696
-0.24375,0.33768,-0.10167,0.037272,0.010172,-0.047059,0.79193,0.082105
0.21893,0.39877,0.34046,0.091891,0.050619,0.29806,-0.096819,0.45978
-0.15443,0.1156,-0.19459,-0.087047,-0.088024,-0.33463,0.26384,-0.37423
-0.03339,0.10027,-0.27769,-0.01506,0.031734,0.15214,-0.11098,0.28278
0.030786,0.67993,0.067747,0.042081,0.026913,0.32378,-0.71233,-0.28933
0.010752,-0.7591,0.42041,-0.0097491,-0.016846,-0.12255,-0.10764,-0.037621
0.027379,-0.32482,-0.75005,-0.046085,-0.013981,-0.20182,0.35589,-0.10423
0.12253,-0.2429,0.47126,0.041853,0.0038729,-0.023946,0.48015,0.033397
-0.053924,0.48089,-0.45435,-0.082426,-0.033924,-0.27798,-0.41771,0.11732
-0.095936,-0.0085072,0.8478,0.12754,0.052099,0.48693,0.14986,0.22613
0.072862,-0.032134,0.0173,-0.000314,0.019688,-0.020965,-0.28498,-0.51452
0.058847,-0.37728,-0.43944,-0.051828,-0.029492,0.14095,0.55734,0.16921
-0.040129,0.24855,0.43732,0.02028,-0.0092393,-0.30308,-0.29601,0.23021
-0.12629,0.044586,-0.7199,-0.095794,-0.02853,-0.15926,0.055498,0.018917
0.16433,0.264,0.066459,0.030536,0.022484,0.29072,0.1525,0.24428
0.024909,-0.13079,-0.0059274,0.025224,-0.0041612,-0.10086,-0.010488,-0.43219
-0.31093,-0.4139,-0.13699,-0.009337,0.0091081,-0.12126,-0.24952,-0.31777
0.22786,0.91201,0.35615,0.075828,0.031267,0.41173,-0.66708,0.16357
-0.059881,-0.53976,0.092818,-0.062908,-0.047034,-0.53037,0.62151,0.56545
-0.10884,0.49249,0.15932,0.050705,0.039657,0.047133,-0.0045525,-0.080481
0.19342,-0.58767,-0.00073757,0.0097389,0.017587,0.25527,0.16341,0.024737
0.021493,-0.49155,-0.00022963,-0.038255,-0.02768,0.10234,0.099909,-0.78704
-0.11487,0.53338,-0.023276,0.015206,-0.002722,-0.099924,0.10675,0.47361
0.11333,0.070393,-0.23045,-0.010279,-0.0014922,0.21689,-0.60966,-0.38291
-0.10665,-0.31891,-0.58591,-0.11512,-0.047462,-0.18415,0.13164,0.59412
0.19285,-0.010118,0.31505,-0.018149,-0.038949,-0.34473,0.67364,-0.24757
