0.032215,-0.12052,-0.3555,0.030233,0.0087752,0.0019702,0.008177,-0.0036856
0.17861,-0.16547,0.2278,-0.05279,-0.0014075,-0.0080584,-0.010585,0.035964
-0.072301,0.83744,0.0333,0.1111,0.0041351,0.0055298,0.0025512,0.030509
0.17099,-0.57884,0.20508,-0.10214,-0.0055687,0.027504,0.040399,0.090178
-0.0051288,-0.44141,-0.13481,0.0040741,0.0087598,0.003434,-0.0060147,-0.003334
-0.21007,-0.47707,-0.027785,0.01706,0.00036501,0.0036908,-0.03507,-0.13289
-0.022391,0.49726,0.039259,-0.054072,-0.0073094,-0.010933,0.0075875,-0.0021214
-0.083405,-0.012184,0.11758,0.15105,0.0012611,-0.0094938,0.019714,0.020914
0.25461,0.36944,-0.11801,0.062692,0.025895,0.023245,0.11759,0.18517
0.35832,0.20414,-0.0022483,-0.12374,-0.011757,-0.022467,-0.051267,-0.18229
-0.56154,-0.29958,0.018914,-0.064832,-0.025982,-0.014095,-0.12823,-0.027634
0.057798,-0.014347,-0.15848,-0.081586,-0.0013459,0.0013579,-0.0042901,0.070422
-0.21264,-0.42555,0.086701,0.12194,-0.00048539,0.00049174,0.015987,-0.075826
0.27655,0.78308,0.030794,0.06809,0.0077634,-0.0008957,0.019113,0.065017
0.073169,0.027253,0.34807,-0.064567,0.031165,0.03651,0.076314,0.04025
-0.048829,-0.37963,-0.52921,0.011956,-0.031872,-0.027655,-0.037928,-0.063599
-0.074026,0.0014945,0.45708,0.062399,-0.0016802,0.009946,-0.041412,-0.027152
0.26992,-0.6853,-0.32867,-0.038792,0.035791,0.00099781,0.043084,0.17358
-0.17517,0.72238,-0.059059,-0.026106,-0.00538,0.0080222,-0.010775,-0.11725
-0.31028,0.022648,0.31432,-0.063206,-0.046999,-0.031542,-0.023551,-0.17291
0.13527,-0.23386,0.013914,-0.0085879,0.043895,0.030633,0.011886,0.10033
0.33088,0.20053,-0.53314,0.021793,-0.037144,-0.0086841,0.086745,0.17879
0.056156,-0.058588,0.054127,0.10744,0.030526,-0.0089329,-0.05004,-0.078513
0.0060411,0.072816,0.039042,-0.094128,-0.033961,-0.001348,-0.032196,0.015577
-0.37287,0.13069,0.44117,0.12117,0.043223,0.037615,0.17099,0.054615
-0.28072,-0.21029,-0.027082,-0.21497,-0.034472,-0.040297,-0.29989,-0.062859
0.2166,-0.69176,-0.23432,0.16302,0.014402,-0.023918,-0.038058,-0.27389
-0.0085521,0.73131,0.23731,0.10611,0.0023542,0.024455,0.18398,0.15664
0.72069,0.66431,0.30387,-0.058481,0.0072946,-0.0044403,-0.093621,0.010813
-0.48251,-0.77328,-0.43149,-0.24592,-0.018094,0.02216,0.16138,0.047029
-0.4367,-0.040805,-0.098968,0.066145,-0.027577,-0.01318,0.051152,0.16381
0.27916,0.29341,-0.20149,0.14245,0.056203,0.014099,-0.1117,-0.18635
-0.033698,-0.25937,-0.090572,-0.056703,0.0058926,0.00967,-0.046335,0.096766
0.15807,0.31446,0.36188,-0.00038303,-0.0073176,0.011991,0.0043068,-0.1137
0.87869,-0.3672,0.11445,0.12392,0.016131,-0.010684,0.039311,0.1568
-0.65224,-0.31659,-0.21681,-0.09751,-0.0019653,0.0038856,0.057843,0.10972
-0.40895,0.37016,0.14811,0.0078432,-0.061264,-0.06142,-0.12036,-0.19339
-0.0034107,0.090084,-0.02784,-0.027868,-0.043829,-0.026502,0.004476,-0.24459
-0.29402,0.26345,-0.32011,-0.14892,0.02794,0.023389,-0.036247,0.019843
0.38781,-0.23778,0.39597,0.1066,0.022361,0.026571,0.062581,0.11766
-0.075748,-0.29392,-0.13293,-0.11215,-0.0048893,0.0072593,0.0046498,0.067104
-0.11392,0.16512,0.32962,0.32006,0.095261,0.083212,0.11084,0.25355
0.55434,0.56616,0.11245,0.059124,-0.012976,-0.034372,0.030036,-0.031873
-0.33117,-0.38487,-0.27586,-0.16146,-0.017452,-0.033063,-0.19838,-0.27231
0.37232,-0.092655,-0.43466,-0.24921,-0.051731,-0.053827,0.0038842,-0.037775
-0.524,0.0223,0.0079917,0.13053,-0.0074042,0.020014,0.0040897,-0.063216
0.89741,-0.28782,0.020875,0.1173,0.013006,0.039468,0.10693,0.32978
-0.64313,0.051067,0.31005,0.030831,0.024367,0.0040473,-0.00016445,-0.07927
-0.59778,0.60728,-0.064685,-0.10537,-0.012801,-0.0084726,-0.036047,-0.09695
0.62888,-0.68157,0.14502,0.060974,-0.012588,-0.029514,-0.024348,0.14214
-0.74896,0.39748,-0.22665,-0.17981,-0.021538,-0.0043928,-0.043461,-0.26964
0.78185,-0.042676,0.21588,0.17385,-0.023445,-0.011109,0.015642,0.10436
0.01785,-0.39598,-0.00080575,-0.20469,0.05267,0.03646,0.058798,-0.048585
0.35116,0.85036,0.054143,0.17001,0.035526,0.036918,0.054316,0.12347
-0.348,-0.45498,-0.24504,0.024805,-0.0041833,-0.033075,0.040851,0.11351
-0.20836,-0.22164,-0.18972,-0.11754,-0.011672,-0.0016503,-0.11469,-0.069563
-0.21745,-0.18046,0.23244,0.39767,-0.018371,-0.0095264,-0.084261,-0.19022
-0.37851,0.41301,0.41615,-0.2052,-0.009041,-0.0099741,-0.0083192,0.0025872
0.64816,-0.25303,-0.19693,-0.22534,0.047089,0.035929,0.051024,0.087759
0.13036,0.28139,-0.46936,0.069728,-0.061369,-0.012522,0.11773,0.026602
0.67757,0.3028,-0.14584,-0.0084565,0.0090178,-0.014676,0.0048213,0.13931
-0.87635,-0.098806,0.27969,0.39978,-0.007501,-0.0094481,-0.10756,-0.17624
-0.10552,-0.2637,0.70456,-0.46957,0.0063426,0.011238,0.015247,0.063391
0.047784,-0.73522,-0.41088,-0.15291,0.042989,0.00084234,0.02179,0.029047
0.071023,0.70954,-0.066838,0.048302,-0.014387,0.0065899,0.0057902,-0.11614
0.40577,-0.42425,-0.44281,0.28559,-0.024762,-0.010294,0.0061826,0.11158
-0.41876,0.5729,0.032128,-0.09502,-0.01902,-0.018398,-0.055332,-0.12386
-0.06649,0.20077,0.4684,0.50118,0.089048,0.036955,0.032003,-0.033086
0.19925,0.23396,0.43008,-0.34044,-0.067594,0.014949,0.010214,0.15021
-0.28929,-0.33268,-0.54947,-0.34835,-0.020191,-0.030075,-0.019282,-0.10433
0.23878,-0.33098,-0.20976,0.34968,0.012382,0.01083,-0.025369,0.047881
0.33574,-0.39627,0.35086,-0.17127,0.053324,0.059112,0.09338,0.23248
-0.54068,-0.54643,-0.41102,0.0079761,-0.038299,-0.11211,-0.038182,-0.29241
-0.004873,0.64489,0.039146,-0.17701,0.010621,0.020429,-0.029571,0.0043948
-0.040945,0.45296,0.12571,0.46821,0.027911,0.019285,0.056588,0.083449
0.075122,0.39917,0.044955,-0.353,-0.072577,-0.029397,-0.092282,-0.08713
0.5647,-0.18677,0.31923,0.36054,0.037179,0.070011,0.023794,0.10126
0.38946,0.44337,-0.37509,-0.35022,-0.0099949,-0.049347,0.02203,-0.024032
-0.84885,-0.30727,0.39426,-0.053373,-0.057753,-0.0044057,-0.019387,-0.026199
0.054019,-0.45611,-0.33224,-0.067148,0.11279,0.048704,0.071488,0.14121
-0.4061,-0.18067,0.095253,0.14125,-0.052931,-0.01505,-0.017775,-0.076569
0.46544,-0.71524,-0.10185,0.23655,0.038917,-0.008322,-0.044912,-0.12445
-0.17195,0.93087,0.4878,0.093404,-0.01006,0.013999,-0.017626,-0.025013
-0.046199,-0.49644,-0.6431,-0.12535,-0.027946,-0.034188,0.0095659,0.035447
0.046539,0.64233,-0.34214,-0.27295,-0.022465,-0.012294,0.021305,0.058339
0.13873,-0.083566,0.78047,0.27399,0.076885,0.064205,0.088275,0.14659
-0.12901,-0.10772,-0.22731,0.092574,-0.042083,-0.030908,-0.078109,-0.12839
0.42823,0.63894,-0.043672,-0.59855,-0.050821,-0.039318,-0.047612,-0.03937
-0.40656,-1.07,-0.61379,0.045176,-0.0035409,0.00048314,0.00063287,0.054418
0.52875,0.25903,0.57522,0.39239,0.061118,0.026505,0.028017,0.011958
-0.63038,0.16885,0.32911,-0.31319,0.034038,0.015619,0.0035105,-0.073894
0.069642,0.73796,0.33997,0.76545,-0.13949,-0.063435,-0.080849,-0.17321
0.17522,-0.22926,-0.00068909,-0.4184,0.14173,0.10145,0.094635,0.32957
0.14725,-0.26201,-0.60849,-0.037466,-0.021449,-0.01396,0.028865,-0.090843
-0.16889,-0.43137,-0.22778,-0.038799,0.049672,0.034585,0.064119,0.11841
-0.31595,-0.23918,-0.45342,-0.34655,-0.16166,-0.12132,-0.066864,-0.18492
0.6194,0.28864,0.60655,0.51348,0.14031,0.071871,0.11098,0.11517
-0.90756,-0.1959,0.15175,-0.49984,-0.13123,-0.082067,-0.29404,-0.2553
0.52174,-0.15426,0.080185,0.38546,0.07005,0.041367,0.045822,0.086677
0.28835,0.13228,0.058056,0.26251,0.095624,0.082777,0.076283,0.14202
-0.22619,0.66112,-0.40274,-0.30584,-0.14003,-0.082365,-0.02187,-0.072121
0.007635,0.49492,0.62499,0.20522,0.090523,0.062485,0.14359,0.23524
0.1822,-0.31763,-0.90752,-0.3817,-0.094283,-0.051728,-0.073951,-0.26188
-0.25403,-0.093018,0.35722,-0.54799,0.017945,-0.025128,-0.032128,0.0089116
-0.088923,-0.66756,0.50276,0.62356,0.045867,0.01091,0.012665,-0.0051886
-0.12791,0.76895,-0.31791,0.03416,-0.0092458,0.0029254,-0.008969,-0.029325
0.79837,-0.8166,0.01572,0.73254,0.0019201,0.0064367,-0.018581,0.031029
-0.58743,-0.47079,-0.33819,-0.52281,-0.014046,0.021734,0.030424,0.07429
-0.10272,0.70811,-0.012069,-0.26352,0.036352,0.040704,-0.0033907,0.013648
-0.15905,0.02313,0.39133,0.14207,-0.050822,-0.039062,0.0037734,-0.027539
0.35562,0.4278,0.072481,-0.24492,0.082575,0.039019,0.066147,0.13605
0.48382,-0.34996,-0.20689,-0.042969,-0.064911,-0.023316,-0.051999,-0.18543
-0.27744,0.41776,0.30637,0.26256,0.075606,-0.00079025,-0.015825,0.029304
-0.49172,-0.61983,-0.51762,-0.23534,-0.082978,-0.074052,-0.044741,-0.049424
0.060848,0.06077,0.19176,0.31419,-0.049189,-0.024846,-0.01389,-0.031722
-0.038257,0.0062118,0.14218,0.31657,0.067434,0.053079,0.038024,0.082577
0.45053,1.0915,-0.066548,-0.40885,-0.045237,0.003893,-0.0054501,0.044443
-0.19304,-0.69795,-0.12972,0.0040726,0.043284,0.062658,0.036314,-0.058643
-0.32185,-0.78952,-0.17847,-0.36739,-0.064393,-0.043283,-0.0076164,-0.084248
0.42132,0.47693,0.58707,0.41379,0.15626,0.061791,0.074484,0.21938
-0.2408,-0.58129,-0.34491,-0.042908,-0.067253,-0.066867,-0.091854,-0.13852
0.23254,0.17337,-0.064206,0.099187,-0.054548,-0.014823,0.0092405,-0.00080921
0.09837,0.7755,0.057645,-0.34612,0.046304,0.0071684,0.0027504,0.062486
-0.27144,-0.078871,-0.12541,0.67764,0.0088036,0.0069455,-0.033421,-0.050509
0.094783,-0.095306,-0.042114,-0.51498,-0.050063,-0.015583,0.0097328,-0.035905
0.034915,0.42398,0.46314,-0.17186,0.0021259,0.048787,0.045817,0.113
-0.24613,-0.2937,0.39614,-0.14276,0.0007903,-0.011102,-0.019422,-0.026887
0.30094,0.14311,-0.55851,0.73756,0.039096,-0.031428,-0.014614,-0.089499
-0.48429,-0.88004,-0.54462,-0.3979,-0.032001,-0.012426,-0.026161,-0.067878
0.4815,0.057068,0.19287,0.20763,0.068159,0.061316,0.14088,0.24061
-0.013567,0.18329,0.034786,-0.15906,-0.067206,-0.036947,-0.099642,-0.10941
0.031142,0.22322,0.23792,-0.42319,-0.016661,-0.018306,-0.0055763,-0.0708
-0.33553,-0.018261,0.25522,0.88004,-0.0070799,0.015552,-0.053308,-0.025798
-0.02469,0.15469,-0.11594,-0.44878,0.062943,-0.0057969,-0.015916,0.026291
0.50632,-0.29027,-0.054305,0.032091,0.060614,0.058171,0.1227,0.22679
-0.41843,-0.099632,-0.26163,-0.26584,-0.14668,-0.081699,-0.058854,-0.18935
-0.045339,0.27296,0.052842,0.07821,0.027364,0.019829,-0.0054734,-0.02643
0.69899,0.44806,0.41444,0.29922,0.091086,0.065844,0.072158,0.12979
-0.87054,0.26986,-0.72175,-0.19429,-0.072087,-0.045191,-0.036823,-0.12696
0.15395,-0.22325,0.27876,0.0076877,-0.055263,-0.024108,-0.059076,-0.039043
0.47642,-0.76531,0.253,0.33192,0.095252,0.0121,0.052056,0.072919
-0.26234,-0.07972,0.16211,-0.50514,-0.018564,0.0011994,-0.024029,0.013205
0.023144,-0.175,-0.56506,0.22083,-0.076214,-0.04088,-0.029833,-0.031164
-0.17584,0.030144,0.29628,-0.047677,0.15661,0.081456,0.057776,0.20493
0.2488,0.44796,0.1422,-0.28355,-0.070388,-0.037834,-0.066176,-0.19306
-0.39991,-0.25827,-0.23292,0.085298,-0.046718,-0.023661,0.074619,-0.15517
0.25887,0.70672,0.55962,0.65985,0.063079,0.053616,-0.027854,0.17001
-0.11317,0.018806,-0.5044,-0.40668,-0.014815,-0.0014689,0.048161,0.0012926
0.30161,0.44482,-0.22891,0.18525,-0.046206,-0.032879,-0.009815,0.065586
0.062926,-0.6415,0.12279,-0.47718,0.00022927,0.0295,-0.037516,0.035333
-0.027077,-0.61013,0.015169,0.65382,-0.015817,-0.041006,-0.050152,-0.13557
-0.29835,-0.0034525,0.0068316,-0.36541,0.0702,0.021248,0.015382,-0.071228
0.18594,-0.24641,-0.16453,-0.44549,-0.03807,-0.010137,0.019169,0.073017
-0.49529,0.19738,0.15903,0.77101,-0.019888,-0.048957,-0.030298,-0.077065
0.20706,0.47376,0.54729,-0.79334,0.07027,0.06133,0.086236,0.19774
0.4369,0.91568,-0.049569,0.81764,-0.033297,-0.0071753,-0.037285,-0.03224
-0.16911,-0.60545,-0.089521,-0.66479,0.020594,0.026847,0.036459,-0.017467
-0.31825,-0.87484,-0.56271,-0.008707,-0.057747,-0.039865,-0.052446,-0.11042
0.33615,0.86172,0.18162,0.44712,0.043401,0.042348,0.031127,0.078314
0.16304,-0.46047,0.10808,-0.1296,-0.020512,-0.00044244,0.012817,0.070881
-0.38403,0.10406,-0.30102,0.15348,0.023262,0.003094,-0.022306,-0.063558
0.1941,0.3398,0.25137,0.2101,-0.021054,-0.056902,-0.067083,-0.067998
0.028484,-0.34064,-0.23264,-0.28217,0.026064,-0.0088847,0.050033,0.010346
-0.24261,-0.59227,0.35192,-0.67816,-0.053962,0.0064097,-0.03812,-0.031499
0.089263,0.52513,-0.014439,0.7138,0.036214,0.043777,0.067254,0.088295
0.17029,0.17044,0.34396,0.10131,-0.030834,-0.0058688,0.038627,0.05809
-0.14193,-0.19467,-0.70236,-0.65872,0.019136,-0.0093165,-0.092024,-0.11333
0.073361,0.16923,0.27114,0.54963,0.0072024,-0.013012,0.011983,0.043714
-0.059265,0.090739,0.55569,-0.070512,0.0042825,0.03031,0.030985,0.053409
0.061936,-0.18455,-0.70626,-0.18978,0.049778,-0.004043,-0.042346,-0.10718
-0.29677,0.35806,-0.25529,0.741,-0.059406,-0.014307,0.073502,0.030932
0.45147,-0.01973,0.32396,-0.89226,-0.011045,0.0074304,-0.019884,0.045839
-0.419,-0.90105,-0.17086,0.093667,-0.040034,-0.040376,-0.064881,-0.1252
0.35822,1.0148,0.16644,0.17099,0.095145,0.05317,0.05534,0.23618
0.31492,-0.14821,0.56117,-0.5246,0.0031582,0.0067487,-0.011242,-0.089205
-0.91581,-0.10536,0.12809,0.87584,-0.011919,-0.031287,0.0083281,-0.086142
0.463,-0.50432,-0.68301,-0.018088,-0.012991,-0.0063358,0.012047,-0.0049372
0.21704,-0.35505,-0.21966,-0.24679,-0.093913,-0.020051,-0.039492,-0.025463
-0.41925,0.68779,-0.1183,-0.039496,0.05804,0.021211,-0.037132,-0.014996
0.35113,0.065098,0.53989,-0.071479,0.044952,0.031377,0.058103,0.12016
-0.25292,0.03767,0.22924,0.24757,0.00036442,0.010272,0.035303,0.098682
0.010933,0.25443,-0.50476,-0.46016,-0.051493,-0.026681,-0.027295,-0.095199
0.2599,-0.74914,-0.092474,0.077009,-0.031786,-0.025,-0.043586,-0.11009
-0.19364,0.54982,0.2473,0.14764,0.059972,0.038584,0.04913,0.085108
0.040613,0.23983,0.41347,0.13514,0.013021,-0.023524,-0.014554,-0.079976
-0.045688,-0.38332,-0.16327,-0.17787,0.053766,-0.00037969,-0.015667,0.058796
-0.039133,-0.22119,-0.52039,0.12443,-0.036986,-0.0012426,0.030389,0.017263
-0.049783,0.3871,-0.085339,0.16099,-0.056718,0.0053455,-0.0089961,-0.0011276
0.47647,0.034066,0.37134,-0.2776,0.025196,0.0040273,-0.016461,0.027437
-0.42944,-0.17629,0.33745,0.020672,-0.018299,-0.0049167,-0.030952,-0.099799
0.32636,-0.025785,-0.097336,0.079834,0.039099,0.010008,0.056941,0.086219
-0.54454,-0.29888,-0.28092,-0.16254,-0.044788,-0.0057206,-0.041919,-0.047124
-0.0097393,-0.08785,-0.42106,0.050932,-0.035351,-0.028606,0.00040492,-0.031017
0.58071,0.47151,0.37502,0.1959,0.10683,0.074103,0.13674,0.18133
-0.31068,0.33083,0.061046,-0.049235,-0.13351,-0.064952,-0.10203,-0.15247
-0.13572,-0.51995,-0.22376,-0.014131,0.11102,-0.00071476,-0.075661,-0.017089
0.20007,-0.14062,0.18887,-0.33314,0.0044972,0.024328,0.035834,0.071515
0.18115,0.1153,0.79335,0.64085,0.046671,0.017695,0.013475,-0.10572
-0.14623,0.19311,-0.30774,-0.34299,-0.044125,-0.013035,0.021227,0.1072
0.099652,-0.41339,-0.63696,-0.14424,-0.057436,-0.0054947,0.066938,0.022578
-0.36375,0.66674,-0.20006,0.065693,0.0063199,-0.0065589,-0.028914,-0.070615
-0.014208,0.27687,0.46819,-0.079323,-0.040604,-0.03953,-0.14105,-0.063013
0.053576,-0.41327,0.015581,0.1877,0.03614,0.028648,0.082434,0.11578
0.46401,-0.021955,-0.45408,-0.16311,0.033603,0.0264,0.0091151,0.020607
-0.06444,-0.022951,0.32942,0.088083,0.030226,0.00089002,0.014336,-0.059227
-0.48493,-0.3839,-0.2686,0.23876,-0.067369,-0.024221,-0.0032188,-0.029695
0.069823,-0.19018,0.79716,0.13283,0.030235,0.01368,-0.0043755,-0.015497
0.44369,0.1752,-0.20993,-0.40176,0.042082,0.013023,0.049891,0.085204
-0.42581,0.22537,-0.33261,-0.20114,-0.055054,-0.010675,-0.012454,-0.039891
-0.062273,-0.60947,-0.091851,0.10184,0.0045925,-0.018527,-0.11352,-0.054765
0.33858,0.94471,0.18501,0.24962,0.025797,0.020528,0.051114,0.14207
-0.0050947,-0.035996,-0.33853,-0.24169,-0.053892,-0.018668,0.012455,-0.10586
0.2264,-0.25346,0.43752,0.19878,-0.015714,0.0044227,0.0046669,0.021395
-0.3814,0.62415,0.3314,0.26678,0.07779,0.019484,0.090086,-0.0078599
-0.25809,-0.27942,-0.59654,-0.56874,-0.039113,-0.028088,-0.12202,-0.061261
0.27676,0.023019,0.394,0.52022,0.016204,0.025919,0.055821,0.14206
0.083885,-0.76464,-0.37809,-0.38861,0.05599,0.0020038,-0.032588,0.015905
-0.24116,-0.55617,-0.85922,-0.30367,-0.09971,-0.044966,-0.012085,-0.18978
0.084769,0.46181,0.82452,0.78208,0.064493,0.017955,0.070718,0.11109
0.36793,0.60371,0.75754,-0.45254,-0.014034,0.026753,-0.049465,-0.065485
-0.25009,0.29436,-0.55466,0.22602,-0.054039,-0.010813,-0.028509,0.0075626
-0.065982,0.14695,0.38486,0.24671,-0.016306,0.0066574,0.048008,0.15896
0.14623,-0.41186,-0.45857,-0.89095,0.10725,0.0086139,-0.0071344,-0.12631
-0.30999,-0.4308,-0.080122,0.27384,-0.042417,-0.0052144,-0.021919,0.011622
0.42315,0.51181,0.33104,0.24912,-0.027479,-0.011635,0.003623,0.026266
-0.24985,-0.043246,-0.4592,0.3245,0.035121,-0.010816,0.0067662,-0.035301
-0.22124,-0.94386,-0.057773,-0.1398,-0.018548,-0.010633,0.03399,-0.055887
0.50758,0.63533,0.38334,-0.025464,0.022437,-0.0032291,0.0066552,0.089298
-0.35345,-0.21419,-0.5836,-0.41708,-0.021756,0.011518,-0.013286,-0.037681
0.015324,0.67653,0.30462,-0.14914,-0.0029495,0.033768,-0.081011,0.0078458
0.11368,-0.19703,0.72432,0.49845,-0.030845,0.0089883,0.076577,0.045388
-0.027002,0.51775,-0.26703,-0.27036,0.03483,-0.031445,-0.064099,-0.050916
0.25786,-0.87562,-0.16073,0.2397,0.037504,-0.0014987,0.036104,0.03846
-0.40586,0.080775,0.011188,0.066539,0.0081789,0.020784,0.088404,0.070775
0.10809,0.00012867,-0.15149,0.25478,0.0092334,-0.011385,-0.055207,-0.03228
-0.1128,0.0189,-0.31502,-0.57361,-0.16243,-0.043212,-0.089529,-0.247
0.22231,0.07886,0.22952,0.13281,0.04803,0.0035474,0.040636,0.12261
0.083956,0.25579,-0.0039486,-0.027218,0.10964,0.066498,0.02322,0.05414
-0.0027865,-0.083889,-0.063703,-0.28205,-0.078892,-0.04962,-0.016507,0.0018011
-0.51325,-0.50172,0.15048,1.0945,0.09205,0.022348,0.062143,0.044693
0.27192,0.8487,0.63716,-0.65405,-0.049295,0.016635,-0.014425,0.0037651
0.1885,-0.18488,-0.26929,-0.36887,-0.01075,-0.020126,0.050324,0.019841
-0.1396,-1.0352,-0.53131,-0.21032,-0.050249,-0.025748,-0.1503,-0.094825
0.20759,0.65417,0.068719,0.54427,0.058593,0.030688,0.016046,-0.0048917
-0.24908,-0.1913,-0.50102,-0.19557,0.034351,0.0004507,0.048987,0.015401
0.18289,0.10197,0.64241,0.22825,-0.052774,0.00053734,0.010757,0.027711
0.34465,0.50954,0.054344,-0.012558,0.015969,-0.00034933,0.026254,0.023504
-0.83599,-0.034883,0.45454,0.15016,-0.024917,-0.0020882,0.033036,0.010107
0.18701,0.22836,-0.15581,0.4159,-0.018937,-0.035649,-0.085866,-0.0439
0.17958,-0.48887,-0.68946,-0.72726,0.057657,0.024367,0.021462,0.010085
-0.083511,-0.20064,-0.090305,-0.1109,-0.029203,-0.016913,-0.050792,-0.10875
0.17314,0.11241,0.479,-0.15873,-0.0058583,0.012781,0.010318,0.053328
-0.032631,0.1603,-0.0037709,0.4577,0.010572,0.027772,0.056704,0.067217
0.39501,-0.89825,-0.45977,-0.22795,0.027779,-0.01875,-0.028658,0.027099
-0.79221,0.6295,0.66563,-0.11023,-0.040477,0.013695,0.011951,-0.098138
0.53197,0.22687,-0.44881,0.041856,0.039754,0.023223,0.060996,0.1757
-0.22535,0.048958,0.73432,0.79474,0.033635,-0.037467,0.055439,-0.081496
-0.016924,-0.063164,-0.38065,-0.71611,-0.098277,-0.028176,-0.20844,-0.12028
0.024418,0.37746,-0.17027,0.54144,0.057876,0.035144,0.096968,0.1448
-0.039312,-0.30916,0.013276,-0.70693,-0.029114,-0.0039085,-0.044251,-0.13806
0.072178,-0.41501,-0.47776,0.19268,-0.015211,0.010971,0.031961,0.054613
0.16217,0.32861,0.21005,0.22913,-0.0093105,-0.029339,0.021203,0.012272
-0.060122,0.44732,-0.06913,-0.44506,0.036019,-0.0072636,-0.0057011,0.0089647
0.067557,-0.92377,0.3981,0.36967,0.0040922,-0.00049174,-0.016877,-0.0014688
-0.16731,-0.062776,0.30085,0.2953,0.028037,0.030415,-0.011716,-0.026198
-0.31267,0.74563,0.076845,-0.57647,-0.03272,-0.00025948,0.025879,-0.010118
0.14676,-0.35208,-0.36106,0.33944,-0.022169,0.0012425,0.0024032,0.046855
0.27395,0.33112,-0.37452,0.0043796,0.035773,0.011268,0.011582,0.0038117
0.62478,-0.16477,0.32279,-0.48623,0.023304,-0.0018208,-0.032807,0.094525
-0.97864,-0.14196,-0.17796,0.36244,0.017943,0.016192,0.071881,-0.080236
-0.026398,0.34104,-0.22253,0.1239,-0.066694,-0.052318,-0.081177,-0.13066
-0.12573,0.16489,0.26594,-0.26893,-0.012032,0.011098,0.030909,0.044157
0.45171,-0.84303,0.21661,0.25699,-0.013234,-0.020223,-0.029777,0.092278
0.41009,0.24725,0.29366,0.18002,0.0082697,0.017894,0.041243,0.0058651
-0.27396,0.23292,-0.27563,-0.53833,0.014042,0.00072974,-0.02944,-0.066336
-0.19514,-0.5666,-0.18525,0.19497,0.012543,-0.0088538,-0.03065,-0.0065703
-0.26152,0.41541,0.12139,-0.2314,0.027707,0.044174,0.030189,0.0061851
0.29802,0.28847,-0.71263,0.28122,-0.018376,-0.027451,0.044146,0.066385
0.20748,-0.17092,0.98719,0.66692,0.030422,0.049791,0.019446,-0.0050989
-0.37931,-0.081868,-0.84716,-0.71044,-0.052906,-0.075748,-0.10611,-0.12985
-0.19881,0.24498,0.29351,-0.056539,0.02786,0.017597,0.058245,0.05927
0.64585,0.098337,0.66701,0.041512,0.029809,0.024865,-0.026584,0.061861
-0.39317,0.017325,-0.13451,0.34995,-0.055492,-0.022951,0.029836,0.025666
0.434,-0.14322,-0.19205,-0.57415,0.013764,0.030231,0.024067,0.027961
-0.23126,0.25858,-0.063835,-0.18795,0.003151,-0.0031141,0.018245,-0.041455
-0.37934,-0.69822,-0.46413,0.4504,-0.07142,-0.060346,-0.07391,-0.1363
0.29731,-0.39544,0.26101,-0.10825,0.040607,0.030705,-0.026086,0.0557
0.0054964,0.1121,0.017088,0.66227,0.043057,0.012618,0.060047,0.05824
-0.19592,0.14866,-0.030746,-0.61209,-0.0086907,-0.028253,0.0048432,-0.042082
0.15805,0.52342,0.8937,0.60683,0.034353,0.033441,-0.050904,-0.017746
-0.03868,0.089342,-0.7524,-0.79271,-0.0071801,0.010402,0.041488,0.038548
0.051726,-0.0099272,-0.28462,0.13932,-0.062914,-0.0036045,0.0010271,0.033993
-0.10184,0.22855,-0.19825,0.11081,0.03105,-0.016572,0.007618,-0.022935
0.62384,-0.044109,0.20586,0.13505,-0.014669,0.025852,0.0067147,0.03992
-0.68091,-0.55847,0.56267,-0.25794,0.033916,-0.017381,-0.017255,-0.051004
0.13551,0.12258,-0.22948,-0.076114,-0.042321,-0.037328,-0.033069,-0.022741
0.14612,0.54437,0.45187,0.46253,0.04539,0.035957,0.013872,0.069296
-0.51335,-0.46469,-0.351,-0.35958,-0.039056,-0.0087195,0.021881,-0.096056
0.50464,-0.43135,-0.21424,-0.0022448,0.024627,0.0003981,0.061137,0.058465
0.080204,-0.11115,-0.16739,0.074206,-0.029085,0.00081631,-0.095051,-0.014797
