-0.1802,0.053519,-0.0063858,0.025207,0.0061448,0.012722,0.02533,0.083898
0.034273,-0.0046916,0.12646,0.091814,0.03447,0.0088611,-0.025522,-0.061323
-0.11058,-0.077629,-0.14772,-0.15223,-0.04722,-0.042032,-0.084169,-0.050072
-0.082541,0.0061233,-0.032168,-0.0031569,0.0038089,0.0090797,0.015573,0.040565
0.39253,0.23018,0.30134,0.46893,0.063121,0.053404,0.025649,0.070778
0.13512,-0.17987,0.1423,-0.1503,0.037449,-0.010165,-0.076071,-0.013727
0.09798,0.14216,-0.49289,-0.22084,-0.041619,0.029567,0.17947,0.12287
-0.51659,-0.077914,-0.071904,-0.032568,-0.0020381,0.016373,0.44769,0.065899
-0.21748,-0.23879,-0.21861,-0.21128,-0.093796,-0.12807,-0.67957,-0.36523
-0.083916,0.17559,0.21625,0.21105,0.042361,0.033381,0.068533,0.04723
0.91434,0.17423,0.49838,0.10873,0.070262,0.086165,0.11889,0.1461
-0.5361,-0.10042,-0.068425,-0.065817,-0.049484,-0.048385,-0.030962,0.0010304
-0.22504,-0.18524,0.42806,0.12413,-0.0047939,-0.027078,0.17984,-0.12276
0.3549,0.0625,-0.74109,0.13867,0.047596,0.040176,-0.053929,0.2199
0.40686,-0.26189,-0.21882,-0.25725,-0.049084,-0.06584,-0.43467,-0.15838
0.080138,0.52961,0.18855,0.092293,0.017161,0.068564,0.25818,-0.10114
-0.84213,-0.001363,0.019537,-0.28899,0.097467,0.11504,0.32415,0.47796
-0.46632,-0.34934,-0.10808,-0.10329,-0.16783,-0.17647,-0.43691,-0.62374
0.71126,0.31802,0.38531,0.52591,0.010208,-0.001094,0.15753,0.39901
0.053699,-0.14421,0.095425,-0.28235,0.069166,0.039987,-0.077803,-0.062503
-0.366,-0.07623,-0.39759,0.26288,-0.021964,-0.02921,0.50687,-0.14825
0.58572,0.088887,0.23611,-0.1102,0.065327,0.057635,-0.58033,-0.13106
-0.41322,0.13847,-0.2366,-0.28323,-0.059116,0.03561,0.56619,0.48953
0.92206,-0.10674,0.3022,0.3069,0.027113,-0.1181,-0.80496,-0.44249
-0.45333,-0.28456,-0.34258,-0.40228,-0.0348,0.026649,0.21842,0.19004
-0.076797,0.18019,0.22734,0.75284,-0.017722,0.11851,0.63422,0.46498
-0.38303,-0.2218,0.10529,-0.59584,0.078904,-0.13163,-0.70813,-0.73521
-0.71834,0.0083335,-0.28746,0.1599,-0.080365,0.07286,0.43932,0.10472
0.9803,0.28282,0.087462,-0.051537,0.075166,0.020584,-0.39402,0.1095
0.028912,0.29342,-0.051921,-0.34864,-0.11056,-0.1093,0.4309,0.10711
-0.32457,-0.15327,0.16085,0.6502,0.04992,0.10452,-0.23553,-0.19158
0.31719,-0.089108,-0.0093091,-0.063843,-0.037499,-0.096233,0.066941,0.21334
0.24961,0.24881,0.14008,-0.10873,0.17342,0.07713,-0.083681,0.087365
-0.69441,-0.55002,-0.29778,-0.28179,-0.1151,-0.047479,-0.10088,-0.21815
0.62807,-0.045309,0.020537,0.096598,0.017784,0.022075,0.32134,0.10907
-1.0414,-0.046918,-0.030122,-0.1217,0.00076348,0.028092,-0.00246,-0.063946
0.99685,0.20584,0.042497,0.36077,-0.096643,-0.013528,-0.22582,-0.26854
0.18209,0.19288,0.19954,-0.10364,0.10796,0.022652,0.22475,0.28429
-0.73537,0.082175,-0.06652,0.0015198,-0.01038,0.074717,-0.084961,0.14914
1.1429,0.27695,0.033746,0.1459,-0.02144,-0.27852,-0.84739,-0.28365
-0.66631,-0.17781,-0.10079,-0.1852,-0.010223,0.13551,0.43931,0.11818
-0.78475,-0.52458,-0.024249,-0.10799,-0.006805,0.067398,0.60351,0.072591
-0.167,-0.25404,-0.15004,-0.098096,-0.080311,-0.15441,0.018522,-0.14789
0.68857,0.36374,0.17096,0.14994,0.090517,0.17313,-0.17074,0.20589
0.49712,0.16954,0.0018557,-0.012025,-0.0016534,0.010408,0.63261,0.11001
-0.57916,0.15337,0.02264,0.024973,0.064924,-0.034156,-0.98239,-0.38069
0.77897,0.35213,0.11601,0.22057,0.047307,0.24916,0.15255,0.086259
-0.78899,-0.86203,-0.17174,-0.15393,-0.11825,-0.39871,-0.22969,-0.16718
0.45757,0.045736,-0.0057217,0.055076,-0.026983,-0.072573,-0.073409,0.064342
-0.41349,0.29609,0.034627,0.094898,0.10876,0.16435,0.35112,0.29882
-0.11663,-0.20474,-0.044291,-0.38813,-0.15735,-0.12576,-0.014187,-0.0084753
0.64008,0.71319,0.31096,0.35498,0.16651,0.28365,0.092948,-0.05134
-0.94716,-0.36769,-0.32239,-0.3472,-0.013028,0.02563,-0.2148,-0.008759
-0.083049,-0.5379,-0.10091,0.1869,-0.12453,-0.17285,0.82168,-0.14653
0.54036,0.45547,0.17879,0.077464,-0.056952,-0.053387,-0.86109,-0.090606
0.70458,0.11578,-0.037103,-0.42194,-0.0037436,0.048913,0.10109,0.087088
-0.23317,-0.28686,0.033978,0.33266,0.13055,0.40082,0.31334,0.19699
0.32539,0.26144,0.073284,0.15626,0.089255,-0.43369,-0.04133,0.14303
-0.77848,-0.16115,-0.08166,0.073344,-0.0022989,-0.14041,-0.22444,-0.41314
0.14302,-0.38894,-0.077903,-0.14315,-0.082189,-0.084861,-0.034978,0.28404
-0.42877,0.4012,0.069954,-0.034214,-0.081452,0.015441,-0.34025,-0.68928
-0.32756,-0.092179,-0.020366,-0.173,0.099645,0.48119,0.6663,0.82162
0.68026,0.13385,0.057383,0.17175,0.045127,-0.07904,-0.61355,-0.44989
-0.37915,-0.043728,-0.041067,-0.01828,-0.051285,0.19993,0.72275,0.48016
0.88887,0.094502,0.12085,0.091149,0.0204,-0.27075,-0.46919,0.10435
-0.50471,0.094783,-0.020524,0.1325,-0.17744,-0.20524,-0.092342,-0.89634
-0.012651,0.049296,-0.16172,-0.3619,0.059017,0.057743,0.85544,0.96488
-0.11505,-0.48136,-0.13976,-0.31951,-0.057991,0.063399,-0.90624,-1.0351
0.61009,0.26687,0.15396,0.161,0.15279,0.10847,0.75521,0.74098
-0.13749,-0.1755,0.22675,0.48866,0.013141,-0.11804,-1.0284,-0.38193
-0.32437,-0.1284,-0.093383,-0.10016,0.055317,-0.12105,0.49943,0.29595
0.082144,0.57362,-0.04845,0.19216,0.021932,-0.014006,0.0010645,0.19211
-0.79858,-0.45017,-0.091095,-0.1585,-0.11842,0.097601,-0.079837,-0.59016
0.88891,0.14628,0.029417,-0.20859,0.00086731,0.31081,0.02834,0.058125
-0.13071,-0.010056,-0.045374,0.0082996,-0.058412,-0.19261,0.097076,0.40775
-0.56848,-0.058493,0.123,0.083659,0.07811,0.01755,0.515,-0.18659
0.514,0.25915,-0.05054,-0.038873,-0.035244,-0.08326,-0.055645,0.69869
0.4693,0.17668,0.098683,-0.094447,0.031158,-0.075697,-0.67871,-0.41179
-0.67104,-0.69789,-0.15567,0.018632,-0.066241,-0.025807,-0.49545,-0.75068
-0.017258,0.17265,-0.0013064,0.051181,0.0087792,0.48423,0.41606,0.11492
0.42864,0.083103,0.10018,0.13712,0.029839,-0.51055,0.50167,0.48712
0.36713,0.36742,0.030596,-0.15222,0.0046608,-0.14643,-0.19899,0.13902
-0.36833,-0.36675,-0.10191,0.097785,0.10466,0.48809,0.033081,-0.60754
-0.48998,0.012142,0.021742,0.082457,-0.045959,-0.39733,0.3305,0.33624
-0.1066,0.09711,0.10361,-0.026836,-0.01851,0.48653,-0.088427,-0.11993
0.12058,-0.12756,-0.13819,-0.17619,-0.040511,-0.28837,-0.52856,0.15243
0.87612,0.50276,0.12435,0.1102,0.051455,0.242,0.026378,0.60175
-0.9589,-0.7061,-0.1473,-0.027433,-0.086479,-0.45717,0.67209,-0.45677
0.19981,0.10687,0.071378,0.0048352,0.022776,0.056617,-1.0803,-0.35657
-0.25994,0.092013,-0.10876,-0.12815,0.0053496,0.069669,0.71119,0.2408
0.58643,0.2747,0.10296,0.098324,-0.035647,-0.093433,0.36368,0.017813
0.31689,0.16447,0.051715,0.037324,0.073334,0.24964,-1.1344,-0.55389
-0.76703,-0.27645,-0.042802,-0.075402,-0.12719,-0.26015,0.44599,0.31734
0.76673,-0.26607,-0.00062574,0.065742,0.14494,0.46091,-0.020503,-0.038735
-0.20563,0.00034771,0.029329,0.054706,0.022724,0.10353,0.8302,0.4326
-0.18262,0.045427,-0.00096275,0.047144,0.060224,-0.19005,0.12512,0.48716
-0.6065,0.086121,-0.04625,-0.09105,-0.13447,-0.48119,-0.97132,-1.0508
0.36418,0.11958,0.016669,-0.033493,0.030703,0.30237,0.73643,0.35239
-0.50462,0.103,0.014276,-0.000782,-0.070992,0.016111,-0.59352,0.40211
0.57867,0.07903,0.0157,0.013307,0.019939,-0.2396,-0.37815,-0.4769
0.78192,0.10621,0.012636,0.062425,0.11512,0.52143,0.71151,0.20435
-0.9845,-0.43551,-0.096173,-0.10374,-0.10592,-0.39944,-0.2419,-0.6331
0.79084,0.038854,0.010641,0.030907,0.0058188,-0.15982,-0.27822,0.55134
-0.19412,-0.11774,-0.040307,-0.032542,-0.01726,0.18505,-0.43644,-0.25458
-0.79723,-0.28439,0.041906,0.043374,0.037285,0.23571,0.80585,-0.19504
0.075639,0.54433,0.024644,-0.052217,-0.086818,-0.42466,0.36661,0.93706
-0.11523,-0.031609,0.073248,0.088362,0.088261,0.32348,-0.1838,-0.87124
0.83944,-0.022004,0.039876,0.044209,0.071065,0.010529,0.2758,0.81044
0.14026,-0.15674,-0.08344,-0.067105,-0.060216,-0.08626,-0.38622,-0.24582
-0.075229,0.37136,-0.039682,0.0042025,0.037569,0.38606,-0.12282,-0.19926
-0.060222,0.062636,0.091818,-0.00038046,-0.027306,-0.22083,0.14538,-0.34275
-0.83308,-0.37349,-0.049632,0.035349,0.040691,0.038741,-0.21817,0.41375
-0.21598,0.15398,-0.066743,-0.069337,-0.11129,-0.53633,-0.54153,-0.38566
0.47771,-0.16289,-0.030614,-0.034085,-0.023274,0.13689,0.46824,0.539
0.076076,-0.20214,0.03498,0.038932,0.046442,0.17583,-0.1823,-0.4525
0.89203,0.19001,0.075428,0.032253,0.066663,0.34949,0.65498,0.62621
-0.1441,0.11336,-0.026087,-0.022833,-0.079284,-0.71146,-0.66196,-0.59672
-0.57047,0.082402,0.043444,-0.0010606,0.0078445,0.10908,0.050205,-0.36755
-0.29977,-0.11463,-0.051405,0.012024,0.039897,0.34092,0.64286,0.31736
-0.11106,0.037136,0.033524,0.0090191,-0.021369,-0.12838,0.38556,0.45306
0.21746,-0.13501,-0.0061959,0.037158,0.090273,0.53159,-0.15795,0.34594
0.29892,0.078881,-0.10015,-0.06735,-0.077979,-0.32808,-0.54978,-0.30049
-0.0033728,0.2481,0.071942,0.0238,0.03644,0.10231,-0.26491,-0.50251
-0.15472,-0.15946,-0.044763,-0.048652,-0.10565,-0.59555,-0.6426,-0.27697
0.097265,0.090167,0.14327,0.074747,0.081519,0.40976,0.57537,0.44516
-0.16846,-0.40905,-0.059525,-0.012181,0.019649,0.29431,0.30706,0.43643
0.070706,0.093835,-0.012722,-0.020294,-0.049136,-0.56097,0.34019,-0.39723
0.062297,0.10824,-0.075816,-0.019815,-0.038864,-0.069916,-0.35687,0.077313
-0.009867,0.050199,0.040269,0.012775,0.081826,0.55872,-0.1055,-0.36572
0.45926,0.20292,-0.015894,-0.00060097,-0.02289,-0.48406,0.06002,0.33719
-0.57366,-0.36948,0.021534,0.025966,-0.024847,-0.28037,0.016703,-0.37559
-0.26061,0.30283,0.019958,-0.017036,0.021148,0.5088,0.85744,0.94946
0.57579,0.024955,-0.036105,-0.020493,-0.025848,0.19735,-0.99145,-0.27405
-0.61997,-0.23448,0.095553,0.030839,0.052392,0.26892,-0.16001,-0.75846
0.43394,0.047505,-0.053929,0.01931,0.020824,-0.38861,0.15068,-0.045354
-0.081079,-0.11404,-0.047247,-0.03993,-0.019707,0.18158,0.34912,0.33834
0.0092603,-0.00081812,-0.040853,-0.0066602,-0.062012,-0.58745,-0.41312,0.15397
0.6218,0.48852,0.13702,0.064186,0.065378,0.3943,0.48567,0.56875
-0.58436,-0.34117,0.041112,-0.014906,-0.043873,-0.41449,-0.43277,-0.15603
0.073246,0.049685,-0.093896,-0.048371,-0.014506,0.32948,0.54236,-0.32821
-0.33254,0.06817,-0.05656,-0.0044625,-0.0022151,-0.17735,-0.048528,-0.15982
0.044029,-0.46446,-0.072801,-0.03877,0.0015406,0.059396,-0.85925,-0.75874
-0.13196,0.1713,-0.0013823,0.005641,0.005311,0.11253,0.3164,0.676
0.50622,0.0068394,0.11119,0.058999,0.048736,0.34359,-0.22945,0.15049
-0.14539,0.25229,0.10076,0.051245,0.01492,0.089967,0.99787,0.06229
-0.059964,0.046319,-0.064509,-0.048994,-0.057117,-0.65542,-0.40653,-0.13674
0.24855,0.09691,0.028327,0.015615,0.043223,0.13898,0.29196,0.33184
0.10916,0.10374,0.057598,0.033409,0.041992,0.33279,-0.86831,-0.037025
0.085814,-0.20197,-0.040494,-0.035459,-0.092582,-0.46408,0.9867,-0.40705
-0.45088,-0.51756,-0.17308,-0.04318,-0.0093003,-0.016274,-0.59665,0.31373
-0.017659,0.32857,0.03464,0.017754,0.041754,0.48222,-0.18825,-0.24514
-0.33048,-0.18531,-0.010526,-0.024416,-0.048551,-0.68605,-0.13798,-0.087616
0.45313,0.10049,-0.049565,-0.059802,-0.0062474,0.66737,0.64272,0.65733
-0.65758,0.36228,0.15344,0.099876,0.091239,-0.043341,-0.48381,-0.77925
0.30853,-0.3563,-0.0093793,-0.028905,-0.052256,0.024761,0.44581,0.37368
0.24351,0.27666,0.033409,0.031132,-0.029921,-0.47384,-0.77044,-0.52584
0.56016,0.029129,0.03231,0.046025,0.080401,0.24748,0.72598,0.52179
0.0034876,-0.37959,-0.059716,-0.031067,-0.057289,0.01413,-0.0053087,-0.014371
0.39281,0.29924,-0.055885,-0.02078,0.040987,0.23767,0.34368,0.63991
-1.0182,0.039484,0.034957,-0.0018031,-0.00042135,-0.20093,-0.24787,-0.66267
-0.93885,-0.21716,0.00080068,-0.013851,-0.026042,-0.10719,-0.55808,-0.40508
0.6866,0.15047,-0.034208,-0.010627,-0.013183,-0.074469,0.42573,-0.054385
0.09366,0.03739,0.046647,0.038733,0.053197,0.41437,-0.24217,0.75065
0.41707,-0.34793,-0.061346,-0.045596,-0.085036,-0.43515,-0.1923,-0.42563
0.71449,0.29021,0.024987,0.0021036,0.01739,-0.10464,-0.029621,0.42621
-0.61134,0.13169,0.040621,0.02583,0.016925,0.2131,0.06368,-0.17704
-0.32786,-0.32213,-0.13881,-0.075694,-0.078283,0.17602,0.51422,-0.38325
0.18233,0.087146,0.15903,0.11181,0.13056,0.05808,0.17632,0.40899
-0.46127,-0.14585,-0.034472,-0.0053556,-0.0047212,-0.17278,-0.99706,-0.75435
0.073582,0.19978,0.077302,0.04145,0.055075,0.36441,0.88145,0.95314
-0.33307,0.2427,-0.021868,-0.060516,-0.080661,-0.53582,-0.35784,-0.47884
0.51893,-0.12595,-0.12183,-0.077152,-0.060393,0.24151,0.73934,-0.029912
0.5549,-0.062838,0.081332,0.085101,0.045586,-0.055045,-0.16099,0.40602
0.19023,-0.061211,-0.030108,-0.026902,-0.028214,-0.26174,-0.39017,0.21672
-0.64634,-0.044244,-0.034449,-0.02235,-0.00027721,0.01289,-0.87719,-0.3496
0.19886,0.018223,-0.0095529,0.0053747,0.036009,0.36436,0.23453,-0.24606
-0.48822,-0.069637,0.021795,-0.0057511,-0.028353,-0.095777,-0.19492,-0.35337
0.50095,0.38775,0.099583,0.061941,0.072566,0.079826,0.77434,0.61381
-0.14689,-0.40545,-0.048591,0.0057085,0.002986,-0.013625,0.065916,-0.42508
-0.40699,-0.033493,-0.046749,-0.057046,-0.096492,-0.14118,-0.16509,-0.058263
-0.13559,0.13063,-0.026927,-0.0013132,0.016117,-0.02196,0.76331,0.44522
0.21046,-0.012687,0.073851,0.024293,0.027966,-0.0087631,-0.29192,0.095297
0.61935,0.19434,0.013524,0.019453,0.02456,0.060633,-0.1184,0.21149
-0.031516,0.19785,0.073118,0.030654,0.021078,0.28565,-0.6702,-0.2099
-0.26546,-0.61946,-0.20103,-0.090929,-0.053193,-0.25764,-0.26131,-0.59668
-0.25677,0.038239,0.010629,-0.0096849,-0.0032335,0.030668,0.28759,0.50517
0.37285,0.29402,0.074333,0.016333,-0.04014,-0.44413,0.23615,-0.26247
-0.046387,-0.10477,-0.010926,0.018222,0.031372,0.45064,0.79213,0.65809
0.04236,0.23716,0.12104,0.050571,0.055122,0.075025,-0.56059,-0.40701
-0.15432,-0.19904,-0.085312,-0.050743,-0.062522,-0.093106,-0.66382,-0.51893
-0.13837,0.09934,0.010029,0.042365,0.053568,0.1511,0.90018,0.70194
0.11466,-0.041645,-0.022832,0.0017735,0.012881,-0.45611,-0.82481,-1.042
-0.18815,-0.15409,-0.058626,-0.05525,-0.05947,0.032381,0.51764,0.75741
0.20944,0.067343,0.020595,0.0043056,0.031965,0.61803,0.087834,0.27982
-0.22432,0.046633,0.051936,0.024523,-0.0016791,-0.29191,-0.9164,-0.76614
0.33772,-0.095738,-0.049152,-0.0097726,-0.0038786,-0.18925,0.91165,0.85606
-0.43544,0.0035425,0.0077659,-0.0043193,-0.021174,0.21487,0.1251,0.11339
0.40325,0.074932,0.020654,-0.013327,-0.037598,-0.47882,0.35369,-0.41363
0.0080506,-0.042476,-0.025524,-0.013023,0.025236,0.40022,-0.29681,0.04823
0.060832,0.059397,0.033254,0.012315,0.011168,0.076817,-0.47763,-0.28353
0.022031,-0.017709,0.055673,0.054669,0.045039,-0.21664,-0.26772,-0.15172
0.16347,0.11535,0.024898,0.019787,0.024864,0.28356,-0.040334,0.42172
-0.13287,0.096401,-0.08401,-0.038371,-0.01874,0.36499,0.66198,0.33995
-0.21674,-0.22649,-0.038177,-0.019054,-0.047427,-0.87931,-0.67821,-0.63866
-0.23866,0.22136,0.067436,0.05358,0.05536,0.21514,0.18763,-0.10371
-0.20415,-0.28926,-0.10381,-0.086567,-0.06232,0.063929,0.63191,0.37368
-0.021163,-0.29879,0.018296,-0.002102,-0.025481,-0.28363,-0.14721,-0.29935
0.19379,0.34128,0.035803,0.010379,0.01782,0.32373,0.27985,0.15186
0.60597,0.022933,0.035577,0.01399,0.013602,0.16203,-0.379,0.26647
-0.12855,-0.025059,0.0031738,0.025165,0.017446,0.19398,-0.31651,-0.13741
0.065526,0.23105,0.017952,-0.0099374,-0.032266,-0.37672,-0.48448,-0.15092
-0.067799,-0.034548,-0.020539,0.018775,0.04485,0.0039903,0.96986,0.44413
0.18923,0.00029069,-0.009864,-0.0054208,0.01478,0.0063162,0.040696,-0.10564
-0.18187,-0.23355,-0.043214,-0.012061,0.0024904,0.11231,-0.54979,-0.11816
-0.85651,-0.19643,-0.034433,-0.0091236,-0.04712,-0.32903,0.50835,-0.80311
0.14647,0.18198,0.086665,0.018586,0.044934,0.42208,-0.6058,0.52023
0.53572,0.3543,0.038384,-0.0076634,-0.050331,-0.22226,0.30422,0.66587
0.33332,-0.15699,-0.0081131,0.0052002,-0.0056562,0.080379,-0.1184,-0.46527
-0.44579,-0.25163,-0.10059,-0.045033,-0.017103,-0.24874,-0.15931,-0.44764
-0.036466,0.092227,0.049033,0.059853,0.094481,0.5405,0.78678,0.26291
0.068452,-0.017749,-0.052355,-0.063311,-0.077426,-0.42615,-0.39368,0.39168
0.17263,0.22153,0.1257,0.077504,0.053122,0.063527,0.20098,-0.16257
0.33729,0.050941,-0.042382,-0.0098437,-0.0057945,-0.13728,-0.29363,0.43035
-0.65762,-0.13187,-0.033456,-0.059505,-0.058376,0.22322,-0.7033,-0.63815
0.10111,-0.26452,-0.058453,-0.00080889,0.013199,0.20928,0.90349,0.23141
0.38682,0.1458,0.086048,0.033867,0.0064972,-0.33382,-0.52677,-0.46942
-0.50283,-0.024676,0.0021477,0.02153,0.039361,0.048298,0.57657,-0.029582
0.050887,0.022554,-0.067269,-0.037426,-0.043931,-0.33104,-0.052733,0.52719
-0.090849,0.16414,0.073867,0.044799,0.061644,0.81765,-0.43188,-0.59804
-0.12974,-0.16106,-0.065917,-0.051925,-0.057855,-0.56032,0.49156,0.2928
0.70023,0.19614,0.045217,0.016226,0.019375,0.097144,-0.027107,0.87059
-0.28945,-0.11568,0.017048,0.030486,0.027491,0.047146,0.05674,0.0055723
0.51608,-0.0032816,-0.0096031,-0.017022,-0.025978,-0.20346,-0.71168,-0.63816
-0.39406,-0.053498,-0.0034841,0.0064331,-0.00068807,0.008256,-0.28643,-0.85899
0.17261,0.037278,-0.019436,-0.032032,-0.014049,0.36079,0.41803,0.86518
-0.53546,-0.12259,-0.034281,-0.038723,-0.058391,-0.17826,0.87012,0.30826
-0.33028,0.10675,0.029784,0.048803,0.069328,0.085412,-0.079257,-0.46374
0.33773,0.052997,-0.0072704,0.019529,0.017487,-0.23944,-0.67356,0.20469
-0.14419,0.14578,0.018283,-0.0173,-0.034309,0.24548,-0.094264,-0.62117
0.88537,-0.19277,0.051461,0.047516,0.06224,-0.092148,0.47704,0.21265
-0.80339,-0.11057,0.013924,0.034092,0.041327,-0.079453,-0.23458,0.2288
0.44869,-0.12269,-0.11005,-0.12805,-0.15974,-0.2229,0.37973,0.80162
0.032783,0.12295,0.078048,0.07665,0.07605,0.16633,-0.71043,-0.82872
-0.35777,0.33752,-0.070029,-0.070531,-0.032632,0.1282,0.0050614,-0.58842
0.35891,-0.080616,-0.069607,-0.030391,-0.017051,0.2566,0.77977,0.96063
-0.3615,0.047898,0.056161,0.056618,0.060347,-0.53519,-0.73352,-0.30882
0.077133,-0.37886,0.073065,0.049995,0.0043304,0.61068,0.16488,0.14569
0.67823,0.31867,0.090437,0.035675,0.033727,-0.29208,0.48647,0.54518
-0.94356,-0.10917,-0.048241,-0.041192,-0.038903,-0.096781,-0.49299,-0.59998
0.33663,-0.099062,-0.023081,-0.024649,-0.049447,0.21125,0.2192,-0.36369
-0.2055,-0.39979,-0.17048,-0.055673,-0.013467,-0.39121,0.012245,0.22974
-0.29246,0.44296,0.11079,0.060739,0.053505,-0.13703,-0.64834,-0.5128
0.92441,0.47684,0.078417,0.035355,0.065674,0.52324,0.98288,0.91359
-0.71442,-0.46223,-0.056511,-0.014609,-0.04708,-0.2355,-0.075903,-0.63295
0.051902,0.01539,-0.027985,-0.065458,-0.050151,0.097392,-0.25942,0.11207
0.41179,-0.31871,-0.14017,-0.069869,-0.083911,-0.11689,-0.44669,0.193
0.71539,0.71281,0.23248,0.16804,0.17219,0.028252,0.27413,0.29998
-1.1498,-0.25172,-0.018985,-0.038642,-0.039467,0.18768,-0.22975,-0.020809
0.6794,0.12981,0.082256,0.021528,0.015578,0.053785,0.61439,-0.077995
-1.0895,-0.56502,-0.19813,-0.088617,-0.10019,-0.21332,0.10802,-0.5109
0.33842,-0.069715,0.03815,0.045102,0.081836,0.10876,-0.39111,0.53191
0.78375,0.36003,0.0565,0.031942,0.014564,-0.038152,0.10067,-0.2623
-0.75088,-0.08531,-0.11992,-0.065919,-0.05229,0.17205,-1.0034,-0.33019
0.68448,0.25365,0.078923,0.055723,0.045037,-0.45601,0.5836,0.18259
-0.62308,-0.097031,0.1137,-0.0021492,-0.068739,-0.13132,0.51347,0.31258
0.074669,0.14543,-0.14085,-0.037009,0.043639,0.39188,0.15334,-0.19784
0.21254,-0.51099,0.0025039,0.013102,-0.016461,-0.16326,0.17916,0.8416
0.28582,0.59657,0.12941,0.046202,0.063318,0.34031,-1.0413,-0.75144
-1.1818,-0.66697,-0.22913,-0.13327,-0.12337,-0.28171,0.14657,-0.89967
0.83003,0.65637,0.24696,0.16213,0.14217,0.21441,1.0056,0.8817
0.32281,-0.20208,-0.12215,-0.059634,-0.03847,-0.038858,-0.2237,0.038668
0.24859,-0.073026,0.022871,-0.0013518,-0.0089504,0.17528,-0.43886,0.24306
-0.1684,-0.13002,-0.044441,-0.029737,-0.065958,-0.41957,-0.40848,-0.061581
-0.58631,0.024956,0.012105,-0.019233,-0.013904,-0.021918,-0.1622,-0.75456
-0.11419,0.30682,0.04446,0.030723,0.077228,0.51403,0.63407,0.47711
0.45501,-0.14961,0.053116,0.058122,0.035901,-0.30547,0.20053,0.45891
-0.47984,-0.38073,-0.18014,-0.069508,-0.067292,-0.31655,-0.50653,-0.67404
0.40621,0.077217,0.032689,-0.00045327,-0.029049,-0.065103,0.78938,0.64084
-0.29312,0.24215,0.13734,0.07774,0.1038,0.22402,-0.75441,-0.34763
-0.17776,0.26376,0.0090805,-0.038269,-0.051655,0.40417,-0.28853,-0.47668
0.87871,0.0091792,-0.078545,-0.044116,-0.050294,-0.35155,0.579,0.65966
-0.4601,-0.35105,-0.031824,-0.010465,0.037304,0.48063,0.15755,-0.31957
-0.080624,0.22768,0.039729,0.054561,0.015554,-0.49844,-0.0053189,0.52011
-0.27139,-0.48374,-0.035944,-0.0055009,0.0014245,0.084882,-0.35709,-0.57088
0.41777,0.25458,0.037846,-0.0032247,0.010426,-0.0053349,0.16145,0.013009
0.77046,0.45684,0.05782,0.030204,0.042592,0.25319,0.52451,0.51329
-0.36047,-0.34595,-0.10895,-0.084722,-0.12064,-0.5305,-0.283,-0.27934
-0.71528,-0.14495,0.021824,0.019435,0.021045,0.21461,-0.20145,-0.53417
-0.45403,-0.14896,0.0047573,-0.0086556,-0.016377,0.021341,-0.78335,-0.29622
0.43805,0.058896,0.035065,0.026454,-0.0060586,-0.19414,-0.17815,0.51196
-0.021317,0.48937,0.06572,0.070035,0.1224,0.59365,0.78034,0.59656
0.12523,-0.3864,-0.16913,-0.07348,-0.053077,-0.46539,0.18119,-0.020776
0.73437,0.37824,0.080202,0.032964,0.037345,0.19166,0.82297,0.48155
-1.0956,-0.45889,-0.006974,-0.017452,-0.021096,-0.029725,-0.78037,-0.73467
0.88827,0.21019,0.076731,0.016889,-0.018219,-0.34237,-0.24439,-0.23571
-0.4617,-0.070131,-0.083163,-0.020717,-0.0093337,0.50891,-0.25969,-0.048025
0.45467,0.20475,0.083305,0.010127,0.013051,0.20877,0.57293,-0.046805
-0.34205,-0.10911,-0.14284,-0.078026,-0.10723,-0.39368,0.11089,-0.0093015
0.1915,-0.053688,0.066467,0.06672,0.075613,-0.37801,-0.31274,-0.16127
-0.72918,-0.099732,0.047319,0.023035,0.038955,0.50561,0.15164,1.0101
