-0.80282,-0.32016,-0.10714,-0.16858,-0.048653,-0.086035,-0.11878,-0.28334
0.16713,-0.0090602,0.069533,0.0074655,-0.013533,0.0072079,-0.070262,-0.077484
0.16217,-0.18085,-0.02269,-0.23606,-0.088351,-0.095624,-0.00030056,-0.053522
0.66725,0.33243,0.1266,0.1203,0.079501,0.090307,0.037632,0.12565
-0.22309,-0.0046252,-0.026065,0.10543,0.038116,0.073475,0.12315,0.29771
-0.4596,-0.048827,-0.35971,-0.1572,0.062076,0.049929,0.14053,-0.02757
-0.7561,-0.10414,0.22305,0.0023074,-0.14468,-0.08904,-0.19032,-0.29366
0.79367,0.2107,-0.10318,-0.23226,0.027447,-0.02266,0.0062451,0.071088
-0.48758,0.14185,0.061166,0.29637,-0.054838,-0.14924,-0.066604,-0.26097
-0.20555,-0.24601,0.011924,-0.14122,0.075947,0.038741,-0.12819,0.014294
0.9323,0.0093326,-0.17624,0.16681,0.011617,0.071741,0.023473,0.3717
0.20135,0.096897,0.44422,0.88991,0.14829,0.2454,0.79308,0.38659
0.39828,0.058718,0.77264,-0.46813,0.046175,0.019131,-0.85239,-0.1632
-0.68221,-0.052901,-0.66669,-0.012361,-0.085536,-0.11643,0.31192,-0.17171
-0.87929,0.012721,-0.44182,-0.52449,-0.036639,-0.15467,-0.20753,-0.64165
0.46825,-0.87344,-0.75883,-0.72665,-0.52532,-0.27584,-0.091182,0.011553
0.81237,0.51368,0.28888,0.50856,0.25496,0.24692,0.22348,0.42093
-0.43145,0.75216,0.91568,0.29049,0.2992,0.26623,0.33096,0.69763
-0.48548,-0.64234,-0.021124,-0.32228,-0.069097,-0.20061,-0.35326,-0.54608
-0.35871,0.1883,-0.10072,0.95697,0.020177,-0.01888,-0.15541,-0.40822
0.32398,0.12324,-0.28538,-0.73431,0.084706,0.055441,0.1532,0.028843
0.62494,-0.52379,-0.20283,0.25405,-0.18715,-0.069943,-0.1207,0.22908
0.14384,0.64383,0.47026,0.40386,0.047961,0.12147,0.17294,0.28832
-0.014699,-0.081407,0.10949,-0.55783,0.1635,0.028367,-0.097827,-0.042597
-0.226,-0.088438,-0.47435,-0.18969,-0.23347,-0.060588,0.25442,0.056219
-0.5483,-0.3606,0.074558,-0.17113,-0.075319,-0.19317,-0.19324,-0.5495
0.5827,0.27545,0.1968,0.6991,0.15876,0.1059,-0.020843,0.32564
-0.67653,0.088154,0.15298,-0.097118,0.029043,0.0069998,0.12858,-0.062901
0.32219,-0.4178,-0.17076,0.22776,0.018331,0.039811,-0.21626,-0.053325
0.5712,0.27219,-0.19946,-0.48943,-0.014712,0.062237,-0.018536,0.047765
-0.35773,-0.34103,-0.16102,0.14633,-0.10895,0.096536,0.21233,-0.073589
0.32785,0.73703,0.71869,-0.34881,0.10391,-0.045463,-0.1025,0.37074
-0.50685,-0.21696,-0.71401,-0.51742,-0.14774,-0.1528,0.34191,0.14602
-0.35336,-0.089946,0.20106,0.86634,0.10719,-0.17,-0.547,-0.67719
0.37736,-0.06567,0.070076,0.25625,0.050889,0.09198,-0.0094798,0.12073
0.37776,-0.10931,0.084991,-0.20663,-0.017447,0.15857,0.074023,0.064617
-0.44008,0.14951,0.046266,0.21086,-0.049153,0.0084318,0.29966,0.031174
0.023248,-0.09914,-0.083037,-0.37785,-0.074479,-0.0050808,0.12261,0.20962
0.037826,-0.40822,-0.24005,-0.61237,0.00038151,-0.11523,-0.34634,-0.22678
0.30146,0.66823,0.17543,0.84139,0.2214,0.084459,0.057483,0.1369
0.033086,0.051521,0.30118,0.15881,-0.045945,-0.03169,-0.017583,0.06647
-0.066129,0.15397,0.024095,0.037191,0.11016,0.23021,0.12306,0.10061
-0.32005,-0.574,-0.26142,-0.34241,-0.25798,-0.15516,0.025189,-0.32399
-0.32664,-0.15127,-0.37929,-0.61094,-0.089974,-0.1038,-0.25003,-0.15367
0.29304,-0.15158,0.19122,0.43786,0.12045,-0.062648,-0.024319,-0.061405
0.85686,0.78132,0.21421,0.34025,-0.033703,0.0062649,0.1306,0.49083
0.12249,0.32459,-0.052848,-0.42022,0.10382,0.10252,0.17426,0.15832
-1.0714,-0.94529,0.046959,0.37629,-0.020988,-0.039335,-0.25405,-0.38006
0.022967,0.5337,-0.18814,0.044894,0.038323,0.19071,0.3132,0.16423
-0.32858,-0.56583,0.4702,0.0034252,-0.0059023,-0.13613,-0.1483,-0.22455
0.39841,0.30488,-0.29629,-0.38428,-0.074047,0.0045388,0.0017027,0.024337
-0.24927,-0.0077055,-0.18859,-0.12141,-0.039674,-0.12854,-0.14264,-0.056897
0.24845,-0.32093,0.084629,-0.00058451,0.075046,0.07481,-0.017579,0.017499
0.94559,0.91474,0.25998,0.57523,0.09924,0.1777,0.23832,0.45218
-0.83627,-1.0645,-0.12133,0.0063009,-0.13832,-0.038212,-0.10669,-0.24364
0.38303,0.60932,-0.33874,-0.42603,-0.11396,-0.2993,-0.33112,-0.35022
-0.39656,0.56877,0.30427,0.32347,0.21115,0.12098,0.34084,0.30475
0.52724,-0.84314,-0.41071,-0.62329,-0.18713,-0.027629,-0.27686,-0.38053
0.32796,0.86507,0.56245,0.51875,0.28385,0.35603,0.5738,0.80401
-0.68244,-1.0645,0.23745,0.4329,-0.057006,-0.14264,-0.11621,-0.2992
-0.77019,-0.41224,-0.54481,-0.55642,-0.21119,-0.18825,-0.23988,-0.2854
-0.091529,0.43275,0.36852,0.14202,0.054351,0.015691,0.020016,-0.038722
0.18117,0.6753,-0.26811,-0.34767,0.12149,-0.054395,-0.089653,0.096252
0.62232,-0.41016,-0.31681,-0.087129,-0.072607,0.14075,0.077049,0.010043
0.70568,0.80098,0.24419,0.24631,0.089599,0.2032,0.26095,0.56271
-1.3167,-1.0059,-0.10898,0.14033,-0.18776,-0.30382,-0.38947,-0.76782
0.62128,0.39218,0.92915,0.50472,0.081198,-0.035747,0.0022472,0.051546
-0.039396,0.061023,-0.90528,-0.74334,-0.01587,0.094014,0.17295,0.28051
0.36032,-0.38656,-0.20368,0.031061,-0.11801,-0.10171,-0.22597,-0.36849
0.824,0.632,0.68497,0.33658,0.17428,0.12689,0.089485,0.27711
-1.0555,-0.23648,-0.37763,-0.29607,0.11127,0.12275,0.36338,0.38089
-0.45997,-0.54628,-0.085131,0.021882,-0.081148,-0.07645,-0.18497,-0.27759
-0.20179,-0.27169,0.047485,0.014113,-0.076361,-0.042761,-0.21274,-0.27915
-0.19031,0.53604,0.043122,0.15366,0.1001,0.22987,0.56696,0.4902
1.2414,0.19308,0.37668,0.14787,-0.14779,-0.51775,-0.7316,-0.42573
-0.69455,0.37426,-0.032392,0.017136,0.17022,0.28398,0.39633,0.18169
0.39075,-0.1141,0.016389,0.079965,-0.087746,-0.067865,0.057662,-0.10268
-0.37599,-0.45149,-0.58848,-0.86687,-0.070338,0.029366,-0.35834,-0.20034
0.070743,0.04873,-0.0042775,0.3581,0.043622,0.13215,0.26554,0.23419
0.030273,0.33851,0.17564,0.070777,-0.095601,-0.093241,-0.092692,0.1099
0.12006,-0.26258,0.24995,0.2677,0.12382,-0.043024,-0.086737,-0.085585
0.49337,-0.18405,-0.19263,-0.25766,-0.022064,-0.059062,0.075587,0.096243
-0.77841,-0.23705,0.22611,0.27161,0.015881,0.078613,0.077036,-0.1701
0.29438,0.38526,-0.17834,-0.18167,-0.049938,0.026587,-0.0253,0.046797
-0.74687,-0.2757,-0.12248,-0.14111,0.0074406,0.042062,0.027667,-0.18215
1.1684,0.71937,0.25418,0.48496,0.15603,0.029831,0.079631,0.36907
-0.11644,-0.043025,-0.14219,-0.2758,-0.027744,-0.035574,-0.081666,-0.019838
-0.336,-0.36075,0.30437,0.10359,0.047582,-0.00012444,0.010264,-0.19487
-0.22314,-0.29104,-0.15821,0.033146,-0.096941,0.0013646,0.032394,0.15393
0.13233,0.19366,-0.43091,-0.54486,-0.18207,-0.16536,-0.072598,-0.10081
-0.48145,-0.09057,0.12429,0.15718,-0.068453,-0.094741,-0.19742,-0.27341
0.71108,0.44596,0.3097,0.27239,0.14195,0.1508,0.11763,0.22884
0.34747,0.2376,0.029669,-0.18964,0.12922,0.15008,0.1379,0.14012
-1.0265,-0.81099,-0.13117,0.18011,-0.04318,-0.025507,-0.073497,-0.19522
0.75337,0.12095,-0.13441,-0.15438,0.063494,0.11751,0.18787,0.29437
-0.25003,0.16104,0.10596,0.23157,-0.088543,-0.22424,-0.19343,-0.20199
0.34609,0.38411,0.35628,0.2463,0.17374,0.06772,0.026721,0.098737
-0.85014,-0.59469,-0.45241,-0.38236,-0.2268,-0.099153,-0.079497,-0.32512
0.39256,-0.26156,-0.209,-0.22431,-0.031565,0.026222,-0.0027172,0.05918
0.099901,0.27133,0.25251,-0.06102,-0.013411,-0.055328,0.070589,0.28384
-0.087938,0.31163,0.13702,0.39584,0.05458,-0.038698,-0.070174,-0.22117
0.64612,0.17984,0.0083968,-0.06573,0.11778,0.29473,0.23084,0.28582
-0.71142,0.076314,0.13297,0.17017,0.035304,-0.016716,-0.019636,-0.016744
0.38669,0.019336,-0.17673,-0.12437,-0.037193,-0.036821,-0.13563,-0.14619
0.11191,-0.1069,-0.13217,-0.23185,-0.069303,-0.024997,0.068694,0.090932
-1.0594,-0.80868,-0.062409,-0.043909,-0.10106,-0.21725,-0.20505,-0.41644
0.21751,0.081018,0.015892,0.10282,-0.047482,-0.091512,-0.067288,-0.021112
0.78147,0.47379,0.3049,0.22365,0.23122,0.32008,0.33307,0.46375
0.12997,0.33859,0.10862,0.037359,0.0078921,-0.045294,-0.19137,-0.0479
0.26326,-0.13435,-0.26851,-0.19006,-0.022441,0.039173,0.19593,0.29595
-0.51868,-0.51861,-0.17778,-0.075138,-0.00031059,0.019512,0.0037779,-0.28497
-0.93655,0.089783,0.21751,0.35961,-0.13616,-0.21259,-0.25103,-0.35169
0.34581,0.10261,-0.27674,-0.66597,-0.06192,0.039429,0.065564,0.10553
0.77504,0.47756,0.29387,0.35702,0.12977,0.050226,-0.021883,0.034131
-0.51516,-0.11068,0.024215,0.062255,-0.020852,-0.0073341,0.034318,0.1002
0.26303,-0.26306,-0.17892,-0.018632,0.096521,0.15637,0.23448,0.20362
-0.22339,-0.30947,0.19204,0.12973,-0.127,-0.20088,-0.367,-0.42858
-0.28081,-0.089824,0.034439,0.014237,0.081879,0.076573,0.12734,0.21064
1.0218,0.71044,-0.26292,-0.2572,-0.027631,0.018873,0.14567,0.29902
-0.58385,-0.28268,0.0086335,-0.061294,-0.0037441,-0.023792,-0.071706,-0.24446
0.63942,0.36139,0.39364,0.49091,0.065955,0.14255,0.098334,0.20975
-0.52439,-0.011712,-0.26609,-0.58623,0.0079665,-0.092466,-0.12698,-0.23974
0.0080653,-0.2808,0.12986,0.36287,-0.014899,-0.049495,-0.037502,-0.22778
-0.23005,-0.45452,-0.20769,0.064857,-0.081347,-0.048408,0.023179,0.19805
-0.52791,0.016486,-0.19179,-0.38572,-0.011431,-0.033318,-0.04534,-0.047433
-0.18449,0.10644,0.085772,0.051575,-0.14783,-0.12752,-0.092655,-0.14197
0.84961,0.10403,0.31501,0.25346,0.15177,0.2255,0.13364,0.26087
0.1499,0.095453,-0.16552,-0.082999,-0.009155,-0.050926,-0.059431,-0.047056
0.36245,0.58008,0.26358,0.23121,0.13677,0.20798,0.25965,0.41325
-0.50134,-0.47593,-0.12272,-0.068408,-0.026416,-0.037063,-0.19721,-0.43462
-0.20692,0.0081358,-0.26903,-0.45777,-0.02945,-0.060583,0.085562,0.0039924
0.4136,0.17288,0.12926,0.10239,-0.01317,-0.09864,-0.010143,0.03398
-0.56985,-0.67924,0.0089823,0.29152,0.0060298,-0.0046432,-0.056176,-0.15751
0.54963,0.43246,0.048788,0.085664,-0.06665,-0.053615,-0.038674,0.092845
-0.60971,0.089542,-0.049374,-0.19564,0.04119,0.073766,0.0016982,0.026209
0.50628,-0.20446,0.0884,-0.045415,-0.022798,-0.021182,-0.037773,0.00070414
0.060799,0.27343,-0.062182,0.059028,-0.040262,-0.017661,0.045489,0.061769
-0.21176,0.12235,0.17025,0.28123,0.098162,0.11664,0.11873,0.20788
-0.10633,-0.32278,-0.34728,-0.44934,-0.17757,-0.10128,-0.21594,-0.35145
0.78805,0.21184,0.10407,-0.046724,0.17197,0.12692,0.222,0.32016
-0.95052,-0.76452,-0.053708,0.020448,-0.0013734,-0.15058,-0.19155,-0.43414
-0.076938,0.27355,0.26516,0.37713,0.036785,0.090622,0.15358,0.2373
-0.062588,0.34341,-0.38535,-0.27399,-0.049787,-0.023943,-0.054644,-0.047582
-0.065272,0.16463,0.25113,0.37863,-0.0038801,0.013564,-0.027032,-0.092246
0.7882,0.072646,-0.069741,-0.54143,-0.10754,-0.16452,-0.045096,0.01102
0.73674,0.40159,0.70421,0.71423,0.09929,0.16742,0.15623,0.37296
-0.77207,-0.7339,-0.41378,-0.38703,0.045529,0.023664,-0.025375,-0.11481
-0.62902,-0.0081753,-0.65964,-0.30695,-0.066281,0.035445,-0.012557,-0.084638
-0.4927,-0.22755,0.27895,0.032669,-0.064544,-0.15827,-0.21224,-0.32568
1.0627,0.099959,0.1223,-0.10941,0.097692,0.089459,0.093868,0.12241
-0.27209,-0.047844,-0.063884,0.4325,-0.032248,-0.050585,0.030575,0.14144
0.70121,0.42516,0.24045,0.13688,0.16364,0.13986,0.12137,0.24585
-0.52136,-0.1422,-0.31913,-0.20537,-0.20413,-0.11239,-0.07101,-0.16706
0.2295,0.31535,0.16044,-0.0068771,0.029883,0.037471,0.086662,0.15964
-0.6094,-0.16865,0.12808,-0.19639,0.0077897,-0.026024,-0.061337,-0.28997
-0.45856,-0.35047,-0.078281,0.062479,-0.065864,-0.13662,-0.16282,-0.27335
0.48967,0.24737,0.018112,0.16043,0.044426,0.012641,0.03287,0.24176
-0.13597,-0.38256,-0.24058,-0.043305,-0.0044632,0.033109,0.049788,-0.10263
1.0039,0.36916,0.27544,0.11519,0.068692,0.12916,-0.025687,0.21046
-0.46337,0.25234,0.15608,-0.067271,0.0913,0.12922,0.15037,0.17416
0.43169,-0.23345,-0.32929,-0.38738,-0.039496,0.024791,0.10907,0.1325
-0.73339,-0.24512,0.17514,0.32708,-0.04407,-0.19342,-0.18119,-0.32896
-0.30368,-0.13522,-0.34882,-0.025009,-0.10375,-0.089763,-0.08807,-0.086005
0.64147,0.42293,0.37883,0.08787,0.069198,0.083953,0.059917,0.10267
-0.60925,-0.35383,-0.14186,-0.11565,-0.10417,-0.095501,-0.065523,-0.25573
0.94503,0.74304,-0.2379,-0.081614,0.086887,0.11337,0.098201,0.32298
-0.40454,-0.34377,0.045582,0.0010919,-0.029177,-0.062882,-0.050178,-0.12191
-0.73316,-0.21055,0.53853,0.2711,0.079591,0.009085,-0.0024834,-0.0039294
0.27464,-0.18729,-0.14818,0.27297,0.054668,0.12693,0.085305,0.15401
0.52723,0.44392,-0.28704,-0.70644,-0.15784,-0.1617,-0.075849,-0.20245
-0.076555,-0.11327,0.35668,0.47184,0.1536,0.13585,0.09189,0.20006
-0.4371,-0.45073,-0.42803,-0.34128,-0.22164,-0.18352,-0.14646,-0.28736
0.76154,0.43444,0.12421,0.026626,0.23993,0.26258,0.16924,0.3813
-0.64314,-0.33713,-0.17431,-0.17272,-0.10248,-0.12818,-0.13377,-0.24026
0.59178,0.56593,0.69981,0.69605,0.071139,0.088624,0.13132,0.26893
0.20986,-0.432,-0.69082,-0.55168,-0.13015,-0.072126,-0.098395,-0.31825
-0.87133,0.22499,0.14613,0.14923,-0.026935,-0.15762,-0.018142,-0.0096113
-0.0513,-0.080455,-0.16432,-0.1837,0.083733,0.12929,-0.025803,-0.038945
-0.12422,0.087734,0.32287,0.26282,0.014271,-0.062089,0.020212,0.063517
0.087856,-0.030574,0.17728,0.019607,0.006845,0.011742,0.003906,0.064597
0.56198,-0.0083096,-0.3444,0.030504,-0.03228,0.0085601,-0.065724,-0.026842
-0.20851,0.011565,0.26426,0.090227,0.084428,0.10166,0.24977,0.33672
0.0030329,-0.42565,-0.29497,-0.33479,-0.049222,0.026448,-0.10375,-0.2899
0.20999,0.28887,0.086303,-0.051164,-0.105,-0.12282,-0.09495,-0.094526
-0.0070609,0.30403,0.19682,0.15085,0.096965,0.075648,0.11961,0.16442
-0.4769,-0.51169,-0.45512,-0.18214,-0.052471,-0.019372,-0.093483,-0.16994
0.34414,0.23407,0.19421,0.20825,0.0094748,-0.049431,-0.016178,0.050403
0.31066,0.19945,0.2482,0.13569,0.1112,0.046904,0.022721,0.028425
-0.29347,-0.027915,-0.22078,-0.16406,-0.0752,-0.036078,-0.047657,-0.01695
-0.18372,0.045547,0.27361,0.29471,-0.0027302,0.005465,0.069146,0.055292
0.16008,-0.071326,-0.3452,-0.52603,-0.038577,-0.024388,0.036888,0.097167
-0.9592,-0.44819,0.040874,0.21802,-0.0031918,-0.0010072,-0.10561,-0.25035
0.60609,0.032377,0.13505,0.019079,0.0172,0.044176,0.047689,-0.026243
0.44917,0.35445,-0.078994,-0.099936,0.022168,0.0095467,0.027815,0.13643
-0.17322,-0.13142,0.16295,0.23492,0.058041,0.090447,0.092413,0.17455
0.82274,0.43234,-0.094146,-0.1106,-0.047654,-0.12708,-0.078892,0.040357
-0.48011,-0.2068,-0.13359,0.033773,-0.037658,-0.017851,-0.04066,-0.18115
-0.60865,-0.16116,0.21463,0.018152,0.048572,0.027832,-0.058154,-0.13137
0.10619,0.19923,-0.14454,-0.0021744,-0.023466,-0.013021,-0.044843,-0.076265
0.23355,-0.42475,0.17125,-0.082083,0.074557,0.14922,0.17188,0.25776
-0.24891,0.13762,-0.22815,-0.11928,-0.13339,-0.16452,-0.016642,0.019831
-0.11117,-0.14484,0.0023892,0.20816,-0.037161,-0.094305,-0.1177,-0.18749
0.20691,0.27611,0.0055141,-0.16788,0.08286,0.14147,0.10326,0.050988
-0.061592,0.26998,-0.083715,-0.12783,-0.038217,-0.011847,-0.010268,0.025263
0.80871,0.097644,0.17422,0.16629,0.037528,1.2357e-05,0.0019862,0.087461
-0.64524,-0.55789,0.15569,0.20011,0.099134,0.051191,0.060899,0.096992
-0.099079,-0.044948,0.064326,0.13012,-0.0023034,-0.031401,-0.10812,-0.20446
0.034969,-0.063925,-0.31122,-0.21631,-0.087878,-0.022556,-0.029577,-0.028813
-0.30615,0.027533,0.1061,-0.012519,0.083754,0.11559,0.053512,-0.033561
0.046472,0.39382,0.06484,0.067885,-0.066162,-0.055162,-0.0076668,0.10026
0.40026,0.15865,-0.28019,-0.3829,-0.061239,-0.058206,0.037041,0.058966
0.47518,-0.047945,0.15574,0.12628,-0.026087,-0.033217,0.024286,0.021421
-0.275,-0.26103,-0.042241,0.032441,-0.037943,-0.1503,-0.075954,-0.0047682
-0.11459,0.015374,0.02383,0.10121,0.084049,0.1554,0.027005,-0.034642
-0.68875,-0.15178,0.20529,0.25467,0.020701,-0.051186,-0.016569,0.027013
0.68846,0.24336,-0.037024,-0.13199,0.077452,0.20859,0.076368,-0.067543
-0.38729,-0.22116,-0.039126,-0.074364,0.020063,-0.056244,-0.16927,-0.26866
0.081383,0.011066,-0.15266,-0.24448,-0.12077,-0.15806,-0.096351,-0.057949
0.32855,-0.017726,-0.049616,0.2246,0.067849,0.18336,0.28738,0.44178
-0.87179,0.016629,-0.2067,-0.11269,-0.087468,-0.11211,0.035769,0.01277
0.87073,0.20375,0.61024,0.43881,0.18515,0.21856,0.02994,0.013823
-0.27468,0.030695,-0.11467,-0.32397,-0.13121,-0.21789,-0.037064,0.08342
0.20137,0.084556,0.079254,-0.13519,-0.076372,-0.10342,-0.17552,-0.28963
0.13248,-0.32281,-0.40967,-0.25231,-0.056677,0.021404,-0.14546,-0.031177
-0.33883,-0.17025,-0.042209,0.34848,0.10028,0.11699,0.22336,0.2222
0.31829,0.42155,0.15877,0.15177,0.012703,-0.058426,-0.085499,-0.27452
0.55586,0.19072,0.061391,0.048166,0.12716,0.12913,0.24835,0.36005
-0.91507,-0.27287,0.10441,0.014021,-0.047264,-0.037479,-0.11019,-0.28784
-0.80266,-0.12064,-0.015485,-0.2634,-0.095431,-0.21277,-0.19096,-0.13043
0.36039,-0.2291,-0.14848,0.10656,0.053746,0.19852,0.085937,0.10872
1.0371,0.26136,-0.1371,-0.20372,-0.15401,-0.099445,-0.051178,0.050287
-0.75172,0.032322,0.3868,0.17409,0.18762,0.12814,0.11797,0.07255
0.73492,0.1886,-0.18551,-0.047459,-0.0075603,0.052982,0.024087,0.15452
-0.26137,-0.13301,0.075872,-0.022796,-0.029135,-0.036505,0.06604,-0.015064
-0.17942,-0.34252,-0.33712,-0.070634,-0.10434,-0.18026,-0.20949,-0.28004
-0.30335,0.16511,0.1294,0.26309,0.14108,0.08181,0.17342,0.16309
0.17441,0.30628,0.19288,-0.068545,-0.043574,-0.00083007,0.018556,0.093702
-0.21435,-0.33997,-0.15632,-0.082307,-0.057276,-0.029849,-0.23746,-0.3731
0.74735,0.56167,0.40002,0.14939,0.037161,0.073254,0.0844,0.27646
0.047918,-0.4047,-0.24175,-0.27458,-0.0259,-0.065742,-0.0084084,-0.029196
-0.63034,-0.10887,-0.075441,0.36962,0.13667,0.085446,0.085684,-0.0015365
0.11296,0.32925,0.0075357,-0.18585,-0.04478,-0.073647,0.046654,0.031531
-0.61848,-0.49107,-0.070583,-0.043722,-0.045891,0.082954,-0.03909,-0.17918
0.90496,0.31155,-0.027039,0.21801,-0.03743,-0.061252,-0.014753,0.070612
0.19572,-0.029002,-0.031346,-0.58676,-0.12768,0.03307,-0.012632,0.22743
-0.24752,-0.14524,-0.10428,-0.096338,0.0044803,-0.071803,-0.032338,-0.12184
-0.6896,-0.091178,0.14704,0.43403,0.16402,-0.10318,-0.16746,-0.2814
0.75509,0.25879,0.35665,0.46742,0.14733,0.2658,0.33186,0.52985
-0.54956,0.12346,-0.15537,-0.29984,-0.10161,-0.13059,-0.20678,-0.50135
0.62858,-0.099415,-0.10165,-0.094655,-0.077029,0.033863,0.14543,0.3034
-0.78278,-0.036247,0.038429,-0.15305,0.0077179,0.015073,-0.042359,-0.096517
0.79184,0.31903,0.0037669,0.24122,0.1581,0.092711,0.017717,0.11765
-0.77678,-0.5195,-0.036713,0.04636,-0.12767,-0.16386,-0.050361,-0.21155
0.36427,-0.044777,-0.11618,-0.23209,-0.12382,-0.0047258,0.018476,0.16528
0.65911,0.54839,0.077481,-0.095395,0.091935,0.094418,0.10714,0.18595
-0.93495,-0.56618,0.01424,0.065787,-0.10386,-0.23189,-0.35386,-0.54681
0.56107,0.23975,-0.29548,-0.01296,-0.029063,0.034254,0.12127,0.20335
-0.046478,0.017117,0.30017,0.14703,0.23323,0.16092,0.096786,0.040414
0.10392,-0.35496,-0.0078516,0.048284,-0.072068,0.12681,0.066588,0.076147
-0.5386,0.43943,-0.068364,-0.22868,-0.036648,-0.090101,-0.038337,-0.0078812
-0.061387,-0.23842,0.19826,0.20864,0.059342,-0.098656,-0.029896,-0.10917
0.70116,0.27549,0.073257,0.11912,0.075282,0.11635,0.060434,0.18615
-0.34048,0.21349,-0.10878,-0.082927,-0.036677,-0.03219,0.036368,0.072066
-0.32083,-0.13912,0.056115,-0.21826,-0.12195,-0.022525,0.076105,0.22613
-0.4754,-0.54484,-0.37212,-0.045575,-0.080977,-0.1143,-0.32203,-0.7526
0.77968,0.37447,0.049585,0.1294,0.092128,0.057947,0.098236,0.20382
0.45577,0.068106,0.14004,0.11039,0.052028,-0.054025,-0.078289,0.04669
0.24078,-0.19277,0.062795,0.021658,-0.0069987,0.14263,0.18685,0.14996
-0.52438,0.091384,0.099499,-0.090345,0.063092,0.10064,0.096734,0.23998
-0.93908,-0.28912,-0.21748,-0.077249,-0.089021,-0.11732,-0.12166,-0.37022
0.41126,0.090134,0.097734,-0.071647,-0.095356,-0.13561,-0.11595,-0.085758
0.80027,0.34163,-0.0079982,0.25498,0.15466,0.054687,0.075832,0.26678
-0.18488,-0.039398,-0.025601,-0.13605,-0.0563,0.0644,0.064234,0.017252
-0.16572,0.027522,0.0065902,0.021104,0.030958,0.02014,-0.040223,-0.15293
-0.026274,-0.10465,-0.1145,-0.20341,-0.051153,-0.0061854,0.005653,0.07026
-0.63143,-0.091773,0.2511,0.20544,-0.090952,-0.16948,-0.12551,-0.19483
0.56351,0.081403,0.016263,0.19201,0.1774,0.164,0.15267,0.1462
-0.12858,0.046856,-0.10174,-0.096464,0.089521,0.041454,0.066824,0.16372
0.012604,-0.18855,0.036305,0.1123,-0.08195,-0.060838,-0.14892,-0.17405
0.55853,0.31187,-0.023705,-0.17467,-0.07248,-0.018772,0.1143,0.24123
-0.74941,-0.55404,-0.28211,-0.48883,-0.13327,0.041282,-0.1364,-0.34962
-0.10279,0.19768,0.089589,0.19369,-0.0076337,-0.077622,-0.0033628,0.091007
0.36531,0.30887,0.12354,0.34258,0.24101,0.091617,0.082989,0.05398
0.22869,-0.064678,-0.015037,0.099602,0.026092,0.031962,-0.010826,-0.055448
0.44839,0.060812,0.19834,-0.11234,-0.12928,-0.10911,0.081848,0.1528
-0.31344,0.0284,-0.055956,-0.026874,0.032713,0.050856,-0.045605,-0.0010257
-0.16827,-0.076571,-0.058946,0.098576,-0.065707,-0.073827,-0.041795,-0.063387
-0.92902,-0.52001,-0.021737,-0.18112,0.029234,0.056695,-0.062961,-0.22882
0.50865,0.38571,-0.1244,-0.068992,-0.017515,-0.14239,-0.10894,0.019278
0.17492,-0.015114,0.007684,-0.064879,0.021615,0.15823,0.20332,0.19748
0.23673,0.11425,0.24929,0.18299,-0.0086497,0.0064195,0.061567,0.05652
0.18453,0.094892,-0.30583,-0.067387,0.033116,0.082468,0.020671,0.13578
-0.36429,-0.017921,0.31125,0.16057,0.061485,0.042751,0.049523,-0.010134
-0.20599,-0.39585,-0.43827,-0.031838,-0.1265,-0.23802,-0.36737,-0.45195
-0.2707,0.28906,0.28174,-0.059233,0.062728,0.036483,0.16082,0.15346
0.26685,-0.10432,0.010308,-0.0083353,-0.011884,0.014089,-0.02971,-0.11644
0.9083,0.3061,0.044044,-0.15342,0.024058,0.077107,0.084795,0.35489
-0.40306,-0.40232,0.26531,0.31731,-0.00197,0.022135,0.043681,-0.042481
-0.28185,0.21514,-0.31073,-0.11998,-0.035873,-0.064904,0.042429,-0.012158
-0.15741,0.017615,-0.059352,-0.06684,0.039064,-0.035357,-0.1377,-0.20288
