0.085222,0.14593,-0.027979,0.079508,0.058293,0.051523,0.034131,-0.15442
0.049236,0.074868,-0.4342,-0.13688,-0.011259,-0.0091391,0.0027547,0.041089
0.012505,-0.012769,0.4547,0.33633,0.043919,-0.00030668,0.0017978,0.12636
0.029228,0.21914,0.97292,-0.17249,-0.041648,-0.01573,0.015908,-0.15549
-0.065022,-0.25284,-0.75789,-0.15581,0.0055334,-0.016274,-0.048341,0.2665
-0.036007,-0.19448,-0.32752,0.16688,0.021319,0.037227,0.028113,-0.0058027
0.038315,0.26115,0.026525,-0.033655,0.044572,0.043314,0.018943,-0.042784
0.088126,0.12939,-0.70491,0.0695,0.028164,0.017712,0.01022,-0.00096828
-0.19049,-0.21491,0.61184,0.17842,-0.090614,-0.078541,-0.037107,-0.2009
-0.023193,0.056433,0.16709,-0.4419,-0.1009,-0.057815,-0.021568,0.068384
0.12997,-0.14994,-0.32428,0.0054554,0.07555,0.048814,0.025419,0.041714
-0.0037995,0.06513,0.21211,0.20092,0.040619,0.030622,0.017714,0.048035
0.052327,0.15587,0.79515,0.18499,0.01352,0.012843,0.0098221,-0.083494
0.032565,-0.024748,-0.31534,-0.23577,0.03384,0.0035062,-0.0061803,-0.18785
-0.032356,0.25927,-0.15769,-0.028082,-0.10885,-0.059709,-0.0068502,0.31365
0.028731,-0.38096,-0.49776,0.067714,0.14836,0.10457,0.023587,0.21001
-0.18331,0.12651,-0.25821,-0.0018055,-0.13175,-0.10517,-0.10208,-0.35118
-0.036194,-0.59995,0.067678,-0.0018897,0.035312,0.02983,0.046203,0.026945
0.079177,0.080605,0.040941,-0.28485,-0.045842,-0.02176,6.0446e-05,0.061018
-0.032577,0.42501,0.92513,0.49893,-0.0083138,-0.010093,-0.0058792,-0.18881
0.29264,0.79009,0.17831,-0.20042,0.084885,0.080206,0.090926,0.29083
0.031417,-0.28912,-0.79681,0.15248,0.076781,0.030038,0.016812,-0.033146
-0.44135,-0.45822,0.3632,0.053841,-0.096003,-0.10634,-0.088077,-0.2478
0.0069231,-0.40971,-0.29807,-0.42924,-0.090647,-0.040358,-0.075966,0.15449
0.29773,0.11797,-0.20463,0.35751,0.12325,0.10252,0.12273,0.27607
-0.15534,0.15376,-0.31024,-0.44558,-0.08773,-0.029656,-0.047321,-0.40468
0.31127,0.50226,-0.004666,0.38175,0.10426,0.047239,0.046248,0.099182
-0.22471,-0.24838,0.89375,-0.16515,0.019726,0.028492,0.020484,-0.20148
-0.24787,-0.36742,-0.11237,-0.12886,-0.19227,-0.16378,-0.14783,0.087011
0.35913,0.60385,0.62057,0.71406,0.25841,0.17407,0.15124,0.31097
-0.36411,-1.0237,-0.49013,-0.69449,-0.30659,-0.1994,-0.12051,-0.14509
0.28646,0.66185,-0.55025,0.016077,0.036057,0.021375,0.0066566,0.22719
0.046434,0.1182,-0.33705,-0.09768,0.16262,0.12631,0.064948,-0.22897
0.034344,0.19917,0.16915,0.72998,0.12868,0.069194,0.055109,0.016269
-0.24069,-0.78301,-0.62215,-0.45571,-0.15134,-0.079331,-0.084978,-0.1875
-0.097939,0.38749,0.88409,0.053146,-0.068325,-0.077122,-0.011624,0.056016
0.12727,0.6041,1.0455,0.31516,0.12691,0.098848,0.071545,-0.028709
0.013045,-0.33469,-0.33843,-0.6659,-0.12932,-0.075552,-0.047264,0.2049
0.16804,-0.1538,-0.28381,0.020474,-0.018093,-0.0074156,0.021516,-0.13535
0.083096,0.087244,-0.47247,0.192,0.16234,0.1149,0.042447,0.32433
-0.056027,-0.12195,-0.24223,0.0035201,-0.096992,-0.084324,-0.071282,-0.39343
-0.18857,-0.58588,0.34475,0.36107,0.039062,0.0037916,-0.0076899,0.14084
-0.018993,0.33879,0.29267,0.10145,0.04675,0.01969,-0.0012273,0.0057246
-0.032245,0.078321,-0.85058,-0.73453,-0.1753,-0.067743,-0.0046508,0.085261
0.021973,0.059444,0.99092,0.57431,0.14702,0.077836,0.037444,-0.18888
0.066617,0.20032,-0.30633,-0.47706,-0.20407,-0.09769,-0.05373,-0.04851
0.05636,0.69872,-0.54327,-0.02646,0.19439,0.11722,0.066458,0.1732
-0.13221,-0.56975,0.10458,0.43623,-0.047221,-0.073811,-0.05444,-0.17745
0.041178,-0.64508,0.71805,-0.18916,0.0092371,0.01699,0.052664,0.15133
0.28012,0.80698,-0.25787,0.25378,0.14523,0.1162,0.067406,-0.035165
-0.32986,-0.64483,-0.061961,-0.14232,-0.20198,-0.15143,-0.11217,0.027821
0.045935,0.18612,0.35944,-0.24691,0.029553,0.034015,0.0054909,-0.068272
0.069716,-0.2314,-0.46747,0.22617,0.065697,0.023671,0.013474,0.21216
0.036287,-0.076491,-0.34772,0.00055655,-0.00036775,-0.0030876,0.012789,-0.002053
0.21724,0.92485,0.34943,0.18328,0.12799,0.13337,0.10472,0.12127
-0.36515,-0.92292,0.47322,-0.21122,-0.28338,-0.19951,-0.16377,-0.27995
-0.18764,0.29279,-0.58691,-0.60451,-0.18691,-0.14956,-0.09693,-0.34732
0.2429,0.27222,0.42028,0.63028,0.37157,0.2372,0.13406,0.099786
0.014357,0.22256,-0.047547,0.19948,-0.020813,-0.0070502,0.0065778,0.1657
0.22312,0.23382,-0.54464,-0.15067,0.082267,0.071652,0.099485,0.22942
-0.018511,-0.45432,-0.051302,0.060655,0.025209,-0.0027122,0.038276,0.061018
-0.536,-0.75618,0.65036,-0.64712,-0.41062,-0.27689,-0.25502,-0.10889
0.13355,-0.26293,-0.46999,0.1974,0.17278,0.14724,0.047497,-0.45707
0.41292,0.70257,0.54196,0.48577,0.15726,0.073565,0.085911,0.36937
-0.15925,0.1082,-0.53253,-0.025264,0.088334,0.086902,0.062552,-0.036263
0.23566,0.64087,0.58532,0.27059,0.0035141,-0.0015921,0.062448,0.46454
-0.41289,-0.81838,-0.84468,-0.81106,-0.39563,-0.27921,-0.24341,-0.31911
0.19649,0.37473,0.17565,0.46641,0.22548,0.19036,0.11299,-0.31313
-0.16604,-0.20878,0.37524,-0.15257,-0.11072,-0.12497,-0.087546,-0.060623
0.01247,-0.29775,0.60513,0.13209,0.0092498,0.00089998,0.045444,0.39597
0.30854,0.82969,-0.38688,-0.14349,0.22584,0.16171,0.10587,-0.086256
0.11256,-0.12177,-0.28265,0.41832,0.18774,0.10001,0.047248,-0.13324
-0.59769,-0.8541,-0.2311,-0.72019,-0.3622,-0.18346,-0.1767,0.091395
0.17236,0.6657,-0.31547,0.30358,0.053664,0.023246,0.067541,0.01117
-0.24606,-0.77801,0.11164,-0.31851,-0.19601,-0.11454,-0.070869,-0.058829
0.28302,0.81189,1.1315,0.6682,0.19524,0.099893,0.064997,0.048612
0.10576,-0.1516,-0.38181,-0.34952,-0.067629,-0.035199,-0.016524,0.0008633
0.043643,-0.30862,-0.33281,-0.18943,-0.084566,-0.073317,-0.049508,-0.15995
0.5807,0.69399,-0.10918,0.94605,0.59085,0.4004,0.27076,0.52178
-0.77692,-0.82897,-0.84125,-0.88937,-0.54097,-0.37156,-0.24345,-0.50706
0.15583,0.70316,0.99469,0.56766,0.10552,0.094877,0.094948,-0.019385
-0.32675,-0.5977,-0.54235,-0.56847,-0.072321,-0.083902,-0.19114,0.054477
0.13268,0.28643,1.0081,0.11372,0.041077,0.067419,0.13215,-0.052892
0.072023,-0.040834,0.094032,-0.21569,0.053179,0.039513,0.0018393,0.3823
0.08485,-0.12457,0.25317,0.11445,-0.069198,-0.067645,-0.043366,-0.018339
0.11715,0.65398,-0.58006,0.36222,0.14101,0.12732,0.13691,-0.11772
0.060811,-0.070947,-0.54102,0.059874,0.010732,-0.040745,-0.043396,-0.10636
-0.035776,-0.87619,-0.76239,-0.033434,-0.015189,0.013584,-0.0061202,0.076316
-0.41326,-0.11227,0.72882,-0.58823,-0.27235,-0.20956,-0.11825,-0.30451
0.18743,0.44006,0.22251,0.5372,0.19349,0.14999,0.058065,0.088273
-0.19384,-0.36035,-0.14405,-0.57837,-0.2175,-0.14083,-0.093886,-0.078796
0.27897,0.67995,1.05,0.46363,0.10603,0.083617,0.12169,0.40069
0.40995,0.62798,-0.85989,0.43632,0.36123,0.23892,0.11142,0.037948
-0.33342,-0.37983,-0.23395,-0.62962,-0.27088,-0.23622,-0.17136,-0.16413
-0.062052,-0.26957,0.96437,0.71068,0.046257,0.057256,0.077999,-0.08644
-0.019555,-0.41146,-1.0038,-0.65215,0.04689,0.064726,0.015543,-0.04076
-0.066122,-0.29079,0.1674,-0.25642,-0.12131,-0.097117,-0.077815,0.10522
-0.092298,-0.093486,-0.45264,-0.13196,-0.037632,0.0083652,0.024148,-0.19692
0.11391,0.39516,0.85977,0.53554,0.1326,0.083284,0.055558,0.46461
-0.10974,0.24266,-0.60295,-0.22892,-0.17425,-0.178,-0.11649,-0.33469
0.2546,0.6572,0.73181,0.41135,0.15819,0.12225,0.039347,0.027727
0.0059446,-0.41173,0.25681,0.080949,0.035796,0.030542,0.070181,0.065593
-0.096225,-0.16461,-0.45458,-0.12794,-0.10386,-0.070271,-0.047087,0.012336
0.19898,-0.037869,-0.15511,0.3449,0.20848,0.17175,0.11759,-0.045931
-0.33502,-0.6256,-0.60251,-0.71382,-0.26856,-0.22716,-0.16986,-0.1314
-0.074103,0.36764,0.0032635,-0.56373,-0.1825,-0.094445,-0.026454,-0.070175
0.13629,0.28333,0.40225,0.36447,0.19402,0.13296,0.05562,0.069774
0.13761,-0.0065527,0.14832,0.35963,0.12704,0.088136,0.068325,0.079576
0.020938,-0.12287,0.0060609,0.28133,0.077339,0.067789,0.026852,0.23397
-0.028969,-0.069789,0.85561,0.34073,0.067617,-0.014586,-0.038145,-0.10744
0.18074,0.51554,-1.0115,-0.40747,-0.04395,0.035473,0.075803,0.18733
-0.49234,-0.65215,0.33389,-0.61192,-0.39934,-0.30638,-0.23345,-0.44585
0.13065,0.26785,-0.69763,0.41472,0.24248,0.17791,0.15869,0.17857
0.05778,0.078716,-0.049247,-0.085312,-0.025419,-0.043224,-0.08387,-0.027061
0.016952,0.21847,1.1,-0.095921,-0.085916,-0.055585,-0.023532,-0.087303
0.1041,-0.45857,-0.054183,0.26655,0.16311,0.12575,0.12124,0.08349
0.040727,-0.15858,-0.15164,0.12821,-0.0038914,-0.02183,-0.0085227,-0.15479
0.10322,-0.24258,-0.36171,-0.25976,-0.015295,0.057253,0.095447,0.47241
-0.31492,0.46791,-0.61711,0.12719,0.059952,-0.026786,-0.1445,-0.40069
-0.10186,0.60382,0.30046,-0.14752,-0.12065,-0.038914,-0.01694,0.1257
-0.0058689,-0.71342,0.064698,-0.13792,-0.11079,-0.095894,-0.044803,-0.18958
0.45039,0.79932,0.71036,0.55477,0.25421,0.18526,0.14741,0.36485
-0.33507,-1.1555,-0.61761,-0.63198,-0.21299,-0.14866,-0.12739,-0.27366
0.17519,0.70842,0.89005,0.29358,0.11225,0.019244,0.006065,0.034743
0.0097398,-0.26201,-1.0355,-0.044306,0.033814,0.063458,0.063391,0.16391
0.15744,0.44344,0.71183,0.36892,0.06611,0.053641,0.0677,-0.028105
-0.3539,-0.87611,-0.19087,-0.36636,-0.14384,-0.089073,-0.051967,-0.15181
-0.13662,0.21185,-0.3237,-0.12626,-0.011497,-0.021674,-0.06994,0.034291
0.40883,0.64873,0.3355,0.26021,0.094787,0.044251,0.083101,0.10824
-0.14019,0.2446,-0.80817,-0.23876,-0.060097,-0.0089609,-0.031259,-0.23407
-0.095656,-0.61062,0.14152,0.20473,-0.015407,-0.025307,-0.015245,-0.030619
0.044075,-0.19713,0.21105,-0.15147,-0.0051668,0.02647,-0.009756,0.25119
-0.062368,-0.2311,0.16497,-0.10409,-0.020743,-0.0096279,0.02445,0.018867
-0.060786,0.12707,0.2471,0.13611,0.095253,0.023124,-0.037006,-0.14076
0.11375,0.24076,0.27424,0.28025,-0.03872,-0.015252,-0.0056617,0.10863
0.36934,0.46522,0.52025,0.28178,0.047317,0.047886,0.072758,0.032479
-0.074126,0.39694,-0.48474,-0.45232,-0.020599,-0.044456,-0.042787,0.013044
-0.3412,-0.84523,-0.66221,-0.31129,-0.093281,-0.072738,-0.023214,-0.16915
-0.10378,-0.17471,-0.39009,0.035103,0.056242,0.034025,0.030537,-0.030386
0.051966,-0.20096,0.015103,-0.16047,-0.064173,-0.028401,-0.0063403,0.038314
0.28199,0.638,0.62729,0.54223,0.15455,0.14638,0.069034,0.15402
-0.24212,-0.54153,0.089927,-0.081277,0.0008378,0.011311,-0.033031,-0.15191
0.26838,0.39981,0.004796,0.016648,-0.041797,-0.035721,0.006882,0.03472
-0.40579,-0.094386,-0.59416,-0.35252,-0.25566,-0.20645,-0.14818,-0.14547
0.15643,0.55971,0.17802,0.40204,0.14716,0.068453,0.039838,0.25248
0.2038,-0.10895,0.49976,0.33058,0.19676,0.15516,0.12475,-0.061215
-0.0074554,-0.68055,-0.01861,-0.62692,-0.10793,-0.04885,-0.019115,0.22491
-0.11974,-0.305,0.1326,0.14935,0.021251,-0.013122,-0.032817,-0.23404
0.029298,0.54839,-0.77043,-0.1573,-0.017834,0.01964,0.013185,-0.079611
-0.10847,-0.2606,0.31604,0.021128,-0.084689,-0.075723,-0.037212,0.00028183
0.34146,0.90204,0.6584,0.5049,0.14922,0.091663,0.050814,0.060612
-0.28448,-0.15718,-0.45482,-0.45365,-0.13549,-0.063488,-0.01891,-0.069493
-0.27387,-0.7955,0.26649,-0.17833,-0.093658,-0.079264,-0.081431,-0.01348
0.086483,-0.22933,-0.32875,-0.015011,0.034146,0.014242,-0.0029794,0.0038815
0.25235,0.53586,-0.065373,0.54244,0.19485,0.14787,0.12359,0.21864
0.15593,0.39288,-0.69908,-0.22687,-0.0086502,0.0022639,-0.0057331,-0.063248
-0.10712,-0.19553,0.53604,0.13453,0.018246,-0.015698,0.0078974,0.010417
-0.15303,0.03759,0.24592,-0.27716,-0.18511,-0.14018,-0.1089,-0.083785
0.13533,-0.28204,-0.66529,0.053967,0.099762,0.09737,0.088913,-0.10419
-0.10246,-0.076274,0.61897,-0.045826,-0.057514,-0.053608,-0.086676,0.10456
0.022504,-0.15068,0.27825,0.38074,0.076441,0.077942,0.074576,-0.0054431
0.008062,-0.19475,0.26754,-0.25725,-0.04638,-0.040189,-0.0062171,0.010063
-0.13238,0.67096,0.074849,-0.24664,-0.059926,-0.033971,-0.064164,-0.0060688
0.15384,0.10577,-0.63711,0.28982,0.14415,0.11139,0.11106,0.039238
0.068326,-0.083557,-0.49761,-0.097982,-0.083396,-0.065629,-0.051258,-0.073156
0.047667,0.44862,0.64485,0.18015,0.092825,0.05195,0.026856,0.078534
-0.19733,-0.50575,-0.47027,-0.29953,-0.14772,-0.14507,-0.091951,-0.083622
0.021483,-0.28536,0.6737,0.19735,0.038842,0.031345,0.022424,0.0033042
0.096052,-0.11646,-0.28447,0.032026,0.051355,0.042936,0.042467,0.14458
-0.39373,-0.68304,-0.40406,-0.073286,-0.070473,-0.046938,-0.062373,-0.14355
0.31961,0.57573,0.15857,-0.27019,0.025686,0.074962,0.091367,-0.055863
0.10488,0.65957,0.26584,0.35278,0.098419,0.049708,-0.0036385,0.13457
0.025612,0.59164,0.43006,-0.11334,-0.07035,-0.0445,-0.03465,-0.11126
0.12901,-0.60612,-0.9385,0.062306,0.019877,0.042056,0.037357,0.19857
-0.38211,-0.3356,0.15404,-0.17207,-0.15406,-0.13646,-0.12384,-0.25681
0.10869,-0.21956,0.36963,0.21594,0.15789,0.099042,0.11409,0.21713
-0.12601,-0.14054,0.068578,0.10844,-0.0053698,-0.056629,-0.046289,-0.13037
0.28025,0.48604,-0.46409,-0.22351,0.035501,0.068132,0.081961,0.12978
-0.024437,-0.00647,0.95064,0.10705,0.0066271,-0.011028,-0.01724,0.12243
-0.15716,0.23779,-0.8472,-0.25578,-0.19402,-0.161,-0.10978,-0.34733
-0.10175,-0.50395,0.41091,0.035127,0.03471,0.087456,0.023064,0.11992
0.23636,0.67829,0.47108,0.28057,0.13001,0.062981,0.045572,-0.28691
-0.0091196,-0.2193,-0.58163,0.11051,0.076098,0.055064,0.012835,0.34769
-0.21248,-0.83273,-0.89987,-0.14057,-0.056719,-0.022013,-0.043392,-0.10023
0.13435,-0.078606,-0.1313,-0.37098,-0.096404,-0.027656,0.064885,0.041462
0.046599,0.55666,0.92474,0.045968,-0.073905,-0.071484,-0.052577,0.17818
-0.0080692,0.39941,0.37848,0.47258,0.1518,0.06487,0.002843,-0.08262
-0.0079202,0.24489,-0.18162,-0.45466,-0.11422,-0.1034,-0.050159,-0.063908
-0.033158,-0.46293,0.028355,0.080589,0.081451,0.11081,0.092809,0.1455
0.078185,0.18951,-0.021149,0.27694,0.059207,0.027496,0.040639,-0.08962
0.050975,-0.13267,0.3106,-0.10544,-0.07175,-0.064502,-0.066625,-0.33314
-0.037583,-0.37158,-0.27498,0.15329,0.09443,0.045657,0.043901,0.3447
-0.15613,-0.060776,-1.0316,-0.087675,-0.028734,-0.0092165,-0.057881,-0.23425
-0.19412,0.064906,0.23789,-0.48582,-0.23868,-0.18998,-0.1534,-0.051637
0.14736,-0.174,0.087114,0.37871,0.17507,0.19096,0.15586,0.17714
0.081753,0.27658,0.52709,-0.019897,0.0013104,0.0087394,0.034259,0.15069
0.22872,0.56988,0.52582,0.14402,0.060325,0.029049,0.013483,-0.026793
-0.12068,-0.44126,-0.46802,-0.21767,-0.077353,-0.060531,-0.030958,-0.033432
0.12854,0.43577,0.35891,0.29183,0.10436,0.052618,0.049888,-0.0016985
-0.25757,-0.31297,-0.118,-0.20337,-0.089204,-0.053154,-0.055983,-0.08077
-0.013656,-0.14123,-0.2243,-0.12517,-0.03223,-0.033713,-0.043415,-0.069023
-0.031068,-0.081438,-0.47622,0.0038339,-0.028554,-0.044775,-0.029177,0.0082515
0.11109,0.34286,0.45249,0.15395,0.02416,0.01583,0.026117,0.055499
0.12275,-0.50657,-0.34694,0.0067675,0.063954,0.093962,0.083569,0.16504
-0.1455,0.024348,-0.26908,-0.092056,0.0050575,0.0024552,-0.013139,0.015743
0.0086135,0.42114,0.39737,0.077693,0.019049,0.014736,0.0012774,-0.19723
-0.017229,-0.20298,-0.29906,-0.21765,-0.10577,-0.10398,-0.061289,-0.10622
-0.21595,-0.67854,0.38349,0.29514,0.02009,0.012714,0.0014649,-0.14006
0.43514,0.98441,0.3773,0.083663,0.16873,0.16067,0.087047,0.26464
-0.025766,-0.092467,0.076677,-0.010194,-0.0048891,-0.044036,-0.02421,0.069318
-0.33395,-0.23483,-0.69363,-0.48864,-0.244,-0.14925,-0.090894,0.13318
0.19716,0.36989,0.5805,0.29466,0.060216,0.024048,0.034909,-0.13066
-0.0035083,-0.13189,0.33161,-0.013402,-0.045386,-0.016583,0.0092515,0.026201
-0.061398,-0.18102,-0.2893,0.29746,0.1663,0.10406,0.043232,-0.04648
0.031381,-0.26546,-0.70638,-0.42071,-0.069396,-0.027474,-0.011077,0.040392
0.18962,0.33071,0.34925,0.34152,0.12376,0.066262,0.034632,-0.13582
-0.27275,-0.34684,-0.27643,-0.38198,-0.18263,-0.13713,-0.10768,-0.06699
0.13076,0.39016,0.21419,0.18545,0.098535,0.089925,0.039673,-0.095453
-0.14413,-0.11963,-0.73631,-0.17945,-0.094335,-0.087629,-0.030057,0.28109
-0.079064,-0.29381,0.19072,-0.052075,0.0049177,0.026103,0.012113,0.057536
0.14096,0.56028,0.27225,0.48319,0.10733,0.056335,0.049489,-0.083814
0.22086,0.041687,0.68564,-0.081464,-0.014034,-0.0049409,0.011787,-0.0081616
-0.28394,-0.55588,0.60048,-0.075845,-0.047422,-0.0020544,-0.015513,-0.13638
0.14172,-0.0025494,-0.212,-0.15928,0.029563,0.017266,0.013602,0.14857
0.26183,0.36715,0.060533,0.20338,0.051715,0.02862,0.04334,0.009434
-0.43389,-0.22889,-0.88911,-0.12469,-0.083579,-0.086064,-0.075866,-0.063848
0.075049,0.13582,-0.63987,-0.1078,-0.08804,-0.10085,-0.079324,0.11341
-0.018886,0.11219,0.42977,-0.013716,0.045751,0.11682,0.071464,-0.094545
0.17257,-0.12699,0.33928,0.18825,0.16941,0.10618,0.048261,0.012901
-0.12557,0.12945,-0.51694,-0.11804,-0.13065,-0.1166,-0.070473,0.02781
0.04707,-0.14907,0.019767,0.054243,0.044828,0.027465,0.044068,0.027765
0.089322,0.28185,0.47925,0.22408,0.040655,0.015918,0.017753,-0.24436
-0.29453,-0.44031,0.13454,-0.62047,-0.22018,-0.15808,-0.10948,-0.028966
0.12371,0.1999,0.33496,0.24274,0.10709,0.13907,0.10839,0.55142
-0.03709,-0.33376,0.2618,0.26145,0.062242,0.017163,-0.00013263,-0.68021
0.30257,0.2686,-1.0962,0.069599,0.051768,0.023026,-0.0053406,0.45816
-0.36437,-0.3458,-0.27089,-0.1848,-0.11213,-0.070439,-0.048236,-0.25855
0.29799,0.41561,0.5216,0.027697,0.038463,0.02487,0.026757,0.16224
0.054564,0.073942,0.39036,0.13399,0.12727,0.1046,0.093805,0.30568
-0.2364,0.38262,0.13836,-0.26756,-0.13626,-0.11377,-0.090097,-0.27521
-0.013586,-0.43081,-0.47016,-0.00020107,0.012084,-0.029758,-0.049022,-0.066958
0.026869,-0.27387,-0.12984,0.074477,-0.069428,-0.026897,0.021395,-0.056013
0.017608,0.24119,0.67121,0.12725,0.095182,0.074287,-0.0038032,-0.10331
0.092069,0.11083,-0.30096,0.048828,0.052828,0.063142,0.078892,0.024793
-0.068693,-0.082389,-1.034,-0.3081,-0.10992,-0.098685,-0.065829,0.38314
-0.22062,-0.36441,0.22183,-0.10579,-0.10291,-0.058659,-0.030993,-0.41016
0.25546,0.42759,0.28825,0.22028,0.12204,0.074882,0.043441,0.1932
-0.052831,-0.27671,0.54871,-0.046935,-0.051005,-0.033105,-0.0061232,0.12457
-0.066437,0.26578,0.94666,0.40607,0.11326,0.086733,0.039254,-0.23942
0.20676,-0.36555,-0.89869,-0.02212,0.11532,0.067431,0.038842,0.21983
-0.12502,0.010024,-0.92726,-0.36334,-0.13079,-0.07551,-0.046757,-0.12159
-0.032617,0.40844,-0.083013,-0.095128,-0.086386,-0.076823,-0.06174,-0.16926
0.24695,0.24316,1.2261,0.21914,0.052674,0.024011,0.048161,0.25679
-0.26556,-0.21366,-0.26076,0.032229,0.012489,0.015739,-0.014194,-0.1796
0.091784,-0.033884,0.10964,-0.10863,0.042856,0.031075,0.0011519,0.036537
-0.18217,-0.53104,-0.2572,-0.10075,-0.16858,-0.11734,-0.054057,0.068158
0.12361,0.10747,0.14155,-0.0050581,0.04268,0.055209,0.054904,0.20287
0.018302,0.66448,-0.34277,0.023845,0.06785,0.041292,0.023761,-0.24847
-0.12854,-0.66941,-0.54924,0.11214,-0.022246,0.0052814,-0.0064967,-0.13123
0.092227,0.57866,0.53102,0.088238,0.061678,0.0097725,0.0034145,0.26415
0.14442,-0.37596,-0.020268,0.21699,0.077232,0.015513,0.0066402,-0.032024
-0.22748,-0.71709,-0.18353,-0.48779,-0.14031,-0.040467,-0.036071,-0.24671
0.21221,0.88536,1.0042,0.23708,-0.0060145,-0.049463,-0.031339,0.21398
0.072926,0.14957,-0.70867,0.060902,0.16643,0.16746,0.12972,0.11628
-0.39652,-0.31852,-0.031735,-0.22153,-0.24908,-0.21071,-0.17845,-0.55456
0.1845,0.21732,0.55524,0.23241,0.12165,0.088964,0.090494,0.43681
0.11,0.13231,-0.23599,-0.31154,-0.042035,-0.027525,0.01424,0.1616
0.13481,0.20796,-0.40665,0.14012,0.088169,0.057068,0.029999,-0.098211
-0.17336,-0.3819,-0.33317,-0.23072,-0.096455,0.0071483,0.012701,0.017351
0.13686,0.078927,0.98475,0.63322,0.17854,0.088916,0.025035,-0.077111
-0.48979,-0.99389,-0.76201,-0.64071,-0.32003,-0.27504,-0.2138,-0.24819
0.12704,0.15531,0.77755,0.33185,0.14327,0.10352,0.054642,-0.057717
0.33275,0.84758,-0.57291,0.098159,0.1083,0.08457,0.088912,0.35435
-0.37822,-0.73569,-0.7522,-0.35831,-0.17466,-0.15965,-0.11035,-0.14436
0.30104,0.81219,0.74806,0.60892,0.19255,0.199,0.20723,0.17278
0.10668,0.22294,-0.11046,-0.47931,0.037257,0.058597,-0.020773,0.016217
-0.16343,-0.58058,0.34327,-0.094375,-0.079116,-0.065839,-0.044661,-0.052531
0.17059,0.6798,0.63675,0.48048,0.029851,-0.073443,-0.044635,-0.19104
-0.11821,-0.65051,-0.96394,-0.49003,-0.1366,-0.02728,0.0021735,0.083656
0.00087055,0.53036,0.56943,0.23678,0.02291,-0.013543,-0.021861,-0.042169
-0.23034,-0.82359,-0.8861,-0.21229,-0.084908,-0.016469,-0.023165,0.0009711
0.078878,0.22805,0.13879,-0.13131,0.0018988,-0.012135,-0.0094237,0.17371
0.1088,-0.26991,0.35543,0.50634,0.31589,0.20327,0.1213,0.03877
-0.18656,-0.44178,0.51529,-0.28082,-0.26668,-0.18987,-0.11488,-0.16873
0.20141,1.0041,-0.40924,0.11855,0.098824,0.082347,0.055952,-0.2524
-0.055087,-0.030693,0.41647,0.095698,0.022071,0.012261,0.024692,0.39061
0.051337,0.47228,-1.2323,-0.42052,-0.16139,-0.10349,-0.075823,-0.2229
0.1444,-0.39948,0.30531,0.60684,0.27401,0.1642,0.11352,0.19706
-0.012242,0.22162,0.24696,-0.22364,-0.055887,-0.021359,-0.040567,-0.028778
-0.069278,-0.46939,-0.18135,-0.37612,-0.16034,-0.082796,-0.030868,-0.056816
-0.18502,-0.39475,0.62058,0.20904,0.0063129,-0.012862,0.0014484,-0.028345
-0.064001,-0.18719,0.086814,0.17832,0.013685,-0.030529,-0.022112,-0.030361
0.043304,0.3492,-0.10917,-0.10961,0.017931,0.012816,0.0077243,0.3187
0.16083,0.55113,0.22683,-0.0056581,0.05083,0.086448,0.044277,-0.43548
-0.022648,0.044108,-0.51002,-0.10945,-0.05068,-0.058889,-0.068265,0.10451
-0.044484,-0.12526,-0.84763,0.10528,0.0037184,0.0072728,0.030054,-0.015088
-0.02011,-0.34089,0.5139,-0.10038,-0.019108,-0.034746,-0.027371,-0.0055184
0.036333,0.16889,0.55453,0.065702,0.022452,0.041957,0.033341,0.21143
0.13367,-0.050922,0.2862,0.0042782,0.043019,0.049858,0.071772,0.12054
0.038044,0.28728,-0.5672,-0.017926,0.050456,0.027657,-0.037153,-0.23054
