-0.38195,-0.048981,-0.1274,-0.14433,-0.032141,-0.072031,-0.23504,-0.055615
-0.013206,-0.23986,0.10191,0.27606,0.02519,-0.029496,-0.0049112,-0.12102
0.50374,0.13948,-0.2435,0.015209,0.01961,0.018889,-0.20768,0.10916
-0.6074,-0.24534,0.32209,-0.1076,-0.02587,0.0025286,0.36718,0.29081
0.17565,0.40282,0.050939,0.079279,0.060342,0.054359,-0.10799,0.041317
-0.30428,0.26244,0.3993,-0.486,-0.096822,-0.08292,-0.20215,-0.56836
0.19268,-0.31756,-0.9259,0.12769,-0.044056,-0.041309,-0.093063,-0.052871
0.57543,0.33108,0.16532,0.19557,0.10967,0.12547,0.21356,0.25289
0.5149,-0.084487,-0.11239,0.18018,0.021147,-0.011336,-0.022748,0.13873
-0.50901,-0.5127,0.04817,-0.11293,-0.059029,-0.044725,0.10514,0.26109
-0.66752,0.18528,0.54603,-0.051122,0.0024515,0.002286,0.15949,-0.18517
0.24984,-0.58448,0.019873,-0.065364,-0.11442,-0.096837,-0.36888,-0.22451
0.079045,0.71832,-0.1911,0.44385,0.11381,0.11067,0.20538,-0.014428
0.41578,0.1113,-0.02327,0.13832,0.21033,0.20224,0.15332,0.24087
-0.65712,0.065164,-0.078256,-0.60099,-0.16913,-0.14328,0.051046,0.2049
-0.50699,-0.34081,0.22212,-0.32185,-0.033041,-0.11426,-0.46973,-0.69252
0.81384,-0.16929,-0.4566,0.030643,-0.092997,-0.047319,-0.057308,0.12759
-0.42499,0.49227,0.30359,0.027905,-0.0057957,-0.052286,-0.077622,-0.075763
1.0858,-0.36653,-0.26373,0.54637,0.095396,0.10502,0.28382,0.44862
0.06164,0.45448,-0.085846,0.27466,0.10106,0.13551,0.08376,0.092042
-0.99363,0.023237,0.56105,-0.49784,-0.10595,0.015818,0.30025,0.081008
0.17324,-0.1377,-0.21454,0.47837,0.037106,-0.082086,-0.19905,-0.35877
-0.37251,-0.60503,-0.11591,-0.49303,-0.031893,-0.040866,-0.13346,-0.095878
0.34803,0.22673,-0.034164,0.20419,-0.031143,0.022563,0.011233,-0.022447
0.016415,0.33249,0.16942,-0.81303,0.14943,0.038369,0.038036,0.2978
0.14937,-0.86638,-0.47012,0.60455,-0.24719,-0.14116,-0.077938,-0.10447
-0.16724,0.4653,0.67338,-0.0098366,0.17829,0.10992,0.0062957,0.05218
0.080792,0.77028,-0.11248,0.72169,-0.026515,-0.058944,-0.23258,-0.30161
0.085961,-0.65239,-0.27671,-0.79901,-0.18922,-0.06872,0.22979,0.093487
0.19599,0.71149,0.45672,-0.029471,0.27625,0.20616,0.11363,0.23926
-0.5465,-0.58045,-0.57413,-0.11518,-0.14606,-0.11708,-0.11073,-0.27668
0.85468,0.027025,0.20368,0.69584,0.027407,0.07041,0.18301,0.45314
-0.55626,0.31475,0.42697,0.021426,0.17824,0.064417,-0.22318,-0.20352
-0.40521,-0.38112,-0.63272,-1.1394,-0.077803,-0.074002,0.076973,-0.16871
0.0197,-0.53502,-0.35812,0.36694,-0.24211,-0.14326,-0.057826,-0.11512
0.21309,0.67034,0.4087,0.17666,0.14517,0.13654,0.16813,0.30746
-0.095346,-0.82785,0.35786,1.0263,0.020941,-0.079274,-0.10596,-0.19948
0.17541,0.7926,-0.14849,-0.30897,-0.15384,-0.064506,-0.21742,-0.036111
0.69128,0.51934,0.40753,-0.36634,0.25422,0.27485,0.34046,0.4132
-0.66445,-0.042264,-0.14444,-0.8376,-0.0116,-0.13074,-0.13606,-0.21206
0.72464,-0.5291,-0.59275,0.079874,-0.16085,-0.061301,0.0014378,-0.07638
-0.88506,-0.62539,0.16435,0.56643,-0.012346,-0.031039,-0.012094,0.015962
-0.2058,0.73405,0.064367,0.52368,0.075964,0.008356,-0.08183,-0.23842
0.39467,-0.46447,-0.14271,-0.64492,0.01925,0.058096,0.13736,0.18591
-0.57542,0.4755,0.34783,0.23851,0.044708,0.064281,-0.11873,-0.099326
0.79138,0.24172,-0.010897,-0.046585,-0.1992,-0.090053,0.12769,0.20493
-0.26125,-0.34615,-0.23467,-0.29982,0.14628,-0.0068467,-0.15391,-0.17322
0.30689,-0.20349,0.19172,0.23227,-0.02945,0.086431,0.11476,0.28242
-0.41786,0.12888,-0.24019,-0.12092,0.053194,-0.061486,0.026927,-0.12399
0.68897,0.12575,0.21883,0.38167,0.095491,0.07927,0.11282,0.1452
-0.65515,-0.011285,-0.041352,-0.14619,-0.083961,-0.023788,-0.089857,-0.1776
0.22783,0.24025,0.50222,-0.12383,-0.0020399,-0.12152,-0.15279,-0.024024
-0.48393,-0.6981,-0.93178,-0.5107,-0.18272,-0.018976,-0.030267,-0.20817
0.31781,0.28329,0.28993,0.91344,0.038361,0.041838,0.034779,0.065894
0.093444,-0.072777,0.074517,0.17463,0.0059859,0.01464,0.081118,0.040047
-0.36801,0.2344,-0.22537,-0.51921,0.042021,0.056513,-0.016132,-0.0043196
1.0353,0.45527,0.52404,-0.043145,0.17163,0.058953,0.11845,0.41748
-0.95412,-0.87106,-0.42682,-0.60489,-0.048948,-0.063242,-0.045749,-0.20209
0.17986,0.57541,0.57021,0.64546,0.014261,0.010758,-0.023614,-0.058204
0.22665,-0.26834,-0.50929,-0.3309,-0.1225,-0.046893,-0.025226,-0.033608
-0.16493,0.058272,0.16134,0.068279,-0.013803,-0.025173,-0.10435,-0.15156
0.23208,0.25848,0.18208,0.88146,-0.011573,0.044609,0.044622,0.088358
-0.51944,-0.19821,-0.5109,-1.1212,0.071006,-0.033015,0.03191,0.0071933
-0.27082,-0.68532,-0.051241,0.6001,-0.024794,-0.00045755,-0.0012648,0.01999
1.0092,0.75218,0.67798,0.22997,0.035934,0.079499,0.093756,0.018453
-0.39862,0.0068912,-0.31524,-0.23791,-0.02127,-0.035664,-0.081709,0.034806
0.49719,-0.34154,-0.25713,-0.022831,-0.0097878,-0.025981,0.010691,0.038495
-0.656,0.29339,-0.10841,-0.17276,0.085407,0.014472,0.049564,-0.032679
-0.48418,-0.37799,0.36513,-0.17989,-0.02493,-0.031733,-0.036678,-0.15541
0.42606,0.97842,0.10829,0.075329,-0.074859,0.069688,-0.038335,0.099488
0.98877,-0.45254,0.72195,0.63761,-0.0245,0.021961,-0.05014,0.0046297
-0.60779,-0.2208,-0.849,-0.61671,0.025789,-0.033977,0.21642,0.19967
-0.7684,-0.36826,-0.2838,0.074775,-0.05544,-0.11326,-0.1918,-0.23829
0.69651,-0.022125,-0.096491,-0.44497,0.092404,-0.0043786,0.014763,0.017985
-0.77328,-0.097946,-0.1436,0.84023,-0.13151,0.04318,-0.045799,-0.063462
0.9024,1.044,0.75037,-0.46749,0.14779,0.060948,0.049518,0.032556
-0.3767,-0.26067,-0.19998,0.55318,-0.0080674,0.05666,0.028383,0.079307
0.65534,-0.56698,-0.077746,-0.52231,0.071126,-0.071739,0.047911,0.045628
-0.59595,0.35966,0.50907,0.24602,0.078561,0.073352,0.030442,0.072474
0.46958,-0.15183,-0.65871,-0.32964,-0.11288,-0.024693,-0.047447,-0.050517
-0.61837,0.54108,0.38548,0.62274,-0.067277,-0.015231,-0.084575,-0.1819
-0.11091,-0.76139,-0.74462,-0.63644,-0.1212,-0.094172,0.0981,0.038741
0.17126,0.63317,0.9234,-0.30935,0.10092,0.03525,-0.070478,-0.02811
0.3614,-0.81591,-0.33335,0.73671,-0.17272,-0.0953,-0.036301,-0.084579
-0.38333,0.15592,-0.065241,-0.55334,0.1462,0.093136,0.067315,0.23715
0.031701,0.070406,0.030079,1.1488,0.04462,0.054736,0.0448,0.038707
0.48173,0.51762,0.0064121,-0.51463,0.11846,0.032707,-0.010094,0.03822
-0.72158,-0.89221,-0.30749,-0.43797,-0.013724,-0.042487,-0.065883,-0.11705
0.53684,0.71276,0.12937,-0.14517,-0.054744,-0.014181,-0.044028,-0.092688
0.027094,0.82535,0.36672,0.085589,0.02601,0.047346,0.12629,0.18792
-0.4424,-0.84599,0.11096,0.37015,-0.12434,-0.084741,-0.10912,-0.26859
0.84295,-0.070819,-0.28313,0.076878,0.094172,0.081307,0.047034,0.068396
-0.49528,0.16331,-0.41437,-0.69813,-0.022985,-0.087789,0.094974,0.12858
-0.42774,-0.29243,0.18798,-0.1015,-0.047064,0.0091541,-0.090278,-0.079647
0.12373,0.034651,0.50931,0.88983,-0.048677,0.051589,0.0067231,0.069711
-0.29184,-0.56528,-0.52851,-0.47027,0.042788,-0.054334,-0.028435,-0.078456
1.017,0.5306,0.66736,0.89592,-0.0063549,0.035116,-0.039954,0.078487
-0.19468,0.065507,-0.58437,-0.93801,0.070285,-0.0082115,0.05761,-0.1149
-0.56195,0.25272,0.29252,0.51231,-0.047086,-0.012555,0.021604,0.10746
-0.1655,-0.17172,-0.24294,-0.33296,0.10249,0.037464,0.14072,0.050342
0.78802,-0.16164,-0.3955,-0.41295,-0.083151,-0.014773,-0.17901,-0.020856
-0.54994,0.39605,0.77104,0.6397,0.051111,0.095931,-0.015696,-0.090877
0.40024,-0.46731,-0.65843,-0.46871,-0.027458,-0.10735,-0.056611,-0.0038389
-0.28329,0.33122,0.58064,0.3469,0.0077625,0.00021736,0.026803,-0.025604
0.31235,0.36486,0.04958,-0.012155,-0.0084799,0.035944,0.17258,0.070344
-0.088314,-0.22326,-0.41703,-0.23511,-0.068963,-0.085641,-0.071869,0.010693
-0.64412,-0.72639,-0.2893,0.045631,-0.040697,-0.027859,-0.026462,-0.12622
0.2436,0.58012,1.0021,-0.043726,0.11634,0.061729,-0.019111,0.2223
-0.029813,-0.12321,-0.13692,0.32547,-0.01814,0.043308,-0.042022,-0.18588
0.5323,-0.80188,-0.28356,0.16734,-0.0046611,0.042423,0.084261,0.11784
-0.011064,0.34549,-0.96689,-1.1399,-0.059963,-0.057973,0.015594,-0.03881
-0.17115,0.83099,0.4727,0.80957,0.012996,-0.0003742,-0.0532,-0.02357
-0.19303,-0.36638,0.46896,0.066295,0.027897,-0.051093,-0.075732,-0.024603
0.29663,0.50292,0.096172,0.5841,0.18052,0.17178,0.16635,0.082446
0.43077,0.044554,0.052683,-0.29439,-0.16219,-0.074875,-0.038085,0.062688
-1.0227,-0.74792,-0.41784,-0.46111,0.03797,-0.065203,-0.024943,-0.1701
-0.22359,-0.40592,-0.1595,-0.12684,-0.18899,-0.14332,-0.098595,-0.076888
0.23224,0.50004,0.38032,-0.41358,0.22591,0.12834,0.030581,0.11601
0.4365,0.4009,0.58895,0.81022,-0.03104,0.086153,0.08204,0.11213
0.36251,0.16778,-0.62326,-0.19537,-0.046631,-0.003554,-0.037247,0.013558
-0.7766,-0.77003,-0.095573,0.35602,-0.086923,-0.0071969,0.063926,-0.15579
0.59642,-0.073281,-0.36149,-0.98192,0.051203,-0.15848,-0.12195,-0.051765
0.10276,0.78037,0.25795,0.6574,0.00087937,0.050838,0.014414,0.075858
0.30689,-0.31713,0.52123,0.33509,0.082906,0.12085,0.066307,0.070894
-0.6571,-0.83217,-0.67154,-0.48326,0.063383,-0.0033821,0.025095,0.042642
-0.77133,0.36187,0.080025,0.50946,-0.25269,-0.025496,-0.016498,-0.032478
0.80463,0.36581,0.30863,-0.49134,0.26756,0.077312,0.026437,-0.06862
-0.031052,0.089304,-0.016524,0.0046992,-0.25108,-0.16427,-0.034403,-0.073522
0.576,0.71128,0.27566,0.10377,0.1909,0.038497,0.050615,0.15627
-0.98616,-0.12434,0.097462,0.47387,-0.063379,-0.025287,-0.18706,-0.081795
-0.10949,-0.91671,-0.65489,-0.95927,-0.038012,-0.034933,0.065808,0.025557
0.59514,0.50619,0.1495,0.11325,0.047694,0.064861,-0.049002,-0.083387
-0.14104,-0.71385,0.017488,0.64148,0.037204,0.016963,0.040094,-0.087705
0.53551,-0.19061,-0.39435,-0.41608,-0.061553,0.032867,0.14669,0.25502
-0.3374,0.44127,0.34526,0.27469,0.16607,0.065996,0.013623,-0.00083362
-0.13118,-0.13821,0.44977,0.28294,-0.16949,-0.063354,-0.030918,-0.059229
0.2728,0.96309,-0.12485,-0.11826,-0.18404,-0.027354,-0.065568,0.062902
-0.36693,-0.36253,-0.37591,-0.7487,0.030136,-0.092122,-0.028765,-0.1516
0.162,-0.0045695,0.12058,0.010351,0.18521,0.007375,0.054914,0.037957
-0.20726,-0.42365,-0.11067,0.55979,0.0083682,0.043964,-0.19846,-0.096197
0.078478,0.17681,0.024502,-0.27699,0.101,0.024881,0.13992,0.062397
0.10683,0.25733,0.62733,0.8081,0.032341,0.16837,0.15543,0.19326
-0.00057925,-0.82278,-0.25616,-0.65039,-0.097788,-0.11968,-0.1052,-0.10947
-0.21398,0.72619,-0.68177,-0.31351,-0.18211,-0.089458,0.038034,-0.040256
-0.1592,-0.1881,0.48226,0.415,0.15237,0.016922,-0.05479,-0.043201
0.46695,-0.30582,-0.37436,-0.28319,-0.080222,-0.02675,-0.031056,0.03929
-0.12015,0.9378,0.48194,0.52296,-0.075966,0.053556,-0.10045,-0.096181
0.35474,-0.65834,-0.090313,-0.17381,0.094925,0.00075171,0.074216,0.10609
-0.37506,-0.3975,-0.4985,-0.66291,0.10521,-0.012566,0.048603,0.021667
-0.15682,0.38487,0.69336,0.2339,0.089172,0.068864,0.088829,0.088097
0.76214,0.35998,0.1788,0.74834,-0.17008,-0.09058,-0.11774,-0.14819
-0.68628,-0.60676,-0.52056,-0.68598,-0.10809,0.048186,0.10001,0.15582
-0.21791,0.9195,0.46887,0.57442,0.05033,0.039597,-0.02476,-0.11007
0.53891,-0.50183,-0.68159,-0.68702,-0.013776,-0.030851,0.06904,0.014508
-0.87026,-0.5299,-0.27614,0.30531,0.075291,-0.023036,-0.088589,-0.11908
0.76622,-0.088671,0.50699,0.070009,0.12216,-0.062402,-0.14689,0.051977
0.044305,0.78982,-0.15824,0.017907,-0.10053,0.092955,0.15957,0.090854
0.068645,0.52047,0.77724,0.50753,0.12461,-0.033594,-0.21568,-0.22037
-0.41538,-0.74574,-0.25504,-0.81847,-0.15711,-0.035654,0.11878,0.22053
-0.28791,-0.42671,-0.36325,0.35738,0.0059324,0.048027,0.046683,-0.14877
0.95284,-0.2675,0.1251,-0.43403,-0.004467,0.038166,0.076518,0.23379
-0.26273,0.33844,-0.48517,-0.27764,-0.13404,-0.025754,0.052273,0.038964
-0.26297,0.51229,0.30577,0.13207,0.086188,-0.041817,-0.065376,-0.11765
0.060616,0.23256,0.25542,0.51276,0.047514,-0.0097931,0.16825,-0.01896
0.066259,-0.14211,-0.24599,0.3991,0.047692,0.015689,-0.34135,-0.12727
-0.52061,-0.49814,0.3714,-0.061028,-0.0062354,0.042311,-0.024441,0.0020558
0.36936,-0.31805,-0.19747,0.31558,0.042476,-0.031803,0.10317,0.1036
0.14166,1.0704,0.12536,-0.69661,-0.0091882,0.066327,0.049584,-0.0012491
-0.1107,-0.26209,-0.25365,-0.042659,-0.16927,-0.062269,-0.051712,-0.13888
0.041199,-0.61118,-0.17769,-0.49475,0.14775,-0.050915,0.12051,0.16935
0.52628,0.46426,-0.23181,-0.14312,0.011735,0.045304,-0.018727,0.026993
-0.59361,-0.34169,0.63949,0.89353,-0.030711,0.085556,-0.038936,-0.056559
-0.02187,-0.15984,-0.16496,-0.47753,-0.081161,-0.11763,0.0057547,0.052387
-0.15665,0.6866,0.30766,0.63709,0.040346,0.053216,-0.095348,-0.18517
0.15916,-0.15469,-0.037553,-0.10276,-0.064167,-0.03426,0.079556,0.13625
0.4268,-0.31635,-0.40555,-0.14668,0.07453,0.0033366,0.0066503,0.093324
-0.68841,-0.54073,0.15463,-0.093321,0.02703,0.025952,-0.0022087,-0.1518
-0.052888,0.69391,-0.49189,-0.26892,0.0041654,-0.067546,-0.080684,-0.054311
0.23177,0.17238,0.3876,-0.18842,-0.033715,0.058961,0.082753,0.17293
0.93803,0.57498,0.57331,0.46785,0.0060915,0.038147,0.041811,0.012906
-0.68573,-0.67867,-0.59139,-0.37235,0.12224,-0.0054336,0.061278,0.074329
-0.10208,-0.13986,0.20632,0.88946,-0.085094,-0.0099475,-0.1797,-0.33001
0.78198,-0.32977,-0.14205,0.030796,0.031442,0.055123,0.092197,0.12922
-1.0639,-0.17584,-0.28363,-0.81141,-0.16931,-0.15458,-0.11483,-0.069439
-0.44132,0.67671,0.36122,0.16474,0.094126,0.094973,0.10632,0.013896
0.60762,0.45936,-0.17479,-0.331,-0.083518,-0.055525,0.022493,0.24092
0.073009,-0.18021,0.47668,0.52252,0.041543,0.019361,-0.083753,-0.1522
-0.43853,-0.50603,-0.62897,-0.33444,0.11185,0.0078704,-0.031554,-0.047378
0.53681,-0.07678,0.57112,0.086622,-0.081623,-0.065688,-0.038906,0.016119
0.22514,-0.027561,-0.27444,-0.1315,0.048599,0.12763,0.16777,0.123
0.46608,-0.016235,0.27995,0.64048,0.042571,0.033699,0.1348,0.11499
-0.7944,-0.27946,-0.70246,-0.4927,-0.091569,-0.1363,-0.16237,-0.18995
0.8178,0.69394,0.57651,0.50182,0.10683,0.078396,0.016994,0.026295
-0.76809,-0.14286,-0.24855,-0.44632,-0.073926,-0.025837,-0.02387,-0.10508
-0.80029,0.23753,-0.23827,-0.33854,-0.11143,-0.0435,-0.098533,-0.13948
0.36711,0.09332,0.35878,0.44,0.17289,0.11049,0.011301,0.11078
0.2041,0.039812,-0.089861,0.027086,-0.1361,-0.080289,0.0011945,0.084117
0.4104,-0.27691,0.10212,0.13862,-0.0080831,0.00070026,0.12201,0.18808
0.26568,-0.41226,-0.30254,-0.86075,0.15768,-0.014112,-0.10155,-0.17756
-0.70003,0.042562,0.76219,0.79257,-0.1239,0.023616,0.04275,-0.035196
0.17508,0.17253,-0.013321,0.25342,0.021554,0.012501,0.024773,0.10016
0.66027,-0.51911,-0.26653,-0.26026,0.08568,-0.0080067,0.040462,0.017766
-0.71977,0.76325,-0.85227,-0.85809,-0.072561,-0.0061545,-0.027318,-0.032551
-0.098845,-0.39399,0.52524,0.8351,0.023209,-0.06736,-0.11659,-0.18393
0.47341,0.29866,-0.43744,-0.20367,0.013767,0.074451,0.06854,0.10232
-0.39744,0.14479,0.64576,0.080852,0.0090736,0.060226,0.042448,-0.033471
0.10486,-0.15598,0.021484,0.23619,-0.060129,-0.023906,0.046052,0.072578
0.50027,0.18708,0.038105,-0.17436,-0.059567,-0.013786,-0.01544,0.092251
-0.37754,0.10328,0.058862,0.16285,0.035901,-0.034335,-0.1192,-0.029146
-0.28704,-0.58076,-0.64031,-0.39888,0.017017,-0.046363,-0.0074474,-0.096228
-0.18808,0.18033,0.80867,0.20539,-0.036737,0.044098,0.023489,-0.030702
0.65631,-0.1141,-0.59479,-0.34943,0.14101,0.018596,0.068406,0.10521
-0.57839,-0.049418,-0.11019,-0.20079,-0.090396,-0.060062,-0.04323,-0.12561
0.84609,0.21194,0.8462,0.80249,0.11976,0.05054,0.033722,0.089773
-0.59015,-0.40619,-0.70431,-0.01777,-0.06596,0.014515,0.003591,0.040877
0.045167,0.45699,0.44774,-0.23211,-0.032239,0.042613,-0.0078054,-0.068817
0.33934,-0.018902,-0.39337,-0.23341,-0.046578,-0.045278,-0.031394,0.018709
-0.55148,0.20309,0.069979,0.36484,-0.024565,-0.038831,0.018567,-0.040306
-0.027218,-0.0218,-0.26207,-0.23189,-0.0061559,0.0065795,-0.0070152,0.019518
0.41712,0.12886,-0.035927,0.017199,0.18041,0.10593,0.086192,0.10395
-0.058259,-0.44494,0.38283,-0.0030012,-0.01109,-0.03812,-0.038881,-0.068903
-0.16105,-0.037965,0.24456,0.22645,-0.18871,-0.13677,-0.094272,-0.046689
0.10402,-0.45907,-0.59275,-0.12506,0.063327,0.013132,0.044116,-0.0098539
0.021806,0.59448,0.54741,0.22379,-0.19073,0.036797,-0.077443,0.0096944
0.33156,0.18561,0.34811,-0.5055,0.26151,0.083002,0.11891,0.10524
-0.28802,0.17636,-0.39852,-0.16719,-0.063537,0.04272,-0.0073818,-0.051529
-0.24174,-0.54603,-0.53223,-0.19991,0.13873,-0.075963,0.043973,0.00043402
0.29468,0.25063,0.031093,0.8254,-0.054512,-0.030684,-0.10935,0.0037542
-0.89932,-0.14631,0.53446,0.36049,-0.012077,-0.0010372,-0.005843,-0.1893
0.77717,-0.20758,-0.6202,-0.75401,0.006306,0.020857,0.050434,0.1409
-0.16891,0.33718,0.82264,0.65608,-0.032364,0.08197,0.067897,0.073392
0.1116,-0.071558,-0.96653,-0.95629,-0.10583,-0.10659,-0.046652,-0.062923
0.8324,0.25431,0.18228,0.15637,-0.081632,0.0022796,0.011939,0.19342
-1.0069,-0.695,0.4295,0.31797,0.11885,-0.067693,-0.1388,-0.29801
0.33235,0.88866,0.19845,0.42164,0.020209,0.12123,0.0013119,0.056391
-0.25707,-0.46182,0.01111,-0.67886,0.045805,-0.016783,0.14318,0.068678
0.18671,-0.097251,0.26987,0.11293,0.040804,0.010356,0.028706,0.011619
-0.085245,0.32718,-0.49915,0.69943,-0.079713,-0.0086479,-0.030113,0.0016099
0.28883,0.23595,-0.11334,-0.58536,0.0049907,-0.019698,-0.049589,-0.0012091
-0.33491,-0.54553,-0.25572,-0.17081,0.083769,0.015524,0.055485,-0.028769
0.11322,-0.040221,-0.15376,0.094042,-0.10973,0.0024901,-0.043649,0.05129
-0.318,-0.26794,0.38157,-0.58345,0.087539,-0.043844,-0.089579,-0.089312
-0.015355,0.41802,0.40051,0.80962,-0.028592,0.063593,0.097304,0.049594
0.13541,-0.26402,-0.4445,-0.096884,-0.044855,-0.019033,-0.021815,-0.10187
0.38128,0.083628,-0.30641,0.14604,-0.11787,-0.10392,-0.0089098,0.074103
0.28854,0.3179,0.65223,0.30588,0.22906,0.23932,0.12109,0.14846
-0.58597,0.019542,-0.31167,-0.8284,-0.11285,-0.23836,-0.1467,-0.1595
0.0081255,0.37569,0.86111,0.95232,0.0057394,0.057963,0.02432,0.017801
0.31184,-0.25721,-0.71716,-0.91744,-0.0079418,0.012214,0.025219,0.10239
-0.42701,-0.40696,0.331,-0.24593,-0.02804,0.00030938,-0.011013,-0.10889
-0.20324,0.078268,-0.8972,0.40069,0.031907,0.022784,-0.022026,-0.053711
0.87907,-0.17981,0.34603,0.10483,0.054805,0.017183,0.077645,0.15047
-0.74453,-0.010649,0.20188,0.52729,0.071575,0.045553,-0.033042,-0.14506
0.15134,0.18804,-0.42805,-0.56914,-0.059028,-0.080462,-0.011208,0.035974
0.71482,-0.011121,0.31275,0.0008626,-0.0095704,0.036492,0.064163,0.13868
-0.77224,0.45732,0.56262,0.54088,-0.13213,0.02815,-0.12793,-0.10269
-0.28515,-0.74783,-0.93934,-0.73771,0.12003,-0.067282,0.076212,0.022757
0.59961,0.25736,0.62216,0.65175,0.03627,0.023152,-0.018735,0.0073063
-0.44454,0.026704,-0.10425,-0.70055,-0.18743,-0.10685,-0.068634,-0.16448
0.40378,0.4399,0.29305,0.015945,-0.058084,0.027391,0.075635,0.12483
0.066668,-0.53924,-0.80769,-0.059183,0.11244,0.067015,0.024289,0.0082402
-0.026878,0.5444,0.8067,0.59634,0.14458,-0.0030924,-0.034325,-0.014149
-0.026732,-0.20532,-0.25961,-0.19172,0.13936,0.090842,0.048924,0.10444
-0.0987,0.11406,0.32583,0.40811,-0.11537,-0.0026722,-0.11615,-0.073782
0.052551,-0.18594,-0.11722,-0.095622,-0.090054,0.028692,0.10337,0.0054796
-0.41762,-0.8686,-1.0703,-0.87673,-0.059879,-0.206,0.0276,-0.033191
0.25638,0.2434,0.39444,0.31047,-0.018446,0.042982,-0.078285,0.0052185
-0.010577,0.50129,0.082036,0.31923,0.15072,0.041119,0.042906,0.019052
0.064141,0.14735,0.33687,-0.11553,-0.20065,-0.039623,-0.062611,-0.08529
0.30241,0.41484,0.19709,0.24082,0.045673,0.12136,0.0030144,0.05974
-0.013108,-0.58284,-0.28685,-0.10322,0.08672,-0.061464,0.090918,0.040555
-0.77197,-0.43093,0.0093932,-0.66117,0.002676,-0.048589,-0.03348,-0.079872
0.73742,0.88354,0.47932,0.70401,0.092456,0.043148,-0.010767,0.073813
0.085702,-0.035233,-0.15882,0.10094,-0.071955,0.018635,-0.012554,0.072086
-0.47697,-0.08436,0.085013,0.53988,-0.20045,0.0028914,-0.061848,-0.13197
0.12761,-0.52796,-0.58008,-0.97354,0.15253,-0.0042334,0.037174,0.078632
-0.25672,-0.21453,-0.059937,-0.52486,0.041127,-0.042067,0.019366,-0.06981
0.37009,0.65829,0.063445,0.14556,0.042183,0.053145,0.041323,0.024021
-0.0076663,-0.42463,-0.2098,0.039291,0.044524,-0.0079388,0.032882,0.031859
-0.038748,0.25055,0.5225,0.71033,-0.18824,-0.084897,-0.037271,-0.077554
0.23717,-0.13193,0.29001,0.013545,0.076376,0.056535,-0.067799,0.03183
-0.44637,0.15955,-0.43905,0.36937,-0.077142,-0.028997,0.011302,0.016442
0.28467,-0.097081,-0.24376,-0.0015164,0.11606,0.049115,0.051291,0.040519
-0.10185,0.32766,-0.064263,-0.50654,-0.023662,0.033025,0.03631,-0.013029
-0.23166,-0.31543,0.72723,-0.085374,-0.07364,-0.061722,-0.15096,-0.050473
0.16033,-0.17635,-0.15034,-0.5202,0.045702,0.04602,0.083196,-0.017283
0.15188,0.33502,0.55101,0.26151,0.031531,-0.018837,-0.05028,0.070655
-0.02283,-0.33339,-1.0549,0.35204,-0.051683,-0.029736,0.065813,0.017711
-0.0044954,0.31257,-0.21385,-0.33955,0.04785,0.068145,0.087705,-0.027964
0.1211,0.22837,0.54001,0.51332,-0.051344,-0.076452,-0.02371,-0.011859
-0.23149,-0.25408,-0.27924,-0.36222,0.010807,-0.02558,-0.041891,-0.027718
0.16524,-0.12078,0.52366,0.48018,0.046763,0.018157,-0.13083,-0.0050058
-0.36694,0.16091,-0.65948,-0.46745,0.0089047,0.0083692,0.06126,0.0020039
0.017472,-0.27168,0.41538,-0.44221,-0.03376,0.023513,0.011309,0.025098
0.72656,-0.18489,0.07835,0.033942,0.0734,0.055874,0.063544,0.057007
-0.6601,-0.078008,0.26069,0.77881,0.00062224,0.050605,-0.00030173,-0.042467
-0.13408,0.40116,-0.41177,0.31744,-0.097216,-0.062971,-0.015776,-0.10907
0.29624,0.095236,-0.04059,-0.23399,-0.10383,-0.12126,-0.060806,0.06802
0.15238,0.3516,-0.24383,0.068047,0.04291,0.015891,0.020809,0.058656
-0.006333,-0.41587,0.070658,-0.62855,0.069706,0.043421,0.033441,0.026146
