0.024603,0.043496,0.028256,-0.056034,7.7319e-05,0.00044474,0.0031271,-0.0034149
-0.011265,-0.045847,0.15916,-0.0663,-0.03613,-0.021412,-0.012085,-0.0087308
0.023198,-0.0418,-0.44582,0.1524,0.012889,0.0033261,0.0039443,0.0015664
0.002565,0.0081223,-0.13193,-0.016714,0.037258,0.027501,0.0041812,0.019477
0.012409,0.0021441,0.25749,-0.079992,-0.010241,-0.01162,0.011973,0.013556
-0.025606,-0.020368,-0.40808,-0.20695,0.026567,0.010841,-0.019541,-0.016371
-0.017707,0.011686,0.55492,0.1131,-0.039559,-0.030067,0.011344,0.0077006
0.044197,0.0056514,0.38555,0.19551,0.010732,0.037767,0.018953,0.023246
-0.12063,-0.13109,-0.67712,-0.22323,-0.14202,-0.08213,-0.012001,-0.063387
0.082193,0.094504,-0.3793,-0.11886,0.07343,0.016989,-0.049925,0.013651
-0.042028,-0.012598,0.4219,0.22648,-0.092147,-0.0081429,-0.0477,-0.034389
0.10087,0.28153,-0.0075992,0.20085,0.22102,0.085012,0.065022,0.050638
-0.043707,-0.078966,0.57272,0.17543,0.083088,-0.0081098,0.0067281,-0.0044411
0.00046023,-0.20519,0.12838,0.021012,-0.076913,0.0014151,0.034652,0.019243
-0.0017223,0.033759,-0.79761,-0.67213,-0.049089,-0.019596,0.17141,-0.0033788
-0.059068,-0.20765,0.33815,0.38339,-0.084573,-0.016957,-0.16985,-0.0022413
0.17109,0.39744,-0.013282,-0.19444,0.10478,0.040073,-0.021114,0.04573
-0.085642,-0.19843,-0.80508,-0.34751,-0.21585,-0.075451,-0.093684,-0.062968
0.021722,0.25496,0.9334,0.60149,0.17236,0.042538,0.057913,-0.00050053
-0.21002,-0.56177,-1.0447,-0.50523,-0.13625,-0.082481,-0.034378,-0.063865
0.10242,0.32163,0.74053,0.0020147,0.14825,0.08096,0.028975,0.075142
-0.008744,0.016349,0.58017,0.93143,0.011132,0.0019132,0.053913,-0.012914
0.1296,0.10233,-0.36955,-0.37289,0.10938,0.047847,0.057202,0.031698
0.010932,0.018673,0.35745,-0.42192,-0.15818,-0.070128,0.016199,-0.0015892
-0.14492,-0.21002,-0.88437,0.23898,0.028831,0.03864,-0.18598,-0.065604
0.13934,0.26067,-0.14041,-0.15633,-0.087643,-0.024392,0.13793,0.074189
-0.15168,-0.53791,0.99699,0.81309,0.023245,0.045274,-0.028404,-0.011909
0.12244,0.51105,-0.047665,-0.36018,0.11105,-0.065052,-0.068839,-0.035009
-0.062367,-0.21833,-0.2771,-0.61812,-0.10587,-0.0039312,0.031022,-0.011042
-0.019496,0.077429,-0.37052,-0.10968,0.24725,0.072383,0.027787,0.020552
0.070354,0.17814,-0.51944,0.098479,-0.25154,-0.085984,0.18609,0.043773
0.081244,-0.097327,0.34525,0.38075,-0.086543,0.060256,-0.20559,0.027081
-0.096895,-0.039246,0.474,-0.57393,-0.031033,-0.098006,-0.014538,-0.060904
-0.097199,-0.2656,0.42209,0.70486,0.18856,0.095708,-0.068387,-0.071669
0.025741,0.18428,-0.029918,0.11558,0.11128,0.016524,0.032259,0.073205
-0.079164,-0.13469,-0.97884,-0.5869,-0.059935,-0.038695,0.015231,-0.078952
0.25286,0.26243,0.50685,0.90329,0.018305,0.093978,0.18655,0.11302
-0.12584,-0.1002,0.011965,-0.57249,-0.16999,-0.10129,-0.085462,-0.030094
0.019782,0.05939,-0.084307,-0.20683,0.10937,-0.030932,-0.057834,-0.00013557
0.065164,0.21065,-0.029569,-0.076737,-0.065391,0.039319,-0.034965,0.023323
-0.10671,-0.30974,0.45902,0.28747,0.024977,0.039189,0.037651,-0.03014
0.0040971,0.15534,-0.10888,-0.1436,-0.056253,-0.093659,-0.0046356,-0.0045708
0.030125,-0.26013,-0.27707,0.28987,-0.026959,0.047269,0.056071,-0.0019418
-0.0055479,0.015533,0.076686,-0.33607,0.12919,-0.0065397,6.5189e-05,0.0085663
-0.072072,-0.086608,-0.74341,0.11925,-0.11094,0.018495,-0.017288,-0.028105
0.1583,0.25481,0.38921,-0.045569,0.1508,0.083295,-0.012273,0.059673
-0.1585,-0.13172,0.19621,-0.57773,-0.039572,-0.093589,-0.1493,-0.071942
0.063219,0.30009,0.8763,0.77581,0.082355,0.057803,0.1185,0.030244
0.11241,0.15028,-0.84884,-0.25578,-0.023747,-0.12704,0.041373,0.046126
-0.065598,-0.10676,0.061768,1.0403,-0.10095,0.031137,0.018128,-0.023994
-0.095662,-0.48118,-0.22715,-0.96789,0.084945,0.071016,-0.13056,-0.054774
-0.016567,-0.037523,0.78394,0.28284,-0.16064,0.047068,0.13461,0.024413
0.093902,0.20728,-0.60149,-0.51944,-0.17995,-0.048542,-0.022268,0.026286
-0.037388,-0.012889,-0.4163,-0.12362,0.021122,-0.059359,0.054909,-0.010026
-0.0040223,0.083426,0.82229,-0.0047344,0.26464,0.069733,-0.1263,-0.01434
0.029864,0.31715,-0.71531,0.24513,0.067217,-0.059093,0.05887,0.028634
0.0014231,-0.46729,0.0086894,0.30677,0.084919,-0.0076391,-0.092825,-0.061293
0.011633,0.27748,0.77442,0.30511,-0.0040373,-0.040884,0.11403,0.090279
0.059788,-0.36246,-0.11442,-0.39419,-0.14743,0.060372,0.023539,0.014018
-0.065707,0.22202,-0.15863,-0.020559,-0.012189,0.10095,-0.012168,-0.0092667
0.025355,0.23347,-0.28043,-0.085437,-0.054011,-0.020976,-0.1252,-0.089133
-0.18269,-0.50076,0.083037,-0.061109,0.069264,-0.063809,-0.057045,-0.053557
0.1387,0.43265,-0.42642,0.20609,-0.072238,0.03411,0.11471,0.097935
-0.03312,0.12699,0.65423,0.074593,-0.10222,-0.087495,0.17154,-0.024557
0.029453,-0.15985,-0.266,-0.032752,0.075594,0.0002695,-0.15237,0.048548
0.054063,-0.35682,0.7301,-0.94128,-0.10592,0.023428,0.10336,0.013335
-0.036512,-0.017174,-0.54175,0.66549,0.2861,0.044286,-0.22622,-0.098377
-0.06201,-0.27966,-0.48492,0.42467,-0.066195,0.10991,0.0454,0.0027401
0.11055,0.93583,-0.0816,-0.21486,0.17443,-0.15416,0.37046,0.17599
-0.058148,-0.20494,0.38808,-0.31364,-0.17181,-0.0048516,-0.50943,-0.12588
0.017292,0.096076,0.20504,0.46413,-0.13753,0.0042045,0.38994,0.03404
0.0080119,-0.27767,-0.11694,-0.41502,0.079686,0.014776,-0.15763,-0.024586
-0.078916,-0.26339,0.76258,0.967,-0.09324,0.0044509,-0.1905,-0.099251
0.10746,0.33442,-0.69173,-0.74587,0.25505,0.067704,0.1282,0.090831
-0.097315,-0.12459,-0.054331,-0.5031,-0.27611,-0.12332,-0.075724,0.01414
0.064431,0.031894,-0.71915,0.17676,0.2494,-0.022033,0.065346,-0.0012724
-0.15725,-0.46922,0.55413,0.03484,-0.10632,0.13636,0.18404,-0.041255
0.14406,0.52051,0.44499,0.90797,-0.092563,0.069357,0.12329,0.042839
0.054439,0.1801,-0.12346,-0.71682,0.026683,-0.076088,-0.00093119,0.095048
-0.035457,-0.023237,-0.89127,0.21897,0.081858,0.058007,-0.35395,-0.11086
0.014883,-0.17775,0.98779,-0.79603,-0.080686,0.017488,0.047704,0.0035862
-0.044791,0.16686,0.28932,0.89831,0.057109,-0.39342,-0.19459,-0.1082
-0.035099,-0.34384,-0.99294,-0.57816,-0.041987,0.21603,0.22442,-0.0007063
0.043679,0.014253,0.82142,0.26762,-0.072398,-0.19262,-0.15496,0.099489
-0.027381,0.012826,-0.80668,0.29378,0.17658,0.27981,0.0047131,0.02809
0.040758,0.033804,0.54406,0.00492,0.078594,0.14953,0.7362,0.22215
-0.0017832,0.069259,-0.12723,0.3653,-0.10292,0.026147,-0.26396,-0.092296
-0.10009,0.18999,0.10816,-0.9502,-0.034661,-0.11393,-0.15119,-0.16569
0.097684,-0.10306,0.11647,0.3981,-0.023898,-0.14605,-0.62027,-0.17005
-0.1035,-0.089885,-0.94689,-0.75626,-0.064823,0.046707,0.24305,-0.042653
0.13253,0.42646,0.9017,0.60201,0.11494,-0.16835,-0.10048,-0.0016385
0.048199,-0.84106,-0.32287,0.36522,-0.07833,0.17822,0.9578,0.62568
0.018785,0.36779,0.61305,-0.03372,0.051805,0.056433,-0.68512,-0.26139
-0.080268,0.094815,-0.71304,-0.41105,-0.18024,-0.055465,0.093552,-0.013633
0.0017134,0.13973,0.76883,0.29208,0.14976,-0.046278,-0.076191,-0.15385
-0.19532,-0.36989,-0.65987,-0.31916,0.13787,0.14031,-0.29896,-0.17376
0.017083,0.23982,-0.19346,0.28121,-0.089027,-0.18208,0.48505,0.091006
0.014644,0.048034,0.48234,-0.054137,0.040535,0.12751,0.60225,0.21073
0.078769,-0.16411,-0.66917,-0.17714,-0.15285,-0.12686,-0.84591,-0.20567
0.15407,0.24268,0.85439,0.51194,-0.021288,0.0063564,0.056586,0.075139
0.074874,-0.22626,-0.71072,-0.77894,0.21524,0.25906,-0.23303,0.051539
0.041929,-0.035238,0.37069,0.50128,-0.030858,-0.2546,-0.18545,0.17461
-0.080218,-0.063175,0.48872,0.30984,-0.042564,0.41534,0.53418,0.1532
-0.32515,0.3969,-0.25679,-0.23927,-0.16517,-0.5933,-0.19274,-0.53
0.1182,0.036777,-0.44646,-0.37471,0.194,0.38947,0.79477,0.38206
-0.047268,-0.13827,0.27654,-0.15191,-0.11396,-0.22291,-1.1732,-0.493
0.070143,-0.45754,-0.46463,0.13295,0.020496,0.13291,0.4881,0.1043
-0.090007,0.13408,0.94665,0.52086,0.027715,-0.16591,0.26615,0.114
0.09984,0.10726,-0.70742,-0.07142,-0.067904,0.00096035,-0.19788,-0.03141
0.27499,0.25411,-0.057302,-0.039378,0.078374,0.21518,0.25903,0.3111
-0.27357,0.031418,0.017461,-0.20055,-0.048314,-0.23095,-0.23154,-0.060237
0.072459,-0.33071,0.14528,-0.31838,0.083651,0.29773,-0.57583,-0.22351
-0.12419,-0.10285,0.32881,0.15531,-0.010186,-0.29157,0.4709,0.09348
0.18289,0.044879,-0.31363,0.30664,0.10722,0.078713,0.10982,0.2167
0.05541,0.29255,0.021704,0.02523,-0.11948,0.30505,0.35819,-0.051589
-0.030847,0.2096,-0.37931,-0.23006,-0.1284,-0.099888,-0.63062,-0.18216
-0.38099,-0.025999,0.87669,0.45207,-0.005887,-0.18625,-0.16167,-0.21514
0.13789,-0.041204,-0.36497,-0.34528,0.076117,0.035282,-0.054332,-0.033223
0.0029109,-0.55623,0.037782,-0.14774,0.031962,-0.17152,0.43449,0.091464
0.26952,0.24098,0.21245,0.20783,0.1747,0.17733,0.21836,0.30941
-0.069487,-0.18787,-0.71133,-0.08244,-0.25279,-0.12016,-0.14318,0.021314
-0.20934,-0.19272,-0.24169,0.023039,0.054865,0.16506,0.3987,-0.052159
0.005506,0.36115,0.49123,-0.44839,0.043565,-0.18246,-0.8054,-0.26141
0.26098,0.5766,-0.030676,0.56249,-0.020691,0.36429,0.65535,0.24532
0.054794,-0.13221,0.65292,-0.32297,-0.020594,-0.23839,-0.48941,-0.032696
-0.17824,-0.60262,-0.2858,0.25745,-0.065678,-0.18358,-0.32319,-0.2298
-0.096967,0.32672,0.051932,0.077921,0.14053,0.19372,0.14866,0.11292
0.031009,-0.1992,-0.97498,-0.3554,0.066214,-0.013344,0.60086,0.16509
0.18132,0.22247,0.67837,0.77387,-0.070494,-0.064645,-0.31461,-0.17696
-0.17692,0.12045,0.015655,-0.68814,-0.035729,0.41939,0.53159,0.21789
-0.096655,-0.26411,-0.21994,0.22133,-0.095413,-0.39326,-0.72238,-0.17473
0.19057,-0.0085253,0.34448,-0.19832,-0.038635,0.040337,0.24262,0.16078
-0.092986,-0.39147,0.32869,0.39308,0.064485,-0.0018204,-0.0731,-0.2355
-0.0061758,0.2863,-0.83006,-0.4822,0.14393,0.0251,-0.1286,-0.096059
-0.014609,0.41986,0.41284,-0.11969,-0.06571,-0.051275,0.25917,0.065983
0.094797,-0.041312,-0.18021,0.15601,0.052801,0.059167,-0.022489,0.15175
-0.020887,-0.46924,0.4817,0.11525,-0.2195,-0.43034,-0.16381,-0.016094
0.23933,0.2389,-0.13376,-0.033947,0.21071,0.35038,-0.1754,-0.0061978
-0.1732,0.027742,-0.39189,0.2045,0.085097,0.24812,0.8533,0.58838
-0.19073,0.051082,0.2443,0.028087,-0.19834,-0.07841,-1.0278,-0.84202
0.090147,0.086381,-0.70733,-0.18026,0.03985,0.14572,0.61229,0.17026
-0.044167,-0.0035797,1.0876,0.60124,-0.02833,-0.41505,-0.44572,-0.21241
0.091744,-0.0042918,-0.43941,-0.67709,-0.019599,0.051148,0.58488,0.23445
0.03561,-0.52852,0.3481,0.028533,0.02772,0.082043,-0.20589,0.22737
-0.22094,0.085708,-0.9676,-0.37823,-0.010527,-0.050615,-0.2288,-0.1421
0.11125,0.2674,0.52255,0.31197,-0.039838,0.11246,0.32408,0.077214
0.15773,0.18898,-0.50183,0.19238,0.18247,-0.039388,-0.16035,0.016752
-0.041616,-0.28098,0.69735,0.091585,0.039395,0.16514,0.1125,0.019766
0.12348,0.37497,0.23651,0.002741,-0.09417,0.023232,-0.45929,-0.29594
-0.40078,-0.13028,0.53268,-0.36988,-0.023145,-0.15913,0.34457,0.08701
0.097362,-0.17761,-0.56232,0.45131,-0.12273,-0.23138,-0.37911,-0.21153
0.1655,0.00044318,0.0056654,-0.2595,-0.010168,-0.30028,0.24863,0.1787
0.10896,-0.078728,-0.96575,-0.39246,0.135,0.44912,0.5442,0.21362
-0.13427,0.039637,0.12849,0.75589,-0.038596,0.17466,-0.02841,0.035747
-0.0091026,0.083524,0.7093,-0.15006,-0.10114,-0.053212,-1.1004,-0.27627
-0.26528,0.0071464,-0.87772,-0.14884,0.095617,0.084254,0.44516,0.12815
0.14421,0.13928,0.37063,-0.052019,0.097996,0.29488,0.42666,0.098362
0.27405,-0.11363,0.37904,-0.17856,0.014411,-0.54256,0.35632,0.34242
0.0068995,0.14664,0.077984,-0.073698,0.054618,-0.088371,-0.41844,-0.42373
-0.15744,-0.3226,0.83263,0.63921,-0.19658,-0.033244,0.16868,-0.014502
-0.0081989,0.040513,-0.55696,-0.71056,0.10378,0.49625,-0.81515,-0.27426
-0.014168,0.00082588,-0.6281,0.36941,-0.22416,-0.32763,-0.11364,-0.15525
-0.065831,0.17465,0.066628,-0.043812,0.077869,-0.15108,0.67969,0.32887
-0.092639,-0.22814,0.14088,0.070831,-0.035959,0.21709,0.38706,0.047681
-0.024122,0.36929,-0.24137,0.1005,0.22474,-0.26566,-0.37901,0.23758
0.25675,-0.22984,0.0096156,-0.10723,-0.0059772,0.35006,0.40093,0.14961
0.17121,-0.050447,0.13535,0.33458,-0.17253,0.11416,-0.57377,-0.060138
-0.14909,0.42968,0.051259,-0.4204,0.20195,-0.27677,-0.51038,-0.53347
-0.10409,-0.4776,0.11048,-0.34174,-0.27347,-0.33126,0.51579,0.13416
0.14845,0.25918,0.2504,0.51706,0.30664,0.78397,0.5218,0.48805
-0.27542,-0.48386,-1.0402,-0.6223,-0.13695,-0.18513,-0.78956,-0.72272
0.053591,0.13121,0.58276,0.44735,0.0040468,-0.0011043,0.50913,0.35342
0.018761,0.28648,0.90411,-0.058957,-0.12275,-0.71521,0.1326,-0.063786
0.05891,-0.11722,-0.44325,0.24478,0.052615,0.52877,-0.05702,0.074184
0.043163,0.17972,0.24178,0.063247,0.092872,0.15148,-0.15867,-0.058938
0.028406,0.19384,-0.80858,-0.11952,-0.12623,-0.1663,-0.051532,0.061815
-0.030154,-0.38755,-0.36019,0.17109,0.17768,0.16472,0.40284,0.18719
-0.19341,-0.26874,0.68383,-0.028744,-0.11127,-0.34247,-0.98265,-0.56591
0.086399,0.29833,-0.2786,-0.47983,-0.0074548,-0.11916,0.29497,0.48862
0.27022,0.076945,0.084095,-0.372,-0.033379,0.1533,0.42035,0.28608
-0.15838,0.033438,0.169,0.84823,0.022365,0.23762,-0.53037,-0.41051
-0.0055901,0.14226,-0.17204,-0.4989,-0.012225,-0.3948,0.55753,-0.033244
-0.0076968,-0.090269,0.70975,0.64997,0.18244,0.67763,0.039271,-0.083831
-0.11198,-0.36013,-1.0381,-0.52417,-0.043288,-0.17343,0.2676,0.12461
0.039192,0.10633,0.86228,0.26911,-0.11277,-0.094501,-0.50901,-0.08704
0.085176,-0.11188,-0.95457,-0.32847,-0.011871,-0.046093,-0.14602,-0.092268
-0.084094,0.064561,0.58808,0.39473,-0.038672,-0.19981,-0.18009,-0.053055
0.0078518,0.089829,0.2519,-0.11565,0.017037,0.023979,0.53134,0.40773
0.17396,0.52699,0.054512,0.085792,0.11605,0.23846,0.48302,0.19808
-0.20211,-0.12396,-0.31536,-0.36815,-0.053706,-0.073028,-0.51616,-0.32145
0.17768,-0.41023,-0.46551,-0.024369,-0.085078,-0.37721,-0.17055,0.021586
-0.20102,-0.035176,0.45088,0.11717,0.093457,0.25238,-0.82253,-0.19453
0.030271,0.079811,0.0016291,0.0017801,-0.071446,-0.13116,0.68792,-0.032338
-0.017965,0.13157,0.22592,0.48093,0.12463,0.30703,0.10057,-0.12477
0.17855,-0.064725,-0.40477,-0.25025,0.042162,0.073007,0.65575,0.3639
0.057785,-0.26338,-0.096588,-0.043455,-0.15399,-0.196,-0.031675,0.22232
-0.38799,-0.21849,0.47691,-0.093865,0.060051,0.22878,-0.8404,-0.4956
0.34879,0.47147,-0.56064,-0.12746,-0.22199,-0.39501,-0.12748,0.13868
-0.076094,0.36288,0.8121,0.067787,0.10878,0.11001,0.34957,0.053362
-0.038184,-0.30244,-0.81488,0.094903,0.16851,0.013369,-0.043602,-0.16721
0.16512,0.098028,0.013327,-0.25563,0.08072,0.34934,0.90079,0.88965
-0.326,-0.30724,0.67088,0.10302,-0.10176,-0.1995,-0.86049,-0.7925
-0.1135,0.01535,-0.0017073,0.52227,-0.084025,-0.082711,-0.15231,-0.16673
0.17717,0.21637,-0.11106,-0.60096,-0.00062195,-0.48304,0.067984,-0.20857
0.19382,0.05655,-0.50691,0.20705,-0.016818,0.39494,0.10184,0.26352
0.060552,-0.16277,0.15648,0.16892,0.10918,0.31706,0.3615,0.49406
0.11222,0.080608,0.25711,-0.047762,-0.051783,-0.13683,-0.23141,-0.16317
-0.33973,-0.27482,-0.020649,0.19378,-0.099815,-0.02627,-0.30843,-0.22209
0.055567,-0.13236,-0.41245,-0.46051,0.14694,-0.011599,0.43761,0.20095
-0.061288,0.25438,-0.050727,-0.22208,-0.10581,-0.37001,-0.48232,-0.18322
-0.048868,-0.016269,0.13633,0.26249,-0.043013,0.28517,0.48961,0.077539
0.00065762,0.50507,0.76791,0.46596,0.048402,-0.06641,-0.76134,-0.28406
0.12844,-0.23346,-0.16969,-0.41075,0.052561,0.030221,0.35969,0.12055
0.11009,-0.22279,-0.59685,0.021381,0.016617,0.2472,0.78966,0.36734
-0.11507,-0.056942,-0.028184,-0.40379,0.064774,-0.38563,-0.33294,-0.037818
0.0087734,-0.02647,-0.025501,0.10693,0.085977,0.70704,0.19962,0.01307
-0.10413,0.24926,0.8884,0.63336,-0.15636,-0.3301,-0.53796,-0.20708
0.20171,0.049148,-0.59027,0.31493,-0.10982,-0.50885,-0.44687,-0.41651
-0.13771,-0.30073,-0.37425,-0.68037,-0.010755,0.19847,0.35434,0.26122
0.15684,0.1435,0.53833,-0.014577,0.0066927,0.015738,-0.079401,0.13292
-0.15113,-0.02507,-0.48304,0.10262,0.082507,0.058547,0.4333,0.028971
-0.063435,-0.23609,0.50935,0.055925,0.052619,0.060728,-0.29243,0.08411
0.067182,0.12816,-0.63866,0.044318,-0.074718,-0.039941,0.37916,0.12762
0.084095,0.28711,0.25383,-0.45719,0.083985,0.21833,0.0055279,-0.22302
0.034668,0.022621,0.44469,0.13081,-0.056458,-0.006953,-0.1532,0.20353
-0.2127,-0.22747,-0.012681,0.57766,0.035945,-0.33142,-0.58743,-0.32812
-0.0079344,0.16975,-0.073744,-0.81442,0.041609,0.12181,0.71976,0.024593
-0.021208,-0.25445,-0.022641,0.23377,-0.093383,0.05028,-0.44181,-0.16135
0.21756,0.20317,-0.60431,0.32878,0.061527,0.11279,-0.048459,0.24593
-0.025386,-0.19919,0.20274,-0.22153,-0.031741,-0.21141,0.49313,0.30038
0.070045,-0.046747,0.32742,0.66179,-0.12217,-0.099407,-0.66198,-0.4283
-0.090931,0.32552,0.1218,-0.41346,-0.013565,0.10714,0.84367,0.27033
-0.0098592,-0.073538,-0.1548,-0.30231,-0.02575,-0.090569,-0.18772,-0.025954
0.10852,-0.14933,-0.12534,0.10797,0.22397,0.3231,-0.25882,-0.090686
-0.19797,-0.22955,-0.54575,-0.25742,0.15658,0.065558,-0.10643,-0.14237
0.0077049,0.40437,0.71787,0.56666,-0.057621,-0.084529,0.37701,0.25714
-0.047459,-0.068699,0.15738,-0.11725,-0.241,-0.25555,-0.98919,-0.32867
0.098764,0.18578,-0.35425,-0.47365,0.0027659,-0.021473,0.64624,0.17164
0.0028952,-0.052642,0.23401,0.21732,0.023459,0.083195,0.4163,0.1263
-0.036249,-0.5044,-0.051376,0.043883,-0.039346,0.14207,-0.69442,-0.22184
0.029789,0.32145,-0.074805,0.212,0.16578,0.068198,0.82194,0.27575
-0.048137,0.0025009,0.081389,-0.11936,-0.063505,-0.067629,-0.51132,-0.20958
0.19084,0.14063,-0.22578,-0.02628,-0.053725,-0.1464,0.10258,0.13365
-0.019838,-0.30991,0.23048,0.20318,0.072217,-0.25126,0.33599,0.10884
0.13077,0.2542,-0.13258,-0.53274,-0.17561,-0.0040574,-0.1846,-0.11329
-0.35127,-0.33686,-0.34036,0.084987,0.087616,0.29326,-0.72977,-0.25996
-0.037766,0.38769,0.66182,0.55426,0.058665,-0.013919,0.22016,0.17672
0.17973,0.21075,-0.91439,0.013288,0.17566,0.73861,0.099614,0.041371
-0.19118,-0.49165,0.59514,-0.21978,-0.24919,-0.81775,0.022427,-0.35974
0.076439,-0.14117,0.1807,-0.36504,0.05648,0.20515,0.4214,0.43627
0.17864,0.34752,0.20457,0.069661,0.028536,-0.14865,0.01624,0.22044
-0.063499,0.027692,-0.27902,-0.093948,0.11829,-0.108,-0.49933,-0.43529
-0.016684,-0.063668,0.14029,0.92036,-0.12902,0.27912,0.78494,0.11077
0.17074,0.2116,-0.41875,-0.92275,-0.089487,-0.11966,-0.21428,0.12458
-0.32969,-0.39123,0.082998,0.22448,-0.029174,-0.17737,-0.29143,-0.1052
0.16895,0.14905,-0.30797,-0.056223,0.083431,-0.062891,-0.23224,-0.21253
-0.068365,-0.17694,0.44761,0.034506,0.014724,0.19588,-0.1019,0.13666
0.11415,0.044166,0.4451,0.11469,6.0499e-05,0.070556,-0.40901,-0.083546
-0.025787,0.42214,-0.34311,0.034769,0.048121,0.49249,0.95651,0.37379
-0.081513,0.0053098,-0.13746,0.26834,-0.067179,-0.5148,-0.39466,-0.30718
0.057242,-0.28195,-0.53854,-0.66559,0.05254,-0.59358,0.11663,0.19054
-0.11605,0.12617,0.91031,0.74345,0.016069,0.74536,0.50606,0.067328
-0.021832,-0.75882,-0.37902,-0.57203,0.095909,0.09975,-0.10236,-0.13934
0.21623,0.50407,-0.071459,0.0011415,-0.11521,-0.018636,-0.022679,0.06278
-0.11189,-0.090452,-0.20663,0.23405,-0.1337,-0.2223,-0.70928,-0.29309
-0.0059334,0.36468,0.12039,0.01693,0.10267,-0.098876,0.29089,0.046902
0.1196,0.24314,0.55494,-0.17993,-0.0073206,0.039316,-0.34079,-0.23233
-0.017655,-0.35697,-0.61162,-0.17377,-0.0095276,-0.16508,0.73509,0.58598
-0.15366,0.043744,0.30793,0.1956,0.042837,-0.044557,-0.89082,-0.36772
0.18638,0.27574,0.16252,-0.036562,0.04989,0.41271,0.90352,0.77788
-0.24918,-0.36882,-0.23162,0.33622,-0.17432,-0.25844,-1.0733,-1.0063
0.077427,-0.45534,0.49598,-0.066757,0.051003,0.0067298,0.91484,0.41246
0.063882,0.46121,-0.4788,-0.065108,0.023123,0.35689,0.39853,-0.030721
-0.11031,-0.085563,-0.31451,-0.20636,0.14006,-0.077092,-0.27394,-0.027411
0.34431,0.065207,-0.066291,0.24223,-0.0056507,-0.18179,0.048802,0.19846
-0.30576,0.083467,-0.21749,-0.38553,-0.064213,-0.1417,-0.52924,-0.092907
0.13609,-0.27477,0.36626,-0.076197,0.07175,0.56175,0.081246,0.1484
-0.15671,0.16735,0.45159,0.60587,-0.18552,-0.63772,-0.52073,-0.55759
0.07536,0.38946,-0.28244,-0.23122,-0.056066,0.12516,0.85993,0.61567
-0.033265,-0.060952,0.87256,0.22449,0.045476,-0.38349,-0.91547,-0.77676
0.14373,-0.3576,-0.66567,-0.26105,0.25212,0.97207,0.61729,0.47025
-0.31477,-0.38726,0.035779,-0.2805,-0.23216,-0.35788,0.82914,-0.12466
0.21625,0.64158,-0.46423,-0.03527,0.015732,-0.52334,-0.76873,0.348
0.17343,-0.15201,0.32512,0.36723,0.059671,0.43537,0.41214,0.016041
-0.16363,0.35917,-0.83665,0.0069382,-0.020989,-0.14779,-0.5877,-0.19683
-0.070621,-0.46208,0.89104,-0.1931,0.063743,0.0047635,-0.048935,-0.055468
0.012448,-0.22768,-0.43813,0.32211,0.13473,0.043213,-0.19836,-0.060049
0.18485,0.47618,0.30053,-0.10432,-0.22186,-0.0021582,0.22084,0.24965
0.030894,0.018763,0.1762,0.17474,-0.052944,0.1855,0.042838,-0.0099761
-0.15312,-0.57241,0.091847,-0.33457,-0.030514,0.38999,0.56199,-0.37061
-0.28838,0.40335,0.080378,-0.2041,0.23591,0.0195,0.34561,0.25392
0.252,-0.21232,-0.81263,-0.052175,-0.097534,-0.53285,-0.52333,0.30209
-0.11509,0.2575,0.84663,0.43311,0.031566,-0.84888,-0.79712,-0.70114
0.22293,0.15223,-0.57978,-0.16242,-0.15814,0.31206,0.0076996,0.1678
-0.027807,-0.27683,0.72305,0.34116,0.090963,0.32531,0.45438,-0.042885
-0.13856,-0.11662,-0.7495,-0.30571,-0.033931,0.37208,0.67027,0.52655
0.094734,0.45009,0.046369,0.092868,0.162,0.12593,-0.51303,-0.24196
0.1013,0.1454,0.078131,-0.32953,-0.071893,-0.35744,-0.34944,0.14937
-0.050378,-0.63716,-0.23978,0.46711,0.076147,0.61726,0.4927,0.3068
-0.14439,0.14486,0.4612,-0.39883,-0.29305,-0.40391,-0.78881,-0.73403
