-0.00031002,-0.013309,0.0030297,-0.005252,-0.01577,-0.0019078,0.0029077,0.0073492
0.014651,0.0014441,-0.0038702,-0.01324,-0.015583,0.0064328,-0.012686,-0.00036635
-0.0014439,-0.0075839,0.012669,0.018343,0.0079292,-0.00070682,0.0026593,-0.016064
-0.0094096,0.0067397,0.0057511,0.0035083,0.015792,0.0078508,0.0020035,0.014934
-0.0013782,-0.002159,-0.016826,-0.0031481,0.0080997,-0.007056,-0.0068361,-0.0011121
0.0069998,0.0050626,0.0074266,-0.0095573,0.00054221,0.0013338,0.0074793,0.0061441
-4.9602e-06,0.0051612,-0.0074452,-0.00022964,-0.0068634,-0.013967,-0.009573,-0.010124
0.0086909,-0.0018055,0.001036,0.0090662,0.0014718,0.017261,-0.010905,-0.0108
-0.0061738,0.0074989,0.0094061,-0.013064,-0.0057797,0.0012076,0.011509,0.0041699
-0.0057298,-0.0062372,0.0020177,0.011366,-0.0052774,-0.0074499,-0.0046622,0.011385
-0.0057506,-0.004304,0.0023026,-0.003706,-0.0049264,-0.00085592,0.018778,0.0030533
0.0015048,0.0050991,-0.0053379,0.011938,0.010832,-0.0023466,0.0036641,0.010427
0.0082501,0.0060093,0.0026039,0.0035624,0.010722,0.0038572,0.0045295,-0.013372
0.014614,0.013841,-0.028441,-0.013188,0.0025818,0.0023258,-0.010103,-0.0058412
-0.018248,-0.026115,0.034494,0.00085356,-0.013515,0.0089028,-0.0092313,0.0017979
-0.0041161,-0.019921,-0.027177,-0.016618,-0.0061979,-0.0074433,-0.00087349,-0.0060237
-0.005191,0.0093621,0.013244,0.012794,0.0012403,-0.015271,-0.000769,-0.00579
0.0022314,-0.00026947,-0.00043445,-0.0043472,-0.014492,-0.006635,-0.0089162,0.010392
0.0027014,0.0063822,-0.0057653,0.010394,0.017028,0.018513,-0.0017655,0.003514
0.0040662,0.014096,0.036127,0.0025742,0.01772,0.013233,0.020872,0.004828
0.014003,0.023059,0.015549,0.019197,0.010971,0.00077913,-0.0032901,0.006453
-0.022478,-0.084016,-0.1226,-0.06477,-0.042425,-0.019149,-0.0037524,-0.015188
0.01919,0.036222,0.01184,-0.0073462,-0.0020705,-0.0078763,-0.0038391,-0.0056046
0.021328,0.086243,0.1372,0.073905,0.030199,0.018542,0.019904,0.019357
-0.032143,-0.044116,0.018807,-0.016821,-0.016204,-0.018435,-0.026351,-0.01864
0.0068999,-0.0040604,-0.062171,0.040258,0.022564,0.029287,0.021308,0.013053
0.0055433,-0.0050952,0.027293,0.03375,0.0057673,0.013062,0.0064471,0.0049778
-0.020428,-0.023999,-0.11071,-0.091293,-0.011871,-0.02026,-0.0085973,-0.011596
-0.023734,-0.021491,-0.17071,-0.069238,-0.030145,-0.023621,-0.01612,0.0025147
0.0040181,-0.028173,0.22319,0.0064608,-0.017454,-0.012263,-0.016146,-0.02279
0.016592,0.027233,0.063945,0.011315,0.0032144,0.0065375,0.0070107,0.014318
0.022366,0.020833,0.00045671,0.063103,0.032314,0.002136,0.006595,-0.0030763
0.021718,0.063035,0.04054,0.076403,0.031149,0.037605,0.029624,0.026823
-0.016492,-0.025072,-0.12878,-0.050038,-0.015709,-0.011613,-0.0019031,-0.0052057
-0.014303,-0.024346,0.015108,-0.0036635,-0.0067084,0.0031583,-0.0097798,-0.0053596
0.012267,0.018313,-0.067871,-0.042449,-0.01238,0.0038028,-0.0017908,-0.0049286
-0.015432,-0.038122,0.058863,-0.010422,-0.0018408,-0.017693,-0.017016,-0.0040236
0.0036166,0.00098264,0.074387,0.029654,0.016655,0.0086293,0.0070001,0.0050219
-0.016983,-0.0058225,0.072345,0.02296,-0.011999,-0.011416,-0.0079273,-0.0091885
0.016231,0.042195,0.084505,0.032071,0.021253,0.0076765,0.016264,0.0079133
0.0094247,0.027134,-0.45831,-0.083356,-0.024373,-0.012591,0.0013847,0.0093729
-0.0060303,-0.012451,0.21893,-0.018221,-0.00041699,0.021264,0.0098655,-0.0048506
-0.03767,-0.092432,-0.1789,-0.1315,-0.047324,-0.039353,-0.036494,-0.042587
0.02424,0.0059393,0.068344,0.13952,0.038313,0.024251,0.010662,0.028957
0.0081759,0.032845,0.21131,0.068117,0.022417,0.0011513,0.018437,0.014427
0.039396,0.082282,0.15571,0.25524,0.038036,0.024214,0.0023809,0.030926
-0.038246,-0.095572,-0.02206,-0.29231,-0.039716,-0.00024259,0.0093193,-0.031043
-0.013889,-0.024165,-0.34823,-0.083568,-0.023373,-0.025271,-0.023254,-0.015373
0.018471,0.054051,0.12704,0.044333,0.024402,0.003901,-0.0015338,0.0074924
-0.019661,0.021383,-0.029056,0.012409,-0.021637,-0.014187,-0.011334,-0.0093987
0.043171,0.088132,0.21245,0.085969,0.025744,0.0065363,0.01003,0.01208
-0.019977,-0.066604,-0.11021,-0.054958,-0.013366,0.011545,0.0080945,0.0017153
0.0015752,-0.044699,-0.10551,0.0046811,0.0015309,0.0010259,0.0065218,0.0065737
-0.017232,-0.01004,-0.067626,-0.030463,0.007943,-0.0013878,-0.010118,-0.019948
0.0019071,-0.024338,0.12471,0.013324,-0.0096027,-0.0033153,-0.0026306,0.0084123
0.0047256,0.015362,-0.14866,-0.0027145,0.0038619,0.0032333,0.005605,0.0060541
-0.00035258,-0.014109,0.038802,-0.076994,-0.029424,0.002784,0.014569,0.012354
-0.028242,-0.048275,0.089065,0.13524,0.015922,-0.012362,-0.0070704,-0.02713
0.0155,0.03181,-0.074413,-0.053282,0.0074092,0.020359,-0.0047474,0.0049338
0.0064184,0.086726,0.25063,0.083337,-8.1209e-05,-0.039678,-0.025477,-0.016448
0.015127,0.054374,-0.071927,-0.026675,0.016905,0.01057,0.01654,0.017957
0.07287,0.14522,0.14796,0.013064,0.050386,0.053738,0.019602,0.053169
-0.10191,-0.30604,-0.16629,-0.16697,-0.095276,-0.05889,-0.039866,-0.051853
0.013659,0.0034897,-0.012961,0.087245,0.017001,0.0082484,0.025487,-0.008535
0.028247,0.048328,-0.13116,0.086384,0.043033,0.035966,0.012362,0.018567
-0.074528,-0.11887,-0.42961,-0.1941,-0.072244,-0.038692,-0.0091165,-0.025659
0.079642,0.21884,0.98261,0.37837,0.061535,0.049494,0.0077394,0.046
-0.041039,-0.15879,-0.67281,-0.44554,-0.040117,-0.059136,-0.02316,-0.032184
0.0084001,0.075318,-0.21111,0.070062,0.0056569,0.033765,0.023112,-0.0022845
0.055974,0.18621,0.73338,0.29456,0.058433,0.015845,0.0059763,0.018826
-0.038808,-0.10734,-0.34849,-0.050681,-0.0064517,-0.0031153,-0.0040652,-0.0074299
-0.041217,-0.039024,-0.16206,-0.25203,-0.032298,-0.061547,-0.037928,-0.033595
0.033658,-0.060603,0.17948,0.028887,-0.018586,0.013197,0.0063939,0.026856
-0.0010504,-0.084196,0.35764,0.22359,0.011774,0.026583,0.012194,0.010347
0.011543,0.040896,-0.12793,-0.057672,0.0045352,-0.020762,-0.0044785,-0.0047088
-0.099921,-0.26129,-0.63895,-0.38551,-0.13381,-0.026963,-0.012108,-0.033925
0.07891,0.39363,0.41447,0.36346,0.12009,0.062551,0.036204,0.016153
0.063648,0.1625,0.25414,0.1395,0.086093,0.051882,0.030829,0.05901
-0.044481,-0.13494,-0.57032,-0.22533,-0.041343,-0.075582,-0.052183,-0.038946
0.058608,0.0074456,0.22524,0.21779,0.064783,0.085185,0.036483,0.065192
-0.057523,0.0013919,0.30844,-0.089962,-0.042036,-0.068598,-0.032034,-0.066815
-0.081111,-0.26489,-0.37873,-0.27679,-0.14406,-0.045694,-0.016184,-0.052633
0.026354,0.16765,-0.072686,0.11668,0.055028,0.020631,0.021131,0.0060811
0.12401,0.16537,0.96828,0.59874,0.0865,0.052425,0.025149,0.078409
-0.12394,-0.42754,-0.86394,-0.68733,-0.13491,-0.066687,-0.035091,-0.069308
0.11118,0.17183,0.16031,-0.11974,0.048269,-0.015067,-0.0027087,0.056099
-0.10729,0.083255,0.12396,0.12762,0.036023,0.013578,-0.025269,-0.028661
-0.020468,-0.041875,-1.0686,-0.025157,0.017487,0.0052128,0.031016,-0.017902
0.02116,0.15079,0.88595,0.067715,-0.029327,0.015804,-0.020444,0.0031769
0.057571,0.014901,0.14951,0.47197,0.091951,0.07733,0.055409,0.034934
0.011223,-0.13595,-0.2504,-0.40546,-0.10251,-0.013269,-0.0067137,0.01478
0.015062,0.080946,0.5863,0.21473,0.035706,-0.0065769,-0.0037542,0.028142
-0.07188,-0.26527,0.018055,0.15655,-0.032956,-0.036488,-0.0064734,-0.074261
0.046509,0.25299,-0.76305,-0.33531,0.010913,-0.065289,-0.054677,-0.0043897
-0.013638,-0.0076197,0.58199,0.061941,0.0099013,0.054091,0.061665,0.033599
-0.026935,0.0046097,-0.57724,-0.32789,-0.0060292,-0.03889,-0.017738,-0.047108
0.11487,0.09925,-0.31631,0.23487,0.071201,0.11589,0.057889,0.10445
-0.13602,-0.30436,0.36021,0.038751,-0.11117,-0.083554,-0.063561,-0.0823
-0.11618,-0.2081,0.51899,-0.53219,-0.14013,-0.12943,-0.093264,-0.076019
0.19754,0.64479,0.0090052,0.94626,0.31947,0.17385,0.078221,0.11586
0.031711,-0.034938,0.33667,-0.28891,-0.037627,0.022062,0.052774,0.0017262
-0.066541,-0.33247,-0.81839,-0.31369,-0.13353,-0.029551,-0.0050654,-0.034957
-0.0030115,-0.0275,0.06872,0.25589,0.024048,0.0039311,-0.0010217,-0.017013
-0.034915,-0.0005677,-0.17873,-0.15045,-0.064405,-0.11138,-0.090864,-0.0064527
0.065015,0.1417,-0.072227,0.37263,0.14104,0.093696,0.061714,0.082974
0.024122,0.10536,0.17416,0.28469,0.032211,0.017925,0.027243,0.024845
-0.070842,-0.044244,0.39292,-0.83738,-0.16289,-0.033733,0.0089207,-0.079271
-0.07065,-0.30471,0.22013,-0.25193,-0.044328,-0.029837,-0.047989,-0.049753
0.017568,0.16161,-0.43622,0.33836,0.04554,-0.0093344,-0.018601,-0.01949
0.084923,0.058711,0.61929,0.42711,0.10777,0.066876,0.057903,0.066156
0.076939,0.20681,-0.88791,-0.061807,0.041344,0.0034481,-0.013856,0.058734
-0.061166,-0.20759,-0.50656,-0.45437,-0.083441,-0.0043877,-0.0072887,-0.018307
-0.040711,-0.10808,0.73006,0.25112,-0.0015491,-0.042667,-0.039449,-0.039944
-0.0029034,0.11251,0.92957,0.22743,0.082892,0.052599,0.053948,-0.0061627
-0.010921,0.045595,-0.94057,-0.35364,-0.15164,-0.070172,-0.047143,-0.018524
0.090819,0.18114,0.017413,0.44441,0.17648,0.065617,0.055958,0.063564
-0.22951,-0.70143,-0.11848,-0.59874,-0.29308,-0.16498,-0.089732,-0.11155
0.21512,0.64655,-0.25426,0.65582,0.22814,0.17556,0.1017,0.12003
0.018128,-0.010055,0.67284,-0.34014,0.0055374,0.0012034,-0.03402,-0.023217
-0.1801,-0.57781,-0.40754,-0.32157,-0.17953,-0.078928,-0.020764,-0.0729
0.14371,0.48241,0.097727,0.37608,0.1889,0.090995,0.047147,0.10337
0.083224,0.31935,0.63276,0.0042492,0.040955,-0.013006,-0.018422,0.012979
-0.18187,-0.58217,-0.70234,0.15104,-0.12292,-0.055564,0.00068963,-0.094422
0.036001,0.20032,0.52094,-0.75152,-0.005508,-0.0059141,-0.028767,-0.00028478
0.018282,0.065957,-0.25234,0.47808,0.034038,0.010643,0.0023879,0.021945
-0.023829,-0.17978,-0.35695,-0.10479,-0.051103,-0.013764,-0.022958,-0.011912
0.12091,0.2452,-0.28248,0.75671,0.15302,0.10074,0.075215,0.086005
-0.18782,-0.54897,0.37313,-0.97927,-0.22884,-0.18451,-0.093203,-0.13697
0.089256,0.35231,-0.25364,0.32354,0.11541,0.076287,0.042702,0.069624
0.046041,0.26171,0.69136,0.40213,0.044704,0.047687,0.022568,0.01869
0.002886,0.038418,0.23205,-0.10011,0.035169,0.019161,0.010919,-0.00044201
0.006645,-0.18519,-0.79783,-0.0072095,-0.015062,0.037852,0.015861,0.020164
-0.11458,-0.27671,0.096914,-0.52368,-0.15292,-0.10704,-0.056238,-0.060124
0.092391,0.38876,0.58933,0.1489,0.098426,0.037652,0.013344,0.039862
0.018346,-0.12576,-0.24186,0.077445,0.075559,0.034492,0.029173,0.015333
-0.14891,-0.36595,-0.29361,-0.51269,-0.19713,-0.11641,-0.07922,-0.094712
0.07542,0.23246,0.35981,0.20629,0.01587,0.022648,0.023947,0.03786
0.12927,0.27304,-0.6103,0.95998,0.23913,0.13946,0.080733,0.085001
-0.088551,-0.14865,0.68207,-0.33277,-0.081116,-0.062532,-0.026151,-0.062542
-0.054371,-0.12516,-0.83466,-0.10763,-0.12405,-0.075271,-0.046784,-0.021842
0.036482,0.062372,0.12956,-0.22544,0.040006,0.038846,0.010942,0.02747
0.019656,-0.016825,0.13097,-0.16713,0.027622,0.02188,0.021935,0.0072196
-0.050737,0.048974,0.50584,0.27959,-0.013923,-0.04064,-0.053,-0.043723
0.090103,0.13144,0.10332,0.38853,0.093463,0.092772,0.08282,0.069612
-0.058822,-0.054565,-0.16858,-0.73823,-0.081734,-0.08664,-0.070868,-0.043878
-0.014172,-0.16909,-0.17112,-0.075491,-0.017878,-0.0096463,-0.0065746,-0.0097447
0.10594,0.2379,0.48157,0.72431,0.12729,0.15863,0.1191,0.077716
-0.058503,-0.077521,-0.84967,0.026926,-0.092451,-0.098287,-0.053549,-0.047557
-0.078049,-0.24041,0.25062,-0.76793,-0.15385,-0.10118,-0.063778,-0.034228
0.031942,0.032242,-0.23054,0.24982,0.13125,0.087495,0.049336,0.031825
-0.016836,0.07183,0.68038,0.17202,-0.017045,-0.047261,-0.049905,-0.03652
0.034584,0.038861,-0.3141,-0.12698,0.05945,0.026936,0.029625,0.011401
0.031345,-0.030932,-0.41543,0.41508,0.02698,0.053783,0.038651,0.028016
-0.025132,0.13984,0.59056,-0.22606,-0.08106,-0.074433,-0.053227,-0.024804
-0.0086094,-0.086629,-0.2766,-0.25577,-0.0050465,0.011036,-0.0029662,0.0022257
-0.0041483,0.095625,-0.013342,0.063809,0.0062528,0.022337,0.026083,0.015972
-0.026985,-0.071482,-0.34397,-0.094597,-0.04668,-0.071125,-0.043764,-0.030159
0.055544,0.012017,0.86469,0.18114,0.085812,0.097819,0.053189,0.051225
0.0084021,0.03897,-0.37353,0.089547,0.035413,0.020647,0.027549,0.0018341
0.064902,0.037842,0.38304,0.31134,0.065998,0.055446,0.019244,0.024033
-0.12782,-0.32209,-0.30791,-0.26304,-0.12923,-0.12756,-0.066434,-0.078399
-0.032018,0.0039865,-0.48266,-0.25104,-0.075826,-0.030109,-0.035235,-0.017299
0.11675,0.3116,-0.11427,0.38737,0.12282,0.096267,0.080596,0.081582
-0.10423,-0.18903,0.59912,-0.55547,-0.11265,-0.11672,-0.08691,-0.079125
0.085848,0.20502,-0.11693,0.32519,0.13912,0.088214,0.055529,0.047256
-0.0396,-0.16245,-0.18338,-0.36743,-0.12162,-0.062303,-0.023447,-0.023559
0.074497,0.23214,0.6524,0.6914,0.16855,0.12763,0.074828,0.068126
-0.16492,-0.43917,-0.33212,-0.78112,-0.28589,-0.17698,-0.12571,-0.11472
0.09458,0.2769,-0.56942,0.37042,0.14946,0.11094,0.078763,0.069052
0.057058,0.16962,0.24285,0.45722,0.12455,0.03938,0.017121,0.033993
-0.073523,-0.19813,0.15689,-0.35943,-0.1485,-0.086012,-0.059899,-0.055442
0.015976,-0.11485,0.0053779,-0.13916,0.09665,0.04794,0.043641,0.019761
-0.0022063,0.02188,-0.060146,0.16541,-0.038291,-0.027148,-0.015556,0.0019151
0.043867,0.2209,0.44595,-0.088111,0.024454,0.063791,0.044025,0.02385
-0.041333,-0.20414,-0.08654,-0.1142,-0.043954,-0.070031,-0.050971,-0.055116
-0.0082301,-0.025607,-0.61354,0.33253,-0.041274,-0.014857,-0.0037389,0.0071196
0.041081,0.1323,-0.44423,-0.30747,0.094144,0.057087,0.021487,0.038603
-0.057995,-0.026846,0.86882,0.09437,-0.083645,-0.049823,-0.022401,-0.038845
0.076926,0.20007,0.66307,0.49616,0.089132,0.054818,0.036214,0.048192
-0.030969,-0.1717,-0.5364,-0.37639,0.0032076,-0.0040976,-0.013869,-0.028415
-0.077031,-0.22876,-0.2192,-0.3501,-0.11438,-0.078146,-0.040101,-0.042108
0.032645,0.20001,-0.71702,0.086119,-0.0050864,0.02802,0.019746,0.038332
0.040527,0.074812,0.72661,-0.18048,0.058464,0.025346,0.016942,0.017508
0.0016177,-0.073759,-0.066866,-0.05168,0.014438,-0.00032117,0.013669,0.0046371
-0.021346,-0.074375,0.22629,0.38982,-0.035294,0.0054511,-0.0060408,-0.016134
0.034212,0.095902,-0.24022,0.46525,0.096562,0.034411,0.0043443,0.0095975
-0.089656,-0.26658,0.3057,-0.3117,-0.12983,-0.07029,-0.033602,-0.051292
0.13015,0.45473,0.019456,0.30449,0.19833,0.073482,0.043969,0.058715
-0.08812,-0.20963,-0.64692,-0.6063,-0.21738,-0.097422,-0.06771,-0.051246
-0.018426,-0.19792,0.10127,0.11393,0.051178,0.041512,0.014256,0.017119
0.16691,0.56736,-0.13056,0.4841,0.21371,0.12289,0.086993,0.091917
-0.11046,-0.33584,0.56521,-0.46616,-0.1288,-0.087497,-0.036592,-0.061083
-0.092619,-0.16489,0.093382,-0.73497,-0.17924,-0.12815,-0.074716,-0.066563
0.049054,0.12835,0.19983,0.48754,0.032282,0.07219,0.051353,0.05253
0.041947,-0.032148,-0.38722,0.31823,0.077955,0.053757,0.014109,0.0077616
-0.050399,-0.12813,0.051721,-0.1253,-0.07115,-0.057191,-0.029635,-0.043931
0.02308,0.12443,-0.30255,0.35174,0.15761,0.060784,0.022115,0.023099
-0.033623,-0.092455,-0.017722,-0.30825,-0.10103,-0.036832,-0.017897,-0.0094124
0.045603,0.16009,0.11424,0.23238,0.021258,0.009682,0.0065918,0.022827
0.09668,0.13211,-0.063369,0.07352,0.1262,0.082981,0.04849,0.049412
-0.091856,-0.099636,0.013683,-0.1643,-0.076025,-0.10661,-0.0645,-0.062888
0.033745,0.040421,0.17672,-0.25307,-0.016666,0.033695,0.026432,0.029
-0.066741,-0.14624,0.32805,-0.14518,-0.096147,-0.028457,-0.015276,-0.027313
0.058655,0.14967,-0.083239,0.34011,0.089718,0.057406,0.036344,0.03297
-0.044127,-0.16036,-0.38222,-0.037184,-0.023367,-0.029919,-0.014497,-0.017402
-0.070962,-0.14026,-0.043508,-0.28107,-0.092917,-0.087884,-0.050906,-0.061675
0.13427,0.26456,-0.61342,0.48126,0.18516,0.12549,0.059847,0.087532
-0.029715,-0.12448,0.91493,0.022897,-0.017184,0.0009879,-0.0024272,-0.022713
-0.077984,-0.07887,0.11728,-0.54547,-0.20709,-0.13285,-0.06557,-0.063844
0.021398,0.1614,0.27135,0.45087,0.10089,0.060524,0.011408,0.027217
0.042502,-0.089313,-0.42378,0.26594,0.072056,0.066088,0.056989,0.040118
0.03264,0.076226,-0.46402,-0.54852,-0.0033506,-0.014072,-0.006687,-0.0012349
-0.039278,-0.014009,0.46841,-0.30763,-0.085368,-0.070253,-0.031061,-0.010634
0.029751,0.091823,-0.24437,0.40754,0.092121,0.085153,0.061965,0.035404
0.044096,0.14943,-0.40564,-0.11793,0.021352,0.0067414,-0.0011834,0.011731
-0.066941,-0.17949,0.90193,0.18065,-0.055836,-0.032269,-0.048802,-0.050655
-0.061478,-0.20946,-0.65309,0.30343,-0.022875,-0.032133,-0.018509,-0.034833
0.036931,0.13659,0.44988,-0.19679,-0.0054947,-0.016488,-0.0040654,0.012127
-0.091907,-0.2974,-0.073639,-0.20619,-0.066879,-0.047935,-0.0366,-0.050481
0.18515,0.43541,-0.11076,0.65399,0.22216,0.1626,0.11848,0.13674
-0.10019,-0.30305,-0.050044,-0.90897,-0.20113,-0.12696,-0.085434,-0.074538
0.10724,0.37318,0.10901,0.17283,0.14773,0.11477,0.078426,0.073613
-0.090601,-0.20464,0.1311,0.086305,-0.1059,-0.080814,-0.053883,-0.067131
0.0019022,-0.010391,-0.54057,-0.057873,0.0073544,0.012946,0.0098135,-0.0045034
-0.0057422,0.02802,0.82557,0.21177,-0.01173,-0.010137,-0.0040621,-0.0040893
-0.035417,-0.14341,-0.69551,-0.28113,-0.037394,-0.025055,-0.017622,-0.019012
0.0768,0.19362,0.2993,0.060165,0.071591,0.038463,0.03135,0.044439
0.018156,0.061077,-0.48194,0.33897,0.081149,0.031896,-0.0058656,0.014309
-0.031995,-0.027657,0.54424,-0.046304,-0.024429,0.0020053,0.01113,-0.00014525
-0.074041,-0.26273,-0.40541,0.042991,-0.10499,-0.066963,-0.042801,-0.045942
0.047856,0.12661,0.44117,-0.052957,0.041795,0.020174,0.027623,0.017397
0.012976,0.036409,0.48183,-0.38551,-0.030369,-0.017952,-0.011904,0.0022464
-0.015005,-0.043001,-0.47046,0.064243,-0.002191,-0.0095799,-0.020615,-0.013352
0.049511,0.14505,-0.17163,0.30815,0.11762,0.068617,0.03291,0.033073
0.010945,-0.0013618,-0.50903,0.22672,-0.0075122,0.029021,0.031641,0.0087363
-0.099599,-0.31781,-0.032855,-0.72744,-0.15909,-0.10504,-0.055563,-0.078469
0.092889,0.36079,0.24616,0.43925,0.10056,0.080436,0.052598,0.076267
-0.036395,-0.16716,0.59019,-0.19987,-0.0013946,-0.016117,-0.018875,-0.011282
-0.08082,-0.11862,0.35354,0.031205,-0.11245,-0.082078,-0.059074,-0.051897
0.030457,0.039454,-0.73676,-0.073867,0.026361,0.023421,0.017917,0.017066
0.15743,0.37118,-0.20625,0.45021,0.19742,0.11324,0.087098,0.094163
-0.11333,-0.24724,0.69082,-0.08829,-0.10608,-0.093448,-0.062419,-0.078324
-0.03127,-0.13536,-0.54352,-0.14783,-0.039716,0.0053767,-0.0086649,-0.0081435
0.036876,0.1524,-0.31397,0.046348,0.045295,0.027306,0.014125,0.015694
0.0054362,0.037817,0.53775,-0.13836,-0.022943,-0.019545,-0.017324,-0.0067771
0.015112,-0.088925,0.15571,0.05516,0.044317,0.029037,0.029956,0.010395
-0.067045,-0.087842,0.20185,-0.49961,-0.10504,-0.05356,-0.031432,-0.042195
0.032054,0.063696,-0.22171,0.57003,0.028296,0.0058378,0.0094636,0.038475
-0.024069,-0.080567,-0.65839,-0.23895,-0.040874,-0.012004,-0.019348,-0.02123
0.068581,0.22051,-0.18039,0.46037,0.085025,0.071938,0.038127,0.044019
0.0045515,-0.026333,0.4777,0.2108,0.061369,0.014707,0.017452,0.0072891
0.025291,0.13882,0.72997,-0.3353,0.02798,0.010853,0.011933,0.0088206
-0.072916,-0.23792,-0.83092,-0.53264,-0.13296,-0.073054,-0.041359,-0.053267
-0.016963,-0.078804,0.03359,0.023307,-0.023379,-0.034232,-0.025561,-0.015081
-0.017798,-0.071256,0.15248,0.56688,0.067687,0.025774,0.012318,0.01404
-0.0047961,0.019616,0.36682,-0.60332,-0.093739,-0.025462,-0.0057526,-0.0047122
0.06948,0.28052,-0.032232,0.6408,0.11808,0.070566,0.037734,0.03066
-0.013029,-0.076775,-0.020958,-0.24365,-0.04589,-0.021208,-0.012975,-0.019932
-0.0016419,0.010888,-0.14625,-0.096171,-0.022138,-0.0030222,-0.024482,-0.0075077
0.041695,0.043942,-0.2193,0.34499,0.080877,0.016504,0.0116,0.04494
-0.031107,-0.063353,-0.048749,-0.18257,-0.0096071,-0.0011951,0.025415,-0.010752
-0.063685,-0.18593,-0.24476,-0.27042,-0.11356,-0.071573,-0.053091,-0.049526
0.014169,0.059064,0.3198,-0.050443,0.026816,0.039573,0.026094,0.014391
0.053729,0.077975,-0.13999,0.11756,0.075232,0.058334,0.043973,0.032207
0.015533,0.074081,0.24786,0.067707,0.023276,0.015282,0.0079082,0.011252
-0.038361,-0.061808,-0.059443,0.34385,-0.020402,-0.051275,-0.043612,-0.025566
0.024453,0.029838,0.010732,-0.0031948,0.021634,-0.0013907,0.0060199,0.0072129
-0.046316,-0.041523,0.70076,-0.20405,-0.10894,-0.038673,-0.031169,-0.023568
0.014827,-0.010293,-0.24883,-0.21538,0.0095383,-0.0070739,0.00078807,0.0069464
-0.0030067,-0.0094382,-0.48907,0.14014,0.01778,0.030994,0.02371,0.0050832
-0.0058518,-0.062681,-0.20207,-0.27102,-0.013549,-0.010086,-0.024746,-0.021064
0.061305,0.17332,-0.25625,0.1693,0.05665,0.057639,0.058861,0.053935
-0.074601,-0.083175,0.35672,0.064985,-0.021174,-0.046613,-0.037567,-0.050679
0.047714,0.089187,0.51402,0.13783,0.065758,0.044731,0.030126,0.024934
-0.032421,-0.12252,-0.20295,-0.10135,-0.073147,-0.043085,-0.026769,-0.02356
-0.0023574,-0.062305,-0.57189,-0.32211,-0.0084175,-0.028734,-0.043937,-0.0006704
0.075424,0.18395,0.22255,0.44545,0.087673,0.072098,0.064687,0.070147
-0.041353,-0.078696,0.17401,0.18557,-0.035338,-0.021995,-0.013395,-0.022248
-0.040351,-0.052686,0.60246,-0.46229,-0.080973,-0.022141,-0.0048581,-0.035998
0.00011995,-0.033981,-0.3847,0.32048,-0.0025808,-0.014438,0.0041671,-0.010545
0.040831,0.12686,0.10001,0.32142,0.082661,0.040087,0.013449,0.014701
-0.012081,-0.038008,-0.64995,-0.67115,-0.028134,-0.014805,-0.024109,0.0082505
-0.033667,-0.10605,0.057878,-0.37557,-0.045499,-0.030569,-0.014923,-0.022178
0.038583,0.079271,0.034384,0.30336,0.038852,0.032036,0.017486,0.017223
0.0094175,0.11153,0.56855,0.14888,0.014414,-0.014281,-0.005003,0.0016436
-0.019512,-0.10357,-0.56477,0.06112,-0.001321,0.025983,0.019255,0.0016693
0.045649,0.23,0.56669,0.37663,0.038644,0.012328,0.0044527,0.025417
-0.08407,-0.34182,0.15373,-0.42903,-0.068883,-0.055214,-0.041455,-0.051838
0.021079,0.039449,-0.57354,0.26648,0.027442,0.018589,0.030088,0.012286
0.0017104,0.0058911,-0.32283,0.15473,0.022625,0.022612,0.0082076,0.006916
-0.017291,-0.075871,0.23632,-0.38539,-0.091479,-0.043431,-0.044613,-0.02116
0.10446,0.33276,-0.098368,0.33062,0.12232,0.085734,0.066835,0.076245
-0.055283,-0.19056,0.27355,-0.51088,-0.094026,-0.06684,-0.04045,-0.045008
-0.090724,-0.16198,0.45036,-0.3462,-0.1001,-0.064024,-0.030781,-0.049459
0.091414,0.25389,0.020673,0.49213,0.15082,0.086056,0.048687,0.05459
0.14699,0.36911,-0.052948,0.32941,0.20551,0.11757,0.064883,0.079226
-0.1742,-0.50397,-0.1516,-0.34453,-0.1861,-0.13361,-0.083952,-0.10081
-0.12213,-0.28694,-0.79574,-0.12649,-0.19587,-0.11271,-0.069781,-0.071495
0.10818,0.24762,-0.33184,0.70542,0.16852,0.11801,0.076182,0.073604
-0.0061741,0.0072277,0.74756,-0.52762,-0.077041,-0.027003,-0.013087,-0.0088767
