0.33161,-0.025547,-0.035511,-0.01871,-0.0020152,-0.0021999,-0.005855,0.085748
-0.47376,-0.044757,-0.053394,-0.035226,-0.040618,-0.017689,-0.045441,-0.17126
0.062998,-0.033438,0.0063146,0.0023575,-0.00141,0.029251,0.07826,0.26776
0.12114,0.055705,0.019131,0.0084737,0.0062849,-0.025356,-0.079886,-0.20691
-0.049395,0.012264,0.079288,0.030432,0.013819,0.006068,0.027304,-0.0098758
0.020442,0.016484,0.023085,0.013947,0.013511,0.01421,0.0095817,0.13164
0.073413,-0.040512,-0.094599,-0.048506,-0.041385,-0.024332,-0.046739,-0.072058
0.071206,0.08383,0.062203,0.046306,0.036722,0.015439,0.093016,0.027024
-0.20408,-0.094673,-0.045655,-0.022008,-0.0099416,0.00067652,-0.024105,-0.032163
0.053117,0.03336,0.027014,0.035372,0.021722,0.017251,0.00035576,0.078828
0.031192,-0.016615,-0.087107,-0.047531,-0.024617,-0.03649,-0.052472,-0.18611
0.066923,0.0050752,0.025929,-0.005474,-0.0084478,0.011231,0.035937,0.19759
-0.049894,-0.019218,0.030044,0.0049475,-0.0002019,0.0040672,-0.039388,-0.23751
-0.014038,0.042749,0.026586,0.006914,0.0078315,-0.011188,0.033759,0.080151
-0.31749,-0.020602,0.007412,0.023723,0.015588,0.035721,0.036359,0.13584
0.39889,-0.014615,-0.03575,-0.030582,-0.01601,-0.019288,-0.063052,-0.015445
-0.021967,0.067924,0.084068,0.015961,0.0068228,-0.0043137,0.040076,-0.038133
0.01233,-0.015621,-0.071138,-0.00054367,-0.0017675,-0.0052152,-0.0058676,0.035502
-0.023499,-0.023275,0.029529,0.006057,0.005215,0.025014,0.041347,0.17273
-0.10027,0.021616,0.018796,0.0047378,-0.018965,-0.038456,-0.13066,-0.34688
0.022235,-0.099289,-0.17341,-0.05899,-0.011677,-0.007947,0.056392,0.037651
0.11595,-0.0025088,0.054996,0.033763,0.019365,0.022941,0.016736,-0.026435
-0.15581,0.0080672,0.064111,0.025238,0.027318,0.015225,0.0082957,0.093007
0.0040305,0.058204,-0.020331,-0.014297,-0.02692,-0.007676,0.070178,0.13803
0.096665,0.078159,0.06789,0.024405,0.012792,0.0088007,-0.055455,-0.062859
0.022565,0.036961,0.063493,0.00054773,-0.0021383,0.0097552,0.0063447,0.10049
-0.14536,-0.10448,-0.064687,-0.023533,-0.0015574,-0.020692,-0.033512,-0.23796
0.072196,-0.049518,-0.043311,-0.024493,-0.016835,-0.035903,-0.042165,-0.069074
-0.11139,0.021813,-0.028789,0.013317,0.0066724,0.034269,0.043025,0.19453
0.15712,0.015475,-0.0055847,0.011926,0.014327,0.017898,-0.0043048,-0.17242
-0.090465,0.017237,0.041971,0.0028457,-0.0093574,0.0010029,0.003549,0.19827
0.12168,-0.051047,-0.065639,-0.021418,-0.017303,-0.031834,0.035469,0.049309
0.15099,0.0607,0.078041,0.0019319,0.0063314,-0.010003,0.036778,-0.095841
-0.13044,-0.08493,-0.058126,0.010598,0.01485,0.027764,-0.078601,0.098307
-0.24155,0.051128,0.049188,0.020252,-0.0072867,-0.027615,-0.0062439,-0.16589
0.1113,0.062455,0.032384,-0.00049706,0.010193,0.019359,0.026944,-0.0065199
0.0036719,-0.035696,-0.03893,-0.02071,-0.0032007,0.020268,0.020606,-0.010428
0.035593,0.0061386,0.029652,0.013869,-0.00088671,-0.0094253,-0.02557,0.04812
0.073991,0.0076705,0.01845,0.0090183,0.0089658,0.0080737,-0.018045,0.019924
-0.051964,0.0074384,-0.0029617,-0.0044298,0.0025685,-0.013604,0.0040312,-0.080144
0.081816,-0.10423,-0.097439,-0.026758,-0.012537,0.011034,0.025081,0.083067
-0.099718,0.078931,0.02423,0.0044362,-0.0052327,0.0035097,0.021836,0.20406
-0.25713,-0.028618,-0.043551,-0.027942,-0.022353,-0.036359,-0.036689,-0.24132
0.1442,-0.019932,0.020571,0.024789,0.01443,0.01647,0.029511,0.19956
0.28664,0.027759,0.06155,0.0067036,-0.0039371,-0.033053,-0.060482,-0.26241
-0.25804,0.029441,0.025802,0.03531,0.024481,0.034252,-0.04075,-0.1345
0.10391,-0.014093,-0.078093,-0.037581,-0.0093448,0.00014413,0.12017,0.30315
0.089669,-0.00075525,0.10952,0.045982,0.019841,0.013543,-0.015122,-0.041605
-0.16289,-0.00067198,-0.044411,-0.049904,-0.01283,-0.011132,-0.0013141,-0.08099
0.23344,0.032871,0.037558,0.034101,0.0020247,0.0044115,0.013083,0.06961
0.064438,-0.0021397,-0.090831,-0.030183,-0.0060042,0.021069,-0.034509,0.083563
-0.42231,-0.082916,-0.016523,-0.024034,-0.021447,-0.031702,-0.05036,-0.28034
0.28788,0.039811,0.04086,0.044764,0.010211,0.0098011,-0.0031382,0.23608
-0.35888,-0.0253,-0.075542,-0.050274,0.0028755,0.0045368,0.12295,-0.06271
-0.063311,0.064885,0.16525,0.058142,0.026739,-0.0010163,-0.062503,0.25225
0.43582,-0.026047,-0.1039,-0.020521,-0.027649,-0.054052,-0.11405,-0.30443
-0.11565,-0.017146,0.031407,0.010653,-0.004071,0.032721,0.069842,-0.022917
0.011791,0.02897,-0.061085,-0.028052,0.011538,0.032652,0.059196,0.127
0.069662,-0.043881,-0.021314,0.003891,-0.012043,-0.015179,-0.037206,-0.12901
-0.043935,0.05361,0.21398,0.05166,0.018987,-0.0012845,0.037613,-0.096501
-0.14374,-0.02971,-0.12005,-0.01769,0.010945,0.02765,0.024911,0.051752
0.18834,0.050459,0.00081738,-0.0011066,0.0029776,-0.014053,0.23639,0.28335
0.033589,-0.088054,-0.06334,-0.039191,-0.036061,-0.032324,-0.42993,0.050002
0.004502,0.00073474,-0.10879,-0.030244,-0.020116,-0.01118,0.033917,-0.095232
-0.13712,0.090881,0.22424,0.07283,0.050923,0.034115,0.011501,-0.37262
-0.12009,-0.074964,-0.10325,-0.05786,-0.033804,-0.02895,0.019693,0.36521
0.16475,0.019042,0.056771,0.038778,0.014765,0.0029276,0.09899,0.071213
-0.27295,-0.095963,-0.10911,-0.027899,-0.0065961,0.043804,-0.0071566,-0.11303
0.19536,0.14206,0.061728,0.015294,0.011262,-0.023725,0.0067016,-0.27907
-0.16789,0.037025,0.067457,0.066303,0.028949,0.018675,0.0078171,0.037263
0.48595,-0.052669,0.0076687,-0.055225,-0.039857,-0.0092303,0.050238,0.20697
-0.096534,0.036059,0.16183,0.064061,0.038857,0.024789,-0.039073,-0.24272
-0.060411,-0.0257,-0.23693,-0.052991,-0.016414,-0.051634,0.011957,0.40216
-0.25528,-0.18365,-0.17339,-0.070752,-0.04168,0.011199,-0.079122,-0.13003
0.069348,0.1717,0.13432,0.065552,0.033526,0.017941,-0.00052454,0.043714
-0.024945,-0.068414,-0.046638,-0.057644,-0.040421,-0.062422,-0.064802,-0.093539
0.006589,0.0032667,0.098465,0.0058159,0.010452,0.028384,0.0646,0.04165
0.19214,0.10668,0.064362,0.046023,0.03049,0.025318,-0.0096464,0.078978
-0.096917,-0.0539,0.040985,0.040559,0.0046089,0.0070844,0.034075,-0.14874
0.24507,-0.001016,-0.094704,-0.056633,-0.012127,-0.010231,-0.014009,-0.11285
-0.23834,-0.046675,-0.013329,0.028359,0.011677,0.028317,0.049961,-0.080707
-0.033896,0.066948,0.012095,0.0065333,0.013418,-0.010064,0.093316,0.33751
-0.22862,-0.027795,-0.042276,-0.013075,-0.022851,-0.031814,-0.15784,-0.38945
0.20915,-0.027074,-0.029165,-0.015502,-0.0038428,0.0096004,0.076804,0.64519
0.0077732,0.060174,0.080902,0.029649,0.023055,0.020023,-0.047675,-0.43286
0.2014,-0.06414,-0.050214,-0.058214,-0.051999,-0.047811,-0.071507,-0.099441
-0.25335,0.036364,0.075114,0.0091543,0.012834,0.040171,0.10594,0.18512
0.19401,0.071776,0.03276,0.051448,0.022051,-0.013076,-0.10182,0.18698
-0.12524,-0.059901,0.063114,0.013633,0.014696,0.018982,0.10977,-0.15581
-0.052587,-0.1008,-0.1786,-0.057456,-0.016918,-0.011989,-0.063712,-0.24875
-0.10265,-0.026945,-0.098647,-0.02093,-0.017862,-0.027659,-0.012371,0.34667
0.23192,0.15478,0.16341,0.061237,0.019987,0.042537,0.16291,-0.27455
-0.23059,0.00020325,-0.023202,-0.013365,0.0032134,-0.035529,-0.19343,0.17017
0.47519,-0.044173,-0.015127,-0.017369,0.002443,0.0039531,0.036361,-0.3182
-0.022305,-0.032019,-0.012532,0.0031298,-0.013314,-0.010809,-0.030118,0.065314
-0.43094,0.092065,0.018511,0.040967,0.026429,0.10765,0.16981,0.19485
0.20579,-0.13255,-0.13104,-0.090947,-0.050133,-0.078317,-0.1217,0.15418
-0.3734,0.11433,0.22706,0.06843,0.022571,-0.022044,0.032668,-0.0053101
-0.014263,-0.074073,-0.079674,-0.035828,-0.013458,0.010617,0.015502,0.30622
0.39228,-0.058011,0.048413,0.0097696,-0.0022876,-0.035211,-0.13434,-0.57894
0.55087,0.20832,0.07719,0.071576,0.063474,0.090362,0.17682,0.21183
-0.56651,-0.088731,-0.059193,-0.023257,-0.019776,-0.057999,-0.074371,-0.36082
-0.080087,0.05764,0.042314,0.052439,0.028753,0.011951,-0.067385,0.19758
-0.069836,-0.15019,-0.28483,-0.12398,-0.06473,-0.019993,0.026196,0.087052
0.16611,0.021781,0.028336,-0.045161,-0.019146,0.018168,0.034749,-0.037496
-0.6472,-0.16078,-0.049525,-0.023692,-0.014129,-0.014095,-0.033811,-0.051814
0.22958,0.13845,0.15452,0.096933,0.0209,0.016066,0.14071,-0.051176
0.34594,0.24037,0.25956,0.082843,0.039492,-0.0085712,-0.10611,-0.17985
0.62322,-0.049598,-0.16175,-0.010628,0.034341,0.044712,0.061126,0.53975
-0.40337,-0.12132,-0.028845,-0.04998,-0.040931,-0.027322,-0.116,-0.19964
-0.060761,-0.013037,0.043419,0.012344,0.0016082,0.017436,0.0495,0.17421
-0.068142,0.0027037,-0.13824,-0.049561,-0.025216,-0.047554,0.018254,0.1296
-0.22288,-0.065329,-0.056568,-0.024141,0.0038078,-0.0112,-0.014432,0.024739
-0.00054409,-0.036513,0.094281,0.034469,0.010648,0.009602,-0.0091858,-0.53896
0.040066,-0.0038487,-0.028914,-0.013936,-0.0047091,-0.0082007,-0.012314,0.0035791
0.26534,0.25177,0.1674,0.05742,0.03575,0.052982,0.023783,0.18994
-0.29883,-0.14489,-0.17713,-0.040599,-0.024421,0.0059858,-0.0017212,-0.50859
-0.1005,0.03186,0.092003,0.019731,-0.013606,-0.016189,0.0055241,0.49195
0.20281,-0.0007363,-0.011926,-0.012304,-0.018045,-0.029169,0.014612,-0.19128
-0.13999,-0.018014,0.047496,0.034222,0.032253,-0.001912,-0.036946,0.19961
0.30636,-0.037595,-0.052647,-0.013608,-0.0036529,-0.01293,-0.0088633,-0.0087242
0.10787,0.048157,-0.017633,-0.000514,0.014576,0.062257,0.059171,0.21059
-0.21889,0.027155,-0.0050609,-0.020967,-0.0070347,-0.011305,0.049161,0.052887
0.18397,0.016256,0.070695,0.010635,0.009504,0.0080203,-0.07098,-0.0084598
-0.47599,-0.16365,-0.10988,-0.038396,-0.021764,-0.005198,-0.0050825,-0.0023014
0.28128,0.012276,0.017489,0.012188,-0.022606,-0.074637,-0.058275,-0.6693
0.11561,0.0069279,-0.044752,0.007027,0.0071978,0.018446,-0.050981,0.25045
0.1019,-0.0056874,-0.028319,-0.037205,-0.0023687,0.00082419,0.11076,0.16705
-0.40199,0.12475,0.069162,0.052363,0.050573,0.060375,0.075854,-0.030406
0.22935,0.15733,0.15559,0.073358,0.010049,0.010055,-0.061351,0.19827
-0.1582,-0.14187,-0.041838,-0.067598,-0.053441,-0.040314,-0.01897,-0.24504
-0.38176,-0.13259,-0.039176,-0.026823,-0.014829,-0.027868,-0.022991,0.06659
0.29625,0.11383,0.03726,0.031143,0.032073,0.024185,0.052038,-0.071975
0.1514,-0.12281,-0.08781,-0.03511,-0.014477,0.022182,-0.067037,0.016628
0.19174,0.085644,0.0055641,0.031288,0.017126,-0.026118,-0.059814,-0.14774
0.30582,-0.027771,-0.098277,0.002844,0.017191,0.043197,0.22203,0.56216
-0.09626,0.11413,0.091881,0.011618,-0.0067644,-0.035699,-0.16714,-0.37734
-0.30075,-0.0281,0.02112,-0.013135,-0.00026421,0.010447,0.10036,0.35144
-0.14043,-0.071443,-0.013208,-0.032381,-0.033685,-0.029423,-0.077586,-0.52966
-0.087117,-0.062022,-0.0022958,0.008965,-0.0053439,0.0087229,-0.0061809,0.14516
-0.086717,-0.014327,0.01606,0.017923,0.014748,-0.0078624,0.017295,-0.13064
-0.043391,0.049483,-0.042827,-0.035747,0.0035933,0.022513,0.016063,0.43372
0.28156,0.044608,0.048596,0.013091,0.0085718,0.014063,0.060453,-0.12746
-0.01254,-0.0047751,-0.029432,-0.006502,-0.01672,-0.025276,-0.14615,-0.25442
-0.17001,0.17496,0.11374,0.070159,0.045255,0.045187,0.1389,0.28705
0.54821,-0.17437,-0.1083,-0.045805,-0.047534,-0.055811,-0.14631,-0.14892
0.16077,0.016717,-0.02454,0.0046893,0.0095295,0.023204,0.069124,0.060022
-0.63593,-0.065307,0.0045498,0.025618,0.0052125,-0.022603,0.012285,-0.18828
0.079402,0.0082419,0.048175,-0.03089,0.0015351,-0.005913,-0.019646,-0.010485
-0.32009,0.033488,0.05071,0.029393,0.029158,0.065273,0.15309,-0.093664
0.29586,-0.021186,-0.097827,-0.044504,-0.045334,-0.051391,-0.14936,0.29561
0.25252,0.070839,-0.0148,0.020183,0.03536,0.034619,0.033639,0.02098
-0.24979,-0.049376,0.050077,-0.018992,-0.025965,-0.02045,0.014217,-0.057322
0.40348,0.032937,0.019386,0.010041,0.012797,0.0022602,-0.059485,0.11252
-0.61031,-0.079831,-0.058992,-0.032749,-0.020044,-0.022027,-0.015775,-0.022624
-0.0040979,-0.0040726,-0.01204,0.0097494,-0.014696,-0.014884,-0.03441,-0.14338
0.1189,0.11238,0.13007,0.06036,0.021599,0.0083878,0.079902,-0.05649
0.35115,-0.06612,-0.17871,-0.03632,-0.0043004,0.04024,0.077101,0.23638
0.34032,0.085363,0.13237,0.032796,0.033127,0.010487,-0.019565,0.32146
-0.54655,-0.13673,-0.085181,-0.083635,-0.061102,-0.065312,-0.10889,-0.79002
-0.17587,0.032527,0.09781,0.082969,0.056834,0.039139,0.019587,0.10453
0.25885,0.092265,-0.0070564,-0.0069628,0.011744,0.026528,0.029375,0.063188
-0.4739,-0.02867,-0.0024436,0.036467,0.01416,0.029146,0.15438,0.12385
0.27002,-0.018448,-0.030054,-0.060969,-0.045807,-0.055072,-0.16037,-0.13439
0.2443,-0.072749,-0.059472,-0.026521,-0.028038,-0.038992,-0.039854,0.2822
0.13175,0.019382,-0.028612,-0.009074,0.012401,-0.0008864,-0.030588,0.014912
-0.45627,0.023963,0.093864,0.022492,0.0050169,0.020289,-0.0069004,-0.17997
0.23066,0.066699,0.035086,0.060557,0.027981,0.048313,0.18053,-0.088217
0.019445,-0.070284,-0.079003,-0.066304,-0.027836,-0.033491,-0.053298,0.35273
0.0012369,-0.011089,0.049607,0.025324,0.017626,0.0020195,-0.012233,-0.08662
0.086641,0.034108,-0.070157,-0.023317,-0.014905,-0.0086694,-0.039422,0.065102
-0.2123,-0.035762,-0.015536,-0.00078321,-0.0078818,-0.002628,-0.040822,-0.38605
0.29681,0.084144,0.088934,0.046338,0.031111,0.043827,0.022569,0.22516
-0.1298,-0.075129,-0.038061,-0.030381,-0.022879,-0.056771,-0.037153,-0.11495
-0.19513,0.079652,0.079425,0.026597,0.033126,0.046967,0.27932,-0.17651
-0.092597,0.0086876,0.057507,0.029272,0.0035089,-0.0046763,-0.2242,0.35024
0.016894,-0.21073,-0.26141,-0.10892,-0.049631,-0.048087,-0.064279,-0.27794
0.17606,0.11589,0.12132,0.041105,0.013924,0.041254,0.039504,0.44722
-0.041706,0.089407,0.040502,0.049169,0.014159,-0.0027184,0.070921,-0.066363
-0.1895,0.0061496,0.10485,0.040041,0.02121,-0.00066018,0.0062589,-0.40208
0.24771,-0.11862,-0.11541,-0.087774,-0.043041,-0.046529,-0.12315,0.14637
0.32957,-0.05071,-0.1823,-0.076104,-0.022153,0.039303,0.13627,0.14501
0.32491,0.069243,0.030145,0.044394,0.021712,0.0069175,-0.04292,0.034969
-0.68558,0.12419,0.17937,0.047851,0.01865,0.0049462,-0.011375,-0.078723
-0.011146,0.01288,0.032181,0.0521,0.039378,0.01804,-0.041601,-0.34933
-0.029342,-0.092329,-0.082424,-0.051774,-0.056406,-0.055046,-0.031197,0.17849
-0.29461,-0.065734,0.015679,0.0020437,0.00493,0.004761,0.14545,0.021466
0.11804,0.062342,0.084264,0.041577,0.035933,0.025874,-0.019184,0.52326
0.096788,-0.12107,-0.025522,-0.035073,-0.033799,-0.030554,-0.13455,-0.47368
0.038563,0.072688,-0.09553,-0.025255,0.014289,0.054339,0.11142,0.18464
0.0038978,0.03526,-0.071653,-0.031028,-0.038808,-0.039764,-0.024108,-0.1607
0.55158,0.11112,0.10822,0.095624,0.072267,0.05421,0.10653,0.15178
-0.19178,-0.074453,-0.0013723,-0.067455,-0.058981,-0.070187,-0.15364,-0.020493
-0.19592,-0.060753,-0.056559,-0.020384,0.0047588,0.016501,0.015197,-0.37385
-0.026346,-0.043801,-0.033655,-0.0053205,-0.010071,0.0015551,-0.0043906,-0.080246
-0.077779,0.09252,0.15356,0.087254,0.044924,0.0098177,-0.0092079,0.39998
0.098808,0.065692,-0.002542,0.0075575,0.013532,0.041225,0.055726,0.19261
-0.21073,-0.078689,-0.0096856,-0.033209,-0.033822,-0.052616,-0.074817,-0.28003
-0.12538,-0.029225,-0.055409,-0.011309,-0.0032024,-0.0059265,0.11514,0.013063
0.23736,0.017982,-0.0069756,-0.035798,-0.011556,0.0018327,-0.030454,0.023933
0.1049,-0.015588,-0.036316,0.018652,0.011696,0.002166,0.035241,0.28989
0.0021065,-0.051829,0.036257,-0.019546,-0.026958,-0.0047127,-0.12553,-0.22234
-0.0071156,0.042349,-0.062666,0.0060391,0.013266,0.028179,0.041505,-0.20205
0.015574,-0.021678,-0.075289,-0.0061521,0.0073817,-0.0007685,0.051489,0.0059475
-0.031425,0.24093,0.31073,0.099899,0.048984,0.0019792,-0.0022634,0.44078
-0.11787,-0.20849,-0.14713,-0.051278,-0.018496,-0.0029966,-0.034101,-0.56816
-0.16747,-0.010242,0.019373,-0.0072068,-0.015799,-0.023939,-0.036266,-0.0029012
0.17679,-0.023467,-0.057519,-0.010792,0.0019429,0.024673,0.10083,0.37393
0.33439,0.080219,0.043631,0.0076486,-0.0046888,-0.0058988,-0.083246,-0.075101
0.084691,0.004275,0.018003,0.0086516,-0.012429,0.001422,0.045018,0.13718
-0.29184,0.014791,-0.048143,-0.015657,0.0022192,0.015515,-0.02916,-0.1825
-0.10687,-0.043885,-0.021186,-0.025904,-0.022953,-0.049192,-0.015892,0.19342
-0.060901,-0.077326,-0.040547,0.001987,0.021887,0.010975,-0.00045414,-0.3914
-0.18094,-0.022396,-0.01111,-0.0092745,0.0044453,-0.0143,-0.029376,0.0072382
-0.039949,0.035406,-0.0097954,-0.019779,-0.0045095,0.0083551,0.12383,0.25452
0.16403,0.11958,0.11254,0.057074,0.003117,0.016796,-0.017957,-0.027194
0.33327,0.018763,0.043353,0.05754,0.027361,0.026694,-0.057251,0.018542
0.071066,-0.010161,0.00047861,-0.026299,-0.0023122,0.014312,0.012514,0.25606
-0.0062696,-0.062264,0.052579,-0.0074422,-0.0082051,-0.013144,-0.020911,-0.25446
0.090207,-0.12341,-0.16182,-0.050724,-0.0064737,-0.0095823,0.021014,-0.084672
-0.47253,0.14878,0.034847,0.0305,0.0023802,0.016401,0.06722,-0.11753
0.16721,0.11269,-0.0075624,-0.0066882,-0.013239,-0.045171,-0.093431,-0.11757
-0.31586,-0.15391,-0.032171,0.0013334,0.0090702,0.00074596,-0.030821,0.14383
-0.011292,-0.064725,0.031363,-0.023607,-0.032068,-0.017592,0.037337,0.18482
0.53232,-0.0015392,0.0043405,0.0047819,0.0044059,0.017512,0.026593,0.27351
0.073017,0.084067,0.036957,0.0090484,0.025334,-0.0025451,-0.022279,-0.28344
-0.19191,-0.063984,-0.12641,-0.041219,-0.015544,-0.0065923,-0.029522,-0.0082774
-0.64987,0.05587,0.086783,0.065727,0.030701,0.052999,0.045188,-0.08809
0.66392,-0.031894,0.0064836,-0.021082,-0.023181,-0.018604,-0.055314,0.054961
-0.15302,0.071439,-0.014624,0.02671,0.01806,-0.0025407,0.098545,-0.119
0.1758,0.099684,0.11743,-0.0098383,0.0056033,0.022786,-0.0019275,0.091947
-0.19161,-0.14376,-0.043366,-0.014131,-0.022127,-0.036969,-0.014493,0.022264
-0.03629,-0.043449,-0.068722,0.0051447,0.012213,0.00492,-0.0035224,-0.15786
0.17951,0.11755,0.055174,0.031388,0.021915,0.038294,-0.017784,0.26852
0.093886,-0.10757,-0.056306,-0.037838,-0.040501,-0.05466,0.0036638,-0.00498
-0.24169,0.092821,0.071948,0.054704,0.035588,0.030409,-0.049495,-0.010979
0.075825,-0.10942,-0.15463,-0.10519,-0.054451,-0.042416,-0.028982,0.085803
-0.026364,-0.018163,0.037342,-0.0093786,-0.0055041,0.0006682,0.018957,-0.20645
0.091115,0.055611,0.054768,0.053853,0.019099,0.011856,0.040918,-0.17521
-0.14176,-0.0033696,0.00039511,-0.0003857,0.020266,0.015341,0.038586,0.19792
-0.18412,0.041208,0.016277,0.024345,0.014545,0.035288,0.076251,0.08836
0.17796,-0.035626,0.0022287,-0.027215,-0.028537,-0.044938,-0.18043,-0.32828
0.26052,0.032704,-0.0016163,0.033104,0.024339,0.024942,0.0040841,-0.056734
-0.29241,-0.042711,-0.041536,-0.036644,-0.029787,-0.020722,0.020945,0.31093
-0.11108,0.14374,0.12472,0.075834,0.066713,0.052135,0.096554,0.055692
0.32916,-0.073283,-0.089196,-0.067559,-0.053827,-0.053872,0.0035055,0.38623
0.020103,-0.078232,-0.059062,-0.014551,-0.017089,-0.0034057,-0.040833,-0.17789
-0.15732,0.0022125,0.050112,0.038604,0.019915,0.015456,0.032165,-0.17249
0.22359,-0.013053,0.018623,-0.018336,0.0017727,-0.0055481,-0.044814,-0.054886
-0.098385,0.085976,0.017549,0.0171,0.013834,0.01926,-0.038782,-0.46849
-0.13426,-0.036974,-0.047404,-0.04294,-0.022412,-0.027352,0.057224,0.062505
-0.24578,-0.061347,-0.043672,-0.010992,-0.02118,-0.020239,-0.038222,0.47689
-0.020103,0.052626,0.044406,0.035061,0.025408,0.017437,-0.027754,-0.058362
0.42552,-0.037826,0.037388,0.017524,0.016036,0.0235,0.034953,-0.13335
-0.11118,0.074578,0.029385,-0.0084135,-0.0098751,-0.0017619,-0.051923,0.04444
-0.003815,-0.015538,-0.088605,-0.018849,-0.02067,-0.01128,0.025427,0.07902
0.053857,0.012705,0.0040245,0.025617,0.03091,0.034075,0.15087,0.1432
-0.030484,-0.035823,0.057427,-0.0076573,-0.011064,-0.029802,-0.10466,-0.17775
0.0099883,-0.028496,-0.045592,-0.0093039,0.0020674,0.0079213,0.024611,-0.018641
-0.097174,0.042022,0.0073176,-0.0028994,-0.0076947,-0.016921,-0.016301,0.14121
0.18013,0.011044,0.067487,0.026976,-0.0012507,0.012822,-0.03262,-0.13069
-0.37605,-0.0048516,-0.029367,-0.0058051,0.0057496,-0.019964,-0.0015047,-0.070888
0.14127,-0.013906,-0.025532,-0.015398,-0.0023749,0.0021024,0.037523,-0.078894
0.19366,0.054078,0.040049,0.0060674,0.021194,0.016809,-0.017289,0.040846
-0.10127,-0.003753,-0.050993,-0.0036843,-0.001705,0.016669,-0.017377,0.11791
-0.0013227,-0.16332,-0.05585,-0.036482,-0.047641,-0.044904,-0.024848,0.21709
0.032175,0.052817,-0.01284,0.0018323,0.008401,0.027575,0.031133,-0.30738
0.16245,0.020597,0.039671,0.010043,0.0023636,-0.015903,-0.028648,-0.0077754
-0.30697,-0.032713,0.016193,0.011752,0.0045218,-0.019316,-0.024276,-0.077729
-0.10399,0.10408,0.1199,0.03811,0.030387,0.048142,0.075344,0.077055
0.3482,0.047853,-0.02461,0.0027938,0.009446,0.029614,0.097755,0.22143
-0.18589,0.047707,0.066265,0.038013,0.011751,-0.0052572,-0.036108,0.033065
0.34769,-0.046049,-0.17874,-0.028799,-0.025467,-0.01801,-0.030466,0.18878
-0.3325,-0.12537,-0.073047,-0.073247,-0.032099,-0.040292,-0.11289,-0.51772
0.031761,0.011815,0.085833,0.0058668,0.0074036,-0.017505,0.028477,-0.011063
-0.050721,-0.041292,0.024182,-0.018048,-0.016255,0.0037181,0.026298,0.066313
-0.21136,-0.0033499,-0.0079034,0.035006,0.022145,0.0082842,-0.040874,0.088935
0.4576,0.055986,-0.010039,0.0015224,0.0057146,0.028139,0.093481,0.13581
-0.33172,-0.02633,0.0026786,-0.016282,-0.010561,-0.021951,-0.053844,-0.17386
0.17897,0.13362,0.069846,0.03686,0.020404,0.038255,-0.0051051,0.037608
0.012664,-0.049174,-0.026842,0.012883,-0.0028862,-0.0018882,-0.024985,-0.14884
0.16009,0.074314,0.127,0.052502,0.021034,0.013862,0.027647,0.13642
-0.37317,-0.19888,-0.23406,-0.086657,-0.033067,-0.039773,0.043392,0.10591
0.090024,0.029433,-0.0083119,0.0012701,0.014198,0.016444,0.060785,-0.07573
0.52387,0.063421,0.069945,0.00331,0.006295,0.017952,0.047706,0.28637
-0.26067,0.050815,0.024175,-0.0028545,-0.0022698,-0.043484,-0.16088,-0.22299
-0.57644,-0.095056,-0.020686,-0.03317,-0.042772,-0.02749,-0.050164,-0.13649
0.18699,0.047051,0.021108,0.037209,0.0021264,0.019014,0.004415,-0.002218
0.047537,0.039214,0.071107,0.044241,0.015529,0.025858,0.010684,-0.00055628
0.10979,-0.040577,-0.011725,-0.019716,0.013424,0.01675,0.094073,-0.01434
0.31438,-0.012451,-0.040302,-0.029389,0.011788,-0.00018651,-0.025983,-0.082109
-0.24235,-0.094694,-0.13212,-0.031325,-0.012564,-0.024674,0.0028143,0.36723
-0.058814,0.072733,0.11896,0.021678,0.0029714,-0.0018427,-0.045512,-0.28284
0.26384,0.076488,-0.029151,0.059588,0.027088,0.021497,0.079335,0.092944
-0.2282,-0.0046634,0.025401,-0.011151,-0.026341,-0.025019,-0.052371,0.15055
-0.083332,-0.060916,-0.0060578,-0.026387,-0.0013292,0.02253,0.066844,-0.095192
-0.092581,0.025068,0.017477,-0.0017686,0.00029177,0.023331,-0.016666,-0.020416
0.1326,-0.043729,-0.059986,-0.054608,-0.029508,-0.054051,-0.0847,-0.11063
0.04345,0.029172,0.035066,0.033628,0.018516,0.0089958,0.01075,-0.0073364
0.13848,0.040093,0.029061,0.028276,-0.011925,0.0014656,0.019479,0.015613
