-0.055156,-0.1439,-0.16603,-0.11398,-0.056059,-0.02461,-0.0063866,-0.028826
0.02311,0.12307,0.14395,0.036071,0.0065002,0.013147,-0.00077253,0.026341
-0.0070262,-0.029054,-0.14552,-0.032317,-0.0090006,-0.0032064,-0.010623,-0.0034213
0.010819,0.016636,-0.075089,0.03221,0.03034,0.0046261,0.011234,0.0067994
0.021892,0.040574,0.26749,-0.028398,-0.023853,-0.010163,-0.0052741,0.0177
0.0024649,-0.028822,-0.041393,0.08248,0.01592,0.022681,0.018104,-0.010153
0.04579,0.095985,0.090703,0.075533,0.063632,0.0092173,-0.0045856,0.0087333
-0.098767,-0.23496,-0.3993,-0.17445,-0.084031,-0.019613,-0.0032002,-0.03547
0.0056282,0.070832,0.10607,-0.011348,-0.0054512,-0.025137,-0.0092963,-0.0025235
0.022465,0.051676,0.05326,-0.028959,0.0022065,0.0078524,0.00016475,0.0057482
0.076376,0.11371,0.014319,0.15559,0.063682,0.024282,0.0013174,0.051746
-0.074895,-0.15656,-0.0087466,-0.11382,-0.047755,-0.0073876,0.0094054,-0.051955
-0.017014,-0.046964,-0.068733,0.069242,0.019447,0.022093,0.016361,-0.00043293
0.047502,0.13171,0.4296,0.087862,0.038917,0.026873,0.0065003,0.02699
-0.044528,-0.056043,-0.16904,-0.018534,-0.043607,-0.055214,-0.027805,-0.016115
-0.0030229,0.01679,-0.17666,-0.15568,-0.047804,-0.020473,-0.0079933,0.0035414
0.024577,0.031632,0.1413,0.052116,0.019281,0.0068421,-0.01155,0.0082779
-0.070323,-0.19,-0.40263,-0.15998,-0.06814,-0.050598,-0.029918,-0.040609
0.1033,0.25861,0.30871,0.17757,0.10461,0.065701,0.046974,0.05242
-0.0093393,-0.068239,-0.092055,0.034055,0.01438,-0.0032352,0.00085943,-0.0016372
-0.0026034,-0.070229,-0.043019,-0.043519,-0.0030334,0.00038489,-0.019696,-0.038832
0.059957,0.04753,0.20453,0.14751,0.043953,0.068265,0.016246,0.018675
-0.11204,-0.13152,-0.25783,-0.24549,-0.10347,-0.0036064,0.068892,-0.0014108
-0.035569,0.21024,0.35589,0.14306,0.061305,-0.021036,-0.011234,-0.005849
0.11632,0.085938,0.22167,0.022146,-0.0098563,-0.039827,-0.022137,0.028271
-0.05558,-0.25635,-0.59396,-0.18054,-0.083642,-0.053031,-0.050732,-0.0010813
0.042228,0.010506,0.069923,0.07229,0.034534,0.056115,0.027397,0.0073266
-0.082126,0.011681,0.078739,0.091934,0.03189,-0.0091523,-0.022165,-0.04038
-0.037183,0.037676,0.27646,0.096735,0.010181,-0.052912,-0.050441,-0.034708
0.14704,0.17703,-0.14689,-0.076769,0.055989,0.089864,0.068582,0.087197
-0.074898,-0.1605,-0.3116,-0.1222,-0.064033,-0.079712,-0.070081,-0.064747
0.071885,0.1228,0.40595,0.11937,0.010792,0.06438,0.026989,0.017909
-0.12231,-0.3911,-0.56511,-0.18456,-0.061848,0.022874,0.079466,-0.0079631
0.023075,0.0040662,0.055494,-0.092864,-0.022748,-0.032036,0.0096331,0.022191
0.024067,0.1382,0.062015,0.022708,0.035497,0.071405,0.059503,0.014901
0.11491,0.43312,0.70688,0.36746,0.097981,-0.089179,-0.12318,0.0014408
-0.05656,-0.019513,-0.096786,-0.0033653,0.0085889,0.01671,0.015241,-0.0027939
-0.10075,-0.36428,-0.087634,-0.13011,-0.11601,-0.080521,-0.041969,-0.037294
0.067026,0.15138,-0.24909,0.031059,0.051191,0.11052,0.047966,0.038013
-0.078042,-0.17356,-0.20661,-0.17266,-0.038299,-0.035796,-0.028108,-0.050895
0.048689,0.10099,0.23471,0.1288,0.035536,-0.043318,-0.028255,-0.0076912
0.047682,0.033603,-0.26017,0.016646,0.044287,0.064364,0.039844,0.057801
-0.019348,-0.11207,0.015027,-0.059724,-0.013594,0.037351,0.059445,-0.0031722
0.18315,0.2658,0.62083,0.16323,0.040602,-0.022456,-0.031319,0.043605
-0.29786,-0.35379,-0.55919,-0.26774,-0.12147,-0.044198,-0.020811,-0.090926
0.022529,-0.052539,-0.0062658,-0.0069488,-0.014826,-0.019364,-0.0021256,0.0074661
0.059359,0.22958,0.21417,0.082052,0.010361,-0.02531,-0.037228,0.018781
0.0013548,0.021662,0.0064297,-0.01939,0.010706,0.0011954,0.030493,-0.033129
0.0060716,0.016326,-0.2015,0.029823,-0.0038289,0.068536,0.044955,0.063142
0.043424,0.12373,0.12723,0.1641,0.13282,0.083278,0.037396,0.026802
0.012703,-0.26328,0.044016,-0.15203,-0.077839,-0.056129,-0.070463,-0.063627
0.023736,0.19942,0.051996,0.12247,0.036882,-0.037464,-0.044483,0.034349
-0.04843,-0.27866,0.0043387,-0.13722,-0.062078,-0.033091,0.021312,-0.061889
-0.094707,0.041764,-0.0050088,-0.026396,-0.0239,-0.035805,0.0016447,-0.0085262
0.11096,0.28175,-0.28171,0.12387,0.079782,0.070956,0.0056116,0.077184
-0.049231,-0.10221,0.12553,-0.065266,-0.033936,-0.0024418,0.032923,-0.0080799
-0.0055932,0.034038,0.15959,0.042692,-0.0073935,0.0091593,-0.01048,-0.022436
-0.016519,-0.063062,-0.065146,-0.0092183,-0.0061531,0.019494,0.039149,-0.013134
0.073748,0.080803,-0.11421,0.072888,0.04684,-0.026287,-0.021594,0.074139
-0.024239,-0.30843,-0.11582,-0.24399,-0.083285,-0.0031582,-0.044458,-0.065606
0.025209,0.13752,0.42673,0.047629,0.017659,-0.012462,0.017401,0.0049727
-0.035799,-0.016305,-0.232,0.07379,0.0066085,-0.01474,-0.038988,-0.03441
0.089733,0.085177,-0.21228,0.063208,0.040919,0.029593,0.028898,0.035208
-0.18381,0.078603,0.65521,-0.035964,-0.01091,-0.019518,0.026207,-0.035826
0.065954,-0.048226,-0.50627,0.037114,-0.014782,0.025948,-0.0074911,0.08883
-0.058848,-0.26163,-0.0019865,-0.17576,-0.086856,-0.044564,-0.0092345,-0.12172
0.17669,0.39259,0.020489,0.21808,0.14065,0.0738,0.013498,0.12181
-0.094292,-0.070408,0.20414,-0.069385,-0.035314,-0.056534,-0.017269,-0.039927
-0.051454,-0.066455,-0.18952,-0.030358,0.02538,0.048498,0.023412,-0.013379
0.078317,-0.082659,-0.24966,-0.087794,-0.09226,-0.041271,-0.044392,-0.041096
0.028758,0.12786,0.28642,0.18609,0.094931,0.025156,0.052367,0.071758
0.11155,0.21063,-0.27996,0.10921,0.046639,0.005053,-0.022721,0.04345
-0.22883,-0.51624,0.60141,-0.18813,-0.121,-0.047317,-0.0045032,-0.11859
-0.047713,-0.0070547,-0.13803,-0.13777,-0.018008,-0.007194,0.012878,0.038544
0.084236,0.22247,-0.12322,0.063441,0.019543,0.016015,-0.017699,-0.016355
0.034243,-0.0065348,-0.043154,0.0085714,-0.00014379,0.030281,0.020902,0.021656
0.05269,0.11195,0.052712,0.10405,0.040929,0.0046546,-0.02742,-0.0032272
-0.078531,-0.014332,-0.19031,0.014845,0.010994,0.033263,0.032976,0.018898
0.024163,-0.087225,-0.13474,-0.093538,-0.049825,-0.063192,-0.031847,-0.013028
0.056861,0.15979,0.0056908,0.10091,0.031214,-0.057809,-0.057364,-0.020519
-0.12039,-0.23379,0.6194,-0.15793,-0.026624,0.041833,0.066178,-0.011257
0.03975,-0.041306,-0.091981,-0.0091637,0.01113,0.05614,0.042115,0.030242
0.014073,0.18239,-0.25415,0.16553,0.073846,0.0084819,-0.020194,0.01763
-0.0099749,-0.047264,-0.20296,-0.0003349,-0.01096,-0.0075963,0.019649,0.044057
0.037624,0.12119,-0.031327,0.071672,-0.0096371,-0.031445,-0.02624,-0.016147
0.09391,-0.11676,0.19963,-0.13411,-0.055629,-0.016476,-0.02548,-0.054189
-0.083811,-0.018448,-0.055299,-0.063219,-0.016488,0.037116,0.013755,-0.015729
-0.066273,-0.083051,0.22111,-0.012847,-0.0094035,-0.0035227,0.0053276,-0.010162
-0.033397,0.0029665,-0.24335,-0.030224,-0.026216,-0.044498,-0.042938,-0.0059164
0.022625,0.029716,0.41917,0.063907,0.035207,-0.015196,0.0097939,0.028848
0.016036,0.076132,-0.22877,0.050212,0.027039,0.014462,0.015439,0.0010986
0.072099,0.15817,-0.36729,0.1857,0.090361,0.044867,0.021276,0.044331
-0.01991,-0.21665,0.16685,-0.21814,-0.071547,0.037254,0.043299,-0.020639
-0.04119,-0.010183,-0.072761,-0.0061958,-0.013563,-0.0082277,-0.019789,0.0017331
0.03935,0.088672,0.21729,0.047036,0.013824,-0.052536,-0.05067,0.0020184
0.026038,0.015756,0.051236,-0.043608,-0.013487,-0.0020839,0.0053421,-0.012269
-0.0034723,0.03508,-0.00977,0.11997,0.036644,0.002236,-0.0081213,-0.0025159
-0.088717,-0.12028,0.10353,-0.087022,-0.039441,-0.0086521,0.025914,-0.0082786
0.01995,-0.03704,-0.24211,-0.1248,-0.054533,-0.0038589,-0.017841,-0.022187
0.0020672,-0.059145,0.14135,-0.031349,-0.0086503,0.024042,0.016509,0.017936
0.076477,0.20437,-0.24438,0.20237,0.082789,0.0043276,0.003572,0.065037
-0.16275,-0.19893,0.30663,-0.094457,-0.045505,-0.016552,0.0054504,-0.12311
0.16767,0.098998,-0.28018,0.055406,0.028695,0.031309,0.013978,0.062958
0.0058298,0.098948,-0.50892,0.042779,0.03224,-0.0086729,-0.049217,0.037443
-0.014874,0.12972,0.67029,0.14868,0.059078,0.050826,0.050154,0.0036653
-0.25327,-0.20654,0.21219,-0.19764,-0.093768,-0.11045,-0.054976,-0.10066
0.3458,0.17667,-0.078816,0.081565,0.050439,0.078153,0.049784,0.15437
-0.1158,-0.27464,0.20135,-0.19342,-0.09396,-0.054603,-0.033495,-0.074732
-0.090998,-0.19245,-0.20093,-0.13157,-0.057807,-0.03911,-0.022951,-0.076781
0.11551,0.12722,-0.21954,0.10381,0.050013,0.047465,0.042969,0.046919
-0.10583,0.20846,-0.32714,0.13854,0.050266,0.0028782,-0.030544,-0.015923
0.049356,0.067019,0.23907,0.082563,0.029152,-0.00036365,-0.0010091,0.008241
-0.0053582,-0.024265,0.11053,-0.0094822,0.010059,0.045809,0.053472,0.049053
0.14351,0.0035988,0.060769,-0.005554,0.016007,0.031858,0.023276,0.043797
-0.21562,-0.054348,0.044164,-0.055516,-0.047492,-0.058375,-0.045171,-0.062574
0.11197,0.034327,-0.023307,0.018525,0.013957,0.024347,0.0038395,0.010756
-0.046134,-0.10696,-0.014541,-0.050819,-0.027128,-0.017663,0.0057558,-0.03349
-0.0106,0.020959,-0.14642,0.02419,-0.0074109,-0.02884,-0.031929,0.0075327
0.030886,-0.073947,0.082415,-0.038279,-0.013236,-0.072121,-0.046795,-0.038151
0.047074,-0.031212,0.1805,-0.081684,0.0022469,0.055466,0.039433,0.024853
-0.032175,0.10406,-0.27397,0.051319,0.015929,0.025877,0.00050206,0.024889
-0.089366,-0.02551,0.24982,0.010818,0.0049564,0.026825,0.039886,0.040358
0.079024,0.089674,0.0011154,0.10336,0.016912,-0.011772,-0.021839,-0.061302
-0.0031328,-0.010196,-0.27878,-0.028735,-0.017823,0.01962,0.026356,0.0091379
0.016153,0.05797,-0.051591,0.037681,0.04976,0.027319,0.020299,0.032976
0.02788,0.020158,0.21336,0.0063872,-0.014328,-0.035544,-0.024652,-0.0054716
-0.053591,-0.17174,0.093874,-0.11478,-0.053657,-0.051769,-0.022893,-0.012586
-0.017116,0.11354,-0.10541,0.025201,0.017696,0.0021623,-0.021593,-0.027586
-0.05009,-0.15681,0.061028,-0.059011,-0.019193,0.017059,0.025964,0.011892
0.11311,0.039387,0.046793,0.068829,0.015057,-0.014627,-0.020822,-0.003612
-0.035462,0.01381,-0.10831,-0.0067406,0.0028501,0.024566,0.017934,0.011811
0.066473,-0.030788,-0.17675,-0.029312,-0.017229,-0.029229,-0.037143,-0.0043199
-0.11265,0.17903,0.14724,0.18735,0.087129,0.066207,0.048656,0.018358
0.020554,0.018538,-0.080657,-0.092101,-0.028289,-0.0017998,0.0099683,0.0017791
0.020456,-0.082156,-0.039476,0.014639,0.0033554,-0.007052,-0.012466,0.00069561
0.019615,-0.12252,0.41936,-0.19549,-0.091533,-0.020342,0.012543,-0.039513
0.0022916,0.015241,-0.009307,0.035986,0.01525,-0.0030927,0.0066572,0.021855
-0.015842,0.058333,-0.28743,0.077463,0.019332,-0.018175,-0.046066,-0.010424
0.043557,0.11679,-0.22885,0.055468,0.054017,0.020181,0.0181,0.043438
-0.13166,-0.16035,0.20412,-0.067468,-0.05981,-0.044203,-0.01207,-0.043019
-0.0019788,0.016479,0.15095,0.030355,0.014324,0.023339,0.011683,-0.0040787
0.12051,0.10859,-0.092183,0.037399,0.026813,0.020117,0.0033765,0.035323
0.0095781,-0.11037,0.01358,-0.038103,-0.014339,0.0012946,-0.0056581,-0.041983
0.016923,0.062762,-0.015763,0.069349,0.039274,0.014162,0.0081995,0.045218
-0.068452,-0.036137,0.023773,-0.14081,-0.046934,-0.026947,-0.0016832,-0.023482
-0.012413,0.030281,-0.25722,0.057137,0.007969,0.018688,-0.0037988,-0.01386
-0.041887,-0.089707,0.40043,0.060736,-0.015093,-0.028698,-0.0057277,-0.0042292
0.06147,0.13504,-0.080114,-0.029227,0.032078,0.057259,0.023956,0.044272
0.078535,0.040452,-0.14323,-0.017938,-0.014676,-0.0049401,-0.00058294,0.029904
-0.069091,-0.14676,-0.28076,-0.061794,-0.03028,-0.067079,-0.04807,-0.078702
-0.029971,0.0033961,0.44446,0.042514,0.016733,0.011335,0.029887,0.0074852
-0.030615,0.006916,0.0078454,0.021972,-0.0061585,0.011536,0.014436,-0.0083391
0.046388,0.020418,-0.05334,-0.013546,0.010689,-0.0038859,-0.00080109,0.014604
0.029522,0.02846,0.039954,-0.008969,0.004925,0.01209,-0.00033621,0.02183
-0.018281,-0.10975,-0.14417,-0.026689,-0.0078664,0.0049107,-0.023343,-0.0099011
0.020598,0.16767,-0.15435,0.1127,0.050173,0.0058918,0.00042262,0.013307
-0.033171,-0.070131,0.33658,-0.02117,-0.024545,0.0071733,0.016264,-0.010047
-0.085618,0.011231,0.00060685,-0.046489,-0.0060434,-0.0070348,0.0085971,-0.017501
0.12892,-0.011901,-0.28605,-0.034712,-0.035542,-0.021362,-0.022497,0.014258
-0.030336,0.030671,0.0021572,0.028731,0.0036648,0.0029613,0.0011972,-0.0087061
0.045625,0.09086,0.094401,0.033737,0.025377,0.010985,0.0016275,0.014963
-0.034319,-0.097364,-0.053616,0.034797,0.021804,0.018162,0.01007,-0.00085845
-0.028552,-0.07243,0.099157,-0.077002,-0.037973,-0.022409,-0.0047606,-0.001608
-0.023569,0.018934,0.1396,0.011972,0.01853,0.022228,0.019534,-0.0029399
0.019221,-0.12537,-0.14353,-0.055965,-0.018814,-0.035117,-0.010946,-0.012583
0.0057267,0.02898,0.092044,-0.0053771,-0.016299,-0.0065086,0.01301,0.0087167
-0.02518,0.16461,0.015908,0.025072,0.019096,-0.00084074,-0.041556,-0.016891
0.059265,-0.028717,-0.1557,0.013486,0.0020593,0.013567,0.0049488,0.012464
0.063836,0.012558,0.082912,0.038769,0.011009,0.013552,0.019691,0.026754
-0.097188,0.045895,0.003998,0.014799,-0.0088538,-0.00084566,-0.0050974,-0.028502
-0.056273,-0.0085414,-0.08769,0.03416,0.012263,0.0013968,-0.006816,-0.0047885
0.10892,0.088717,-0.05801,0.040212,0.042256,0.019815,0.014662,0.02752
-0.10887,-0.13425,-0.1078,-0.070983,-0.037101,0.0069207,-0.0030301,-0.033342
0.080009,-0.11012,0.25003,-0.028323,-0.00028724,-0.030102,0.0027341,0.046694
-0.019208,0.080685,-0.15394,-0.052409,0.0034109,0.025435,0.024259,0.0016493
0.03141,-0.14897,0.22101,-0.050535,-0.07339,-0.068906,-0.039906,-0.051629
-0.033513,0.16961,0.055009,0.078763,0.034849,0.015064,-0.0021419,0.0037875
-0.034252,0.02174,0.050425,0.023767,0.0081338,0.0042778,-0.0029508,0.011512
0.060275,-0.05188,-0.17724,-0.06566,-0.0044599,0.016514,0.012471,-0.0050104
-0.0080794,-0.02591,-0.091003,0.062227,0.021312,0.013395,0.0051488,0.0090467
0.033697,0.078023,0.018178,0.049777,0.023765,-0.0044555,0.0063603,-0.00076041
-0.025755,0.073856,-0.014983,-0.0078235,-0.012033,0.010275,-0.007386,0.067437
-0.046145,-0.053098,0.051381,-0.00020555,0.00033428,-0.028187,-0.012801,-0.090723
-0.019842,-0.075831,-0.19626,-0.051853,-0.0092105,0.036281,0.021127,0.017251
0.060943,0.083848,0.23538,0.15765,0.014032,0.0079832,-0.0074663,-0.014654
-0.014628,-0.11329,-0.043134,-0.27035,-0.031667,-0.012065,0.018277,0.0090071
-0.05111,-0.050324,0.023771,-0.031589,-0.045034,-0.055714,-0.042578,0.0022868
0.0062502,0.1162,0.037856,0.1546,0.059507,0.040566,0.028481,0.027515
0.079247,-0.051543,0.037607,0.021879,0.00030422,-0.020481,-0.010866,0.014063
-0.012069,0.0945,-0.10321,0.014674,0.019132,0.026602,0.003449,-0.022862
0.091275,-0.063347,0.17637,-0.0086238,-0.017213,-0.013447,0.0012605,0.017875
-0.08772,0.0055848,-0.16418,0.021293,0.00031097,0.00024332,0.006285,-0.028134
-0.049385,0.15224,-0.047605,0.0098018,0.024605,0.021188,-0.0045336,0.010816
-0.051632,-0.1786,0.049466,-0.067086,-0.038152,-0.020456,-0.0073181,-0.037089
0.0073055,-0.041968,-0.12213,-0.045388,-0.0081667,0.0086032,0.0061858,0.015938
0.073218,0.085538,-0.092108,0.020672,0.0054681,-0.0005892,-0.010515,-0.017149
0.0061381,0.0089,0.25857,0.0070567,0.0031655,-0.016479,0.013149,0.028232
-0.029186,-0.091621,0.04878,-0.038071,-0.022417,-0.0076771,-0.016488,-0.0037131
0.069384,0.042502,-0.11885,0.089784,0.03072,-0.005483,-0.013617,0.02011
0.020964,0.044757,-0.072226,0.0089804,0.045704,0.075798,0.060486,0.05287
-0.11965,-0.076601,0.32867,-0.08443,-0.063267,-0.045489,-0.021257,-0.085327
0.0068051,0.10038,0.027972,0.083152,0.02406,-0.0026558,-0.0094631,0.0035506
0.040622,0.020644,-0.13971,0.034726,0.018389,0.047536,0.032749,0.022115
0.012609,-0.0040525,-0.3316,-0.043151,-0.025938,-0.067217,-0.043561,0.0011024
0.023816,-0.0059677,-0.29014,0.012326,0.023505,-0.0034359,-0.0043093,0.010413
-0.051282,-0.07993,0.69616,-0.065816,-0.036758,-0.0033892,-0.0057655,-0.036135
-0.049109,-0.12534,0.089416,-0.099111,-0.050752,-0.012295,0.0070148,-0.013585
0.084605,0.12273,-0.67922,0.11463,0.059469,0.03256,-0.012364,0.023522
-0.017639,0.031073,0.48527,0.043611,0.020374,0.022056,0.030455,0.012965
-0.004463,0.037179,0.036634,-0.0076538,-0.0040087,0.0032952,-0.0045427,-0.0058468
0.014738,0.039812,-0.017559,0.00012391,0.017582,0.007693,0.00033874,0.0064881
0.0088912,-0.046272,-0.24883,-0.0106,-0.024179,-0.027143,-0.001455,-0.0044403
0.017471,0.022191,0.17671,0.023582,0.0036338,0.0082521,0.013612,0.016247
-0.036995,-0.073651,-0.024723,-0.060207,-0.0081565,-0.0031777,0.0063634,-0.0094644
-0.067699,-0.058583,0.066086,-0.010576,-0.020185,-0.014345,-0.015658,0.012236
0.035733,0.061528,-0.053162,0.041134,0.014826,-0.032757,-0.021557,-0.027981
0.0321,-0.063027,-0.094945,-0.052127,-0.0042255,0.027884,0.011748,-0.012865
-0.054365,-0.016744,0.096509,-0.023624,-0.014379,0.0038615,0.0058326,-0.0048308
0.08927,0.23234,-0.087455,0.15072,0.047242,-0.0030291,-0.03951,0.027458
-0.021442,-0.081661,0.02691,-0.013414,0.0089847,0.054125,0.055299,-0.0018888
-0.012116,-0.077219,0.090831,-0.094783,-0.043204,-0.043634,-0.022268,0.0086518
-0.0010482,-0.053429,0.0217,-0.063373,-0.031423,0.00011663,0.016875,-0.01921
-0.028744,0.15874,-0.20052,0.06347,0.020448,-0.0027583,-0.014725,0.0079768
0.10638,0.032833,0.044348,0.12752,0.06493,0.025151,-0.0076361,0.027305
-0.057988,-0.12919,0.0083935,-0.013826,-0.0002176,0.0050574,0.030392,-0.01637
-0.014975,0.014483,0.255,-0.1122,-0.027191,-0.032273,-0.0021278,0.0015289
-0.038338,-0.0056682,-0.19288,0.0032374,-0.024268,-0.0011038,-0.019153,0.0025791
0.059801,0.084304,-0.1027,0.097855,0.031795,0.0049448,-0.020545,-0.005508
-0.1883,-0.29201,0.21021,-0.1793,-0.061994,-0.029311,0.0094908,-0.046037
0.13287,0.071091,0.015941,0.0090756,-0.016139,-0.0016402,0.00082103,0.014157
0.056116,0.21557,0.0064912,0.10231,0.045004,0.034029,0.0082862,0.019325
-0.010929,-0.090335,-0.18797,-0.014827,0.020569,0.023702,0.024163,0.016888
-0.0048663,-0.008871,0.0091492,-0.051613,-0.026359,-0.032137,-0.021866,-0.023938
0.0042612,0.11686,0.019533,0.086751,0.029543,0.0073187,0.010716,0.014321
0.0004457,-0.010611,0.0083284,0.017693,-0.0070519,0.0012917,-0.026727,-0.0011099
0.060897,0.075883,-0.2412,0.092206,0.066627,0.043092,0.029609,0.03112
-0.049989,-0.071151,0.093693,-0.08934,-0.039088,-0.024155,-0.00023476,0.0012223
-0.11475,-0.26644,0.27309,-0.10658,-0.08273,-0.02924,-0.030558,-0.044445
-0.0094982,0.066336,0.32214,0.023408,0.028777,0.011649,0.024414,-0.0048195
0.11657,0.066791,-0.19567,-0.020805,-0.0097467,-0.034644,-0.015063,0.010356
0.0052913,0.10977,-0.18623,0.041473,0.051475,0.034942,0.015126,0.016552
-0.030734,-0.061885,-0.2042,-0.016287,-0.037494,-0.037194,-0.017678,-0.025207
0.048017,0.021752,-0.11672,0.040833,0.028358,0.038423,0.019565,0.018209
-0.046761,-0.020687,0.25604,0.03402,-0.0004593,0.0044942,-0.013511,-0.024603
-0.056309,-0.10188,0.031522,-0.090413,-0.037401,-0.021298,-0.015091,-0.012483
0.098528,0.1855,0.037939,0.082522,0.03533,0.031732,0.038462,0.062874
-0.073442,-0.08762,-0.14696,-0.055858,-0.023929,-0.015913,-0.016794,-0.024741
0.030184,-0.022671,0.13201,-0.0051828,0.011759,0.0076339,-0.0011452,0.0060873
-0.019688,0.067532,0.17774,0.047076,0.017582,0.0084472,0.0072239,-0.00093232
0.066273,-0.03633,-0.15275,-0.032156,-0.022085,-0.037186,-0.015251,-0.0069454
-0.071392,0.094837,0.059896,0.061364,0.025415,0.018878,0.0015813,0.011176
0.10596,-0.023732,-0.20216,0.014652,0.019198,0.027968,0.026316,0.01404
-0.074224,-0.14985,0.05182,-0.078923,-0.048838,-0.049099,-0.01929,-0.053327
-0.065951,-0.048735,-0.0066303,-0.039849,-0.0070823,0.014251,0.0053281,-0.011436
0.028265,0.061622,-0.095439,-0.016499,-0.011988,-0.024046,-0.032635,0.0067865
-0.011275,-0.021086,0.12318,0.014807,0.006616,0.015877,0.0075051,0.009085
0.080201,0.063092,0.026755,0.062182,0.025179,0.03262,0.032079,0.042267
-0.010479,0.056389,0.086822,-0.0069847,-0.0032965,-0.020618,-0.013535,-0.018774
0.083471,0.083153,-0.076811,0.026046,0.01477,0.0045434,0.0034909,0.083624
-0.098927,0.0092703,0.084853,0.036007,0.024473,0.021966,-0.002839,-0.080382
-0.010414,-0.034152,-0.098652,0.0068129,-0.021291,-0.015526,-0.0014017,-0.010882
-0.072054,-0.20509,-0.11112,-0.10892,-0.021143,0.0011066,0.015441,-0.020337
-0.11864,0.018522,0.031575,0.032168,-0.006394,-0.022162,-0.01499,-0.022596
0.27301,0.081339,0.02365,-0.0075166,0.023072,0.031715,0.024353,0.05302
-0.059947,-0.00087757,0.050795,-0.016778,-0.041816,-0.040339,-0.038458,-0.043033
0.047465,0.046201,0.071582,0.051854,0.018152,0.011922,-0.00024199,0.072501
-0.060563,-0.16664,0.07555,-0.082071,0.00037854,-0.0064128,0.01416,-0.029736
-0.0091219,0.13563,-0.13517,0.027554,0.0069116,0.0066934,-0.010646,0.0097621
0.0058983,0.0091561,-0.078222,-0.0015194,-0.008799,-0.0030001,-0.0040996,-0.020034
-0.032069,0.001809,0.1359,0.033966,0.0080085,0.0038852,0.010558,0.01339
0.055526,0.035894,-0.023971,0.078927,0.049307,0.050901,0.025608,0.015848
-0.084042,-0.013738,-0.095575,-0.055033,-0.041627,-0.049566,-0.021495,-0.044392
0.07945,0.016409,-0.16247,0.044922,0.015811,0.022487,0.0097083,0.011929
-0.025081,-0.015014,0.12994,-0.036549,0.0022005,-0.0068037,-0.006033,0.020461
0.00037783,-0.08518,0.15189,-0.034845,-0.020508,0.0027464,0.024775,-0.0032578
0.046413,0.024386,-0.00036716,-0.028588,-0.0057331,0.0039176,-0.0074228,-0.0044138
-0.035072,-0.037733,-0.0051053,-0.033229,-0.023748,-0.042524,-0.040164,-0.029562
-0.079345,-0.0054064,-0.10453,-0.0010637,0.0039404,-0.0037306,-0.010808,0.0076801
0.062925,0.051717,-0.034482,0.053588,0.015456,0.0033249,0.010636,0.0062313
-0.013537,-0.0064315,0.092945,0.022839,0.0037292,0.02584,0.008942,0.013376
0.012472,0.0078361,0.024263,-0.02947,0.0085197,0.017267,0.0079434,0.013737
0.0087982,0.016048,0.24021,0.014754,-0.0087287,-0.014342,0.0079302,-0.016095
0.014821,0.15793,-0.20765,0.077679,0.022508,0.0014121,0.0011905,0.017425
0.022669,-0.075621,-0.16504,-0.012916,0.0083638,0.033194,0.026665,-0.0032839
-0.038361,-0.13134,-0.14804,-0.046957,-0.0046859,-0.028586,-0.017534,-0.0084113
0.0029918,-0.01823,0.078899,-0.025606,-0.017221,-0.020144,-0.022483,-0.021903
0.021039,0.091132,0.065168,0.018699,0.017013,0.02702,0.01915,0.033952
-0.047327,-0.07671,0.2907,-0.047824,-0.027503,-0.020054,-0.018038,-0.02077
0.016237,-0.028913,-0.16281,-0.014826,-0.018273,-0.012926,-0.009288,-0.01422
-0.022788,0.040377,0.082855,0.055043,0.0055781,0.0016735,-0.0015174,-0.00090333
-0.00022339,0.023205,-0.087098,0.0057827,-0.0026574,0.00055753,0.013237,0.0038971
0.029552,0.077179,-0.21818,0.017613,0.027654,0.023065,0.0040187,0.024044
0.027878,-0.023219,0.15866,-0.025989,-0.0046834,-0.00089477,0.0024342,0.0052732
-0.036109,-0.058673,0.12867,-0.030616,-0.0056166,-0.016539,-0.006804,-0.013001
-0.0058832,0.04119,0.057619,0.043328,0.017206,0.022944,0.0078002,0.0085152
0.024928,0.018199,-0.18918,0.032134,0.016908,0.00015815,-0.00051916,-0.0082076
0.017222,-0.018885,-0.074674,-0.0015385,0.0011618,0.016363,-0.00054992,-0.00069448
-0.013542,-0.031673,0.094564,-0.034255,-0.014614,-0.014689,0.0075471,-0.00031037
-0.012903,-0.036354,0.0045221,-0.042683,-0.022792,-0.015097,0.0079152,-0.0072212
-0.020138,0.0057714,-0.0099053,-0.011357,-0.015648,-0.023993,-0.023119,0.0018288
