0.072295,0.067067,-0.047497,0.010262,0.0091894,0.0072349,0.0073715,-0.033539
0.096437,-0.10243,0.22161,0.070807,0.007458,0.005913,0.0065233,0.0054893
0.11006,0.16569,-0.067969,0.02826,0.02125,0.0048182,0.037474,0.036524
0.45547,0.43997,-0.16423,-0.015485,0.011716,-0.011459,-0.032627,-0.041972
-0.31365,-0.1564,-0.041282,-0.098835,-0.020941,0.011923,0.022655,0.066965
-0.58813,-0.45283,-0.0091372,-0.056821,-0.037483,-0.026534,-0.039052,-0.089647
0.27357,-0.066842,0.16871,0.017821,0.0012715,-0.0018638,-0.014813,0.011792
-0.093725,0.096322,0.23581,0.11036,0.040683,0.054553,0.056156,0.043303
0.094105,-0.086087,-0.30748,-0.083322,-0.013041,-0.044998,-0.060622,-0.049727
0.34015,0.62348,-0.039998,0.11647,0.019645,0.027337,0.04106,0.068604
-0.34519,-0.51368,0.059976,-0.033049,-0.017734,-0.033417,-0.013799,-0.031554
-0.14015,0.12272,0.0056656,0.029489,-0.00045369,-0.0087774,-0.022056,-0.037975
0.54104,-0.13711,0.036543,-0.0098861,0.00089317,0.030737,0.047563,0.06464
-0.20189,0.098037,0.032853,-0.074531,0.009519,0.014703,0.023207,0.049437
-0.12219,0.19417,0.062945,0.045334,-0.021572,-0.025625,-0.05602,-0.10718
0.34641,-0.14067,-0.022583,-0.01804,0.032635,0.042704,0.059964,0.10266
-0.58918,-0.12166,-0.22344,-0.069158,-0.03864,-0.053481,-0.058379,-0.12543
-0.10398,-0.23035,-0.045881,-0.013368,-0.024186,-0.040374,-0.074896,-0.15034
0.93325,1.044,0.16116,0.088258,0.060706,0.082452,0.12004,0.30197
-0.53956,-0.77927,0.0024444,-0.043885,-0.03364,-0.059595,-0.082701,-0.15083
0.034804,0.42282,0.15298,0.060458,0.028954,0.057241,0.05919,0.077426
-0.40966,-0.74804,-0.25981,0.0038916,0.0063982,-0.012203,0.037877,0.056923
0.015262,-0.13295,-0.094198,-0.072596,-0.062319,-0.041421,-0.068738,-0.15815
0.78382,0.92904,0.26645,0.10406,0.072562,0.063063,0.082698,0.2361
-0.92763,-0.89222,0.03082,0.025029,-0.019016,-0.042954,-0.086446,-0.17523
0.72713,0.47148,0.18744,-0.045489,-0.040613,-0.016286,-0.02981,-0.088217
-0.28337,0.040113,-0.25246,-0.13246,0.030791,0.056549,0.095931,0.12173
-0.063738,0.042346,0.02709,0.028424,0.0073737,-0.0046195,-0.029773,-0.037587
0.68528,0.53229,-0.024073,0.13944,0.029604,0.0030391,0.022768,0.059284
-0.48062,-0.66496,0.045604,0.051928,-0.027463,-0.05332,-0.074313,-0.094687
-0.2636,0.070943,-0.40394,-0.28842,-0.061988,-0.02501,-0.008042,-0.0063439
0.47148,-0.15588,0.13773,0.041206,-0.0032028,0.018146,0.034697,0.067443
-0.66902,0.071783,0.16698,0.049832,0.047894,0.014283,-0.0079573,-0.036665
0.19782,0.15704,0.13403,0.23874,0.029363,0.049988,0.091102,0.14264
0.12197,-0.10433,-0.0032729,-0.086282,0.011968,-0.022645,-0.074022,-0.11345
-0.25053,-0.20344,-0.069334,-0.080763,-0.035279,-0.00017955,0.020221,0.054026
0.32906,0.11267,-0.022947,-0.049085,-0.018594,-0.0075669,-0.024734,-0.09778
0.070242,0.49667,-0.043443,0.0086491,0.014962,0.0018616,0.0095358,0.055369
-0.12355,-0.66387,0.078788,0.029509,0.010347,-0.011356,-0.033674,-0.11224
0.5083,0.57303,-0.033889,-0.0184,-0.017264,-0.00084453,0.032634,0.078538
-0.54167,-0.19538,0.13857,0.11418,0.072296,0.040706,0.05173,0.12735
-0.31446,-0.5531,-0.24333,-0.034408,-0.096364,-0.058988,-0.086152,-0.16123
0.38941,0.33583,0.16106,-0.027279,0.031186,0.035761,0.064041,0.13473
0.17479,0.36003,-0.13494,-0.10705,-0.0061008,-0.011047,-0.044677,-0.086115
-0.08007,-0.35152,-0.062219,-0.047398,-0.051941,-0.03523,-0.029452,-0.096862
-0.066493,0.23507,-0.035026,0.050022,0.050037,0.018152,0.031747,0.087233
-0.1776,0.3017,0.30669,0.16957,0.049984,0.040039,0.061026,0.10715
-0.062706,-0.56287,-0.090519,0.1159,0.0027089,-0.039576,-0.081984,-0.18527
0.099185,0.42712,0.071682,-0.111,-0.029224,0.052977,0.079522,0.17889
-0.025985,-0.22905,-0.16617,-0.28462,-0.030181,-0.025923,-0.040183,-0.050306
0.49396,-0.36521,0.009735,0.11851,-0.0079892,-0.010626,-0.011239,-0.029098
-0.74475,-0.28921,0.030173,-0.0030269,0.006096,-0.010562,-0.021,-0.062177
0.48636,0.37229,-0.025912,0.11661,0.027737,0.0054256,0.0087771,0.006749
-0.18667,0.32088,0.099835,0.10272,0.049217,0.03724,0.054745,0.16217
0.39256,0.10046,-0.11577,-0.083413,-0.054312,-0.040197,-0.039301,-0.11918
-0.34683,-0.0054504,-0.032153,-0.168,-0.048282,-0.016002,-0.0077493,-0.032432
0.15682,0.025772,0.037859,0.052458,-0.010619,-0.038659,-0.046003,-0.077464
-0.050312,-0.20797,0.15618,-0.015431,0.043214,0.087076,0.087956,0.14414
-0.40595,0.069037,-0.091984,0.10524,0.042979,0.0017229,-0.020168,-0.00064902
-0.14406,-0.13366,0.011345,0.13348,0.019895,-0.0058004,-0.0034464,-0.020069
0.6659,0.24909,-0.011009,-0.16489,-0.018362,0.040915,0.059765,0.12438
-0.18598,-0.23888,-0.049992,-0.047615,-0.025116,-0.069176,-0.072854,-0.099108
0.1683,-0.10563,0.019471,-0.077269,-0.039633,-0.015764,-0.026288,-0.026886
-0.098971,-0.20014,-0.12247,-0.011883,-0.030812,-0.033087,-0.034733,-0.1278
-0.011317,0.36524,0.15774,0.17939,0.048148,0.050998,0.050554,0.098395
-0.053518,-0.075426,-0.053137,0.074074,0.048806,0.018093,0.034617,0.011654
0.2817,0.12415,0.026819,0.17928,0.025894,-0.0064541,-0.019742,-0.012302
-0.77964,-0.11791,0.015126,-0.47445,-0.098664,-0.0067537,0.012635,0.0037634
-0.0036729,-0.089181,0.044463,0.049817,0.0032903,-0.0061315,-0.0089152,0.029021
0.89016,0.7088,-0.11232,0.056515,0.06613,0.057847,0.063817,0.11038
-0.77111,-0.84548,0.090714,0.022294,-0.042995,-0.057232,-0.08985,-0.12752
0.48737,0.23382,0.097804,0.21319,0.035232,-0.00014427,-0.0015884,0.017726
0.3587,0.5334,-0.17798,-0.12014,-0.003944,0.0099806,0.015719,0.02963
-0.37826,-0.52342,-0.081093,-0.14881,-0.051192,-0.019392,-0.0069466,-0.10046
0.0011397,0.0044415,0.067872,0.065446,0.018487,0.013041,0.024053,0.040889
-0.25384,0.2486,0.019071,0.031103,0.03327,0.0055809,0.0072132,0.03931
0.2171,-0.80429,0.077708,0.037713,-0.014546,0.020724,0.020868,0.019862
-0.45051,0.40585,0.11172,0.085526,0.0080022,-0.050789,-0.098729,-0.14207
0.067779,0.0036734,-0.22965,-0.20828,-0.039549,0.025621,0.047227,0.093195
0.37826,0.44262,0.062177,0.093522,0.02263,0.023643,0.045023,0.093563
-0.25695,-0.59041,-0.090374,-0.087681,-0.024128,-0.048649,-0.058192,-0.12464
0.57129,0.70645,0.094255,0.052117,0.023298,0.027722,0.034603,0.087628
-0.30801,-0.15695,0.061377,0.066807,0.031992,0.0029252,0.010908,-0.034831
0.10386,-0.10356,0.029455,0.15087,0.025204,0.025501,0.011224,-0.015174
0.038289,-0.12923,-0.127,-0.29016,-0.0676,-0.0217,-0.019347,0.0061175
-0.29777,-0.090905,0.1305,0.12603,0.011196,-0.013681,-0.026343,0.0056474
-0.10365,-0.057076,-0.12819,0.039942,0.0193,0.0026571,0.0056779,-0.047864
-0.015467,0.15413,0.0029276,-0.16532,-0.043261,-0.0039679,0.0063064,0.032988
0.30064,0.25694,0.00048534,0.11249,0.026793,-0.0023465,0.014602,0.0449
-0.10134,-0.35314,0.067995,-0.06318,-0.028107,-0.00035513,-0.039679,-0.051472
-0.19749,-0.20088,-0.098609,0.0039717,0.0032263,-0.0059165,-0.00019208,-0.029974
0.23223,0.18262,0.071715,0.010063,0.019399,0.027668,0.047192,0.03073
0.017607,0.18136,0.07965,0.10395,0.036049,0.014218,0.016532,0.051879
0.20721,0.37527,-0.08211,0.035584,0.0061303,-0.0074929,-0.0063198,0.04843
-0.15067,-0.53833,0.00072675,-0.039308,-0.0081851,-0.014308,-0.03714,-0.10521
-0.32053,-0.05757,0.039004,-0.059038,-0.030743,-0.0064438,0.0020246,0.0046222
-0.067216,-0.0089009,-0.11615,0.014557,0.0083923,0.00038768,0.0016571,0.010629
0.6723,0.3122,-0.020162,-0.12397,-0.047272,-0.017177,0.0007572,-0.0088237
-0.66415,0.031944,0.075949,0.024933,0.04442,0.011415,-0.00063695,-0.014099
0.44706,0.10455,0.014757,0.07054,-0.0053954,0.008409,0.02105,0.034684
-0.14244,-0.68766,0.22476,0.13809,0.0068061,-0.0023213,-0.035532,-0.072493
-0.16697,0.21889,-0.013782,-0.12351,-0.012208,0.003088,0.017362,0.063667
0.13909,0.27051,-0.34206,0.0050592,-0.0072138,-0.006273,0.00027797,0.029744
0.18983,-0.14144,-0.0022334,-0.10062,0.006607,0.016668,0.02277,0.052631
-0.25692,0.28016,0.029826,0.067752,0.02952,0.0016258,-0.0088186,-0.039562
-0.05277,-0.43382,0.036573,0.11986,-0.0087517,-0.01248,-0.024176,-0.090911
0.13021,0.25462,0.10541,-0.10824,-0.022471,-0.018117,4.4421e-05,-0.0082193
-0.25532,0.047011,0.026784,0.039658,0.027034,0.023417,0.016806,0.01252
0.64917,0.21493,0.059523,0.00087272,0.0064515,0.010173,0.010284,0.072151
-0.61849,-0.45436,-0.13184,-0.021721,0.0090278,0.0043112,0.011519,0.045008
0.041641,-0.063769,0.015088,-0.051817,-0.059401,-0.041293,-0.065605,-0.1007
0.22938,0.073487,-0.070562,-0.034951,-0.02721,-0.0095741,0.020976,0.001875
0.50562,0.51213,0.071318,0.044314,0.035226,0.036981,0.060276,0.13391
-0.576,-0.70809,0.017988,0.05301,0.018646,-0.010872,-0.049232,-0.14967
-0.27351,0.35146,0.057815,0.14726,0.048292,0.018958,0.012881,0.0032105
0.19518,0.20767,-0.059566,-0.040203,-0.016151,0.0095486,-0.0032089,0.0073655
-0.19155,-0.37263,-0.12317,-0.25152,-0.049356,-0.038831,-0.019161,-0.0035488
0.225,0.25204,0.10962,0.052534,0.0036681,0.0068778,0.0043004,0.018125
0.26775,-0.058561,-0.087039,0.036364,0.018173,0.014054,0.028287,0.080757
-0.1001,-0.22649,0.147,0.05974,-0.01348,-0.025001,-0.033047,-0.057626
-0.14262,0.10691,-0.13297,-0.04104,-0.0052795,0.014735,0.031218,0.024674
0.15649,0.096673,-0.020446,-0.039234,-0.0041439,0.0081778,0.0021984,-0.040068
-0.1325,-0.016561,0.17966,0.10413,0.036638,0.0098387,-0.026592,-0.010462
0.13827,0.2578,0.0057219,0.10746,0.02305,0.011656,0.038295,0.073513
-0.35237,-0.17531,0.10518,-0.021999,-0.0061677,-0.017903,-0.030018,-0.093715
0.0666,-0.29312,-0.28866,-0.19109,-0.059144,-0.047856,-0.036496,-0.012868
0.18339,0.31093,-0.012574,-0.10342,0.0044966,0.046586,0.057726,0.11247
0.020615,-0.025875,-0.012303,0.045416,-0.0028765,-0.015956,-0.020874,-0.10067
-0.12572,-0.30122,0.055965,0.11474,0.0046779,0.0066746,0.0011728,0.051015
0.26679,0.050209,0.098969,0.11248,0.042911,0.020788,0.022451,0.044541
-0.2405,-0.13288,0.031521,-0.015836,-0.0051532,-0.012538,-0.034926,-0.080334
0.12462,0.58904,-0.098696,0.011316,-0.0064467,-0.0071651,0.00903,0.020983
0.0016369,-0.072284,0.037136,-0.18858,-0.023217,-0.0019114,-0.0016092,-0.049051
-0.33693,-0.18005,-0.021446,0.025459,0.007251,0.0034874,0.0037709,0.054144
0.19428,0.0058841,0.014841,0.021028,-0.032089,-0.0063359,-0.0058409,0.010906
0.11857,-0.13465,0.028807,-0.04519,0.038496,0.007903,0.032199,0.032558
0.014339,0.12169,-0.034396,0.13187,0.00018761,-0.0083285,-0.030517,-0.06052
0.077591,0.22525,-0.065621,0.083717,0.032496,0.023157,0.024679,0.028302
-0.15148,-0.36477,0.1224,-0.10365,-0.036716,-0.0305,-0.028947,-0.021802
-0.093222,-0.1175,-0.11894,-0.10221,-0.01243,-0.005395,-0.011944,-0.031833
0.23081,0.29625,0.069595,0.064325,0.019149,0.051345,0.051992,0.12245
-0.27886,-0.21509,-0.038608,0.02061,0.034407,-0.016844,-0.040512,-0.098751
0.012598,0.10128,0.017341,-0.038448,-0.068263,-0.022788,0.0072177,0.007124
0.067778,0.060596,0.073342,0.011744,0.00030942,0.001975,-0.00026175,-0.013414
0.17669,0.071223,0.0043532,0.053612,0.013798,0.01819,0.03857,0.073906
-0.098144,-0.029842,-0.095911,-0.069437,0.0037689,-0.028898,-0.048111,-0.07452
0.1485,0.093207,-0.047775,0.14234,0.048675,0.024845,0.013275,0.018214
-0.18682,-0.19364,0.1019,-0.10026,-0.038714,-0.015694,-0.019254,-0.030254
0.010584,0.013982,-0.053097,-0.14097,-0.023859,-0.017415,0.0029757,0.014904
0.089663,0.010801,0.0028746,0.067281,0.01515,0.035636,0.025503,0.036851
-0.23318,0.044905,0.074477,0.17329,0.039166,0.0031444,0.0094356,0.0045081
0.32944,0.16966,0.0053677,0.029107,0.048022,0.01817,0.0095484,0.050657
-0.30924,-0.39675,-0.079605,-0.20845,-0.12255,-0.059765,-0.060104,-0.090531
0.16339,0.04903,0.022506,0.015867,-0.0039754,0.011554,0.026945,0.010338
-0.11111,0.078114,-0.040025,-0.063082,0.02078,0.0054674,0.012727,-0.022024
0.06406,0.12907,0.068636,0.11749,0.037566,0.023331,0.0064279,0.054387
0.057861,0.070093,-0.034347,0.088833,0.015075,0.010163,-0.0077637,0.0051797
-0.081096,-0.043469,0.01828,-0.071253,-0.0076759,-0.010939,0.0090631,0.0024016
0.21117,-0.11765,0.039161,0.019405,-0.030736,-0.024684,-0.044752,-0.10205
-0.158,-0.011995,-0.080875,-0.022843,0.016158,0.0077158,0.010443,0.0047371
-0.20352,0.030899,-0.10722,-0.026983,-0.0076547,-0.0076595,0.0027859,0.034117
0.5047,0.21379,0.22596,0.0062857,0.022832,0.030716,0.057322,0.13482
-0.1816,0.005318,-0.026453,0.037525,0.0061227,-0.0020577,-0.013397,-0.028994
-0.48898,-0.5786,-0.059631,-0.097294,-0.065461,-0.051072,-0.068702,-0.11367
0.24652,0.25964,0.024968,0.039777,0.027028,0.040222,0.055499,0.052386
-0.030187,0.067892,-0.061619,0.058878,0.010378,-0.016908,-0.02359,-0.046822
0.27392,0.16749,0.047907,-0.070303,0.0098014,0.012214,0.014362,0.041441
0.3608,-0.065809,-0.091652,0.043775,-0.0057996,0.018439,0.013129,0.0043363
-0.66175,-0.045814,0.097911,0.050275,0.018317,-0.013742,-0.019435,-0.025569
-0.053335,0.016256,-0.024041,-0.12072,-0.019467,-0.014015,-0.02858,-0.040607
0.21559,0.15872,0.034524,0.10892,0.013498,0.033144,0.048278,0.10761
0.18277,-0.20538,-0.03923,-0.073708,-0.031458,-0.036501,-0.023138,-0.034004
-0.035329,-0.06925,0.0042039,0.10413,0.01727,-0.0044008,-0.00054228,-0.012224
-0.18861,0.02719,0.062681,-0.069401,0.018803,0.027687,0.022405,0.009066
-0.1512,-0.080713,-0.0753,-0.056191,-0.034875,-0.018516,-0.032356,-0.055822
0.18779,0.33326,0.04297,0.033563,0.027984,0.020961,0.038338,0.066871
0.017679,-0.24672,-0.012353,0.050842,-0.011399,-0.010155,-0.031137,-0.020915
-0.1207,0.054151,-0.014535,0.0031976,0.0032944,0.0053726,0.0091869,0.0015261
0.12555,-0.092507,-0.056831,-0.10147,-0.021536,-0.033913,-0.036074,-0.060765
-0.0086095,0.30515,0.10369,0.065378,0.023698,0.020562,0.051724,0.058083
0.21886,-0.018848,-0.10246,0.004381,0.014237,-0.0029399,-0.00881,0.0065813
0.025963,-0.4241,-0.04956,-0.002431,-0.026242,0.012876,-0.0069015,-0.035728
-0.28359,0.20664,0.16126,-0.0089616,0.011839,0.013374,0.026032,0.07141
-0.1559,0.022248,-0.032501,-0.014533,-0.019816,-0.0092753,-0.027341,-0.016315
0.12758,0.00011831,0.040575,-0.026469,0.0038544,-0.008269,-0.010869,-0.010508
0.098587,0.20392,0.020308,0.15861,0.035949,0.00065699,-0.002713,0.0022235
-0.030835,-0.31812,-0.055193,-0.060802,-0.0095856,-0.021683,-0.018471,-0.11931
-0.18894,-0.11154,-0.061764,-0.059846,-0.031373,0.01835,0.043491,0.093265
0.078725,0.42635,0.023552,-0.026242,0.02504,0.011289,0.019209,-0.0008336
0.31204,-0.10215,-0.0336,-0.014949,-0.020286,-0.011679,-0.013097,0.06722
-0.12958,-0.25154,-0.0061282,0.00499,-0.0035252,-0.011531,-0.037717,-0.077298
0.11238,0.25125,0.036553,0.02543,0.020444,0.011713,0.0079196,0.034798
-0.20577,-0.079,0.048596,0.085033,0.035876,0.026799,0.030125,-0.009999
-0.093787,-0.032583,-0.10975,-0.035434,-0.051005,-0.02094,-0.017914,-0.031385
0.087062,0.053224,-0.0083349,-0.063069,0.002066,0.0013562,-0.0033216,0.0025044
-0.039789,-0.049371,0.22777,0.11099,0.0077774,-0.015601,0.0036524,0.0062707
0.12624,0.16656,-0.081764,-0.068299,-0.010155,-0.009187,-0.020371,-0.011889
0.084795,-0.21344,0.054248,-0.030745,0.0032907,0.020756,0.034025,0.057573
-0.28104,0.084259,-0.10751,0.051998,0.0172,0.011896,-0.0050137,-0.0041647
0.04508,-0.18967,-0.083574,-0.092955,-0.015019,-0.012174,-0.0046874,-0.01771
-0.014036,0.012621,-0.0072092,-0.019492,-0.0072581,-0.012276,-0.0040994,0.00085685
0.034776,0.16869,0.074866,0.085775,0.017073,0.01946,-0.01894,-0.034925
0.46579,0.27927,-0.047572,-0.010744,-0.0046549,-0.010733,0.028836,0.054146
-0.28285,-0.24127,0.025009,0.01958,0.02104,0.0064345,-0.0014824,-0.02917
-0.023171,-0.13533,0.098497,0.10655,-0.007762,0.00049968,-0.008411,-0.027254
-0.42662,0.033975,-0.052633,-0.10949,-0.013318,-0.013105,0.00017293,-0.033879
0.21032,0.10957,0.0019513,-0.043165,-0.0037725,0.020096,0.0086003,0.099504
0.098924,-0.11253,-0.050105,-0.031133,-0.018406,-0.009476,-0.022214,-0.033182
0.051815,0.12485,0.048646,0.097824,0.028652,-0.016057,-0.0063402,-0.017711
0.053131,-0.11613,0.016183,0.085447,0.0046773,0.0080437,0.017162,-0.010241
0.094361,0.070826,0.023375,-0.14653,-0.019799,0.031515,0.040479,0.090792
-0.23184,-0.063862,-0.087066,-0.043219,-0.0054196,-0.031577,-0.030144,-0.066253
-0.036145,0.011757,-0.019139,-0.033874,-0.0065687,-0.0014799,-0.022841,-0.012741
0.29746,0.087577,0.046905,0.092986,0.031685,0.0047299,-0.00011655,0.0012351
-0.14584,-0.023115,0.040567,0.079981,0.015724,0.0028201,0.030228,0.022532
-0.13954,-0.13225,-0.053595,0.013193,-0.031023,-0.0070571,-0.025527,-0.042514
0.051466,0.065036,0.0070647,-0.18577,0.008487,0.022115,0.020174,0.009409
-0.13391,-0.033086,-0.089342,0.044909,-0.030048,-0.034548,-0.020098,0.014496
0.10304,0.15857,0.11873,0.094871,0.048406,0.0496,0.033434,0.043338
0.06882,-0.040796,0.022402,0.26773,0.024854,-0.030076,-0.03007,-0.052254
0.022662,0.015985,0.059451,-0.31238,-0.069605,-0.0079199,0.00042376,0.016957
0.10588,0.030918,-0.098168,-0.12244,-0.0084162,-0.00891,5.5014e-06,-0.0067575
0.013627,-0.23886,-0.075533,0.040927,0.005438,0.01385,-0.007819,-0.0062166
-0.10654,0.23008,0.14283,0.030204,0.050357,0.029135,0.0473,0.065377
-0.22475,-0.23338,-0.16196,0.081228,-0.021747,-0.02552,-0.037762,-0.081158
0.25909,0.12214,0.04126,-0.023052,-0.0073951,-0.0016409,0.010391,0.038425
-0.20319,-0.084407,0.10402,0.00020656,-0.01568,-0.016382,-0.011441,-0.060367
0.15317,-0.01537,-0.043974,-0.011907,0.023866,0.016215,-0.0017994,0.036425
0.077875,0.28369,0.01915,0.11297,0.017484,0.010203,0.015754,0.055268
-0.014804,0.024313,-0.0035055,-0.10195,-0.019373,-0.011032,-0.013607,-0.050825
-0.26484,-0.27023,-0.12763,0.01428,-0.0010777,-0.0085334,-0.0040914,-0.00074835
0.070846,0.11793,0.099786,-0.039687,-0.013956,0.0097248,0.0050915,-0.021252
0.12598,-0.054687,0.045818,0.015854,0.011908,0.004478,0.02162,0.043693
0.2919,0.14022,0.038473,0.093547,0.029304,0.038007,0.021952,0.037603
-0.46235,-0.23603,-0.039513,0.043918,0.0067748,-0.046141,-0.056459,-0.070976
-0.050996,0.12053,-0.19596,-0.27414,-0.07916,-0.013736,-0.0026527,0.022507
0.30652,-0.16536,0.12388,0.037939,0.0059987,0.010152,0.011604,-0.025723
-0.14867,0.054972,0.029512,0.058918,0.028133,-0.0057034,0.017743,0.018815
0.17595,0.2039,0.060124,0.094452,0.01101,0.0091069,-0.015255,0.00010405
0.052723,0.016422,-0.049796,0.0049463,0.017455,0.015667,0.014417,-0.003398
-0.12057,0.12593,0.043569,0.025637,0.0086571,-0.0014852,-0.0024014,0.024321
-0.20325,-0.38114,-0.066003,-0.085133,-0.023056,-0.0031394,-0.018681,-0.025728
0.086813,0.11276,0.0043111,0.02434,-0.0073544,-0.0048024,0.020331,0.018666
-0.12381,-0.13434,-0.057979,-0.060222,-0.014638,-0.014205,-0.018207,-0.045382
0.14337,0.10413,0.044001,0.090387,0.025246,0.023387,0.029642,0.063495
-0.063024,0.0466,0.021152,-0.040077,-0.012897,-0.0091914,-0.023817,-0.029716
0.094015,-0.0029327,0.021802,-0.061629,-0.012078,-0.025998,-0.0069426,-0.0048453
0.21606,0.12632,-0.0011238,0.11111,0.027531,0.027648,0.025343,0.0050519
-0.10427,0.081462,0.0067929,-0.069126,0.012053,0.011115,0.0025397,0.015292
-0.095611,-0.24815,-0.02504,-0.0087859,-0.027326,-0.0052857,-0.012958,-0.02914
0.08328,0.17566,0.028173,0.065598,0.010966,0.0097107,0.0022866,0.035511
-0.14803,-0.17065,-0.028921,-0.041043,-0.01361,-0.029796,-0.029744,-0.025372
0.091743,-0.1691,-0.047711,0.031097,0.00066186,-0.0065598,0.00051252,-0.016639
-0.16645,0.22105,0.058127,-0.037721,-0.00071238,0.0013617,0.015156,-0.00085632
0.047133,-0.13852,-0.093684,-0.059352,-0.017533,0.0096446,0.014389,0.037616
0.14871,0.25459,0.075547,0.084029,0.044117,0.018294,0.013961,0.0051119
-0.39799,-0.22257,0.011596,-0.0054718,0.004652,-0.0040012,-0.0017278,-0.027926
0.39424,0.16561,0.042837,-0.022804,-0.026532,-0.002691,-0.009321,0.016788
0.11363,0.0052139,0.0051828,0.0087305,0.013009,-0.0014035,-0.016782,-0.040256
-0.082336,0.014071,-8.6928e-05,0.11246,-0.0018356,0.015278,0.02259,0.066752
-0.060814,-0.036144,-0.12187,-0.16505,-0.039958,-0.015321,-0.031978,-0.044825
-0.096386,0.00081191,0.037722,0.074157,0.031309,-0.0073605,0.022553,0.023609
-0.0035518,-0.14283,0.0016357,-0.084534,-0.0069158,-0.023329,-0.04039,-0.08721
0.16059,0.039081,0.042915,0.022373,0.0093223,0.022832,0.037061,0.068084
0.065569,0.12378,0.020705,0.097482,0.0096342,0.0063267,0.020624,0.05197
-0.2983,-0.10749,-0.018178,0.00755,0.0096069,-0.010104,-0.027095,-0.041893
-0.041504,-0.021167,-0.026745,-0.044587,-0.021998,0.012824,0.011185,0.020734
0.1326,0.016802,0.0030735,-0.074663,0.0086386,0.0049557,0.0027207,-0.04934
0.17771,0.07812,0.0091435,0.12055,-0.023354,-0.0024003,-0.0055581,0.036875
-0.1003,-0.14075,-0.03156,-0.13052,-0.01624,-0.0014728,-0.0057917,-0.017472
0.026647,0.23581,0.037602,0.063227,0.030164,-0.00020199,0.017698,0.0065089
-0.15082,-0.073494,-0.0018352,0.014822,0.014448,-0.014396,-0.028779,-0.023772
0.017085,-0.077175,-0.024748,-0.056482,-0.0086216,0.0026188,-0.020165,-0.029945
0.031278,0.020498,0.023471,0.05279,-3.2478e-06,-0.0040346,0.02013,0.027236
0.18116,0.093253,0.017544,0.045888,0.0089266,0.02018,0.037394,0.054056
-0.15853,-0.063074,-0.011708,-0.061691,-0.021102,-0.010772,-0.015351,0.0034774
0.089476,-0.027102,0.0055257,0.05784,0.019039,0.012444,0.0023406,-0.0076783
-0.09945,-0.032969,-0.032786,-0.041294,-0.01151,-0.019526,-0.0035152,-0.026791
-0.039158,-0.19688,0.029276,-0.023623,-0.011357,0.0027702,0.0059002,0.0080955
0.15976,0.27176,0.011907,0.008932,0.019424,0.024769,-0.0086787,0.010587
-0.034787,-0.031519,-0.045696,-0.014114,-0.0050637,-0.039315,-0.031745,-0.035213
-0.1075,0.035532,-0.041599,0.0010275,-0.014358,0.013811,0.0070026,-0.027772
-0.011252,0.0052644,0.063796,0.023331,-0.00041933,0.012423,0.021717,0.0253
0.043813,-0.11416,-0.0023528,0.0062602,0.0057688,-0.0042968,-0.0030648,-0.00062756
-0.050547,0.067373,0.010499,-0.0029405,0.012276,-0.01284,0.010976,0.012064
0.16787,0.087657,0.055869,0.042919,0.019308,0.03368,0.0093334,0.04814
-0.18262,-0.11764,-0.069181,-0.074713,-0.0042573,-0.028835,-0.031283,-0.017128
0.11755,-0.050613,-0.020934,-0.035481,-0.050568,0.0026619,0.014223,-0.011739
0.12345,0.16178,0.020699,0.066749,0.020951,0.010889,0.013094,-0.0060014
-0.15718,-0.060108,-0.014961,0.012974,-0.0007617,-0.019872,-0.011209,0.0078394
-0.084164,0.048534,0.035701,0.060671,0.024731,0.011868,-0.01961,-0.040583
0.083986,-0.1138,0.0081519,-0.071746,-0.012174,0.0045021,0.011333,0.036229
-0.09886,-0.10873,-0.035546,0.0060974,0.0054649,-0.0029205,-0.0043099,-0.042911
0.17116,0.057486,-0.0019993,-0.088697,-0.0085268,0.0052425,0.019393,0.0033489
-0.075433,0.11331,0.0069955,0.050231,-0.00747,-0.017845,-0.019143,0.0032215
-0.018891,0.029346,0.014785,0.024728,0.0085059,0.0138,0.020657,0.066098
0.14517,0.033603,0.0058062,0.01487,0.00029206,-0.0091553,-0.0097217,-0.011237
-0.11449,-0.16999,0.011511,0.036673,0.0069921,0.014872,0.0068113,0.0053992
0.10097,0.067073,-0.061532,-0.089259,-0.025962,-0.01569,-0.0079677,-0.0014295
-0.23117,0.072341,0.0058134,0.0043851,0.0031703,0.0084841,-0.01508,-0.047578
