0.23942,0.29618,0.061789,0.040823,0.028207,0.036187,0.04056,0.080612
-0.33318,-0.16452,-0.014912,-0.016849,-0.024783,-0.056006,-0.067905,-0.10442
0.09142,-0.19883,-0.14234,0.0089702,0.014848,0.0068109,0.0095625,-0.0018014
-0.010518,-0.20249,-0.077866,-0.014906,-0.017051,-0.0019344,0.015363,0.029095
0.063909,-0.24931,0.015583,-0.010197,-0.026624,-0.027379,-0.018885,-0.0038912
0.43971,0.36123,0.014645,-0.10903,0.0020496,0.024557,0.032278,0.086769
-0.51547,0.57968,0.18671,0.05689,0.038152,0.01368,0.013088,0.035527
0.15267,-0.36312,-0.037024,0.020095,-0.019386,-0.0048708,-0.036947,-0.13398
-0.28044,-0.17543,-0.030632,0.047422,0.0095894,0.0083719,-0.00027666,-0.0073024
-0.030707,0.096516,0.0029575,0.045988,0.023873,0.0068269,0.021781,0.0099625
0.42864,-0.11112,0.00072799,-0.05418,-0.046658,-0.040606,-0.033164,-0.034457
0.030569,0.40962,-0.014927,-0.018956,0.016747,0.014507,0.037983,0.079141
-0.47235,-0.22031,0.11095,0.033698,0.026409,0.031398,-0.014933,-0.031192
-0.21183,-0.63821,-0.16194,-0.014537,-0.017997,-0.029242,-0.0046754,-0.021142
0.50653,0.72198,-0.092381,-0.07897,-0.023128,0.019778,0.029359,0.10156
0.023301,-0.057334,0.037828,0.081476,0.010589,-0.024986,-0.061635,-0.16361
0.31759,-0.27544,0.0332,0.10668,0.028092,0.015877,0.05011,0.13536
-0.031314,0.32436,0.16728,-0.16764,-0.033389,-0.021894,-0.041963,-0.065586
-0.22559,-0.0076777,-0.0050026,0.09483,0.036958,0.049102,0.068171,0.17706
-0.15387,-0.3248,-0.10059,-0.16751,-0.042083,-0.028935,-0.018041,-0.091516
-0.27284,-0.038683,-0.041136,0.038773,0.018738,-0.037155,-0.081837,-0.15377
0.30745,0.36913,0.095417,0.043147,-0.022461,0.032417,0.087861,0.13829
-0.66072,-0.29393,-0.026656,0.0342,0.022191,0.0080893,-0.016502,-0.058633
0.62407,-0.22894,-0.15708,0.11408,0.0046281,-0.016234,-0.027394,-0.047843
0.29255,0.47133,0.11855,-0.061061,-0.0045289,0.014234,0.00088269,-0.02262
-0.41522,0.16589,0.027185,0.023672,0.010542,-0.0020433,-0.025048,-0.050966
0.32577,-0.13895,-0.032364,-0.18766,-0.036036,0.028651,0.074816,0.14268
0.096794,0.39058,0.088633,0.084731,0.050977,-0.0031139,0.011629,0.13013
0.32134,-0.76331,-0.047145,0.08945,-0.017661,-0.034875,-0.050445,-0.088022
-1.0704,-0.30518,-0.056828,-0.072934,-0.0078113,-0.011921,-0.0098483,0.011302
0.58578,0.39748,-0.010763,0.065947,-0.021276,-0.0279,-0.015113,-0.057463
-0.34302,0.20506,0.083143,0.053321,0.082375,0.065787,0.042977,0.0086967
-0.098743,-0.13039,-0.056484,-0.18005,-0.095414,-0.011935,-0.0076653,0.020513
0.068826,0.40942,0.01554,-0.085691,-0.0078103,-0.010937,-0.01104,-0.062571
0.58913,-0.15707,0.010018,0.049184,0.024887,-0.0015068,0.0013118,-0.022786
-0.26555,-0.61638,-0.041953,0.10122,-0.0051124,-0.0071957,-0.025621,-0.079266
0.04926,0.58034,0.03132,0.079292,0.058422,0.042055,0.048436,0.12749
-0.21215,-0.2219,-0.0047714,0.092926,0.0044708,-0.010361,-0.026871,-0.042709
0.22727,0.14915,0.0057402,-0.24153,-0.049921,-0.0085851,0.029387,0.15285
0.20715,-0.29135,3.9009e-05,0.050788,0.0044681,-0.015455,-0.017399,-0.090126
-0.29129,0.47872,0.024696,0.053587,0.019102,0.0078884,0.027989,0.08016
-0.01164,-0.40978,0.016984,0.10054,0.0018184,-0.016692,-0.037478,-0.031539
-0.51572,0.45478,0.031505,0.18205,0.038743,0.043808,0.01307,-0.026761
0.5039,-0.57084,-0.17382,-0.54656,-0.15103,-0.083683,-0.069877,-0.18665
-0.22991,0.26861,0.041944,0.039913,0.034501,0.015351,0.018976,0.02808
0.068635,-0.18535,-0.0082556,-0.018241,0.017631,0.03667,0.030241,0.078725
0.37987,0.15921,0.066703,0.1325,0.048638,0.019672,0.026915,0.028123
-0.29418,0.18388,0.111,0.25995,0.096308,0.050452,0.071787,0.18898
-0.02404,-0.29938,-0.086021,0.0066485,-0.050535,-0.074152,-0.11635,-0.20432
0.4847,0.52219,-0.016456,-0.17301,-0.048597,0.020665,0.056065,0.074555
-0.13139,-0.39707,-0.03192,0.049576,-0.0077994,-0.032558,-0.028479,-0.021565
-0.43937,0.10125,0.023693,-0.11487,0.0088807,0.023723,0.012455,0.030503
0.27569,-0.46422,-0.021649,0.020458,-0.030083,-0.0059964,-0.0089487,-0.097401
0.027449,0.26941,0.019426,0.11089,-0.0075105,-0.035864,-0.04602,-0.037835
-0.6757,-0.26479,-0.056293,-0.17256,-0.016901,0.004444,0.010538,0.022219
0.74752,0.63109,0.10269,0.075631,0.051538,0.052491,0.051363,0.07559
-0.41644,-0.15118,-0.034955,-0.020037,0.042012,-0.0088546,-0.025075,-0.072477
0.088442,-0.15912,-0.031855,0.063506,-0.037303,-0.0077188,-3.6164e-05,-0.0076602
-0.17761,0.34705,0.064924,0.005627,0.024703,0.024564,0.063879,0.24642
0.43746,-0.19886,-0.057363,-0.076865,-0.053268,-0.029351,-0.067901,-0.22495
0.075043,-0.27766,-0.023981,-0.043824,-0.0058398,-0.013411,0.026251,0.14757
-0.25165,0.29425,0.039833,0.14328,0.049429,-0.0059223,-0.021083,-0.090213
0.43655,-0.27506,0.055794,0.17146,0.026212,0.032061,0.016531,-0.0094862
-0.2266,0.22405,-0.0073794,-0.029777,0.002343,0.014593,0.006317,-0.0090974
-0.099661,-0.2784,-0.11051,-0.36644,-0.076968,-0.019144,-0.035861,-0.10449
-0.11786,-0.10101,0.027939,0.06859,-0.00064447,-0.022033,-0.00020854,0.048845
-0.057388,0.48538,0.017709,-0.051425,-0.041766,-0.024988,-0.019006,0.014547
-0.042644,0.069541,0.015458,0.087745,0.034536,0.034864,0.041098,0.075102
-0.14012,-0.24441,-0.0097375,0.1284,0.049062,0.0094234,0.008659,-0.073177
-0.039089,0.0063529,0.028212,0.024875,0.041218,0.023921,0.032326,0.19521
0.30634,-0.20831,-0.073901,-0.11305,-0.051405,-0.062197,-0.098898,-0.2605
0.058388,0.28389,0.1133,0.05003,0.020996,0.040031,0.059964,0.14491
-0.076058,0.13136,0.019022,0.11427,0.00017044,0.041281,0.070861,0.10557
0.70856,-0.15828,-0.07601,-0.13327,-0.012893,-0.035363,-0.04342,-0.051697
-0.48816,-0.15538,-0.039407,-0.038512,-0.034393,-0.034025,-0.072566,-0.19526
-0.16238,0.015308,0.027072,0.084131,0.0055359,0.021546,0.022024,-0.029025
-0.076661,0.0028236,-0.024894,-0.071293,-0.0027171,-0.025085,-0.0020536,0.071726
-0.13364,0.0032139,0.031687,-0.067672,0.01117,0.021367,0.01152,0.021255
0.17973,0.0092348,-0.0056328,0.017399,0.00055024,0.012584,0.024002,0.12479
-0.16834,0.1303,0.028012,0.14616,0.028315,-0.01214,-0.018793,-0.038831
0.0032257,0.02969,-0.015035,-0.1249,-0.006627,0.0021693,-0.0069103,-0.031401
0.0095474,-0.028645,0.0064773,0.088955,0.0055812,0.0089228,0.028955,0.03052
0.11133,-0.12529,-0.032093,-0.062116,-0.028382,-0.015087,-0.027941,-0.063489
0.56854,0.23685,0.0020998,-0.0065623,-0.0066232,0.0084037,0.033617,0.015128
-0.53995,-0.13257,0.077499,0.14684,0.016374,0.0091158,-0.020666,-0.014497
-0.11362,-0.20463,-0.072118,-0.086367,-0.014019,-0.013022,-0.019023,-0.042649
-0.030048,0.1365,-0.0022461,-0.081816,0.011476,0.012147,0.022655,0.071577
0.31654,6.0741e-06,0.036225,0.089143,0.037933,-0.009334,-0.021013,-0.02321
0.21149,0.04317,0.0033896,-0.066886,-0.044384,-0.007377,0.029225,0.0089309
-0.28559,0.049286,0.0079538,0.10518,0.037533,0.0099973,-0.014567,0.08187
-0.01966,-0.2211,-0.09892,-0.17689,-0.083953,-0.035503,-0.019959,-0.1329
-0.19283,0.23497,0.057687,-0.0075347,0.051686,0.051324,0.044024,0.090667
-0.14559,-0.10316,0.017062,0.10507,0.030078,0.0048108,-0.0024403,-0.02144
-0.060474,-0.11614,-0.0015688,0.26244,0.01511,-0.018769,-0.026512,-0.008805
0.43529,0.31444,0.0024195,-0.31649,-0.055726,-0.0036997,-0.012379,-0.0046338
-0.13773,-0.014343,-0.017187,0.071868,0.0052243,-0.012339,0.0090207,-0.040397
-0.026556,-0.24394,0.018325,-0.071862,-0.012677,0.0023655,-0.0088092,-0.0067734
0.019056,-0.21197,-0.062492,-0.043816,-0.015293,-0.014101,-0.0030032,0.010365
0.36356,0.37619,0.076516,0.078623,0.02903,0.0087058,0.018899,0.065813
0.15024,-0.020954,-0.0021488,0.007002,0.019072,0.031778,0.017955,-0.004413
-0.017932,0.41468,0.052896,0.18701,0.056614,0.023828,0.02536,0.034081
-0.68617,-0.77951,-0.086756,-0.076581,-0.069209,-0.046515,-0.052837,-0.084355
0.070757,0.30981,0.0082897,-0.15896,-0.0068911,0.0159,0.040894,0.06214
-0.34274,-0.12179,-0.021572,-0.029261,-0.0065761,-0.0078264,-0.037473,-0.041989
0.37125,0.028497,-0.012403,0.054201,0.0175,-0.0084016,-0.0068669,-0.052784
-0.010425,-0.057718,-0.0033012,0.044017,-0.020758,-0.01706,-0.00013028,0.045729
0.11071,0.17642,0.05262,0.049045,0.026978,0.0053783,-0.0093186,0.011811
0.30983,0.26414,0.014727,-0.063988,-0.011222,0.020042,0.012703,-0.01346
0.067502,-0.41026,-0.0076732,0.032687,-0.002554,-0.0041027,0.011566,-0.053175
-0.066803,0.31807,0.071227,0.065431,0.021753,0.026878,0.026633,0.135
-0.30291,-0.38667,-0.11591,-0.082939,-0.024209,-0.035346,-0.035633,-0.074028
-0.062751,0.26419,0.0011046,-0.029377,0.023641,0.027986,0.035788,0.092854
-0.21434,-0.066026,0.0082076,-0.085954,-0.037829,-0.025406,-0.032598,-0.075751
0.27241,-0.097,0.0070693,0.0213,0.010088,-0.00038386,-0.0065882,-0.072513
0.021155,-0.087568,-0.0099061,0.066317,0.011062,0.0090782,0.019815,0.063132
-0.094557,0.11746,-0.0033922,0.14317,0.011853,0.0027408,-0.00054996,-0.012755
0.1737,0.18106,0.034661,0.0019412,0.012331,-0.0039894,-0.036713,-0.0032716
0.30082,0.15689,0.049716,-0.06066,-0.018872,-0.0034665,0.020454,-0.0176
-0.26946,-0.34655,-0.051951,-0.091803,-0.011515,0.0042183,0.030137,0.053909
-0.13216,0.029574,-0.020422,-0.09959,-0.012472,-0.0043739,-0.023416,-0.038511
-0.092557,0.02737,0.011337,0.11112,0.025229,0.017726,0.015994,0.017738
0.02146,-0.19646,-0.011525,0.032506,-0.0076042,-0.015239,-0.031295,-0.03526
0.14068,0.10117,0.012433,-0.014966,-0.0013495,-0.0092655,0.014515,0.036561
-0.17848,0.17147,0.0050407,0.023605,-0.0026116,0.012503,0.036426,0.09213
0.21447,-0.023383,0.0054002,0.023413,0.012293,-0.0043221,-0.035622,-0.056518
-0.04579,0.11147,-0.01763,-0.070136,0.0044774,0.0030162,-0.013831,-0.01909
0.049891,-0.048101,-0.0092265,-0.0070902,-0.033803,-0.012183,-0.022906,-0.10034
0.0098866,-0.25933,-0.023959,-0.03764,0.0067703,0.012636,0.038955,0.051572
-0.095789,0.10315,0.047591,0.17386,0.047888,0.014884,0.023455,-0.0002515
-0.07288,-0.062091,0.010055,-0.044803,-0.035732,-0.044727,-0.045978,-0.012802
0.18639,0.12769,0.042956,0.056113,0.029007,0.044397,0.033621,0.014789
-0.14014,-0.030979,-0.041446,-0.30476,-0.039478,0.0084071,0.027585,0.10669
-0.077716,0.062799,-0.063715,0.099226,0.00073435,-0.035924,-0.048821,-0.033521
0.52842,0.2127,0.069694,0.21366,0.040121,0.04387,0.054054,0.023938
-0.58055,-0.38729,-0.055387,-0.1798,-0.030694,-0.041486,-0.070297,-0.11182
-0.022216,-0.043414,-0.0014538,0.083315,-0.0084408,-0.0029725,-0.00010923,-0.0429
0.086399,0.01606,0.036274,-0.012329,0.0055684,-0.012333,0.006859,0.073661
0.26152,0.11752,-0.020199,-0.060377,-0.027433,0.0088253,-0.0023321,-0.0052251
-0.24601,0.18902,0.024558,0.017164,0.017823,0.013968,0.019444,0.016354
0.21322,-0.036388,0.014369,0.10278,0.039942,-0.0043864,0.0099253,0.035912
0.022977,0.003105,0.027391,-0.030535,-0.0001062,0.032139,0.031776,0.052668
-0.19078,-0.12194,-0.069165,-0.023821,-0.00086032,-0.016944,-0.039946,-0.11357
0.15892,0.12904,0.052902,0.052362,0.0062406,0.0046375,-0.0021458,0.021451
-0.13774,-0.31145,-0.059362,-0.17696,-0.041502,-0.0047328,0.020103,-0.034069
-0.11862,0.060576,-0.015036,-0.00048013,-0.0035928,0.0017522,-0.0044991,0.048862
-0.048283,-0.086239,0.030012,0.10584,0.0027836,-0.0071808,-0.013424,-0.0019022
0.13649,0.041566,-0.0097491,0.056833,0.0012108,-0.039285,-0.037786,-0.059825
0.19353,0.27544,0.03788,-0.099937,-0.00023793,0.02277,0.032018,0.025074
-0.12799,0.0075023,-0.014457,0.14384,0.0065575,-0.0083269,-0.014683,0.0040766
0.18583,-0.20834,-0.01842,-0.14919,-0.0015692,0.016027,-0.0057878,-0.02829
-0.27365,0.53902,0.041256,-0.010446,0.014606,0.025593,0.066615,0.13121
0.22537,-0.5129,-0.0078685,0.14549,0.031656,-0.0031402,-0.024124,-0.049275
-0.16307,-0.049177,0.013225,0.0054,-0.013064,-0.0079095,-0.012665,-0.00063059
0.0050285,0.25323,-0.028915,-0.15023,-0.033873,-0.0047087,0.0067896,-0.013505
-0.0047585,-0.40632,-0.025385,-0.017405,-0.015459,-0.001786,0.0024556,-0.011427
0.074529,0.65798,0.070481,0.10647,0.034066,0.016068,0.0050664,0.043257
-0.16088,-0.32665,-0.10841,-0.044537,-0.026163,-0.037397,-0.056088,-0.11598
-0.09068,-0.40429,0.024218,0.013859,-0.00098751,0.0095468,0.021911,0.01059
0.022509,-0.10189,-0.01551,-0.093304,-0.0076735,-0.014932,0.012524,-0.0063449
0.15739,0.29617,0.061953,0.14971,0.055325,0.037821,0.025363,0.060633
0.17399,0.36412,0.022569,0.0086508,-0.0072866,-0.011536,-0.025104,0.017326
-0.038215,-0.10689,0.030489,0.014867,-0.00015263,0.0014581,0.017877,0.021092
0.15081,0.070305,-0.062907,-0.19872,-0.056025,-0.016563,-0.024866,-0.01313
-0.28623,-0.028909,-0.0080021,0.11802,0.020494,-0.0028028,-0.027882,-0.053589
0.13879,-0.0028393,0.05411,0.12156,0.034205,0.050721,0.056012,0.056045
-0.24941,-0.2396,-0.072289,-0.21125,-0.038193,-0.043469,-0.023056,-0.02827
-0.015258,-0.17372,-0.012419,-0.028511,-0.0012424,0.0035778,0.0082791,-0.033645
0.005191,0.51188,0.054071,0.20134,0.035818,0.027593,0.0404,0.16427
0.024561,-0.23833,-0.044399,-0.09176,-0.020658,-0.018543,-0.028607,-0.16951
0.006882,-0.28974,-0.010458,-0.032739,-0.0065462,-0.017871,-0.027238,-0.058822
0.33103,0.40098,0.078359,0.16739,0.031296,0.021642,0.020769,0.12115
-0.1084,-0.20705,-0.011759,-0.085339,-0.016522,-0.01725,-0.025379,-0.035768
0.24677,0.1741,-0.022564,-0.088044,-0.0015942,0.013929,0.021812,0.08787
-0.78837,-0.39477,-0.03976,0.018448,-0.025509,-0.033147,-0.048466,-0.14042
0.21725,-0.11242,0.0069693,-0.047178,0.0054787,0.0057211,0.01399,-0.0093932
0.21689,0.69475,0.062732,0.12143,0.021076,0.036896,0.045307,0.10611
0.021893,0.15824,0.0099829,-0.053579,0.005698,0.013553,0.014337,0.04202
0.005018,-0.42137,-0.042326,0.02973,-0.0093576,-0.017462,-0.02426,-0.076831
0.43672,0.30927,0.030416,0.090543,0.022829,0.014072,0.023119,0.014937
-0.54557,-0.21119,-0.061124,-0.15197,-0.03834,-0.032581,1.7681e-05,0.051505
-0.10089,-0.33235,-0.020173,-0.064656,-0.013173,-0.016886,-0.039059,-0.076504
0.073554,-0.058062,-0.0029229,-0.0067133,0.0045434,0.014261,-0.008244,-0.01724
0.10214,0.2902,0.04548,0.16245,0.038167,0.014041,0.014434,0.026768
0.02456,-0.25478,0.070534,0.098802,0.017259,0.006023,-0.017636,-0.05303
-0.079397,0.28721,-0.052633,-0.15129,-0.034903,-0.0096239,0.013112,0.033306
0.019013,-0.024386,-0.003691,0.020901,0.022138,-0.0014802,-0.002298,0.0052241
-0.13901,-0.044215,-0.017112,-0.033674,-0.038317,-0.016298,0.0067431,-0.011988
0.28399,-0.010792,0.024116,0.059511,0.025838,0.02409,0.0012713,0.059502
-0.18799,0.069986,-0.028649,-0.14507,-0.04322,-0.0053766,0.0045623,2.9386e-05
0.29598,0.3074,0.004111,0.032316,0.020185,0.012327,0.039635,0.073784
-0.25007,-0.42545,-0.0026984,0.09191,0.028638,-0.0011651,-0.019117,-0.072505
0.30452,0.19644,0.044675,0.065247,0.02128,0.0085594,0.022951,0.020447
-0.3549,-0.064865,-0.033364,-0.18812,-0.056534,-0.044696,-0.076931,-0.13298
-0.01109,-0.29849,-0.033528,0.058327,-0.0016961,0.0029394,0.009001,0.021328
0.03082,0.20429,0.028741,0.077676,0.03729,0.026379,-0.00055684,0.061727
-0.025237,0.091033,-0.0026448,0.0021607,0.013454,0.010028,0.019665,-0.010794
0.10391,-0.067514,0.028659,0.13578,0.0048304,-0.0069046,-0.00011063,-0.014996
-0.094757,-0.05108,-0.041403,-0.19392,-0.051119,-0.016371,-0.0045072,-0.0037518
0.006489,0.10342,0.099586,-0.034105,0.0018983,0.005355,0.014993,0.040306
0.10517,-0.10174,-0.087577,0.045113,-5.0072e-05,-0.0039329,-0.0035223,0.0013612
0.06966,0.20256,-0.024925,-0.15871,-0.0098895,-0.004923,0.01063,0.059888
-0.076706,-0.13088,0.021785,0.16017,0.042913,0.018167,-0.012764,-0.11212
-0.18691,-0.14074,-0.017833,0.026409,-0.021144,-0.012758,-0.0035622,0.062941
0.40064,0.28194,0.067149,0.066077,0.032416,0.027193,0.030029,0.01377
-0.12175,-0.027971,-0.035724,-0.11076,-0.022978,-0.018464,-0.029707,-0.065588
-0.053945,-0.079679,0.0095621,0.027318,6.8228e-05,-0.0016105,0.0041668,0.042328
-0.23427,-0.11673,-0.023464,0.026763,-0.00018087,0.0070986,-0.017289,-0.030771
-0.0078625,0.047338,-0.0097193,-0.1211,-0.016101,-0.008263,-0.00068528,0.003428
0.0079032,-0.025511,0.043049,0.15291,0.02247,0.0067929,0.03037,0.019611
0.18895,-0.13215,-0.044803,0.082054,-0.017357,-0.033728,-0.025656,-0.052406
0.24019,0.27475,0.062684,-0.053219,0.012873,0.042147,0.026762,0.06132
-0.12512,0.18026,-0.056346,-0.24539,-0.042984,-0.023158,-0.0073334,0.033427
-0.22476,-0.35231,0.020013,0.099627,0.0418,0.0050645,-0.010314,-0.057076
0.10774,0.084057,0.026209,-0.040673,0.0096032,0.0021819,-0.0051589,-0.0062082
-0.21927,-0.041241,-0.029824,0.10844,0.0012237,-0.00021531,-0.0070846,-0.032027
0.13942,0.05353,-0.0072888,-0.045422,-0.022276,0.0059389,-0.00017712,0.045577
0.028227,-0.029771,-0.023178,0.053497,0.0016633,-0.010479,0.031307,0.047001
0.07968,-0.0097953,0.0086148,0.046366,0.010532,0.013012,-0.014278,-0.035836
0.1363,0.16023,0.010046,0.0033956,0.0042584,-0.0018651,0.0034182,-0.0082014
-0.15547,-0.23873,0.012306,-0.052663,-0.017281,-0.00067634,0.0058434,-0.011516
0.12389,0.058572,0.038604,-0.052571,-0.0073699,0.00065384,-0.0075043,0.023655
-0.26228,0.10641,0.0026294,0.11187,0.0025584,-0.0059717,0.01758,-0.0050642
0.028009,0.17791,0.013307,0.0099707,0.035749,0.010485,-0.020835,-0.0045372
-0.076467,-0.2739,-0.1173,-0.24954,-0.032986,-0.028199,-0.029178,-0.037578
0.33058,-0.014457,0.055827,0.067509,0.030566,0.026449,0.031659,0.0521
-0.27338,-0.043329,0.001302,0.047189,0.0075392,-0.012917,-0.017748,-0.03199
0.16005,0.061934,-0.022972,0.02574,-0.070862,-0.0054355,0.018339,0.023326
-0.24234,-0.065387,0.014508,0.042472,0.029772,-0.0055298,-0.031447,-0.054521
0.27901,-0.02675,0.0047157,-0.0041371,-0.010757,0.010464,0.036508,0.03228
0.037975,0.32581,0.049569,0.16697,0.049916,0.027059,0.011655,0.042419
-0.042749,-0.12599,0.016547,0.11018,0.040134,0.0052067,0.0035912,0.023486
-0.19733,0.061622,-0.10198,-0.50286,-0.10238,-0.039579,-0.034522,-0.055295
0.20663,0.13698,0.045618,0.023277,0.0054065,0.01749,0.014361,-0.014041
-0.28498,-0.35436,-0.001632,0.15784,0.012079,-0.0035419,-0.0062896,0.0065264
-0.017382,-0.22548,-0.025081,-0.05141,0.011476,-0.017013,-0.018714,-0.040842
0.33564,0.03177,0.045445,0.10749,0.027018,0.015905,0.023564,0.03853
0.0062857,0.55141,0.022309,0.049507,0.011707,0.0091169,0.010791,0.032855
-0.17958,-0.34446,-0.047728,-0.068571,-0.042481,-0.021817,-0.018284,-0.011992
0.12758,0.18204,-0.0084752,0.026694,0.020445,0.024699,0.014248,0.027945
0.12169,-0.25019,0.0072449,0.061328,-0.0028875,0.0081623,0.01455,0.02672
-0.36176,0.40691,-0.031782,-0.19218,-0.018911,-0.032176,-0.032959,-0.071063
0.076463,-0.30714,0.05418,0.085312,-0.0042635,-0.010156,-0.018731,-0.031371
-0.006954,-0.21283,-0.0082721,-0.013552,0.0098525,0.011936,0.018439,0.0052503
-0.015235,0.50159,0.0074151,0.057249,0.0079677,0.010828,0.0085512,-0.0075889
0.07084,-0.39935,-0.0081845,-0.030815,-0.025311,-0.0055854,-0.0090331,0.0012038
0.16112,0.25504,0.030792,0.12865,0.058719,0.025176,0.02842,0.071607
0.071165,-0.067518,-0.04759,-0.22928,-0.020937,0.0092542,0.01167,0.0091901
-0.51731,0.077625,0.022284,0.084049,-0.006252,-0.014451,-0.020192,-0.036905
0.32611,-0.2394,-0.048587,-0.023688,-0.02989,-0.030483,-0.028161,-0.0037209
0.16325,0.16141,-0.0022648,-0.097975,0.0097813,-0.0077092,0.011085,0.030817
-0.29691,-0.23492,0.067654,0.19817,0.018989,0.014764,0.0036584,-0.027044
0.27863,0.0098764,-0.026206,-0.056708,-0.018016,-0.0020837,-0.0036997,0.01007
-0.20739,0.28697,-0.018175,0.012007,-0.0077125,0.012167,-0.0032948,-0.084568
0.030576,0.080851,0.044803,0.059395,0.041765,0.010779,0.020404,0.063893
-0.033943,0.023874,-0.024949,-0.072553,-0.018398,-0.013927,-0.0029835,0.017852
0.042324,-0.25203,0.014508,0.036038,0.014544,0.0084694,0.0046378,-0.019635
0.12583,0.10363,-0.016765,0.078684,-0.00034036,0.0077295,0.0042213,0.013881
0.045436,-0.066328,0.01386,-0.13329,-0.0085227,-0.00047687,-0.0041588,0.032398
-0.18108,-0.2468,-0.01085,-0.084522,-0.025584,-0.023933,-0.028182,0.0045755
-0.15985,0.19503,-0.051715,0.0070031,-0.012198,-0.015743,-0.0208,-0.1244
-0.035463,0.040907,0.032165,0.01792,0.016456,0.00848,0.018165,0.043762
0.20356,0.24482,0.02242,0.067588,-0.0015717,0.017475,0.034157,0.08699
-0.18223,-0.25472,-0.0024213,-0.037065,-0.011061,0.0033791,-0.011851,-0.041807
0.33178,0.098027,0.0048569,0.16675,0.050892,0.028589,0.020673,0.024321
0.026094,-0.024068,-0.018038,-0.09332,-0.026474,-0.039855,-0.024727,-0.089864
-0.047169,-0.17479,-0.00076092,-0.098333,-0.01668,0.0010004,0.00010355,0.029495
0.09256,0.24041,0.040924,0.19008,0.064329,0.018185,0.016757,0.054143
0.073923,-0.035691,0.044238,-0.049742,0.020762,0.035033,0.048466,0.12469
-0.5285,-0.33872,-0.1318,-0.10851,-0.077578,-0.081298,-0.10014,-0.17282
-0.021485,0.22181,0.035866,0.0043545,-0.035806,-0.010442,-0.014893,-0.064657
0.11039,0.10605,-0.023414,-0.0014724,0.0051992,0.021147,0.015407,-0.0035994
0.10311,-0.062457,0.026013,-0.02517,-0.0093039,0.021397,0.01453,0.049797
0.16276,0.050139,0.082367,0.050254,0.061422,0.045072,0.053094,0.10362
-0.19156,0.089783,-0.065442,0.0062881,0.0066431,-0.017202,-0.0093462,-0.013947
0.09022,-0.039745,0.012196,0.038738,0.021886,-0.024877,-0.016542,-0.021822
0.057172,-0.11384,-0.028455,-0.11749,-0.04894,-0.0093328,6.7375e-05,-0.045394
0.085106,0.093104,0.047111,0.14739,0.020811,0.021492,0.032348,0.078926
-0.068826,-0.20765,-0.026467,-0.064875,-0.018843,-0.018416,-0.02944,-0.024268
-0.16433,-0.022262,-0.014423,0.026927,0.0039562,-0.019676,-0.044974,-0.073919
0.0068852,0.14419,-0.0022177,0.11013,0.011069,0.025626,0.016833,-0.023043
0.106,-0.040973,-0.020613,-0.21386,-0.036556,-0.0073372,0.0075586,0.011582
0.060163,-0.16057,0.001105,0.01589,0.0095617,-0.0011721,-0.0022953,0.030575
-0.14801,0.38151,0.031907,0.01835,0.0088569,0.020876,0.026644,0.018982
0.11356,-0.0073591,0.017075,0.0049507,0.016075,-0.011362,0.00098884,0.047666
-0.2641,-0.093039,0.042254,0.070121,0.0078151,0.01937,-0.016419,-0.015886
0.32979,-0.017589,-0.033675,-0.0041396,0.007528,-0.0041139,0.021559,-0.038878
-0.12609,0.12306,0.023085,0.064099,0.06209,-0.011556,-0.0099284,0.048698
-0.19961,-0.40004,-0.10048,-0.18561,-0.17224,-0.049917,-0.056173,-0.081791
0.36159,0.098588,0.025005,0.0047265,0.031134,0.029141,0.046785,0.053456
-0.081217,0.13324,0.040128,0.13498,0.070695,0.030198,0.017484,0.0086085
-0.073732,-0.023112,-0.039243,-0.037536,-0.014454,-0.015608,-0.02717,-0.076058
-0.11563,0.051718,-0.0017231,-0.021414,0.0022381,0.0087925,0.045326,0.041517
0.089465,-0.086694,-0.049914,0.11988,0.034757,0.025157,-0.023126,0.041122
0.12635,0.14877,0.20726,-0.06776,-0.01861,-0.029113,0.0016422,-0.030078
-0.02216,-0.12349,-0.13617,-0.10079,-0.017425,-0.021264,-0.052335,0.00019689
-0.021779,0.035023,-0.017706,0.035883,-0.00093873,0.0018295,0.010288,-0.00043282
-0.11615,-0.054719,0.070251,-0.025082,-0.039597,0.001162,0.0099586,0.007462
-0.079732,0.060667,-0.06802,0.013387,0.038419,0.0080884,0.017173,-0.022771
0.07138,-0.0095724,0.09043,0.011119,-0.016866,0.014924,0.016486,-0.044236
0.11851,0.062249,-0.11111,0.062424,0.036828,0.021795,0.023648,0.052246
