-0.35482,-0.025747,0.00015749,0.0023217,0.0036661,-0.0076475,0.019535,0.066754
-0.29089,-0.008523,-0.0068687,-0.012636,-0.028206,0.0057405,-0.01411,0.029546
0.72421,-0.00047405,-0.014645,0.0029359,0.0099917,0.018431,0.13795,-0.083612
-0.7928,-0.048098,-0.0075801,0.0022553,0.0011355,0.0074432,-0.03856,-0.18292
0.27615,-0.0102,-0.048019,-0.014467,-0.015598,-0.018911,0.082684,0.17987
0.39218,0.090375,0.028412,0.0077393,0.014622,0.010131,-0.098832,0.045282
-0.16422,0.035314,0.034608,0.0066656,0.0059998,-0.014489,-0.043518,0.17089
0.19124,-0.065861,-0.021241,-0.0096407,-0.010116,-0.014522,-0.11086,-0.28906
-0.090412,0.036653,0.017367,0.013633,0.013185,0.02556,0.026509,0.10738
-0.19068,-0.017017,0.0020568,-0.0016529,0.013361,0.027322,0.30475,0.16068
0.24906,-0.0087948,0.010805,0.014666,-0.017506,0.0059222,0.15968,-0.17245
-0.40302,-0.025296,0.012037,0.0076562,-0.0014331,-0.039182,-0.46507,0.10447
0.16066,0.097041,-0.018097,-0.022966,0.0067478,0.024314,0.11664,-0.17474
-0.18035,-0.11853,-0.040937,-0.022764,-0.024327,-0.046147,-0.048951,-0.026074
-0.18637,0.031332,-0.0020859,0.015914,0.014649,0.030521,-0.078821,0.020602
0.17099,-0.046519,0.0045921,-0.016342,-0.02478,-0.026865,0.16094,-0.024099
0.2622,0.070694,0.03387,0.021184,0.013648,-0.030534,-0.1248,-0.18787
0.55675,-0.014428,0.039136,0.027123,0.059647,0.11367,0.19104,0.48595
-0.80691,-0.011832,-0.057344,-0.045152,-0.050821,-0.10162,-0.17075,-0.21074
0.81501,0.0011265,-0.036368,-7.4257e-05,0.0025779,0.058384,0.17433,0.20025
-0.38829,0.071752,0.055623,0.037577,0.016749,0.03151,0.024346,0.18022
-0.29014,-0.03429,-0.02321,-0.017984,-0.031681,-0.080461,-0.11227,-0.56062
0.065516,0.0108,0.047649,0.020822,0.037091,0.081988,-0.03221,0.18732
-0.87089,-0.059198,-0.036462,-0.017876,-0.018951,-0.035727,0.12377,-0.10868
0.666,-0.018485,-0.010079,-0.032564,-0.043334,-0.07412,-0.29308,-0.098332
0.045162,0.01494,0.0014743,0.023549,0.026677,0.037259,0.08399,0.24881
0.58993,0.079352,0.021197,0.017545,0.035035,0.056371,0.22311,0.26042
0.37403,-0.021276,0.0095301,-0.011634,0.0053002,-0.024486,-0.064114,-0.61059
-0.74778,-0.07664,-0.002758,-0.0016258,-2.9669e-05,0.021247,0.03355,0.36214
-0.4838,-0.079478,-0.039516,-0.0072811,-0.051417,-0.087878,-0.18878,-0.079621
0.23829,0.18848,0.00052547,-0.013167,-0.016347,-0.024198,-0.084896,0.079043
0.10744,-0.023142,2.3141e-05,0.027368,0.026623,0.070906,0.18636,0.016848
0.55418,0.12134,0.037084,0.020334,0.037913,0.071409,0.23164,0.30302
-1.0776,-0.3156,-0.067877,-0.050129,0.0091651,0.015195,-0.14687,-0.6415
0.60189,0.15073,0.083791,0.026739,0.0024035,-0.0051231,0.05685,0.081171
0.27868,0.06796,0.015843,-0.0069437,-0.03736,-0.091949,-0.28279,0.049216
-0.12767,-0.10179,-0.021275,0.036427,-0.00077461,-0.011198,0.061781,0.25555
0.42699,0.25247,0.058963,0.032171,0.04217,0.089133,0.26525,0.31875
-0.57563,-0.40648,-0.16457,-0.089467,-0.056294,-0.086609,-0.20695,-0.52493
-0.72373,0.10288,0.0042847,-0.030857,-0.045229,-0.083431,-0.091309,-0.046744
0.20765,-0.10081,-0.011741,-0.0020832,0.013913,0.085266,-0.037914,-0.22102
1.1081,0.30353,0.1396,0.060157,0.051762,0.031023,0.20884,0.67287
-0.58537,-0.020292,0.021125,0.0079829,-0.0013804,-0.041383,-0.2767,-0.42639
-0.20926,-0.042389,-0.11735,-0.017842,0.042092,0.064114,0.24138,-0.01088
0.5173,-0.046377,0.043708,0.013539,-0.021424,0.0033857,0.019453,0.27768
-0.4215,-0.011839,-0.03612,-0.023814,-0.036704,-0.045401,0.13113,-0.19579
0.53728,0.050262,0.024218,0.056221,0.033913,0.063754,-0.13368,-0.035943
0.0514,0.090358,0.10561,0.041098,0.02484,0.04669,0.1542,0.34766
-0.77459,-0.1745,0.010967,-0.039476,0.012859,0.064656,0.17404,0.34281
-0.22532,-0.080556,-0.10473,-0.061672,-0.057602,-0.18135,-0.40882,-0.81775
0.14998,0.1546,-0.054484,-0.049465,-0.077385,-0.11415,-0.027695,-0.17309
0.40362,0.1038,0.052785,0.052082,0.0634,0.094809,-0.15911,0.30969
-0.44455,-0.54212,-0.13311,-0.0059953,-0.0090716,0.056706,-0.049472,-0.66343
0.82612,0.44701,0.085218,0.012363,-0.058808,-0.2804,-0.21588,0.66076
0.042644,-0.12887,0.08522,0.062342,0.15032,0.34444,0.63836,0.44109
0.17758,0.15402,-0.037016,-0.049264,-0.044179,-0.026897,0.28616,0.40533
-0.68922,0.13203,0.056276,-0.01597,-0.031846,-0.087775,-0.39979,-0.66569
-0.50213,-0.071053,-0.040148,-0.0084719,0.047133,0.13121,-0.065147,-0.33622
0.67008,-0.098311,-0.021569,-0.018634,-0.073148,-0.0816,-0.061712,-0.093076
-0.56767,-0.14039,0.017347,0.0075795,0.05169,0.13913,0.42803,0.23337
1.0169,0.22929,-0.018823,0.052947,0.021799,-0.076328,-0.053528,0.39953
-0.80228,-0.24171,0.00060811,0.037,-0.062901,-0.17596,-0.38632,-0.27444
-0.085155,0.13286,-0.012491,-0.058613,-0.00087334,-0.060411,-0.13707,-0.24046
0.82079,-0.021899,0.1275,0.0838,0.05818,0.24558,0.23852,0.17568
-0.75944,-0.19679,-0.088436,0.18883,0.074489,-0.070688,-0.041282,-0.030882
0.12403,0.26675,0.12063,-0.22877,-0.11603,-0.086466,-0.099877,-0.30248
0.3265,0.012139,-0.27589,-0.26222,-0.036118,0.12967,0.3237,0.80073
0.1161,-0.075132,-0.042115,-0.026848,-0.051703,-0.11542,-0.19632,-0.32945
-0.19357,0.26489,0.058313,0.011443,-0.036198,-0.092955,-0.2578,-0.19327
-0.29024,-0.53689,0.097729,0.28549,0.15258,0.22223,0.38412,0.12164
-0.22216,0.12901,0.085479,0.087082,0.031437,-0.028284,-0.043006,-0.12974
0.39128,0.18345,0.022232,-0.019617,0.038398,0.053904,0.163,0.19748
0.25045,0.18691,0.017008,-0.018711,-0.068944,-0.165,-0.41465,-0.16607
0.039847,-0.1133,-0.056432,-0.044088,0.028845,0.16488,0.33725,-0.067548
-0.024654,-0.14981,0.050163,-0.0040365,-0.013278,-0.021004,0.070562,0.34201
-0.15645,0.059093,-0.11026,-0.025968,-0.07168,-0.1699,-0.20299,-0.22013
-0.63861,-0.035405,0.039168,-0.041729,0.040032,0.076142,-0.11879,0.097456
-0.23791,-0.22325,-0.22069,-0.13086,-0.061553,0.044578,0.16621,-0.29
1.0294,0.23802,0.095081,0.057789,-0.017042,-0.11592,-0.35449,0.080747
0.27224,0.084139,0.058108,0.10288,0.072599,0.064433,0.14238,-0.029375
-0.22058,0.051624,0.12323,0.013475,0.099,0.12631,0.2233,0.30494
-0.22261,-0.14598,-0.12195,-0.10734,-0.15542,-0.19409,-0.10772,-0.022392
0.23534,0.087765,0.11279,0.13245,0.044791,0.04241,0.066615,0.13985
-1.0094,-0.5026,-0.094028,-0.039709,-0.010554,0.047936,0.044885,-0.5032
0.85846,0.56903,0.11654,0.06391,0.038204,0.026066,0.077036,0.080832
-0.40739,0.014394,0.008942,0.028793,0.042382,0.070194,-0.14333,0.056219
0.2914,-0.15891,-0.16844,-0.12257,-0.061232,-0.10982,0.076211,0.21914
-0.35309,-0.030229,-0.011078,-0.01634,0.02321,0.046982,-0.23637,-0.29131
0.78796,0.093742,0.026391,-0.020779,-0.01792,-0.015749,0.21288,0.2024
-0.56429,-0.11757,0.0914,0.082126,0.080022,0.15373,0.22687,0.43993
-0.05763,0.13027,-0.01173,-0.03601,-0.13673,-0.32039,-0.46026,-0.52653
0.75996,0.061772,0.045436,5.2841e-05,-0.0042592,-0.016244,-0.19859,-0.35524
-0.98907,-0.39467,-0.16588,-0.027791,0.048065,0.27003,0.6789,0.60882
0.87927,0.40123,0.027562,0.014157,-0.033704,-0.26494,-0.63648,-0.31424
-1.0687,-0.14364,0.080428,0.048694,0.11076,0.35698,0.46071,0.063823
0.5225,-0.059128,-0.013607,0.014093,-0.064457,-0.19091,-0.0030086,0.43197
-0.54637,-0.10895,-0.050264,-0.065722,-0.066424,-0.18109,-0.48701,-0.98928
1.0415,0.22448,0.057025,0.028144,0.058372,0.16013,0.46139,0.62981
-0.10017,-0.010399,0.034835,0.045512,0.075514,0.097806,-0.0040384,-0.084736
-0.46627,-0.093947,0.038846,0.0094085,-0.031054,-0.017786,0.17501,0.27349
0.16764,0.012935,-0.088187,-0.088499,-0.019843,0.038182,-0.116,-0.054039
0.26169,0.30169,0.027546,0.0091023,-0.0088121,-0.048591,-0.15572,-0.013997
-0.5347,-0.19771,-0.044771,0.012758,0.024832,0.032968,-0.026469,0.063962
0.19549,-0.0022449,-0.032551,-0.023089,-0.075515,-0.24908,-0.34013,-0.49322
-0.3006,-0.15987,0.01688,-0.028244,-0.036399,0.0039514,0.19983,0.017183
0.33505,-0.12416,-0.029318,0.04412,0.056602,0.176,0.29044,0.15034
0.258,0.12861,0.10261,0.11584,0.00094409,-0.067103,-0.033686,0.14187
-0.54053,0.099381,0.061659,-0.024067,0.078501,0.18285,0.03646,0.16524
-0.01598,-0.046481,-0.1203,-0.070972,-0.069612,-0.23648,-0.26803,-0.31715
0.58499,0.31742,-0.012973,-0.01706,0.017764,0.011931,-0.07593,0.094009
0.14591,-0.19054,0.12632,0.012776,0.09053,0.35799,0.50637,0.25036
-0.86645,-0.28045,-0.17864,-0.098421,-0.14859,-0.27708,-0.30078,-0.26295
0.8405,0.32935,0.064456,0.05592,0.0029427,-0.089981,-0.10669,-0.064631
-0.5126,-0.28306,0.011804,0.054256,0.099141,0.19873,0.22015,0.33562
-0.51059,0.0068453,-0.032189,-0.0016123,-0.1184,-0.29557,-0.36955,-0.6969
1.0509,0.28402,0.16641,0.10715,0.21712,0.621,0.8322,1.0082
0.033237,-0.046718,-0.072648,-0.096122,-0.16786,-0.48985,-0.57603,-0.52659
-0.69285,-0.26069,-0.093648,-0.041318,-0.054372,-0.15148,-0.22176,-0.3011
-0.1535,0.038347,0.017037,-0.0021217,0.034621,0.043216,0.080903,0.17775
0.11121,0.24655,-0.045499,-0.025589,-0.009574,0.087826,-0.090462,-0.072767
0.35164,0.17433,0.1641,0.091348,0.11064,0.27303,0.60053,0.59002
0.12371,-0.39075,-0.11169,-0.057488,-0.049428,-0.09503,-0.29021,-0.39433
-0.49276,0.10544,-0.013036,-0.010987,-0.02064,-0.10134,-0.24542,-0.18813
0.58995,-0.12555,-0.00031326,0.02011,0.033043,0.027909,0.25225,0.17067
-0.15761,-0.0036718,0.036357,0.020329,0.0020625,0.026876,-0.1551,-0.036346
-0.053708,0.37255,0.089527,0.028771,-0.012417,-0.050375,0.096089,0.26066
-0.37707,-0.45405,-0.19223,-0.11873,-0.049971,0.037521,0.13123,-0.41612
0.64126,0.29392,0.12068,0.093204,0.013885,-0.15556,-0.31551,0.1659
-0.83827,-0.41133,-0.026787,0.039262,-0.016582,0.0025224,-0.0027087,-0.096892
0.55645,0.25287,0.1227,0.031614,0.1318,0.29261,0.42003,0.56699
-0.3101,0.16236,-0.15795,-0.14873,-0.11134,-0.13704,-0.032926,-0.42983
0.61351,0.18344,0.013597,-0.001857,-0.019327,-0.12232,-0.347,-0.072271
-0.59137,-0.19412,-0.058257,-0.0042265,0.033136,0.071383,0.078852,-0.14884
0.060699,0.0028036,0.12643,0.10224,0.030839,0.1476,0.12768,0.24063
-0.056813,-0.081079,0.01318,0.013231,-0.025748,-0.15876,-0.26198,-0.041837
0.2549,-0.1756,-0.1007,-0.059915,-0.050232,-0.058037,0.14595,-0.032174
0.28595,0.029514,0.05103,0.015982,0.074941,0.16134,0.095697,0.038255
-0.36262,0.10368,0.062855,0.014656,-0.017192,-0.11726,-0.074826,-0.14859
0.44116,0.12543,-0.087924,-0.0089991,0.0015397,0.012816,0.0030373,0.18958
-0.54458,-0.13046,0.013399,-0.00017935,-0.0018137,-0.010793,-0.021641,0.013219
0.31594,-0.02935,-0.093691,-0.060423,-0.019744,0.077317,0.092942,0.070358
-0.45509,-0.053871,0.036197,0.013315,0.025441,0.026546,0.19695,0.1938
0.49663,0.33625,0.15271,0.072387,-0.023024,-0.078117,-0.36026,-0.17486
-1.143,-0.39767,-0.088733,-0.04763,-0.0094391,0.012136,0.027956,-0.68773
0.79842,0.33766,0.021612,-0.011316,-0.020284,-0.039907,-0.024048,0.51941
0.22829,0.11921,0.099512,0.047875,0.061141,0.10052,0.09051,0.10089
0.17752,-0.28879,-0.090772,0.019875,0.046942,0.049714,0.29928,0.095072
-0.57585,-0.23136,-0.081517,-0.025631,-0.086569,-0.23185,-0.43026,-0.34919
0.48475,0.24398,-0.021626,-0.010952,0.027736,0.10743,0.19061,0.20693
0.34098,0.020243,0.018811,-0.014336,-0.055291,-0.088178,-0.21254,-0.13309
-0.31733,-0.042166,0.064109,0.0035352,0.08662,0.25254,0.28354,0.29701
-0.46576,0.12097,0.045325,-0.019212,-0.061567,-0.15832,-0.1707,-0.14116
0.20943,-0.12117,-0.059376,-0.042615,-0.030391,-0.030493,-0.026042,-0.078314
-0.21852,-0.18858,-0.10001,0.0046465,0.016817,-0.042558,0.032371,-0.051669
0.013672,-0.040944,0.10431,0.10005,0.072891,0.15011,0.2332,0.24497
0.26588,0.43146,0.046447,0.0098783,0.021115,-0.0066188,-0.062546,-0.15603
0.1739,0.1498,0.031137,-0.0078062,-0.036699,-0.0046799,-0.28348,-0.14465
-0.55444,-0.29377,-0.10623,-0.062516,-0.07709,-0.10973,0.15683,-0.0099163
0.41446,0.0049591,0.023995,0.01716,0.040401,-0.0095071,-0.15573,-0.041538
0.49993,0.020597,0.061256,0.050896,0.057663,0.1394,0.31741,0.32941
-0.93443,-0.068408,-0.0033634,-0.032258,-0.088182,-0.1556,-0.22145,0.14777
0.68434,-0.18409,-0.10035,-0.021841,0.07121,0.18322,0.32045,-0.034132
-0.84619,0.01832,-0.050375,-0.058699,-0.08175,-0.25863,-0.43294,-0.44514
0.29295,0.079798,0.076389,0.03691,0.054132,0.13563,-0.044976,0.092766
0.79382,0.18236,0.046085,0.023056,0.08791,0.25621,0.63218,0.26646
-0.85611,-0.039076,-0.038999,0.0094522,-0.11348,-0.31133,-0.56578,-0.36877
0.31415,-0.02066,0.087472,0.03543,0.012308,0.042047,0.095622,0.071566
0.94753,0.23003,-0.10527,-0.094251,-0.042601,-0.051065,-0.10986,0.13674
-1.0073,-0.61607,-0.10931,0.026474,0.089043,0.16707,0.34164,0.19643
-0.80299,0.40005,0.12189,0.022174,-0.053528,-0.18627,-0.40894,-0.70835
0.95871,0.21339,0.20482,0.19697,0.092456,0.24855,0.53693,0.74356
-0.40773,-0.25671,-0.0099124,-0.059082,-0.042969,-0.114,-0.32096,-0.11241
0.43734,0.034563,-0.22635,-0.27758,-0.092205,-0.10931,-0.029951,-0.12971
-0.12666,-0.038875,-0.05451,0.018007,0.015486,0.044492,0.15933,0.32951
0.1544,-0.00035983,0.06792,0.070189,0.069551,0.09023,-0.12874,-0.27693
-0.22436,-0.3408,-0.1165,0.0045756,-0.023484,-0.018448,0.050644,-0.13137
-0.33207,0.28569,0.21338,0.13438,-0.052583,-0.3125,-0.4357,-0.22753
1.0024,0.22536,0.035233,0.0070934,0.12275,0.36428,0.5526,0.40324
-0.34813,-0.089869,-0.1029,-0.080014,-0.044683,-0.027636,-0.16439,-0.17517
-0.67617,-0.088202,-0.012565,-0.017473,-0.016336,0.010916,0.23338,0.070971
0.32724,0.004169,0.080286,0.053918,0.043155,0.13511,-0.16069,-0.027169
-0.27058,-0.12606,-0.16014,-0.11619,-0.11675,-0.33585,-0.1828,-0.13857
0.74733,0.33181,0.10957,0.0499,0.0035212,-0.035663,0.057596,0.20769
0.33397,0.0081335,0.037118,0.036155,0.075604,0.16798,0.18581,0.34866
-0.91517,-0.22465,0.0042412,0.0063008,0.013503,0.017259,-0.10206,-0.27043
-0.37951,-0.14219,-0.076202,-0.016458,0.020451,0.090756,0.093702,-0.080291
0.16425,-0.058375,-0.041318,-0.040062,-0.083009,-0.19666,-0.27998,-0.15286
0.26778,0.34673,0.09233,0.013583,-0.0075061,-0.0080776,-0.096368,-0.22429
0.31011,0.011309,0.02732,0.027331,0.059801,0.11844,0.40384,0.46164
0.090446,-0.21149,-0.017645,0.055977,0.041125,0.10557,-0.059712,-0.096243
-0.38327,-0.022586,-0.088941,-0.064375,-0.094481,-0.24142,-0.22135,-0.078316
0.71512,0.064859,0.0019366,-0.028802,0.028236,0.13235,0.25396,0.14026
-0.25059,0.14698,0.11575,0.084877,0.042277,0.086182,0.1457,0.36455
-0.69829,-0.1414,-0.050604,-0.019835,-0.036616,-0.17713,-0.3218,-0.61548
0.18129,0.076106,-0.12844,-0.1394,-0.044343,0.037254,0.021044,0.060911
-0.29342,-0.074839,0.094341,0.078115,0.050295,0.033497,-0.054165,-0.14368
0.307,-0.0396,-0.014453,0.00016398,0.012775,0.053286,0.26408,0.17082
0.59304,0.11863,0.076331,0.033047,-0.039956,-0.11475,-0.157,0.16182
-0.53496,0.015854,0.069026,0.059374,0.024601,-0.010008,-0.30072,-0.2016
-0.043693,-0.13065,-0.061149,-0.0072343,0.057669,0.15629,0.36602,0.35324
0.67778,0.14627,-0.01113,-0.026746,-0.042614,-0.10824,-0.092075,-0.011428
-0.35427,-0.10804,-0.0012234,-0.023201,-0.010815,0.00096407,-0.11819,-0.14195
-0.57784,-0.082448,-0.095113,-0.036127,-0.0032101,0.085409,0.39087,-0.072368
0.28655,0.089043,-0.05903,-0.050125,-0.066513,-0.03451,-0.29058,-0.016084
-0.89693,-0.118,0.0054702,0.036413,0.010525,-0.11636,0.040603,-0.54501
1.1176,0.21746,0.13014,0.05187,0.064227,0.098087,0.016564,0.6997
1.1301,0.055666,0.057927,0.012236,0.040261,0.062561,0.17527,0.070213
-0.86409,-0.10384,-0.022884,0.011609,-0.029894,-0.12848,-0.2501,-0.22104
-0.35254,-0.034572,-0.057012,-0.012278,-0.0055672,0.010041,-0.049606,0.070243
-0.19538,0.029558,-0.012888,-0.051536,-0.05878,-0.021278,-0.083265,-0.22541
-0.022738,0.035012,0.047031,0.02658,0.060167,0.12163,0.26582,0.26938
-0.1878,-0.13357,-0.0023939,0.042224,-0.0084835,-0.045682,-0.0024181,-0.052667
0.029293,-0.075397,0.010517,0.026473,0.023945,-0.015887,-0.23185,-0.31497
0.27127,-0.0067183,-0.078431,-0.12235,-0.045978,0.046061,0.19437,0.41303
-0.25772,0.074684,-0.058294,-0.0058366,-0.015299,-0.040683,-0.060454,-0.29041
0.78391,0.18589,0.063282,0.032352,0.022228,0.019513,0.13538,0.43344
-0.32159,-0.0086858,0.091256,0.054856,0.019885,-0.032269,0.0071275,-0.28385
-0.21107,0.091701,-0.013129,0.0071325,-0.037676,-0.032729,-0.055812,-0.13921
0.62266,-0.13197,-0.0074355,0.0064624,0.068648,0.15068,0.00049147,0.28747
-0.15959,-0.16651,-0.10246,-0.064328,-0.043596,-0.11458,-0.29273,-0.39604
-0.25667,-0.0065953,0.03775,0.0056363,-0.053776,-0.17141,0.02634,0.10579
-0.33398,0.1738,0.069343,0.044381,0.07741,0.20797,0.2172,0.2764
-0.20121,-0.14226,-0.046916,-0.010686,-0.009274,-0.014049,0.2665,-0.11912
0.55592,0.12298,0.071604,-0.0033483,-0.001289,0.01553,-0.44831,0.036306
-0.63542,-0.037695,-0.051791,-0.01167,0.015383,0.040123,0.24694,0.071131
0.36679,0.01766,-0.042123,-0.012055,-0.045298,-0.08003,-0.14601,-0.2404
0.3471,-0.021645,0.014766,0.0035464,-0.0037744,-0.0085717,-0.0089493,0.095146
-0.62909,-0.1615,-0.060622,-0.019297,-0.0086339,-0.034603,0.087915,0.02472
0.42298,0.12319,0.0366,0.013363,0.018083,0.075777,0.12042,-0.10614
0.40599,0.12262,0.072168,0.031284,0.021497,-0.06109,-0.11598,-0.053593
0.0071132,-0.022232,-0.016489,0.0031029,0.024817,0.11617,0.0018463,0.21481
-0.4109,0.031979,0.059405,0.014457,-0.026893,-0.1281,-0.074932,-0.15205
0.12119,-0.020497,-0.02094,0.018029,0.030186,0.12666,0.14412,0.36097
-0.35045,-0.21237,-0.12529,-0.088242,-0.093205,-0.15977,-0.26416,-0.40372
0.056845,0.071999,0.066122,0.015497,0.079389,0.19922,0.27764,0.37219
0.36838,0.17496,-0.0018289,0.008604,-0.045781,-0.13283,-0.074395,-0.20418
-0.48929,-0.17794,-0.071556,0.0081213,0.00013747,-0.093504,-0.2653,-0.21305
0.51492,0.083032,0.083486,0.014099,0.014187,0.11439,0.29135,0.10178
-0.79637,-0.11258,0.065026,0.03457,0.043429,0.030516,0.0022773,-0.08093
0.25257,0.07921,-0.079758,-0.078556,-0.068232,-0.11777,-0.085315,0.074562
0.75974,0.096429,-0.014541,-0.0045613,0.0074187,0.060981,0.013042,0.045204
-0.060401,0.049163,0.07361,0.077272,0.10634,0.23938,0.3676,0.55058
-0.36202,-0.15549,-0.096108,-0.043645,-0.083971,-0.23822,-0.36542,-0.53314
-0.37139,0.038105,0.039236,0.023567,0.0067697,-0.011966,-0.084312,-0.0014258
0.33202,-0.040927,0.011281,-0.0021938,-0.027642,-0.042453,-0.18702,-0.27455
0.011295,-0.040037,-0.0077856,-0.019315,0.016047,0.061211,0.17882,0.15696
0.30404,-0.052131,-0.002135,-0.012194,-0.026002,-0.036728,0.14703,0.20088
-0.31593,0.18897,0.028307,0.042538,0.049625,0.085702,0.17953,-0.094807
0.0012093,-0.011923,-0.041527,-0.050517,-0.030213,0.076937,-0.11355,0.13757
0.11459,-0.053608,-0.0087143,0.013232,0.039415,-0.070921,-0.067667,0.022727
-0.075828,0.10997,0.048309,0.022745,-0.030424,-0.10801,-0.19052,-0.088751
-0.54357,-0.10044,0.0041656,0.001339,0.010254,0.043624,0.095869,-0.10458
0.50441,-0.053221,-0.047784,-0.043317,-0.026218,-0.030236,0.11923,-0.042022
-0.3809,0.0083667,0.040559,0.02923,0.047359,0.084282,-0.14451,-0.027591
0.8897,0.075793,0.026775,0.031288,-0.027213,-0.019327,0.061574,0.4376
-0.47113,-0.1481,-0.1361,-0.029513,-0.023786,-0.075812,-0.052726,-0.35796
0.091232,0.15717,0.09888,0.03418,0.049445,0.086186,0.12057,-0.054851
-0.20617,-0.093828,0.0053329,-0.035518,0.020318,0.091027,0.15029,0.0037942
0.20433,0.099656,0.013207,-0.012017,-0.08789,-0.17135,-0.11341,0.13931
0.2732,0.019664,-0.025682,-0.020198,0.013867,0.056267,-0.16374,0.0091849
-0.11076,-0.1378,-0.064286,-0.013006,-0.0024271,0.015674,-0.11046,0.059928
-0.44007,0.041801,0.061486,0.06443,0.050923,0.050587,0.24995,-0.10596
-0.63541,-0.042963,-0.015704,-0.014326,-0.021168,-0.088606,-0.057875,-0.21454
0.25071,0.060801,0.063192,0.039814,0.070575,0.075466,0.022655,0.27317
0.59539,0.039997,-0.022585,-0.03104,-0.079926,-0.13576,0.025102,-0.026332
0.19635,0.042185,0.023379,0.0073374,-0.011612,-0.041378,-0.10283,-0.028371
-0.29938,-0.097681,-0.057068,-0.0327,-0.0056519,0.062833,-0.10124,-0.14088
0.71368,0.049215,-0.0062015,-0.0027962,0.00050579,0.044721,0.11726,0.19683
-0.067119,0.013607,0.019982,0.011152,0.077202,0.16217,0.05323,0.16287
-0.43718,-0.048211,-0.016977,-0.0063113,-0.041177,0.063072,0.17496,-0.048348
-0.82366,-0.057423,-0.02245,0.0075869,0.0047473,-0.19111,-0.12829,-0.24918
0.52073,0.018527,-0.018883,-0.0093418,-0.035018,-0.070362,-0.10072,-0.086616
-0.10648,0.071986,0.041506,-0.009947,-0.004206,-0.075779,-0.025802,0.067005
0.080058,-0.1374,0.010894,0.029379,0.019094,0.10444,0.071024,-0.034765
0.087103,0.1341,0.069143,0.030533,0.034928,0.063913,0.032158,0.1978
0.71185,-0.0032057,0.012815,0.0012054,0.012092,0.021796,0.099326,-0.060223
-0.56113,-0.096166,-0.11978,-0.035403,-0.080633,-0.12264,-0.28166,-0.064785
-0.56125,0.19018,0.092182,0.0063605,0.030189,-0.0011642,-0.023573,-0.15974
0.84037,-0.028844,-0.079007,-0.037841,0.0085673,0.098142,0.12536,0.44949
-1.1135,-0.17764,-0.040664,-0.027611,-0.028429,-0.074008,0.018441,-0.17112
0.78523,0.17078,0.065745,0.044685,0.044002,0.084221,0.1413,0.19144
0.6477,-0.072005,-0.010321,0.014829,0.022467,0.033548,-0.11507,-0.23469
-0.22947,-0.048343,-0.011274,-0.0079698,-0.04647,-0.062619,0.02204,-0.21282
-0.65966,0.030135,0.039517,0.022975,0.016578,-0.0020881,-0.042889,0.29235
0.66987,0.038964,0.048628,0.052788,0.023892,0.026642,0.12513,0.045282
-0.40198,-0.01233,-0.014642,-0.028025,-0.048043,-0.14135,-0.21891,-0.171
-0.65757,-0.035157,-0.047985,-0.047559,0.0040056,0.016813,0.13338,-0.21915
0.23402,-0.10448,-0.07393,-0.060251,-0.022785,0.086879,-0.069757,-0.084764
-0.14311,-0.021846,0.0022778,0.0047009,0.051733,0.13935,0.32746,0.18494
0.85934,0.19188,0.048834,0.046411,0.0015478,-0.11434,-0.22076,0.44078
0.053695,0.046054,0.074432,0.04219,-0.032166,-0.15783,-0.37583,-0.28059
-0.46031,-0.10751,0.001587,-0.015105,0.021361,0.1738,0.31937,0.070584
-0.21057,0.16765,-0.013146,-0.0078289,-0.017269,-0.001397,-0.1773,0.048995
0.74092,-0.091436,-0.10264,-0.02177,-0.022989,-0.12013,0.17017,-0.14489
-0.021809,-0.035764,0.029555,0.028819,0.074352,0.11505,-0.017179,0.078035
-0.18167,-0.035064,0.0077163,0.026266,-0.0068621,-0.022139,0.16136,0.048063
-0.53893,-0.067919,0.049632,-0.022312,-0.032759,-0.055171,-0.13778,-0.37324
-0.25233,-0.010503,-0.0098582,-0.039563,-0.0038928,0.070244,0.098973,0.27819
0.53644,-0.0115,4.9347e-06,0.0050385,0.016731,0.048718,-0.030775,0.19456
-0.40672,0.10151,0.0079033,0.017178,-0.033778,-0.097242,-0.087047,-0.36759
