0.01715,0.033681,-0.18569,-0.089954,-0.022857,-0.013646,-0.01326,0.0065583
-0.041086,-0.14642,0.41209,0.019205,0.0094991,0.0013396,-0.0055982,-0.02085
-0.042576,-0.11426,-0.69817,-0.1355,-0.035963,-0.022089,-0.013565,-0.040557
0.028657,0.22476,0.036397,0.03929,0.012387,0.0019574,0.0019438,0.0028833
0.02415,-0.18322,0.13579,0.066377,0.013648,0.026485,0.017547,0.00093657
0.005949,0.1703,0.56449,0.023089,-0.0090031,-0.0033668,-0.005761,-0.0065922
0.020068,-0.089305,0.037141,0.049242,0.030181,0.021576,0.010195,-0.027067
-0.0049609,0.02233,-0.31631,-0.10582,-0.032934,-0.055129,-0.020493,0.041063
0.0077342,-0.11248,-0.54345,0.0028753,-0.0029545,0.0085565,0.011566,0.033174
0.0023614,0.26313,0.42004,0.094186,0.02661,0.0094278,0.004809,0.026333
-0.053028,-0.10999,-0.38267,-0.10471,-0.029797,0.041239,0.029551,0.15197
0.028976,-0.11618,-0.27439,-0.01463,0.00016632,-0.028738,-0.031385,-0.10692
-0.024438,0.032152,0.3592,-0.0092318,-0.0080338,-0.020668,-0.037358,-0.20455
0.0067829,0.0056595,-0.025915,-0.048111,0.0084709,0.0031272,0.0038262,0.0070355
0.0072504,0.38955,0.99158,0.17445,0.018603,-0.019688,0.014011,0.028081
-0.052295,-0.47253,-0.10836,-0.052071,-0.0011683,0.051617,0.016521,0.046972
0.0018153,-0.017605,-0.10676,-0.079609,-0.019974,-0.025139,0.0033306,0.072819
0.030158,-0.010305,-0.79403,0.051575,0.016245,0.015562,0.052249,-0.025826
0.0017723,-0.0041331,-0.05362,0.050565,0.028582,-0.0061801,-0.055845,-0.036921
0.040863,0.32228,0.78073,0.30581,0.078755,0.049986,0.022452,0.071367
0.075281,-0.13986,-0.34684,-0.3879,-0.15417,-0.074024,-0.04903,-0.036936
0.063347,0.14846,-0.33883,-0.086761,0.0091609,0.012216,0.018738,0.020368
-0.10726,-0.24317,-0.7106,-0.088332,-0.032746,-0.027314,-0.00060041,0.0078955
-0.1424,0.0043718,0.83762,0.18581,0.072101,0.034007,0.0027633,-0.075486
0.034032,0.14758,0.13715,0.049306,0.019736,0.0088613,0.0059854,0.073946
-0.071083,-0.15842,0.11089,-0.11334,-0.0718,-0.03218,-0.037164,-0.036548
0.15193,0.062374,0.044856,0.30133,0.071751,0.051789,0.04576,-0.031954
0.095142,-0.0023467,0.37632,-0.14244,0.013524,-0.012425,-0.0026833,0.010195
-0.24692,0.0078227,-0.14969,-0.13858,-0.066434,-0.060581,-0.049585,-0.096551
0.24575,0.25873,-0.54942,0.1732,0.097549,0.10272,0.1236,0.23501
-0.15834,-0.4192,0.25321,-0.20666,-0.057257,-0.045938,-0.085182,-0.1736
-0.042587,-0.05476,-0.39945,-0.0282,-0.093784,-0.061305,-0.02031,-0.016881
0.047916,0.065114,0.31396,0.27065,0.12805,0.07997,0.10661,0.10386
-0.057869,-0.042582,-0.70359,-0.34994,-0.14231,-0.098784,-0.15809,-0.069604
0.26485,0.43492,1.0405,0.39803,0.1884,0.11326,0.091549,0.18044
0.06181,0.41857,-0.45768,0.044659,-0.028632,0.0050552,0.043075,0.040068
-0.3016,-0.82788,0.31565,-0.4112,-0.12954,-0.079744,-0.13127,-0.27344
0.024122,0.060338,-0.24153,0.15455,0.04191,-0.008399,0.022247,0.10588
0.037037,0.073114,0.4563,0.014819,0.040569,0.078413,0.090311,-0.080444
-0.14717,-0.18194,-0.95937,-0.11953,-0.055141,-0.053707,-0.082656,-0.16057
0.29088,0.30206,0.37566,0.31436,0.098903,0.040545,0.097542,0.42852
-0.32105,-0.27969,0.19849,-0.25307,-0.098483,-0.068522,-0.07994,-0.34357
0.15771,0.35457,0.15791,0.14786,0.040515,0.0097036,-0.052915,0.016257
0.039917,-0.20066,0.22864,-0.24744,-0.022959,0.048626,0.1467,-0.046029
0.068073,-0.030585,-0.31177,0.19479,0.039302,0.016947,0.017992,0.54805
0.14091,0.39653,-0.3589,0.24092,0.094456,0.031804,-0.018067,0.087668
-0.2647,-0.51291,0.042618,-0.42112,-0.1623,-0.094316,-0.040312,-0.44271
0.086051,0.30347,-0.36289,0.1228,0.026709,-0.0097963,-0.11154,-0.23017
-0.22026,-0.22491,0.34109,-0.088652,-0.041819,0.012071,-0.028417,-0.14886
0.16884,0.308,1.0717,0.17808,0.085076,0.057453,0.069102,0.13842
-0.11279,-0.51979,-0.63572,-0.1095,-0.053736,-0.06087,0.0023023,0.14862
0.14681,0.26059,0.20875,0.22678,0.064948,0.024569,0.13159,0.31226
-0.035995,0.11819,-0.88726,-0.26005,-0.027896,0.00931,-0.081275,-0.11297
0.065654,-0.063716,0.2191,0.1317,0.034643,0.041931,0.020437,-0.11277
0.17024,0.44987,0.44663,0.21361,0.088296,0.044346,0.053938,0.1932
-0.30892,-0.62148,-0.60419,-0.51448,-0.23417,-0.18663,-0.13739,-0.44828
0.11931,0.1842,0.16812,0.26077,0.090842,0.075411,0.031742,0.27197
-0.17904,-0.12401,0.82578,0.095815,-0.014367,-0.013515,-0.01757,-0.12538
0.099699,0.15052,-1.1253,-0.39749,-0.049205,-0.016244,0.073287,0.41281
-0.076467,-0.55355,0.45124,0.22895,0.088566,0.06679,-0.09476,-0.36336
0.34676,0.6863,0.88368,0.32148,0.14956,0.15695,0.14974,-0.0066512
-0.12277,0.10426,-1.0339,-0.30551,-0.14705,-0.13692,-0.076227,-0.0994
-0.22683,-0.1523,0.044916,-0.0027538,-0.12922,-0.15121,-0.10071,-0.10555
0.12918,-0.09308,0.42588,0.11216,0.10136,0.059109,0.12346,0.51137
0.0011015,0.19364,-0.0070948,-0.048305,0.028647,0.040888,-0.028266,-0.42358
0.054338,-0.23982,-0.22838,0.13831,0.066073,0.099057,0.0071729,0.33508
-0.2098,-0.41888,-0.18682,-0.29201,-0.076199,-0.07059,-0.058731,-0.32081
-0.032498,0.084755,-0.24276,-0.037707,-0.070834,-0.053331,-0.0067631,0.013679
0.30541,0.66095,0.83186,0.45323,0.1518,0.081258,0.10087,0.23319
-0.087053,-0.19838,-0.24088,-0.11007,-0.07279,-0.095808,0.014249,0.16788
0.11702,0.24906,-0.80064,-0.16576,-0.018192,0.0097815,-0.063646,-0.087517
-0.12336,-0.48858,0.32816,-0.15856,0.018912,0.093643,-0.031582,-0.19603
-0.22464,-0.21538,0.046141,-0.15705,-0.1329,-0.086431,-0.046258,-0.022451
0.20138,0.53831,1.0643,0.23967,0.034793,0.0082616,0.10277,0.062979
0.16828,-0.14037,-0.049446,0.17491,0.16322,0.11926,0.040073,-0.088182
-0.15338,0.07032,-0.4317,0.20576,0.049715,0.0035822,-0.031552,0.15998
-0.099809,-0.25779,-0.73547,-0.2364,-0.11797,-0.11299,-0.065348,-0.52276
0.087617,-0.24048,-0.28502,-0.13515,0.035166,0.050228,0.048174,0.23804
-0.20644,0.303,0.1516,-0.13899,-0.17851,-0.17103,-0.08908,0.35613
0.31749,0.84189,1.1598,0.48574,0.18611,0.11406,0.070292,-0.091863
-0.32988,-0.9833,-0.33724,-0.49644,-0.16804,-0.070511,-0.059042,-0.10969
0.33081,0.11572,-0.4384,0.40541,0.30586,0.24478,0.13286,0.12407
-0.065423,-0.057579,0.086396,-0.24734,-0.17338,-0.087679,-0.07232,-0.001807
0.092151,0.2141,0.48314,-0.0024098,-0.04305,-0.020307,0.059992,0.30525
-0.21173,-0.0082077,-0.7992,-0.024393,-0.13097,-0.20888,-0.087409,-0.34338
-0.0011121,-0.12421,0.18782,0.14747,0.196,0.19054,0.024327,-0.35226
0.081962,0.25588,0.25124,0.036719,0.0084526,0.013736,0.027664,0.2185
-0.23016,-0.42285,-0.08395,-0.27821,-0.099778,-0.052252,-0.093431,-0.033394
0.38048,0.65261,0.37055,0.3047,0.12118,0.062195,0.082502,0.21823
-0.096362,-0.53198,-0.033265,0.020408,-0.039969,-0.042186,0.00039357,0.067065
-0.030075,0.16614,0.31445,-0.021045,0.072522,0.055669,-0.011959,-0.46976
-0.22702,-0.45342,-1.3041,-0.40486,-0.22158,-0.13707,-0.064187,0.086829
0.46035,0.47943,0.21411,0.27593,0.19448,0.13705,0.16386,0.58352
-0.39762,0.10007,0.019507,-0.26718,-0.21082,-0.13758,-0.093501,-0.3831
0.067247,-0.41791,0.55122,0.52075,0.19531,0.0941,-0.0080636,0.23629
-0.018243,0.33218,0.18486,-0.2043,-0.086932,-0.057854,-0.056173,-0.36896
-0.018929,0.013381,0.04443,0.064741,0.075599,0.055835,0.0047042,0.1072
0.2005,-0.0095363,0.50985,-0.0092777,0.0036474,0.06104,0.11249,0.11887
-0.037399,0.22094,-0.80619,-0.18559,-0.044542,-0.033679,-0.021441,0.0027223
-0.074738,-0.42412,-1.128,-0.059318,-0.045154,-0.087191,-0.037351,-0.15472
-0.21541,-0.3391,0.46825,0.040314,-0.052605,-0.083704,-0.1147,-0.14991
0.3061,0.7463,0.79708,0.183,0.081666,0.085926,0.059027,0.13446
0.027875,-0.59191,0.26757,0.040562,0.08418,0.13202,0.16335,0.50282
0.042096,0.57501,0.65716,0.16041,0.04068,0.01455,-0.013045,-0.70191
-0.059358,-0.057401,-0.82526,-0.30792,-0.017883,0.021459,-0.040944,0.42515
-0.44235,-0.80817,-0.75746,-0.34731,-0.2559,-0.22336,-0.19427,-0.20377
0.32916,0.77794,-0.17556,0.24703,0.060701,0.005818,0.07348,0.081144
0.066746,0.23494,0.23048,0.085991,0.080121,0.10701,0.098026,0.20764
-0.050298,-0.61378,0.13933,0.18615,0.052158,0.017842,0.012172,-0.083574
0.079636,0.35209,0.58139,0.016418,0.031307,-0.065782,-0.058928,-0.2229
-0.18375,-0.49742,0.60927,0.029224,0.01736,0.052427,0.017809,-0.1633
0.050594,0.14452,-0.75003,-0.22996,-0.083635,-0.040438,0.00052359,0.21338
0.087773,0.1306,-0.55024,-0.091012,-0.03745,0.016115,-0.0089029,-0.1383
-0.017227,-0.062795,0.15258,0.077183,-0.0081772,-0.027034,-0.049275,0.20498
0.22016,0.54723,0.08978,0.11711,0.043363,0.057162,0.11393,0.23637
-0.19995,0.098789,0.77322,0.035963,0.06274,0.049967,-0.034884,-0.24711
-0.19148,-0.36419,-0.24593,-0.11144,-0.090325,-0.088133,-0.058363,-0.074355
-0.16055,-0.68026,-0.65755,-0.23838,-0.048285,-0.02983,-0.034892,-0.028136
0.23678,0.40673,-0.016992,0.19539,0.13448,0.10666,0.08204,0.045928
0.21158,-0.25201,0.38793,0.066238,-0.11215,-0.1328,0.010778,0.35708
0.16238,0.43038,-0.0024523,0.35202,0.24316,0.19624,0.079086,-0.15816
-0.19201,0.26034,-0.30954,-0.39939,-0.20582,-0.16451,-0.10388,-0.19489
-0.07794,-0.11162,0.36838,0.086152,-0.0059386,-0.019776,-0.053754,-0.22025
-0.19019,-0.4025,-0.87314,-0.26906,-0.047711,-0.009748,-0.012419,-0.0047995
0.011246,-0.064439,0.73875,0.26172,0.13005,0.14767,0.098818,0.25205
0.11356,0.33222,0.63823,-0.032404,-0.066048,-0.054221,-0.039567,-0.094332
0.0087602,0.036324,-0.11797,0.0046616,-0.010572,-0.012642,0.034235,0.41227
-0.083297,-0.28239,-0.48225,-0.033665,-0.023472,-0.085863,-0.077409,-0.42959
0.087918,0.19364,-0.0083069,-0.1948,-0.042059,0.00037222,0.0088967,0.16126
0.38933,0.26631,0.18966,0.50492,0.23046,0.1527,0.11371,0.25321
-0.22699,0.16782,-0.79601,-0.20876,-0.089126,-0.066529,-0.060018,-0.493
-0.26264,-0.57927,1.0216,-0.086579,-0.095222,-0.017341,-0.03627,0.18407
0.17895,-0.11482,-0.85897,0.034995,0.10978,0.096039,0.05907,0.061433
-0.19296,-0.2489,-0.39026,-0.12547,-0.11558,-0.11056,-0.032878,0.11209
-0.04378,0.46743,0.87413,0.064998,-0.0064095,-0.037012,-0.024153,-0.635
0.070922,-0.3057,-0.37916,-0.096344,0.038332,0.04979,-0.0016642,0.82736
0.5022,0.99734,1.0406,0.21897,0.096488,0.055124,0.11199,-0.05435
-0.50023,-0.7861,-0.063158,-0.11405,-0.097647,-0.045008,-0.10543,-0.52738
-0.092829,-0.42236,-0.91513,-0.20537,-0.12215,-0.13354,-0.083638,0.076201
0.31792,1.0076,0.31166,0.40463,0.1637,0.14136,0.060491,-0.083127
0.067718,0.17139,0.29453,0.12807,0.07246,0.084991,0.11658,-0.087579
-0.22641,-0.65433,-0.63965,-0.40452,-0.11461,-0.09871,-0.07094,0.58863
-0.095633,-0.30923,0.30781,0.031332,0.016547,-0.002541,-0.016958,-0.15568
0.32768,0.36896,0.19777,0.30922,0.09097,0.015121,0.076081,0.31835
-0.42426,-0.5252,-0.98235,-0.46948,-0.16454,-0.060363,-0.12716,-0.56313
0.35317,0.82411,0.22779,0.12623,0.016178,-0.017143,0.053515,0.32034
-0.10367,-0.88256,0.69759,0.25545,0.13401,0.1612,0.048188,-0.11384
0.059097,0.73583,0.35224,-0.20268,-0.020727,-0.016892,-0.033462,-0.26755
-0.023343,-0.049518,0.23354,0.20208,-0.032479,-0.066626,-0.0037415,0.16998
-0.36446,-0.52377,-1.1812,-0.26746,-0.094996,-0.081564,-0.034458,-0.37136
0.1545,0.48642,0.15295,-0.25547,-0.13661,-0.077418,-0.039764,0.26659
0.36237,0.39383,0.33208,0.39711,0.20288,0.1876,0.10507,0.33684
-0.13182,-0.62556,-0.38689,-0.035536,0.017305,-0.052864,-0.037943,-0.032267
0.13923,0.18845,0.48407,0.34342,0.17294,0.16888,0.085241,-0.06429
-0.13149,0.28295,-0.0072163,-0.21981,-0.16796,-0.18753,-0.11209,-0.30389
-0.064041,-0.44918,-0.39294,-0.097834,0.03115,0.079713,0.095864,0.3908
-0.39581,-0.66064,0.68457,0.054828,-0.060641,-0.085283,-0.10405,-0.12047
0.22196,0.52113,0.3101,-0.13476,-0.024032,0.0041808,-0.001283,-0.213
0.33378,0.47838,-0.92193,0.12586,0.18596,0.16033,0.099398,0.11257
-0.069894,0.048131,0.015394,-0.19704,-0.25964,-0.21807,-0.12205,-0.097616
-0.099469,0.10777,-0.58231,-0.15838,-0.063654,-0.06766,-0.0010282,0.14799
0.03394,-0.52684,0.29418,0.29052,0.15035,0.12843,0.10384,0.25519
0.096755,-0.054753,0.67125,0.23894,0.13462,0.16846,0.0058759,-0.40912
-0.12792,-0.041835,-0.40117,-0.17619,-0.053474,-0.055646,0.010523,0.1471
0.13623,0.53981,0.39908,-0.067872,-0.01286,-0.019453,0.0012223,-0.15445
-0.48219,-0.68873,0.36888,-0.1513,-0.18666,-0.18333,-0.17006,0.060885
0.067545,0.27532,-0.53254,-0.056889,0.012444,-0.0081689,0.012419,0.05801
0.21856,0.37835,0.26267,0.46637,0.23325,0.2009,0.12657,-0.047053
0.066864,-0.49003,-0.56749,-0.26945,-0.13433,-0.143,-0.093812,0.13471
0.32391,0.74518,0.20408,0.35908,0.23614,0.20102,0.22537,0.2343
-0.42581,-0.91318,0.58135,-0.31437,-0.18886,-0.096639,-0.11234,-0.14054
0.13479,-0.033796,-1.2327,-0.22959,-0.03681,-0.021766,-0.037761,-0.20953
0.11072,0.68938,0.53063,0.1663,0.018279,0.018345,0.01066,-0.13654
0.059928,0.33658,0.14919,0.15363,0.068789,0.023263,-0.022228,-0.029407
-0.30265,-0.46323,-0.21697,-0.24403,-0.17468,-0.13169,-0.042525,0.12254
-0.010435,-0.22681,0.073284,-0.017936,0.030802,-0.015737,0.0052449,0.37776
-0.024494,-0.09273,0.030654,0.083338,-0.00067282,0.036818,0.013014,-0.33002
-0.1007,-0.50903,-0.090989,-0.056026,-0.0013879,-0.042444,-0.056714,-0.059711
0.20196,0.5941,0.61937,0.49456,0.24951,0.2326,0.14913,-0.07449
-0.073222,-0.072072,0.11403,-0.35071,-0.15255,-0.10556,-0.071438,0.16547
0.069959,0.21862,0.55341,0.0012838,-0.050405,-0.032966,0.00085952,0.15898
0.21258,0.22144,-0.87791,-0.020996,0.071629,0.098543,0.1393,0.0045258
0.066958,0.2981,-0.62369,-0.098697,-0.037231,-0.094813,-0.13348,0.07255
-0.18759,-0.29437,0.0048119,0.19656,0.082562,0.03399,0.025016,-0.22046
-0.28727,-0.87183,0.25998,-0.17514,-0.10192,-0.063496,-0.081969,-0.34863
0.28857,0.44354,-0.50353,-0.010896,-0.053261,-0.091843,-0.018306,0.19907
-0.1976,0.067995,0.59083,-0.021208,0.024136,0.080645,0.074312,0.20072
0.21227,0.066521,-0.27301,0.33393,0.19986,0.20331,0.11714,0.10811
-0.15592,0.15354,0.38446,-0.31922,-0.22147,-0.18496,-0.13995,0.078152
0.079376,-0.10355,0.38154,0.075332,0.057579,0.072358,0.045595,-0.28498
0.19921,0.30181,-0.095835,0.15933,-0.0010581,-0.078824,-0.044263,0.038626
-0.42848,-0.69252,-0.065253,-0.35557,-0.11491,-0.098641,-0.11954,-0.42997
0.19782,0.13401,-0.12192,0.21835,0.10779,0.076224,0.13319,0.4401
-0.068428,0.17478,0.11051,0.036984,0.066264,0.10268,0.011499,-0.20518
0.094988,-0.0046289,-0.39196,-0.0099444,0.010764,-0.003299,0.07825,0.42731
0.064609,0.19231,0.73087,0.091902,0.019101,0.0083218,-0.018148,0.027177
0.028839,-0.0685,-0.90663,-0.18238,-0.050119,0.012293,0.034476,-0.14012
-0.15278,-0.0051798,-0.082635,0.040858,-0.049435,-0.08549,-0.1237,-0.35809
0.097391,-0.46217,-0.35031,-0.059719,0.035887,0.035023,0.014796,0.30692
-0.041923,0.59002,1.0394,0.17168,-0.0056242,-0.040223,-0.034494,-0.14197
0.045349,0.18805,-0.16875,-0.069484,-0.017731,-0.021811,-0.013497,0.30611
0.045712,-0.20961,0.028618,-0.048063,0.0079126,0.059675,0.047056,-0.03259
-0.18993,-0.58154,-0.62426,-0.15348,-0.14651,-0.13089,-0.047549,-0.45774
-0.021165,0.24295,0.62922,0.1938,0.035717,0.00095819,0.015623,-0.048718
-0.018137,-0.24414,0.15087,0.034204,0.1805,0.19778,0.072578,0.29629
0.085184,0.6375,0.017133,-0.092168,-0.016368,0.045372,0.076031,-0.046226
0.22674,0.053125,0.027956,0.073057,0.030925,-0.081974,-0.013928,0.35571
0.10215,-0.32397,0.1381,0.13929,0.09514,0.064612,0.043794,0.00469
-0.39003,-0.15641,-0.69727,-0.17513,-0.23102,-0.18806,-0.24405,-0.60454
-0.031059,0.19009,-0.73196,-0.14432,-0.050218,-0.028669,-0.026648,0.20213
0.14777,0.44363,0.96266,0.13726,0.074188,0.10449,0.1333,-0.073507
0.0059188,-0.51899,-0.36185,-0.057514,0.0090183,0.031529,0.017431,0.46044
-0.050097,0.20284,0.98542,0.22421,0.05918,0.010653,0.025105,-0.20308
0.32399,-0.39628,-0.96822,-0.025264,0.045756,-0.027504,-0.0064785,0.092509
-0.55078,-0.11866,0.749,-0.2508,-0.20196,-0.1207,-0.14627,-0.47314
0.39679,0.45931,-0.59618,0.13426,0.12984,0.13091,0.14599,0.23251
-0.22308,-0.14632,-0.30193,-0.23648,-0.074837,-0.044839,-0.027311,0.044921
-0.073762,0.00043112,0.66711,0.020373,-0.018321,-0.029902,-0.025253,0.080586
0.28255,0.098973,0.54767,0.43622,0.17458,0.090075,0.05814,0.057282
-0.24814,0.15147,-0.46323,-0.21595,-0.090343,-0.013366,0.0033409,-0.26065
0.31777,0.17462,-0.14448,0.17215,0.12335,0.065155,0.012363,0.25019
-0.099105,-0.17404,-0.77303,-0.16655,-0.076368,-0.042743,-0.056626,-0.20104
-0.0080052,-0.016423,0.60351,0.0086445,-0.0034066,0.013275,-0.0093763,0.032241
-0.074278,-0.32281,-0.42664,-0.092403,-0.10417,-0.1037,0.020588,0.27649
-0.0018445,0.49521,0.39132,0.05338,-0.035435,-0.081695,-0.091992,-0.1336
-0.0955,-0.77463,0.48564,-0.061328,0.07012,0.087109,0.074934,-0.15181
-0.089034,-0.31824,-0.050967,-0.13842,-0.083712,-0.018747,-0.0172,0.24544
0.081111,0.2264,-0.48578,0.18309,0.10559,0.062285,0.0072234,-0.47224
0.2364,0.45433,0.16246,0.1782,0.060783,0.065124,0.10968,0.14968
-0.13014,0.80077,-0.32214,-0.23023,-0.06915,-0.072492,-0.14706,-0.19185
0.075381,-0.2963,0.30341,0.16103,0.082948,0.055503,0.13541,0.81711
-0.18676,-0.13082,0.15516,-0.21145,-0.10854,-0.082739,-0.13704,-0.44748
0.2226,-0.21994,0.011627,0.29893,0.12875,0.074413,0.0975,0.14755
-0.081265,-0.20828,-0.18583,-0.1227,-0.11267,-0.067703,-0.028804,-0.061946
0.063674,0.24374,-0.11364,-0.033452,0.033285,0.044905,0.014782,-0.1622
-0.062962,-0.29555,0.25484,0.064771,0.026913,0.021363,0.017105,-0.22366
-0.12608,-0.30869,-0.62363,-0.25082,-0.10829,-0.075481,-0.099766,0.12887
0.069781,0.81245,1.1226,0.30921,0.081614,0.044407,0.039793,0.28665
-0.075759,-0.2256,-0.85271,-0.19101,-0.019098,-0.031555,-0.0085637,-0.17916
0.032978,-0.18899,0.089761,-0.15506,-0.13513,-0.098506,-0.024953,0.22452
-0.10954,-0.30245,-0.25354,-0.040753,0.05568,0.04052,0.022936,-0.32981
0.12384,0.092861,0.85228,0.17053,0.031383,-0.0038932,0.026492,-0.052889
0.28166,0.71726,-0.41175,0.39508,0.23806,0.22967,0.071947,0.25811
-0.072638,-0.50036,-0.12158,-0.13941,-0.089982,-0.056026,-0.044047,-0.0069632
0.084751,0.59232,0.51488,-0.018956,-0.00048556,0.020687,0.060657,0.2837
-0.28522,-0.29321,-0.49068,-0.22111,-0.096383,-0.057423,-0.067985,-0.10526
-0.12001,-0.4795,-0.57898,-0.11453,-0.10575,-0.1436,-0.063714,-0.651
0.1432,0.18552,0.80958,0.23678,0.079514,0.018641,0.010259,0.2246
-0.2606,0.21239,-8.1336e-05,-0.18391,0.0055172,0.03015,0.0051568,0.17055
0.28652,-0.19311,-0.26236,0.23219,0.078369,0.062854,0.030417,0.0081851
-0.17596,-0.18402,-0.50714,-0.24945,-0.12338,-0.07004,-0.054199,-0.13643
0.27355,0.19681,0.29551,-0.0037273,0.041687,0.05446,0.07217,0.55779
0.11035,-0.29577,0.86781,0.20371,-0.003657,-0.078089,-0.027466,-0.44021
-0.074047,0.55474,-0.21123,-0.0025127,-0.0087068,0.048835,0.061252,0.14255
0.037782,0.22332,0.12791,0.064195,0.12057,0.060574,-0.075768,-0.1481
-0.17438,-0.29089,-0.67813,-0.1835,-0.053567,0.019275,0.037657,-0.21208
-0.35371,0.12938,-0.36293,0.11211,0.0071651,0.0020632,0.010235,0.042665
0.23252,-0.69425,0.99163,0.10573,-0.026476,-0.078435,-0.033841,0.2863
0.099509,0.21748,-0.44212,-0.3443,-0.054149,0.026249,0.021846,0.02512
0.052669,0.16531,-0.43273,0.12121,0.063749,0.041436,0.020504,0.42208
0.24215,-0.041452,0.7784,0.29225,0.076656,0.013392,-0.0067817,-0.68726
-0.23592,0.00019722,-1.0948,-0.25107,-0.10911,-0.13578,-0.059713,0.20546
-0.2304,0.20808,0.76356,-0.14658,-0.10216,-0.037779,-0.028176,-0.32787
0.011341,-0.0014567,0.43286,0.13239,0.08317,0.027936,-0.012666,-0.12074
0.18688,-0.034245,-1.0268,-0.1846,-0.074911,0.032261,0.058333,0.26728
0.15713,-0.024526,0.80682,0.34216,0.22209,0.18037,0.11561,0.51867
-0.030446,0.048157,0.061468,0.0026242,-0.079246,-0.073105,-0.0040924,0.088685
-0.40754,-0.46083,-0.67096,-0.21954,-0.14234,-0.18844,-0.18325,-0.59193
0.33692,0.35032,0.98755,0.25937,0.17329,0.12309,0.038928,-0.054523
-0.064895,0.13359,-0.21052,-0.11875,-0.039447,0.063325,0.028984,-0.019079
0.056297,-0.20062,-0.21368,-0.0062445,0.014873,0.052158,0.043734,0.14512
-0.005213,0.0013086,0.22942,0.17916,0.076745,0.071698,0.10542,-0.17394
-0.032753,0.19895,-0.95976,-0.34646,-0.16794,-0.24735,-0.12307,0.71621
0.042845,-0.052926,-0.58783,-0.13892,-0.079765,-0.086188,-0.033313,-0.2963
-0.043945,-0.40903,0.65305,0.30234,0.12979,0.085771,-0.016475,-0.19754
-0.15105,0.82886,0.39376,-0.16892,-0.046884,-0.020245,-0.033514,-0.026944
0.060113,-0.84302,0.42116,0.15373,0.078588,0.15937,0.08012,0.091642
0.1789,0.38474,0.44879,0.28196,0.10918,0.063776,0.11439,-0.25323
-0.41609,-0.25639,-0.47095,-0.45237,-0.24246,-0.21142,-0.18737,-0.51114
0.38758,0.20674,-0.48656,0.086575,0.017546,-0.00040232,0.011944,0.66526
0.01368,0.22281,0.38907,0.080385,0.13284,0.18256,0.11958,0.30994
-0.13128,-0.33148,-0.65747,-0.048532,-0.075344,-0.13829,-0.082543,-0.021418
0.24806,0.26248,0.26959,0.18333,0.057329,0.052828,0.038584,0.029534
-0.37485,-0.31776,0.26139,-0.14804,-0.039958,-0.025821,-0.017317,-0.17291
0.25359,0.25988,0.38735,-0.030038,0.0065725,-0.0080611,-0.00097826,-0.38281
0.081853,0.037089,-0.39736,-0.052156,0.0076368,0.0031562,-0.0072125,0.36435
-0.24587,-0.39831,-0.1106,0.32894,0.086141,0.045336,0.025253,-0.20837
0.25944,0.6508,-0.42282,-0.36644,-0.088124,-0.00021613,0.079599,0.25644
-0.48974,-0.46944,-0.22799,-0.06246,-0.087222,-0.10349,-0.18108,-0.17882
0.11622,-0.39608,0.55845,0.16145,0.072093,0.086286,0.062961,-0.33274
0.32145,0.59487,0.56085,0.13326,0.084806,0.061066,0.061609,0.57122
-0.019236,0.37782,0.52025,-0.021129,-0.040727,-0.077211,-0.067568,-0.29129
-0.065951,-0.77221,-1.1205,-0.081111,-0.10787,-0.10106,-0.026915,-0.088503
-0.17408,0.62504,0.43919,0.065259,0.033729,0.10022,0.10647,0.45574
0.10507,-0.29985,-1.0174,-0.28997,-0.0044078,-0.018748,-0.056944,-0.18071
-0.030906,-0.33677,0.86162,0.24685,0.076635,0.051242,-0.00058919,-0.14663
-0.081184,-0.21252,-0.83895,-0.2435,-0.15128,-0.15752,-0.067574,-0.061067
0.047305,0.72061,0.69824,0.10801,0.13294,0.14449,0.031388,-0.1457
0.61041,-0.21936,0.50765,0.30214,0.13233,0.089924,0.17108,0.59616
-0.24619,-0.029461,-0.37769,0.088473,-0.021232,-0.040721,-0.063164,0.30222
