-0.030769,-0.19149,-0.23233,-0.045629,-0.020331,-0.02818,-0.027387,-0.020668
-0.0068585,0.087152,0.137,0.0086006,-0.010845,-0.0059455,-0.0015893,-0.0059248
-0.00546,-0.10866,-0.094302,-0.096001,-0.057431,-0.023417,-0.007031,0.0027528
0.028214,0.064547,0.02063,-0.1156,-0.033996,0.0056165,-0.019585,0.029034
0.031643,0.13771,0.24054,0.10809,0.068592,0.026867,-0.015239,-0.020975
-0.050044,-0.15519,-0.059577,0.16303,0.056307,-0.0061052,-0.056198,-0.0072061
0.064051,0.075857,0.041162,-0.050789,-0.069869,-0.0069941,0.02933,0.038155
-0.048445,0.0097218,0.18162,-0.063879,-0.012619,0.032236,0.63151,0.02799
0.0025181,-0.026471,-0.37462,0.068794,0.087214,0.033498,-0.57848,0.0079547
0.0054369,0.16939,0.12071,0.080387,0.056899,-0.034602,-0.077905,-0.062018
-0.0089025,-0.098832,-0.16142,-0.077877,-0.034587,-0.023898,-4.9434e-05,-0.018403
-0.040778,-0.18311,-0.041051,-0.0097378,-0.063781,-0.051914,-0.1731,-0.025136
0.06603,-0.005184,0.13167,-0.10782,-0.071181,0.02945,0.41892,0.15303
0.046142,0.13101,0.16372,0.024865,0.028092,0.032403,-0.082698,-0.20111
-0.076479,0.031384,0.12024,0.051727,0.03041,0.034848,0.14313,0.078586
0.034862,0.033381,-0.48858,-0.058317,-0.0094604,-0.025861,-0.38729,0.11933
-0.040801,-0.1037,0.096609,0.047141,0.010629,-0.032599,0.17025,-0.18626
-0.075979,-0.19901,-0.084925,-0.044701,-0.002162,0.045905,0.011151,0.09285
0.078541,0.34964,0.28581,0.050319,0.0078804,-0.048055,0.064853,-0.12898
0.0013265,0.0109,0.16699,0.083354,0.049511,0.0060124,-0.098934,-0.0011794
-0.010781,-0.091041,0.39863,0.016111,-0.01718,0.0051998,-0.074812,0.13016
0.12759,-0.043545,-0.33567,-0.088592,-0.043349,0.0044148,0.33158,0.14439
-0.12367,-0.15309,-0.72655,-0.066767,-0.0054609,0.003833,-0.091581,0.076522
0.10129,0.19567,0.091546,0.073438,0.041629,0.026987,-0.2902,-0.046067
-0.01138,-0.0066704,0.040799,-0.00435,-0.011808,0.0035627,0.14176,0.00037143
-0.21273,0.051366,0.4827,-0.050531,-0.041221,-0.05091,0.017058,-0.44921
0.25456,-0.021088,-0.12625,0.02836,0.023236,0.0040323,-0.085537,0.10646
-0.14839,0.0031928,0.1787,0.052494,0.024895,0.011943,0.045753,0.014572
0.024637,-0.20237,-0.24739,-0.064092,-0.028757,0.0038791,0.19299,-0.079249
-0.12342,0.028492,-0.1286,-0.024488,-0.0051186,0.0031261,-0.26826,0.23678
0.080895,0.057692,0.21591,0.077583,0.048851,0.033039,0.20905,0.030031
0.068628,-0.18273,-0.096981,-0.015717,-0.023056,-0.0079312,-0.015992,0.014628
-0.018775,0.37928,0.19681,0.015827,-0.017556,-0.064969,-0.10026,0.29295
0.053112,-0.083627,-0.22544,-0.015437,-0.0047059,0.018411,0.03352,-0.49604
-0.0602,0.13143,0.11791,-0.015909,0.0080091,0.0081569,-0.20921,0.12827
0.32746,0.21087,0.31816,0.061199,0.020944,0.021807,0.44439,0.2624
-0.2464,-0.43275,-0.73578,-0.12783,-0.028067,0.012807,-0.2012,-0.26299
-0.21282,-0.24625,0.18202,0.026537,0.0018631,-0.026437,0.0027557,-0.22577
0.021173,0.0035133,0.158,0.024575,0.0015054,-0.0099229,-0.18517,0.45722
-0.044473,0.08127,0.099842,0.038464,0.017738,-0.0002674,0.025227,-0.081809
0.020598,-0.013779,-0.11547,0.0059733,0.011354,0.017855,0.13521,-0.51304
0.21753,0.47517,0.084448,-0.025859,-0.025725,-0.018505,-0.26037,0.29209
0.18826,0.054491,0.17015,0.013309,0.015539,0.062,0.51103,-0.021021
-0.16754,-0.15266,-0.37276,-0.0094311,-0.0058219,-0.022399,-0.1677,0.41978
-0.075444,-0.38252,-0.004688,-0.0083112,-0.01196,-0.045532,-0.086121,-0.29532
-0.034767,0.48856,0.43048,0.016489,0.0047807,0.031493,0.1924,-0.17148
-0.12326,-0.41464,-0.17734,0.041404,0.028772,-0.0021407,-0.27063,0.088749
0.13567,0.088851,-0.32929,-0.097668,-0.041402,-0.028821,-0.17911,0.17903
-0.22713,0.15034,0.25453,-0.010051,-0.017982,-0.0088126,0.11496,-0.22458
0.31863,-0.74956,-0.052276,-0.00033351,0.005591,-0.0038106,0.09589,0.6854
0.0057466,0.6906,0.069321,0.072192,0.029591,0.04165,0.1545,-0.57309
-0.19136,-0.064081,-0.037993,0.020022,0.022939,-0.035909,0.0020053,-0.44254
0.28737,0.37217,0.17975,0.038336,0.032526,0.068461,-0.033256,0.53445
-0.060385,-0.37445,-0.21524,-0.060615,-0.051164,-0.028187,-0.27152,-0.14354
0.1153,0.56256,0.089743,-0.034967,-0.040904,-0.052922,0.20122,0.16516
-0.37354,-1.0535,-0.27961,-0.033473,0.016085,0.14972,0.095755,-0.075045
-0.15085,0.69593,0.209,0.021748,0.0022523,-0.046164,-0.025645,-0.093058
0.27808,0.010178,0.19747,0.068064,0.034463,-0.13361,-0.54605,0.16474
-0.20031,-0.91123,-0.313,-0.050788,0.0031009,0.042967,0.30765,-0.16959
0.089891,0.82711,0.11598,0.0090398,-0.02165,-0.063689,0.62884,-0.39448
0.40234,-0.073993,0.078615,0.02898,-0.008533,0.022845,-0.3563,0.74443
-0.19017,0.44652,0.12948,0.017102,0.019166,0.13855,0.039431,-0.38418
-0.2024,-0.49477,-0.29455,-0.057534,-0.016387,-0.099283,-0.33247,0.12393
0.21625,-0.13191,0.1649,0.031993,0.025835,0.20793,-0.088917,0.099117
-0.28052,-0.2293,-0.22777,-0.065512,-0.056829,-0.2678,-0.11218,-0.33449
0.0927,0.47299,0.0184,-0.013766,0.017335,0.18466,0.48905,0.093687
0.27722,0.087167,0.28517,0.070303,0.014342,-0.14525,0.035741,0.56788
0.066364,0.11653,0.14999,0.030571,0.028196,0.00082125,0.067386,-0.21054
-0.096881,-0.16986,-0.17637,0.046697,0.0042902,0.0221,0.13114,0.25233
-0.15054,-0.49543,-0.18562,-0.045552,-0.0027849,0.0054165,-0.34305,-0.49775
-0.42906,0.17344,-0.17347,-0.090189,-0.040147,0.021959,-0.25313,-0.17485
0.047269,-0.33417,0.064883,-0.0093798,-0.014378,-0.03697,-0.082706,-0.70633
0.14193,0.49644,0.12508,0.0012894,0.019475,0.063327,-0.0027565,0.35936
0.2417,0.39653,0.19634,0.09784,0.037651,0.010228,0.42491,0.48302
0.28678,0.11881,0.17049,0.0066495,-0.022596,-0.0015185,0.13001,0.1551
-0.15174,-0.35082,-0.31144,-0.0067964,0.010474,-0.035321,-0.19305,0.049291
0.088752,-0.088896,-0.031075,-0.036337,-0.019409,-0.068814,0.032026,0.16914
-0.049713,0.20457,-0.083191,0.0039409,-0.0027794,0.13916,0.37312,0.21475
-0.25114,-0.30824,-0.0083204,-0.042159,-0.017602,-0.084037,-0.26592,-0.58815
-0.19963,-0.32888,0.2622,0.036413,0.045679,0.17529,-0.6056,0.44348
0.038683,-0.055652,0.11738,-0.041458,-0.047178,-0.19995,0.18154,-0.57871
0.016178,-0.18464,-0.39731,-0.041309,-0.038326,-0.24044,0.041397,0.083399
0.3102,0.72148,-0.032958,0.1306,0.087759,-0.046955,0.25672,-0.65681
0.17924,0.66131,0.15503,0.044427,0.088668,0.85013,0.0638,0.91526
-0.12485,-0.79883,0.017852,-0.034432,-0.082754,-0.61097,-0.05906,-0.48922
-0.31807,0.20874,0.15701,-0.043731,-0.020498,0.20294,-0.017008,0.46951
-0.061218,-0.1155,-0.083527,-0.04612,-0.044979,-0.067408,0.13557,0.53196
0.14138,-0.19049,-0.11732,-0.018109,-0.023278,-0.28152,-0.13297,-0.90414
0.18368,0.5874,0.056455,0.0093339,0.029291,0.45098,-0.11242,-0.21483
0.06852,-0.53704,-0.076607,0.02887,0.050669,-0.31548,0.17311,0.73038
-0.1161,-0.12195,0.11009,0.0097962,-0.044636,-0.057727,-0.26881,-0.29932
-0.17372,0.1597,0.14193,0.030716,0.056182,0.13797,0.093499,-0.27136
-0.065212,-0.32356,-0.25241,-0.02528,-0.053061,-0.0023248,0.19861,0.56341
0.17725,0.45485,-0.1568,-0.0019437,0.049288,0.012876,-0.32694,-0.10223
0.082997,-0.45428,0.0085991,-0.016743,-0.012241,0.31547,0.026338,0.079715
-0.28813,0.5307,0.37767,0.039206,-0.0038781,-0.41586,0.59586,-0.37109
0.38888,0.16981,-0.057226,0.048148,0.042547,0.075882,-0.39086,0.034352
0.048393,0.010233,0.41408,0.01741,-0.021791,0.1965,0.21488,-0.33886
-0.2106,-0.37146,-0.77257,-0.17046,-0.064142,-0.16321,-0.75929,0.094415
0.13384,-0.064138,0.013372,-0.023252,-0.060752,-0.32276,0.47445,0.74072
-0.25429,-0.0088137,0.30835,0.06874,0.074961,0.27389,0.039165,-0.031706
-0.084508,0.00217,-0.14816,0.043512,-0.015554,-0.090423,0.15117,-0.36999
-0.15888,0.27115,0.039639,0.010955,0.059134,0.44517,-0.028227,-0.18699
0.22103,-0.23413,0.025559,-0.0051354,-0.028522,-0.27447,0.11541,-0.24761
0.27671,0.14306,0.065342,-0.043731,-0.0048701,-0.092568,-0.42805,0.16699
-0.31839,-0.30647,-0.04563,0.059028,0.043954,0.12365,-0.058532,0.25929
0.41219,0.13093,0.44203,0.13084,0.10179,-0.0090948,0.55955,0.85614
0.044737,0.57551,-0.23674,-0.14909,-0.14456,-0.1477,-0.57292,-0.61424
-0.080088,-0.79794,-0.52529,-0.038972,-0.016103,0.12124,0.35862,-0.2076
-0.20795,0.020637,0.071891,-0.085832,-0.036726,-0.046479,-0.06477,-0.33809
-0.24797,0.22,-0.018997,-0.0082803,-0.042517,-0.11987,-0.019333,-0.33252
0.22023,0.30823,0.011362,0.13937,0.11512,0.11192,0.021812,0.36647
0.025144,0.51134,0.47956,0.099775,0.045931,0.19575,-0.047743,0.51243
-0.088977,-0.5543,0.23996,-0.071936,-0.069974,-0.25912,-0.17909,0.21061
-0.22829,-0.47517,-0.30801,-0.086435,-0.02915,0.12204,0.21444,-0.7234
0.17316,0.069236,-0.47767,-0.0061708,0.020078,-0.18468,-0.196,0.3295
0.016498,-0.47475,0.48643,0.12964,0.13226,0.33572,0.39208,0.10429
0.5685,0.75371,-0.50494,-0.093365,-0.083556,-0.12988,0.19416,0.0378
-0.17154,0.013607,0.77902,0.074449,-0.010628,-0.042879,-0.52018,-0.65281
-0.25287,0.18005,-0.41494,-0.13289,-0.086856,-0.036221,0.050116,0.65535
-0.1163,-0.13128,-0.21433,-0.0438,1.2091e-05,-0.086151,-0.042969,-0.41501
0.086488,-0.1423,-0.15186,0.13842,0.10151,0.12061,0.082179,0.094899
0.28304,0.4472,0.2095,-0.0081893,-0.0087111,-0.063259,0.11364,0.48793
-0.1988,-0.37552,0.83111,0.13355,0.0056691,0.12133,-0.12601,-0.59669
-0.41966,-0.31802,-0.91886,-0.12376,-0.057987,-0.11357,-0.0082355,0.34791
-0.086767,0.03064,0.54683,-0.029965,0.019543,0.045323,-0.052331,-0.4677
0.42967,0.177,-0.98923,-0.16292,-0.058265,-0.042455,0.011226,0.76913
0.0014674,-0.31571,0.45846,0.10263,0.083726,0.083558,-0.010026,-0.51904
0.069425,1.0472,0.60938,0.12625,0.039128,0.0081918,0.072559,0.059554
-0.068598,-0.42585,-0.31747,-0.076433,-0.044035,0.058006,0.21902,-0.16552
0.11693,-0.50366,0.22454,0.056835,-0.057015,-0.26877,-0.17504,0.36195
0.059318,-0.048714,-0.42911,-0.029125,0.07759,0.22152,0.22203,-0.16919
0.30748,0.07618,-0.22418,0.016636,-0.0080666,-0.10519,-0.09461,-0.11749
-0.64469,0.32763,0.347,0.037331,-0.0097288,0.078625,-0.19186,0.0092381
0.025831,0.043782,0.097287,0.024918,0.041281,0.17158,-0.018063,0.37403
0.058293,0.577,0.17595,-0.10628,-0.089059,-0.34096,-0.12897,-0.39244
-0.063148,-0.65922,-0.40803,-0.12887,-0.056245,0.011367,0.038933,-0.1761
-9.5664e-05,-0.58061,-0.020634,-0.01811,-0.0155,-0.058492,-0.121,0.49582
0.14254,0.29472,0.096878,0.21971,0.16708,0.22492,0.40275,0.064743
-0.20798,-0.27073,-0.36775,-0.054668,-0.031008,0.035123,-0.050072,0.050763
0.15654,0.56316,0.49885,0.018998,0.015772,0.037178,0.031434,-0.28255
0.23975,0.50328,0.093393,-0.035815,-0.075349,0.02036,0.0085324,-0.30259
-0.1365,-0.063957,0.27283,0.0065827,0.023278,-0.21897,-0.15731,-0.21055
0.27706,-0.33766,0.034603,0.097626,0.045126,0.11505,0.15828,0.54433
-0.3425,-0.67212,-0.52153,-0.014886,-0.050016,-0.18981,-0.16325,-0.10298
0.079212,0.40813,-0.45843,0.0027099,0.064807,0.18549,0.0015529,0.68926
-0.24287,-0.23656,0.26453,-0.085829,-0.087942,-0.072637,-0.067412,-0.58137
0.15696,0.27168,0.2209,-0.070618,0.014581,0.089696,0.058735,-0.66857
0.097363,0.53878,-0.20225,0.032702,0.059762,0.093893,0.20791,0.42976
0.0079892,-0.59419,0.09291,-0.056104,-0.07703,-0.19301,-0.24456,0.39293
-0.46923,0.19049,0.22638,0.024137,-0.05129,-0.028693,-0.040293,-0.43045
0.089665,-0.040055,0.065945,0.095904,0.08326,0.040318,0.01662,0.42314
0.10864,-0.35264,0.1566,-0.026231,-0.023976,0.037928,0.32493,-0.060811
0.44849,0.5126,-0.24791,0.081176,0.088715,0.058376,-0.21706,-0.0064051
0.25797,-0.20175,0.073586,0.028332,0.01554,-0.022905,0.054129,0.0652
-0.41676,0.073378,-0.29846,-0.051893,-0.055901,-0.002459,0.028216,0.29981
-0.06916,0.077432,0.16278,-0.035072,-0.039862,-0.012857,-0.16299,-0.51211
-0.02057,-0.37312,-0.18574,-0.039325,0.0085949,-0.038291,0.042204,-0.59133
-0.11481,0.37346,0.39027,-0.026604,-0.0046997,-0.00047077,0.073104,0.12631
-0.006771,-0.42181,-0.6461,-0.013396,0.0058316,0.0070171,-0.062304,0.08195
-0.21718,0.36193,-0.056786,-0.054981,-0.053806,-0.023499,-0.05861,0.13813
0.12472,0.041882,0.7719,0.2077,0.074076,0.033052,0.26501,0.29487
0.15523,0.12428,-0.29666,0.016758,0.053502,0.043804,-0.29323,0.17196
0.21272,-0.24987,0.59206,-0.11997,-0.068648,-0.014894,0.0022706,0.49226
0.055605,0.13286,-0.41181,0.016371,0.027939,0.059708,0.22267,-0.26943
-0.16147,-0.23082,-0.20614,-0.066313,-0.094265,-0.18601,-0.30365,-0.27533
-0.074941,-0.28806,-0.12697,0.046114,0.080293,0.067736,0.12597,-0.58764
0.068017,0.2567,-0.15118,0.048989,0.012429,0.12512,0.69006,0.49063
0.058871,0.018563,0.2679,0.028223,-0.0011396,-0.10017,-0.80826,-0.13646
-0.0056159,0.31368,0.34899,-0.086572,-0.046531,-0.0068005,0.066796,-0.34826
-0.1444,-0.45901,-0.54865,0.032615,0.047954,0.061491,0.16533,0.68516
-0.33543,0.55668,0.074503,-0.067471,-0.069385,-0.12947,-0.25579,-0.17722
0.11724,-0.036562,0.23289,0.073977,0.070132,0.10041,0.23288,-0.29892
0.46585,-0.15431,-0.17704,0.027153,0.0134,0.025056,0.061419,-0.20569
-0.26303,-0.19758,0.53732,-0.0049109,0.0027343,-0.019029,-0.0036239,-0.087983
-0.034882,-0.027588,-0.13484,-0.084772,-0.1257,-0.093838,-0.18758,0.81404
0.028025,0.20016,-0.32897,0.014127,0.050255,0.058839,0.073404,-0.10366
0.33381,0.27176,-0.085789,0.11997,0.10906,0.079868,0.014941,0.34667
-0.077482,-0.36549,-0.038196,-0.11085,-0.12867,-0.093189,0.11462,-0.058003
0.068066,-0.048332,-0.0049303,0.0093544,0.087249,0.10207,-0.056527,-0.70009
-0.38536,-0.085879,0.18105,-0.026937,-0.086829,-0.13922,-0.13092,0.099459
-0.22597,-0.69884,0.015638,0.10091,0.1225,0.10456,0.18063,0.1769
0.39929,0.83754,0.06491,0.0026518,-0.011418,-0.033961,-0.028211,-0.20714
-0.39038,-0.18407,-0.38736,-0.047908,-0.043402,-0.03148,-0.17172,-0.37483
0.32109,0.3916,0.20649,-0.073848,-0.0282,0.018206,0.08572,0.25307
-0.035252,0.34674,0.32174,-0.051446,-0.11422,-0.080208,-0.10011,0.093748
0.19702,-0.019101,-0.12299,0.12102,0.15178,0.16547,0.21547,0.44008
0.10242,-0.41911,0.25836,0.13101,0.0356,-0.033871,-0.069945,-0.13433
-0.056344,-0.24906,-0.32823,-0.13887,-0.07199,-0.061194,0.011322,0.18492
-0.43956,-0.2723,-0.40257,-0.024965,0.00093128,-0.0026936,-0.010673,-0.21122
0.35458,0.5154,0.47055,0.0034577,-0.026982,-0.046218,-0.012103,0.012319
-0.14673,0.0518,-0.091471,0.078704,0.10965,0.13597,-0.025171,-0.18494
-0.032464,-0.30658,0.10966,0.012855,0.0042165,-0.0033448,0.027723,0.047413
0.14112,0.15314,-0.38165,-0.13966,-0.10148,-0.089415,0.0059973,-0.27536
-0.2822,-0.12565,0.12108,-0.011748,0.010943,0.049578,0.066574,0.12848
0.20687,-0.41582,-0.18763,0.02945,-0.05718,-0.094012,-0.22682,-0.1932
0.063958,0.53392,0.50272,0.062144,0.061233,0.034884,0.10399,0.54955
-0.090716,0.19257,-0.20287,0.023884,0.014655,-0.016317,-0.10337,-0.25261
-0.05885,0.011085,0.24268,0.039637,0.037602,0.10455,0.19161,0.11785
0.18551,0.070164,-0.15595,-6.6768e-05,0.020911,0.0074253,0.05239,0.44745
-0.066819,-0.14619,0.009333,-0.024984,-0.019537,-0.041638,-0.036417,-0.32192
0.23194,0.26569,0.18395,-0.066303,-0.075637,-0.042393,-0.043986,-0.36557
-0.48837,-0.65088,-0.4682,-0.10813,-0.05334,-0.026041,-0.0025224,-0.060982
0.21716,0.28813,0.3274,0.11562,0.063253,-0.016166,-0.046042,0.028626
-0.027165,-0.451,-0.089689,-0.058543,0.016511,0.080665,-0.042879,0.28766
0.13728,0.25548,-0.017216,0.065171,0.072085,0.092131,0.13114,0.14974
-0.21987,-0.13173,-0.35102,0.033862,0.0032418,-0.021347,-0.024313,-0.19173
0.14307,0.34062,0.016035,-0.035436,-0.13569,-0.21341,-0.11061,0.0047064
-0.055482,0.32861,0.70082,0.083303,0.053224,0.062375,0.013524,-0.36304
0.16086,-0.043681,-0.46054,0.068981,0.085087,0.10257,0.098986,0.015976
-0.22363,-0.14517,0.031188,-0.11045,-0.079618,-0.061755,-0.15019,0.18492
0.095655,-0.2124,0.43864,-0.088354,0.027587,0.092798,0.14947,0.17606
-0.045481,-0.16929,-0.96305,-0.07576,-0.077694,-0.12902,-0.02524,0.041583
-0.014418,-0.0014968,0.51967,0.05277,0.050102,0.077632,0.098847,0.45543
0.12607,0.087685,0.15524,0.1028,0.044274,0.0020491,-0.080552,-0.35614
0.17252,0.27903,0.405,-0.041757,-0.039849,-0.011703,-0.048804,0.097903
-0.30506,-0.034704,-0.098971,0.057602,0.009346,0.021141,0.060257,-0.44069
0.02118,-0.21787,-0.41161,-0.028159,-0.018487,-0.047402,-0.066692,-0.26712
-0.067678,0.1935,-0.33584,-0.025503,-0.0057733,-0.037167,-0.078555,-0.15806
-0.071799,-0.165,0.07862,0.018178,0.0007149,0.013225,0.032423,0.51895
0.18826,0.060197,0.22329,-0.030981,0.00076688,0.01816,0.086834,0.15639
-0.12388,-0.48936,-0.13967,0.036571,0.032958,0.0012186,-0.04765,-0.023883
0.64736,0.77186,0.46544,0.11784,0.11226,0.16546,0.18419,0.26263
-0.49094,-0.2438,-0.50013,-0.061769,-0.035426,-0.036256,-0.092201,-0.54386
-0.1488,0.21096,0.15904,-0.12784,-0.13713,-0.16677,-0.18119,0.39448
0.033011,-0.085716,0.23051,0.0057325,-0.021112,0.0079425,0.13613,0.063239
-0.015313,0.16815,-0.20381,-0.042947,-0.023068,-0.035831,-0.054253,-0.38818
0.02,-0.67747,0.0131,0.016709,0.037264,0.061114,0.044516,-0.13044
0.13304,0.065019,0.28536,0.10838,0.035613,-0.021642,0.0026877,0.54143
-0.13487,0.084945,-0.39154,0.0071881,0.08983,0.13766,0.0077025,-0.58095
0.17944,0.26052,0.36711,-0.020008,-0.02624,-0.02363,-0.002962,0.3649
-0.01592,0.20495,-0.35118,0.0038635,-0.0078707,-0.029179,0.033238,-0.30543
-0.086975,-0.42981,-0.051905,0.047269,0.035239,0.034863,-0.00075976,0.17619
-0.12719,0.0070112,0.42507,-0.11734,-0.17875,-0.22227,-0.17508,0.38129
-0.059137,0.023758,-0.39086,0.086706,0.076005,0.09006,0.018293,-0.4406
0.24836,0.39237,-0.069806,-0.0062806,0.056663,0.057938,0.063858,0.14567
0.081935,-0.070153,-0.00040435,0.0084949,0.012725,0.048827,0.18815,-0.051386
-0.022219,0.10052,0.28918,-0.034057,0.0064386,0.031795,-0.030904,0.25224
0.034541,-0.41272,-0.11168,-0.087498,-0.11063,-0.10225,-0.10149,-0.11289
-0.33619,0.15987,0.22978,-0.011036,-0.03357,-0.056262,-0.047426,0.051583
0.19992,-0.16802,-0.43419,0.070985,0.12077,0.11513,0.060688,-0.46871
-0.10758,-0.060118,0.40549,0.03449,-0.0066453,-0.0022396,-0.050638,0.098143
-0.08615,0.14237,-0.016405,0.005426,-0.024919,-0.11172,-0.092131,0.11201
0.047093,-0.025089,0.20632,0.047072,0.073882,0.11449,0.1007,0.15336
0.1303,0.020602,-0.52804,-0.043189,-0.061794,-0.042673,0.0049465,-0.11007
0.31431,0.43256,0.14002,0.047396,0.068032,0.096214,0.11328,0.31834
-0.046996,-0.69208,-0.82817,-0.040446,-0.060019,-0.047042,-0.02711,-0.15835
-0.42038,0.085546,0.63809,-0.048815,-0.047271,-0.066006,-0.080178,-0.16086
-0.0073429,0.3973,0.60901,-0.0087919,-0.010462,-0.030519,-0.030408,0.064431
-0.0020413,-0.18185,-0.11956,-0.060732,-0.042741,-0.041445,0.0047541,-0.16735
0.080533,0.37466,-0.088874,0.0065807,0.090879,0.11294,0.040588,0.067014
0.17003,0.022544,-0.20826,0.060461,-0.038861,-0.066675,-0.001406,0.18144
0.10941,-0.30528,0.30796,0.11633,0.11498,0.10759,-0.027846,-0.48211
-0.36073,-0.25228,-0.59785,-0.037413,-0.01049,-0.004943,0.062488,0.32297
0.10891,-0.39704,0.16632,-0.1128,-0.087996,-0.061063,-0.051021,0.63108
0.22667,0.29365,-0.087165,0.13875,0.037545,0.024232,-0.017068,-0.32084
-0.080416,0.33137,0.52607,0.051724,0.04455,0.062283,0.093834,-0.029989
-0.080187,-0.021575,-0.54574,-0.21881,-0.12279,-0.13556,-0.10906,-0.35165
-0.24285,0.035715,0.31057,0.084318,0.050396,0.015725,-0.00079732,-0.13911
0.26705,0.21676,0.075502,-0.046575,0.01701,0.046892,0.082755,-0.016709
-0.042096,-0.16534,-0.3178,-0.024673,-0.0351,-0.010794,-0.037921,0.18237
-0.14544,-0.22916,0.21128,0.034345,0.012115,0.015068,0.020281,0.03258
0.24809,0.23331,0.06231,0.054217,0.027076,-0.0073901,0.023406,0.4056
-0.015555,-0.35198,-0.014973,0.036817,0.018993,-0.0066448,-0.051446,-0.35886
-0.1687,0.24559,-0.053434,-0.063178,-0.057678,-0.012673,-0.02397,-0.28194
0.12619,0.30427,-0.24325,0.067712,0.040308,0.014712,0.0048962,0.52749
-0.02057,-0.3496,0.20129,-0.093691,-0.053622,-0.072144,-0.042446,0.091661
-0.12441,-0.41162,0.057841,0.022451,0.051226,0.11768,0.053055,-0.021371
0.087583,0.24429,0.041825,0.016585,0.0027967,-0.025446,0.025743,-0.34535
0.067443,0.31564,-0.091585,0.035574,0.050109,0.044581,0.039279,-0.19462
0.0012025,0.031823,0.1561,-0.00049269,-0.034715,-0.032768,0.030438,0.13347
-0.034543,0.036484,-0.14488,-0.093342,-0.06561,-0.071325,-0.040743,0.12439
-0.041065,-0.050293,-0.1571,0.0056232,-0.020452,0.0057734,-0.042325,-0.03189
0.13717,-0.35094,-0.033854,0.10024,0.084159,0.049122,0.0094381,0.019419
-0.0076343,0.44139,0.49452,0.065349,0.044629,0.026971,-0.057568,-0.11707
-0.32624,-0.58574,-0.37216,-0.14532,-0.060782,-0.037186,-0.032219,0.03721
-0.012569,0.17022,-0.26244,-0.046081,-0.051656,-0.017746,0.04694,-0.025383
0.14596,0.13128,0.41279,0.10707,0.057612,0.00039017,0.032122,0.31037
0.18986,0.27309,-0.17316,-0.12132,-0.075194,-0.036182,0.041057,0.009238
-0.0050455,0.093646,0.080556,0.04411,0.012432,-0.0011885,-0.058842,0.0033822
0.10808,-0.47248,0.0069672,0.010965,0.017097,0.043871,0.083781,0.23248
-0.24516,0.22746,0.32792,0.053206,0.041113,0.044815,-0.055134,-0.71444
-0.06641,-0.20858,0.022098,0.037516,0.037624,0.048409,0.086017,-0.043274
0.0095543,0.091258,-0.5489,-0.045392,-0.064426,-0.14919,-0.14213,-0.035483
0.2465,0.11691,0.02464,0.17729,0.15546,0.13832,0.048795,0.4285
-0.067863,0.18764,0.34988,-0.15626,-0.10134,-0.035757,0.033569,0.11094
-0.2075,-0.43849,-0.54155,-0.087304,-0.070945,-0.055572,-0.070238,-0.25603
0.12486,-0.0021651,0.34547,0.031112,0.010903,0.01541,0.019613,0.13015
0.016482,0.2725,0.19548,0.026684,0.018459,-0.010722,-0.0079229,-0.21009
-0.14002,-0.33022,-0.30604,-0.14678,-0.087314,-0.063439,-0.057435,0.34364
-0.0064096,0.25526,-0.11437,0.051391,0.0068221,-0.016953,0.036688,-0.41056
0.20857,0.22701,0.16545,0.10776,0.13807,0.1768,0.12712,0.47182
0.0065522,0.22776,0.19976,0.032394,-0.035799,-0.090203,-0.05129,-0.12106
-0.041318,-0.60835,0.15249,0.022521,0.03355,0.066127,0.0089601,-0.020956
-0.036729,-0.31208,-0.0022404,-0.014386,-0.035507,-0.056327,0.025644,-0.43501
-0.097854,0.3663,-0.27627,-0.054484,-0.023476,-0.011637,-0.033952,0.24237
0.078374,-0.050811,-0.033626,0.0034122,0.0073916,0.0050591,-0.046494,0.26604
0.075981,0.49732,-0.036401,-0.013551,-0.068131,-0.09243,-0.10731,-0.20182
0.22906,-0.3823,-0.12356,0.0026769,0.11653,0.17965,0.1261,0.025647
-0.43257,0.081062,0.13324,0.027255,-0.025463,-0.085832,-0.073637,-0.16829
