-0.032608,0.052497,0.062181,0.059837,-0.012777,-0.0093893,0.026056,0.00053442
-0.042618,-0.030675,0.53216,0.20316,-0.0065676,0.020596,0.0080264,-0.0092057
-0.020349,0.23896,0.045352,-0.19729,0.086718,0.011738,-0.010014,-0.011402
0.26883,0.0085719,-0.60938,0.12599,0.11871,0.04236,0.026839,0.05664
-0.04212,-0.16063,0.34955,0.041407,-0.027916,0.026679,-0.0062172,-0.0079269
0.054562,-0.26963,-0.71766,-0.067974,-0.11905,-0.074283,-0.038693,-0.032917
-0.15223,0.22802,0.42445,-0.038792,-0.07691,-0.049576,0.0076815,-0.010232
-0.10021,0.020105,0.74575,0.32271,0.035723,0.046061,0.00020209,0.013459
0.030775,-0.040855,-0.43262,-0.41529,0.054574,0.017192,-0.0063965,0.006986
0.068831,0.1325,-0.3915,0.049461,0.042004,0.012066,0.034724,0.032785
0.060885,-0.20042,0.35353,-0.051035,-0.048975,-0.016446,-0.025019,-0.010913
-0.10238,0.14153,-0.017939,-0.00014548,-0.046633,0.0094868,0.017244,-0.0072372
0.094597,0.081184,0.42383,0.30984,0.11913,0.027075,0.012726,-0.019064
-0.090661,-0.37339,-0.88323,-0.14557,-0.020719,-0.034224,-0.038976,-0.038959
0.036584,0.16782,-0.16475,0.2739,0.0023079,0.028603,0.033621,0.034304
0.053615,0.1409,0.52583,-0.69685,-0.10105,-0.096899,-0.035421,0.0051562
-0.0015346,0.21565,0.53355,0.85768,0.044187,0.042596,0.027161,0.053125
-0.098671,-0.16495,-0.46104,-0.84143,0.016346,0.056784,0.018251,-0.0093437
0.10506,0.028247,-0.1219,0.33379,-0.0044459,-0.05397,-0.02289,-0.041563
-0.015882,-0.42491,-0.20774,-0.097784,-0.025375,0.030975,-0.056828,-0.051169
-0.047467,0.092477,0.13111,0.0074178,-0.014475,-0.024106,0.026287,0.024611
0.010848,0.30789,0.32158,0.29999,0.13831,0.030843,0.047271,0.068925
-0.066408,-0.1282,0.21209,-0.00038004,-0.12898,0.04728,-0.00907,-0.027258
0.011313,0.11508,-0.11446,-0.19876,0.035498,-0.076584,0.0059803,-0.013637
0.050357,-0.24835,-0.76963,0.0079493,-0.12611,-0.044163,-0.040315,-0.030632
0.0054076,0.28416,0.87857,0.26585,0.13587,0.089587,0.03941,0.054658
0.018303,-0.19175,-0.65328,-0.45888,0.10205,-0.003653,-0.012972,-0.015614
0.11319,0.043368,0.14528,0.32372,0.0060464,-0.05833,0.013045,0.039663
-0.092615,-0.0033447,0.31721,0.041861,-0.10604,0.05061,-0.015815,-0.060968
-0.14634,-0.24795,-0.9222,-0.54717,-0.11767,-0.067308,-0.021844,-0.028676
0.045029,0.48612,0.8841,0.46318,-0.0057698,0.041245,0.0024726,0.01914
0.089937,0.17171,0.51995,-0.15282,0.03421,0.0092678,0.041374,0.058878
0.0030723,-0.53084,-1.1076,-0.26151,0.049228,-0.030313,-0.037908,-0.026736
0.057094,0.15678,0.8987,0.68442,0.078521,0.078764,0.038279,0.020107
-0.060987,-0.016976,-0.39347,-0.21375,0.083211,-0.030778,-0.034404,-0.027053
-0.062224,-0.12212,-0.34706,0.066384,-0.022454,0.039357,0.017919,-0.0039566
-0.0088686,0.156,0.62027,-0.078206,-0.13667,-0.10159,-0.023042,-0.0040692
-0.0097748,-0.1633,-0.80689,-0.29741,-0.040319,0.038519,-0.00061985,-0.019256
0.01378,0.010459,0.42436,0.064115,0.0015543,-0.079344,0.038613,0.02109
0.046602,0.11924,0.29017,0.3345,-0.018143,0.084017,-0.022396,-0.0078511
-0.059711,-0.028768,-0.38833,-0.67271,-0.036175,-0.018109,-0.011846,0.0032897
0.11621,0.060385,0.2968,0.67724,0.16675,0.051902,0.0074782,0.023019
-0.012641,-0.19178,-0.29287,-0.089734,0.075191,0.020644,0.027295,0.01961
0.099159,0.50134,-0.20206,-0.44774,-0.10023,-0.057278,-0.023303,-0.0075839
-0.12809,-0.12206,0.59446,0.6208,0.069412,0.0054637,0.011299,-0.0045785
-0.13321,-0.097975,-0.26151,-0.62527,-0.2138,-0.056963,-0.017911,-0.042306
0.16896,-0.11832,0.33205,0.36864,0.056851,0.044318,0.013651,0.035086
-0.11218,-0.20968,0.17972,0.2497,0.15388,0.035764,0.01206,-0.014669
-0.046138,-0.060873,-0.96116,-0.3592,-0.056027,-0.012315,-0.03039,-0.035054
0.095135,0.18816,0.24466,0.25815,0.0052608,-0.006051,0.0038811,0.0057587
0.055695,0.16473,-0.25063,-0.40836,-0.15391,-0.038972,-0.0016877,0.038235
-0.076608,-0.27634,0.27036,0.43656,-0.016958,0.0064053,-0.022894,-0.022727
0.035788,0.32148,0.5399,-0.16849,0.14383,0.021021,0.050418,0.042365
0.011168,-0.12497,-0.21838,-0.41024,0.048294,0.075465,-0.0076533,-0.0081495
-0.025023,0.20636,0.13259,-0.02127,-0.0059182,-0.13477,-0.024806,-0.0021483
0.075473,-0.098088,-0.020124,0.70385,-0.088861,0.046589,0.022514,-0.017802
0.0072967,-0.023193,-0.26502,-0.42793,0.0022693,0.010035,0.0012825,-0.00071725
-0.058623,-0.28889,0.4207,0.4522,0.047879,0.020884,-0.010883,-0.0060454
-0.11547,0.0018341,-0.74226,-0.35823,-0.0079198,0.024017,0.02437,-0.0030785
0.031207,0.16018,-0.27269,-0.11746,0.091366,-0.027927,-0.026553,0.0076534
0.068255,0.10707,0.13298,0.079423,-0.092927,-0.010397,0.023137,0.025707
0.018676,0.1623,0.87293,-0.042939,-0.053757,-0.025268,-0.0067507,-0.003907
-0.031899,-0.30702,-0.53034,0.30245,0.02897,0.021094,-0.030481,-0.042259
-0.036872,-0.027125,0.38893,-0.21429,-0.039691,-0.0040072,0.014589,0.020068
0.089368,0.20569,0.46853,0.12451,-0.055758,0.0091231,-0.027336,-0.0042379
-0.036376,-0.13912,-0.87881,-0.048472,0.13034,-0.048433,0.00066589,-0.021136
0.093327,-0.26405,-0.22757,-0.29485,0.019776,0.07382,0.036844,0.05564
-0.10771,0.22971,0.24432,0.090168,0.019762,-0.037747,0.0037391,-0.00016333
0.0089852,0.30309,0.27211,-0.19606,-0.0096975,0.015587,0.003366,-0.039871
0.045456,-0.04433,-0.31488,0.403,-0.06054,-0.00046403,-0.011003,0.022593
-0.044211,0.13212,0.92339,0.1853,-1.444e-05,0.0077373,0.015146,-0.0080533
-0.086744,-0.52757,-0.79742,-0.31012,0.0075636,0.016487,-0.012386,-0.022507
-0.033628,-0.00033048,0.15511,0.18126,0.024386,-0.021437,0.0073401,0.01814
0.062038,0.010733,-0.57602,0.10287,-0.11387,-0.043872,-0.012285,0.019921
0.10772,0.091933,0.037315,-0.25826,0.12391,0.019243,-0.017164,-0.017408
0.033647,0.18126,0.36827,-0.12239,-0.012325,0.027171,0.0079249,-0.0081492
-0.01198,0.044683,0.57127,0.42407,0.024328,0.0112,0.015947,0.031877
-0.014562,0.049368,-0.53656,-0.57903,-0.03955,-0.044122,0.0069991,0.0088042
-0.085074,-0.21135,-0.24985,-0.020387,-0.10247,0.00208,-0.049853,-0.061754
0.040232,0.16812,0.70416,0.032139,-0.024067,-0.01398,0.017725,0.015613
-0.093594,-0.25827,-0.68577,0.44805,0.21864,0.095432,0.03055,-0.0010941
0.035394,0.13398,0.54357,-0.052489,0.015577,-0.044535,-0.010918,-0.010075
0.10591,-0.14751,0.30761,0.36658,-0.032501,-0.0041578,0.026464,0.059213
-0.038656,0.13958,-0.9153,-0.31164,-0.082653,-0.033511,-0.036829,-0.035238
-0.046544,-0.035674,-0.012266,-0.22224,-0.033931,-0.0077673,0.01794,0.019162
-0.0029999,-0.01668,0.60105,-0.094542,-0.081918,0.010323,-0.0047033,-0.0041416
0.014874,0.15767,-0.57386,-0.19676,0.10165,0.036082,-0.0034585,-0.0036427
0.047319,-0.012683,0.42052,0.24252,0.0094811,-0.024567,-0.0020687,-0.0028601
-0.006068,0.081374,0.067339,0.081398,0.11114,0.046808,-0.008647,-0.025305
-0.027117,-0.24794,-0.39922,0.31162,-0.10808,-0.015671,-0.023452,-0.024152
-0.093262,-0.11012,0.23916,-0.12904,-0.09255,-0.11057,0.01582,0.01619
0.13957,0.28412,-0.097593,0.25261,0.18976,0.14496,0.069987,0.080058
-0.0083567,-0.11929,0.062571,-0.75271,-0.073049,-0.030055,-0.032859,-0.035752
-0.076519,-0.01474,-0.1787,-0.12719,-0.036895,-0.033599,-0.003592,-0.018868
0.090665,0.04418,0.63632,0.47544,0.017066,0.025591,-0.029543,-0.017908
0.00019157,-0.066525,-0.32647,0.010719,-0.020687,-0.031475,-0.0088772,0.02161
-0.13002,-0.08835,0.20647,0.16028,-0.017704,-0.13387,-0.027178,-0.025509
0.082098,0.2758,-0.093197,0.073647,0.025474,0.046915,0.040937,0.043722
-0.04368,0.0021902,-0.67769,-0.43657,-0.0011963,0.14367,0.047381,0.0027058
-0.015498,-0.081754,0.40932,0.1601,0.13594,0.13249,0.0080365,-2.0659e-05
0.12748,0.12465,-0.24787,0.17479,-0.095007,-0.057803,-0.03791,-0.011075
-0.044306,-0.2544,0.32861,-0.2769,-0.077328,-0.20172,-0.0358,-0.037866
-0.0071068,-0.063113,0.17374,0.40518,0.16537,0.13721,-0.0014319,-0.017401
-0.0025883,-0.15313,-0.019774,-0.27218,-0.18704,-0.16674,-0.036671,-0.019494
-0.084732,0.24144,-0.62911,-0.32507,-0.032523,0.10498,0.084642,0.073426
0.059823,0.31627,0.28041,-0.0035517,0.067068,-0.00045645,0.11985,0.019335
0.057022,0.016967,0.54836,0.37222,-0.051722,-0.099469,-0.18932,0.013427
-0.14689,-0.35175,-0.33126,0.31006,0.13489,0.13706,0.047358,-0.022819
0.11296,-0.1339,0.063417,-0.37782,0.017487,-0.055531,-0.037575,-0.011863
0.024602,0.13096,-0.065899,0.12038,0.072166,0.096947,0.032378,-0.0012294
-0.091438,0.051575,0.25517,0.17092,-0.014299,0.0011084,0.038597,-0.01491
0.1006,0.14294,-0.67874,-0.48488,-0.10984,-0.061823,-0.026425,0.0014438
-0.017007,0.084271,0.39632,0.066523,-0.129,-0.037505,-0.021641,-0.030353
-0.038825,-0.093311,-0.23924,-0.16712,-0.079623,-0.0045867,-0.024723,0.0071063
0.026356,-0.30356,0.4614,0.39279,0.18723,0.020758,0.050678,0.020491
-0.11154,0.063703,-0.51702,-0.0029394,0.12561,0.014638,-0.0060864,0.018125
0.023127,0.025304,-0.049179,0.16239,-0.04461,0.0080172,0.039492,0.016111
0.19525,0.23882,0.67717,-0.031932,-0.14268,-0.053897,-0.015743,-0.00083156
-0.11909,-0.12274,-0.41717,-0.29556,0.043144,0.055504,-0.046947,-0.040358
-0.037231,-0.097902,0.38468,0.06819,-0.057092,-0.085522,0.0081537,0.0068738
0.073826,0.00057936,0.049178,-0.3221,0.20493,0.10913,0.0087023,0.015674
-0.019788,0.32778,-0.19918,0.25356,0.0083236,0.053651,-0.006423,0.024827
-0.067309,-0.2198,-0.47103,0.13193,-0.1087,-0.10342,0.017355,-0.028464
-0.04442,-0.082098,-0.25857,0.07092,-0.092441,-0.026071,-0.013748,-0.035073
0.057501,0.082208,0.072253,-0.14119,0.0015437,0.035747,0.009673,0.012652
-0.011018,-0.080394,0.61729,0.36896,0.086665,0.011806,-0.021693,0.013087
0.046968,0.21816,0.35555,-0.40083,-0.032746,-0.066538,0.032854,0.013133
0.098173,0.0093732,-0.062254,0.047104,0.018213,0.10552,0.0093117,0.012865
-0.069298,-0.31452,-0.087387,0.10139,0.036494,-0.050064,-0.029781,-0.018878
-0.034827,-0.086679,-0.7262,-0.1846,-0.040266,-0.02544,-0.00629,-0.019526
0.083144,0.10264,-0.063395,-0.32697,-0.032275,0.038697,0.0094617,0.026584
-0.060065,0.046056,0.26149,0.36982,0.013603,-0.037513,0.0018206,-0.013359
-0.14447,0.21523,0.61655,0.35178,0.050404,0.026908,-0.0058133,0.016871
0.072505,-0.075695,-0.48994,-0.14587,0.070179,0.059752,0.017769,-0.0077509
0.0060423,0.14992,-0.058157,-0.17711,-0.059981,-0.040881,-0.0055927,-0.0012893
-0.014118,-0.19536,0.33273,-0.09305,-0.10564,-0.095564,-0.013418,0.0050518
0.13885,-0.012675,-0.26449,0.16128,0.01946,0.083084,0.017741,-0.01987
-0.056769,-0.094392,0.02261,0.039203,0.11279,0.010761,-0.0058168,0.0022361
-0.021575,0.15778,0.01926,-0.068413,-0.090407,0.015875,0.0019361,0.009072
0.018541,0.061511,0.15234,-0.34861,-0.034466,-0.033923,-0.013563,-0.0069755
-0.014594,-0.14259,-0.26004,0.5509,0.070616,-0.020866,0.0025092,0.016744
-0.05142,-0.23616,0.49962,-0.032976,-0.032274,-0.053743,-0.02786,-0.021277
-0.030785,0.17996,-0.47488,-0.060007,0.024336,0.047601,0.036001,0.011712
0.061159,0.083841,-0.033755,-0.44307,0.029287,0.041206,-0.0012721,-0.0016681
0.14431,0.032018,-0.2996,0.14695,-0.041586,-0.033964,0.016405,0.024228
-0.048846,0.041858,0.39464,-0.023773,0.05279,0.11072,0.0028263,0.0031215
-0.10582,-0.018122,0.30972,0.49771,0.053309,-0.041043,-0.0032676,-0.01844
-0.027559,0.055982,-0.091155,-0.15677,-0.088109,-0.021279,-0.010001,-0.0094444
-0.064276,-0.27461,-0.43184,-0.20767,-0.052024,-0.025961,-0.048855,-0.048118
0.034635,0.13851,0.17818,0.25694,0.03621,-0.071086,0.036327,0.045288
0.22363,0.17023,0.39402,-0.046244,-0.073199,0.015232,0.0034188,0.020978
-0.08917,-0.17943,0.034227,-0.18907,0.042305,0.045878,0.016694,-0.011364
-0.034371,-0.09772,-0.67642,-0.37529,0.024297,-0.033199,-0.025096,-0.0045137
-0.023789,0.13467,0.3233,0.38766,0.029975,0.067759,-0.0044009,0.010608
-0.10228,-0.051851,-0.12322,-0.024052,-0.0024638,-0.025699,0.008814,-0.012615
-0.0026803,0.030914,0.12515,0.18805,0.044447,-0.0086417,0.030451,-0.0037134
0.15077,0.11781,-0.17257,-0.18541,-0.048227,0.032856,-0.0096281,0.013903
-0.0092808,-0.16616,-0.030732,0.0051872,0.015832,-0.018884,-0.033246,-0.014552
0.016,0.0065688,0.52806,0.47137,0.009316,0.046362,0.022041,0.012263
0.0057858,0.064481,-0.72294,-0.53682,-0.0059723,0.024713,-0.0079752,-0.0075373
-0.097331,0.013652,0.74614,0.1834,-0.061722,-0.11567,0.0093167,-0.011844
0.039617,0.11762,0.15153,-0.21999,-0.017351,-0.039121,-0.012245,0.014545
0.046685,-0.2195,-0.84584,-0.083354,0.0025175,-0.0033277,0.013058,0.0087229
0.02334,0.10196,0.1728,0.2805,0.076707,0.078121,-0.00090156,0.0094181
-0.078368,-0.09114,0.35359,-0.034935,-0.067384,0.026237,-0.0073963,-0.007018
0.0073359,0.060102,-0.34345,0.0012638,-0.038377,-0.033231,-0.022152,-0.025001
-0.085372,0.14992,0.33253,-0.041065,0.14077,0.0566,0.0329,0.018124
-0.026003,-0.2734,0.079416,0.2359,0.03263,-0.016365,-0.014133,-0.033544
0.055587,0.096964,-0.57541,-0.11382,-0.042783,-0.033238,0.0086348,0.023624
0.17025,0.10736,0.0055295,-0.090701,-0.015757,0.013688,0.023123,0.026163
-0.11689,-0.21612,0.053249,-0.32772,-0.11357,-0.055561,-0.03309,-0.040956
0.00064597,0.035082,0.078901,0.37854,0.03033,0.032069,0.011994,0.018096
0.1408,0.22974,0.85742,0.060028,0.032677,-0.028521,0.0022982,0.016172
-0.14987,-0.10023,-0.30715,-0.25104,0.0026582,0.074786,-0.022899,-0.023148
0.0023966,0.083888,-0.58139,-0.02242,0.049691,-0.0020737,-0.008675,0.0094262
0.0097929,0.054345,0.42166,0.32482,-0.052597,-0.017122,0.021745,0.027663
-0.051749,-0.32344,-0.39557,-0.013543,-0.0149,-0.017318,-0.0018072,-0.031388
-0.012546,0.042301,-0.012601,-0.084328,0.022362,-0.041666,-0.0011733,-0.019826
0.13329,0.10283,0.49101,-0.15343,0.020238,0.035023,0.031362,0.038369
0.048374,0.16133,-0.63432,-0.11194,0.041242,0.009909,-0.0059805,-0.0057045
-0.18221,-0.15033,0.38689,0.18805,-0.03967,-0.015121,-0.019743,-0.019567
-0.011765,-0.082576,-0.0046806,0.19138,0.035286,0.05398,0.01321,0.0044372
0.075789,0.0053504,-0.24305,-0.14135,-0.10101,-0.040389,-0.016741,-0.0039814
0.034596,0.10618,0.26066,-0.091555,-0.018661,-0.04814,-0.031601,0.010054
-0.016734,-0.0058226,-0.093421,-0.15143,0.032697,0.046299,0.015511,-0.0078289
0.048436,0.24848,0.43685,0.33538,0.092571,0.047437,0.038785,0.044317
-0.13543,-0.41113,-0.62696,-0.099733,-0.033912,-0.037179,-0.0084453,-0.051862
0.019057,0.07884,0.38356,-0.17539,-0.033931,0.0030967,-0.016576,-0.0069531
0.083312,0.10203,-0.38763,0.25685,-0.0089305,-0.03512,-0.0088542,0.015237
-0.035837,-0.16133,0.39067,-0.24061,-0.013734,-0.0035552,0.0070139,-0.00079341
0.020967,0.17164,-0.051382,0.36327,0.084085,0.019629,0.015397,0.030872
-0.020332,-0.14171,-0.013667,-0.2286,-0.044185,0.011096,0.00055696,-0.0071133
0.0031858,0.12409,-0.20056,-0.24294,0.022642,0.025753,0.016986,-0.01345
0.090019,0.09243,0.052715,0.42181,0.01828,0.0092108,-0.0058498,0.011549
-0.10522,-0.019877,-0.063819,-0.37482,-0.10465,-0.085071,-0.036892,-0.033986
0.017485,-0.074105,-0.022849,0.28152,0.05985,0.040084,0.0096879,0.0059482
-0.058698,-0.071723,0.14106,-0.085409,-0.019412,-0.013552,-0.02236,-0.0016244
0.001444,0.01002,0.1275,-0.17848,-0.0061579,-0.0037511,0.015505,0.0057269
0.088403,-0.055117,-0.39611,0.15863,-0.0092234,-0.016624,0.014081,0.012389
0.038585,0.093597,0.38462,0.089867,0.018893,0.072425,0.012622,0.018442
-0.076673,-0.010365,0.47,0.16966,0.11784,0.036245,0.0034889,-0.0072319
0.017544,0.0029414,-0.53951,-0.23511,-0.063493,0.014793,0.010239,0.0058654
-0.012925,0.034818,-0.2866,-0.023063,-0.10298,-0.11753,-0.021745,-0.020151
-0.025575,-0.076264,-0.25028,-0.23322,0.022858,-0.017345,-0.029934,-0.0303
-0.018661,0.069955,0.73894,0.18937,0.032596,0.026267,0.016932,0.014805
-0.029894,-0.11943,-0.31308,-0.043989,0.011825,0.0058575,0.0016693,-0.009519
0.066457,0.019387,0.25637,0.11381,0.07725,0.062755,0.018021,0.037608
0.09065,0.31329,-0.12365,0.10015,-0.084185,-0.075571,-0.012164,0.015695
-0.0050621,-0.11476,-0.25776,0.070733,-0.082409,-0.0097469,-0.0030071,-0.020599
-0.058209,-0.14997,0.17512,-0.32698,0.11335,0.065688,0.0063204,-0.0089755
-0.0083617,0.025635,0.10608,0.22618,0.010595,-0.036308,-0.0077782,-0.012295
-0.084306,-0.074243,0.18545,-0.16928,-0.10174,0.0046232,-0.0064408,0.00022089
0.040047,-0.1774,-0.49084,0.0095061,0.12023,0.078736,0.025742,0.020239
0.10535,0.34847,0.21994,0.2392,-0.080938,-0.041242,0.018264,0.023823
-0.022049,-0.066882,-0.33675,-0.06517,0.029746,-0.051523,-0.03681,-0.044121
-0.014034,0.0066908,0.37116,-0.22218,0.0312,0.023558,0.0011363,0.019284
-0.072975,-0.00054385,-0.21144,-0.057648,-0.020987,0.011403,0.015045,0.0030563
-0.072512,-0.04899,0.12464,0.0090555,-0.055614,-0.041524,-0.026063,-0.0066977
-0.057843,-0.083568,0.82955,0.30824,-0.040699,-0.010273,-0.020254,-0.025239
0.22267,0.18503,-0.74877,0.020996,0.031993,0.003885,0.025064,-0.0051955
0.004681,0.022609,-0.14501,-0.40712,0.029625,0.056176,0.0086763,0.022723
0.023221,-0.1956,-0.056853,0.22602,0.076669,-0.0089939,0.001105,0.0043153
0.075176,0.13236,0.16357,0.30892,0.070565,0.019956,0.017988,0.018045
-0.22279,-0.14126,-0.14628,-0.27841,-0.075922,-0.028326,0.035696,0.0093655
0.026957,0.16416,0.2124,0.14864,-0.012584,0.01837,-0.055508,-0.013983
0.050207,-0.075234,-0.075967,0.040843,-0.10774,-0.08984,-0.029516,-0.013184
-0.036343,-0.045759,-0.15475,-0.5484,-0.088634,0.076635,0.01947,-0.019844
-0.021813,-0.035508,0.20686,0.20901,0.20083,0.0096895,0.012959,0.020342
0.055113,0.034171,-0.2778,-0.013977,-0.074917,-0.017685,0.013237,0.0054798
-0.047052,0.077226,0.26613,-0.020349,-0.032365,-0.045098,-0.018788,-0.017783
0.094382,0.13969,0.054447,0.18373,0.14184,0.10656,0.018598,0.028595
-0.0824,-0.10029,0.3943,0.18519,0.010993,-0.031988,-0.0071179,-0.0037624
-0.030191,-0.08221,-0.40866,0.10113,-0.12741,-0.07053,-0.040858,-0.028726
0.047704,-0.066049,0.029144,-0.26485,0.016064,0.014155,0.011528,0.00085731
0.064605,0.10245,-0.024611,-0.14111,-0.011532,0.0033224,0.0097389,0.014988
-0.074466,-0.12511,-0.41696,0.18928,0.11013,0.069082,0.024265,-0.0094898
0.16022,0.22701,0.39884,0.13128,-0.056471,-0.038129,0.0082187,0.021365
-0.092232,-0.075595,-0.26167,-0.34659,-0.050434,-0.036476,0.0082792,-0.001759
-0.12989,-0.094684,-0.15078,-0.26676,0.018911,0.03564,-0.014938,-0.0086248
0.046667,-0.039793,0.28518,0.23999,-0.059287,-0.024237,-0.0070975,0.016195
-0.015503,0.028437,0.21705,0.23097,0.027566,0.0032321,-0.015352,-0.029133
0.051765,0.17456,0.24402,0.044695,0.05293,0.032556,-0.00074705,0.011354
-0.0077239,-0.044771,-0.31804,-0.09023,0.047939,-0.0063294,0.013383,0.0046074
0.03458,-0.12011,0.14123,0.30391,-0.011117,0.011598,-0.01953,0.012991
-0.01462,-0.034737,-0.46525,-0.35857,-0.0074492,-0.0076199,-0.013105,-0.026001
-0.12238,0.063347,0.49263,0.22662,-0.011806,-0.10347,0.001874,-0.0028664
0.12645,0.041089,-0.69969,-0.45691,-0.12612,0.059398,0.041407,0.012308
0.021153,0.12418,0.47739,0.043163,0.055635,0.073988,0.004104,-0.019271
0.0063884,-0.11839,-0.0031762,0.069888,0.025603,-0.052688,0.0070698,0.012014
-0.05998,-0.00071537,0.019666,0.15387,0.02608,0.061401,0.0030934,0.0047385
0.0074132,-0.14157,0.23125,0.18503,0.072895,-0.029716,-0.023974,0.013576
0.018637,-0.0032523,-0.60392,-0.07185,-0.083726,-0.045201,-0.020052,-0.0085348
0.018221,0.16322,0.9517,0.14784,-0.029525,-0.0085681,-0.0013373,0.016199
0.051172,0.076068,-1.0224,-0.46945,-0.029998,0.025798,0.016106,0.0092416
-0.15701,-0.20229,0.51517,0.13007,0.071154,-0.027384,-0.022645,-0.037614
0.08893,0.28949,-0.12746,-0.030809,0.039542,0.051548,0.054268,0.015974
-0.053757,-0.26025,-0.21231,-0.069575,0.00011609,-0.03326,-0.026399,-0.025399
0.034037,0.0090076,0.20146,0.26372,-0.070603,-0.038674,-0.014294,0.0024638
-0.035767,-0.12013,-0.24327,0.039506,0.0070892,0.067269,-0.010532,0.0061582
-0.049465,0.06458,0.36821,-0.10142,-0.0088854,-0.011956,0.016607,-0.0060059
0.097055,0.18917,0.60494,0.13024,0.030105,0.020458,-0.0027658,0.021217
0.015105,-0.042662,-0.89544,-0.17138,-0.0085155,0.031244,0.025424,0.010222
0.15887,0.13474,0.18319,-0.052582,-0.01517,-0.05847,0.015438,0.016094
-0.1278,-0.068142,-0.15585,-0.12975,-0.083531,-0.085497,-0.040461,-0.046882
-0.11134,-0.18329,0.15391,-0.065939,0.11441,0.1212,0.013952,0.016632
-0.12136,-0.18807,0.52416,0.5383,0.054878,0.0063137,-0.032343,-0.035709
0.2465,0.33094,-0.38916,-0.12082,0.010812,-0.047661,0.0080403,0.061413
0.013674,-0.08758,-0.64667,-0.12082,-0.03397,0.029659,0.0099826,-0.012716
-0.056062,0.048464,0.10697,-0.0082718,-0.0096069,-0.03474,0.043677,-0.00072739
0.028002,0.075134,0.67348,-0.056654,-0.095991,-0.068293,-0.04725,-0.02023
-0.14914,-0.10886,-0.45785,-0.10223,-0.074258,0.031355,0.0026883,-0.016892
0.068392,-0.050091,0.53713,0.034032,0.040361,0.053972,-0.0019779,0.0090309
0.0089383,-0.10768,-0.2928,-0.031713,0.11559,0.031246,0.016696,0.033956
0.0090595,0.19505,-0.26066,0.097501,0.073812,0.010101,0.0038256,-0.028099
0.03838,0.022053,0.31043,0.24792,-0.03782,-0.0020151,0.0060798,0.018217
-0.019359,-0.048863,0.3065,0.058092,-0.07087,-0.068301,-0.054861,-0.022304
-0.069584,0.12247,-0.11371,-0.25519,-0.033431,0.021307,0.031778,0.014557
0.1774,-0.11287,-0.67399,-0.044836,0.08967,0.0081446,0.031514,0.027441
-0.10611,-0.036443,0.3486,-0.16273,-0.014528,-0.006863,-0.016621,-0.030276
0.041075,-0.031107,-0.24277,0.056119,-0.010392,-0.00056325,-0.010998,0.0057717
-0.052753,-0.03408,0.43563,0.16079,-0.069823,-0.019698,-0.0061278,-0.0046938
-0.059343,0.064534,-0.0036331,0.045064,0.018432,0.037824,0.021711,-0.0066159
-0.080147,-0.054996,-0.071308,-0.076496,-0.0028198,-0.030299,-0.020856,-0.038709
0.11926,0.076487,-0.074131,-0.09882,0.05474,-0.027798,-0.00058674,0.03992
0.10131,0.12308,-0.21741,0.20747,0.020084,-0.016274,-0.0029916,0.010647
0.021982,-0.13441,-0.2232,-0.25752,-0.074836,0.098683,-0.0042759,0.037467
-0.056694,0.053129,0.73907,0.21738,-0.018683,-0.0029409,0.011409,-0.043957
-0.088455,-0.04984,-0.15893,-0.00189,0.063545,0.0068673,0.020669,0.0002949
0.051042,0.055491,-0.053061,-0.011631,0.069867,-0.044236,0.0077229,0.013392
-0.045047,-0.1162,-0.11291,-0.12776,-0.047357,-0.0085057,-0.019953,-0.028719
0.021265,0.11432,0.21687,0.28661,0.0077649,0.050811,-0.00032317,0.021838
-0.015934,-0.057521,-0.25101,-0.20945,-0.093908,-0.046601,-0.0042196,-0.007244
0.046334,0.048669,0.16433,-0.14976,0.0061249,-0.019883,-0.0087048,0.00098335
-0.018551,-0.19098,0.11471,0.18311,0.041634,-0.048836,-0.014196,-0.00038076
-0.0074734,-0.017372,-0.3465,-0.038889,0.027973,0.054162,0.0024533,-0.011151
0.048342,0.1566,-0.24843,-0.12691,-0.066052,-0.007518,0.033279,0.0081009
0.016182,0.11299,0.26583,0.11661,0.07238,0.047606,0.007965,0.018805
0.029099,0.14897,0.204,-0.063478,-0.017175,0.039953,-0.010855,-0.0019203
-0.16244,-0.20428,0.0045908,0.02285,-0.037259,-0.053983,0.00052198,-0.022269
0.051692,-0.056355,-0.042688,0.17443,0.0674,0.031202,-0.0043924,-0.010504
