0.39142,-0.036009,0.35401,0.034277,-0.0031399,-0.0062561,0.00014095,0.11586
0.062976,0.036611,-0.12384,0.055866,0.018195,0.030523,-0.046274,-0.11877
0.069898,0.089141,-0.070614,-0.061055,-0.0057137,-0.001449,0.011796,0.16476
0.19121,-0.10546,0.261,0.11276,0.057967,0.046409,0.056952,0.1067
-0.16228,-0.02602,-0.31218,-0.056342,0.0058026,0.0020369,0.049393,-0.067389
-0.58003,0.02709,0.44846,-0.085026,-0.029966,-0.041292,-0.23084,0.0081494
0.69284,-0.14553,-0.32708,-0.0055378,-0.026612,0.040759,0.69912,-0.05896
-0.34534,-0.055676,-0.7576,-0.03735,-0.039519,-0.088454,-0.62314,0.073652
-0.093042,0.16833,0.69577,0.21769,0.040144,0.039207,0.043404,-0.19633
-0.025295,-0.0070471,-0.25507,-0.076117,0.0011382,-0.0063502,-0.028322,-0.095374
0.23556,0.026564,0.73515,-0.20713,-0.023744,-0.01433,-0.095893,0.10398
-0.27617,-0.011813,-0.77738,0.091319,0.03605,0.046639,0.23227,0.07511
0.50466,0.051187,0.80203,0.22669,0.071583,0.0519,0.043532,0.24168
-0.53757,-0.18037,-0.77637,-0.28431,-0.11971,-0.10743,-0.10581,-0.10555
0.25345,-0.039218,0.088576,0.0043474,0.017429,0.014519,-0.042466,-0.25431
0.49353,0.22042,0.84164,0.18657,-0.00085092,0.012024,0.14083,0.14778
-0.54636,-0.1714,-0.89239,-0.22249,-0.017934,-0.028559,-0.14143,-0.078733
0.31066,0.48371,0.63719,0.41673,0.067908,0.088327,0.14966,0.16744
-0.37524,-0.49172,-0.83335,-0.3347,0.069122,0.0033411,-0.080297,-0.020644
-0.25369,-0.041898,0.285,0.27961,-0.12391,-0.088365,-0.051015,-0.22211
0.30066,-0.13577,0.13665,-0.04607,0.03533,0.039464,0.056782,0.1088
0.29742,0.15471,-0.44659,-0.34336,0.0074059,0.034886,0.023426,0.15066
-0.33866,0.53746,0.67859,-0.041518,-0.043928,-0.055591,-0.097038,-0.034982
-0.26062,-0.54635,-0.22919,-0.0848,0.006145,-0.0056941,-0.023651,-0.20667
0.58901,0.14852,0.031771,0.098394,0.0013154,0.020331,0.13426,0.1508
0.1729,0.32843,0.75484,0.42315,0.027546,0.0067853,-0.021455,-0.032983
-0.52435,-0.19769,-0.87738,0.046058,-0.0088719,-0.022895,-0.11537,-6.3713e-05
-0.1057,-0.28317,0.34096,0.12293,0.0014226,0.0016243,0.095103,-0.039169
0.58234,0.041298,-0.88334,-0.48791,0.0036315,0.017843,0.016499,0.10011
-0.58117,-0.080807,0.69758,-0.2408,0.01317,0.041338,0.00048466,-0.066189
0.21221,-0.066681,-0.048812,0.76972,0.053214,-0.013923,-0.038946,0.040387
0.11498,0.13607,-0.29957,-0.85483,-0.13429,-0.046472,0.062082,0.013858
0.16349,0.10289,0.59807,0.62086,0.19274,0.07646,-0.079459,-0.0049301
-0.22158,0.10302,0.032011,-0.7859,-0.20002,-0.098185,0.020657,-0.04701
0.0073417,0.020535,-0.73526,0.73171,-0.023228,0.00010564,-0.012581,0.0050552
-0.35808,-0.028766,0.15884,0.050725,0.1298,0.04353,0.024094,-0.059398
0.069118,0.11553,0.13699,-0.0069931,-0.13106,-0.069088,-0.072169,-0.052619
0.31743,-0.37198,0.31425,0.31714,0.21804,0.13137,0.073962,0.13492
0.048113,0.43312,0.02922,-1.0238,-0.12734,-0.073591,0.0096718,0.096945
-0.086284,-0.23908,-0.022693,0.68797,-0.065667,0.019274,0.016425,-0.049567
0.15885,0.07009,-0.46791,-0.97096,0.19189,0.058346,0.063051,0.10127
-0.63018,-0.44376,0.25452,0.91111,-0.097259,-0.097189,-0.16301,-0.28688
0.59175,-0.22319,0.11327,0.33123,-0.058523,-0.02571,-0.013489,-0.02688
0.18057,0.9473,0.056497,-0.37805,0.089047,0.085025,0.089486,0.14668
-0.28226,-0.40359,0.012965,0.16268,-0.099946,-0.046438,-0.010623,-0.031922
0.2533,-0.068016,-0.55274,-0.14319,-0.07847,-0.013967,0.045264,0.093543
-0.70101,0.293,0.4768,-0.32067,0.17727,0.088662,0.0068837,0.023055
0.42263,-0.60898,-0.050989,-0.09611,0.066143,-0.011936,-0.071256,-0.071558
-0.2984,0.58346,-0.18536,1.0639,-0.2396,-0.11253,-0.0095217,-0.065368
0.33997,0.1474,-0.83529,-0.94583,0.080527,0.0057277,0.02031,0.072836
-0.19136,-0.28976,0.72049,-0.33114,0.042047,0.05384,0.010677,0.022803
0.26663,0.23538,0.60504,0.35104,0.043007,0.008328,-0.0068158,-0.051188
-0.11932,0.16421,0.49065,0.066314,0.035952,0.048719,0.015101,0.015313
0.15291,-0.83272,-0.84637,0.69257,-0.089098,-0.036182,-0.032604,-0.058427
-0.11073,-0.1521,0.52255,-0.58223,0.14403,0.018956,0.014351,0.017222
-0.12865,0.35138,-0.35081,0.40393,-0.12402,-0.0048386,0.015374,0.016184
-0.10442,-0.034491,-0.55452,-0.25145,-0.11922,-0.068554,0.017176,0.040313
0.13288,0.38473,0.41222,-0.45979,-0.035772,-0.0001288,-0.027457,-0.011952
0.41012,0.23191,-0.43776,-0.28885,0.15121,0.044608,0.060721,0.16377
-0.51617,-0.43513,-0.11858,1.0227,-0.0099816,-0.019702,-0.085931,-0.24559
0.087295,0.3287,0.69482,-0.098071,0.012915,0.0028493,0.016597,0.048325
0.00095337,-0.50356,-0.68674,-0.35475,-0.06114,-0.035731,0.024358,0.021341
-0.27564,0.014934,0.92957,0.43417,0.048304,0.013139,-0.062645,-0.092797
0.61681,0.36067,-0.60191,-0.9619,0.11288,0.078896,0.052661,0.11952
0.014462,0.30682,0.74138,0.7747,-0.049695,0.067156,0.050301,0.11119
-0.28524,-0.49721,-0.61541,-0.76469,0.065489,-0.10893,-0.09276,-0.15687
-0.14859,-0.01666,0.60183,0.31499,-0.138,0.0027962,0.014481,-0.035992
0.097511,0.14602,-0.35715,0.53934,-0.10733,-0.012555,0.020748,0.044539
-0.1158,-0.36577,-0.49923,-0.68632,0.094346,-0.046037,0.035563,0.0071618
0.1192,0.032082,0.3357,1.0322,0.1163,0.12118,0.051113,0.0869
-0.2119,0.1836,-0.14911,-0.022738,-0.13304,-0.11186,-0.12022,-0.14527
0.71193,-0.019788,-0.58216,-0.4296,-0.064511,-0.056627,0.0057385,0.076874
-0.60925,-0.00029639,0.70053,-0.29724,-0.01037,0.077162,0.014742,-0.035245
0.54272,0.50474,0.26327,0.010166,0.21257,0.087556,0.055067,0.12025
-0.46602,-0.6127,-0.50931,-0.1334,-0.19769,-0.10271,-0.053064,-0.13622
-0.17579,-0.15187,0.44547,-0.04512,0.12738,0.045798,0.0028251,0.015586
0.17775,0.61621,-0.093857,-0.51524,0.07823,0.032899,0.019636,0.0050678
-0.015982,0.66088,0.59318,0.80087,-0.010853,0.029805,0.0052352,0.011456
0.038684,-0.86888,-0.91675,0.73247,0.037096,0.027736,0.0065471,0.065398
-0.20639,0.13851,0.40368,-0.60354,-0.15613,-0.1384,-0.031092,-0.075991
0.52084,-1.007,-0.8103,-0.045892,-0.01541,-0.11008,-0.053017,-0.03843
-0.062208,0.15639,0.52911,-0.20191,-0.0039046,0.080936,0.081325,0.099309
0.45749,0.88283,0.36149,0.55285,0.041408,0.17671,0.051501,0.07894
-0.95161,-0.61873,-0.35732,-0.58097,-0.12923,-0.12718,-0.064504,-0.14662
0.00035873,0.48575,0.39979,0.22126,0.21206,0.12289,0.037873,0.024295
-0.23934,-0.065046,-0.67497,-0.65363,-0.14362,-0.15059,-0.094562,-0.11102
0.4493,0.42577,0.40864,0.42358,-0.022268,-0.048611,0.0069533,0.049637
0.1319,-0.07446,0.040565,-0.011331,0.13257,0.069835,0.061261,0.08511
0.4205,-0.10083,0.58074,0.81986,0.0092877,0.05639,0.0059985,0.03508
-0.5504,-0.58811,-1.0315,-0.49203,-0.0094608,0.027973,-0.033702,-0.045393
0.055546,0.17754,0.28488,-0.028027,-0.049901,-0.047266,0.020362,-0.015637
0.042278,-0.18247,0.033555,-0.78311,0.042203,-0.029522,-0.034944,0.014718
0.33014,0.36941,-0.46909,0.59954,-0.048003,0.080349,0.034654,0.029595
-0.62955,-0.41619,0.56943,-0.077531,0.060158,-0.069899,0.08056,0.028505
0.31005,0.23654,-0.075073,0.50445,0.045005,0.019422,-0.084892,-0.08266
-0.37558,0.48733,0.35622,-0.28021,-0.054578,-0.026498,-0.024303,-0.077444
0.26618,-0.13657,0.26154,0.17831,-0.096748,0.011812,-0.0032861,0.059976
0.27438,-0.11593,-0.67245,-0.45396,-0.12585,-0.11449,-0.045131,-0.037139
-0.15543,0.013231,0.67864,0.44382,0.18185,0.15851,0.10042,0.1396
0.12543,-0.41875,-1.2707,-0.60743,-0.083985,-0.058432,-0.011605,-0.081115
-0.38289,0.13626,0.27057,-0.08566,-0.076436,0.0014156,-0.013704,0.01204
0.31178,-0.30602,0.23525,0.32055,0.19082,0.041772,0.00065533,0.020796
-0.22035,0.55776,0.13479,0.13271,0.15547,0.039167,0.031669,0.077906
0.41903,0.25602,0.27676,0.44071,-0.066979,-0.022683,0.0013273,-0.043421
-0.25454,-0.32486,-0.57237,-0.76987,-0.0032827,-0.098063,-0.090337,-0.15599
-0.37393,0.13023,0.52289,0.51475,-0.056163,0.085005,0.0066347,-0.0022857
0.24828,-0.016864,0.049609,0.11804,-0.18317,-0.045302,0.01867,0.058035
-0.005329,-0.5285,-0.35926,-0.72454,0.16671,-0.013753,0.047084,0.079386
-0.20561,0.54567,0.64667,0.80743,-0.11037,0.045879,-0.017879,-0.032302
0.88878,0.18187,-0.18335,-0.77014,0.047611,0.00031073,0.057646,0.12882
-0.21535,-0.52382,-0.50411,0.20839,0.0013728,0.029293,-0.047243,-0.12523
-0.3235,-0.027556,-0.26358,0.22329,-0.13691,-0.12443,-0.059696,-0.091791
-0.4359,-0.27602,0.40721,0.28089,0.2224,0.086973,0.074495,0.06468
0.14347,0.49553,-0.087219,-0.25033,-0.16688,-0.046281,-0.027755,0.015847
0.36938,0.074466,0.027972,-0.21031,0.13605,0.086367,0.055432,0.11331
-0.27147,0.14459,-0.17417,-0.47616,0.10211,-0.07659,-0.11315,-0.15046
-0.081267,-0.27708,-0.1058,0.4666,-0.15857,-0.0032623,-0.0095088,-0.048361
0.28573,0.04232,0.69308,0.24946,0.10336,0.095593,0.077996,0.076552
0.0023971,0.36454,0.021896,-0.23172,-0.051428,-0.1475,-0.045206,-0.0093263
0.14666,-0.081351,-0.19202,0.85438,-0.03954,0.20427,0.11372,0.13225
0.18593,-0.36332,-0.43988,-1.1477,-0.082458,-0.11562,-0.054161,-0.068424
-0.32713,-0.17341,0.11205,0.84654,0.14553,0.05594,0.013868,-0.0015181
-0.41033,-0.17847,0.67914,-1.1348,-0.12291,-0.1802,-0.10409,-0.18243
0.067301,0.55042,-0.037763,0.58407,0.049022,0.10529,0.044878,0.099762
0.12799,-0.23571,-0.26429,0.55381,0.20851,0.1313,0.062015,0.063561
0.0055203,0.21535,-0.40099,-0.24429,-0.24474,-0.18749,-0.068688,-0.041555
0.42627,-0.031282,-0.87433,-0.24162,-0.11344,-0.037606,-0.0038695,0.033672
-0.2816,0.058036,0.8002,-0.1256,0.14378,0.14465,0.06081,0.07742
0.28046,-0.10094,0.50863,0.24619,0.076033,0.0010484,0.015703,0.0028793
-0.17635,0.055123,-0.45606,-0.42789,-0.13528,-0.045618,-0.053417,-0.12031
-0.12804,-0.1769,0.43166,-0.23035,0.22165,0.091078,0.025291,0.027851
-0.28454,0.014886,-0.25179,0.50562,-0.1502,-0.20607,-0.091826,-0.13841
0.10563,0.13738,0.080757,0.48426,0.068335,0.17174,0.079814,0.10809
0.33324,0.017698,0.28502,-0.38141,0.00028614,-0.034308,0.024856,0.057312
-0.51415,-0.14969,0.072367,0.6945,-0.1849,-0.036534,-0.068941,-0.094412
0.80674,0.10341,0.19917,-0.38639,0.15874,0.14791,0.087674,0.16157
-0.46945,-0.090434,-0.91384,-0.69152,0.021228,-0.20904,-0.044298,-0.0649
-0.015229,0.1439,-0.62493,-0.2095,0.010485,0.031983,-0.043069,-0.086318
0.10557,-0.10732,0.59393,0.1508,-0.11624,0.010725,0.020822,0.049967
0.16479,-0.0076502,0.93857,0.083889,0.047712,0.086196,0.029854,0.046258
-0.15137,0.021506,-1.0795,0.86409,-0.082286,0.016402,0.014911,0.003144
-0.02312,0.043025,0.85025,-0.1237,0.081666,0.028668,0.038176,0.036922
-0.34048,-0.021035,-0.59402,-0.63446,-0.020648,-0.20386,-0.095837,-0.16548
0.32789,0.040232,0.45281,0.76473,0.12861,0.14862,0.066046,0.1302
-0.14062,-0.070263,-0.34886,-1.0008,-0.24219,-0.17765,-0.11649,-0.13029
-0.048338,0.045596,0.4405,0.25972,0.23529,0.12386,0.036769,0.00703
0.012564,-0.042201,-0.53079,-0.13023,-0.016719,0.11716,0.073378,0.066686
0.088982,0.025489,0.48532,0.22224,-0.05324,-0.07182,-0.0059904,0.041935
0.37429,-0.0092134,-0.6316,-0.048873,-0.023617,-0.099106,-0.036748,-0.0039537
-0.19782,0.010064,0.66926,0.74375,-0.02281,0.05816,-0.010827,-0.016013
0.18005,-0.041387,-0.86596,0.036194,-0.0052089,0.062772,0.032617,0.005468
-0.083428,0.016527,0.50164,-0.75188,0.090579,0.061404,0.069702,0.05969
-0.4146,0.020177,0.62914,-0.25562,-0.10346,-0.072914,-0.095622,-0.08106
-0.11288,0.03244,-0.19542,-0.015937,-0.072239,-0.13891,-0.026765,-0.0743
0.17328,-0.047994,-0.39352,0.27866,0.082412,0.041634,0.056593,0.094452
0.16523,0.028967,-0.86974,0.003019,0.086922,0.046009,0.013034,0.018138
-0.054277,-0.0023613,0.84727,0.75913,0.011525,0.061558,-0.0095227,-0.045764
-0.10442,0.014096,-0.036611,-0.82742,-0.01105,-0.0049503,-0.019037,0.0044997
0.2707,-0.039087,0.34794,0.21253,-0.0043157,0.027233,0.039441,0.052421
-0.20517,-0.013724,-0.10776,-0.17573,-0.11673,-0.19205,-0.10689,-0.11189
0.30723,-0.0037901,-0.45953,-0.10999,-0.020041,0.0027648,0.027237,0.028422
-0.27673,0.029582,0.33656,0.13517,0.036017,0.081759,0.013147,0.013609
0.12033,0.0080988,0.12785,0.52693,0.17689,0.16305,0.070505,0.063363
-0.35563,0.001915,0.19098,0.0010569,-0.1672,-0.065464,-0.034405,-0.063978
0.25269,-0.012558,-0.41533,-0.90494,0.059025,0.028832,0.065897,0.10819
0.31619,0.042674,0.19758,0.85485,-0.097015,-0.15627,-0.089632,-0.029917
-0.044052,-0.035591,-0.57892,-0.78212,0.14639,0.065829,0.029812,-0.010288
-0.58111,-0.0051562,0.20412,0.2475,-0.12451,-0.063638,-0.053005,-0.13068
0.39066,-0.022142,0.64665,0.41412,0.1452,0.071754,0.043984,0.045591
-0.38702,0.0074462,-0.78262,-0.32714,-0.10689,0.026241,0.015417,0.017875
0.17258,-0.0019937,0.12742,0.28336,-0.029209,-0.02056,-0.0063702,0.04363
0.59453,0.012401,-0.022747,-0.68285,0.11263,0.0019509,0.025293,0.08372
-0.60355,0.0197,0.52105,0.43072,-0.048588,-0.04629,-0.061369,-0.13511
0.21302,-0.0033201,0.040918,0.29518,-0.012881,0.030722,-0.00036619,0.01249
-0.048144,0.0059049,0.14362,-0.10666,-0.15534,-0.11011,-0.041159,-0.027734
-0.20663,-0.0074062,-0.79351,-0.10471,0.10976,0.1332,0.059013,-0.0053885
0.33135,-0.020049,0.80036,0.55759,-0.022674,-0.028328,-0.011887,0.048535
-0.036196,-0.008916,-0.94189,-0.88527,0.27483,0.084665,0.082304,0.095029
0.033886,0.017795,0.59778,0.021798,-0.061035,-0.0050683,-0.0022252,-0.037932
-0.11507,0.012819,-0.015667,0.67331,-0.1874,0.0062812,-0.04705,-0.045952
0.0092406,-0.024202,-0.62152,-1.113,-0.026893,-0.16339,-0.02922,0.0081552
-0.19394,0.015819,0.79441,0.87932,-0.040882,0.11029,0.027308,-0.01644
0.34717,-0.00012199,-0.75226,-0.8067,0.059643,-0.15729,-0.065378,-0.041611
-0.65468,0.021656,0.40339,0.32231,0.025023,0.073145,0.028435,-0.043694
0.18497,-0.028149,0.067349,0.60727,0.08246,0.10681,0.019679,0.055838
0.79676,-0.00087865,1.0615,0.18961,0.037447,0.0069655,0.033537,0.13245
-0.50697,-0.005556,-0.89305,0.40275,-0.085734,-0.06153,-0.031247,-0.10255
0.33483,0.012956,0.121,-0.42123,-0.051925,-0.0042274,-0.0024503,0.015106
-0.48505,-0.0073556,-0.91466,-0.55063,-0.047976,0.04658,0.010872,-0.045881
0.084963,-0.019167,0.24905,-0.84385,0.10626,-0.025987,-0.022286,0.011084
-0.091015,0.0012975,0.25316,0.71332,-0.034316,0.0047477,0.038852,0.04493
0.5237,0.030767,0.020029,-0.093346,0.05368,-0.04095,0.014658,0.070777
-0.48617,0.022337,0.22047,0.56624,-0.036337,-0.030441,-0.055807,-0.10712
0.082703,0.0070518,-0.40759,-0.2947,0.0075593,0.043804,0.014923,0.003195
0.028791,-0.023225,0.46306,-0.091546,-0.0028544,0.0017178,-0.023187,-0.035771
-0.043712,-0.021969,0.053197,0.69652,-0.021467,0.077204,0.040769,0.034082
-0.069198,-0.028532,-0.17071,-1.1475,0.068228,-0.019337,-0.0041844,0.010099
0.017702,0.02724,0.31755,0.67026,-0.070199,-0.061896,-0.01749,-0.02908
-0.14825,0.0047114,0.22332,-0.10878,-0.061988,-0.035352,-0.038343,-0.043995
0.24597,-0.010062,-0.80853,0.0093847,0.092891,0.013035,0.042413,0.082674
0.77748,0.01436,0.47264,0.60833,-0.042791,0.051807,0.029159,0.10853
-0.43879,0.023483,-0.84873,-0.27776,0.015785,0.0028337,0.0074742,-0.060693
-0.50729,-0.037249,-0.072967,-0.48231,0.14416,0.085082,0.039512,-0.011653
-0.040137,0.035318,0.4576,-0.29024,-0.21177,-0.17758,-0.10154,-0.073188
-0.28139,-0.016721,0.59098,0.48561,0.15948,0.082626,0.0061397,-0.050506
0.31515,0.001746,-0.73862,-0.30708,-0.10879,-0.078881,-0.020105,0.0093459
0.40623,-0.026756,0.89306,0.72293,-0.06308,0.11207,0.046677,0.13784
0.11826,-0.0010002,-0.53119,-0.80262,0.085889,-0.062644,-0.042976,-0.10195
-0.24996,0.0083538,0.052545,0.23304,0.017773,0.0067786,0.063074,0.087677
0.12397,0.032236,0.30505,0.48721,-0.033362,0.023567,-0.0018701,-0.026764
-0.44552,0.015708,-0.14778,-0.3282,0.080325,0.034362,-0.0031261,-0.061654
-0.27723,-0.041365,-0.67432,-0.54173,-0.016987,-0.07076,-0.026569,-0.0086189
0.53588,0.0016712,0.27868,0.17969,-0.044971,0.074622,-0.017698,-0.023717
-0.27977,-0.026828,0.34395,0.66612,0.018955,-0.038152,0.038724,0.056874
0.71209,0.053277,-0.069687,-0.075673,-0.036758,-0.003602,0.0093762,0.099681
-0.1625,-0.01517,0.16095,0.42749,0.022037,0.0058403,0.0031085,0.0099803
-0.18728,0.01865,-0.4858,-0.71179,-0.046629,-0.088203,-0.027386,-0.080499
0.12,-0.016251,0.31536,0.041152,8.8566e-05,0.058093,-0.019857,-0.0086372
-0.49169,-0.064344,-0.44388,-0.64488,0.085058,-0.00023016,-0.0055694,-0.064058
0.17358,0.023459,0.22133,0.29158,0.01415,0.073314,0.039138,0.018847
-0.3741,0.01309,0.10003,0.1796,-0.078622,-0.05658,-0.01813,-0.0015574
0.31405,-0.0253,0.010571,0.32623,0.010907,0.016955,-0.0049702,-0.014885
0.2497,0.095096,0.19798,-0.078332,-0.036835,-0.0024189,0.016654,0.058232
-0.032745,0.021523,0.22414,0.31179,0.1066,0.018531,0.0081262,0.0080468
0.1012,-0.013201,-0.19598,-0.42451,-0.066742,-0.060538,-0.0068427,0.0073169
-0.06747,-0.07326,-0.27165,-0.32723,0.036266,0.018322,-0.0047592,0.0017391
0.084095,-0.027377,-0.095988,0.093259,-0.069776,-0.065231,-0.032673,-0.0088695
-0.27572,0.02177,0.089722,0.45812,0.027887,0.079219,0.034038,-0.025211
0.18498,-0.012253,0.20972,0.17702,0.093454,0.052832,0.030781,0.06102
-0.06884,0.034837,-0.25482,-0.22299,-0.038478,0.0034747,-0.0039802,-0.032658
-0.25089,0.015525,0.023628,-0.21375,-0.064286,-0.077346,-0.063009,-0.080846
0.035823,0.0094515,0.21879,-0.17153,0.0075976,-0.0028233,0.017293,0.048362
0.29123,-0.012724,0.061096,0.20928,-0.018223,-0.00011478,0.010083,0.0028939
0.047571,-0.0020734,-0.32716,-0.1073,0.054039,0.063207,0.040309,0.071752
-0.63108,-0.058254,0.067288,-0.12445,-0.063728,-0.070772,-0.048094,-0.10407
0.55379,-0.093873,-0.1257,0.34286,0.06726,0.051291,0.0030792,0.023018
0.017568,0.12618,-0.058883,-0.17697,-0.059384,-0.038836,0.0068751,0.016457
0.29238,-0.031087,0.61302,-0.14122,0.1124,0.026788,0.018601,0.049136
-0.027474,0.22226,0.16291,0.87373,-0.025613,-0.00095943,-0.023645,-0.026438
-0.44148,-0.092283,-0.68495,-0.76521,-0.10545,-0.050899,-0.010003,-0.045467
-0.081617,-0.055273,0.46449,0.18998,0.021654,0.010478,0.0051272,-0.0075173
-0.20443,-0.028544,-0.29081,0.0097857,-0.0038138,0.027312,0.0061561,0.0015346
0.090029,-0.029736,-0.18823,0.027058,0.083138,0.015215,0.024108,0.036056
0.084326,0.04934,-0.01095,-0.44813,-0.046668,-0.0028204,0.019468,0.056327
0.51333,-0.11178,-0.43165,0.3642,0.027283,0.066138,-0.00054317,-0.001041
-0.14716,-0.01224,0.86999,-0.30161,-0.001191,-0.075832,-0.044351,-0.051067
0.046134,-0.048859,0.2068,0.2429,0.022741,0.031131,-0.0030906,-0.0086556
-0.19099,0.2257,-0.18672,0.16326,-0.042678,-0.020121,-0.01769,-0.061863
0.18534,-0.045907,-0.58434,-0.19543,-0.034057,-0.058254,0.028992,0.070397
-0.18637,0.16929,0.29445,0.22237,-0.10776,-0.020869,-0.034719,-0.049124
-0.16591,-0.096188,-0.10587,-0.17705,0.17418,0.029871,0.049376,0.048928
0.11564,-0.099387,0.72981,-0.019379,0.039244,0.063392,0.016128,0.029447
-0.43957,-0.011803,-0.3311,0.45985,-0.0034876,0.072738,-0.048068,-0.04418
0.51718,-0.16934,-0.7326,-0.41254,-0.1245,-0.11309,0.0212,0.016327
-0.063748,-0.025412,0.40268,-0.3798,0.0056572,0.022275,0.013168,-0.01507
-0.053481,0.19267,-0.53925,0.2214,-0.049452,-0.083151,-0.056569,-0.036635
0.033878,-0.024171,0.63252,-0.13277,0.031129,0.031788,0.038324,0.013901
0.13436,0.29875,0.50682,0.36207,0.27096,0.15607,0.055281,0.10468
-0.0065324,-0.18463,-0.53956,-0.0054736,-0.18194,-0.10908,-0.060841,-0.069895
0.28409,0.054496,0.22806,0.24819,-0.023707,0.032674,0.017636,0.028198
-0.40793,-0.21254,-0.20701,-0.26072,0.010225,-0.075496,-0.037745,-0.070775
0.16006,-0.010404,0.12967,0.045138,-0.073372,0.026836,0.030684,0.077776
-0.056304,0.17649,-0.38956,0.09526,0.05284,0.04247,0.019888,-0.002995
-0.19964,-0.37706,0.24813,-0.5392,0.083798,-0.028666,-0.030737,-0.04722
-0.0025393,0.49556,-0.35827,0.12026,-0.1132,-0.030129,-0.011286,-0.054137
-0.34252,-0.33509,0.25763,-0.20479,0.0092538,0.0072477,-0.007052,-0.038219
0.30378,0.12678,0.35941,0.4028,-0.02453,0.021512,0.021673,0.095608
0.3043,0.032816,-0.10166,0.5941,0.09892,0.067915,0.036353,0.07513
-0.0051828,0.0023781,0.30269,-0.55907,-0.041395,-0.087451,-0.048646,-0.051907
-0.27571,-0.12004,-0.71742,0.021426,-0.062089,-0.053698,-0.0067541,-0.019537
0.30703,-0.03849,-0.25553,-0.36906,0.091666,0.091051,0.044539,0.015737
0.10843,0.21328,0.64298,0.19643,-0.010152,0.010585,-0.0047152,-0.0015598
-0.26697,0.15497,0.19203,0.4645,0.0067085,0.0247,0.016611,0.013357
0.096006,-0.061549,0.044379,0.041192,0.10218,0.0077304,-0.0094651,0.012322
-0.1691,-0.23739,-0.34925,-0.63858,-0.19356,-0.11915,-0.068017,-0.091789
0.40056,0.11623,-0.63143,0.40839,0.032656,0.0419,0.027974,0.067349
-0.49547,-0.44796,0.29711,-0.6533,-0.0088518,0.0060735,0.043943,-0.0028523
-0.24836,0.26506,0.10461,0.63958,-0.037077,-0.023694,-0.059058,-0.052288
0.30837,0.15507,0.48822,0.22817,0.065244,0.061994,0.024035,0.013352
-0.14091,0.13093,0.18903,-0.688,-0.029717,-0.041362,-0.010928,-0.00036919
0.59713,-0.11651,-0.35178,0.17624,0.20187,0.064961,0.047581,0.1263
-0.40936,-0.013299,-0.16432,-0.19202,-0.13023,-0.087464,-0.057734,-0.13694
0.086052,0.053372,0.055893,0.42675,-0.017844,0.064178,0.032864,0.023106
-0.22708,-0.18703,0.27736,0.25765,-0.085629,-0.018884,0.022658,-0.0025947
0.58827,0.033237,-0.17069,0.15653,0.018317,-0.023888,-0.0024579,0.028099
-0.56443,0.059042,-0.54264,-0.41272,0.052171,0.018155,-0.027049,0.013212
0.63068,-0.1174,0.21465,-0.1349,0.10225,0.037161,0.011128,0.061452
-0.70651,0.11219,-0.030523,-0.27204,-0.15923,-0.091658,-0.028791,-0.10138
0.044283,0.089499,0.35781,0.17344,0.064869,0.061577,0.0014894,-0.0071954
0.2937,0.038399,-0.24891,-0.12673,-0.022183,-0.042047,0.008207,-0.0079681
-0.030004,-0.020505,0.88819,0.39202,-0.021995,0.042865,0.030549,0.075953
0.23024,0.21514,-0.62533,0.38186,0.080827,0.058503,-0.017191,-0.0207
-0.60237,-0.46688,-0.70034,-0.70718,-0.042256,-0.096777,-0.0019211,-0.070679
0.1328,0.066484,0.78264,0.20003,0.0066499,0.0065611,-0.024934,-0.026238
-0.059235,-0.19085,-0.43262,-0.57989,0.055085,0.063635,0.038963,0.074424
0.19334,0.23279,0.44397,0.83082,-0.053726,-0.050766,-0.021104,0.013207
0.003147,-0.018525,0.061545,0.058166,-0.054517,-0.0087196,-0.0021058,0.0013165
0.66829,0.073862,-0.47783,0.085641,0.013519,0.0098945,0.0097535,0.038558
-0.6716,0.22273,0.31058,-0.7768,-0.060424,-0.065415,-0.0093725,-0.047581
0.19156,-0.38439,-0.42462,0.45934,0.13808,0.12455,0.049395,0.031001
