0.26049,0.056198,-0.012296,-0.0028987,0.0025321,0.0054305,0.1388,0.050411
-0.12364,0.062801,0.079135,0.0041928,0.017394,0.011264,-0.12934,0.01811
-0.21785,-0.073364,-0.047694,0.011241,0.024297,0.0090477,0.0076548,0.013762
0.4563,0.14764,0.099475,0.065109,0.0077551,0.006851,0.050364,0.037633
-0.44225,-0.12533,-0.088673,-0.060794,-0.02426,-0.018429,-0.039591,-0.089131
0.21473,-0.13352,0.0051397,-0.053992,-0.032518,-0.027364,-0.02719,-0.044899
-0.1164,0.015119,-0.13456,0.015191,0.0065778,-0.0039963,0.34585,0.039135
0.19209,0.1035,0.054895,0.099898,0.022837,0.036266,-0.30306,0.023989
-0.27214,-0.04646,0.026764,-0.07325,-0.0071235,-0.015925,-0.036453,-0.034285
0.14751,0.04297,0.0075852,0.073969,0.018213,0.034526,0.075094,0.15418
0.16863,0.0049857,0.294,-0.15363,-0.034124,-0.047221,-0.17195,-0.16057
-0.28168,0.073361,-0.1379,0.040971,0.054355,0.058492,0.22974,0.0050755
0.027334,-0.22226,-0.38245,0.056342,-0.052615,-0.031882,-0.048494,0.0012046
0.41984,0.20949,0.19256,0.14257,0.0587,0.048189,0.10225,0.16964
-0.02172,0.13924,0.016306,-0.2316,-0.033839,-0.02202,-0.16215,0.0005677
-0.080779,-0.045026,0.42447,0.17593,0.013391,-0.023798,0.056589,0.039207
-0.11699,-0.16563,-0.52826,-0.29129,-0.041758,-0.042687,-0.06174,-0.21537
-0.51135,-0.12191,0.056819,0.10859,-0.050644,-0.062277,0.077007,-0.14595
-0.32288,-0.20257,-0.015146,0.25795,0.057361,0.066887,-0.1203,-0.025007
0.40566,0.25795,0.20952,-0.13279,0.056041,0.064576,0.097055,0.15686
0.20123,0.17593,-0.026527,-0.048511,-0.054323,-0.068439,-0.051535,0.049888
0.65141,-0.039936,-0.17616,-0.098908,0.01548,0.05878,0.067143,0.10865
0.067864,0.010897,0.26052,0.27852,0.046696,0.024116,0.023437,0.052645
-0.31034,-0.16232,-0.40445,0.076425,0.039193,0.045562,-0.065834,-0.024476
0.090558,0.09729,0.39063,-0.62604,-0.14004,-0.065494,0.13456,-0.061026
-0.37415,0.16471,-0.16776,0.54759,-0.045862,-0.083697,-0.19658,-0.073816
-0.60523,-0.11671,-0.04938,-0.33849,0.11848,0.052411,0.11172,-0.048362
0.62426,0.033911,0.21379,0.076639,0.024818,0.037487,0.10563,0.053638
-0.58879,-0.15688,0.2856,0.12983,-0.029922,-0.081754,-0.29336,-0.16646
0.22166,-0.18073,-0.73184,-0.43678,-0.084746,-0.054988,0.024113,-0.013052
0.52217,0.34614,0.241,0.75057,0.024449,0.063791,0.050552,0.22539
0.28609,-0.34073,-0.27818,0.064603,0.13358,0.13483,0.27084,0.15884
-0.38274,0.12669,0.18964,-0.3101,-0.085537,-0.075381,-0.14255,-0.1498
0.17136,0.18595,0.63117,0.14704,0.085721,0.066674,0.014069,0.072998
-0.29706,0.093812,-0.39718,-0.74577,-0.12617,-0.10259,-0.079098,-0.15728
-0.1447,-0.050321,-0.31653,-0.075309,-0.072817,-0.082954,-0.085656,-0.07523
0.67737,0.078677,0.20872,0.99501,0.097436,0.11782,0.096379,0.13934
-0.625,-0.11618,0.27883,-0.37669,0.12696,0.046508,0.014267,-0.060335
-0.039507,-0.21584,-0.34263,-0.015837,-0.11679,-0.086115,0.0277,-0.017659
0.14392,-0.0033106,0.20142,-0.26332,-0.024132,0.0010125,-0.066239,-0.013349
-0.15114,-0.0024334,-0.3412,0.11778,-0.0010512,0.018652,0.052823,0.14068
0.0088655,0.13153,0.44971,0.71518,-0.0083131,-0.0021019,-0.0058475,-0.047243
0.82448,0.0022344,-0.18453,-0.67343,0.079095,0.047982,0.062169,0.12631
-1.0581,0.081087,-0.19708,-0.24354,-0.12182,-0.12812,-0.19666,-0.31516
0.43621,0.0035994,0.20963,0.33979,0.1542,0.10224,0.11562,0.13596
-0.24411,-0.12644,-0.19766,0.10613,-0.023019,-0.0033328,0.029677,-0.012968
0.43305,0.028325,0.035361,-0.13408,0.010073,0.023668,-0.0097279,0.034276
-0.10426,-0.023825,0.15948,0.077872,-0.082851,-0.035743,0.012489,0.073753
-0.25057,0.083868,-0.051711,-0.47115,-0.02851,-0.025513,-0.083815,-0.075106
0.41043,0.13937,0.28399,0.42787,-0.061132,0.04644,0.1151,0.032184
-0.26022,-0.27281,-0.26428,0.12504,0.10097,0.00044528,-0.047181,-0.0347
0.37246,0.25226,0.25524,0.16645,0.10685,-0.085229,-0.070619,0.044241
-0.38305,-0.012881,-0.2132,0.099119,0.043138,0.10996,0.15436,0.026906
-0.33311,-0.42783,-0.38874,-0.87266,-0.2302,-0.13249,-0.21569,-0.21122
-0.023599,0.070365,0.072828,0.20639,-0.017511,0.070405,0.085219,0.065018
0.15033,-0.0017476,0.071101,-0.2156,-0.053185,-0.031354,0.0026671,-0.010663
0.37322,0.41157,0.25602,0.37217,0.18577,0.093286,0.09149,0.14848
0.0019687,-0.001377,0.050814,0.30809,0.17506,0.053329,0.023549,0.089837
0.26798,0.048802,0.27667,0.43741,-0.10206,-0.057921,-0.084081,-0.1083
-0.52837,-0.41467,-0.36304,-0.64578,-0.068617,-0.053307,0.010686,-0.032049
-0.0025388,0.14667,0.029887,0.28448,0.016742,0.012406,-0.0045825,0.013543
-0.11568,0.13826,-0.29499,-0.88231,-0.12749,-0.047962,0.042349,-0.010964
-0.041721,-0.25314,0.31827,0.45425,0.01482,0.016315,-0.082191,-0.12925
0.23925,0.049982,-0.3179,0.12912,-0.062964,-0.035924,-0.025648,0.057113
0.2931,0.00027455,0.16389,0.18845,0.06266,0.0073654,-0.083789,0.03265
0.32615,0.1442,0.084209,-0.44665,0.096469,0.084602,0.15061,0.086686
-0.5091,-0.057779,0.0056676,0.090002,0.031896,0.016572,0.06092,0.0085157
-0.097511,0.27653,0.11553,0.64062,-0.099313,-0.024974,-0.024785,-0.029869
-0.17309,-0.3067,0.085065,-0.85149,0.10088,0.02171,0.025547,0.0027452
-0.27208,-0.16754,-0.10999,0.97856,0.06876,0.022551,-0.039467,-0.11257
-0.045996,0.15446,-0.48607,-0.92597,-0.095841,-0.14116,-0.14349,-0.0010885
0.44035,0.10457,0.40944,0.83991,-0.058806,0.091576,0.12564,0.032187
0.21531,0.034867,-0.11102,-0.71588,0.0065363,0.016479,0.14129,0.19788
0.21945,0.11845,0.28897,-0.12282,-0.025541,-0.0076817,-0.13669,-0.17616
-0.085667,-0.33025,-0.21777,0.044317,-0.022042,-0.12926,-0.20867,-0.027595
-0.31907,0.12883,-0.090972,0.36819,0.10402,0.16814,0.25396,0.11229
0.49228,-0.1655,0.19406,0.34594,-0.09879,-0.051665,-0.052268,-0.029793
-0.62455,-0.24947,-0.15853,-0.74452,0.043295,-0.029208,0.030636,-0.023812
-0.28257,0.51976,-0.15602,0.39695,-0.12429,-0.098772,-0.17508,-0.20523
0.32841,0.03401,0.24828,-0.20482,0.18076,0.0535,0.019877,0.16083
0.34834,0.23841,-0.13412,0.26974,0.091412,0.17839,0.28084,0.23105
-0.44077,-0.44667,0.56231,0.11464,-0.057225,-0.013122,-0.10256,-0.20531
-0.045167,0.085559,-0.56294,-0.76068,-0.06364,-0.13111,-0.083689,-0.10146
-0.13511,-0.33995,0.12099,0.26305,-0.047083,0.018432,0.023979,0.11251
0.79822,0.25792,0.42531,0.99237,0.091952,0.06669,-0.0075645,-0.0015258
0.1299,0.43095,-0.74392,-0.78111,-0.077809,-0.073908,0.023193,0.11039
-0.093898,-0.22936,0.26279,0.47812,0.075664,0.087518,0.0992,0.072616
-0.60066,-0.46667,-0.36488,-0.87948,-0.056817,-0.10604,-0.11643,-0.27929
-0.14868,-0.086413,0.13351,-0.12565,-0.17728,-0.053084,-0.10053,-0.062506
-0.27641,0.21593,0.22132,0.85324,-0.049624,-0.0030673,-0.079279,-0.034423
0.92423,0.48742,0.41554,-0.47578,0.29689,0.1388,0.22174,0.32914
-0.075241,0.47071,-0.010432,-0.05913,0.14527,0.053467,0.061593,0.052481
-0.69362,-0.87252,-0.19873,0.17953,-0.12042,-0.14066,-0.16786,-0.32454
0.39186,0.021435,-0.16741,0.4553,-0.030946,0.018299,0.057754,0.11266
-0.35683,-0.25178,-0.1535,-0.28492,-0.12558,0.038687,0.066974,0.028289
0.88745,0.2479,0.29411,0.15303,-0.092593,0.0064928,-0.054421,0.054917
-0.26128,0.1563,-0.5286,-0.76569,0.08251,-0.016156,0.013199,-0.05804
-0.47203,-0.32832,0.37108,0.41468,0.1329,0.0013155,-0.012458,-0.0066882
0.7962,0.38229,0.10418,0.65708,0.05753,0.011233,-0.023193,0.051881
-0.71224,-0.038924,-0.084732,-0.71576,0.097878,0.036303,0.042433,-0.093986
-0.21246,0.0092056,-0.013538,0.43264,-0.30091,-0.11146,-0.1132,-0.069734
0.6532,0.09509,0.14781,-0.89219,0.010057,0.075618,0.17371,0.30424
-0.28584,-0.24524,-0.17783,0.24695,-0.13229,-0.066284,-0.088786,-0.19835
-0.29099,-0.15601,0.087508,0.72656,0.24997,0.025881,-0.024953,-0.029982
0.1677,0.42182,-0.21365,-0.61469,-0.15431,-0.014365,-0.024334,-0.057036
0.27769,-0.27224,0.39324,0.61716,0.23395,0.032409,0.0080572,0.057297
-0.26594,0.19008,0.13236,-0.31671,0.00097642,0.11199,0.12807,0.11841
-0.26176,-0.24585,-0.44383,0.016296,-0.18974,-0.16611,-0.15564,-0.19363
0.44214,0.038708,-0.18072,-0.22526,0.11356,0.065052,0.055744,0.24612
0.51004,0.15581,-0.047756,0.17894,-0.051966,0.023611,0.10579,0.030947
-0.69393,-0.16471,0.59591,-0.36404,0.014693,-0.025651,-0.092164,-0.25399
0.066721,-0.16186,-0.27208,0.26305,0.085104,-0.013347,-0.00017396,0.015383
0.089473,0.15115,0.34206,0.67678,0.040797,0.044066,-0.0023631,0.025747
0.42168,0.43955,-0.52082,-0.92096,-0.34523,-0.049296,0.0093981,0.1437
-0.38808,-0.11733,-0.085603,0.46825,0.052485,0.0032373,0.05761,-0.052839
-0.35929,-0.26336,0.18018,-0.1807,0.086748,-0.0090615,-0.092547,-0.024648
-0.36029,0.061332,0.15995,-0.29114,0.1421,0.0081456,-0.019049,-0.12277
0.36027,-0.021131,0.22857,0.62036,0.071949,0.0010353,0.013194,0.036367
0.618,0.033597,-0.4194,-0.29806,-0.10641,0.0096593,0.060023,0.094192
-0.40359,-0.40896,0.20706,-0.069409,-0.040167,-0.027535,-0.072501,-0.018897
0.36939,0.53349,0.075496,0.51833,-0.17389,0.077711,0.077885,0.1038
0.017717,-0.099423,-0.22118,-0.90056,0.27396,-0.064766,-0.07373,-0.12353
-0.66023,-0.032779,-0.1129,0.019205,0.022103,0.045161,0.043502,0.0020676
0.84391,-0.053641,-0.021142,0.44283,-0.062505,0.016678,0.054532,0.042688
-0.54796,0.019782,0.14878,0.15969,-0.019171,-0.049088,0.0056238,0.0056594
-0.4063,-0.22477,-0.25827,-0.088819,-0.25433,-0.074603,-0.065197,-0.093847
0.0032297,0.24511,0.95398,0.57831,0.20063,0.072295,-0.026366,0.0016522
0.72755,0.34385,-0.57327,-0.943,-0.11542,0.0081567,0.042775,0.057614
-0.061483,-0.39777,-0.019654,0.18842,0.21116,0.037102,0.031898,0.034953
-0.27826,0.12853,-0.34643,0.0017117,-0.086031,-0.067894,-0.15328,-0.050626
0.24836,-0.29741,0.023903,-0.09016,0.14023,0.036599,0.12781,0.058812
-0.31089,0.26835,0.31717,0.26439,-0.064699,0.0066767,0.024034,-0.042856
0.081774,-0.081464,-0.014298,-0.44918,-0.030488,-0.009187,-0.049777,-0.011776
-0.16859,0.058924,0.47403,0.94282,0.054109,0.059554,-0.014541,-0.035374
0.72634,-0.036897,-0.6873,-0.55743,-0.20998,-0.12263,0.005686,0.12077
-0.43665,0.15521,-0.0066672,-0.3384,0.068055,0.030731,0.0038272,-0.082371
-0.45373,-0.41838,-0.0078636,0.3518,-0.024869,-0.06576,-0.027557,-0.051058
0.32494,0.22008,0.02768,-0.03237,-0.088742,0.080544,0.052081,0.050633
-0.25505,-0.03782,0.3421,0.45511,0.19072,0.063647,0.023464,0.019536
0.47222,0.27721,0.08387,-0.98263,0.041672,0.031983,0.049796,0.058723
0.078471,-0.11613,-0.14533,0.27872,0.082359,0.00093023,0.0050747,-0.034987
-0.42791,-0.038836,-0.20458,0.56608,-0.085302,-0.16273,-0.18972,-0.12101
0.21828,0.039259,-0.069853,0.073137,-0.1257,0.04057,0.074232,0.058464
0.11734,-0.1097,0.087901,-0.31116,-0.00056971,0.024548,-2.969e-05,0.065966
-0.052931,-0.26036,-0.019208,-0.46329,0.062509,-1.5743e-05,0.033246,-0.043757
-0.14607,0.39105,0.20379,0.10792,0.047003,0.037236,-0.012584,0.010609
0.094061,-0.023203,-0.24215,0.12863,-0.00078733,-0.019721,-0.027057,0.010362
-0.38044,-0.12042,0.26841,0.65378,0.0049846,-0.022109,-0.048161,-0.04448
0.32865,0.1309,-0.18668,-0.050227,-0.18527,0.014822,0.12024,0.064821
0.05779,-0.16709,-0.10846,-1.0056,0.0073789,-0.025788,0.017633,-0.044582
-0.09039,0.048955,0.41548,0.34375,0.10734,0.051591,-0.051388,-0.028985
0.26824,0.092574,-0.29658,0.3431,0.099855,0.012652,0.068918,0.08032
-0.30252,0.15241,0.11275,-0.22508,-0.084894,-0.041124,-0.090994,-0.052625
-0.020329,-0.29382,-0.19406,0.28056,0.092122,-0.00056341,0.01489,0.0096865
0.09991,-0.10447,0.00087299,-0.50718,-0.088436,0.0012493,0.010858,0.0016745
-0.0040066,-0.013196,0.13515,0.73905,-0.033837,-0.028152,-0.056625,0.0093549
0.027136,0.33177,0.077029,-0.79471,0.059381,0.028191,-0.031357,-0.014044
-0.11974,-0.062178,0.13311,0.74912,0.049439,0.10764,0.13382,-0.013725
-0.086186,-0.14925,-0.58476,-0.30313,-0.072307,-0.11797,-0.076256,-0.0052292
0.57984,0.23304,0.23073,0.04718,-0.032764,-0.046984,-0.020441,0.050542
-0.46649,-0.0030036,0.042855,-0.57556,-0.11299,0.0082492,0.051638,-0.041762
0.024005,-0.12447,0.079777,0.19605,0.17202,0.055719,0.022932,0.022427
-0.22247,-0.046144,0.2171,0.19109,-0.083099,-0.006011,-0.020758,-0.014884
0.61464,-0.0021191,0.0012107,0.25478,-0.049378,0.073082,0.076452,0.072654
-0.50287,-0.15508,-0.26454,0.22477,0.20349,-0.074289,-0.099976,-0.090152
0.16071,0.075288,-0.058532,-0.52217,0.11326,0.036054,-0.027055,0.01219
-0.18989,-0.10539,0.31271,0.52361,-0.11707,0.013264,0.021477,-0.0031737
-0.053155,0.23473,-0.46475,-0.62826,-0.25348,-0.10378,-0.024776,-0.011198
0.61893,0.15156,0.077033,-0.28851,0.078635,0.020796,0.0061851,0.0038483
-0.45441,-0.019059,0.25818,0.48958,0.035221,0.012019,0.036502,0.049897
0.15624,-0.028542,-0.21012,-0.41838,0.045884,-0.0049851,0.0039818,-0.013586
-0.11259,-0.090306,0.43036,0.66666,0.0014004,0.055873,0.049506,-0.006877
-0.074888,-0.13704,-0.26538,0.16435,0.050551,0.038469,-0.022087,0.023142
0.072345,-0.07792,-0.40672,-0.22584,0.037563,-0.049311,-0.046691,-0.048555
0.077507,0.12377,0.4982,-0.094437,-0.16982,-0.012114,0.030349,0.0046004
0.0018549,0.091644,-0.0043655,-0.25857,0.030526,-0.013956,-0.10352,-0.0048186
-0.10842,-0.026198,0.022383,0.29372,0.10788,0.03902,0.12199,0.040538
0.12946,0.091283,-0.14086,-0.064402,-0.062348,-0.05612,-0.019657,0.0081054
0.020781,0.070683,-0.041136,0.089316,-0.08154,0.013389,-0.012778,-0.015884
-0.37088,-0.40612,-0.037448,-0.53167,0.073631,-0.017799,-0.0057196,-0.08583
0.088554,0.053923,-0.13671,-0.048387,-0.0035634,-0.032288,-0.060911,0.025028
0.283,0.16398,0.31853,0.30917,0.037583,0.1184,0.079479,0.051094
0.017751,0.07411,-0.23299,-0.064843,0.086524,0.012219,0.024763,0.054665
-0.25415,-0.13687,0.13142,0.66722,-0.053388,-0.03093,-0.0064564,-0.058459
0.39616,0.11659,0.099427,0.18441,-0.21939,-0.081924,-0.10814,0.00012669
-0.22014,0.14568,-0.040521,-0.72692,0.14217,0.046125,0.094491,-0.0047051
-0.026421,-0.0046718,-0.15691,-0.070739,0.093232,0.040195,0.0075025,0.051347
0.046449,-0.1411,0.17046,0.14901,0.040079,-0.01409,0.013638,0.011549
-0.13488,-0.24945,0.22129,0.015609,-0.12597,-0.05426,-0.027652,-0.1008
-0.29664,0.099488,-0.52104,-0.14324,-0.10678,-0.009744,-0.053632,-0.0041731
0.45292,0.015744,0.41218,0.24497,-0.017821,0.0027573,-0.024891,-0.018245
0.2249,0.1651,-0.46236,-0.51048,0.16618,0.0072767,-0.026984,0.045385
-0.72096,-0.16094,0.099555,0.32315,0.079725,0.0825,0.1357,0.00017863
0.9452,0.20434,0.12394,0.010196,-0.13532,-0.0368,0.02578,0.11258
-0.87695,-0.10389,-0.035108,0.017163,0.013831,-0.014527,-0.036537,-0.11688
0.14124,-0.076208,0.20241,0.01932,0.011398,-0.0070187,-0.020302,-0.0083794
0.26518,0.092608,-0.10801,-0.0062676,0.051894,0.047956,-0.0040317,0.086304
0.27526,-0.06684,0.18945,0.22694,0.0012164,-0.021817,0.0041174,0.018261
-0.17347,0.084269,0.11681,0.5264,0.0062806,0.00213,-0.027268,-0.072451
0.019381,0.043186,-0.38263,-0.84876,-0.15315,-0.03658,-0.0043463,-0.030082
-0.67041,-0.12312,-0.084304,-0.10051,0.052957,-0.04412,-0.036157,-0.026816
0.59293,-0.035329,-0.060088,-9.3495e-05,0.014394,0.0031926,0.018414,0.046646
-0.51831,-0.016961,0.095375,-0.035628,0.019826,0.035367,0.042668,-0.020519
0.43417,0.1561,-0.024448,0.14289,0.037973,0.021409,-0.0099507,-0.01718
0.2324,0.06063,0.47893,0.4421,-0.024697,0.062948,0.01683,0.064604
-0.32633,-0.04553,-0.45695,-0.66748,-0.081896,-0.051147,0.036741,0.01385
0.47659,-0.10622,0.050486,0.23063,0.14019,-0.0088205,-0.036791,0.049039
-0.38295,-0.0092574,0.1725,0.62333,0.0012821,0.048703,0.037616,-0.041221
-0.062223,-0.11021,-0.24022,-0.44032,-0.037357,-0.043253,-0.022078,-0.062154
-0.20298,-0.17051,0.67863,0.22111,-0.076968,-0.0039085,-0.036771,0.024828
-0.13444,0.24347,-0.71203,-0.9301,1.4834e-06,-0.13035,-0.17077,-0.10088
0.55652,0.21274,0.15053,0.64617,0.045547,0.14,0.20887,0.091951
0.11901,0.07467,-0.21685,-0.041433,0.036718,-0.020623,0.0010727,0.056658
-0.56494,-0.12412,-0.062141,-0.047031,-0.033799,0.0055147,-0.035657,-0.12039
0.66804,0.1459,0.63285,0.38741,-0.0093158,0.039321,0.052577,0.13167
-0.59655,-0.33668,-0.39493,-0.44144,-0.069204,-0.043656,-0.06164,-0.061562
0.64916,-0.027956,0.012748,0.082986,0.083547,0.014815,0.036302,0.08953
-0.70353,-0.11034,-0.088508,0.24101,0.11294,0.0040521,-0.051709,-0.12549
-0.17679,0.15627,0.035297,-0.53869,-0.090611,-0.05242,-0.028712,-0.010914
0.12954,0.20026,0.48407,0.64923,-0.066505,0.032851,0.10514,0.0038382
0.45164,-0.104,-0.27601,-0.48477,-0.026001,-0.0059068,-0.048915,0.020422
-0.060537,0.040261,-0.14628,0.06721,0.054093,0.034239,0.0086496,0.023096
0.82841,-0.015198,0.097295,0.6732,0.095551,0.028098,0.042966,0.097453
-1.0607,-0.051247,-0.078006,-0.81366,-0.065627,-0.032294,-0.008902,-0.030492
-0.3761,-0.21587,-0.18786,0.2807,-0.015181,-0.068894,-0.10819,-0.1583
0.38228,0.26486,0.39413,-0.20532,-0.080971,0.0042108,0.010613,0.041458
-0.18387,0.016517,-0.4936,-0.082013,0.010663,-0.0082988,0.019439,0.07596
0.54278,0.086648,-0.012213,-0.012095,0.048837,0.049776,0.059084,-0.00054351
0.42947,0.1324,0.46575,0.50431,0.080199,0.09234,0.036007,0.061759
-1.0475,-0.47006,-0.26159,-0.21439,-0.052068,-0.091833,-0.080871,-0.15892
0.43962,-0.10993,0.46159,0.40636,-0.012891,0.043735,0.067914,0.017473
0.10083,0.26903,-0.0074517,-0.26316,0.079513,-0.063881,-0.064505,0.060244
-0.79147,-0.058372,-0.46893,-0.07937,0.0054168,0.038099,-0.0016104,-0.0065007
0.9333,0.25244,0.096825,-0.015033,-0.12649,-0.033305,0.022164,-0.025862
-0.24978,-0.17349,0.08501,-0.55675,0.011751,0.026675,0.053657,0.11986
0.087407,0.11604,-0.11566,0.29546,-0.040391,-0.055066,-0.11025,-0.13935
-0.056572,-0.076002,-0.06776,0.067141,0.014954,0.018881,0.046124,0.0090386
0.20788,0.10757,0.058609,0.1057,0.069801,0.046025,-0.00061076,0.11171
-0.48673,-0.24951,-0.030152,0.16546,0.078805,0.011362,0.015205,-0.081737
-0.12419,0.13229,0.099705,0.23493,-0.066037,-0.0064929,-0.023652,-0.032716
0.422,-0.068194,-0.11032,-0.49516,-0.11378,-0.061945,0.031133,0.055153
-0.29129,0.07111,0.25695,0.086498,-0.017219,0.0091035,-0.031575,-0.029474
0.62128,0.027944,-0.23427,-0.21487,0.15295,0.065823,0.1005,0.07253
-0.68946,-0.32081,0.31446,0.25629,0.028522,0.0062629,-0.04157,-0.052953
0.30188,0.26136,-0.028021,0.068623,0.022035,-0.037261,-0.098439,-0.093274
-0.0050354,-0.067404,-0.13146,0.22778,-0.032257,-0.018375,0.062872,0.084692
0.24966,0.23315,-0.23322,-0.33878,-0.096802,0.015625,-0.041626,-0.010826
-0.25456,0.0069987,-0.047028,0.085846,0.053954,-0.052719,-0.028564,0.073728
-0.11224,-0.066909,0.096813,-0.2261,-0.049032,0.049927,0.1183,-0.028462
-0.090211,-0.14635,0.36887,-0.009463,-0.16313,0.011113,-0.045786,-0.043709
-0.010354,0.016764,-0.30163,-0.053266,0.064243,-0.0049438,0.0029471,-0.042231
0.13322,-0.06388,-0.15664,0.0098615,0.18124,0.017582,-0.047953,0.061834
0.25231,0.157,0.30451,0.50797,0.056237,-0.030493,0.05122,-0.0051828
-0.069664,-0.22794,-0.15159,-0.1767,-0.044326,-0.031838,-0.0048227,-0.0092777
0.0084861,0.11677,0.22611,0.5174,0.0048455,0.044874,0.033104,0.049087
-0.20292,0.23801,0.079378,-0.7623,-0.12457,0.027779,-0.015581,-0.057145
0.1854,-0.11373,-0.239,0.015022,0.082557,-0.012841,-0.042313,0.030954
0.0092375,-0.047035,-0.35269,-0.11093,-0.13218,-0.030151,0.022634,0.03962
-0.44888,-0.11558,0.20842,0.15867,0.14485,-0.016348,-0.063188,-0.14067
0.055828,-0.11507,-0.062276,-0.0011841,-0.0083422,0.02863,0.051878,0.037033
0.21433,0.26818,0.46887,-0.0086131,-0.083644,-0.012264,-0.053634,0.041728
0.54603,0.18376,-0.19016,0.05409,0.15397,0.095562,0.17559,0.14726
-0.64887,-0.2424,-0.086789,0.025621,-0.20865,-0.16327,-0.17379,-0.16149
0.10076,-0.11897,0.098047,0.17289,0.087226,0.070859,0.078598,-0.0090478
-0.21193,-0.13305,-0.11387,0.096975,-0.090477,-0.053476,-0.05887,-0.074658
0.30316,0.41854,0.11164,-0.39175,0.078822,0.065286,0.04697,0.07165
0.23014,-0.11293,-0.31289,0.16425,0.12602,0.036328,-0.009999,0.11748
0.16795,-0.040554,0.11151,-0.16878,-0.04362,0.0077112,0.043579,-0.015415
-0.6362,0.041127,0.1265,-0.090231,-0.1035,-0.052303,-0.050343,-0.061671
0.29988,-0.14218,0.060214,0.34172,0.18685,0.019857,0.012606,0.0017873
-0.353,0.041607,0.014624,-0.039415,-0.010026,0.012895,0.0055537,-0.044118
0.21804,0.12326,-0.064316,0.24967,-0.085697,-0.049873,-0.040486,0.02697
-0.11823,-0.10048,-0.15242,-0.32962,-0.14959,-0.035463,0.0071762,-0.019362
-0.10167,0.034726,0.063547,-0.11915,-0.10705,0.0096813,0.0079013,-0.011116
0.24657,-0.025267,-0.025165,-0.33473,0.11387,0.031463,0.024254,-0.0027651
0.20152,-0.068785,0.30063,0.31608,-0.016114,0.030478,-0.0061743,0.10748
0.42764,0.061139,-0.14634,-0.10899,0.18443,0.014983,0.041684,0.046315
-0.91189,0.0525,-0.14731,0.59515,0.19311,-0.014842,-0.089972,-0.18622
0.27478,-0.094616,0.00069649,-0.11012,-0.26342,-0.020062,0.028485,0.026953
0.094574,0.033436,-0.11659,0.0007193,0.0092574,0.014544,0.061003,0.037188
-0.18153,0.13105,0.30528,-0.11347,0.11111,0.025898,-0.047249,0.039523
-0.047735,0.0016182,0.25048,-0.0018793,-0.1941,-0.056929,-0.0073421,0.018048
0.17434,-0.11407,-0.51547,-0.47872,-0.040862,0.007736,0.008766,-0.066542
-0.22676,0.071808,0.093392,0.21327,0.22603,0.00084029,-0.014553,-0.034715
0.3976,-0.19156,-0.094648,-0.057924,-0.07335,0.016104,0.032166,0.066626
0.30604,0.017499,-0.016849,-0.001483,-0.063349,0.038142,0.031907,0.065719
-0.8205,0.074414,0.25671,0.42376,-0.094211,-0.081032,-0.093235,-0.0997
0.30861,0.10514,0.31989,-0.28832,-0.1174,-0.059616,-0.046166,-0.038687
-0.094004,-0.021861,-0.59296,0.13632,0.32961,0.11854,0.11858,0.014714
-0.12832,-0.10987,0.21333,-0.037357,-0.025484,0.0084987,-0.013032,0.029518
0.30838,0.14709,-0.050466,0.2513,0.12241,0.024469,0.027636,0.05272
0.029135,-0.17954,-0.095397,-0.21895,-0.023899,-0.028966,-0.025291,-0.017303
0.0024651,0.16104,0.25822,0.018211,-0.21532,-0.011492,0.01536,0.053598
0.11031,0.044365,-0.38018,-0.3201,-0.085832,-0.032899,-0.061665,-0.055205
-0.21111,-0.029319,0.40351,0.2189,0.066582,0.00014481,0.040289,-0.054957
-0.32241,-0.27881,-0.27354,-0.38714,0.014559,-0.022066,-0.092918,-0.01616
0.68956,0.045494,0.11191,0.52816,0.078051,0.033087,0.077852,0.068984
-0.53488,0.099067,0.29394,-0.21973,0.02277,0.0093067,-0.0018937,-0.057172
-0.096979,0.068138,-0.21218,0.27844,0.044499,0.023856,0.035277,0.027537
0.29307,0.068156,-0.41452,-0.068642,0.050237,0.045656,0.025541,0.042179
