0.053504,0.050815,0.022241,0.011737,0.037422,0.13752,-0.025074,0.016473
-0.19215,-0.03637,-0.12582,-0.045734,0.044713,0.41258,0.3192,-0.011787
0.009285,-0.11357,-0.059433,0.029312,-0.040867,-0.41243,-0.21727,-0.023856
0.048968,-0.1016,-0.050511,-0.027425,-0.022965,0.014901,-0.0088598,0.0043212
0.099005,0.60146,0.37824,-0.034929,-0.017972,-0.086212,-0.031932,0.049735
-0.098577,-0.30947,-0.28908,-0.0077246,0.029206,0.10455,0.025746,-0.012468
0.025931,-0.046349,0.23529,0.093909,0.055998,0.14139,0.069788,0.012863
-0.083165,-0.32146,-0.40233,-0.019019,-0.016269,-0.078101,-0.041294,-0.030949
0.15099,0.43424,0.53772,0.10606,0.022413,-0.00036279,0.082205,0.043004
0.070836,0.055894,-0.22818,-0.196,-0.086904,-0.14998,-0.16988,-0.039322
0.06595,-0.12837,0.063946,0.16714,0.099984,0.19081,0.10818,0.065344
-0.38763,-0.047309,-0.11761,-0.032557,-0.042787,-0.095769,-0.091583,-0.13542
0.061848,-0.41005,-0.32664,-0.14007,-0.070357,-0.0020564,0.059123,0.04596
0.18095,0.34043,0.079609,0.10161,0.048558,0.019174,0.0060395,0.062922
-0.16163,-0.051319,0.15087,-0.15937,-0.060573,-0.093842,-0.070626,-0.099682
0.05926,0.41645,0.21034,0.092845,0.017061,0.081725,0.063938,0.027358
0.024851,-0.39625,-0.12263,0.11662,0.071321,0.031201,0.081821,0.053695
0.017325,0.11913,0.19974,0.029851,-0.037804,-0.057167,-0.103,-0.028517
0.03677,-0.024084,-0.080956,-0.096471,0.010245,0.13733,0.10285,0.092831
0.043328,-0.094983,-0.35725,-0.14467,0.066832,-0.057202,-0.082444,-0.036081
0.09802,0.45701,0.53213,0.22142,0.014184,-0.070816,0.020231,-0.009842
-0.19935,-0.64561,-0.51743,-0.17006,-0.12506,-0.060373,-0.089578,-0.11048
0.11059,0.3829,0.43675,0.28228,0.12488,0.15313,0.10358,0.099016
-0.1293,-0.092259,-0.16174,-0.13269,-0.048996,-0.024666,-0.032963,-0.0064241
-0.036236,-0.032303,-0.44623,-0.14947,-0.05298,-0.023837,0.0012843,-0.020118
-0.13274,-0.084199,0.46675,0.14608,-0.12881,-0.15701,-0.042976,-0.058391
0.10613,0.083145,-0.13215,-0.11297,0.03689,0.11501,0.022548,-0.010739
0.033599,-0.088845,-0.18627,-0.29341,0.10143,0.066034,0.034511,0.053689
0.31501,-0.017872,0.47821,0.51137,0.20643,0.048069,0.024657,0.088958
-0.25228,-0.059633,-0.34043,-0.17505,-0.2021,-0.15716,-0.053717,-0.10754
0.16723,0.68688,0.6164,0.12372,0.063616,0.075723,0.049214,0.12825
-0.11525,-0.51937,-0.40117,0.21193,-0.0044256,0.020398,-0.018592,-0.040116
-0.17182,-0.32714,-0.48716,-0.38755,-0.17237,-0.096503,-0.054681,-0.11352
0.19889,0.8481,0.45181,0.082605,0.22313,0.17023,0.088663,0.10232
-0.074773,-0.40192,-0.3658,-0.39342,-0.24836,-0.25779,-0.073557,-0.065424
0.12386,0.069198,0.427,0.44234,0.17028,0.1894,0.06764,0.070081
-0.29856,-0.74801,-0.30284,-0.1676,0.0097972,0.050459,-0.073766,-0.11645
0.042021,0.22349,0.13174,0.1131,-0.011395,-0.034339,0.04153,0.054789
0.030219,0.13149,0.15186,0.12833,0.059722,-0.041781,-0.070332,-0.040735
0.26952,0.69414,0.10802,-0.09083,-0.16737,-0.096883,0.067888,0.097624
-0.19941,-0.097197,0.13193,0.19735,0.12016,0.058382,-0.011875,-0.029462
0.13225,-0.52508,-0.59757,-0.4921,-0.092857,0.010363,-0.0043972,0.023857
-0.024367,0.16663,0.091124,0.22318,0.069169,0.048631,0.020265,-0.023363
-0.0057162,-0.078432,0.081371,0.1556,0.044309,-0.0060265,0.02296,0.0086077
-0.12534,0.043073,-0.34434,-0.29597,-0.13572,-0.075175,-0.04361,-0.067933
0.0061317,-0.17253,0.73754,0.28343,0.16218,0.059985,0.0073789,0.043512
-0.0031585,0.22057,-0.47599,-0.23777,-0.10887,-0.0070485,0.057954,0.014354
0.080212,0.099054,0.3367,0.071462,-0.011626,0.020083,-0.064487,-0.015246
0.068159,0.13761,0.12946,0.087213,0.10182,0.093817,0.045793,0.087152
-0.1567,-0.3319,-0.28512,-0.12746,-0.10519,-0.185,-0.11921,-0.11618
0.022952,-0.078595,-0.30586,0.27101,0.085304,0.065872,0.065675,-0.00025965
-0.033153,-0.14506,0.33995,-0.21058,-0.030566,-0.036719,0.0071682,-0.010248
0.11294,0.35511,-0.36425,-0.11302,-0.023657,0.01505,-0.0049982,0.049492
0.04761,-0.22444,0.18202,0.16307,0.051116,0.041825,0.014257,0.030939
0.02126,0.43661,0.52434,0.34976,0.076726,0.067646,0.042091,0.02828
-0.21578,-0.76577,-0.57311,-0.3518,-0.24315,-0.14892,-0.046117,-0.12216
0.10244,0.37457,0.19281,-0.34916,-0.056119,-0.021141,-0.031508,0.025242
0.12468,0.98405,0.20355,0.076063,0.17788,0.14695,0.12484,0.080022
-0.16435,-0.45987,-0.20586,0.43235,0.053491,-0.058252,-0.092995,-0.028099
-0.069054,-0.34592,0.0035808,-0.10681,0.1339,0.066518,0.0098991,-0.025803
0.098167,-0.30274,-0.089075,0.17964,-0.11183,-0.088285,-0.0434,-0.0071068
-0.10041,-0.25257,-0.20064,-0.16648,-0.089942,-0.0074957,-0.010979,-0.027104
0.10016,-0.098678,-0.031558,-0.57197,-0.15228,-0.027722,0.052315,0.0074301
0.31594,0.85994,0.62424,0.41109,0.20854,0.10807,0.021417,0.12714
-0.35299,-0.36188,-0.35559,0.011305,-0.086063,-0.13215,-0.08806,-0.14518
0.013711,0.078575,0.17147,0.44852,0.14312,0.1416,0.098882,0.072739
0.11798,0.03799,-0.10625,-0.25384,-0.096498,0.093024,0.0041059,0.014891
0.076548,0.34706,-0.17341,-0.28438,-0.024015,-0.21541,0.026044,0.048403
-0.16472,-0.15059,-0.093765,-0.14509,-0.0068319,0.013611,-0.054018,-0.10763
-0.1276,-0.019849,0.56832,0.51302,0.17374,-0.0003434,-0.10315,-0.030563
-0.098537,-0.35029,-0.12672,0.0075712,-0.091553,-0.029577,-0.003945,-0.023933
0.06621,-0.26295,-0.57134,-0.27326,-0.24772,0.036508,0.12671,-0.016075
0.37747,0.58281,0.64733,-0.011013,0.25255,0.2068,0.086036,0.23653
-0.092146,-0.11173,-0.15864,0.066707,-0.066804,-0.21334,-0.14131,-0.13226
0.0021798,-0.14398,-0.68422,-0.36846,0.013363,0.026221,0.015206,-0.004698
-0.25402,-0.12289,0.50107,0.47302,0.0010636,-0.059366,-0.10843,-0.076178
0.0827,-0.25084,-0.13325,-0.0095486,-0.064743,0.060118,0.12833,0.051008
0.16556,0.6835,0.49898,0.0051614,0.13583,0.21139,0.10028,0.094315
-0.040426,-0.093836,-0.23576,-0.14599,0.039584,-0.14613,-0.091345,-0.010426
-0.11726,0.32963,0.012386,0.076786,-0.057412,-0.037211,-0.017166,-0.061869
-0.076137,-0.40787,-0.12619,0.056795,-0.2106,-0.11897,-0.060251,-0.069413
0.31491,0.073952,0.15063,-0.22906,0.15764,0.092764,0.060529,0.11426
-0.11696,-0.24236,0.13772,0.10228,0.062804,0.059419,0.063962,-0.0034644
-0.20709,-0.31036,-0.57971,-0.18337,-0.14324,-0.14764,-0.19823,-0.10195
0.085774,0.26971,0.14777,0.42195,0.22768,0.0901,0.13353,0.038628
-0.078703,0.094673,0.21359,0.059014,-0.30002,-0.069809,-0.049999,-0.072311
0.17865,0.55164,0.020567,-0.38144,0.10283,0.11573,0.18863,0.11399
0.01051,-0.50297,0.15212,0.085109,0.17937,0.022044,-0.2368,0.0056054
-0.071667,0.044803,-0.15981,-0.02559,-0.14007,0.023786,0.11073,0.0024057
-0.042024,-0.24683,-0.55914,-0.29937,-0.034979,0.16697,0.14465,-0.011989
0.0064642,-0.094863,0.4412,0.61528,0.0021302,-0.40891,-0.24501,-0.045349
0.018048,-0.10916,-0.088325,-0.25841,0.025088,0.091979,-0.0040077,0.018782
-0.0022557,0.7542,0.40425,0.23533,0.10294,0.02051,0.14099,-0.0084801
0.09767,0.052602,-0.12564,-0.26342,-0.086085,0.040624,-0.020688,0.02729
0.10208,-0.19704,0.13488,-0.091121,0.04254,0.074656,-0.019618,0.030374
0.2485,0.52201,0.29482,0.22072,0.13624,0.045412,0.067042,0.12399
-0.49013,-0.72534,-0.36406,-0.077759,-0.18817,-0.17092,-0.18929,-0.16973
-0.30324,-0.74674,-0.62804,-0.025085,-0.086531,-0.096628,-0.029788,-0.10917
0.067099,0.15325,-0.27235,-0.4564,-0.17485,-0.03556,-0.047556,-0.045659
0.24014,0.51675,0.32959,0.41035,0.21262,0.34849,0.38249,0.11553
0.1647,-0.033971,0.70563,0.37258,0.14803,0.00039136,-0.12302,0.086848
0.23561,0.50689,-0.083404,-0.13213,0.015748,-0.12779,0.028502,0.11223
-0.43361,-0.10537,-0.06223,-0.06516,-0.019198,0.28276,0.21063,-0.087869
0.090121,0.15655,-0.068745,-0.26326,-0.050373,-0.52731,-0.45296,-0.10578
-0.034723,-0.61926,-0.21574,-0.10242,-0.07832,0.10483,-0.08031,-0.049923
0.059911,-0.041699,0.030644,0.21336,0.0052535,-0.094877,0.086281,0.041076
-0.087413,0.16194,0.13992,0.16781,0.073999,0.10806,0.039659,0.0029917
0.06071,-0.048974,-0.13095,-0.15346,-0.09997,0.28476,0.14825,0.061665
0.064305,0.10479,-0.15122,0.0073564,0.2401,0.44437,0.34326,0.083099
0.18618,0.10537,0.74029,0.24425,-0.19548,-0.82549,-0.42075,0.026765
-0.25601,-0.15112,-0.76426,-0.6767,-0.21157,-0.11679,-0.23643,-0.16351
-0.061147,0.12216,0.22283,0.40909,0.2702,0.032929,0.20921,0.018885
0.066647,0.18882,0.25397,0.27559,-0.054341,-0.031633,-0.052776,-0.028316
-0.099084,-0.64028,-0.40652,-0.27984,-0.0048932,0.4864,0.22669,0.022977
0.0052578,0.37597,0.05363,0.18069,0.1066,0.26565,-0.10235,-0.021935
0.0064115,-0.09879,0.15078,-0.20184,-0.12568,-0.32872,0.036383,0.0099446
0.20316,0.36548,-0.23082,-0.20826,0.17363,0.27905,0.33646,0.065317
-0.051292,-0.050403,0.17624,0.36504,0.090874,-0.36625,-0.39856,-0.010692
0.056553,-0.18045,0.44402,0.11238,-0.28746,-0.48436,-0.23129,0.017403
-0.019924,-0.1471,-0.32448,-0.1922,-0.085595,0.44864,0.19871,-0.0059833
-0.14055,-0.22862,-0.15174,-0.17321,-0.13076,-0.50288,-0.22366,-0.072908
-0.048481,0.24197,-0.18578,-0.13516,0.195,0.71848,0.17609,0.0037324
-0.0027478,-0.053279,-0.0048589,0.1951,0.15755,-0.087723,0.24409,0.051228
0.18293,0.30877,0.39032,0.33222,0.021979,-0.27134,-0.29942,0.005953
0.0075317,0.11704,0.053168,-0.13952,-0.049166,0.058361,0.14712,0.038554
-0.099896,0.12783,-0.18992,-0.058188,0.043363,0.20432,0.058643,-0.047406
-0.030165,-0.58326,-0.067523,0.042672,0.10936,0.55393,0.36971,-0.018375
-0.0017194,-0.026974,0.0043079,-0.10445,-0.18957,-0.77957,-0.33733,0.00025934
0.1737,0.51271,0.4068,0.10882,0.012148,0.21591,-0.30009,0.024233
-0.25282,-0.59124,-0.71246,-0.33289,-0.16072,-0.12572,0.40129,-0.10995
0.14963,0.13662,0.60763,0.34544,0.035285,-0.14802,-0.26451,0.098564
-0.078763,0.024094,-0.16297,-0.22852,-0.037875,0.026625,-0.053254,-0.028942
-0.030955,0.016663,-0.54557,-0.14523,-0.0018581,-0.12067,-0.21897,-0.015097
0.07457,0.28651,0.33759,0.27041,0.18575,0.25148,0.1102,0.070264
0.073397,0.17755,0.42685,0.1459,0.035356,-0.17231,0.21201,0.047493
0.19116,0.05693,-0.18939,0.013746,0.063905,0.20487,0.097123,0.0021429
-0.31568,-0.6536,-0.071989,-0.016829,-0.064744,-0.10089,0.00043532,-0.097713
-0.050141,-0.28218,0.037403,-0.18951,-0.086526,0.47042,0.27146,-0.018462
0.05678,0.35895,-0.45561,-0.07705,0.16798,0.37487,-0.13305,-0.010736
0.051067,0.21573,0.35343,0.11455,-0.21799,-0.68263,0.015983,0.089204
-0.04417,0.15624,-0.022535,-0.047156,-0.0045909,-0.16084,-0.30999,-0.062319
0.24009,0.39255,0.44448,0.21688,0.087957,-0.23544,-0.1381,0.066403
-0.25158,-0.73803,-0.29574,-0.19624,-0.2298,-0.27464,-0.24322,-0.14108
-0.08827,-0.16352,-0.26945,-0.02901,0.17559,0.59059,0.42254,0.03485
0.208,0.25081,0.26377,0.10201,0.071137,0.06745,0.12014,0.094952
-0.064506,-0.071102,0.14739,-0.1065,-0.018056,-0.10461,-0.083549,-0.0071462
0.079713,0.29449,-0.37507,0.058166,0.034551,0.047893,0.027029,0.056792
-0.19465,-0.3387,-0.41033,-0.18355,-0.066889,0.23126,0.065149,-0.11198
0.010849,-0.040802,0.20126,0.14615,-0.0017503,-0.1942,0.0098781,-0.021966
0.15649,0.39016,0.47081,0.22744,0.057666,0.082614,-0.20832,0.075942
0.076964,0.33451,0.38515,0.0052666,-0.014678,-0.20729,0.1284,0.0010992
-0.057436,-0.59409,-0.35938,-0.20892,-0.048311,0.056606,-0.052583,-0.036377
-0.053016,-0.14191,-0.12259,0.060074,0.0021894,0.10415,0.28469,0.017673
-0.01261,0.062122,-0.20295,-0.11865,0.026251,0.041137,-0.32409,-0.032187
0.047555,0.44448,0.27246,0.184,0.054441,-0.063934,-0.053744,0.064354
-0.23165,-0.46559,-0.04984,-0.15665,-0.132,-0.28875,-0.062664,-0.11387
0.12742,0.21419,-0.1866,-0.037735,0.053557,0.13503,0.25754,0.06695
0.063937,0.10977,0.026198,-0.004013,-0.036038,-0.053691,0.12585,0.0063419
-0.068643,-0.3938,-0.16822,-0.029555,0.05401,0.34592,-0.13609,0.0021881
0.0047754,0.26139,0.60702,0.28642,-0.0026675,-0.29344,-0.22924,-0.0072827
0.19147,0.14152,-0.13022,-0.2107,0.014203,0.063896,0.02089,0.032928
-0.14902,-0.28884,-0.43251,0.065565,-0.089675,-0.095246,0.085703,-0.064849
0.029389,0.090621,0.17816,0.075405,0.10789,0.18226,0.13146,0.050312
0.076743,0.18831,0.022503,-0.11284,0.0048724,0.17513,0.011086,0.002417
-0.11829,-0.28383,-0.048795,0.076076,-0.017046,-0.0041078,0.053046,0.04028
0.043867,0.22088,0.13391,-0.0017633,0.017058,-0.17394,-0.18089,-0.040394
-0.024295,0.076191,0.15319,-0.021382,0.019415,-0.23904,-0.028285,-0.037425
-0.10491,-0.28238,-0.32315,-0.086827,-0.15231,-0.072036,0.0087059,-0.029494
0.098858,0.37724,0.31796,0.027028,0.078721,0.55776,0.11526,0.053634
-0.037174,-0.46276,-0.098761,-0.078467,0.039967,-0.10107,0.14868,-0.014203
0.066602,0.070929,-0.16123,0.050777,-0.11227,-0.53183,-0.28311,-0.044719
0.044893,0.25075,0.013276,0.057279,0.15398,0.28436,0.061428,0.10374
-0.07686,-0.10319,-0.21389,0.068498,-0.04284,0.00083077,-0.036131,-0.05212
0.046911,0.064293,0.17668,-0.0066866,-0.037073,-0.0096439,-0.0043265,0.051208
-0.10585,-0.17546,-0.0052981,-0.025208,-0.038014,0.047347,-0.021108,-0.069874
-0.02655,-0.0086583,0.55813,-0.0085163,-0.0051389,0.16819,0.18892,0.053873
0.1911,0.25347,-0.82332,-0.40838,0.02353,-0.23064,-0.20059,-0.069575
-0.078593,-0.0052615,0.44018,0.6196,0.17346,0.17147,0.20224,0.028371
0.0068034,-0.20619,-0.11787,-0.10432,-0.09459,-0.025584,-0.03173,0.0035098
0.015813,-0.036922,0.12004,-0.010543,-0.039195,-0.059401,-0.1293,0.011391
-0.053549,0.017386,0.14461,-0.23307,-0.091262,0.058109,0.072703,0.012079
-0.054748,0.041227,-0.43003,-0.21877,0.036795,-0.13036,-0.075511,-0.026633
0.14348,0.27482,0.10292,0.29623,0.070023,0.20757,0.16673,0.050574
-0.061445,-0.20596,0.066939,0.16166,0.014877,-0.2039,-0.037918,-0.046145
-0.1308,-0.06732,0.11366,0.032046,-0.035914,-0.23288,-0.26867,-0.028257
0.099794,0.27507,-0.11251,-0.13316,0.034287,0.168,0.098855,0.041547
0.18593,-0.14825,0.29952,0.063519,-0.024501,0.14097,0.17396,0.046258
-0.23042,-0.50081,-0.48777,-0.15159,0.0070736,0.32901,0.097679,-0.076088
0.031989,0.53941,0.2365,0.073724,-0.057363,-0.35904,-0.21509,-0.035612
-0.033068,-0.28263,0.083194,-0.16529,-0.099131,-0.1785,-0.10697,0.020226
0.021073,0.15357,-0.31213,-0.22592,0.086521,0.37281,0.29834,0.045541
0.054739,0.19514,-0.0084408,0.52699,0.14171,-0.17219,-0.18534,0.0099355
0.052746,-0.25662,0.076083,-0.045135,-0.018382,-0.070166,-0.017793,0.023381
0.11657,0.19867,0.53068,0.16853,0.044312,0.062217,0.0049365,0.039283
-0.30116,-0.17257,-0.13441,-0.18297,-0.19367,-0.18144,-0.03086,-0.15333
0.12689,0.10584,-0.33197,-0.34208,0.0092547,0.33859,0.22616,0.070219
-0.1079,-0.28008,-0.18686,0.065222,-0.043262,-0.35592,-0.20916,-0.071827
0.23589,0.51894,0.39382,0.34997,0.18649,0.17013,0.16973,0.13863
-0.22509,-0.49213,-0.40401,-0.20832,-0.037338,0.24192,0.0019748,-0.088207
0.086907,0.14463,0.2692,0.091735,0.080725,-0.034365,-0.18266,0.051636
0.038871,0.30136,0.43473,0.068876,-0.10107,-0.20853,0.052127,0.010607
-0.18184,-0.44618,-0.52654,-0.27805,-0.13026,-0.064053,-0.083455,-0.10247
0.19803,0.19726,0.040233,0.20663,0.11808,0.16366,0.090065,0.087031
-0.017081,0.090393,0.048492,0.054252,-0.0039608,-0.22032,-0.059882,-0.022619
0.024034,-0.11018,0.037611,-0.10944,-0.042228,0.035791,0.076633,-0.017288
-0.0071142,0.15939,-0.11623,-0.21285,-0.026655,0.13025,0.21124,0.017371
-0.032659,-0.31744,-0.059688,0.27688,0.11442,0.035432,-0.26472,0.04276
-0.068234,0.079225,0.20142,-0.091742,-0.016322,0.051986,0.15718,-0.065529
0.066179,0.18036,0.012538,0.12795,-0.019761,-0.12925,-0.21784,0.021274
-0.11311,-0.26151,-0.38319,-0.22726,-0.067628,-0.083974,-0.014343,-0.086832
-0.058281,0.067892,0.41262,0.19439,0.058448,0.017177,0.080481,0.1263
0.30982,0.55211,0.070719,0.079998,0.10769,0.049079,0.07463,0.012594
-0.10162,-0.41082,0.18288,0.069354,-0.053697,0.19003,0.085344,-0.029338
-0.073252,-0.21294,-0.4329,-0.39325,0.0030542,0.28922,0.065706,-0.022952
0.043604,0.15147,-0.083397,0.027203,-0.21491,-0.81247,-0.31246,-0.04654
-0.024699,0.062803,0.1207,0.19723,0.073393,0.51493,0.10715,0.063687
-0.099064,0.096883,0.148,-0.0084658,0.094675,-0.22302,0.051311,-0.012907
0.077448,-0.25593,-0.27392,-0.019603,0.013468,0.097319,-0.096787,-0.026659
0.18351,0.21418,0.17724,-0.078248,0.0022655,-0.1259,0.030477,0.045545
-0.18815,-0.26654,-0.2227,-0.012437,-0.071153,-0.03268,-0.019705,-0.046584
0.0085324,0.22428,0.3644,0.13086,0.043632,0.18295,0.065171,0.048274
-0.00038606,-0.093516,-0.28666,-0.00024584,0.034295,-0.0087228,-0.020024,-0.021623
0.019401,0.25816,0.1524,0.031191,0.072655,0.17496,0.13005,-0.0063739
0.021405,-0.36746,0.30539,-0.017619,-0.12275,-0.28837,-0.11869,0.00026988
-0.040463,0.062463,-0.51749,-0.20181,-0.028726,0.25811,0.32615,0.029665
-0.024527,0.22893,0.43868,0.27542,0.026406,-0.33395,-0.46625,-0.019536
-0.023407,-0.12493,-0.18039,-0.20267,-0.027728,0.067965,-0.0043193,-0.061087
0.1514,0.040453,-0.056233,0.0055631,0.058926,0.11166,0.079167,0.092875
-0.13225,-0.19668,-0.20486,-0.00468,-0.026015,0.038486,0.0036346,-0.065093
0.055584,0.28849,0.12508,0.026053,-0.016831,-0.1682,0.02799,0.012195
0.081849,-0.090385,0.13966,0.091452,0.070851,0.14682,0.067491,0.035873
-0.14005,-0.1385,-0.18052,-0.080879,-0.0052965,0.11535,0.045006,-0.04089
0.099898,0.0029707,-0.018627,-0.053114,-0.058032,-0.34143,-0.085761,0.039607
-0.035272,0.15372,0.050987,0.18988,0.068578,0.29181,0.065937,0.019302
-0.054298,-0.21818,0.24947,0.045309,0.030507,0.27323,0.21081,-0.00056703
-0.0047316,0.23806,0.0070096,-0.12922,-0.16458,-0.63049,-0.40149,-0.075025
-0.019726,-0.095649,-0.24828,-0.17158,-0.0010149,0.058928,-0.03688,-0.040297
0.1273,0.12351,0.034912,0.096143,0.068292,0.14835,0.16399,0.095603
-0.024249,-0.16781,0.062917,0.11019,0.074941,-0.024051,-0.025201,-0.003375
-0.012838,0.19385,0.25262,0.049677,0.0036954,0.090424,0.020928,0.0064802
-0.056454,-0.29944,-0.1739,-0.20242,-0.059172,0.17245,0.068387,-0.038889
0.0176,0.16529,-0.3761,-0.074961,-0.066565,-0.29373,-0.10919,0.0011701
-0.00083757,0.018782,0.097781,0.16773,0.036276,-0.059388,-0.011892,0.040755
-0.05647,0.036043,0.19365,0.15216,0.14771,0.73267,0.46924,0.040847
0.10103,-0.14832,0.10137,-0.15936,-0.11527,-0.59992,-0.55702,-0.11568
-0.0049177,-0.14981,-0.21458,0.023311,0.012672,-0.15355,0.064879,0.024352
-0.030969,0.30622,0.046697,-0.13519,-0.15628,-0.1491,-0.064089,-0.023349
0.037783,0.0014343,-0.11108,0.052666,0.12755,0.42776,0.29006,0.061584
-0.049582,-0.12727,0.15077,0.18794,0.11388,0.084509,-0.14626,0.0057385
0.088803,0.3248,0.32582,0.027588,-0.049103,-0.23296,0.0098293,0.03567
-0.024414,-0.13685,-0.062658,-0.12476,-0.064687,-0.03121,-0.014869,-0.0048888
-0.18659,-0.46018,-0.46923,-0.1998,-0.057937,0.082094,-0.0090858,-0.10811
0.11782,0.22729,-0.013453,0.16111,0.11185,0.15569,0.09005,0.054208
0.014103,0.12678,0.41917,0.027938,-0.078567,-0.18366,-0.099921,-0.0099366
-0.012738,0.034239,-0.2911,-0.10706,0.058667,-0.03603,0.054116,-0.026858
0.1162,0.35619,0.26007,0.22531,0.023977,-0.072314,-0.14292,0.06622
-0.051388,-0.4136,-0.1784,-0.02898,-0.018113,0.1376,0.15285,0.003898
-0.13982,-0.32708,-0.044087,-0.15824,-0.082796,0.1951,0.074332,-0.041842
0.038861,0.14274,-0.078352,-0.24773,-0.036931,-0.08024,0.012159,-0.016374
0.062957,-0.062892,0.017194,0.29674,0.096197,-0.2989,-0.3071,0.033181
0.088547,0.46549,0.34599,0.24872,0.1134,0.24874,0.14781,0.059547
-0.14265,-0.28583,-0.19947,-0.13418,-0.10281,-0.079213,0.15036,-0.070586
0.071783,0.066111,-0.078528,-0.079048,0.0095938,-0.0025893,-0.15887,0.0094642
-0.018951,0.18361,0.13175,-0.1646,-0.073412,-0.1159,-0.0065469,-0.044472
-0.056232,0.032117,-0.20877,0.038296,-0.00082998,0.072655,-0.056995,0.03298
0.13908,-0.15816,0.29829,0.16214,0.11752,0.32867,0.35341,0.077727
-0.073853,0.030606,-0.20701,-0.066533,-0.054558,-0.33971,-0.31494,-0.074085
-0.062055,-0.31872,-0.08488,0.024391,-0.032695,0.11511,0.070181,-0.047035
-0.028103,0.12838,0.22614,-0.064642,-0.0041707,-0.040193,0.063011,0.034453
0.1304,0.14584,-0.0093408,0.02628,0.06269,0.18792,0.1712,0.085078
-0.1481,-0.33454,-0.31568,-0.022648,-0.065935,-0.41779,-0.44096,-0.14457
0.10606,0.24516,0.22834,0.046779,-0.014446,-0.05124,0.039649,0.080348
0.065391,0.075884,0.17703,0.016035,0.084889,0.29637,0.13732,0.041296
-0.12919,0.035572,-0.29774,0.057048,-0.025332,-0.07006,-0.037702,-0.066436
0.12375,0.18069,0.35908,0.12288,0.069172,0.26278,0.15585,0.07719
-0.04346,-0.12904,-0.10182,-0.2866,-0.12379,-0.0037019,0.061906,-0.020466
-0.076907,-0.31649,-0.65606,-0.31218,-0.073215,-0.067264,0.016071,-0.078707
0.053781,0.14759,0.39264,0.37406,0.07983,-0.37588,-0.30269,0.011289
-0.097575,-0.012795,0.24815,0.11551,0.045646,0.16187,0.073466,-0.0087726
0.13235,0.16861,-0.058,0.013169,0.081292,0.18513,0.096879,0.087314
-0.030379,0.010111,0.12225,0.042824,0.0063153,-0.025209,0.095212,-0.0053511
0.054609,0.11993,-0.11048,-0.16359,-0.13304,-0.31983,-0.26746,-0.052459
-0.081367,-0.63483,-0.14037,0.0025289,0.0066184,0.2094,0.12654,0.00075641
-0.01607,0.27018,-0.054758,-0.060828,-0.012163,-0.12247,-0.034411,-0.017372
0.016755,0.078822,0.23902,0.060446,-0.017046,0.14039,0.055402,0.041912
-0.060192,-0.089681,-0.32208,-0.14089,0.016227,0.23474,-0.032727,-0.031927
0.15244,0.46191,0.36367,0.19555,0.080868,0.0061057,0.14721,0.089689
-0.0085364,-0.046188,-0.13261,0.016297,0.029473,-0.27894,-0.076378,-0.038083
-0.10489,-0.41787,-0.13,-0.0055686,-0.082418,-0.12023,-0.094315,-0.078861
-0.034603,-0.01238,-0.017727,-0.15817,-0.06679,-0.0026874,-0.079084,-0.024458
0.030588,0.037037,0.033528,0.082461,0.076449,0.17413,0.17934,0.062866
0.10606,0.31549,0.11817,0.052262,0.026639,0.096196,0.14084,0.026906
-0.050987,-0.19369,0.0017643,0.03983,0.0096128,-0.050824,-0.17214,0.00027981
-0.0039839,-0.16354,0.20692,-0.080675,-0.030301,-0.050109,-0.14324,-0.0018371
-0.043106,0.24857,-0.27552,-0.021216,-0.0082221,-0.020664,0.016123,-0.0035364
0.080508,-0.067726,0.076331,0.10784,0.098359,0.20011,0.079227,0.033478
-0.048186,-0.13665,-0.027834,-0.084899,-0.12524,-0.27152,0.1556,-0.06342
-0.015778,0.15069,-0.10425,-0.068561,-0.038597,-0.06079,-0.12939,-0.029221
0.099403,0.067622,0.050486,0.094394,0.061654,0.10616,-0.0018297,0.041949
-0.17892,-0.026184,0.015599,-0.056562,-0.050462,0.042767,0.015374,-0.01407
