-0.068326,-0.29319,-0.22986,-0.059069,-0.019888,-0.015318,-0.020487,-0.022753
0.12299,0.24789,0.21226,0.08075,0.043917,0.016161,0.018608,0.06383
-0.099217,-0.027065,-0.065343,-0.045554,-0.033335,-0.022668,-0.012214,-0.036301
0.015769,-0.085444,0.054817,0.038577,0.029522,0.024536,0.0042139,0.020333
-0.086221,0.050693,-0.020762,-0.057427,-0.040994,-0.029645,-0.010312,-0.05571
0.14191,0.48412,0.14564,0.033774,0.052006,0.049205,0.014408,0.032044
-0.073458,-0.74515,-0.23479,-0.039131,-0.050776,-0.035811,-0.0076843,-0.0058101
0.0014809,0.097959,-0.028932,-0.018007,-0.013263,-0.011346,-0.029823,-0.028865
0.10801,0.29518,0.091734,0.042799,0.0788,0.044321,0.033838,0.025309
-0.059608,-0.19227,-0.098906,-0.020509,-0.06343,-0.017431,-0.0199,-0.01509
0.028913,0.22945,0.24332,0.073451,0.044636,0.021973,0.035459,0.037628
-0.048901,-0.12722,-0.10006,-0.050374,-0.049953,-0.0329,-0.0189,-0.0037689
-0.027446,-0.20781,-0.12113,-0.0015846,-0.018982,-0.033651,-0.018976,-0.013967
0.054879,0.33105,0.17997,0.024162,0.051591,0.035405,0.035176,0.038616
-0.097513,-0.18302,-0.12679,-0.028195,-0.01807,-0.020903,-0.028346,-0.056628
0.017052,0.11652,0.11436,0.036356,0.045205,0.031987,0.024853,0.013107
-0.068507,-0.27893,-0.19089,-0.055773,-0.024549,-0.0088617,-0.031707,-0.048812
0.045459,0.10623,0.074072,0.00014048,-0.01673,-0.0026711,0.0052587,0.023373
0.078033,0.21621,0.04933,0.0089896,0.091862,0.081912,0.073478,0.05776
0.090912,-0.082979,-0.039046,-0.060176,-0.16758,-0.11443,-0.10802,-0.02401
0.058716,0.098191,0.10541,0.11325,0.11917,0.072405,0.054797,0.05888
-0.076038,-0.16294,-0.03323,-0.01744,-0.13345,-0.10756,-0.047195,-0.061356
-0.16022,-0.1166,-0.12697,-0.014749,0.036019,0.017591,-0.0076097,-0.065079
0.10806,0.37054,0.12895,0.019541,0.10466,0.080669,0.071973,0.070503
0.13323,-0.082993,0.13328,0.061616,0.018192,0.011328,0.019478,0.048007
-0.34294,-0.55329,-0.42596,-0.18585,-0.066944,-0.026468,-0.0092089,-0.046912
0.18076,0.29797,0.14716,0.09704,0.013236,0.006177,-0.014548,-0.05801
-0.22273,-0.026973,0.064131,-0.011909,-0.0072084,-0.03938,-0.067316,0.0071779
0.24711,0.10625,0.04408,-0.012847,-0.058453,-0.030533,0.011813,0.055427
-0.24168,0.17465,0.0011017,0.016116,0.077699,0.07162,0.035154,-0.014131
0.67393,0.41965,0.38804,0.11421,-0.013322,0.0013735,0.033986,0.10396
-0.55804,-0.91842,-0.57681,-0.1636,0.019683,0.0087566,-0.046144,-0.16766
0.087268,0.4159,0.16082,0.065881,-0.010929,-0.031084,-0.0095323,0.015384
0.12547,0.068787,0.046122,-0.0016363,-0.03473,-0.031952,0.011487,0.059824
-0.34314,-0.33621,-0.29557,-0.1001,-0.0123,0.014296,0.0017626,-0.018475
0.41352,0.41158,0.42563,0.19274,0.01783,0.029882,0.039809,0.077355
-0.16208,-0.2805,-0.15629,-0.10717,-0.060941,-0.063037,-0.061635,-0.082618
-0.026072,-0.11341,-0.040064,0.039455,0.11907,0.087235,0.049038,0.0011616
0.021898,0.071822,0.15824,-0.015717,-0.035618,-0.027187,-0.011131,0.031242
-0.090673,-0.15203,-0.27169,-0.069574,-0.0016103,-0.0081646,-0.023703,-0.055514
-0.076158,0.1384,-0.12679,-0.059758,-0.029277,-0.01244,0.010901,-0.0019189
0.30703,0.5368,0.41239,0.1619,0.021379,0.021887,0.0062865,0.066469
-0.23,-0.30231,-0.022949,-0.022153,0.087107,0.039538,0.0089141,-0.014853
0.25891,0.50085,0.22916,0.10639,-0.082779,-0.053678,0.010671,0.050705
-0.2718,-0.8073,-0.31002,-0.14038,-0.012161,0.0076883,-0.027637,-0.10415
0.1092,0.12945,-0.10316,0.041964,0.041084,0.028487,0.019045,0.067571
-0.096391,-0.097047,-0.096516,-0.15913,-0.1805,-0.1314,-0.083424,-0.082299
-0.019786,-0.16671,0.0068942,0.11593,0.17537,0.10691,0.071553,0.024785
0.14494,0.36719,0.15336,0.039417,-0.0779,-0.036957,-1.5856e-05,0.014284
0.015711,-0.19599,-0.085287,-0.091339,0.029319,0.00027024,-0.0087541,0.035045
-0.071431,0.18559,-0.0044306,0.036503,0.02889,0.039402,0.014257,0.0013972
0.023654,0.1392,0.13914,0.0011287,0.030372,0.033647,0.022122,-0.00063984
0.081248,0.19727,0.34566,0.13035,0.041272,0.013886,0.0068269,0.028834
-0.25927,-0.64036,-0.38543,-0.068703,-0.071952,-0.059699,-0.071021,-0.13697
0.20392,0.56253,0.09326,-0.0031944,-0.029032,-0.00059752,0.030399,0.12669
-0.022445,-0.56322,-0.26629,-0.095948,-0.034107,-0.028573,-0.0095383,-0.03195
-0.079703,0.17565,-0.01168,0.074181,0.099509,0.058672,0.043371,0.0042324
0.18041,0.51979,0.42746,0.061584,-0.050497,-0.036215,-0.021786,0.00099174
-0.12451,-0.45321,-0.36198,-0.10222,0.00027767,-0.00075949,-0.02509,-0.049164
0.029935,0.16358,0.12953,0.028928,0.041384,0.040465,0.033875,0.041731
-0.12053,-0.23735,0.0057615,-0.090561,-0.11383,-0.075805,-0.04749,-0.022679
-0.074373,-0.59865,-0.35613,-0.052954,-0.0034279,-0.012615,-0.010843,-0.05444
0.24011,0.65283,0.41268,0.17436,0.037629,0.027942,0.042673,0.14984
-0.12145,0.23809,-0.062153,0.0063545,0.095969,0.054522,-0.0039326,-0.10518
0.059963,0.033236,0.054746,0.037073,0.031253,0.0051226,0.013314,0.023912
0.088544,0.06921,0.074177,-0.02297,-0.0082431,0.036061,0.039347,0.052132
0.056877,0.18823,0.16552,0.043985,-0.085542,-0.056124,-0.012367,0.017754
-0.052223,-0.47905,-0.23644,-0.060231,0.009582,-0.0064444,-0.025326,-0.05658
-0.28722,-0.59099,-0.43868,-0.13377,-0.043884,-0.026606,-0.031399,-0.069949
0.092791,0.48379,0.27621,-0.036984,-0.043329,-0.031405,-0.038813,0.00073519
0.0012013,-0.075565,-0.06853,0.12809,0.09695,0.064535,0.046069,0.038294
0.20363,0.23902,0.27807,0.080273,0.0098334,0.010917,0.043764,0.097771
-0.072753,0.25636,-0.010368,-0.070542,-0.038735,-0.036024,-0.037438,-0.070203
-0.076856,-0.29636,-0.15827,0.012431,0.084546,0.033336,0.0062346,-0.027342
0.059801,0.06553,0.10982,0.0098552,-0.018198,0.00069291,0.0036003,0.02403
-0.16152,-0.23638,-0.13419,-0.085161,-0.096417,-0.05528,-0.044738,-0.079466
0.22892,0.20337,0.079263,0.04839,0.037839,0.030025,0.041305,0.12355
-0.04182,0.11014,0.070502,0.020222,-0.068294,-0.024218,0.011841,-0.023055
-0.17693,-0.29865,-0.10663,-0.021331,0.061734,0.016576,-0.00051911,-0.02732
0.15881,-0.0086556,-0.0083428,0.024739,0.052575,0.05077,0.027173,0.016449
0.018889,0.40888,0.035233,-0.0065784,-0.026156,-0.023568,-0.038582,-0.025345
-0.0045086,-0.2574,-0.017098,0.024149,0.012056,-0.0039191,-0.0032366,0.026098
-0.037986,-0.0072495,0.098362,0.045376,0.080144,0.038668,-0.0081216,-0.017561
-0.043832,-0.08967,0.02087,-0.10019,-0.13546,-0.084024,-0.022512,0.0071055
0.031831,0.10643,-0.078209,-0.022581,-0.002716,0.018085,0.023643,0.0060238
0.21238,0.45053,0.20008,0.15311,0.11088,0.071302,0.075694,0.073007
-0.36862,-0.87507,-0.54115,-0.18985,-0.13035,-0.088341,-0.076966,-0.17431
-0.029978,0.093152,-0.049596,-0.073925,-0.053704,-0.030721,-0.027521,0.030462
0.16777,0.31042,0.39616,0.17401,0.13113,0.072977,0.037247,0.039827
0.10952,0.39516,0.21262,0.055259,0.011524,0.020445,0.00090887,0.057851
-0.07791,-0.37125,-0.21568,-0.03841,-0.075223,-0.054719,-0.026477,-0.031893
0.036362,0.17424,0.14318,0.057832,0.07506,0.051224,0.049339,0.036666
-0.055103,-0.28286,-0.18783,-0.11663,-0.013632,-0.02076,-0.0057791,-0.025472
-0.016854,-0.010758,-0.085048,-0.077509,-0.05224,-0.028455,-0.035629,-0.038918
0.11083,0.15967,0.17617,0.12787,0.091528,0.059125,0.045413,0.042636
-0.087821,-0.094413,-0.039001,0.0066634,-0.04416,-0.024127,-0.028784,-0.031519
-0.013109,-0.0016052,-0.083846,-0.012178,0.016193,0.010271,0.030242,0.042608
-0.033929,-0.047638,-0.014188,-0.0074614,-0.0253,-0.02574,-0.035897,-0.048043
0.16095,0.31375,0.1852,-0.010954,-0.067836,-0.015387,-0.008909,0.0086938
-0.1791,-0.14388,-0.18068,-0.0073003,0.052264,0.017686,0.0093762,-0.0060008
0.070949,-0.15407,0.045296,0.0034929,0.0068966,-0.0046182,0.003275,0.017422
-0.064789,0.065851,-0.0028888,-0.017416,-0.00045061,-0.0039575,-0.011463,-0.022253
-0.0070899,-0.13851,-0.089727,-0.022805,-0.016087,-0.011258,0.012283,0.031647
0.15939,0.36773,0.13714,0.050168,0.023084,0.020676,0.0044828,0.0076362
-0.13446,-0.40562,-0.040805,-0.017044,-0.0074769,0.00612,0.0044433,-0.054959
0.010673,0.18373,0.047927,0.0020792,-0.021625,-0.0080196,-0.011129,0.00018959
0.11081,-0.011569,0.18368,0.029101,0.07429,0.040589,0.028099,0.10265
-0.037247,0.063547,-0.11125,0.047866,-0.024789,-0.020258,-0.010774,-0.036935
0.0034963,0.18222,-0.11912,-0.012548,-0.014703,-0.011273,-0.010716,-0.020484
-0.10363,-0.31264,-0.23891,-0.066715,0.033716,0.0046891,-0.0031386,-0.028033
0.10152,0.30438,0.3264,0.041387,-0.020502,-0.0038121,0.011852,0.033943
-0.061381,-0.31946,-0.11768,-0.078699,-0.036762,-0.021105,-0.020441,-0.0299
-0.077097,-0.23992,-0.10113,-0.035783,-0.045985,-0.015639,-0.021799,-0.039708
0.14021,0.2843,0.13526,0.038175,0.0071454,0.013092,0.031399,0.051718
-0.10461,-0.020972,-0.016814,-0.0043437,-0.0094115,-0.020257,-0.01688,-0.02867
0.063787,0.21076,0.10719,0.048334,0.053476,0.033295,0.028879,0.039792
0.067682,0.10384,0.061712,0.094993,0.079021,0.041289,0.020374,0.038582
-0.014366,0.10309,0.049024,0.0026758,-0.010934,-0.011825,-0.011098,-0.000987
-0.072577,-0.4557,-0.22895,-0.065142,-0.029391,0.0065359,-0.018702,-0.047753
-0.0050143,-0.087646,-0.093663,-0.054637,-0.024094,-0.036924,-0.018169,-0.0081455
0.055855,0.15378,0.11034,0.025475,0.019535,0.013414,0.0059927,0.008264
-0.10842,-0.06557,-0.0078017,-0.052073,-0.094811,-0.046222,-0.016669,-0.037735
0.033595,-0.071871,-0.15871,0.017055,0.06964,0.04144,0.030904,0.010038
0.067877,0.20676,0.17389,0.04542,-0.0030484,-0.0051847,0.015788,0.050023
-0.083918,0.044397,0.17824,-0.036866,-0.00020947,-0.0064943,-0.015237,-0.019301
0.07772,0.0029109,-0.19194,-0.0025841,0.024086,0.022059,0.0080777,0.0052246
0.059872,0.088218,0.14172,0.055236,-0.015138,0.0027459,-0.00023201,0.0064069
-0.075821,-0.1009,-0.094293,0.0044138,-0.015169,-0.017009,-0.024512,-0.023623
0.052645,0.026322,-0.087789,-0.021812,-0.021736,-0.028774,-0.009986,0.016598
0.022841,0.030044,0.1218,-0.0076469,-0.033894,-0.00071513,0.020051,0.025399
-0.16537,-0.012571,-0.098582,0.015585,0.113,0.044182,0.011083,-0.04419
0.011805,-0.35063,-0.01459,-0.046129,-0.034074,-0.011033,-0.013286,-0.0047109
-0.015182,0.12804,0.069335,0.0099674,0.0010581,0.005492,-0.0060515,-0.012402
-0.0031419,-0.22863,-0.080725,0.019428,0.014465,-0.00026877,0.017224,0.026547
0.15827,0.3732,0.15298,0.052244,0.036336,0.025897,0.017466,0.026288
0.00096988,0.14874,-0.049332,-0.06366,-0.075056,-0.033774,-0.028838,-0.028722
0.017376,-0.055481,-0.054451,-0.031457,-0.039387,-0.0079634,0.011007,0.025641
-0.074026,-0.19193,-0.0028363,0.047398,0.017758,0.0013367,-0.011564,-0.021531
0.015192,0.20642,0.027292,0.0090754,0.033716,0.0017162,0.0049033,0.009456
-0.051719,0.088922,0.07463,0.017935,0.024357,0.008813,0.0056514,-0.0064047
-0.017721,-0.29177,-0.17393,-0.081991,-0.072264,-0.031836,-0.024979,-0.022247
-0.00056645,0.035286,0.10895,-0.0014539,-0.028873,-0.026114,-0.0088734,-0.006829
0.015101,-0.036545,-0.046395,0.072057,0.1318,0.081084,0.038332,0.032019
0.084002,0.13745,0.070023,-0.0022875,-0.011554,-0.0067401,0.0072321,0.0083218
-0.090474,-0.0070161,-0.042648,0.0016544,-0.0054592,0.015369,-0.0006655,-0.0076677
0.038953,-0.18053,0.05245,0.012995,-0.013858,-0.0087015,-0.0010512,0.015223
-0.011649,0.025525,-0.10591,-0.07826,-0.0915,-0.063306,-0.025218,-0.024636
0.055009,0.13851,0.20902,0.071115,0.042698,0.023374,0.0049755,0.0055411
0.0048907,0.014804,-0.11924,0.023333,0.052595,0.024687,0.019325,0.012048
0.010122,0.02648,-0.011334,-0.018428,-0.015123,-0.0047682,-0.013215,-0.012799
-0.24945,-0.29101,-0.26257,-0.10843,-0.051238,-0.041637,-0.037678,-0.045363
0.077802,0.041759,0.01153,-0.019362,0.014428,0.015558,0.016549,0.0083401
0.23401,0.40085,0.38265,0.10909,0.002049,0.010457,0.016908,0.062582
-0.054443,-0.081743,-0.039076,0.035667,0.075523,0.052285,0.026035,-0.0075105
-0.030029,-0.15077,-0.042784,-0.027989,-0.023169,-0.0075933,-0.002975,0.0011927
-0.099339,0.025965,0.02682,-0.073755,-0.059888,-0.060025,-0.039081,-0.036433
0.081064,-0.0011268,-0.17566,0.062247,0.051059,0.027588,0.050166,0.035634
-0.059327,-0.048534,0.082136,0.0043446,-0.065537,-0.026166,-0.032557,-0.025067
0.065396,0.013529,0.009192,0.040541,0.03549,0.020819,0.0091703,0.02339
-0.060245,-0.050887,-0.091351,-0.056979,-0.01311,-0.0033226,-0.020339,-0.030118
-0.0062897,0.1177,0.13123,0.023086,0.015256,-0.012554,-0.0041247,-0.0059838
0.024462,-0.10403,-0.080871,-0.0092209,0.08165,0.055786,0.026512,0.00989
0.086976,0.029068,0.10133,0.0097818,-0.032459,-0.016851,-0.0064253,0.017629
-0.076405,-0.080942,-0.12526,-0.075907,-0.13926,-0.074002,-0.040168,-0.029472
-0.028196,0.030571,0.014853,0.03146,0.097579,0.064219,0.050638,0.032817
-0.01077,0.093282,-0.038606,-0.0026971,-0.016827,-0.0082741,-0.0070718,-0.021952
0.12399,0.17954,0.13047,0.0029153,0.010131,-0.0023065,0.013597,0.040638
-0.030533,-0.17089,0.00018022,0.034225,0.022539,0.0040433,-0.012108,-0.0060102
-0.06845,-0.013415,-0.077132,-0.03256,-0.065345,-0.036119,-0.037176,-0.036987
-0.021254,-0.068634,0.078131,0.068814,0.10587,0.056817,0.024358,-0.0055307
-0.068723,-0.10484,-0.19123,-0.067966,-0.065523,-0.029757,-0.0072649,-0.028936
0.14078,0.19528,0.19125,0.071986,0.029564,0.03217,0.039689,0.064596
0.013726,0.08669,0.035951,-0.020406,-0.023266,-0.023104,0.00098531,0.017222
-0.043326,-0.11255,-0.089039,-0.01856,0.0022383,-0.023721,-0.029785,-0.030418
0.032503,0.096265,0.07992,-0.025559,-0.058206,-0.016492,-0.021477,-0.015751
-0.008376,-0.060404,-0.10701,0.043321,0.099995,0.053399,0.025883,0.030096
-0.032727,-0.22206,-0.033236,-0.031369,-0.030939,-0.0091883,-0.0048398,-0.025519
-0.087025,0.050918,-0.081267,-0.085649,-0.075895,-0.032214,-0.035417,-0.033965
0.063424,0.026871,0.2578,0.060673,0.012133,0.007872,0.020196,0.020559
0.051578,0.10691,-0.14723,0.033539,0.10041,0.040784,0.037055,0.036606
0.033582,0.058672,0.057024,0.013785,-0.0064189,0.003944,0.015126,0.022
-0.13162,-0.21074,-0.19034,-0.044359,-0.019446,-0.03251,-0.030104,-0.046812
0.070854,0.39184,0.15863,0.016202,-0.024882,0.00149,-0.0051016,-0.013816
0.069682,-0.25266,0.073034,0.03184,-0.077735,-0.042769,-0.0038671,0.034727
-0.089376,0.016967,-0.010066,0.018172,0.10295,0.053192,-0.0031865,-0.01872
0.06921,0.049168,0.025476,-0.017387,0.0091555,8.2219e-05,0.0046092,0.013031
0.068149,0.099085,0.13144,0.041704,-0.023231,0.00085929,0.0038651,0.036028
-0.15529,-0.13171,-0.25591,-0.094341,-0.0018991,0.008565,0.0024851,-0.043517
-0.053864,-0.23695,-0.17645,-0.066778,-0.051552,-0.031476,-0.030587,-0.045767
0.021838,-0.019701,0.11966,0.045826,0.02356,0.0058489,0.02991,0.037419
0.034173,0.038646,-0.054562,0.024514,-0.00262,-0.012069,-0.011061,-0.020071
0.078517,0.34022,0.22369,0.080225,0.057901,0.024417,0.026434,0.024443
0.023588,-0.017611,0.10397,0.017798,-0.028861,-0.0093855,-0.013671,0.022959
-0.0044451,0.030506,-0.037778,-0.037516,0.010755,0.035261,0.017161,0.04609
-0.12997,-0.42019,-0.26347,-0.077599,-0.026354,-0.044511,-0.037303,-0.077926
0.029775,0.28641,0.083254,0.015074,0.008073,0.0092931,0.0025719,-0.0054235
-0.033684,-0.17952,-0.11513,-0.048237,-0.034748,-0.014173,-0.011756,-0.041355
0.21753,0.36649,0.28127,0.11554,0.063464,0.033512,0.04457,0.087315
-0.06963,-0.016826,0.044908,-0.032511,-0.010317,-0.0040184,-0.0082983,-0.0027083
0.0095555,-0.013039,-0.13779,0.00756,-0.030053,-0.025415,0.0013431,0.0083903
-0.15559,-0.44576,-0.12717,-0.030107,0.019428,0.015918,-0.028228,-0.036081
-0.050312,0.073446,-0.041139,0.010325,-0.026269,-0.013151,-0.0033951,-0.027065
0.059466,-0.04208,0.065229,0.018963,0.035805,0.02769,0.021057,0.019669
0.056782,0.33337,0.14506,-0.004714,-0.044349,-0.018075,-0.0017974,0.0026039
0.082914,0.0533,0.05028,0.01702,0.030308,0.013445,0.021789,0.023531
-0.040923,-0.09827,-0.054403,-0.0097531,0.010085,-0.0027981,-0.025328,-0.018747
-0.024679,-0.08688,-0.14462,-0.045827,-0.0030378,-0.0042063,0.0053763,0.0012114
0.023211,0.075096,0.054183,0.0030205,-0.032014,-0.037418,-0.018792,-0.0020809
-0.037068,-0.1094,0.058908,0.035975,0.048663,0.022905,0.0038648,0.010836
-0.025212,-0.12241,-0.11357,-0.055444,-0.018333,0.013082,0.010973,-0.0066223
-0.026783,0.26407,0.014377,0.02651,-0.013837,-0.011857,0.0026232,-0.015247
-0.0026348,-0.23089,-0.0097252,0.0012361,-0.023491,0.010824,0.0101,0.016197
0.13292,0.40745,0.22044,0.056507,0.0075136,0.0030652,0.0021186,0.017231
-0.042568,-0.33859,-0.14731,-0.03444,0.016586,0.0038083,-0.013603,-0.012443
-0.061241,0.035818,-0.020508,0.0089783,0.026838,0.0049498,-0.013768,-0.018517
0.052406,0.042793,0.075649,0.021672,-0.040396,-0.025163,-0.0063395,0.014227
-0.046454,0.022593,-0.103,-0.036622,0.056383,0.014601,0.024171,-0.023955
0.094415,0.23012,0.14486,-0.0029813,-0.0038648,0.0066925,0.022988,0.038532
-0.017678,-0.16457,-0.072743,0.028001,-0.010821,-0.0022246,-0.009901,0.014051
-0.14833,-0.48995,-0.20167,-0.076851,-0.019548,0.0034801,-0.027539,-0.050488
0.08591,0.41931,0.2194,0.073305,-0.05351,-0.030642,-0.0063093,0.017009
0.092465,0.12833,0.074554,0.026137,0.036089,0.013041,0.022805,0.037243
-0.15054,-0.22646,-0.079456,-0.11554,-0.039125,-0.044588,-0.025822,-0.059592
-0.032042,-0.10214,-0.20889,0.0091456,0.073305,0.054868,0.0043609,-0.015136
0.058783,0.15313,0.055931,0.042305,-0.031943,-0.00061662,0.012019,0.014852
0.060375,0.057245,0.10767,0.039806,0.059977,0.015774,0.028498,0.046321
0.011965,-0.0063207,0.0099683,0.002293,-0.048881,-0.0053617,-0.024393,-0.014395
0.0066277,0.13325,0.05181,-0.031203,-0.0068376,-0.0096501,0.001555,-0.0034329
0.089813,-0.096907,0.044371,0.047979,-0.00167,0.0023712,0.012246,0.047501
-0.16226,-0.067496,-0.10849,-0.042689,-0.0027452,-0.0090183,-0.023976,-0.065344
0.053102,0.15529,0.12928,0.046751,0.043768,0.025845,0.025321,0.032362
0.070127,0.068353,0.035902,0.0021572,0.0040981,-0.018556,-0.0042154,0.019731
-0.21382,-0.57236,-0.30515,-0.091917,-0.013292,-0.0097001,-0.034609,-0.072347
0.060348,0.23282,0.096934,0.0058164,-0.095071,-0.049173,-0.0033484,-0.001774
0.0024972,-0.014948,-0.10171,-0.0096165,0.039562,0.035131,0.0194,0.0050688
0.03557,0.1631,0.1235,0.049606,0.070168,0.0405,0.010433,0.011059
0.043729,-0.019502,0.03243,-0.026636,-0.042123,-0.016938,0.0012544,0.032281
-0.0029573,0.041089,0.018177,0.028398,-0.015606,-0.011696,-0.015733,-0.0011521
0.052791,-0.013045,-0.002803,0.044039,0.048793,0.025359,0.029921,0.028245
0.00065693,-0.087792,0.0026016,-0.033311,-0.012256,-0.0071038,0.0054551,-0.0043873
-0.0028931,0.35526,0.06671,-0.015312,-0.010514,0.00035693,-0.0032095,-0.013114
-0.13763,-0.16959,-0.091522,-0.034272,-0.054686,-0.03046,-0.050805,-0.068329
0.041546,-0.14816,0.011728,0.042781,0.035444,0.0018275,0.011075,0.032999
-0.0046794,-0.22997,-0.030862,0.0047573,0.025843,0.026677,0.018372,0.0095666
0.028196,0.20183,0.091904,0.023141,-0.0052457,-0.010834,-0.013234,-0.0058093
-0.031845,-0.063189,-0.12123,-0.035418,0.043642,0.029719,0.033526,0.018172
0.080676,0.18706,0.055278,0.0081774,-0.023098,-0.023679,-0.013137,0.0034417
-0.079775,-0.19442,-0.10577,-0.073198,-0.065275,-0.030469,-0.020355,-0.02654
0.088027,0.26241,0.10631,0.040283,0.0025329,0.0093431,0.011875,0.014118
-0.010112,-0.22297,-0.027204,0.020116,-0.031165,-0.021395,-0.010266,0.00028305
-0.062183,0.029117,0.017409,-0.0011576,0.059646,0.041418,0.0068314,-0.0057496
0.072004,0.22104,0.15462,0.12475,0.1182,0.049357,0.031724,0.058278
-0.053128,-0.070351,-0.029111,-0.10999,-0.051234,-0.013225,-0.0061197,-0.042236
-0.054779,-0.049606,-0.22849,-0.064613,-0.12865,-0.076063,-0.036584,-0.026191
0.075142,-0.092866,0.06503,0.058091,0.073369,0.048303,0.026134,0.020451
-0.030027,0.064982,0.024103,-0.0070189,-0.03098,-0.030751,-0.021124,-0.027197
-0.002427,-0.16172,-0.014568,-0.017168,-0.011625,-0.016292,-0.014222,0.010784
-0.013261,-0.053242,0.0042775,0.0047832,0.077314,0.060548,0.031386,-0.0059419
-0.062004,-0.030103,-0.098833,-0.05791,-0.052555,-0.026643,-0.024696,-0.022422
0.22661,0.63554,0.32426,0.091817,-0.025569,-0.019897,0.020896,0.0787
-0.11623,-0.67273,-0.21161,0.031962,0.072899,0.034033,0.019927,-0.0072383
0.08102,0.5372,0.19076,0.058972,0.016676,0.018038,0.0037793,0.032147
-0.1587,-0.26685,-0.21226,-0.10122,-0.061251,-0.036612,-0.035309,-0.068973
-0.015639,-0.10994,-0.062656,-0.035246,-0.028107,-0.0049405,-0.011426,-0.021752
0.072258,0.28725,0.10725,0.014159,0.029939,0.011436,0.020651,0.01741
0.026575,-0.19425,0.01564,-0.00019675,0.050008,0.0046323,-0.0017073,0.0016008
-0.06684,-0.16505,-0.11094,-0.047077,-0.062134,-0.025436,-0.0083502,-0.022227
0.0030366,0.10885,0.056114,0.0065722,-0.041399,-0.024179,-0.0072615,-0.0070507
0.087985,0.026431,0.041052,0.083023,0.10387,0.078602,0.040458,0.070723
0.0086248,0.010936,0.047995,0.018629,0.0060033,-0.0062855,0.0018676,0.0080687
0.0075136,0.19715,0.093569,0.024656,-0.022842,-0.0055365,-0.0059058,-0.0075011
-0.11806,-0.20955,-0.25102,-0.094033,-0.045351,-0.028635,-0.029699,-0.046373
-0.023918,-0.011599,-0.016295,-0.024916,-0.030248,-0.028763,-0.022483,-0.014923
0.095044,0.10542,0.20451,0.044413,0.030502,0.025348,0.031627,0.039851
-0.049927,-0.10708,-0.064831,0.02006,0.020096,0.00097921,0.00014107,-0.022758
0.049107,-0.023431,-0.011698,0.011267,0.032754,0.031104,0.00056664,0.031616
-0.0455,0.074961,-0.034566,-0.036721,-0.040427,-0.024708,-0.013738,-0.031335
0.040798,0.038645,0.03825,0.016751,0.019703,0.013432,0.011986,-0.0083653
0.072883,0.10019,0.05018,-6.1078e-05,-0.013145,-0.018365,-0.00051877,-0.00089242
0.0029432,-0.36,-0.23359,-0.086956,-0.0060373,0.0050286,0.010896,0.061523
-0.2247,0.24129,0.14734,0.045341,-0.013687,-0.025703,0.006648,-0.05542
0.099992,0.15136,0.1064,0.076678,0.049687,0.03786,-0.01387,0.0076612
0.015434,-0.2805,-0.083681,-0.0085316,-0.019286,0.0081199,0.089398,0.05539
0.060371,0.1864,0.092077,0.00055076,-0.025583,-0.029155,-0.12927,-0.092033
0.070815,0.10631,0.031595,-0.021301,0.022695,0.027383,0.0096599,0.07308
-0.11683,-0.40286,-0.28881,-0.050949,-0.030939,-0.025622,-0.0092812,-0.043135
0.021678,0.23102,0.1466,0.0050558,0.024296,0.0069393,0.0096464,0.020188
-0.14542,-0.11445,0.010139,0.044902,0.032091,0.0077326,0.043618,-0.026041
0.078306,-0.084821,-0.056882,-0.0018766,-0.023134,0.00013254,0.0073636,0.021309
-0.024912,0.056892,-0.022471,-0.025953,-0.031866,-0.023647,-0.02822,-0.033056
0.14714,0.35154,0.16085,0.035221,0.021717,0.022435,-0.00023618,0.053046
0.00088186,-0.098672,0.001209,-0.036979,-0.010602,-0.0020909,0.03678,-0.001677
0.02821,0.11195,-0.0014089,-0.00019199,-0.034885,-0.042372,-0.050074,-0.033251
-0.084025,-0.3384,-0.066036,0.036409,0.066167,0.050168,0.043609,0.012897
-0.070966,-0.053183,-0.07587,-0.036343,0.0034896,0.0021744,-0.018487,0.0038494
0.10584,0.28609,0.17192,0.078635,0.011347,0.0089771,0.0054517,0.0255
-0.10073,-0.1499,-0.14303,-0.063767,-0.019822,-0.0075841,-0.0098476,-0.031465
0.051768,-0.064592,-0.020426,-0.025854,-0.019911,-0.0085001,-0.0019916,0.028458
-0.060964,0.10513,-0.0065888,-0.018384,-0.020323,-0.025054,-0.041218,-0.067847
-0.016052,-0.19404,0.024191,0.04472,0.0023265,0.0052747,0.0055086,-0.023095
