-0.14197,0.023735,0.002236,0.023872,-0.0019383,-0.0070935,0.10517,0.03189
0.69991,0.06452,0.03855,0.023183,0.028245,0.0008863,0.083502,0.11789
-0.53558,-0.05044,-0.01058,-0.016144,-0.019144,-0.089313,-0.079173,-0.12413
-0.28761,-0.063414,-0.05884,-0.031547,0.0044178,-0.010811,-0.1173,-0.068807
0.15126,0.0096159,0.003333,0.00035395,-0.018294,-0.034986,0.062936,0.0028648
0.75249,0.0039655,-0.019415,-0.0065429,-0.0093176,-0.0030489,-0.022672,0.090887
0.033569,0.10633,0.07576,0.033466,0.04671,0.06411,0.13391,0.10122
-0.58151,0.011202,0.038382,0.010743,0.024473,0.043543,-0.068696,-0.06044
-0.30008,-0.055507,-0.030564,-0.035886,-0.052897,0.014518,-0.036658,-0.019782
0.1028,-0.062799,-0.04568,0.010596,0.0018775,0.062975,0.019017,-0.019646
0.35528,0.11463,0.062989,0.025133,0.0012134,-0.0075155,-0.050344,-0.068273
-0.42852,-0.2098,-0.11867,-0.054695,-0.031361,-0.073938,0.06739,-0.064173
0.071121,0.051279,0.026818,0.029141,0.029413,-0.013729,0.02022,0.17266
0.49557,0.016794,0.023519,-0.0042857,0.0042236,-0.048048,-0.01257,-0.13837
-0.55299,0.04001,0.0050501,0.0016595,0.018498,0.039892,0.062519,0.13641
0.2839,0.091021,0.026917,0.0082908,-0.01331,-0.016771,-0.074814,-0.0020882
0.44024,0.076794,-0.0039938,0.0080968,-0.004985,-0.030956,-0.064858,0.10322
-0.98134,-0.096444,0.0063643,0.0090553,0.043577,0.091395,0.061779,-0.12513
0.39977,-0.21849,-0.08277,-0.082597,-0.13335,-0.15672,-0.24877,-0.35863
0.852,0.2328,0.095217,0.045433,0.065461,0.10851,0.24651,0.33247
-0.85025,-0.15044,-0.023094,0.0099407,0.022321,0.036472,0.055992,0.041631
0.62932,0.28639,0.10807,0.091654,0.10377,0.11999,0.0705,0.1822
-0.47392,-0.23167,-0.11395,-0.061562,-0.05804,-0.07034,-0.0070991,-0.14533
-0.85273,-0.11982,-0.041518,-0.036158,-0.049597,-0.089204,-0.15397,-0.28604
-0.0024903,0.089975,0.0046257,-0.012167,-0.011824,-0.03833,0.0041475,0.032093
0.65377,0.01471,-0.053542,-0.036554,-0.061863,-0.035052,-0.07248,-0.0046953
1.1634,0.3109,0.15175,0.10962,0.12882,0.14719,0.084503,0.74332
-0.20642,-0.27857,-0.089483,-0.065391,-0.095296,-0.10081,0.014112,-0.51321
-0.84379,-0.026115,0.052024,0.017159,0.024478,0.026016,-0.033356,-0.10966
-0.35487,0.069542,0.00709,-0.0014304,0.04371,0.020289,0.091078,0.11951
-0.024817,-0.11522,-0.051475,-0.01118,-0.029093,0.0074602,0.0052607,-0.28422
0.43978,0.045893,0.048795,0.027386,0.048628,0.042581,-0.0011208,0.10394
0.16032,0.053798,-0.066947,-0.018414,-0.012212,-0.02256,-0.12293,0.052548
-0.36778,-0.036501,0.0072161,-0.023783,-0.040151,-0.039451,-0.031907,0.016863
-0.34624,-0.30363,-0.12013,-0.075189,-0.11405,-0.14879,-0.1346,-0.23681
1.0129,0.60263,0.2764,0.2094,0.19486,0.20391,0.30257,0.69652
-0.16115,-0.1245,-0.031087,-0.045924,-0.0050098,0.033979,0.067371,-0.39728
0.078739,0.036037,0.034233,0.025206,-0.026957,-0.073005,-0.013666,0.24268
-0.84485,-0.19923,-0.075454,-0.046512,0.0035296,0.031029,0.042227,-0.20921
0.4908,-0.058291,-0.20424,-0.17525,-0.10891,-0.091744,-0.21146,0.0079225
0.10388,0.04459,0.085783,0.053459,-0.0044557,-0.027495,-0.11888,-0.0073636
0.2108,-0.19406,-0.063677,-0.00016325,0.013051,0.0596,0.13311,-0.075822
-0.46821,0.1892,0.10676,0.11031,0.085353,0.09142,-0.078794,-0.24968
0.15032,0.049251,0.10659,0.065695,0.026103,0.013386,0.13851,0.21827
-0.54218,-0.016674,-0.078364,-0.086232,-0.077796,-0.13525,-0.2512,-0.27466
0.058505,0.025646,0.060588,0.030029,0.094567,0.10672,0.53593,0.34886
0.40032,-0.071935,-0.07011,-0.093305,-0.11293,-0.16668,-0.34974,0.00099627
0.21047,0.12847,0.0056079,0.043356,0.018124,0.060458,0.0067023,0.22447
-0.0062933,-0.23367,-0.025785,0.017391,0.041649,0.085181,-0.074823,-0.15191
-0.015386,0.22981,0.053161,-0.0002418,-0.06682,-0.084686,-0.0099355,-0.021069
0.71794,0.28911,0.053661,0.083299,0.17597,0.22253,0.35515,0.20602
-1.1735,-0.4107,-0.11904,-0.10772,-0.090368,-0.17326,-0.10749,-0.35172
0.29262,0.0025624,-0.020172,-0.026827,-0.077482,-0.077296,-0.13512,-0.059902
-0.19025,-0.058685,0.045574,0.068124,0.073723,0.12699,0.10593,0.31845
-0.13811,-0.10249,-0.01509,-0.049099,-0.081874,-0.10785,-0.31535,-0.39194
0.8499,0.2551,0.0095306,-0.026352,-0.0515,-0.0010149,-0.00063278,0.15144
-0.72823,-0.21816,-0.043827,0.019837,0.10314,0.11906,0.2463,0.043099
0.48025,0.15212,0.03636,-0.0037384,-0.10156,-0.1696,-0.26823,-0.44127
-0.30207,0.18853,0.11746,0.082876,0.13962,0.13314,0.28576,0.63095
-0.38231,-0.044962,-0.019599,0.084277,0.1627,0.26209,0.34741,0.051709
0.0030668,-0.32921,-0.13338,-0.15621,-0.21228,-0.33667,-0.37898,-0.08303
0.62448,0.20219,0.048539,0.017055,0.045343,-0.0057015,-0.1194,-0.17817
0.27396,0.1491,0.11108,0.064362,0.0052281,0.084669,0.21219,0.52467
-0.24306,-0.17043,-0.11053,-0.10067,-0.1456,-0.14974,-0.26718,-0.5994
-0.31843,0.022547,0.04754,0.037456,0.077095,0.042765,0.051527,-0.35504
0.14704,0.038701,-0.10958,-0.060071,-0.045188,-0.039736,-0.13674,0.20321
0.1667,0.017707,-0.010552,0.060441,0.08968,0.15781,0.46445,0.35699
0.020733,-0.1184,0.049222,0.0091143,-0.0019577,-0.0059707,-0.16101,0.067601
-0.32109,-0.008992,0.024453,0.021067,0.047754,0.16229,0.17377,0.22588
-0.55072,-0.29261,-0.067864,-0.090639,-0.15136,-0.20747,-0.45364,-0.69173
0.64172,0.39257,0.10905,0.088314,0.08833,0.068921,-0.0046681,0.040822
-0.50346,0.064478,0.14128,0.096897,0.10257,0.066455,0.34861,0.57908
0.60481,0.045102,-0.128,-0.10434,-0.10123,-0.17808,-0.088982,-0.29643
0.12572,-0.02411,-0.043682,0.030909,0.12486,0.10001,0.25342,0.30444
-0.050466,-0.057256,-0.060288,-0.162,-0.27419,-0.31733,-0.52948,-0.57144
-0.10732,-0.21125,-0.038562,0.043028,0.10775,0.13457,-0.084865,-0.079672
0.55763,0.2942,0.16888,0.16918,0.16157,0.30268,0.59647,0.59341
-0.93929,-0.19808,-0.040082,-0.096075,-0.18248,-0.19998,-0.30449,-0.29284
0.39301,-0.11846,-0.079523,-0.0025481,0.045098,0.028372,0.041326,-0.026049
-0.39838,0.0014134,0.035425,-0.0030538,-0.084658,-0.080137,-0.17041,-0.19118
0.42355,0.17696,-0.038145,-0.026922,0.038082,0.092817,0.12245,0.26655
-0.11214,0.26734,0.067949,0.051162,0.15549,0.2032,0.1298,0.17425
-0.4892,-0.3919,-0.035988,0.0048379,0.0091767,-0.031781,0.1469,-0.040403
0.20141,0.12829,0.025712,-0.079913,-0.13637,-0.27073,-0.39843,-0.29425
0.96369,0.10051,0.011154,0.093667,0.10018,0.13211,0.2577,0.51913
-0.62011,-0.13238,0.029601,0.033142,-0.0093067,-0.099141,-0.0031977,-0.25907
-0.1793,0.069493,0.0024708,-0.066476,-0.0833,-0.099164,-0.23638,-0.35703
-0.23492,-0.10683,-0.070902,-0.010155,-0.013181,0.07622,0.019258,-0.12677
0.62834,0.026099,0.019704,-0.024637,-0.0021058,0.074995,-0.0089719,0.17453
0.23126,-0.13299,-0.077894,-0.031842,-0.01031,0.030001,-0.031037,0.14975
-0.81658,-0.028868,0.0030544,0.038633,0.0025677,0.019645,0.16479,-0.05121
0.75105,0.49533,0.1764,0.10884,0.13974,0.10681,0.23503,0.5572
-0.6268,-0.25517,-0.14383,-0.055387,-0.065843,-0.075271,-0.094069,-0.20401
-0.056866,0.181,0.18315,-0.0085462,-0.042406,-0.11197,-0.042066,-0.084513
-0.20748,-0.53173,-0.27213,-0.078633,0.04699,0.083452,-0.016082,-0.24012
0.64386,0.33362,0.10002,0.023464,-0.070681,-0.1754,-0.22757,-0.16993
-0.46077,0.051059,0.12023,0.047706,0.018416,0.034747,-0.027879,-0.11446
0.81598,-0.058356,-0.086196,0.025212,0.0791,0.12952,0.15435,0.37388
-0.70647,-0.079718,-0.026807,-0.028598,-0.061757,-0.053717,-0.10885,-0.053984
0.070163,-0.18413,-0.037352,-0.028037,0.00841,0.0017046,0.012623,0.033726
0.35936,0.29292,0.093207,0.050089,0.069357,0.069628,0.18456,0.091187
-0.41553,-0.10174,-0.033574,-0.044406,-0.10672,-0.061225,-0.10767,-0.23352
0.73932,0.30306,0.082207,0.047774,0.065343,0.1081,0.21403,0.40934
-0.92292,-0.29086,-0.15337,-0.079569,-0.055238,-0.041128,0.054874,-0.030079
0.68945,0.16165,0.11887,0.042495,0.0007701,-0.088793,-0.37598,-0.28189
-0.80517,-0.30209,-0.10125,-0.031077,-0.015585,0.0025638,0.11468,-0.17759
0.77737,0.33991,0.061145,0.02814,0.029931,0.01304,-0.029726,0.25684
-0.94665,-0.19433,0.01226,0.032923,0.013863,0.020265,-0.0057821,-0.10481
0.062027,-0.076594,-0.0056591,0.006916,0.023532,-0.045843,0.045464,-0.06706
0.55293,0.084711,-0.00027857,0.004929,0.0052357,0.06559,0.093243,0.22313
0.3827,-0.013474,-0.018253,-0.035488,-0.040616,-0.034731,-0.033092,0.025876
0.46703,-0.025444,-0.05932,-0.051831,-0.04395,-0.032796,-0.15217,-0.22658
-1.079,0.089735,0.10334,0.018383,0.010001,0.0024927,-0.027877,0.0070613
0.23121,0.01317,-0.037863,0.011052,0.096463,0.072183,0.044347,-0.092155
-0.33637,-0.07474,-0.021888,0.012042,0.0029062,-0.010708,0.088713,0.16345
0.88963,0.14624,0.03408,0.052478,0.063714,0.097496,0.17549,0.31185
-0.62957,-0.074646,-0.010706,-0.024066,-0.12076,-0.088192,0.061687,-0.031827
0.030137,0.073896,0.062299,0.016574,-0.043319,-0.021901,-0.12903,0.12211
-0.70461,-0.20634,-0.051834,-0.036738,-0.024137,-0.079842,-0.24186,-0.65824
0.93927,0.060066,-0.040831,-0.043514,-0.038931,-0.036711,-0.043589,0.032115
-0.19249,-0.041757,-0.029864,0.011824,0.069919,0.059433,0.10582,0.099531
0.15385,0.019067,0.020018,0.012135,0.061798,0.066923,0.057956,0.061118
0.2487,0.078427,0.04624,0.0044,-0.038426,0.0083461,-0.14758,0.13035
-0.74635,-0.12136,0.033105,0.059057,0.10619,0.10968,0.28689,0.021157
0.57259,0.18546,-0.0038608,-0.011293,-0.011759,0.042599,0.080936,-0.029219
-0.2422,-0.040107,-0.041342,-0.026898,-0.06431,-0.27853,-0.31948,0.051761
-0.076274,0.16284,0.061169,0.0044579,-0.0052085,0.084673,0.29705,0.10917
0.54359,-0.12758,-0.087019,-0.042213,-0.061885,-0.1007,-0.1942,-0.13787
-0.88694,-0.2237,-0.040581,-0.01065,-0.008681,-0.035979,-0.15239,-0.29136
0.079377,0.038916,0.059954,0.05228,0.059868,0.16351,0.1492,0.24917
0.41885,-0.081317,-0.01183,-0.0096846,-0.028702,-0.024166,-0.11748,-0.17406
-0.46518,0.064674,0.025463,-0.0090929,0.014287,0.065843,0.086475,0.093362
0.89022,0.38359,0.093811,0.053956,0.079254,0.089725,0.16686,0.44002
-0.24208,-0.18699,-0.095809,-0.047239,-0.068244,-0.078411,-0.056867,-0.41744
-0.27831,-0.11624,-0.027776,-0.00032346,0.032779,-0.033778,-0.031211,-0.0044674
0.2167,0.12634,0.032288,0.014905,-0.0081374,-0.020196,0.00029491,0.044398
0.070463,-0.16329,-0.048371,-0.048461,-0.065703,-0.11718,-0.11982,-0.092388
0.082674,0.12348,0.058525,0.028401,0.032373,0.096334,0.09201,0.022081
-0.52823,0.0098099,0.017295,0.019105,-0.0024571,0.0030838,0.11219,0.27857
-0.23407,-0.019587,-0.0076582,0.033294,0.064742,0.056816,-0.058665,0.060745
-0.21318,-0.159,-0.070649,-0.084972,-0.093632,-0.15543,-0.25521,-0.45799
0.52285,0.014966,-0.015093,0.00054731,-0.0084328,0.023848,0.00088389,0.013398
0.62688,0.10561,0.081103,0.063524,0.093965,0.1191,0.26613,0.21926
-0.87544,0.0050574,0.014832,-0.013112,-0.020882,-0.03325,-0.10644,-0.20565
0.099806,-0.11396,-0.073507,-0.026275,-0.025176,0.019674,-0.014532,0.099379
0.30294,0.10784,0.026553,0.0082073,-0.005394,0.050361,0.15104,0.11134
0.60393,0.17718,0.087792,0.043122,0.037813,0.026117,0.0063748,0.14219
0.19673,-0.0094954,-0.046768,-0.031325,-0.021195,-0.02338,0.081072,0.065573
-0.39836,-0.079596,-0.018413,0.011006,0.02802,-0.068164,-0.087548,-0.010797
-0.75389,-0.027645,0.00052729,-0.017732,-0.041361,-0.077613,-0.17267,-0.29148
-0.66559,-0.23817,-0.052603,-0.016189,-0.041805,-0.059321,-0.18258,-0.23809
0.77111,-0.047866,-0.04484,-0.015662,0.011372,0.042432,0.094119,0.016886
0.28639,0.29361,0.094515,0.038641,0.017095,0.049555,0.11964,0.17781
0.23194,-0.10315,-0.02469,-0.0015147,0.022781,0.08099,0.090901,0.18389
-0.45225,0.013588,-0.011439,-0.026517,-0.0023791,-0.025836,-0.092193,-0.072635
0.12689,0.16123,0.040697,0.026337,0.027786,0.050273,0.21182,0.18262
-0.54634,-0.22913,0.022249,0.016545,-0.011754,-0.042131,-0.16894,-0.23009
0.3595,0.12456,0.10478,0.022269,0.019358,0.040073,0.069324,0.094442
0.69367,-0.027661,-0.1418,-0.042456,-0.02773,-0.055834,-0.074859,-0.025316
-0.30953,0.10273,0.00098,0.0020215,-0.028458,-0.034363,0.021835,0.017884
0.51736,0.0069948,-0.044987,-0.016172,0.0012181,0.0016458,-0.024827,-0.035689
-0.85564,-0.21426,-0.052752,-0.034456,-0.024771,-0.026843,-0.043759,-0.11697
0.70636,0.19607,0.1425,0.095767,0.11244,0.090727,0.066664,0.23467
-0.82997,-0.24665,-0.098921,-0.062794,-0.09463,-0.075168,-0.075453,-0.34731
0.086017,0.012524,-0.010451,-0.025558,-0.0048531,0.015154,-0.0075867,-0.033431
-0.25373,0.052295,0.088256,0.051363,0.030757,0.0032036,-0.016896,0.27173
0.25393,0.18587,0.041174,-0.0038797,-0.026365,-0.016333,0.070296,0.085322
-0.22057,-0.039291,-0.0035437,0.019545,0.042864,0.058882,0.083426,-0.037005
0.28446,-0.036998,-0.023177,-0.0035803,-0.0036326,0.010565,-0.023816,0.084686
0.41751,0.028631,-0.034318,-0.011026,0.013698,-0.0049433,0.052995,-0.096888
0.24562,0.079206,0.0011309,-0.010852,-0.0070471,-0.0035203,-0.038668,-0.051279
-0.16144,-0.10428,-0.034748,-0.018836,-0.019457,-0.040342,-0.12052,-0.10744
-0.56002,-0.11561,0.013965,0.011888,-0.0083954,0.0090132,0.024689,0.054379
-0.032253,0.022091,0.014565,0.026769,0.010098,-0.020042,0.051876,0.04346
-0.24284,-0.12805,-0.094975,-0.091138,-0.058005,-0.034121,-0.1024,-0.22581
0.66421,0.090992,0.037565,0.041255,0.029367,0.052561,0.0066506,0.27058
0.37208,0.24236,0.10032,0.033546,0.03006,0.029125,0.0038989,-0.13865
-0.13035,0.076333,0.023392,0.073349,0.069224,0.02862,0.17071,0.34373
-1.0625,-0.36042,-0.044669,-0.050292,-0.079467,-0.081409,-0.023908,-0.31349
0.96959,0.32203,0.091253,0.014071,0.037398,0.027589,0.037555,0.2723
-0.24529,-0.064769,-0.069223,-0.030581,-0.040793,0.012301,-0.09763,-0.071035
-0.9768,-0.30311,-0.12807,-0.082793,-0.0090231,-0.0018805,-0.061777,-0.32798
0.55494,0.14521,0.023817,0.021467,-0.031064,-0.038116,-0.010511,0.032933
0.27904,-0.040715,0.0035235,0.03223,0.041705,-0.0025584,-0.036879,0.082573
0.13905,0.029419,0.037705,0.035461,-0.0016534,0.010893,0.070708,0.095043
0.17727,0.16017,0.05622,-0.0079539,0.0026811,0.0096188,0.00016994,-0.10106
0.057329,-0.046973,-0.011116,0.011167,0.038584,0.039785,0.040591,0.02547
-0.28707,-0.10771,-0.00024817,0.0065398,0.0037887,-0.0089007,0.019628,0.15352
0.31773,0.14191,0.018325,0.0011519,0.0147,0.034451,0.061381,0.039367
-0.056489,-0.040347,-0.065095,-0.04452,-0.030941,0.0049061,0.070954,0.079439
-0.59416,-0.076257,0.014736,0.0019862,-0.063253,-0.12154,-0.23399,-0.27519
0.0078952,-0.035765,0.046561,0.031157,0.027103,0.03003,-0.026063,-0.080747
-0.099342,-0.035391,-0.063537,-0.011549,0.037416,0.030356,0.046181,0.14659
0.44987,0.23049,0.020425,-0.016324,-0.086196,-0.049307,-0.0010816,-0.0065281
0.047424,-0.15111,-0.029415,-0.013748,0.047946,0.057956,0.067675,0.055574
-0.38268,-0.030707,0.029559,0.0047844,0.011241,0.0098195,-0.050724,-0.24235
0.19177,-0.05591,-0.013086,-0.0068264,-0.015722,-0.059597,0.028099,0.063893
-0.098603,0.10964,-0.00062798,0.030152,0.037895,0.03036,-0.038297,0.0085485
0.638,0.20806,0.11416,0.06136,0.070589,0.084843,0.18059,0.42963
-0.96163,-0.31592,-0.1295,-0.069469,-0.082103,-0.10719,-0.16664,-0.46121
0.78942,0.1773,0.026216,0.020139,0.024384,0.078641,0.060189,0.24919
0.29369,-0.086969,0.042072,0.0014726,-0.017111,-0.014952,-0.069622,-0.074262
-0.0004279,0.054009,-0.0040426,-0.0089969,-0.035594,-0.029822,-0.0027544,0.1198
-0.63537,-0.15875,-0.065509,-0.027608,0.0073103,0.0093636,0.13426,-0.12544
-0.53282,0.070733,-0.0097419,-0.0159,-0.06068,-0.093743,-0.19913,-0.10245
0.20299,0.0075478,0.014648,0.01789,0.057185,0.05858,0.058295,-0.063752
0.30901,0.10467,0.046591,0.042297,0.040693,0.04412,0.069678,0.067518
-0.14523,0.057629,4.1944e-05,-0.013012,0.02288,0.058226,0.10799,0.14304
-0.1656,-0.093894,-9.7229e-05,-0.015077,-0.027236,-0.10187,-0.13143,-0.054541
0.39894,-0.12236,0.022655,0.012938,-0.015641,-0.0058987,-0.069865,-0.061915
0.47943,0.12199,-0.025486,0.0010854,0.034478,0.042195,0.059361,0.061381
0.051187,0.0078985,-0.0038416,0.020097,-0.0016099,0.0041167,0.023304,0.013789
-0.085405,-0.12705,-0.052876,-0.070216,-0.092347,-0.064733,-0.082675,0.056031
-0.97656,-0.07043,-0.0317,-0.0038202,0.012625,0.047151,0.039848,-0.16891
0.10289,0.17099,0.052192,0.032118,0.0089956,0.0041894,-0.014136,-0.0032173
0.43941,0.16793,0.08972,0.076875,0.092415,0.087763,0.16235,0.2256
-0.18098,-0.11908,-0.028288,-0.056988,-0.041582,-0.092838,-0.063414,-0.22503
0.53558,-0.066242,-0.0049018,-0.010185,-0.010129,-0.030053,-0.12945,0.034145
-0.56989,-0.073838,-0.074596,-0.0016858,0.030379,0.049205,0.13506,0.17284
0.00019084,0.012159,-0.01104,-0.039603,-0.092258,-0.09765,-0.14623,-0.18668
0.36093,0.033224,0.029202,0.055422,0.066817,0.083673,0.11899,0.093253
0.3855,0.26863,0.092664,0.040907,0.030526,0.061552,0.046592,0.17389
-0.94331,-0.23612,-0.055335,-0.05993,-0.05319,-0.078409,-0.090917,-0.32986
0.16203,0.057558,0.0068735,-0.0050029,0.018397,0.015087,-0.051835,0.104
-0.20631,-0.14668,-0.0098318,0.026026,0.018488,0.029378,0.023238,-0.040591
0.81706,0.043284,-0.050647,-0.044823,-0.052951,-0.043371,0.048843,0.080726
-0.61377,-0.15155,-0.029359,-0.0063955,0.0073747,-0.0076918,-0.099214,-0.14774
0.67067,0.29483,0.085655,0.047793,0.035753,0.019579,0.1191,0.18242
-0.31635,-0.11514,-0.041164,-0.014888,-0.022031,0.023351,0.0016675,0.02686
0.017187,0.049998,0.059216,0.047835,0.037675,0.027734,0.13532,0.075684
-0.18861,-0.013613,-0.019336,-0.029691,-0.026811,-0.091536,-0.18229,-0.14521
-0.34658,-0.017202,-0.011263,-0.013204,-0.019752,-0.021263,-0.083324,-0.16496
0.19483,0.084818,0.020719,0.01121,0.035701,0.075026,0.1593,0.15866
0.13572,-0.053269,-0.02523,-0.019072,-0.016577,-0.0055423,-0.16499,-0.056254
0.50542,0.13666,0.030339,-0.0025396,-0.012588,0.0025314,0.04549,0.065382
-0.84611,-0.33952,-0.070494,-0.040716,-0.030705,-0.041924,-0.021965,-0.21169
0.61809,0.31381,0.070779,0.093067,0.10834,0.12578,0.26479,0.49351
-0.28495,-0.35682,-0.11592,-0.069811,-0.080369,-0.12057,-0.20474,-0.27479
0.11165,0.13349,0.088495,0.041049,0.011901,0.053635,0.052269,-0.019771
0.38693,0.098468,-0.010981,-0.02748,0.0016999,-0.016921,0.0028272,0.11471
-0.9992,-0.13226,-0.0079289,0.029165,0.036895,0.010551,-0.026641,-0.24919
0.34106,0.21613,0.027276,-0.031439,-0.1095,-0.12229,-0.12343,0.14432
0.39565,0.0039652,0.031808,0.048212,0.10916,0.1314,0.18044,0.0053137
0.40155,0.020651,-0.01831,-0.0056223,-0.010213,-0.016935,-0.060332,-0.08774
-0.93589,-0.14031,0.024727,-0.013468,-0.022024,-0.0038577,-0.0011852,0.046354
0.01084,-0.010825,-0.034958,-0.014436,0.0039452,1.1617e-05,0.039142,-0.04313
0.8156,0.048907,-0.041468,-0.016178,-0.0097125,0.01952,-0.023161,0.34204
-0.25865,-0.13377,-0.026099,-0.02615,-0.038743,-0.053321,-0.10759,-0.26386
0.14676,0.042085,-0.027649,-0.012624,-0.019851,-0.061075,-0.07907,-0.2019
-0.91997,0.029202,0.071557,0.071769,0.094471,0.098646,0.1266,0.068971
-0.0027617,0.061693,0.02208,0.024283,-0.00010761,0.043386,0.14306,0.10439
0.5272,0.10032,0.050961,0.001336,-0.014526,-0.00046171,0.009103,0.11505
0.21263,-0.089435,-0.060276,-0.051848,-0.035091,-0.057002,-0.050087,0.052666
-0.18618,0.0079725,0.0087076,0.0050275,0.0078336,-0.033543,-0.044563,-0.030462
0.30018,-0.076171,0.0077236,0.015217,0.035258,0.021745,-0.039533,-0.14506
-0.4702,-0.099443,-0.032288,-0.014025,-0.0083952,0.013771,-0.045486,-0.067479
0.69532,0.21988,0.028984,-0.0050826,-0.014502,0.0038295,0.076043,0.043663
-0.11262,-0.07061,-0.043044,0.026053,0.0086612,0.053523,0.034731,0.17916
-0.38851,-0.040369,-0.0062254,-0.030143,-0.03274,-0.048549,-0.0055057,-0.16116
-0.49225,0.014642,0.038023,0.021733,-0.021197,-0.044519,-0.082721,-0.085596
-0.0079795,-0.0063215,-0.019385,-0.013309,0.028333,0.050568,0.023835,0.158
0.51354,0.061398,0.032851,0.01367,0.038617,-0.027875,-0.089417,-0.091567
-0.23496,-0.14912,-0.054922,-0.045167,-0.044084,-0.01288,0.072606,-0.0030117
0.51743,0.21356,0.07692,0.045155,0.015429,0.011058,0.12191,0.286
-0.045533,-0.077615,-0.009016,-0.0039367,0.00677,-0.0016463,-0.088028,-0.23784
-0.21107,-0.015651,-0.05498,-0.004644,0.016052,0.035858,0.045252,-0.096585
-0.75348,-0.1328,-0.006495,-0.0037939,-0.027266,-0.032321,-0.041019,0.061516
0.84723,0.14021,0.011113,-0.00941,-0.0065837,0.0044737,-0.027883,0.0010374
0.76536,0.12274,0.059961,0.064013,0.061637,0.051615,0.066841,0.079124
-0.95844,-0.28747,-0.047825,-0.041907,-0.011033,0.021838,0.037386,-0.074588
0.16227,0.17485,0.023389,-0.023083,-0.084813,-0.094198,-0.11889,0.1065
-0.40001,0.0018948,-0.007812,0.010601,0.050633,0.084885,0.072388,0.063961
0.37666,0.11594,0.046082,0.066637,0.082559,0.018961,0.047332,0.12283
-0.72524,-0.34953,-0.13505,-0.12849,-0.16076,-0.15965,-0.12412,-0.3438
0.44621,0.051649,-0.0039793,0.019142,0.0086554,-0.028903,-0.10536,-0.078388
0.22389,0.19529,0.10376,0.056776,0.052467,0.083801,0.081638,0.053359
-0.051492,-0.074224,-0.022393,-0.022932,-0.012939,-0.0079289,0.03262,-0.14086
0.78007,0.31374,0.094397,0.053916,0.094325,0.11118,0.12463,0.39762
-0.84189,-0.30487,-0.092657,-0.024823,-0.031608,-0.010955,0.039086,0.016794
0.39539,-0.031851,-0.02895,-0.024581,-4.7467e-05,-0.045515,-0.10571,-0.15461
-0.91558,-0.054991,0.035316,0.0077725,-0.029964,-0.0078678,-0.059354,-0.082758
0.53552,0.12549,-0.0094907,-0.0060448,-0.028027,-0.015346,-0.0018502,0.084966
0.14465,-0.0060666,0.016085,0.011815,-0.0025437,-0.0058869,0.0034457,-0.066102
0.12824,0.019253,-0.020932,-0.0092972,0.0069632,-0.003512,0.06471,0.14162
-0.12495,-0.040423,-0.0034187,0.016222,0.031401,0.053698,0.086899,0.040868
-0.21772,-0.012871,-0.0016737,-0.021282,-0.030975,-0.069091,-0.17332,-0.11431
0.13055,0.047453,0.031233,0.03426,0.06982,0.057549,0.072303,0.039648
-0.46318,-0.20325,-0.0531,-0.03597,-0.041079,-0.027354,-0.020285,-0.062693
0.84479,0.20333,0.026539,-0.013179,-0.0353,0.0044842,0.025681,0.061303
-0.75816,-0.093091,-0.026869,-0.022243,-0.045347,-0.08102,-0.070392,-0.25279
0.56355,0.20309,0.10674,0.085445,0.1244,0.10708,0.028363,0.042857
0.45004,0.082608,-0.018262,-0.010263,-0.041415,0.0065204,0.002595,0.22359
-0.66934,-0.22925,-0.050571,-0.043605,-0.058274,-0.10135,-0.14696,-0.13788
0.080665,0.016797,0.0096854,0.024572,0.058234,0.088034,0.23623,0.2343
-0.47841,-0.11664,-0.048321,-0.0087935,0.026781,0.043145,0.12071,-0.07976
0.2183,0.074665,0.002352,0.0047906,0.011285,-0.017661,-0.080155,0.038556
0.080437,-0.086987,-0.017372,-0.020539,-0.07435,-0.063509,-0.12511,-0.12867
0.25253,0.010268,0.041678,0.0012641,-0.027109,-0.01652,-0.077509,-0.12791
0.44942,0.13456,0.039578,0.0391,0.067043,0.052972,0.12462,0.25973
-0.89592,-0.016808,-0.0075259,-0.039671,-0.065277,-0.081379,-0.088986,-0.26256
