0.052271,0.057098,0.13303,0.096514,0.079992,0.046265,0.0057184,0.017638
-0.055106,0.0035372,0.54717,-0.090945,-0.039564,-0.034974,-0.018927,-0.031953
-0.030285,-0.0058742,-0.71967,-0.21775,-0.073277,-0.053678,0.0035006,-0.018282
0.049389,0.11738,0.15683,0.33366,0.12014,0.084205,0.026276,0.027713
-0.010614,-0.15479,-0.8177,-0.29523,-0.068087,-0.027346,0.0026112,0.0046284
0.001314,0.040232,0.49736,-0.017299,-0.012526,-0.013186,-0.02061,0.0061828
0.085638,0.080285,0.11975,0.239,0.099474,0.048608,0.03467,0.039964
-0.1012,-0.14974,-0.26741,-0.15822,-0.076005,-0.060752,-0.042608,-0.050663
-0.020222,0.085639,0.38644,0.057005,-0.015995,-0.0054413,-0.0025936,-0.0083538
0.078226,0.099036,0.27947,0.12648,0.060055,0.034692,0.021764,0.010174
-0.032947,-0.22749,-0.10269,0.1038,0.010725,0.0047702,0.0069244,0.012359
0.036254,0.40947,-0.22158,-0.13762,-0.016301,0.006161,-0.008101,0.005804
-0.042934,-0.17906,-0.14963,-0.27918,-0.076282,-0.015999,-0.015496,-0.025134
-0.013264,-0.064569,0.1727,0.17764,0.03361,-0.0071577,0.016035,-0.0021579
-0.03142,-0.25549,0.49251,-0.041601,-0.022551,-0.0064628,-0.022812,-0.026525
0.082001,0.20137,-0.76264,0.04713,0.021143,0.0016777,0.016463,0.04275
-0.016899,-0.24023,-0.29671,-0.0012014,0.016718,0.0016422,0.0088904,-0.0049514
-0.015664,0.21748,0.18767,0.087643,0.027209,0.016886,0.001323,0.010249
-0.039279,-0.0028723,0.27787,0.010148,-0.0093735,-0.022895,-0.0063181,-0.013196
0.029482,0.14594,0.507,-0.02917,0.0011378,0.03854,0.0092831,0.026111
0.01098,0.39815,-0.27954,-0.20852,-0.042506,-0.041019,-0.02232,-0.012744
0.053724,-0.25453,-0.096287,0.2392,0.047426,0.04311,0.0081392,0.02616
0.0094094,-0.054726,0.088472,0.018452,0.036744,0.017535,0.022489,-0.021499
-0.090457,-0.64316,-0.49869,-0.26809,-0.12124,-0.070728,-0.0261,-0.054252
0.0045574,0.027371,0.20459,0.14593,0.0033328,-0.0026769,0.0031442,0.0061424
0.029453,0.12139,0.1436,0.11237,0.074706,0.034545,0.0010882,0.027196
-0.046243,0.178,0.30297,-0.1503,-0.03984,-0.028963,-0.0085263,-0.0062506
0.0048569,0.19618,-0.23866,0.044577,0.011224,0.0025005,0.0058705,0.007862
0.042845,0.29073,-0.30092,0.17224,0.079246,0.051086,0.013305,0.030887
-0.033399,0.067495,0.023042,-0.17523,-0.054923,-0.023751,-0.0094829,-0.015068
0.057409,0.092944,0.31155,0.11759,-0.0012115,0.0043909,4.154e-05,-0.0050044
-0.028932,-0.3702,-0.68589,-0.26348,-0.033683,-0.021143,-0.0051258,-0.0094792
0.019176,-0.33044,0.91996,0.16463,-0.0045121,0.0084183,0.0059797,-0.0054972
0.0051818,-0.41053,-0.13871,-0.11456,0.0076674,0.014236,0.017327,0.022004
-0.0019734,-0.073956,0.33081,0.30488,0.049388,0.0034078,-0.0027976,-0.0056879
-0.073871,0.42091,-0.36132,-0.20185,-0.035736,-0.016854,-0.015778,-0.018771
0.10887,0.5584,-0.3258,0.037794,0.041437,0.039013,0.017099,0.037088
-0.094804,0.016859,-0.14833,-0.014216,-0.054745,-0.071264,-0.037165,-0.049183
0.034027,0.011055,-0.28011,-0.11441,-0.0035185,0.0041038,0.016749,0.019389
-0.011717,-0.54452,0.70392,0.25419,0.039425,0.031241,-0.00064836,0.0087434
-0.035568,0.55822,-0.52084,-0.31345,-0.042519,-0.012613,-0.010889,-0.01815
0.02633,-0.32675,0.59538,0.066343,0.0011616,0.0060822,0.017698,0.0095604
-0.020041,-0.22964,0.33517,0.12826,0.022385,0.0020315,-0.0082256,-0.0091807
0.06848,0.2879,-0.28631,0.059468,0.021285,0.0069267,0.013234,0.019765
0.0033142,-0.29582,0.025642,-0.016017,-0.0022492,0.0053154,0.011964,-0.0049648
0.0031324,-0.17282,-0.51338,0.18161,0.037395,0.028342,-0.0041656,0.010369
-0.018571,0.498,-0.50825,-0.56022,-0.10244,-0.041517,-0.011789,-0.0047541
0.038887,0.23927,0.59304,0.17889,0.030859,0.014015,0.0045679,0.011827
-0.044183,-0.25281,0.78901,0.24167,0.046222,-0.016491,-0.017773,-0.010585
0.02053,-0.046337,-0.17814,0.002817,-0.033206,-0.00062935,0.014778,-0.0020158
-0.10329,-0.2396,-0.80687,-0.12308,-0.012195,-0.0089524,-0.022897,-0.025173
-0.0015219,-0.00054129,-0.070845,-0.056534,0.0078326,0.0053782,0.0019395,-0.0097844
0.037215,0.13586,0.79165,0.10299,0.011593,0.011269,0.011106,0.02084
0.0057529,0.18119,-0.34796,-0.048184,-0.00043205,-0.0066027,0.0045389,-0.011178
0.053157,-0.15849,-0.35305,-0.13236,-0.0277,0.02246,0.021204,0.035084
0.039202,0.11856,-0.096068,0.071598,0.047496,-0.0027156,0.0062845,0.011457
-0.028246,-0.16696,0.49389,0.065318,-0.040056,-0.027111,-0.016925,-0.027189
-0.0010562,0.16375,0.29794,0.052451,0.03802,0.0041867,-0.0094726,0.0051502
-0.028229,-0.14903,0.031029,0.094737,-0.0072889,0.0053255,-0.018268,-0.024393
0.061456,0.13449,0.031698,-0.075452,-0.035507,0.015308,0.011453,0.032468
-0.14663,0.1056,-0.79152,-0.12516,0.015532,-0.012938,0.0017608,-0.019793
0.042478,-0.44074,0.47862,-0.011033,0.020356,0.037468,0.015448,0.021706
0.027141,0.3929,-0.57471,0.11493,0.0018441,-0.044783,-0.009649,-0.015147
-0.04405,-0.13556,0.22771,-0.055068,-0.040585,-0.033523,-0.026335,-0.036813
0.071377,0.13912,0.39542,0.070485,0.033148,0.047442,0.028122,0.026846
0.045586,-0.24202,-0.44329,-0.21266,-0.043027,-0.013135,0.0053737,0.027256
-0.058733,-0.183,0.34835,0.11907,0.058715,0.018899,-0.00091119,-0.012242
0.00847,0.083609,0.47723,0.059191,-0.013299,0.018438,0.0090137,0.01768
-0.010693,0.17579,-0.6397,0.047559,0.022294,-0.014498,-0.019926,-0.023595
-0.022604,0.20221,0.36636,0.11075,-0.037289,-0.025052,-0.01006,-0.026602
0.074211,0.19971,-0.32467,-0.28675,-0.019611,0.0027098,0.03036,0.047906
-0.040516,-0.31946,-0.56546,-0.024183,0.029186,-0.0089137,0.0072435,-0.010732
-0.0071703,0.00041454,0.46197,-0.074979,-0.030711,-0.0047533,-0.017083,-0.01466
-0.059686,0.12515,-0.25362,0.12561,-0.011029,2.8093e-05,-0.026959,-0.025986
-0.0021595,-0.18866,1.0883,0.28167,0.049766,0.037039,-0.0065144,0.0025338
0.05666,-0.29926,0.069377,-0.060417,-0.0042766,0.0049069,0.021222,0.039935
0.023545,0.14057,-0.67346,-0.17603,-0.0091729,-0.002633,0.0020567,0.0082343
0.015976,0.19863,-0.14218,0.12704,0.04242,0.0064034,0.014598,0.0011464
-0.036387,-0.12688,-0.44567,-0.24085,-0.061235,-0.054264,-0.018904,-0.02841
-0.0089033,-0.19783,0.44285,0.091527,0.0069788,0.025899,0.011127,0.0051611
-0.0037662,0.27817,-0.11142,0.097546,0.019459,-0.011305,0.010942,-0.00011024
0.048548,0.16085,-0.31212,-0.053063,0.030007,0.036954,0.011608,0.025688
0.0066181,0.26761,0.71534,0.19363,-0.0010029,-0.0013586,-0.010622,-0.027139
-0.067715,-0.2589,-0.14011,-0.23194,-0.050245,-0.040312,-0.024849,-0.018158
-0.01079,-0.082492,0.5393,-0.0073003,-0.015775,0.013981,-0.0079532,0.013528
0.0054334,0.19528,-0.45645,-0.051076,0.001672,-0.017931,0.00078642,-0.0022948
0.012431,-0.49461,-0.59788,-0.17981,-0.074902,0.0048609,0.0090985,0.0048894
0.018484,-0.093606,0.59566,0.43826,0.16196,0.051364,0.017029,0.019709
0.032007,0.13192,-0.31032,-0.20185,-0.075743,-0.018871,0.0091022,0.0033551
-0.016694,0.12969,0.30425,0.13576,0.03299,-0.018288,-0.022288,-0.012711
-0.033342,0.13113,-0.26814,0.0057613,0.027438,-0.0016446,0.0012044,-0.012718
0.013674,0.17376,0.078516,-0.0073781,-0.022372,-0.00036164,0.0016431,-0.00441
0.0073113,-0.30632,-0.13457,0.02351,0.015684,0.032208,0.002589,0.020019
-0.029077,-0.084886,0.55229,-0.1702,-0.031202,-0.01354,-0.0037383,-0.00982
0.021397,0.099546,-0.58022,0.1352,-0.031204,-0.012782,-0.0017868,-0.0081262
0.0020063,0.14684,-0.35274,-0.37508,-0.039885,-0.020292,0.00045535,0.0092939
0.044985,-0.061029,0.78894,0.23509,0.051477,0.010825,0.01054,0.010984
-0.061197,-0.16742,-0.26536,0.074534,0.00030634,-0.013071,-0.0030917,-0.011075
0.050146,0.55039,0.70981,0.12778,0.056457,0.040993,0.013938,0.021073
-0.066614,-0.42715,-0.77099,-0.31558,-0.053454,-0.022127,-0.016748,-0.025493
0.07284,0.30322,0.24488,0.2685,0.022335,0.016444,-0.0015394,0.013274
-0.031273,-0.37695,-0.64032,-0.025659,0.049759,0.01614,0.012697,-0.010981
-0.089428,-0.373,0.78651,0.11486,-0.10361,-0.046489,-0.04418,-0.027778
0.047427,0.42728,-0.75223,-0.30957,0.00019899,0.00036072,0.023456,0.0099752
0.028366,-0.40181,0.3497,0.15465,0.056992,0.031594,0.012887,0.024374
0.033602,0.55774,0.19096,-0.13242,-0.026456,-0.0075657,-0.0051438,0.0077774
0.024382,-0.16802,-0.35697,0.056772,0.031603,1.5575e-05,0.0088037,0.022774
-0.022682,0.24146,0.62288,0.20782,-0.0027759,-0.0081557,-0.0075095,-0.016572
-0.076526,-0.091384,-0.21998,-0.20136,-0.035519,-0.016381,-0.0071063,-0.040019
0.057822,0.15644,0.2075,-0.10703,0.0038705,0.022349,0.017757,0.0070178
0.044036,-0.25621,-0.61249,0.10113,0.029482,0.014456,0.012171,0.046318
-0.10259,0.054288,0.16864,0.11105,-0.029142,-0.039887,-0.039822,-0.054994
0.023987,-0.13648,0.26647,0.17254,0.030805,0.023519,0.017639,0.015565
-0.0059648,0.1216,-0.67335,-0.2621,-0.048965,-0.021832,-0.011134,-0.0076157
0.057637,-0.16308,0.92515,-0.053591,0.043443,0.034951,0.02198,0.031743
-0.01942,0.11535,-0.60352,-0.023943,-0.012964,-0.0016075,-0.016038,-0.014783
-0.0025952,-0.15275,0.29445,0.1375,0.023305,-0.0067739,0.015357,0.016852
-0.024596,0.042201,-0.26428,-0.14917,-0.028058,-0.0043181,-0.016588,-0.01403
-0.038555,-0.23513,0.21204,0.22395,0.0043565,-0.025837,-0.010138,-0.029386
0.10384,0.53168,-0.3943,0.021444,0.03438,0.045555,0.019346,0.033202
-0.0039107,-0.1908,0.41604,-0.014845,-0.0082434,-0.0090985,0.0018559,0.0017948
0.020736,0.075534,0.5799,-0.0094858,-0.068474,-0.010179,-0.0076213,0.017
-0.12717,0.2418,-0.64528,-0.42997,-0.020705,-0.043546,-0.0088396,-0.046139
0.036609,-0.28493,-0.10299,0.23343,0.057711,0.031641,0.013985,-1.318e-05
0.019879,-0.092739,-0.081094,-0.032633,0.019148,0.028198,0.014031,0.022727
-0.0053162,0.13516,0.28196,0.17245,0.012772,-0.022262,-0.008754,-0.0011726
0.039438,-0.19027,-0.74539,0.069028,0.0078736,0.013433,-0.0076363,0.0065795
-0.040829,0.23469,0.79279,0.0093708,-0.034307,-0.020662,-0.014068,-0.024221
0.012013,0.060912,-0.289,-0.15527,0.011297,0.024111,0.002969,0.015816
-0.012753,-0.24402,-0.16997,0.050487,0.019548,-0.0083703,0.019807,0.0094102
0.033385,-0.15352,0.82816,0.062385,-0.072333,-0.0087023,-0.010634,0.0032383
-0.013724,0.026764,0.13983,-0.14491,-0.014726,-0.00037625,0.0052325,-0.0029791
-0.0058711,0.0093444,-0.80149,-0.018323,0.043496,-0.0069534,-0.0030115,-0.025185
-0.013691,0.085816,-0.2418,0.081715,0.047169,0.010452,-0.0041536,-0.0011821
0.032791,0.42206,0.61336,-0.056021,-0.012005,-0.0030625,0.0018428,0.014104
0.078611,-0.29476,-0.017374,0.108,0.021764,0.038203,0.022903,0.059613
-0.18107,0.0021743,-0.63143,0.0124,-0.055016,-0.069118,-0.042351,-0.07557
0.058467,0.11837,-0.020735,-0.12254,0.023068,0.041935,0.025072,0.014986
0.00051085,-0.089308,0.35235,-0.0060717,-0.017415,-0.0038275,-0.0011161,-0.012139
-0.0030871,-0.23538,0.18178,0.0039937,-0.035597,-0.011227,-0.011262,-0.0080677
0.047991,0.19678,0.082061,0.18226,0.047099,0.027489,0.0026905,0.035496
0.021206,-0.065822,0.17291,-0.12696,-0.034368,-0.020469,0.0096659,0.0018136
-0.01294,0.032408,-0.83546,-0.11906,0.017488,0.001252,0.0019269,-0.015025
-0.038732,0.14222,0.42011,0.2052,0.046937,-0.0087317,-0.012754,-0.014852
0.014177,-0.036703,-0.067142,-0.10855,-0.047243,-0.026758,0.0045328,0.01792
-0.026068,-0.13817,0.67883,0.1335,0.039753,0.017724,-0.0011488,-0.0028821
0.051531,-0.082539,-0.014384,0.093963,0.018761,0.062431,0.024585,0.039532
-0.049786,-0.13174,-0.4582,-0.31424,-0.07143,-0.033091,-0.020139,-0.035017
0.0060872,0.41484,-0.53907,-0.068296,0.026625,0.012519,0.020669,0.0073505
0.0083828,-0.13206,0.32921,0.15203,-0.031215,-0.042866,-0.040656,-0.029097
-0.01935,0.01471,-0.16949,-0.074805,0.0046886,-0.011725,-0.0010266,-0.0040029
0.040059,0.11005,-0.14514,0.10324,0.032463,0.027812,0.030274,0.027856
-0.0010899,-0.38974,0.40301,0.03024,-0.026271,-0.010224,-0.024687,-0.011554
-0.018196,0.18043,0.28773,0.12022,0.06265,0.030355,0.014024,0.010811
0.0038006,0.084913,-0.25857,-0.12729,-0.029068,-0.0068062,-0.0017943,-0.0062966
0.025178,-0.086014,0.41509,-0.0021527,-0.012489,-0.020291,0.006151,0.0077712
0.029668,0.17033,-0.067328,0.12755,0.018577,0.036598,0.0066695,0.006434
-0.061358,0.043232,-0.42865,-0.33261,-0.084294,-0.047272,-0.015929,-0.025724
-0.060668,-0.043491,-0.1592,0.093707,0.038372,-0.0064616,-0.0071326,-0.010477
0.070829,0.17115,0.42206,0.094341,0.050809,0.033873,0.032813,0.044347
-0.018099,-0.39341,-0.28423,-0.032911,0.0079278,0.0033127,-0.0057243,-0.0098042
0.016869,0.044387,-0.20379,-0.044507,-0.050958,-0.012251,-0.0057566,-0.0012299
0.012386,-0.16085,0.71654,0.33459,0.030668,0.010651,-0.014244,-0.0082445
0.0082638,-0.21489,-0.45219,-0.30802,-0.004737,0.017448,0.00013101,0.015876
-0.018265,0.46647,-0.043355,0.060408,-0.016276,-0.054163,-0.0171,-0.030503
-0.019826,-0.0018203,-0.23302,-0.051066,0.0041246,0.022649,0.012522,-0.0067361
-0.019595,0.079258,-0.13457,-0.17287,-0.037057,-0.017439,0.0034359,0.0013455
0.05273,0.030903,0.86447,0.29686,0.063471,0.028984,0.01066,0.02514
-0.0297,-0.063131,-0.14027,-0.14217,-0.053593,-0.017561,-0.020291,-0.021155
0.029463,0.01893,0.25795,0.15757,0.049207,0.01488,0.027787,0.034408
0.0029651,0.17706,-0.29299,0.0072125,0.020145,0.0012239,0.014087,-0.0035148
0.030681,-0.016924,-0.64565,-0.048047,-0.01604,0.019348,0.00076342,0.0055655
-0.044326,-0.4506,0.16009,-0.0098671,-0.0049771,-0.009254,-0.020437,-0.024512
-0.035069,-0.10259,0.053682,-0.15307,-0.064179,-0.03035,-0.026515,-0.015888
-0.043376,0.24718,0.1214,-0.15827,-0.014259,-0.0053352,0.0056225,0.0077406
0.016687,0.071987,-0.034608,0.20068,0.035151,-0.012722,-0.010146,-0.024146
0.090672,-0.0039743,0.42971,0.15818,0.052579,0.056611,0.035558,0.060209
0.014929,-0.30855,-0.30632,0.18331,0.037844,0.0072756,-0.0055157,0.010802
0.047803,0.49399,0.38892,-0.23912,-0.0013744,0.003467,0.031027,-0.00035881
-0.12261,-0.27039,-0.65056,-0.22577,-0.10418,-0.063844,-0.057518,-0.058937
-0.026912,-0.06017,0.1199,-0.065214,-0.020494,0.001194,-0.0050861,-0.0082731
0.023009,0.20927,0.44045,0.39923,0.070247,0.019569,0.032469,0.027135
-0.019163,0.05639,-0.40905,-0.043013,0.0043727,0.007626,-0.014881,-0.014686
0.018849,0.12176,-0.10871,-0.086972,-0.014489,-0.0027302,0.017049,0.015161
0.074713,0.036663,0.17805,-0.029302,-0.017057,-0.011031,-0.012427,-0.00021749
0.046758,-0.23922,0.24181,0.04427,0.036201,0.037602,0.02926,0.040801
-0.073209,-0.17391,-0.23562,-0.076943,-0.034087,-0.021036,-0.022333,-0.026057
-0.04359,-0.068059,0.060525,0.0057915,0.014362,8.5321e-05,0.0042146,-0.021561
-0.029142,0.14108,-0.29754,-0.074425,-0.0061147,-0.001338,-0.008735,0.0067795
0.016313,-0.065875,0.082,0.057594,0.013442,0.0050424,-0.014676,0.003568
0.053103,-0.14289,0.14464,0.050264,-0.0057086,0.0026796,0.0095969,0.022831
0.002636,0.090318,0.35835,0.16111,0.013839,-0.0014056,0.0015163,-0.014052
0.059933,0.29815,0.34663,0.10054,0.06358,0.031324,0.031492,0.02549
-0.11885,-0.020804,-1.0796,-0.46803,-0.099202,-0.063356,-0.040866,-0.069422
0.0054221,0.10581,0.43797,0.032963,-0.013816,-0.011777,0.0035192,-0.0015615
0.018948,0.0065541,0.14169,0.36097,0.030776,0.030407,0.0087608,0.018706
-0.007603,-0.32876,-0.38881,-0.25745,-0.019671,-0.0062735,0.0064529,0.0076762
0.12149,0.29082,0.17732,0.076459,0.03086,0.027561,0.020308,0.044107
-0.16371,-0.24926,-0.47703,-0.12891,-0.035556,-0.046914,-0.043255,-0.035606
0.012102,-0.078877,0.27588,0.11151,-0.015015,0.013111,-0.0044989,-0.012514
0.11006,0.14991,0.3123,0.22031,0.10087,0.06729,0.050568,0.058609
-0.080683,0.0055129,0.24073,-0.27072,-0.046987,-0.048541,-0.03447,-0.05695
0.11177,-0.051225,0.3393,0.02158,0.033522,0.047989,0.029225,0.046564
-0.046941,-0.21426,-0.57641,0.11296,0.006098,-0.026595,-0.00077041,-0.014189
-0.080159,0.37013,0.3947,-0.051366,-0.090768,-0.046465,-0.046533,-0.044335
-0.018941,-0.045839,-0.8454,-0.15916,-0.023354,-0.0044581,0.0089947,0.010563
0.01982,-0.11685,-0.04895,0.14069,0.051469,0.013044,0.0017037,-0.0057661
0.044264,-0.029999,0.049924,-0.050817,0.047261,0.029308,0.025374,0.016247
-0.0078615,0.16687,0.05523,-0.023444,-0.051939,-0.033688,-0.013667,-0.016799
0.01974,0.12006,0.90819,0.43301,0.089666,0.058752,0.017486,0.036124
-0.021612,-0.28269,-0.52028,-0.2837,-0.07475,-0.052289,-0.013903,0.0035009
0.031586,0.25259,-0.016683,-0.16629,-0.029333,-0.0069528,-0.0062287,-0.020679
-0.040243,-0.17473,-0.643,-0.17595,-0.00028241,-0.00014297,0.0014488,0.0027257
0.043169,-0.04201,0.81779,0.085689,0.0050263,0.038704,0.0090987,0.026755
-0.0082048,0.01884,-0.059888,0.25935,0.057332,0.0080695,0.0088604,-0.026925
0.0079833,-0.083299,0.40678,0.095075,0.016345,-0.0062781,-0.0071259,-0.0023446
-0.04151,-0.2898,-0.06789,-0.047854,-0.078697,-0.028119,-0.023264,-0.00917
-0.086361,0.45073,-0.65073,-0.10721,-0.0012414,-0.01102,-0.00049196,-0.024212
0.092644,0.017562,-0.52925,-0.059909,0.061024,0.03676,0.022159,0.046106
-0.027074,0.046726,0.32317,-0.17966,-0.017214,-0.017949,-0.0099447,-0.017047
0.063428,0.086786,0.18598,0.29912,0.0058717,-0.0034637,0.012641,0.020725
0.045091,-0.13567,-0.04243,-0.013883,0.044037,0.033363,0.011866,0.026736
-0.049593,-0.29395,0.61469,-0.078913,-0.082567,-0.032222,-0.020004,-0.037845
-0.016383,0.48457,0.086008,0.003543,-0.022334,-0.035716,0.003048,-0.00081068
-0.041899,-0.38102,-0.27248,0.1333,0.029685,0.031252,-0.012645,-0.018001
0.0072263,-0.033998,-0.3967,-0.16464,0.0036027,0.013014,0.0033054,-0.010861
-0.072012,0.16411,-0.15524,-0.11527,-0.02978,-0.035251,-0.011548,-0.025896
-0.014402,0.016494,0.0025686,0.079614,0.054961,0.050816,0.013111,0.038665
0.21031,-0.094861,0.36756,0.061543,0.031517,0.013447,0.022527,0.04997
-0.016592,-0.013997,0.47926,0.14326,-0.021971,-0.038209,-0.014697,-0.0079359
0.0060887,0.25135,-0.29502,-0.0038584,-0.01979,0.012581,-0.0050343,-0.010649
-0.012715,-0.2751,-0.40759,-0.10756,-0.0014076,0.0011539,0.020002,0.017626
-0.14506,0.25866,0.13628,-0.1383,0.0014365,-0.010628,-0.010157,-0.033275
0.061043,-0.06088,0.40422,0.18322,-0.0039139,-0.015523,-0.0097694,-0.0077466
-0.027525,-0.076767,-0.67375,-0.098031,-0.010004,0.0094944,0.0054503,9.7584e-05
-0.027371,-0.17094,0.2259,-0.053995,-0.024842,0.0095311,-0.019141,-0.02537
-0.077786,-0.029938,-0.039786,0.2048,0.037488,-0.015391,-0.005247,-0.021299
0.19022,0.2378,-0.26887,-0.2363,-0.018202,0.013083,0.016149,0.051999
0.028542,0.070434,0.69348,0.23991,0.042685,0.0094129,0.014104,0.015601
-0.022064,-0.25061,-0.085333,0.0011954,0.025105,0.028792,-0.0032837,0.018698
-0.054149,0.32108,-0.063779,-0.19359,-0.078483,-0.061039,-0.012364,-0.031846
-0.059296,-0.38746,-0.6407,-0.08527,-0.0022049,-0.0095482,0.018224,-0.018454
0.10314,0.30965,0.70429,0.11667,0.058831,0.050902,0.018171,0.051194
-0.059515,-0.19884,0.23188,0.030725,-0.0671,-0.043444,-0.051672,-0.049564
0.045696,0.14784,-0.14951,-0.014013,0.041962,0.035657,0.019492,0.022737
-0.066553,0.082871,-0.5074,0.24854,0.026656,-0.00094643,-0.010687,-0.029174
0.048137,0.051258,0.31913,-0.17382,-0.042763,0.018331,0.021706,0.020833
0.014021,-0.30552,-0.45161,-0.015874,0.0289,-0.024149,-0.00063245,0.023912
-0.091265,-0.14952,0.018747,-0.10629,-0.031956,-0.035183,-0.023092,-0.043709
0.036759,0.014366,0.52418,-0.008079,0.016667,0.031538,0.01679,0.01305
0.070009,0.11913,-0.28051,0.16124,0.010501,0.01144,0.0096328,0.030005
-0.022548,0.41783,0.2753,-0.16883,-0.04285,-0.017748,-0.013303,-0.031924
-0.029671,-0.024867,-0.37323,-0.17023,-0.0029688,0.014052,-0.0051268,-0.00079047
-0.052623,-0.45811,0.36312,0.3287,0.020566,-0.018213,-0.0048931,-0.0014685
0.080689,0.17216,-0.1167,0.10102,0.05883,0.010595,0.010828,0.013072
-0.0046379,0.020214,-0.04954,0.067946,0.025776,0.014839,0.018576,0.011735
-0.0039506,-0.01069,-0.088985,-0.22444,-0.062958,-0.036296,-0.012933,-0.013153
0.012311,0.15404,0.44532,-0.19094,-0.019681,0.037393,0.010026,0.016651
-0.0028783,-0.23132,-0.61106,0.11325,-0.015874,-0.029191,-0.029735,-0.015939
0.0050743,0.041141,0.10874,0.094308,-0.027523,-0.0011913,0.016266,-0.0014507
-0.049734,0.016193,-0.042929,-0.083393,0.03197,0.028011,-0.0081318,-0.0101
-0.010864,0.052305,0.68675,-0.0051665,-0.0086614,-0.019501,-0.0012356,-0.010548
-0.018625,0.071735,-0.51696,0.040659,0.03067,-0.010893,-0.0019641,0.005084
0.060155,-0.041131,0.27655,0.16411,0.087534,0.053667,0.021061,0.036807
0.046075,-0.17443,-0.25671,-0.056255,-0.057125,-0.013648,0.013233,0.0064331
-0.099827,0.010715,-0.82079,-0.20622,-0.052389,-0.05702,-0.041057,-0.04712
-0.033956,-0.14686,0.57749,-0.012431,0.0071423,0.0090099,-0.0090567,-0.022509
0.2042,0.32384,0.182,0.19677,0.019015,0.043368,0.038796,0.080012
-0.010965,0.13495,0.79063,0.0071465,0.013737,-0.0011836,0.016399,0.018013
-0.14107,-0.1199,-0.78484,-0.08912,-0.016944,-0.023315,-0.029548,-0.068055
0.024247,-0.090461,0.61643,0.29896,0.04412,0.015964,0.01019,0.0092584
-0.077847,0.072689,-1.0818,-0.47624,-0.091757,-0.023879,-0.020713,-0.031203
0.036998,-0.13287,0.29149,0.10215,0.013657,0.013643,0.002754,0.013919
0.079988,0.25174,0.16301,0.043459,0.017541,-0.0039509,0.0025501,0.019942
-0.073408,-0.29812,-0.042527,-0.049313,-0.016676,-0.021605,-0.013381,-0.004995
0.022659,0.06129,0.4029,-0.042369,-0.0023484,6.7476e-05,0.0019617,-0.0059543
0.040544,-0.04388,-0.10948,0.15817,0.045208,0.037851,0.009589,0.017176
0.082161,-0.24438,-0.21208,0.13728,0.063317,0.037135,0.048548,0.048721
-0.08666,0.72788,-0.38831,0.010171,-0.026777,-0.025584,-0.014082,-0.036507
-0.03612,-0.52321,0.61411,0.031929,-0.0072592,-0.02548,-0.022217,-0.012206
-0.031765,-0.058519,-0.23957,-0.3394,-0.051001,-0.025274,-0.015089,-0.042691
0.035891,0.47423,0.057481,0.08906,-0.0025567,0.0060845,0.0071946,0.035932
0.010751,-0.089325,0.35868,-0.004467,0.004867,0.013775,-0.0022353,-0.01076
-0.060146,-0.17995,-0.49531,-0.073266,-0.01298,0.013387,-0.0041791,-0.0030021
0.042064,-0.025674,0.45583,0.23536,-0.03985,-0.0028332,-0.021825,-0.0031302
0.10644,-0.010769,-0.63839,-0.1936,0.06586,0.027749,0.046698,0.043735
-0.054667,-0.21447,-0.33117,0.072248,-0.01507,-0.027497,-0.0092449,-0.010686
-0.019675,0.14383,0.14335,0.043387,-0.00044837,-0.035566,-0.0097421,-0.017871
0.0079179,0.087325,0.75126,-0.035925,0.032151,0.019328,0.014053,0.01435
-0.034779,0.14724,0.040268,-0.016241,-0.003205,0.0044576,-0.00041529,-0.0078804
-0.062169,-0.11398,-0.25159,-0.022867,-0.021155,-0.0020826,-0.022093,-0.030054
0.034854,0.022199,0.13256,-0.018376,0.031922,0.022978,0.011214,0.017924
0.045151,-0.10867,-0.030148,0.27577,0.014047,0.0012166,0.0053996,0.018642
0.038874,0.13358,0.26301,-0.15152,-0.037085,0.0025657,0.0069968,-0.004657
0.023698,-0.095135,-0.28046,-0.076909,0.0024357,0.018823,0.00011251,0.018205
-0.062979,0.025514,-0.13647,0.12221,-0.03983,-0.059693,-0.023208,-0.045632
-0.033677,0.089769,-0.73609,-0.18796,0.031541,0.016881,0.0073574,0.022641
0.049219,0.20021,0.91778,0.25903,0.01423,-0.0091837,-0.017407,-0.0033609
-0.024931,-0.82142,-0.078443,-0.26856,-0.012257,0.042111,0.043398,0.032889
-0.029079,0.31547,-0.56228,-0.25883,-0.093079,-0.063124,-0.044269,-0.063573
