0.33757,0.036074,0.057119,0.020656,0.0038254,0.013237,0.0071656,0.0071766
0.093587,0.0863,0.0089832,0.019973,0.010411,0.012728,0.064912,0.08873
0.0185,0.02634,0.033059,0.018924,0.016919,0.02026,0.052656,0.045769
0.22916,-0.018285,-0.027004,-0.013674,-0.015698,-0.0032774,-0.021443,0.011116
-0.74316,-0.14083,0.0077064,-0.023037,-0.024907,-0.034516,-0.079086,-0.13254
0.28968,0.057628,0.073348,0.037867,0.0050015,0.0046095,0.020375,-0.010311
0.0008822,0.030633,0.16829,0.013035,0.011665,0.0046963,-0.012188,0.010626
0.0877,0.020734,-0.12303,-0.065942,-0.012549,-0.010805,0.018431,0.032038
0.08363,-0.034341,-0.23907,-0.034619,0.0028503,0.02065,-0.044129,-0.0082086
-0.21232,-0.040807,0.0075858,-0.033301,-0.012324,-0.025886,0.026582,-0.07063
0.11549,0.024574,-0.038422,0.031878,0.012257,0.013681,0.02732,0.087288
0.036468,0.051977,0.046513,0.04352,0.021777,0.037781,0.10639,0.059379
0.0345,-0.01394,0.014607,0.03228,-0.0074693,-0.031774,-0.11135,-0.037429
-0.040501,0.12294,0.57907,0.19256,0.025707,0.0080439,-0.063534,-0.070931
-0.15991,-0.11623,-0.53944,0.01551,0.019349,0.0086839,0.015359,0.028303
0.087101,-0.12258,0.035383,-0.31221,-0.081556,-0.045576,-0.01537,-0.01415
0.12688,0.064618,0.054137,-0.06444,0.0040745,0.017083,0.094234,0.1602
0.31594,0.054924,-0.22549,0.0012674,0.0028418,0.0013415,0.039451,0.042964
-0.33978,-0.0027305,0.27386,0.081085,0.00092106,0.0087981,-0.046916,-0.29562
-0.41884,-0.084221,-0.11315,0.098159,0.02213,0.01608,-0.039835,-0.011333
0.18925,0.061165,0.0023965,0.022592,0.0043964,-0.00017245,0.0061151,-0.064184
0.13545,0.019929,0.14196,0.0039101,0.0027877,-0.016445,-0.018232,0.21889
0.17321,0.089243,0.0066199,-0.043239,0.0097408,0.0064014,0.020236,0.10467
-0.20157,-0.12934,-0.24151,0.021743,-0.0059146,-0.017495,-0.042209,-0.10135
0.030015,0.027932,0.11473,-0.028291,-0.013017,0.0056917,0.036914,0.0074035
-0.19222,0.013729,-0.0038716,0.00099235,-0.0039733,-0.0099033,-5.5082e-05,-0.053653
0.31247,-0.02402,-0.089967,-0.086866,-0.0025093,0.02953,0.049959,0.11331
0.60636,0.12521,0.21602,0.097672,0.022333,0.022464,0.014807,-0.062825
-0.53043,-0.1638,0.0086523,0.038149,4.4415e-06,-0.031098,-0.03566,-0.020296
-0.53704,-0.039503,-0.14038,-0.054951,-0.022763,-0.021818,-0.02387,-0.12681
0.13174,-0.048615,-0.18241,-0.087905,-0.030379,-0.020094,-0.044116,-0.054445
-0.00206,0.27001,0.31428,0.095911,0.031907,0.028623,0.020363,0.21247
0.36503,-0.1694,-0.117,-0.0028195,0.023602,0.014766,0.013066,0.01004
-0.14319,0.039402,-0.11504,-0.016052,-0.0082606,0.024034,0.035509,-0.013122
-0.036039,0.091605,0.22006,0.010218,-0.0088423,-0.0063256,0.0097108,-0.021034
-0.19047,-0.14577,-0.063996,0.014261,0.0063569,-0.021841,-0.040584,-0.013769
1.0397,0.24129,-0.021711,0.035693,0.013992,0.0086207,0.010063,0.11012
-0.62891,-0.20787,-0.012943,-0.073637,-0.017122,-0.016463,0.037178,-0.12596
-0.26027,-0.031563,0.00031087,0.0065816,-0.008812,0.0046895,-0.036795,-0.0030903
0.020559,0.06825,-0.061574,-0.012987,-0.015738,-0.029103,-0.039428,-0.059914
-0.21446,-0.14917,0.010563,0.0077738,-0.0066544,0.0076362,-0.0015163,-0.05363
0.10049,0.05972,0.082031,0.044743,0.018379,-0.0018062,0.014714,0.11017
0.21209,-0.062081,0.041661,0.02682,0.035787,0.052302,0.056155,0.072609
-0.078022,0.086816,-0.033955,-0.015537,0.0062839,-0.0095756,-0.010292,-0.041171
-0.015796,0.083106,-0.067788,-0.11427,-0.046984,-0.007854,0.010119,0.065401
0.34655,0.11163,0.033395,0.058249,0.024115,0.0024394,-0.031821,-0.045891
-0.38905,0.14543,-0.10527,0.048704,-0.015052,-0.018264,0.01149,-0.02446
0.41625,-0.21755,0.11077,-0.0099569,0.007257,0.031035,0.0065031,0.019327
-0.084803,0.13698,0.042216,0.062436,0.052023,-0.0064094,0.0074227,0.014395
-0.44361,-0.44074,-0.066998,-0.13176,-0.083634,-0.037173,-0.056189,-0.14898
0.13206,0.073458,0.027224,-0.029043,-0.00085236,-0.0066621,0.011242,0.021502
0.23979,-0.083264,0.0064212,0.12168,0.0040248,-0.008487,-0.024065,0.088882
-0.40438,0.14028,-0.080962,-0.053599,0.017466,0.027988,0.033991,-0.03202
0.018728,0.022406,0.023969,-0.015127,0.0086279,0.0094241,0.0065322,0.042373
0.28299,0.020577,0.032593,0.026402,0.0011186,-0.0012819,0.011388,0.007941
0.43717,0.21572,-0.016306,-0.069952,0.010441,0.011789,0.00984,0.060245
-0.13292,0.21788,0.14973,0.13245,0.028376,0.025347,0.048748,-0.0039214
-0.6891,-0.50574,-0.15053,-0.0083043,-0.008184,-0.038731,-0.075354,-0.138
0.14783,0.32277,0.15133,0.029754,-0.013966,-0.0086692,0.019787,0.056038
-0.063425,-0.21494,-0.24352,0.042158,-0.044217,-0.009601,-0.025829,-0.047148
-0.046177,-0.24036,-0.0086752,-0.28449,0.0023146,0.02087,0.0060209,0.013209
0.6077,0.40716,0.12802,0.15899,0.047534,0.012406,0.029092,0.073091
0.18738,-0.071118,0.079985,-0.048742,-0.033182,-0.019303,-0.01132,-8.4208e-05
-0.41829,-0.20648,0.042539,0.046663,-0.0048083,-0.019424,-0.036823,-0.041909
-0.40789,-0.19256,-0.14771,-0.076644,-0.038442,-0.01903,-0.039117,-0.083272
0.51132,0.47369,-0.11453,0.028231,0.04633,0.083594,0.11519,0.15736
-0.0008494,0.030356,0.073329,0.089022,0.046873,-0.023988,-0.049929,-0.030819
-0.54953,-0.22979,0.026946,0.035856,-0.044506,-0.03715,-0.010686,-0.11663
0.23006,0.016587,0.060339,-0.037965,0.006256,0.012651,0.029879,0.048107
0.45422,-0.11145,0.0027363,-0.00091539,0.03439,0.015707,-0.030008,0.080183
-0.24367,0.15991,0.073418,-0.14394,-0.031389,0.0028591,0.059188,0.057293
0.11481,0.16551,-0.094864,0.069935,0.034436,0.020568,0.0077952,-0.04434
-0.7333,-0.32359,-0.065145,0.27953,-0.050281,-0.05651,-0.083245,-0.11547
0.8087,0.44721,0.10708,-0.15686,0.026418,0.037048,0.043393,0.023765
-0.65503,-0.33017,-0.024354,-0.1142,-0.040207,-0.026896,-0.050044,-0.11058
0.34598,0.00537,-0.014788,-0.14588,0.00032235,0.0018397,0.011468,0.11491
0.59338,-0.0090469,-0.16925,0.11776,0.00051221,-0.017025,-0.013991,0.060195
-0.58557,-0.13965,0.17635,0.055009,0.00066946,0.026335,0.038068,-0.016521
0.28379,0.067462,-0.016681,-0.010336,0.017738,0.0073942,-0.0037658,0.041046
-0.37899,0.07516,0.017845,-0.044067,0.021617,0.012522,0.032783,-0.033058
0.29908,0.43293,0.1087,-0.005371,0.028708,0.049868,0.085487,0.080858
-0.55031,-0.66117,-0.10289,0.058923,-0.054474,-0.075654,-0.12677,-0.15701
0.43234,0.099847,-0.15561,-0.01708,-0.0016496,-0.035809,-0.033649,0.0026872
-0.24374,0.12366,-0.018063,0.05219,-0.0089018,0.013161,0.0054425,-0.0029955
0.4785,0.012097,0.26262,0.43406,0.08671,0.047726,0.013888,0.013323
0.15653,0.34231,-0.11887,-0.17307,-0.020779,0.020817,0.085372,0.1065
-0.81646,-0.22362,0.11769,-0.4762,-0.059151,-0.075685,-0.10051,-0.090274
0.0065187,-0.094532,-0.13057,-0.063532,-0.037192,0.0078079,0.042062,-0.029664
0.16472,-0.20279,0.080288,-0.1149,0.013268,0.028613,0.028539,0.10126
0.48465,0.23067,-0.16511,0.23874,0.053028,0.072137,0.030608,-0.0097176
-0.37308,-0.1705,0.054134,0.26629,-0.0035627,-0.033981,-0.061279,-0.073385
0.7195,0.069994,0.026547,-0.03616,-0.015259,-0.040099,-0.02849,0.027429
-0.46945,0.15611,0.15057,0.0068516,0.034386,0.0067645,0.019572,0.011364
0.00087589,0.027117,-0.10454,-0.21144,-0.064689,-0.057339,-0.042033,0.042358
-0.16106,0.099591,-0.019068,0.23205,0.04768,0.017945,0.068066,-0.02809
-0.17357,-0.31102,-0.10737,-0.20192,-0.041988,0.030014,0.014061,-0.035869
-0.533,-0.32669,0.09283,0.047762,0.010345,0.018491,-0.032091,-0.090174
0.47007,0.50065,-0.042247,0.20559,0.064015,0.007282,0.054613,0.13739
0.58568,-0.037911,-0.082097,-0.23065,-0.068825,-0.050221,-0.077478,-0.040383
-0.27985,-0.027348,0.18449,0.049729,0.064377,0.072559,0.0089729,0.025137
0.25498,0.28984,0.038467,-0.0089667,-0.044858,-0.069911,-0.014359,-0.048828
-0.016717,-0.4161,0.20564,-0.086386,0.032552,0.076691,0.032015,0.065658
-0.68769,0.016166,-0.23677,0.037249,-0.0006623,0.035423,0.054198,0.016643
0.45874,0.1144,-0.078494,0.16837,-0.011761,-0.076777,-0.010364,0.053592
-0.44158,-0.13305,-0.15565,-0.40192,-0.12546,-0.088044,-0.060027,-0.19126
0.50297,0.15287,-0.17871,0.23442,0.04163,0.0018934,-0.0086216,-0.030961
0.24533,0.23456,0.32209,0.2426,0.084028,0.084169,0.042664,0.15127
-0.55071,-0.29659,0.33238,-0.064674,-0.013135,-0.074974,-0.16353,-0.12141
0.67024,-0.043342,-0.29515,-0.031895,0.086677,0.17347,0.20137,0.27587
-0.76095,-0.10721,-0.020692,-0.098042,-0.061529,-0.068549,-0.034183,-0.15689
0.098773,0.044338,0.062129,0.0084944,-0.051493,-0.035313,0.020596,-0.091395
-0.10123,0.015202,-0.00022775,-0.15934,-0.0084859,-0.00043879,-0.02498,-0.019499
0.75241,0.58191,-0.0054906,0.25652,0.035777,-0.0033896,-0.01489,0.12181
-0.80266,-0.54885,-0.13444,-0.15862,-0.0052057,-0.0056222,-0.027578,-0.073025
0.18671,-0.11544,0.057103,-0.0063442,-0.0070034,0.023587,0.030396,0.076496
0.63479,0.56568,0.10711,0.12013,0.068941,0.052545,0.11194,0.15719
-0.84213,-0.34548,-0.11037,-0.067522,-0.090267,-0.13781,-0.22832,-0.35352
0.065285,0.013823,-0.11967,-0.27171,-0.031775,-0.00077764,0.064343,0.076286
0.13984,-0.36941,0.086223,0.39857,0.056755,0.065114,-0.0021712,-0.013957
0.30141,0.045255,0.24869,0.17766,0.018991,0.020738,0.040917,0.039677
0.16185,0.187,-0.039183,-0.25519,0.018957,0.045678,0.084081,0.15049
0.041374,0.092075,-0.082503,0.013451,-0.044926,-0.039925,-0.044941,-0.065752
-0.31132,-0.065102,-0.060852,-0.22009,0.022664,0.0059048,0.0048055,0.014003
-0.49087,0.59096,-0.12182,0.02057,-0.051644,-0.10607,-0.12678,-0.073369
0.39455,-0.29965,0.20508,0.25142,0.10731,0.14752,0.1612,0.11545
0.037007,0.36458,0.055201,-0.026592,-0.047027,-0.061271,-0.061386,-0.045885
0.72642,-0.5314,-0.31053,-0.077689,-0.037625,-0.013274,0.033559,0.090787
-0.61821,-0.52092,-0.045178,-0.13459,-0.027901,0.0031385,-0.02224,-0.2626
-1.0511,-0.078293,0.13519,0.13246,0.014138,-0.065838,-0.13405,-0.072524
0.29747,0.13095,0.068088,0.0059993,0.042366,0.085439,0.10577,0.09388
0.49239,0.33479,0.29262,0.049278,-0.0050977,-0.010914,-0.043407,0.05268
0.58118,0.36381,-0.11473,-0.03457,0.012734,0.02853,0.083937,0.15868
0.17037,0.42265,-0.21171,0.14433,-0.021318,-0.069442,-0.058013,-0.031174
-0.34082,-0.76328,0.14617,-0.27483,-0.0060867,0.062118,0.093656,0.046438
-0.15091,-0.42548,-0.099882,-0.083035,-0.043913,-0.069687,-0.10203,-0.24993
0.0074877,0.41907,-0.062683,0.21754,0.090693,0.080923,0.041328,0.13987
-0.41994,-0.14113,0.060264,0.20287,0.02151,0.012612,0.045487,-0.037648
0.083018,0.29965,0.033999,-0.37105,-0.049517,-0.041616,-0.036855,0.096297
-0.012864,0.64555,-0.062326,0.64299,0.048548,0.0029928,-0.0045243,0.014344
0.49182,-0.28509,-0.023264,-0.81009,-0.091062,-0.0027949,0.039353,0.072749
0.033047,-0.31254,-0.10358,0.035822,-0.054288,-0.043622,-0.062363,-0.14431
-0.19359,-0.48012,0.16855,0.34612,0.057828,-0.0019997,-0.051918,-0.16816
-0.79603,-0.50647,0.068939,-0.15075,0.019648,0.013509,0.0089666,-0.036252
0.15716,0.3392,-0.073092,0.19574,0.043254,0.04313,0.02018,0.019985
1.0344,0.58754,0.085932,-0.073456,-0.042094,-0.02902,0.006995,0.18393
-0.10924,0.23914,0.044373,0.066528,0.022328,0.024843,0.065032,0.12331
0.069168,-0.088866,-0.044124,-0.14914,-0.020749,-0.028719,-0.038509,-0.057286
-0.33017,0.18724,-0.21376,0.11562,0.016284,0.060822,0.088031,0.04242
-0.40223,-0.92203,0.19689,-0.27238,0.00030749,-0.042407,-0.078406,-0.15515
-0.16284,0.46598,-0.10288,0.20953,-0.030228,-0.065331,-0.053697,0.021225
0.84255,0.81761,-0.0040343,0.12286,0.080166,0.10074,0.083281,0.13249
-0.49999,-0.80824,-0.036651,-0.09597,-0.044236,-0.021624,-0.03571,-0.21402
-0.24814,-0.10275,0.16894,-0.11199,-0.0055125,0.012054,-0.013364,-0.043866
0.15068,-0.30319,-0.11822,0.050545,-0.030414,0.0057916,0.00086557,0.10196
0.46,0.27629,-0.074094,-0.022991,-0.040636,-0.048576,0.0062269,0.11259
0.13775,0.041531,-0.023392,0.15147,0.026815,-0.057274,-0.021134,0.010505
-0.34409,0.11009,0.067631,-0.16052,0.00073053,0.019135,0.028087,-0.064051
-0.27338,0.021562,0.22356,0.22085,0.069274,0.048451,0.013483,-0.040596
0.036358,0.35428,-0.024745,-0.50106,-0.056133,-0.031137,-0.064527,-0.059089
0.53511,-0.024948,-0.061839,0.3381,0.093445,0.13252,0.1305,0.10807
-0.80564,-0.57793,-0.085765,0.40271,-0.02901,-0.085233,-0.11188,-0.053505
0.78876,0.10838,0.040985,-0.54913,-0.048916,0.00316,0.013379,0.0042763
-0.48622,0.15828,-0.12982,0.13133,0.0097154,-0.00098294,0.014288,0.040204
-0.41197,-0.3892,0.12612,-0.071207,-0.056835,-0.06688,-0.031069,-0.10924
0.98849,0.80265,-0.20035,0.093613,0.047811,0.039245,0.064548,0.14971
0.43593,-0.11616,-0.008116,0.094882,-0.03605,-0.058241,-0.089934,-0.042881
-0.79149,-1.0029,0.24995,-0.19215,0.05081,0.15571,0.16119,0.038577
-0.40424,0.28533,0.019808,-0.048653,-0.027534,-0.077161,-0.10448,-0.075879
0.52402,0.87545,-0.0024391,0.095515,0.057175,0.047587,0.081444,0.12821
-0.75634,-0.42667,0.027669,0.2712,0.023898,-0.055986,-0.10143,-0.13905
0.12481,0.066621,-0.12365,-0.16278,-0.088033,-0.059487,-0.090327,-0.088889
0.21793,0.018458,-0.088684,0.0039744,0.0029438,0.021965,0.068475,0.09935
0.46259,-0.46361,0.093979,-0.096023,-0.0075187,0.024971,0.032046,0.067241
-0.11146,0.28993,-0.20798,-0.08764,-0.017522,-0.010709,0.043445,-0.082281
-0.10445,0.049993,0.24026,-0.001489,0.074786,0.040525,-0.029409,-0.019553
0.48749,-0.10754,0.071856,0.15569,0.011784,0.038441,0.01706,0.06934
-0.50822,0.4563,-0.0020984,-0.036695,-0.026778,-0.0012033,0.057955,0.0057438
0.16266,-0.24368,-0.19257,-0.053992,-0.048793,-0.078528,-0.086644,-0.0067445
-0.28527,-0.40265,0.078388,0.089014,0.031466,-0.0063431,0.0046523,0.047345
0.30182,0.019562,0.16995,-0.013671,0.026198,0.027432,-0.020345,-0.028042
-0.1841,0.32161,-0.26176,0.09066,-0.025883,-0.040148,-0.021675,-0.054411
-0.4086,-0.33034,0.072351,-0.23183,-0.015751,0.063947,0.023479,-0.041036
0.34302,0.36258,0.024074,0.13457,0.03285,0.026888,0.059887,-0.0050744
0.27441,0.51903,-0.031245,0.11012,-0.013123,-0.065614,-0.030083,0.075482
-0.57175,-0.67265,0.086439,-0.22859,-0.028797,-0.0027293,-0.012395,0.019774
0.34041,-0.17328,-0.091406,0.015761,0.024873,0.020245,0.0033624,0.0066988
-0.055943,-0.014497,-0.049214,0.092596,0.0073674,0.0034402,0.048375,0.035961
0.21609,0.62323,0.2048,0.22857,0.067344,0.040835,-0.010055,0.09221
-0.19144,-0.6205,-0.11919,-0.059974,-0.05268,-0.039146,-0.054426,-0.33151
0.22002,-0.082833,0.11068,-0.57655,-0.071046,-0.056492,-0.060798,0.00054702
0.11611,0.43021,-0.098807,0.21925,-0.026368,-0.018709,0.010527,0.082236
-0.27083,0.15167,-0.060932,-0.022957,0.050517,0.097873,0.089933,0.079323
0.16468,-0.29456,0.083302,0.24435,0.050538,0.0043131,0.0062004,0.11043
0.14547,0.59097,-0.056544,0.51325,0.075376,0.059991,0.095813,0.1374
-0.45522,-0.61325,0.043735,-0.29517,-0.085996,-0.078935,-0.086142,-0.23787
-0.6749,-0.25728,-0.15369,-0.40872,-0.043234,-0.07667,-0.10191,-0.14848
1.1794,0.18494,0.11049,0.0073495,0.047001,0.035396,0.0017336,0.06891
-0.83605,-0.50212,0.13464,-0.07898,-0.05013,0.00715,0.0060204,0.038291
0.31434,0.72375,-0.064408,0.25409,0.0086731,0.0025548,0.043545,0.055374
0.51978,0.32567,-0.040594,-0.016302,0.027712,0.052745,0.059178,0.072114
-0.26722,-0.46923,-0.059365,-0.22508,-0.01675,-0.014326,-0.010278,-0.0063049
0.2262,0.32989,0.089824,0.32416,0.05477,-0.027025,-0.064182,-0.15729
0.29593,0.095012,-0.015785,0.069766,-0.015636,0.02216,0.091728,0.11082
-0.82526,-0.79513,0.0053957,-0.12068,-0.024824,-0.0077059,-0.035757,-0.124
-0.56944,0.41299,-0.051154,-0.083213,-0.011706,-0.015317,-0.049002,0.013436
0.56772,-0.073387,0.039748,-0.029271,-0.015064,-0.00080706,0.0046957,0.054866
0.22946,0.18071,-0.074667,-0.022082,0.051434,0.059298,0.047279,0.14938
0.017533,-0.42735,0.15939,0.03915,-0.046127,-0.092589,-0.092554,-0.14764
0.21028,0.57939,-0.11796,-0.049343,-0.0025974,0.020491,0.047122,0.070752
-0.62816,-0.31311,-0.039602,0.18079,0.018351,0.0084201,-0.016829,-0.085475
0.50096,0.11634,0.097931,0.065401,0.048226,0.020173,0.029358,-0.045476
0.40711,-0.098142,-0.048382,-0.10612,-0.045699,-0.021902,-0.016367,0.042767
-0.20974,0.054206,0.022477,-0.19244,-0.013513,0.023155,0.042028,0.054646
-0.0071914,0.22449,0.13983,-0.083088,0.050805,0.05393,0.095443,0.10769
-0.3424,-0.39763,-0.281,0.25447,-0.032744,-0.070235,-0.12189,-0.094691
-0.78649,0.20486,0.1127,0.1106,0.016764,0.017665,0.0067596,-0.075689
0.14911,-0.44406,-0.014164,-0.16991,-0.050948,-0.042019,-0.05831,-0.046069
0.97288,0.64731,-0.020533,0.046274,0.029552,0.039463,0.041612,0.048891
-0.21034,-0.35838,0.062174,-0.19407,-0.023086,-0.019446,-0.0065766,-0.0019503
0.25957,0.28663,0.014411,0.17074,0.025476,-0.00028386,0.023189,0.066475
-0.23996,-0.037515,0.037947,0.068959,-0.012271,-0.012698,-0.025745,0.026617
-0.24869,-0.028713,0.021703,0.17839,0.043332,0.052424,0.049398,-0.036993
-0.39645,-0.15762,0.034246,-0.27645,-0.0030907,-0.00048577,-0.040773,-0.047933
0.53396,0.11409,-0.19929,-0.063076,-0.018826,-0.015409,0.023738,0.11703
0.16187,-0.28313,-0.03126,-0.073542,-0.019601,-0.00033186,0.023895,-0.043636
0.12693,0.01229,0.06959,0.12886,-0.01329,-0.041261,-0.032683,-0.054364
0.53608,0.23802,0.05722,0.036263,0.015749,0.018126,0.010225,0.014324
-0.64384,0.13997,0.019071,0.11804,0.036391,0.029628,0.012197,0.022501
-0.70133,-0.21588,-0.027337,0.14102,-0.0058167,-0.0063682,-0.065356,-0.16891
0.086788,0.024474,0.0058867,-0.41657,-0.032424,-0.011229,0.02048,0.051663
-0.098776,0.018247,-0.12957,-0.021542,-0.03524,-0.031266,-0.0028287,0.10075
0.37979,-0.016651,0.16122,0.054655,0.048607,0.051252,0.053165,0.082278
0.52239,-0.12187,0.034958,0.17321,0.016293,-0.02886,-0.045076,-0.02532
-0.14654,0.21425,-0.078916,0.10896,-0.038266,-0.02134,-0.031353,-0.064662
-0.16564,0.1588,0.02183,-0.16857,0.017732,0.019152,0.055467,-0.051083
0.31526,0.19927,-0.039134,0.17672,0.035653,0.053339,0.035475,0.085227
-0.76252,-0.5744,0.088254,-0.34787,-0.055171,-0.028588,-0.0059942,-0.031854
0.48474,-0.0081739,0.035396,0.1708,0.080745,0.054055,0.016125,0.096178
-0.44492,-0.12569,-0.24569,-0.026364,-0.064879,-0.074332,-0.055386,-0.11041
0.28784,-0.12837,0.0021126,0.051441,-0.039314,-0.047083,-0.065165,-0.10623
0.067323,0.53374,0.13788,0.074678,0.047798,0.041685,0.064248,0.099724
0.32371,0.27056,-0.041484,-0.16889,-0.030204,-0.034769,-0.026887,0.02227
-0.13775,-0.44572,0.16732,0.13213,0.039239,0.043857,-0.0027017,0.0047414
0.15351,0.11405,-0.055789,-0.093382,-0.0093123,0.019853,0.03541,0.039247
-0.44674,-0.40036,-0.030846,-0.04905,-0.0037145,0.01838,0.0096372,-0.053705
-0.38424,0.45643,-0.070035,0.14001,0.017274,-0.0072555,0.045356,0.05441
0.71112,0.2851,0.0067901,0.12249,0.030521,0.021268,-0.0054876,-0.034304
-0.77206,-0.76738,0.044046,-0.14787,-0.088695,-0.10676,-0.14252,-0.20203
0.44714,0.65696,-0.01989,-0.18578,0.019228,0.046426,0.11901,0.24721
0.57947,-0.044363,-0.11369,0.088013,0.0028869,-0.0032256,0.0060329,0.13433
-0.81422,-0.62919,0.13083,0.080923,0.042027,0.0024205,-0.082649,-0.25892
0.12876,-0.088853,0.066021,-0.057605,-0.011846,0.0089493,0.0017244,-0.04939
0.68157,0.7891,-0.24522,0.087159,-0.010475,0.00088649,0.064058,0.15366
-0.73784,-0.72803,0.22039,-0.039251,-0.024461,0.01727,-0.020595,-0.13429
0.71516,0.95472,-0.069067,0.21919,0.039598,-0.020246,-0.0023923,0.14887
-0.28829,-0.84197,0.20558,-0.28652,-0.0061499,0.020766,0.0010999,-0.044345
-0.20986,0.42018,-0.14451,0.24762,0.072387,0.038261,0.059642,0.090026
0.24054,0.012893,-0.026889,-0.37434,-0.11557,-0.054173,-0.022712,-0.026802
-0.4486,0.066678,-0.16907,-0.027846,-0.023105,-0.0069051,-0.019989,-0.067117
-0.058393,-0.28796,0.061342,0.15407,0.021842,-0.031051,-0.041982,-0.046549
-0.06152,-0.037124,0.023854,0.19476,0.03523,0.014055,-0.010728,-0.050567
0.31448,0.0059056,0.15657,0.0082792,0.017444,-0.0041612,-0.019852,-0.039231
0.3203,0.036781,-0.070924,-0.077277,9.427e-05,0.024047,0.056016,0.19949
0.027063,0.088033,-0.071822,0.0005995,0.014697,0.052227,0.053339,-0.036512
-0.018709,-0.041636,0.084225,-0.16423,-0.024539,0.0026517,-0.01169,-0.012159
-0.38213,0.14964,-0.0086912,0.17856,0.0074129,-0.030604,-0.013567,-0.024166
-0.45147,-0.55544,-0.053713,-0.158,-0.061396,-0.078556,-0.11599,-0.057353
0.50688,0.75002,0.073829,0.006461,0.042324,0.054246,0.11873,0.18418
-0.14359,-0.16852,-0.10316,-0.014922,-0.056631,-0.05403,-0.059444,-0.12116
0.42699,0.13335,0.039715,0.090717,0.078987,0.080934,0.052418,0.0096424
0.26584,-0.48621,0.13477,-0.0048519,0.027018,0.029296,0.016454,0.028667
0.23267,0.096688,-0.11517,0.17428,0.021552,-0.021694,-0.011526,0.044769
-0.57696,0.26423,-0.030427,-0.076154,-0.070467,-0.041094,-0.0085271,-0.19188
-0.44755,-0.24137,-0.087303,0.1722,-0.014813,-0.0058045,-0.068667,0.014888
-0.65242,-0.36482,0.089662,-0.50379,-0.03025,-0.0098938,0.042195,0.017953
0.43662,0.84789,0.016606,0.043491,0.016145,0.024483,-0.0041583,0.0766
0.16846,-0.66499,0.029859,0.21228,0.015193,-0.020089,-0.028015,-0.0267
0.49373,0.088906,0.059261,-0.01266,0.037413,0.028084,0.025402,0.060246
0.31488,0.53087,-0.098467,0.033597,0.02045,0.036061,0.070259,0.0013488
0.47733,-0.074838,0.0093909,-0.030706,-0.035661,-0.01185,0.012896,0.045687
-0.30865,-0.17537,0.054168,-0.032699,0.0018211,-0.021881,-0.037227,0.066795
-0.77965,-0.10852,-0.050572,-0.0028994,-0.0078729,-0.032965,-0.079996,-0.17915
-0.67265,-0.29752,0.054264,0.26999,0.028861,0.0098391,0.025399,-0.0060372
0.3854,0.069575,-0.10001,-0.29996,-0.052119,-0.018115,0.021414,0.015065
0.25304,0.21193,0.033911,-0.064611,-0.0085907,0.016397,-0.036937,-0.053306
-0.02277,-0.08019,-0.058825,0.11625,0.034617,0.027832,0.022544,-0.069702
0.65216,0.33559,0.060211,-0.054689,-0.023769,0.0086952,0.043853,0.15477
-0.45642,0.32067,-0.12371,0.26606,0.07443,0.021683,0.011465,0.059214
0.057203,-0.88064,0.31196,-0.20277,-0.061023,-0.050322,-0.06687,-0.08926
0.37954,0.17912,-0.054328,-0.015575,0.0077267,0.011403,0.082083,0.14008
-0.13088,0.13482,-0.097644,-0.031049,-0.00029071,0.0036576,-0.041952,-0.12733
-0.33329,-0.13664,-0.052723,-0.076343,-0.038031,-0.042381,-0.03298,-0.055665
0.12575,0.54592,-0.076352,0.29501,0.074231,0.045119,0.038528,0.16695
-0.67957,-0.67602,0.010586,-0.25961,-0.0073557,0.016153,-0.014939,-0.093173
0.10786,0.072506,0.21539,-0.012759,-0.040844,-0.043334,-0.052623,-0.094805
0.29889,0.14982,-0.0092082,0.17661,-0.0031565,-0.0083616,-0.0039952,0.020595
0.10985,0.31948,-0.14008,-0.066679,-0.0041254,0.0037889,0.053031,0.096165
0.41115,-0.062002,-0.083707,-0.0090886,0.010414,0.031973,0.024808,-0.024681
0.40603,0.12717,0.058127,0.098002,0.039911,0.0055472,0.028454,0.03298
-1.0337,-0.78791,0.12107,-0.07528,-0.017726,0.03346,-0.014414,-0.0979
