0.0085208,-0.051766,0.11049,0.091463,-0.012671,-0.015109,0.0095368,0.022858
-0.16377,-0.038776,-0.05492,-0.08116,-0.03399,-0.0052211,0.0027236,-0.024174
0.13624,-0.16562,0.13708,0.046747,0.023894,0.0051674,-0.018969,0.038872
0.1114,0.19327,-0.12663,-0.11917,-0.011332,0.015642,0.0066808,-0.038133
0.018679,0.2256,-0.034891,0.044971,0.031588,0.01009,0.024603,0.025797
0.013046,0.02485,0.074512,0.13933,0.026955,-0.011967,0.01876,0.035022
-0.44601,-0.29249,-0.073861,-0.11097,-0.049318,-0.019651,-0.034643,-0.096708
0.1323,-0.047648,0.080637,0.0037678,0.021055,0.010292,-0.0030134,0.03664
0.13745,0.14907,0.020959,-0.017248,-0.0042785,-0.00020963,-0.042631,0.028736
0.060812,-0.17961,-0.06621,-0.018023,-0.031376,-0.011799,0.002926,-0.042219
0.089423,0.18469,-0.14977,-0.029499,-0.051893,-0.047424,0.055867,0.019282
-0.057989,0.015396,0.10667,0.042841,0.028699,0.049759,-0.024016,-0.020871
0.040929,-0.093397,0.039869,0.020347,0.055019,0.030343,0.029311,0.032895
-0.034639,-0.00046701,0.025839,0.0056673,0.020038,0.012007,-0.026022,0.016712
-0.22056,0.20901,0.11237,0.030978,-0.0053933,-0.0049319,0.013279,-0.014641
-0.08506,-0.22978,-0.17644,-0.020293,-0.021069,-0.05161,0.0065963,0.016941
0.14747,-0.058208,0.026953,-0.0854,-0.003699,0.028143,-0.014966,-0.029284
0.15076,0.13846,0.0038859,0.13243,-0.016231,-0.015911,-0.028223,-0.020671
-0.081993,-0.029944,0.012091,-0.078106,0.018823,-0.020062,0.044639,0.003526
-0.06659,0.085218,0.1296,0.063776,0.0070163,0.030891,-0.038888,0.0040661
0.17986,-0.23493,-0.15134,-0.083004,-0.02884,-0.0041349,0.017782,0.012044
0.076667,0.2514,0.013262,0.043746,0.035802,0.022848,0.02693,0.042961
0.11282,-0.003255,-0.094824,-0.024837,-0.018017,0.0098786,-0.019393,-0.004824
-0.34756,-0.12449,0.040674,-0.069927,-0.041812,-0.043342,-0.019662,-0.053213
-0.16615,0.090396,0.084445,0.088335,0.042814,0.019286,0.033994,-0.00059678
0.11705,-0.15558,0.013437,-0.057714,-0.02153,0.0024822,-0.022345,0.020334
0.041711,0.12232,-0.00051974,0.085667,0.031251,-0.023224,-0.024416,-0.044916
0.14892,-0.036057,-0.067389,0.010419,-0.017175,-0.018392,0.020189,0.069517
-0.05831,0.12822,-0.05547,-0.018323,0.005354,0.017448,0.0022921,-0.026738
-0.20947,-0.094618,0.16657,0.053473,0.044256,0.053528,0.054846,0.049367
0.16717,-0.15678,0.0033976,-0.13424,-0.064605,-0.026936,-0.064276,-0.045719
0.10495,-0.14395,0.039649,0.035225,0.037926,-0.020569,0.019912,-0.022786
-0.067212,0.115,-0.10036,-0.024285,-0.046894,-0.021065,-0.028601,-0.0067461
0.12668,0.31346,-0.025752,-0.0078874,0.00092882,0.010494,0.024469,-0.0053952
-0.2135,0.13587,-0.079019,0.13189,0.06394,0.08943,0.030609,0.05151
0.2692,-0.0074508,-0.047055,-0.10399,-0.029893,-0.034652,-0.010202,0.0075563
-0.34181,-0.010828,-0.044367,0.090357,0.016289,-0.049637,-0.043216,-0.059388
0.17005,-0.47865,0.033256,-0.06503,-0.055183,-0.0026789,0.0020233,0.21754
-0.1653,-0.20893,0.35972,-0.061111,0.029413,0.012379,0.00072893,-0.30264
0.13617,0.53361,-0.0014865,0.02495,0.043899,0.019096,0.02345,0.051601
0.059428,-0.31838,-0.16784,0.045221,-0.089447,-0.029095,0.03133,0.014316
-0.23018,0.22395,-0.015774,-0.094166,0.012521,-0.038026,-0.061448,-0.0085223
0.2142,0.032956,-0.13345,0.043457,0.0062201,0.039588,-0.0048933,0.10787
-0.20755,-0.15987,0.023462,-0.019999,0.016578,0.032157,0.036786,0.097738
0.44299,0.43058,0.18692,0.37748,0.12139,0.025689,0.039887,0.07054
-0.25579,-0.44344,-0.14499,-0.23508,-0.039244,-0.042499,0.0040764,-0.26243
-0.12464,0.14029,0.00313,-0.094073,-0.098782,-0.00093317,-0.047539,-0.11138
0.14014,-0.038458,-0.017614,-0.068008,-0.010929,0.017049,-0.044899,-0.014346
-0.017355,-0.013853,0.03516,-0.0088053,0.020795,0.010923,0.011866,0.10794
0.073614,0.22586,0.029243,0.02176,0.011902,-0.019696,0.0055685,0.076767
-0.072116,-0.3079,-0.042411,-0.01372,0.025084,-0.035897,0.014427,-0.013647
-0.13449,0.34191,0.00058084,0.082295,-0.048586,-0.021925,0.022941,0.023957
-0.13666,-0.53874,0.064951,-0.039412,0.025878,0.030411,0.039021,0.41517
0.35953,0.36069,0.065003,0.18567,-0.0086925,-0.0033514,-0.077926,-0.5056
-0.15294,-0.085481,-0.092926,-0.12392,0.059207,0.072675,0.04707,-0.12287
0.10779,0.03731,0.075646,0.024562,-0.051278,-0.037905,0.0077042,0.19466
-0.10805,-0.12104,-0.04616,-0.13476,0.027217,-0.014485,-0.024175,-0.13991
0.11336,0.17597,-0.16083,0.12384,-0.017857,0.0023712,-0.0094566,0.08404
0.091683,0.32924,0.09978,0.18195,0.039816,0.028125,-0.0026885,0.53099
-0.19732,-0.79929,-0.27881,-0.36025,-0.097036,-0.031318,-0.050536,-0.81376
-0.19964,0.72255,0.3685,-0.074432,-0.02267,-0.043599,-0.012158,0.11357
0.28758,-0.32962,0.026738,0.030341,0.082653,0.08454,0.1204,0.1815
0.11626,-0.039959,0.016277,0.2498,0.030837,-0.061423,0.0033749,0.25054
-0.24376,-0.17292,0.0084053,0.1923,0.0088159,0.010316,-0.019654,-0.0065914
0.021776,0.099945,-0.13857,-0.19767,-0.038557,0.02606,-0.019319,-0.019106
-0.0067371,0.074896,-0.035265,0.032594,0.013467,-0.014308,-0.050678,-0.40399
0.18097,0.34405,0.012573,-0.069899,-0.030381,-0.0091814,0.034392,-0.02839
-0.26442,0.17843,0.22313,-0.0511,0.056867,0.080724,0.04824,0.29515
0.14313,-0.76072,-0.33318,-0.073362,-0.10685,-0.087949,-0.08719,-0.17568
-0.11919,0.32866,0.031906,-0.095342,0.010748,0.0087843,0.019028,0.19946
0.18236,-0.20369,0.093082,-0.0052496,-0.034558,-0.011239,0.00019009,0.24821
-0.0088946,0.35253,0.015842,0.22232,0.1176,-0.045785,0.013112,-0.33478
0.069473,-0.18168,0.12958,0.15086,0.022556,0.10104,0.089576,0.066829
-0.078784,0.12525,-0.01806,-0.032474,-0.038267,-0.031306,-0.1216,-0.13378
-0.19242,-0.59132,-0.16135,-0.032445,0.01289,-0.0052329,0.020349,-0.28127
0.10731,0.22583,-0.004108,-0.14075,-0.059182,-0.00065719,-0.0081555,0.225
0.27032,0.22693,-0.0086326,0.038053,0.049068,0.052197,0.058099,0.19651
-0.22866,0.17024,0.10442,0.048189,-0.022959,-0.034929,-0.0080722,0.21033
-0.28052,0.45305,0.082913,-0.065111,0.012723,-0.044141,0.026993,0.093604
0.2802,-0.44276,-0.098663,-0.0051731,0.014771,0.039381,-0.0014299,-0.29483
0.010998,-0.5048,0.058093,-0.2003,-0.071734,-0.027173,-0.085992,-0.275
-0.11551,0.33414,0.052365,0.19601,0.011338,-0.0019602,-0.0081008,0.068605
0.31134,-0.27962,-0.3266,0.11714,0.061669,0.044683,0.013682,0.051127
-0.20401,0.65341,0.14116,0.027912,0.017928,-0.027581,0.0032848,-0.011333
0.022152,-0.45138,-0.057935,-0.16981,-0.063881,-0.030715,0.0317,0.32267
-0.085095,-0.036253,0.12548,-0.17691,-0.026286,0.075039,0.084023,-0.45898
-0.015856,-0.065726,0.1235,0.10874,-0.016845,-0.037718,-0.065695,0.036628
0.027479,0.33991,-0.187,0.17798,0.0038304,-0.055855,-0.042063,0.34902
-0.049577,-0.28375,-0.00042337,0.2151,0.12133,0.02886,-0.0403,-0.10159
0.094525,0.082067,0.042401,-0.15172,0.02215,0.0056076,0.017499,0.12655
0.065691,0.30589,0.1121,-0.076249,0.017251,0.006981,0.10738,0.20816
0.21114,-0.29273,-0.0042773,-0.19641,-0.16856,0.063708,-0.076059,-0.65898
-0.11441,0.19738,0.2144,0.30412,0.15057,0.057889,0.11479,0.61413
-0.34493,-0.42369,-0.51521,-0.25651,-0.11247,-0.089334,-0.039546,-0.67106
-0.046216,0.11959,0.055503,0.074814,-0.0050073,-0.058204,-0.1177,-0.0157
0.10021,-0.061637,0.1136,-0.21546,-0.08141,-0.01301,0.0052036,0.26875
0.22697,0.949,-0.051338,0.079463,0.049974,-0.05514,-0.022112,0.21639
0.0073914,-0.39944,0.030726,0.19849,0.10156,0.089378,0.058808,0.07348
0.022407,-0.60108,0.11924,0.013393,-0.042225,0.03849,0.037885,-0.12427
-0.044483,0.063416,0.020501,0.24686,0.088802,0.019558,0.0097615,-0.12271
-0.26709,-0.28575,0.056051,-0.25453,-0.059014,0.0019931,-0.0013771,-0.16861
0.0072948,0.23122,-0.1484,-0.004792,-0.0085917,-0.045059,-0.041926,0.083649
-0.022432,0.323,-0.038012,-0.18316,-0.025528,-0.019961,-0.025798,0.071874
0.35702,0.17428,-0.019321,0.1787,0.030439,-0.0010817,0.093715,0.53698
-0.10369,-0.28954,-0.014776,-0.13121,-0.060045,0.0032641,-0.074443,-0.8205
0.10988,0.0032708,0.14682,0.041868,0.030442,0.015832,0.0081975,0.45699
-0.17704,0.3178,0.066432,0.071131,-0.0034688,0.028052,-0.0027725,0.23306
0.20332,0.19902,-0.061026,-0.0064059,0.017311,-0.0076726,0.048278,-0.464
-0.46457,-0.37872,-0.11843,-0.075784,-0.024889,0.0018366,-0.050092,-0.12824
0.24463,-0.26069,0.027325,0.14976,0.033626,-0.0062463,0.022095,0.21655
0.12445,-0.42355,-0.17787,0.10554,-0.018348,-0.078813,-0.079065,-0.084784
-0.1472,0.43114,0.21199,-0.26494,0.053396,0.081311,0.07613,0.11845
0.29689,0.040448,-0.029072,0.052772,-0.048087,-0.033121,0.034701,-0.10843
-0.18201,0.063609,0.052282,-0.066657,-0.057138,-0.022951,-0.054675,0.26074
-0.19764,0.3387,0.049539,0.19773,0.10452,0.042247,0.011421,-0.25633
-0.44876,-0.59482,-0.0067985,-0.17596,-0.070662,0.01465,0.077073,0.36475
0.59257,0.92536,-0.047478,0.048903,0.019237,-0.011606,-0.10735,-0.60286
0.078477,-0.81549,0.012339,0.038974,0.0074488,0.010456,0.013231,0.36282
0.23767,0.47437,-0.062557,-0.10166,0.011591,0.033788,0.032973,0.12664
-0.2422,-0.38236,-0.069384,0.035278,-0.030453,-0.0748,-0.071193,0.029615
-0.058295,0.00035765,-0.078207,0.052481,-0.0090243,-0.018914,0.029137,-0.12621
-0.17491,0.057272,0.23205,0.0046863,0.021322,0.060343,0.084083,-0.37414
0.26318,0.092744,0.0030952,-0.062289,-0.017581,-0.0092815,-0.03144,0.18319
-0.23242,-0.46132,-0.1155,0.29493,0.084986,-0.01707,-0.036486,-0.008916
0.37426,0.94636,0.18188,-0.17603,-0.054144,0.036945,0.029393,0.40997
-0.24643,-0.53,-0.19802,-0.00086056,0.002106,-0.065844,-0.04534,0.05111
-0.20353,-0.47022,0.0026083,-0.16552,-0.051361,0.026401,0.019952,-0.66122
0.13007,0.32632,0.080068,0.0014066,0.042952,0.024958,0.052876,0.23654
-0.17183,-0.019786,-0.052611,0.0085071,-0.011994,-0.022962,-0.032834,0.067208
0.28546,0.2891,0.10321,0.060809,-0.0052544,0.007894,-0.018493,0.12971
0.044874,0.0086526,-0.024243,0.082781,-0.0069822,0.00046478,-0.021069,-0.10583
-0.10954,0.49363,-0.0065979,-0.055692,0.061223,0.017229,0.03805,0.072008
0.089043,-0.48868,-0.063499,-0.055563,-0.019057,0.011156,-0.04359,-0.087152
-0.070917,-0.18675,-0.02334,-0.10323,-0.067798,-0.049243,0.0081933,0.0014591
0.12704,-0.058751,0.028422,0.26977,0.087158,0.046703,0.069073,0.11737
-0.14873,-0.42776,0.046126,-0.071106,-0.085246,-0.029358,-0.079226,-0.030502
-0.081937,0.26868,-0.023112,0.019677,-0.014628,-0.019755,0.055671,-0.1551
0.17515,0.22044,-0.013085,0.38236,0.1427,0.0051585,-0.0029374,-0.10196
0.11179,0.43159,-0.03101,-0.5958,-0.074393,0.014187,0.010139,0.12749
-0.20322,-0.40568,-0.075055,-0.018879,-0.025542,0.015253,-0.03856,0.28231
-0.27754,-0.036968,0.1841,0.065195,0.0077163,0.0084837,0.022103,-0.26295
0.078018,0.11917,0.035884,0.11799,0.040786,-0.03727,-0.011699,0.31209
0.23361,-0.021299,-0.098399,-0.0067371,-0.012366,0.042107,0.00010943,-0.42947
0.31004,0.010824,0.02985,-0.0088284,-0.034483,-0.011196,-0.036557,0.0056512
-0.13428,-0.050903,-0.026711,-0.033031,-0.0097187,-0.0097263,0.050082,0.29084
-0.36172,-0.012863,-0.12201,-0.076015,-0.015882,-0.031689,-0.036732,-0.26751
-0.11217,-0.072537,0.10876,0.075445,-0.0057896,0.0087497,0.015764,0.12129
0.25613,0.06469,0.054149,0.06274,0.036361,0.0099098,0.012599,0.028772
0.086663,-0.3142,-0.0061329,0.22089,0.07146,0.018537,0.00099464,-0.16942
0.11219,0.82033,-0.010397,-0.18687,-0.033625,0.034506,0.028147,0.20629
-0.091905,-0.5174,-0.036765,-0.062345,-0.037257,-0.028221,0.0084039,0.29574
-0.12279,-0.1485,-0.037557,0.036168,0.036451,-0.013437,-0.057967,-0.31637
0.070644,0.082926,-0.0034863,0.12122,0.077488,-0.02265,0.0011869,-0.14695
0.00089825,0.16913,-0.042021,-0.42629,-0.21927,0.014616,-0.0013408,0.12327
-0.14671,-0.076962,0.083244,0.18231,0.08356,0.0048707,-0.010572,-0.11555
0.048751,0.032853,0.077262,0.15132,0.025279,-0.0046931,0.0049758,-0.050756
0.0017404,0.030733,-0.050792,-0.12624,-0.042007,-0.029398,0.021968,0.14644
0.25289,-0.019762,-0.018933,0.048094,0.077741,0.05597,0.024688,0.12537
-0.25005,-0.21904,0.024483,0.036898,-0.028792,-0.037588,-0.034054,-0.15222
-0.012015,0.23092,0.047729,-0.016514,-0.001614,0.041382,0.048349,0.025017
0.055792,0.018689,-0.07506,-0.0088682,0.026849,0.026985,-0.01781,0.1492
0.05736,-0.25338,-0.079308,0.060341,0.0020151,-0.042078,-0.022247,-0.12403
-0.060351,0.14165,0.010484,0.041997,-0.045015,-0.0099264,0.0032551,-0.045623
0.054895,0.031801,0.0058661,-0.042082,0.018232,-0.025279,-0.027545,-0.015107
-0.089431,0.15858,0.093562,-0.084674,-0.027428,0.0054859,0.033776,0.16185
0.13045,-0.18223,0.030828,-0.0098786,0.020695,-0.0035259,-0.039066,-0.24198
0.017405,0.094014,-0.0029466,0.047616,0.029436,0.041629,0.012239,0.1013
-0.047818,0.025187,0.031323,-0.046236,-0.024863,-0.015019,0.0086144,0.051309
-0.10618,-0.1004,-0.12378,-0.0028384,-0.00945,-0.016921,0.0053388,0.0071205
-0.026293,-0.040657,0.0013126,0.037442,0.0054497,0.051794,0.041929,-0.045987
0.097364,-0.013694,-0.014138,0.0050905,-0.003396,-0.03528,-0.01419,0.033617
-0.016472,-0.065179,-0.059427,-0.0050587,-0.0044704,-0.004655,-0.038017,-0.089071
0.015597,0.040709,0.0073168,-0.023161,-0.0053234,-0.0048138,0.0093025,0.055413
-0.10235,0.055218,0.15572,0.084475,0.041117,0.0031966,0.033675,0.053387
0.076041,0.10398,0.042305,-0.033193,-0.02131,0.011423,-0.035602,-0.024836
0.075052,-0.00075969,-0.052124,-0.0010442,0.010485,0.0041017,-0.019189,-0.0077442
0.012358,0.060175,0.027587,-0.0068051,-0.012075,-0.011062,0.035799,0.025906
-0.057304,-0.066571,-0.024787,-0.035306,-0.0032608,-0.0028806,-0.019164,-0.018392
-0.063943,-0.031423,-0.17185,-0.0089627,-0.002348,-0.026057,0.0113,-0.055425
0.15596,-0.07041,0.084922,0.032672,0.013932,0.036617,0.01801,0.0627
-0.046585,-0.0047047,0.025732,-0.0044998,-0.009192,-0.0023166,-0.037818,-0.031476
-0.17978,-0.076288,0.0094829,0.012179,-0.01701,-0.0021941,0.015992,-0.033238
0.068771,0.098931,0.02067,-0.026634,0.014032,0.013571,-0.015606,0.026453
0.01958,-0.0081953,-0.018197,0.012058,-0.0018255,-0.017517,0.015997,0.0074269
-0.0066163,-0.035807,-0.012349,0.0035218,-0.001892,-0.0017194,0.017097,0.019568
0.10788,0.12782,0.0081998,-0.012902,-0.0016434,-0.0015522,0.0032237,0.0086417
0.0041557,-0.039009,0.021298,0.017693,0.022421,-0.0014056,-0.010213,0.021847
-0.075307,-0.012084,-0.018745,-0.006145,-0.015679,-0.0012902,-0.0078789,-0.04221
-0.013219,-0.018281,-0.0015902,0.017133,0.01672,0.014411,-0.0057091,0.0039991
-0.0049723,0.042627,-0.01253,-0.0063494,-0.013411,-0.0089999,-0.011788,-0.03491
0.035163,0.0044789,0.042468,0.0013444,-0.0047432,0.0065862,0.020567,0.036247
-0.010269,0.028866,-0.016383,-0.0068515,0.019091,-0.0013504,-0.0024853,-0.017055
-0.016534,-0.16787,-0.095793,-0.007627,-0.020132,-0.0093895,-0.018434,0.00033763
0.00051735,0.092011,0.13941,-0.016625,-0.013019,0.013714,0.027504,0.017943
0.048534,0.01825,-0.061753,0.0053278,-0.0063031,-0.010146,-0.012952,-0.0034822
-0.044458,-0.022276,0.026178,0.019389,0.023683,0.005015,0.024455,0.0061826
-0.036318,-0.052452,0.0036944,0.010218,-0.0009196,-0.0032253,-0.016316,0.0076882
0.041684,0.030518,-0.044178,-0.02971,0.0060691,-0.0035185,-0.010058,-0.0069312
0.0098461,-0.013898,0.0069352,0.0092054,0.0057537,-0.011388,-0.011269,0.0013001
0.032212,0.066069,0.023974,0.0098848,-0.0096171,0.020125,0.011456,-0.030111
-0.039672,0.045469,0.014925,-0.0042693,-0.00103,-0.0026883,-0.012099,0.00050296
0.020767,-0.019733,-0.019635,0.021248,0.0079362,0.0060909,0.035277,-0.00041769
-0.028585,-0.027119,-0.024123,-0.023237,-0.014167,-0.008307,-0.0027301,0.022044
-0.0235,-0.030916,-0.052147,-0.0052781,-0.0050557,-0.0069572,-0.016895,-0.0022037
0.067535,0.047132,0.05363,0.012261,0.0038245,0.0099691,-0.0074326,0.020751
-0.059833,-0.074334,0.028492,0.0056506,0.020138,0.011048,0.0019666,-0.0027629
-0.0068154,-0.05187,0.044892,-0.0018399,-0.018699,-0.011674,0.0032424,-0.018066
0.015944,-0.0031705,-0.029838,-0.025844,0.0044878,-0.0035889,0.019628,-0.001794
0.016418,0.14915,-0.02412,0.011915,-0.0040001,-0.0037598,-0.011499,-0.0087426
0.025836,-0.0099847,-0.0089414,-0.0054692,0.010631,-0.0042919,0.0035943,0.0078512
0.012729,0.018168,-0.00086308,0.0004793,-0.0061625,0.002773,-0.013115,-0.0067973
-0.031092,-0.10374,-0.032178,-0.0011386,-0.0073449,0.0097985,0.0010833,-0.0058903
-0.0045249,0.06041,0.036735,0.021206,0.0072413,-0.0064878,-0.01603,0.026135
-0.040831,0.017315,0.064426,0.012982,0.0064807,0.00090382,0.006153,0.0032858
0.031514,-0.030525,-0.059027,-0.0023577,-0.0017191,0.0085732,0.0053776,-0.011993
0.0013778,-0.012764,-0.021321,-0.024928,-0.017313,-0.0069644,-0.002603,-0.0041249
-0.0062552,-0.045829,0.021478,-0.0080566,0.014377,0.016673,0.036874,0.0034181
0.0322,0.043569,-0.0082243,0.016763,-0.00046191,-0.0066098,-0.0013682,-0.0049941
-0.023612,-0.0552,-0.01587,-0.013201,0.00056147,-0.014464,-0.0082427,-0.0058894
0.014147,0.081756,0.0073067,0.0034245,0.0016837,0.00081605,0.0081172,0.024248
-0.033866,-0.05156,-0.00024068,-0.0038022,-0.0050573,0.00013819,-0.046305,-0.023842
0.0045134,0.030509,0.016977,0.0041189,0.0036379,-0.00081746,-0.0075856,0.0062336
0.020098,0.031595,0.028239,0.019372,-0.0035859,-0.0019236,0.014924,0.0052437
0.0051198,-0.048674,-0.020947,0.0029469,0.0044666,0.0047997,-0.0020386,-0.003248
-0.017087,0.030704,0.017707,-0.0059925,-0.0034501,-0.0039183,0.027739,0.0042781
0.023552,0.072637,-0.059349,-0.022921,-0.011648,0.0032984,-0.012631,-0.019033
0.0095272,-0.026468,0.012906,0.014851,0.019047,0.026509,0.0099149,0.012702
-0.0048126,0.028376,0.06194,-0.017465,-0.0049752,-0.012429,0.0017794,0.0056087
-0.035376,-0.17828,-0.037827,-0.010293,-0.0054463,-0.012034,0.0020562,0.014195
-0.019831,-0.053323,-0.005555,0.020889,0.0021305,-0.011483,-0.0049571,-0.0086178
0.026179,0.090918,0.0023356,0.0058282,-0.0056054,0.012536,-0.011601,-0.00051412
0.0012123,0.02876,-0.029704,0.02259,0.018236,-0.010387,-0.010249,-0.016307
0.030502,0.089662,0.00017062,-0.0071204,-0.012335,0.0056258,-0.0010797,-0.0013401
-0.010662,-0.013945,-0.017009,-0.013241,-0.011496,0.013689,0.015764,-0.0024181
-0.012612,-0.0072422,0.075426,-0.0038606,0.020591,-0.0017876,0.0011214,0.011873
-0.0063481,-0.037598,0.0043763,-0.0026537,-0.0021897,0.0061467,0.0096357,0.0026929
-0.0073225,-0.026222,0.012216,-0.0019591,0.0059341,-0.017096,0.010059,-0.0062876
0.023605,-0.01194,-0.049474,-0.01744,-0.0098393,-0.01672,-0.021,0.0085671
0.00047355,0.005092,-0.032384,0.0056613,-0.010485,0.0073635,-0.02096,0.0005057
-0.029957,0.02439,0.032011,0.020612,0.0040492,0.0083274,0.0024667,-0.0070079
0.033694,0.037419,-0.0050037,0.0041472,-0.0051623,0.017399,0.018131,0.0015777
-0.0040994,-0.026987,0.0047236,0.0032938,0.0011373,-0.0045858,0.0026664,0.002666
-0.010726,-0.013438,-0.0093957,-0.0052832,0.015348,0.0046974,0.010783,-0.011769
0.013667,0.022644,0.0070742,-0.0059196,-0.0092166,-0.017471,-0.0044318,0.012733
-0.0012908,0.018268,0.0070437,-0.0064442,0.0056919,0.0068128,-0.004007,0.013474
-0.024307,-0.011105,0.037231,0.0087154,0.0054263,-0.00074984,-0.011504,-0.0018612
-0.0083786,-0.088728,-0.027428,-0.015193,-0.01006,-0.0011828,0.0042011,-0.025488
-0.00020616,0.035874,0.00062413,0.0077147,0.0059897,-0.002274,0.003945,-0.0026385
0.015996,0.0039651,-0.019022,0.014913,-0.0012677,-0.011701,-0.012324,-0.0034498
0.0012492,-0.066643,-0.046933,-0.0013987,-0.0085554,0.0020096,0.0022772,0.0035567
0.025835,0.13698,0.042382,-0.0021019,0.0074343,0.015687,0.024379,0.018609
0.011471,0.028996,0.015094,-0.018355,-0.0080614,-0.0016547,-0.0083964,0.0028154
0.004786,-0.015848,-0.011101,-0.0031653,-0.00036573,0.0048845,-0.0099511,-0.0046908
-0.05699,-0.068413,0.065744,0.020145,0.0071335,0.004183,0.0042734,0.011672
-0.0021929,0.019067,-0.043246,-0.0030224,-0.001095,-0.011542,-0.0046015,-0.010742
0.012834,0.027252,-0.064677,-0.01014,0.0063133,-0.011108,-0.01298,-0.0096406
-0.011851,-0.098871,0.04805,-0.0090749,-0.0095935,0.013152,0.010492,0.006946
0.033326,0.039186,-0.03367,0.015657,-0.001856,-0.0014603,0.0033393,-0.0080355
-0.0075975,-0.003459,0.017661,0.024776,0.0061319,-0.0082908,0.012366,3.3391e-06
-0.02493,-0.0073368,0.1076,0.025847,0.0065534,0.0080725,-0.0016541,0.0076244
0.020663,0.036202,-0.053546,-0.059488,-0.0084535,0.0083936,0.00010423,-0.000703
0.019984,0.034169,-0.044391,-0.012634,8.9888e-05,0.00037882,-0.0060649,-0.0013746
-0.011289,-0.012929,-0.021377,-0.0055027,0.00083251,-0.0003633,-0.0047883,-0.0019999
-0.010727,-0.042449,-0.0077857,0.0088765,0.0014885,-0.0093732,0.0037462,-0.010195
0.0058732,0.023477,0.020329,0.030712,0.0019807,-0.018658,-0.011802,0.0054413
-0.0085906,0.020174,0.016888,0.0055979,0.0022668,0.011097,0.0032732,0.021543
0.00032913,0.017093,0.06097,0.0041468,-0.01328,-0.0057659,-0.0055981,-0.0009677
-0.014453,-0.10392,-0.096478,-0.020244,-0.0055626,0.016945,0.0086459,-0.0075049
0.032849,0.039045,0.0062427,-0.020493,0.0098532,0.009095,0.014974,0.0017725
-0.021902,0.015572,0.033624,0.011318,0.0095943,0.0019988,0.005787,-0.028006
0.0087972,0.012758,-0.014353,0.0048674,0.0015252,-0.012216,-0.010923,0.020174
0.0078447,0.038393,0.0024269,-0.0087324,-0.0065152,0.0053414,-0.0037735,-0.0022592
-0.0011695,0.053816,0.012681,0.0093175,-0.0067163,-0.01589,-0.011754,-0.0016412
0.028834,-0.088601,0.030725,0.019591,0.00089708,-0.0058807,-0.011411,0.0063701
-0.097231,-0.15335,-0.0073958,0.021674,0.024104,0.019471,0.01283,-0.0016516
0.042727,0.071805,0.014153,-0.055142,-0.02306,-0.0025607,0.013978,0.0055885
0.019169,0.033431,0.0084334,0.031033,2.6738e-05,-0.0018146,0.0074795,-0.0030923
-0.0037973,0.10748,-0.15,-0.024616,-0.00035916,0.013837,-0.0068929,-0.0041755
0.020608,-0.018108,0.03125,-0.018884,-0.008536,-0.018067,-0.0059454,-0.0053857
0.0062137,-0.030996,0.045234,0.0329,0.014635,-0.011461,0.0022915,0.001177
-0.031689,-0.017882,0.057373,0.0062041,0.0067303,0.018233,0.0020473,0.0077807
0.023716,0.027856,0.022428,-0.012469,-0.0087523,-0.0068638,0.0011001,0.0066802
-0.015393,-0.020164,-0.073581,-0.014743,-0.0083508,0.0072492,-0.016079,-0.0098876
-0.016403,0.0086398,-0.02613,0.0076558,0.007916,-0.0095206,-0.0023964,-0.0028311
-0.0027686,-0.042935,0.017284,0.015939,0.0087359,0.013293,0.0033967,-0.0033904
0.010061,-0.034708,0.010133,0.0023203,0.0018242,-0.010178,0.0016437,0.0040527
0.03025,0.080325,0.061499,-0.0021837,-0.020748,0.0059769,0.0082817,0.011667
-0.027667,-0.064377,0.014255,-0.0058491,0.0034022,0.0069607,0.0079045,0.0038049
0.0087033,0.071265,-0.078221,0.0063301,0.0038643,-0.015212,0.00059614,-0.019555
-0.008601,-0.011566,0.040371,0.018058,0.011824,0.0017506,-0.0058943,0.0040755
-0.024537,-0.030497,-0.0064294,-0.049399,0.003825,0.0029553,0.011676,-0.0034257
0.023562,-0.03935,-0.032294,0.030082,-0.020104,0.0038494,-0.025102,0.0048293
0.034075,0.10297,-0.037936,0.014114,0.0026127,0.0043095,0.00063907,0.005419
-0.024534,-0.041047,0.015526,-0.050355,0.0017728,-0.011345,0.01047,-0.0016483
0.019139,0.012523,0.058107,0.0245,0.00094066,-0.011846,-0.0036624,-0.008571
-0.015175,0.0050495,-0.034468,-0.018621,-0.0075769,0.010698,0.012779,0.00023814
-0.026505,-0.04105,0.035647,0.024006,0.015371,0.017359,-0.010565,0.0090889
0.023713,0.029427,0.011692,-0.0032906,-0.00048917,-0.0073297,-0.011147,0.010082
-0.0054732,-0.050045,-0.019406,0.017141,-0.00048388,-0.00069583,0.0033459,-0.0046904
0.0030156,0.055844,-0.04902,-0.00035148,-0.00030002,-0.0016402,0.0096508,-0.0040629
