-0.0013407,0.0013154,-0.019377,-0.01986,0.0010951,0.024159,-0.019205,0.0063293
0.0078837,-0.0050276,0.037599,0.035601,0.0099871,0.010157,0.0041752,-0.0033324
0.016997,0.0044785,0.062089,0.10683,0.011124,0.065913,0.019224,0.018506
0.0024306,0.029562,0.030762,-0.017216,-0.019145,-0.082311,-0.0051475,0.0017679
0.0031363,-0.0081949,-0.079382,-0.086483,-0.0029091,-0.044028,0.0015738,-0.0065301
-0.02001,-0.046545,-0.1271,-0.092992,-0.018464,-0.014473,-0.015099,-0.0063516
-0.012311,0.015915,0.10698,0.041617,0.012231,0.022261,0.015319,-0.0055725
0.010696,0.022906,0.17018,0.075363,0.018883,0.050975,-0.0086215,0.011292
0.0022924,-0.025468,-0.046676,0.10988,-0.006193,0.017449,-0.00093767,-0.0028186
-0.021707,-0.011804,-0.12186,-0.11279,-0.023719,-0.031032,0.0070911,-0.0012283
0.024812,0.02511,-0.047984,-0.0070858,0.0056316,-0.00044949,-0.00025206,-0.015372
0.0013356,-0.016024,0.010268,-0.034493,0.0040009,-8.6798e-05,0.0081514,0.017103
0.0094359,0.036868,0.10688,0.08559,0.026302,0.001226,0.00091305,0.0023437
-0.0056777,-0.011434,0.084941,-0.038072,0.0023696,0.011086,-0.0064538,0.0028041
-0.0051417,-0.0047029,-0.15758,-0.11687,-0.036501,-0.025489,-0.021819,-0.01276
0.010794,0.00226,0.097866,0.16928,0.019006,0.0083698,0.0095141,0.0025826
-0.020611,-0.021956,-0.093839,0.047049,-0.018758,-0.020441,-0.0061373,0.0020516
0.0098537,0.016247,-0.068082,-0.19412,0.0062338,0.020653,0.0094522,0.0013954
0.00058164,-0.0082166,0.11349,0.094878,0.031223,0.006484,0.017319,0.00074845
-0.0014445,-0.0015897,-0.071579,-0.11638,-0.022182,-0.00054853,-0.0059113,0.00023926
-0.0037863,0.036246,0.049514,0.047988,-0.0057772,0.0073334,-0.013356,-0.0078402
-0.0060872,-0.042935,0.094612,0.19813,0.017772,-0.0010936,0.010557,1.2517e-05
-0.0079504,-0.0044864,-0.084468,-0.024788,-0.014102,-0.017932,0.0032322,0.015999
0.0066067,-0.0043824,0.027705,-0.19863,0.00020835,0.0038344,0.011432,-0.0067983
0.0065739,0.0044704,-0.030389,0.043719,-0.0094531,-0.0059238,-0.050878,-0.013788
0.023265,0.069054,-0.056471,-0.079344,0.0040343,0.0076917,0.034995,0.010516
0.00186,-0.029422,0.096979,0.18941,0.0097159,-0.0019845,0.01905,0.0034493
-0.011077,-0.033337,-0.063039,0.1227,7.5654e-05,0.012104,-0.036158,0.0039125
-0.015972,-0.0055152,0.18168,-0.2724,-0.024638,-0.0046035,-0.0055398,0.0039585
0.010155,0.030196,-0.22373,0.0034278,0.02949,-0.0051716,-0.029617,-0.027741
-0.0034118,-0.0047774,-0.0447,0.051296,0.021892,0.0025767,0.09482,0.018189
-0.017882,-0.032753,0.078627,0.050702,-0.024033,-0.0048661,-0.0071773,-0.006606
0.013519,0.00056017,0.021867,0.048644,0.00096772,0.011453,0.031595,0.01523
0.0049276,0.016717,0.051182,-0.024775,-0.020459,0.0045322,-0.17169,-0.0098241
0.0034413,0.054565,-0.13004,-0.21579,0.0052568,-0.017932,0.070463,-0.011194
-0.021874,-0.026607,0.14997,0.2342,-0.007999,-0.0013417,0.054904,0.01137
0.007449,-0.039214,-0.06239,-0.18184,0.002111,-0.0082521,-0.023071,-0.0044321
0.021401,0.017018,0.16967,0.25548,0.043246,0.023816,0.055255,-0.0038091
-0.011055,-0.02149,-0.092012,-0.25813,-0.033178,-0.014512,-0.085182,0.01322
0.011741,0.056874,-0.12904,0.16807,0.014892,0.017399,-0.01479,-0.00037653
-0.0039754,-0.012699,-0.066223,-0.012995,-0.02359,-0.021071,0.016307,-0.0058171
0.0041906,-0.041839,0.08165,0.073256,0.038824,0.026328,0.093918,0.012149
-0.018598,-0.045363,0.011277,-0.065885,-0.00096072,0.0033375,-0.032064,-0.0093904
-0.017807,0.016406,0.013401,-0.040323,-0.041256,-0.035361,-0.041371,-0.016134
0.022066,0.096894,-0.035374,-0.24899,-0.011527,0.0039802,-0.0042536,0.0072512
-0.00062215,0.0006936,0.037976,0.10449,0.0025695,-0.01145,0.0013526,0.013752
0.0078458,-0.01489,0.093224,0.074186,0.024758,0.027719,-0.0086156,0.019048
0.00059244,-0.028842,-0.049816,0.22959,-0.0072356,-0.00353,0.0052927,-3.2729e-05
-0.0067436,-0.026618,-0.033113,0.0071453,0.023882,0.019763,0.020025,-0.074281
0.0014772,-0.0015486,0.086672,-0.03958,0.016508,-0.0040149,-0.011003,0.062527
-0.013802,0.0062719,-0.14583,-0.27086,-0.029528,-0.02022,-0.0095604,-0.02646
0.0099135,0.042938,0.14225,0.26612,0.026149,0.0023885,0.00079064,-0.090662
0.010108,0.0064618,-0.019491,0.040691,-0.035468,-0.01427,0.043125,0.16719
0.010204,-0.025056,-0.37418,-0.44557,-0.019256,0.0080387,0.0075228,-0.03406
0.0023906,-0.0043652,0.32805,0.11441,0.0043932,-0.00084015,0.0027376,-0.030576
-0.036744,-0.055762,0.0018471,-0.034444,0.012085,0.013962,-0.088983,0.028661
0.0022347,0.040416,0.039009,0.055645,0.0039543,-0.002078,0.052301,-0.028987
-0.0055923,-0.027375,-0.0042769,0.26905,0.019232,-0.0019718,-0.042247,-0.024673
0.025794,0.054188,0.10018,0.34038,0.003376,0.0065016,0.088551,0.048654
0.0026946,0.004392,-0.27886,-0.46591,-0.012292,-0.007965,-0.023528,-0.020486
-0.012402,-0.0047211,0.063097,0.082339,-0.012173,-0.0064548,0.028479,0.0020676
0.0038554,0.042263,-0.013581,-0.25193,-0.027643,-0.020436,-0.37188,-0.016348
0.012252,-0.050471,-0.0083918,0.20072,0.058287,0.05139,0.37754,-0.051801
0.0047823,-0.025761,0.20356,-0.0066061,-0.012422,-0.017815,0.042614,0.1074
-0.018738,0.0063952,-0.18313,-0.15554,0.0022142,-0.009549,-0.072113,-0.084735
0.011873,0.022117,0.24437,0.035984,0.016143,0.029135,0.11875,0.099207
-0.020601,0.029066,-0.21858,0.12439,-0.056553,-0.042463,-0.22156,-0.05884
-0.0067029,-0.081964,0.059429,-0.13817,0.010867,-0.0055493,0.023278,-0.042861
0.014693,0.03323,-0.00067282,0.062791,0.007793,0.0072294,0.063489,0.029984
-0.010848,-0.038792,0.14,0.28327,-0.0028502,0.019571,-0.070066,-0.0047178
0.010691,0.054172,-0.22877,-0.39832,0.0028176,0.00054086,0.02107,0.039847
0.009214,0.015737,-0.14451,0.24381,0.017353,0.012968,0.11074,0.053392
0.008288,-0.0054485,0.027552,0.043935,-0.013715,-0.013159,0.0043395,-0.0041272
0.00012314,0.006096,0.21899,0.093694,0.042441,-0.0151,-0.27385,-0.1492
-0.023165,-0.036055,0.016898,-0.35118,-0.048749,-0.016125,0.22229,0.062881
0.024231,0.06266,-0.18814,-0.12037,-0.0063977,0.022906,-0.03783,-0.047768
-0.021895,-0.058006,0.21959,0.26979,0.028405,0.016048,0.016425,0.089365
0.010218,0.030808,0.065403,-0.016427,0.016124,0.010087,0.12724,-0.064224
-0.020112,-0.046534,0.025453,0.014178,-0.027999,-0.026377,-0.15885,0.093833
0.0043011,0.0065234,0.041561,-0.13685,0.013003,0.0080333,0.001382,-0.029308
0.0053725,0.01033,0.0018426,0.24317,-0.017134,-0.019694,-0.0098486,-0.073404
0.0065794,0.019962,-0.53197,-0.20355,-0.024471,0.0074381,0.088182,0.079448
0.0079246,-0.018601,-0.01951,0.243,-0.00085734,-0.0045005,-0.033013,-0.054664
-0.0062797,0.012665,0.23775,-0.088246,0.015032,-0.0009957,-0.1158,-0.0068258
0.010706,-0.0025453,-0.083954,-0.087578,0.039145,0.0334,-0.0039614,0.019674
-0.019436,0.03032,0.097935,-0.12224,-0.037736,-0.0265,0.083767,-0.0068763
0.012462,-0.067807,0.16181,0.033928,0.026503,0.022241,0.053614,0.10033
0.0046595,0.023747,0.17168,0.067737,0.012811,-0.0080393,0.10858,-0.05796
-0.0038737,0.023793,-0.099697,0.09541,0.014478,-0.008073,-0.13433,-0.029394
-0.01311,-0.028845,0.016957,0.014198,-0.039315,-0.0013093,0.035618,-0.0020848
-0.015077,0.021591,-0.10705,0.018098,-0.00054452,-0.0032673,-0.10038,-0.023234
0.021757,0.041624,-0.045746,0.012068,-0.025662,-0.01372,-0.081216,0.024338
0.019622,-0.0085237,-0.0049586,-0.34872,0.049478,0.037967,0.077889,-0.093475
-0.036743,-0.027931,-0.23563,0.27878,-0.087258,-0.05877,0.12753,0.13158
0.0092147,-0.017057,0.044513,-0.14474,0.041278,0.024554,-0.056655,-0.026576
-0.0064012,-0.030811,0.033477,0.19346,0.021697,0.030417,-0.020985,0.026162
0.010148,-0.05356,0.062955,-0.065376,0.026502,0.013679,0.0083151,-0.045969
0.027407,0.055485,0.17547,0.0093205,-0.014172,-0.0099953,-0.007749,0.061668
-0.009682,0.069964,-0.0015637,0.051405,0.0014254,-0.025059,0.016564,-0.026159
-0.0078323,0.01346,-0.029934,-0.29743,-0.00492,-0.016054,-0.020707,-0.067585
0.032496,0.050073,-0.051447,0.19038,0.013337,0.024626,0.067443,0.015201
-0.053107,-0.078057,0.27483,0.12508,-0.038042,-0.028236,-0.11009,-0.0045668
0.00083945,-0.081913,-0.10178,0.16356,0.02008,0.036102,0.0088557,0.060581
0.014746,0.085445,-0.34931,-0.52184,-0.047188,-0.0012796,0.11944,0.0702
-0.042304,-0.099166,0.075737,0.33472,0.048799,-0.023332,-0.10637,-0.084693
0.033306,0.099101,-0.15696,-0.14955,0.026519,0.032334,0.05826,-0.083215
0.0077424,-0.014428,0.014292,0.032953,-0.036021,-0.014055,-0.050333,-0.02626
-0.0013412,-0.032798,0.26963,0.077077,0.0096463,-0.02193,-0.033337,0.09465
0.014151,0.029003,0.055799,-0.11948,-0.047264,0.0008646,-0.23429,-0.048077
0.015196,-0.023899,0.28898,0.15324,0.066926,0.0387,0.58111,0.28023
-0.021847,0.050823,-0.27831,-0.12152,-0.045933,-0.049028,-0.26721,-0.26418
0.0041882,-0.028288,-0.018184,0.39886,0.059769,0.058041,0.11069,0.060607
-0.016565,0.01948,-0.27908,-0.45052,-0.02194,-0.015016,-0.20004,-0.22248
0.0013542,-0.017613,-0.042078,0.064284,-0.056449,-0.049335,0.026483,0.2375
0.01852,0.0079222,0.063139,-0.087779,0.0033039,0.017743,-0.006968,0.064901
-0.019934,-0.0064449,0.20316,-0.038776,0.048079,0.014547,-0.0034302,-0.13152
-0.0046004,-0.061573,-0.019054,0.23589,0.038908,0.035073,0.084527,0.046201
-0.0055707,0.029382,0.099497,-0.028104,-0.024146,-0.021967,-0.054679,-0.035063
0.0087527,0.03947,0.096072,-0.048324,-0.01603,-3.9595e-05,0.072228,0.0073986
-0.00030359,-0.00015081,-0.24354,0.10577,-0.053878,-0.047319,-0.11965,-0.068516
0.014476,0.03573,0.092057,0.059632,0.0029782,0.00045104,-0.043605,0.13586
0.0064386,-0.0086399,-0.065681,-0.37417,0.03735,0.026155,0.16788,-0.16822
0.014711,-0.070007,0.02929,0.46038,-0.0055528,0.0062472,-0.016629,0.18362
-0.023293,-0.022426,-0.14145,-0.484,-0.0009846,0.0029007,0.042832,-0.019294
0.0015995,0.033566,0.19429,0.010879,0.011562,0.0077664,-0.084418,0.035724
-0.0046167,-0.0026233,0.075985,0.51461,0.054947,0.043594,0.022411,-0.10432
-0.026571,0.057253,-0.32268,-0.46589,-0.012091,-0.03878,-0.051669,-0.064356
0.013652,-0.052052,-0.03026,0.15425,-0.033866,0.010024,0.013105,-0.19596
0.0065335,-0.018119,0.10455,0.31134,0.0048924,-0.036931,-0.0020767,0.42264
0.0066773,0.080372,0.029379,-0.22229,-0.083347,-0.031236,-0.042119,-0.099497
0.01405,-0.023158,0.22195,-0.12713,0.022055,0.027457,0.0030916,0.0028031
-0.0025985,0.021671,0.033568,0.13559,0.017047,-0.0086292,0.017215,0.064882
-0.011988,-0.0050935,-0.0842,-0.34785,0.019637,0.017609,0.20409,-0.17947
-0.014059,-0.10444,0.10851,0.21257,0.054103,0.021107,-0.22496,-0.035367
0.030351,0.043378,-0.15622,0.060373,0.027389,0.033842,0.16751,0.10646
-0.02705,0.024222,-0.22363,-0.13112,-0.12257,-0.076554,-0.34557,-0.019347
0.017053,0.010431,0.2031,0.4362,0.041853,0.02595,0.43808,0.033165
-0.016805,-0.090857,-0.3354,-0.15868,-0.018612,-0.0026571,-0.2013,0.014926
-0.0033941,0.10431,0.093494,-0.2122,0.031525,0.016752,-0.092812,-0.21361
0.018433,-0.012258,0.29034,0.11169,0.05883,0.028749,0.14565,0.23928
-0.0058605,-0.025478,0.10247,-0.21831,-0.031113,-0.0065096,0.0060326,0.046382
0.0097354,0.049713,-0.31119,0.016458,-0.098278,-0.058441,-0.03478,-0.057232
-0.0051157,-0.075493,0.29271,0.37064,0.044411,0.0053332,-0.12429,-0.094653
0.011971,0.044024,-0.12542,-0.16363,0.068642,0.01281,0.12177,-0.042453
-0.040754,-0.022012,-0.059899,-0.28176,-0.080206,-0.02802,-0.052668,-0.033829
0.023976,0.069296,0.12672,0.37539,0.027837,0.023896,-0.028641,0.2039
0.0027939,-0.026756,0.0089522,-0.15351,-0.0052418,0.020681,0.046856,-0.025652
0.020479,0.0092788,-0.15867,0.11532,-0.01491,0.0019748,0.065267,-0.012895
-0.032513,-0.065411,-0.073831,-0.02976,0.069564,0.022948,-0.19217,-0.2202
0.023409,-0.047978,0.043663,-0.3708,-0.017157,-0.017644,0.31274,0.31204
-0.038333,0.053846,-0.032442,0.3258,-0.064021,-0.057181,-0.16381,-0.073425
0.0167,-0.0095679,0.16026,0.082727,0.014837,0.02928,0.18864,-0.0020744
0.016759,0.051374,0.038048,-0.053769,0.039502,0.022786,-0.25701,-0.036219
-0.014563,0.026276,-0.12323,0.0017567,0.017457,0.016799,-0.096196,-0.33126
0.040086,0.0015059,0.03791,-0.27444,-0.020408,-0.0046151,0.25599,0.32508
-0.030097,-0.069561,-0.00057617,0.22695,-0.0040978,-0.033925,-0.16941,-0.096859
-0.037518,0.00063588,-0.12891,0.0060779,-0.09007,-0.040085,0.034411,0.22466
0.017852,0.008882,0.11318,-0.069429,0.073176,0.031476,-0.069026,-0.21718
0.026603,0.056563,0.20067,0.44644,0.063851,0.032288,-0.0097885,0.046695
-0.011373,-0.044017,-0.17334,-0.65628,-0.094398,0.0014373,0.2209,0.14875
0.036577,-0.011762,0.0044264,0.20177,0.051846,0.024914,0.029768,0.0099967
-0.025045,0.0048125,0.09137,-0.0014043,0.010711,-0.045655,-0.083233,-0.16751
-0.040163,-0.0021016,-0.2105,0.14194,-0.053442,-0.030517,-0.040467,-0.0019127
0.030167,-0.024627,0.19263,0.062859,0.039306,0.054772,-0.061322,0.021867
-0.0015922,0.062319,-0.23704,-0.34698,-0.046851,-0.024089,0.20531,-0.11179
-0.010381,-0.030274,-0.012845,0.13948,0.016221,-0.0092107,-0.26399,0.0038721
0.027384,0.010074,0.063282,0.0064008,0.064337,0.029166,0.062679,0.088441
-0.020901,-0.035489,0.072101,0.15909,-0.027734,-0.010463,-0.032233,0.10371
0.016871,0.090678,0.10925,0.10377,0.013139,0.020381,0.007499,0.073762
-0.030962,-0.04913,-0.05894,-0.34125,-0.071174,-0.050158,0.027101,-0.10276
-0.00018242,-0.06447,0.1138,0.24385,0.047181,0.020103,0.066638,-0.051068
0.023334,0.044545,-0.030482,0.029221,-0.030413,-0.0032399,-0.092446,-0.15457
0.0082858,-0.011151,-0.12692,-0.26747,0.00066818,-0.003051,0.20534,0.18749
0.0092029,0.081048,0.095628,0.12694,0.04672,0.05185,0.083398,0.0055275
-0.036655,-0.10834,-0.16136,-0.41988,-0.024933,-0.041737,-0.27291,0.025368
0.050126,0.092829,0.015609,0.35092,0.012469,0.020817,0.16549,0.05121
-0.066644,-0.096424,0.02557,0.39363,0.018537,-0.033944,-0.28282,-0.29213
0.026924,0.0038066,-0.16111,-0.20475,-0.029912,0.0049566,0.04535,0.10484
0.01045,0.042058,0.16863,0.025216,-0.03106,0.012619,0.15792,0.12532
-0.022258,0.026085,-0.030011,-0.33799,-0.00030367,-0.034249,-0.084672,-0.097388
0.038344,0.033785,0.29907,0.40888,0.054715,0.059818,-0.0010207,0.12475
-0.018438,-0.068013,-0.23438,-0.42164,-0.022178,-0.025368,0.12183,0.065639
-0.036077,0.0015314,0.02516,-0.01693,-0.012281,-0.016315,0.067021,-0.22751
0.032562,0.06237,0.075988,0.42785,0.037349,0.032251,-0.17179,0.09712
-0.015452,-0.10446,-0.13096,-0.27461,-0.068905,-0.051684,-0.10164,-0.11652
0.046544,0.016686,0.074011,0.13354,0.090454,0.051972,0.12125,0.1786
0.0076117,0.011986,-0.052912,-0.043144,-0.024026,0.022636,0.12895,-0.064274
-0.05422,0.038161,-0.21559,0.077745,-0.014234,-0.054023,-0.22049,-0.024759
0.0093339,0.041142,0.2816,-0.24658,-0.036623,0.0092788,0.28219,0.01585
-0.028469,-0.048704,-0.04445,0.10814,-0.0052926,-0.021953,-0.13822,-0.14575
0.05095,-0.0041633,-0.012138,0.078683,0.033005,0.024158,-0.13158,0.27915
-0.025997,-0.09815,-0.041181,0.039466,-0.0074248,0.014918,0.13715,-0.084925
0.021821,0.091515,-0.051513,0.083933,0.0065227,-0.010397,-0.035304,-0.0041599
-0.0088077,0.025784,0.10664,-0.18627,-0.0030065,-0.01246,-0.085852,0.013078
-0.0085611,-0.030036,-0.0037822,-0.20814,0.011053,0.0011867,0.010113,-0.22115
0.006922,0.024977,0.11672,0.12078,0.017535,0.0073331,0.019662,0.050703
-0.0013879,0.0024401,-0.072267,0.30938,-0.022634,-0.0094965,0.037901,0.18015
0.0056591,0.026367,0.083559,-0.14124,0.038917,0.028876,-0.02799,0.0032745
-0.0030421,-0.029162,-0.33981,-0.23807,-0.063503,0.0052236,0.20509,-0.042112
0.0039559,-0.024205,0.09317,0.20678,-0.0017919,-0.033689,-0.15389,0.060085
-0.01999,-0.045024,0.013811,-0.080217,-0.010275,0.0057508,0.073847,-0.17389
0.011293,0.025646,0.17907,0.21287,0.0049065,-0.0093975,-0.15973,0.077035
-0.0035606,-0.0070808,0.0028668,0.038327,0.082944,0.045787,0.24594,0.040259
-0.0097594,0.037129,-0.037694,-0.089087,-0.018244,-0.039648,-0.27218,-0.08027
0.008292,-0.0050976,-0.10549,-0.38876,-0.040807,-0.015658,-0.057731,-0.15109
0.011338,0.015239,0.1215,0.23282,-0.062918,-0.0071611,0.17909,0.29688
-0.0087896,-0.018737,-0.042166,0.064868,0.07934,0.032794,-0.17773,-0.025557
0.033374,0.025802,-0.15682,-0.35317,0.01856,0.03393,0.2559,0.013824
0.0044976,0.031426,0.01381,0.61967,-0.0033352,-0.035042,-0.089344,-0.031268
-0.025565,-0.056945,-0.02897,-0.29003,-0.033485,-0.0023636,-0.095797,-0.083879
-0.018052,0.0024805,0.15268,0.1126,-0.0096016,-0.0088366,0.26758,0.0032932
-0.012088,-0.017109,0.19081,0.092295,0.02914,0.023463,-0.031273,0.018424
-0.0074717,0.0014796,-0.033604,-0.54741,-0.026621,-0.0072049,-0.26699,-0.1015
0.019667,0.0038627,-0.20279,0.40336,0.018574,0.00060597,0.13728,0.057475
0.015223,0.029673,0.094609,0.37359,-0.014712,-0.031254,-0.092918,0.14401
-0.0045602,-0.021912,0.10636,-0.5508,0.0066426,0.014475,0.018427,-0.091457
-8.0248e-05,-0.040747,-0.29374,-0.205,-0.010806,0.012944,-0.028697,0.10946
0.013405,0.044126,-0.035252,0.26401,0.01913,-0.004401,0.2037,-0.080769
-0.010832,0.006535,0.078602,-0.071587,-0.0049626,-0.013924,-0.049184,-0.16942
0.0052547,0.010585,-0.090376,0.36833,0.018512,0.015788,-0.18483,0.078359
-0.0010956,0.040331,0.24188,0.10888,0.019171,0.03796,0.10232,0.12385
-0.0068214,-0.045484,0.070081,-0.43472,-0.018749,-0.025495,0.008146,-0.032773
-0.0045183,0.0023025,-0.14315,-0.11362,-0.064159,-0.033966,-0.0062576,0.006909
-0.0023633,-0.035962,0.14954,0.017212,0.023417,0.012507,-0.11309,-0.030768
0.0071906,-0.020491,-0.16197,0.26153,0.0094835,0.012317,0.34312,-0.099325
-0.0072454,0.024597,-0.032599,0.19601,0.018937,-0.026756,-0.20114,0.13667
-0.0066231,0.044145,0.12902,-0.16546,-0.010833,0.020265,-0.028216,-0.049892
0.0091419,-0.055846,-0.14837,-0.18405,0.021601,0.020554,0.0017018,0.05143
0.016755,0.060526,0.17216,-0.056611,-0.0089285,-0.0024651,0.021088,-0.020676
-0.014873,-0.005023,-0.20767,0.012641,-0.016659,-0.025374,-0.04007,-0.063257
0.008149,0.0056585,0.13362,0.32009,0.060773,0.014308,-0.1574,0.009701
-0.015635,-0.047547,-0.03773,-0.23571,-0.089177,-0.031872,0.20956,-0.0045884
0.015402,8.1289e-05,-0.048327,0.080265,0.064838,0.039205,0.085858,0.16008
0.023169,0.032122,0.18989,-0.043468,-0.039425,0.016606,0.043267,-0.081499
-0.031378,-0.036566,-0.21916,-0.12911,-0.018755,-0.04497,-0.49533,-0.18944
-0.023223,-0.0099481,7.5724e-05,0.25431,0.01014,0.0029292,0.26724,0.11043
0.016404,0.01875,0.052255,-0.14211,0.0086634,0.0040585,0.14295,-0.040698
0.0093908,0.0028724,-0.030779,0.049671,0.016222,0.036527,0.16954,0.13084
-0.0052114,0.028202,0.20364,-0.14643,0.0017059,-0.04034,-0.19399,0.11709
0.0037858,0.00045892,0.050972,0.17593,-0.0037496,-0.0078811,-0.090359,-0.21524
0.0050079,0.012571,-0.27995,-0.030354,0.022943,0.016594,0.12698,0.094085
0.013894,0.024513,0.35703,0.28895,0.042204,0.040757,-0.22289,-0.041649
-0.0088406,-0.042749,-0.30573,-0.46047,-0.071533,0.0019772,0.086324,-0.099677
-0.024356,-0.033631,-0.20701,-0.05263,-0.037517,-0.052956,0.086571,0.021107
0.021867,-0.018724,0.1294,0.035374,0.011106,-0.014676,-0.11904,0.062671
-0.010868,-0.068187,0.00087592,0.20925,-0.011721,0.0075236,0.065264,0.032806
0.018126,0.15445,0.18985,0.17929,0.065956,0.013804,-0.0068585,-0.091837
-0.0081412,-0.021896,0.088385,-0.30527,-0.021264,0.019996,0.15068,0.23575
-0.019037,-0.010439,-0.06773,0.12967,-0.0074671,0.0028722,-0.24236,-0.11713
-0.014168,-0.021355,-0.12892,-0.024582,0.021698,-0.021773,0.16573,-0.14251
0.022487,0.016192,0.14778,0.020356,0.027415,0.024291,0.022667,0.073815
0.0053147,-0.030398,-0.21378,-0.056116,-0.013564,0.00046988,0.0067792,-0.030414
0.0048088,0.04188,0.020884,0.043128,-0.069855,-0.038581,-0.11798,0.021637
-0.0024721,-0.0252,-0.015596,-0.28266,-0.039804,-0.0070068,0.029585,0.027136
0.0067178,-0.013511,0.082565,0.32715,0.053196,0.016955,0.128,0.11134
0.03204,0.091854,0.072441,-0.0087307,0.091946,0.048801,-0.1748,-0.092747
-0.044104,-0.10823,0.054634,-0.18726,-0.04863,-0.028782,0.058885,-0.07725
-0.011168,0.041974,0.043713,0.12089,0.0063381,-0.012778,-0.34199,0.040604
-0.0022526,-0.04376,-0.21129,0.033661,-0.024556,-0.0048172,0.35806,-0.13778
0.013767,0.040845,-0.031334,0.14506,-0.024257,0.0028968,0.011667,0.22324
0.0056935,0.0070417,0.020865,-0.11541,0.030602,0.0025945,0.080466,0.029579
-0.010639,-0.0039938,0.023739,-0.22474,-0.02402,0.0021839,0.15838,-0.055109
-0.019297,-0.022818,0.056141,0.11345,-0.0083325,0.0017952,-0.28617,-0.02332
0.050373,0.013785,-0.037195,0.10969,0.046574,0.0015696,0.027474,-0.031431
-0.020083,-0.010761,0.12757,-0.095646,-0.015387,0.0016329,-0.15128,-0.0089836
-0.0039053,-0.017937,-0.14398,0.067674,0.016849,0.0020723,0.083469,-0.057116
0.0052195,0.031414,0.031582,-0.11134,-0.028544,-0.012707,-0.018277,0.0044841
-0.00059427,0.027681,0.11551,-0.039094,-0.010985,-0.011494,0.12974,0.07491
-0.0059137,-0.0062345,-0.12658,0.21373,0.0068856,-0.0022125,-0.097004,0.021841
0.012424,0.030487,-0.046496,-0.0019951,0.017034,0.04621,0.12225,0.071996
-0.008394,-0.066092,0.042825,-0.06227,0.027001,0.016364,0.022122,-0.15771
-0.029615,-0.023263,-0.10918,-0.13235,-0.033808,-0.060738,-0.14744,0.074245
0.026615,0.010023,0.1922,0.020939,-0.0093879,0.010011,-0.019589,0.063774
-0.02741,0.010116,0.0010683,0.16226,0.02197,0.0097194,0.030083,-0.1589
0.058184,0.070875,0.22323,0.11143,-0.025725,-0.022594,0.09462,0.19441
-0.013508,-0.041683,-0.28994,-0.272,-0.019596,0.014691,-0.092289,-0.17367
0.062283,-0.045715,-0.10077,0.028541,0.056154,0.027971,0.23447,0.080592
-0.15175,-0.010864,-0.10723,0.085039,-0.016981,-0.021602,-0.22219,-0.06568
0.063444,0.024431,0.027273,-0.32688,0.011278,-0.00096879,-0.18081,0.013529
-0.05739,0.0059384,0.16269,0.40452,-0.054113,-0.011437,0.33582,0.092958
0.064253,0.082299,0.19765,-0.17178,0.037076,0.017539,-0.28854,-0.24012
0.053694,-0.019995,0.022391,0.18,0.04282,0.015837,0.25193,0.2185
-0.010744,-0.066874,-0.21557,-0.14128,-0.06023,-0.039846,-0.19015,0.094446
-0.019632,-0.011908,0.22469,-0.050382,0.024816,0.02243,0.17503,-0.13572
-0.074618,0.035065,-0.40806,0.16192,-0.014597,-0.0082761,-0.16784,-0.035091
0.050679,0.018993,0.2213,-0.069307,-0.0066986,0.0085841,0.18724,0.098351
-0.0033519,-0.036872,-0.10613,0.10474,0.0092984,-0.013073,-0.088554,-0.064897
0.020869,-0.015317,-0.0068953,-0.21695,0.0019675,0.012488,-0.035293,-0.088746
-0.0096707,0.0057527,0.082788,0.065261,0.017995,0.0068955,0.33031,0.24436
-0.0013545,0.011064,0.13334,-0.010578,-0.013107,-0.014487,-0.52395,-0.19916
-0.0011118,0.040078,-0.13478,0.12591,0.025715,0.010591,0.11228,0.025753
-0.0011,-0.00059835,-0.0013962,-0.23517,-0.02185,0.0038013,-0.011242,0.01312
-0.032466,-0.048218,0.057787,0.12664,-0.030765,-0.027175,0.058708,-0.11915
0.053377,0.014504,-0.19143,-0.23973,-0.00088756,0.011374,0.14272,0.098684
-0.040281,0.0078166,0.1957,0.26135,0.0055083,0.0023231,0.1083,0.1208
0.022635,-0.021598,-0.0085304,0.3423,0.035573,0.00051412,-0.09116,0.0028441
-0.023419,0.035352,0.069315,-0.2382,0.011455,0.037431,-0.30698,-0.082586
0.048133,-0.0091416,-0.10363,-0.09703,-0.004119,-0.042889,0.24236,-0.017816
-0.0049541,0.024339,0.088457,0.10954,-0.026625,0.0098643,0.11976,0.017728
-0.018716,-0.0049981,-0.11301,-0.35299,-0.024767,-0.014949,-0.43208,-0.10867
