0.014204,0.043954,0.038115,0.02381,0.0077528,0.01404,0.15704,0.0075465
0.0042233,0.036926,0.25646,0.032648,0.0078663,0.013348,-0.0027086,0.0068105
-0.0052639,0.010812,-0.096974,-0.0054193,0.00039768,-0.026048,-0.050293,0.0059825
0.0017683,-0.035222,0.11712,-0.036074,-0.014788,-0.002638,0.068923,-0.0026631
0.0099984,-0.023293,0.053884,0.04979,0.024669,-0.002429,-0.020574,0.004432
-0.035128,-0.085702,-0.56862,-0.1229,-0.029779,-0.025488,-0.13995,-0.035094
0.0069192,-0.002396,0.28071,0.055374,0.0015111,0.021876,0.10037,0.01951
0.018596,0.087964,0.031992,0.014659,-0.0064361,0.0067959,-0.042809,-0.0035482
-0.016327,-0.14038,0.076773,-0.057099,-0.0066677,0.0073307,0.031182,-0.0027029
0.041981,0.34625,0.19762,0.074895,0.0087267,0.031212,0.079569,0.037576
-0.002652,-0.10626,0.13047,0.028095,0.024201,-0.038839,-0.0072446,-0.0079
0.0052553,-0.14481,-0.64637,0.021293,0.024165,0.00022019,0.013116,0.0012375
0.018339,-0.065596,0.4158,-0.00039051,0.00078423,-0.015727,-0.30408,-0.02903
-0.065012,-0.0017304,-0.5016,-0.11545,-0.045996,0.0070657,0.22171,0.01045
-0.0021207,-0.0014497,0.016911,-0.058712,-0.030305,0.013954,0.013346,-0.013261
-0.010717,0.19069,0.61281,0.10691,0.0087464,-0.0027881,-0.0689,0.0092093
0.027803,0.13402,0.051792,0.14672,0.032073,-0.01181,0.069318,-0.00014634
-0.07249,-0.12039,0.22373,-0.072212,0.039676,0.018233,0.084432,-0.0098729
0.049191,0.09579,-0.67739,-0.16701,-0.046559,-0.021962,0.038702,0.027147
0.010966,-0.57977,-0.11415,-0.0046107,-0.0078691,0.023893,-0.21686,-0.021674
0.055234,0.2964,0.11501,0.11068,0.022939,0.0073771,0.090514,0.0078893
0.0016827,0.059785,0.094607,0.038648,-0.0088129,-0.01681,-0.05539,-0.0012721
0.01298,0.055181,-0.12974,-0.032875,0.006269,0.060741,0.1654,0.028963
-0.037802,0.23036,0.31564,-0.002155,-0.0020895,-0.10365,-0.12214,-0.003023
0.019108,-0.051667,-0.023902,-0.017656,-0.026015,-0.0098743,-0.1756,-0.034796
-0.083778,-0.26303,0.021716,-0.017083,0.0048843,0.014049,0.028772,-0.0038824
0.089788,-0.18803,0.044427,0.085187,0.036005,0.0385,0.11621,0.0038217
-0.069953,-0.15811,-0.30098,-0.062736,-0.010707,0.063447,0.26634,-0.0037568
0.062564,0.62712,0.45361,0.0076586,-0.018021,-0.020642,-0.06026,0.075106
-0.11282,-0.33829,-0.68337,0.022855,0.021875,-0.073416,-0.20017,-0.11099
-0.062909,-0.046699,0.52447,-0.087342,-0.04732,0.029779,0.033495,0.023977
0.12066,0.82768,-0.43522,0.021092,0.047738,-0.016094,-0.094014,0.011234
-0.021235,-0.49272,0.035386,-0.042118,-0.005584,0.015252,0.10495,-0.00097399
0.16887,-0.16147,0.39355,0.098334,-0.004309,0.0064809,0.013952,0.080757
-0.050791,0.10521,-0.11506,0.04417,0.0045457,0.0044889,-0.13916,-0.025271
0.053818,-0.57219,0.18358,0.0062797,-0.010376,-0.029592,0.037823,-0.030441
-0.10409,0.045252,-0.28038,-0.085879,-0.0022471,0.045217,0.17144,0.041483
0.021338,0.40099,0.3902,0.14236,0.021147,-0.0049947,-0.15127,-0.083029
-0.21143,0.12715,-0.7997,-0.22338,-0.026038,-0.039092,0.062276,-0.036606
0.072045,0.1145,0.38036,0.0041679,-0.018663,-0.0019238,-0.03225,0.040551
-0.0035119,-0.191,0.10564,0.028073,0.012167,-0.010361,0.15741,0.008363
0.053981,0.094545,0.067067,0.067131,0.011872,0.0059793,-0.26944,-0.0076756
0.1193,0.18369,0.14385,0.10582,0.03517,0.007782,0.14549,0.031766
-0.019058,-0.429,0.052491,-0.074521,-0.027369,0.096015,0.1809,0.032869
-0.065217,-0.11526,-0.4964,-0.044151,0.019442,-0.042713,-0.13394,-0.0047859
0.06541,0.089841,0.14749,-0.04524,-0.027673,0.043647,-0.065545,0.035323
0.051078,-0.098392,0.019393,0.12537,0.0030395,-0.067879,0.12087,0.074358
-0.070284,-0.082204,-0.19542,-0.040041,0.017798,-0.096995,-0.39325,-0.23978
-0.096,0.63352,0.2359,-0.056917,-0.030191,-0.060012,0.1058,-0.0087934
-0.0099274,0.057884,-0.10269,-0.081258,-0.015737,0.081803,0.097754,0.03324
0.072314,-0.34875,0.22271,0.098131,-0.0010856,0.016021,0.22607,0.097997
-0.057753,0.20047,-0.2393,0.043938,0.029635,0.11038,-0.24189,0.06147
-0.022162,-0.20395,0.21317,-0.0016223,0.029714,0.15509,0.16272,-0.13001
-0.013279,-0.40155,0.068242,-0.054345,-0.0477,-0.13692,-0.046113,0.016542
0.080621,0.35432,0.15569,0.072913,0.062882,0.081129,-0.043417,0.0015274
0.010819,-0.00145,-0.14882,-0.010932,-0.021615,-0.022502,0.33875,0.043589
0.19132,-0.14258,-0.14893,0.029609,-0.012458,-0.044213,-0.27058,0.040563
-0.16833,0.29703,-0.34981,-0.18078,-0.034953,-0.34568,-0.0067898,-0.0085277
0.12472,-0.00353,0.1833,0.084361,0.020067,-0.40652,-0.018817,0.027986
-0.26847,-0.075741,0.067574,-0.018585,-0.027154,-0.013235,-0.015573,-0.1244
0.078729,-0.060218,-0.03836,0.04194,0.01096,0.35657,-0.42229,-0.044563
-0.031552,0.19953,0.25234,0.063202,0.048657,1.0957,0.29844,0.056252
0.031793,-0.37411,-0.1103,-0.040369,-0.023198,-0.079523,-0.167,0.061052
0.033695,0.18838,-0.035865,-0.0028859,0.014384,-0.05755,0.45279,-0.0061059
0.07603,-0.11203,0.018214,-0.06641,-0.041532,-0.34506,-0.16674,-0.011511
-0.074418,-0.063347,0.12445,0.065925,0.035744,-0.56395,0.24051,-0.024484
-0.07994,0.21816,0.10404,0.034644,-0.011547,-0.050183,-0.047011,-0.051938
0.17875,0.1551,-0.20726,-0.019774,0.035345,-0.10203,-0.12866,0.11773
-0.11654,-0.19737,-0.20084,-0.12091,-0.081432,0.004671,0.019473,0.00046785
0.012656,0.18465,0.091156,0.074889,0.0365,0.15598,-0.17277,-0.044361
-0.01819,-0.1435,-0.11321,0.0050499,0.014069,0.25699,0.0067677,-0.017083
0.026059,-0.086942,0.60762,0.021108,-0.015992,0.12742,0.18647,0.01927
-0.057714,0.098295,-0.48849,0.05274,0.03216,0.01457,-0.26026,-0.0062276
0.065665,-0.4292,-0.16695,-0.032863,-0.013455,0.11472,0.042827,0.030837
-0.027109,0.31747,0.31459,-0.032548,-0.012327,-0.16218,-0.049048,-0.096575
0.14646,0.043606,-0.12997,-0.024382,-0.011443,0.20597,0.25832,0.040896
-0.15001,0.08629,0.07681,-0.039529,0.012536,-0.37204,-0.30293,0.013376
0.13641,0.015436,0.097762,0.062716,0.020476,-0.03671,0.22523,0.03953
-0.042318,-0.22585,-0.029747,-0.0066781,-0.026724,0.12551,0.25254,-0.021293
-0.20209,0.31949,0.020547,0.041281,0.011566,-0.095913,-0.16465,-0.012845
0.040579,-0.048926,-0.073318,-0.020157,-0.013048,0.051473,0.043793,0.064885
0.01531,0.085304,-0.093649,0.035291,0.0088962,-0.15391,-0.10807,-0.053686
0.020954,-0.39994,-0.079724,-0.019235,0.022837,0.16261,-0.31797,-0.048159
0.012631,0.14807,0.16445,-0.051142,-0.025755,-0.036371,0.083366,0.0034934
0.13252,-0.07691,-0.10973,0.033268,0.011737,0.11135,0.42171,0.046787
-0.048298,0.10551,0.13074,-0.047085,-0.012938,-0.07859,-0.35943,-0.035237
0.07159,0.018384,-0.081219,0.012867,-0.01367,0.0058299,0.020073,0.038882
-0.14942,-0.084095,-0.017908,-0.0051125,0.0096717,0.061585,0.075364,0.019311
0.08403,0.084214,0.11791,0.040131,0.010271,0.23758,0.41595,0.023346
-0.065648,-0.40949,-0.025823,0.0083838,0.011532,-0.38868,-0.395,-0.073934
-0.013911,0.68072,0.15126,-0.014226,-0.0023015,0.064288,-0.03598,-0.014643
0.050923,-0.15852,-0.10236,0.0034694,-0.0080068,0.0089507,-0.091347,0.045074
-0.097801,0.034336,-0.16304,0.022065,0.0097802,0.108,0.097002,-0.035263
0.10303,-0.16339,0.37466,0.025413,0.0039242,-0.037791,0.13247,0.025763
-0.12672,0.1841,-0.66892,-0.10427,-0.041412,-0.16287,-0.24127,-0.0060723
0.089294,-0.49549,0.089894,0.023116,0.014264,0.022475,-0.039066,0.0021238
-0.0055509,0.38218,0.48057,0.0087348,0.0068541,0.066231,0.32484,-0.0043681
0.05826,0.074026,-0.47207,0.0321,-0.0010949,0.079029,0.01327,0.036785
0.093365,-0.34185,0.17814,0.007315,0.013961,-0.031849,-0.014956,-0.054397
-0.1117,0.26013,0.43122,-0.041952,-0.010346,0.015356,-0.067136,0.04202
-0.081441,-0.28333,0.0050343,0.017477,0.027683,0.064235,-0.052078,0.02876
-0.012595,0.020325,-0.46905,-0.032717,-0.035894,-0.12038,-0.12017,-0.047647
0.038675,0.20179,0.63253,0.096955,0.025585,-0.03194,0.07139,-0.015555
0.094537,0.11868,-0.60501,-0.038451,-0.014362,0.078165,-0.16466,-0.046912
-0.064575,0.31496,-0.45476,-0.079303,-0.038488,0.16966,0.25105,0.030234
0.15491,-0.041049,0.3427,0.052648,0.031366,-0.24255,-0.054542,0.083265
-0.12146,-0.52312,0.14131,-0.0019924,0.015512,0.036857,0.053468,-0.012564
-0.20489,-0.14152,-0.017358,0.037864,0.015465,-0.030388,-0.07941,-0.053864
0.11739,-0.06892,0.38414,-0.023371,-0.023551,-0.19284,-0.13963,0.029916
0.027204,0.21928,-0.11459,-0.061044,-0.023537,0.33259,0.43543,-0.026655
-0.06719,0.4057,-0.037912,0.065109,0.031,-0.030394,-0.27686,0.018761
0.16381,-0.099227,-0.07546,0.050099,-0.0006741,-0.022502,0.097088,-0.0056034
0.009915,-0.25181,-0.050327,-0.06719,0.0063856,-0.049174,-0.12407,-0.029377
-0.029249,0.01473,-0.12144,0.017927,-0.010297,0.053672,-0.066786,0.025571
-0.025294,-0.20267,-0.071987,-0.045924,-0.011548,-0.13658,0.080588,0.010752
0.082287,0.097505,0.19886,-0.031821,-0.028431,0.18344,0.14622,0.0041799
-0.21662,0.21166,-0.25368,0.076309,0.048657,-0.089462,-0.017301,0.0056953
0.028918,0.31709,0.60335,-0.0023485,-0.014441,0.027529,-0.13467,0.038557
0.08282,-0.20719,-0.38384,-0.009675,0.001177,0.10351,-0.21128,-0.10834
0.045701,-0.060907,-0.071806,-0.0080812,-0.0060124,-0.19805,0.083415,0.025813
0.058134,-0.068303,0.1124,0.0022692,-0.012666,-0.064524,0.024762,-0.027811
-0.082162,-0.075589,-0.016672,0.060049,0.05131,0.090791,0.26987,0.10576
-0.1314,-0.090877,-0.3408,-0.01496,0.0059331,0.065968,-0.041119,-0.05003
0.029678,-0.010562,0.58511,-0.043617,-0.024102,-0.12992,0.082219,0.036122
0.028265,-0.23691,-0.17801,-0.010732,-0.031213,0.10566,0.12162,0.0049316
-0.047826,0.2508,-0.33609,-0.041523,-0.007677,0.038709,-0.40233,-0.088758
0.18541,0.48884,0.51349,0.035922,-0.00028658,0.0673,0.070615,0.059972
0.032933,-0.136,-0.070673,0.042192,0.045888,0.026361,0.015931,-0.032964
-0.037202,-0.17633,-0.060798,0.0011645,-0.017249,-0.11679,-0.26915,-0.0078891
0.028216,-0.15577,-0.34988,-0.071039,-0.033086,-0.11363,0.052951,0.0026111
-0.22586,0.15772,0.38942,0.076034,0.022099,0.050272,0.32836,0.014225
0.05015,-0.30244,-0.55285,-0.010423,0.02344,0.038378,0.028183,0.042398
0.034284,0.40388,0.42741,-0.0099632,0.0021257,-0.0085941,-0.27569,-0.022692
0.0066949,-0.049106,-0.056834,0.0070394,-0.0030323,-0.035196,0.22169,-0.002035
0.052897,-0.064844,-0.16574,-0.06903,-0.0080572,0.061392,0.15971,0.05669
-0.045636,0.22007,0.37762,0.034898,-0.029038,0.07175,-0.19854,-0.073852
0.09467,-0.39174,-0.15084,0.052763,0.035155,-0.088542,0.010814,0.01983
-0.087557,-0.10344,0.31256,-0.0080441,-0.011108,-0.074437,-0.082714,-0.045307
-0.059754,0.07895,-0.18546,0.031834,0.0039193,0.060295,0.010487,0.035612
-0.00030029,0.11958,-0.66173,-0.069956,-0.0056173,0.12861,0.039186,-0.033697
0.14663,0.084858,0.46773,-0.047744,-0.023808,-0.056969,-0.097743,0.03673
-0.0087278,0.056781,-0.088484,0.051855,0.027903,-0.043693,0.070532,-0.025499
-0.04402,-0.094304,0.19064,-0.036367,-0.037492,-0.11342,-0.030727,0.0071758
-0.052875,0.024312,0.05281,0.047454,0.014836,0.24092,-0.014615,0.026152
-0.027701,0.085432,-0.019529,0.053759,0.060214,-0.2705,-0.0098691,0.016223
0.015381,-0.012539,0.152,-0.024967,-0.018412,0.13283,0.17436,0.03209
0.028798,-0.02022,-0.61277,-0.063628,-0.033609,0.028301,-0.13956,-0.075043
0.1211,-0.24311,0.38975,0.031401,0.022194,-0.1239,0.033243,0.014507
-0.099176,0.036858,-0.081257,-0.021437,-0.007598,0.18328,0.17605,-0.020331
-0.039056,0.01453,-0.015938,0.043043,-0.0061594,-0.050957,-0.1041,0.015016
0.035265,0.033351,-0.1073,0.01342,0.010583,-0.03825,0.017892,0.010576
0.029744,0.10077,0.28739,-0.063878,-0.027867,0.025595,-0.26579,0.012851
-0.055593,0.10678,-0.22091,0.013946,-0.012177,0.15609,0.14381,-0.0095156
-0.064172,-0.035624,0.41542,0.051436,0.026487,-0.23229,0.27624,-0.0016945
0.012362,-0.023143,-0.20206,-0.029454,0.017986,-0.052677,-0.43942,-0.057099
0.16683,-0.13857,-0.1208,-0.0096768,0.0015912,0.016679,-0.088821,0.027836
-0.037658,-0.00045342,-0.091627,0.0096852,0.016565,-0.014756,0.42271,0.058235
-0.038143,0.085684,-0.060627,-0.064538,-0.038502,0.096784,-0.25533,-0.051512
-0.02967,-0.005214,0.21389,-0.0052093,-0.038519,0.15716,0.28406,0.04249
-0.043443,0.024582,-0.19013,0.13343,0.063407,-0.13778,-0.15423,-0.003576
0.029745,-0.073201,0.25857,-0.046817,-0.01403,0.039904,-0.00031183,-0.025905
0.0098503,0.008521,-0.16653,-0.030375,-0.020952,0.11913,0.26841,-0.0014396
0.099479,-0.032213,0.17511,0.065275,0.034649,-0.26843,-0.21613,0.01472
-0.17855,0.033768,-0.12312,-0.080665,-0.003681,0.071299,-0.16537,0.0066011
0.21415,0.083493,-0.08529,0.015607,-0.018956,-0.089289,-0.08693,-0.010379
-0.17612,-0.20232,-0.12628,-0.052697,-0.0035162,0.11624,0.01236,-0.059683
0.064287,-0.027015,0.46395,0.081203,0.026944,0.054647,0.0013436,0.061978
-0.041341,0.45945,-0.19036,0.018666,-0.013474,-0.10239,0.49138,-0.043524
0.015018,-0.19081,-0.33958,-0.037148,-0.015239,0.051286,-0.2031,0.053896
0.17144,0.0034121,0.81333,0.015599,-0.017165,0.054631,-0.10402,0.034341
-0.21959,-0.10157,-0.65263,-0.056985,0.035739,-0.116,-0.022928,-0.039315
-0.00066571,-0.023684,-0.14993,0.026965,-0.020291,0.11723,-0.076742,-0.041772
0.03259,0.017328,-0.012484,-0.0053472,0.018102,0.05084,0.11703,0.034985
0.021935,-0.056082,0.21499,0.010684,0.018221,-0.18259,-0.04402,-0.012071
0.030663,-0.030968,0.25297,0.012882,-0.027774,0.034069,0.071704,-0.034519
-0.0034613,-0.05281,-0.030483,-0.014369,-0.0028622,0.037024,-0.08417,0.053445
-0.026135,0.022166,-0.0028376,0.014536,-0.0010755,-0.016872,-0.11483,-0.029683
0.055356,0.14958,-0.3687,0.028636,0.016306,0.060811,0.28277,0.067305
-0.057445,0.080529,0.31475,0.01926,0.009878,-0.0022062,0.029044,-0.023191
0.016372,0.025249,-0.26812,-0.10826,-0.028452,-0.12654,-0.19753,-0.035965
0.0092495,-0.2063,0.16062,0.051515,0.010532,0.095263,-0.1321,-0.010425
0.013299,0.20224,-0.2224,0.021479,0.0096343,0.031363,0.092243,0.021954
-0.081889,-0.0036812,0.36174,-0.042293,-0.015363,-0.13012,0.11634,-0.048264
0.20786,-0.031417,0.37281,0.047929,-0.0016659,0.18127,0.011213,0.052453
-0.19482,-0.13391,-0.47792,-0.035377,-0.011398,-0.14416,-0.042374,-0.035038
-0.05387,-0.007448,0.077151,-0.025714,-0.0051139,0.072517,-0.027382,0.064591
0.10187,-0.2054,-0.61469,0.0075869,0.0096839,0.025536,0.13597,0.015794
-0.021689,0.20532,0.09955,0.034187,0.048786,-0.012847,-0.058304,0.029931
-0.10935,0.0030252,0.41994,-0.0077376,-0.012817,0.057839,-0.084907,-0.15038
0.10664,0.10722,-0.17309,0.02275,-0.011241,-0.14602,-0.24682,-0.024767
0.13522,-0.078708,0.33812,-0.015069,-0.0092786,0.039212,0.17599,0.0086234
-0.047145,-0.058971,0.22664,0.042397,0.0083624,-0.14428,0.082503,0.15299
-0.074673,0.17584,-0.11964,-0.032142,-0.021109,0.085053,0.081652,-0.029349
-0.012354,-0.062354,-0.36138,0.0026694,0.0036771,0.0948,0.039118,-0.023282
0.019425,0.051978,0.082262,-0.049244,-0.018915,0.17439,-0.0084639,0.045428
-0.037425,0.022676,-0.082296,-0.016571,0.012708,-0.10569,0.21719,-0.1132
0.14998,-0.045421,-0.11582,0.0066546,0.0048754,-0.096988,-0.59157,0.054624
0.0013287,-0.13306,0.059016,0.02825,-0.0032711,-0.026203,0.16443,0.040371
-0.16406,-0.087002,0.0061882,0.048469,0.035172,0.059637,0.10094,-0.054775
-0.095762,0.4039,0.19781,0.028688,0.018612,-0.18333,-0.13382,-0.0511
0.0517,-0.58952,0.34157,-0.022723,-0.013951,0.057317,0.23445,0.051829
0.077935,0.22389,-0.51074,-0.089522,-0.023488,0.16435,0.027813,-0.018656
0.02524,0.26921,-0.19064,0.00078792,-0.025571,-0.018599,-0.33744,0.074351
0.084267,-0.23912,0.031564,0.037826,0.0034258,0.070847,0.36755,0.0037452
-0.14089,0.10045,0.39933,0.0063808,-0.006499,-0.028352,-0.089535,-0.081108
-0.023704,0.094664,0.13051,-0.015237,-0.015899,-0.12079,-0.26972,-0.0076169
0.13925,-0.099551,-0.28574,0.027554,0.030273,0.1221,0.35121,0.060591
-0.05913,-0.068966,-0.18224,0.0093417,0.038509,-0.22071,-0.28921,-0.040428
0.17626,0.043682,0.29479,0.023196,0.0088481,0.070791,0.32399,0.1032
-0.25841,0.11044,0.43678,-0.0098513,-0.012016,-0.072317,-0.16185,-0.094902
0.04084,0.065617,-0.61212,-0.075038,-0.024455,0.14027,0.080028,-0.025992
0.033117,-0.26547,-0.29164,0.022219,-0.021139,0.045179,-0.20946,0.027958
0.084582,0.12313,0.14854,0.054886,0.013061,0.017298,0.062439,0.011523
-0.16423,-0.03469,0.1488,-0.039666,0.015234,-0.01475,0.082616,0.002144
-0.040649,-0.003614,0.37812,-0.019032,-0.014883,-0.099746,-0.21162,-0.024197
0.11294,-0.17983,-0.21984,-0.031133,-0.022688,0.12707,0.25016,0.041439
-0.1472,-0.044577,-0.22476,0.07318,0.03097,-0.02433,0.038484,-0.012144
0.30525,0.49931,-0.19389,0.013433,0.013505,0.0064678,-0.19017,-0.036568
-0.12276,-0.029422,0.25108,0.016899,0.018982,-0.10992,0.040874,0.10115
-0.025106,-0.14405,0.33728,-0.087761,-0.053815,-0.02989,0.059721,-0.10643
0.019182,-0.15586,-0.27359,-0.011192,-0.009242,0.06006,0.14759,0.020988
0.071131,-0.20551,-0.039756,0.066934,0.035782,-0.11939,0.038956,0.023189
-0.050596,0.16668,0.25051,0.0057478,-0.0045059,0.03579,-0.47678,-0.059978
-0.027083,0.13802,0.14413,0.00011083,-0.005046,0.27807,0.1714,0.037829
-0.12472,0.26006,-0.40499,-0.02086,0.018485,-0.16396,0.12513,-0.0031828
0.023781,-0.10352,0.19199,0.0282,-0.0043672,0.039031,-0.028535,0.035956
0.083454,-0.24509,-0.34018,-0.064111,-0.011297,-0.081459,-0.14796,-0.016766
0.0012931,0.04378,0.20334,0.030074,-0.0025,0.05206,0.21275,0.041298
0.04497,0.082164,-0.61789,0.037313,0.0062401,-0.014816,-0.0010763,-0.048397
-0.025707,-0.35623,0.58601,-0.08122,-0.024228,-0.018031,0.077112,0.017989
-0.1467,0.25371,0.19,0.042085,0.0076459,0.10345,-0.13193,-0.033771
0.057742,0.055322,-0.095883,0.001471,0.023784,0.020486,0.19075,0.045734
0.13427,-0.010817,0.27221,-0.022925,-0.014796,-0.26726,-0.49518,-0.079703
0.058238,-0.11377,-0.44605,0.047311,0.016984,0.053098,0.23126,0.050936
-0.039504,0.32653,0.17784,0.016916,-0.0058295,0.013814,0.28371,-0.030701
-0.11446,-0.40014,-0.063008,-0.075243,-0.051991,0.14744,-0.44714,0.01976
0.065467,0.47122,0.044741,0.10637,0.073757,-0.091666,0.18754,0.062413
-0.095227,-0.36574,-0.082931,-0.079374,-0.011492,0.078548,0.0085763,-0.073938
0.12138,-0.030539,0.20505,-0.00013148,-0.034409,0.0097668,0.28198,0.040927
-0.15945,0.27134,0.10839,0.085972,0.051792,-0.10332,-0.28898,-0.022365
-0.022397,-0.047849,-0.49116,-0.13363,-0.049808,0.15208,0.014323,-0.0059271
0.16739,-0.13735,0.12665,0.052227,0.020189,-0.10065,0.058781,0.035404
-0.040852,-0.14514,-0.30799,-0.066966,-0.050632,0.035264,-0.015318,0.0075556
-0.012049,0.055422,0.116,0.071858,0.042534,-0.0039704,-0.028481,-0.066462
0.0055071,0.10743,0.55975,0.0082869,-0.012702,-0.12531,-0.12907,-0.0074261
-0.0029316,0.013594,-0.019952,0.031728,0.041534,-0.047494,0.23799,0.035783
0.071925,-0.16138,-0.309,-0.021813,-0.0057141,0.17549,-0.0047255,0.086227
-0.013094,0.099257,-0.14419,-0.011946,-0.013918,-0.041162,-0.11415,-0.098569
-0.15027,0.21697,0.39328,-0.0094645,0.0089619,-0.032063,-0.019071,-0.026604
0.10374,-0.068019,0.11137,0.039712,-0.030971,0.086774,-0.1797,0.020789
0.1298,0.030128,0.12244,0.033436,0.022437,-0.066658,0.21679,0.05143
-0.12044,0.085721,-0.69467,-0.13028,-0.026139,0.023587,0.037392,-0.020535
-0.030604,-0.45949,-0.029469,-0.0062798,-0.020357,0.14642,0.17977,0.039422
-0.14757,0.18106,-0.19403,0.046191,0.055583,-0.14397,-0.13854,-0.080985
0.084087,0.076929,0.93167,0.066581,0.0065966,-0.066981,-0.13764,0.024765
0.071888,0.026209,-0.4993,-0.022693,-0.0030129,-0.12323,0.079782,-0.0023793
0.059453,0.04767,-0.19252,-0.017921,-0.012089,0.2181,0.10693,0.072312
0.040229,-0.26818,0.3648,-0.035787,-0.051712,0.05838,-0.31374,-0.12581
-0.25061,0.13858,-0.19105,0.017802,0.04228,-0.10233,0.06887,0.044193
0.24181,-0.18805,0.17249,0.033595,0.012089,-0.045022,0.10026,0.059088
-0.029796,0.30253,0.032398,-0.0041324,-0.0017334,0.019754,-0.022259,-0.065423
-0.050645,0.018274,-0.21628,0.0058931,-0.014977,0.13933,0.28126,0.076824
0.061036,-0.041511,0.42151,0.032016,0.011186,-0.13898,-0.30049,-0.037854
-0.06287,0.065421,-0.27855,-0.1137,-0.0094596,0.052411,-0.064131,-0.03483
-0.016693,-0.072088,-0.07154,0.037135,0.016558,-0.13782,0.13017,-0.00050494
-0.097388,0.094812,-0.11744,0.046757,0.018688,0.087286,0.14782,0.056817
0.039202,-0.15829,-0.20708,-0.045876,-0.057914,0.11822,-0.25592,-0.097711
0.050082,0.086112,0.3708,0.048324,0.021064,-0.11566,0.18174,0.10582
0.061118,-0.18985,-0.061319,-0.029898,-0.0021497,0.033576,-0.12783,-0.051613
-0.028534,0.084469,0.27338,-0.038192,-0.018068,0.041961,0.10253,0.031439
0.01588,-0.017739,-0.33994,0.015793,0.020336,0.034037,0.3955,0.019156
-0.040057,-0.015089,0.15721,0.10875,0.042897,-0.13104,-0.6935,-0.017779
0.10792,0.051382,-0.31018,-0.04827,-0.020582,0.031184,0.0018001,-0.06311
-0.0095784,-0.093889,0.44751,-0.0020722,0.0018504,-0.049167,0.141,0.048072
-0.18228,0.014423,-0.068661,-0.072873,-0.022577,-0.12925,-0.1861,-0.089525
0.019006,0.15194,0.016343,-0.033993,-0.039145,0.34635,0.36779,0.064079
0.023814,0.05253,-0.23569,0.067818,0.030303,-0.051464,0.14107,0.009579
0.043267,0.20526,-0.036889,0.013909,0.037372,-0.18176,-0.14668,0.051982
0.14819,-0.043477,0.025403,-0.0082121,-0.017891,0.08037,0.30825,0.0036376
-0.15289,-0.3405,0.043469,0.032594,-0.0026302,0.10164,-0.55915,-0.026703
0.00021471,-0.21531,-0.015386,0.011094,-0.0027476,-0.15779,-0.025784,-0.016602
-0.040163,0.13188,0.2537,-0.033961,-0.010405,0.051174,0.16238,-0.03758
-0.023437,0.22942,0.044757,0.0065014,0.029103,-0.061455,-0.0058563,0.018519
0.16789,-0.0092039,-0.1745,-0.055226,-0.03265,0.12077,0.48267,0.033474
-0.05999,-0.10569,-0.11569,0.038624,0.015273,0.0036604,-0.56075,0.069087
-0.027811,0.18585,-0.075872,0.0069376,-0.0068349,-0.10816,-0.12038,-0.14054
-0.0097866,-0.10607,-0.09384,-0.040624,-0.013085,0.059122,0.22701,-0.017123
-0.0069382,-0.10075,0.32319,0.036922,0.027678,-0.048403,-0.21951,0.025798
-0.028221,-0.10521,0.129,-0.0022859,-0.0096885,0.10162,0.44109,0.059296
0.081495,-0.044664,-0.43378,-0.025235,-0.00037205,-0.0051462,0.04722,0.037334
0.032197,0.23204,0.21302,0.061832,0.024167,-0.13306,-0.31326,-0.0080792
-0.13771,0.1317,0.076802,0.032154,-0.0065819,-0.054559,-0.037647,-0.076366
0.016814,0.051022,0.047476,-0.10682,-0.03808,0.12152,-0.03193,-0.0031196
0.10534,-0.037056,-0.039771,0.035089,-7.7202e-05,0.04349,0.15652,0.063338
-0.01212,-0.066993,-0.021277,0.035592,0.029347,-0.07079,0.057891,-0.0098649
-0.053267,-0.34061,-0.15454,-0.035286,-0.0043456,0.16777,0.25684,0.0036701
-0.016756,0.33328,0.10858,-0.01357,-0.014983,0.022839,-0.43529,-0.036864
-0.096407,-0.0088259,-0.11253,-0.016313,0.021158,-0.21853,-0.027026,0.0090243
0.19359,-0.14878,-0.1665,0.0036883,-0.020631,0.12955,0.012869,0.024108
0.00287,-0.18682,0.55137,0.062515,0.0083498,-0.14473,-0.049316,-0.061876
