-0.23552,-0.003486,0.089525,-0.039064,-0.025766,-0.0020146,-0.0044881,-0.015964
-0.05979,0.06954,-0.011168,0.30237,0.029835,-0.0011794,-0.0043923,0.00020603
0.072638,0.25244,0.26565,-0.17994,-0.046937,-0.0079833,-0.0037673,0.040037
0.16146,-0.2858,-0.36965,-0.12074,0.024969,0.00097513,-0.010503,-0.013818
-0.004926,0.14638,0.56537,0.094887,-0.012462,0.017823,0.014322,0.002546
0.025579,-0.28314,-0.58065,-0.37889,-0.026594,-0.020029,-0.0075974,0.0030693
-0.11549,0.054961,-0.18603,0.33924,0.052745,0.012307,0.0094776,-0.020116
0.0079732,0.2286,0.18352,-0.071757,-0.016733,0.0053307,0.010674,0.02677
-0.089712,-0.27873,-0.013701,0.19286,0.0070906,-0.0098235,-0.019781,-0.035838
0.051293,0.47114,0.81427,-0.2334,-0.024259,-0.0019894,-0.0038527,0.010993
-0.08542,-0.55876,-0.65358,0.12706,0.037645,0.013177,0.0037496,-0.020044
0.20286,0.040817,0.028541,-0.23241,-0.041554,-0.026789,-0.0047426,0.01181
0.080167,0.062256,-0.22371,0.14229,0.027259,0.018835,0.0098293,0.0049995
0.031314,0.11784,-0.11878,0.25965,-0.021459,-0.0060468,0.00071727,0.021861
-0.2006,0.14695,0.18217,-0.26282,0.0077203,0.00030449,-0.0085055,-0.00043501
-0.20011,0.095391,0.34588,0.34052,0.0055564,-0.0088123,0.0057272,-0.0076361
0.11273,-0.38152,-0.30556,-0.44601,0.011261,0.029241,0.04353,0.13264
0.11487,0.33135,0.072017,0.033844,-0.0062609,-0.01827,-0.051245,-0.1424
-0.051238,0.0048812,0.27434,0.030314,1.7404e-05,-0.0028946,0.0027483,-0.082779
0.060985,-0.33207,-0.28703,0.12201,-0.024448,0.0050005,-0.020963,0.014914
0.05355,0.084503,0.087717,0.020505,0.02203,0.01313,0.026133,0.049704
-0.034993,-0.019311,0.11395,-0.12516,-0.0010833,-0.0098763,0.011268,0.077049
-0.08105,-0.10369,-0.26564,0.013528,-0.023439,-0.017255,-0.018703,-0.035079
0.046157,0.1534,-0.03668,0.23348,0.02524,0.0065338,0.0064351,-0.02043
0.078744,0.090186,0.027891,-0.2079,-0.0036005,-0.0010546,0.00055691,0.0041257
0.0068793,-0.14259,-0.046266,0.047975,0.022653,0.014661,0.010274,-0.00054952
-0.037984,0.30857,0.18974,-0.070288,-0.021262,-0.00098265,0.0040341,-0.019311
-0.18125,0.046532,0.1777,0.053273,-0.018449,-0.016698,-0.010642,-0.021735
-0.039496,-0.18588,-0.10153,0.1987,0.022997,0.0066161,-0.010532,-0.0088621
0.052845,-0.39645,-0.26949,-0.4788,0.0091001,0.014303,0.012093,0.080745
0.16028,0.086244,-0.26939,0.34023,-0.029032,-0.0092447,0.026071,0.19155
0.11299,0.1285,0.41459,-0.14947,0.0023121,0.0062913,-0.030835,-0.020583
-0.10299,0.057117,0.17908,0.23929,0.032878,-0.0015876,-0.033219,-0.40697
-0.24455,0.31565,-0.16708,-0.056085,-0.046571,-0.025068,-0.0040467,0.0020722
0.32899,-0.16829,0.41809,-0.28544,0.0063302,0.0061678,0.010246,0.028338
-0.18004,0.18909,-0.22685,0.028214,0.01989,0.02181,0.041205,0.28289
0.08629,-0.48905,-0.1766,0.49501,0.033321,-0.0015816,0.002957,-0.12346
-0.069133,0.038319,-0.17596,-0.31361,-0.047028,-0.017146,0.02031,0.052281
0.10193,-0.0024961,-0.084518,0.0023311,0.0054569,0.014154,0.0069103,0.12246
0.012134,0.2173,-0.056352,0.077601,0.057985,0.02197,-0.029975,-0.24997
-0.21426,-0.011888,-0.079692,-0.35903,-0.084732,-0.040601,-0.04401,0.0581
0.0086984,0.030298,0.63923,0.12433,0.022674,-0.0016976,-0.012165,0.07565
0.11146,-0.19381,0.12033,0.16229,0.020929,0.021504,0.04975,0.26928
-0.021866,-0.042849,-0.36792,-0.095754,-0.011699,0.0056022,-0.014448,-0.37817
0.047796,0.061137,-0.17623,0.11556,-0.020364,-0.033725,0.014284,-0.10165
-0.068663,0.07012,-0.0011594,0.0055191,0.018505,0.036395,-0.019855,-0.033462
0.16122,0.4041,0.43561,0.36027,0.0034068,-0.018364,-0.0069834,0.085733
0.035074,-0.14212,-0.14324,-0.55053,0.020236,0.0051493,0.053367,0.20339
-0.14999,0.062741,0.13341,-0.051202,-0.024921,0.013183,-0.010325,0.056181
-0.14424,-0.48157,-0.44834,0.15154,-0.015145,-0.03336,-0.033808,-0.057017
0.059459,-0.1173,-0.06949,0.10208,0.064855,0.02171,-0.0092665,-0.1661
-0.10246,-0.0755,0.15344,0.096295,-0.050882,-0.0013712,0.0084424,-0.01272
0.23581,0.1172,-0.089512,-0.10727,-0.0032462,0.014506,0.019009,0.12161
0.16645,0.53614,0.28369,-0.068757,0.035751,-0.0088433,0.022032,0.11094
-0.054297,-0.25966,0.11347,-0.26107,-0.043227,-0.0089509,-0.029796,-0.17108
-0.13867,0.41218,0.013389,0.30447,-0.0055909,-0.017058,-0.011873,-0.046311
-0.048286,-0.36974,-0.42747,-0.3289,0.00058004,0.0059453,0.012997,0.14012
-0.072071,-0.45109,0.18296,0.37329,0.014786,0.01326,-0.0022293,-0.10501
0.009792,0.15639,-0.22623,0.045457,0.037457,0.020599,-0.010685,-0.04786
-0.019641,0.47857,-0.236,-0.17985,-0.048252,-0.018826,0.011212,0.22562
0.052751,-0.091958,1.0551,0.58597,0.062537,0.012247,0.0012312,-0.18253
0.03374,0.21284,-0.33583,-0.46491,-0.044233,-0.0033113,0.014413,0.025385
0.06548,-0.51719,-0.18887,-0.031213,-0.024994,-0.03421,-0.011365,-0.048104
-0.093523,0.075703,0.4041,-0.076645,0.018344,0.01332,-0.021061,0.035422
0.42373,0.039468,-0.58414,-0.30575,-0.016258,-0.0091775,0.0012206,0.11258
-0.1883,-0.028452,0.056661,0.25822,0.042519,0.023231,0.016575,-0.058512
-0.29795,-0.098983,-0.17066,-0.10971,-0.048089,0.0010418,0.0093916,-0.009206
-0.070308,-0.23598,-0.057039,0.19448,0.055145,0.017822,0.002983,-0.021228
0.10335,0.56647,-0.032116,0.31397,0.023708,-0.0047665,-0.0028898,0.0062663
-0.12876,-0.0548,0.10756,-0.22578,-0.041008,-0.01223,-0.0085305,-0.0056385
0.11615,0.26855,0.29834,0.13883,-0.037321,-0.012507,0.017003,0.043932
0.16612,-0.57504,0.66899,-0.20942,0.011762,0.0022043,-0.028105,0.0061063
-0.026219,-0.13774,-0.60053,-0.24808,-0.03366,-0.022661,-0.026825,-0.11921
0.24132,0.49471,-0.21629,0.26329,0.10858,0.04595,0.036417,0.035441
-0.079412,0.20428,0.22275,-0.16193,-0.099591,-0.033839,-0.0023931,0.072186
-0.23186,-0.095269,-0.023672,-0.018482,0.030188,-0.0039025,-0.010334,-0.1098
-0.13872,-0.24586,-0.26534,0.17536,0.029769,0.018818,0.051795,0.1465
-0.042236,-0.38286,0.26807,0.50303,-0.045964,0.011005,-0.034622,-0.04112
0.019322,0.31571,-0.54117,-0.5453,0.02928,0.011691,-0.0038449,-0.047267
0.18023,0.058851,0.31657,0.15415,-0.018663,-0.010544,0.0035979,0.081258
0.1376,-0.073865,-0.10846,-0.21904,0.051309,-0.0012707,-0.020027,-0.085456
-0.0052764,-0.17286,0.10153,-0.50745,-0.0042533,-0.023268,0.011284,-0.0010193
-0.075196,-0.039557,-0.081972,0.635,0.032189,0.01699,-0.0039903,0.044827
-0.063567,0.13973,0.68558,-0.038591,-0.043403,0.0022023,0.012285,-0.12059
0.014186,0.44056,-0.24572,0.51428,-0.059574,-0.028556,-0.010246,0.13469
0.0093207,-0.019426,-0.098055,-0.29688,-0.00051707,0.018592,0.022066,0.020817
-0.13355,-0.4009,0.046119,-0.56313,-0.029542,-0.028046,-0.031563,-0.048799
-0.04045,0.084531,-0.32496,0.22523,0.073269,0.034822,0.055236,0.15982
0.16235,0.44938,0.30988,-0.10286,-0.097011,-0.011469,-0.03024,-0.29086
0.21556,-0.23166,-0.471,0.085074,0.13268,0.043969,-0.022537,0.091693
-0.29641,-0.11646,-0.039722,0.86561,0.07564,-0.0099872,-0.02333,-0.066768
0.20314,-0.36712,-0.086676,-0.7483,-0.088169,-0.032995,0.022034,0.078518
-0.18526,0.054212,0.42515,-0.46323,-0.062149,0.013705,0.035471,0.11461
0.13959,0.049477,0.27432,0.82642,0.043606,-0.010743,0.0014645,-0.012114
-0.017081,0.00097793,-0.043764,-0.6641,-0.014056,0.010771,-0.01732,-0.082088
-0.16942,0.027568,-0.62243,0.28908,-0.001754,-0.031004,-0.0050479,-0.071365
-0.033856,0.22484,0.50463,0.65337,0.040632,0.036137,-0.00053571,0.11395
0.072126,0.28823,0.35617,-0.69586,-0.03582,-0.021688,-0.019136,-0.1826
0.081074,-0.20721,-0.15172,0.12643,-0.028066,-0.0007917,0.033179,0.17127
0.01098,-0.40908,-0.36817,-0.19612,-0.0061013,-0.0022086,-0.015215,0.14358
0.11325,0.55456,-0.070249,-0.29896,0.038509,0.013497,-0.015693,-0.22744
-0.22134,-0.46311,-0.0089622,0.20621,-0.010646,-0.0082376,0.016201,0.12775
0.1701,0.18603,-0.19815,0.45694,0.058123,0.026164,0.010104,-0.049215
-0.23036,0.087226,-0.27455,-0.24695,-0.059312,-0.016579,-0.018555,-0.22733
0.26949,0.037771,0.51658,0.17311,-0.034595,0.026899,0.039268,0.25756
-0.060268,-0.021931,0.28858,0.16808,-0.024132,-0.023893,-0.035596,-0.1176
-0.11332,-0.054352,-0.034688,-0.39922,0.14341,0.0021512,0.006405,0.09302
0.16279,-0.16672,0.18662,0.26255,0.029713,0.010704,0.0086158,0.030541
-0.11573,-0.44736,-0.082077,-0.28171,-0.053685,-0.029765,-0.013627,-0.085912
-0.065599,0.18166,-0.22853,0.43273,-0.092043,-0.001988,0.033306,0.18133
0.072799,0.48646,-0.28911,-0.66607,-0.078172,-0.030549,-0.045828,-0.20683
-0.13521,0.19309,0.4825,0.53245,0.11269,0.018034,-0.024219,-0.08653
-0.23325,-0.12324,-0.37579,-0.31949,0.043255,0.027355,0.043819,0.12002
0.47702,-0.11716,-0.11971,-0.099255,-0.04371,0.013785,-0.013166,-0.0016271
0.060288,-0.14981,0.21662,-0.39484,0.040163,0.016973,0.0083431,0.048106
0.017491,0.20378,-0.16454,0.68099,-0.008816,0.0060186,0.030505,0.12823
0.2467,0.061982,0.21289,-0.049807,-0.09592,-0.011161,0.030022,0.027559
-0.902,-0.67626,-0.54348,0.3171,0.045299,-0.073725,-0.086864,-0.33206
0.30359,0.27921,0.5305,0.19814,0.0013453,0.013413,-0.0077849,-0.10666
0.14233,0.75932,0.43432,-0.15685,0.069352,0.054657,0.040493,0.20418
0.010388,-0.26966,-0.28161,-0.45975,0.069589,-0.0049579,0.0030509,0.069711
0.28097,-0.29156,0.44586,0.36005,-0.08415,-0.025049,-0.0031379,0.099731
-0.2815,-0.076298,-0.28224,-0.54575,-0.025066,0.0098185,0.021761,0.060093
0.033449,-0.45383,-0.30157,-0.3965,-0.1598,-0.025497,-0.023914,-0.2289
-0.22711,0.091008,-0.39825,0.25654,0.13631,0.032957,-0.022998,0.045077
0.13295,0.4952,-0.25312,0.2792,0.011447,0.0053994,-0.0067038,-0.079162
-0.025856,0.42856,0.48803,0.57793,0.0904,0.0011139,0.032856,0.038813
0.14932,-0.58245,-0.23186,-0.3472,-0.15833,-0.042495,-0.0058064,0.062965
0.089281,0.36033,0.32818,0.3462,0.18683,0.030728,0.0023555,-0.037958
-0.064461,0.019142,0.43971,-0.37666,-0.08545,0.0097671,0.01828,0.032971
0.063701,-0.17417,-0.19811,-0.38096,-0.092778,0.019578,0.010679,0.049241
-0.1664,-0.49187,0.22827,0.31003,0.09411,-0.017964,-0.02049,-0.05944
-0.19183,0.45041,-0.13425,0.67175,-0.1111,-0.071556,-0.036182,-0.027465
0.10509,0.069839,-0.29672,-1.071,0.064737,0.022956,0.0027079,-0.011129
0.092029,-0.15152,-0.20818,0.20476,0.058916,0.062548,0.049411,0.14578
-0.019663,-0.0024538,-0.36395,-0.19061,-0.0036593,-0.030833,-0.044356,-0.18178
0.2233,-0.23811,0.4842,0.037337,0.0098551,0.024078,-0.0050027,-0.025051
-0.077689,0.3021,0.42977,0.7763,-0.033159,-0.0071523,0.042571,0.20971
-0.19653,-0.33774,-0.35436,0.16333,-0.04638,-0.030889,-0.042262,-0.20405
0.31142,0.40956,0.024138,-0.5869,0.056707,0.038669,0.037244,0.13987
-0.49209,0.024039,-0.050165,0.27153,-0.11381,-0.040778,-0.00040603,0.022693
0.17352,0.234,0.18964,-0.57728,0.020942,0.019791,0.024159,-0.071249
0.12794,-0.13253,-0.17009,0.020815,0.094415,0.0016823,-0.037804,-0.032562
-0.027784,-0.33503,-0.23936,0.25292,0.028876,0.014432,0.024431,0.02947
0.049548,-0.32148,0.15996,-0.01249,0.011886,-0.027648,-0.046996,-0.049047
-5.9753e-06,0.42057,0.46312,0.196,-0.034966,0.0085469,0.0058773,0.075845
-0.067656,-0.065221,-0.22283,-0.10254,-0.065367,-0.04858,-0.035382,-0.048801
-0.075789,0.17132,0.20185,-0.43569,-0.040966,0.035548,0.024944,0.022404
0.22529,-0.12235,-0.54469,0.31709,0.06096,0.018815,0.030992,-0.0075039
-0.055031,0.19242,0.17145,0.83046,0.10701,0.080831,0.053333,0.079961
-0.17411,-0.088744,-0.17035,-0.46378,-0.08283,-0.067675,-0.025153,-0.02811
0.0095232,-0.34115,-0.065843,-0.53282,0.0070103,-0.012911,-0.032729,-0.12906
0.043944,0.5219,0.3179,-0.11769,-0.03725,-0.028574,-0.0087483,0.081358
0.039838,-0.35704,-0.30386,-0.045734,-0.011944,0.0023528,-0.00044359,0.11851
-0.0016005,0.11098,0.54822,0.51921,-0.057003,0.0017027,0.030922,-0.15046
-0.0014109,-0.21862,-0.34408,0.07654,0.070453,-0.014821,-0.047671,-0.045618
-0.068655,0.18191,0.29073,-0.19581,0.027203,0.054503,0.029357,0.097578
0.26517,-0.073848,0.057951,-0.18362,0.086931,0.0067285,0.0043303,0.0063607
-0.1022,0.42398,0.0069184,0.49976,-0.039495,-0.0017453,-0.0131,-0.029478
-0.17952,-0.29864,-0.59446,-0.017204,-0.047709,-0.017701,-0.006948,0.029784
0.1026,-0.23273,0.17888,-0.16816,-0.063139,-0.017667,0.0075219,-0.081003
-0.13933,0.043196,-0.62136,-0.70576,0.093537,0.0061664,-0.0084727,0.02899
0.14916,0.2304,0.8867,0.5022,-0.030952,-0.00090879,0.023327,0.086236
0.046401,0.1773,0.22751,0.41846,-0.022401,-0.0076629,0.0091268,0.051317
-0.087642,-0.1202,-0.06506,-0.13244,-0.013206,0.02495,-0.0044146,-0.11535
-0.095925,-0.29165,-0.13563,0.02745,-0.041853,-0.012466,0.013617,-0.00028092
0.030151,-0.14625,-0.41724,-0.72767,0.017213,-0.010569,-0.054346,-0.088333
0.2443,0.52292,-0.1006,-0.18802,0.10182,0.02277,0.025739,0.096723
-0.22667,-0.18572,0.076169,0.27626,-0.038075,0.0015305,0.019284,0.12505
0.17181,-0.0085544,0.31905,0.65126,0.018888,-0.035326,-0.058136,-0.23774
-0.037286,-0.28225,0.17597,0.33321,0.060865,0.044908,0.059225,0.06307
-0.081152,0.81404,0.01297,0.32382,-0.014853,0.015583,-0.011198,0.074344
-0.030762,-0.66327,-0.28261,-0.86251,-0.13911,-0.060862,-0.026904,-0.00095061
-0.019492,0.046242,-0.10634,-0.8767,0.0074857,-0.0047642,0.0045814,-0.030326
-0.05558,-0.2809,0.24688,0.95926,-0.02874,-0.019257,-0.018126,0.009202
0.18877,0.11612,-0.072348,-0.29898,0.095891,0.059712,0.053419,0.19528
-0.13049,0.18498,0.20497,0.30663,0.0067291,0.013356,0.00027909,-0.2693
0.009681,0.012942,-0.49382,0.13715,0.0091354,-0.009958,-0.021643,-0.03303
0.30414,0.66264,0.37842,-0.17636,-0.028841,0.0053117,0.026289,0.084125
-0.22416,-0.37441,-0.15177,-0.38997,0.026535,-0.011199,0.042133,0.10636
-0.044314,-0.099063,0.053922,-0.031172,0.043333,0.010858,-0.068069,-0.13711
-0.062658,-0.073972,0.049456,0.16165,-0.16518,-0.045538,-0.054256,-0.02005
0.10394,-0.58706,-0.66551,-0.10655,0.1047,0.015226,0.037048,0.20871
-0.20788,0.067398,0.58736,0.76376,-0.021669,-0.04865,-0.059199,-0.29369
0.2294,0.28367,0.18716,-0.62516,0.03393,0.044474,0.08736,0.22315
-0.083246,-0.098561,-0.29508,0.40953,-0.10372,-0.0098172,-0.014885,-0.092507
0.019045,0.55625,0.20012,-0.29779,0.15861,0.085409,0.024998,0.063256
0.044474,0.053595,0.22883,0.178,-0.031383,-0.037246,-0.011815,-0.021761
0.094541,-0.10803,-0.20207,0.46434,-0.057406,-0.034492,0.0070219,0.025905
-0.049953,-0.080701,0.33553,-0.91903,0.071837,0.046175,0.033863,0.0016023
-0.13184,-0.3616,-0.59627,0.035892,-0.10534,-0.030265,-0.025939,-0.041203
0.074829,0.2392,0.13001,0.51432,0.019971,-0.014324,-0.016933,-0.040671
-0.047462,-0.38463,-0.11206,-0.36308,0.049188,0.015615,-0.017744,0.018872
-0.014288,0.34933,-0.33535,-0.46274,-0.072169,-0.041943,-0.020617,0.020999
-0.051767,0.079726,0.20066,0.32888,0.047011,-0.0069326,-0.0016978,-0.040781
0.10645,-0.36583,0.19943,0.001417,-0.069164,0.02751,0.0085703,-0.016421
-0.015394,0.21633,0.12238,0.715,0.16599,0.023033,-0.02005,0.040948
0.052147,0.28057,0.16382,-0.25654,0.042255,0.034989,0.069678,0.062179
-0.018619,-0.085729,0.062169,-0.19885,-0.17408,-0.061132,-0.026207,-0.053776
-0.0010116,-0.27946,-0.16609,-0.14482,-0.084049,0.00052947,-0.0027062,-0.033738
0.096992,0.30249,-0.022951,0.70424,0.15653,0.048062,0.054071,0.14475
-0.23277,0.029044,-0.051435,-0.65269,-0.0068099,0.010881,0.018531,-0.051063
0.095241,-0.33989,-0.099972,0.048027,-0.13654,-0.056751,-0.071118,-0.068151
0.064975,0.096683,0.077227,0.070961,0.22018,0.016556,0.018593,0.16233
-0.14428,-0.025501,-0.42893,-0.012198,-0.1794,-0.035274,-0.041204,-0.1496
-0.017351,-0.17214,0.41181,-0.21243,0.062272,0.0061498,-0.047814,-0.19944
0.03108,0.1673,-0.0012909,-0.27178,0.045688,0.023398,0.045584,0.068084
0.14862,0.26035,0.17781,0.11724,0.01972,0.016338,0.012703,0.052564
0.068606,0.053026,-0.078963,0.16205,-0.032244,0.00055365,0.033722,0.10698
0.016517,-0.11158,0.0051825,1.1016,0.021974,-0.016121,0.0076406,0.27172
0.030533,-0.094798,-0.28558,-0.52152,-0.12244,0.021086,-0.0025434,-0.27254
-0.4366,-0.40736,-0.23055,-0.65807,-0.0040801,-0.020492,-0.027735,-0.10342
0.13892,0.35352,0.61612,-0.12776,0.081173,0.031246,0.018161,0.06038
0.031648,0.098346,-0.20755,0.27183,0.0018842,-0.034329,-0.028931,-0.039292
0.071465,0.20672,0.24898,0.38281,-0.029508,-0.021523,-0.0050899,0.050131
-0.020838,-0.16759,0.021038,-0.33597,0.043033,-0.00024273,0.026971,0.046727
0.10822,-0.30728,-0.34875,-0.12096,-0.037354,-0.00137,-0.0032916,-0.050186
0.038227,0.16235,0.065254,0.47934,0.042218,0.045652,0.0211,0.071276
-0.15197,0.05464,-0.18541,-0.27806,0.015896,-0.0075625,-0.056265,-0.081558
0.068804,-0.19122,0.28024,0.39617,-0.031175,0.010682,0.014513,-0.0090149
-0.10492,0.23936,-0.23352,-0.8091,0.0013769,-0.0093847,0.0068263,-0.0081204
0.098926,-0.28448,-0.022776,0.37397,0.002808,0.0020034,0.022235,0.022688
-0.055696,0.23081,0.24996,-0.51296,0.010871,-0.010434,0.013889,0.067905
0.054476,0.40284,0.17246,0.25883,-0.077039,0.007468,-0.010353,-0.012897
-0.095546,-0.52669,-0.33176,0.32323,0.011887,-0.030578,-0.042612,-0.094468
0.15716,0.14415,0.051097,0.62508,-0.027197,-0.015309,0.003139,0.073484
-0.039508,0.054559,0.071906,-0.56416,0.18882,0.061225,0.048891,0.0069202
-0.029169,-0.19503,0.0048053,0.20587,-0.073788,-0.027184,-0.03803,-0.051586
0.02496,0.28566,0.24125,-0.21573,-0.079718,-0.0066142,0.015962,0.046826
-0.21162,-0.18236,-0.12374,-0.36898,-0.0076385,-0.0015435,7.5272e-05,-0.017717
0.083178,-0.49575,-0.31479,0.31793,0.041873,-0.0037079,0.0081783,0.0051828
0.090863,0.41057,-0.29812,-0.0023725,-0.016333,0.010628,-0.029965,-0.063873
-0.046483,0.42236,0.32751,-0.66729,0.0056953,0.033748,0.018474,0.025209
0.10163,-0.29352,0.072336,0.12731,-0.079524,-0.020399,-0.018444,-0.016814
-0.02733,0.093196,0.26593,0.50505,0.15725,0.0041581,0.015384,0.10645
0.19862,0.06809,-0.099664,0.24325,0.027674,-0.0023248,0.041598,0.019219
-0.2532,-0.79842,-0.057603,0.38886,-0.055267,-0.040214,-0.057287,-0.08413
-0.087634,0.59424,0.14645,-0.55443,0.024535,0.038647,0.030894,0.053255
0.021823,0.15814,-0.28102,-0.23511,-0.16344,-0.031505,-0.030116,-0.061574
0.058293,0.13269,0.28035,0.26625,0.067935,0.030596,0.03286,0.0084931
0.028894,-0.34473,-0.37652,-0.20186,-0.0077481,-0.032714,-0.022515,-0.017711
0.074165,-0.011805,0.097271,0.22589,0.024244,0.020979,0.0068691,-0.053699
-0.047606,0.17536,-0.072684,-0.23089,0.016492,0.0044086,0.0039645,0.057681
-0.038617,-0.18395,0.1143,0.17464,-0.022046,0.0036931,-0.0075095,0.012799
0.00078867,0.049513,0.16029,-0.40827,0.011236,-0.012337,0.011904,0.039207
-0.053065,-0.085676,-0.19742,0.001367,0.062397,0.01879,-0.015461,-0.010815
0.074485,-0.081448,0.12257,0.51208,0.038041,0.02664,0.0046009,0.0036912
-0.060941,0.078571,-0.0016621,-0.23517,-0.14002,-0.059261,-0.06815,-0.026732
0.088008,0.45791,0.088742,0.11125,0.043428,0.026562,0.14154,0.077173
-0.0099835,-0.15318,-0.15121,-0.028239,0.0018002,-0.0050374,-0.069383,-0.13055
0.011672,-0.073556,0.068676,-0.047984,0.0077608,-0.021236,-0.0057118,0.021258
-0.12148,-0.13726,-0.26689,-0.18082,-0.072303,-0.0063063,0.027593,0.00071863
0.1518,0.11914,0.24799,0.60379,0.081163,0.016475,-0.047969,0.041748
0.07246,-0.19963,0.0028607,0.084844,-0.032511,0.023842,0.025009,0.058179
-0.21986,-0.30886,-0.11333,-0.803,0.039259,0.0081143,0.035229,-0.043727
-0.038247,0.060304,-0.11058,0.023699,-0.0085763,-0.030652,-0.064436,-0.091875
0.14849,0.43351,0.46951,0.51658,0.019185,0.0090812,0.007158,0.039107
-0.10458,0.11594,-0.086467,-0.69961,0.068072,0.041291,0.04694,0.021536
0.06265,0.19188,-0.18686,0.36808,-0.10349,-0.051324,-0.03084,0.035518
0.0026041,-0.38919,0.16708,-0.068276,-0.064812,-0.011053,0.016285,-0.012386
0.083299,0.055186,-0.45448,0.46871,0.029192,0.0136,-0.014508,-0.0048404
-0.022722,-0.097579,0.051031,-0.56011,-0.0075211,-0.016451,-0.02921,-0.027814
-0.04938,0.16351,0.38089,0.82841,-0.0017516,0.023792,0.011383,0.027889
0.034836,-0.062847,-0.27505,-0.11795,-0.0072942,0.0015108,0.029126,-0.0020694
-0.11371,-0.21463,-0.10215,-0.69095,0.12451,0.010418,0.023818,-0.00079888
0.02064,-0.32109,0.31498,-0.11182,0.010271,-0.012066,0.0029168,0.039263
0.008124,0.4968,-0.062579,0.10206,-0.023177,0.019884,-0.034016,-0.12423
0.12983,0.28328,0.2954,0.12965,0.037997,0.0045982,0.0063468,0.024318
-0.17707,-0.33919,0.051183,0.16656,-0.13626,-0.042365,-0.016928,0.094339
0.14947,-0.022557,-0.47681,0.088865,0.022701,0.0040093,-0.0023875,-0.039026
0.085354,0.0012927,-0.12571,-0.22686,-0.048715,-0.0046068,0.0032084,0.030641
-0.11232,0.037243,0.34681,0.90095,0.071044,0.017916,0.03143,0.0066317
-0.24896,0.051894,-0.456,-0.81465,-0.023824,-0.0063151,-0.096961,-0.040591
0.19823,0.27549,0.30483,-0.63707,0.0036818,0.016672,0.071638,-0.071846
0.0022376,-0.32079,0.13305,0.17028,-0.0090983,-0.022344,0.0063756,0.045756
0.12378,-0.13324,-0.40526,0.42957,0.040818,0.032935,0.035619,0.015352
-0.022991,0.37225,0.23927,0.15754,0.029564,-0.012877,-0.0046332,0.055623
-0.023577,-0.15136,0.45803,0.65108,-0.12817,-0.019333,-0.0050939,-0.01327
-0.025578,-0.213,-0.22679,-0.73165,0.15358,0.013314,-0.012798,-0.0040367
-0.19965,-0.17862,-0.27139,-0.35226,0.0070726,0.0066692,-0.035698,-0.0028313
0.080673,0.13473,0.29654,0.34886,-0.053002,-0.00044037,-0.0035357,-0.064506
0.10596,0.52854,-0.090049,-0.21732,-0.035565,-0.023794,-0.025636,-0.0016272
-0.0913,-0.53901,-0.25543,0.12593,0.003699,0.022507,0.023107,0.013967
0.083295,0.34292,0.11805,-0.061456,0.017259,-0.0098942,0.0021471,0.044893
0.051507,-0.13476,-0.18933,-0.0081486,-0.096632,-0.0036207,0.059869,0.020976
-0.0079038,-0.22807,0.15119,0.45617,0.09984,0.0025225,-0.01491,-0.081114
0.012849,0.30529,0.11023,0.13532,-0.056667,-0.0068151,0.019557,0.090225
-0.0053493,0.44057,0.088671,-0.83002,0.098873,0.023289,0.022079,-0.043166
-0.0096684,-0.55883,-0.13763,0.35043,-0.080962,-0.016391,-0.15634,0.010815
-0.12651,-0.21888,-0.051218,-0.13329,0.060966,-0.0086378,0.10108,-0.060419
-0.044066,0.090941,0.098832,0.3554,0.0096707,0.030833,0.01296,0.094644
0.0033982,-0.084162,-0.070288,-0.27253,-0.062642,-0.015354,0.02486,-0.078654
0.11821,0.25489,0.51101,-0.18387,0.062799,0.032248,-0.050136,0.013557
0.020248,0.4047,-0.49431,0.47765,-0.098627,-0.045342,0.015383,0.05116
0.046652,-0.47826,-0.1576,-0.44847,0.038569,0.0017132,-0.23076,-0.059352
-0.075073,-0.041934,-0.13574,0.10195,-0.010584,-0.0063339,0.18881,0.033816
0.054033,0.073675,0.21961,0.065846,0.042301,-0.0069257,0.13397,-0.036358
-0.058156,-0.044887,0.23699,0.073071,0.040273,0.031339,-0.035903,0.034862
-0.02914,0.16539,-0.1375,0.26716,-0.017325,-0.00071367,0.061515,-0.018253
0.12494,0.13449,0.30017,0.33739,-0.11541,-0.0091419,-0.16842,0.038417
