-0.2164,0.27152,0.053085,-0.044382,-0.0013307,-0.017092,-0.0060653,-0.019036
0.014956,-0.20662,-0.32349,-0.12467,-0.036724,-0.016928,-0.0050502,-0.01117
0.095063,0.058194,-0.037059,0.36433,-0.0099325,-0.0087331,0.011331,0.019879
-0.14717,-0.22278,-0.027186,-0.31926,0.00052156,0.015336,0.019532,0.01153
0.094135,0.12257,-0.21851,-0.026543,0.0099986,-0.0072114,-0.0039633,-0.012876
0.093788,0.039749,0.76089,0.14921,0.026218,0.017349,-0.020112,0.0090872
-0.037561,0.028803,-0.41229,-0.14319,-0.02105,-0.0048017,-0.0054244,-0.0085373
-0.0098982,-0.14477,0.14234,0.34633,-0.0065734,-0.011277,-0.0066451,-0.018799
-0.049325,-0.028252,-0.26412,-0.22622,-0.047221,-0.0022285,0.0076671,0.0097422
-0.054369,0.13546,0.063639,0.1386,0.029218,0.0065441,0.0064824,-0.00073723
0.10716,0.1969,0.033474,-0.30988,0.066772,0.022687,0.0056327,0.020463
-0.018891,-0.13419,0.04692,0.27929,-0.01252,-0.016428,0.0052715,-0.012173
0.10528,-0.054315,0.069122,-0.12547,-0.0054959,0.021959,0.013282,0.034556
-0.06846,-0.20502,-0.48902,0.10097,-0.052861,-0.049607,-0.032858,-0.065634
-0.08799,0.069531,0.31422,-0.14236,0.017114,0.0033942,-0.00044372,-0.01578
0.03049,0.15238,-0.11977,-0.1982,0.0089585,0.0093212,0.0087843,0.012076
-0.080248,0.12262,0.73335,0.26278,-0.0071335,-0.00030335,-0.0053919,0.0096665
0.0021367,-0.1431,-0.50297,0.43713,0.015661,0.0060292,-0.0041389,0.015325
0.083167,0.10739,-0.30924,-0.68975,0.014868,0.036321,0.043586,0.11408
0.10135,-0.13123,0.003941,0.12495,-0.017238,-0.010905,-0.010803,0.031592
0.11235,-0.19245,0.50777,0.44396,-0.03366,-0.026304,-0.034554,-0.06098
-0.35961,0.058469,0.35949,-0.42826,0.012587,0.013431,0.01926,-0.2108
0.13129,-0.20567,-0.46979,0.22646,-0.06594,-0.048148,-0.021069,0.027665
-0.00072087,0.4052,-0.38928,-0.3115,0.13697,0.038728,-0.0068509,-0.016722
-0.076099,0.20137,-0.094084,0.058271,0.0040159,0.016023,0.023144,0.12584
0.084404,0.022915,0.11465,0.26413,0.019378,-0.0070784,-0.01676,0.050204
0.23795,0.037147,0.48536,0.0076673,-0.12179,0.00054803,0.022036,-0.00055349
-0.1084,-0.27605,-0.39598,-0.22056,0.025747,0.0076111,0.014553,0.013103
-0.18189,-0.34979,-0.099594,-0.00030839,-0.0066489,-0.024894,-0.02372,-0.080693
-0.029872,0.28314,0.32631,0.22172,3.7755e-05,-0.0030617,0.016325,0.053621
-0.066596,-0.24376,0.0027472,-0.18824,0.014948,0.0030269,0.0093598,0.0013985
0.090829,0.064406,0.047364,0.33208,-0.016199,-0.0063609,-0.029306,-0.034821
0.1536,0.18825,0.011963,-0.32605,0.016279,0.0080871,-0.013951,-0.11015
0.15327,0.061928,-0.23406,-0.122,0.06561,0.030926,0.039737,0.095541
-0.24582,0.18939,0.41936,0.14193,-0.0089792,-0.0080817,-0.03219,-0.027103
-0.035626,-0.098504,-0.33964,-0.054845,-0.090689,-0.01523,-0.0029027,0.014226
0.0027815,-0.21456,-0.32934,-0.037586,0.069929,0.0015238,0.0029562,0.0086562
0.0024004,0.10668,0.51745,-0.14771,-0.058983,0.0029073,-0.0064386,0.034194
0.072783,0.020216,-0.14284,0.84273,0.053281,-0.019121,0.00044128,0.051426
-0.020324,-0.12412,0.099614,-0.59727,9.0724e-05,0.028985,0.070599,0.036386
-0.12068,-0.023378,-0.27227,0.25804,4.4011e-05,-0.016985,-0.038202,-0.19118
0.13087,0.07116,-0.42232,-0.3976,-0.079589,-0.0086712,0.033214,0.19647
0.093243,0.16674,0.32169,0.12148,0.0036594,-0.0085845,-0.067006,-0.24605
-0.18739,-0.072374,0.39614,-0.014565,0.039243,0.02238,-0.011029,0.075429
0.07724,0.026582,0.20328,-0.0883,0.035377,0.0061725,0.021236,0.10704
0.058263,-0.38672,-0.24114,-0.0068084,0.023641,0.0053841,-0.0093782,-0.064107
-0.11977,-0.12364,-0.073549,0.1826,0.02768,0.020116,0.053405,0.039799
0.22286,0.64453,0.23062,0.5032,-0.053976,-0.043269,-0.024661,-0.041067
-0.1397,-0.13732,-0.21996,-0.75603,-0.049428,0.0028569,-0.024645,-0.032555
-0.04983,0.044768,-0.30911,0.26431,-0.044604,-0.028872,-0.0088652,0.010777
-0.11497,0.086417,-0.091439,-0.33423,0.069904,0.010109,-0.0084485,-0.0053589
-0.075128,-0.42998,0.45882,0.29213,-0.026154,0.018321,0.03132,-0.019623
0.33726,0.29658,0.042186,0.33091,0.12042,0.073902,0.11036,0.45858
-0.15001,-0.22133,-0.34868,-0.55386,-0.060645,-0.057599,-0.09963,-0.23651
-0.0055988,0.35813,0.45364,0.34089,-0.10838,-0.0404,-0.04417,-0.34855
0.066127,-0.35596,-0.27959,-0.30525,0.10221,0.039356,0.010914,0.012241
0.031405,-0.17472,-0.18962,0.28892,-0.014781,-0.029479,-0.028265,-0.029276
0.089984,0.42036,0.11413,0.053168,0.079763,0.065423,0.080426,0.24625
-0.074231,0.12848,0.52172,-0.18413,-0.074945,-0.043228,-0.014553,0.074285
-0.10491,-0.30389,-0.85172,0.046253,-0.064612,-0.042944,-0.031867,-0.12977
0.035211,-0.013389,0.30965,-0.21588,0.0094734,0.02728,0.052048,0.22129
-0.005445,-0.25483,0.068647,-0.032155,-0.0087063,0.019136,-0.028268,-0.25427
-0.13908,-0.018912,0.00052295,0.4968,-0.0018931,0.026523,0.016445,0.045857
0.12995,0.85036,0.45887,-0.050111,0.13908,-0.012924,-0.016703,-0.010699
-0.10021,-0.21929,-0.26727,-0.023902,-0.023837,-0.02881,-0.049334,-0.15821
-0.059577,-0.074749,0.15722,-0.43222,-0.054027,-0.028932,0.0047274,0.11089
-0.0026439,-0.00084238,-0.6271,-0.072227,0.063039,0.041334,0.028459,0.077245
-0.060776,-0.47721,0.13183,-0.069737,-0.15815,-0.029087,-0.0093556,0.068026
0.74954,-0.1776,0.16586,0.82384,0.093959,0.07993,0.086456,0.13674
-0.12163,0.33518,0.28089,0.012802,-0.087492,-0.038061,-0.035976,-0.2803
-0.2335,-0.062714,-0.36207,-0.59105,0.18802,0.023049,-0.0098876,0.081578
-0.083162,0.25587,-0.15392,-0.23983,-0.10248,-0.057073,-0.054465,-0.16085
-0.58092,0.27789,0.15666,0.2447,-0.020499,-0.012653,0.025265,0.055168
0.36477,-0.1348,0.24287,0.87021,0.083846,0.031645,0.057278,0.37123
0.2931,-0.29267,-0.059568,-0.79923,-0.10021,-0.0018224,-0.059899,-0.39868
-0.19202,0.12608,-0.042787,0.50544,-0.03183,0.0046771,-0.0056485,-0.0028451
-0.27418,-0.26048,-0.56524,-1.1326,-0.068841,-0.042119,-0.068593,-0.1663
0.18394,-0.02244,0.48709,0.11312,0.15696,0.014351,0.025149,0.26034
0.07699,0.066244,-0.0020174,0.17017,-0.0025984,0.010057,0.064947,0.21463
0.3998,0.066642,0.85655,0.63662,0.13157,0.11659,0.1368,0.17218
-0.057792,0.47637,-0.20507,0.69367,-0.11381,-0.065045,-0.071994,-0.29066
-0.32815,-0.29372,-0.42204,-1.1372,-0.04539,-0.059052,-0.10874,-0.32457
-0.1014,-0.059698,-0.51831,0.044982,-0.0013098,0.00096841,-0.0052152,0.11514
0.04877,0.1282,0.13844,0.63854,-0.0539,0.020595,0.058448,0.20644
0.2127,-0.20896,-0.79905,-0.47498,0.0844,-0.00059469,-0.058648,-0.12968
-0.15137,0.26391,0.91945,-0.46837,-0.024649,0.015427,0.0888,0.23965
-0.068429,-0.63191,-0.25902,0.51863,0.0097077,-0.024864,-0.069272,-0.36434
-0.17148,0.012421,0.30692,0.12272,-0.069389,-0.035042,-0.016795,0.099032
0.4859,0.34119,0.71623,-0.070534,0.1303,0.063653,0.082706,0.14738
-0.062889,0.084822,-0.4602,-0.018819,-0.037681,-0.017203,-0.043698,0.032783
-0.04949,0.41845,0.10937,-0.38763,-0.11034,-0.011483,-0.0050133,-0.11013
-0.27577,-0.10122,-0.20788,0.39402,-0.0077932,-0.02049,-0.019842,-0.0066038
-0.24719,-0.57523,-0.16355,-0.67249,0.13046,0.08855,0.052328,-0.015328
0.35013,-0.082522,-0.031879,0.52282,-0.05465,-0.044056,-0.007602,-0.050431
0.274,0.36734,-0.006141,0.34548,0.076855,0.02649,0.026405,0.19981
-0.11775,0.06909,-0.32221,0.24374,0.039096,-0.020706,-0.041556,-0.12538
0.1095,-0.018342,0.22618,-0.87678,-0.17006,-0.068959,-0.047961,-0.035622
-0.20423,0.033394,0.44316,0.94871,0.017318,0.014243,0.045872,0.092099
0.17951,0.020816,-0.47385,-0.80957,0.10683,0.041377,0.021046,0.099687
-0.20317,-0.57096,0.056252,-0.30765,-0.012511,-0.0029147,-0.059835,-0.31896
-0.033406,0.40032,0.44155,1.0875,0.049258,0.022502,0.061378,0.17135
-0.26392,-0.024205,-0.45966,-0.86491,-0.10584,0.0011086,-0.013257,0.20349
0.07618,-0.21774,-0.12917,0.080359,-0.22622,-0.097631,-0.056609,-0.44042
0.34967,-0.015391,0.3606,0.28809,0.25313,0.086309,0.07249,0.29583
0.0057568,0.46504,-0.051572,-0.1246,0.0070854,-0.009094,-0.0083454,-0.10147
0.0012022,0.3386,0.33539,0.46161,-0.10198,-0.024237,-0.041053,-0.083461
-0.13002,-0.15575,0.11948,-0.2617,0.12368,0.056442,0.052534,0.24996
0.082333,-0.21679,-0.061544,-0.74211,0.091806,-0.0095873,-0.040246,-0.10015
-0.33028,-0.44093,-0.65306,0.52694,-0.2052,-0.058834,-0.0072122,-0.055337
0.58446,0.163,-0.18198,0.62258,-0.0027454,0.025187,0.057474,0.094883
-0.1749,0.025662,0.17358,-0.88623,0.1111,0.015186,-0.018482,-0.048968
-0.023998,-0.41283,-0.29131,0.4511,0.055348,0.0042761,-0.024489,-0.019496
-0.32357,0.085261,0.42439,-0.35409,0.053478,0.015433,0.015803,0.29914
-0.10573,0.59314,0.49417,0.19158,-0.15514,-0.037512,-0.053907,-0.68787
0.066558,-0.13786,-0.53527,0.50083,-0.041351,-0.013926,0.032101,0.55018
0.35712,0.7899,0.18389,-0.93811,-0.15308,-0.046413,-0.015051,-0.2836
0.078074,-0.68106,-0.13005,0.4936,0.10348,0.029416,0.00014003,0.045546
0.0021011,0.12513,0.57284,-0.2509,0.15902,0.081098,0.062169,0.10072
-0.20792,-0.70918,0.26911,1.1325,-0.039442,0.0073668,-0.0086468,-0.0081736
0.079366,0.47808,-0.76884,-0.73906,0.15072,0.027173,0.029773,0.12539
-0.17646,-0.10945,-0.048669,-0.28587,-0.22159,-0.10155,-0.064927,-0.11582
0.047094,-0.1639,-0.5436,-0.50364,0.017277,-0.027123,-0.042888,-0.068067
0.22635,0.054388,0.7775,0.98225,0.056232,0.094343,0.095855,0.16665
-0.40374,0.098531,-0.59663,-0.59115,-0.088143,-0.072855,-0.062636,-0.060446
0.27526,0.11482,0.17782,-0.21878,0.092452,0.0028464,-0.025891,-0.21039
0.0072866,-0.25242,0.46991,0.98856,0.10585,0.032729,0.026792,0.076413
-0.096473,0.38035,-0.054591,-0.84549,-0.26714,-0.021977,0.0020668,0.0035514
-0.073515,-0.13003,-0.42733,0.39391,0.027334,-0.012675,0.025249,0.040326
0.20217,0.71902,0.6604,0.5543,0.081846,0.044971,0.018354,0.069988
0.074614,-0.8917,-0.38508,-0.67508,0.13715,0.049151,-0.01088,-0.0088543
-0.058146,0.39853,-0.23929,-0.55995,-0.0036171,-0.023991,-0.0002309,0.28804
0.021708,-0.063226,0.8648,0.50759,-0.0059597,-0.01089,-0.0047985,-0.33656
-0.28076,-0.52047,-0.16647,0.33779,-0.27728,-0.076071,-0.040667,-0.17995
-0.0057515,-0.19744,-0.73912,0.36588,0.18957,0.022308,0.024564,0.26539
0.095812,0.23935,-0.38268,-0.55826,-0.074217,-0.051868,-0.043774,-0.38343
0.20307,0.054671,0.59425,-0.20859,0.088108,0.084175,0.066676,0.4753
0.026779,0.38013,-0.1459,-0.42809,-0.056891,0.024226,0.012175,-0.02531
-0.21411,-0.18622,-0.0013943,0.44919,-0.00025122,-0.03637,-0.050895,-0.18184
0.074664,0.2235,0.38837,0.06627,0.095074,0.035159,0.018305,0.045007
0.050171,0.35588,0.15781,0.34713,-0.2232,-0.04256,-0.022161,0.03817
-0.12251,-0.52249,0.0038483,-0.12904,0.24848,0.034976,0.038884,-0.022657
-0.20789,0.063987,0.15475,-0.35489,0.025708,0.0097846,-0.0014874,-0.02037
0.44348,0.10659,-0.82484,0.32382,-0.095078,-0.040085,-0.010333,-0.0098044
-0.17546,-0.065337,0.044583,0.64612,-0.12235,-0.036423,-0.026662,-0.030226
0.1153,-0.36101,0.2747,-0.82128,0.13072,0.044487,0.027631,0.050905
-0.035946,-0.10717,-0.53625,-0.55831,-0.031657,-0.0078414,-0.0037806,-0.024573
-0.24703,-0.040646,0.47545,0.27633,0.031005,-0.0053476,-0.0038254,-0.030525
-0.050215,-0.043996,-0.069701,0.59541,-0.13412,-0.049022,-0.0038814,0.032596
0.38921,0.68861,0.58757,-0.34345,0.15336,0.12725,0.011564,0.3988
0.023088,0.0166,0.016844,0.077614,-0.13679,-0.03871,0.0033804,-0.43987
-0.36058,-0.17979,-0.25332,0.28956,0.17626,-0.015514,-0.004991,-0.069087
0.3938,0.12469,-0.25809,-0.44036,0.015492,0.0014687,-0.0056457,0.058735
-0.28411,0.084692,0.045267,0.6789,-0.18853,-0.019207,0.025037,-0.00056204
0.0048186,-0.41332,-0.40138,-0.43631,-0.013493,-0.030954,-0.037691,0.15285
-0.011528,0.1095,0.54039,-0.15054,-0.014155,0.004957,-0.021673,-0.089055
-0.042374,-0.18837,-0.56783,-0.2892,0.18378,0.049104,0.026455,-0.014397
-0.039153,-0.038063,0.023929,-0.475,0.094655,-0.00044931,-0.0025606,-0.036969
0.23372,0.3388,0.71429,0.80893,-0.1114,-0.003471,0.016222,0.084823
-0.051538,-0.20722,0.10465,0.83549,-0.13945,-0.046298,0.012216,-0.017671
-0.083173,0.1604,-0.11048,-0.89015,0.024278,0.034747,-0.0072403,0.044018
0.25425,-0.29876,-0.40115,0.22897,0.073691,0.0049602,0.011939,-0.052909
0.075453,0.60509,0.35634,0.37465,0.070556,0.051623,0.02227,0.14233
-0.34095,-0.36015,-0.35439,-0.78687,-0.10221,-0.067508,-0.031418,0.20619
-0.17694,-0.47389,-0.23612,0.037067,-0.0061541,0.0070963,-0.05561,-0.64319
0.12848,0.60877,0.048583,0.69629,-0.038034,-0.044499,0.0044645,0.12616
-0.018916,0.075808,0.24428,-0.86263,0.023057,0.028279,0.032018,-0.038572
0.076655,0.12249,0.1974,0.059716,0.06222,0.046442,0.0042566,0.1153
0.3305,-0.61863,-0.16007,-0.18688,0.0033814,0.010708,0.023494,0.24692
-0.30254,0.23517,0.18104,0.81842,-0.12074,-0.093929,-0.042374,-0.063154
-0.054934,-0.18298,-0.17757,-0.1683,0.09675,0.014188,0.010298,0.061638
0.22369,0.4481,-0.010257,0.34158,0.061827,0.053925,0.017679,-0.16735
-0.27732,-0.46406,0.001689,-0.73598,-0.054751,-0.013988,0.0031126,-0.03202
0.1234,0.29292,0.47378,0.73908,0.15936,0.075578,0.036521,-0.018165
0.10702,0.11092,-0.38419,-0.79813,-0.18844,-0.045257,-0.038936,0.26304
-0.16114,-0.54838,-0.28339,0.64892,-0.053106,-0.010045,0.010463,-0.25265
0.02294,0.83058,-0.17618,-0.56405,0.11089,-0.022546,-0.018978,0.019359
0.12846,-0.55782,-0.2096,-0.12776,-0.19713,-0.090972,-0.057314,-0.0545
-0.35248,0.15183,0.47713,0.11944,0.093195,0.073633,0.059422,0.056931
0.32936,-0.32418,0.40814,0.49637,0.14654,0.010503,-0.020161,-0.036527
0.055335,0.41754,0.70016,0.52572,-0.028308,0.048131,0.024634,0.12684
-0.15318,0.045918,-1,-0.98804,-0.086543,-0.023973,0.022426,-0.0068145
0.091916,-0.17612,-0.015005,-0.41194,-0.0038229,-0.017891,-0.0341,0.071066
-0.0011261,-0.29756,-0.4173,0.29339,0.07983,0.0041794,0.011705,-0.084359
-0.067621,0.25067,0.20587,0.9486,0.016216,0.034577,0.011636,-0.11355
-0.093933,0.35119,0.33902,-0.47729,-0.10882,-0.075144,-0.065537,-0.055699
0.12965,-0.25284,0.015033,-0.015259,0.07939,0.034258,0.045625,0.0028382
-0.24877,-0.012485,-0.067886,0.014798,-0.013323,0.011002,0.016633,0.14737
0.37293,-0.1669,-0.14833,-0.69105,-0.012343,0.0032847,0.011073,0.31462
-0.10543,-0.25156,-0.089815,0.48562,-0.050715,0.010902,0.0050182,-0.26178
0.044698,0.206,0.048226,0.33557,0.01996,-0.0053249,-0.017555,-0.16049
-0.07268,0.52935,0.36151,-0.46737,0.059202,-0.0063249,0.0056453,0.071459
-0.25961,-0.30264,0.15526,0.65681,-0.057736,-0.038829,-0.058152,-0.15151
0.29898,-0.093546,-0.54022,-0.61075,0.04441,0.0067925,0.01791,0.21045
-0.027455,0.21118,0.0072626,0.2384,-0.071701,-0.017594,-0.039127,-0.14626
-0.03416,-0.18647,0.2009,-0.88213,0.047033,0.04454,0.036904,0.13094
-0.040665,-0.085079,-0.03309,0.83837,0.087863,0.052743,0.066785,0.027171
0.038758,0.029057,-0.16685,-0.025098,-0.13715,-0.039838,-0.019524,-0.051109
0.038825,0.20106,0.50758,0.85144,0.0355,0.0010397,0.043625,0.052005
-0.034756,-0.11741,-0.59802,-0.81776,0.15218,-0.012375,-0.056484,0.09352
0.018408,-0.1853,0.26492,-0.020898,-0.13901,-0.041325,-0.023347,-0.11509
0.070332,-0.058364,-0.13072,0.099269,0.029135,0.031083,-0.013628,-0.13729
-0.10837,0.32469,-0.073725,-0.5272,-0.0305,0.024934,0.011382,0.010664
0.073781,-0.36589,0.62434,0.1106,-0.10622,-0.020851,0.0045861,0.00047811
-0.17364,0.40685,-0.64447,0.13524,-0.07208,-0.043828,-0.0028307,0.09029
0.05529,0.4842,0.4185,-0.071733,0.22911,0.05758,0.036078,0.10895
0.073814,-0.54247,-0.12231,0.6054,0.094876,0.033423,-0.0035253,0.096479
0.055442,-0.22952,-0.30404,-0.39114,-0.083979,-0.045922,-0.0042551,-0.17265
0.018048,0.14134,-0.16409,-0.1452,-0.026542,-0.0085171,-0.044055,-0.26004
-0.22336,-0.59279,0.27522,0.31875,-0.046087,-0.018368,0.0021996,0.084929
-0.01796,0.48489,0.12364,0.067173,-0.034248,0.0027016,0.0095504,0.096773
0.20653,0.38609,0.37287,0.30509,0.04705,0.04694,0.056077,0.11096
0.18578,-0.12691,-0.0016381,-0.91955,0.11896,0.05193,0.016668,0.1264
-0.22031,-0.049736,-0.6028,0.19164,-0.13132,-0.075951,-0.046313,-0.14757
-0.20724,-0.11305,0.35747,0.040207,-0.023865,-0.024021,-0.015782,0.10763
0.25555,0.02179,-0.20685,0.076817,-0.026739,-0.010784,-0.032384,-0.16421
0.081148,-0.1672,-0.23228,0.51242,0.017304,0.018721,0.021152,-0.057723
-0.21577,0.19516,0.087802,-0.61172,0.062449,0.025686,-0.0034394,-0.0963
0.12192,-0.18914,-0.25998,-0.17456,-0.007644,-0.013163,0.026867,0.15073
-0.062367,0.22452,0.74964,0.32855,-0.0050648,0.011565,0.010698,-0.041455
-0.167,0.21416,-0.12481,0.10542,0.02316,-0.0018567,0.0028543,0.048006
0.30831,-0.33338,0.068951,0.066278,0.06852,0.039995,0.034598,0.3196
-0.25333,-0.031419,-0.054139,0.018604,-0.034144,-0.027375,-0.073843,-0.56887
0.04648,-0.055415,-0.0050155,0.042,-0.13763,-0.048168,-0.033562,0.08654
0.019693,0.21682,-0.27902,-0.66018,0.10852,0.02412,0.053696,0.63735
0.11042,0.080476,0.11369,0.77072,-0.038569,0.0095845,0.031501,-0.53447
0.25441,-0.23042,-0.34349,-0.57293,0.022502,0.0097709,-0.022173,0.077509
-0.026886,-0.027371,0.22499,0.33053,-0.035961,-0.014205,-0.029303,-0.16118
-0.50092,0.09031,0.086463,-0.16154,0.0056829,-0.0073312,0.025688,0.10725
0.18265,0.21953,-0.19439,-0.0043829,-0.054548,-0.023903,0.041247,0.3581
-0.27337,-0.26108,0.27497,-0.27048,0.003208,0.01456,-0.084127,-0.52662
0.14724,-0.30111,0.034598,0.45221,0.062574,0.022347,0.009033,0.077844
0.35207,0.2742,-0.009443,0.76362,0.084809,-0.00051332,0.0083251,0.23422
-0.039938,0.32594,0.63386,-0.64953,0.085317,0.062987,0.046637,-0.033456
-0.10514,-0.48162,-0.73239,-0.38834,-0.13187,-0.060934,-0.0010016,0.010026
-0.052917,0.57678,-0.41415,0.056949,-0.012898,0.010123,-0.0096023,-0.079739
0.055449,-0.26701,0.53363,-0.31825,-0.081968,-0.0367,-0.018265,-0.10658
-0.13859,-0.21146,-0.40364,-0.11168,0.01988,0.017155,-0.011388,0.047375
0.0060763,0.46696,0.04966,0.6096,-0.043256,-0.0079529,0.026678,0.19508
0.17715,-0.34325,0.013534,-0.20756,0.072834,0.013268,-0.0055311,-0.061787
-0.13322,-0.39284,0.34226,0.49045,0.017304,-0.020263,-0.014099,-0.12185
0.098194,0.35811,0.48312,0.02793,-0.0059691,-0.022041,-0.045697,-0.048112
-0.058614,-0.056865,-0.45365,-0.07756,0.081693,0.055328,0.056116,0.11186
-0.0024501,0.31847,0.17237,0.34726,-0.063255,0.0012589,0.0023949,0.1385
0.05541,-0.090801,-0.53828,-0.55424,-0.0035128,0.0033482,0.027508,-0.047058
-0.033728,-0.50869,-0.14173,-0.60446,-0.036511,-0.0088993,-0.040567,-0.25007
-0.14503,0.27695,0.079106,-0.12183,0.016652,0.003153,0.016647,0.099534
0.24485,0.53124,0.29421,0.39935,0.037938,-0.00013638,0.01131,0.072177
-0.23138,-0.54497,-0.0065467,-0.095084,-0.0046526,-0.011569,-0.017854,0.0042846
0.027635,0.060219,0.20517,0.83354,-0.03351,-0.016053,-0.024228,-0.14242
0.24025,0.2329,0.097709,-0.31511,-0.0097749,-0.006139,0.031132,0.37519
-0.21913,-0.047018,-0.41086,-0.3494,-0.027081,0.010216,-0.023612,-0.26998
0.17995,0.0060632,0.11347,-0.043013,0.032134,0.017452,-0.00077786,-0.18641
0.022595,-0.30487,0.10583,0.16188,0.01995,0.0079942,0.0061585,0.23593
-0.20755,0.31757,-0.012411,0.83526,-0.063104,-0.041259,0.013118,-0.041724
-0.15157,-0.63951,-0.21595,-0.37647,0.15058,0.03412,0.0047212,-0.066435
0.23732,0.37525,0.14023,-0.13888,-0.088735,-0.015548,-0.0032722,0.23139
0.076609,0.28121,-0.156,-0.70078,0.054966,0.044351,0.0047606,-0.18852
-0.0080719,-0.36183,-0.041989,0.12295,-0.0746,-0.036047,-0.026003,-0.13235
-0.14867,0.3172,0.20923,-0.29802,-0.040002,-0.0067027,0.0057699,0.31237
0.17139,0.14843,-0.020254,0.53523,-0.02876,-0.016079,0.037311,0.089622
-0.40633,-0.23547,-0.11637,0.28829,0.13889,0.029517,0.0058884,-0.20763
0.47831,0.10872,0.055074,-0.19306,0.0491,0.028471,-0.04176,-0.21224
-0.15072,-0.2677,0.10886,-0.27569,-0.11034,-0.034862,0.0037454,0.021887
-0.058869,0.11564,0.039047,0.19353,-0.073416,-0.027644,-0.052754,-0.089785
0.097463,0.067462,0.17297,0.73837,0.0039759,0.011121,0.054636,0.32166
-0.018101,-0.17301,0.14919,-0.43423,0.12212,0.019003,0.013728,0.25002
-0.14058,-0.037267,-0.61989,-0.39421,-0.0079377,-0.011766,-0.011142,-0.3426
0.08084,0.12257,0.25677,-0.12748,-0.026961,0.02035,0.0036228,-0.033859
-0.034268,0.15081,-0.39681,0.49717,-0.11503,-0.04101,-0.012295,0.0041626
-0.049058,-0.013669,0.24724,-0.37177,0.17253,0.069574,0.019067,0.012874
0.32506,-0.0096259,-0.21392,0.39378,-0.0087554,-0.01534,0.03493,0.26462
-0.17773,-0.30378,0.50717,-0.31653,-0.011204,-0.014759,-0.027513,-0.31983
-0.06509,0.14485,-0.081795,0.015785,-0.061955,-0.014807,-0.02788,0.0086366
-0.00046416,0.12688,-0.18408,-0.23599,-0.059748,-0.015539,-0.028762,-0.023849
-0.068764,-0.075408,0.10511,0.17849,-0.004546,-0.0090469,0.040254,0.1922
0.036044,0.030629,-0.17108,0.12723,0.12744,0.036164,-0.00023124,0.10275
-0.051784,0.015189,0.097975,-0.28849,-0.038209,-0.0045682,-0.016996,-0.24423
0.20025,0.12774,0.21551,0.45195,-0.055539,-0.02151,-0.0017926,-0.034917
-0.066475,-0.17932,-0.0096527,0.07684,0.04479,0.032516,0.006661,-0.049254
-0.086261,-0.016109,-0.027734,-0.056148,0.036623,0.0092544,0.031962,0.10436
0.10892,-0.078522,-0.031233,0.048535,-0.0095506,-0.020955,-0.011907,0.074727
-0.021449,0.047109,-0.12567,-0.19325,0.0077751,-0.011368,0.030979,0.10356
-0.073072,0.055801,-0.070941,-0.33452,-0.052261,0.0065078,-0.058638,-0.23235
0.14718,-0.06843,-0.24978,0.40886,-0.018128,0.016711,0.03115,0.11966
-0.17528,0.087905,0.1992,-0.19246,-0.015205,-0.027987,-0.036147,-0.06154
0.0047886,0.086442,-0.072428,-0.21694,0.049897,0.028353,0.035951,0.22179
0.13172,0.1058,0.086994,0.16533,-0.010639,-0.017603,0.020722,0.053995
-0.12278,-0.097282,0.3907,-0.089325,0.037318,0.0059434,-0.050464,-0.45611
0.062203,-0.29697,0.2222,0.10859,0.052989,0.013132,0.0024571,0.15314
0.016114,0.21755,-0.38835,0.73859,-0.096463,-0.027072,-0.0074662,-0.13198
-0.16551,-0.27179,-0.23252,-0.61168,0.042222,0.0028385,-0.017132,0.04277
0.23026,0.47084,0.053701,-0.10607,-0.06971,-0.0061548,0.028656,0.1255
-0.060268,-0.34937,0.021968,0.19188,-0.041184,-0.0068563,0.020809,0.009056
0.019188,0.2152,0.076392,-0.11812,0.06581,0.02438,0.013995,0.077347
-0.085004,-0.16924,0.052072,-0.17871,0.056414,0.009469,0.015705,0.20507
-0.27089,-0.063572,-0.3317,0.29744,0.0012199,0.01858,0.0097669,-0.2031
0.56279,0.30642,0.18456,-0.40164,-0.029438,-0.011089,-0.012262,0.17864
-0.2177,-0.012656,0.064116,0.23936,-0.035819,-0.025242,-0.097799,-0.31625
0.034728,-0.233,-0.13592,0.39268,0.051892,0.0069788,0.018461,-0.1584
-0.072052,-0.052026,0.51619,-0.56578,-0.040374,-0.016288,0.016191,-0.02842
