0.14946,0.052081,-0.04712,-0.017542,0.019495,-0.0089596,-0.052375,0.098811
-0.16955,-0.0024878,0.19744,0.045364,0.0039447,0.023239,0.039639,0.27399
0.019777,-0.018938,-0.35324,-0.047723,-0.019747,0.0014968,-0.039641,-0.21698
0.022248,0.0025678,0.16284,0.046674,0.018692,0.0036716,0.045915,0.48586
0.03283,0.061991,-0.21285,-0.038939,0.0098915,0.0059733,0.030765,0.17717
-0.01945,-0.020251,0.12322,-0.031383,-0.022649,-0.023207,-0.046077,-0.69431
0.099033,-0.0095113,-0.32776,-0.0011153,-0.00067186,-0.0060263,-0.0050893,0.13934
0.07522,0.047793,0.58277,0.10654,0.0057041,-0.0051355,0.01285,-0.35856
-0.25505,-0.10551,-0.31043,-0.14579,-0.026727,-0.020531,-0.0081806,0.16706
0.054034,-0.054601,0.3808,0.054616,0.019452,0.018232,0.0096481,0.47933
-0.12925,0.091958,-0.050138,0.028331,0.0037936,0.0097975,-0.0042233,-0.039294
-0.037867,0.037977,-0.40405,-0.013429,0.012318,0.016876,-0.0030872,-0.3403
-0.029846,0.033881,0.19037,0.12491,0.021552,0.01619,0.0051775,-0.31109
0.51283,-0.0062505,0.10532,-0.064217,-0.015535,0.0078165,0.012798,0.50571
-0.23018,-0.19226,-0.36381,-0.11964,-0.036691,-0.047305,-0.034777,-0.15888
0.076109,0.037393,-0.084211,-0.072397,0.0046585,-0.0085964,0.0111,0.37886
-0.10118,0.14225,0.39069,0.1089,0.0066466,-0.0011134,-0.0055767,-0.29211
-0.084235,-0.012146,-0.29638,-0.0054426,0.0080689,0.01417,0.04825,-0.10762
0.21143,0.11161,0.6773,0.084333,0.024355,0.013812,-0.038159,0.088844
-0.14441,-0.0034481,0.0015042,0.080859,0.0085307,0.02128,0.047822,0.19461
-0.20573,-0.18612,-0.97818,-0.17282,-0.055018,-0.041499,-0.10003,-0.32378
-0.0018238,0.024748,0.26297,0.14284,0.036958,0.020847,0.03381,-0.024081
0.22014,-0.15089,0.58505,-0.13689,-0.04345,-0.010385,0.019457,0.1135
-0.25554,0.062416,-0.60545,-0.098347,0.00091192,-0.025799,0.020648,-0.032187
0.42521,0.1046,0.55073,0.15689,0.029699,0.013641,-0.0020767,0.28488
-0.13484,0.017052,-0.056116,-0.050489,0.011898,0.021916,-0.010074,-0.15773
-0.17837,0.0045795,-0.42637,-0.0088791,0.0023483,0.0067031,0.011926,-0.027083
0.15945,0.02876,0.041297,0.079437,0.016734,0.014715,-0.014394,0.10459
0.10124,-0.090662,0.43277,0.012191,-0.023077,-0.0010709,0.012586,-0.028864
-0.17823,0.15247,-0.45491,-0.0067539,6.8503e-05,-0.025106,-0.031775,-0.52796
0.12073,-0.0020094,0.0269,-0.086244,-0.015403,-0.026102,0.0094265,0.086407
-0.013908,0.0058877,0.12829,-0.05415,-0.030394,-0.011709,0.0042571,0.42737
-0.053419,-0.23995,-0.018138,0.042605,0.01767,0.0027151,-0.022882,0.069806
-0.23251,0.17347,0.70423,0.10209,0.011671,0.040907,0.0069954,0.45612
0.30244,0.0041234,-0.54928,0.037708,0.021926,0.017183,0.00070233,-0.1979
-0.34282,-0.25444,-0.63129,-0.12799,-0.0063714,-0.021455,0.013014,-0.9815
0.17326,0.087504,0.27745,0.010247,-0.0031843,-0.0047348,-0.0034301,-0.21912
0.059938,-0.26443,0.21511,-0.056347,-0.03143,-0.01099,0.012812,0.41979
0.0025242,0.59029,0.31387,0.21055,0.072456,0.037573,0.044619,0.80303
0.22397,0.2387,0.44829,-0.0019485,0.003302,0.015582,0.019988,0.038319
0.023309,-0.34276,-0.92869,-0.17813,-0.03612,-0.030417,-0.015761,-0.0032793
-0.31839,-0.17887,-0.44207,-0.10649,-0.04593,-0.038123,-0.071516,-0.74943
-0.092643,-0.11556,0.12698,0.073346,-0.018145,-0.038817,-0.022594,-0.10531
0.00086328,0.047801,0.83319,0.12822,0.032066,0.030141,0.03784,0.5084
0.12041,0.26209,-0.065763,0.012495,0.027246,0.05964,0.0096684,-0.21061
0.4548,0.088252,-0.093588,-0.030628,0.0072129,0.026563,-0.18317,0.53111
-0.40085,-0.09919,0.20278,0.022893,0.0039157,-0.014095,0.1179,-0.61116
-0.10837,-0.21361,-0.019732,-0.10027,-0.036817,-0.046453,0.079033,0.051664
0.10963,-0.14386,-0.59512,0.02921,0.0024415,-0.031265,0.10799,-0.086087
-0.0061691,0.026705,-0.043355,0.035556,0.027871,0.023766,0.017885,0.26979
-0.095114,0.34778,0.015319,-0.004128,4.6333e-05,0.032747,-0.21507,-0.5548
0.34694,0.017175,-0.09361,0.034044,0.0043251,0.003473,0.087576,0.42166
0.068867,-0.033784,0.39982,-0.022834,0.0087735,-0.0016305,-0.16976,0.53088
-0.47551,-0.17185,-0.095998,-0.073988,-0.026327,-0.021751,0.21386,-0.069197
-0.40198,-0.10883,0.25381,-0.010482,-0.0077303,-0.017996,-0.091815,-0.29272
0.24329,0.37987,0.39775,0.089533,-0.01383,0.0016065,0.075443,-0.30514
0.20102,-0.34131,-0.63274,0.046748,0.010062,0.021177,0.065968,0.18846
0.16158,0.41998,0.52801,-0.036553,0.017312,0.0091732,-0.13632,-0.23568
0.36591,-0.42482,-0.63706,-0.10472,-0.022934,-0.011283,0.023654,-0.071094
0.050958,0.16157,-0.072792,0.030789,-0.0086671,0.014193,0.054917,0.77529
-0.25236,-0.055758,0.044943,-0.0040271,0.021433,0.038486,-0.20481,-0.69672
-0.068994,0.095954,0.044373,0.080636,0.067605,-0.032275,-0.27696,0.45042
-0.25119,-0.084248,0.43743,0.035138,-0.041971,-0.049601,0.61373,-0.56466
0.070132,-0.437,-0.72949,-0.15625,-0.033964,-0.036687,0.062261,0.53881
-0.30267,0.65838,0.4903,0.083996,0.021106,0.06937,-0.14186,-0.0057565
-0.24327,-0.16982,0.020319,0.012719,-0.025426,-0.01218,0.040063,-0.3951
0.48687,0.19806,-0.068691,0.011517,0.029398,0.04729,-0.33043,0.58784
0.25261,-0.1117,0.28371,0.12605,0.013646,0.0060017,0.096966,-0.44145
-0.042504,-0.40387,-0.63089,-0.2853,-0.096053,-0.073302,0.016364,-0.17971
0.12055,0.20291,0.53037,0.19098,0.083278,0.02036,0.1612,-0.057646
0.078536,0.14353,-0.025553,-0.070072,-0.018473,-0.01786,-0.031564,0.83047
-0.42807,0.00049417,-0.35965,-0.10692,-0.018325,0.014831,-0.16365,-0.5858
0.10487,0.035554,0.23931,0.16744,0.083798,0.11798,0.0072743,-0.19692
0.13378,0.27612,0.33407,-0.081599,-0.040281,-0.083899,0.22377,0.098985
-0.28306,-0.87489,-0.37084,0.014449,-0.062613,-0.091271,-0.16215,0.25537
0.51562,0.22073,-0.28599,0.011292,0.047793,0.056451,-0.017179,0.31172
-0.6584,0.46021,0.56342,0.089168,0.025026,-0.031561,0.24511,-0.58294
0.32931,-0.19537,-0.89205,-0.12693,-0.053026,0.0040297,-0.10133,0.15838
-0.59575,0.59929,0.54593,0.14372,0.055697,0.16335,-0.17308,0.27177
0.53233,-0.52011,0.045831,-0.02945,-0.0081627,-0.076781,0.030485,-0.69328
0.38296,-0.40106,0.23744,-0.12408,-0.064742,-0.067504,-0.27127,0.80578
0.031281,0.37536,-0.12483,0.046302,0.034692,0.0042176,0.30487,-0.49254
-0.22228,-0.49051,0.17344,-0.12851,-0.053265,-0.025038,0.47767,-0.029229
-0.61804,-0.0099208,-0.50599,0.038428,0.023253,0.0094763,-0.71433,-0.20674
0.5238,0.81214,0.78364,0.28901,0.092541,0.045889,0.35276,0.42288
-0.22806,0.20287,-0.37881,-0.095575,-0.0016651,0.0065404,-0.20544,0.094819
0.38109,-0.42546,-1.0634,-0.22455,-0.048622,-0.014618,0.21864,0.026586
-0.15297,-0.23303,0.47171,0.20707,0.045112,0.021354,-0.01729,-0.019462
-0.34292,-0.084441,0.51474,-0.14401,-0.095783,-0.050051,-0.14108,0.022182
0.45467,0.17107,0.11074,0.035302,0.012849,0.012637,0.22168,-0.28378
0.016581,0.28666,0.13194,0.11291,0.042839,0.01322,-0.44443,-0.036693
-0.19955,-0.28751,0.16087,-0.097904,-0.013477,0.1539,-0.27903,-0.16339
0.43746,0.41659,-0.16522,0.083317,-0.0073581,-0.23022,0.89915,-0.058343
-0.66584,-0.66204,-0.56764,-0.12397,-0.04781,-0.0069174,0.21705,0.61957
-0.093195,-0.56703,-0.16464,0.015125,0.076435,0.018782,-0.57337,0.18145
-0.083198,0.7838,0.06009,-0.030388,-0.017241,0.065617,0.076573,-0.40415
0.20428,-0.043359,-0.18826,0.067487,0.038356,0.094789,-0.80053,-0.042603
0.40592,0.31314,0.56952,0.073836,0.00085114,0.028667,0.43663,-0.12253
0.34486,0.25979,0.48411,0.018979,-0.020696,-0.17896,0.34251,-0.055072
-0.29781,-0.30669,0.0097724,-0.1139,-0.08133,-0.050769,0.38461,0.030518
-0.021945,0.29051,-0.88499,-0.044784,0.092095,0.085881,0.12333,0.18487
-0.33595,-0.42025,0.7673,0.27996,-0.039642,-0.0027323,-0.69377,-0.20576
-0.14677,-0.26873,-0.49598,-0.29651,-0.03903,0.027538,0.10318,0.20506
0.27178,-0.22328,0.32391,0.11639,0.078459,-0.018584,-0.025724,0.42686
-0.58801,-0.16419,-0.54685,-0.15261,-0.069754,0.069462,-0.032703,-0.14896
0.62565,0.37345,0.025212,0.046009,0.047809,-0.01375,0.29581,-0.37387
-0.18102,0.48773,-0.41958,0.065151,0.0016068,-0.073867,-0.58319,-0.4122
0.35056,0.49453,0.72931,0.093583,0.018213,0.10689,-0.11876,0.4778
0.42194,-0.5421,0.22214,-0.12561,-0.058756,-0.11284,0.37966,-0.18885
-0.45339,-0.41968,0.026572,0.064171,0.043894,0.024449,0.31923,0.25088
-0.12116,0.20282,0.29661,0.13137,0.029007,0.018992,-0.30202,-0.48605
-0.23096,-0.37401,-0.54069,-0.2061,-0.041149,-0.050291,1.0658,0.81631
-0.29813,0.5951,0.42698,0.08187,0.0051999,0.044385,-0.66204,-0.13485
0.13224,-0.23818,-0.46413,-0.029371,-0.027178,-0.054928,-0.41475,-0.35937
0.39119,0.25529,-0.35932,-0.0095643,-0.0052096,0.074986,-0.026394,0.39659
0.028888,-0.17669,-0.75278,0.0078781,-0.0066363,-0.064903,-0.23463,-0.44776
0.15754,0.32482,0.8785,0.038454,0.039257,0.064825,0.085712,0.48983
-0.2055,-0.93408,0.26823,-0.26129,-0.04692,-0.02839,-0.0070868,-0.47596
0.026046,0.041778,0.21814,0.24986,0.031798,0.021557,0.72751,-0.38716
0.28869,0.89696,0.40897,0.09601,0.10336,0.15836,-0.65619,0.43499
-0.60698,-0.52068,-0.5221,-0.10504,-0.074814,-0.22143,0.69281,0.0059954
0.071042,0.23764,-0.12157,0.053398,-0.011098,0.0054484,-0.82127,-0.010916
0.21098,0.28358,0.14745,-0.10813,-0.002903,0.064231,0.41437,0.14685
-0.25962,-0.23353,-0.030259,0.074542,-0.027169,-0.045688,-0.068334,-0.10514
0.44654,-0.37656,-0.45274,-0.015688,0.0019376,-0.0116,0.025479,0.2544
-0.23443,0.0954,0.022667,-0.13651,-0.024737,0.073715,0.40254,0.071652
-0.01454,0.11039,0.60534,0.13417,0.041752,-0.09289,-0.88804,0.034486
0.33203,0.096486,-0.35822,-0.0002096,0.022406,-0.0017963,0.74156,-0.052444
-0.43728,0.17742,-0.1507,0.030979,-0.011733,0.067467,-0.22179,-0.38316
0.099479,-0.045981,0.11164,-0.014181,-0.013175,-0.008789,0.054038,-0.12558
0.1538,-0.62866,-0.13995,-0.06526,-0.0049793,0.027915,-0.57338,-0.24115
-0.42954,0.156,-0.0065069,-0.12237,-0.033961,-0.04906,0.46665,0.24145
0.24149,-0.082621,0.61163,0.16568,0.07929,0.087659,-0.034446,-0.016868
0.32477,0.64732,-0.095417,0.12635,0.0060837,-0.00064735,0.28651,0.52824
0.048552,0.33707,-0.026825,-0.030271,0.0034815,0.036209,-0.21435,0.053099
-0.51527,-0.68663,0.056094,-0.20355,-0.085557,-0.21704,-0.071483,-0.24434
0.16593,0.059101,-0.5237,0.090067,0.042981,0.11383,-0.43716,0.19881
0.038527,0.042031,0.0016661,0.068817,0.0058471,-0.088567,0.57429,-0.34548
0.040635,-0.01903,-0.20086,-0.11115,-0.033019,-0.027041,0.14401,0.35454
-0.13244,-0.23987,0.52136,0.073992,-0.0031188,0.16627,-0.079589,-0.39137
-0.14554,0.061802,-0.0056296,-0.085924,-0.021218,-0.085997,0.25381,-0.28057
0.35137,0.24085,0.022126,0.058571,0.085102,0.14646,-0.90478,0.47517
0.11386,-0.58239,-0.5201,-0.05398,-0.01175,-0.05793,0.47335,-0.3191
0.03002,0.39104,0.8139,0.061608,-0.030113,-0.042988,-0.23163,0.14251
-0.23061,0.46613,-0.38874,0.022895,0.0068007,-0.059055,0.18859,0.072356
-0.021081,0.047342,-0.30639,-0.045294,0.013077,0.096525,-0.14356,0.26051
-0.11497,-0.0095487,0.69515,0.1532,0.019826,-0.068856,0.62867,-0.089665
0.082954,-0.48269,-0.30456,-0.1249,-0.043493,-0.031985,-0.30199,-0.22883
0.067906,-0.18939,-0.35876,-0.029293,-0.0052503,0.082188,-0.2738,0.17775
-0.35139,-0.20387,0.088628,-0.037637,-0.029694,-0.093195,0.22719,0.066291
0.21214,0.39339,-0.16447,0.052486,0.039337,0.1221,-0.1511,-0.25139
0.19179,0.59411,0.62457,0.092517,0.045612,-0.12283,0.43604,0.014129
0.10532,-0.77222,-0.41979,-0.15922,-0.049811,0.20388,-0.55565,0.0051682
-0.054937,0.36762,0.17746,0.095261,0.0032547,-0.27226,0.034241,-0.14257
-0.048725,-0.060373,-0.023665,-0.080058,0.056601,0.19119,-0.2189,0.50426
-0.082872,-0.22319,0.27864,-0.011669,-0.084851,-0.13237,0.3464,-0.28503
-0.25596,0.54851,-0.22286,0.090947,0.0087852,0.092653,0.14858,-0.32007
0.23939,-0.41971,-0.24832,-0.05245,0.0095134,0.076605,-0.38782,-0.021458
0.21108,-0.2324,0.57772,0.058509,0.0032885,-0.12661,0.70633,0.28175
-0.00043262,0.53618,-1.0155,0.056302,0.052494,0.060294,-0.2115,0.57064
-0.084077,-0.52556,0.56263,-0.036573,-0.046244,-0.050925,-0.082591,-0.18353
-0.3829,-0.16707,0.029227,-0.033947,0.027041,-0.0076854,-0.13832,-0.34662
0.019887,0.82875,-0.21088,0.047122,0.0063428,0.049127,0.030455,0.11403
0.15205,-0.073393,-0.074169,-0.16962,-0.01492,0.002363,-0.90073,-0.033186
0.25308,-0.26245,0.77854,0.080571,-0.044775,-0.093002,0.99493,-0.50965
-0.03141,0.089773,-0.36343,-0.0465,0.010473,0.060358,-0.12777,0.22398
-0.15839,-0.37682,-0.25303,-0.0040188,-0.013135,-0.013619,0.27799,0.19422
-0.27403,-0.35817,0.43989,0.11444,0.017427,0.037078,-0.021022,-0.054719
0.63754,0.7789,-0.29236,0.051295,0.063358,0.095591,-0.49918,0.3036
-0.14421,-0.080714,0.072999,-0.037002,-0.02355,-0.095693,0.206,0.11881
-0.26329,0.30188,-0.2611,0.013725,-0.0087667,-0.036669,0.4422,-0.72169
0.010261,-0.13611,-0.23082,-0.16361,-0.048481,0.085233,-0.63769,0.0033682
0.18749,-0.58685,0.47987,0.15775,0.036976,-0.21428,-0.083815,0.43464
-0.079408,0.386,-0.34171,-0.11556,0.0053593,0.13523,0.50624,0.06979
-0.10581,-0.30932,0.4225,0.040539,0.0050506,0.055728,-0.80242,0.54529
0.060023,0.3314,0.37742,0.040974,-0.0030228,-0.093348,0.9672,-0.76891
-0.20676,-0.61654,-0.61979,-0.027307,0.012453,0.21139,-0.77311,0.23186
0.22031,0.36643,0.2666,-0.038307,-0.065564,-0.21773,0.86221,-0.31509
-0.14081,0.20335,-0.14964,-0.092773,0.0053187,0.079995,-0.19672,0.0032023
0.33758,0.60992,-0.40557,0.33321,0.084693,0.010565,0.033713,-0.10106
-0.068453,-0.78912,0.39875,-0.1588,-0.061654,-0.074636,-0.19696,-0.023125
-0.13793,0.1494,-0.74499,-0.09271,0.0038211,0.043087,-0.4029,0.16302
0.12308,0.07224,0.6904,0.014876,0.0075527,-0.050238,0.053451,0.24265
-0.16695,-0.10324,-0.1166,-0.0092665,0.019541,0.12216,0.20433,0.3749
-0.077469,0.093873,0.13979,0.036394,0.00025124,-0.064472,0.3439,-0.2593
0.0092957,-0.13834,0.49465,0.048625,-0.00401,-0.03177,-0.40995,-0.074455
0.093611,-0.052705,0.68285,0.010259,-0.0094353,0.032878,0.10969,-0.29881
0.073863,-0.27363,-0.82707,0.068536,0.006953,-0.089346,-0.10957,-0.01276
-0.07378,0.44588,-0.68907,-0.25375,-0.033225,0.10909,-0.45646,-0.28882
0.23592,0.6073,-0.075228,0.13722,0.026295,-0.012935,0.52097,0.48066
-0.076028,-0.48664,-0.29105,0.023543,-0.0094921,0.051779,0.5829,0.044688
-0.057382,-0.13108,0.46699,-0.030695,0.00060233,0.013546,-0.093321,0.41081
-0.42761,-0.52474,0.23526,0.031313,0.033889,-0.081216,-0.77217,-0.59236
0.086221,-0.38874,0.27265,-0.045882,-0.026002,-0.029523,0.59905,0.059751
0.35097,0.7659,-0.25493,-0.095978,-0.045499,0.0048307,-0.32677,-0.092064
0.14755,0.17536,-0.10575,0.078051,0.015031,-0.079053,0.22891,0.13399
-0.13388,0.64174,0.027475,0.00049558,0.03867,0.086961,0.21888,0.11506
-0.12688,-0.37393,0.39878,0.12426,0.0018907,0.011715,-0.73633,-0.35023
0.026948,-0.59525,-0.41653,0.033951,0.03705,0.14142,-0.223,0.2155
-0.29071,0.20362,0.03338,-0.11639,-0.0441,-0.14052,0.31698,-0.039867
0.22372,0.32476,0.10964,0.022103,0.0075363,0.0019964,0.092839,0.037805
0.35057,0.046932,0.10839,-0.014196,-0.027683,-0.0093991,0.84623,0.0073636
-0.22318,-0.58354,0.099335,0.030412,0.044851,-0.02687,-0.5722,0.40315
0.10414,0.13121,-0.032576,-0.040519,-0.025248,0.14406,-0.55558,-0.20953
-0.17436,-0.27158,-0.24902,-0.070667,-0.050473,-0.16939,0.75852,-0.084963
-0.18968,-0.095446,-0.37257,-0.066594,0.016431,0.070946,-0.26201,-0.046023
0.0060493,0.32663,-0.10981,0.067605,0.0042613,0.028445,0.030084,-0.4444
0.19707,0.4902,0.41653,0.084542,0.062267,-0.055165,-0.023823,0.13651
-0.10592,0.32753,0.25946,-0.0054319,-0.03532,-0.015989,0.065847,0.10005
0.16181,-0.55878,-0.22191,0.096549,0.016813,0.11483,-0.45294,0.46043
0.063875,-0.005152,-0.013409,-0.038084,-0.023168,-0.19362,0.38765,-0.26774
0.076562,-0.33336,0.067549,-0.081086,0.0010314,0.19197,0.1193,-0.12527
-0.11423,0.15032,0.081307,0.013605,0.026659,-0.087228,-0.15492,0.22033
-0.30805,0.038769,0.066829,-0.052417,-0.01708,0.0084198,-0.60484,-0.10381
0.0543,0.27779,-0.169,0.0079571,-0.0057992,0.065347,0.26352,-0.059004
0.25057,-0.43523,0.043488,0.067664,-0.0026347,-0.10354,0.69309,-0.069798
-0.027148,0.28604,0.035335,0.01545,-0.015959,-0.01355,0.19869,0.21872
0.13257,-0.40542,0.26982,-0.025135,0.024136,0.15582,-0.90966,0.04318
-0.20173,0.52647,-0.17891,0.023189,0.00025986,-0.095307,0.48141,0.0071797
-0.18705,-0.10138,-0.60066,-0.12878,-0.025073,-0.087236,0.1098,-0.36324
0.098747,-0.24665,0.14879,0.13669,0.042104,0.10184,-0.6064,0.15453
0.047441,0.053191,0.21836,-0.12457,-0.024388,-0.051693,0.65869,-0.10588
0.16087,0.44629,-0.26227,0.04211,-0.0053008,0.076909,-0.34494,0.2456
-0.13683,-0.22569,0.84764,0.013411,-0.0094505,-0.059575,0.18986,-0.16507
0.21932,-0.2476,-0.30153,0.1425,0.057466,0.046276,-0.54475,-0.031139
0.036567,-0.077099,-0.16046,-0.077147,-0.030625,0.034702,0.074404,0.064156
-0.31539,0.27311,-0.32905,-0.066514,-0.046796,-0.1493,0.52215,0.17837
-0.14666,0.25145,0.13006,-0.051767,0.01696,0.087833,-0.83739,0.032974
0.060416,-0.50551,-0.098301,0.037349,0.020001,0.050741,0.99014,0.06011
0.072881,0.014799,0.52707,0.083183,0.0011428,-0.10424,-0.043207,-0.34745
0.22713,-0.017656,-0.010387,0.10841,0.038047,-0.017565,-0.0042393,-0.16439
-0.047908,0.021454,-0.26901,-0.26295,-0.049613,0.053101,-0.21218,0.22806
-0.027624,0.48429,0.089268,0.13212,0.010867,0.060961,0.098678,0.057584
-0.035283,0.16964,-0.17673,-0.12927,0.0078263,-0.017477,-0.31306,0.082433
0.17571,-0.36447,0.19954,0.10036,0.018788,0.051978,0.17274,-0.065127
-0.038479,-0.21483,-0.46773,0.046793,-0.042574,-0.090305,-0.7581,-0.28522
-0.19579,-0.32066,-0.019272,-0.04059,-0.012309,-0.10082,0.90392,0.38808
-0.10971,0.55152,0.8856,0.18937,0.039452,0.1453,-0.52412,-0.041149
-0.12344,-0.47426,-0.2779,-0.32599,-0.050918,-0.06285,0.80793,-0.1239
0.13204,-0.00182,-0.40792,0.1166,0.060947,0.095275,-0.83524,0.31571
0.19839,0.55001,0.21599,-0.037139,-0.014885,-0.06741,0.27117,-0.28753
0.039253,-0.24893,-0.36441,0.11971,-0.0043099,-0.11284,0.71737,0.11243
0.0083689,0.15954,0.19793,-0.11518,-0.02397,0.17835,-1.0416,-0.13913
0.107,-0.10741,0.60946,0.15749,0.020247,-0.068196,0.78277,0.00082959
-0.31306,0.66672,-0.4629,-0.26464,0.02693,0.10118,-0.88234,-0.36016
0.14599,-0.18486,-0.42346,0.28307,0.019463,-0.20376,0.77168,0.36306
-0.0092306,-0.63215,0.16601,-0.21464,-0.049255,0.16556,-0.29863,-0.14302
-0.084781,-0.25127,0.67223,0.32045,-0.0076951,-0.19723,0.49649,0.34555
-0.066289,-0.40329,-0.52357,-0.41647,-0.067217,0.15274,-0.75202,-0.20792
0.006229,0.63298,0.49048,0.16806,0.045162,-0.011859,0.42339,0.070554
0.18685,0.1756,-0.42852,0.011139,0.078981,0.12827,-0.35168,0.082712
-0.05596,0.10672,-0.1338,0.081084,0.010376,-0.1624,-0.3955,0.071334
0.12147,-0.23065,-0.25869,-0.099073,-0.028188,-0.0099731,1.076,0.098063
-0.069791,0.46611,0.37745,-0.053067,-0.013469,0.12379,-0.91099,-0.17374
-0.012318,0.1774,0.76921,0.26586,-0.031379,-0.18334,1.0672,-0.016451
-0.362,-0.27449,-1.0017,-0.29059,-0.042569,0.12356,-0.44239,-0.44953
0.27217,-0.2326,0.6,0.3483,0.094119,0.05322,-0.69887,-0.028024
-0.023544,-0.28279,-1.1012,-0.43401,-0.026856,0.052407,0.69327,0.086873
0.18853,-0.66726,0.32732,-0.0039598,-0.10787,-0.41612,0.07401,0.21282
-0.052626,0.62159,0.73843,0.19381,0.10953,0.21199,-0.18551,0.21537
0.11212,0.53618,0.15444,0.019,0.031975,0.12575,-0.37754,0.31913
-0.12224,-0.019036,-0.52983,-0.059888,-0.012398,-0.064673,0.41805,-0.1978
-0.35752,-0.023793,0.48462,0.20627,-0.016131,-0.015729,-0.25949,-0.34029
0.14063,0.2285,-0.48083,-0.19178,0.0044774,0.14633,0.50621,-0.021094
0.07551,-0.48569,0.15318,0.19742,-0.05299,-0.15095,-0.046134,-0.091727
0.20525,0.32175,-0.15747,-0.08862,0.060602,0.26948,-0.96537,0.24401
0.084901,-0.11706,-0.11854,-0.16022,0.024243,-0.23557,0.56762,0.14923
-0.1993,-0.52829,0.16868,0.013816,-0.092151,0.027246,0.066958,-0.21279
-0.11589,-0.025977,0.074365,-0.034334,0.078592,-0.091356,-0.05611,0.008976
0.03061,-0.081425,-0.16991,-0.04512,-0.15067,-0.11438,0.53702,-0.13098
0.17781,0.70211,0.074592,0.1086,0.13479,0.1317,-0.52891,0.18757
-0.1899,-0.44341,-0.41304,-0.032069,0.0060726,-0.069435,-0.39781,-0.26222
-0.088268,0.9072,0.4809,0.15148,-0.075094,0.066156,0.98685,0.1907
0.14641,-0.72231,0.45409,0.17541,0.048147,0.12671,-0.031124,0.15402
0.068149,0.1888,-0.1728,-0.15602,0.11051,-0.011295,-0.78051,-0.21863
0.19947,-0.10674,0.075739,-0.14087,-0.067682,0.36347,0.17607,0.33497
-0.29658,0.12706,-0.52835,-0.046324,-0.08042,-0.61679,-0.14429,-0.17325
0.09473,0.017106,0.5063,0.11825,-0.021913,0.023185,0.30127,-0.0044171
-0.025442,-0.54246,-0.47598,-0.25776,-0.0021034,0.19582,-0.21508,0.050234
-0.047434,0.4231,-0.61367,0.1452,0.18154,-0.014525,0.26125,-0.23629
-0.11078,-0.35877,0.03372,0.22522,-0.16687,-0.030946,0.57015,-0.04984
0.14571,0.20893,0.55473,-0.10358,0.030332,-0.057311,-0.62606,0.097552
-0.11164,-0.32227,0.27817,0.018378,0.0071553,0.15614,-0.56195,-0.085966
0.010105,0.89641,0.66265,-0.14295,0.15406,-0.16384,0.29433,0.1083
0.29414,-0.63069,-0.30533,-0.024707,-0.23987,0.17071,0.59959,0.28701
-0.24265,0.49005,-0.40748,0.20945,0.13033,-0.17557,-0.25609,-0.31958
0.29074,-0.10708,-0.22343,-0.049386,-0.10204,0.079088,-0.57225,-0.030137
-0.34836,-0.1484,0.42599,0.097837,0.040201,-0.018054,0.54395,0.17806
0.15915,-0.22031,-0.44908,-0.26999,0.089037,0.072236,0.060038,0.099026
-0.23535,-0.22957,-0.47503,-0.034781,-0.056417,0.021824,-0.028706,0.017409
0.036415,0.38614,0.46052,0.054439,-0.02061,-0.060014,0.074699,-0.22815
0.24567,0.33026,0.57529,0.27977,0.0014863,-0.048333,-0.62385,0.12321
-0.039467,-0.38892,-0.56689,-0.20198,0.033404,0.0023063,0.88089,-0.14302
-0.039842,-0.49774,0.21562,-0.054824,-0.026573,0.13135,-0.29557,-0.2004
-0.046319,0.29216,-0.23269,0.15043,0.055571,-0.058967,-0.1447,0.26398
0.041324,0.41612,0.22683,-0.063858,-0.087854,-0.19283,0.14254,0.22113
0.073962,0.081178,-0.012915,-0.011705,0.1129,0.12899,-0.18304,-0.38788
-0.12018,-0.05407,0.054345,-0.038599,-0.12394,-0.08515,-0.73353,0.02693
-0.22765,0.20713,0.4551,0.10377,0.037073,0.14128,1.0075,0.18796
0.44857,-0.78204,-0.73931,-0.039105,-0.068461,-0.059608,0.089991,-0.19921
