-0.15496,-0.099947,-0.024991,0.1637,-0.0072306,-0.032752,-0.030338,-0.017009
0.14702,0.086147,-0.040458,-0.20444,-0.0064119,-0.002407,0.0070791,0.013833
0.090187,0.11701,0.022012,0.11977,-0.020047,-0.0021581,-0.00097501,0.01517
-0.18334,0.055192,0.059991,0.025392,0.053154,0.045913,0.039432,-0.013496
-0.04005,-0.092261,-0.1073,-0.23084,-0.013937,-0.0070046,0.026603,0.05979
0.2386,0.33733,0.26899,0.24916,0.074799,0.026134,0.038208,0.023046
-0.051528,-0.17327,-0.054362,0.20037,-0.040794,-0.050419,-0.059263,0.12529
-0.021385,-0.15656,-0.16386,-0.62573,-0.056641,-0.026037,0.022464,-0.18101
0.01479,-0.12068,0.073425,0.20278,-0.012078,0.0054142,-0.061063,-0.067779
-0.26479,-0.049084,-0.091469,0.047798,0.014941,0.028416,0.0022085,-0.073479
0.39687,0.05262,-0.00038796,-0.0024066,-0.021843,-0.019244,-0.014381,0.0062267
-0.23449,0.2657,0.028917,0.29602,0.034766,0.019073,0.037875,0.14163
0.053149,-0.25794,-0.15703,-0.18131,-0.064158,-0.020317,0.0032902,0.029544
-0.13671,0.30501,0.21764,0.065087,0.065165,0.019099,-0.00022155,0.022598
-0.082875,-0.33269,-0.072126,-0.146,0.032745,0.0045823,0.012442,-0.081978
0.34993,0.18064,0.13015,0.26143,0.026241,-0.0015181,-0.012827,0.074735
-0.28163,-0.2428,-0.083043,-0.36333,-0.071893,-0.0073563,-0.021019,-0.03968
0.32043,0.44799,0.10611,0.079361,0.042244,0.056926,0.034746,0.10441
-0.16421,-0.1661,-0.032225,-0.052374,-0.023014,-0.051308,0.013544,-0.025947
0.18524,0.089002,0.053269,0.030107,0.012523,-0.0042552,-0.038292,-0.30718
-0.28158,0.20815,0.016165,0.46001,0.015189,-0.0051344,0.011378,0.18168
0.089208,-0.8514,-0.44963,-0.52724,-0.10142,-0.038143,0.036897,0.088824
-0.017311,0.56516,0.1326,0.10891,0.037702,0.029956,-0.048187,-0.24167
-0.33762,-0.33002,0.053573,0.01855,-0.0044981,-0.019008,-0.0019361,0.19092
0.22043,0.23247,0.12846,-0.046711,0.030567,0.018693,0.019466,0.09061
0.44498,0.32087,0.086792,0.43006,0.073502,0.073229,-0.014849,0.036337
-0.03143,-0.36271,-0.10794,-0.55805,-0.1014,-0.042646,-0.018318,-0.11189
-0.2474,-0.18657,-0.087102,0.083069,0.0064773,-0.00084072,0.017614,-0.033352
-0.35023,0.089117,0.14154,0.27517,0.045838,-0.028225,-0.015727,-0.13408
0.30246,0.13948,0.11564,-0.23233,-0.0068895,-0.0081353,0.022789,0.23448
-0.037217,0.011803,-0.14392,0.22371,-0.019382,-0.0037111,-0.030704,-0.28699
-0.1093,0.28161,-0.030805,-0.29533,0.023246,0.062523,0.11269,0.3953
0.18165,0.014027,0.10055,0.26412,0.034227,-0.0052983,0.022809,-0.13263
0.18807,-0.22745,-0.19708,-0.16139,-0.057492,-0.02786,-0.12136,-0.2066
-0.39495,0.018728,0.2009,0.17747,0.01322,-0.020921,-0.0080757,0.41581
0.12661,-0.25371,-0.055685,-0.18836,-0.074087,-0.070304,-0.10674,-0.59321
0.22718,-0.088063,-0.1356,0.19424,0.063639,0.11339,0.1447,0.5792
-0.21286,-0.056164,-0.018853,-0.49488,-0.041793,-0.031869,0.035095,-0.50408
0.39812,0.64795,0.01031,0.18189,0.055684,0.025717,-0.044853,0.071206
-0.15979,-0.25324,-0.043771,0.51342,0.052164,0.028847,0.092652,0.42998
-0.44885,-0.10577,0.087409,-0.47751,-0.051697,-0.037684,-0.083157,-0.13137
-0.061046,0.14365,0.17797,0.23918,-0.052369,-0.056395,-0.12636,-0.23867
0.06904,-0.30327,0.015158,0.091789,0.011171,0.011915,0.12775,0.044456
0.015029,0.30889,0.079218,-0.38192,0.021493,0.010969,-0.046813,0.22464
0.46713,-0.28963,-0.057411,0.60649,0.02495,0.018705,0.014389,-0.13661
-0.50312,-0.1366,-0.010268,-0.34874,0.091161,0.05823,0.030183,-0.086787
0.51751,0.19624,-0.30823,-0.25359,-0.12435,-0.042754,0.00029518,0.05374
0.12779,0.29081,-0.0096829,-0.073659,0.026273,0.020007,0.10382,0.15267
-0.074805,0.41451,0.1028,-0.070635,-0.027619,-0.042899,-0.17565,-0.46089
-0.14922,-0.21307,-0.13375,0.35319,-0.059454,-0.028516,0.1142,0.50337
-0.62205,-0.37194,0.276,0.013358,0.087346,0.03978,-0.04286,-0.32049
0.49785,-0.24665,0.016082,0.35654,-0.031981,-0.0095854,-0.045516,0.068468
-0.045809,-0.49566,-0.21351,-0.68832,-0.01837,0.003557,-0.0029268,0.34254
-0.33513,0.74891,0.19287,0.5714,0.08966,-0.013975,0.038695,-0.18592
-0.028947,-0.25978,0.011546,-0.032443,0.0033873,0.024288,-0.029034,-0.30667
0.40144,0.59233,-0.045216,-0.1215,-0.050541,0.0015468,0.052814,0.54178
0.28805,-0.033433,0.05362,-0.34017,0.013655,-0.011733,-0.081943,-0.63388
-0.3208,-0.45299,-0.021533,0.37963,-0.02309,0.0077745,0.043925,0.15755
0.19052,-0.17892,-0.10883,-0.43098,0.0029139,0.0050235,0.05559,0.59503
-0.34636,0.48548,-0.054432,-0.043532,-0.049285,0.010732,-0.039512,-0.64986
0.66394,0.26668,0.061402,0.43602,0.070103,0.01649,0.05463,0.016706
-0.46498,-0.60998,0.073147,-0.21489,0.009452,-0.025117,0.0087236,0.44679
-0.19982,0.33812,-0.019822,0.24161,-0.028037,-0.044153,-0.10034,-0.36659
0.20588,-0.1486,0.048343,-0.16113,0.043742,0.037353,0.10143,0.28862
-0.2484,-0.59492,-0.11987,-0.055803,-0.11095,-0.077405,-0.17567,-0.24258
0.12746,0.77948,-0.030903,0.21963,0.039307,0.08836,0.076091,0.095861
-0.044176,-0.27602,0.027678,-0.15888,0.0023565,-0.043198,-0.0023003,-0.19485
-0.27232,-0.32463,0.049339,0.31955,0.059325,0.043768,0.035186,0.30809
0.45748,0.84349,0.113,-0.27162,0.022411,0.029025,0.025321,-0.1684
0.13495,-0.60929,0.0078461,0.17341,0.0083754,-0.0015761,-0.023347,-0.35128
0.20057,0.61187,-0.21976,-0.63612,-0.10042,-0.040438,-0.016609,0.64881
-0.49385,-0.1747,0.19476,0.277,0.062852,-0.025324,0.022203,-0.31088
0.064984,-0.22809,-0.085874,0.0092916,-0.056631,0.01231,0.030355,0.18099
0.24781,-0.23576,0.038572,0.026001,-0.005615,0.0020901,-0.0082252,-0.097202
-0.27085,-0.43047,-0.183,0.089854,-0.010271,0.014458,0.05441,0.22714
-0.29297,0.60488,0.14716,0.29132,0.070601,0.002858,-0.078952,-0.20672
0.37263,-0.11023,0.091355,0.094703,0.034515,-0.0010031,-0.056796,-0.25805
0.27029,0.39683,-0.16269,-0.47483,-0.086717,-0.066931,-0.0429,0.16861
-0.43665,-0.30837,0.065286,0.043667,0.043219,0.071149,0.041398,-0.416
-0.036129,0.47122,0.041652,-0.21069,-0.013062,-0.00054419,-0.014242,0.11665
-0.11927,-0.59229,-0.13908,0.21256,-0.05261,-0.031974,0.071857,0.34009
0.81764,0.64854,0.054969,0.34916,0.025706,0.031302,0.073192,0.18615
-0.49465,-0.8159,0.10862,-0.32783,0.096269,0.048159,0.090937,0.67888
0.033978,-0.44081,0.11586,0.33475,-0.0056538,-0.11488,-0.20381,-0.69032
-0.46788,0.90467,-0.19661,-0.40748,-0.085321,0.096177,0.039533,-0.63407
0.36177,0.13306,-0.0083178,-0.031974,0.02102,-0.0067326,-0.0080478,0.36141
0.00080122,0.18871,0.032616,0.094642,0.00094038,-0.04108,-0.050254,-0.28337
0.35526,-0.48334,-0.034208,0.099326,0.0033808,0.040108,0.045647,0.26702
-0.076545,0.11743,0.01067,0.09442,0.013593,-0.051727,0.014487,0.48941
-0.60224,-0.44523,-0.13673,-0.34637,-0.13921,-0.073559,-0.064705,-0.47483
0.18849,0.072663,0.055293,-0.016776,0.030422,0.038132,0.020177,-0.054591
0.47913,0.22757,0.18044,0.30415,0.11701,0.073384,0.0672,0.22711
-0.10115,0.23157,0.08172,0.031245,0.042669,-0.013968,-0.008578,0.026292
-0.4145,-0.51708,-0.078224,-0.00046382,-0.0054707,0.049784,0.043464,-0.2361
0.21727,0.55009,-0.12946,-0.145,-0.028405,-0.048089,-0.12025,0.047742
0.13786,-0.047003,-0.081913,0.35188,-0.035355,0.043296,0.085966,0.25093
-0.40141,0.28073,0.18753,-0.42007,0.042463,0.026105,0.083406,0.11385
0.25804,-0.45598,0.068248,-0.097327,-0.069713,-0.10849,-0.15995,-0.50544
-0.0060922,-0.18297,-0.14317,0.44246,-0.021154,-0.041026,-0.035551,0.080162
-0.0038614,0.24616,-0.04748,-0.57534,0.047347,0.063903,0.065225,0.19948
-0.20253,0.019486,0.02907,0.44337,-0.0043023,-0.028215,-0.045763,-0.0050904
-0.016069,-0.46908,-0.082705,-0.31989,-0.049978,0.0031471,0.060666,-0.21062
0.56192,0.028156,0.12029,0.44242,0.08369,0.080326,0.095078,-0.054743
0.43502,0.61167,-0.10899,-0.58654,-0.08609,-0.06173,-0.07555,0.34818
-0.68909,-0.32117,0.13024,0.65932,0.11394,0.093173,0.11127,-0.085631
-0.38373,0.34459,0.27678,0.027122,0.036283,-0.001364,-0.078581,0.41833
-0.33059,-0.18441,-0.33336,-0.47241,-0.14685,-0.11843,-0.22269,-0.96045
0.4386,-0.35243,-0.1779,0.045834,-0.037347,-0.015633,0.070372,0.29998
0.49531,0.74544,0.17065,0.028766,0.098224,-0.036681,0.035867,0.14235
-0.032945,-0.41755,0.27189,-0.093181,0.03969,0.076107,0.041783,0.51649
-0.072424,-0.24441,-0.14304,0.16408,0.01974,0.080216,0.19017,-0.36245
-0.5411,0.25197,-0.10073,0.11154,-0.010175,0.03764,-0.081428,-0.1774
0.1353,-0.81618,-0.28365,-0.26142,-0.074864,-0.060049,-0.078126,-0.15734
0.5307,1.0546,0.20452,0.20524,-0.011078,-0.049402,-0.05069,0.024742
-0.23466,-0.076559,-0.10638,0.037907,0.040462,-0.040268,0.039033,0.79893
0.15391,-0.08695,0.54868,-0.11231,-0.013359,0.060874,0.057392,-0.98919
-0.53679,0.061601,-0.033177,0.2968,-0.14787,-0.12872,-0.20713,0.12429
-0.174,-0.46622,-0.46795,-0.37872,0.13852,0.1569,0.19054,0.13518
0.50655,0.44118,0.26997,0.28164,0.01145,-0.034871,0.023979,0.71127
0.3146,-0.61879,-0.35528,-0.34609,0.050369,0.05435,-0.050098,-0.54257
-0.15234,0.78823,0.18374,-0.063208,0.021696,-0.028014,0.00022963,-0.24882
-0.13365,-0.66081,-0.014852,0.11206,0.019392,-0.023709,-0.01959,0.28147
-0.20504,0.21843,-0.040664,0.076438,-0.097485,-0.041808,-0.038542,-0.34984
0.018998,0.20281,0.039152,-0.00016158,-0.0092989,-0.027479,-0.040494,0.29393
0.049898,-0.026363,0.093351,-0.12894,-0.045014,0.1052,0.15444,0.19525
0.088122,-0.39924,-0.01128,0.20789,-0.010137,-0.06583,-0.071096,-0.28138
0.23444,0.94891,0.19946,0.11926,0.055589,0.03725,0.094909,0.36865
-0.017699,-0.29052,0.0029251,0.29769,0.050111,0.023401,-0.059193,-0.52197
-0.4698,-0.67684,-0.15246,-0.43301,-0.0034214,-0.037495,-0.02632,0.247
0.062651,0.22292,-0.21658,0.024085,0.035535,0.03389,-0.010125,-0.037513
-0.03172,-0.49335,0.10386,0.12613,-0.036022,-0.0048314,0.020485,-0.032883
-0.035942,0.73445,-0.036907,-0.47256,-0.10839,-0.13019,-0.090427,-0.0048405
0.72723,0.069416,-0.029714,0.025114,0.11584,0.13463,0.11882,0.10993
-0.23046,0.45732,0.079942,-0.12093,-0.097084,-0.045842,-0.085157,0.20352
-0.32108,-0.5767,-0.0023609,0.15488,0.034754,0.032054,-0.060707,-0.73007
-0.1932,-0.32684,0.069964,0.34757,0.011869,-0.03745,0.083522,0.34218
0.22915,-0.37575,0.01038,0.39614,0.014178,-0.004071,0.08991,0.59362
-0.15939,0.1548,-0.11694,-0.35614,-0.013168,-0.047529,-0.057655,-0.53733
0.56595,1.072,0.24322,-0.044583,0.077685,0.12865,0.053741,-0.12055
-0.43608,-0.85755,-0.22225,-0.22781,-0.050137,-0.023172,-0.030644,0.26582
0.34516,0.72495,0.094507,0.074214,0.016307,0.027288,0.031174,0.004435
-0.21915,-0.20624,0.058755,0.18603,-0.028752,-0.017859,-0.0045172,0.42344
0.032964,-0.076137,-0.081346,-0.073917,0.048255,-0.034423,-0.13866,-0.53146
-0.67199,-0.44254,-0.053621,-0.16609,-0.10458,-0.093116,-0.05108,-0.51561
0.43346,0.19253,-0.0068724,-0.0016398,-0.033909,0.032758,0.047973,0.26123
-0.18652,-0.12431,-0.1358,-0.067894,0.042264,0.015756,0.066122,0.073544
0.87815,0.12432,0.068849,-0.27296,0.070407,0.083559,0.075439,0.31235
-0.32987,0.14502,0.093359,0.67028,0.028433,-0.0046697,0.023051,0.27382
-0.36251,-0.28435,0.064686,-0.10071,-0.035462,-0.083523,-0.081663,-0.28611
0.094325,0.37969,0.2032,-0.12237,-0.02643,-0.011279,-0.0032191,0.37205
0.14263,-0.3048,-0.2713,0.2774,-0.021869,0.040854,-0.030125,-0.22329
-0.069688,0.069925,0.016585,-0.090877,0.017575,0.002682,0.0016809,-0.77737
0.065601,0.073289,0.019825,-0.28541,0.052682,0.10815,0.068276,0.31841
-0.070146,0.21765,-0.1059,0.33024,-0.018662,-0.042072,0.043812,-0.060167
-0.455,-0.31471,-0.033306,-0.56047,-0.025438,-0.097574,-0.1509,0.1906
0.36273,0.20434,0.1272,0.0079138,-0.031175,0.010768,0.014242,0.40165
0.022388,-0.075052,-0.055249,0.20497,0.017746,0.024157,0.030358,-0.28359
0.46034,0.19396,0.11337,0.18549,0.050036,0.035738,0.076224,-0.019274
-0.10551,-0.13933,0.037968,0.01109,-0.044453,-0.064005,-0.04413,0.062878
-0.19114,-0.12878,-0.063961,0.22799,0.04629,-0.009138,0.036142,0.11914
-0.4994,-0.45016,-0.060586,-0.56286,-0.029453,0.029113,-0.018896,-0.24971
0.12707,0.26224,0.047583,0.42709,0.01756,0.028129,-0.068264,-0.0058379
0.096309,-0.16376,-0.075287,-0.060249,-0.085639,-0.02693,-0.0097407,0.1229
0.090185,0.31798,0.016868,-0.31366,0.0053619,-0.0026703,0.01691,-0.1146
0.50152,0.4783,-0.065281,0.31632,0.06472,0.038661,0.043856,-0.14887
-0.22254,0.053925,0.070508,-0.098157,-0.0084965,-0.028055,-0.045274,-0.082142
-0.42447,-0.56528,0.011809,-0.38265,0.0048845,0.023305,0.086031,0.27241
0.44331,0.53137,0.10374,0.32522,0.065955,0.082724,0.070838,0.68741
-0.19719,-0.60634,-0.035616,0.2003,0.0027441,-0.1083,-0.12218,-0.60373
-0.24473,0.18043,-0.14813,-0.13765,-0.10689,-0.081565,-0.063671,-0.15661
-0.18456,-0.59716,0.21132,0.19598,-0.021062,0.053212,0.027077,-0.17494
0.39586,0.61257,0.010936,-0.29795,0.04904,0.014733,0.0010093,0.091318
-0.052704,-0.20742,-0.25782,-0.25237,-0.0060564,0.014123,0.029355,0.45544
0.43529,0.21624,0.060607,0.62869,0.024647,0.043896,0.072439,-0.31543
-0.042367,0.49374,0.067245,-0.20319,0.016335,-0.028402,-0.018709,0.069798
-0.41139,-0.46746,-0.13673,-0.28114,-0.062,-0.022796,-0.049171,-0.12883
0.31725,-0.11926,0.26091,0.08032,-0.0070211,0.0061861,-0.026957,-0.081178
-0.81914,-0.35912,-0.091653,0.12932,0.040756,0.019494,0.016725,0.27667
0.89829,0.60262,0.0083839,0.083023,0.073473,0.017021,0.027479,-0.20326
-0.52059,-0.35902,-0.087826,-0.098741,-0.073146,-0.040463,-0.025437,0.17373
-0.26741,0.20854,0.072369,0.20846,-0.016635,-0.020309,-0.0085599,-0.039391
0.54526,0.069835,-0.089616,-0.35471,0.016031,0.0070789,-0.022766,0.076751
0.11749,-0.14372,0.11337,-0.037707,0.0010222,0.057364,0.10444,0.24587
0.22688,0.28532,-0.0063167,0.097889,-0.015069,-0.0020726,-0.079622,-0.58936
-0.39693,-0.37031,-0.12041,0.045245,0.022336,-0.038064,0.058115,0.053519
-0.11159,0.41328,0.18564,0.031661,0.0039665,-0.0032478,-0.076079,-0.099785
-0.049496,-0.39312,-0.12645,0.13551,-0.022978,-0.014245,0.072326,0.34946
-0.031746,0.15948,0.053784,-0.0029408,0.020139,-0.031438,-0.036001,0.12134
-0.27894,-0.50199,-0.1397,-0.19704,-0.030105,0.078425,-0.049798,-0.18831
0.964,0.23756,0.0051238,0.0052565,0.037899,0.0030619,0.1088,0.18091
-0.24376,0.54752,0.074917,0.079541,-0.040872,-0.046664,-0.044767,-0.21362
-0.37456,-0.69331,0.062059,0.056607,0.015252,0.04604,-0.05743,-0.25991
0.31045,0.85223,0.012951,-0.055409,-0.012339,-0.0085724,0.047379,0.47389
-0.48037,-0.50534,0.074928,0.096289,0.048032,-0.023882,-0.042805,-0.32327
-0.076543,-0.44329,-0.081679,-0.49406,-0.030743,-0.016469,-0.031128,-0.065021
0.39691,0.31912,-0.036654,0.59798,0.047364,0.059655,0.12133,0.091638
0.48036,0.77937,-0.04923,-0.32813,-0.02337,-0.022762,0.039249,0.51977
-0.48786,-0.74533,-0.018714,-0.18449,-0.07996,-0.05317,-0.098136,-0.072588
-0.50466,0.37588,0.0078759,0.3969,0.032889,-0.015982,-0.080417,-0.49347
0.27701,-0.26231,0.038949,-0.17067,0.10357,0.12037,0.17787,-0.035151
0.26635,-0.014038,0.083506,0.41508,-0.06349,-0.065347,-0.089162,0.27646
0.22333,-0.079774,-0.10692,-0.5762,-0.038395,-0.0019799,0.024771,-0.15371
-0.56985,-0.3423,0.023921,0.57758,0.031109,-0.0010616,-0.034594,0.025898
0.72241,0.51523,-0.046075,-0.12783,-0.025757,-0.014771,-0.032103,-0.019492
-0.52645,-0.41436,0.13708,-0.14083,-0.027953,-0.018868,-0.052669,-0.092619
-0.084463,0.42305,-0.051305,-0.53298,0.033735,0.041875,0.13135,0.28534
-0.11081,-0.16272,-0.041178,0.11857,0.01209,0.042659,-0.04165,-0.23508
0.14935,0.094865,0.018348,0.1605,0.017317,-0.047943,-0.00085998,0.38678
0.60747,-0.090203,0.056067,0.2768,-0.012792,-0.027336,0.011468,-0.23099
-0.27747,0.32574,0.00080348,0.21442,0.038653,0.041178,-0.028772,0.0056443
-0.24084,-0.27571,-0.069928,-0.17853,-0.016679,0.0082139,0.080359,-0.13005
-0.17317,0.24821,-0.015735,-0.062791,-0.031567,-0.025613,-0.022008,-0.23226
-0.56549,-0.75891,-0.023964,-0.25683,0.00041293,0.017029,0.045431,0.511
1.0373,0.99204,-0.055169,-0.026013,-0.0080089,-0.028438,-0.11696,-0.50234
-0.18251,0.19139,0.078516,0.073712,0.035852,0.033141,0.013652,0.53972
0.65253,-0.79367,-0.083809,0.28196,-0.048339,-0.040196,0.015531,-0.089795
-0.67385,0.043137,0.16826,-0.068827,0.067393,0.033349,-0.0088623,0.069677
-0.69074,-0.73842,0.052288,0.11116,-0.085362,-0.050141,-0.097117,-0.66959
0.88487,0.68478,0.050935,0.060386,0.048831,0.0070383,0.10407,0.52827
-0.9379,-0.44657,-0.048624,-0.55218,-0.068088,-0.02876,-0.1068,-0.25071
0.63057,0.66357,-0.16984,0.24843,0.072779,0.11638,0.17768,0.040492
0.63678,0.41852,-0.047863,-0.0065951,0.0271,0.028568,0.082948,0.59734
-0.38949,0.28757,0.14581,-0.17527,0.006546,-0.02674,-0.008493,-0.32229
-0.16938,-0.9531,-0.11064,0.17444,-0.050984,-0.11242,-0.21479,-0.21057
-0.41688,-0.39231,-0.0098492,0.037528,-0.0048206,0.028858,0.04089,-0.25506
0.17738,0.47012,-0.0095058,0.28383,-0.011476,0.037313,0.015024,0.036355
0.6575,0.45942,-0.0048122,-0.1314,0.045753,-0.016991,0.058136,0.42134
-0.47849,0.13421,0.23338,-0.042649,-0.0056084,-0.016892,-0.049083,0.259
0.23729,-0.3912,-0.074752,-0.14443,0.013532,-0.0012733,-0.064455,-0.38077
-0.41361,-0.33552,0.031772,0.10266,-0.022321,0.053619,0.067178,-0.36567
-0.10956,-0.27278,-0.1437,-0.29349,-0.058806,-0.047171,0.0028522,0.48357
-0.0047651,0.00090927,0.01363,0.088822,0.021135,0.016962,0.032514,0.27615
0.70769,1.1231,0.11797,0.1007,0.045675,0.0039734,-0.054011,-0.71431
-0.53272,-0.91427,0.0022918,-0.016522,-0.047517,-0.0080633,0.032823,0.044051
0.55664,0.038178,-0.1249,0.26707,0.077718,0.043099,0.066573,0.2787
-0.23447,0.69974,-0.0073021,0.074781,-0.0080973,-0.038263,-0.015485,-0.095283
-0.20277,-0.42301,-0.043704,0.037592,-0.046981,-0.01046,-0.057581,0.35272
-0.13742,0.0019476,0.071298,-0.51007,0.015868,-0.0067922,-0.099378,-0.28294
-0.33546,-0.173,-0.051375,-0.053437,-0.030417,0.027031,0.10854,0.037068
0.78887,-0.059329,0.066803,0.22783,0.032951,0.03609,0.065693,0.22674
-0.31153,0.59628,0.044946,-0.22796,-0.044013,-0.096838,-0.1423,-0.66732
-0.34032,-0.57155,-0.0295,0.2679,0.066801,0.034656,0.023444,0.26858
0.86565,0.50887,0.078674,0.23219,-0.040915,0.0090125,0.039429,0.4012
-0.40585,-0.30115,-0.052315,-0.46729,0.03117,0.037565,0.07753,-0.23871
-0.23444,-0.31844,-0.01678,0.39583,-0.037423,-0.043353,-0.065351,-0.15177
0.18325,0.21259,-0.089164,0.047082,0.042152,0.0087585,0.063966,0.27066
-0.083254,-0.036087,0.026209,-0.16354,-0.066292,-0.040311,-0.16723,-0.37857
0.067734,0.054925,0.0078773,-0.14398,0.035422,0.082868,0.10841,0.21995
0.04358,0.23939,0.034611,-0.16896,-0.0045043,-0.020311,-0.015067,0.18259
-0.23962,0.076597,0.058974,0.22979,0.040323,-0.0063762,0.033034,0.30569
0.033253,-0.89751,0.018318,0.35749,0.037039,0.015001,-0.020247,-0.71543
-0.041353,0.86804,-0.12615,-0.50299,-0.10018,-0.050147,-0.072831,0.15895
0.10128,-0.38149,0.0012135,0.15085,0.011789,0.0090715,0.086717,-0.28078
0.48583,0.55093,-0.044,-0.01389,0.0062747,0.005329,-0.049002,0.49059
-0.17674,-0.021729,0.1611,0.044991,0.032386,0.03277,0.067162,-0.087549
-0.42674,-0.41264,-0.054398,-0.036988,-0.034139,-0.040858,-0.033442,-0.16993
0.06174,-0.4592,-0.064786,-0.10179,-0.012938,-0.011809,0.031918,0.50205
0.12185,-0.12439,0.059988,0.16359,-0.012913,0.018909,-0.049509,-0.46234
-0.1165,0.96433,0.077691,-0.0074329,0.091091,0.028216,-0.028106,-0.009445
0.25814,-0.14901,-0.1293,0.0156,-0.04491,-0.038531,-0.02936,0.11685
-0.068673,0.14184,0.032045,-0.067541,0.00034452,0.013666,0.071175,0.10203
0.0036181,-0.59595,0.037396,0.43467,0.030628,0.035701,0.093218,0.18635
-0.29052,0.19743,-0.09852,-0.54375,-0.033239,-0.028041,-0.13568,-0.84256
0.13609,0.43426,0.13915,0.11189,0.026492,0.040157,0.079288,0.42868
0.69195,-0.34676,-0.086053,0.11932,-0.02531,-0.0028362,0.0034199,0.66438
-0.79965,-0.20689,-0.032187,-0.49743,-0.024946,-0.032681,-0.082143,-0.76716
-0.14798,0.036332,0.089911,0.23239,0.0042429,-0.026164,0.010258,0.31555
0.040401,-0.23047,-0.047489,0.35845,-0.015341,-0.045513,-0.0080389,-0.26498
0.14229,0.13739,-0.014061,-0.32736,-0.0047368,0.027179,-0.0036579,-0.037835
0.42348,0.56523,0.019111,0.12242,0.037016,0.01325,0.039632,0.17053
-0.024014,-0.10113,-0.017444,0.25562,0.0014223,0.03881,0.07548,0.22811
-0.086447,-0.21296,0.087993,-0.045434,0.037543,0.026703,-0.059833,-0.16233
-0.20581,0.21275,-0.10926,-0.32927,-0.010605,-0.014613,-0.0068122,-0.072608
0.30868,-0.045333,0.0083742,0.097015,-0.010318,-0.014608,-0.031171,0.026113
-0.22614,-0.41213,0.050382,0.027795,-0.040127,-0.035999,-0.023775,0.17006
-0.069577,-0.33577,0.0087439,0.12516,0.071263,0.06126,0.13225,0.22379
-0.39256,0.75209,-0.03893,-0.20558,-0.075187,-0.059573,-0.14154,-0.68174
0.042569,-0.12602,0.00032725,0.11404,-0.011209,0.0068847,0.060893,0.14034
0.67041,0.39735,-0.038528,-0.11746,0.067605,0.056729,0.028479,0.073558
-0.28477,-0.41097,0.030928,0.063511,-0.065351,-0.043406,-0.074693,-0.091142
0.033537,-0.50227,0.098286,-0.011745,0.051028,0.0031058,0.048398,0.19569
-0.097831,0.14891,-0.056049,-0.043283,-0.043891,-0.038025,-0.016075,0.21016
0.17395,0.052118,-0.0028753,0.080626,0.0096108,0.021091,-0.010025,-0.18615
0.035389,0.37234,0.031248,0.025191,0.055584,0.04825,0.066803,0.015919
-0.32887,0.51578,-0.070302,0.047922,-0.015162,-0.041779,-0.051034,-0.16767
0.48343,-0.45601,-0.05643,-0.048196,-0.022895,-0.013943,-0.043141,-0.018772
-0.00067072,-0.10686,0.027447,0.20285,0.0088663,0.030726,0.074816,0.266
-0.48781,0.015326,-0.07493,-0.21777,-0.013792,-0.0090368,-0.033249,-0.0024965
-0.026975,-0.40985,0.11432,-0.070841,0.0026926,0.030868,-0.00038356,-0.12273
-0.11083,0.024993,0.072527,-0.014792,0.019104,0.0096053,0.048142,-0.0021169
-0.058647,-0.17795,-0.020563,-0.019321,-0.042771,-0.049779,-0.051991,-0.14116
0.95973,0.86673,0.037487,0.05658,0.020183,0.0084849,0.011526,0.07762
-0.42835,-0.26067,0.018885,0.12069,0.0048926,-0.01139,-0.042641,-0.063597
-0.0020924,-0.22328,-0.093443,-0.043472,0.0051937,-0.00042081,0.035537,0.25685
-0.47894,-0.037544,-0.050781,-0.1522,-0.0022717,0.0098769,0.011823,-0.19405
0.17275,0.42673,-0.025804,-0.023724,-0.0096471,-0.011877,-0.012016,0.06915
0.077509,-0.20162,0.012597,0.23381,0.029938,0.028055,0.011127,0.070342
0.71856,0.033784,0.064916,-0.10606,-0.00075235,0.028192,0.034592,-0.1673
-0.58526,-0.18368,-0.086658,0.14308,-0.031475,-0.042576,-0.02739,0.19117
-0.12446,0.13542,0.10582,-0.059851,0.015836,0.0034316,-0.065353,-0.18389
