0.00033236,-0.0050786,0.13365,0.013799,0.00077268,-0.0010266,-0.0073374,0.020237
-0.00065818,-0.020753,-0.14752,-0.049727,0.0011408,0.006744,0.0068739,-0.0094733
-0.0094189,0.018613,0.021838,0.018102,0.0014326,-0.00092187,0.021342,0.00015672
-0.0024013,0.0036492,0.024903,0.006783,0.0016444,-0.00053087,-0.0029039,0.0019968
-0.0029286,0.020257,0.14348,-0.012702,0.009582,0.00012138,-0.0033527,-0.0042
0.012534,-0.033204,0.03454,0.022927,-0.0060108,0.0088107,0.012125,0.0048043
-0.0028318,0.0072126,-0.50429,-0.026216,-0.013883,-0.0058044,-0.019073,-0.0023615
-0.0021558,-0.007069,0.30112,0.012294,0.0016027,0.0030181,0.0045082,-0.0022879
0.006675,0.0097382,-0.0018603,0.0058818,0.0014095,-0.0039342,-0.0031478,-0.010538
8.3603e-05,0.002802,0.0088284,0.016909,0.0011937,0.0044536,-0.010816,-0.0035443
0.001324,0.0032511,0.23925,0.021434,0.016608,-0.0031597,-0.002843,0.011042
-0.0054233,0.0031944,-0.021995,0.0030424,-0.014832,-0.011175,0.013023,0.002124
0.003112,-0.0051977,-0.23643,-0.078257,0.00061902,0.0038923,-0.0022128,0.008874
-0.0044246,-0.014053,-0.021705,0.042262,0.00044259,0.0030889,-0.0016409,0.007905
-0.004614,0.00020606,-0.11229,0.027953,0.0080474,0.0021908,0.022532,-0.00078733
0.0026177,0.022169,0.18744,-0.074697,0.007784,0.0013584,-8.4485e-05,-0.0094258
0.0017975,-0.0025902,0.096935,0.023362,-0.023794,-0.0070821,-0.0071075,-0.018044
-0.0068751,-0.026922,-0.17198,0.025613,-0.00073109,0.016024,-0.0064717,0.0046076
0.00024193,-0.0037104,0.029959,-0.012599,-0.0011109,-0.015226,-0.01389,-0.0039281
0.015502,0.043765,0.054836,0.034571,0.022003,0.016328,-0.0059535,0.011121
-0.0078777,-0.056331,-0.019183,-0.050729,-0.0094491,-0.006572,0.001754,-0.0048311
0.0082257,0.06309,-0.0051003,0.029199,-0.0016631,-0.0058965,0.017137,0.010803
0.0012179,-0.012271,0.18987,0.0015506,-0.0014845,-0.0051817,0.0012432,0.0033793
-0.013443,-0.017126,-0.2949,-0.062986,0.0067099,0.0033009,-0.0067706,-0.0036809
0.003102,0.0012634,0.2503,0.11692,-0.0083636,-0.0039465,0.01658,0.0051684
-0.0040369,-0.0043464,-0.22235,-0.052674,0.0079233,0.0042887,-0.0068381,-0.017075
0.0040426,-0.010806,0.044523,0.013751,-0.007004,0.01236,-0.0067714,-0.00025154
0.0038125,0.0051606,0.082364,-0.020301,0.0014641,-0.010999,0.0010721,0.00080009
0.0030811,0.027914,-0.1315,-0.022617,-0.0058038,0.0045117,0.00098951,0.0093909
-0.0058802,-0.012725,0.099373,-0.0093931,0.018018,-0.0036245,-0.0070643,0.0098131
-0.0072877,-0.0071333,-0.059694,-0.020174,-0.0052203,0.003643,0.00035287,-0.013585
0.0068781,-0.0096743,0.040758,0.069669,-0.013013,-0.0049381,0.0076717,0.0017321
-0.010039,-0.027824,-0.020606,0.056758,0.0024836,0.0018977,-0.00064119,-0.0066439
0.012463,0.040269,0.10768,-0.074668,0.002254,-0.0070616,-0.016673,0.00048801
-0.0036189,0.0072934,-0.059498,-0.027745,-0.0058362,0.015121,0.0065249,0.0076654
-0.0035701,-0.0016945,0.093868,0.017959,0.0095065,-0.0095993,0.0064739,-0.00057819
0.012535,0.036674,-0.17574,0.00018794,0.001431,-0.003002,0.0065579,-0.0084934
0.0054738,-0.041822,0.11498,-0.018204,0.0090009,0.0037585,0.0066533,-0.00039056
-0.0015315,0.0048185,0.05145,0.080392,0.00095069,0.0029559,-0.0012208,0.015907
-0.0086984,-0.042305,-0.21759,-0.047338,-0.022739,-0.0053446,-0.0016077,-0.0065641
-0.00057434,0.027674,0.19178,-0.018196,0.016046,0.010143,0.0053784,0.01017
-0.024123,-0.0039766,-0.35155,-0.027216,-0.015497,-0.0052693,-0.027151,-0.012201
0.0066056,-0.012167,0.20898,0.0038338,-0.0079681,-0.0047409,-0.0053336,-0.0035472
0.021401,0.050092,0.054544,0.027982,0.0074134,-0.0039665,0.024182,0.0047382
-0.010823,-0.035858,-0.025164,0.037109,0.015039,0.012581,-0.039866,-0.0030438
0.019492,0.034702,0.19584,0.015118,0.0070871,-0.017719,-0.0018653,-0.0034474
-0.012493,-0.027325,0.0048118,0.00052783,0.0069538,0.014381,0.052481,0.0036141
-0.005103,0.012352,-0.15569,-0.03839,-0.0088568,0.0071944,0.052965,-0.0051518
0.0026429,-0.018248,-0.0075081,-0.031604,-0.016962,0.007495,-0.04733,0.0016772
0.0029098,0.029231,0.27473,-0.0025302,-0.0017609,-0.0082119,-0.014204,0.016452
-0.0043804,-0.032745,-0.56853,-0.013327,-0.01011,-0.032114,-0.082294,-0.0075765
0.0040958,-0.01665,0.22026,0.077238,0.012743,0.013973,0.029355,-0.007846
-0.0030375,0.015077,0.033037,-0.097297,0.012204,-0.002649,0.093901,0.0078263
-0.002457,2.0372e-06,-0.13534,0.041865,-0.0038135,0.011908,-0.00607,-0.0075026
0.013568,0.039709,0.23425,-0.012655,0.0038337,0.010908,-0.020713,0.00073929
-0.0175,-0.037733,0.090821,0.059528,-0.0038693,0.0022764,-0.067278,0.0089762
0.013727,0.025344,-0.24992,0.039343,0.0043375,-0.0060992,0.010515,0.0014486
-0.01769,-0.0056385,0.089296,0.019899,-0.0028166,-0.0063703,0.025282,-0.0063227
0.0055226,0.0019167,0.031376,-0.10898,-0.017559,-0.014154,0.039697,-0.014391
0.005339,0.0087949,0.10737,-0.004282,0.014753,0.0096037,-0.031979,0.016317
0.0052803,-0.031903,0.11294,0.060061,0.00031895,0.010203,0.02139,-6.47e-05
-0.0024155,0.012781,-0.36004,-0.11919,-0.014033,-0.012371,-0.0031465,-0.0087254
-0.0021173,-0.020895,-0.0559,0.044154,0.010706,0.012172,-0.027316,0.0061109
-0.0016758,-0.007487,0.10144,0.035023,0.011969,-0.0099528,0.0036819,-0.0022794
-0.0011625,0.0066162,-0.038243,-0.05219,-0.01032,-0.00067318,-0.050709,0.0052903
0.014961,0.029646,0.17205,0.079941,0.014064,0.0086825,0.051711,-0.0023575
-0.0080726,0.01498,0.090557,0.048901,-0.01652,-0.0054252,0.045255,-0.0095921
-0.01563,-0.013927,-0.1039,-0.051583,-0.0083859,0.0037599,-0.0077132,-0.0008534
0.015708,0.013008,-0.083803,0.051614,0.015,0.0048647,-0.029262,0.023733
-0.015597,-0.014033,0.13492,-0.048233,-0.0088516,-0.010034,-0.0039811,-0.0063085
0.0076908,-0.033119,-0.34615,-0.093792,0.0060459,0.013673,0.0054391,0.010417
-0.0081202,0.0020259,0.37965,0.039598,-0.0027269,-0.025611,-0.016754,-0.012163
0.0073297,0.044008,-0.24166,-0.030998,-0.0038226,0.0049443,-0.039364,-0.03506
0.030624,0.014347,0.29866,0.069511,0.018484,0.011657,0.078245,0.027666
-0.016369,-0.048035,-0.20151,0.013241,-0.013844,0.0024476,-0.023262,-0.011413
-0.00086083,-0.0024128,-0.18657,-0.012027,-0.0069877,0.0086981,-0.031352,0.0040591
-0.024438,-0.01254,0.12545,-0.0060565,0.0078411,-0.024138,0.04616,0.01169
0.0066445,0.015792,0.1021,0.023471,-0.00059729,0.013448,-0.0095118,0.0037339
-0.0013378,0.0049705,0.16527,-0.024983,0.0067415,-0.0034272,0.059406,0.0036329
0.014162,0.041402,-0.075949,0.036027,-0.0092449,0.0034509,-0.067399,0.0035185
-0.0093022,-0.038639,-0.12975,-0.074815,-0.0017338,-0.01274,-0.014835,-0.012329
-0.001378,-0.00062685,-0.0042615,0.040901,0.0057856,0.010512,-0.024882,0.0028686
0.014505,0.022576,-0.12922,-0.015216,0.005463,0.0028671,0.0043249,-0.013449
0.0070691,-0.031757,0.01908,-0.032105,-0.002712,0.011137,0.010627,-0.0065955
-0.00030964,0.031343,0.19116,0.045095,-0.0030876,-0.019453,0.041184,0.007873
-0.023329,-0.038513,-0.12799,-0.0021948,0.0044025,-0.0030598,0.0102,0.0066387
-0.0073671,0.023945,0.21835,0.1074,-0.019204,0.0055447,-0.035504,-0.0023424
0.0084717,-0.0080911,-0.16806,-0.14169,0.0043316,0.014113,0.044442,0.012313
0.0085513,0.037169,0.11109,-0.0073121,0.012615,0.0069946,0.023084,0.0038273
0.00069937,-0.043288,-0.28841,0.010401,-0.0099176,-0.031426,-0.092204,-0.012128
0.00057167,0.016465,0.1797,0.051881,0.0070433,-0.0073631,-0.0049177,0.0035071
0.0082027,0.0059532,0.24137,0.054377,0.016539,0.0089147,0.042532,-0.011806
-0.015441,-0.050843,-0.26792,-0.14646,-0.012836,0.017435,-0.020198,0.0043708
-2.6143e-05,0.0028526,-0.074861,0.081887,0.0046501,0.0025624,0.0023583,-0.0027204
-0.00023043,0.018994,0.1333,-0.010828,-0.0015354,0.003297,0.016735,0.0059112
0.0073877,0.036798,-0.095954,0.0049064,-0.023774,-0.011719,0.015463,-0.0010541
-0.00060756,0.0014394,0.1445,0.027475,0.00029777,-0.003553,-0.016754,-0.00024677
0.0070385,0.02186,0.035264,0.010098,0.01593,0.012049,0.0062761,0.0082697
-0.00091009,-0.0041506,-0.32134,-0.062595,0.007514,0.0037636,-0.0012422,0.0010037
-0.016614,-0.046078,0.161,-0.073026,-0.0014267,-0.028403,-0.023666,-0.0064559
-0.00097411,-0.01866,-0.049109,0.1199,0.0048748,0.0093919,0.0092193,-0.0063052
-0.00082268,-0.00050584,0.39919,-0.030232,-0.020273,-0.0076761,0.01909,0.0014799
0.015121,0.0081671,-0.10464,0.023796,0.017087,0.022183,-0.0099441,0.0013301
0.0077979,0.038674,-0.17135,0.00087852,-1.4016e-05,0.005456,-0.0078703,0.0011341
-0.015013,-0.033685,-0.20065,-0.036586,-0.016685,-0.026405,0.0015811,-0.0068419
-0.0065131,-0.0053396,0.025308,0.0048032,-0.0093224,0.0048506,0.018163,0.0087131
0.0097483,0.030455,0.17022,-0.00049618,0.01436,0.013308,-0.0051608,0.00094875
0.0023938,0.0038363,-0.031339,0.032818,0.0074928,0.014504,-0.013753,-0.0067181
0.01818,0.0088931,0.15561,0.072895,0.016849,-0.015184,0.039338,0.016899
-0.021099,-0.032297,-0.2681,-0.11507,-0.012467,-0.021319,-0.1035,-0.0064141
-0.0060852,0.013146,0.19841,-0.023427,-0.018244,0.011445,0.081465,0.0013751
-0.0070359,-0.018881,-0.061265,0.043346,0.0070013,0.012539,0.016439,-0.0066728
0.015238,0.012134,0.1878,-0.023599,0.016074,0.013023,-0.071694,-0.0071355
-0.0094033,-0.003336,-0.36657,-0.012543,-0.014717,-0.018448,0.075122,-0.0077818
-0.0026543,0.012674,0.12729,0.053963,0.0082312,-0.011541,-0.050799,0.007108
0.004382,-0.033737,-0.010483,0.01268,-0.0088389,-0.012998,0.034908,-0.0014053
0.0039716,0.052616,0.094705,-0.042044,-0.011104,0.024276,-0.011642,0.021487
0.027358,-0.017421,-0.15155,0.046298,0.02514,0.0067976,0.0046387,0.0055637
-0.0036686,-0.025144,0.32024,-0.027116,-0.0091268,-0.0026714,0.013178,-0.017882
-0.018929,0.037266,-0.23304,-0.051864,-0.011948,-0.019551,-0.040947,-0.0019856
-0.018565,-0.0020057,0.12531,0.010294,-0.006393,0.010959,0.013979,-0.0092999
-0.0026888,-0.05692,-0.11303,0.064604,0.0078183,0.0029242,-0.0017938,0.0069653
0.0052068,-0.0023563,-0.13558,0.039729,0.023024,0.018746,-0.033542,-0.00016357
0.020749,0.060222,0.15195,-0.065196,0.00016072,-0.012059,0.051658,0.016091
-0.002891,-0.0097659,-0.046304,0.10867,0.0093986,0.01188,0.019574,-0.0068529
-0.0031463,-0.0092335,0.15386,-0.18095,-0.01982,-0.011162,-0.004655,0.0012622
-0.011203,0.014821,-0.16799,-0.043021,-0.017473,-0.034395,-0.044358,-0.01427
0.019859,-0.00028369,-0.0027496,0.062329,0.00053256,0.0125,-0.0057265,0.0012568
-0.0036871,-0.031303,-0.021467,0.0033171,0.0027202,-0.0031946,0.025312,0.0010182
-0.0037147,0.030991,0.22923,0.11689,0.012376,0.020227,0.0018445,0.0007065
-0.0036661,-0.024387,-0.11826,-0.041529,-0.0018246,-0.0030336,0.0097287,0.0081987
-0.011357,-0.0098615,-0.04928,-0.018488,-0.00083875,0.020862,-0.060513,0.00010164
0.0044703,0.012272,-0.049559,0.060861,0.0075384,-0.0018281,0.11133,-0.0001337
0.01258,0.018877,0.16853,-0.10091,-0.015724,-0.0086818,-0.052954,-0.00033626
-0.0026354,-0.0053273,0.017823,0.034493,0.023156,-0.03109,-0.05337,0.0072714
-0.0021042,-0.013142,-0.18993,0.0053034,-0.016415,0.016713,0.086705,-0.016408
-0.0014591,-0.012141,0.029498,-0.048516,0.0062217,-0.0060602,-0.070075,0.0067326
0.007082,0.029022,-0.12027,0.060153,-0.0026405,0.0098421,0.039006,-0.009228
-0.015597,-0.014736,0.22891,-0.067173,-0.011689,0.017484,-0.12488,0.0060719
0.0085571,-0.0030552,-0.10149,0.030715,0.010406,0.0012551,0.18065,0.0058326
0.0091481,0.00895,0.12392,0.034001,-0.014381,-0.023126,-0.036522,-0.0020497
-0.013907,0.036374,-0.18022,-0.048903,0.01561,-0.0086172,-0.073325,-0.0096933
0.009637,-0.038522,-0.052976,0.001336,0.014534,0.013747,0.10908,0.014186
-0.006199,0.0025316,0.35653,0.12268,-0.0097226,-0.018301,-0.11463,-0.0085541
0.016709,0.018589,-0.070036,-0.043952,0.005388,0.02044,0.059828,0.0079515
-0.023155,-0.060767,-0.084026,-0.12344,-0.033863,-0.0027165,-0.00071431,-0.0067325
0.0071104,0.022401,-0.1241,0.087314,0.013144,0.0059932,-0.0074661,0.0019266
-0.0095583,0.0027953,0.012244,-0.044622,0.005746,0.007396,-0.030863,0.0025188
0.0051016,-0.0097534,-0.088922,0.0040031,-0.0014389,-0.014354,0.015078,0.0027221
0.012155,0.063381,0.22956,0.053278,0.014924,0.010764,-0.010064,0.0024574
-0.0039301,-0.0038981,-0.015176,0.0092036,0.0078344,-0.0034937,0.050285,-0.013903
0.0037644,-0.039337,-0.29796,-0.050368,-0.015023,-0.0026962,0.0090142,0.0006005
-0.0038353,0.0042069,0.1562,-0.0085306,-0.0068771,-0.010438,-0.078797,-0.008562
-0.0033493,-0.029351,0.10612,0.02506,0.0087863,0.0045032,0.029379,0.013507
0.0051364,0.039758,0.059782,-0.027979,-0.022698,-0.012452,0.021273,0.0045269
-0.0097219,0.0006177,0.032147,0.043075,0.015952,0.001408,-0.017084,-0.0040597
0.0066826,-0.0061726,-0.064042,0.0037017,-0.00011115,0.022919,-0.0076402,0.0034974
-0.00039147,0.0036994,0.13682,0.017927,0.0074111,-0.0023285,0.033746,-0.0040142
0.00028422,-0.032373,-0.40574,-0.054777,-0.0082011,0.0040211,0.0051486,0.0045996
0.00090373,0.0026314,0.20592,0.012406,-0.0077882,-0.012566,-0.031377,0.0057625
-0.014135,0.0069094,-0.20797,-0.045749,0.00084781,0.0026573,-0.01378,-0.02416
0.0098778,0.027005,0.17357,0.052503,0.033245,0.010604,0.041932,0.016172
0.0026338,8.0906e-06,-0.05465,-0.0048204,-0.020143,-0.020069,-0.020741,-0.006268
0.010981,0.01921,0.15537,-0.021963,0.020146,0.012066,-0.0065576,0.017722
-0.012019,-0.0095757,0.077875,0.048231,-0.049242,-0.018146,-0.0013335,-0.013528
-0.0039559,-0.024187,-0.2478,-0.036363,0.0137,0.014143,0.0030381,-0.0062913
0.011635,-0.024782,0.43591,0.06003,0.037003,0.0072289,0.0069778,0.00043248
0.0034216,0.012145,-0.44974,-0.03013,-0.01837,-0.0077525,-0.0281,0.0067872
-0.013009,0.0087665,0.18048,-0.033867,-0.011657,0.0081783,0.046696,0.0051656
0.0014313,-0.0031844,-0.15046,0.024896,-0.028569,-0.007519,-0.018279,-0.012006
-0.0078472,0.015938,-0.15362,-0.065199,0.017098,-0.00014563,-0.03532,0.0102
0.0061926,-0.011412,0.31189,0.047102,0.02403,0.0069309,0.06591,-0.0061349
0.0046908,0.0089941,-0.050311,0.017877,0.0080204,-0.0017859,-0.050674,0.0016359
-0.0043317,-0.00067404,-0.075691,0.003322,0.00037326,-0.010494,0.05215,0.0023217
-0.0050745,-0.009092,0.15004,0.011295,-0.0067989,0.0044478,-0.016588,-0.01193
0.010384,0.014844,-0.076433,-0.028406,-0.02149,-0.011452,-0.046287,0.0056141
-0.0048116,-0.022942,-0.052604,-0.045317,0.010742,0.0044555,0.025297,0.00785
0.019582,0.041184,0.017443,0.077929,0.011521,0.013168,-0.0051019,0.010113
-0.0025176,0.011471,0.32012,0.02121,-0.01155,-0.00099467,0.01095,-0.003531
-0.024424,-0.057746,-0.46589,-0.066842,-0.0039077,-0.0069606,-0.035821,-0.0099196
0.00054315,-0.010412,0.033765,-0.045416,-0.012451,0.018427,0.042249,-0.0092475
0.0097214,0.012844,0.0063564,0.046594,0.025397,0.0045195,-0.012486,0.014036
0.0030008,0.012204,0.15527,0.099951,0.0082304,-0.0099473,0.034466,-0.0025065
-0.011854,0.011406,0.14521,-0.072757,-0.032497,-0.025221,-0.043415,-0.019623
0.0042241,-0.012642,-0.23383,-0.041804,0.0128,0.0054601,0.011638,0.0098451
-0.0034105,-0.020587,-0.0041954,-0.018149,0.0036831,0.0040239,-0.0036035,0.0002785
0.01217,0.065867,0.077412,0.060633,0.0027823,-0.0058797,0.004477,0.0066602
-0.003678,-0.050155,0.18397,-0.0087086,0.0023482,0.015148,0.027952,0.01358
0.019385,0.045244,-0.21481,0.070531,0.025813,0.012818,-0.019175,0.0055093
-0.028009,-0.054484,-0.11031,-0.1159,-0.036259,-0.020287,-0.050943,-0.025396
0.002579,0.0018597,-0.095858,0.025557,-0.019905,0.0020952,0.026501,-0.0011568
0.0095936,0.034232,0.023824,0.0182,0.012258,0.0020398,0.018012,-0.00012304
-0.0069336,-0.012327,0.4356,-0.0052436,0.013229,-0.012596,-0.0059103,0.016513
-6.5637e-05,0.0026771,-0.11175,0.025539,0.0063214,0.020567,0.017395,0.0016405
-0.00096093,-0.030093,0.098872,-0.014367,-0.00076987,-0.0081207,-0.021348,-0.0058449
0.0061158,0.038012,-0.28579,-0.031049,0.015295,0.018146,0.026313,0.001802
-0.0021617,-0.027033,0.11575,0.014778,-0.023668,-0.010444,-0.027185,-0.014431
-0.010078,0.0017656,-0.079868,0.053051,0.0073405,-0.0083678,0.0055388,-0.0075122
0.0058529,-0.00015789,-0.25505,-0.1113,-0.016604,-0.0071969,0.030595,-0.00064648
0.014374,0.014427,0.31806,0.10785,0.0062091,0.0085177,-0.045895,0.014231
-0.015834,-0.0089579,-0.24939,-0.070657,0.0056716,-0.00028368,0.01035,0.0060844
0.016667,0.046892,0.21624,0.04849,-0.010183,-0.017797,-0.019471,0.014101
-0.01328,-0.060389,-0.0026336,0.012032,0.0057093,0.026617,0.028682,-0.016402
0.0035284,-0.0030252,0.086419,-0.047456,0.0065831,0.00056074,-0.0014537,0.0082132
-0.0033671,0.031028,0.02949,0.025967,0.0080566,-0.017404,0.0072803,-0.013822
-0.0028203,-0.013397,0.16098,-0.033667,-0.021255,-0.0034528,0.015764,0.00318
0.0051267,0.07422,-0.10682,-0.00012789,0.027777,0.011433,-0.030772,0.0042852
-0.0029403,-0.097014,-0.35343,0.087236,-0.0014157,-0.0038899,0.008208,-0.0028858
0.0043085,0.019713,-0.079353,-0.12334,-0.0075958,0.013005,-0.0001754,-0.010629
-0.012071,-0.020749,0.1222,0.086785,-0.014469,-0.00062845,-0.016879,-0.0033289
0.010553,0.00070387,0.010498,0.006713,0.0012487,0.0017147,0.00502,0.019092
0.0098021,0.053292,0.18116,-0.011831,-0.007327,0.0039803,0.026574,0.002095
-0.014237,-0.042198,-0.012575,-0.038863,0.0068152,-0.017676,0.0010866,-0.0072595
0.00097788,0.011472,0.062994,-0.0036746,0.0048619,-0.0088752,-0.024352,-0.00096515
0.00074706,-0.02772,-0.12358,-0.046459,-0.005067,0.0067862,-0.0026369,0.0055269
0.00063955,0.051085,0.10609,0.051924,0.016395,-0.0019274,-0.027311,-0.0189
0.0083809,0.021021,-0.070452,0.072984,-0.0086367,0.0042209,0.05803,0.011772
0.00043834,-0.0011685,0.10218,-0.069137,-0.0018938,0.0098989,0.0034569,0.011624
-0.0076414,-0.015946,-0.065635,0.070757,0.0053996,-0.0079802,-0.026993,-0.0037519
0.0075411,-0.031463,-0.17677,-0.0075865,0.0053524,-0.0021972,0.013435,-0.0031877
-0.016497,-0.0087547,0.13584,-0.06229,-0.010001,0.004089,-0.023891,-0.0024169
-0.0015572,-0.025761,-0.23614,-0.046738,-0.0017852,0.0032367,0.0092235,-0.0093711
0.0056005,-0.0039176,0.1077,0.023303,-0.0014257,-0.0047115,-0.012477,0.0070866
0.005106,0.033916,0.13071,0.015026,0.0065726,0.011412,0.020142,-1.4916e-05
-0.0029303,0.017987,0.053873,0.022304,-0.016916,-0.018887,0.0053203,-0.0073108
0.012803,0.042431,0.042846,0.060945,0.021867,0.021338,0.021055,0.024215
-0.010202,-0.056715,-0.14391,-0.079808,-0.02545,-0.0087843,-0.034257,-0.0070183
-0.0017091,0.025016,0.0089288,-0.017016,0.020921,-0.0078976,-0.012114,-0.0072452
0.014714,0.029321,0.19567,0.10875,0.0048406,0.00043429,0.0017147,0.00014668
-0.0079641,-0.04445,-0.030268,-0.10877,-0.0032862,0.00055855,0.007479,-0.0081948
-0.0073871,-0.0094556,-0.25588,0.033469,-0.0033982,0.00035598,0.021104,-0.00090682
0.00071801,0.00095895,0.25274,-0.011501,-0.011098,-0.0078457,-0.0039852,0.0065096
-0.0071238,-0.021321,-0.5119,-0.025049,0.012659,0.015189,-0.020661,0.0063552
0.0081812,0.0096077,0.23241,0.047391,-0.010297,-0.016317,0.010301,-0.0091035
-0.0079665,0.015826,0.12759,0.01038,0.021528,0.022746,-0.020429,0.0070352
0.0070527,0.013333,0.049706,0.020051,-0.024757,-0.0082188,0.027691,0.0078619
0.0064855,-0.020861,0.092921,-0.033071,0.0070216,0.00010921,0.021653,-0.014527
0.0060535,0.030852,-0.040185,-0.04749,0.007421,0.0085426,-0.046632,0.01005
-0.0098138,-0.0030705,-0.023002,0.00020913,-0.0079823,-0.014331,0.05691,-0.0044944
-0.0020462,-0.020859,-0.13899,0.024105,-0.0001508,-0.0061719,-0.042995,-0.011428
0.0058859,0.032258,0.19533,0.078925,0.015294,0.017278,-0.018409,0.012576
-0.0095154,-0.054671,-0.084716,-0.069662,-0.0084872,-0.01434,0.005594,-0.0028593
-0.00926,0.015158,-0.24618,-0.015371,-0.0089304,0.0083876,0.021251,-0.0030573
0.022206,0.022893,0.30424,0.02308,-0.0015688,-0.0003568,-0.01036,0.0042137
-0.0011113,-0.015943,-0.31564,-0.0011423,0.0058927,-0.01696,0.01252,0.011232
-0.0089377,-0.0077005,0.21598,0.076095,0.013563,0.013461,-0.0036676,-0.013128
-0.0012842,0.016272,0.06518,-0.11228,-0.017529,-0.0026667,-0.019712,-0.0062234
0.0062412,-0.0066253,-0.047149,0.012007,-0.0013885,0.012897,0.042587,0.00083385
-0.0097547,-0.006186,-0.0096883,-0.058677,-0.00051194,-0.010131,-0.019905,0.00034399
0.013294,0.048736,0.07749,0.097688,0.016295,0.006306,-0.011953,0.0079982
-0.0026571,-0.04507,-0.089348,0.020233,-0.0057697,-0.00044313,0.011633,0.0081769
-0.010654,-0.014214,0.037133,-0.017646,-0.0043706,-0.0071449,-0.011781,-0.0069914
0.0049968,0.039759,0.050755,0.038578,0.0046803,0.0094247,-0.0041829,0.0014423
-0.010354,-0.0315,-0.19711,-0.061338,-0.0022348,-0.0055983,0.018729,-0.0057316
0.013604,-0.0012645,0.074428,-0.052034,-0.0018173,0.0023733,0.0022489,-0.0052284
0.014327,0.029113,-0.049248,0.050637,0.02149,0.0020896,-0.037967,0.0028217
-0.008274,-0.026083,0.11076,0.027777,-0.026045,-0.014161,0.038786,0.010523
-0.023065,-0.018227,-0.13415,-0.058176,-0.027127,-0.014951,-0.04082,-0.0055844
0.024517,0.044973,0.28485,0.097477,0.02623,0.015555,0.074911,0.0014199
-0.014071,-0.023992,-0.1809,-0.13803,0.0092304,-0.00058166,-0.012314,0.00039154
0.0017239,0.0091105,0.029235,0.063486,0.00018889,0.0070628,-0.028912,-0.016333
0.017196,0.026835,0.10893,0.06143,0.014868,0.030681,-0.099744,0.0061025
-0.0066816,-0.0024039,-0.020968,0.0042534,-0.016986,0.0076728,0.13467,0.013162
-0.030765,-0.047712,-0.32932,-0.076778,-0.0094606,-0.04651,-0.044358,-0.010671
0.015368,-2.8917e-05,0.23958,0.021514,0.0061003,0.00075434,-0.05094,0.0049517
0.0068296,-0.023641,-0.10906,-0.013234,-0.0016904,0.00087607,0.13822,0.0053006
0.0062036,0.068848,0.26827,0.03796,0.013897,-0.0071516,-0.070861,-0.0019282
-0.0020992,0.004033,-0.30495,-0.035517,-0.0019423,0.015762,0.016822,0.0065388
0.0053382,-0.0148,-0.13833,-0.006735,-0.0023974,-0.00058294,-0.091211,-0.0085372
-0.0028016,-0.010809,0.26229,-0.00035885,-0.02652,-0.0091501,0.097002,-0.00042901
-0.0031692,-0.0070506,0.030371,-0.0083523,0.011716,0.0058518,-0.090519,-0.008285
0.0041602,-0.010893,0.19627,0.070888,0.018706,0.021115,0.10407,-0.00086019
-0.012094,-0.014068,0.015538,-0.020625,-0.0053682,-0.010171,-0.045613,0.0062949
0.0027915,0.015079,-0.29623,-0.01764,0.0021624,-0.0020775,-0.008056,0.0055019
-0.0057678,0.022138,0.038919,0.0090241,-0.021081,-0.017182,-0.0095031,-0.018705
0.0014447,0.0072086,0.018256,0.019778,-0.01256,0.006894,-0.010591,0.011945
0.0011617,0.0014416,0.077763,-0.040503,0.027655,-0.00030756,0.04359,0.011614
0.0091538,0.012368,-0.25915,-0.02363,0.029081,0.0079494,-0.010923,-0.0040422
0.0098794,-0.022917,-0.16296,6.8774e-05,-0.00072645,0.0081158,0.013327,0.011816
-0.01229,-0.026739,0.39999,0.030808,-0.030802,-0.015498,-0.032276,-0.01121
-0.0027632,0.00048616,0.088738,-0.016973,-0.014528,0.007417,0.023876,-0.01073
0.0070372,0.011558,0.046399,0.075927,0.016681,-0.0012019,0.017424,-0.0024674
0.0012651,0.029709,-0.28007,-0.07289,-0.0075174,-0.0021671,-0.075322,-0.002115
-0.012498,-0.046715,0.00042554,0.0056182,0.0067432,-0.0031205,0.073607,0.005926
0.0046085,0.016666,0.04335,0.0068765,-0.0027945,0.003938,-0.0045584,0.0060397
0.0055665,0.032414,0.12813,-0.030147,-0.012371,-0.019887,-0.036271,-0.0017436
-0.0096881,-0.038436,0.10381,0.058326,0.01741,0.0036375,-0.052571,0.0060476
0.0057382,0.046416,-0.079121,0.01406,0.0087096,0.027654,0.017099,-0.0096241
0.0050618,-0.0019648,-0.17297,-0.0071748,-0.01486,0.0052037,0.11826,0.013753
-0.011574,-0.042809,-0.20263,-0.060509,0.0092405,-0.0013899,-0.022388,-0.0019442
-0.0049423,-0.029073,0.26899,0.0021801,-0.0050311,-0.015791,-0.029851,-0.017653
0.017304,0.031611,0.05512,-0.0067315,0.012417,0.0086513,-0.021401,0.005695
0.00060243,-0.0012137,-0.15513,0.0065953,-0.0090174,0.0014609,-0.012805,-0.0021952
-0.0080945,0.028831,0.19514,0.12057,0.00067617,-0.029612,-0.01202,-0.0022372
0.006864,-0.0031977,-0.079147,-0.10968,-0.0056311,0.0014205,0.035532,0.013405
-0.0014129,-0.0035687,0.071139,-0.0039588,-0.0046635,-0.014673,-0.018649,-0.0021297
0.0060986,0.019826,-0.1334,0.024211,0.0035317,0.039482,0.028538,-0.0019677
-0.017517,-0.042495,0.027217,-0.063766,-0.020044,0.0078079,-0.018225,0.0060634
-0.0019734,-0.0031238,-0.071487,0.060572,0.01851,-0.00021248,0.0051127,-0.0014959
0.013664,0.020703,-0.023494,0.022374,0.010013,-0.00018276,-0.018658,-0.0090384
