0.018828,0.23116,-0.006915,-0.016996,-0.0056199,0.011259,-0.0078452,0.0063933
0.029195,-0.18959,0.021006,0.013891,0.018479,0.0036258,0.061056,0.094196
-0.015624,0.0807,0.017346,-0.0019059,0.0038464,0.012068,-0.016732,0.14457
0.09491,0.088162,0.021743,0.02149,0.020659,-0.0025014,-0.037637,-0.28807
-0.15509,0.025794,-0.012128,-0.017542,-0.0015597,-0.0011184,0.0062528,-0.047899
0.046818,-0.00067605,-0.013513,-0.0096729,-0.023899,-0.0073796,0.0052461,0.10677
0.013357,-0.066035,-0.0055691,-0.0017991,-0.0073971,-0.029286,-0.010136,-0.043377
-0.028417,-0.057745,-0.0038399,0.013895,-0.0067614,0.026726,0.091868,0.12601
0.062848,-0.026825,-0.00063839,-0.0016303,0.0093218,0.01206,0.23193,0.067402
-0.06355,-0.10913,-0.004099,-0.0092813,-0.0058982,-0.0030822,-0.48172,-0.17299
0.007315,0.27196,0.0087288,-0.0012201,0.0024053,0.012493,0.13753,0.037138
0.049595,0.03854,0.01381,0.01475,0.010896,-0.050585,-0.082723,0.1116
-0.045669,-0.18241,0.0027032,-0.00044869,0.011781,0.010861,0.021488,-0.2229
0.080895,0.2532,0.084218,0.0078378,0.0049826,0.017238,0.15352,0.253
-0.063411,-0.53289,-0.10924,-0.022938,-0.0096656,-9.4138e-05,-0.01429,-0.23312
-0.1515,0.22996,-0.015325,0.024365,0.0066883,0.02149,0.13592,-0.070584
0.041651,-0.14882,-0.087082,-0.053417,-0.039906,-0.011623,-0.12153,0.21075
0.18603,0.3423,0.09769,0.040566,0.030106,0.025731,0.073903,-0.059781
0.10772,0.36951,0.10195,0.0094226,-0.0098669,-0.038111,-0.14339,0.23582
-0.031051,-0.89517,-0.097281,-0.029676,-0.026924,0.0080584,-0.17768,-0.2459
-0.16903,0.6559,0.055088,0.04825,0.065061,0.00048671,0.12164,0.018258
-0.11904,-0.20711,-0.073518,-0.045884,-0.046155,-0.076155,0.069081,-0.034885
0.14322,0.14449,0.024794,0.023842,0.022511,0.06739,-0.03712,0.078058
-0.12241,-0.11383,0.0062324,-0.0081948,-0.0099516,-0.029833,0.014127,-0.19091
0.032341,-0.34506,0.011319,-0.0013308,-0.026194,-0.00094723,0.0026635,0.27427
0.14991,0.25298,0.047788,0.0054508,0.028529,0.12997,-0.066781,0.019466
-0.047727,0.022921,-0.064027,-0.011168,0.013535,-0.05204,0.45755,-0.14362
-0.081495,0.043029,-0.019266,-0.011981,-0.0088324,0.0066804,-0.062444,0.0032079
0.034267,-0.15433,-0.020717,0.003158,-0.0075483,-0.10103,-0.49911,-0.22789
-0.0052951,0.24496,0.033638,0.026555,0.0093372,-0.055431,0.088827,0.006656
0.26694,-0.15583,0.058345,0.050465,0.041628,0.43251,0.27745,0.55832
-0.1909,0.019656,-0.07121,-0.089169,-0.08266,-0.46473,-0.36239,-0.080827
-0.17923,-0.11836,-0.050164,-0.0095979,-0.019777,0.019666,0.22717,-0.36401
0.11083,0.31321,0.12136,0.046876,0.042868,-0.011183,-0.12026,0.052499
0.012144,-0.12325,-0.10398,-0.044904,-0.019581,0.14746,0.23503,-0.25299
0.30397,0.4861,0.34341,0.11332,0.089885,0.10622,-0.42628,0.52476
-0.24864,-0.64787,-0.3577,-0.072357,-0.027094,-0.064061,0.30053,0.035139
-0.36344,-0.63421,-0.11449,-0.047393,-0.073651,-0.24662,-0.2756,-0.32196
0.18848,0.5356,0.21289,0.047518,0.04388,0.15086,0.39351,-0.1228
0.0666,0.1671,-0.048,-0.021995,-0.010569,0.024538,-0.24093,0.57233
-0.01465,0.37818,0.05572,0.025386,0.036312,0.37955,0.73806,-0.73429
0.37748,-0.018388,0.13349,0.017897,-0.010872,-0.31792,-0.29368,0.27187
-0.20805,-0.16336,-0.14249,-0.028722,-0.02713,-0.061836,-0.61734,0.12345
-0.19235,-0.057078,-0.19354,-0.044086,-0.028014,-0.032349,0.10381,-0.1089
0.26774,-0.34815,0.09034,0.026482,0.0022249,-0.11888,-0.13527,0.19107
-0.3842,-0.12221,-0.048119,0.0031728,0.0012211,0.079867,0.40543,0.013222
0.15397,0.18408,0.14923,0.049815,0.054996,0.091416,-0.25749,-0.067757
0.15278,0.28291,0.11207,0.009849,0.054172,0.20947,0.71575,-0.0013073
0.039131,0.42561,0.10574,0.0079723,-0.040406,-0.43667,-0.44226,-0.25257
-0.22826,-0.71493,-0.29206,-0.088822,-0.088261,-0.023649,-0.62281,0.4404
0.099357,0.088328,0.043359,0.024175,0.012036,0.043376,0.0093276,-0.425
0.045417,0.030444,-0.059788,0.019138,0.080744,0.49754,0.58494,-0.18593
0.11912,-0.045789,0.0006993,-0.040852,-0.053932,-0.10211,0.27931,0.66569
-0.04403,0.38152,0.08537,0.032496,0.037928,0.17685,-0.26659,-0.22783
-0.45604,-0.18177,-0.13239,-0.033392,-0.041741,-0.38211,-0.25867,0.026988
0.25426,-0.026776,0.13017,0.059121,0.051266,0.23172,0.62585,-0.2537
-0.12833,-0.014751,-0.024274,-0.033222,-0.088846,-0.56285,-0.4558,0.12949
0.21096,-0.36594,0.021823,0.0099811,0.038271,0.20239,-0.14336,0.00087236
-0.016648,0.23896,-0.0055676,-0.0069589,-0.0047562,-0.025269,0.19034,-0.003312
0.29618,0.057214,0.079501,0.06358,0.031888,-0.015403,0.12795,0.20528
-0.30791,-0.13017,-0.10028,-0.092045,-0.07108,-0.19307,-0.74497,-0.59112
0.39973,0.60648,0.13207,0.079565,0.16206,0.96919,0.94117,0.38034
-0.43859,-0.3967,-0.20257,-0.039987,-0.035356,-0.58103,-0.8169,0.10969
0.039065,0.079576,0.065668,0.0015185,-0.078406,-0.40638,0.048796,0.05455
0.17323,-0.018341,0.10771,0.0083395,0.063379,0.81079,0.90281,0.59388
-0.388,-0.37628,-0.15432,-0.058438,-0.13377,-0.61372,-0.7825,-0.85397
0.38149,0.16421,0.14831,0.08315,0.11944,0.90858,0.96293,0.036668
-0.56772,-0.41793,-0.30218,-0.13605,-0.1215,-0.69709,-1.0184,-0.42246
0.34156,0.60583,0.16142,0.090045,0.058667,-0.15965,0.059032,0.37116
0.022555,0.041217,-0.035834,-0.041898,-0.010539,0.11542,0.45611,-0.041137
0.051299,0.1769,0.30405,0.10982,0.070568,-0.43805,0.27715,0.1872
-0.08463,-0.26239,-0.24694,-0.063612,-0.05653,0.28847,-0.59126,0.066421
0.34923,0.3611,0.061645,0.062819,0.077182,0.37365,0.41917,0.48078
0.2171,-0.59656,0.080557,-0.011436,-0.036477,-0.55736,-0.68314,-0.39771
-0.13465,-0.11486,-0.067031,-0.068564,0.023448,0.51664,0.28474,-0.077821
-0.41533,0.062143,-0.11796,-0.0081193,-0.056793,-0.73077,-0.46099,-0.45179
-0.34163,0.44964,0.026699,-0.0030433,0.010567,0.75209,0.17173,-0.15412
0.34795,-0.31066,0.052037,0.078657,0.083854,0.79376,0.78224,0.76701
-0.051579,0.32273,0.057799,-0.044716,-0.071878,-0.53039,0.038462,-0.040583
0.10865,0.13446,-0.027384,-0.029454,-0.05816,-0.26321,0.1059,0.43893
-0.075373,-0.83248,-0.12563,-0.023666,-0.085327,-0.78211,-0.92276,-0.93408
0.047993,0.58205,0.076047,0.035725,0.10544,0.51561,0.89478,-0.017364
0.067977,-0.38426,-0.061983,0.0087741,0.023111,-0.16088,-0.96117,-0.059018
0.19818,0.27074,0.10999,0.04455,0.067091,0.074665,0.24727,0.48952
-0.083213,-0.022693,0.038536,-0.0049252,-0.027669,0.073745,-0.24155,-0.40207
-0.056861,0.18733,-0.040896,-0.030047,0.0044959,-0.090651,0.51463,0.51592
-0.051097,-0.047337,0.013061,0.016061,0.02249,0.6239,0.56826,0.25759
-0.13681,0.066269,-0.11949,-0.06209,-0.08389,-0.48366,-0.30864,-0.20304
0.037016,0.28961,0.13972,0.039914,0.028146,0.046819,-0.92147,0.076562
-0.0064787,-0.3418,-0.029618,0.024904,-0.0016257,-0.27356,0.70626,-0.74972
-0.095431,-0.78329,-0.1432,-0.076126,-0.10344,0.42958,-0.54214,-0.14417
0.2312,0.097376,0.22082,0.12727,0.18348,0.51941,0.81086,0.18206
-0.010994,0.29319,-0.18753,-0.099349,-0.085909,-0.53379,-0.49913,0.29198
-0.064577,0.8292,0.022484,-0.021617,-0.059499,-0.073156,0.3106,0.037733
0.1634,-0.24608,0.038449,0.040224,0.013431,-0.84769,-0.47704,0.16928
-0.015706,0.091866,0.17291,0.062835,0.055462,0.37161,0.46027,0.3185
-0.14996,-0.66456,-0.1445,-0.063059,0.1062,1.0031,0.56254,-0.00061989
-0.045023,-0.46909,-0.03898,0.014181,-0.10752,-0.69681,-1.1749,-0.34435
0.048706,1.1303,-0.042122,-0.0022714,-0.0075595,-0.18909,0.44684,-0.15861
-0.16535,-0.25848,-0.01377,-0.057713,-0.039463,0.52761,-0.70883,-0.68443
0.19663,0.082268,0.068934,0.058783,0.030782,0.064791,0.77558,0.3393
0.042463,-0.2778,0.10379,0.011254,0.08561,0.073553,0.14446,0.64426
0.045894,0.098956,-0.026963,-0.028452,-0.10965,-0.66965,-0.39895,-0.29469
-0.15058,-0.47397,0.020022,0.056852,0.046432,0.17428,0.31475,0.090998
-0.060974,0.4426,0.033784,-0.029653,-0.032002,-0.40734,-0.29763,0.14219
0.17524,0.053773,-0.19615,-0.022196,-0.0009335,0.30649,0.86623,0.057195
-0.13671,-0.17767,-0.090659,-0.037721,0.0072454,0.76219,-0.93594,-0.59295
0.3234,0.038532,0.093796,0.056907,0.094576,-0.23606,0.70258,0.35422
-0.2967,0.36678,-0.016327,-0.011404,-0.074442,-0.29978,-0.38764,0.043555
-0.14672,-0.0216,0.11139,-0.039258,-0.077647,-0.17465,-0.74798,-0.29567
0.20134,-0.245,0.17281,0.043757,0.06938,-0.060191,0.068001,0.76805
0.011094,-0.15639,-0.18395,-0.051586,-0.0555,0.18011,0.59586,-0.49807
0.053768,-0.0929,0.11029,0.10393,0.15649,0.54309,0.59993,-0.52177
-0.19636,-0.3208,-0.23534,-0.060777,-0.11586,-0.33987,-0.31851,0.43415
0.10225,0.85531,0.10519,0.039267,0.063858,0.00078792,-0.25392,-0.032518
0.01023,0.35811,0.082991,-0.034451,-0.055476,-0.39269,-0.39603,0.23992
0.13564,-0.83436,-0.053451,0.021892,-0.013874,-0.38222,-0.22611,-0.030618
-0.04541,0.42839,-0.062725,-0.018791,0.086516,0.49962,0.95902,0.13318
0.069312,-0.74191,0.00059698,-0.031541,-0.051247,0.33738,-0.19539,-0.18036
-0.1589,0.18056,0.020311,-0.0080402,-0.075079,-0.23106,-0.39849,-0.14697
-0.17224,0.14288,0.052789,0.044907,0.039536,-0.0078708,0.42766,-0.38639
-0.037034,0.12223,0.0063838,-0.011955,0.05191,0.44375,0.35267,0.20119
-0.030274,0.070653,-0.10891,-0.044304,-0.083138,-0.58319,-0.14638,0.48907
0.42215,0.70403,0.16193,0.043004,0.073501,0.45181,-0.32399,-0.13461
-0.09126,-0.64605,-0.22662,-0.030254,-0.070671,-0.54492,-0.9072,-0.048824
-0.014979,-0.12526,0.23379,0.072329,0.063141,0.18459,0.27973,0.092036
0.14206,-0.26177,-0.12125,-0.00098779,0.084269,0.48579,0.51002,-0.16535
-0.34176,0.24566,0.074308,-0.0010084,-0.078356,-0.41045,0.0044752,-0.33866
0.10762,-0.37791,-0.087595,-0.069647,-0.043272,-0.097985,0.65617,0.8734
0.0012644,0.46204,0.00032125,0.018112,0.0081016,0.30927,-0.87766,-0.75205
0.14745,0.14347,0.19543,0.057609,0.042685,-0.73729,0.42449,0.3433
-0.1211,0.20242,-0.027186,-0.030538,0.0041385,0.2152,-0.091464,-0.26607
0.092374,-0.034628,-0.050957,-0.0049111,-0.038451,-0.1071,-0.14589,0.3469
-0.32924,-0.57643,-0.27387,-0.045356,-0.0075884,0.55134,-0.20464,-0.34257
0.13925,-0.1349,0.0868,0.020461,0.034272,0.45841,0.79536,0.15768
-0.077247,-0.016761,-0.076131,-0.025234,-0.099682,-0.77808,-0.85735,-0.0028268
0.51715,0.094119,0.20848,0.037595,0.12301,0.90716,0.71199,0.013672
-0.35516,0.27629,0.036373,-0.0084609,-0.022693,-0.50869,-0.27668,0.29521
-0.26152,0.51071,0.0023287,-0.0060121,-0.1133,-0.79884,-0.64007,-0.91424
0.26079,-0.56144,-0.026691,0.053489,0.17296,1.0463,0.98766,0.74571
0.008952,0.61997,0.064996,0.014015,-0.029967,-0.74183,-0.89982,-0.18604
0.29443,-0.3628,-0.084465,-0.030962,-0.088586,-0.29521,0.084078,0.039023
-0.17397,-0.22362,0.037626,0.0038276,0.044165,0.66418,0.42896,0.18388
-0.19575,-0.17351,-0.14958,-0.054355,-0.0069862,-0.012527,0.10922,0.081151
0.078146,-0.20823,0.17233,0.035829,0.022947,0.18329,0.64572,-0.18642
0.075602,0.5878,-0.0050838,0.015915,0.023713,-0.45896,-0.56683,0.066432
-0.34474,0.0411,-0.063807,-0.005049,-0.052532,-0.17542,-1.0023,-0.18427
0.15345,-0.79962,-0.2204,-0.089541,-0.050469,0.23189,0.16822,-0.46037
0.17302,0.31902,0.090774,0.059628,0.12287,0.81632,0.67831,0.6401
-0.19837,0.18094,0.10751,-0.01019,-0.11124,-0.90396,-0.076436,-0.32324
0.18155,-0.073262,0.075003,0.060847,0.059334,0.56276,0.12597,-0.040402
0.19674,0.49758,-0.036123,-0.016026,-0.014046,-0.16834,0.56095,0.35253
-0.20708,0.29098,-0.038026,-0.045486,-0.034583,-0.083319,-0.91827,0.014688
-0.045887,-0.33855,0.052352,0.034664,0.068019,-0.0567,0.28456,0.11083
-0.10186,-0.29683,0.013547,0.012915,-0.02655,-0.10792,0.017829,-0.19648
0.25663,-0.10735,0.23265,0.044813,0.025465,-0.26786,-0.0076983,0.27711
-0.16688,-0.4797,-0.23144,-0.057807,-0.049341,0.030283,-0.5857,-0.4958
0.0017555,0.79339,-0.12377,-0.014136,0.053829,0.31716,0.28997,-0.15968
-0.081675,-0.10086,-0.086501,-0.027373,0.022722,0.14815,0.49448,0.095051
0.074927,-0.28466,-0.010149,-0.0034171,-0.071919,-0.42187,-0.37802,0.60282
-0.043912,0.25466,0.12254,0.035038,-0.049783,0.24596,-0.32082,-0.27699
0.038578,-0.92282,0.040834,-0.028196,0.0039552,0.39689,0.068132,-0.19143
0.18188,0.56225,-0.025569,0.0032646,0.051043,0.038683,0.5229,0.010235
-0.10623,0.98529,0.12932,0.044415,0.037518,-0.2766,0.30478,-0.16153
0.072538,-0.38126,-0.062739,0.025571,0.049833,0.079732,0.50021,0.15503
-0.078714,0.068204,0.016393,-0.01397,-0.021153,-0.19352,-0.58689,0.5318
-0.13784,-0.15615,0.0072058,-0.027506,-0.11301,-0.77166,-0.48761,-0.23402
0.036526,-0.19261,-0.020985,0.0079075,0.00048318,0.35898,-0.6208,-0.47153
0.047192,-0.44347,-0.014942,-0.017792,0.08441,0.56509,0.23917,-0.042318
0.028584,0.1216,-0.023013,0.027474,-0.010331,-0.17618,-0.3111,0.58185
-0.056636,0.098784,-0.069777,-0.044453,-0.0031955,0.47205,0.81184,-0.2586
0.0039553,0.10284,-0.054293,-0.015318,-0.035483,-0.40346,0.46543,0.15987
-0.038721,0.070646,0.14051,0.059872,0.048476,0.04143,-0.27552,-0.086755
0.22951,-0.037237,-0.063288,-0.029978,-0.017377,-0.037064,0.22359,-0.085122
0.011007,0.33218,0.029895,-0.019306,-0.05362,-0.32672,-0.76516,-0.07649
-0.30518,-0.34098,-0.025209,0.029364,0.025597,0.070562,0.27778,-0.066144
0.27883,0.13103,0.14606,0.037879,0.040658,0.28729,0.56605,0.035526
-0.1377,-0.23928,0.097664,0.014012,-0.023859,-0.29399,-0.22533,-0.095544
-0.14289,0.43272,-0.26513,-0.057883,0.035472,0.47484,-0.23958,0.18481
0.12094,-0.12653,0.056734,0.0019379,-0.015347,-0.10192,-0.37459,-0.16809
0.14488,-0.22254,0.070455,0.013977,-0.027448,-0.4622,-0.37637,0.78356
-0.21205,0.05069,-0.20058,-0.044857,-0.0081819,0.51863,0.58215,-0.64156
0.152,-0.12565,0.095785,0.021236,0.0038453,-0.26104,0.048065,0.17062
-0.058998,-0.15373,0.046648,0.009685,0.032474,0.31634,0.29441,0.028831
0.054634,0.61418,-0.10432,-0.032119,-0.062638,-0.74055,-0.33014,-0.17186
-0.17755,0.094518,0.15218,0.036812,0.038925,0.42895,0.3552,-0.18354
0.12086,-0.59821,-0.018603,0.021287,-0.0067033,-0.19711,-0.10589,0.10291
-0.017678,-0.027079,-0.045709,0.014897,0.081382,0.69513,-0.064207,-0.053016
0.063933,0.1991,0.10212,0.0016082,-0.056715,-0.75276,0.040998,0.22683
0.014566,-0.051901,-0.1538,-0.058209,-0.015354,0.61577,-0.18337,-0.22559
-0.056365,-0.17911,0.20119,0.037976,-0.0060449,-0.41057,0.50369,0.0073309
0.10089,0.15054,-0.1309,-0.0072028,0.033298,-0.035802,-0.40375,0.5061
-0.23279,0.27493,-0.088569,-0.05341,-0.045928,0.12947,-0.35275,-0.65057
0.16881,0.3413,-0.016283,0.0086831,-0.001413,-0.048879,-0.0046423,0.38754
0.00081363,-0.15431,0.0075155,0.01519,0.01098,0.1233,-0.35281,0.20337
-0.12742,-0.42081,0.20163,0.036745,-0.0081752,-0.19855,0.56496,-0.21481
-0.10634,-0.42556,-0.027352,-0.0044038,0.019886,0.29771,0.57101,-0.1443
0.30648,0.34117,-0.10861,0.0092649,0.02544,-0.24715,-0.17735,0.16988
0.056624,-0.039235,-0.0025114,-0.031392,-0.030149,-0.02784,0.15474,-0.038911
-0.011948,0.65707,0.010218,0.0065492,0.025202,0.081572,-0.18658,-0.26954
-0.38347,-0.44578,-0.038735,0.021538,0.011777,-0.0038432,-0.39539,0.035681
0.25466,-0.018939,0.11655,-0.0099086,-0.031594,0.03705,-0.058833,-0.23634
-0.050683,-0.1074,-0.062865,-0.0097189,-0.034984,-0.30319,-0.45363,0.12151
-0.065204,-0.17747,0.032392,-0.0013472,0.024573,0.54545,0.31355,0.27599
0.077998,0.16382,-0.011871,-0.023821,-0.025302,-0.30862,0.47815,0.29002
-0.004446,0.019728,-0.070839,-0.0067534,0.01803,-0.038869,-0.085156,0.18487
0.1788,0.30498,0.13653,0.073363,0.12288,0.42317,0.82571,-0.043716
-0.17802,0.4567,-0.10089,-0.025647,-0.062648,-0.51016,-0.4696,-0.36194
0.0020492,-0.69812,-0.17396,-0.10076,-0.15597,0.12095,-0.71982,-0.45431
0.069548,-0.20756,0.19833,0.10558,0.11629,0.13669,0.44686,0.38713
-0.023067,0.099548,0.039025,0.030504,0.004231,-0.18068,-0.47606,-0.41607
-0.065014,0.082981,0.042971,-0.03742,0.00030355,0.15539,0.19716,0.5682
-0.055893,-0.021244,-0.04038,0.010702,0.018942,0.05413,-0.10938,-0.2102
-0.10421,0.078668,-0.0084001,-0.0051931,-0.033155,-0.67652,0.015109,-0.35514
0.21307,0.18295,-0.056706,-0.061836,-0.014897,0.53661,0.2784,0.45094
0.10027,-0.11909,-0.068098,0.020571,0.0038396,0.070331,-0.27807,-0.038666
-0.10563,-0.35606,-0.018756,0.0080494,0.039038,0.19831,0.47672,0.12997
0.12743,0.059403,0.19358,0.041846,-0.0028143,-0.13559,-0.20648,0.064341
-0.082847,0.46296,-0.15675,-0.049171,-0.035681,-0.16087,0.22253,0.21366
-0.2595,-0.1709,0.048308,-0.014277,-0.028361,0.087478,0.42696,-0.083122
0.26968,0.17764,0.13761,0.068983,0.081472,-0.11302,-0.40093,-0.50987
-0.073127,-0.07423,-0.17749,-0.03344,-0.011128,0.26613,-0.34225,-0.045452
-0.045454,-0.15015,0.08745,0.022231,-0.0017587,-0.010549,-0.16346,-0.001968
-0.030036,-0.40599,-0.044385,-0.014269,-0.031289,-0.31704,-0.76811,-0.11073
-0.1209,0.28031,-0.0031643,-0.0028047,-0.0061171,-0.079981,0.67065,0.1645
0.30617,0.17323,0.085521,0.0091346,-0.0043851,-0.14641,0.30324,0.26681
-0.03921,0.10956,-0.10702,-0.033758,0.013076,0.34807,0.15712,0.09935
0.2631,0.099769,0.075013,0.039872,0.0073887,-0.16251,0.65893,-0.022844
-0.27314,-0.21138,-0.10299,-0.035946,-0.013442,0.39471,-0.35082,-0.061103
-0.11829,-0.27205,0.10894,0.0042684,0.0053867,0.066596,-0.77449,-0.22202
-0.27336,-0.41316,-0.13282,-0.026945,0.0091577,-0.10267,0.5709,0.13681
0.12083,0.43976,0.023516,0.019025,-0.017966,-0.24306,-0.92898,-0.039146
0.41647,0.6251,0.10942,0.040858,0.056445,0.15473,0.9081,-0.14065
0.021075,-0.13042,0.17976,0.054433,-0.01811,-0.30639,-0.61113,0.39573
-0.36056,-0.47748,-0.24197,-0.072837,-0.046833,0.040012,0.28014,-0.051706
0.16396,0.52503,-0.038533,0.002996,0.07142,0.40139,0.22234,-0.038783
-0.0052803,-0.31569,-0.045872,-0.061639,-0.085433,-0.28569,0.18238,-0.0080335
-0.17161,-0.043938,0.0016412,0.030302,0.060803,0.4258,0.16454,-0.35133
0.2206,0.31268,0.19775,0.036792,-0.075445,-0.82719,-0.84378,-0.28576
-0.070414,-0.86543,-0.043551,-0.010784,-0.0013798,0.070532,0.59736,-0.066111
0.041211,-0.10211,0.035449,0.051724,0.1275,0.82081,-0.38431,0.52091
-0.062237,0.56485,-0.15135,-0.064723,-0.086501,-0.75774,0.035272,0.21718
0.087125,0.44252,0.075583,0.030459,0.021306,0.50361,0.041112,0.22916
-0.1055,0.018077,-0.049476,-0.061275,-0.033091,-0.16622,0.2888,-0.15556
-0.094312,-0.010313,-0.01873,0.011479,-0.023082,-0.20496,-0.47051,-0.0053015
0.26817,0.055426,0.074149,0.029759,0.0823,0.34561,0.49256,-0.0084756
-0.15941,-0.68814,0.0027443,0.032385,0.01686,0.2309,-0.18507,-0.44036
0.0756,-0.34744,0.0094209,0.026912,0.014225,-0.11708,0.25947,0.12805
-0.073874,0.36955,0.024052,-0.057205,-0.09046,-0.47703,-0.27767,0.089506
-0.076562,0.35595,-0.054749,-0.0091864,-0.016638,-0.05618,-0.14262,-0.28452
0.052054,-0.15261,-0.094018,-0.024394,0.00084033,0.11977,-0.10416,0.0077284
0.062131,0.14015,0.039169,-0.0011914,0.00082669,-0.058849,-0.24515,0.36151
-0.05408,-0.081169,0.07142,0.044974,0.069312,0.096831,0.27893,-0.18582
0.14085,0.25658,0.02613,-0.010662,-0.027816,0.081437,0.71595,-0.1361
0.03738,0.045466,0.043791,0.027447,0.061407,0.64001,-0.36096,0.554
-0.067793,-0.34613,-0.00078711,-0.0045778,-0.045364,-0.4591,0.19709,-0.3248
-0.057523,0.18568,-0.13905,-0.0050684,-0.050772,-0.55731,-0.11054,0.077647
-0.43164,-0.34667,-0.12117,-0.091198,-0.048115,0.29253,-0.65903,-0.031761
0.35712,0.11137,0.13089,0.057283,0.087985,0.20901,0.85047,0.075661
0.18427,-0.13253,0.10143,0.049627,0.045304,-0.01776,-0.97513,0.034599
-0.019991,-0.025986,0.04037,0.010688,-0.035381,-0.074591,0.40481,0.03567
-0.0052504,0.11757,-0.060203,-0.02841,-0.00561,0.17948,0.33952,-0.29832
-0.0055728,0.28156,-0.012904,-0.020855,-0.029522,-0.60721,-0.27185,-0.091355
-0.18474,-0.028524,-0.083428,-0.013488,0.017736,0.42402,-0.27072,-0.01891
-0.018954,0.19047,-0.0061244,-0.0296,-0.035889,-0.095401,0.25152,-0.20718
0.28914,-0.31106,0.086353,0.071661,0.06723,0.012077,0.42061,0.45303
-0.35366,-0.2306,-0.032274,-0.021954,-0.040276,0.19679,-0.19525,0.093689
-0.056222,0.16206,0.013365,-0.028995,-0.014837,0.27598,0.093483,-0.077366
0.25198,0.33829,0.04398,0.042806,0.034001,-0.30001,-0.48838,0.011572
0.10976,-0.15241,0.036493,0.0058653,0.020134,0.20926,0.48362,0.084772
0.0085379,-0.15027,-0.20413,-0.030691,-0.048768,-0.70414,-0.89687,-0.15237
0.017413,-0.19696,0.095671,0.034323,0.045947,0.094421,0.75899,0.15969
-0.2244,0.29286,0.053049,-0.018275,-0.023872,0.10077,0.33181,0.075297
0.047426,-0.32789,0.019297,0.029872,-0.015983,0.21813,-0.03917,-0.099989
-0.050775,0.35779,-0.09984,-0.071509,-0.00055306,0.15465,-0.16577,-0.20635
-0.18334,-0.34164,-0.039454,-0.017821,-0.032068,-0.1011,-0.75517,-0.16628
0.37662,0.35898,0.17615,0.066043,0.06938,-0.12477,0.62191,0.031149
-0.08888,0.2052,0.10858,0.039733,0.030535,0.18547,-0.43762,-0.1313
-0.047566,-0.39433,-0.28199,-0.10417,-0.10944,-0.29741,0.087912,0.40892
0.15003,0.13197,0.027408,0.048797,0.063484,0.4538,0.66713,-0.043481
-0.11242,0.12032,0.052365,-0.0009813,0.002297,-0.2303,-0.49677,-0.052699
-0.1702,-0.6798,0.0042735,0.035817,-0.004193,-0.27743,-0.24863,0.11097
0.14105,0.70721,0.055922,-0.020373,-0.034427,0.049268,0.51762,0.11901
0.024482,0.10041,-0.080498,-0.028939,0.028465,0.29263,0.53828,0.1084
0.0032178,-0.42348,-0.028571,0.017805,0.051419,0.42718,-0.68726,-0.075346
-0.079557,-0.0066635,0.041188,-0.0053273,-0.067243,-0.64827,-0.48955,-0.51736
0.064459,-0.46347,0.06738,0.042099,0.055366,0.0065415,0.64369,0.26023
0.036001,0.71169,-0.019627,-0.035375,-0.072656,-0.40048,-0.15021,-0.10673
0.084327,0.21925,0.022517,-0.003446,0.017916,0.27731,0.12624,0.18421
-0.18167,-0.19372,-0.13468,-0.057415,-0.04733,0.22572,-0.45792,-0.18682
-0.0042705,0.055916,0.04703,0.037162,0.044689,0.2311,-0.035524,0.1189
-0.00028334,-0.1198,0.089901,0.053803,0.028801,-0.031565,0.47246,-0.1834
0.14361,-0.17456,0.008211,-0.015259,0.014587,-0.038197,0.37984,0.028316
-0.15741,0.15866,-0.074398,0.0096339,0.064458,0.014086,-0.74199,0.32879
0.058833,-0.40587,-0.041936,-0.051318,-0.12665,-0.58941,0.083856,0.010427
-0.042499,-0.10544,0.081259,0.020454,-0.01244,0.099531,-0.2137,0.19235
0.12527,0.58885,-0.049078,0.01381,0.093928,0.84917,0.50405,-0.16384
-0.039209,-0.27117,-0.042436,-0.0011216,-0.058153,-0.64195,0.39826,-0.30833
-0.059732,0.48179,0.11707,0.014612,0.038682,0.16975,-0.58122,0.016092
0.10967,0.0047744,0.015938,-0.032747,-0.022032,0.14211,0.13295,-0.30058
