0.046381,0.082293,0.084753,0.015743,0.017387,0.033243,0.0074698,-0.010775
-0.016997,-0.070305,0.055457,0.021175,0.00081502,-0.021665,-0.032487,-0.14454
0.021492,0.035014,0.079696,0.012637,0.023903,0.032583,-0.010087,-0.19789
0.029072,0.022989,-0.31163,-0.072359,-0.014808,-0.022718,0.004461,0.47104
-0.041205,-0.0051615,0.17054,0.031616,0.0018357,0.023416,0.019103,-0.1135
-0.0098038,0.036129,-0.24683,0.011707,0.0033529,-0.0086509,0.010541,0.001813
-0.0097143,-0.072199,0.10886,-0.023158,-0.010522,-0.025103,-0.021106,-0.058513
0.0057896,0.013465,0.15253,0.028112,0.022409,0.0054019,0.017983,-0.014299
0.0053815,-0.0036417,-0.052564,-0.03804,-0.023123,-0.010772,-0.0128,-0.0076228
0.020331,0.0018739,0.048677,0.0046065,-0.0066651,0.02025,-0.011929,0.053704
0.0038846,-0.016226,-0.090654,0.04646,0.017063,0.012639,0.028324,0.01984
-0.012499,-0.002482,0.18527,0.0093262,-0.014325,-0.010103,-0.0093382,-0.13369
0.0027013,0.0048014,-0.069507,-0.028585,0.00097263,-0.0010977,-3.233e-05,0.045706
-0.043975,0.021821,-0.058666,-0.035802,-0.0070473,-0.0072912,-0.0063692,-0.04361
0.035222,0.048821,0.1394,0.01143,0.016605,0.010238,-0.012819,0.12995
-0.032996,-0.078426,-0.5689,-0.034988,-0.021599,-0.01902,-0.019465,-0.10492
0.040416,0.053566,0.27791,0.059593,0.042476,0.037517,0.028305,0.049287
0.013052,-0.056104,0.06332,-0.0094004,-0.025651,-0.054766,0.052286,0.18689
-0.029568,-0.010067,0.092473,0.00011498,0.00030032,0.032039,-0.041356,-0.22294
0.083867,0.22971,0.29503,0.087805,0.057419,0.047764,0.0051206,-0.0080607
-0.092573,-0.21255,-0.28278,-0.11403,-0.081325,-0.077999,-0.027072,-0.043335
0.026501,0.06124,0.021937,0.019041,0.021131,0.037562,0.010526,0.085351
-0.028026,-0.13626,-0.08909,-0.0056908,-0.018347,-0.035143,-0.0069894,0.096745
-0.0062568,-0.046591,0.015696,0.014596,0.018839,0.0322,0.014299,-0.11074
0.0295,0.11244,-0.055119,0.033025,0.015546,-0.0023408,0.0042927,0.033198
0.0015682,0.076226,0.042056,-0.020361,-0.020173,-0.0056571,-0.013341,-0.057372
-0.0034883,0.033071,-0.10639,-0.027681,0.029272,0.022547,0.0084797,0.070748
-0.0084184,-0.071308,0.078539,-0.027057,-0.015289,-0.026836,-0.00040777,-0.051057
-0.012593,-0.010413,0.097872,0.0059816,-0.012659,0.002657,-0.0086784,0.038342
-0.0077376,0.059037,-0.031841,-0.02138,-0.009153,0.001789,0.0070998,-0.067084
0.029807,-0.043325,-0.036466,0.024314,-0.019915,-0.021574,0.039041,0.0078795
0.060938,0.03341,0.38917,0.11984,0.049139,0.026281,-0.045786,0.11498
-0.0083567,-0.047093,-0.043558,0.022724,0.018467,0.020235,0.018116,-0.0034845
-0.022235,0.03548,-0.59188,-0.080215,-0.0026243,0.014793,-0.027183,-0.058367
-0.090521,-0.16377,0.065373,-0.049319,-0.022213,-0.037141,-0.017713,-0.034022
-0.018303,0.019932,-0.10988,-0.041873,-0.032914,-0.03423,0.030827,-0.039843
0.030048,0.056064,0.070677,0.011505,-0.0040125,0.015505,0.016796,0.0022124
0.069945,0.062313,0.42754,0.031984,0.024843,0.0025047,-0.013029,0.021641
0.015304,0.077763,0.0067257,0.0034945,-0.0016212,0.0047266,0.0037179,0.11966
-0.0011645,0.039384,0.071907,0.035209,0.048874,0.053263,0.020007,-0.063599
-0.057639,-0.11629,-0.20783,-0.021312,-0.042848,-0.047344,-0.042432,-0.05219
0.064663,0.094007,0.04736,0.045033,0.019828,0.030913,0.04288,0.19236
-0.0090875,-0.041551,-0.10231,0.008002,-0.013136,-0.0088845,-0.0052889,-0.064728
-0.09885,-0.21858,-0.11863,-0.077227,-0.024328,-0.033859,-0.038347,-0.20635
0.045913,0.14932,-0.00057963,-0.0068533,0.010173,0.010884,0.0064932,0.0021958
-0.011638,-0.12412,0.15322,0.071531,0.028573,0.0085005,-0.018824,0.014742
0.010419,0.11909,0.097097,-0.067685,-0.046421,-0.04057,0.0032921,0.097823
0.034494,0.037035,-0.52346,-0.032942,0.0047726,0.036003,0.049736,0.049202
-0.0016578,-0.0016487,0.13171,0.012453,0.010962,0.004218,-0.0043141,0.01013
-0.043473,-0.12132,0.26824,0.03765,0.0037951,-0.018538,-0.0026375,-0.034811
0.049144,0.13076,0.11269,0.050376,0.022348,0.038007,-0.0079754,-0.0077517
-0.013744,0.01093,0.23254,-0.012487,-0.027526,-0.029563,-0.012924,-0.026515
0.040224,0.12631,-0.22117,-0.019211,0.0331,0.036065,0.013274,0.033048
-0.016596,-0.072595,0.40123,0.13041,0.062613,0.031163,0.023266,-0.017431
0.010236,0.029019,-0.73494,-0.14314,-0.057206,-0.044847,-0.038003,-0.038028
-0.075068,-0.29703,-0.001935,-0.044081,-0.045976,-0.043951,-0.014475,0.002091
-0.0068631,0.089382,-0.019433,-0.034004,-0.044859,-0.021014,0.00010939,0.016904
-0.034643,-0.068814,-0.083731,0.0042363,0.0085397,0.0084393,-0.0096881,-0.032441
0.014343,-0.012088,0.36329,0.11802,0.059859,0.029119,0.026756,0.041977
0.10207,0.16026,0.10056,-0.01203,0.016015,0.033691,0.039492,0.06099
0.018587,0.14583,0.0173,0.0058317,0.010681,0.022666,-0.0023854,-0.0061235
-0.024429,0.079256,-0.31005,-0.061653,-0.033374,-0.019131,-0.012646,-0.04951
-0.034392,-0.21019,0.0060815,0.012983,-0.013812,-0.028874,-0.022318,-0.029707
0.020002,0.043536,0.030874,0.050612,0.038663,0.024874,-0.015622,0.014544
-0.048973,-0.23779,0.2958,-0.07362,-0.039753,-0.060958,-0.015901,-0.010269
0.039544,0.17198,-0.12316,0.022828,0.00089079,0.01044,0.02375,0.0053652
-0.011759,0.08489,0.16848,0.042458,0.02745,0.027962,0.0095248,0.022395
-0.023581,-0.077549,-0.18579,4.2597e-05,0.015943,0.014783,0.011584,0.0016186
0.019418,-0.049941,-0.042491,0.027476,0.0047662,0.01744,0.021858,0.020862
0.023318,0.011323,-0.24935,-0.040119,-0.030193,-0.026949,-0.030304,-0.014054
-0.019778,0.082629,0.12873,-0.078302,-0.027021,0.0062337,-0.0046515,-0.0098931
-0.031786,-0.10202,0.23189,-0.0091597,-0.025194,-0.039585,0.0047206,-0.014046
0.03411,0.089486,-0.2355,0.10496,0.061013,0.038517,-0.010253,-0.0035247
0.013728,-0.031441,-0.013125,-0.048011,-0.0027808,0.013936,0.020629,0.013545
-0.0071943,-0.028763,0.15994,0.0013201,0.0023406,-0.027251,-0.019769,0.0057705
0.017943,0.20521,-0.010179,0.042693,-0.0014537,0.0090161,-0.0062431,-0.011187
-0.051785,-0.22184,-0.075815,-0.02483,-0.0059708,-0.040885,-0.008793,-0.0058759
0.056796,0.134,0.26908,0.041435,0.020471,0.042293,0.012004,0.029844
-0.031461,-0.19685,-0.061104,-0.01598,-0.023237,-0.0066021,0.033047,-0.020805
0.0116,0.1683,-0.12935,-0.056253,-0.027272,0.00028916,0.0077226,0.014486
-0.009095,-0.12923,-0.053806,-0.0089996,0.0087674,0.00064266,-0.032574,-0.012307
-0.038421,-0.0021122,-0.10119,-0.0070806,0.0070743,-0.013397,-0.033125,-0.030532
0.0023245,0.028051,0.040009,0.066521,0.038149,0.036044,0.052881,0.02254
0.051265,0.11952,-0.084185,-0.015071,-0.0073593,0.015741,-0.0012421,0.022001
-0.00042036,-0.022744,0.17383,-0.010137,-0.012411,-0.012288,0.0074909,0.014672
-0.027352,-0.12384,-0.030688,-0.036468,-0.032001,-0.04068,-0.03823,-0.023071
0.040915,0.19215,0.10568,0.084937,0.011568,-0.015082,-0.029114,-0.013389
-0.053568,-0.12907,-0.0044582,-0.045028,0.024054,0.017471,0.058226,0.0043231
0.001326,-0.071939,0.40315,0.080921,0.028406,-0.0055088,-0.049684,-0.0015182
0.1035,0.25385,-0.30512,-0.060911,-0.030486,0.025493,0.029918,5.1091e-05
-0.091368,-0.30057,-0.52753,-0.048543,0.0033347,-0.022143,0.04694,0.0088206
0.0021567,0.14727,0.04208,-0.061172,-0.073395,-0.0076261,0.0012505,-0.0065781
0.016583,0.02688,0.070436,-0.0042447,0.044042,0.069127,-0.036987,0.016331
-0.024693,-0.17737,0.40477,0.13882,0.035496,-0.034083,-0.021028,-0.016135
-0.004239,0.15966,-0.068486,-0.029512,-0.020659,0.018603,-0.029062,-0.010086
-0.0075117,-0.12588,0.044305,-0.00078205,0.047722,0.00054962,0.032673,0.034679
0.036429,0.23176,-0.16126,0.014325,-0.063802,-0.088242,0.00020794,-0.053478
0.026667,0.021652,0.072984,-0.015627,0.027768,0.07268,0.04556,0.053817
-0.028445,-0.17824,-0.12136,-0.028705,-0.013391,-0.039837,-0.018616,0.0052369
-0.0035862,-0.024514,0.1438,0.052403,-0.030984,-0.050402,-0.051551,-0.0584
-0.023728,-0.017695,-0.22875,-0.10131,0.045289,0.11952,0.064053,0.042721
-0.057914,-0.17414,0.61648,0.15785,0.043502,-0.037556,-0.015471,-0.042922
0.11982,0.30207,-0.89462,-0.20188,-0.083285,0.0019606,-0.0088091,0.020541
-0.022591,0.026907,0.34417,0.077198,0.0086366,-0.027624,-0.040905,0.0063704
0.052987,-0.032233,0.28385,0.15163,0.061459,0.037466,0.036733,0.039298
-0.013662,0.12334,-0.25603,-0.13421,-0.049739,0.0171,0.0053978,0.0018199
-0.082494,-0.11667,0.29562,-0.013772,0.026767,-0.0032829,0.0057408,-0.012609
-0.036494,-0.15875,0.19892,0.029576,-0.013483,-0.06319,-0.032561,-0.058873
0.038712,0.091581,-0.95646,-0.1751,-0.05304,0.0089566,0.038873,0.027051
-0.012368,-0.082667,0.20132,0.17755,0.017709,-0.0135,-0.014431,-0.004694
0.03789,-0.069583,0.435,0.095576,0.058285,0.02579,0.010513,0.0024403
0.042198,0.19622,-0.2198,0.00057693,0.0061797,0.033317,-0.042693,-0.013664
-0.06094,-0.048268,0.11485,-0.10039,-0.037233,-0.037498,0.021124,0.017671
-0.044319,-0.11379,0.041364,-0.044357,-0.0020108,-0.0067046,0.037805,0.018569
0.045325,0.070352,0.25363,0.050249,0.025409,0.04773,-0.016124,-0.0031016
0.082587,0.25303,-0.27528,-0.052103,-0.010214,0.00083289,-0.0078079,0.022815
-0.011546,0.02543,0.1919,0.061757,-0.0078257,-0.022495,-0.023063,-0.013402
-0.011713,-0.084672,-0.38921,-0.069626,-0.038113,-0.038052,-0.0070231,-0.026273
-0.059817,-0.26852,0.1719,0.0771,0.055006,0.039913,0.017076,-0.00064036
-0.0085208,0.01752,-0.057855,0.025692,0.013792,0.015957,0.010335,-0.015014
-0.01479,-0.04119,0.013752,-0.043493,-0.028625,-0.03182,-0.011547,0.016321
-0.00070578,0.15626,-0.14411,-0.067041,-0.04048,-0.017381,0.01387,0.015217
0.049672,0.0013621,0.08783,0.034216,0.017931,0.036051,0.055129,0.036536
0.0042827,0.058821,0.36118,0.05038,0.0066405,-0.035308,-0.10685,-0.075635
-0.026463,0.01925,-0.12516,-0.0020159,0.012151,0.0031985,0.0041079,-0.01617
0.036693,-0.17631,-0.45377,-0.020739,0.042648,0.050216,0.16105,0.066952
-0.0083203,0.061492,0.5967,0.025819,-0.011122,-0.026992,-0.16758,-0.021176
-0.035685,-0.045765,-0.62065,-0.088892,-0.055558,0.013674,0.041546,0.0087833
-0.029304,0.027157,0.48829,0.041056,0.0027121,-0.038966,-0.0083962,0.00069222
0.057772,0.077666,0.21969,0.079108,0.038142,0.033481,-0.028064,-0.006446
0.022088,0.15965,-0.49045,-0.077126,-0.020196,0.0040542,0.068923,0.010609
-0.019831,-0.20545,0.020051,0.040168,0.030231,0.0052102,0.017491,0.020327
0.032695,0.065528,0.15556,-0.0074301,-0.014179,-0.017973,-0.041161,-0.047896
-0.055653,-0.077427,-0.046396,-0.041013,-0.03653,-0.018675,-0.0049521,-0.0068129
0.0033492,0.011195,-0.16495,0.0717,0.033425,-0.012378,-0.04537,-0.012849
0.0059875,0.040045,0.1588,-0.091389,-0.030714,0.016866,0.025276,0.027647
-0.016743,-0.1016,-0.067335,0.0167,0.0057785,0.02262,0.066316,0.028699
-0.017866,-0.0078058,0.15689,0.013543,0.018374,-0.018084,-0.063173,-0.017519
0.034275,0.09553,0.066272,0.048167,0.015392,0.0045407,0.019106,-0.0016374
0.007478,-0.048003,-0.10436,-0.019367,-0.0027117,0.051718,0.031242,0.013839
0.035251,0.1494,-0.1045,0.030364,-0.0043478,-0.024875,0.066299,0.013296
-0.022381,-0.021162,0.097698,-0.09114,-0.020588,-0.045623,-0.12631,-0.026651
-0.032097,-0.07337,-0.15334,0.014937,-0.012373,-0.018588,-0.0078692,-0.027765
-0.017042,-0.099319,-0.020954,0.012808,0.012308,0.016761,0.0074666,-0.0055042
-0.0084282,-0.011865,0.12835,0.035196,0.0062522,0.0052076,-0.041035,-0.014359
0.063838,0.056811,0.11539,0.050545,0.039346,0.071147,0.065777,0.063034
0.0040029,0.044183,-0.25491,-0.12128,-0.045116,-0.051657,0.047143,0.0080283
-0.02446,0.0042461,0.38458,0.11298,0.057157,0.042522,0.005081,0.0081219
0.048141,0.15448,0.010226,-0.012671,-0.044711,-0.006012,-0.021,-0.022731
-0.052154,-0.13178,-0.49539,-0.068706,-0.0069996,-0.041032,-0.023083,-0.022211
-0.005341,-0.059383,0.32077,0.0075083,-0.024804,-0.046583,-0.024525,-0.006143
0.016692,0.13576,-0.15835,0.02108,0.019497,0.017061,0.021549,0.025305
-0.087337,-0.28178,-0.19033,-0.097684,-0.021967,-0.0054546,-0.025532,-0.021716
0.019012,3.2007e-05,0.22496,0.065924,0.0076147,0.0040146,-0.0017694,-0.014411
0.055079,0.16098,0.024756,0.028005,0.04616,0.085355,0.045882,0.039453
0.021386,0.12349,0.17696,-0.039441,-0.046799,-0.049977,-0.015497,-0.0084764
0.035445,-0.072589,0.22698,0.16014,0.080142,0.027827,0.056144,0.021581
-0.012051,0.034549,-0.29581,-0.10057,-0.034403,-0.0018321,-0.098736,-0.042173
-0.027524,-0.085477,-0.39329,0.021174,0.015188,0.0010717,0.027502,0.019069
-0.0034846,0.075974,0.32371,-0.01474,-0.021739,-0.003281,0.036257,0.017847
-0.049658,-0.15218,-0.12197,-0.02161,-0.028502,-0.062503,-0.041343,-0.030183
-0.0022547,-0.034824,0.1294,-0.046638,-0.013139,-0.013096,0.013384,1.8656e-05
0.037039,0.15526,0.040058,-0.034893,-0.014601,0.043075,0.012935,0.0069429
-0.0098713,-0.018941,-0.1614,0.014406,0.022224,0.012247,-0.019187,0.0062796
0.029043,0.036516,0.10553,0.071143,0.012019,-0.011603,0.018709,-0.0097137
0.013365,-0.045679,0.038566,0.019358,0.033574,0.042223,0.017429,0.021527
-0.033267,0.023067,-0.00084634,-0.038353,-0.029755,-0.021145,-0.030619,-0.0093268
-0.032591,-0.14082,-0.13621,-0.015434,0.0020194,-0.052862,-0.015821,-0.024129
0.038875,0.14138,0.047343,0.064762,0.019515,0.033311,-0.0082611,0.016175
0.056077,0.095205,0.06554,0.045547,0.0068059,0.018777,0.039119,0.017797
-0.051438,-0.069361,0.14447,-0.073906,-0.020997,0.0050864,0.009234,-0.0037018
-0.026059,-0.11873,0.12699,0.033522,0.021436,-0.015735,-0.019793,-0.017157
-0.00083225,-0.029981,-0.25358,-0.055003,-0.022707,0.0029138,-0.0012036,0.00076271
-0.030688,-0.029971,-0.47496,-0.11364,-0.028829,-0.0018002,0.010102,-0.012564
0.063823,0.1156,0.016291,0.029083,0.0028944,-0.006774,0.013839,0.013034
0.0090378,0.094275,0.33591,0.091842,-0.0056045,-0.012299,-0.021554,0.014894
0.0078935,-0.023494,0.36487,0.051361,0.008417,-0.018595,-0.049512,-0.014974
-0.010042,0.098492,-0.12569,0.095443,0.053113,0.044515,0.039067,0.0091849
0.0021038,-0.039283,0.19769,-0.15055,-0.019604,0.012914,0.017393,0.0090916
-0.080507,-0.36568,0.075032,-0.014335,0.0014937,-0.019624,-0.0053298,-0.015344
0.062785,0.1752,-0.58861,0.0045064,0.030666,0.040754,0.041107,0.037454
-0.012818,0.045823,-0.33193,-0.038881,-0.072602,-0.055772,-0.023007,-0.043301
-0.0098202,-0.049068,0.13621,0.027831,0.012045,-0.027696,-0.056968,-0.022948
0.056793,0.14195,0.28028,0.040966,0.018996,0.039349,0.040977,0.020783
-0.062434,-0.075528,0.081099,-0.0461,-0.03613,-0.026193,-0.041367,-0.021041
-0.0077716,0.056493,0.38649,0.10262,0.041962,0.0025139,0.0010793,0.00041259
0.041182,0.013948,-0.25357,-0.044305,-0.0045832,0.063148,0.11406,0.077603
0.037344,-0.017015,-0.25941,-0.026295,0.011658,-0.00048822,-0.061368,-0.0081365
-0.043204,-0.13201,0.056373,-0.0078918,-0.026612,-0.063463,-0.032651,-0.038174
0.0019721,0.12002,0.15318,-0.020837,0.021099,0.05376,-0.018256,-0.0049822
-0.038861,-0.13011,-0.073103,0.02821,-0.0093913,-0.055243,0.013223,-0.018314
0.028833,0.10818,-0.14888,-0.032876,-0.0087862,0.031277,0.038366,0.038635
0.032534,0.083792,0.31366,0.084908,0.038541,0.016406,0.01016,0.0014911
0.018705,-0.03961,-0.015779,0.037954,-0.00012268,-0.013847,-0.016985,-0.020548
-0.083096,-0.14458,-0.29464,-0.15781,-0.069902,-0.051517,-0.027844,-0.02751
0.0007405,0.019723,0.00033913,-0.025405,-0.02212,-0.010493,0.0083612,0.004146
0.012831,-0.037613,-0.07544,0.091812,0.057512,0.046841,0.0051975,0.019917
0.039719,0.20049,0.19013,0.0066383,0.0050542,0.034521,0.032512,0.027813
-0.01168,-0.069251,0.11069,0.047284,0.023585,0.014837,-0.058522,-0.011083
-0.015752,-0.033203,-0.17248,-0.036429,-0.012153,-0.051664,-0.010359,-0.026406
0.027965,0.059394,-0.065739,-0.049613,0.0067706,0.076701,0.090944,0.052103
-0.0052745,0.0057645,0.48477,0.069641,0.0094831,-0.061508,0.0032521,-0.01006
-0.0060612,-0.084722,0.18097,0.016033,-0.035822,-0.029178,-0.054455,-0.056808
-0.013619,-0.071702,-0.68128,-0.039051,0.0032369,-0.029608,-0.04272,0.013274
0.010819,0.11473,0.10874,-0.041154,-0.014165,0.023216,0.015531,0.012601
-0.042485,-0.13528,-0.38553,-0.083919,-0.017632,0.012405,-0.019772,-0.0041456
0.068308,0.23253,0.38494,0.14559,0.040071,0.032155,0.039367,0.017794
0.014802,0.030284,0.032514,0.02307,0.018899,0.05171,0.037039,0.0082439
-0.05471,-0.14064,-0.11939,-0.091294,-0.025767,-0.061288,0.028053,-0.016997
-0.015219,-0.10054,0.31447,-0.0014086,-0.022916,-0.025234,-0.034569,0.0047598
0.00061303,0.010219,-0.12578,0.03552,0.020224,0.011662,0.036387,-0.012247
0.016476,0.028027,0.090469,0.051073,0.018106,-0.020818,-0.15008,-0.021002
0.017033,0.18782,-0.14846,-0.032862,-0.0056919,0.049172,0.054064,0.025451
0.0025347,-0.11926,0.021091,-0.021252,0.0034034,-0.0050609,0.023498,0.025553
-0.019061,-0.025672,-0.12369,0.030706,0.0059992,-0.035285,-0.015462,-0.044208
0.038186,0.046781,0.29623,-0.033866,-0.0061953,0.052006,0.1011,0.058208
-0.021175,-0.042797,-0.14375,0.018757,-0.010281,-0.01687,-0.017494,-0.011131
-0.017719,-0.11534,0.016229,-0.10107,-0.053649,-0.054621,-0.066504,-0.041467
-0.014279,0.11725,-0.1059,0.043666,0.027335,0.03236,-0.022333,-0.0016848
0.035672,0.11471,-0.15609,0.13231,0.060496,0.0096286,0.0059131,-0.0090377
-0.032243,-0.10863,-0.13848,-0.10099,-0.016818,0.0099956,0.010785,0.01461
0.047363,0.18038,0.23227,0.078059,0.014142,0.0022613,0.055193,0.045891
0.00092421,-0.19106,0.20973,-0.025795,-0.033979,-0.036932,-0.05578,-0.024472
-0.046566,-0.090552,0.23378,-0.099808,-0.028091,0.025319,0.029744,-0.01669
-0.016868,-0.025719,-0.15575,0.012698,0.00093075,-0.014029,-0.0083605,-0.00099039
0.0042975,0.05889,-0.14712,0.023245,0.014443,0.024779,-0.0060054,-0.00075981
0.056275,0.15668,-0.039024,0.06533,0.044095,0.0089757,0.01323,0.030898
-0.0012501,-0.019953,0.26003,0.014648,-0.019175,-0.037968,-0.013449,-0.0154
-0.0039105,0.014859,-0.67389,-0.081318,-0.01113,0.0089724,-0.016142,-0.022495
-0.013929,-0.081289,0.22025,0.012247,0.013559,0.024824,0.028098,0.017384
-0.0076297,-0.0026283,0.082263,-0.0013234,-0.015558,-0.013824,-0.021872,-0.0051879
-0.039508,-0.10781,0.13062,0.01072,-0.0049934,-0.036638,0.052208,0.011297
0.031187,0.064428,0.23239,0.03241,0.0058493,0.01888,-0.06257,-0.019163
0.016988,0.068605,-0.097015,-0.0071588,-0.0068416,0.0042424,0.016326,0.0049225
-0.027507,-0.041233,-0.18619,-0.038464,0.019075,0.028716,-0.0002766,0.013156
0.038092,0.12444,-0.02798,-0.0077105,-0.018265,-0.0016143,0.083013,0.013262
0.018102,-0.0060991,0.26758,0.068591,0.029367,0.0068019,-0.11635,-0.018276
-0.033265,-0.10629,-0.3859,-0.052507,-0.017806,-0.024347,-0.0042013,-0.011204
-0.014961,-0.10726,0.31621,0.058156,-0.003492,-0.001436,0.037176,0.011027
-0.0055853,0.028941,-0.56321,-0.037131,0.01779,-0.0026093,0.00051075,-0.0062349
0.017943,0.13764,0.63281,-0.088223,-0.086504,-0.051207,0.019103,-0.00040036
0.016387,0.0078819,-0.3136,0.022552,0.051138,0.048283,0.0073787,0.0052255
-0.002397,0.077755,0.34843,0.10845,0.032606,0.0070493,-0.0032026,-0.0048214
-0.022515,-0.19069,-0.14601,0.0063457,0.037863,0.028472,-0.020392,0.00088041
-0.020062,-0.10843,-0.17145,-0.095316,-0.034455,-0.012239,0.03389,0.022499
0.013388,0.11526,0.045874,0.030904,-0.012359,0.0022438,-0.020146,0.0055024
0.039444,0.083543,-0.11881,-0.020569,-0.020803,-0.013943,-0.034178,-0.026533
0.01187,0.063246,0.42844,0.039727,-0.012918,-0.0060893,-0.0083091,-0.0031798
-0.076639,-0.1716,-0.40598,0.00092773,-0.0043723,-0.052338,-0.044211,-0.041543
0.024217,0.08977,0.18274,-0.02785,0.020367,0.026946,0.10797,0.03809
-0.0058405,-0.051982,-0.24293,-0.0081015,0.037713,0.036351,0.018305,0.024729
0.012628,0.04225,0.13706,0.020333,-0.015043,-0.00084382,-0.024457,-0.0036567
0.055683,0.1128,0.15811,0.033138,0.018096,0.024526,-0.012899,0.0073723
0.02108,-0.029708,0.10845,0.052907,0.019692,0.01847,-0.0021073,0.010621
-0.06848,-0.1602,-0.2473,-0.085083,-0.057323,-0.050483,-0.0080244,-0.033313
-0.033971,-0.013918,-0.24606,-0.068701,-0.05679,-0.049669,-0.054255,-0.038796
0.030401,0.096611,0.40836,0.016098,0.036947,0.020872,0.054536,0.040827
-0.0083594,-0.015331,0.2627,0.044621,0.013084,0.004963,-0.017384,-0.0054898
-0.017334,-0.074882,-0.43241,0.001792,0.028049,0.027753,0.0037628,0.0019431
0.019436,0.044719,-0.081798,-0.01799,0.0038839,-0.012144,0.016816,0.024163
0.0086635,0.017078,-0.40214,0.079644,0.018826,0.041673,0.02217,-0.0011551
-0.01011,-0.047062,0.5308,0.013932,0.01042,0.0018006,0.020159,-0.019101
0.065076,0.25932,0.35204,-0.058567,-0.076017,-0.045778,-0.082723,-0.013797
-0.023336,-0.15742,-0.33533,-0.059595,0.0095111,0.016144,0.033983,0.015018
-0.025233,0.0069323,0.023879,0.018648,0.0092137,-0.023343,-0.0046687,-0.0027218
-0.018746,-0.084415,-0.024071,0.0041668,0.0012712,-0.00012365,-0.0034,0.0034984
-0.035195,-0.11209,-0.14489,0.01395,-0.022059,-0.031308,-0.017023,-0.020874
0.050336,0.1653,0.018449,0.0243,0.040837,0.06287,0.032371,0.025766
0.034654,0.067572,0.29139,0.058361,0.04152,0.016823,0.0038539,0.01055
-0.019774,0.00084534,-0.0083094,-0.071656,-0.059141,-0.036664,-0.0091895,-0.01198
-0.034824,-0.16749,-0.15609,0.0012014,0.019979,0.011681,0.039737,0.0048381
-0.0026626,-0.038589,-0.21565,0.011176,0.020923,0.028883,-0.021567,-0.0017303
0.029852,0.12235,0.10966,-0.049549,-0.064247,-0.055561,-0.029245,-0.024091
-0.015414,-0.020359,-0.054504,-0.016808,-0.0012313,0.0003642,-0.014574,9.1726e-05
0.0099208,0.056632,0.12125,0.03925,0.030277,0.0012201,-0.00082472,0.023854
-0.0036332,0.016878,0.17754,0.0015779,-0.00092647,0.017256,0.020149,0.00031097
0.0062597,-0.023308,-0.10287,0.096784,0.030233,0.017217,0.0019028,-0.023605
0.015976,-0.025919,0.13276,-0.050214,-0.016798,-0.02229,-0.00044036,0.0069028
0.0097251,0.10964,-0.4663,-0.041183,0.0064613,0.031622,0.029094,0.045097
-0.020407,-0.085987,0.54569,0.022046,-0.024981,-0.024084,-0.018674,-0.026061
-0.058804,-0.12843,-0.33113,-0.071723,-0.033028,-0.033062,-0.010922,-0.018922
0.011809,0.014205,-0.23752,0.028892,0.036949,0.028217,0.0053095,-0.011479
0.019708,0.030634,0.21679,0.034773,0.028623,0.0035789,0.0062881,0.0041824
0.019742,0.016121,0.29685,0.031938,-0.0033961,0.0024528,-0.0083439,0.012491
0.051083,0.050251,0.048713,0.020603,0.011149,0.017053,0.00013287,0.021248
-0.058121,-0.076853,-0.42704,-0.10047,-0.037119,-0.015117,0.00021008,-0.0008793
0.028,0.2446,-0.045475,-0.0027631,-0.038756,-0.00031674,0.015205,0.00064843
-0.034434,-0.10289,0.35665,0.048526,0.037637,-0.024496,-0.017341,-0.029048
0.004444,-0.065545,-0.04145,0.030344,0.028201,0.021713,0.02777,0.0035765
0.0039185,-0.011799,-0.15374,-0.057032,-0.035593,-0.017941,-0.075719,-0.011045
-0.012577,-0.052306,0.12986,-0.010358,-0.0051252,0.0049694,0.03191,0.012867
0.025363,0.069743,-0.18929,0.053105,0.041581,0.027921,-0.024049,0.0048922
-0.030523,-0.154,-0.038986,-0.046592,-0.036106,-0.027255,0.053439,0.011852
0.023111,0.20613,0.28603,0.10422,0.035135,0.026889,0.037799,0.018135
0.014613,-0.083802,0.10034,0.028526,0.044177,0.034068,-0.00083933,-0.0074145
0.014467,0.047257,-0.58664,-0.13344,-0.079508,-0.044771,-0.008063,-0.02555
-0.078808,-0.10297,0.23365,-0.092899,-0.023612,-0.037669,-0.023197,-0.012557
0.0081886,0.091281,-0.017282,0.040683,0.0086121,0.0086564,-0.062006,-0.014971
0.04092,-0.010031,0.25272,0.056406,-0.0063295,-0.038411,-0.015062,-0.008997
0.019114,0.054344,0.18944,0.087205,0.056558,0.063495,0.047566,0.060351
