-0.2686,-0.16308,0.33745,0.013473,-0.0086518,-0.021015,0.0039951,-0.078374
-0.039718,-0.18619,-0.25511,-0.019126,-0.001167,0.010434,0.0036538,0.052694
0.086516,0.60069,0.64651,0.095909,0.030006,0.011576,0.02759,0.034855
0.12745,-0.54512,-0.80712,-0.11776,-0.047788,-0.0409,-0.017757,-0.092497
0.029868,0.21946,0.14407,0.051202,0.054644,0.024877,0.00047938,-0.024352
-0.025744,0.23742,-0.27136,-0.076329,-0.053254,-0.010017,-0.027181,0.059865
0.20272,0.12528,0.22122,0.031509,0.034757,0.033746,0.039626,0.24626
-0.082573,-0.5156,0.2466,0.015913,-0.0095522,-0.016241,-0.049488,-0.34794
-0.3441,0.22945,0.19349,0.049173,-0.014499,0.0034492,0.025313,0.058434
0.19762,0.04953,-0.26211,0.068949,0.074345,0.045297,0.060405,-0.081708
-0.0058701,-0.41998,0.05458,-0.15146,-0.094874,-0.0631,-0.054051,0.20004
-0.041553,-0.23072,0.26326,0.02814,0.047873,0.02171,-0.0059117,0.020431
0.098034,0.4952,-0.69525,-0.002332,-0.021089,-0.012757,-0.021935,-0.019492
-0.078893,0.36125,1.0436,0.021849,-0.0050555,-0.048962,0.015063,-0.13895
0.10843,-0.061885,-0.9263,0.076216,0.056816,0.085598,0.034955,0.036714
-0.018136,0.17745,0.14004,-0.12938,-0.062068,-0.084848,0.02246,0.16367
-0.22241,-0.72845,-0.62714,-0.12722,-0.072632,-0.036077,-0.12354,-0.24223
0.13017,0.067963,0.54408,0.18337,0.079843,0.10753,0.042723,0.17897
0.16603,-0.078069,-0.059209,0.17681,0.0829,0.057254,0.037302,-0.17349
-0.3327,0.61911,0.58232,-0.045457,-0.032132,-0.05409,0.032385,0.13102
0.43883,-0.045529,0.070755,0.087439,0.094281,0.11699,0.090662,-0.047225
-0.22304,0.11567,0.051584,-0.24351,-0.1313,-0.17989,-0.16279,0.011153
-0.13978,-0.75415,-0.87153,-0.39562,-0.17713,-0.03887,-0.0013867,-0.03731
0.14803,0.59191,0.77095,0.024279,0.0043487,-0.038307,-0.057958,0.1432
0.17785,-0.78514,-0.46486,0.43284,0.25764,0.14207,0.14406,0.060026
-0.16107,0.0043663,0.62798,0.31659,0.028764,0.010178,0.0030964,-0.068742
-0.24466,0.58356,-0.72425,-0.15137,-0.072384,-0.027522,-0.074596,-0.29064
0.083027,0.07338,-0.52546,-0.072456,-0.0065162,0.036957,0.020314,0.13603
0.0098067,0.34939,0.70842,-0.19758,-0.094044,-0.061925,0.014303,0.14072
0.37248,-0.10681,-0.37233,-0.12999,0.016179,0.027337,0.016613,-0.14374
-0.14803,0.11328,0.80448,0.050083,-0.035918,-0.078276,-0.082306,0.087469
0.020046,-0.44272,-0.90204,0.19973,0.1081,0.10527,0.09234,-0.0092494
-0.11399,-0.36005,0.76948,-0.066071,-0.021628,-0.047476,-0.084666,0.0036206
-0.26759,0.12882,-0.03391,0.15689,0.081497,0.056755,0.097399,0.15715
-0.104,-0.32377,-0.32634,-0.25031,-0.13837,-0.10594,-0.064772,-0.25216
0.37683,0.70995,0.81178,0.23445,0.091275,0.05002,0.03807,-0.037322
-0.083891,-0.52816,-0.55337,-0.069286,0.027702,0.055726,-0.023798,0.12145
0.25399,0.54052,-0.84735,-0.46631,-0.24313,-0.073076,-0.054987,0.020615
0.30951,0.4793,1.0383,0.74713,0.24035,0.11719,0.11658,0.1834
-0.34221,-0.42198,-0.4321,-0.16977,0.057524,0.017935,-0.032222,-0.14784
-0.33633,-0.12331,-0.59375,-0.30095,-0.18838,-0.16665,-0.071309,-0.18348
0.30275,-0.45135,1.0745,0.043504,-0.042356,-0.16195,0.023173,0.10871
-0.35368,-0.020887,-0.4962,-0.29792,-0.041736,0.1112,-0.021854,-0.090332
-0.17784,0.35118,-0.68546,0.55206,0.13504,0.098733,0.059457,0.048821
0.27961,0.15349,0.96286,-0.029914,0.12127,0.089642,0.032741,0.1678
-0.05516,-0.34379,-0.081574,-0.15246,-0.083467,0.012752,-0.10224,-0.23295
0.39153,0.32445,0.31923,0.153,0.14455,0.038377,0.099347,0.21342
0.082219,-0.40897,-0.044563,0.065184,-0.11837,-0.022918,-0.035019,-0.0020403
-0.14003,0.87163,-0.51949,-0.43298,-0.19454,-0.13392,-0.037305,-0.045113
0.018889,-0.11511,-0.05665,0.08665,0.15655,-0.077165,0.052766,0.066576
-0.10154,-0.8007,0.19574,0.23208,0.082336,0.13918,0.031583,-0.067235
-0.34983,-0.55567,0.049874,-0.0054605,-0.13606,-0.093581,-0.12452,-0.10404
0.2306,0.73259,-0.16597,-0.2906,-0.099485,-0.13326,0.029811,-0.059852
-0.16022,0.39456,-0.71606,0.39207,0.021551,0.10031,-0.036357,-0.035692
0.38251,0.057251,1.301,-0.26219,0.11927,0.21854,0.12276,0.25881
-0.25023,0.28561,-0.25855,-0.19099,-0.023652,-0.14427,-0.093862,-0.15114
0.32637,-0.27588,-0.30207,0.44914,0.24988,0.10622,0.18147,0.20504
-0.26727,-0.042735,0.72602,0.27481,-0.20067,0.024276,-0.12894,-0.10082
-0.14431,-0.94293,-0.57741,-0.72265,-0.071338,-0.14139,-0.06383,-0.14585
0.090071,-0.080859,-0.64461,0.0026027,-0.019672,0.0058305,0.025464,-8.8483e-05
0.041237,0.44934,0.82833,0.058913,0.054283,0.081206,0.053177,0.12515
0.024508,0.093616,-0.94743,0.46891,0.15681,0.028496,-0.035278,0.096136
0.010078,0.62526,0.27806,0.16196,-0.13509,-0.1141,-0.013322,-0.072771
-0.0021697,0.42465,0.6282,-0.635,-0.11091,-0.25289,0.025197,-0.039102
0.23619,-0.84971,0.42682,0.50907,0.065628,0.191,-0.052773,-0.10858
0.0037638,-0.089319,-0.79459,-0.35658,0.067519,0.046942,0.14301,0.18701
-0.46044,0.35875,0.32833,-0.52556,-0.18948,0.097681,-0.15356,-0.19136
0.12959,-0.61171,0.23589,0.12306,0.11693,0.16501,0.072633,-0.10241
-0.033259,0.30694,-0.50739,0.68654,0.14496,0.00025858,0.047769,0.36897
0.14333,0.2042,0.046604,0.1207,0.029015,-0.18444,0.029521,-0.12755
0.033993,-0.64192,0.20729,0.30965,-0.050137,-0.11453,-0.067811,-0.012668
0.1237,0.68826,-0.86958,-0.83273,-0.2327,-0.1639,-0.079507,-0.05113
-0.10972,-0.025506,0.71637,-0.065833,0.098267,0.15276,-0.02798,0.0075073
-0.4147,-0.886,0.4452,-0.048542,-0.003419,-0.078153,-0.076085,-0.10245
0.24144,0.95702,-1.0855,0.26268,0.06236,0.16642,0.16792,0.1731
0.1564,0.12705,0.29084,0.17655,0.043694,0.23645,0.11881,0.1144
-0.13858,0.020988,0.33242,-0.45944,-0.17102,-0.32408,-0.059259,-0.24078
0.24614,-0.25285,0.8335,0.17098,0.19718,0.24644,-0.031013,0.11402
0.11349,-0.3585,-0.54703,0.71256,0.12278,-0.19717,0.014712,-0.048994
-0.21042,0.16653,0.16851,-0.056244,-0.16914,0.22363,-0.18171,-0.074497
-0.094381,-0.31519,-0.94046,-0.78511,-0.14009,-0.12707,0.096498,-0.017659
0.21112,-0.025838,0.84021,0.37837,0.1245,0.109,0.12874,0.23087
-0.40222,0.73465,-0.37368,-0.44552,-0.092488,-0.43398,-0.016047,-0.14102
-0.064436,-0.54536,-0.57973,-0.12668,-0.030763,0.12284,-0.049508,0.031478
0.377,0.13642,0.53238,0.56764,0.078209,0.050896,-0.080911,0.038375
-0.15917,0.33471,-0.35017,-0.27842,-0.012801,-0.17435,-0.007782,-0.1427
-0.012409,-0.06216,-0.016814,0.011538,-0.036098,0.6019,-0.039485,-0.034134
0.14044,-0.10498,0.67852,0.5488,0.2124,-0.60788,0.11501,0.17745
-0.16871,0.39701,0.46449,-0.12875,0.013609,0.38572,-0.06572,0.023908
0.13635,-0.60698,-0.5824,-0.39232,-0.25898,-0.37176,0.14666,-0.17419
0.32467,-0.54885,0.54886,0.56459,0.29078,0.45895,0.034661,0.1924
-0.25053,0.85266,-0.31178,-0.34272,-0.027161,0.38674,-0.096366,-0.033017
-0.033677,-0.74394,-0.7634,-0.16684,-0.33999,-0.54923,-0.090084,-0.17146
-0.093704,0.71198,0.25351,-0.28633,0.11651,0.32379,-0.009362,-0.020611
-0.15413,-0.10339,-0.56541,-0.10036,-0.18146,-0.616,-0.018937,0.059338
0.43119,0.032438,0.48641,0.83077,0.41517,-0.18232,0.23973,0.30207
-0.59497,-0.12821,0.0941,-0.35554,-0.17036,0.11171,-0.15613,-0.19131
0.12998,0.25894,0.20083,0.065525,0.032391,0.34981,-0.043301,-0.030309
0.16592,-0.19798,0.41227,-0.134,-0.10776,-0.22621,-0.0085015,-0.11307
0.28469,-0.13424,-0.41878,-0.057845,0.051014,0.39908,0.056979,0.037666
-0.17167,0.33008,0.45556,0.079257,0.11085,-0.40095,0.090101,-0.030181
0.02855,-0.22937,-1.1026,-0.17407,0.032623,0.54919,-0.097053,0.090825
-0.21279,0.31882,0.91566,0.68929,0.018891,0.093793,-0.0047682,0.10492
-0.097357,-0.79086,-0.45781,-0.568,-0.29057,-0.39441,-0.12539,-0.15897
0.51492,0.26337,0.77142,0.46357,0.21277,-0.044739,0.25981,0.22918
-0.35476,0.46041,-1.0713,-0.7838,-0.23737,-0.24533,-0.12251,-0.30113
0.21994,-0.67403,0.2023,0.55202,0.11649,-0.25922,0.016909,0.05406
-0.061712,0.080015,0.42522,0.060842,0.21961,0.75303,-0.016933,0.090498
-0.17209,0.73755,-0.46488,-0.72054,-0.31847,-0.22709,-0.1143,-0.13074
0.17499,0.022308,0.76069,1.0044,0.5181,0.43193,0.24864,0.40447
-0.56917,-0.1486,-1.2551,-0.98976,-0.48925,-0.53524,-0.20904,-0.31311
0.32903,-0.32783,0.73822,0.47914,0.050201,-0.34576,0.036345,-0.042391
0.35403,-0.12244,-0.22328,0.12475,0.15982,0.60446,0.086391,0.051907
-0.30618,0.46372,0.82905,-0.32393,-0.395,-0.6035,-0.21532,-0.1319
0.47402,-0.38284,-0.35236,0.61902,0.49469,0.72847,0.24022,0.14873
-0.62514,0.043359,-0.28543,-0.64746,-0.14821,-0.56932,0.0072216,-0.089849
0.52969,-0.11923,0.047685,0.68865,0.24607,0.95754,0.093088,0.2236
-0.5452,0.074986,0.038792,-0.57667,-0.3072,-0.91708,-0.18983,-0.18339
0.21376,-0.16955,0.5811,0.50899,-0.050135,0.25196,-0.091203,0.1277
0.17545,0.16355,-0.54557,-0.81991,-0.075853,0.23767,0.053904,-0.060867
0.13913,0.17444,-0.23553,0.74257,0.38252,-0.2649,0.059396,0.17392
-0.33756,0.16308,-0.62665,-0.69177,-0.41551,-0.64641,-0.14333,-0.34634
-0.18108,0.38656,1.0712,0.30207,0.13349,0.59323,0.17395,0.043841
0.088003,-0.56557,-0.40974,0.031799,0.054556,0.33663,0.01249,0.033366
-0.15347,-0.45007,-0.15497,-0.024012,-0.057593,-0.73749,-0.11944,-0.11106
0.37583,0.20942,0.32781,0.35349,0.25018,1.111,0.16046,0.26722
0.11903,0.60827,0.54365,-0.45518,-0.16382,-0.82452,-0.047781,-0.074533
0.0012764,-0.68178,-0.80419,0.23279,-0.043779,-0.0091546,-0.12934,0.065157
-0.015077,0.7571,0.05166,0.12969,-0.025188,0.45874,0.11603,0.066486
-0.054501,-0.88901,0.59867,0.30647,0.10787,-0.28409,0.029192,-0.065931
-0.04569,-0.13455,-1.033,-0.54799,0.040429,0.11953,0.029577,-0.030617
0.0063811,1.1174,1.0561,0.38229,0.052092,0.17782,-0.056193,-0.080173
-0.46281,-0.55851,-0.3146,-0.84131,-0.42009,-0.35576,-0.14243,-0.16921
0.30608,-0.35321,0.36258,0.18998,0.19505,-0.076304,0.045445,0.17877
0.193,0.096223,-0.74507,0.23199,0.11828,-0.068834,0.12698,0.1057
0.002483,0.31514,0.78538,0.16782,-0.14761,-0.56596,-0.17581,-0.13597
-0.40483,0.13166,-0.67872,0.021915,0.072265,0.47219,0.054705,-0.011918
0.37841,0.17682,-0.88792,0.18501,0.13994,0.50462,-0.0063487,0.11378
-0.38286,-0.13824,0.78817,-0.72016,-0.11471,0.72057,0.11995,-0.068793
0.13563,-0.41037,0.5461,0.39457,-0.042682,-0.47651,0.044013,-0.011126
0.10571,-0.032511,-0.61229,-0.0034706,-0.035374,-0.53104,-0.1018,-0.017521
0.43722,0.19766,0.64838,0.52631,0.17874,-0.054198,0.13381,0.19241
0.20068,-0.35944,-0.27903,0.14881,0.16732,-0.31437,-0.12696,-0.00042933
-0.38692,0.66593,0.054303,-0.58903,-0.26004,0.35058,-0.074888,-0.09074
-0.29606,-0.58996,-0.09721,-0.2722,-0.09802,0.23785,0.083748,-0.15146
-0.073304,-0.20189,-0.10235,-0.069455,0.034565,0.16344,-0.012924,-0.020727
-0.074122,0.83255,0.54879,-0.06057,-0.11272,-0.57654,-0.11639,0.089123
0.29568,-0.14211,-0.049558,0.63861,0.25779,0.59089,0.22616,0.13085
-0.25618,0.068504,-0.7864,-0.67139,-0.11772,-0.52405,-0.14067,-0.11364
0.082616,-0.24107,0.61689,0.52993,0.036608,0.054901,0.066122,0.03686
-0.12429,0.31682,-0.75113,-0.15883,-0.042289,0.1876,-0.18239,-0.14215
0.16271,-0.61206,0.39926,0.25833,-0.008434,-0.43851,0.10065,0.10156
0.42616,-0.068417,0.37098,0.26805,0.17097,0.26075,0.10489,0.066873
-0.15176,0.080332,-0.62304,-0.38687,-0.050275,0.68734,-0.011913,-0.026028
-0.20529,0.24156,0.13958,-0.39459,-0.11769,-0.37688,-0.014769,-0.082761
0.10448,-0.12962,0.036564,-0.029976,-0.0088032,0.011431,-0.052442,0.060483
0.12206,0.42211,0.02847,0.26783,0.08744,0.20004,0.053634,0.11359
-0.21491,-0.023335,0.7978,0.31764,-0.041551,-0.77651,-0.065367,-0.096907
0.10258,-0.25401,-0.2281,-0.32704,-0.014528,0.14786,0.10439,-0.0025201
0.031337,-0.19168,-0.36078,0.23917,0.14384,0.04023,0.053533,0.059173
-0.49205,0.084938,0.11644,-0.40615,-0.20002,0.08614,-0.22678,-0.17859
0.0035752,0.16074,-0.75247,-0.0055754,-0.022901,0.26135,0.013136,0.057187
0.31229,-0.051311,0.57783,0.58902,0.11295,0.065813,0.023702,0.040269
-0.27047,0.11202,0.45285,-0.27109,-0.041887,-0.093881,-0.01441,-0.048722
0.59745,-0.09175,-0.15243,-0.078393,0.083584,-0.13142,0.079768,0.057123
-0.0010788,0.07993,-0.64092,-0.16911,-0.072513,-0.023095,0.11218,-0.0002594
-0.094952,-0.39539,0.36219,0.18309,0.021459,0.020329,-0.048993,-0.0010981
-0.098508,0.16333,-0.80445,-0.060969,0.02182,-0.14948,-0.043828,0.070742
-0.1081,0.14016,0.53456,0.30965,0.045516,0.42855,0.0027954,-0.034836
-0.16698,0.020126,0.029664,-0.60341,-0.17355,-0.1594,-0.1203,-0.11536
0.23565,0.060523,0.49189,0.25469,0.051521,-0.47545,0.031746,0.13281
-0.02201,-0.55315,0.32131,0.25916,0.12646,0.60595,0.16152,-0.0024681
-0.16235,0.52716,0.27272,-0.042821,-0.097517,-0.22697,-0.075228,-0.061321
0.2655,0.25769,-0.61353,0.083646,0.16087,0.065708,0.0086201,0.018024
-0.34844,0.063032,-0.94698,-0.54029,-0.23854,-0.17918,-0.11062,-0.11621
0.31709,-0.36604,0.60114,0.36006,0.13488,0.11736,0.059134,0.15352
0.030012,-0.20423,0.20597,0.012938,-0.069044,0.057631,-0.044669,-0.046944
-0.026643,0.32164,-0.43023,-0.13441,0.034099,-0.21723,0.10918,0.041363
-0.11459,-0.63725,0.77341,0.34962,-0.038477,0.32419,0.051791,-0.088118
-0.12048,0.5653,-0.98241,-0.79128,-0.13711,0.033282,-0.13894,-0.082736
-0.07983,-0.5006,-0.26946,0.45141,0.082477,-0.49681,0.028821,0.12852
0.22863,0.37658,0.83172,0.31166,0.33086,0.2095,0.078122,0.17083
0.048148,0.68902,0.62856,-0.11843,-0.11986,0.24469,-0.030452,-0.10466
-0.09846,-0.83072,-0.20802,0.072488,-0.139,-0.22872,-0.1565,-0.12069
0.12244,0.062864,-0.21396,-0.025255,0.098993,0.24076,0.13743,0.082529
0.14475,0.40916,-0.42022,-0.29017,-0.21311,-0.098444,-0.031293,-0.082123
-0.12168,-0.42714,-0.015234,-0.16276,0.14142,-0.34137,0.01738,0.071886
0.014445,0.26014,0.2976,0.21425,0.059883,0.33147,0.11993,0.028344
-0.27806,-0.12111,0.40324,0.1681,-0.074996,-0.017584,-0.12142,-0.064434
-0.078831,-0.00723,-0.46609,-0.051015,-0.074746,0.080755,-0.034056,-0.026441
0.073223,0.14245,-0.8086,-0.12942,-0.02352,-0.051932,-4.915e-05,-0.013278
0.085988,-0.51305,0.60743,0.28627,0.10435,-0.18722,-0.010941,0.053987
0.32139,0.75722,-0.28889,-0.28617,0.0063968,-0.01039,-0.019413,0.066747
-0.27247,-0.68116,0.90845,0.17111,0.020354,0.043302,0.10748,-0.052558
-0.029166,0.18753,-0.62256,-0.14454,0.092593,0.11632,0.017925,0.032266
0.19338,0.63821,0.37918,-0.23932,-0.15951,0.014405,-0.0074292,-0.046037
-0.26854,-0.64707,-0.055114,0.42685,0.029056,-0.1687,-0.016332,0.0012584
0.14684,-0.61863,-0.24874,0.065227,0.094563,0.18309,-0.0097545,0.0095874
0.28172,1.0231,1.0045,-0.1058,-0.073866,0.12241,-0.058902,0.033093
-0.37366,0.1243,-0.94087,-0.16528,-0.040188,0.021776,-0.055066,-0.077143
0.014788,-0.2118,0.36513,-0.036362,0.014793,-0.16029,0.040444,-0.016778
-0.030892,-0.1792,-0.68731,0.10772,-0.042316,-0.15207,0.024414,0.018696
0.082456,-0.35501,-0.82209,0.023628,0.061942,-0.0088855,0.045403,0.06833
0.0035473,0.10549,0.57509,-0.015977,0.0078231,-0.19891,0.025534,0.046321
-0.00091391,0.85969,0.80668,0.16839,-0.00058191,0.10761,0.051074,-0.031434
-0.093309,-0.76301,0.1738,-0.25096,-0.048046,0.44414,-0.11195,-0.10984
0.13463,-0.28477,0.084034,0.188,0.085331,0.055236,0.013528,0.061653
0.20845,0.57667,0.019456,-0.16156,-0.052626,-0.22111,-0.040569,0.014958
-0.25268,-0.31895,-0.89265,-0.2665,-0.031615,0.085364,0.0078181,-0.069492
-0.051764,0.29341,0.66065,0.28128,0.062635,-0.46192,0.073653,0.098099
-0.031283,0.20113,0.1408,0.20977,-0.027887,0.17641,-0.12346,-0.05196
0.075114,-0.40324,-0.74646,-0.16786,0.071278,0.14855,0.065567,-0.02709
0.017468,-0.09357,0.13006,0.25756,-0.078148,-0.14788,0.0081698,0.086844
0.099693,0.38398,0.49182,-0.22598,-0.00829,0.10611,0.063477,-0.01515
-0.3283,-0.32599,-0.17004,-0.15147,-0.063742,0.29161,-0.066171,-0.13063
0.11382,-0.2033,-1.0178,-0.02099,0.14542,-0.093246,0.055486,0.090958
0.43075,0.46861,0.57609,0.15552,-0.029755,-0.003248,0.051944,0.12495
-0.24807,0.15763,0.30828,-0.2333,-0.14421,-0.25196,-0.14081,-0.16276
0.058648,-0.033925,0.46568,0.41249,0.13792,-0.24585,0.0072056,0.078227
-0.06538,-0.5568,0.18987,0.22453,0.10587,0.32823,0.088968,0.011106
-0.28507,-0.32895,-0.5153,-0.75876,-0.23228,-0.32533,-0.14572,-0.17704
0.3457,0.91249,0.26394,0.40794,0.10824,0.12296,0.07697,0.21702
-0.29568,0.11843,-0.93612,-0.30603,-0.036208,0.60381,7.6969e-05,-0.11078
0.036567,-0.4948,0.46725,0.13172,-0.063656,-0.17157,-0.015909,-0.026576
0.080857,-0.18067,0.43327,0.51959,0.24496,0.077605,0.14735,0.095907
-0.057547,0.063412,-0.34937,-0.51572,-0.17268,-0.36839,-0.15759,-0.14044
0.24893,-0.20763,-0.57892,0.043092,-0.035265,-0.21373,0.069967,0.14055
-0.045669,0.64451,0.81575,0.041286,0.047794,0.033127,-0.036832,-0.052481
0.081272,0.31818,-0.22391,0.050389,0.076397,0.36432,0.061088,0.077756
0.041476,-0.029082,0.26902,-0.17096,-0.12141,-0.31328,-0.1209,0.0078236
-0.12143,-1.006,-0.58929,0.33076,0.1653,0.43107,0.080844,-0.043877
-0.39524,0.099694,0.019923,-0.34294,-0.24304,-0.29981,-0.037247,-0.17167
0.16238,0.40072,0.14827,0.13557,0.052216,-0.012591,0.016625,0.07688
0.1197,-0.15913,0.39988,0.33584,0.22324,0.44977,0.15629,0.099502
-0.1102,0.81273,0.54856,-0.46186,-0.15933,-0.45927,-0.15732,-0.049807
0.37112,-0.41275,-0.57884,0.053973,-0.079662,-0.26337,-0.0020937,0.12831
-0.28711,-0.33531,-0.4921,-0.17226,0.079528,0.27885,-0.12761,-0.20267
0.01019,-0.8594,-0.17713,0.33526,0.013425,0.080012,0.10729,0.066155
0.20222,0.47748,0.48307,0.24791,0.096691,0.1069,0.078046,0.075109
-0.21686,0.18255,0.10727,-0.20019,-0.053996,-0.088177,-0.043277,-0.066526
0.19262,0.54023,0.15957,-0.18867,-0.072051,0.1017,0.0087612,0.086751
-0.24666,0.22819,-0.49657,-0.20159,-0.043995,-0.13806,-0.00082187,-0.11301
0.092723,0.051601,-0.38068,0.15221,0.021892,0.12881,0.067647,-0.0087982
-0.10725,-0.23538,0.19727,0.11546,0.14096,-0.17584,-0.052579,0.04097
0.13186,-0.69311,0.38576,-0.053705,-0.093097,-0.12871,-0.026614,-0.0017564
-0.024728,0.62652,0.61152,0.22282,0.030819,0.13231,-0.0036438,-0.011087
-0.030078,-0.30957,-0.34225,-0.18036,-0.11976,-0.14703,-0.062053,-0.0098748
0.13806,-0.25599,0.43857,0.32205,0.072807,0.076178,0.048466,0.033267
-0.046209,0.28846,-0.99146,-0.21579,0.17936,0.39119,0.024055,0.055461
-0.055198,-0.44306,0.41606,0.0029197,-0.26055,-0.12165,-0.0012611,-0.061338
-0.057193,0.27094,-0.076316,-0.65411,0.026883,-0.42253,-0.088606,-0.029268
0.36532,0.51318,-0.92856,0.28302,0.073113,0.45651,0.22427,0.14253
-0.45561,-0.19669,0.42652,0.42512,0.057825,-0.12721,-0.1241,-0.054943
0.078741,-0.10725,0.24616,-0.29688,-0.026998,0.057835,-0.094046,-0.15378
0.12325,-0.46342,0.87419,0.7895,0.029228,-0.34298,0.048902,0.09571
-0.071791,0.8992,-0.99522,-0.88642,-0.086414,0.16767,0.01526,-0.071862
0.058079,-0.30481,0.98555,0.25213,0.00069638,0.36139,0.10104,0.008267
-0.14787,-0.1533,-0.33154,-0.14064,-0.061278,-0.62191,-0.08554,0.048004
0.15841,0.31329,-0.79338,0.15948,0.13379,0.4526,0.032369,0.071794
-0.15125,-0.42947,0.32069,0.26755,-0.10942,-0.24958,-0.030753,-0.03671
0.20104,0.45567,-0.012536,-0.45068,0.076387,0.07052,-0.010099,0.04336
0.039266,-0.19815,0.24589,0.11376,0.08981,0.12614,0.023675,0.023203
-0.11068,-0.73314,0.34677,0.1413,-0.053329,-0.13534,-0.0073781,-0.058072
-0.13845,0.16084,-0.48045,-0.34282,-0.11061,0.10778,-0.13388,-0.13802
-0.14626,0.16378,-0.32364,0.13263,-0.0036145,-0.050284,0.02009,-0.0057661
0.3012,0.36255,0.80309,0.17191,0.064833,-0.094465,0.15862,0.15118
0.1145,0.28793,-0.72024,-0.23827,-0.045582,0.2081,0.032495,-0.049984
0.13306,-0.18101,0.58307,0.50516,0.10288,-0.22294,0.017173,0.14068
-0.17889,-0.44293,-0.60534,-0.19112,-0.036527,0.12552,-0.074801,-0.13636
-0.17695,0.37259,-0.36132,-0.26528,0.020509,0.14173,-0.071869,-0.053326
-0.090584,0.046455,0.42538,0.10151,-0.077797,-0.06668,-0.021483,0.061181
-0.10865,-0.22056,0.7527,-0.10054,-0.042764,-0.086352,-0.0024822,-0.066892
0.33947,0.6239,-0.096355,0.22035,0.039172,-0.15112,0.015634,0.1243
0.13832,-0.61575,-0.58525,0.11728,0.14403,0.10013,0.17279,0.079464
-0.30308,-0.24852,0.60791,-0.31695,-0.064661,-0.0878,-0.10188,-0.15492
-0.098754,0.2729,-0.49428,-0.066821,-0.040426,-0.032332,0.011571,0.02261
0.34034,0.0084529,0.44251,0.37614,0.029027,0.06591,0.036554,-0.012656
-0.10827,-0.54837,-0.66056,-0.38532,-0.082802,0.30996,-0.14377,-0.064732
0.018096,0.28554,-0.39583,-0.052938,-0.047457,-0.1048,0.057292,0.015768
0.0092828,0.40415,0.029906,0.25723,0.18247,0.023393,-0.046666,0.050188
-0.056646,0.16787,1.2016,0.061359,-0.12678,-0.081364,0.084689,0.023777
-0.016386,-0.22306,0.03473,0.070129,0.048783,-0.046993,-0.047412,0.054226
-0.19148,-0.07322,-0.51481,0.0013349,-0.071752,-0.071457,-0.012326,-0.10847
0.065038,-0.066834,-0.2088,-0.13077,0.097618,-0.070542,0.049813,0.027367
0.25942,0.35048,-0.34772,0.094386,0.13481,0.27571,0.13894,0.13268
0.015245,0.1219,0.44763,-0.39434,-0.17932,-0.18001,-0.12834,-0.12957
0.097052,-0.12175,-0.24862,0.13742,0.014165,-0.02906,0.0047965,0.098958
-0.30822,-0.59128,0.83235,0.16708,-0.019402,0.052059,-0.10346,-0.159
-0.0051307,-0.13472,-0.18186,0.0086528,-0.022264,-0.26929,0.030129,-0.036457
-0.14908,-0.13519,-0.28141,-0.15639,-0.048873,0.3065,0.037404,0.099744
0.15979,0.37934,-0.41762,0.17359,0.11218,0.14818,0.019281,-0.01522
0.071603,0.66469,-0.057547,-0.062852,0.00054005,0.037077,0.030137,0.033777
0.1426,-0.31125,0.67541,0.09554,0.022997,-0.14539,-0.00031569,0.029074
-0.2121,0.20049,-0.22537,-0.086113,-0.085699,-0.073628,-0.063951,-0.098755
0.07818,-0.20078,-0.5565,0.055127,0.057401,-0.19602,0.011645,0.10394
0.16926,-0.27695,0.27454,-0.0056033,0.022503,0.41417,0.016212,0.020091
-0.26021,-0.46386,0.49119,-0.18371,-0.065694,-0.26095,-0.018288,-0.077162
0.2493,0.43323,-0.44286,0.51206,0.17523,0.082202,0.033784,0.06161
-0.40529,0.3179,0.50497,-0.74672,-0.27857,-0.056204,-0.069304,-0.1112
0.32153,-0.1112,0.5778,0.36838,0.10383,0.028321,0.086711,0.028661
