0.0023824,0.022152,0.014464,-0.00098133,-0.012802,-0.0037865,-0.0022136,-0.0021644
0.0042947,-0.018449,0.00075121,-0.0069368,-0.0047422,-0.0037939,-0.0030407,-0.0017449
-0.016405,0.075602,-0.01195,0.0029134,-0.0044571,-0.011597,-0.0040443,-0.0091743
0.0025154,0.028352,0.0071518,-0.0029052,-0.0041155,-0.0037529,-0.0050489,-0.0010008
0.021558,0.14946,0.02619,0.0066563,0.019741,0.01196,0.001955,-0.00062865
0.024555,-0.094916,0.01325,0.015825,0.0046175,-0.0034694,0.0093379,0.0075976
0.018761,0.082505,-0.016621,-0.030164,0.0051771,-0.0031108,-0.014021,0.0080553
-0.082221,-0.49841,-0.055983,-0.0063108,-0.0020703,0.0052576,0.010043,0.00070111
0.010408,0.12437,0.012276,0.0015097,-0.017193,0.0060072,0.0033412,0.001068
-0.00022792,0.015849,0.0087201,0.0090232,-0.0011931,0.0068996,0.0047649,-0.0065958
-0.020113,0.10912,0.0041979,0.024151,0.0068293,-0.0077857,0.0062568,0.001014
0.037172,0.27502,0.015052,-0.0077036,-0.0009396,-0.014736,-0.0080798,-0.0074565
0.0081691,-0.15518,-0.020455,-0.0083552,-0.008839,0.0015394,0.0005796,0.0070132
0.018496,0.00029208,-0.0079133,0.0066053,0.014443,0.017486,-0.0069746,0.0054029
-0.025059,-0.11723,0.053118,-0.017486,-0.0091517,-0.0060427,-0.0073233,-0.019968
0.0028972,0.022844,-0.016895,0.0053407,0.0063701,-0.0065785,-0.00034903,0.0092328
-0.0067826,0.067127,0.01628,0.012642,-0.0014668,0.00027719,-0.0014517,-0.00048946
0.024097,0.028709,-0.019622,-0.011126,0.0063902,0.0067927,0.0052672,0.0058118
-0.037329,-0.048298,-0.031389,-0.011184,-0.0013502,-0.0025276,-0.011197,-0.0028941
0.043177,-0.002307,0.027269,0.012542,-0.00131,-0.0040831,0.011796,-0.0030291
-0.031453,-0.014776,-0.016055,-0.002424,-0.0013621,0.010116,0.011735,0.0054426
-0.050513,0.0072424,-0.013337,-0.017082,-0.017178,-0.014451,0.0040644,0.022444
0.12634,-0.084474,0.019531,0.038712,0.021531,0.016101,0.019723,0.0009197
-0.13408,0.07052,-0.034765,-0.054058,-0.025863,-0.023155,-0.027585,-0.059388
0.05056,-0.22932,0.058142,0.087087,0.020335,0.0084085,0.0024684,0.013088
-0.11722,0.19736,0.024904,-0.022553,-0.0039325,0.0013319,-0.023056,-0.031972
0.22906,0.32843,0.006323,-0.023838,0.0028956,0.017953,0.020973,0.11763
0.088667,-0.19481,-0.091085,-0.026194,0.017373,0.011175,0.0099701,0.00070582
-0.18745,-0.052129,0.029919,0.033069,0.00043676,-0.011429,-0.0085267,-0.070395
0.0019933,-0.056767,0.010416,-0.033101,-0.016628,-0.026641,-0.033711,-0.025382
-0.24906,-0.20207,-0.024081,0.010327,-0.010292,-0.011175,-0.017921,-0.020369
0.38049,0.20598,0.012871,-0.0077787,0.0039774,0.019286,-0.0074532,0.06993
-0.24081,0.025593,-0.01894,-0.032043,-0.020476,0.0022936,0.068196,-0.043143
0.20135,0.068509,0.052603,0.086435,0.010337,-0.0073104,-0.095972,0.015876
-0.0019194,0.045467,0.024384,-0.019424,0.026321,0.045406,0.35078,0.044332
-0.098577,-0.082079,-0.017897,0.032873,0.011986,-0.011114,-0.33498,0.034836
-0.0087875,-0.078478,-0.082502,-0.1246,-0.032653,-0.028054,0.14222,-0.05132
-0.051792,-0.035532,0.0096685,0.046188,0.017283,0.010627,-0.11739,-0.026374
-0.071216,-0.075887,0.047045,0.067481,-0.025956,-0.043093,-0.12257,-0.093311
-0.099389,0.12311,0.13843,0.11007,0.032597,0.029896,0.21219,-0.009973
0.41598,0.03197,-0.14627,-0.12369,0.0050554,-0.0045536,-0.02696,0.16088
-0.1381,-0.06735,-0.025984,-0.032461,-0.015209,0.0098144,0.043591,0.035882
0.4449,0.011873,-0.14128,-0.16274,-0.020698,-0.0054057,-0.082738,-0.042031
-0.57396,0.064166,0.14873,0.13489,-0.0038145,0.011683,-0.029469,-0.08169
-0.22979,0.15614,0.21947,0.025874,0.0040879,0.036738,-0.037303,0.040844
0.65472,0.10363,-0.15525,0.050753,0.042075,0.05301,0.12938,0.074673
-0.35826,-0.4806,-0.037601,0.0076698,-0.014767,-0.22978,-0.075478,-0.074504
-0.048042,0.22034,-0.1775,-0.13387,-0.02567,0.077852,0.10615,-0.078624
-0.17634,-0.021692,-0.020388,0.079339,0.0017315,0.068762,-0.0057901,0.0080991
-0.17547,0.098842,0.1677,-0.033014,-0.0026789,0.10965,-0.23253,-0.00088095
0.71787,0.046279,0.37835,0.25445,-0.007434,-0.033787,0.17471,0.16135
-0.24934,-0.1738,-0.053106,-0.12226,0.15178,-0.11867,0.13647,0.058728
-0.13641,-0.33576,-0.33022,-0.12553,-0.15756,-0.0030036,0.0031894,-0.24489
0.18283,-0.12018,-0.21078,-0.029873,0.041498,-0.0052015,-0.11648,0.032841
0.30911,0.22847,0.14176,-0.070141,-0.039692,-0.021475,-0.28523,0.10353
-0.30677,0.39275,-0.16216,-0.0039698,-0.080363,-0.0027619,-0.0027628,-0.10302
-0.11319,0.51276,0.24593,0.13813,0.10736,-0.03325,0.30962,0.0064158
-0.21463,-0.14975,0.14833,0.18539,-0.0075531,0.12239,-0.13655,-0.038052
-0.2148,-0.33554,0.0065096,-0.16568,0.035768,0.081262,0.21373,0.082242
0.87751,-0.10663,0.031192,-0.038937,0.072909,0.11572,0.14947,0.51383
-0.60937,-0.35255,-0.075368,0.1603,-0.060805,-0.18239,-0.18912,-0.5576
0.1147,-0.24211,-0.30663,-0.30167,-0.12395,-0.16696,-0.044694,-0.063051
0.32466,0.43352,0.29702,0.16147,0.11709,0.12067,-0.27692,0.043844
-0.36084,0.088847,-0.16392,0.0029156,-0.049269,0.014605,0.11433,-0.072414
0.012312,-0.016054,-0.34627,-0.41047,-0.053123,-0.14254,-0.11258,0.042594
0.092762,0.028172,0.83585,0.84247,0.081921,0.094175,0.27757,0.15632
-0.28428,0.30265,-0.42181,-0.46591,0.0043484,0.10007,0.13718,0.0050765
0.80925,-0.081011,0.24877,0.21774,-0.051266,-0.038117,-0.1347,-0.057952
-0.49614,-0.36371,-0.22946,-0.20173,0.079414,0.00097987,-0.1082,0.069805
0.24219,0.21283,-0.30844,-0.24896,-0.048628,-0.00027161,0.13835,0.013612
-0.93146,0.15653,0.13794,0.19242,0.0023901,-0.033026,-0.028305,-0.11758
0.36353,-0.39185,-0.053629,-0.049794,-0.017261,-0.0026613,-0.10085,-0.051271
0.61786,0.099498,0.58581,0.53235,0.12707,0.083694,-0.032735,0.094172
-0.24727,-0.09501,-0.13171,-0.36524,-0.13464,-0.11721,0.035367,-0.033996
0.47147,0.080528,-0.40255,-0.24166,-0.044245,-0.0035032,0.10371,0.19608
-1.0217,-0.013502,0.47503,0.24796,0.00010769,0.057775,-0.20225,-0.30996
0.88482,0.18572,-0.50028,-0.16088,0.076776,0.050951,0.24299,0.18209
-0.97809,-0.017852,-0.016916,-0.13127,-0.017288,-0.11796,-0.17741,-0.15568
0.30704,-0.024536,0.20612,0.32171,0.084974,0.10528,0.2007,0.10688
0.13427,-0.087081,-0.026067,0.026204,-0.030835,-0.092435,-0.1464,-0.084271
0.3581,0.31493,0.11561,-0.057343,-0.099567,-0.039977,-0.10208,0.16206
0.55097,-0.047527,-0.031629,-0.039099,0.12047,0.23843,0.30163,0.25259
-1.1531,-0.33958,0.041297,0.35365,-0.074229,-0.1642,-0.25641,-0.54677
0.34772,0.010043,-0.46927,-0.41058,0.058383,0.056341,0.1841,0.14697
0.21743,0.11393,0.39039,-0.14369,-0.16904,-0.037623,-0.2053,0.091742
-0.39601,-0.19465,0.54997,0.32766,0.14234,-0.016118,0.091101,0.0064466
-0.04789,0.090487,-0.90513,-0.61943,-0.069421,0.012209,0.034744,0.11783
0.21398,-0.13404,0.063094,0.19684,-0.022537,-0.076576,-0.076652,-0.20671
-0.46346,0.011163,0.49237,0.37156,0.20518,0.0077782,0.015713,-0.12325
0.58939,0.28556,-0.095275,-0.064145,-0.21442,0.024112,0.039309,0.18858
0.76008,0.054542,-0.083904,0.27837,0.061994,0.027687,-0.020894,0.048908
-1.0018,0.41451,-0.31025,-0.096754,0.064907,0.02623,-0.047592,-0.12869
0.37078,-0.18124,0.78021,0.15731,0.059032,0.12049,0.11503,0.24092
0.28187,-0.30388,-0.80415,-0.46413,0.012285,-0.019055,0.13012,0.10206
-0.83141,-0.10983,-0.077695,-0.21463,-0.16177,-0.073799,-0.18326,-0.36661
-0.52205,-0.2533,0.57848,0.34188,-0.15063,-0.12346,-0.037318,-0.17376
0.49462,0.013057,-0.31812,-0.23885,0.10098,0.080829,-0.050287,0.18787
0.35557,0.010146,0.29672,0.054462,0.11753,-0.078471,0.02724,0.15562
0.53322,0.17083,0.15859,0.30514,0.11904,0.13349,0.21087,0.12028
-0.67352,0.16381,-0.23978,0.16756,-0.10422,-0.1727,-0.20979,-0.15988
0.65693,0.23618,-0.73459,-0.69645,-0.22328,0.12962,0.070926,-0.0045761
-0.76711,0.03269,0.18091,0.13139,0.082508,-0.043717,-0.12547,-0.24122
0.3938,-0.24846,0.79388,0.14536,0.15658,0.066619,-0.00088669,0.099657
0.16597,-0.019743,-0.023239,0.58736,0.14653,0.024094,0.26595,0.31561
-0.8143,-0.25705,-0.1718,-0.20921,-0.089492,-0.0069371,-0.074392,-0.1631
0.76281,0.12582,0.1267,0.048406,0.0097754,0.043472,-0.013943,0.085839
-0.85296,0.14481,-0.23906,-0.30081,-0.28319,-0.1693,-0.11544,-0.27314
0.96573,-0.090086,-0.49623,-0.58941,-0.039143,0.064543,0.081604,0.19779
0.14548,0.07061,0.62965,0.17924,0.015531,-0.053055,-0.087387,0.022422
-0.63544,-0.028116,-0.81989,0.050077,0.22522,0.070651,0.072473,-0.15048
-0.4716,-0.24449,0.61158,1.0069,0.20019,0.052151,-0.064102,-0.062827
0.29963,0.21122,0.22433,-0.42626,-0.26967,-0.054204,0.018357,0.137
0.088894,0.018578,-0.096121,-0.2716,0.081889,0.056294,0.069741,0.13624
0.50694,0.16083,0.19867,-0.0038337,-0.080789,-0.18636,-0.066354,-0.14393
-0.32343,-0.12977,0.37471,-0.058311,-0.015531,0.077723,0.047287,0.006377
0.53755,0.058065,-0.97477,-0.12023,0.089925,0.075648,-0.011655,0.093624
0.089817,0.0025633,-0.14755,0.3517,-0.022597,0.065721,0.068758,-0.016358
-0.72204,-0.10359,0.19921,-0.32035,-0.21289,-0.1236,-0.14174,-0.1528
-0.38973,-0.11369,-0.052356,0.09916,0.1905,1.2516e-05,0.059525,0.035271
1.0509,0.28429,0.96445,0.27463,0.10126,0.15529,0.10208,0.24325
-0.83082,-0.33068,-0.48525,0.080458,0.050308,-0.11099,-0.045094,-0.239
-0.53239,0.043282,0.090095,0.062135,-0.13449,-0.04896,-0.10787,-0.089795
0.44341,0.088334,-0.79477,-0.85258,-0.20326,-0.088384,-0.077356,-0.080898
0.49312,0.0021435,0.37464,0.26381,0.062727,0.098835,0.11808,0.25803
-0.15936,-0.0027231,0.034423,0.12,0.093245,0.012686,-0.012439,0.014074
0.2781,0.13668,0.11267,0.22943,0.14623,0.082818,0.0086982,0.015763
0.90761,0.075741,0.49051,0.26981,-0.0047283,0.035701,0.16642,0.16114
-0.73329,-0.062531,-0.23984,-0.31522,-0.0079112,-0.074105,-0.094012,-0.22276
-0.60019,0.016172,-0.11837,0.13733,-0.058396,-0.01233,-0.023224,-0.027991
-0.74984,-0.15937,-0.14503,-0.30246,-0.26521,-0.13055,-0.11447,-0.20916
0.62958,-0.043995,-0.72478,-0.37594,0.0049307,0.0088248,0.037184,0.21698
0.44539,-0.060059,0.69174,0.62976,0.2994,0.08568,0.07106,0.10914
-0.40943,0.012073,0.38908,-0.13408,-0.084534,0.076781,-0.0061656,-0.14211
0.28665,0.0104,-0.42619,-0.031283,0.10332,0.0057104,-0.0078066,0.033989
0.35614,0.27364,0.21761,0.13693,0.065958,-0.010314,0.018853,0.107
-0.35631,-0.085912,0.03328,0.014333,-0.15009,-0.041684,-0.027732,-0.1486
0.23458,0.074871,-0.40841,-0.091837,-0.1078,-0.065101,-0.02216,0.026056
-0.21693,-0.28142,0.64156,0.0076007,-0.065507,-0.0025851,-0.026235,0.0068853
0.26305,0.10359,-0.53002,-0.23356,0.077941,0.059824,-0.0078671,0.060139
-0.89836,-0.051942,0.065803,-0.050163,0.095617,-0.010743,0.072837,-0.12645
0.35168,0.023807,-0.44978,0.087328,0.096566,-0.011188,0.02124,0.071905
0.65314,0.32846,0.88806,0.53535,-0.060189,0.07409,0.03308,0.13898
-0.60277,-0.28915,-0.10391,-0.4054,-0.10939,-0.05964,-0.05554,-0.15266
0.17939,0.090264,-0.41267,-0.028557,0.057998,0.01726,-0.02592,0.12568
0.69734,0.097579,0.78094,0.49728,-0.0035358,-0.015562,0.035831,-0.01905
-0.99162,-0.3697,-0.78011,-0.48,0.02634,-0.017472,-0.081434,-0.25147
-0.11178,0.11057,-0.421,-0.18117,-0.086434,-0.011826,0.012724,0.1079
0.12728,-0.046227,0.6444,0.22982,0.08064,0.064034,0.013453,-0.018885
0.13948,0.036971,-0.35112,-0.35402,-0.15904,-0.10216,-0.016913,0.017023
0.75106,0.23741,0.73184,0.5873,0.25028,0.15391,0.14798,0.29423
-0.13538,-0.16955,-0.49937,-0.034329,-0.0027408,-0.058093,-0.015585,-0.085273
-0.8528,0.051658,-0.072057,-0.61924,-0.24515,-0.066063,-0.1329,-0.33217
0.51556,0.21385,-0.086509,0.22837,0.16458,-0.018264,0.022351,0.14742
0.17633,-0.050616,0.018031,0.058816,-0.12446,0.02287,0.012542,0.048852
-0.24801,-0.3052,0.38539,0.45133,0.19268,0.088519,0.064328,0.090919
-0.22627,0.011509,0.25883,-0.017445,-0.11071,-0.03247,-0.040716,-0.038765
-0.40446,-0.031065,0.11504,-0.23407,0.0038597,0.018931,-0.052054,-0.13684
0.339,0.10559,-0.69372,-0.16475,0.051025,-0.023335,-0.00028792,0.0079856
0.38447,0.093136,-0.086602,0.19257,-0.072092,-0.065966,-0.0019741,0.044589
0.23712,0.0097513,-0.17505,-0.35483,-0.09359,-0.0078024,0.060529,0.074949
-0.76313,-0.121,0.12819,0.16579,0.18023,0.049278,-0.031386,-0.13502
0.75305,0.10724,0.12418,0.096196,0.0056533,0.011323,0.073601,0.16472
0.13754,0.14763,0.24076,-0.25111,-0.032642,0.026681,-0.023554,-0.041659
-0.73578,-0.38264,0.21866,0.58651,0.048907,0.025073,-0.042462,-0.074971
0.33439,0.18049,-0.2962,-0.22389,-0.14835,-0.02459,0.05501,0.15007
-0.091211,0.071473,-0.28495,-0.21773,0.086974,-0.04388,-0.020981,-0.10944
-0.84189,-0.26422,0.23741,-0.12567,-0.18153,-0.087059,-0.11464,-0.17442
0.93349,0.29082,-0.11391,-0.27263,0.10239,0.041693,0.055268,0.12657
0.078848,-0.044401,0.53206,0.82801,0.19051,0.07726,-0.0030165,0.035492
0.24296,0.050617,0.20928,0.067895,-0.10293,0.035683,0.11754,0.27115
-0.30064,-0.088096,-0.54035,-0.16254,-0.065613,0.018771,-0.097735,-0.26776
-0.70091,-0.19497,-0.7518,-0.51281,0.037729,-0.10624,-0.046322,-0.12768
0.54866,0.089136,0.51867,0.28899,0.019897,0.012073,0.061576,0.12163
-0.09317,0.060631,-0.18907,-0.21955,0.01345,-0.0015585,0.0075882,-0.10519
0.29263,0.23448,0.91693,0.19484,-0.021381,0.047837,0.033851,0.13761
0.21847,-0.085443,-0.44037,-0.085639,-0.10902,-0.058842,-0.024169,0.037708
-0.3577,-0.14991,-0.47515,0.12632,0.17132,0.045271,-0.0032078,-0.030052
0.10111,-0.014183,0.027471,0.096388,-0.0094726,0.016162,0.0098405,0.035392
-0.38216,0.055992,0.85908,-0.097278,-0.050609,-0.044794,-0.048455,-0.071382
-0.11069,-0.079588,-0.95618,-0.24385,-0.10099,-0.012707,0.00086753,-0.030857
0.80967,0.080061,0.81492,0.24226,-0.012322,0.018639,0.032414,0.12506
-0.70181,-0.018324,0.16972,0.2824,0.090481,0.025847,-0.047572,-0.18992
-0.060936,-0.076235,-0.90301,-0.35063,0.067016,0.016831,0.050341,0.047728
0.45698,0.14227,0.24179,-0.079334,-0.0043576,-0.0082419,-0.0091272,0.06505
0.2708,-0.017822,0.12489,0.002076,-0.068782,-0.041332,0.0092329,0.13634
-0.85109,-0.040183,-0.37239,0.010501,0.061335,-0.027475,-0.0030844,-0.20608
0.23996,0.012751,-0.055043,0.055214,-0.051444,0.033634,-0.029681,-0.015807
0.47889,0.031029,0.9917,0.32375,0.038299,0.025092,0.023754,0.059655
-0.16266,-0.033351,-0.53557,-0.37125,-0.075473,0.0096158,0.0012386,0.0052571
0.01968,-0.049101,-0.096238,0.1346,-0.0095968,-0.028325,-0.019175,-0.022665
0.11252,-0.0023433,-0.0012409,0.084038,0.0098173,-0.010672,0.016789,0.14729
-0.42969,-0.004238,0.11812,-0.029809,0.069185,-0.03141,-0.0087571,-0.11865
0.091398,0.12325,0.27893,-0.40873,-0.065469,0.073136,0.020484,0.021924
0.11881,-0.089987,-0.60335,0.31612,0.12171,0.021224,0.056693,0.067585
-0.46425,0.066084,0.074078,0.16211,0.0057443,-0.031405,-0.096284,-0.2017
0.33725,-0.041666,0.038634,-0.2677,-0.12451,-0.022688,0.021904,0.13507
0.32473,-0.0066011,-0.18615,-0.2147,-0.0037864,0.023674,0.036043,0.022898
-0.26984,-0.10102,0.37531,0.37562,-0.03101,-0.079844,-0.11616,-0.13949
0.20736,0.15347,0.5098,-0.037208,-0.034847,0.026366,0.081517,0.10971
0.073432,0.040549,-0.26264,0.45059,0.28102,0.092759,0.028402,-0.0016997
-0.66039,-0.18707,-0.82112,-0.29701,-0.091777,-0.044132,-0.024486,-0.058205
0.5079,0.0827,0.7444,-0.33025,-0.19275,-0.039933,-0.021493,0.15252
0.055447,-0.061903,-0.28796,-0.026959,0.10277,-0.0034856,0.014689,-0.12619
-0.034091,0.00561,0.088063,-0.013935,0.060304,0.042115,0.014138,-0.010793
-0.45782,0.019947,0.14647,0.14589,-0.054389,-0.020239,-0.015365,-0.0010526
0.19571,0.097272,-0.35224,0.12532,-0.076869,0.012376,0.01949,0.027761
0.39209,0.078949,-0.044113,-0.011042,0.040313,0.014513,0.0085545,0.082732
0.21391,0.016159,0.45158,-0.033689,-0.022464,0.040264,0.029003,0.0065428
-0.77958,-0.28277,-0.64818,0.10772,0.17303,-0.059421,-0.068553,-0.1708
0.25253,0.10762,0.50566,-0.0363,0.010325,0.035286,0.027626,0.088531
-0.043446,0.066483,-0.051908,-0.18878,-0.11149,-0.10553,-0.01102,-0.0055983
-0.036043,-0.13524,0.34474,0.051755,-0.058988,0.041632,-0.02046,-0.016472
0.46956,0.22807,-0.22707,-0.20318,-0.09728,-0.0072286,-0.05503,-0.022653
-0.52631,-0.12402,-0.29367,-0.12463,0.094333,0.05314,0.04997,0.022648
0.28211,-0.032705,-0.023643,0.5209,0.1488,0.04368,0.053129,0.049371
0.49819,0.076302,0.15579,0.21506,-0.066932,-0.081926,0.056765,0.18306
-0.81313,-0.14368,0.012549,-0.15591,-0.11605,0.020429,-0.040081,-0.24736
-0.078556,-0.093828,0.080677,-0.34752,0.031543,-0.063224,-0.10422,-0.092463
0.25199,0.08189,0.01241,0.095432,0.1243,0.11223,0.051983,0.086335
-0.256,0.0037697,-0.34333,0.30856,0.082384,-0.00051757,-0.0012575,-0.053683
0.4935,0.32145,0.55146,-0.54744,-0.20519,-0.050507,0.0092199,0.15236
0.0015866,-0.067517,-0.41986,0.12003,0.11976,0.047568,0.020516,-0.052913
-0.036644,0.060666,0.29942,0.19505,-0.14641,-0.097461,-0.0068925,0.072677
0.041428,-0.20427,-0.48288,0.079476,0.074741,0.045306,-0.0031431,0.020883
0.17107,-0.062061,-0.012906,-0.22166,-0.0047039,0.030447,0.015759,-0.029331
-0.76734,-0.10264,0.4008,0.14116,-0.12518,-0.087229,-0.036388,-0.13347
0.060002,0.053974,0.16031,-0.41244,-0.01902,0.020687,-0.058145,-0.050056
0.26878,0.14083,0.049887,0.50486,0.28443,0.096738,0.083295,0.071948
0.32694,-0.03715,-0.24073,0.138,-0.041529,-0.04625,-0.018237,0.0056935
-0.17205,-0.033135,-0.31147,-0.31705,-0.0040376,0.02946,0.020176,0.047922
0.099988,0.07708,0.47167,0.31013,-0.04072,0.01931,0.011127,0.1048
-0.23186,-0.19612,-0.71848,-0.64771,-0.18366,-0.10791,-0.021896,-0.10502
-0.16758,0.17298,0.55627,0.43009,0.12831,0.022816,-0.008555,-0.0035919
0.19892,0.060925,0.45254,0.29659,0.049889,0.059939,0.0042969,-0.012957
0.23452,-0.086415,-0.65491,-0.52924,-0.092296,-0.058982,0.0089104,-0.023865
-0.3112,0.019581,-0.19691,0.011575,0.036452,0.0020827,-0.041455,-0.012864
0.17863,0.049524,0.51182,0.37782,0.13845,0.086985,0.048738,0.08276
0.047783,-0.03737,-0.41507,-0.34518,-0.10687,-0.10107,-0.01708,-0.025611
0.062487,-0.00066472,0.38483,0.32008,-0.035145,0.086364,0.034889,0.053312
-0.096146,-0.013594,-0.070779,-0.33511,-0.13777,-0.085145,-0.060611,-0.085889
-0.42585,-0.11588,0.11035,0.13762,0.14892,0.024873,-0.0063906,-0.067297
0.19345,0.036375,-0.061942,0.022932,0.029323,0.033376,0.025872,0.070897
0.18673,-0.063726,-0.22485,-0.15259,-0.034426,-0.028656,-0.010675,-0.022196
-0.23246,0.19461,0.39299,0.019781,0.013245,0.049451,0.071283,0.10687
0.078038,-0.085462,-0.53559,0.38524,0.094699,-0.037179,-0.04895,-0.10452
0.52442,0.11316,0.314,-0.063621,-0.063415,0.031715,0.0109,0.092997
-0.020051,-0.0053257,0.011523,0.15711,0.054312,-0.048423,-0.0075768,-0.043787
-0.53515,-0.088759,-0.35549,-0.56291,-0.10718,-0.027268,-0.019003,-0.023995
0.068793,0.0035567,0.07472,-0.013779,-0.1342,0.0097179,0.0074507,0.049446
0.014045,-0.08813,0.077146,-0.0010398,0.027581,0.00057396,-0.014372,-0.043419
0.078059,0.010429,-0.036587,-0.14242,0.15914,0.086407,0.040534,0.032499
-0.32011,0.040368,0.41648,0.79616,0.049211,-0.044973,-0.077625,-0.15286
0.25543,-0.01523,0.25568,0.04101,0.056779,-0.0028944,0.061181,0.11938
0.60127,0.2797,-0.43813,-0.28311,-0.12337,0.0014584,0.019852,0.060727
-0.53953,-0.25599,0.030017,-0.50465,-0.1559,-0.024627,-0.021551,-0.046684
-0.055704,-0.0064094,-0.34968,-0.10054,0.091366,-0.027194,-0.0080511,-0.014343
-0.31967,0.050966,0.51464,0.31937,0.071014,0.055431,0.0058328,-0.028774
0.25741,-0.060796,-0.54917,0.10599,-0.006405,0.027144,-0.0032909,0.01237
0.19396,0.05704,0.14892,0.2037,0.077721,-0.0032881,0.019212,0.054892
0.031259,-0.016446,0.09917,0.19728,0.018876,0.034151,-0.0048963,-0.018244
0.083196,0.0014932,0.20155,-0.33627,-0.20585,-0.086988,-0.028871,0.011544
-0.267,-0.1139,-0.28164,-0.31175,-0.0096735,-0.10835,-0.0059482,-0.05927
-0.09003,0.092346,0.56248,0.2787,0.038203,0.07251,0.0013063,0.057864
0.40222,0.043645,-0.56304,0.037787,0.14206,0.089507,0.031937,0.026532
-0.12729,0.037893,-0.18964,-0.16519,-0.095552,-0.040674,0.023471,-0.04421
-0.27322,-0.073017,0.095284,-0.17904,0.013472,0.018723,-0.031843,-0.084135
-0.247,0.023047,-0.15745,0.26459,0.047315,0.010292,-0.0089191,0.0084868
0.56078,0.05951,0.85768,-0.12142,-0.10393,-0.026977,-0.0014055,0.093383
0.31462,-0.035248,-0.28375,0.0071811,0.058681,0.015778,-0.017015,0.038175
-0.71132,-0.12981,-0.22786,0.1725,0.041601,0.020542,0.038081,-0.047386
0.061813,0.087082,0.12734,0.44963,0.14812,0.0098009,-0.0079601,-0.077154
0.048603,0.044245,0.4929,-0.056143,-0.12286,-0.0016911,-0.014553,0.019138
0.030394,-0.040013,-0.5829,-0.41149,-0.15469,-0.21769,-0.013067,0.045861
0.30364,-0.032894,-0.2131,-0.23674,0.021555,0.19745,0.035363,0.057155
0.45338,0.026845,-0.25724,0.029398,-0.069809,-0.045286,0.0054893,0.0914
-0.7872,-0.13377,0.12382,-0.30737,-0.044653,-0.00028303,-0.0013729,-0.23488
-0.32552,0.10289,0.12327,0.076244,0.16876,0.075118,-0.016662,0.007498
0.31402,0.20591,0.48986,0.8562,0.28249,0.040806,0.014237,0.091769
0.0058342,-0.019892,-0.18468,-0.27589,-0.093485,-0.04805,-0.017966,-0.067868
0.47622,-0.074459,-0.1859,-0.1216,-0.17015,-0.17542,-0.042718,0.10717
-0.15769,-0.12957,-0.01332,-0.062236,-0.11997,0.088667,0.041899,-0.023065
-0.38807,-0.13807,0.83828,-0.012204,0.04056,0.041263,-0.029353,-0.10623
-0.050802,0.1584,-0.761,0.10474,0.099554,0.057385,0.032905,0.030248
0.61208,-0.0050021,-0.027953,0.03577,-0.0062844,-0.03497,0.025707,0.10566
-0.42256,0.10699,0.24307,-0.16747,-0.050926,-0.009505,-0.019752,-0.098506
0.52557,0.049911,-0.38867,-0.12461,0.051337,0.0084341,0.029072,0.113
-0.83947,-0.11311,0.17025,0.374,-0.011945,-0.067457,0.007704,-0.033579
-0.10234,-0.014541,-0.1242,-0.17136,-0.021756,0.020316,-0.092133,-0.13251
0.51184,0.0097265,-0.086844,-0.21983,0.030116,0.021527,0.033852,0.10472
0.37946,0.0062712,0.13303,0.31754,0.0034897,0.0063856,0.026054,0.029196
-0.17032,-0.041143,0.12831,-0.46969,-0.077779,0.045231,-0.006164,-0.054696
-0.56668,-0.063137,0.084097,0.14069,0.052269,-0.018037,-0.015711,-0.053286
0.409,0.064032,0.049956,0.53397,0.11261,0.019967,0.0056235,0.10388
-0.31428,0.049764,-0.3263,-0.24986,-0.1154,-0.16073,-0.004164,-0.067285
0.27791,0.1814,0.41245,-0.12583,-0.069221,0.049594,-0.0055157,0.003914
-0.0034256,-0.11307,-0.1932,0.075257,0.09486,0.073136,0.025395,0.036561
0.35572,-0.10855,0.17748,0.052575,0.079923,0.081938,0.010643,0.030864
-0.5289,-0.040304,0.21281,0.12983,-0.098456,-0.10372,-0.034182,-0.067845
0.083886,-0.080389,-0.55335,-0.040801,-0.057529,-0.015335,0.0078365,0.0058652
-0.19699,0.15466,-0.37338,-0.48572,-0.0083399,0.073214,0.034676,0.0094283
