-0.11143,0.17555,0.061112,0.016203,0.0085515,-0.065468,0.37642,-0.22135
0.056023,-0.15841,0.0020356,0.0044544,-0.020584,0.0085094,-0.28367,0.7523
-0.26863,0.0063565,0.0048485,-0.06288,-0.081954,-0.2379,0.064644,-0.018597
0.35922,0.35496,0.2945,0.12621,0.12122,0.23387,-0.27815,-0.60578
0.3681,-0.10945,-0.091297,-0.077028,-0.067264,0.0014314,-0.3927,1.0203
-0.29831,-0.13534,-0.39543,-0.039858,-0.014397,-0.09183,0.79083,-0.85287
-0.079451,-0.29215,-0.047472,-0.0042362,0.030119,0.18831,-0.52282,0.0080163
-0.26633,-0.039509,0.039484,-0.03216,-0.05836,-0.37675,0.64635,0.0013407
0.29583,0.46127,0.1404,0.095813,0.087697,0.22123,-0.11878,0.4017
0.043916,-0.30817,0.045962,-0.033636,-0.015805,-0.048322,-0.015785,-0.3902
-0.03711,0.80071,0.18715,0.0020148,-0.017123,-0.028374,-0.7969,-0.26196
0.062497,-0.53695,0.15046,0.03132,0.036939,0.45371,0.12872,0.48482
-0.31809,-0.73685,-0.58777,-0.047149,-0.064574,-0.5077,0.28011,-0.17086
0.36445,0.73293,0.26844,0.032073,0.014201,0.056527,0.041265,0.10817
-0.29916,-0.55549,-0.047733,0.026389,0.030973,0.029257,0.98888,-0.14717
0.11755,0.31333,0.29852,-0.049123,-0.045617,-0.11324,-0.63886,0.89738
-0.18642,-0.012868,-0.43565,-0.015349,-0.0047513,0.12835,-0.59792,-0.84669
-0.037222,0.11009,0.1092,-0.02121,0.012808,0.18265,0.40168,-0.085051
0.41654,-0.037367,0.051092,0.073617,0.07721,0.048392,-0.11546,0.35246
0.34426,0.91452,-0.0068537,0.019048,-0.014856,-0.13511,0.21252,-0.3
-0.45381,-0.58982,0.015447,-0.083206,-0.060454,-0.16577,-0.31299,0.013651
-0.053626,-0.1859,0.010619,0.0015665,-0.012859,-0.090955,-0.34922,-0.70387
0.093679,-0.016914,0.089671,0.070699,0.049719,0.26921,0.5582,0.58189
-0.3372,-0.66157,-0.28556,-0.070635,-0.06021,-0.20943,0.17791,0.39713
0.25974,0.16391,0.23642,0.031099,0.04026,0.16193,0.186,0.63398
-0.46061,0.074969,-0.033058,-0.022298,-0.023709,-0.013613,-0.25632,-0.43424
0.28359,0.40104,0.16948,0.050428,0.052763,-0.062786,-0.597,-1.0121
0.36177,-0.018394,-0.38542,-0.016602,0.004253,0.10141,0.27838,0.72627
0.20694,0.79807,0.24436,0.010509,-0.0049875,0.018625,0.4368,0.05236
0.057449,-0.48011,0.040176,-0.0094837,-0.037283,-0.021994,-0.47754,0.074432
-0.73101,-0.36295,0.062238,0.0087114,-0.022164,-0.059819,0.42818,-0.21515
-0.021659,-0.32922,0.0047281,-0.037016,-0.037633,-0.17354,-0.43919,-0.66662
-0.33462,-0.34221,-0.35863,-0.029824,0.056997,0.15961,0.10664,-0.020325
0.59011,0.48576,0.00512,0.061458,0.066379,0.14211,0.13311,0.87358
0.62031,0.7131,0.14568,0.026089,0.00599,-0.085972,0.18289,0.48381
-0.74536,-0.6114,-0.15227,-0.11206,-0.093176,-0.087572,0.22762,-0.86362
0.44306,0.25409,0.41145,0.08513,0.034185,0.058892,-0.54222,0.40519
-0.35019,-0.044692,-0.098011,0.016767,-0.018501,-0.13895,-0.24,-0.26241
0.159,-0.20768,0.016213,-0.019609,0.0063224,0.1391,0.38962,0.30722
-0.072909,0.15777,-0.19083,-0.023435,0.030389,0.064844,0.017909,-0.35963
0.0057571,0.20977,0.37395,0.021313,-0.0087946,0.005367,-0.096083,0.32836
-0.20756,-0.54119,-0.50949,-0.064855,-0.0016964,-0.023799,0.13625,-0.4247
0.077427,0.27645,0.17297,0.069611,-0.07304,-0.19461,-0.41446,0.065579
-0.042452,0.020763,-0.087879,0.018256,0.066588,0.11791,0.15369,-0.13825
0.18706,0.028641,0.058455,0.0072849,0.026914,0.030993,0.31212,-0.057633
-0.096786,-0.11901,0.22843,-0.002805,-0.0042702,0.021292,0.085637,0.082992
0.0081008,-0.24643,-0.24253,-0.12965,-0.073672,-0.098564,-0.065099,0.58872
0.058463,0.22848,0.1061,0.11072,0.037468,0.023117,-0.31375,-0.2699
0.17151,0.082206,-0.054314,0.0070765,0.047742,0.19897,0.30552,0.21087
-0.061037,0.0035127,0.025551,-0.050187,-0.035344,-0.078672,-0.42169,-0.17579
-0.15844,0.11648,-0.037958,0.0090848,0.014366,-0.10643,0.22782,-0.42949
0.14042,0.0040543,0.012053,-0.0027558,-0.022323,-0.016787,0.11072,0.6588
-0.34863,0.068106,0.13572,0.0078638,-0.036447,-0.16084,-0.14175,-0.50726
0.30053,0.26492,0.37946,0.10322,0.065431,0.23533,0.032748,0.1098
0.05469,-0.6201,-0.77224,-0.091947,0.0018917,0.078403,0.36998,0.39364
0.031078,-0.041649,-0.013867,-0.023181,-0.023945,0.017056,-0.32244,-0.3859
-0.34636,-0.092379,-0.047053,-0.010938,-0.035356,-0.15968,-0.06374,-0.55683
0.05116,0.30955,0.61451,0.093244,0.038262,-0.045881,-0.1692,0.49379
-0.13091,-0.45528,0.10568,-0.015087,0.017598,0.045364,0.069452,0.16274
0.37031,0.549,-0.51707,-0.12453,-0.065705,-0.011749,-0.17151,0.13729
0.05138,0.0075484,0.091294,0.062421,0.046507,0.17247,0.61065,-0.23887
-0.076845,-0.099567,-0.17799,-0.039427,-0.020524,-0.16853,-0.3024,0.18169
0.15097,0.28324,0.5656,0.12532,0.077063,0.15192,0.11833,-0.07247
-0.27348,-0.31454,-0.45988,-0.067739,-0.059175,-0.16361,-0.092711,0.0015982
0.069673,-0.021782,0.017805,0.0067491,0.031624,0.11133,0.23005,-0.22038
0.0055663,0.24252,0.1378,-0.02609,-0.11156,-0.24946,-0.053002,-0.083502
-0.13333,-0.10454,0.015788,0.091456,0.1519,0.31738,-0.30726,0.22161
-0.0067225,-0.15237,0.15833,-0.0393,-0.037256,-0.0228,0.049124,0.50304
0.030737,-0.1367,-0.24784,-0.090545,-0.10066,-0.20597,-0.071125,-0.47875
0.21095,0.1154,0.047151,0.062425,0.063598,0.050678,0.091406,-0.2447
-0.10841,-0.10381,-0.33117,-0.072812,-0.067551,-0.0093701,-0.13878,-0.27621
0.071898,0.12429,0.48544,0.097316,0.076473,-0.025892,0.12702,0.57134
0.20528,-0.078299,-0.20491,-0.021101,0.011356,0.22789,0.012436,0.54568
-0.26155,0.30016,0.01288,0.0014189,0.041567,0.056198,0.42163,-0.22853
-0.22453,-0.082007,-0.087314,-0.030736,-0.052158,-0.22948,-0.60234,-0.49165
-0.12571,-0.061038,0.17377,0.022639,0.002872,0.049203,0.14523,-0.14594
0.19478,0.11036,0.13855,0.020396,-0.020771,-0.038863,0.11642,-0.076197
0.15424,-0.18966,-0.21849,-0.0067873,0.001075,-0.073018,0.10469,0.083731
0.16896,0.025323,0.022122,-0.028188,0.0052359,0.070851,0.12063,0.29357
0.044318,0.41347,0.21759,0.088623,0.038176,0.025026,-0.19307,-0.12908
-0.26762,-0.50681,-0.21941,-0.10962,-0.072076,-0.038874,-0.26362,-0.048876
-0.11324,-0.21544,-0.054677,0.017877,0.02625,0.07435,0.19409,0.51797
0.097433,0.28625,-0.20106,-0.028418,-0.017954,-0.096314,-0.087497,0.10696
0.17265,-0.086914,0.17203,0.010036,0.006859,0.12874,0.18879,0.14987
-0.11817,0.42536,0.12254,0.08723,0.10135,0.15571,-0.30286,-0.86771
0.010948,-0.35298,0.028939,-0.038149,-0.05416,-0.20278,0.050558,-0.38167
-0.058791,-0.011598,-0.090171,-0.037228,-0.052889,-0.13381,-0.03584,-0.12337
0.13377,0.20344,0.12657,0.028015,0.011834,0.043163,0.51986,0.56045
-0.018662,-0.25144,-0.17172,0.0093811,0.05437,-0.022204,-0.2796,0.77789
-0.19987,0.16518,0.11586,-0.01505,-0.073527,0.10906,0.020223,-0.37728
-0.10042,-0.076677,0.12036,-0.0065004,0.034483,0.024349,-0.19009,0.11925
0.019012,0.0077055,-0.26224,-0.0044742,-0.02004,-0.033015,0.19002,-0.48878
0.28771,0.31637,0.16859,0.045222,0.036256,-0.015585,0.20607,-0.29301
0.028721,-0.10455,-0.011302,0.048401,0.05477,0.060869,-0.20545,0.51403
0.016167,-0.33394,-0.20969,-0.13585,-0.081911,-0.085779,-0.16972,0.21697
-0.23583,-0.18478,0.10409,-0.00763,-0.077174,0.0039325,-0.084248,-0.66471
0.23032,0.18656,0.063139,0.065981,0.11557,0.078167,-0.18942,0.59956
0.12895,0.13959,-0.065957,0.014896,0.042899,0.17411,0.57938,0.28697
-0.13044,0.096429,-0.00068993,-0.066893,-0.11579,-0.36608,-0.48717,-1.1151
-0.25467,0.12749,0.041347,0.047316,0.045462,0.0894,0.34555,0.019928
-0.05833,-0.032943,0.053066,0.0058917,0.0029442,0.071543,-0.15071,0.41069
0.099096,-0.18193,-0.020111,0.00383,-0.048285,-0.1457,0.46559,0.72677
0.01621,0.094425,0.079133,0.079651,0.1025,0.1654,-0.13905,-0.23141
0.078863,-0.22734,-0.017301,-0.10325,-0.013611,0.068915,-0.33007,-0.21946
-0.17035,-0.24089,-0.029178,0.0091562,-0.052919,-0.16782,0.21522,0.030151
0.1389,0.10059,-0.25415,-0.028904,-0.030994,0.027033,-0.28014,-0.25307
0.2665,0.34338,0.11219,0.024592,0.021109,0.09993,0.33173,0.18609
0.095861,0.40012,0.36704,0.12298,0.080274,-0.096978,-0.23545,0.21516
-0.31143,-0.33324,-0.45749,-0.20192,-0.095273,0.05348,-0.1085,-0.74845
-0.16059,-0.28967,0.053816,0.050735,0.065231,-0.0039657,0.041041,-0.10547
-0.14188,-0.058771,0.027063,-0.016573,-0.10186,-0.12191,-0.48896,0.017488
0.16368,0.17644,-0.060475,0.018863,0.1069,0.38584,0.77793,0.6881
0.30825,0.35908,0.35377,0.079455,-0.019256,-0.38051,-0.11442,0.45573
-0.053661,0.0043361,0.26134,0.048137,-0.035044,-0.07062,-0.12616,-0.57917
0.07724,-0.24538,-0.49516,-0.051969,0.043713,0.15054,0.49696,0.19596
-0.17354,-0.53448,-0.1124,-0.034032,-0.0020778,0.079329,-0.04147,0.51623
-0.2496,0.080369,-0.013348,-0.078593,-0.047831,-0.057715,-0.016635,-0.68853
-0.10926,0.26212,0.12179,0.040075,0.031051,0.16172,-0.64145,-0.48705
0.21151,0.12642,0.082294,0.055718,-0.00011364,-0.15989,0.12305,0.12547
0.12181,-0.056605,0.0096774,0.093047,0.05384,-0.052469,-0.00096584,0.07994
0.076768,0.10536,-0.055629,-0.15251,-0.13517,-0.069092,0.041192,0.38955
0.17859,0.24354,-0.14335,-0.032022,0.073716,0.096639,-0.019604,-0.030827
-0.21418,-0.068525,0.28694,0.033412,0.0089814,0.086868,0.32432,-0.06941
-0.14266,-0.18123,-0.30291,-0.072511,-0.063322,-0.21458,-0.48008,-0.43518
0.10131,0.077803,0.26707,0.19007,0.11501,0.16911,0.12349,0.1917
-0.024123,-0.49315,-0.1285,-0.053337,-0.049476,0.018493,0.28317,0.33795
0.12733,0.42194,0.095353,0.033361,0.013656,0.07418,-0.17643,-0.17789
-0.05471,-0.045419,0.054547,-0.011029,-0.039372,0.029211,0.096598,0.15297
-0.21052,-0.17476,0.068101,-0.062069,0.041267,-0.22057,0.70805,0.069503
-0.16661,-0.11024,-0.45873,-0.065803,-0.065014,0.0020722,-0.80964,0.37092
0.39983,0.23207,0.059463,0.039522,0.063335,0.14056,0.12111,-0.18251
-0.10224,0.022307,0.083653,0.034521,-0.034963,-0.13424,-0.42224,-0.69497
0.0091935,0.04681,0.15334,-0.0031184,-0.055541,0.044891,0.31877,0.070218
0.1417,0.22281,0.30046,0.098283,0.14195,0.030539,-0.15287,-0.066032
-0.15001,-0.23018,-0.28679,-0.051838,-0.013025,0.043265,0.35617,0.26247
0.062449,0.030029,-0.0061989,-0.08599,-0.075283,-0.094333,-0.23145,0.2941
0.065827,0.054737,-0.15417,0.035395,-0.013615,0.0029261,0.19679,-0.66741
-0.18178,-0.30105,-0.12102,-0.10894,-0.046714,-0.0066195,-0.27617,-0.17752
0.035618,0.052006,0.14018,0.098799,0.067741,0.050401,0.15223,0.63551
0.083148,0.21185,0.2854,0.026275,0.0096152,-0.083099,0.19095,0.3966
0.037983,0.066966,-0.16253,0.11903,0.091604,0.40533,-0.18598,0.29524
-0.091677,0.10919,0.1392,-0.052653,-0.068905,-0.33656,-0.09153,-0.67229
-0.29635,-0.62873,-0.17773,-0.12968,-0.049811,0.088656,0.13335,0.12638
0.41879,0.2703,-0.10654,0.043818,0.031976,-0.14817,-0.0023784,-0.28059
-0.23226,-0.049171,0.05518,-0.016938,-0.034137,-0.047794,-0.30398,-0.11547
0.089297,0.14345,0.17443,0.015882,-0.029001,0.014395,0.28104,0.11966
0.026148,0.062379,-0.13115,-0.0063051,0.039971,0.061791,-0.0087728,-0.19181
-0.030211,0.045399,-0.016771,0.018064,0.032469,0.055434,0.071989,0.11016
0.21663,0.14723,0.050305,0.065666,0.05021,0.073474,0.17456,0.3839
-0.094309,-0.20421,-0.068843,-0.074267,-0.070932,0.021925,0.10672,-0.11933
0.065918,-0.10587,0.057085,0.012497,0.0046841,-0.076337,-0.76027,0.23596
-0.22695,-0.0618,-0.055063,-0.056737,-0.035938,-0.065894,0.14171,-0.42202
-0.037268,-0.044979,-0.06095,0.054002,0.033124,0.044491,0.030974,-0.59025
0.040272,0.33148,0.21112,0.02432,0.015856,-0.15231,0.35407,0.74149
-0.025423,-0.075802,0.18209,0.0024619,0.0053234,0.23367,0.2151,0.27014
0.016724,0.036492,-0.32139,0.011583,0.0087583,-0.032235,-0.34354,-0.14387
0.012058,-0.22989,-0.012032,-0.12051,-0.099247,-0.12182,-0.29484,0.50836
0.18874,0.040841,0.030375,0.090243,0.087377,0.098183,0.15365,-0.3886
-0.02243,0.062679,-0.093926,0.03427,0.0062069,-0.098015,0.3485,-0.96445
-0.30084,-0.22295,0.075211,-0.046308,-0.037734,0.0092972,-0.067553,0.03545
0.28256,0.41471,0.10787,0.043944,0.042059,0.069589,-0.1791,0.30443
0.054436,-0.23921,-0.058212,-0.054029,0.011956,0.1854,0.16299,0.50472
-0.17466,0.060421,-0.031818,-0.0037996,-0.056887,-0.28307,-0.25197,0.10989
0.15577,0.01057,0.078451,-0.062592,-0.054258,0.086644,0.34163,0.20824
-0.065306,0.13488,0.14844,0.098303,0.028361,-0.14261,-0.45487,-0.4903
-0.17471,-0.21626,-0.50074,-0.020647,0.042982,0.13077,-0.18098,-0.59973
-0.1881,-0.045079,0.27221,0.049553,0.052207,0.094045,0.56089,0.25481
0.37191,0.20028,0.10062,0.035441,0.055753,0.020126,0.027125,0.67234
-0.26672,-0.2253,-0.12463,-0.16484,-0.15013,-0.16204,-0.01878,0.00086451
0.3742,0.3632,0.10431,0.04979,-0.0037713,-0.01582,-0.12641,-0.14523
0.03849,-0.090489,0.084216,0.077169,0.064231,0.059501,0.005883,0.49171
0.001029,-0.13363,-0.17726,-0.052025,-0.017213,-0.014919,-0.10917,-0.63095
-0.28381,-0.27318,-0.070792,0.060208,0.056062,0.14327,0.13548,-0.68316
0.067893,0.274,0.28663,-0.00041389,-0.012989,-0.0051126,0.035308,0.22544
-0.31004,-0.19279,-0.27642,-0.11665,-0.10698,-0.10824,-0.15996,-0.049274
0.23161,0.20369,0.1001,0.032096,-0.022298,-0.16547,-0.22299,0.46041
0.22443,-0.03528,-0.098742,0.0088021,0.069852,0.11314,0.26964,0.1282
-0.42575,-0.081815,-0.091242,-0.076678,-0.033023,-0.083999,-0.086399,-0.14391
0.38902,0.25732,0.23975,0.13538,0.091378,0.14228,0.24208,0.30655
0.080352,0.064327,0.065389,0.051288,0.052533,0.10475,-0.0089097,-0.23913
-0.026849,-0.16563,0.0014491,-0.040136,-0.056054,0.021923,0.2479,0.06453
-0.076714,-0.0078451,-0.0086803,-0.014428,-0.0083188,-0.075682,-0.27541,-0.11364
-0.13483,-0.075719,-0.19362,-0.051954,-0.054845,-0.079693,-0.28077,0.29095
0.015588,0.12864,0.085511,-0.0049154,0.0070179,0.016715,-0.0011091,0.022546
-0.00081609,-0.19898,0.085548,0.04033,0.012993,-0.068407,-0.098884,-0.32054
-0.17475,-0.24278,-0.091909,-0.07255,-0.075869,0.00064237,0.33362,-0.51048
0.23913,0.48732,-0.19575,0.086437,0.092409,0.067872,-0.13246,0.061199
0.041977,-0.16542,0.10411,-0.03675,-0.020631,-0.03795,0.1666,0.76642
-0.11302,-0.052637,0.067909,-0.011547,0.0075255,0.027756,-0.10698,0.098826
-0.057438,0.051303,0.033899,0.084872,0.075842,0.13298,0.31695,-0.67187
0.17293,-0.044082,0.089788,-0.12164,-0.088821,-0.14358,-0.26903,-0.18202
-0.26407,-0.21969,-0.036997,-0.013291,-0.0098779,0.057743,0.20077,-0.12502
0.38912,0.5856,0.067476,0.058577,-0.0078845,-0.091208,-0.39474,0.44189
0.146,0.1173,-0.16809,0.13283,0.10422,0.088993,0.10607,1.0024
-0.46571,-0.50641,0.082918,-0.1036,-0.064722,-0.0035919,-0.062663,-0.60631
-0.075355,0.20652,-0.048355,-0.010949,-0.0074119,-0.0099474,0.10114,-0.22418
0.26574,-0.16566,-0.039915,-0.012043,0.0023308,-0.00062823,0.15635,0.017206
-0.086917,0.066274,-0.025573,0.0016334,-0.020052,-0.077266,-0.11794,0.16618
0.10607,-0.16373,0.033259,0.029463,0.011414,-0.0053954,-0.14524,-0.0068384
-0.21135,-0.17659,-0.04313,-0.085098,-0.020241,0.074536,0.0019348,-0.10059
0.054712,0.2721,0.12834,-0.029519,-0.020957,-0.048259,-0.16454,-0.44098
0.24956,0.13204,0.0011596,0.087091,0.04862,0.063729,0.51327,-0.12803
-0.13195,0.088578,0.12255,0.030735,0.024605,0.011875,-0.16889,-0.23287
-0.23492,-0.063275,-0.16346,0.028346,0.016381,0.030178,0.097746,0.23841
-0.055763,-0.26351,-0.067578,-0.0057346,0.0081758,-0.030265,0.19806,0.53664
0.34627,0.14812,-0.011419,-0.047897,-0.023682,-0.021431,-0.25733,0.31457
0.067467,-0.0058044,0.060044,-0.043355,-0.071594,-0.076342,-0.19638,0.1793
0.070307,0.001595,-0.0012146,0.047037,0.044036,0.078519,0.21241,-0.55091
-0.30885,-0.0031069,0.023991,-0.042226,-0.051711,-0.095536,-0.30635,0.28701
-0.00033222,0.21915,0.011035,0.017154,0.039855,0.027055,-0.29884,-0.32048
-0.13846,-0.21864,0.061715,0.02226,0.022211,0.040619,0.47222,0.22847
0.11829,-0.055537,-0.14423,0.027978,-0.002733,-0.0075713,-0.090546,-0.5022
0.056281,-0.038203,0.0024189,-0.051493,-0.019119,0.093491,0.25948,-0.069835
0.18034,0.15781,0.14198,0.026069,0.027784,-0.02368,0.11968,0.48129
0.0031701,0.030099,-0.13224,0.002762,0.012804,-0.00030608,0.15644,-0.37959
0.069163,-0.10182,0.062119,-0.035687,-0.033161,-0.048028,-0.4341,0.095181
-0.30298,-0.033899,-0.040969,0.043234,0.030063,-0.011177,-0.17576,-0.054207
-0.10581,0.1114,0.15202,-0.018629,-0.032334,-0.022807,0.10225,0.43263
0.1461,0.11919,-0.062029,0.028401,0.03716,0.050122,-0.11703,-0.49704
0.048859,-0.27149,-0.10465,-0.0034196,-0.042794,-0.072936,0.09483,0.17991
-0.1286,-0.12613,-0.084637,-0.082952,-0.037654,-0.0081195,0.36964,0.18647
0.023622,-0.049985,0.014416,0.032039,0.021719,0.011365,-0.090229,0.4375
0.25101,0.31125,0.16982,0.083949,0.049923,0.088091,-0.34775,0.16538
-0.11595,0.044255,0.0071189,-0.067507,-0.038412,-0.01953,0.19057,-0.60222
0.0018967,0.12409,-0.12196,-3.9921e-05,0.054067,0.032289,0.0012506,-0.61915
-0.083457,-0.085546,0.055753,0.0055299,-0.0082741,0.00079583,-0.032705,-0.10722
-0.03015,0.035523,0.3365,0.0042658,-0.05348,-0.060375,0.073447,0.048832
0.13545,-0.11161,-0.42117,0.0042437,0.043304,0.027127,-0.054777,0.73074
0.23805,0.062376,0.055372,-0.025679,-0.03075,-0.027127,-0.088662,0.12498
-0.4913,-0.45313,-0.093844,0.062866,0.020781,-0.0055435,0.32392,-0.22337
0.13226,0.028689,-0.080064,-0.066298,-0.029165,-0.049514,-0.24632,-0.10636
0.021325,0.46239,0.28416,0.055211,0.029865,0.028172,-0.1977,0.35469
0.10554,-0.047372,-0.008883,-0.026178,0.0021508,0.071453,0.06315,0.32716
-0.074668,-0.27004,0.0018657,-0.029668,-0.026655,-0.020633,0.10556,-0.59118
0.069211,0.24371,0.12118,0.044353,0.044871,0.080944,0.19352,-0.042965
-0.0142,-0.010663,-0.26809,-0.0075169,-0.017624,-0.13054,-0.12823,-0.79338
-0.33706,-0.062472,0.029443,-0.013537,-0.03429,0.010105,0.27078,0.51985
0.087971,-0.012887,-0.072041,-0.028381,-0.020472,-0.050752,-0.33796,-0.23925
0.27838,0.043248,-0.025491,-0.012853,0.024168,0.039277,0.1461,0.43453
-0.085807,-0.099403,0.15364,0.056705,0.045287,0.069738,-0.11247,0.31911
0.29886,0.40015,0.17639,0.078991,0.027563,-0.029619,-0.041121,0.37069
-0.015482,-0.29667,-0.13693,-0.10198,-0.028774,0.13147,-0.4172,0.31739
-0.14923,-0.15275,0.1355,0.0062408,-0.053253,-0.17429,0.42838,-0.58223
-0.23046,0.16705,-0.26414,-0.0023748,0.024531,0.060007,0.126,-0.60055
-0.17541,-0.39153,-0.062232,-0.057325,-0.029754,-0.018187,0.10237,-0.7666
-0.00054827,0.11828,0.022844,0.06026,0.018254,-0.08161,0.032812,0.57951
0.3416,0.36254,0.046294,-0.0011576,-0.011207,-0.044989,-0.53422,0.012466
-0.037832,-0.063023,0.15706,0.047394,0.069213,0.16937,0.58825,0.67663
0.18384,0.13211,0.074176,0.0025877,0.0092917,0.045661,-0.36791,0.12823
-0.17844,-0.059281,-0.218,-0.049912,-0.050609,0.029198,0.10878,-0.56429
-0.23208,-0.21559,-0.032374,-0.016633,-0.0013717,-0.1923,-0.072915,0.71845
0.34443,0.16995,0.44287,0.039707,-0.022886,0.022207,-0.12195,-0.063505
-0.22213,-0.40417,-0.60561,-0.029432,-0.0058858,-0.037644,0.26058,-0.34236
0.20033,0.20082,0.19638,-0.020903,0.018372,0.16792,-0.047637,-0.34686
-0.10066,0.029838,0.082555,0.034165,0.018701,-0.040046,0.29323,-0.061319
-0.11155,0.12775,-0.041251,-0.028133,-0.0048008,-0.074925,-0.11748,-0.2555
0.14972,0.10984,0.059191,0.0032615,-0.012991,-0.014345,-0.47532,0.5238
-0.10811,0.021422,0.063669,0.073683,0.041041,0.0091202,0.033909,0.17139
0.14437,-0.029096,-0.23063,0.011154,0.024468,0.21414,0.312,0.069635
-0.27377,-0.4792,0.059576,-0.14547,-0.14088,-0.26689,-0.55865,0.1577
0.36353,0.46136,0.19268,0.15042,0.10743,0.096578,0.50441,-0.41365
-0.23257,-0.29092,-0.072912,-0.077956,-0.043105,-0.11823,-0.0031139,-0.48647
-0.04547,0.0017159,-0.15067,-0.002561,0.016905,0.079907,0.19439,0.23579
0.18421,0.1791,0.04583,0.064185,0.084435,0.33071,0.48821,0.14807
-0.18999,-0.16909,0.0090975,-0.13525,-0.12159,-0.25705,-0.67678,0.27418
0.21694,0.35077,0.10646,0.063656,0.024055,-0.19921,-0.34831,-0.046037
-0.11624,-0.22049,-0.076188,0.020812,-0.017405,0.059258,0.18405,0.37501
0.054568,0.2502,0.27343,0.06488,0.074622,0.15986,-0.23558,-0.42609
-0.22226,-0.45709,-0.41527,-0.069342,-0.043376,-0.052365,0.38646,0.20365
0.24943,0.26465,0.09181,-0.0066182,0.011561,-0.0056163,0.34159,-0.14403
-0.26462,-0.15802,-0.0023984,-0.012574,-0.033989,-0.050056,-0.34398,-0.53831
0.21141,0.22465,-0.026127,0.01411,0.0073411,-0.020588,-0.15983,0.35437
0.08233,-0.035836,0.20026,0.018287,0.018084,0.083234,-0.033756,-0.19798
0.064849,-0.14515,-0.057668,0.014972,0.029099,0.050222,0.41784,0.44398
-0.022971,0.066942,-0.03434,0.0034962,0.047757,0.027901,-0.28221,-0.15575
-0.47228,-0.079817,0.059256,-0.016761,-0.12167,-0.032017,0.19221,-0.19001
0.25441,-0.022484,-0.11281,0.0084208,0.036137,-0.16241,-0.2247,-0.055829
0.32039,0.33398,0.019895,-0.030566,0.028843,0.2055,0.1426,0.25321
-0.47739,-0.39923,-0.13616,-0.086817,-0.088829,-0.21069,-0.16367,0.083208
0.3385,0.092433,0.10679,0.058681,0.034866,0.0024751,-0.030898,0.072657
-0.19933,0.17806,0.16303,0.10948,0.064264,0.16533,0.33371,0.09034
-0.13615,-0.26582,-0.21738,-0.074541,-0.039412,-0.034076,-0.20576,-0.029026
0.32637,0.4493,0.24669,0.077425,0.067838,-0.0088241,-0.096423,-0.7095
0.025237,-0.30892,-0.038801,-0.074797,-0.04348,-0.078044,0.12244,0.67281
0.11723,0.053304,-0.16016,-0.023002,0.0017901,0.10323,0.13202,0.40889
-0.28828,-0.026791,0.022942,0.05346,0.0084933,-0.010795,-0.30674,-0.82317
-0.10579,-0.057413,-0.028677,-0.056062,-0.085683,-0.028686,0.46703,0.11266
-0.15632,-0.28902,-0.057137,-0.023241,0.01635,-0.067176,-0.29888,-0.51051
0.36396,0.37942,0.2112,0.034805,0.010092,0.022224,-0.47356,0.11443
0.15725,0.20511,-0.090643,0.03982,0.036249,0.067284,0.13589,0.6702
-0.21482,-0.18773,0.0061439,-0.00076786,0.04002,0.075099,0.3694,-0.38891
0.090736,-0.01088,-0.068949,-0.017298,-0.0023928,-0.080318,0.13494,0.39531
-0.16877,-0.12454,-0.0039266,-0.018459,-0.060341,-0.048538,0.37688,0.28072
0.03777,0.064435,0.075444,0.002567,-0.0017804,-0.041634,-0.59595,-0.10485
-0.10965,-0.061424,0.17609,0.037002,0.031858,-0.013734,-0.28161,-0.11399
0.27246,0.13087,-0.24181,0.013776,0.03208,0.12814,0.12517,0.070737
-0.064926,-0.1081,0.21195,0.034068,0.021922,0.086679,0.39815,-0.54522
-0.26919,0.011679,-0.26709,-0.12076,-0.10799,-0.2007,-0.20363,-0.19607
0.30125,0.22574,0.087637,-0.020358,-0.0056346,0.157,0.04954,-0.0028144
-0.10288,-0.13659,-0.097267,0.031701,0.040796,-0.042549,0.42144,0.30047
