0.083102,-0.29146,-0.61991,0.10669,-0.079711,-0.32464,0.32636,-0.086545
0.18507,0.30379,0.51811,-0.26186,0.038654,0.26874,-0.73224,0.026129
-0.15969,-0.70369,-0.83292,0.052956,-0.00025584,0.010529,0.14468,0.33921
0.094308,0.45404,0.57883,-0.058833,0.029974,-0.028678,0.35746,0.10139
-0.39734,0.028509,0.39638,0.1139,-0.11275,-0.10623,-0.19269,-0.54729
0.12348,-0.19071,0.15337,0.119,0.12657,-0.0028628,0.26276,0.049746
0.072063,0.27229,-0.28889,-0.17471,-0.032793,0.15679,-0.23487,0.19053
0.028364,-0.36557,-0.64016,-0.13239,-0.043394,-0.15848,-0.012771,-0.42006
-0.060431,0.19752,0.037386,0.0057727,-0.014062,0.058712,0.4752,0.39957
0.057038,0.23911,0.79784,0.22574,0.039964,0.15903,-0.65614,0.21347
0.092086,-0.018304,-0.43048,-0.041987,0.040683,0.14127,0.89426,0.014644
-0.10453,-0.68023,0.1083,0.0070798,-0.027706,-0.32399,-1.0731,-0.30641
0.23094,0.64846,0.57605,0.16866,-0.0094229,-0.14405,0.28178,-0.055358
-0.052432,0.12963,-0.88858,-0.19974,0.02455,0.18836,0.72942,0.11006
-0.011764,-0.51873,0.15835,-0.084649,-0.035902,-0.17041,-0.61404,-0.04614
-0.1331,0.024421,0.021056,0.21512,0.06639,0.4679,0.26785,0.38105
-0.22146,0.09715,-0.050062,-0.27824,-0.020535,-0.122,-1.0675,-0.40575
0.060353,0.14796,-0.31183,0.083385,-0.12486,-0.39954,0.6963,0.23461
0.097828,0.071265,0.97126,0.25383,0.05063,-0.042953,0.54044,-0.36045
0.074192,0.058411,-0.59063,-0.47628,-0.0012427,0.32388,0.0080828,-0.063685
-0.0069482,-0.46527,0.11984,0.1685,0.079756,0.099904,-0.69469,0.13519
-0.025578,0.15913,-0.21032,0.15903,0.0054621,-0.28542,0.33186,0.22257
-0.027214,0.32383,0.76178,0.067341,-0.012394,0.54986,0.30604,-0.19116
0.042344,-0.2364,-0.52712,0.16011,-0.027933,-0.497,-0.74291,0.24511
0.36828,0.063541,-0.50687,-0.27331,-0.040884,0.096334,0.97878,0.45139
-0.2328,-0.028252,0.61237,-0.13179,-0.043491,0.063674,-0.9778,-0.73151
-0.34343,-0.092629,-0.51918,-0.056944,0.073255,-0.094706,0.62601,-0.056847
0.14157,0.10942,0.22591,0.33272,0.11341,-0.065149,-0.369,0.30065
0.10181,0.0043567,0.11585,-0.21429,-0.0097762,0.029104,-0.0196,-0.25451
0.17637,-0.027866,-0.066148,0.14426,-0.094053,-0.24763,0.50124,0.23834
-0.32967,-0.075287,0.063611,-0.085229,-0.15587,-0.23013,-0.33788,-0.35243
0.039075,0.48605,0.48119,0.033531,0.11659,0.96433,-0.18473,0.24895
0.13006,-0.42178,-0.19796,0.038706,0.05879,-0.09561,0.071277,0.12351
-0.45851,-0.39895,-0.31223,-0.13269,0.021988,0.11823,0.080133,-0.25722
0.57458,0.31473,-0.62982,0.011505,-0.0095626,-0.3589,0.54667,0.48387
-0.072008,0.058092,0.4957,0.018645,-0.059284,-0.35865,-0.51955,-0.47259
-0.076204,-0.11132,0.76643,0.24902,0.013601,0.054256,0.22699,0.083991
-0.078803,0.40252,-0.2863,-0.16324,0.060945,0.30933,-0.53227,0.027001
0.4104,0.17911,-0.52856,-0.11505,-0.041811,-0.31008,-0.014414,0.041373
-0.35408,-0.57809,-0.49766,-0.011029,-0.012833,0.27034,0.50063,0.20998
-0.032374,0.23982,0.44891,-0.060639,-0.04674,0.05567,-0.23645,-0.3061
0.082825,-0.33695,0.66407,0.12002,-0.0099717,-0.58189,0.31316,0.014236
-0.16736,-0.0049863,-0.37518,0.16426,0.051318,0.60362,-0.39099,0.06045
0.067497,0.17191,0.50231,-0.17814,0.020559,-0.64398,-0.062261,0.17663
0.12383,0.28631,-0.43948,0.092001,0.10916,0.82273,0.80405,-0.22904
-0.17607,-0.045603,-0.17909,0.043715,-0.026306,0.35183,-0.16248,0.19051
0.13954,0.10516,0.25839,0.23817,-0.073124,-0.21803,-0.98018,-0.41989
0.050587,-0.36324,-0.76843,-0.54442,-0.085837,-0.36105,0.49004,0.069104
-0.25235,-0.4037,0.45953,0.047024,-0.15031,-0.40184,-0.11124,0.2002
0.1157,0.64081,0.29505,-0.12799,0.15528,-0.030027,-0.094976,-0.11826
0.077435,-0.15819,-0.26809,0.29834,0.1275,-0.041942,0.48701,0.37932
0.16342,0.15381,-0.0019607,0.084563,0.04695,0.24486,0.26347,-0.23121
-0.1206,0.015569,0.22691,-0.065667,-0.017078,-0.087551,-0.73013,0.51476
0.019257,-0.50166,0.34796,0.19145,-0.12058,0.58174,0.69791,-0.39572
0.032781,0.26658,-0.37422,-0.050803,0.11002,-0.21372,-0.54238,-0.11618
-0.29393,0.39038,0.020005,-0.32458,-0.21717,-0.098775,-0.21372,-0.50212
0.12301,-0.22482,-0.56422,0.11907,0.084407,0.11987,-0.33806,0.19437
0.15781,-0.041235,0.45084,-0.11146,0.076795,0.24335,0.6622,0.46548
-0.39994,-0.23231,-0.074958,0.022153,-0.060282,-0.17768,0.15911,-0.31197
0.43571,-0.049714,0.4534,0.30075,-0.029469,-0.74807,0.33471,0.37289
-0.22368,0.37994,-0.69681,-0.15073,0.12317,0.38213,-0.15441,-0.29676
0.13205,-0.23381,-0.25844,0.011689,0.0080495,-0.14598,-0.41831,0.22926
-0.042024,0.397,1.0194,0.046398,-0.022136,0.19354,0.050541,-0.42927
0.107,-0.33767,-0.11328,-0.069147,-0.05995,0.178,-0.41813,0.33866
-0.17814,-0.039428,0.03778,-0.13842,-0.10423,0.10088,0.50848,0.049352
0.35239,0.39395,-0.5448,0.2541,0.14297,0.19293,-0.19244,-0.039467
-0.29424,-0.52056,-0.19118,-0.44474,-0.11434,-0.76133,0.4523,0.25136
-0.32204,-0.22634,0.13586,0.30547,0.10885,0.27143,-0.23696,-0.86784
0.39308,0.38809,0.77103,0.17757,0.14874,0.58888,-0.18755,0.61032
-0.23558,0.21523,-0.87983,-0.039058,-0.20572,-0.66873,-0.36485,-0.17366
0.35391,-0.20464,0.98844,-0.14947,-0.017533,0.18476,0.39018,0.061536
-0.026355,0.26936,-0.75578,-0.060953,0.017195,-0.063651,0.03128,0.23008
-0.17346,-0.25406,-0.57963,0.014073,0.061478,-0.18998,-0.085103,-0.24632
-0.040538,-0.14345,0.56545,0.25357,-0.073376,0.12318,0.43999,-0.19639
0.099164,0.37307,0.45407,-0.18006,0.072326,0.45092,-0.077105,0.25372
-0.11334,-0.19795,-0.69466,-0.085086,0.020824,-0.037804,0.16053,0.4696
0.025583,-0.044439,0.6264,-0.032753,-0.057045,-0.18138,-0.56835,-0.45687
0.071097,0.021685,0.54083,0.24998,0.087954,-0.16893,0.18605,-0.19931
-0.078049,-0.060422,-0.38269,-0.16643,-0.13051,-0.1728,-0.7116,-0.11843
0.12502,-0.30398,-0.6531,0.023241,0.029779,0.33904,0.94938,0.5586
-0.077854,0.38737,-0.73915,-0.086408,-0.055714,-0.35027,-0.16405,-0.38676
0.11733,0.13298,0.45417,0.10714,0.12945,0.11334,0.24362,0.51527
-0.18091,-0.097304,0.44475,-0.0045684,-0.077721,0.17781,-0.70045,-0.58528
0.19067,0.024318,0.83679,0.094904,0.10519,0.40782,0.12611,-0.20212
-0.1982,-0.097748,-0.58606,-0.21097,-0.11755,-0.58589,0.47293,0.40093
0.15235,-0.25566,0.52952,0.32835,0.091043,0.048663,-0.39352,0.12364
-0.21044,0.46084,-1.0888,-0.21631,-0.065092,0.20176,0.78551,0.10722
0.17522,0.4151,0.31757,-0.10225,0.016185,0.044479,-0.93536,-0.22676
-0.072304,-0.6616,-0.11829,0.085083,-0.01641,-0.064643,-0.13635,-0.08246
0.01701,-0.39612,-0.32605,-0.30236,-0.037933,-0.12616,-0.025468,0.23392
-0.040107,0.1957,0.41222,0.32141,-0.001929,-0.22612,0.52979,-0.24796
0.014898,0.20106,0.063118,0.2294,0.083015,0.11235,0.6119,-0.044978
0.2448,0.13795,0.17749,-0.25127,-0.018551,-0.15717,0.22259,0.17809
-0.11621,0.017005,0.492,0.096592,0.074938,0.64525,-1.0285,-0.21157
-0.06077,0.098735,-0.52339,-0.12725,-0.0049234,-0.1134,-0.12542,0.44297
-0.073788,-0.16948,0.062248,0.18488,-0.087208,-0.10578,-0.395,-0.32581
0.016218,-0.012965,-0.25624,0.078687,0.030747,-0.18459,0.54906,0.061811
-0.13465,-0.12669,-0.20013,-0.51649,-0.15871,0.070925,-0.29545,-0.18149
0.25496,-0.13607,0.25493,0.15775,0.13424,0.36317,0.96172,0.23496
-0.16635,0.48136,-0.27729,-0.022179,-0.073537,-0.60475,-0.43639,0.007729
0.10932,-0.32258,0.30424,0.23464,0.078705,0.06633,-0.34773,-0.01873
0.050481,0.3336,0.063172,-0.046528,-0.056242,-0.3881,0.44037,-0.2507
0.10175,-0.35588,0.14931,0.049766,0.11614,0.55643,0.0079503,0.22508
-0.41772,-0.016544,-0.57003,0.02417,0.049094,0.20494,-0.14266,0.08674
0.20147,0.13316,0.59818,0.0093665,-0.086032,-0.0058513,0.0070794,-0.074137
-0.10497,0.26636,-0.13279,-0.11259,-0.04812,0.29721,-0.50014,-0.20537
0.16127,-0.20855,-0.29519,-0.13186,-0.041645,-0.58368,0.32417,0.253
0.25668,-0.038686,0.41164,0.18483,0.06487,-0.018047,-0.37522,-0.16995
0.024556,-0.4162,0.012748,-0.069665,0.051627,0.32094,0.53792,0.32906
-0.2844,0.15391,-0.60855,-0.13024,-0.050673,-0.2694,0.57338,-0.13313
-0.3008,0.25153,0.51719,0.15923,0.00022203,-0.17727,-1.0656,-0.21186
0.18205,0.0486,0.25139,-0.13859,-0.084085,-0.17982,0.44705,-0.10807
-0.034381,-0.12098,-0.18298,0.53142,0.088185,0.39204,0.35789,0.12672
0.15624,0.57466,-0.85717,-0.43955,-0.028416,-0.089664,-0.25159,0.097773
-0.12496,-0.32311,0.1054,0.10546,0.044101,0.44902,-0.15138,-0.13671
-0.094625,-0.14063,0.61447,-0.12963,-0.0056127,-0.060582,0.25664,0.31662
0.38736,-0.28952,0.50259,-0.21435,-0.090984,-0.18162,-0.95134,-0.25186
-0.02618,-0.17968,-0.86652,0.22692,0.053593,-0.22145,0.3259,0.071628
-0.16941,0.7579,0.42464,0.053816,0.021163,-0.027889,0.33933,-0.035196
0.19992,-0.5302,0.026593,0.16441,0.16201,0.52728,0.22343,0.20568
-0.098172,0.29552,-0.05217,-0.19232,-0.16609,-0.66961,-0.043436,-0.56129
-0.047153,-0.056658,-0.31985,0.099173,0.082083,0.47189,0.63403,0.94904
0.028449,-0.16683,0.49604,-0.041148,-0.13383,-0.31579,-0.75072,-0.68056
-0.13747,-0.029499,-0.5352,0.0099025,-0.10363,0.037104,0.037895,0.15757
-0.12717,0.13295,0.33577,0.087022,0.17269,0.038977,-0.59254,-0.30212
0.019909,0.088256,0.21817,-0.27885,0.016178,-0.019828,0.03914,0.18445
0.0091524,-0.10142,-0.97377,0.038078,-0.040635,-0.044123,-0.011145,-0.1606
0.085974,0.029898,0.96325,0.18022,0.066372,0.54539,0.75708,0.29182
0.08075,0.11816,-0.76808,-0.28747,-0.083025,-0.2975,0.44455,0.14727
-0.15547,0.20461,0.54169,0.17665,-0.049908,-0.11163,-0.091631,-0.30992
0.42738,-0.32556,0.41311,0.051313,0.096363,-0.15484,-0.69863,0.13276
-0.023728,-0.06223,-0.57207,-0.029409,-0.050113,0.25262,-0.37249,-0.10311
-0.18663,0.079006,-0.090687,0.34867,0.12755,-0.16227,0.40679,0.089815
0.02299,-0.22853,0.77437,-0.1748,-0.066838,-0.1408,-0.081868,-0.0028258
-0.28128,0.34759,-0.43349,-0.29688,-0.0017412,0.42765,0.012218,0.19294
0.15453,-0.3268,-0.29349,-0.035266,-0.10829,-0.56488,-0.19315,-0.11604
0.1249,-0.2912,-0.42862,0.18629,0.088742,0.41408,0.85864,-0.065796
-0.0494,0.64871,0.90849,0.085201,0.018014,-0.0097722,0.014287,-0.08776
-0.3017,-0.025732,-0.2353,0.028103,-0.024152,0.038564,-0.64434,-0.28344
0.53253,-0.19567,-0.7102,-0.24262,0.016889,0.003668,-0.15202,0.30987
-0.45636,0.26194,0.52387,-0.085587,-0.10845,-0.41262,-0.12142,-0.047054
0.17676,0.013689,-0.13565,0.1096,0.045901,0.69446,0.21735,0.00085888
0.074448,-0.3076,0.50199,0.11728,0.019862,-0.6139,-0.12453,0.35528
-0.34648,0.25797,-0.087807,0.11757,0.048607,0.28657,0.6517,-0.40329
0.27543,0.0066661,0.23007,0.10252,0.10145,-0.064951,0.33502,0.55439
0.049701,-0.41956,-0.68618,-0.35044,-0.17294,0.059153,-0.97512,-0.64681
0.13755,0.2101,0.34801,0.14051,0.084734,0.18418,0.15491,0.20289
-0.11581,-0.38583,0.18938,0.019752,-0.078953,-0.7657,0.13408,-0.1249
-0.11097,0.31906,-0.42011,-0.12728,0.054323,0.28983,-0.42608,0.063089
-0.048482,0.13488,0.085916,0.012044,-0.031479,0.23508,0.24998,0.26499
0.07195,0.2951,0.14602,0.12603,-0.00074508,0.2109,0.47745,-0.16118
0.022983,-0.18517,-0.35082,-0.25272,-0.017722,-0.057479,0.025585,-0.059813
0.20249,0.23984,0.54316,0.10395,0.050361,0.37253,-0.21775,0.084989
-0.021396,-0.64324,-0.83126,0.22876,0.0082735,-0.86216,-0.48013,-0.10063
-0.090436,-0.40916,0.061981,-0.033521,0.0046267,0.26577,0.40346,-0.021039
-0.20088,0.29461,0.63146,-0.041903,-0.015031,-0.12203,-0.5563,0.18547
-0.061114,0.6226,-0.20331,-0.24204,-0.06605,0.019168,0.49665,-0.29909
-0.0015277,0.062748,0.43992,0.17763,0.047178,0.57169,0.50534,0.066209
0.04002,-0.070815,0.06995,0.20798,0.051506,-0.37725,-0.36014,0.11819
-0.18645,0.41027,-0.5518,-0.30086,-0.084054,0.073713,-0.62525,-0.11222
0.38033,-0.54706,0.13775,0.056142,0.031324,-0.25089,0.61359,0.40454
-0.09162,-0.51709,0.05299,0.035959,0.030576,-0.025797,0.49315,0.079802
0.39825,0.2261,0.15009,-0.12731,-0.078453,-0.31643,-0.99196,-0.54287
-0.098226,-0.033396,0.14824,0.26193,0.14169,0.91251,-0.1068,-0.076043
-0.078668,-0.21177,-0.67976,-0.16271,-0.090361,-0.23491,-0.017018,0.27475
0.11434,0.065213,-0.26503,0.17025,0.014324,-0.086366,0.54702,-0.015038
-0.46299,0.32757,0.3265,-0.25355,-0.020958,0.004903,0.82949,0.23473
-0.35423,0.75169,-0.42859,0.020199,-0.016653,-0.32405,-0.26276,-0.34121
0.32921,-0.55165,0.49342,6.7983e-05,-0.019783,0.14839,-0.92476,-0.2711
0.1426,0.21262,0.37891,0.061203,0.0085136,0.14311,-0.21773,0.24548
-0.052188,-0.15508,0.27441,-0.00015146,0.075752,-0.0018198,0.39301,0.21969
0.10766,-0.42581,0.016538,0.14275,-0.029422,-0.27579,0.28114,0.052413
0.015975,-0.0031814,-0.29894,0.12863,0.059679,0.48932,-0.01238,-0.12247
0.10458,-0.016018,0.22358,-0.052341,-0.016823,-0.23975,-0.09987,0.085176
-0.040002,-0.17718,-0.75704,-0.33927,-0.10305,-0.16607,-0.43528,-0.2719
0.26886,0.34918,-0.30803,0.10302,0.097728,0.53288,0.29406,0.27212
-0.46288,0.4236,0.70145,-0.23298,-0.10959,-0.5841,0.37709,0.018583
-0.08106,-0.33496,0.18782,0.12286,0.0020991,-0.55839,-0.46123,-0.36379
0.27993,-0.0028701,-0.32605,0.407,0.08201,1.0067,0.29059,0.30233
-0.23205,0.10092,0.015281,-0.27669,-0.033025,-0.56284,-0.13242,-0.17181
-0.085057,-0.2336,-0.03887,0.019131,0.0015577,0.73739,0.056336,0.11229
0.18359,0.22079,-0.4095,0.0066698,0.061332,-0.33224,0.25017,0.030899
0.084121,-0.035258,0.1461,-0.040299,-0.064416,-0.021198,-0.55004,-0.046574
0.056589,-0.10247,1.0015,0.23697,0.030408,0.0052537,0.35904,-0.031406
-0.13121,-0.24539,-0.19968,-0.18633,0.032815,0.049436,0.111,0.024572
0.014375,0.1778,-0.23906,-0.13234,-0.089157,-0.42275,-0.28387,-0.20432
0.072047,0.03523,-0.46411,0.3346,0.1012,0.1875,0.39814,0.32261
-0.0052746,0.045932,0.35361,-0.46669,-0.13904,-0.20814,-0.67109,-0.058185
0.055061,-0.1268,-0.48021,0.22851,0.048952,0.21649,0.3627,-0.050495
-0.21677,0.60884,0.16866,0.13094,0.047666,0.52219,-0.71459,0.17212
-0.048411,-0.50796,0.79537,-0.18858,0.0054909,-0.44112,0.82915,-0.2677
0.19984,-0.1917,-0.56347,0.16942,-0.022687,-0.35481,-0.16498,0.096256
0.035117,0.46042,-0.19664,-0.059304,0.026035,0.68569,0.70527,0.168
-0.37121,-0.015157,0.59433,-0.11549,-0.058724,-0.19602,-0.83951,-0.41331
0.34763,-0.38515,-1.0991,0.056861,0.020544,-0.094549,0.51308,0.25807
0.066214,-0.070691,0.68338,0.036795,0.053539,0.0057946,-0.14477,0.026436
-0.090941,0.18082,0.011805,-0.16745,-0.17011,-0.50323,-0.74499,-0.23181
0.13355,-0.087498,0.11949,0.38148,0.20156,0.49777,0.54626,0.22745
-0.26839,0.137,-0.23106,-0.059223,-0.04218,0.058661,-0.053692,0.05473
0.13303,0.11692,0.18073,-0.25609,-0.049762,0.010914,0.54839,-0.021581
-0.10698,-0.034396,-0.34964,0.32898,0.092683,-0.11107,-0.74095,-0.086155
0.020303,-0.15807,0.361,-0.57823,-0.13079,-0.39856,-0.36635,-0.10721
-0.0074355,0.3641,0.39219,0.27961,0.052878,0.52484,0.61026,0.10248
-0.087641,-0.40598,-0.29447,-0.035142,-0.036368,0.034378,0.31388,0.17473
0.25676,-0.017067,-0.017852,0.21972,0.046464,0.058831,-0.2095,-0.19669
-0.036986,0.28584,0.12413,0.075496,0.0042441,-0.2941,0.14788,-0.044938
-0.11065,-0.27397,-1.0024,-0.32722,0.0086647,0.18458,0.14192,0.21403
0.13538,0.2142,0.44077,0.21452,0.020542,0.024387,-0.58822,0.00041696
-0.15285,-0.10432,-0.17446,-0.096424,-0.085188,-0.40856,0.12904,-0.28847
0.13164,-0.19308,0.20467,-0.10403,-0.0038541,0.1042,-0.12687,0.018757
0.033928,0.43812,0.64584,0.25412,0.045814,-0.038494,-0.26706,0.094196
-0.017035,-0.2511,0.089535,-0.092108,0.048239,0.09374,0.59542,0.15745
-0.11432,-0.042619,-0.5582,-0.11878,-0.012137,0.43119,-0.15207,0.077055
-0.22456,-0.030145,0.17576,0.049884,0.0053984,0.19274,0.51798,-0.24691
-0.000709,0.1073,-0.24585,-0.069559,-0.10998,-0.72361,-0.41509,-0.10954
0.27984,-0.1681,0.18541,0.28946,0.087157,0.22021,-0.083155,0.194
0.0036252,0.61428,0.15022,-0.32546,-0.05931,-0.14898,-0.63574,-0.12384
0.07971,-0.33221,-0.0047998,0.093772,0.021,-0.082606,0.77558,0.38337
-0.037382,-0.19209,-0.27371,-0.070323,0.023363,0.23039,-0.17442,-0.29153
-0.05885,-0.18855,-0.28764,0.18132,0.010108,-0.00823,0.29714,-0.18751
0.036938,0.14274,0.10694,-0.019953,0.043422,0.22371,0.097636,0.2262
-0.026416,-0.031243,-0.17615,0.0037982,-0.025529,0.042348,-0.40419,-0.067039
-0.11184,-0.0056427,0.83267,0.20405,-0.0096382,-0.60763,0.16964,0.1188
-0.03537,0.2117,0.086914,-0.10002,-0.041997,0.40661,-0.55063,-0.23372
0.20783,-0.068844,-0.70404,-0.47899,-0.005493,0.046837,0.3336,0.18593
-0.001405,0.49234,0.010026,0.099112,-0.017151,-0.04452,0.16896,0.094632
-0.077925,-0.4072,0.22904,0.057734,0.040598,-0.11483,0.14026,0.084741
-0.12279,0.1328,-0.073815,0.15668,0.019831,-0.11403,-0.55069,-0.39129
-0.11874,-0.37738,0.34535,0.10877,-0.047658,-0.10133,0.37644,0.25281
0.31952,-0.15228,-0.40409,0.0012194,0.088592,0.41051,-0.30653,-0.13786
0.21056,0.20522,0.35722,0.084388,-0.024235,-0.037577,0.31918,-0.092309
-0.31768,0.047859,-0.31533,-0.21258,-0.026645,-0.15597,0.56098,0.040598
-0.19232,0.050772,0.17509,0.030972,-0.043699,0.11698,-0.49454,0.19316
0.19781,0.10923,-0.040171,-0.014567,0.0025284,0.052675,-0.043824,-0.1327
-0.052818,-0.11529,-0.24802,-0.1396,0.041433,0.12494,-0.76893,-0.092493
0.039675,0.0071774,0.22882,0.11595,0.0023769,-0.16907,0.8896,0.26627
0.18445,0.43394,-0.52391,0.064389,0.049125,-0.41765,-0.32929,0.22287
-0.074491,-0.72265,0.29894,0.010861,-0.060726,-0.028584,0.25095,-0.22553
-0.23296,0.17966,0.0092628,0.05794,0.016493,0.482,-0.23968,-0.19136
0.14271,0.23491,0.088097,-0.28523,-0.031633,0.11441,0.64953,0.010284
0.15849,-0.13595,0.94246,0.15462,-0.0095518,-0.12267,-0.42709,-0.10652
-0.078571,-0.028603,-0.86048,-0.027626,-0.018483,-0.1579,-0.47094,0.16895
-0.030216,0.11673,-0.045837,0.19217,0.051307,-0.068479,-0.029797,-0.16227
-0.17194,-0.070298,0.1908,-0.24842,0.0047789,-0.0022482,0.46605,0.22987
0.014791,-0.022664,0.00544,0.3063,0.0060962,0.29094,-0.27293,-0.18364
0.22966,0.076896,0.016869,-0.074438,0.070774,-0.064199,0.68242,0.39608
-0.40494,0.1087,-0.82491,-0.44667,-0.20774,-0.22454,-0.39494,-0.48283
0.31144,-0.36645,0.61342,0.51634,0.21699,0.3248,0.22919,0.37528
0.031404,0.096011,0.16386,-0.24905,-0.09298,-0.19026,-0.31171,-0.21771
-0.21917,0.09788,-0.69868,0.0064232,-0.028641,-0.12938,0.10928,0.080613
0.38022,0.27306,0.79843,0.063756,0.019195,0.038849,-0.61374,-0.059523
-0.094352,-0.34542,0.02867,0.079456,0.003698,-0.020866,0.21152,0.047879
-0.084402,0.072781,-0.51152,-0.17237,-0.035793,-0.057543,0.13747,0.14409
-0.056063,-0.079306,0.22625,0.15296,0.088678,0.42216,0.24754,-0.27872
0.16489,0.099045,0.47511,-0.15448,-0.028591,0.099059,0.73331,0.24139
-0.25446,0.062866,-0.15899,0.03903,-0.066762,-0.47899,-1.2547,-0.38747
0.15918,-0.10063,0.21789,0.10124,0.052675,-0.04566,0.54861,0.063639
-0.22835,0.0074528,-0.78917,-0.13963,-0.037329,-0.0068416,-0.59391,0.1048
0.013329,0.019486,-0.36296,-0.012121,-0.032267,0.020123,0.47677,0.25323
0.30076,-0.17522,0.10457,0.14694,0.067342,0.28443,0.44961,-0.02191
-0.073362,0.35101,0.93402,0.34423,0.14351,-0.11394,-0.40095,-0.25288
-0.15965,0.12695,-0.50601,-0.51509,-0.11721,0.057104,0.44239,0.33148
0.0065932,-0.41238,0.27051,0.29483,-0.020431,-0.072374,-0.75134,-0.19384
0.10785,-0.050388,0.21797,-0.3823,-0.027746,0.22924,-0.18724,-0.027453
0.020538,0.01619,-0.46002,-0.11612,-0.06911,-0.18868,0.87771,0.085682
0.057089,0.2947,0.41594,0.39146,0.074438,-0.19441,-0.97512,-0.30137
0.020772,-0.042431,-0.58455,-0.20188,-0.041778,-0.0062744,0.18098,0.17844
-0.15322,-0.14211,0.029915,0.20661,0.083161,0.27618,0.88243,0.16716
-0.029998,0.052573,0.22761,0.047231,-0.010675,-0.20306,-0.78054,-0.37944
0.20848,0.19267,0.1414,0.0073323,-0.0098812,0.021107,0.24917,0.24516
-0.079814,-0.58649,-0.22812,0.078351,0.031516,-0.21895,0.22949,0.099116
-0.21541,0.22481,-0.2158,-0.4595,-0.10489,0.34594,0.0021681,-0.13499
0.013606,-0.12264,0.58602,0.43974,0.1122,0.11645,-0.01418,0.044684
0.17167,0.33929,-0.2741,-0.32587,-0.043983,-0.07872,-0.37759,-0.11131
-0.059174,0.38979,0.86192,0.14242,0.082499,0.071792,0.69108,0.38844
-0.067394,-0.099234,-1.129,-0.076329,-0.079005,-0.12979,-0.58143,-0.11408
-0.14068,-0.15453,-0.63547,-0.22299,-0.13033,-0.12425,-0.39535,-0.18374
0.4321,-0.1068,0.77363,0.42241,0.045542,-0.32129,0.13747,-0.23703
0.14204,-0.5195,0.059968,-0.053567,0.12036,0.43225,0.093987,0.34897
-0.098909,0.061532,0.16039,-0.065208,-0.0075626,0.18872,-0.13663,-0.28655
-0.36366,0.17828,0.31483,-0.027817,-0.041572,-0.084499,0.55929,0.058718
-0.013988,-0.040265,0.035213,0.15031,0.049234,-0.15334,0.55761,0.24391
-0.082785,0.5349,-0.45646,0.091772,-0.048105,-0.2593,-1.0434,-0.18398
0.35912,-0.28859,0.2806,-0.12753,0.033092,0.26325,0.61655,0.46285
-0.03922,0.19356,-0.6478,-0.18094,-0.0044983,0.21329,-0.089446,-0.26044
-0.30761,0.058718,-0.4156,-0.22505,-0.059602,-0.14902,-0.28121,-0.29852
0.016685,-0.32044,0.56276,0.037823,-0.022907,-0.21996,-0.022868,-0.088092
0.14616,0.23269,0.36637,0.28132,0.012026,-0.16978,-0.33679,0.059341
0.17544,-0.50358,0.16113,0.24206,0.14717,0.6039,0.60998,0.37918
0.065388,0.12496,0.60552,-0.18714,-0.077834,-0.13343,-0.09557,-0.049558
-0.020888,0.48487,-0.79015,-0.16073,-0.052974,0.29692,-0.16748,-0.10127
-0.14735,-0.1731,-0.64817,0.40839,0.003643,-1.0052,-0.69221,-0.072604
-0.026373,-0.47998,0.44853,-0.31516,0.022261,0.44269,0.94027,0.051933
-0.11973,0.16792,-0.54373,-0.11255,0.0032893,0.42768,-0.15254,0.076654
0.1274,-0.20431,0.54982,0.055042,0.048504,-0.028243,0.20001,-0.2255
-0.19007,0.8257,0.30932,-0.19569,-0.11553,-0.62902,-0.052473,0.012161
0.1486,-0.33684,0.18846,0.29077,0.10473,0.35973,0.21687,0.26579
-0.026204,0.32899,-0.54054,0.12274,0.021422,0.055951,-0.74988,-0.13678
-0.087544,-0.2661,0.54142,-0.17774,-0.092458,-0.05458,0.27257,-0.00036173
0.29375,-0.023782,-0.52264,-0.0029722,0.036067,0.029854,0.23578,0.12819
