0.003772,-0.067784,-0.61803,0.087455,0.044584,0.022168,-0.11665,-0.0064439
-0.020422,-0.028518,0.37284,-0.2601,-0.1327,-0.066603,0.10009,0.0040805
-0.0033565,0.067232,-0.36067,0.053831,-0.0078423,-0.046578,-0.14149,-0.016316
0.10195,-0.021445,0.41046,0.044643,-0.010572,0.050306,0.016338,-0.013282
-0.071948,-0.19197,-0.69455,0.087517,0.015775,0.13743,0.306,0.059719
0.0056025,0.15767,0.28638,-0.12949,0.0094855,0.073649,-0.44629,-0.047628
0.01338,-0.0041035,0.50167,0.45697,0.057491,-0.18033,0.5393,0.039428
-0.010631,-0.01446,-0.32348,-0.6052,-0.042339,-0.085199,-0.58947,-0.046454
0.08875,0.35898,0.50377,-0.0024065,0.023302,-0.062115,0.12085,0.038448
-0.11122,-0.14399,-0.49637,0.30534,0.083026,0.054125,0.14028,-0.0026265
-0.017299,-0.064713,-0.1397,-0.15006,-0.15992,0.092977,-0.052591,-0.052241
-0.012304,-0.25631,-0.37437,0.076882,-0.033899,-0.053704,0.16177,0.0071504
0.099573,0.023016,0.41497,0.14213,0.14813,0.18525,-0.19875,0.043148
0.014589,0.047645,0.49323,0.099667,0.041847,-0.041401,-0.093415,-0.0063407
-0.10977,0.022801,-0.068807,-0.34048,0.0060833,-0.022952,0.13482,0.0074648
-0.061242,-0.048762,-0.44941,0.023938,-0.12357,-0.1038,0.29036,-0.0011412
0.083205,0.038811,-0.38086,-0.22959,-0.10499,0.051152,-0.19841,-0.024248
0.13685,0.1938,0.39708,0.33615,0.061991,-0.16833,-0.14605,0.031857
-0.12664,0.10455,0.36332,0.20554,0.11208,0.088629,0.1247,-0.067367
0.034534,-0.18264,-0.034897,-0.19155,-0.071617,0.11838,-0.029031,0.076244
0.0022358,-0.10707,-0.25724,-0.27677,-0.059371,-0.087261,0.055137,-0.061115
-0.060826,-0.030817,-0.029711,0.23123,0.17191,0.065161,-0.16264,0.02794
0.10164,0.066569,0.22576,-0.10513,-0.026959,0.0050454,0.0053462,0.0070042
-0.050843,0.096469,-0.63196,0.073225,-0.047664,-0.049132,-0.01793,-0.0071847
-0.074012,0.033611,0.95105,0.22685,0.10089,0.058664,0.2536,0.047502
0.094152,0.10397,-0.31519,0.082022,-0.10555,-0.070065,-0.23284,-0.024466
-0.0070863,-0.50412,-0.90038,-0.22837,-0.0031403,0.049241,0.14166,0.0034858
-0.048712,0.21933,0.73349,-0.25052,-0.052241,-0.036055,-0.059183,-0.071483
0.06449,0.035271,0.55399,0.25908,0.061027,-0.0283,-0.03796,0.040249
-0.11878,-0.052783,-0.80737,-0.3853,-0.14573,-0.059329,0.19736,-0.035553
0.043988,0.25523,0.648,-0.064703,-0.037523,0.098434,-0.16646,0.037907
-0.015894,-0.42134,-0.94843,0.29232,0.16097,0.0083479,0.080481,0.011421
0.069807,0.42602,0.8085,0.42793,0.052424,0.0068732,-0.17232,0.010561
0.0044702,-0.1333,-0.324,0.012549,0.12906,0.015965,0.089837,-0.011312
0.045287,0.085803,-0.033294,-0.37057,-0.032096,0.019619,0.0069908,0.00033233
0.0033544,0.13472,0.39254,0.56438,-0.050199,-0.029793,-0.030444,0.01371
-0.021719,-0.16973,-0.52112,-0.6387,-0.099535,-0.078558,0.0010729,-0.0032496
-0.13366,-0.26804,0.85365,-0.091011,-0.1121,0.028564,0.031519,-0.035899
0.056128,-0.11518,-1.1435,-0.32394,-0.019324,0.017254,0.053412,0.031977
-0.032059,0.24149,0.36652,0.24992,0.14667,-0.011549,0.012329,-0.027007
0.077409,0.15432,0.4269,0.32851,0.010932,0.066852,-0.083771,0.013166
0.0093333,-0.093706,-0.79509,-0.077465,0.027452,-0.044382,0.046414,0.011675
-0.024824,0.015167,0.51478,0.18279,-0.021089,-0.024591,-0.02678,-0.015682
0.030774,-0.032649,0.074855,0.26682,-0.023613,0.025259,0.0014055,0.0019218
-0.02538,-0.016842,0.53865,-0.16903,-0.048746,-0.0034445,-0.025097,-0.0050503
-0.011708,0.10256,-0.79398,-0.5318,0.068998,-0.00050517,0.011209,0.0033874
-0.074718,0.013325,-0.023058,-0.0023254,-0.036579,-0.027655,0.016976,0.0047377
-0.025179,0.1606,0.79002,0.12157,0.033417,0.032899,0.00043538,-0.00017406
0.16947,-0.40127,-0.68111,0.25355,0.12265,-0.013795,-0.038069,-0.01075
0.01776,0.0072175,-0.46429,0.042353,-0.19911,0.027636,0.065698,0.043618
-0.027104,0.10489,0.88364,-0.089222,0.020337,0.016325,-0.024267,-0.040237
-0.02035,0.0015309,-0.61357,-0.18679,-0.016971,-0.04042,0.012031,0.018579
-0.095803,0.018059,0.49979,0.063389,0.070612,-0.010472,-0.021259,-0.014918
-0.020392,0.17067,-0.47515,-0.13471,0.031993,0.0038401,0.0079935,-0.0165
0.095101,-0.1731,0.9355,0.1877,-0.016555,0.0095875,0.020953,0.059895
0.0071362,0.056984,-0.79436,0.27964,-0.036617,0.045212,-0.029878,-0.036481
-0.04327,0.024475,-0.54321,-0.53288,0.041812,-0.077218,-0.019934,-0.017142
0.060165,-0.099698,0.62925,0.55969,-0.046829,0.032724,0.034989,0.023829
-0.019076,-0.019934,0.028457,0.053962,-0.036488,8.4634e-05,-0.021252,-0.015187
-0.039014,0.02011,0.62957,-0.55327,0.042296,0.0048175,0.0070138,-0.016789
0.031763,0.089234,-0.69569,-0.22531,-0.01273,-0.0073215,0.00314,0.027263
0.029691,0.13135,0.47794,0.59926,0.064938,0.02672,-0.0010021,0.0081508
-0.10698,-0.25308,-0.76802,-0.14945,-0.13803,-0.072161,-0.020442,-0.050105
0.036701,-0.025714,0.3209,-0.01639,0.17572,0.063768,0.054667,0.071756
-0.04626,0.14144,0.32156,0.12655,-0.04832,0.005255,-0.048834,-0.039973
0.019772,-0.06369,-0.49128,-0.31052,-0.052441,-0.036477,0.012862,-0.017952
0.23511,0.17242,0.14408,0.035796,0.014645,0.0011885,-0.0025798,0.05964
-0.12685,-0.16435,0.06168,0.020745,0.12917,0.055711,-0.0017013,-0.026176
-0.11332,-0.16589,-0.41909,0.29559,-0.17785,-0.037134,0.15578,-0.025734
0.079925,0.2479,0.70841,0.11979,-0.047103,0.011492,-0.20228,0.037181
-0.0084738,-0.014837,0.089916,-0.2797,0.10747,0.021663,0.048955,-0.0017725
-0.011534,-0.13225,-0.76425,-0.10682,-0.034155,-0.084953,-0.035767,-0.02554
-0.022898,0.13101,0.16086,-0.035146,-0.034159,-0.03509,-0.034385,-0.02627
-0.049951,-0.12319,0.44724,-0.067026,0.12332,0.077346,0.061161,0.004051
0.09546,0.16724,0.35381,0.41988,0.078982,0.088107,0.047907,0.065725
-0.078134,-0.029992,-0.58105,-0.32719,-0.19858,-0.081186,-0.035129,-0.090934
0.086113,-0.052332,-0.32716,0.26731,0.14969,0.030062,0.01486,0.073368
-0.020861,0.059451,0.79517,-0.13483,-0.24387,-0.094174,0.025428,-0.019423
-0.039749,-0.22758,-0.86797,-0.27749,0.057723,0.030078,0.058369,-0.0022406
0.15401,0.14759,0.68905,0.43212,0.15549,0.074374,-0.12136,0.046494
-0.088748,0.07445,-0.40746,-0.092092,-0.005753,0.038572,0.032695,0.0091961
-0.042312,-0.21346,-0.2467,-0.36508,-0.043635,-0.069386,-0.12016,-0.067657
-0.074674,0.17397,0.68601,0.31768,0.010302,-0.038107,0.084541,-0.035919
0.063546,0.11926,-0.29676,0.067512,-0.0002651,0.0082049,0.077245,0.041806
-0.073331,-0.15894,-0.36731,-0.23835,-0.043861,0.00029893,-0.078519,-0.029689
0.20989,0.15192,0.45651,0.28516,0.098824,0.0018542,0.071455,0.07801
-0.18045,-0.38539,-0.3695,-0.2115,-0.1651,0.00614,-0.042204,-0.040951
0.11523,0.40929,0.60704,-0.062753,-0.0064873,-0.079845,-0.036055,-0.0033456
-0.09809,-0.3305,-0.078699,0.091656,0.028821,0.095675,-0.011455,-0.027579
0.10962,0.04457,-0.19859,-0.12316,0.019734,0.032275,0.086031,0.042806
-0.089349,0.23875,-0.16598,0.33907,0.18538,0.017978,-0.033327,-0.010891
0.063286,0.097073,0.83315,0.086469,0.0021883,0.074755,0.074833,0.053418
-0.017827,-0.097712,-0.56447,-0.25754,-0.061653,-0.025549,-0.028039,-0.022277
0.035152,0.30454,-0.50775,-0.1009,-0.10858,-0.16712,-0.046006,-0.0038243
-0.22243,-0.89746,-0.57948,-0.17165,-0.077064,-0.0070642,-0.073459,-0.10235
0.069328,-0.17069,0.30451,-0.0022349,-0.092995,-0.076812,-0.0090811,0.01796
0.18411,0.57208,0.90167,0.26585,0.13978,0.006907,-0.0011657,0.03673
-0.12049,0.14372,0.21895,0.22571,0.21447,0.23718,0.11478,0.039833
0.11575,0.58237,0.065892,-0.044993,-0.025512,-0.017726,-0.0044271,0.01934
-0.10059,-0.41106,-0.89174,-0.19497,-0.088145,-0.014673,0.016735,-0.032769
0.049268,-0.1444,0.18822,-0.028836,-0.082718,-0.026413,-0.024463,0.00039725
0.0481,-0.33198,0.5828,0.063378,0.069274,-0.068224,-0.026239,0.024761
-0.042886,-0.0080027,-0.52626,-0.049946,-0.10803,0.0083949,-0.0041421,-0.022452
-0.029075,0.21626,0.35516,-0.17175,-0.0043048,0.07052,0.018383,-0.0085585
-0.074426,-0.011389,-0.55112,0.0046776,-0.024751,-0.1789,-0.091502,-0.058482
-0.084254,0.0049092,0.041227,0.19221,0.15969,0.21312,0.095885,0.023389
0.19306,0.039979,0.1163,0.025059,0.041814,-0.073827,-0.0053696,0.073479
-0.092058,0.04094,0.043242,0.0975,-0.0032083,-0.024148,-0.012418,-0.040432
0.10141,0.22838,0.28658,0.073146,-0.045991,0.0027674,-0.0033686,0.010382
-0.10779,-0.27893,-0.20401,-0.25243,-0.10282,-0.00095478,0.013934,-0.023569
0.16401,-0.018821,0.48187,0.14238,0.052006,0.019201,0.0081435,0.04556
-0.15349,-0.31863,-0.74637,-0.25996,-0.09021,-0.093346,-0.067774,-0.071157
0.12647,0.50951,-0.28569,0.11707,0.09476,0.12966,0.067223,0.071505
-0.036515,-0.15943,0.34771,-0.0088697,0.012595,-0.0077246,-0.0089735,-0.026741
-0.058134,0.010082,0.15893,0.010229,0.061389,0.087633,0.015922,-0.014775
0.060041,0.28297,0.63564,0.06509,-0.02458,-0.10038,-0.014502,0.028744
-0.15199,-0.45107,0.20206,0.070256,-0.10455,-0.079759,-0.037816,-0.037363
0.023782,-0.05239,-0.63149,-0.13766,0.032761,0.024749,0.024141,0.012961
0.055915,0.032719,-0.65784,0.067072,-0.01055,-0.05179,-0.039426,-0.015994
0.13221,0.2956,-0.0032431,0.075772,0.078657,0.097916,0.076389,0.063028
-0.043565,0.048132,0.29493,-0.087473,-0.019259,0.0063136,-0.018787,-3.7986e-05
-0.072149,0.21966,0.41281,-0.047058,-0.022437,-0.059869,-0.035649,-0.048818
-0.12459,-0.51002,-0.51884,-0.044605,-0.031974,0.032957,0.010371,-0.067392
0.13575,-0.25747,0.16996,0.13913,0.014879,0.050701,0.025647,0.038416
0.060893,0.2831,0.34327,-0.20645,-0.022511,-0.022529,-0.0053954,0.081594
-0.098986,0.019378,-0.12914,0.13756,0.050884,0.062505,0.0188,-0.023313
0.14821,0.27316,0.58097,0.17879,0.05485,-0.070292,-0.026813,0.028786
-0.064979,-0.1106,-0.71586,-0.067557,-0.019122,-0.070573,-0.025116,-0.043078
-0.074856,-0.0061731,0.18026,-0.078725,-0.031164,0.06836,0.023803,-0.02784
-0.069237,-0.17902,-0.61688,-0.16799,-0.10697,-0.099655,-0.067683,-0.066168
0.12355,0.21422,0.38219,0.14047,0.081064,0.096763,0.083041,0.083892
-0.051236,-0.14755,0.48076,-0.021188,-0.0064279,0.048112,-0.00088571,4.3617e-05
-0.085771,0.078327,-0.68058,0.034083,-0.0023149,-0.042292,-0.015184,-0.0058112
0.1997,-0.4454,0.37571,-0.037763,-0.015816,-0.11153,0.00060252,0.089067
-0.061986,0.52196,-0.18496,0.044416,0.086221,0.11442,0.030376,-0.03631
0.0042142,-0.17753,-0.35374,0.077589,0.023048,0.026835,0.011297,-0.007425
0.023375,0.15746,0.70534,0.030864,-0.024981,0.017043,-0.0098394,-0.043145
0.019169,0.056476,0.2723,-0.12633,-0.064845,-0.023589,-0.032742,-0.018104
-0.13292,0.14318,-0.2412,0.013272,-0.0096288,-0.023976,-0.048905,-0.04862
-0.01805,-0.55956,-0.20541,-0.17401,-0.12391,-0.12395,-0.026038,0.046259
0.028818,0.19098,-0.12328,0.016346,0.1167,0.083509,-0.0019774,-0.028909
0.11808,-0.095546,-0.37181,0.23402,0.095711,-0.010373,0.14946,0.086558
-0.17918,0.24793,0.23596,-0.15308,-0.06951,0.063495,-0.047401,-0.012702
0.059192,-0.016895,0.24017,0.15189,0.05031,0.015978,-0.029657,-0.0061317
0.059267,-0.22176,0.16687,0.01522,-0.045885,-0.028474,0.038431,0.035466
0.10881,0.32469,0.082182,0.013352,0.030938,0.022874,-0.031415,-0.037525
-0.083293,-0.39028,-0.53314,-0.15274,-0.041438,-0.05791,0.0095662,-0.0002282
0.082041,0.21285,0.497,0.069379,0.024121,-0.022366,-0.019801,0.0048164
-0.1321,-0.092895,-0.57366,-0.10342,-0.039644,0.057702,0.0039913,-0.047662
-0.040311,0.43241,0.14055,0.030802,0.078702,0.11078,0.048442,0.036192
0.035815,-0.48852,0.14903,0.01079,-0.089882,-0.19981,-0.090382,-0.017914
-0.021094,0.36604,0.38934,0.063723,0.048919,0.094584,0.071656,0.086768
0.04772,-0.2043,-0.28837,-0.019944,0.019921,-0.036752,-0.027581,-0.11008
-0.076118,0.022544,0.097532,0.035156,-0.057688,0.016676,-0.020006,-0.0056515
0.11,0.0043761,-0.4331,0.0046122,-0.02534,-0.024872,-0.013724,0.011127
-0.039503,-0.21328,0.29551,-0.19547,-0.04485,-0.058204,-0.0073139,0.0046051
-0.029732,0.010766,-0.12657,0.092785,0.049614,0.058752,0.055234,0.046817
0.032078,0.20995,-0.022662,0.0031297,0.040254,-0.016769,-0.020398,-0.009347
0.053488,-0.12808,0.65206,0.21537,0.13013,0.17652,0.070996,0.039995
-0.043294,0.10965,-0.8533,-0.12276,-0.0021312,-0.017952,-0.014347,-0.023792
-0.040145,-0.034531,0.19586,-0.004818,-0.10057,-0.1323,-0.058163,-0.013678
-0.0088187,0.16829,0.23055,-0.073182,-0.034578,0.01984,-0.0065746,-0.047766
0.033071,-0.15569,0.096669,0.053213,-0.0093878,-0.078286,-0.008965,0.02904
0.091142,0.12641,-0.30468,-0.0098433,0.020327,0.11157,0.066596,0.020248
-0.0085156,-0.22059,-0.1113,0.041548,0.030426,-0.012497,-0.014933,0.010785
-0.072117,0.25519,0.093384,-0.13643,-0.096044,-0.059683,-0.058602,-0.007871
-0.053557,-0.2913,0.51439,0.01152,-0.029917,-0.052842,-0.025395,-0.05949
-0.015238,-0.025145,-0.29269,0.033312,0.0116,-0.014633,-0.0010468,0.012217
-0.010955,0.24061,-0.33586,0.023881,0.13169,0.17284,0.092908,0.020081
0.038855,-0.25198,0.27415,0.031077,-0.019898,-0.036892,-0.016625,0.0036706
0.026442,0.22381,-0.17595,0.024161,0.026244,0.012359,0.02216,0.033829
-0.015529,0.027612,-0.22834,0.026491,0.0044147,-0.00022924,-0.017204,-0.037451
0.046639,-0.15295,1.0042,0.029642,-0.015824,-0.012987,-0.017572,0.032266
0.056881,0.13518,-0.73958,-0.045456,0.0034217,-0.026818,-0.018116,-0.0069766
0.022514,0.094887,0.64734,-0.051345,-0.040652,0.0044501,0.020132,0.02438
-0.088691,-0.23515,-0.72677,-0.10594,-0.05527,-0.036649,-0.020022,-0.077008
-0.0044432,0.011917,-0.072106,0.024837,-0.0096378,-0.024852,-0.0056503,0.055832
-0.077284,-0.054751,0.30926,0.10685,0.041716,0.0015491,-0.0068328,-0.038172
0.043805,0.07263,-0.87544,0.023557,0.060437,0.067109,0.054847,0.03942
-0.047419,0.24576,0.93326,-0.067914,-0.11648,-0.061351,-0.054712,-0.047194
0.14956,-0.21479,0.33364,-0.041673,0.035535,0.01559,0.016229,0.014717
-0.17692,-0.20716,-0.60844,0.032652,0.048636,0.064081,0.017688,-0.016786
0.075582,0.32361,0.82755,0.13978,0.048301,0.021545,0.019814,0.045986
0.040499,-0.044093,-0.89741,0.03749,0.065715,0.04355,0.014467,0.031213
-0.078894,0.010277,0.34044,-0.1652,-0.15751,-0.16011,-0.084716,-0.076839
0.12322,-0.16146,-0.32812,-0.070416,0.026129,0.06543,0.04995,0.057504
0.067765,0.097263,0.21184,0.0087459,-0.017257,-0.023322,-0.019403,-0.011429
-0.035591,0.021268,-0.04181,0.12643,0.047285,0.033564,0.019506,-0.0027581
-0.10217,-0.045161,-0.020619,-0.10058,-0.062195,-0.061286,-0.028669,-0.057398
-0.046974,-0.031134,-0.23411,0.085282,0.052445,0.090649,0.047166,0.058893
-0.050035,0.0013673,0.53475,-0.0035715,-0.022706,-0.049055,-0.026109,-0.013197
0.02178,-0.0020115,-0.15344,-0.0076665,-0.0058391,-0.080894,-0.037136,-0.015599
0.060014,0.14628,0.06647,0.065489,0.03361,0.090176,0.037969,0.020843
0.019093,-0.07749,-0.29184,-0.15075,-0.0048585,-0.01112,-0.026958,-0.044013
0.11918,0.029214,0.59832,0.18034,0.020485,0.022521,0.049611,0.05593
-0.044697,-0.081288,-0.34165,-0.2215,-0.022173,0.035498,0.017799,0.00073155
-0.08877,0.043261,-0.38434,0.058798,-0.022702,-0.07359,-0.052119,-0.037525
0.0031491,0.12082,0.18342,0.014311,-0.058839,0.046493,0.019376,0.034923
-0.065666,-0.28673,-0.58035,-0.13575,-0.021274,-0.065901,-0.025769,-0.024294
0.1108,0.077959,0.63285,0.22564,0.14411,0.05703,0.015316,0.011051
-0.030506,-0.012048,0.44375,0.066364,0.014404,0.023664,0.0017887,0.023344
0.0095673,0.16939,0.22212,0.10363,0.056974,0.0050061,0.019433,-0.011299
-0.012197,-0.13613,-0.78856,-0.23479,-0.12812,-0.093291,-0.041212,-0.038581
0.02806,0.11746,-0.072651,-0.068006,-0.042212,0.0097809,-0.0083111,-0.0041053
-0.050486,0.015144,0.2126,0.047815,0.055947,-0.005975,0.0087328,0.029462
0.016781,0.0013808,0.22193,0.041627,-0.02146,0.039536,0.0098733,-0.016058
-0.052148,-0.049282,-0.43696,-0.094195,-0.039714,-0.0015455,0.080964,-0.0078229
0.17202,-0.058455,0.15633,0.063267,0.017733,0.066703,-0.028103,0.062057
-0.0997,0.17037,0.39127,-0.054638,0.034995,0.010435,-0.036173,-0.056322
0.039523,-0.43877,-0.35015,0.093072,-0.025579,-0.1231,-0.021399,0.082469
-0.018588,0.25763,-0.24818,0.047249,0.07944,0.033473,-0.061829,-0.044866
-0.18659,-0.026299,0.35296,-0.018907,-0.039729,-0.035469,0.0771,-0.070947
0.10757,0.16544,-0.070635,0.020246,0.031302,0.12304,0.044091,0.035714
0.021772,-0.19641,-0.097741,-0.24947,-0.074872,-0.085056,-0.082459,-0.021491
-0.044273,0.13879,0.49744,0.19459,0.0082607,0.019548,0.04922,-0.0079501
0.058471,-0.14236,-0.239,0.10109,0.021915,-0.024522,-0.01392,0.04523
0.22824,0.33277,-0.41699,-0.08621,0.050956,0.040133,0.024926,0.075552
-0.16095,-0.072,0.088376,-0.0016682,-0.038397,-0.021191,-0.021949,-0.081195
-0.0012222,-0.0088426,0.23857,-0.10742,-0.01245,0.033517,-0.0063827,0.059117
-0.15368,-0.32488,0.034775,0.12714,-0.0043014,-0.030095,-0.038009,-0.089706
0.028546,0.00094481,-0.30253,-0.071383,-0.021609,0.046024,0.25803,0.050303
0.2006,0.20205,0.76774,0.14145,0.022089,-0.15956,-0.3057,0.002604
-0.27083,-0.14298,-0.67436,-0.21755,-0.059952,0.12715,0.067969,-0.09195
0.075229,0.17062,-0.51792,-0.23293,-0.024765,-0.015139,-0.050169,0.048282
0.0752,-0.26108,0.62053,0.44035,0.12825,-0.039073,-0.011104,0.040928
-0.067157,0.35335,-0.0095234,-0.024995,0.032175,0.079021,0.13095,-0.051167
0.086217,-0.31232,-0.097401,0.043158,-0.0084069,-0.051548,-0.037859,0.0064769
0.145,0.60239,1.0492,0.11317,0.045146,0.053217,0.013525,0.08082
-0.14082,-0.46487,-0.72165,-0.2064,-0.12024,0.0098822,0.042319,0.046285
-0.15433,-0.13974,-0.65562,-0.40095,-0.13789,-0.072917,0.00074057,-0.16047
0.14317,0.061039,0.24496,0.36462,0.093441,-0.031812,-0.10441,0.061174
-0.029864,0.21432,0.4013,0.02725,0.058125,0.085826,0.14785,0.077547
-0.032844,0.030023,-0.56041,-0.0069183,0.037713,-0.024872,-0.26643,-0.15096
0.040806,-0.25018,0.19081,0.10616,0.0093086,-0.0043441,0.09019,0.086474
0.13714,0.076964,0.041613,-0.062585,0.028279,0.0073234,0.15569,-0.0066055
-0.13336,-0.034592,0.53513,-0.082598,-0.1156,-0.059375,-0.092497,-0.023058
-0.058372,0.17431,-0.50473,-0.12481,-0.085747,-0.0081944,-0.02044,0.0071166
-0.12863,-0.29472,0.79966,0.085112,0.087041,0.10706,-0.0020096,-0.0084295
0.1962,0.28648,-0.95653,0.094668,0.082633,-0.064508,0.049671,-0.029326
-0.0049539,-0.049619,-0.42929,0.044708,0.0024253,0.047706,0.010182,0.062587
0.033648,-0.29459,0.8259,-0.06506,0.0099582,-0.033,-0.0031626,0.0099375
0.045695,0.56704,-0.17704,0.03019,-0.036212,0.028737,-0.05321,3.5588e-05
-0.079635,-0.22343,0.37199,-0.069171,-0.090202,-0.041452,0.038964,0.00082005
-0.047459,-0.26129,-0.037743,0.033926,0.034475,0.013091,-0.055827,-0.051513
0.038458,-0.056313,-0.62809,-0.05244,0.0010025,-0.051031,-0.057524,-0.0101
0.066712,0.33473,-0.026996,0.20201,0.12907,0.061967,0.06398,0.1313
-0.057925,-0.027646,0.49746,-0.14067,-0.065972,0.054395,0.54999,-0.050457
0.062331,0.15186,0.013905,-0.041261,-0.0059099,-0.019466,-0.73276,-0.040507
-0.12691,-0.34651,0.060644,-0.11622,-0.088724,-0.050168,0.16896,-0.03424
-0.077584,-0.21052,-0.40111,-0.012857,-0.063678,-0.11527,-0.12696,-0.093554
0.040259,0.40404,0.20026,0.18415,0.10136,0.083106,0.052519,0.079573
0.13494,0.021714,-0.039337,-0.01632,0.086961,0.046232,0.21656,0.064709
-0.010439,-0.15284,0.054747,0.26141,0.096968,0.056738,-0.00075456,0.011713
-0.027455,0.12423,-0.42082,-0.16219,-0.11814,-0.055969,0.0030399,-0.023623
-0.0017044,-0.20798,0.51308,-0.23276,-0.1363,-0.01743,-0.20918,0.013966
0.027144,0.14862,-0.18867,-0.10717,-0.02005,0.024576,0.22178,-0.0083663
0.026441,-0.070847,0.41206,0.24505,0.13658,-0.054712,-0.18124,-0.013084
0.033392,0.032271,-0.16969,0.073169,-0.0027459,-0.0054669,0.11994,0.02227
-0.078874,0.16865,-0.42768,-0.037428,0.061452,0.085833,-0.03185,0.010622
-0.061797,-0.16224,0.057804,-0.001111,-0.015095,0.0074225,-0.082722,-0.04125
0.091773,0.17182,0.19074,-0.020983,-0.084399,-0.077646,0.099585,0.0065566
-0.10226,-0.2279,0.25836,-0.081058,-0.045188,0.0405,-0.016428,-0.033736
-0.056807,-0.056525,-0.24812,-0.13381,0.016519,-0.037572,-0.14166,-0.029123
0.09708,0.2023,0.24964,0.27472,0.07741,-0.007997,0.16944,0.06004
-0.044907,-0.10647,-0.49691,-0.081241,-0.018489,0.050524,-0.012453,-0.015445
0.12046,-0.12209,0.17889,-0.0057746,0.018222,0.020511,0.055216,0.05775
0.055101,0.054993,-0.14163,-0.029906,-0.046529,-0.051166,-0.1663,0.014672
-0.17055,0.081504,-0.18188,0.018026,-0.048492,-0.047062,0.073226,-0.12085
0.12241,0.089743,0.71662,0.059285,0.059247,0.033304,0.016137,0.073136
0.026261,0.07813,-0.31267,0.053934,0.089092,0.089016,0.029717,0.049546
-0.054515,-0.11987,0.041387,-0.084877,-0.0060032,-0.011976,-0.05002,0.0033121
-0.066907,-0.0071839,0.13485,-0.029738,-0.023056,-0.026663,0.0192,-0.081614
-0.027717,0.21811,-0.44323,-0.046595,-0.11832,-0.071409,-0.043759,-0.018066
0.070453,-0.35221,0.6535,-0.002465,0.052147,0.057671,0.097177,0.037551
-0.021969,-0.093881,-0.31391,0.017338,-0.073754,-0.13882,-0.15943,-0.039713
-0.038188,0.040701,-0.37964,0.037173,0.027907,0.11289,0.11618,0.047216
0.01563,0.10046,0.46356,0.011154,0.029432,0.015906,-0.029172,-0.021717
0.031879,0.26802,-0.1338,0.018222,0.11071,0.10885,0.060566,0.03493
-0.011361,-0.12524,-0.5189,0.004154,-0.0096725,-0.046591,-0.068096,-0.017187
0.058754,-0.23265,0.25155,0.047099,-0.0040892,-0.045238,0.03748,0.024877
-0.0075392,0.072832,0.22262,-0.087712,-0.068622,-0.03666,-0.0060563,-0.018939
0.023636,0.057612,0.086691,-0.057236,-0.071301,-0.076531,-0.035122,-0.01632
-0.059755,0.072649,-0.059795,0.098596,0.088725,0.084474,0.043717,0.07911
0.029905,0.08479,0.32214,0.027353,0.028226,0.047643,0.0038284,-0.068963
-0.013566,0.013066,-0.0828,-0.060769,-0.080961,-0.015017,-0.013943,-0.0075588
-0.04301,-0.16921,-0.40449,-0.13505,0.01931,-0.03273,-0.016922,-0.041237
-0.035882,-0.04323,0.15586,0.21827,-0.021925,0.0029949,-0.074757,-0.013365
-0.016056,-0.056591,-0.17305,-0.1493,-0.024278,-0.071162,0.024186,0.037533
0.016426,0.078601,-0.0050586,0.090457,0.10662,0.081407,0.030466,0.0026429
0.13992,-0.0047175,0.024575,0.094046,-0.011683,0.031491,0.038099,0.12461
-0.035802,0.16352,0.61889,-0.19285,-0.035369,-0.0097392,-0.02333,-0.088485
0.044384,-0.10193,-0.548,0.1756,0.12125,0.082713,0.36918,0.058747
-0.040893,-0.040482,-0.18282,-0.10466,-0.073517,-0.097571,-0.46471,-0.082197
-0.08791,-0.00081914,0.3371,-0.0015875,-0.1045,-0.08207,0.029086,-0.058305
-0.0021687,-0.042914,-0.17758,-0.084624,0.012342,0.043083,0.0063861,0.052215
0.060997,-0.094667,-0.10424,0.037684,-0.0043391,-0.073792,-0.025078,-0.024089
-0.0067714,0.30563,0.64703,0.13941,0.079981,0.13757,0.16932,0.072189
-0.063884,0.087302,-0.8986,-0.099488,-0.007803,0.036535,-0.042765,-0.04174
-0.10182,-0.32141,0.25793,0.023898,-0.064171,-0.072258,-0.043572,-0.0065538
0.17652,0.006936,0.19113,-0.077122,0.020585,0.0064229,-0.020128,0.0056951
