-0.04028,-0.015391,0.0058418,-0.15033,-0.022827,0.0028179,-0.023593,-0.0081249
0.033457,0.25677,-0.056743,-0.11269,-0.0081689,-0.021795,0.021794,0.02215
-0.0029129,-0.40062,0.0049165,0.081472,-0.0091703,0.0082713,0.012739,-0.0020667
-0.02365,0.020706,0.01894,0.0025997,0.013412,0.0070946,0.011829,0.020871
0.081333,0.10721,-0.030091,0.049263,0.012878,0.037182,0.011255,0.0050484
-0.054585,-0.13285,-0.0168,0.018376,-0.010654,-0.03426,-0.043745,-0.033953
0.068928,0.33976,0.05928,0.011388,0.013157,-0.01968,0.018589,0.013139
-0.11056,-0.16261,-0.0045327,0.028015,0.0060998,0.010691,-0.0049859,-0.0022502
0.063037,0.10944,-0.012603,-0.11183,0.0070484,-0.0055385,0.010443,0.01349
-0.043462,-0.048051,-0.0038692,-0.049217,-0.04675,-0.029209,-0.044535,-0.049135
0.014772,-0.27668,0.0059412,0.059274,0.0085083,0.04129,0.025409,0.028544
0.010642,0.10241,0.016527,0.12756,0.047621,0.0027974,0.001573,0.012123
-0.0016726,0.073031,0.019644,0.093305,0.0080021,0.034865,0.032454,0.026626
0.063354,0.064719,-0.078927,-0.24612,-0.047776,-0.018966,-0.006899,-0.021613
-0.013276,0.077723,0.056351,-0.030523,-0.002292,-0.0026748,-0.0070749,0.0081743
0.0027701,0.19079,-0.035708,-0.079175,-0.027054,-0.018,0.00070412,-0.024433
-0.19302,-0.64204,0.058905,0.15583,0.011175,-0.018124,-0.022591,-0.03326
0.024678,0.017755,-0.065916,0.089326,0.042462,-0.010767,-0.014413,0.005364
0.11722,0.20235,-0.019253,0.034037,-0.003279,0.012109,0.0018489,0.02911
0.12403,0.22482,0.019562,-0.24489,-0.016684,0.0039206,0.026228,0.030216
-0.040603,0.25714,0.043038,0.18101,0.025402,0.011812,0.011836,-0.014862
-0.048501,-0.23241,0.043561,-0.096346,-0.025986,0.0046875,-0.0023437,0.034238
-0.079437,-0.18213,-0.04916,0.19434,0.039409,0.029398,0.0069805,-0.0416
-0.039818,-0.24919,-0.063407,-0.1287,-0.029115,-0.023644,-0.015064,-0.024021
0.10926,0.17505,0.047401,-0.043591,-0.021189,-0.014173,-0.0061645,0.024152
-0.022936,0.33235,0.071983,0.23807,0.070699,0.049578,0.010102,0.0089908
-0.030235,-0.31637,-0.075905,-0.3692,-0.097138,-0.074948,-0.036639,-0.030431
0.12638,0.18224,0.033246,0.034673,0.030437,0.033898,0.02552,0.01546
-0.16251,-0.26525,-0.061497,0.12409,-0.014541,-0.037953,-0.014248,-0.032687
0.063959,0.099256,0.0072488,-0.090159,0.042355,0.045662,0.031717,0.036459
-0.014644,0.33056,0.028888,-0.050557,-0.024422,0.0039192,0.022962,0.027947
-3.3762e-06,-0.26675,-0.0040015,0.1434,-0.026519,-0.045444,-0.055989,-0.042351
0.084334,0.15868,-0.01297,0.086334,0.036578,0.03095,0.0059006,0.028768
-0.035108,-0.25273,-0.036933,0.082473,-0.0069361,-0.0086134,0.013364,-0.0087928
0.0011387,0.10838,0.11151,-0.033848,0.069107,0.015832,0.0054556,0.00097564
-0.064468,-0.10147,-0.0054636,-0.038313,-0.048578,-0.012873,-0.0022488,0.0030624
-0.020543,0.1339,-0.028981,-0.097231,0.037436,0.014403,0.0058102,-0.0028607
0.00067248,-0.13786,0.017017,0.045575,-0.025444,0.019062,0.0061362,-0.017054
0.05444,0.28721,-0.016266,-0.32148,-0.058377,-0.0073297,-0.016925,0.0072146
0.0005612,-0.21522,-0.082028,0.16135,0.00062744,-0.034181,-0.024295,-0.023814
-0.020199,-0.090058,-0.0081175,-0.09083,-0.051682,-0.015195,0.0075197,0.0071525
-0.00025948,0.1002,0.018548,-0.13939,0.011461,0.025792,0.02391,0.022163
0.091032,0.13644,0.053415,0.64131,0.12796,0.018312,0.0093268,0.0057771
0.065319,0.15862,0.042548,0.18847,0.024824,0.0015222,-0.0049423,0.028455
-0.19552,-0.44344,-0.052555,-0.3116,-0.039786,-0.016445,-0.0032891,-0.026908
0.0030206,0.087315,0.018346,-0.27475,-0.13598,-0.058557,-0.024858,-0.035294
0.027639,0.070625,0.0051229,0.17231,0.1269,0.031956,0.023961,0.026705
0.042312,0.17021,0.0010753,-0.40891,-0.016773,0.036814,-0.0054573,0.010597
-0.054216,-0.34066,0.005543,0.46616,0.073606,0.018838,-0.0039494,-0.028983
-0.019162,0.053566,-0.044693,-0.32605,-0.13309,-0.021839,-0.010791,0.0016725
0.077867,0.12614,0.021616,0.27154,0.082159,0.047533,0.044143,0.024409
-0.03593,0.19702,-0.0068955,-0.24615,-0.12395,-0.054497,-0.026784,0.00014454
0.077371,-0.0077851,-0.036649,-0.0017373,-0.00089774,-0.031313,0.002933,-0.01645
-0.066462,-0.27013,0.033982,0.10772,-0.017022,-0.015963,-0.030731,-0.0019501
-0.0066033,-0.043587,-0.029151,0.45721,0.19505,0.053902,0.012989,0.012394
0.092622,0.19526,0.071124,-0.017194,0.05703,0.021991,0.032762,0.034422
-0.065922,0.01731,-0.024301,-0.38828,-0.09571,-0.033516,-0.017985,-0.029545
-0.029224,-0.013646,0.012882,0.10667,-0.053062,-0.0031271,0.0017086,-0.023131
-0.01591,-0.13791,0.0030653,-0.66776,-0.089395,-0.019523,-0.017199,-0.00084315
-0.033422,-0.087628,-0.04592,0.40377,0.028846,0.018958,0.0037082,-0.017162
0.0046986,0.029971,0.037811,0.17204,0.098002,0.026413,0.0021404,0.029663
-0.0026101,0.075865,-0.0113,0.48888,0.024181,-0.0050168,0.017266,-0.00088233
0.08557,-0.011825,-0.021219,-0.7149,-0.11421,-0.0051239,0.017821,0.031819
0.034807,0.2663,-0.0073291,0.21086,0.10535,0.01815,-0.035388,-0.0051959
0.071219,0.18187,0.015025,0.51042,-0.058404,-0.029042,-0.0019621,-0.010642
-0.13407,-0.43961,-0.047679,-1.0484,-0.11225,-0.013907,0.00061569,-0.023934
-0.0037936,0.016131,0.046833,0.3569,0.069797,-0.030112,-0.012354,-0.0063692
0.047226,0.023094,0.040619,0.39204,0.16818,0.063144,0.04475,0.033945
-0.16897,-0.27198,-0.0041844,-0.27771,-0.11356,-0.022975,-0.023657,-0.028168
0.089755,0.28658,0.029075,0.34028,0.076177,0.016437,0.024425,0.010394
0.034628,0.058699,-0.047696,-0.23082,-0.13011,-0.013788,-0.014203,0.0091346
-0.0056787,-0.040196,-0.016237,-0.18717,0.056061,0.0035636,-0.022293,-0.000436
0.0085001,0.0073615,0.029461,0.36851,-0.069142,-0.0097474,-0.0074629,-0.01797
0.022968,-0.054562,-0.082373,-0.14312,0.048233,0.024163,0.0071436,0.0037841
0.030181,0.10373,0.0080796,-0.35593,0.055948,0.019029,-0.0015761,0.01048
-0.024536,-0.094887,0.035891,0.29167,-0.015309,-0.025502,0.013554,-0.0054492
-0.024184,-0.0016317,0.0018404,-0.27925,-0.10347,-0.047243,-0.0019625,-0.004839
-0.031546,-0.030904,0.070662,0.33664,0.1193,0.031717,0.022222,0.012246
0.039049,0.097654,-0.069752,0.26314,-0.058095,0.00035756,3.1357e-05,0.0065172
0.015571,0.078114,0.0024809,-0.40755,0.020559,0.022798,-0.014127,0.0010597
-0.12543,-0.20024,0.013538,0.36965,0.066274,-0.0023519,-0.012797,-0.020167
0.10054,0.15989,0.04085,-0.41483,-0.10047,-0.020153,0.019296,0.020561
-0.056356,-0.21723,-0.010181,-0.19207,-0.081014,-0.030321,-0.027482,-0.017688
0.060265,0.16047,-0.030984,0.45132,0.10931,0.029915,0.0030075,0.0055579
0.1067,0.074752,0.0091319,-0.093821,0.072343,0.043586,0.0092712,-0.0034085
-0.034302,-0.12171,-0.038452,0.025297,-0.058813,-0.012599,0.022796,0.010332
-0.089425,-0.060213,-0.017228,-0.048552,0.036427,-0.021386,-0.02637,-0.015339
-0.07441,0.010864,-0.0046859,-0.054652,-0.1104,-0.045268,-0.012806,-0.033086
0.026321,0.046105,0.015669,-0.098991,0.071354,0.056344,0.01701,0.043476
0.040949,0.038674,0.044728,0.26725,-0.027308,-0.013478,-0.01475,0.0037437
0.063365,0.082609,0.051946,-0.069924,0.00028899,0.0030245,0.017048,-0.0036918
-0.023443,-0.072564,0.0064111,-0.34238,0.045193,0.027674,0.042036,0.021104
0.0072587,-0.021737,-0.060757,0.45914,-0.032869,-0.064581,-0.033779,-0.01589
-0.024089,0.030386,-0.040811,-0.29022,-0.022754,-0.00036024,-0.0076505,0.0020995
-0.047093,-0.035073,-0.01298,0.14272,-0.0025907,0.032757,-0.012839,-0.0035191
0.039846,0.08511,-0.041278,0.22434,0.027368,0.026854,0.012725,-0.0097284
0.017979,-0.16472,0.075584,-0.32983,0.019748,-0.010384,-0.0016124,-0.0090026
-0.042416,-0.042696,0.038718,0.070396,0.044175,0.0068543,-0.0091825,-0.0014457
0.053908,0.24839,0.010204,0.28102,0.0061224,0.015976,0.029028,0.013028
-0.021278,-0.13441,-0.0037943,-0.56006,-0.10295,-0.061168,-0.043134,-0.0044042
-0.018113,-0.11189,-0.035455,0.045426,-0.049215,-0.037022,0.0011042,-0.014353
0.016357,0.043459,-0.068936,0.46395,0.065461,0.026036,0.013585,0.022581
-0.019627,0.13697,0.16313,-0.43706,0.061371,0.057829,0.049304,0.012925
0.022156,0.020283,0.15647,0.273,-0.045656,-0.027497,-0.016435,-0.0040867
0.00086085,0.036698,-0.052337,0.34543,0.033768,0.027848,-0.0036555,0.0028494
-0.005601,-0.064673,-0.23777,-0.76524,-0.082845,0.0049634,-0.021461,0.0024373
-0.020854,-0.12862,-0.37673,0.55172,-0.0046718,-0.049529,-0.046157,-0.052304
0.033091,0.13305,-0.14189,-0.1479,0.080766,0.059386,0.03186,0.033818
-0.031328,-0.17076,0.19844,-0.31638,0.0013119,-0.051357,0.017444,0.0028913
0.067179,0.10071,0.44302,0.28891,-0.016981,0.0087338,-0.0034057,0.0032933
-0.038419,0.096612,0.46465,-0.050745,0.025264,-0.025921,0.031721,-0.0040572
-0.074401,-0.18188,0.19448,0.19557,-0.0053297,0.024601,-0.025877,-0.019153
0.061186,0.063499,-0.64276,0.011604,0.015947,0.020067,-0.028193,0.012706
0.0094368,0.021628,-0.14418,-0.30647,-0.066994,-0.023409,0.039841,0.0055789
-0.01041,0.068594,-0.054922,-0.048225,-0.01905,-0.019393,-0.017702,0.014124
0.033346,0.040991,-0.16465,0.31756,0.051678,0.055974,0.025156,0.014847
-0.0073862,-0.084448,-0.0095002,0.22901,-0.032818,-0.015778,-0.011736,-0.015752
-0.07772,0.020151,0.11266,-0.41409,-0.13791,-0.039239,-0.027081,-0.046477
0.025482,-0.036387,0.09492,-0.28946,0.22237,0.063627,0.010356,0.032028
0.036411,-0.051637,0.13742,0.11292,-0.013403,-0.019926,-0.0085575,-0.014592
0.017186,0.02835,0.050728,0.18569,-0.048084,-0.040261,0.018211,0.0090214
0.0063367,-0.015896,-0.042249,0.18787,-0.015114,0.0022082,-0.018093,0.0091711
-0.020193,0.07273,0.027148,-0.18522,0.060611,0.021133,0.016021,0.0093282
-0.023952,-0.034625,-0.12088,0.21348,0.0051667,0.00052608,-0.003822,0.0016812
0.010182,0.044087,0.030659,-0.095105,-0.027472,0.0026121,0.0087981,0.0018233
-0.011857,-0.074732,0.013015,-0.12192,-0.00032923,0.0037931,-0.008346,-0.029356
0.019225,0.12382,-0.08096,0.46603,-0.071162,0.011857,0.0072829,0.0096636
-0.0136,-0.056087,0.08341,-0.32534,0.07969,-0.0043221,0.00081118,0.0016806
-0.0084137,-0.044329,-0.04971,-0.37924,-0.047465,0.0023955,0.0031289,-0.0064056
0.035271,0.0422,-0.051325,-0.17088,-0.068636,-0.053551,-0.0018496,0.016716
-0.0070217,-0.061304,0.094119,0.52113,0.057012,0.01576,-0.0067912,0.00081874
-0.017626,0.052698,-0.11283,-0.16729,-0.027934,-0.023666,-0.019931,-0.0071363
-0.0040041,-0.082957,0.078836,0.00068758,0.0063528,0.031526,0.013106,-0.014896
0.0027628,0.041143,0.061025,-0.036677,0.090617,0.040708,-0.0016063,0.0088094
0.002638,-0.13622,0.0068861,-0.16374,0.037534,-0.0042078,0.0061992,0.0014404
0.003203,0.14341,-0.098124,0.9672,-0.020806,0.0056431,0.0053366,0.0097648
0.035332,0.11425,0.020179,0.10861,0.023558,-0.00069012,-0.011869,-0.013256
-0.034224,0.0018676,0.034026,-0.70599,-0.049855,-0.0081864,0.01726,0.018125
0.044146,0.085905,0.021517,-0.10563,-0.078571,-0.0094295,0.014795,0.025603
-0.042298,-0.057313,-0.0020636,-0.23204,0.045745,-0.035723,-0.026882,-0.022182
0.0033089,-0.17151,-0.037285,-0.2155,-0.067754,-0.0085981,-0.013828,-0.039299
-0.04535,-0.1716,-0.045797,0.0045977,-0.004363,-0.0054873,0.022889,-0.0099993
-0.0081349,0.028341,-0.012761,0.28007,0.026339,0.0057545,-0.018131,0.019079
0.013945,0.12444,0.053175,0.33805,0.088592,0.0025781,-0.019566,0.016993
0.052641,0.12579,0.026137,0.27124,0.01224,0.071585,0.065541,0.023114
0.01451,-0.013117,-0.016654,-0.22928,-0.099855,-0.0057041,-0.028413,-0.032631
-0.014499,-0.0099965,0.033275,-0.47634,-0.059602,-0.034169,-0.0045979,0.013943
-0.0034491,0.07314,0.0032247,0.9088,0.21087,0.063698,-0.0037379,-0.0090565
0.02365,-0.04506,0.033185,-0.62766,-0.0082558,-0.041122,-0.010343,0.023226
-0.058912,-0.15421,-0.12718,-0.25024,-0.10922,-0.052724,0.030129,-0.014444
0.0059931,0.088691,-0.0090548,0.22056,0.077994,-0.0031865,-0.023075,-0.01296
0.030359,0.026709,0.059884,0.067521,-0.073258,0.013218,0.017446,0.019623
-0.0016496,-0.043702,0.0023154,0.21685,0.0062485,0.019806,-0.02805,-0.026244
-0.011775,-0.1148,-0.016693,-0.57384,-0.066566,0.0090527,0.012292,-0.0022025
-0.054246,0.063647,0.019515,0.27655,-0.056712,-0.034048,-0.017771,-0.001987
0.035689,0.085835,0.033698,-0.070184,0.14655,0.024143,0.038018,0.029176
0.01662,0.085052,-0.020427,0.12743,0.013802,-0.0029966,-0.0078428,0.0054722
0.0064341,-0.024247,-0.01764,0.20492,0.039164,0.065002,0.016492,0.0051552
-0.017832,-0.10119,-0.012798,-0.37024,-0.16635,-0.099431,-0.053092,-0.041981
0.037723,0.049617,0.048271,0.19564,0.070187,0.011758,0.033343,0.020386
-0.030228,-0.10308,-0.046139,0.12344,0.014646,0.031271,-0.005513,-0.010837
0.066884,0.026559,0.0077554,-0.25155,0.033618,-0.010102,0.0021735,0.020594
-0.062243,0.047739,-0.0018962,-0.21374,0.0007596,0.0040831,-0.0061102,-0.010363
0.0035649,0.0070607,0.064736,0.60673,0.086104,0.041658,0.00090525,0.0055987
-0.025332,-0.072458,-0.081987,0.10211,-0.063905,-0.0077019,0.015457,-0.0097312
0.022596,0.12892,-0.012663,-0.1713,-0.10729,-0.027622,-0.017069,0.013869
-0.032407,0.0010935,0.046183,-0.56248,0.017212,-0.01082,-0.0028367,-0.0096181
-0.026099,-0.13635,-0.014469,-0.051457,-0.042462,-0.035572,-0.0042547,-0.025567
0.057492,0.16908,0.063816,0.73537,0.15923,0.039005,0.017824,0.028492
0.031268,-0.067334,-0.054085,-0.87335,-0.19722,-0.028676,0.016599,0.019754
0.0284,-0.048634,-0.023517,0.41335,0.10804,-0.0034237,-0.015677,-0.0048545
-0.06023,-0.032075,-0.023286,0.043264,-0.064547,0.037499,-0.016446,-0.0218
-0.015729,-0.024474,-0.013602,0.64377,0.12955,0.032334,0.014353,-0.0075015
0.0057061,0.04575,0.131,-0.56455,0.042228,-0.026234,-0.024786,-0.0086599
0.043156,0.00020999,-0.06593,0.10706,0.040556,0.010438,-0.0088109,0.013973
-0.05179,0.050913,-0.026525,0.15951,-0.094562,-0.0061559,0.054491,0.021499
-0.021256,0.003171,0.029868,-0.73425,-0.090014,0.0018555,-0.006766,-0.0094095
0.041111,0.013312,0.024307,0.48203,0.0073038,-0.012732,-0.020761,-0.00059802
0.041684,0.073077,-0.0050336,-0.18945,-0.03652,-0.018964,0.012411,0.0010001
-0.050682,-0.14647,-0.051115,-0.027269,0.021665,-0.024845,-0.024558,-0.020381
0.014063,0.10369,-0.005071,0.58842,0.034727,0.04768,0.024453,0.02099
-0.0063142,-0.1383,0.023593,-0.65277,0.027481,-0.035749,-0.028183,-0.00012408
-0.041672,-0.029376,0.019532,0.1486,0.032311,0.01396,0.0049174,-0.021468
0.024868,0.0081134,-0.00098314,0.27331,0.0029585,0.024901,0.0064583,0.01143
0.020993,0.059853,-0.076123,0.0084591,-0.076257,0.012549,0.023213,0.028099
0.039926,0.11787,0.01383,-0.38359,-0.010769,0.007882,0.00040486,-0.018418
-0.020436,-0.021111,0.08223,0.24939,0.17468,-0.0050768,-0.015157,-0.018734
-0.012099,0.0099419,-0.018797,0.35644,-0.029361,-0.011048,-4.9558e-05,0.0038185
0.041272,-0.015635,0.0077729,-0.36272,-0.13236,-0.025899,-0.008904,0.018178
-0.078993,-0.12121,-0.064928,0.0038349,-0.041982,-0.018443,0.013114,-0.022291
-0.044341,-0.0095412,0.043638,-0.63036,-0.0091852,-0.027594,-0.019701,-0.00014508
0.052212,-0.0080882,0.043413,0.36853,0.0046746,0.04854,0.00232,0.022345
-0.0071696,0.079411,-0.019812,0.29171,0.14031,0.054151,0.040425,0.014095
0.051868,0.066526,0.024866,-0.069106,-0.015879,-0.025929,-0.053556,-0.017006
-0.019953,-0.092627,-0.096659,0.45268,0.068061,-0.019448,0.0017892,-0.024104
0.012116,0.094867,0.01381,-0.48467,-0.14615,-0.012109,0.026779,0.023938
-0.055118,-0.19881,-0.026328,0.30766,-0.087449,-0.0038541,-0.0021972,-0.02932
0.074717,0.17457,0.033516,-0.30241,0.15887,0.013004,0.0082632,0.019003
0.0023349,0.042431,0.053524,-0.11925,-0.016135,0.038189,0.01863,0.028012
-0.03892,-0.13543,-0.043603,-0.12727,-0.018495,-0.038057,-0.010662,-0.018175
0.020246,0.038012,0.016234,-0.18629,-0.08265,-0.01303,-0.017548,0.0052387
-0.0084758,0.029983,0.022472,0.59321,0.12702,0.04257,0.0055214,0.0043964
-0.086481,-0.098395,-0.0092163,0.060886,-0.02278,-0.043422,-0.043044,-0.036307
0.044008,0.10496,-0.00093106,-0.090701,-0.0091954,0.025729,0.024481,0.0082878
0.039612,0.13173,0.062575,0.24462,0.0032211,-0.023388,-0.010219,0.0056439
-0.020861,-0.22106,-0.11595,-0.20954,-0.017042,0.0047277,0.033092,-0.0048253
0.027511,0.063072,0.017941,0.02933,0.039488,0.016644,-0.0090986,0.0084895
0.021549,-0.037796,0.003292,-0.31217,-0.037611,-0.010688,-0.0035486,0.022454
-0.022333,-0.037302,-0.034696,-0.3411,-0.099004,-0.014367,0.01091,-0.0096129
-0.05667,0.082343,0.037131,0.087556,-0.0029251,0.021591,-0.0047947,-0.0095262
0.020439,-0.09875,0.0081833,0.51861,0.095537,0.011525,0.0037973,-0.00079626
0.052811,0.11618,0.0036716,0.20019,0.064498,0.025925,0.020677,0.0085877
-0.045694,0.032446,0.047004,-0.45656,-0.033072,-0.036687,-0.02491,-0.0050494
0.013559,-0.014322,-0.018373,0.098058,0.005839,-0.020055,-0.01617,-0.0028964
0.026845,0.013731,0.025766,0.23925,0.0086466,-0.0023599,-0.00023158,-0.0086151
-0.045581,-0.088394,-0.055574,0.019182,-0.033655,0.00065614,0.0072167,0.0010611
0.014355,0.028661,-0.0051502,-0.51222,-0.091307,-0.0033877,-0.0015002,0.0025878
0.034202,0.097134,-0.010836,0.38102,0.021633,0.00084235,0.012977,0.011541
-0.056751,-0.19719,-0.033666,0.19224,0.10844,0.036383,-0.019281,-0.011145
0.046013,0.074318,0.082793,-0.49868,-0.011634,0.032427,0.011476,0.012678
0.014446,0.13797,-0.020434,-0.01662,0.035821,-0.0037376,-0.0038478,0.012739
-0.08866,-0.24796,-0.092859,0.51089,-0.10076,-0.049142,0.0051742,-0.034349
0.018396,0.058199,0.084716,-0.596,-0.084842,-0.033778,0.00721,0.0042846
0.04706,0.10463,0.043829,0.64918,0.17847,0.050117,0.017618,0.01933
-0.025642,-0.044842,-0.0045123,-0.21054,-0.051457,-0.031596,-0.0030621,-0.012578
0.01937,0.056184,-0.0057539,-0.7168,-0.069774,-0.012789,-0.031836,-0.013243
0.033807,0.11156,0.03203,0.76897,0.047049,0.044724,0.01684,0.033024
0.017642,-0.058012,-0.12581,0.080311,0.026886,-0.022377,-0.021362,-0.014349
-0.037091,-0.12429,-0.041968,-0.40343,-0.027965,0.013138,0.02535,-0.0068919
-0.060271,-0.048212,0.12729,-0.20301,-0.086232,-0.0045115,-0.030427,0.0085359
0.026073,0.0061758,-0.024166,0.71355,0.1326,0.018621,-0.016579,-0.0071329
-0.043757,-0.023621,0.019558,-0.31905,0.04905,-0.011314,0.020331,0.00076828
0.066184,0.081098,-0.045921,0.15735,0.036323,0.030325,0.057165,0.00095403
0.012194,0.085745,0.1,-0.1657,-0.11837,-0.060133,-0.046478,-0.0066229
-0.0025696,0.11485,-0.14401,-0.17497,-0.049419,0.0057572,0.053265,0.0092322
-0.03283,-0.28542,0.097181,0.0089231,0.0078262,0.016471,-0.049846,0.0094001
0.046297,0.13405,-0.035761,0.18834,-0.017164,0.010615,-0.0043026,0.0016448
-0.015378,0.036436,0.019624,0.026345,0.024602,0.019179,0.010147,-0.0062503
-0.038381,-0.10238,-0.0023907,-0.41418,0.0092827,-0.028181,-0.014331,-0.022099
0.047414,-0.0015335,-0.016001,0.69636,0.00086095,-0.037526,-0.015201,0.0010042
-0.015912,-0.0047473,-0.0057321,-0.49928,0.039882,0.022761,0.015438,0.0084225
-0.056484,-0.049155,-0.018613,-0.022242,-0.0052691,0.020328,0.01519,0.0080265
0.058624,0.14711,0.0702,0.098223,0.0067547,-0.020919,-0.00024482,0.015487
-0.045386,-0.055847,-0.044139,0.1603,0.083951,0.040022,0.008202,-0.016051
0.045796,0.022358,-0.018046,0.14094,-0.11772,-0.031003,-0.014235,-0.00065665
0.035542,0.12451,0.015504,-0.038484,0.018294,0.0082227,0.018229,0.0069569
-0.029053,-0.17858,0.048553,-0.1996,-0.024404,0.040367,-0.011786,-0.016675
-0.03063,-0.042782,-0.020563,-0.42239,-0.059104,-0.052035,-0.0029014,0.0065589
0.0074994,0.063478,-0.012188,0.017506,0.015061,0.0041206,-0.0021201,0.021988
0.0072944,-0.047036,-0.051256,0.33654,0.010023,-0.018048,-0.0094805,-0.032844
-0.023392,0.08678,0.0030142,0.67309,0.15191,0.029656,-0.0014896,-0.0016176
0.0091737,-0.050686,0.041483,-0.24034,-0.036149,0.0064812,0.0063557,0.014178
0.011154,0.032564,0.040978,-0.38924,0.00042889,-0.032887,-0.0092269,0.0067887
0.021436,0.062682,-0.0060647,-0.16413,-0.050717,0.021039,0.01439,-0.00032665
-0.0071107,-0.11717,-0.083834,-0.024352,-0.056298,-0.011236,-0.00086523,0.00061765
-0.012297,0.093888,0.0030771,0.29103,0.039206,0.042403,0.023083,-0.0060804
0.021185,-0.031362,0.10622,-0.40906,-0.020901,-0.036543,-0.015472,0.0028999
-0.024118,-0.055935,-0.079228,0.13002,-0.094773,-0.00566,0.0082699,0.0039824
7.45e-05,0.04331,0.016855,0.39681,0.037404,0.018047,0.00035817,-0.018599
-0.031253,-0.093054,0.019201,0.050387,0.1497,-0.0043685,-0.039342,-0.010281
0.053904,0.11324,-0.017771,-0.10356,0.031149,-0.010371,0.021957,0.03665
-0.025459,-0.032853,-0.023984,-0.402,-0.13149,-0.0078264,-0.018764,-0.010676
0.012213,0.062669,0.031648,0.57414,0.097922,0.010926,0.010581,0.011786
-0.0281,-0.053157,0.016239,-0.56202,0.014523,0.022204,0.0087024,-0.013116
0.010058,-0.036588,-0.054574,0.29429,-0.055278,-0.013373,0.0071157,-0.022794
0.01738,0.002803,0.077099,-0.21298,-0.042502,-0.010236,-0.017416,0.021959
0.017208,0.009966,-0.15114,0.52182,-0.041552,0.0078107,0.044576,0.0041437
-0.014148,0.086002,0.049836,-0.46475,-0.0053985,0.0013864,-0.0022428,0.0021005
0.0010837,0.050773,0.16442,0.23244,0.019987,0.0093351,-0.06424,-0.015205
-0.031222,-0.27572,-0.073057,-0.566,0.0047667,-0.030921,0.014659,-0.016337
0.013635,0.169,-0.04551,0.28983,0.075513,0.021328,0.03896,0.030076
0.041768,0.096208,0.012635,0.34898,-0.0085897,-0.0055475,-0.014925,-0.00092402
-0.0014126,-0.071466,-0.0079308,-0.22203,-0.098229,-0.0096022,-0.006452,-1.5405e-05
-0.053052,-0.10632,-0.0053946,0.41506,0.18963,0.017447,-0.0059387,0.0014171
-0.034436,-0.0069855,0.0050779,-0.58152,-0.03604,0.013597,0.0023099,0.0031831
0.047367,-0.02205,-0.030575,0.26637,-0.073019,-0.036321,-0.012833,-0.010549
0.021253,0.16216,-0.017905,-0.15716,-0.039608,-0.0069583,0.042523,0.0069141
-0.010564,0.054167,0.090595,-0.1088,-0.030613,0.031564,-0.018996,-0.014866
-0.024264,-0.13506,-0.009331,0.22504,0.031331,-0.014504,-0.017636,-0.013446
-0.012021,-0.038987,-0.028512,0.2751,0.09121,0.034331,0.007527,0.018987
0.064831,0.09106,0.017148,-0.34049,-0.061774,-0.017597,-0.021739,-0.0034709
0.010216,-0.0044951,-0.037084,0.050877,-0.044285,-0.006681,0.034992,0.01296
-0.012816,-0.085403,0.0030873,-0.45673,-0.043058,-0.0037117,0.021207,-0.0098518
0.010279,0.21373,0.019214,0.24571,0.08336,-0.0012924,-0.0086895,0.021794
-0.062068,-0.18657,0.0099241,0.38359,0.093509,0.0081001,-0.015882,-0.0015676
0.019504,0.095853,-0.041729,-0.20922,-0.058964,-0.030347,-0.0083333,-0.0097212
-0.073353,-0.19666,0.027224,0.27702,-0.014393,0.00059472,-0.02512,-0.018361
0.057999,0.069627,0.052036,0.16752,0.055457,0.022977,-0.0036113,-0.004056
0.023482,0.044617,-0.045525,-0.37604,-0.068141,0.021436,0.040817,0.0020171
-0.019904,-0.098092,0.032003,-0.3001,-0.072665,-0.011551,-0.008711,0.015631
0.045815,0.15092,0.0047049,-0.0025115,0.018496,0.010224,-0.0034535,-0.0020782
-0.013052,0.089744,-0.070709,0.22221,0.017871,-0.0224,0.017769,0.0037898
0.014927,-0.038817,-0.004224,-0.083303,-0.0043333,-0.031161,-0.015211,0.0021767
-0.010602,-0.055009,-0.090027,-0.12607,0.0061975,0.030868,0.030463,0.0010358
-0.034885,0.056423,0.02588,0.22984,0.064352,0.0073968,-0.017117,0.0082527
-0.026769,-0.21293,0.1343,-0.17829,0.044036,-0.0079506,-0.033021,-0.046487
0.00572,0.042562,-0.02971,0.77353,0.06112,0.023693,-0.0017018,0.01643
0.046656,0.017641,0.1192,-0.30084,-0.12007,-0.0072831,0.0064691,0.017176
-0.0137,0.024313,-0.030128,-0.32836,-0.039581,-0.015171,0.0070752,0.0024409
0.0039288,0.062075,-0.097606,-0.21316,-0.096263,-0.0079609,0.023517,0.018893
