-0.0026451,-0.0032931,0.010443,0.0048005,0.013122,-7.1349e-05,0.0066796,-0.0010138
-0.0031717,-0.002922,-0.0050957,-0.002005,0.0127,-0.00082387,-0.0024786,0.014467
0.0041527,-0.002683,-0.0041924,-0.00080242,0.004653,-0.024498,-0.025784,-0.024933
0.0037933,-0.018177,-0.0024646,0.0082725,-0.0032539,0.022634,0.038113,-0.0020433
-0.011952,-0.0023885,0.0077405,-0.0061745,-0.011078,-0.046979,-0.092492,-0.010542
-0.0039105,-0.0019556,-0.020801,-0.0052095,-0.018858,-0.022443,0.042731,-0.011212
0.0045596,-0.0087856,-0.002681,-0.012364,-0.0031624,0.096217,0.15407,0.019581
0.013481,0.016416,0.030192,0.019191,0.028235,0.14494,-0.14185,0.019515
-0.0084507,-0.012201,-0.0088099,-0.0042953,-0.010544,-0.29033,-0.017297,-0.011303
0.0089415,0.0067857,0.051609,0.010974,-0.0022527,0.071661,0.11353,0.020868
0.0029585,0.026104,0.086149,0.0025795,-0.0015589,-0.058194,-0.2492,-0.016909
-0.011002,0.0060674,-0.1238,-0.029376,0.0071242,0.04651,0.09801,0.00014484
0.013725,0.016248,-0.14787,0.00897,0.0080653,0.041709,0.10104,0.001456
-0.008941,0.016883,0.022955,0.00053658,0.0011037,0.20037,0.088602,-0.013219
-0.024356,-0.070629,0.10118,0.01572,-0.006131,-0.21243,-0.11841,-0.0049875
0.014424,0.019238,0.31505,0.015503,0.0018248,0.091885,0.027349,0.0026502
-0.0018148,-0.064724,-0.60745,-0.039174,-0.0063733,0.058381,0.026273,0.01756
0.0052717,0.0063972,0.19389,0.0078943,-0.0072835,-0.29717,-0.23072,0.00083292
0.01246,0.038364,0.094048,-0.0074424,-0.0086046,0.057021,0.24092,-0.0082548
0.0042777,0.0088933,0.1233,0.016263,0.013307,-0.081322,-0.19941,-0.0251
-0.01924,0.11429,0.34229,0.032005,-0.0037923,0.13242,0.14337,0.012985
-0.011329,-0.1761,-0.66546,-0.046273,0.010665,0.21451,0.065622,0.020173
0.0043076,0.012847,0.12098,0.015719,0.0021874,0.071343,-0.035057,0.012089
-0.011791,0.11818,0.066615,-0.00079067,-0.013502,-0.29742,-0.034708,-0.019189
0.0024008,-0.0016255,-0.0095961,-0.017626,0.0026408,0.044966,-0.035994,-0.0035362
0.10893,-0.050858,0.24357,0.027845,0.027051,0.14455,0.053904,-0.0036742
-0.028473,-0.007287,-0.27473,-0.012622,-0.0029717,-0.22584,-0.015561,0.011454
-0.034853,-0.02033,-0.12534,-0.021616,-0.017342,0.2149,0.19311,0.033932
-0.019284,0.089163,0.12366,0.0088905,-0.031883,-0.27491,-0.37416,-0.061218
-0.067013,-0.16315,0.16996,0.039995,0.023589,0.10262,0.041551,-0.00039014
-0.075475,0.067082,-0.06243,-0.029794,0.016223,0.028554,0.050991,0.0057631
0.011148,-0.023773,-0.087647,0.0026117,-0.014872,0.0511,0.1086,0.0044663
0.24857,0.081194,0.071528,0.0042544,0.00072358,-0.0084671,-0.034766,0.01949
-0.042221,-0.015219,0.11803,-0.0094718,0.00064079,-0.0092287,-0.011761,-0.011429
0.029631,-0.015211,-0.12089,0.0080282,-0.0071959,-0.061056,0.028508,0.013344
-0.067401,-0.027751,-0.10745,0.0017831,0.039776,0.4442,0.23314,0.01557
-0.16209,-0.076493,0.22732,-0.0050098,-0.04595,-0.54204,-0.17299,-0.044103
0.01032,0.27524,-0.27395,0.0031187,0.016804,0.095568,-0.10543,0.021418
0.18334,-0.13791,0.020852,-0.012937,0.0091708,0.097593,0.15368,0.024185
-0.03442,0.088765,0.28337,0.0094036,-0.0064824,-0.13859,-0.55959,-0.044006
0.012784,-0.30402,-0.23621,0.023462,0.024427,0.26946,0.49034,0.050962
-0.081542,0.12004,-0.021865,-0.032979,-0.046583,-0.34977,0.016514,-0.081603
-0.012684,0.055619,0.0831,-0.011158,0.014902,0.21559,-0.072199,0.066247
0.02426,0.010464,-0.0069724,0.011112,-0.025372,-0.11132,-0.031039,-0.052051
0.037388,0.016397,0.12199,0.010632,0.02809,0.17085,0.087322,0.040481
-0.098106,0.058912,0.047813,0.010959,0.019239,-0.11644,-0.044218,-0.0151
0.047421,-0.047932,-0.16749,0.004253,-0.012687,0.09788,-0.082125,0.015925
0.12203,-0.06792,-0.19634,-0.025281,-0.012883,-0.17806,0.15179,-0.0068812
-0.125,0.055555,0.22643,0.015829,0.018688,0.3681,-0.14977,-0.0054124
0.071015,-0.11325,-0.0088004,0.0022531,-0.011766,-0.40469,0.1036,0.020112
0.037248,0.036307,0.082371,0.011804,0.020654,0.081069,0.041172,-0.016621
-0.023855,-0.15148,-0.077912,-0.033873,-0.032621,0.051289,0.12073,0.024563
0.012585,0.33074,-0.12201,0.0057448,0.00015143,0.044449,0.011949,0.0026158
-0.1653,0.083016,0.028744,-0.0099268,0.0173,0.083508,-0.411,-0.028083
0.014234,-0.1158,0.093647,0.020838,-0.0046822,-0.2616,-0.12401,-0.052031
0.084508,-0.15932,0.049725,-0.011098,0.012296,-0.045867,0.093664,0.048042
-0.077097,0.043219,0.03015,-0.0039223,-0.017706,0.36324,0.36981,-0.024483
-0.02302,0.020557,-0.074178,0.026935,-0.00093486,-0.19076,-0.011374,0.051066
0.23276,0.036827,0.041685,-0.0043699,-0.0077069,0.073241,-0.094256,-0.0061848
-0.035606,0.029334,0.034283,0.011513,0.01663,0.13969,0.07591,-0.008423
-0.13322,-0.19604,-0.61949,-0.034931,0.0016868,-0.19407,-0.19554,-0.01014
0.071268,0.13652,0.67439,-0.0032912,-0.0057737,-0.27862,0.29436,0.019983
-0.033734,0.0067746,-0.11523,0.020254,0.017558,0.31728,-0.21274,-0.027471
0.088256,-0.12872,0.026975,0.012055,0.016887,0.16595,0.19669,0.050519
-0.033963,0.03777,0.076839,-0.028024,-0.046888,-0.34764,-0.4071,-0.058666
-0.074163,0.12551,-0.38085,0.025,0.0059859,-0.026203,0.077938,0.0042601
-0.072448,0.04149,0.29313,-0.039694,-0.0118,0.069094,0.035601,0.0048868
-0.036716,0.027146,0.066186,0.043777,0.025058,0.11045,0.17794,-0.0020854
0.13536,0.025724,0.21854,0.0023478,-0.015881,0.11258,-0.095889,0.022443
0.10918,-0.247,-0.37522,-0.0072887,0.02982,0.018738,-0.082889,0.00036921
-0.13717,0.010367,-0.30854,-0.047184,-0.040665,0.12286,0.05935,-0.013646
-0.055471,0.099506,-0.064831,-0.0075918,-0.00062216,-0.23459,0.21889,-0.01189
0.10512,0.072926,0.49786,0.049197,0.048348,-0.33788,-0.029626,0.028902
0.032279,0.10152,0.13084,-0.0018481,-0.01119,0.27165,0.2319,0.0069409
-0.087046,-0.24403,-0.032172,0.010839,0.0078382,-0.024457,-0.3201,-0.02333
0.066355,-0.032413,-0.11587,-0.0070689,-0.051359,0.015757,-0.42202,-0.007436
0.014508,-0.12825,-0.15955,0.013962,0.037209,-0.16967,0.12126,0.0076159
-0.072076,0.16674,0.17219,0.0027661,0.023043,0.53743,0.2177,0.021805
0.17283,0.08189,-0.097763,-0.04925,-0.078579,-0.15874,0.2143,-0.011639
-0.2979,0.17391,-0.1103,0.029231,0.052524,-0.37441,-0.2832,-0.029998
0.094454,-0.095337,0.087892,-0.0041993,0.018024,0.28178,0.10439,-0.0017268
0.054485,-0.11674,0.067729,-0.0087431,-0.033307,-0.088048,-0.07258,0.0031708
-0.11881,0.038174,-0.16209,0.016145,0.016232,-0.069339,0.078574,0.00058605
0.12394,0.062921,0.30562,-0.053702,-0.035873,0.10406,-0.0042681,0.076629
0.10547,-0.075608,-0.17689,0.024873,0.014118,0.26095,0.060442,-0.026449
-0.015897,-0.089861,-0.038993,-0.0050006,-0.0051468,-0.51183,0.067074,0.0038228
-0.18411,-0.027591,0.023744,0.044923,0.047308,0.099312,0.12194,-0.059188
0.038837,0.087589,-0.012884,0.042265,0.030992,0.36124,-0.22308,0.026648
-0.02715,0.04515,0.09211,-0.06759,-0.061994,-0.31078,-0.29013,-0.066796
0.101,-0.052624,0.032601,0.019797,-0.013159,-0.072008,0.33448,0.03553
0.10095,0.05281,-0.044405,-0.0085569,-0.0025574,0.10156,-0.39502,0.083707
-0.053289,0.010362,-0.14007,0.010837,0.039724,0.022475,0.15646,-0.039399
-0.13007,-0.070541,0.21364,-0.024126,-0.011681,0.31522,0.38226,0.025572
0.0086297,0.090967,-0.35842,-0.004488,-0.016444,-0.075803,-0.34808,-0.080879
-0.069022,0.041071,0.22226,-0.039877,-0.021653,-0.43296,0.091641,-0.030859
0.15894,-0.025698,0.026705,0.018029,-0.011821,0.41463,0.18549,0.10499
0.004397,-0.024018,-0.12388,0.067625,0.091091,-0.36965,0.17372,0.029393
0.053531,-0.19632,0.3104,-0.023949,-0.017656,0.10449,-0.48588,-0.078341
-0.15346,-0.011159,-0.1073,-0.014624,-0.033407,-0.17872,0.11705,0.023664
0.080656,0.1727,-0.017152,0.017274,-0.0030336,0.085192,0.10411,-0.0084905
-0.093198,0.090424,-0.16881,0.016812,-0.028047,0.29403,0.23861,0.020587
0.01529,-0.24159,-0.10099,-0.0084022,0.047929,0.11067,-0.46451,-0.029402
0.088565,0.30219,0.24923,-0.011555,0.014164,0.088156,0.0037289,0.0061572
-0.11324,-0.11401,0.038624,-0.00028315,-0.035305,-0.056463,-0.096077,-0.051739
0.10668,-0.045031,-0.036894,0.018055,-0.0063924,-0.6213,0.0055147,0.024156
-0.071583,0.12595,-0.086124,-0.12771,-0.023751,0.19027,0.66407,0.070314
0.062099,-0.20304,-0.20236,0.01637,0.045729,0.12145,-0.43738,-0.092712
-0.017691,-0.032253,0.4115,0.099544,-0.0087005,-0.30993,0.11717,0.066202
0.04556,0.028849,-0.2368,0.013001,0.023925,0.28973,-0.078256,0.054376
0.053229,0.027258,-0.022637,0.022561,-0.03624,0.783,-0.064157,-0.0039404
-0.05258,0.17412,0.3502,-0.020462,0.0057816,-1.0305,0.062984,-0.031465
0.030265,-0.10067,-0.29878,0.00047395,0.008892,0.43721,0.09661,-0.036734
-0.26219,0.054566,0.12336,-0.0092834,0.01943,-0.25854,-0.20886,-0.06705
0.085547,-0.078898,-0.16533,-0.074141,-0.033425,-0.0088079,0.30799,0.01817
0.098097,-0.024537,-0.1419,0.039432,0.021811,0.23163,-0.15883,0.070819
-0.05829,-0.024577,0.07605,-0.020693,0.0052642,-0.12582,-0.21049,-0.072583
0.048812,0.014722,0.29278,0.026525,-0.028312,0.2202,0.014425,0.018308
0.054972,0.10901,-0.2424,0.071874,0.0073476,-0.49953,0.09745,0.086219
-0.02971,-0.069807,0.11014,-0.071661,-0.027833,0.70384,0.19113,0.022078
0.014998,-0.037393,0.10692,0.0028838,0.038705,-0.57069,-0.33332,-0.010036
-0.0135,-0.020453,0.043481,-0.039604,-0.026713,0.46464,0.12872,-0.057202
-0.045276,0.10572,0.20007,0.07511,0.026499,-0.43996,0.19595,-0.057231
0.074837,-0.04211,-0.72051,-0.042962,0.0033975,0.076739,-0.085214,0.052102
0.0016132,0.019905,-0.053591,-0.0028441,-0.0021902,-0.21643,-0.060936,-0.018404
-0.086787,-0.04468,0.24146,-0.038923,-0.0061126,0.32525,0.07734,-0.034323
0.027118,0.084083,0.24502,0.074966,0.030211,0.13568,0.21547,0.098309
-0.040285,-0.070457,0.24094,0.088084,0.012378,-0.23459,-0.26065,-0.042081
0.015445,0.023233,-0.088625,-0.14114,-0.091566,0.20911,0.043636,0.0057438
0.022703,-0.063853,-0.49162,0.042539,-0.0010227,-0.29796,-0.31922,-0.00020787
0.044631,-0.018205,0.18968,0.013312,0.056941,0.040296,-0.23243,-0.0521
-0.089836,0.044161,0.081069,-0.010561,0.011705,0.54977,0.65693,0.053008
0.1357,-0.0084557,-0.16104,-0.068175,-0.011821,-0.56186,-0.093846,0.010035
-0.098497,-0.026809,0.2285,0.020589,0.0021059,0.045478,0.08881,-0.025315
0.035941,0.13005,0.092399,-0.0012765,0.0069044,0.22774,-0.0027287,0.047902
0.05453,0.047827,-0.18017,0.031302,-0.059498,-0.3067,-0.31089,0.01036
-0.23849,-0.1336,-0.090922,0.017775,0.037776,0.37052,0.36961,-0.12273
0.14836,0.0065806,0.10053,0.021458,0.01017,-0.11555,-0.45992,0.046923
0.08139,0.021901,-0.14657,-0.035286,-0.024691,-0.45894,0.052454,0.050707
0.090994,-0.080813,0.049182,0.027332,0.050695,0.2721,0.19526,-0.032801
-0.19073,0.018118,0.36639,-0.025314,-0.036963,-0.20145,0.10777,0.008015
-0.029775,0.084125,-0.0080455,-0.014041,0.0091884,0.16124,-0.087031,-0.029163
0.019229,-0.046625,-0.55861,0.037084,-0.0063278,0.74384,0.18668,0.012717
0.097481,-0.0064031,0.24636,0.010255,0.041231,-0.24292,0.012637,0.064018
-0.051814,0.033601,-0.045401,-0.071593,-0.051548,-0.25312,-0.36079,-0.031078
0.0023528,-0.074411,0.075054,-0.021303,-0.003669,-0.31918,0.018786,-0.061511
-0.0042371,0.021538,0.046362,0.0046981,-0.0028153,-0.035618,-0.27809,0.019382
-0.062535,0.024644,-0.13838,0.061026,0.013427,0.097642,0.41369,0.00013525
0.0079582,0.098652,0.19324,0.014844,0.013811,-0.098073,-0.045007,0.059676
0.11367,-0.046146,0.080379,0.069254,0.021847,0.39457,0.23788,0.064319
-0.027214,-0.09026,0.15567,-0.049208,-0.024853,0.030629,-0.15844,-0.11177
-0.15816,0.06709,-0.48741,-0.1296,-0.063664,-0.39913,-0.038052,-0.047318
0.32839,-0.027733,0.096267,0.12507,0.093025,0.39544,0.16961,0.093332
-0.0071156,0.11741,-0.57765,-0.019341,-2.2315e-05,0.016257,0.08972,0.029086
-0.31499,-0.16106,0.77222,-0.10151,-0.061525,0.080158,-0.47259,-0.15357
-0.0028379,-0.033986,0.31004,0.082136,0.03349,-0.58559,-0.14929,-0.024123
0.10071,0.015594,-0.51901,-0.061689,-0.051003,0.025624,0.084219,0.12146
0.097621,-0.042164,0.15185,0.076711,0.059852,0.14676,0.32285,0.01832
-0.096739,0.10637,0.017405,0.05214,0.014297,-0.036302,-0.10461,0.026267
0.011737,0.16486,-0.18846,-0.018337,-0.031641,0.47458,0.48131,0.0046682
-0.12161,-0.10122,0.30753,-0.041285,-0.0078623,0.13057,-0.48319,-0.10942
0.18504,-0.020896,-0.4162,-0.024923,0.022975,-0.3905,0.1168,0.11295
-0.027539,0.0059709,0.055201,-0.00086877,0.02175,-0.10562,0.051871,-0.01662
0.05417,-0.17852,0.043093,0.007225,-0.050524,-0.22616,-0.29801,-0.084836
-0.030511,0.13499,0.15008,0.069675,0.001679,0.20173,0.11167,-0.014086
-0.094558,0.031263,0.12684,-0.11798,-0.0088106,0.1565,-0.072121,0.054875
0.032861,-0.084121,-0.12807,-0.0084967,-0.02692,-0.093421,0.15022,-0.033937
0.076932,0.077859,0.15825,0.11729,0.080525,0.041118,0.16993,0.11069
-0.073187,-0.02134,-0.36682,-0.03717,0.024724,-0.014918,-0.14439,-0.080802
0.003028,0.033296,-0.024892,-0.049921,-0.084842,0.037772,-0.15799,-0.060765
-0.08615,-0.11641,0.38589,0.06322,0.040821,-0.018218,0.076525,0.022963
0.072551,0.02296,-0.14318,-0.065431,-0.0047544,-0.010991,-0.048256,0.053501
0.072385,0.1165,0.020405,0.071231,-0.010948,-0.1919,0.0082388,0.077658
-0.11033,-0.038228,-0.2089,0.066174,-0.017165,0.35052,0.31723,-0.10811
0.20406,-0.026965,0.34967,-0.026576,0.070043,-0.31688,-0.20692,0.073622
-0.18746,0.0015757,-0.35699,-0.098001,-0.030774,0.067633,-0.087831,-0.057607
0.043548,-0.047037,-0.19434,-0.046468,-0.069684,0.64104,0.32259,0.0053108
-0.055551,0.076279,0.40943,-0.051146,0.031504,-0.72444,-0.19463,-0.050572
0.20344,0.07371,0.0098259,0.1232,0.022959,0.39172,-0.47522,0.055904
-0.20203,-0.086706,0.067642,0.0088323,-0.0013536,-0.25224,0.48933,0.0047116
-0.052219,-0.0068098,-0.082327,-0.010543,-0.0099822,-0.576,-0.1046,-0.070739
0.067908,-0.084742,0.057981,0.081304,0.028463,0.31455,-0.25586,-0.013417
-0.020516,0.12569,-0.24811,-0.027938,0.020289,0.40784,0.55198,0.11499
0.23769,-0.085107,0.24727,-0.01817,-0.034521,0.0669,-0.29812,0.088612
-0.14959,-0.1453,-0.223,-0.053967,-0.018839,-0.0025888,-0.0022449,-0.1155
-0.09679,0.17305,0.32497,0.004648,-0.0030366,-0.010568,0.10204,-0.09088
-0.026561,0.042704,-0.58485,-0.038265,0.0050431,-0.12944,0.098422,0.037455
0.17726,0.09663,0.31458,0.051179,0.0054065,-0.079641,-0.19528,0.042695
0.083862,-0.072092,-0.021763,0.053927,0.013711,-0.14462,0.11714,0.057229
-0.30778,0.019542,0.30634,-0.084833,-0.0090761,0.15783,-0.33311,-0.099195
0.15779,-0.17715,-0.37174,-0.029154,-0.00045147,0.0057835,0.21883,0.041514
-0.12923,0.046887,0.20218,0.1351,0.0082897,0.18745,-0.023796,-0.060413
0.17483,0.072862,-0.011535,-0.037295,0.0092396,-0.35973,-0.14618,0.055265
-0.046964,-0.0065168,-0.037654,-0.0072169,0.01789,0.14609,0.36836,0.083239
-0.044125,0.027176,-0.065349,-0.11057,-0.090907,-0.1379,-0.26037,-0.023831
0.012085,-0.036577,0.38827,0.097976,0.049902,0.37521,0.14814,-0.14118
0.005119,-0.040473,-0.27911,-0.014365,0.018343,0.10022,0.22726,0.059381
0.16213,-0.076806,-0.26246,0.03685,0.0096838,-0.52506,-0.3664,0.07041
-0.20387,0.090357,-0.005519,0.0017521,-0.007308,0.12422,0.16449,-0.03712
0.032518,0.048282,0.12709,-0.056947,-0.024736,0.43029,-0.13255,-0.074859
-0.050281,-0.014713,0.091534,-0.0061449,0.020049,-0.59992,-0.1472,0.020605
0.055715,0.065572,-0.14068,-0.040815,-0.052444,0.095028,-0.15962,0.054777
0.069281,-0.055164,0.3541,0.089382,0.039261,0.27965,0.38577,0.020429
-0.080029,-0.010823,-0.45509,-0.0059058,0.029757,0.023314,0.059626,0.0037572
-0.064373,0.001919,0.46164,-0.0062115,-0.010456,-0.041814,-0.0057463,-0.042214
0.26432,-0.0026198,-0.10165,-0.005281,-0.0031256,0.05293,0.25075,0.03836
-0.13339,-0.041007,0.12487,0.012376,-0.026309,-0.11368,-0.18078,-0.036385
0.01569,-0.012033,-0.34681,-0.00034475,0.021561,-0.33702,-0.52922,0.014117
-0.12443,0.11589,0.13675,-0.043709,-0.023628,0.35389,0.30495,-0.037332
-0.10044,-0.046901,-0.1055,0.13204,0.048961,-0.10856,-0.17174,-0.011531
0.14268,-0.11616,-0.30762,-0.21549,-0.088954,-0.018479,0.39978,0.059979
-0.0040807,-0.012205,0.29,-0.047388,0.031168,0.21232,0.051583,-0.049454
0.061015,0.055393,-0.067748,0.23776,0.073128,-0.17262,-0.26134,0.027449
0.072233,0.10307,0.37979,-0.024316,0.0053826,0.29561,0.1747,0.10341
-0.017736,-0.001953,-0.052627,0.0098769,-0.055171,-0.36067,-0.15264,-0.14154
-0.092367,0.01293,-0.090404,-0.05841,-0.022835,0.051691,-0.38833,0.027376
-0.003921,-0.025718,-0.11646,-0.049774,-0.0071263,0.14692,0.3144,-0.014405
-0.010729,-0.057391,0.086704,0.043432,0.054438,0.023313,0.27797,0.0695
-0.027016,0.0096381,-0.029816,0.0103,-0.017716,-0.2364,-0.21578,-0.064272
-0.013444,0.025309,-0.35122,-0.070788,-0.043684,0.076003,0.23825,-0.0092034
0.09316,0.082496,0.34673,0.089699,0.070565,-0.0024405,-0.18311,0.039481
0.03592,-0.25623,-0.023818,-0.046698,-0.034049,0.1287,-0.046595,-0.012108
-0.051352,0.12734,0.13746,-0.0027897,0.017739,0.00045185,0.080346,0.046586
-0.097506,-0.015,0.080203,0.042274,-0.016055,-0.24593,-0.18221,-0.074104
-0.039567,-0.0013334,-0.18716,-0.020539,-0.018116,0.18003,0.0053753,0.015693
0.098987,0.084635,-0.30359,0.019781,-0.011839,0.15538,0.33582,0.026114
0.19255,-0.059935,0.16317,-0.055733,0.080877,-0.15326,-0.066523,0.011135
-0.10373,0.066113,0.31004,0.057123,-0.029101,-0.047689,-0.10634,0.071836
-0.041255,0.0099845,-0.33623,-0.095462,-0.044983,0.27979,-0.11592,-0.14348
0.011381,-0.0022119,0.071054,0.071674,0.04098,-0.52732,-0.29313,0.052981
-0.095373,-0.065276,-0.19262,0.10467,-0.021234,0.14268,0.22755,-0.080256
-0.033968,0.045993,0.5923,-0.036061,-0.012841,-0.060331,0.24116,0.067227
0.086295,-0.10728,-0.17627,-0.03824,0.019353,0.19194,0.08839,-0.011181
-0.069848,0.020625,-0.15626,-0.19072,-0.041768,0.32785,-0.12651,0.052855
0.076835,0.038311,0.12648,0.12432,0.030389,-0.17874,-0.39566,-0.067904
0.13702,8.8014e-05,-0.23689,0.0093848,0.048278,0.012205,0.44236,0.07232
-0.19272,0.046558,0.032629,0.074905,0.0039494,-0.10336,0.093583,0.012574
0.065203,0.021682,0.042891,-0.045338,-0.05593,-0.3728,-0.28425,-0.052303
-0.010426,-0.050781,-0.17555,0.00087388,0.016842,0.38884,0.23192,0.0096919
0.018186,-0.061147,0.24455,0.018432,-0.0045013,0.00087468,0.35521,0.010083
-0.0052826,0.014216,0.092735,-0.024204,-0.01071,-0.21583,-0.54295,-0.0052175
-0.065565,0.073752,-0.09909,0.020676,0.0060026,0.021904,-0.35396,-0.060439
0.10241,-0.031192,-0.041369,-0.066716,-0.02461,-0.1425,-0.021006,0.031389
-0.11138,-0.035413,-0.054229,0.071848,0.046006,0.57536,0.22599,-0.019039
0.058018,0.076156,0.11217,-0.017812,-0.047655,0.28777,0.21293,0.092966
0.10221,0.13888,0.027681,0.14011,0.069473,-0.64351,0.077988,-0.054303
-0.14333,-0.21488,0.043304,-0.16564,-0.024493,-0.32635,0.043699,-0.0074919
0.039861,-0.047784,-0.37274,-0.15361,-0.02495,0.060114,-0.24795,-0.047638
-0.012373,-0.062818,0.38078,0.11437,0.036728,0.13255,0.28768,0.059775
-0.018702,0.060811,-0.063369,0.068941,-0.027072,0.29561,0.006499,-0.013317
0.052337,0.23788,-0.15026,0.039329,0.017984,0.50762,0.083492,0.1081
0.0057204,-0.022981,-0.051373,-0.012574,-0.046787,-0.62524,-0.36877,-0.060278
-0.0098086,-0.1272,0.014989,-0.0236,0.052241,0.12813,-0.025501,0.028592
-0.0017929,-0.074024,0.33038,-0.016896,-0.075274,-0.54739,-0.15347,-0.23428
-0.063782,0.027778,-0.17539,0.023092,0.039738,0.77652,0.32681,0.12045
0.085581,-0.055702,0.036655,-0.01337,0.038184,-0.47807,-0.19049,0.054415
0.079113,0.16018,-0.041382,0.0060145,-0.01726,-0.20003,0.018355,-0.0098373
-0.27861,-0.035439,-0.050027,-0.067756,-0.0093817,0.21507,-0.080483,-0.071854
0.13718,0.083847,0.28466,0.061682,0.046068,0.059606,0.45486,0.15751
0.013649,-0.091643,-0.3879,-0.012329,-0.038652,0.22725,-0.20899,-0.048691
0.076926,-0.023262,-0.21475,-0.024456,-0.021643,0.048271,0.014202,-0.034974
0.037509,-0.10209,0.13372,-0.013952,0.010897,-0.11704,0.099034,0.056987
-0.073698,0.046393,0.33054,0.15188,0.0041065,-0.081454,-0.16131,-0.078595
0.10255,-0.023627,0.11043,-0.058244,0.0048073,-0.12742,-0.076097,0.041739
-0.32417,0.15602,-0.21485,-0.04275,-0.018187,-0.045663,0.0924,-0.074748
0.099789,0.0065549,-0.092492,-0.098414,0.021209,0.18556,0.06729,0.040616
0.086158,0.0038659,0.0060091,0.017118,-0.048705,-0.19289,-0.30945,-0.057099
-0.012643,0.014574,0.3901,0.093126,0.053465,0.4354,0.64205,0.1094
0.093163,-0.16474,-0.33351,0.0439,0.038723,-0.05459,-0.59963,-0.037101
-0.0022877,-0.0026767,-0.010218,-0.036599,-0.061713,-0.34193,-0.23433,-0.019169
-0.10371,-0.0064533,0.070875,-0.0075638,0.017663,-0.19889,0.069819,-0.054874
0.054107,0.13744,-0.018192,-0.0094562,0.0032453,0.25869,0.37851,0.13742
0.12676,-0.16354,-0.26629,-0.034293,-0.011382,-0.077385,0.35763,0.042146
-0.25366,0.091717,-0.012872,0.0040489,0.012732,0.52779,0.061842,-0.090854
0.060714,0.06806,0.15269,-0.027058,-0.041629,-0.684,-0.68256,-0.07435
-0.00072829,-0.023344,-0.047396,0.060021,0.020913,0.55143,0.23068,0.044566
0.10893,-0.042248,0.53697,-0.0081311,0.013,-0.41659,0.21212,0.031468
0.022856,0.018259,-0.23543,0.010528,0.0051238,0.30778,-0.37402,-0.035369
-0.094329,0.071027,0.0075916,0.014107,0.0052702,0.26906,0.056547,-0.030647
-0.1092,0.013264,-0.11342,-0.029126,-0.0020539,-0.58107,0.027357,-0.00092202
0.049022,-0.093481,-0.35371,-0.049418,-0.032411,-0.031762,-0.076915,0.038344
0.068023,-0.13247,0.32085,0.12458,0.023555,0.090244,0.49695,0.016688
0.056924,0.052712,0.078396,0.00029809,0.02512,-0.024936,-0.34875,0.042916
0.14003,-0.029462,-0.075129,-0.12553,-0.043511,-0.022511,-0.30563,0.0066705
-0.24619,0.16888,-0.12377,-0.010595,0.0049384,0.1396,0.058614,-0.054278
0.029883,0.062837,0.21616,0.0017497,-0.0016648,-0.060022,0.33859,-0.008511
-0.0015602,-0.11238,-0.26997,0.029232,0.0067295,0.31663,-0.0060113,0.0021024
0.0025337,0.010883,-0.11611,0.088046,0.053324,0.049681,0.12305,0.023582
0.081078,-0.051722,0.4798,-0.024466,-0.057361,-0.37108,-0.13057,-0.10842
-0.062332,0.0041381,-0.10285,0.012278,0.041809,0.54359,0.49353,0.20024
-0.082897,0.021574,-0.2284,-0.067291,-0.047506,-0.64649,-0.72007,-0.17445
0.07555,0.023247,-0.04445,0.033584,-0.0047259,-0.30233,-0.055205,-0.020009
-0.038427,-0.030662,0.26804,-0.036876,0.0065137,0.46641,0.058437,0.063822
0.16275,0.046756,0.041912,0.049229,0.033624,-0.26108,-0.079608,0.10236
-0.10082,-0.018232,0.054177,-0.052019,-0.032199,0.36869,0.1213,-0.058945
0.015469,0.04008,0.19092,0.0030559,0.0048646,0.06107,0.13553,-0.012565
-0.08187,-0.10595,-0.46582,0.058222,0.020169,0.13045,-0.12555,-0.02338
-0.018243,0.0054392,-0.37172,-0.050508,-0.0095969,-0.42198,0.013305,-0.02095
0.041261,-0.015356,0.15989,0.036328,-0.022079,0.22448,0.26375,-0.0057724
0.03259,0.074869,0.05942,-0.032787,0.029185,-0.024209,0.03773,0.0054591
0.1101,-0.043417,0.40676,-0.039135,-0.012689,-0.23127,-0.044263,0.097161
