-0.0012064,-0.025131,0.12673,-0.014013,0.0075266,-0.028315,-0.0082502,-0.00060171
-0.004225,-0.04297,-0.0070987,-0.031333,-0.018031,0.018283,0.00032625,0.014451
0.0087366,0.040947,0.063497,0.014197,0.0032761,0.010432,-0.014232,-0.0024314
0.0068027,0.0083776,0.011876,-0.002175,-0.0063791,-0.020639,0.010474,-0.0042559
-0.0097585,0.0081169,-0.14521,0.013474,0.00015485,0.010996,-0.011589,-0.0064549
0.0060364,0.0090161,0.022481,0.014325,0.023091,-0.0040352,0.021057,-0.0009674
-0.00057417,0.0030684,0.030335,0.00028722,-0.015581,-0.018848,0.0067719,0.012479
0.024854,0.052322,0.041382,-0.075752,-0.0064957,0.021249,-0.015455,-0.020546
-0.003984,-0.062573,-0.078951,0.10616,-0.012287,-0.016585,-0.014445,-0.013908
-0.03282,-0.0219,0.29211,-0.063761,0.021485,0.016011,0.001922,0.032492
0.016073,0.033281,0.081943,0.070308,0.031994,0.0095206,0.017953,0.01708
-0.045111,-0.076883,-0.53168,-0.070078,-0.020173,-0.012815,0.0023392,0.0022312
0.04908,0.1087,0.20796,0.014916,-0.010331,0.011283,0.0019123,-0.0044407
-0.0060685,-0.089242,-0.21482,-0.026235,-0.024641,0.0034894,-0.0067753,-0.034411
0.0083045,0.033007,0.099518,0.033278,0.0071158,0.0027439,-0.0080583,-0.0097487
-0.016957,-0.047408,0.25451,-0.024886,-0.00095055,-0.022203,0.029417,0.014734
0.01219,0.068376,0.16674,0.026337,0.021636,-0.039949,-0.042617,0.015564
-0.013297,-0.010121,-0.55178,-0.015686,-0.010827,0.051362,0.010433,-0.0072167
0.0084788,0.060663,0.3123,-0.033377,-0.0043372,-0.021312,-0.014325,0.0011666
0.030954,-0.024427,-0.012656,0.082867,0.017886,0.070582,0.016118,0.0017465
-0.015929,-0.00037929,0.16976,0.012765,0.016938,-0.071014,0.00030815,-0.0054127
-0.038251,-0.047446,-0.45273,-0.048515,-0.01491,-0.047407,0.02417,0.010946
-0.020339,-0.040957,0.18955,0.00032359,-0.0073245,0.11023,-0.014002,-0.01174
-0.01699,0.034762,0.063897,-0.04416,-0.046266,-0.059191,0.041798,-0.0032808
0.10432,-0.015132,0.043126,-0.002581,0.032273,0.029936,-0.043091,0.020539
-0.016254,0.060197,0.046417,0.046686,0.0094646,0.0099192,-0.018919,-0.0029428
-0.012112,0.027421,-0.21824,0.0097075,0.0023956,-0.065132,-0.010836,-0.0035335
0.014564,-0.073353,0.31661,0.011361,0.018754,0.030795,0.020214,0.0031005
-0.007041,-0.092893,-0.39827,-0.034366,-0.011912,0.04728,0.019679,-0.01423
0.0009512,0.13318,0.54964,0.020933,-0.0038024,-0.031494,-0.027829,-0.016299
-0.086349,-0.12984,-0.80885,-0.033673,-0.01171,0.044561,0.018598,-0.010683
0.0049898,0.21071,0.90982,0.02061,-0.01225,-0.12262,-0.028291,0.018498
0.11171,-0.018774,-0.51903,0.0041697,0.025845,0.030081,0.050411,0.048029
-0.077723,-0.20328,-0.20993,-0.04383,-0.037965,0.011185,-0.034334,-0.031334
-0.023355,0.27214,-0.042615,0.056413,0.046462,0.001057,0.029857,0.014809
0.033228,-0.070918,0.64985,0.03158,0.0058668,0.10172,-0.030683,-0.024556
0.053079,0.02433,-0.31001,0.022414,0.035753,-0.10857,0.025947,0.022315
-0.15177,-0.24666,0.00089157,-0.19753,-0.12932,0.049621,0.004163,-0.024398
0.15986,-0.01532,0.19988,0.098424,0.042034,-0.0024345,-0.033734,0.0070998
0.11934,0.025534,-0.20602,0.011923,0.026483,9.5411e-05,-0.017505,-0.0081865
-0.18106,0.089993,-0.12437,0.066457,0.027156,0.064217,0.029467,0.031401
0.16365,0.22037,0.15439,0.074532,0.028344,-0.068486,0.013594,-0.022419
-0.21437,-0.19779,-0.2224,-0.19826,-0.087314,0.015813,-0.025854,-0.060114
-0.033699,0.071621,0.48688,0.1074,0.054946,-0.12017,-0.018381,0.043406
-0.027698,-0.18974,-0.68649,-0.14135,-0.068572,-0.01486,0.020481,-0.00096989
0.10996,0.22814,0.74232,0.15697,0.088769,0.066989,0.05944,0.072163
-0.025065,0.0028271,-0.60105,-0.099312,-0.043519,0.040342,-0.042304,-0.0032002
0.037645,-0.16548,-0.17711,0.0036652,-0.012404,0.109,0.011853,-0.024404
-0.068042,0.11842,0.66253,0.051521,0.010246,-0.031445,0.010692,-0.023142
0.19712,0.03118,0.034359,0.12978,0.047972,-0.060827,-0.069431,-0.054389
-0.050372,-0.23422,-0.13326,-0.16041,-0.078732,-0.026535,0.044876,0.045879
0.196,0.13342,0.056416,0.21189,0.044427,-0.023023,-0.021232,-0.011151
-0.27619,0.095029,-0.67167,-0.28461,0.019259,0.034943,0.0060389,0.0094039
-0.17124,-0.07477,0.41573,-0.087107,-0.091524,-0.0016022,0.017811,0.022276
0.22908,-0.053393,0.2636,0.094105,0.063783,0.0077183,-0.0009853,-0.026528
-0.31714,-0.017526,-0.5649,0.10369,-0.0069675,-0.038598,-0.010786,0.027633
0.25354,0.16895,0.68959,0.19266,0.016473,0.094146,-0.042489,-0.06491
0.02045,-0.037705,-0.49407,-0.052153,0.087088,-0.10139,0.083723,0.078659
-0.031054,-0.11155,0.48067,-0.21601,-0.076534,-0.046576,-0.030713,-0.042007
-0.072532,-0.090205,-0.63325,-0.158,-0.052627,0.03238,-0.0033427,0.0021173
0.20791,0.22176,0.71388,0.1842,-0.020879,0.080934,0.0325,0.061737
-0.0037216,-0.39578,-0.87409,-0.072944,0.018834,0.10678,-0.017512,0.0031412
0.21241,0.53881,0.3464,0.28801,0.04329,0.015858,-0.0054531,-0.025983
-0.30202,0.068558,-0.022946,-0.13315,0.0058377,-0.12971,-0.048859,-0.096389
-0.26723,-0.20148,0.73527,-0.12752,-0.038693,-0.17394,0.0083902,0.034082
0.1289,-0.28321,-0.91302,0.12331,0.050305,0.078424,0.017942,0.037698
0.21539,0.46084,0.76257,0.32118,0.022619,0.088476,0.026904,-0.037945
-0.17758,-0.58026,-0.83629,-0.081061,-0.0049593,-0.16695,-0.042575,-0.012277
-0.094111,0.078135,0.55157,-0.73859,-0.10327,0.28111,0.012834,0.060848
0.14838,0.40688,0.1648,0.15559,0.0083745,-0.090829,0.029112,0.017974
-0.049352,-0.23114,-0.39705,-0.059383,0.009111,-0.11128,0.029538,-1.6351e-05
0.36863,0.45746,-0.10294,0.76049,0.17195,0.18,-0.072167,-0.024489
-0.27744,-0.72604,-0.091909,-0.64768,-0.18307,-0.12412,0.036061,-0.016799
0.097061,0.13615,0.60767,0.56129,-0.0012739,0.38183,0.041317,0.077166
-0.11164,0.11681,-0.8289,-0.12843,0.22538,-0.58386,-0.08007,-0.12597
-0.1014,0.18545,0.78897,-0.12481,-0.2213,0.12732,0.10165,0.13123
0.18017,0.12224,-0.70087,0.0069064,0.018904,-0.030913,-0.10841,-0.16698
-0.19037,-0.23961,0.14714,-0.29886,0.0017331,-0.049709,-0.029791,0.042108
-0.0026917,0.1039,0.98006,0.25209,-0.037284,0.18147,0.026002,0.063591
0.11086,-0.14043,-0.10307,-0.068477,0.035723,0.062094,0.052205,-0.00043368
0.17507,-0.085549,-0.39389,0.1687,0.10435,0.45223,0.034059,0.053633
-0.1519,0.57095,-0.3158,-0.14492,-0.026384,-0.61652,-0.16078,-0.16455
-0.18824,-0.67143,-0.4699,-0.10128,-0.051949,-0.026879,0.15512,0.095
0.16168,0.048053,0.1388,-0.11996,0.026992,-0.044437,-0.011075,0.0038591
-0.10865,0.029213,0.16332,0.19968,-0.11092,0.080923,0.027035,0.077094
0.32934,-0.021038,0.44486,0.49206,0.18931,0.17754,0.041534,0.032788
-0.26708,0.19013,-0.4732,-0.5,-0.15953,0.026894,-0.086059,-0.14528
0.061525,0.05619,0.81746,-0.22219,0.13835,-0.18342,-0.012924,0.003458
-0.038583,0.047236,-0.93418,0.55077,-0.066214,-0.25827,-0.1144,-0.020993
0.055109,-0.071507,1.0881,0.043735,-0.1407,0.82523,0.047359,-0.038576
0.12934,0.15123,-0.20813,-0.31538,0.21979,-0.55888,0.074845,0.091999
-0.23162,-0.12313,-0.67367,-0.53576,-0.19508,-0.075909,0.016229,0.051213
0.26844,0.25905,0.41954,0.75682,0.2484,0.10081,0.013471,0.0038558
-0.47152,-0.63365,-0.76838,-0.66436,-0.19877,-0.22547,-0.11207,-0.07301
0.30801,-0.012549,0.12118,0.67744,-0.059165,0.61588,0.10887,0.039524
-0.023294,0.013969,0.48129,-0.17849,0.10528,-0.1182,-0.073909,-0.057196
-0.15015,0.43221,0.12944,0.002225,0.036856,-0.5061,0.034047,0.0034462
0.00016155,-0.091671,-0.59999,-0.17918,0.016448,0.13229,0.087614,0.017483
0.13217,-0.079746,0.76806,0.54236,-0.081744,0.25908,-0.0085344,0.015168
0.18342,0.0069965,-0.17536,-0.52898,0.21001,-0.10047,0.07234,0.10488
-0.081936,0.026134,-0.50508,-0.10432,-0.1952,0.024611,-0.15495,-0.10481
0.11473,0.46645,0.9442,0.59023,0.12386,-0.12901,-0.057576,-0.036263
-0.17512,-0.53584,-0.66397,-0.67076,-0.16099,-0.043794,-0.064267,0.12305
0.022109,0.085059,-0.0032061,-0.0028469,-0.15855,-0.13264,-0.079595,-0.1654
-0.17839,-0.010404,0.072651,0.17393,0.17132,0.378,0.17971,0.021288
-0.058299,-0.25372,-0.055912,0.35327,0.040938,-0.1301,0.15301,0.028174
0.14147,0.30098,0.03082,-0.48745,0.045274,0.35673,-0.017881,-0.034
0.07217,0.078621,-0.53646,0.63606,0.0054073,0.14858,-0.059275,0.054649
0.034466,-0.11872,0.044478,-0.19893,-0.00047812,-0.79583,-0.042258,-0.0020807
-0.17073,-0.27661,0.71578,0.084517,-0.10589,0.19406,0.031566,0.13184
0.24131,0.30723,0.18434,-0.2021,0.28941,-0.084946,0.050761,0.096598
-0.46932,-0.079766,0.22686,-0.64499,-0.31621,-0.014433,-0.18988,-0.31177
0.39327,-0.19897,-0.27027,0.33464,0.020949,0.063926,0.097052,0.015153
0.18721,0.40421,-0.45034,0.44141,0.073114,0.16799,-0.058159,-0.048479
-0.15285,-0.27199,-0.05544,-0.53382,-0.082158,0.041555,0.12565,0.19988
0.072263,0.43169,-0.62117,0.82455,0.17255,0.38034,-0.085143,-0.12282
-0.21203,-0.25753,1.0936,-0.52187,-0.083645,-0.53548,0.076487,0.10841
-0.032965,-0.0588,-0.95689,-0.17518,-0.060015,-0.044221,-0.082979,-0.028112
0.044276,0.30131,0.84622,0.62067,0.057982,0.21024,-0.061709,-0.10253
-0.028363,-0.20655,-0.1297,-0.6839,-0.032222,-0.10368,0.094953,0.0649
-0.14899,-0.45246,-0.31737,0.30637,-0.055347,-0.11398,0.0051383,-0.033753
0.19957,0.095529,0.19772,0.12751,-0.017983,0.1071,0.036208,0.10896
0.12894,0.18364,0.76303,-0.043123,0.12711,0.27789,-0.0234,-0.077799
-0.1397,-0.3144,-0.54342,-0.37082,0.043391,-0.23306,0.028154,0.069423
0.27859,0.57787,-0.31775,0.46482,0.21376,0.092986,0.0095179,-0.012373
-0.41932,0.086559,0.46084,-0.87861,-0.34825,-0.15345,-0.026299,-0.049978
0.15809,-0.19661,-0.66956,1.0074,-0.01997,-0.34187,-0.072799,-0.074456
0.12838,-0.22926,0.36369,-0.27299,-0.092601,0.15835,0.017796,0.047651
-0.1725,0.19231,-0.519,-0.099968,0.18221,0.46916,-0.012179,0.036148
0.075682,0.19889,0.4896,0.044109,-0.032393,-0.4689,0.033518,-0.045166
0.099484,-0.25258,-0.40943,0.16835,0.22435,0.46987,-0.10142,-0.0074715
-0.31967,-0.13603,0.90098,-0.27361,-0.25011,0.057055,0.14731,0.080017
0.084174,0.019633,-0.32085,0.10087,-0.032762,0.15576,-0.023308,-0.0085798
0.10042,-0.0015591,-0.26255,-0.060363,0.096716,-0.71622,0.0052112,0.015961
0.0026929,0.3746,0.43374,-0.062797,-0.12557,-0.15113,0.0069375,-0.018593
0.11111,-0.041807,-0.024351,0.15534,0.23954,0.079284,-0.033863,-0.003642
-0.004612,-0.50152,-0.7046,0.054507,-0.16598,0.54007,-0.024252,-0.057395
0.013905,0.34794,0.073347,0.4315,-0.013185,-0.093023,0.057855,0.037815
-0.23296,-0.29571,-0.058912,-1.0883,0.057539,-0.017609,-0.07044,-0.07055
-0.0041534,0.2428,0.41127,0.527,0.045793,0.086209,0.15171,0.12456
0.21509,0.3346,0.39336,0.075183,-0.13527,-0.037739,-0.034902,0.0054806
0.096222,-0.2742,-0.24341,-0.46657,0.29434,-0.13572,-0.24053,-0.19364
-0.34505,-0.23649,0.033801,0.57366,-0.33855,-0.21772,0.15174,0.14438
0.13393,-0.026444,-0.038531,-0.015823,0.2149,-0.042425,0.017256,0.027539
-0.16925,0.12263,-0.28488,0.38056,-0.24139,0.038188,-0.025941,-0.020491
0.26952,0.21813,-0.40242,-0.51276,0.26108,0.15581,0.054529,0.063088
-0.096233,-0.077763,0.8517,-0.1667,-0.1915,0.12783,-0.11517,-0.19018
0.053756,-0.14314,-0.94926,-0.028256,0.057777,0.19866,0.11434,0.11063
0.11742,0.27601,0.58964,0.53465,-0.13085,-0.35902,-0.021989,0.012672
0.0080369,0.050881,0.57456,-0.93861,0.31379,0.62314,0.061906,0.0084002
-0.25176,-0.37628,-1.0611,0.40473,-0.068566,-0.57907,-0.048335,-0.019122
0.071939,0.2272,0.56738,0.59764,-0.12913,-0.026706,-0.056418,-0.03061
-0.044171,-0.33405,0.28012,-0.42839,0.08526,-0.093069,0.03697,0.021003
0.16634,0.027526,-0.58146,0.57038,-0.089702,0.060647,-0.065648,-0.0047544
-0.27173,0.002179,0.69769,-0.85032,0.009622,-0.076638,0.12756,0.064104
0.033866,0.35873,-0.29288,0.2397,-0.015723,0.2592,-0.063129,-0.04579
0.037708,-0.17343,-0.23634,-0.31584,0.14623,0.0056875,-0.020198,-0.029724
0.24068,0.1184,0.1076,0.71687,-0.22379,-0.078305,-0.032107,-0.012721
0.017844,0.10964,-0.82335,-0.47577,0.2019,-0.11614,0.07378,0.059827
0.04023,-0.059962,0.83253,0.42493,-0.014564,0.13613,-0.092411,-0.046607
-0.28743,-0.23591,0.22756,-0.83304,-0.092188,0.078607,0.055816,-0.0041363
-0.084182,-0.099904,-0.079091,0.83403,-0.038878,0.087747,0.065569,0.061918
0.35138,0.2918,-0.55987,-0.060233,0.17669,-0.11637,-0.016452,0.010544
-0.21635,-0.16301,-0.0010046,-0.15785,-0.13272,-0.31366,-0.026739,-0.057093
-0.045695,0.28626,0.73135,-0.029395,-0.0057536,0.14583,-0.02862,-0.024156
-0.050453,-0.24922,0.19098,-0.017411,-0.004403,0.14657,0.00041602,0.023192
0.067183,-0.29022,-0.31209,-0.20505,-0.096872,-0.090869,0.098605,0.061469
0.28513,0.29126,-0.56253,0.16959,0.30327,0.1774,-0.062726,-0.049789
-0.12169,0.013363,0.068889,-0.16993,-0.022347,-0.2816,-0.11654,-0.013344
-0.23781,-0.12257,0.36811,-0.24246,-0.30783,0.20485,0.14836,0.015069
0.15657,-0.085729,-0.46402,0.77572,0.24382,-0.1366,-0.11896,-0.049903
-0.062905,0.47303,0.094462,-0.21559,-0.20327,0.24022,0.0198,0.01884
0.08826,0.11212,0.54274,-0.0065615,0.13209,-0.26781,0.034153,0.057607
-0.077811,-0.20476,-0.13528,-0.35856,-0.047116,0.024574,0.04963,-0.011615
0.078676,0.15823,-0.072639,0.59802,0.079166,0.15369,-0.01957,-0.017154
0.048747,-0.42736,-0.16765,-0.20562,0.041782,-0.12558,0.029378,0.032677
-0.16112,-0.54073,0.43199,-0.16614,-0.19884,0.26215,0.023943,-0.050334
0.025908,0.67128,-0.56883,-0.28824,0.12236,-0.24005,-0.10703,0.014269
0.038419,-0.068546,0.20799,0.058341,0.059548,-0.024158,0.026304,-0.00078198
-0.030536,-0.05155,0.0012779,0.24858,-0.059504,0.0032712,0.024989,0.052483
0.21728,0.14994,0.12916,0.3162,-0.023973,0.01494,0.03738,0.0099013
-0.069345,-0.25619,-0.5585,-0.24991,0.11947,-0.0029644,-0.076746,-0.096955
-0.38949,0.38116,0.43622,-0.24082,-0.26926,0.1005,-0.10565,-0.048615
0.25821,-0.016092,0.078604,-0.22843,0.10747,-0.10159,0.18605,0.085606
0.031605,0.080731,0.058092,0.61327,-0.022871,-0.075342,-0.13036,-0.021346
0.21353,-0.028288,-0.27487,-0.21924,0.33273,0.025071,-0.022992,-0.016994
-0.46819,-0.5285,0.44244,-0.14562,-0.34075,0.27907,0.17231,0.044503
0.22144,0.10575,-0.46162,0.38086,0.050718,-0.17231,0.056646,0.069408
0.0088322,0.22149,-0.17668,-0.29071,0.022659,0.38153,-0.035019,-0.075613
0.049233,0.089476,0.38772,0.14012,0.0981,-0.75556,-0.017914,0.11631
0.028419,-0.0094782,0.19738,0.035354,-0.043902,0.20445,-0.11963,-0.11375
-0.03231,-0.12042,0.50142,0.13204,-0.18531,0.33876,-0.051651,-0.048103
0.19306,0.072942,-0.68172,-0.33961,0.34509,-0.3611,0.014267,0.015687
-0.31266,-0.22889,-0.2427,-0.13989,-0.28135,0.31542,0.063315,0.014922
0.098372,0.05013,-0.33235,0.027559,0.021019,-0.10059,0.049929,0.06714
-0.12009,0.071596,0.70041,0.038954,-0.13856,-0.26554,-0.086898,-0.13935
0.0025588,0.13643,-0.91962,-0.040815,0.31805,0.27341,-0.017755,0.04495
0.023758,-0.26115,0.35379,0.36133,-0.023156,-0.023411,0.13312,0.042994
0.15755,0.41758,0.76048,0.22437,0.048835,0.069569,0.0063647,0.058745
-0.022985,0.11535,-0.10459,-0.18453,-0.23153,-0.29274,-0.078438,-0.071441
-0.086339,-0.39876,-0.59781,-0.42727,0.034284,0.29438,0.12737,0.097667
-0.12592,-0.059613,0.62877,-0.0041383,0.041768,-0.076765,-0.065351,-0.051665
0.17726,0.22924,0.22963,0.71692,-0.12291,0.48346,-0.1191,-0.082818
0.18745,-0.020706,-0.50421,-0.74155,0.2905,-0.75955,-0.003775,0.026618
-0.19318,-0.49948,-0.025411,0.12751,-0.19439,-0.039379,0.084818,0.0022268
-0.023857,0.2687,0.2303,-0.0045122,-0.030662,0.29418,-0.087463,0.0073101
0.36319,0.081599,-0.34089,0.15126,0.14094,-0.1938,0.12088,0.11175
-0.39425,0.074087,-0.79831,0.055739,-0.047069,0.49174,-0.03888,-0.090756
-0.047052,0.25672,0.71877,-0.14259,-0.0091194,-0.34184,-0.041896,-0.021757
-0.086056,-0.015995,0.84207,0.47822,-0.042448,0.14333,-0.011962,-0.094703
-0.10165,-0.29599,-0.48027,-0.3864,-0.022278,-0.29407,0.036058,0.081808
0.13745,-0.28399,-0.81389,-0.42371,0.1139,0.19706,0.055442,0.0398
0.33952,0.14684,0.54083,0.63237,-0.024257,0.23223,0.061331,0.084563
-0.13933,0.20865,-0.13286,-0.55355,-0.084609,-0.61312,-0.11135,-0.096089
0.039952,0.16744,0.23346,0.30819,0.042981,0.45462,-0.026421,-0.0021802
-0.035499,-0.17258,0.64122,0.15548,-0.10942,0.28374,0.017882,-0.032477
-0.15551,-0.17206,-0.33437,-0.15225,0.068263,-0.26899,-0.01861,0.023416
0.18536,0.22172,-0.16823,0.079976,-0.017331,0.068487,0.074402,0.04769
-0.055358,-0.11855,-0.26656,-0.29693,0.25095,-0.29728,0.0625,0.031972
0.064001,0.15637,0.20685,0.80227,-0.096106,-0.27051,-0.18657,-0.070987
-0.10038,-0.24451,-0.51948,-0.55259,-0.15307,0.14439,0.015748,-0.065978
-0.12098,0.20879,-0.11286,-0.1818,0.040026,0.38119,-0.024549,-0.0074993
0.0013475,0.023748,0.73861,-0.31917,0.044823,-0.21252,0.076641,0.11269
0.048276,-0.35367,-0.24475,0.35664,-0.037716,0.28785,0.0077881,-0.001698
-0.0021998,0.28902,0.49455,0.1124,-0.051561,0.19589,0.042752,-0.053204
0.21907,-0.13195,-0.41547,0.40985,-0.035625,-0.51256,0.079777,-0.0022697
-0.28595,0.057778,-0.43335,-0.3836,0.049555,0.1759,-0.069357,0.0029843
0.28121,0.0011453,0.62183,0.12996,0.18104,-0.046508,0.047477,0.11892
0.14801,0.55156,-0.32824,-0.30056,-0.093856,-0.1831,-0.14099,-0.084222
-0.38064,-0.74305,0.254,0.27655,-0.0092485,0.32574,-0.033798,-0.020684
-0.0474,-0.10127,-0.45419,-0.22602,-0.07288,-0.30322,-0.052909,-0.096937
-0.025057,0.24946,0.65382,-0.028124,0.004212,0.022837,0.16934,0.13213
0.12264,0.088638,-0.0102,-0.14605,0.073395,0.17904,-0.061466,-0.044574
0.15991,0.11685,-0.33799,0.48243,-0.060855,0.049183,0.083857,0.044719
0.030651,0.20616,0.069516,-0.033231,-0.008078,-0.013616,-0.042171,-0.021971
-0.18043,-0.34945,-0.6523,-0.20046,0.091038,-0.046571,-0.063947,-0.057281
-0.052313,-0.067893,0.4851,-0.07326,-0.036882,-0.094698,0.057691,0.047959
0.16478,0.080875,-0.1226,0.60723,-0.063511,-0.039175,0.0019791,-0.0034174
0.018236,-0.32486,0.41224,-0.75131,0.14428,0.082132,0.017984,0.022602
-0.225,0.4117,-0.41461,-0.19396,-0.20217,-0.011454,-0.020539,-0.0071898
0.077682,-0.066318,0.85934,0.8515,-0.01653,0.054912,-0.021164,0.00061123
-0.063503,-0.08405,-0.75099,-1.0898,0.2015,-0.016544,0.069657,0.03017
0.14292,-0.013652,0.1345,0.90506,-0.11045,0.18672,-0.061298,-0.074749
-0.043239,0.053297,0.56652,0.00028919,0.086581,-0.2825,0.023326,0.037711
0.012018,0.17261,-0.92809,-0.17225,0.0032149,0.073846,-0.058809,-0.022503
0.097887,-0.015131,0.49041,0.21372,-0.056313,0.0041463,-0.095756,-0.020237
-0.13036,-0.22189,-0.48589,-0.28945,-0.053411,-0.086358,0.11694,0.0063049
0.18469,0.21471,-0.46885,-0.1606,0.074046,0.091215,0.025941,0.018828
-0.24859,-0.089976,0.86748,0.1376,-0.064767,0.12353,0.069862,0.033474
0.051343,-0.25472,-0.21372,-0.11451,-0.0089226,0.027769,-0.06319,0.0035102
0.13658,0.157,0.68296,0.30958,-0.055162,-0.311,-0.0060168,-0.0010271
-0.2527,0.051169,0.21029,-0.36301,0.16389,0.039511,-0.02481,-0.051099
0.16363,0.029748,-0.45515,0.048266,-3.7049e-05,-0.058714,0.090363,0.094583
0.22141,0.0076244,-0.14297,0.59881,0.015635,0.38085,-0.099218,-0.057143
-0.20343,0.26703,-0.76588,-0.57824,-0.023451,-0.12484,-0.024441,-0.046207
-0.17942,-0.62873,0.31397,0.063864,-0.17199,-0.099026,0.055922,0.0096037
0.0224,0.055155,-0.043249,0.19648,0.015374,0.051079,-0.014944,-0.030581
-0.017222,0.35753,0.45496,-0.04818,0.19499,-0.14531,0.067555,0.11463
0.32129,0.09787,0.33636,0.10302,-0.11733,0.098064,-0.11809,-0.062117
-0.046213,-0.053358,-0.71616,-0.25591,-0.015125,0.37965,0.038255,-0.0054142
-0.04067,0.2069,0.047427,0.071418,0.16587,-0.4051,-0.024932,0.0043178
-0.15426,-0.4978,0.13031,-0.37419,-0.19137,-0.28976,0.044982,0.0069736
0.041912,-0.012038,0.24892,0.40162,0.069459,0.56804,0.077101,0.0032774
0.015196,0.047067,0.16896,0.033689,0.01863,-0.38654,-0.037182,0.025009
0.084214,-0.13196,-0.03576,0.093678,-0.08621,0.26156,-0.06301,-0.068181
-0.11994,0.46046,-0.30968,-0.262,0.067129,-0.10286,0.015411,0.04402
0.010585,-0.13441,0.20713,0.035725,-0.029629,-0.11,-0.01298,0.0019573
0.037152,0.046585,-0.16241,0.18739,-0.0020821,0.14137,-0.04701,-0.030828
0.11533,0.091319,-0.091374,0.072295,0.055337,-0.18218,0.10022,0.023083
-0.12224,-0.24874,-0.42719,-0.024282,0.063843,0.23366,-0.0095516,0.014444
-0.18311,-0.33211,0.55862,-0.37121,-0.03174,0.038092,-0.002167,-0.018487
0.32398,0.35699,-0.080138,0.64674,-0.051882,-0.21459,0.035617,0.064232
-0.15481,0.060158,-0.11414,-0.79081,-0.035347,-0.07274,-0.10782,-0.081602
0.014264,-0.020885,0.17212,0.005602,-0.067289,0.31294,0.043628,0.012624
0.0039411,0.049261,0.033093,0.60224,-0.013711,0.18981,-0.0023517,0.0033774
0.13522,0.18208,0.1511,0.043086,0.12676,-0.41336,0.04349,0.024013
-0.15396,-0.1876,-0.54463,-0.81519,0.050716,-0.060893,-0.10743,-0.073134
-0.0041198,-0.015233,0.7386,0.5161,-0.061235,0.12921,0.10806,0.0096602
-0.14987,-0.4509,-0.89002,-0.19489,-0.099371,-0.30363,-0.043676,0.015334
0.21287,0.3328,0.75355,0.41139,0.19383,0.43881,0.0083647,0.069374
-0.080942,0.00011866,0.069759,0.090427,-0.049673,-0.063282,0.02249,0.015647
0.10027,0.13786,-0.14362,-0.16227,-0.042054,-0.065443,-0.0010682,0.0023115
0.26298,0.30984,-0.29958,0.21009,0.035664,-0.034334,-0.038951,-0.049364
-0.42989,-0.37309,-0.28645,-0.65769,-0.091117,-0.11683,-0.068103,-0.10111
0.044426,-0.19068,0.14213,0.27654,-0.016911,0.32858,0.12178,0.088427
0.17041,-0.055587,-0.13256,-0.24775,0.054898,-0.088541,0.02212,0.049821
-0.21501,0.46316,0.80384,0.21445,0.0073476,0.17839,-0.031935,-0.076738
0.014979,-0.28177,-0.12513,0.32142,-0.096488,-0.44933,-0.0019334,0.036776
-0.004427,0.015242,-0.17479,-0.46203,0.10348,-0.058233,0.0024557,0.031236
0.159,0.27687,0.032689,0.21277,-0.0092806,0.21835,-0.073311,-0.038096
0.14032,-0.03528,-0.41399,0.34303,0.1594,-0.080952,-0.0020626,-0.037594
-0.2933,-0.33463,0.057815,-0.88717,-0.14032,0.24651,0.060944,0.025871
0.038412,-0.065984,-0.0036558,0.70485,-0.088245,0.043792,-0.054964,-0.01085
0.025566,-0.16653,-0.12189,-0.19208,0.034131,-0.37767,0.034185,0.024851
0.057281,0.53544,0.35751,0.1872,0.031246,0.066647,-0.022302,0.00058164
0.22504,-0.093727,-0.10825,0.35634,0.12954,0.25789,0.041568,0.025738
-0.32539,0.014655,1.1085,-0.8204,-0.1553,-0.032185,0.038063,-0.025061
-0.026298,0.1239,-0.87279,0.052135,-0.080782,0.038746,-0.0023657,0.011526
0.12014,-0.073306,0.14634,0.37721,0.10355,-0.46762,0.012832,0.01739
0.10472,0.10808,-0.74272,-0.3318,0.077906,0.62848,-0.034869,-0.016236
