0.038092,0.067217,0.11646,0.051277,0.018846,0.0071988,0.01531,0.0097633
-0.00086443,-0.0091401,0.018757,-0.0066355,-0.0057572,-0.0092035,-0.025674,-0.0075363
-0.048074,-0.060911,-0.064223,-0.018342,-0.022364,-0.017871,-0.0029104,-0.032208
-0.0096757,-0.02449,-0.1004,-0.045702,0.016083,0.012717,-0.001533,0.02985
0.0052071,0.10884,-0.04173,-0.0020284,-0.0074311,0.0047204,0.0025387,0.085175
-0.018707,-0.066662,-0.011944,0.019641,0.016589,0.013054,-0.0060427,-0.15514
0.0048648,-0.011944,0.10718,0.012005,-0.013385,-0.016859,-0.0040889,0.019782
0.068356,0.077084,0.14423,0.068986,0.035388,0.039936,0.062239,0.17997
-0.046931,-0.058528,-0.065118,-0.051833,-0.040395,-0.027701,-0.011582,-0.21417
0.026011,0.032814,0.032741,0.016118,0.016825,-0.0013422,0.022695,-0.014975
0.01335,0.0056717,-0.016976,0.014143,0.011448,0.024882,0.092944,0.26885
-0.0073189,0.030358,-0.098996,-0.027484,-0.017729,-0.027524,-0.028911,-0.16048
-0.028723,-0.0036544,0.0036719,-0.00024641,-0.00059227,-0.026045,-0.32032,-0.061515
0.011224,-0.096887,0.0085264,-0.0062751,-0.0075515,-0.0099275,0.12489,0.088787
-0.028287,-0.030381,-0.10058,-0.061364,0.0004655,0.036386,0.057508,0.017117
0.0012828,0.024875,0.082828,0.030042,0.0001227,0.011371,0.049298,-0.072641
0.014364,-6.7403e-05,0.028377,0.010699,0.0072017,0.0010803,-0.03854,-0.022848
-0.01193,0.021319,0.049813,0.029788,0.014057,0.013499,0.030206,0.082469
0.040194,0.090395,0.070362,0.041172,0.0051997,-0.0058402,-0.024178,-0.059188
-0.047499,-0.04193,-0.19785,-0.079582,-0.034917,-0.025419,0.11965,-0.03163
0.022167,0.015284,0.019469,0.011572,0.010907,-0.0058558,-0.13938,-0.051938
0.0070097,-0.019485,0.027426,0.025561,0.0098147,-0.0092956,-0.0043997,0.21665
0.00048553,-0.037559,0.099464,0.024615,0.016424,0.011492,0.22745,-0.19491
0.0255,0.077403,0.032154,0.008312,-0.0083904,-0.0056949,-0.076982,0.039933
0.057977,0.059074,0.028172,0.0074748,-0.0021446,0.0096393,-0.37103,0.035691
-0.12141,-0.15533,-0.16286,-0.087561,-0.027279,0.018447,0.22028,0.11701
0.010414,-0.049929,-0.072351,-0.0034086,0.010098,0.028374,-0.11545,0.27238
0.047189,0.032349,-0.036069,-0.036729,-0.030426,-0.046842,0.15311,-0.35298
-0.10448,-0.063598,0.14953,0.078525,0.0467,0.0033188,0.064804,-0.14398
0.095115,0.17122,0.070925,0.038175,0.030754,0.037811,0.1268,-0.093354
-0.032889,0.0032644,-0.13081,-0.055769,-0.054684,-0.053077,-0.22452,-0.067161
0.0044581,-0.082932,0.11484,0.046952,0.040421,0.035154,0.17345,0.28083
-0.0032597,0.0057178,0.049936,0.018219,-0.019958,-0.064704,-0.28243,0.10234
0.06127,0.18181,-0.060328,-0.048476,-0.040711,0.0068477,0.047079,-0.10712
-0.060097,-0.17389,-0.13064,-0.044218,0.0012996,0.0078151,0.067243,0.0067568
0.038144,0.014537,0.072696,0.053863,0.058841,0.06338,-0.011394,0.12541
0.065924,0.065446,-0.044658,0.0030103,0.014351,0.040825,0.38172,-0.016194
-0.094992,-0.06144,0.024673,-0.0097465,-0.0075013,-0.036434,-0.41663,-0.11375
0.023304,0.047765,0.10855,0.01529,-0.022573,-0.05134,-0.069196,0.089487
-0.032741,-0.22314,-0.066599,-0.039165,-0.046566,-0.027514,-0.074365,-0.36097
-0.059898,0.12006,-0.08676,-0.016747,-0.0090697,0.019243,0.35853,0.25231
0.036211,-0.021439,0.048045,0.035952,0.043306,0.026312,-0.1598,0.01416
0.061302,0.13659,0.095613,0.033397,0.032815,0.040537,0.1527,-0.0059346
-0.030288,0.042142,-0.053435,-0.02397,-0.024497,-0.055205,-0.32104,-0.0038727
0.020397,-0.11541,0.10095,0.020525,0.020197,0.020488,0.19192,0.043357
0.026701,-0.030589,-0.18327,-0.051522,-0.035934,0.002203,0.32345,0.072949
-0.065681,-0.024206,-0.015163,0.0023082,-0.0052298,-0.039498,-0.27131,-0.1262
-0.014704,0.073951,0.051057,-0.0053916,-0.028306,-0.026246,-0.24177,0.016253
0.10087,0.089417,0.055031,0.058134,0.097831,0.12028,0.23188,0.094404
-0.01684,-0.012155,-0.010448,-0.010442,-0.017696,-0.037294,-0.27221,-0.14106
0.052872,-0.046343,0.089499,-0.00049832,-0.039265,-0.045825,0.1918,0.037478
-0.18331,-0.015683,-0.14483,-0.021798,-0.0062685,0.00087349,-0.055032,-0.13435
0.039374,-0.046732,-0.010296,-0.04349,-0.036179,-0.014517,0.21461,0.14945
0.032933,-0.10857,0.016177,0.051266,0.066119,0.095345,0.079304,0.030584
0.00044902,0.096543,-0.08956,-0.050279,-0.035398,-0.075936,-0.42961,-0.14659
0.059465,-0.015495,0.22616,0.11271,0.049922,0.065303,0.57044,0.53981
-0.039362,0.018576,-0.069125,-0.061277,-0.044977,-0.10594,-0.56937,-0.69989
0.0016704,-0.0020679,0.11721,0.029586,0.023877,0.051046,0.47877,0.27379
0.011545,0.20562,-0.035947,-0.020516,0.0067735,-0.018269,-0.41019,0.068797
-0.055855,-0.24022,-0.12246,-0.078184,-0.02565,0.022216,-0.0094519,0.097714
0.018776,0.097964,-0.047852,0.021303,-0.018388,-0.0070818,0.0017024,-0.25013
0.016963,0.055349,-0.16991,-0.026137,-0.041504,-0.035875,0.045503,-0.077223
-0.022267,-0.11148,0.17764,0.11584,0.10044,0.076268,0.23137,-0.12626
0.080454,0.13524,-0.018436,-0.037044,-0.037943,0.0086815,-0.0035904,0.60269
0.0042876,-0.11945,0.079815,0.030527,0.050906,0.034342,0.48827,-0.093226
-0.048242,0.03047,0.11416,-0.025861,-0.039716,-0.1441,-0.91894,-0.24468
-0.030784,-0.12533,-0.11856,-0.019631,-0.013496,0.051123,0.1804,-0.061839
0.079779,0.10198,0.20851,0.048205,0.011805,-0.0051831,0.31755,-0.059418
-0.14629,-0.19996,-0.23499,-0.073249,-0.018974,-0.00046226,-0.34268,0.12289
0.0021503,0.1814,-0.10029,-0.017414,0.011077,0.073381,0.0058054,0.063987
0.033268,-0.057624,0.13328,0.051446,0.00037117,-0.056629,0.067735,0.0065408
0.041173,0.16893,-0.091212,-0.014864,-0.019591,-0.05399,-0.014978,-0.19006
0.10421,0.15687,0.20144,0.049925,0.037618,0.066252,0.10964,0.23936
-0.011975,-0.11925,-0.11399,-0.065749,-0.014833,0.0077365,0.28454,0.020493
-0.026324,0.010029,-0.044435,0.021997,0.0034899,0.020856,-0.12515,-0.042994
-0.05629,-0.16851,-0.048993,-0.060813,-0.016064,-0.0035268,-0.11459,-0.16296
-0.086463,-0.2267,0.070074,0.053814,-0.018215,-0.080959,-0.13238,0.06632
0.070613,0.1319,-0.044042,0.092887,0.059903,0.077558,0.076438,0.15276
0.0088634,0.064244,0.14994,-0.060774,-0.047261,-0.1063,0.017871,-0.23881
-0.013559,0.1344,-0.19029,-0.024793,0.027234,0.10154,-0.17559,-0.060191
-0.004085,0.00058396,0.084067,-0.049984,-0.02185,-0.025919,0.2551,0.13556
-0.0093221,-0.16344,0.12848,0.057902,0.023445,0.0029932,-0.15625,0.029672
0.048866,0.12804,-0.15259,-0.022603,-0.0096786,0.023621,0.007772,0.27949
0.02954,-0.0071896,0.15251,0.051177,0.026297,-0.003708,-0.069616,-0.474
0.049271,0.07128,0.010018,0.012795,-0.017837,-0.071731,-0.057258,0.15153
-0.1193,-0.035814,-0.129,-0.03661,-0.025384,0.04571,0.28908,0.15484
0.038656,-0.032739,-0.10939,-0.026653,0.011347,0.098431,0.46242,0.034137
-0.00086984,-0.084665,0.14711,0.027636,-0.0011168,-0.11659,-0.4672,-0.18907
-0.042769,-0.01268,-0.17845,-0.060191,-0.015268,0.010412,-0.27425,0.092891
-0.0086712,0.003233,0.1194,0.00027478,-0.014597,-0.074582,-0.01469,-0.15231
-0.0072993,-0.01331,-0.073733,-0.00049552,0.0175,0.074579,0.044776,0.04381
0.040397,0.11006,0.065064,0.055897,0.035059,0.036915,0.11445,0.095966
-0.013023,-0.094802,0.076712,0.045236,0.0075237,0.016365,0.16293,-0.025709
0.091112,0.15381,0.079115,-0.016633,-0.010041,-0.0020867,0.073145,0.024374
-0.076333,0.020162,-0.022014,-0.028511,-0.025409,-0.064981,-0.42038,-0.11125
0.00042941,-0.16767,0.060788,0.063454,0.02365,-0.016041,0.11973,0.022095
0.016486,0.090061,-0.24503,-0.085597,-0.011787,0.03509,0.020977,0.050264
-0.0052478,-0.019377,-0.027765,-0.023672,0.0083157,0.0254,0.024283,-0.081522
0.020493,0.011733,0.16376,0.037347,-0.018183,0.0010746,0.26062,0.18035
-0.031947,-0.097701,-0.046663,0.0031143,-0.013635,-0.023027,0.024664,-0.033201
0.047884,0.035534,-0.096897,-0.024999,0.029449,0.053913,-0.15444,0.40052
-0.099608,0.0057135,-0.049011,-0.023378,-0.037526,-0.065599,-0.34074,-0.59101
-0.0055909,-0.17109,0.17608,0.039659,0.0041715,-0.038233,0.51216,-0.095344
0.056824,0.29434,-0.0064086,0.016218,0.045237,0.026462,-0.56369,0.089996
-0.013467,0.018877,0.076457,0.031806,0.0076578,0.034801,0.19158,0.0045095
0.057429,-0.045124,-0.058956,-0.022583,-0.014701,0.018294,0.13252,0.1808
-0.011421,-0.0081692,0.017405,0.032915,0.017325,0.00077825,-0.081274,0.050445
-0.0089714,-0.090218,-0.10067,-0.075143,-0.052424,-0.0094702,0.35799,0.13891
-0.013475,0.074948,-0.085243,-0.034406,-0.020743,-0.035422,-0.29745,-0.40363
-0.033065,-0.091253,0.086892,0.022079,0.01088,-0.045417,-0.17937,0.095872
0.025566,-0.03393,0.10301,0.054983,0.034686,0.038965,0.25871,-0.033977
0.0056908,-0.0022511,-0.044822,0.024987,0.042882,0.061618,-0.1334,0.21438
0.031879,0.10662,0.11993,0.033446,0.012008,0.030324,0.086842,-0.034943
-0.083692,-0.09656,-0.22296,-0.11507,-0.097052,-0.10979,0.11916,-0.080084
0.041613,0.11597,-0.081172,-0.029949,0.012507,0.047217,-0.15702,0.022911
0.032771,0.065252,0.17039,0.062349,0.028125,0.03228,0.091513,0.069831
-0.055403,-0.14705,0.0082768,-0.0020583,-0.018986,-0.061132,0.011663,-0.072649
0.035148,0.033287,0.018197,0.019228,0.027403,-0.0066116,-0.2715,-0.1621
0.023509,0.011665,-0.011246,0.0092088,0.0032221,0.05521,0.32972,0.19311
-0.019617,0.14647,-0.010376,-0.024179,-0.02122,-0.039587,-0.39245,-0.11483
-0.015693,-0.17246,0.043577,0.020683,0.00095035,0.0061168,0.21444,-0.060736
-0.0033801,-0.0080194,-0.006141,0.0031777,0.030682,0.0051054,-0.12688,0.12247
-0.029201,-0.0084563,-0.04249,-0.022011,-0.010112,-0.011126,-0.085128,-0.087878
0.024292,-0.12621,-0.065136,-0.00016984,-0.011969,0.027875,0.44277,0.42513
0.047853,0.12407,-0.065438,-0.040596,-0.02163,-0.018519,-0.0045965,-0.52733
0.010207,0.040231,0.12186,0.044332,0.0079612,0.04485,0.29696,0.56814
-0.088832,0.060385,-0.033159,-0.026508,-0.016754,-0.055726,-0.64071,-0.63488
0.070735,-0.042029,0.072228,0.043848,0.045011,0.046618,0.16249,0.29854
-0.027123,0.068234,-0.037799,-0.025851,-0.025406,-0.070291,-0.2895,0.11643
-0.023466,-0.078867,0.090037,0.037719,0.037601,0.054284,0.19588,-0.25244
0.081284,0.10098,-0.036931,0.0077735,0.01515,0.029663,0.17214,0.11408
-0.11948,-0.26104,-0.14627,-0.076915,-0.069543,-0.1128,-0.25871,-0.18881
0.045825,0.13851,0.080994,0.025541,0.0020002,0.056828,0.17845,0.19266
0.037971,-0.0057079,0.041908,0.002391,0.018569,0.031047,0.05649,-0.11398
-0.010308,0.001738,-0.022554,0.025364,0.0033705,-0.041385,-0.12177,0.15132
-0.0052158,0.10704,0.089932,0.00070121,-0.0046898,-0.0039684,-0.033356,-0.18969
-0.0090793,-0.17267,-0.1912,-0.0324,0.017768,0.05749,0.37863,0.23056
0.0253,0.10204,0.10313,0.035708,0.023925,0.017996,-0.26699,0.036362
0.020278,-0.051177,-0.034021,-0.021167,-0.0094793,-0.013162,-0.055045,0.038752
-0.023526,0.049237,-0.023355,-0.015109,-0.043087,-0.020478,0.054227,0.040703
-0.097595,-0.087525,0.0035875,-0.00823,-0.02183,-0.05091,-0.048153,-0.34192
0.033129,0.10952,0.00099557,-0.00024937,-0.0077924,-0.041978,0.012912,0.054531
0.033229,-0.023883,0.10232,0.048001,0.061891,0.061039,-0.30978,-0.073884
-0.018962,-0.012232,0.034197,-0.012023,-0.015672,-0.015262,0.225,-0.11601
0.063831,0.0098277,-0.086637,0.0068647,0.025178,0.057197,0.0060463,0.094579
-0.00032897,-0.046005,0.051477,0.010452,0.0045681,0.020431,0.43684,0.43516
0.0062306,0.020825,-0.021197,-0.0095893,-0.015376,-0.016488,-0.25957,-0.10052
0.066609,0.13761,-0.063337,-0.014655,0.0039209,0.03982,0.2958,-0.074575
-0.13291,-0.14279,-0.067684,-0.036298,-0.039598,-0.084415,-0.43956,-0.13636
0.047421,-0.040092,0.028098,0.0035078,0.0020945,-0.037815,-0.1164,0.03243
-0.10369,0.055223,0.028869,-0.0045088,0.0037429,0.015597,-0.040137,0.015008
0.031243,0.050692,0.10686,0.057087,0.027767,0.021397,0.0090506,-0.066487
0.031176,-0.059184,-0.065737,-0.014531,-0.019504,0.01907,0.2525,0.30107
0.045777,-0.076055,-0.098151,-0.031604,0.00274,-0.014359,-0.11875,-0.3059
-0.05643,-0.0044101,0.19697,0.060701,0.016608,0.0074182,0.20376,-0.044343
0.030426,0.018221,0.030188,-0.011048,-0.0089279,-0.0013612,-0.12821,-0.0076603
0.080594,0.22077,-0.16934,-0.051658,-0.0033885,0.060798,0.12998,0.1413
-0.077473,-0.15331,-0.027033,0.0089879,0.0020725,-0.02514,-0.16869,-0.033219
0.024819,0.036533,0.074124,0.030072,-0.0081394,-0.040843,0.12466,0.064367
-0.034946,-0.046974,-0.084361,-0.027589,0.012845,0.013266,0.072344,-0.033094
0.0080993,1.4814e-05,0.1623,0.054774,0.025961,-0.027171,-0.4043,0.034867
0.0047249,0.14321,-0.028493,-0.019518,-0.031241,0.0096423,0.053534,-0.098422
0.03239,-0.089342,-0.16317,-0.062589,-0.0023781,0.030146,0.2501,0.098302
-0.089029,-0.13018,0.040923,0.012014,-0.012217,-0.019918,-0.03369,0.023187
0.023108,0.049829,0.045872,0.017361,0.0020468,-0.0071451,0.037816,-0.019419
0.0094763,0.027668,0.039782,0.016466,0.0016776,-0.0012167,-0.0983,-0.11561
0.003071,-0.017071,-0.039981,-0.013775,-0.013062,-0.017225,-0.10675,-0.030842
0.011911,-0.013252,-0.053731,-0.018618,0.01263,0.0076376,0.20686,0.20413
0.098635,0.071867,0.16876,0.048542,0.023966,0.049932,0.11482,-0.41782
-0.080473,0.0057576,0.06291,0.030883,0.028421,0.039012,-0.18882,0.35392
-0.017662,-0.076876,-0.12338,-0.025499,-0.037043,-0.056984,-0.088026,-0.0038117
0.0057229,0.083452,0.022312,-0.012065,0.01442,-0.012264,0.025676,0.00088478
-0.025999,0.019274,-0.15707,-0.031097,-0.013142,0.00052165,0.05806,0.046798
0.020028,-0.065479,-0.0050132,0.0028811,0.004771,-0.0036324,0.12633,0.015341
0.0033395,-0.04548,0.0032477,-0.019614,-0.057094,-0.048533,-0.16746,-0.1576
-0.021113,0.0088532,-0.020843,0.011038,0.043492,0.09232,0.068168,0.042116
0.017295,-0.020104,0.1907,0.032861,0.0099739,-0.041783,-0.056319,0.066598
0.032918,0.17948,0.014988,-0.015978,-0.032129,-0.044151,-0.11014,-0.22512
-0.028727,-0.04157,-0.11688,-0.025453,0.0037228,0.046696,0.23572,0.16733
0.027746,-0.066791,0.20178,0.075232,0.039958,-0.010906,-0.11193,-0.098851
-0.039929,-0.037349,-0.21716,-0.057453,-0.0089705,0.056891,0.018836,0.18069
-0.013225,-0.039499,0.031025,0.037344,0.005533,-0.007489,0.17454,-0.070955
0.045019,0.012599,-0.0011306,-0.0079227,-0.0025574,-0.047738,-0.21581,-0.032596
-0.014039,-0.01383,-0.066031,-0.021922,-0.017908,0.021998,0.22979,0.05394
-0.011128,0.068751,0.09965,0.0025523,0.005947,-0.040634,-0.34094,-0.045943
0.022134,0.096188,0.072183,0.018092,0.021717,0.014176,0.087104,0.13579
0.015175,-0.017737,0.014483,-0.0069062,-0.002171,0.014385,0.0058359,-0.12063
-0.063361,-0.054712,-0.2534,-0.06473,-0.058052,-0.0088878,-0.053672,-0.089708
0.020973,-0.038655,0.089543,0.040106,0.010381,0.0067649,0.025524,0.016775
0.03405,-0.063674,0.099582,0.042388,0.023686,0.030024,0.22733,0.10464
-0.039371,0.11233,0.013383,0.0052007,0.013487,-0.0251,0.13694,0.25211
0.019921,-0.025993,-0.056961,-0.055169,-0.019804,-0.033646,-0.34809,-0.60266
-0.029804,-0.032702,-0.085223,0.0025534,0.010109,0.059054,0.28715,0.38518
0.077451,0.054046,0.048288,0.022666,0.017524,-0.012608,-0.35606,-0.11116
-0.079971,-0.11629,0.15014,0.036803,0.0025093,-0.029824,0.066561,-0.020044
0.013576,0.074399,-0.13023,-0.040796,-0.01159,0.023141,-0.01395,0.08143
-0.0014659,-0.0060361,0.004037,-0.0070523,-0.017187,-0.048877,0.0060431,-0.0093744
0.030796,0.072314,-0.010641,-0.0028484,0.0010396,0.035539,0.035225,-0.0348
0.094283,-0.026755,0.019071,0.0026245,0.0036992,0.034357,0.1775,0.19189
-0.10833,0.039799,0.05147,0.024414,-0.017323,-0.036688,-0.2216,-0.13517
-0.014892,-0.041531,0.06799,0.022803,0.031483,0.0021343,0.26075,-0.032897
-0.078657,-0.099967,-0.1217,-0.13569,-0.0062919,0.0023613,-0.15674,-0.025766
0.09891,0.043215,-0.027704,0.16554,0.0099182,0.0186,-0.053089,-0.075234
0.018126,0.043617,0.043824,-0.034894,0.0098439,0.0038706,0.093672,0.18607
-0.00023682,0.026016,-0.0012654,-0.010667,-0.021995,-0.018483,0.070966,-0.092541
-0.049424,-0.087472,-0.084192,-0.035182,-0.030678,-0.040696,-0.357,-0.12839
0.011636,0.11005,0.0075361,-0.053449,0.0075168,0.054431,0.36361,0.11925
0.050442,-0.060154,0.065128,0.036628,0.00694,-0.02209,-0.056402,0.058212
-0.018815,-0.12826,0.13,0.0951,0.038134,0.018906,-0.10082,0.1271
-0.00088719,0.14896,-0.10038,-0.064832,-0.015973,-0.02561,-0.049795,-0.24399
-0.028822,-0.0089365,-0.1556,-0.059753,-0.014787,0.0084569,-0.0036606,-0.00084261
-0.032669,-0.0077724,0.15275,0.079487,0.018077,-0.011772,-0.039683,0.034842
0.073068,0.11339,0.027892,-0.014164,0.0042054,0.01507,0.099946,0.1109
-0.0089566,-0.091187,-0.0074138,0.041967,-0.017681,0.01835,0.1171,0.083976
-0.037006,-0.051974,-0.016946,-0.033734,0.0067899,-0.017968,-0.233,-0.33013
0.027589,-0.08248,-0.025754,-0.023021,-0.0007254,0.038503,0.50682,0.17833
-0.010779,0.034919,0.0035852,-0.004555,-0.0012343,0.015535,-0.30057,0.044736
-0.0038373,0.088151,-0.039665,0.005575,-0.025889,-0.094865,-0.12798,-0.0054372
0.017155,0.03711,0.054578,0.0070501,0.034935,0.035477,0.084235,0.23122
-0.017952,0.013767,-0.026394,-0.03152,-0.044981,-0.054077,-0.039749,-0.37633
0.031805,0.017617,0.0069378,0.030523,0.031606,0.043224,-0.0059813,-0.01236
0.026295,-0.091976,-0.031899,0.037104,0.022814,0.054547,0.24465,-0.016324
-0.13543,-0.056611,0.077262,-0.019319,-0.016489,-0.042962,-0.32025,0.022786
0.078538,0.078063,-0.070267,-0.021242,-0.00035243,0.016775,-0.29428,-0.070287
0.0047683,-0.05338,0.058196,0.016026,0.00075994,-0.031631,-0.083521,0.43431
-0.012505,-0.042623,-0.075357,-0.040047,0.0021936,0.046201,0.5686,-0.21974
0.019161,0.04987,-0.072021,-0.025197,-0.019834,-0.0077436,0.16593,0.0060538
0.0059877,0.03042,0.22422,0.099735,0.043718,0.017145,0.13073,-0.070593
-0.028901,0.032745,-0.10942,-0.048092,-0.049586,-0.066993,-0.36055,0.21811
0.12489,0.03339,0.050571,0.031183,0.020454,0.036431,0.084323,-0.12484
-0.087995,-0.023298,0.022755,-0.014222,-0.0039145,-0.0008636,-0.066071,-0.080639
-0.05885,0.024987,-0.03051,0.010772,0.010335,-0.014811,-0.14818,0.081448
-0.0069877,-0.042749,0.037912,-0.019026,-0.01459,-0.020909,0.049438,-0.20311
-0.018739,-0.15075,-0.21011,-0.049026,-0.015813,0.012266,0.05281,0.034206
0.061926,0.12075,0.038048,0.0067088,-0.00081316,-0.0011007,-0.30479,-0.048905
0.031803,0.051403,0.0019638,0.015428,0.030622,0.04835,0.19531,0.13606
-0.0075367,-0.062811,0.073505,0.016261,0.00039396,-0.0036488,0.1645,-0.017248
0.014288,-0.018905,0.019623,0.024829,0.017705,0.030019,0.1297,0.15014
-0.0041567,0.082112,0.099203,0.017589,-0.011537,-0.077698,-0.21751,-0.047339
0.015476,-0.024273,-0.015277,-0.013476,-0.0018256,0.024286,0.15826,0.1177
-0.098343,-0.11002,-0.081553,-0.021731,0.0073636,0.015326,-0.11438,-0.2221
-0.017015,0.14681,0.064095,0.016073,-0.031135,-0.034344,-0.10282,0.041738
0.033454,-0.080357,-0.11794,-0.017294,-0.0002252,0.03176,0.14032,-0.029475
0.037986,-0.0089518,0.043715,-0.020106,-0.0091502,-0.035828,-0.18062,0.031987
0.036059,0.033829,-0.084039,-0.031049,-0.010718,0.005838,0.22386,-0.071315
-0.050263,0.079735,0.084773,0.028523,0.018924,-0.0064639,-0.17775,-0.026847
0.044551,-0.035204,0.011421,0.026353,0.025486,0.029589,0.30118,0.19721
-0.0236,-0.092473,-0.053578,-0.021474,-0.014196,-0.041738,-0.44222,-0.242
0.033815,0.063737,0.093461,0.057157,0.040581,0.06877,0.43413,0.070505
-0.010346,-0.02804,0.077994,0.012207,-0.013441,-0.0063279,-0.431,0.34633
-0.078464,-0.016775,-0.17785,-0.062892,-0.020311,0.021406,0.1168,-0.42998
-0.061492,-0.10609,0.0056051,-0.012423,-0.035098,-0.083273,0.13046,0.10058
0.1264,0.10201,0.0031043,0.022351,0.035585,0.077137,0.42108,0.10899
-0.022518,0.19304,0.071969,0.0017518,-0.011638,-0.068491,-0.57476,0.00028776
0.077957,-0.067713,-0.015016,0.0034288,0.018463,0.04963,0.10369,0.062292
-0.064027,-0.024206,0.053925,0.011505,-0.014631,-0.045203,-0.081976,-0.088801
0.0050312,-0.11395,-0.081265,-0.028686,-0.024715,-0.032415,-0.036547,-0.16441
-0.05826,-0.10234,0.024202,0.015955,0.019836,0.049527,0.26554,0.038753
0.035462,0.11266,0.073192,0.020929,0.017855,0.013913,-0.079542,0.09174
-0.018299,0.00033355,-0.153,-0.060027,-0.014698,-0.0056224,-0.11631,-0.012135
-0.008569,0.0064488,-0.044679,-0.038818,-0.015124,-0.016208,-0.16322,-0.045139
0.041053,0.029592,0.07834,0.014679,0.032231,0.037271,0.45264,0.06392
0.013023,0.077314,0.036883,0.1397,0.017844,-0.016948,-0.16708,-0.028393
0.055268,0.063015,0.081329,0.015778,-0.0038763,0.016252,0.14082,0.17756
-0.043712,-0.076724,-0.014737,-0.068444,-0.033274,-0.0041873,-0.15652,-0.10044
-0.026594,-0.13972,-0.0092272,-0.011998,0.0074472,-0.016328,-0.23304,-0.066842
-0.042111,0.0061273,-0.04303,-0.065483,-0.030399,-0.028564,0.17474,0.0035836
0.011277,0.040191,-0.10082,0.0050206,0.0093037,0.036723,0.11168,0.10988
-0.045868,-0.053011,-0.010927,0.011806,-0.014094,-0.1099,-0.54106,-0.12326
0.021275,0.06298,0.13288,0.040874,0.047898,0.10163,0.49652,-0.23443
0.10385,0.021712,0.033912,0.014399,0.015679,0.054043,0.6299,0.2463
-0.00080375,0.042698,-0.041807,-0.004668,-0.0012892,-0.026106,-0.7192,0.062764
-0.034556,0.056273,-0.031249,-0.015819,-0.026372,-0.013712,0.019996,-0.072359
0.018371,-0.054292,-0.035381,0.0048623,0.0030035,-0.010128,-0.15909,0.092453
-0.045126,-0.046546,0.016677,-0.012553,-0.038066,-0.061896,-0.19989,-0.090224
-0.0063342,-0.084446,-0.038696,-0.028762,0.014624,0.050191,0.603,0.16904
-0.013719,0.019481,0.095603,0.042251,0.036263,0.014196,-0.27154,-0.21595
0.018675,-0.00056924,-0.0023558,0.0050844,-0.011983,-0.013022,0.084619,0.019595
-0.0028488,0.065968,0.042092,0.023564,0.0029346,0.0081872,0.11795,0.038563
0.023314,0.038786,-0.03725,-0.035465,0.0031015,0.007985,-0.1322,0.0036016
0.0033696,-0.012662,-0.045775,0.007292,-0.01134,0.025715,0.24767,0.077284
-0.04725,0.027797,-0.1014,-0.036056,-0.048167,-0.11829,-0.41542,-0.16373
0.01951,-0.0048933,0.0296,-0.033044,0.0096987,0.044419,-0.13854,0.021359
0.039025,-0.0021036,0.11232,0.078553,0.052613,0.044491,0.24867,0.014153
-0.012829,-0.081301,0.12297,0.032914,0.025463,-0.0017829,0.11987,0.032417
0.058563,-0.046849,-0.12613,-0.021633,0.013654,0.068582,0.083265,0.1693
-0.083302,-0.030622,-0.10371,-0.053855,-0.045865,-0.011142,-0.01822,0.057565
-0.0012176,0.085977,0.081067,0.02227,-0.012929,-0.077832,-0.34132,-0.17702
0.015841,0.11708,-0.055775,-0.01182,-0.028431,-0.014879,0.13735,-0.063982
-0.031616,-0.060757,0.017537,0.016028,0.0013679,-0.0098755,0.18378,-0.022464
-0.0098931,-0.071327,0.020307,-0.018848,0.022036,-0.0076979,-0.20129,-0.15049
0.0040194,-0.054585,0.062412,0.032346,0.018415,0.039421,0.18625,0.055802
0.058202,0.13017,-0.012021,-0.017563,-0.0010935,0.015476,-0.25408,0.27965
0.013115,0.052771,0.0003615,0.011374,-0.0046414,-0.015769,0.033331,-0.22646
0.0023757,0.05615,0.02154,0.0099522,0.00046957,0.0093083,0.049141,0.12424
-0.028293,-0.13408,-0.14377,-0.021749,0.0067777,0.044644,0.46545,0.049357
-0.047666,-0.10468,-0.026844,-0.02124,-0.016813,-0.049993,-0.31949,0.05366
-0.009315,-0.035835,0.16135,0.042648,0.023403,-0.0012125,-0.25936,-0.047046
0.062514,0.095753,-0.055852,-0.01772,-0.021226,0.010856,0.12945,0.015486
-0.020745,0.04804,0.063567,0.00060143,-0.010416,-0.037965,-0.10705,-0.068389
