-0.0016925,-0.041285,-0.035153,-0.031844,-0.02031,0.0058797,-0.0071925,0.0048267
0.0054888,0.059302,0.04057,0.023408,0.0039107,0.0037623,0.0079384,0.019897
0.02869,0.03535,0.39011,0.039199,0.020078,0.0019462,-0.00034295,0.011818
-0.049241,-0.10531,-0.5042,-0.070393,-0.018678,-0.0071201,-0.016459,-0.027159
0.0060391,0.027872,0.30874,0.0228,0.0048361,0.00017208,-0.0013625,-0.0032957
0.014755,0.012914,-0.31331,0.006342,0.0046855,0.00044949,-0.0018975,0.013017
-0.015412,-0.072183,-0.019713,-0.0025026,-0.0035108,-0.0063294,-0.0023657,-0.0017824
0.024762,0.077153,0.22065,0.011973,0.0036763,0.010952,0.012953,-0.00095897
-0.013304,-0.015739,0.025599,0.0029761,0.0028088,-0.0025938,-0.0027293,-0.015892
0.018712,0.055302,-0.24428,-0.0059697,0.0095341,-0.00033034,0.013137,0.015819
-0.0042508,-0.030107,0.35789,-0.014779,-0.022966,0.0018734,-0.001955,0.00036885
-0.027498,0.0014313,-0.12713,-0.0077451,-0.00084261,-0.01183,-0.01682,-0.0075702
-0.0119,-0.084451,-0.29143,0.0073891,-0.0020906,-0.0025551,0.0074908,0.0076505
0.0035926,0.0091803,0.5618,0.022848,0.0046851,0.0061389,0.00053066,-0.0086065
0.011277,0.063675,-0.42552,-0.039507,0.0039887,0.0063833,0.0012314,-0.0015886
0.03466,0.032276,-0.057031,0.031187,0.011529,0.013811,0.0016811,0.020963
0.011239,0.040085,0.19929,0.047294,0.0038838,-0.0027558,-0.0059834,-0.0033786
-0.051253,-0.15502,0.070459,-0.069488,-0.019003,-0.019749,-0.0061324,-0.019853
0.011107,0.032919,-0.60753,-0.0068444,-0.002564,-0.0057373,0.0012881,0.010678
0.0028545,0.0023045,0.74311,-0.0071173,0.013981,0.00043186,0.00073999,-0.013267
0.025438,0.088996,0.14511,0.085856,0.0070325,0.014604,0.015758,0.033395
-0.0071122,0.019442,-0.22285,-0.024795,-0.00010225,0.0057199,-0.00044671,-0.021138
-0.047848,-0.10492,-0.42441,-0.073338,-0.030936,-0.018279,-0.016565,-0.020561
0.028409,0.051733,-0.03108,0.06542,0.016088,0.012959,0.022117,0.019511
-0.043722,-0.096582,0.034022,-0.10827,-0.023037,-0.017816,-0.03284,-0.018158
0.048517,0.067337,0.17574,0.093323,0.023659,0.029866,0.021662,0.030373
0.016266,0.035769,0.55642,0.021954,0.023463,-0.00046237,0.0059027,0.00085177
0.00025113,-0.01926,-0.31816,-0.02544,-0.023548,-0.0074769,-0.0098388,0.0024104
-0.015172,0.043069,-0.38777,0.0057686,-0.00016072,0.00080642,-0.0099624,-0.012076
0.048001,0.012037,0.1268,0.045109,0.015478,-0.014798,0.013332,0.011872
-0.076029,-0.088691,0.12258,-0.079496,-0.023568,-0.023053,-0.010267,-0.035235
0.003193,-0.094856,-0.080293,0.0067835,0.0076258,0.023017,0.012999,0.01068
0.012115,0.063959,0.56654,-0.0086266,-0.00037565,0.0064136,-0.0027922,0.0091397
0.013199,0.067379,-0.76165,0.061824,0.030535,0.021122,-0.0029367,0.0072813
-0.0091526,0.20417,0.44818,-0.05513,-0.032416,-0.02638,0.0047718,-0.018005
-0.023629,-0.31528,-0.53949,-0.015494,-0.017249,-0.0031073,-0.010895,0.0039212
0.06357,0.15671,0.36075,0.10286,0.037118,0.02853,0.012589,0.018641
-0.060055,-0.20887,-0.41475,-0.1452,-0.056652,-0.040855,-0.018497,-0.028381
0.042926,0.12621,0.08404,0.068503,0.037507,0.023006,0.013067,0.026926
0.02863,0.16134,0.35869,0.048509,0.030589,0.016807,0.013555,0.020362
-0.064053,0.091555,0.35215,-0.033615,-0.03058,-0.020613,-0.01702,-0.032696
0.0069023,-0.18447,0.081525,0.017001,0.01791,-0.0035403,-0.0083566,0.00025306
0.01482,-0.31441,-0.40017,0.020186,0.003947,0.01315,0.008256,0.0095281
-0.048147,0.085757,-0.080705,-0.11041,-0.041486,-0.025349,-0.021942,-0.02855
0.04462,0.15032,-0.049223,0.078088,0.029809,0.021559,0.04157,0.018699
0.066696,0.17756,-0.47104,0.070052,0.022364,0.013307,0.018985,0.026267
-0.091103,-0.097075,0.70285,-0.18896,-0.063855,-0.042157,-0.042938,-0.044795
0.048007,0.037872,0.056851,0.12961,0.044687,0.042852,0.019786,0.032275
-0.070448,-0.03481,-0.26574,-0.090881,-0.034618,-0.036155,-0.03505,-0.031341
-0.008799,-0.026488,-0.22741,0.025079,0.0031863,0.010055,0.0035506,0.0067829
0.11586,-0.047127,-0.06161,0.13409,0.04899,0.025346,0.026338,0.037452
-0.055871,0.027788,0.28046,-0.013716,-0.021999,-0.021506,-0.013402,-0.017364
0.007144,-0.1535,-0.027943,-0.11378,-0.006551,-0.0055661,0.0016763,-0.0014217
0.01563,0.37794,0.84857,0.19294,0.040632,0.033957,0.0091825,0.00706
-0.0541,-0.36181,-1.1871,-0.2971,-0.060259,-0.020324,-0.0064773,-0.023323
-0.0069712,0.026209,0.22573,-0.014071,-0.0047329,-0.027991,-0.0062983,-0.0068087
0.10997,0.08926,0.4838,0.26034,0.06635,0.057653,0.04865,0.048628
-0.19554,-0.12584,-0.69807,-0.34926,-0.12849,-0.075992,-0.060554,-0.075881
0.16249,0.63807,0.79215,0.49275,0.12929,0.063261,0.033116,0.064916
0.043556,-0.48747,0.06639,-0.026286,0.019277,0.0067709,-0.0063824,0.010083
-0.13803,-0.4183,-0.84834,-0.17976,-0.060142,-0.049944,-0.022815,-0.037192
0.10237,0.67168,0.45963,-0.18602,-0.01513,0.010575,0.00734,0.0091307
-0.12557,-0.40695,-0.22086,0.041609,-0.0017496,0.001117,-0.0016958,-0.014886
-0.016932,0.30524,-0.34903,-0.034924,-0.035351,-0.0077584,-0.026294,-0.038821
0.18619,0.15116,0.54674,0.17136,0.071869,0.046599,0.058713,0.085827
-0.19594,-0.7285,-0.48373,-0.15907,-0.054826,-0.054545,-0.020023,-0.06283
0.19579,0.56558,0.67081,0.12244,0.04567,0.040243,0.01093,0.061988
0.064142,0.042826,0.44792,0.35919,0.092137,0.057281,0.042098,0.05388
-0.27877,-0.83391,-1.0763,-0.46549,-0.15771,-0.12092,-0.098543,-0.14981
0.21365,0.89808,0.93823,0.38137,0.092847,0.075657,0.065426,0.091441
-0.16181,-0.50224,-0.56756,-0.28119,-0.015768,-0.017246,-0.028578,-0.042666
-0.10025,0.17628,-0.457,-0.454,-0.13994,-0.079388,-0.036795,-0.051989
0.21901,0.86261,0.67366,0.55039,0.14215,0.084613,0.048692,0.07935
-0.023847,-0.74928,-0.11338,0.092099,0.0023978,-0.0094336,-0.014139,-0.0077111
0.0075601,-0.066913,-0.56613,-0.15564,-0.020058,0.0059014,0.017087,0.0074342
0.0010058,0.10446,0.74903,-0.073996,0.0045526,-0.0019571,0.001898,-1.8204e-07
-0.12158,-0.22659,-0.69408,-0.37239,-0.0956,-0.048459,-0.02056,-0.037737
0.18653,-0.14385,0.555,0.47355,0.12478,0.069598,0.043466,0.073869
-0.028102,-0.050306,-0.023044,0.23735,0.032797,0.016238,-0.0092246,-0.016905
-0.16426,0.096653,0.20688,-0.12092,-0.08264,-0.083677,-0.061575,-0.091548
-0.026966,0.46401,-0.70065,-0.26701,-0.065452,0.0040182,-0.0043713,0.0059079
0.25073,0.36576,0.52531,0.17202,0.11545,0.068143,0.068463,0.1033
-0.20632,-0.59688,-0.33071,-0.1105,-0.055685,-0.047782,-0.03856,-0.065276
0.18777,0.4021,0.23333,0.087233,0.03048,0.054502,0.057197,0.085874
-0.14517,-0.72651,0.12555,0.022655,0.030216,-0.031349,-0.058493,-0.084079
-0.11145,0.26354,-0.018389,-0.35039,-0.1267,-0.05533,-0.018592,-0.059656
0.17164,-0.20938,-0.0058959,0.21191,0.091095,0.029535,0.043974,0.088754
0.063241,0.43795,0.38216,0.078883,-0.035018,0.01248,-0.0036746,0.0017677
-0.038507,-0.12436,-0.95968,0.15885,0.088793,0.026517,0.0025235,0.01538
-0.22771,-0.37364,-0.047712,-0.47638,-0.14682,-0.068796,-0.04673,-0.089041
0.37816,1.0183,0.22886,0.39242,0.14873,0.10167,0.07529,0.10274
-0.28356,-0.91663,-0.29229,0.037988,-0.055872,-0.047941,-0.045232,-0.065292
0.11539,0.080665,0.6622,0.013254,0.020582,0.0058265,0.013904,0.039958
-0.049544,0.082066,0.018325,-0.074803,-0.020313,-0.0026395,-0.012561,-0.010866
-0.12917,-0.051174,0.15041,-0.12707,-0.092468,-0.065505,-0.038317,-0.053344
0.31502,0.95645,0.42019,0.1671,0.10908,0.06728,0.054138,0.069123
-0.12214,-0.52573,-0.63459,-0.068024,0.0065706,-0.0026575,-0.00062839,-0.018181
-0.24431,-0.9488,0.092474,-0.23806,-0.11058,-0.056517,-0.046348,-0.072902
0.23824,0.11075,-0.27597,0.1277,0.086015,0.077568,0.073041,0.10027
-0.17426,-0.0025687,-0.32552,-0.13976,-0.052056,-0.061447,-0.056908,-0.069202
0.11152,0.88252,0.43255,0.087699,0.0062181,0.018407,0.024212,0.027656
0.1493,-0.025315,-0.29788,0.32844,0.11969,0.051196,0.026754,0.069962
0.19545,0.63737,0.25307,0.25609,0.13139,0.07564,0.036127,0.057097
-0.37659,-0.94647,-0.62709,-0.66796,-0.28756,-0.15855,-0.10428,-0.18336
-0.11503,-0.46849,0.83377,0.14923,-0.059662,-0.026541,-0.011742,-0.011123
0.11213,0.62342,0.4924,-0.036386,0.10383,0.049843,0.02485,0.0581
0.039225,-0.27242,-0.35918,0.31965,0.085801,0.031782,0.02156,0.016717
-0.059627,-0.48146,-0.64226,-0.25398,-0.066426,-0.017817,-0.013205,-0.025445
0.098071,0.41538,0.71233,-0.009514,0.015071,0.034347,0.030557,0.049387
0.09977,0.37762,0.28093,0.10607,0.0030334,-0.014383,0.020571,0.030874
-0.1859,0.13049,-0.52367,-0.33784,-0.093899,-0.054272,-0.042812,-0.064854
0.046841,0.17153,-0.56876,0.26012,0.13896,0.055488,0.02802,0.012534
-0.029638,-0.83196,-0.85327,0.16596,-0.05591,-0.028892,-0.056133,-0.049351
0.061049,-0.12168,0.63984,-0.19772,0.024514,0.028268,0.016875,0.022803
0.013377,0.45612,0.89537,0.099636,-0.026503,-0.02348,0.019972,0.017705
-0.080245,-0.22107,0.47396,-0.066057,-0.037863,0.0028034,-0.00055395,-0.0026788
0.33329,0.86251,0.050485,0.11076,0.13795,0.090915,0.079734,0.14852
-0.3647,-0.89599,-0.7964,-0.15811,-0.070247,-0.10337,-0.1068,-0.15432
-0.089355,0.33802,-0.028022,-0.15301,-0.11622,-0.041268,-0.021307,-0.067893
0.30738,0.35371,0.6144,0.68171,0.19508,0.12098,0.094055,0.15761
-0.19753,-0.13486,-0.28634,-0.75447,-0.16739,-0.085084,-0.057253,-0.11047
0.084543,-0.54224,-0.8139,0.22694,0.0079585,-0.018283,-0.013722,0.0033832
-0.094755,0.026445,-0.10851,0.10332,0.073655,0.040828,0.0066139,0.015531
0.024207,-0.43579,0.81963,-0.203,-0.055134,-0.0086016,-0.0033382,-0.0028664
0.005518,0.40309,-0.79473,0.22971,0.044473,0.021506,0.011684,0.011442
-0.048257,0.54035,0.38432,-0.30252,-0.079959,-0.0404,-0.0027092,-0.026999
0.23805,-0.28565,0.64208,0.62847,0.18898,0.094743,0.062803,0.10065
0.082474,0.14473,-0.71142,-0.26064,-0.070901,-0.042142,-0.026567,-0.012209
-0.25865,0.13254,0.72739,-0.10491,-0.016634,-0.029771,-0.0058922,-0.053789
-0.045035,-0.48721,-0.33332,-0.2423,-0.10248,-0.0016996,-0.0088329,-0.001606
-0.020809,0.076626,0.93354,0.075737,0.029676,-0.029006,-0.044032,-0.044153
0.085869,0.6661,-0.65569,0.1298,0.03487,0.028274,0.012853,0.044286
0.078722,-0.66802,-0.31508,-0.11898,0.021529,0.013437,0.020827,0.02099
0.11381,0.10115,-0.26983,0.65058,0.18442,0.10599,0.073607,0.081145
-0.3864,-0.48259,-0.824,-0.84144,-0.28121,-0.16272,-0.14882,-0.19682
0.016817,0.55701,0.85925,-0.038808,-0.038953,-0.018852,0.02597,0.015903
0.20008,0.55158,0.17887,0.56779,0.091777,0.053807,0.059615,0.063996
0.19633,-0.27231,-0.07031,0.034333,0.096569,0.055969,0.046583,0.096904
-0.157,-0.77765,0.010495,-0.1304,-0.038894,-0.0038472,-0.035945,-0.056351
-0.21825,-0.12072,0.13972,-0.44135,-0.13374,-0.10162,-0.062531,-0.098258
0.11464,0.41945,0.66548,0.46131,0.1254,0.075519,0.037353,0.080833
0.11502,0.68946,-0.33443,-0.21115,0.028027,0.012077,0.013703,0.019884
0.16518,-0.84814,-1.0375,0.11961,0.027236,0.028249,0.022583,0.046594
-0.38413,0.21945,0.36634,-0.27285,-0.10395,-0.079388,-0.053501,-0.1053
0.24746,-0.042694,0.20662,0.33023,0.094756,0.071579,0.058535,0.063508
-0.16741,0.23083,0.42019,0.038032,-0.064873,-0.042689,-0.055708,-0.056997
-0.09807,0.46401,0.50588,-0.29823,-0.14596,-0.078768,-0.02931,-0.061012
0.25983,-0.070267,-1.1067,0.50845,0.20262,0.11157,0.082865,0.12936
-0.039199,-0.9125,0.037918,-0.38625,-0.0037033,-0.018663,-0.031777,-0.017148
-0.08903,0.49158,-0.18752,-0.27195,-0.13216,-0.055415,-0.037338,-0.070711
-0.0070055,-0.21509,0.061592,0.053905,0.020404,0.016931,0.019285,0.02356
0.089445,-0.19837,0.40572,0.34852,0.086829,0.057715,0.036488,0.04711
0.098447,0.30174,-0.47105,0.15805,0.051396,0.027788,0.029823,0.039134
-0.19905,0.087668,0.54478,-0.1433,-0.062675,-0.072987,-0.078932,-0.1097
0.017097,-0.16879,0.57318,-0.19698,-0.044754,0.0052521,0.038259,0.045909
0.1454,0.48609,0.05246,0.19948,0.10486,0.043671,0.006356,0.037158
-0.2044,-0.77614,-0.96376,-0.22762,-0.11403,-0.082707,-0.049596,-0.073477
0.069969,0.41699,-0.60299,0.13913,0.032986,0.032524,0.0268,0.026536
-0.038423,0.41139,0.48298,-0.2777,-0.071035,-0.008792,-0.0064038,-0.0064431
0.26043,-0.96615,-0.029803,0.39791,0.13688,0.1062,0.069835,0.10901
-0.29047,0.88916,1.0192,-0.2705,-0.11613,-0.13777,-0.10357,-0.16594
-0.042228,-0.13914,-0.42797,-0.0087159,-0.0092003,0.0095801,0.020474,0.012631
0.30206,-0.10631,-0.24069,0.48823,0.16118,0.08745,0.043626,0.10578
-0.28933,-0.45023,0.3769,-0.30342,-0.12048,-0.076087,-0.05762,-0.10525
0.21394,0.99439,-0.47276,-0.10321,0.067519,0.081232,0.083694,0.1059
0.013817,-0.75286,-0.20073,-0.084031,-0.064311,-0.034724,-0.01716,-0.011071
-0.086186,-0.34862,-0.19266,0.073448,0.014718,-0.0025093,-0.0090123,-0.019053
0.061491,0.51485,0.25308,0.29834,0.093112,0.013437,0.0062488,0.01911
-0.074725,-0.48472,0.70568,-0.22965,-0.095148,-0.02616,-0.034033,-0.029578
-0.15072,0.39452,-0.43842,-0.21284,-0.057993,-0.02753,-0.012591,-0.040053
0.0063833,0.50399,0.16072,0.31899,0.032909,-0.0060348,-0.022853,-0.035414
0.12461,-0.36854,-0.19079,-0.21022,0.0061833,0.0075297,0.013807,0.031774
0.11178,-0.23445,-0.33026,0.33465,0.081268,0.044954,0.027635,0.04498
0.016069,-0.24857,0.78521,-0.40364,-0.053617,0.0051708,0.034732,0.036049
-0.16175,0.72044,-1.0926,-0.095428,-0.046319,-0.033362,-0.027136,-0.041509
0.039342,-0.35474,0.32575,0.20511,0.064424,0.031006,0.013888,0.0076992
-0.029741,0.25482,0.93919,0.067476,-0.072974,-0.036276,-0.022182,-0.027511
0.24699,0.15263,-0.13364,0.41924,0.15829,0.076886,0.059453,0.078896
-0.21793,-0.55704,-0.17786,-0.46157,-0.094036,-0.067561,-0.062131,-0.064399
-0.12921,-0.23685,-0.56092,-0.12556,-0.049554,-0.024892,-0.012507,-0.02844
0.12115,0.5185,-0.036678,0.5331,0.07212,0.024691,-0.0030248,0.014271
0.094717,-0.55514,0.082527,-0.47255,-0.050029,0.026151,0.028639,0.032062
-0.0057967,0.67842,0.20598,0.1533,0.067969,0.010612,0.0044384,0.016968
-0.11772,-0.25295,-0.68583,-0.38556,-0.089544,-0.053071,-0.044074,-0.069947
-0.037251,0.0068058,0.36254,-0.086914,-0.053484,-0.031779,0.016355,0.0060532
0.049161,0.16444,0.52912,0.60715,0.11427,0.067122,0.022146,0.026741
0.11152,-0.2076,0.25179,-0.073323,-0.038625,-0.0058665,0.012787,0.02395
-0.012958,0.14882,-0.2801,-0.047233,0.051104,0.02316,0.0041959,0.0060432
0.0049715,-0.29114,-0.27344,-0.031394,0.01691,0.0061301,0.0043136,0.004703
-0.14634,0.45405,0.97525,0.17017,-0.062668,-0.064547,-0.049394,-0.05793
0.057045,-0.5724,-0.65167,-0.27119,0.023461,0.029943,0.022601,0.029155
-0.025408,0.85227,-0.6134,0.00252,-0.076359,-0.046426,-0.02994,-0.054471
0.027852,-0.94708,-0.32533,-0.15894,0.051647,0.057693,0.042716,0.050279
0.12236,0.37123,0.5769,0.41449,0.063312,0.02949,0.013753,0.061733
-0.047617,0.3301,0.089285,-0.17714,0.012855,0.0014132,-0.01548,-0.028416
-0.12391,-0.28802,0.29164,0.010443,-0.12361,-0.097215,-0.05295,-0.064416
0.10321,0.15231,-0.45893,-0.17166,0.036346,0.045786,0.041879,0.047075
0.10145,-0.31404,0.23527,0.10466,0.062794,0.039559,0.034597,0.040179
-0.30172,-0.63652,-0.30705,-0.019663,-0.09909,-0.069151,-0.066975,-0.13984
0.17471,0.52364,0.54234,0.026092,0.066288,0.039943,0.049696,0.085286
-0.062751,0.64402,0.024444,0.10165,-0.042605,-0.0080958,-0.037224,-0.034137
0.16619,-0.057923,-0.85928,0.24629,0.13678,0.068107,0.047308,0.088201
-0.14538,0.17989,0.85632,-0.38365,-0.12207,-0.090654,-0.032602,-0.070773
-0.012109,-0.06164,0.093197,-0.13185,-0.0066056,0.015815,0.0043563,0.020474
0.027882,-0.82684,-0.49501,0.10344,0.03011,0.0049137,0.0098326,0.0027307
0.18631,0.45826,0.51013,0.35385,0.066314,0.048731,0.023024,0.071366
-0.20817,-0.56767,-0.51104,-0.31755,-0.10095,-0.06346,-0.057449,-0.10177
-0.014647,0.16636,-0.35531,-0.07415,-0.010502,0.020092,0.010827,0.014533
0.079365,0.35094,0.62144,-0.055943,0.0097971,0.0026701,-0.0062925,-0.017264
-0.18419,-0.032671,-0.45644,0.25311,0.014895,-0.021865,-0.007048,-0.04091
0.35829,0.40359,-0.12545,0.32186,0.10655,0.079352,0.086794,0.15455
-0.2235,-0.16358,0.98646,-0.49841,-0.090174,-0.068691,-0.052908,-0.10275
0.17129,-0.20709,-0.2163,0.18233,0.01844,0.018296,0.019008,0.062128
-0.32525,-0.41232,-0.9854,-0.3711,-0.059967,-0.058274,-0.072732,-0.10874
0.090904,0.3931,0.81746,0.11393,-0.0053248,0.021694,0.030895,0.040686
0.16142,-0.00273,0.37634,0.55073,0.096151,0.086059,0.063889,0.072635
-0.059383,-0.062781,-0.94613,-0.2487,-0.029235,-0.045166,-0.0444,-0.044441
0.014265,0.48373,0.67255,-0.17516,-0.022291,-0.0050765,-0.0051527,0.0016904
0.0074416,-0.10026,-0.37559,-0.0017901,0.015359,0.0029887,-0.0059717,-0.007883
0.053331,-0.48877,-0.30836,0.029972,0.013503,0.010199,0.015709,0.03622
-0.034867,0.012336,0.64042,0.069766,-0.004153,0.0010275,0.013248,-0.014218
-0.24832,-0.42516,-0.091517,-0.22471,-0.12314,-0.086746,-0.059864,-0.09626
0.1017,0.55114,0.026861,0.15581,0.08672,0.044179,0.02338,0.048506
0.21178,0.13781,-0.79434,0.25931,0.055537,0.034908,0.036857,0.061367
-0.15139,0.33606,0.76357,-0.27303,-0.060157,-0.036014,-0.034703,-0.072718
-0.0027786,-0.2987,-0.34107,-0.066425,0.020912,0.019161,0.019838,0.029441
-0.053282,-0.28198,0.93511,-0.051538,-0.037466,-0.010507,-0.018255,-0.014907
0.27466,0.088957,-0.90435,0.62939,0.16261,0.10909,0.061782,0.10646
0.058097,0.34466,0.47962,-0.51784,-0.10613,-0.052201,-0.013805,0.0023303
-0.40748,-0.8359,-0.84726,-0.11248,-0.070976,-0.073072,-0.073532,-0.14056
0.21249,0.90598,0.37655,0.3046,0.079972,0.05378,0.046281,0.075419
-0.17692,-0.59441,-0.00054775,-0.37722,-0.075502,-0.070418,-0.037486,-0.061336
-0.0765,-0.0096703,0.3944,0.1462,0.017268,-0.0082558,0.0030954,-0.012199
0.279,0.37791,0.22473,0.18753,0.030441,0.068549,0.042954,0.058619
-0.03233,-0.30026,-0.751,-0.041471,-0.027657,-0.019349,-0.0038188,0.0028045
0.20845,0.72759,0.75085,0.09336,0.070158,0.040977,0.019133,0.047257
-0.34983,-0.37608,-0.31262,-0.070294,-0.027067,-0.031316,-0.044294,-0.073187
0.20743,-0.20614,-0.25635,-0.13202,0.0092876,0.014073,0.0091901,0.032606
-0.21285,-0.28611,-0.69928,-0.14451,-0.054847,-0.025834,-0.015572,-0.033326
-0.047398,0.21334,0.34863,-0.012259,-0.00063051,0.0051982,-0.0012612,-0.0206
0.063935,-0.22094,0.57895,0.14089,-0.015683,-0.033614,0.013146,0.016336
0.23116,0.43004,0.039902,0.25274,0.11063,0.076223,0.058936,0.093182
-0.12348,0.16214,0.26858,0.0023001,-0.036152,-0.032773,-0.043585,-0.063586
0.02348,-0.47449,-0.13837,-0.065175,0.020089,0.01413,-0.0053813,-0.0010547
0.093638,0.57707,0.16387,-0.076888,-0.072566,-0.017623,-0.0061563,0.0070686
-0.16348,-0.29178,-0.30797,-0.16017,-0.0096333,-0.010886,-0.0068255,-0.023847
-0.0062058,-0.62107,-0.27737,0.0033137,0.0057582,-0.012422,-0.0073207,0.0075833
-0.17715,0.19589,0.043468,0.0060721,-0.010586,-0.014174,-0.015354,-0.047144
0.20624,0.11579,-0.50666,0.19933,0.058822,0.046686,0.039488,0.046392
0.15168,0.84426,0.086539,-0.11166,-0.0044418,0.006429,0.024454,0.046132
-0.090815,-0.16325,0.37856,0.027472,-0.020435,-0.01749,-0.013587,-0.032133
-0.091465,-0.10659,0.37033,0.11845,0.010962,-0.0093055,-0.020028,-0.024185
0.040483,-0.38654,-0.29858,-0.21192,0.050651,0.046597,0.0128,0.038844
-0.069819,-0.31467,0.57045,0.045836,-0.10467,-0.053068,-0.032465,-0.046119
0.077795,0.35574,0.25787,-0.12274,0.021317,-0.0038895,0.008059,0.0099705
0.16318,-0.33637,-1.2253,0.46253,0.14708,0.068788,0.048279,0.058583
-0.44634,-0.31136,0.59044,-0.60491,-0.24322,-0.11664,-0.083802,-0.127
0.24932,0.38513,-0.70954,0.21292,0.076852,0.056705,0.041424,0.078001
0.21893,0.21269,0.406,0.47681,0.12291,0.065166,0.048922,0.0718
-0.13134,0.32986,0.8762,-0.21363,-0.042425,-0.021033,-0.0066076,-0.020821
-0.12191,0.46835,-1.0291,-0.368,-0.012704,-0.029952,-0.03134,-0.059385
-0.12009,-0.26947,0.56436,0.37185,-0.076712,-0.062934,-0.040758,-0.051738
0.20219,-0.13552,-0.23176,-0.47092,-0.023216,0.028806,0.012221,0.025658
0.11838,-0.28049,-0.38156,0.0341,0.062103,0.026938,0.026294,0.055846
-0.066746,-0.69688,0.30873,0.55255,0.10129,0.041246,0.025166,0.031327
-0.18113,-0.233,-0.11509,-0.40564,-0.0775,-0.037319,-0.029987,-0.071001
0.11136,0.72792,0.26709,0.29453,0.0647,0.025789,0.032869,0.046028
-0.087544,0.095254,0.06112,-0.27473,-0.12076,-0.035064,-0.044028,-0.047086
-0.0044312,0.44466,0.40164,0.04406,-0.016949,-0.032569,-0.026378,-0.029991
0.094787,-0.20228,-0.66532,0.087244,0.055538,0.040745,0.038739,0.050306
-0.00928,-0.41854,-0.36184,-0.059684,0.010517,0.020373,0.026003,0.029441
0.049598,0.54935,0.22089,-0.030727,-0.011593,-0.016029,-0.018103,-0.014895
0.27811,-0.2659,0.44376,0.56303,0.15312,0.087364,0.077881,0.11211
-0.44975,-0.31768,0.15185,-0.83505,-0.19075,-0.1385,-0.12391,-0.18374
0.05289,0.28316,0.081801,-0.008048,-0.043189,-0.014043,-0.006532,-0.019958
0.0048132,0.11281,-0.18413,0.37065,0.072458,0.031121,0.039307,0.05646
0.063045,-0.25231,-0.92041,0.33914,0.086067,0.083196,0.02933,0.061253
-0.06786,0.15564,0.32805,-0.30606,-0.041173,-0.044927,-0.020583,-0.036516
-0.042314,-0.27262,0.57376,-0.25217,-0.043349,-0.024678,-0.0085016,-0.017648
0.20408,0.27656,0.081119,0.087587,-0.0061162,0.034988,0.02693,0.04806
-0.10054,0.047317,-0.85356,-0.035553,-0.030793,-0.068714,-0.0545,-0.073262
0.28705,0.11218,0.65124,0.40325,0.18747,0.14099,0.09913,0.14226
-0.43757,-0.77692,-0.20464,-0.50877,-0.21846,-0.13269,-0.090042,-0.17223
0.02984,0.53731,0.33831,0.15117,0.016972,0.00077187,-0.0046809,0.014686
0.071008,-0.086073,-0.19004,0.094387,0.065419,0.025563,0.027102,0.046774
0.16877,0.1635,-0.12969,0.36765,0.098443,0.074197,0.028633,0.056684
0.024526,0.58734,0.47454,-0.25608,-0.032748,-0.025533,-0.0081205,-0.0027701
-0.1915,-0.65475,-0.024018,-0.21484,-0.094085,-0.055186,-0.028765,-0.061685
0.089723,-0.035838,-0.22396,-0.032402,0.031463,0.039709,0.028879,0.035759
-0.10122,0.29226,-0.30744,-0.11495,-0.062295,-0.061235,-0.030794,-0.046742
0.16543,-0.28149,-0.00051521,0.45199,0.093681,0.063938,0.03418,0.06558
-0.25802,-0.66298,-0.8625,-0.48723,-0.078277,-0.045493,-0.034132,-0.07265
0.18441,0.60317,0.69732,0.38811,0.055147,0.032638,0.01425,0.023026
-0.10735,-0.10463,0.82445,-0.28921,-0.075962,-0.021701,-0.015922,-0.022216
0.00081951,0.24071,-0.22781,0.49576,0.07542,0.0026169,-0.0073566,0.010547
0.15036,0.54844,0.11159,-0.16451,0.05598,0.027495,0.032227,0.035454
-0.033636,-0.58584,0.090532,-0.17011,-0.056684,-0.025348,-0.0065029,0.0055529
-0.012787,0.14314,-0.63135,-0.17891,0.0022798,0.0078323,0.0014229,-0.0090812
0.18822,0.20389,-0.49709,0.28448,0.075774,0.095378,0.055914,0.092777
-0.22116,-0.69321,1.1756,-0.053765,-0.094726,-0.10685,-0.077515,-0.11107
