2.8546e-05,-0.014221,0.020474,0.016113,-0.0076496,-0.0044599,-0.0062402,0.0014612
0.00038868,-0.0078259,0.0026846,-0.0072057,-0.00017761,-0.011744,0.0096764,-0.0058334
-0.0071019,-0.00071019,0.014866,0.0085082,-0.0005139,-0.011649,0.0017324,0.0024343
0.0087872,-0.0082977,0.10274,0.00071895,0.014851,0.0035646,-0.0066637,0.0027611
0.0011581,-0.007212,-0.17996,-0.022786,-0.00091238,0.0026606,0.00013505,-0.0049073
0.0012388,0.088104,0.017742,0.008298,-0.0087205,0.009186,0.0065859,0.0028264
-0.0066068,-0.035538,0.18807,0.0080392,-0.0085764,-0.00010513,-0.010603,-0.0053153
0.0088829,-0.011848,-0.15267,0.023334,0.0073148,-0.0015289,0.011274,0.0097136
0.016503,0.0019842,-0.1516,-0.00047259,0.0076766,-0.0026351,0.0021493,0.0010312
-0.046162,-0.010423,0.12271,-0.047716,-0.015337,-0.0031869,-0.014276,-0.0079196
0.024126,0.020889,-0.19504,-0.001166,0.00073341,0.0047958,0.0012967,0.0063232
-0.022513,-0.0054104,0.38119,-0.001416,0.0011462,-0.017688,0.0021582,0.0047494
0.017139,0.013146,0.071309,0.045296,0.0092719,-0.0003964,-0.027272,-0.012552
0.0024827,-0.031271,-0.11637,0.02958,0.0094085,0.0095899,0.0066441,0.0014221
0.019386,-0.19133,-0.17421,-0.040791,0.0014821,0.019763,0.0020626,0.0077749
-0.033889,0.23828,-0.1186,-0.025235,-0.014558,0.060992,0.13825,-0.0011204
0.037707,-0.0060763,0.29936,0.013724,0.00034705,-0.08584,-0.10873,-0.01727
0.030746,-0.10267,-0.18728,-0.0020249,-0.0084334,0.071193,0.041916,0.0063468
-0.10974,0.1365,0.17013,0.0057037,0.0060984,-0.1477,-0.12888,-0.00051086
0.069195,-0.062568,-0.21569,-0.0020621,-0.0027605,0.031027,0.011595,0.016818
0.044059,-0.084322,-0.025643,-0.0096036,-0.0035709,0.045113,0.10412,0.0035059
-0.12254,0.099965,0.41892,0.022204,0.011646,0.027706,-0.06189,-0.0094434
0.046215,0.17473,-0.26561,-0.0082014,-0.0038815,0.049436,0.060899,0.0010857
0.027208,-0.25378,0.037549,0.0006657,0.0045465,-0.084787,-0.06612,-0.012132
-0.062039,0.046063,-0.093383,-0.0060353,0.0055938,0.031375,0.033951,0.013081
0.06781,0.03329,-0.079629,0.010552,-0.00091045,-0.031806,-0.0059205,-0.0016424
0.096608,-0.13666,0.28315,0.0033336,0.00043753,0.045863,0.056395,-0.0017322
-0.12402,0.18503,-0.33931,-0.01225,-0.014026,-0.017003,-0.08403,-0.0106
0.069998,-0.16432,0.50016,0.034009,0.0102,0.029504,0.041199,0.018796
-0.040099,0.0048875,-0.62633,-0.037565,-0.012935,-0.080238,-0.0057941,-0.014824
-0.087095,0.070021,0.23569,-0.047152,-0.013142,0.013239,0.0090678,-0.00955
0.014992,-0.091735,0.071249,0.028918,0.017447,-0.0024054,-0.047166,-0.0040929
-0.13228,0.22442,-0.04959,0.034687,0.0086372,0.01361,0.013076,0.0096534
0.29127,0.081974,0.34079,0.025126,0.01526,0.037928,0.0025829,0.031875
-0.035024,-0.065572,-0.22818,-0.015158,-0.009413,0.0080035,0.078085,0.00012825
0.13831,-0.085438,0.15549,-0.0079007,-0.018379,-0.021654,-0.048873,-0.015338
-0.25184,-0.15745,-0.35377,-0.054628,-0.0037275,0.089312,-0.033894,0.016583
-0.026263,-0.13316,-0.11647,0.024287,0.011172,-0.1125,0.00642,-0.044903
0.11175,0.050136,0.23441,0.017767,-0.0048985,-0.025725,0.033412,-0.012435
-0.12654,0.43967,0.1997,0.027177,0.018378,0.01365,-0.038743,0.035783
0.087788,-0.23774,-0.39874,-0.025833,-0.020583,-0.041161,-0.069709,-0.0096389
0.044989,-0.0055729,0.15975,0.006959,0.018803,0.067843,0.049152,0.015395
-0.050483,-0.044013,0.11133,0.00038902,-0.011946,0.028357,0.051043,0.009363
-0.12715,0.03659,-0.0036637,-0.022182,0.0043211,0.051436,0.075113,-0.019908
0.26099,-0.022887,0.12783,0.025216,0.005082,-0.058244,0.26044,0.0056579
-0.18303,0.27616,-0.056894,-0.044786,-0.033107,-0.05083,-0.45679,-0.023448
-0.038332,-0.22372,-0.2305,0.033644,0.022567,-0.0046945,-0.038281,-0.0058917
0.1072,0.047092,0.10585,0.018533,0.0080303,0.033002,0.062837,0.042389
0.11805,-0.10677,-0.03352,-0.035265,-0.022073,0.030745,-0.035465,-0.0039778
-0.19635,-0.38789,-0.0092351,0.0051123,0.025917,-0.042896,0.19169,-0.0047439
0.083003,0.28277,-0.080305,0.0067443,-0.0043904,0.0073321,-0.0273,0.00071982
0.22748,-0.12518,-0.044765,-0.02283,-0.011609,0.040907,-0.018672,0.012259
-0.29477,0.65437,0.33841,0.056611,0.027525,-0.027824,0.055203,-0.024738
0.033164,0.12134,0.036827,0.010235,-0.01212,-0.018704,-0.054378,-0.00053707
0.27711,-0.4592,0.08079,0.032962,-0.0055807,-0.017032,-0.073179,0.0073775
-0.5422,-0.26748,-0.42863,-0.055104,0.0081701,0.02482,0.022512,-0.0079435
0.042344,0.34484,0.079136,-0.097643,-0.040959,0.12327,-0.0097388,-0.061157
0.021255,-0.14486,-0.09782,0.0072908,-0.012017,-0.18189,0.0011992,0.051778
-0.17096,-0.38322,0.081705,0.033775,0.032867,0.10206,0.13225,0.026862
0.54616,0.33536,0.17523,0.076333,0.023716,-0.14967,-0.18849,-0.0027712
0.30454,0.036852,-0.040721,-0.0049251,0.0076317,-0.046698,0.052767,0.033063
-0.10309,0.0043025,-0.078968,-0.021956,-0.02313,0.13679,0.072847,-0.03808
0.027466,-0.0041645,-0.039042,-0.021393,0.0016457,0.25893,0.15908,0.009444
-0.67896,0.34578,0.10336,0.020112,0.011417,-0.15063,-0.18199,-0.012969
0.019936,-0.17596,0.027423,0.02405,0.0058856,-0.030982,-0.13841,0.010769
0.14158,-0.39474,-0.34684,-0.025787,-0.0074279,0.15565,0.21989,-0.0061924
-0.020472,0.39471,0.46198,-0.020689,-0.036557,-0.49758,-0.22294,-0.048815
0.28354,-0.1723,0.067474,0.0074665,-0.0034928,0.18146,0.14463,0.02333
0.032821,-0.052797,0.02073,-0.019945,0.0058165,-0.017104,-0.073178,0.015115
-0.15832,0.36882,-0.48588,0.021754,0.030488,0.087972,0.11852,0.020777
-0.15856,-0.10931,0.13966,-0.00039231,0.00027692,0.17799,-0.090493,0.0019258
0.077829,-0.44394,-0.14971,-0.0082517,0.0011446,-0.17556,-0.011349,-0.040726
-0.13851,0.035681,0.014541,0.021727,0.001795,-0.03471,-0.05013,0.0028272
0.42334,-0.15438,0.47085,0.02722,0.0021129,0.13134,0.11231,0.023654
-0.24233,0.58809,-0.23072,-0.069686,-0.029302,0.11827,0.036094,-0.0014755
0.19997,-0.12029,0.13184,0.059374,0.032416,-0.020833,0.085212,0.021159
-0.11187,-0.11078,-0.21207,0.0084267,-0.0081002,-0.26409,-0.017193,0.0054029
-0.02614,0.11004,0.044305,-0.050334,-0.010166,-0.011003,0.11657,0.0056341
-0.017029,-0.20248,-0.1214,-0.0071703,-0.0048345,0.10533,-0.47622,-0.040944
-0.035256,0.34435,0.17362,-0.0023226,-0.023044,-0.078569,0.063623,-0.025148
-0.085305,-0.085696,-0.14978,0.011438,0.021518,-0.03014,0.042255,-0.032949
0.13462,0.037455,0.25023,0.018747,-0.0035975,0.11946,0.040658,0.068578
0.02986,-0.091463,0.0039818,0.027517,0.034694,-0.018803,0.070254,-0.0016124
-0.17975,-0.080383,-0.1647,-0.032665,-0.0041155,0.25159,0.22059,0.0066934
0.11799,-0.50302,-0.055207,-0.0058618,-0.026345,-0.24066,-0.13047,0.0077004
-0.057195,0.37494,0.0571,-0.01756,0.0068252,-0.01121,-0.2235,-0.0063789
0.16652,-0.0060571,-0.055377,0.03321,0.016901,-0.060558,0.26189,0.034669
-0.15946,0.24193,0.13859,0.020845,-0.019978,0.13408,-0.121,-0.080282
0.015477,0.14855,0.10871,0.022968,0.0051683,-0.052848,-0.038851,0.046974
0.053156,-0.2566,-0.27614,-0.062293,0.021732,0.20663,0.11444,-0.044713
0.0012874,-0.0074222,-0.08417,-0.024048,-0.032929,-0.37624,-0.055156,0.035118
0.062153,-0.13164,-0.039861,-0.026137,-0.02598,0.11338,0.16822,-0.018323
-0.016615,0.091102,0.38183,0.033448,0.019314,-0.057879,-0.076698,0.029295
-0.10573,0.09801,-0.0057841,0.045895,0.017281,-0.0063332,-0.38419,-0.017344
-0.060943,0.10593,-0.10909,0.011761,0.022901,0.15896,0.13722,0.021462
0.13691,-0.013158,-0.13215,-0.045074,-0.033876,-0.15633,0.10672,-0.010505
0.015256,-0.32521,0.28298,0.047515,0.034631,0.25709,0.08953,-0.003822
0.0087364,0.11184,-0.02137,-0.0073075,-0.013675,0.27165,-0.028768,0.0025199
0.14703,0.17051,-0.18673,-0.053431,-0.014718,-0.45953,0.035389,-0.0070042
-0.27309,-0.17396,-0.10382,0.03388,0.0080279,-0.15039,-0.075952,-0.016647
-0.27374,0.13307,-0.19372,-0.050385,-0.015804,0.28267,0.098496,-0.026284
0.27253,-0.08698,0.20125,0.02939,-0.0081366,-0.27856,-0.098177,0.050122
0.111,-0.066539,-0.05014,0.038553,0.0075619,0.19762,-0.011117,0.0094969
-0.0051541,-0.037726,0.38924,-0.023097,0.015647,-0.11493,0.10794,0.023705
0.11431,0.0015032,-0.081826,0.024023,0.031726,0.48232,0.069872,-0.0010554
-0.28643,0.28685,0.036033,0.00023719,-0.022345,-0.5848,-0.24364,-0.088281
0.36406,0.013934,0.24137,-0.031826,-0.021591,0.10968,0.026401,0.074511
0.034921,-0.036808,-0.70984,-0.017246,0.010529,0.030341,-0.033625,-0.012625
-0.36767,-0.13273,-0.061519,-0.04948,-0.043194,0.086031,0.022683,-0.052684
-0.15651,-0.23703,0.2007,0.059257,0.035968,0.035694,0.063941,0.0013845
-0.0038045,0.26512,0.076186,0.051349,0.029235,0.03504,0.21652,0.0091127
0.30103,-0.20641,0.24463,0.0049733,-0.00094427,0.0037984,-0.3077,0.064329
0.13254,0.38611,0.14399,-0.048742,-0.031205,-0.17864,0.069687,0.0029213
-0.05687,-0.14523,-0.41248,-0.0084916,0.0086837,0.14764,0.16856,0.020023
-0.072843,0.082954,0.068439,0.023839,-0.0063567,-0.12315,-0.12933,-0.056509
0.020983,-0.3887,0.20513,0.063586,0.0095599,0.083465,0.041782,-0.023829
-0.096808,0.12183,-0.45419,-0.10034,-0.01389,-0.031891,-0.1008,-0.014963
-0.044245,0.031447,0.24807,-0.022614,0.017078,0.17045,0.24646,0.040309
0.068909,0.21021,-0.28853,0.031375,0.0009845,-0.1994,-0.39359,-0.014215
-0.038465,0.019973,0.54605,-0.00052125,-0.0073691,0.040585,0.16661,0.009124
0.11862,-0.13138,-0.06068,0.0070887,-0.0078486,-0.16855,-0.072237,0.0089822
0.0020329,-0.10269,-0.039061,0.023262,-0.00032306,0.044529,0.1488,0.032457
-0.145,-0.13681,-0.030907,0.016868,0.015313,0.20719,0.073196,-0.037467
-0.079382,0.24875,-0.28765,-0.035645,-0.0077575,-0.13074,-0.040039,-0.028822
0.24632,0.11366,0.072193,0.029444,0.00077421,-0.13984,-0.1666,0.027135
-0.011568,0.11075,0.078871,-0.014919,-0.021663,0.1558,0.037688,-0.018137
-0.087892,-0.22438,0.020965,0.049492,0.065425,0.42547,0.11964,0.046116
-0.03046,-0.2228,0.32037,-0.098073,-0.066258,-0.061308,-0.054032,-0.014722
0.19857,0.46523,-0.49123,0.010894,0.036232,-0.30893,0.062722,0.01003
-0.14427,-0.61386,0.165,0.01702,-0.010075,-0.22746,-0.15609,-0.036106
-0.11472,0.29107,0.063268,0.014292,-0.0099767,0.040161,0.12449,-0.012665
0.052128,0.14335,-0.16295,-0.028128,-0.010388,0.1422,-0.088605,0.0099727
-0.0033079,-0.022498,0.11951,0.038681,0.012157,0.065104,0.13374,0.047468
0.086371,-0.062305,-0.042554,0.012042,0.0030585,-0.19505,-0.16188,-0.040679
-0.029862,-0.027597,0.22534,-0.037398,-0.0063089,0.0073504,0.032422,0.0035368
0.06275,-0.11145,-0.19484,0.015528,0.038886,0.26326,0.084206,0.047535
-0.15072,-0.023876,0.18034,0.030197,-0.017462,0.084579,-0.060623,-0.088125
0.056876,0.3283,-0.18893,-0.024766,-0.026775,-0.4014,0.083054,0.06554
0.060962,-0.056865,-0.029497,-0.016742,0.0032665,0.18816,-0.046458,-0.030331
0.041502,0.099008,-0.091049,0.030642,0.010275,-0.047557,0.043826,0.022849
-0.10285,-0.176,0.10387,-0.031194,-0.0056668,0.027655,-0.20007,-0.024829
0.010981,0.052923,0.072162,-0.038257,-0.013277,0.32992,0.13648,0.0063464
0.14907,-0.1767,-0.138,0.0094415,0.010842,0.001607,-0.032172,0.05384
-0.03946,-0.083606,0.060325,0.041593,0.03532,-0.15002,0.20802,-0.015242
-0.30369,0.05253,0.32381,0.058176,-0.025979,-0.40961,-0.284,-0.076019
0.099557,0.039131,-0.31658,-0.034635,0.014202,-0.035841,0.037834,-0.003637
-0.13357,-0.16748,0.13047,-0.033841,-0.016258,0.05121,0.08644,0.02204
0.36449,0.47461,-0.20352,-0.0020814,-0.0081754,0.20712,0.032361,0.055482
0.13249,-0.12652,-0.093318,0.013663,0.01492,0.12475,0.16334,0.026118
-0.14315,0.08426,0.42875,-0.017884,-0.017248,-0.018416,-0.28732,-0.050703
-0.15945,0.0043907,-0.18469,0.012727,0.0048609,0.040317,0.1876,-0.018989
0.0034563,-0.2666,0.11347,0.011915,0.0033861,-0.10192,-0.35715,0.011716
0.023355,-0.16096,-0.2226,-0.051347,-0.0057358,0.025173,0.21193,0.025755
0.055085,0.31887,-0.042783,0.041915,0.016853,0.054147,0.052293,-0.023602
-0.034815,-0.086826,-0.095043,0.010618,-0.022384,-0.063623,0.016986,-0.03448
-0.07426,0.042754,0.060007,-0.012358,0.009457,-0.080891,-0.0566,0.0091823
0.03931,-0.081633,0.23609,0.019804,0.026378,-0.063374,0.067077,0.0062991
0.065255,-0.045375,-0.066666,-0.018059,-0.01869,0.13416,-0.025338,0.035421
-0.05715,0.04316,0.1584,0.0066391,0.0067728,-0.069258,-0.044576,0.0030866
-0.0059418,0.21634,0.13557,0.007732,-0.0069309,0.019461,0.14977,0.0031515
0.087281,-0.21243,-0.46622,-0.014952,0.010225,0.14882,-0.099038,-0.0035275
0.0043435,-0.00048988,0.10012,-0.022421,-0.027886,0.075914,0.028733,0.0062641
-0.036146,0.078621,0.0042257,-0.014633,-0.011947,-0.2851,-0.24868,-0.038084
-0.074042,-0.07725,0.034197,0.031984,0.026872,-0.066239,0.076173,-0.043125
0.053448,0.13254,0.057742,0.0082372,-0.0050012,0.11673,0.17491,0.045568
0.016696,-0.011704,-0.040385,0.031487,0.0098519,0.11718,-0.022962,0.016863
0.087673,0.036217,-0.022829,-0.02315,0.0013376,-0.11763,0.037008,0.0034344
-0.20356,-0.18472,-0.31589,-0.022825,-0.014763,0.11727,-0.067344,-0.0026274
0.18133,0.06053,0.20849,-0.0066491,0.016296,0.042164,0.21834,0.037674
-0.1641,-0.20321,0.21644,0.017448,-0.0070886,-0.21688,-0.35621,-0.063202
-0.028578,0.19786,0.20854,-0.0053797,0.00089192,0.15322,0.021366,-0.00057344
0.11988,-0.054554,-0.17561,0.010639,0.0088154,-0.15217,0.10108,0.014654
0.10253,0.11159,0.16321,0.010678,-0.014736,0.054017,-0.10128,0.0059889
-0.12656,0.1348,-0.60622,0.0024764,0.016064,0.052162,0.19572,0.0047808
0.01934,-0.13326,0.2473,-0.0061377,-0.0081794,0.12231,0.046908,-0.020112
-0.013906,0.04094,-0.0053854,-0.054108,-0.024876,-0.15101,-0.1727,0.017345
-0.046357,-0.14888,0.016909,0.0072142,-0.0025865,0.090177,0.13055,0.0078503
0.12512,-0.048502,0.20435,0.037466,0.027688,-0.10847,-0.11377,-0.0173
-0.11681,0.16805,-0.16902,0.021288,-0.0041107,0.049112,0.055231,0.020044
0.1964,-0.1496,0.015451,0.0057601,0.019408,-0.10142,-0.12018,-0.012913
-0.29474,0.043941,-0.052794,-0.040262,-0.026654,0.19019,-0.03821,-0.022387
0.19893,0.33375,0.089276,0.00038726,0.021743,-0.067465,0.23115,0.069808
0.068349,-0.27244,-0.095511,-0.013068,-0.015237,-0.23269,-0.046118,-0.072167
-0.22499,-0.15675,0.034899,0.012858,-0.020661,0.14887,-0.049437,-0.0028781
-0.00072269,0.17451,0.22351,0.038761,0.020776,0.17209,-0.036453,0.0043624
0.03083,-0.089075,-0.13887,-0.013859,0.014988,-0.021479,-0.030549,0.01215
0.018464,0.039335,-0.044767,0.0030885,0.00073007,0.10781,0.26515,0.051772
0.25898,0.15593,-0.088625,-0.027842,-0.014406,-0.31472,-0.22749,-0.0018062
-0.1701,-0.206,0.0099354,-0.013016,-0.007083,-0.015568,-0.039614,-0.039308
-0.027625,-0.045188,0.10157,0.024185,-0.0085079,0.10674,0.024252,-0.029619
-0.010228,0.021393,-0.033325,-0.0097668,0.0049428,-0.1434,0.0034131,0.019302
0.03703,0.25059,-0.2237,0.010484,0.017947,0.24133,0.05432,0.013577
-0.082205,-0.00031128,0.35001,-0.0083887,-0.00037233,0.018002,-0.026117,-0.023467
0.069007,-0.062355,0.19496,0.027789,-0.0027499,-0.0096725,0.0040442,0.0096318
-0.017143,-0.24356,-0.39249,-0.036884,-0.012278,-0.13183,-0.043284,0.034644
-0.12919,0.046644,0.06404,0.00093971,-0.0052689,0.15836,0.073191,-0.042302
0.085308,0.21979,-0.12279,0.02413,0.010579,-0.053858,0.086777,0.020856
0.010201,0.016629,0.10233,-0.014298,0.011786,-0.19838,0.20739,0.091196
0.068304,-0.078569,0.0059851,0.0025895,-0.025287,-0.032741,-0.62821,-0.15164
0.16657,-0.213,0.042452,0.051014,0.047464,0.23282,0.20474,0.050189
-0.11645,-0.0014441,-0.13087,-0.025631,-0.020374,-0.15082,0.081563,-0.021902
-0.18683,0.067021,0.24481,-0.055765,-0.02611,0.18431,0.018727,0.01515
-0.021097,0.15195,0.006104,0.0073134,0.014256,-0.081636,0.10334,0.036664
0.083885,0.045305,-0.08878,-0.016103,-0.024535,0.16858,-0.14774,-0.019534
0.10466,-0.071156,-0.031854,0.07723,0.052731,-0.26073,0.071275,0.010892
-0.083819,0.0223,-0.17466,-0.024972,-0.027304,-0.010838,-0.059208,-0.020315
0.11981,-0.049403,0.084263,-0.0099557,-0.014394,0.21443,0.023616,-0.0037285
-0.26924,0.11907,0.2368,0.013127,0.029336,-0.11676,0.1165,-0.001926
0.17802,-0.22366,-0.49112,-0.04933,-0.020664,-0.075006,0.00023159,0.039579
0.023087,0.077192,0.29001,0.0058318,-0.023322,-0.019613,-0.20082,-0.012323
-0.040007,-0.042094,0.047297,0.045708,0.021733,0.15135,0.028301,-0.040801
-0.020464,0.19114,0.26302,0.0076059,-0.010272,-0.17089,0.038609,-0.0071644
0.096044,-0.03592,0.1303,0.024087,0.044768,0.19401,0.0016182,0.056998
-0.011719,-0.17638,-0.50893,-0.05352,-0.0007949,-0.089258,0.08906,-0.020452
-0.023705,-0.15986,-0.022753,0.0090169,-0.014447,0.050108,-0.097428,0.025963
-0.017407,0.14626,0.05016,-0.02267,0.0034374,0.057797,0.23931,-0.022501
-0.038081,0.10835,-0.304,-0.0077809,-0.017815,-0.22214,-0.23621,-0.0094231
-0.0050892,0.17015,0.49589,-0.00069313,-0.031597,0.12462,-0.085845,-0.036034
-0.079409,-0.15503,-0.038779,0.014579,0.016652,0.051527,0.10516,0.0074942
-0.086011,0.18481,0.087749,0.038346,0.025387,-0.097369,0.017138,0.059159
0.14177,0.0075469,-0.1217,-0.038608,-0.02871,-0.08744,0.0020764,-0.0055834
0.081997,-0.23522,-0.36083,0.041479,0.02639,0.14389,-0.06505,-0.069223
0.12526,-0.1841,0.38607,-0.026347,-0.020126,0.01825,0.11983,0.055857
0.027775,0.045548,0.0082131,0.023107,0.027088,-0.1056,-0.1633,-0.0054582
-0.18997,0.074436,-0.01273,-0.0059669,0.0039009,0.16978,0.044633,-0.019133
0.07767,0.086939,0.12442,-0.02808,-0.0039013,-0.055333,0.22581,0.053398
-0.18089,-0.044756,-0.15435,-0.0044634,0.011316,-0.063486,-0.0438,-0.014979
0.03898,-0.09752,0.06964,0.0023135,-0.013076,0.20675,0.17165,0.033069
0.12588,0.20503,-0.323,-0.015397,-0.038031,-0.2452,-0.47228,-0.076192
-0.16298,0.098291,0.073104,0.020886,0.0069015,-0.12231,-0.01404,-0.045919
0.095026,0.22189,0.14115,0.0022528,-0.010811,0.13872,0.071721,0.022561
-0.035681,-0.55183,-0.18,-0.00051543,0.018574,0.031485,0.014537,0.020317
-0.0056249,0.11721,0.21303,0.036398,0.032928,0.041986,0.099137,0.025999
0.1177,-0.03272,0.10325,-0.027406,-0.014342,-0.00012853,0.071026,0.032268
0.071209,0.073134,0.085758,-0.0043768,0.0018924,-0.046929,0.06556,0.015992
-0.20564,0.065268,-0.19801,0.011626,0.0034427,-0.066829,-0.14249,-0.061807
0.061708,0.036459,0.15854,-0.0030607,-0.0021176,0.15062,0.12656,0.033111
-0.11088,-0.27856,-0.3913,-0.040907,-0.022969,0.010409,-0.17542,-0.066735
0.22918,0.13723,0.098013,0.022797,0.018589,-0.13769,0.097885,0.060158
-0.052097,0.067075,-0.013629,0.0081063,-0.0028527,0.048079,-0.048288,-0.03189
-0.057802,-0.14325,0.32927,-0.022677,-0.03293,0.23,-0.022744,0.0083898
-0.016097,0.11716,-0.14568,0.070945,0.03754,-0.32749,0.023924,0.0089437
-0.014327,0.15364,-0.18741,-0.023569,0.013207,0.21127,-0.0035367,0.0087875
0.0011897,-0.081021,0.1191,-0.048359,-0.019869,-0.32491,-0.0043008,-0.015432
0.014324,0.091655,0.09479,0.020155,0.001072,0.057775,0.068501,0.022422
0.056325,-0.19723,0.02893,-0.013111,-0.025168,0.29903,-0.089235,-0.017994
-0.059904,-0.019687,-0.20373,0.024005,0.034638,-0.21597,0.031262,0.0042693
-0.060278,0.06055,0.028916,-0.001003,-0.014416,0.19458,-0.092359,-0.035473
0.063712,-0.066289,0.10862,-0.025364,-0.015749,-0.14756,0.11121,0.011462
0.015769,0.13161,0.034044,0.029237,0.030839,0.14107,0.17397,0.035814
0.093093,-0.078722,-0.11814,-0.0090082,-0.015246,-0.20539,-0.20837,-0.024968
-0.0949,0.054654,0.017836,-0.007355,0.0020964,0.24184,-0.035693,0.024189
-0.017169,-0.43502,0.042254,0.026186,0.020062,-0.16702,0.035686,0.0032057
0.18531,0.3288,0.079143,-0.010238,-0.00081878,0.011843,0.099396,0.0053469
-0.42531,0.12805,-0.14554,-0.0154,-0.029734,-0.066705,-0.118,-0.055799
0.25231,0.29833,0.024259,0.02601,0.011059,0.057166,0.08683,0.053782
0.093137,0.010205,-0.051918,-0.03469,0.0041159,-0.00012279,-0.043425,0.0058168
-0.074524,-0.4413,0.056081,0.0054902,-0.0037741,-0.020279,-0.093969,-0.058956
0.038769,-0.12054,0.012958,-0.0019079,-0.0046995,0.1527,0.16263,0.039534
-0.15242,-0.099244,0.1163,-0.0099284,-0.0062164,-0.20786,-0.10872,-0.049685
0.039965,0.23136,-0.08629,0.020638,-0.015782,0.14795,0.030045,0.017832
0.053913,0.090208,-0.023787,0.027462,0.037294,0.0091341,-0.03035,0.023987
0.077279,0.0092967,0.038933,-0.012725,-0.010732,0.055385,-0.040443,0.0083163
-0.03042,0.020906,0.094863,0.017408,0.012212,-0.29133,0.084472,0.025693
0.0041706,0.071344,-0.28484,-0.046076,0.0046106,0.13328,0.014432,-0.04903
-0.12392,-0.17455,0.0099736,-0.015572,-0.010201,0.048363,0.36442,0.064937
0.03018,0.025892,0.057984,0.0074474,-0.0011835,-0.061208,-0.56304,-0.039338
0.075332,0.0010187,0.015532,0.023039,-0.0076588,0.18014,0.16784,-0.042323
-0.0359,-0.022584,0.21022,0.007772,-0.0064388,-0.11763,-0.0062637,0.00055705
0.10218,0.11124,0.031506,0.0084616,0.0022874,0.077313,0.047738,0.0731
-0.19064,-0.2227,0.071468,0.0093502,0.002793,-0.17983,-0.090605,-0.059404
0.10079,0.18634,-0.3983,-0.028813,0.0028788,0.025484,-0.043962,0.017051
-0.039495,0.025592,0.073706,-0.028117,-0.0052065,0.01392,0.073287,-0.0098234
0.013247,-0.095849,-0.083882,0.019053,0.0020807,0.16847,-0.04862,-0.0146
0.15739,0.24361,0.17553,0.026613,0.01705,-0.19061,0.15494,0.026729
-0.16158,-0.44845,0.094661,0.0023101,-0.0070579,0.15506,0.0053899,0.028858
0.048954,0.16369,-0.17688,0.00086699,0.0079824,-0.11546,-0.0052319,-0.0076064
-0.038366,0.15806,0.19847,-0.016638,-0.00024601,0.059498,-0.12042,-0.027453
-0.016243,-0.0044591,-0.18378,-0.034343,-0.031674,-0.07097,0.07951,-0.022483
0.061875,-0.042622,-0.017256,-0.0050718,-0.0081186,0.10953,-0.017446,0.023152
-0.084016,-0.15951,0.12125,0.055868,0.015766,0.061442,0.047119,0.0001133
0.00022305,0.22305,-0.11897,0.015941,0.024354,-0.26219,-0.12719,-0.013633
-0.0052022,-0.23861,0.14515,-0.023108,-0.0058451,0.14688,0.021086,0.028449
0.079209,0.18992,-0.05547,-0.029974,0.0031823,0.0083613,0.1092,0.024307
0.0024638,-0.077317,0.020532,0.0030652,-0.011222,-0.0045507,-0.11173,-0.026635
0.012827,0.022089,0.043891,0.013286,-0.0023602,-0.070061,-0.18668,-0.031212
0.022134,0.16765,-0.11946,0.023801,0.013977,0.047554,0.36322,0.010076
0.090571,-0.23459,-0.1035,-0.012649,-0.017013,-0.057038,-0.092558,0.018764
-0.15097,0.041755,0.043969,-0.0026969,0.0061928,0.13201,-0.020959,0.025985
0.007387,-0.058117,0.22858,-0.016973,-0.025736,-0.15156,-0.12407,-0.030633
-0.12177,0.10644,-0.14368,0.030264,0.043568,0.14549,0.19979,-0.017922
0.048786,-0.019093,0.10698,-0.017276,-0.027917,0.013243,-0.0423,-0.013478
0.021372,0.15149,0.12943,-0.018839,0.0021723,0.050867,-0.039271,-0.0010699
-0.076162,-0.20952,-0.54435,-0.0054018,0.008989,-0.0094779,0.043036,0.027688
0.10277,0.015545,0.32881,0.015591,0.0082596,-0.16936,-0.094038,0.034158
0.15418,-0.00089985,-0.14068,-0.0023465,-0.0077902,-0.062171,0.016787,-0.012711
-0.076906,0.03854,0.11056,0.034881,0.0076931,-0.023273,-0.070724,-0.011421
0.034614,0.024901,0.24717,0.0025173,-0.0078525,0.10517,0.072827,-0.0091458
-0.090333,0.0052744,-0.18392,-0.029006,-0.015442,0.083221,0.11962,-0.0063506
-0.055019,-0.020393,-0.042555,0.018431,0.031732,0.0070554,-0.062398,0.019876
