-0.076601,-0.019848,0.20478,-0.0098345,0.012992,0.0040949,0.0083313,0.047088
0.037338,0.015754,-0.14796,0.021828,0.0033449,0.0051445,0.0075381,-0.015579
-0.23143,-0.11154,-0.23935,-0.071793,0.0018406,-0.0093212,-0.00090409,-0.022759
0.078915,0.050118,0.14997,0.40581,-0.02261,-0.00031295,0.0065312,0.017682
-0.062095,-0.04879,0.035634,-0.29443,-0.038616,-0.0069736,0.0064006,0.035244
0.54914,0.22102,-0.25485,-0.046956,0.039868,0.025293,0.0064205,0.0061886
-0.39205,-0.15199,0.058433,-0.13281,-0.013665,-0.0051753,-0.017001,-0.030768
-0.089255,-0.17886,0.2157,0.080604,0.0117,-0.012536,-0.0015236,-0.021262
0.089471,0.021125,-0.012143,0.037946,0.022091,0.018765,0.0058632,-0.012398
-0.1304,0.025453,0.19249,0.050623,-0.029598,-0.012858,-0.010489,-0.019895
0.32033,0.26477,-0.29794,0.10935,0.020374,-0.0057987,0.012001,0.10474
-0.1061,-0.19609,0.069546,0.03281,0.031011,0.016623,-0.012428,-0.028963
-0.23055,0.06027,0.26329,0.014811,-0.076168,-0.031352,-0.028869,-0.084817
0.048502,-0.25151,-0.55919,-0.3831,0.026683,-0.0010825,0.0019498,0.0077334
0.23148,0.16887,0.18322,0.24526,0.0191,0.0060573,0.048905,0.08483
-0.17295,-0.13702,-0.0051495,0.041524,-0.028599,0.0058114,0.026065,0.013788
0.070692,0.26159,-0.23654,-0.12508,0.032188,0.045071,-0.0041965,-0.033478
-0.067665,0.075048,0.39215,-0.025246,-0.032624,-0.024694,-0.0421,-0.025747
-0.20418,0.019902,0.079652,-0.11696,0.011708,0.0072742,0.0058529,-0.017771
0.53688,-0.040041,0.054014,0.086638,0.0015036,-0.01548,-0.024604,0.021631
-0.31297,-0.21807,-0.052694,0.22763,0.015223,0.00062013,0.022679,-0.0013426
0.06646,-0.056971,-0.1183,0.001355,-0.001585,-0.022636,-0.00071357,0.0070188
-0.16133,0.057557,-0.061244,0.11729,-0.0019413,-0.0070986,-0.032153,-0.015829
0.25287,-0.016784,0.0039068,-0.11471,-0.0093213,0.00047271,0.030101,0.055039
-0.15281,-0.10064,-0.27959,-0.26036,-0.016083,0.015863,0.0065251,-0.046125
-0.22307,0.49436,0.36508,0.23194,0.00093241,0.023586,-0.0012322,-0.046059
0.25996,-0.22996,0.15352,-0.18698,0.025756,0.015893,0.030245,0.062837
-0.071688,-0.083711,-0.17353,0.013094,0.011148,-0.0072533,-0.0085458,0.014732
0.40634,-0.079832,0.0797,0.035576,0.0036581,-0.014732,-0.0084188,0.043852
-0.39235,0.065575,-0.053173,-0.10246,-0.043817,-0.03016,-0.039881,-0.084202
-0.10856,-0.043571,-0.2634,0.31205,0.032705,0.00096763,-0.0093196,-0.009899
-0.10933,0.024263,0.055818,-0.24986,-0.016675,0.016023,0.012913,-0.045372
0.4418,0.14527,0.050799,0.057445,0.0036316,0.014957,0.042516,0.10681
-0.14176,0.015235,0.031465,0.016346,-0.038773,-0.017806,-0.014086,0.017647
0.22712,-0.10037,0.26734,0.40051,0.036281,0.050686,0.046483,-0.046546
-0.54393,0.063436,-0.25532,-0.36879,0.002691,-0.052794,-0.056737,-0.069568
0.14807,-0.15058,0.21296,-0.097388,0.0014276,-0.015491,-0.057831,-0.0042309
0.195,-0.079492,-0.06503,-0.02101,0.03266,0.022225,0.051258,0.063465
0.011794,-0.013601,-0.26588,-0.14874,-0.036464,-0.033189,-0.018388,-0.0076169
-0.37009,0.18638,0.32331,0.24498,-0.010858,0.044942,0.061357,0.16439
0.15034,0.019028,-0.26444,0.29236,0.038796,0.014415,0.0012638,-0.17959
0.47799,0.060966,-0.12038,-0.2022,-0.028554,-0.0077299,-0.027117,0.03719
-0.4359,0.1702,0.54867,-0.23859,-0.0023745,0.0095086,-0.008591,-0.038078
0.50819,-0.27926,0.022546,0.089824,0.0076462,-0.020098,-0.021741,-0.015587
-0.19134,0.12635,-0.3538,0.065008,-0.0064749,-0.018688,0.026787,0.10447
-0.50389,-0.36243,-0.16249,0.13323,0.0021216,0.005752,0.042986,0.010133
-0.014765,0.021428,-0.11634,-0.20439,-0.021131,-0.024954,-0.090398,-0.18794
-0.03463,-0.0014336,-0.012963,0.2799,0.025542,0.022073,0.025212,0.098071
0.43132,0.26622,0.28738,-0.38157,0.00176,0.029798,0.01513,0.05784
-0.14549,0.15388,0.36816,0.077655,-0.0063245,-0.025036,0.0047911,-0.10336
0.31505,0.099373,-0.4555,-0.013981,0.017056,0.02961,0.033728,0.11614
-0.061401,-0.36689,0.049954,0.10881,0.0016375,-0.017097,-0.046078,-0.0875
-0.46324,-0.1453,-0.018169,-0.0081968,-0.029188,0.0067524,0.0078486,-0.10522
0.20873,0.26153,0.44253,0.02385,0.010406,-0.031693,-0.023143,0.10047
-0.017644,-0.0085941,0.07991,0.2653,-0.0047237,-0.0075268,-0.0063631,0.0034126
0.25228,0.23724,-0.33292,-0.17649,0.019039,0.02443,0.018792,0.20168
-0.24267,-0.43996,-0.38808,0.24404,0.026912,0.0093377,0.051827,0.05099
0.47188,0.20957,-0.11193,-0.48881,-0.067083,0.0095462,0.037498,0.23584
-0.4013,-0.20363,0.19192,-0.28773,-0.0051135,0.0093109,0.022202,-0.51097
-0.21198,-0.036501,0.2784,0.013958,-0.0058681,-0.046115,-0.174,-0.36092
-0.10478,0.38616,0.17114,0.36481,0.05573,0.015174,0.01927,0.079103
-0.14478,-0.30694,-0.12804,0.11942,0.0235,0.0058097,0.00088797,0.13356
0.52518,0.31739,-0.35943,0.27189,-0.0087555,-0.01148,0.044999,0.3464
0.33956,-0.37084,-0.1478,-0.18532,-0.0097334,0.010475,0.027437,-0.012185
-0.42538,0.23175,0.44153,-0.066142,-0.041855,-0.0061403,-0.011991,-0.056251
-0.16013,-0.053839,-0.25463,0.071911,0.020008,0.0092519,0.0053119,0.0043382
0.085695,0.014184,0.49452,-0.39964,-0.027092,-0.0056853,-0.022156,-0.011307
0.18965,0.1846,0.040728,0.12518,-0.042341,-0.027498,0.0067855,-0.1376
0.097973,-0.099013,-0.22802,-0.028118,0.075962,0.04523,0.06012,0.16792
0.022089,-0.45576,0.090886,0.264,0.015329,0.0090762,0.0040409,-0.013551
0.0024813,0.28437,-0.075431,-0.10019,0.025604,0.012078,-0.060912,-0.11579
-0.512,0.15097,-0.24996,0.14597,-0.010726,-0.032131,0.012863,0.42104
0.031965,-0.18559,-0.27166,-0.26124,-0.039416,-0.037992,-0.071997,-0.78661
0.12827,0.23423,0.40803,-0.21002,-0.029679,0.0098601,0.0047617,0.090589
-0.25786,-0.41909,-0.29094,0.48176,0.041538,0.0097627,0.0091077,0.1101
0.2701,0.39997,0.15571,-0.50417,-0.052542,0.016466,0.066675,0.19742
0.73399,0.32305,0.21058,0.66947,0.078702,0.030172,0.029793,0.37174
-0.64206,-0.21314,0.030409,-0.22339,0.0057964,0.0043004,0.024203,-0.23909
-0.049675,-0.55251,-0.49658,-0.081463,-0.098996,-0.076436,-0.10574,-0.1022
-0.15133,-0.16315,0.1624,0.00081342,0.046063,0.007045,-0.008078,-0.13132
0.32601,0.47199,0.63776,-0.063275,-0.011654,0.0050188,0.036137,0.13375
-0.018071,0.1596,0.42401,0.0070224,0.032955,0.04267,-0.0043376,-0.1053
0.23551,0.2065,-0.39984,-0.33522,0.023897,0.026324,0.057875,0.18895
-0.43948,-0.2291,-0.59008,0.44163,0.015924,0.010637,-0.011799,-0.15689
0.13458,-0.28645,-0.15053,-0.15404,-0.07702,-0.059173,-0.057322,0.0045935
-0.27746,-0.089902,-0.29233,0.25331,0.026062,-0.01135,-0.00075219,0.040092
0.23126,0.1493,0.20677,-0.086162,-0.034519,-0.025683,-0.0062846,0.019972
-0.24369,0.17985,0.13414,-0.32907,0.01437,-0.00067758,-0.01152,-0.14911
-0.012393,-0.16455,0.074789,0.36743,0.094377,0.055799,0.030307,0.017746
0.68538,0.26937,0.2843,-0.30271,-0.052415,0.026488,0.04091,0.13028
-0.18765,0.16592,0.45288,0.59644,-0.011907,-0.026227,-0.019008,0.05573
0.10379,-0.12614,-0.10013,-0.60078,-0.049556,-0.00094688,0.022136,0.15315
-0.43261,-0.32725,-0.27743,-0.059818,0.0067634,0.016198,0.01562,-0.14052
-0.063388,-0.20308,-0.45257,0.13241,0.047917,-0.053092,-0.077807,-0.13054
-0.36815,-0.017442,0.35991,0.0066166,-0.097846,0.0098233,-0.00034523,-0.13754
0.78404,0.15503,-0.095349,0.53151,0.092823,-0.006009,-0.0017878,0.0886
-0.062147,0.63144,-0.45385,-0.58157,0.025816,0.032313,0.012026,0.1344
-0.24505,-0.45826,0.11308,0.19173,0.036476,-3.3407e-05,-0.013053,-0.10861
0.06873,-0.16419,0.5778,-0.23314,0.022526,0.0065657,0.048529,0.024633
0.095498,0.49388,0.23528,0.2238,-0.11044,-0.025756,0.025341,0.20681
0.098807,-0.26297,-0.58722,0.10388,-0.0034212,0.04387,-0.0042541,-0.046041
-0.39149,-0.051003,-0.17989,-0.17639,-0.023592,-0.073432,-0.087161,-0.24181
0.069418,-0.42548,-0.12363,0.05721,-0.014208,0.005244,0.010693,0.040774
-0.033574,0.11945,0.40427,-0.41997,0.025611,0.03768,0.038763,-0.0040319
0.19943,0.50241,0.46541,0.51026,0.050076,-0.0075517,0.011961,0.14586
0.30192,0.32065,-0.10069,-0.13668,-0.010069,0.025484,-0.00018101,0.028033
-0.55933,-0.67304,-0.77751,0.082848,0.017841,0.011369,0.0094243,0.023956
0.37645,0.0553,0.34062,-0.18581,-0.022088,0.0043488,0.040246,-0.062678
-0.23164,0.063548,0.70641,0.42816,-0.028448,-0.074077,-0.10325,-0.16978
-0.084282,-0.097048,-0.12409,-0.22836,0.084074,0.057124,0.047854,0.070128
0.23432,0.36078,-0.60729,-0.38626,-0.060482,-0.094237,-0.091825,-0.060753
-0.41573,-0.14099,-0.30509,0.73256,0.068039,0.089256,0.064515,0.056216
0.26199,-0.15508,-0.44763,-0.42782,-0.10167,-0.0091645,0.025706,0.078954
0.50803,-0.092091,0.36258,-0.16319,0.015637,-0.013962,-0.004133,0.032484
-0.22706,-0.010195,0.64881,-0.11078,-0.049033,-0.018327,-0.00077442,-0.042853
-0.047916,-0.045651,0.13639,0.28936,0.13426,0.087611,0.051865,0.23661
-0.30901,-0.062123,0.41528,-0.31592,-0.082207,-0.070779,-0.049259,-0.36304
-0.18445,0.49708,-0.29494,0.69667,0.021334,0.014519,0.015894,0.080218
0.31676,0.0931,-0.41817,-0.44143,-0.014889,0.0075994,-0.011024,-0.0039932
-0.12578,0.091757,-0.0050987,0.085084,-0.0022913,-0.05261,-0.052567,-0.1237
0.33244,-0.32164,-0.65369,-0.23144,-0.01038,0.021111,0.038985,0.2129
-0.25262,-0.18815,0.44516,0.36431,0.00026848,0.01742,-0.02609,-0.026081
0.050034,0.11637,0.86781,0.015887,0.068536,0.029567,0.048525,0.0021251
-0.016275,-0.18846,-0.64349,-0.39254,-0.056296,-0.028937,-0.026659,-0.1491
0.010237,-0.36572,-0.30582,0.045996,0.06212,0.0054279,0.021507,0.19839
0.34118,0.26783,0.031857,0.38739,-0.054171,-0.00061475,-0.010246,-0.027339
0.039826,0.2859,-0.049555,0.056327,0.046584,0.030754,0.018717,0.14893
-0.56459,0.19841,0.95987,-0.13724,-0.01951,-0.04899,0.022639,-0.17207
-0.17355,0.098908,-0.54054,-0.22409,-0.034278,-0.020932,-0.091869,-0.17783
0.26186,-0.31228,-0.12946,-0.23975,-0.044535,0.0059613,0.027277,0.023151
-0.26411,0.32694,0.081926,-0.22509,0.0050961,0.032287,0.013534,0.0028586
0.60943,-0.40393,-0.19795,0.68664,0.045474,0.04312,0.0082181,0.021278
0.062512,0.090119,0.3487,-0.17683,-0.023556,-0.038972,-0.0036544,0.36971
-0.19505,-0.18071,-0.16277,-0.17673,-0.0053283,-0.033712,0.0018482,-0.24683
-0.14245,-0.21972,0.071616,0.66706,0.10117,-0.0032063,0.0093706,-0.0068208
0.091567,0.57398,-0.24436,0.15205,-0.062938,-0.0020046,-0.020147,-0.066138
-0.12225,-0.37573,-0.10113,-0.69255,0.03349,0.055691,0.03022,0.0044454
0.087151,0.58389,-0.043237,-0.28484,-0.016427,0.028859,-0.011882,0.11783
0.029248,-0.33031,0.29079,0.35455,-0.0027411,-0.012773,0.03262,-0.024502
-0.055299,-0.18979,0.058238,-0.16225,-0.043753,-0.062055,-0.071297,-0.14315
-0.017864,-0.12082,0.055358,0.066703,0.039226,0.02883,0.011722,0.072602
-0.044087,-0.039829,-0.10309,0.35859,-0.043564,-0.045277,0.031238,0.082214
0.017672,0.4786,0.50089,-0.42892,0.012276,0.012238,-0.012997,-0.013709
0.05421,-0.38477,-0.52002,0.35237,-0.019696,0.013825,0.0039594,0.097002
-0.00069142,0.49348,-0.22456,0.0082834,0.048466,0.014285,-0.027159,-0.3197
-0.010706,-0.085888,0.21289,-0.060445,-0.0013601,0.013823,0.026683,0.088636
-0.01253,0.035704,-0.41878,-0.46004,-0.066976,-0.010787,0.0016939,0.018591
0.20563,-0.12427,0.63291,0.19582,0.12555,0.018745,-0.0081069,0.12778
-0.232,-0.53205,0.1855,0.06663,-0.064138,-0.038116,0.044377,0.011118
-0.11669,0.19923,-0.2932,-0.064063,-0.011069,-0.0016569,-0.059446,-0.088425
0.30613,-0.33056,-0.61573,0.13267,-0.043622,0.010925,0.01646,0.048158
-0.17035,0.92579,0.29567,0.10899,0.10343,0.046513,0.029967,-0.0012173
0.34101,-0.060937,0.29047,0.47168,-2.3335e-05,-0.027639,-0.042321,0.0051079
-0.21703,-0.17041,-0.28469,-0.56416,-0.057391,-0.031675,0.010578,0.13681
-0.29877,-0.48491,0.42875,0.075817,0.02502,0.0034325,-0.0065943,-0.30195
-0.12245,0.1945,-0.073841,-0.43952,-0.07287,-7.5145e-05,-0.0078464,-0.022386
0.43121,0.13652,0.37151,0.36494,-0.038056,-0.002735,0.038111,0.092673
-0.11892,-0.14105,-0.63572,-0.22131,0.036376,-0.004192,-0.017154,0.019981
0.18404,0.3862,0.1678,0.33512,0.12766,0.027032,-0.0018024,0.24416
-0.23455,-0.30541,-0.24207,-0.47028,-0.0762,0.020663,0.029404,-0.20339
-0.10649,0.14996,0.41065,0.58486,0.065659,-0.00784,-0.040813,-0.0023514
0.014608,0.15652,-0.0079169,-0.30102,-0.032798,0.0036752,-0.0016011,-0.012218
0.4016,-0.33491,-0.15066,-0.032163,-0.043828,6.7024e-05,0.037616,0.11058
0.021043,-0.21706,-0.67458,0.27481,-0.022696,-0.066011,-0.055973,-0.1575
-0.24757,0.024132,0.062456,-0.21675,-0.0013022,0.031603,0.045808,0.074221
-0.040866,0.42684,0.29657,0.40567,0.050984,0.0035697,-0.03195,-0.11588
0.012694,0.12366,0.30901,-0.10956,0.024284,0.01382,0.01554,0.10854
-0.042446,-0.33818,0.67452,-0.083795,0.019813,-0.00015136,0.01649,0.037063
0.011563,0.010881,-0.3018,-0.79044,-0.15792,-0.022646,0.0021915,-0.064243
-0.14481,0.023534,-0.06066,0.20911,-0.0011368,-0.0066832,-0.027368,0.10181
0.48289,0.42764,-0.13103,0.057129,0.1465,0.04783,0.013676,-0.050645
-0.53954,-0.56458,-0.31579,0.50498,0.042941,0.008139,-0.0076173,-0.08427
0.096273,-0.26468,-0.8151,-0.11131,-0.077221,-0.039789,-0.028919,-0.046355
0.37806,0.14013,0.80598,0.26123,0.044091,0.044697,0.066766,0.070324
-0.19955,0.26632,0.2271,0.1893,-0.092768,-0.050842,-0.025447,0.21039
0.044244,0.11202,-0.28425,-0.34754,-0.018578,-0.021596,-0.0088503,-0.1112
-0.35976,0.58059,0.16534,-0.37765,0.048473,0.015443,0.0070734,-0.043402
0.39123,-0.28442,0.133,0.24364,-0.0082132,0.021453,-0.016759,-0.10992
0.13792,-0.49372,-0.13014,-0.14937,-0.00063127,0.0044919,0.029111,-0.0060049
-0.053105,-0.17387,-0.038798,-0.23533,0.0090121,0.0038149,-0.027001,0.057745
-0.64658,-0.05883,0.37337,0.37209,0.036321,0.01171,0.010488,0.066204
0.38546,0.088331,-0.28004,0.20937,0.0027836,-0.03434,-0.029992,-0.034833
0.29073,0.27183,-0.1904,-0.49885,-0.045449,-0.0016517,0.0080942,-0.018508
-0.0098017,0.16074,0.38139,0.19026,0.007845,0.023619,0.023382,0.068312
-0.21864,-0.19337,-0.55049,0.23354,0.0053702,-0.0056688,0.015939,0.014402
-0.1618,-0.076136,0.3741,0.14814,0.047749,0.027407,0.024746,-0.024471
-0.14848,0.33424,-0.3419,-0.074613,-0.05317,-0.049247,-0.05197,0.037122
0.42692,-0.27542,0.31399,-0.3673,0.022706,0.0064168,0.0042486,-0.16835
0.076392,0.045408,0.066023,0.070596,-0.029027,0.014671,-0.0022137,0.00749
-0.07926,0.12081,-0.43219,-0.093631,-0.035734,-0.024434,0.014327,0.096218
-0.35,-0.069534,0.26845,0.39375,0.074012,0.045465,-0.024411,0.067193
0.13242,-0.12394,-0.18993,-0.0951,-0.089161,-0.025499,-0.0012886,-0.15694
0.27369,-0.27275,0.44936,-0.13946,-0.031923,-0.026274,0.0056225,0.08864
-0.11578,-0.049727,0.22962,0.011355,0.12931,0.027572,0.01988,-0.062735
0.13265,0.50507,-0.198,-0.14031,-0.019271,0.003212,0.0182,0.068809
-0.14116,0.50947,0.012658,0.11208,0.10009,0.033384,-0.0070788,0.092428
-0.12859,-0.4015,-0.30672,-0.41525,-0.04469,-0.022639,-0.024569,-0.086195
0.081152,-0.13816,-0.079925,0.3277,-0.048491,-0.016493,-0.018533,0.024356
-0.11573,-0.3674,-0.0014262,0.65522,-0.053044,0.0049538,0.011119,-0.076694
0.00636,-0.28669,-0.59919,-0.45609,-0.074801,-0.005044,0.0097646,-0.030549
0.40861,0.21872,0.41257,0.44522,0.057743,-0.046232,0.0087019,0.084428
-0.39994,0.32472,-0.0010727,-0.70632,0.071286,0.069234,0.031398,-0.051916
-0.12833,0.19684,0.82609,0.062354,0.028891,-0.0098395,-0.015877,0.084371
0.34275,-0.026051,-0.013048,-0.095898,-0.099878,-0.056589,-0.054974,-0.1544
0.015327,0.41666,0.079142,-0.19946,0.060842,0.069765,0.031322,0.1154
-0.12451,-0.58408,-0.45023,0.57784,-0.05855,-0.02927,-0.030394,-0.050828
0.18234,-0.35713,-0.42788,-0.077637,0.065797,0.028847,0.017704,0.050519
-0.25072,0.50379,0.33667,0.19302,-0.027013,-0.021969,0.027151,0.099315
-0.048075,0.28242,0.076107,-0.28969,0.10021,0.036469,0.036926,0.0017251
0.1501,-0.32742,-0.40264,0.061104,-0.068745,-0.038581,-0.03905,-0.18002
-0.062071,-0.27598,-0.07016,-0.2371,-0.034548,0.002447,-0.0056332,-0.04782
0.096918,-0.53289,-0.074219,0.22497,-0.032203,-0.012546,-0.01924,0.13236
0.033432,0.3726,0.53188,0.006243,-0.007452,-0.0054079,-0.0096871,-0.061648
-0.35423,0.54498,0.060665,0.42465,0.047351,-0.0071311,0.030764,0.057322
0.26157,-0.08437,-0.069054,-0.74015,-0.008315,-0.0173,-0.038538,-0.097082
0.012761,0.35019,0.11212,0.12765,0.044614,0.042676,0.04803,0.13081
0.077764,-0.81376,-0.1962,-0.11469,-0.043422,0.032581,0.001406,0.0058545
0.025383,0.16252,0.31171,-0.088195,0.0014888,-0.0082499,-0.022179,-0.019676
-0.020904,0.19286,0.22108,0.44272,0.078216,0.029665,0.047552,0.0065238
-0.14047,0.50823,-0.49983,0.0070577,-0.070716,-0.056837,-0.039439,0.13856
-0.084018,-0.15371,-0.67779,0.23179,-0.10917,-0.056947,-0.064414,-0.42063
0.070296,-0.14785,0.28532,-0.040344,0.11135,0.02918,0.074224,0.17302
-0.10656,-0.15375,0.15498,-0.15579,0.020419,0.037344,-0.0062437,-0.048449
0.2616,-0.44748,0.13703,-0.20317,0.00057948,0.0065136,-0.0087889,0.10359
0.012154,-0.21356,0.30625,0.2151,0.043645,0.0069489,0.035537,0.23979
0.044996,0.087239,0.13646,-0.30485,-0.069564,-0.016057,-0.044914,-0.05267
-0.2402,0.74745,-0.46936,-0.36596,-0.042578,-0.023441,0.0079025,-0.28835
-0.10039,-0.095626,0.046875,0.58127,-0.00070978,-0.015196,-0.024551,-0.036744
0.12105,-0.063825,-0.16444,-0.22299,0.040232,0.032124,-0.001486,0.054243
0.18182,-0.055669,0.43642,0.30704,0.025517,0.03258,0.061561,0.13323
-0.043724,0.096348,-0.072672,-0.070758,-0.0057155,-0.013829,0.01615,0.075038
-0.080031,0.23501,-0.020508,-0.10746,0.017013,0.0022763,-0.020622,-0.027159
0.11855,0.19162,-0.079567,0.17012,-0.015447,-0.036261,-0.064547,-0.13518
-0.16014,-0.79088,-0.14855,-0.24421,-0.016904,0.011245,0.0013424,0.038944
-0.057701,-0.47831,-0.21957,0.48428,-0.1043,-0.042618,-0.002897,-0.052816
0.0893,0.55917,0.066775,-0.82761,0.097582,0.04442,0.070888,0.057208
-0.016223,0.19018,-0.0088706,0.54171,0.057594,0.0067669,0.011453,0.05562
0.12586,0.33974,0.16101,0.16507,0.010112,0.031865,-0.040894,-0.042592
-0.062249,-0.096433,0.58074,0.084853,-0.060615,-0.044517,-0.039576,-0.089324
-0.056737,-0.502,-0.15303,-0.52196,0.0014421,0.035159,0.069857,0.25917
-0.19331,0.23332,-0.0068767,0.35996,-0.093052,-0.065385,-0.064287,-0.27806
0.25459,0.11191,-0.22026,-0.80622,0.12439,0.067576,0.058005,0.10428
0.028825,-0.32369,-0.3354,0.32756,-0.026128,-0.034979,-0.016208,-0.030506
0.10544,0.27428,0.21791,0.36831,0.00997,0.009633,-0.013139,-0.064316
-0.1333,-0.30898,-0.33034,0.1105,0.029576,-0.0016588,-0.010428,0.23815
-0.054921,0.00015347,-0.020346,-0.1135,-0.029644,0.017343,0.008115,-0.16135
-0.167,0.49296,0.39105,0.1673,-0.11268,-0.0501,-0.042889,-0.02783
0.43769,0.01422,0.014748,0.19513,0.11685,0.038782,0.055774,0.060985
-0.28595,0.20463,0.14792,-0.71953,-0.0045791,0.0033731,0.030953,0.0036933
-0.10895,-0.49088,-0.079016,0.05262,-0.070202,-0.07763,-0.046986,-0.043496
0.041741,0.036874,-0.18779,0.022979,0.092293,0.069613,0.024899,0.075478
-0.018877,-0.45384,-0.094704,0.49197,-0.016823,0.015563,-0.011587,-0.092797
0.12502,0.21014,0.33506,-0.52061,-0.014667,0.0022517,-0.0085113,-0.0017799
0.14583,-0.094445,0.069752,0.54527,-0.018565,-0.0020064,0.017971,0.12161
-0.051149,0.4778,-0.29065,0.016872,0.08054,0.025586,-0.0029114,-0.090204
-0.14801,0.20888,0.27634,-0.14389,-0.14749,-0.064127,-0.040224,-0.043865
-0.023277,-0.17526,-0.24366,-0.51225,0.07025,0.0094525,0.0074588,-0.036709
0.10026,0.09662,0.31032,-0.044764,-0.040239,-0.019766,0.01518,0.086998
0.375,-0.83838,-0.74831,0.44346,0.12206,0.027708,-0.0090676,0.061082
-0.49107,0.39044,0.10866,-0.30052,-0.044912,0.011347,0.036543,0.049085
-0.046349,0.70836,0.42796,0.46888,-0.010287,0.009624,0.027299,0.17564
-0.03283,-0.6384,-0.26584,-0.4897,-0.055546,-0.03162,-0.067782,-0.51246
0.043455,0.089772,0.3716,0.58712,0.014589,-0.0024154,0.017143,0.094437
-0.07238,0.055974,-0.25525,-0.11852,0.044039,-0.011591,-0.030272,-0.01085
0.43556,-0.30152,0.066942,-0.24713,0.0097214,0.042806,0.032249,0.13345
-0.11707,0.46494,0.25818,0.2394,-0.072257,-0.0031311,0.025036,0.15319
-0.17329,-0.47715,-0.34371,-0.29214,-0.01387,-0.0167,-0.028522,-0.083826
0.17422,0.12604,0.40078,0.003728,0.044735,0.0095579,0.0042846,0.063328
-0.23878,0.17647,-0.29218,0.45254,0.11953,0.043866,0.013934,-0.17883
0.023909,0.028209,-0.11216,-0.33472,-0.14086,-0.054984,-0.038806,0.048768
0.16336,0.27612,0.42551,-0.24284,0.091688,0.0093593,0.033396,-0.027742
0.067877,-0.22081,-0.32347,-0.36412,-0.12048,-0.021267,-0.011811,0.0052586
-0.13187,-0.28462,-0.20184,0.51575,0.027075,-0.0063558,-0.010505,-0.0088721
0.039212,-0.0038549,-0.1024,0.17356,0.073155,0.0073443,0.0059501,-0.023586
-0.15379,0.2747,0.10918,-0.13935,-0.044995,0.020157,0.045278,0.21084
-0.015015,-0.28791,0.23332,-0.0034699,0.039617,0.0090831,-0.048823,-0.16518
0.035144,0.126,-0.085892,0.082082,-0.14187,-0.048864,-0.010737,0.012252
0.27224,0.37378,-0.26901,0.43387,0.18398,0.065444,0.058015,0.1572
-0.25459,-0.39731,0.22835,-0.26805,-0.076487,-0.022749,-0.06122,-0.22233
-0.0043081,-0.13277,0.57093,0.10739,0.061338,0.014781,0.022336,0.014715
-0.038197,0.55109,-0.15925,-0.61361,-0.074086,0.01394,0.0041913,-0.045091
0.16743,-0.4296,0.12422,0.029616,0.0020437,-0.04882,-0.013873,0.12245
0.096204,-0.017045,-0.44707,-0.15557,-0.053564,-0.025199,0.007427,0.025872
-0.042514,0.37868,-0.31142,0.62613,0.025121,0.029997,0.037038,-0.037423
-0.039746,-0.57382,0.29823,-0.40473,0.019599,-0.016136,-0.042067,-0.0047254
-0.053615,-0.0028196,-0.39452,0.43605,0.062687,0.031653,0.020218,0.045677
-0.09325,0.50982,0.36888,-0.0016712,0.021286,0.02487,-0.018244,-0.050785
-0.0028807,0.014008,-0.1265,-0.58629,-0.034832,-0.013107,-0.01684,-0.060497
-0.08681,-0.23863,0.14061,0.6882,0.018632,-0.012028,0.024353,0.085978
0.10129,-0.12304,-0.042547,-0.57215,-0.10029,-0.026635,-0.0041914,0.012789
-0.038947,0.25002,0.11801,0.12718,0.068754,0.036793,0.030121,-0.085427
0.18876,0.010763,0.20332,0.012557,-0.15431,-0.056106,-0.037046,0.079999
0.089429,-0.094138,0.026383,0.15153,0.17568,0.046275,0.01276,0.009027
-0.071693,-0.16203,-0.31279,-0.07024,-0.0037096,0.015875,0.038629,0.006672
0.024738,0.13177,0.13601,0.45801,-0.028264,-0.053507,-0.06904,-0.1608
-0.10686,-0.082874,-0.11488,-0.38769,-0.014971,0.033457,0.025563,0.093392
-0.03786,0.23864,0.033313,0.16793,-0.0027201,0.011103,-0.005702,-0.03459
-0.261,-0.19431,-0.28838,-0.44941,0.039871,0.0043357,-0.0064857,0.057501
-0.01059,-0.031039,-0.20564,-0.25658,-0.0042674,-0.018226,0.031211,0.065314
0.4171,0.13436,0.37533,0.52944,0.02127,0.0057768,-0.009562,-0.065931
