0.00061821,0.010975,-0.013376,-0.007209,-0.002476,-0.0083367,0.0047634,-0.0083374
0.0096688,0.019305,0.00087727,0.014907,0.013567,1.7584e-05,-0.0024897,0.007931
-0.020061,-0.058438,-0.0076863,-0.017415,-0.0011319,0.0005876,-0.017626,-0.015185
-0.002861,0.0042395,2.9307e-05,0.013179,0.00013893,0.0011036,-0.001729,-0.0073805
-0.0014392,0.019891,0.0005691,0.013026,0.0015238,0.0014963,-0.0017415,0.015776
0.007481,0.0042991,0.0016824,0.013364,-0.0050393,0.0095242,-0.0098234,-0.008115
0.00036601,-0.0032584,-0.0045479,-0.017171,-0.0041446,0.0017147,0.0053838,-0.00080557
-0.0071888,-0.002576,0.012988,-0.0084453,-0.011564,0.0014968,0.012783,0.014378
0.0082824,-0.0091494,0.007251,0.0080878,0.0039039,-0.0067287,0.0047115,-0.0015505
0.0077899,0.016086,-0.006308,-0.0068089,0.011057,-0.015084,0.0047096,0.0061286
-0.00075028,-0.0051434,-0.020038,-0.006369,0.0022155,-3.2367e-05,-0.0028175,-0.0094723
-0.0015901,0.03625,0.020621,0.0015712,-0.0068151,0.0072949,-0.0022909,-0.0015195
-0.0024101,-0.024175,-0.0094133,0.0014411,-0.00021512,-0.00080617,-0.0094401,-0.0091269
-0.018707,-0.022751,-0.00079646,-0.006654,-0.0012491,0.0069836,-0.0009601,-0.0010899
-0.0034967,0.0089433,-0.016016,0.0086536,0.013645,-0.00058085,0.0073978,0.0069367
0.012039,0.016035,0.015279,0.016205,-0.0023435,0.0076822,-0.0078953,0.0071259
0.012282,-0.024909,0.0071973,-0.0073987,-0.010154,0.00039249,0.0078089,-0.00052692
0.0049816,-0.0043102,0.0066491,0.00032405,-0.0020281,0.00082505,-0.0079726,-0.0003994
0.0056348,0.023518,0.0058464,0.0002485,0.0063173,-0.014611,0.0073252,-0.008123
-0.0093651,-0.019071,-0.018628,0.00011172,-0.00085346,0.0086672,-0.00088965,-0.00027278
-0.0089377,0.01686,0.003575,-0.0079535,-0.008027,-0.015303,-0.0012633,0.0075089
-0.001023,-0.008885,-0.0056008,-0.00833,0.0081369,-0.008335,-0.0015195,-0.00042046
-0.00911,0.005538,0.0086465,-0.00096928,0.00069196,0.021889,0.0062081,-0.00063448
0.005902,-0.0022858,-0.016031,-0.0014028,0.00085101,-0.0025857,-0.0093248,0.006869
0.0050693,0.0065815,-0.0091513,0.013918,0.0086166,0.0043406,-0.0012903,-0.009139
-0.0036256,0.00058174,0.029432,-0.0017895,-0.0072183,-0.004087,0.0067801,-0.0095559
0.0034356,0.002723,-0.0095665,0.0062066,-0.0075132,0.0034323,0.00695,-0.0021393
0.002966,-0.0030834,-0.001151,0.0066359,-0.015607,0.0034366,-0.00090807,0.013168
0.01068,0.014009,0.015511,-0.00058237,0.0076612,-0.0041611,0.0065451,0.005163
-0.01247,-0.024383,-0.0066515,-0.015568,0.015485,-0.0038584,-0.0097907,-0.0026945
0.0037697,-0.0089469,-0.005386,0.00061628,7.0032e-05,0.0042199,-0.010808,0.0052147
-0.011025,-0.025473,0.011247,-0.0068214,0.008245,-0.011271,-0.012001,-0.010203
0.013322,0.043542,-0.01163,0.001123,0.00084438,0.0043158,0.018078,0.0056926
-0.0014509,0.0031981,-0.011608,0.0088159,-0.014454,0.0041268,-0.0062858,-0.009648
-0.0085753,-0.0054699,0.0035369,0.00066683,0.0012828,0.0038688,0.0010417,-0.0015795
-0.00030689,-0.0055838,-0.0051081,0.00017572,0.0010945,-0.0041464,0.0089317,-0.0013813
-0.0079206,0.0030067,0.00175,-0.00039696,-0.0072201,-0.0041509,0.0095842,0.006555
0.0076558,0.0046278,0.016553,0.0068315,-0.00015663,0.0039865,0.0028981,0.014411
0.0073905,-0.00095956,0.0004593,-0.0015164,-0.0010176,-0.0030806,-0.0035061,-0.0012501
0.0069474,0.0093007,-0.0073362,-0.0097682,0.0059941,-0.0018879,-0.0098635,-0.009166
-0.0014459,-0.011911,0.0088118,-0.0022632,-0.0023912,0.0075119,-0.00077169,-0.0093137
-0.0021208,0.020931,0.0019323,-0.0024153,0.0052007,0.0015482,-0.015453,0.0061567
-0.002835,-0.009653,-0.012539,0.013222,0.0053837,0.0034582,-0.0071007,-0.0095825
-0.011326,-0.041271,-0.0035921,-0.0022383,0.0059398,-0.0026222,0.024315,0.0060158
-0.004061,0.012119,0.012901,-0.0019556,-0.008858,-0.0091208,0.00077321,0.0061083
0.0034417,-0.013261,-0.01795,-0.009429,-9.2414e-05,-0.00061289,0.0083588,-0.0014903
0.011277,0.047058,0.020915,0.014321,-0.0069796,0.014964,-0.007466,0.014436
0.0038769,-0.0096173,-0.01897,-0.0011118,-0.0062106,-0.017102,-0.0075177,-0.0086815
-0.010952,-0.011048,0.010907,-0.0089419,0.0021325,0.0048311,0.0004618,-0.0084306
0.0057728,0.011742,0.0013336,0.0063917,0.0023959,-0.0049948,-0.0069544,-0.00052491
-0.00079057,-0.0036974,-0.00058769,0.0058069,0.010222,0.0083564,0.017061,-0.0084702
0.0082162,0.0050119,-0.0024119,0.0049692,0.0022191,0.0061052,0.0099118,0.014576
-0.0064897,0.0063662,-0.011705,-0.019453,-0.01374,-0.011473,-0.020713,0.0061264
0.0017745,-0.015583,0.01079,-0.004798,0.0092759,0.0027242,-0.0046318,-0.010328
-0.006175,-0.014283,-0.0051298,-0.005562,-0.0068091,-0.0058425,0.0033536,-0.0034456
0.0087068,0.010008,0.0030379,0.0096875,0.016169,0.0097493,0.0031641,0.0034501
-0.015981,-0.0053674,0.011748,0.0098288,-0.0076914,0.0025673,0.010392,0.0026688
-0.0019049,0.0098668,0.005179,0.010525,-0.0080423,0.0037111,-0.0061917,0.0021353
0.0043402,0.008907,-0.0012882,-0.0039214,-0.00046701,-0.010473,0.0003562,-0.0058774
0.0030596,-0.023718,-7.8926e-05,-0.0024302,-0.0083605,0.0066471,-0.0089145,-0.0056995
0.010149,0.029383,-0.02262,-0.00086518,0.0073736,-0.0076589,-0.0026127,0.010477
0.0023583,-0.011262,-0.0064905,-0.007294,0.0076833,0.0011187,0.011601,0.0035324
-0.0046237,-0.012638,0.0014668,-0.0063101,0.00035525,-0.0061835,0.002619,-0.0031961
-0.010864,0.017609,0.009186,0.0019485,0.00094699,0.0094837,-0.0060087,-0.002029
0.0068879,-0.014153,0.0012091,0.0096369,0.0015438,0.0013143,-0.0064021,-0.00092375
0.0014795,0.009327,0.008944,-0.0066072,0.002028,-0.0071223,0.0092659,-1.5576e-05
0.0038425,-0.0056908,0.0090545,0.00025427,-0.013332,-3.3998e-05,0.001895,0.00058868
0.0058556,0.011066,-0.014067,-0.00081288,0.010085,0.0071252,0.0026542,-0.0069884
-0.0083549,-0.018612,0.017642,-0.0017712,-0.0058539,-0.0011241,-0.00419,0.0084861
-0.015502,0.01453,-0.0053143,0.0053836,-0.0064024,-0.0012466,-0.0031299,0.00016587
7.111e-06,-0.01466,-0.020566,0.0051524,0.00074134,-0.0010185,-0.009899,-0.00063259
0.007006,-0.0047898,-0.0047762,-0.0024225,9.7372e-05,-0.00046654,-0.0011474,-0.0094418
0.013483,0.036145,0.018582,0.0060569,0.0074324,0.0081392,0.015252,0.0050934
-0.0037687,-0.0014074,-0.012952,-0.00076287,0.007226,-0.0065741,0.008017,0.01183
-0.0054434,-0.031664,0.010095,-0.0073955,-0.00047948,0.0021249,-0.007234,-0.0047592
0.00086302,0.0077625,-0.005894,-0.013984,-0.0079013,-0.012783,0.00076692,0.0022894
-0.0081256,-0.0081791,-0.013924,0.010598,0.00049119,0.0032635,-0.014816,-0.013826
0.014556,0.0064645,0.017329,-0.0040546,0.0011231,0.0032926,0.008575,0.001643
0.0064235,0.012715,0.01755,-0.0033147,0.0016565,0.010686,-0.0071222,0.0018653
-0.0091315,0.0029027,0.0022837,0.012778,-0.0058525,0.001999,0.0084633,0.010302
-0.0087625,-0.0071557,-0.020796,0.012947,0.0097608,0.00071522,0.00068015,-0.0043005
-0.00039484,0.006199,0.010652,-0.0028265,-0.0062137,-0.0086846,0.00077983,-0.0029172
0.00023273,-0.027111,-0.020697,-0.018928,-0.0068571,-0.010413,-0.0069006,-0.001248
0.0086443,0.010329,0.002275,-0.0040942,-0.0076945,-0.0042662,0.0088176,0.00059502
0.001322,0.009332,0.017085,0.010465,0.014845,0.0099798,0.0087842,0.0024667
-0.0061671,-0.0065382,-0.023041,0.0013916,0.006211,0.0012782,-0.0070793,-0.0036132
0.0017649,0.017444,0.0070621,4.7806e-05,-0.0022322,0.0010245,0.00024757,0.0056164
-0.0061508,-0.020346,0.013833,-0.0012418,-0.0026039,0.0092742,-0.016094,-0.0012596
0.0091456,0.012744,-0.0025585,-0.010146,-0.0027027,-0.005273,-0.0013356,-0.00093516
0.0086029,0.0071041,0.0048819,0.012526,-0.0025666,0.0041067,0.0055974,0.0065142
-0.015566,-0.021924,-0.010678,-0.0034454,0.0055396,-0.0018756,0.0048681,-0.010162
-0.00082254,0.011316,0.013227,-0.0033331,0.0058934,-0.0078563,0.004441,0.0038102
0.00601,0.0050157,-0.0094443,0.0050258,-0.017226,0.0015388,-0.0033942,0.001725
-0.0028204,-0.0097395,-0.016337,0.0059204,0.014229,-0.0051389,-0.0029879,-0.016179
-0.0038119,0.0060458,0.015822,-0.00078474,-0.0091575,0.0032448,0.0055975,0.0050614
0.010909,-0.0022755,0.0087546,-0.0074395,0.0063638,0.011045,0.014412,0.011035
-0.0054811,-0.018942,-0.014226,0.0014196,-0.0016691,-0.012914,-0.0079772,0.0019738
0.0017428,0.010939,0.0093058,-0.013404,-0.0097513,0.0018304,-0.0070669,0.0014699
0.0013537,0.0094792,-0.0066091,0.018316,0.0056369,0.0086,-0.0064397,-0.0060483
-0.0066382,0.015972,0.00056588,0.0028034,0.0055126,-0.0080199,-0.013981,0.0028038
0.009018,-0.00064405,-0.00033317,-0.0052205,0.0055635,-0.00096693,0.0093796,-0.0033726
-0.014183,-0.03243,-0.001371,-0.013486,-0.0019869,-0.0013588,0.016851,-0.0013611
0.009684,0.0066053,0.013218,0.001558,-0.0015067,-0.0013277,-0.0070631,0.00076378
0.0024777,0.0070623,-0.011115,0.0087797,-0.00864,0.01472,0.00027712,0.0027334
-0.0045797,-0.0077157,-0.011755,0.00046658,-0.0078016,-0.00019845,-7.2096e-05,-0.0035068
0.0040965,0.024615,0.011373,0.0079294,0.0087661,0.00062849,0.0075878,0.005294
-0.010612,-0.0055243,0.019234,-6.9407e-05,0.0097465,-0.0064149,-0.0079753,-0.002224
0.0059091,-0.020234,-0.027265,-0.007937,0.0028767,-0.0058569,-0.0077348,-0.0026427
-0.0011113,-0.0041109,0.020238,-0.00011066,-0.011922,0.0022103,0.0082321,0.0041108
0.0073002,0.019225,-0.018057,-0.0079112,-0.0034759,-0.0056624,0.00076327,-0.0052445
0.0076272,0.010597,0.0061595,0.0076659,0.012529,0.0018435,0.0088206,0.00076142
-0.00018187,-0.0065732,-0.00098566,0.0075299,-0.010822,-0.0063949,-0.014552,-0.001055
-0.016134,-0.00093678,0.0072818,-0.0083091,0.012405,0.016646,0.00091092,-0.0026287
-0.008929,-0.019151,-0.00034905,-0.00074034,-0.0036965,0.00078259,-0.0072917,0.01188
0.0059108,-0.0062115,-0.0082633,-0.00093693,-0.012181,-0.01485,0.01557,-0.0042586
-0.002722,0.01482,-0.00079096,-0.00099816,0.0026761,0.0088045,-0.00073856,-0.0041154
0.020014,-0.0025593,0.0065399,0.0069662,0.0019258,0.0091622,-0.0014266,-0.0033608
-0.011688,-0.0033656,0.0060545,-0.0082491,0.0091157,0.0017037,-0.0098221,0.0056805
0.0038192,0.0047469,-0.017713,0.00022445,-0.0069187,-0.0059258,0.005426,0.0071765
-0.0037576,0.021756,0.0057075,0.0088828,0.00074137,0.0017531,0.005334,0.00088465
0.012414,-0.0072338,0.0061287,-0.0058338,0.00083957,-0.022217,-0.0022404,-0.0056187
-0.0024427,-0.0044607,-0.00075447,0.018415,0.0011327,0.0081099,-0.0016669,0.0031028
-0.0015627,-0.0016253,-0.0071373,-0.012285,0.0015265,0.0068992,-0.00079461,-0.012121
-0.0163,-0.0069929,0.0025101,-0.0043194,0.0019074,-0.0022305,0.00030096,-0.004428
-0.0076674,0.0025062,0.0045718,-0.0046324,-0.0056467,-0.0034319,0.0015126,0.002825
0.01648,0.003222,0.0066182,0.0024198,0.0022188,0.011324,-0.0051004,0.001971
-0.0063691,-0.0048638,0.00056529,-0.0064906,-0.0057849,-0.0046685,0.0037629,0.00099681
0.017538,-0.013764,0.0017809,0.0078814,0.0016052,0.0033614,0.0045366,0.01569
-0.0055484,0.0080988,-0.013369,-0.0011206,0.001013,-0.0036638,-0.0028839,0.0071079
-0.0053263,-0.0091792,-0.013733,-0.0098501,-0.0074652,-0.0024199,0.0048753,-0.016876
0.0025536,0.020742,0.016334,0.013097,0.015344,0.0069025,-0.0034455,-0.0015714
0.002435,-0.0033885,-0.0011574,-0.0025269,-0.00076795,0.00063179,-0.0043579,-0.0095153
-0.0057058,-0.003285,-0.0034797,0.021368,-0.0010346,0.0019682,-0.013378,0.0061069
0.0015665,0.036661,0.001835,-0.0012815,-0.0010396,-0.012726,0.01652,0.0061706
-0.0069694,-0.032167,0.0072603,-0.023783,-0.016408,-0.0045184,-0.00042794,0.0062507
-1.7242e-06,0.008695,-0.002579,-0.0072693,0.015317,0.0031089,-0.0015616,-0.0093074
0.014745,-0.012956,0.01156,0.0090306,0.00030768,0.010201,0.0054299,-0.0092611
-0.0095061,-0.01929,-0.0049157,0.001574,-0.0068532,0.0012535,-0.01064,0.014214
-0.0023476,0.01292,-0.036378,-0.006235,0.0015264,-0.00012281,0.0049093,-0.0013585
0.0050408,-0.0023636,0.026473,0.0012611,0.0097033,-0.009355,0.0051311,-0.0090766
-0.0029319,0.020804,0.0038096,0.0085158,0.0019548,0.0050004,0.0055285,0.0067046
0.004975,-0.0034233,0.020457,0.0078176,-0.0061509,-0.003768,-0.0096686,-0.00088248
-0.0025411,-0.02022,-0.0097054,-0.00073137,0.0010107,0.0035138,-0.0015348,0.0072166
-0.0021294,0.017445,-0.024341,-0.0092301,-0.01556,-0.0043581,-0.0014195,-0.00026878
-0.0017083,0.0081574,-0.0079411,-0.0019846,-0.0010538,0.011654,-0.0015514,-0.0077404
0.0064298,-0.0088915,0.015999,-0.0023852,0.013437,-0.0032246,0.0059082,0.0004014
0.0065768,0.021096,0.01623,0.0052184,0.0046394,-0.0022567,-0.0023908,-0.0071122
-0.0091229,-0.042412,-0.02283,-0.010423,-0.011681,-0.0012266,0.0049317,0.00877
-0.0094105,-0.011831,0.0082596,0.0053521,0.011435,-0.0081022,-0.011041,-0.0066482
0.0057759,0.034778,0.00019199,0.0056134,-0.00412,0.016054,0.0045062,0.0091197
-0.0025218,0.0037058,0.015524,0.0059069,0.011914,-0.0069598,-0.0030316,-0.006451
0.004884,0.004322,-0.00039356,0.0061417,-0.010876,-0.0068476,0.0054194,0.0091012
0.0046737,-0.018122,-0.024096,-0.0093888,-0.0023045,0.00080408,0.0063539,0.0010421
-0.010883,-0.0090597,0.0069364,-0.0094822,-0.0015509,0.00045289,-0.00036912,0.00057846
0.0051155,0.01571,-0.0010234,0.0058683,-0.00089057,1.7084e-05,0.00068593,-0.0079392
0.0057526,0.0012961,0.0067382,-0.0023286,-0.0081788,0.015227,-0.0063069,-0.0088783
-0.0012601,0.0099936,-0.0088158,-0.010507,0.007836,-0.0085184,0.0019207,0.0056197
0.0073732,0.0025758,0.007017,0.012742,0.0081252,-0.0086698,-0.0059799,-0.0034269
-0.0075609,-0.01323,0.0073551,-0.002737,0.00054962,0.0069721,0.0012394,0.0031465
0.00068726,-0.0061491,-0.0078366,-0.0021488,-0.0070336,-0.00067906,0.00024131,0.0098209
-0.014827,-0.0072844,0.00043951,0.0067224,0.0088402,0.0073909,-0.00097457,0.0010639
0.00058895,-0.016384,-0.022591,0.00036708,-0.014326,-0.0079391,-0.0021688,-0.0074296
0.015761,0.037182,0.032352,0.0098662,0.0015708,0.00015163,0.0047162,0.015636
-0.008241,-0.00252,0.016751,-0.011896,0.0096162,0.00037416,-0.0035558,-0.01565
0.0068667,0.0053876,-0.014748,0.012939,0.001948,-0.0072904,0.0043807,-0.0075214
-0.0090798,-0.024905,-0.015249,-0.017433,0.0019561,0.00059404,0.0050925,0.00096727
-0.0012858,-0.015305,-0.023725,-0.0094305,-0.021643,0.00059811,-0.0015301,-0.0058115
0.014667,0.057423,0.022477,0.021267,0.017076,0.0083544,0.007747,0.011181
-0.00031309,-0.018001,-0.00927,-0.011211,-0.0068693,0.0082387,-0.0063948,0.012824
-0.0072574,0.00017531,0.014019,-0.0051263,0.00031323,0.00024594,-0.0051509,-0.00098084
0.0015091,-0.013493,-0.0012927,0.0007127,0.0074363,-0.007814,-0.0043554,-0.0069345
0.0023973,0.0031169,0.015124,0.0065878,-0.0010519,-0.00030367,-0.00413,-0.0052002
-0.0047269,-0.012727,0.00067839,0.0049465,-0.0094524,-0.016248,0.0033208,-0.0037564
-0.0043307,0.009248,-0.0057455,0.0037958,0.01355,0.0069141,0.0024562,0.0050663
-0.0042641,-0.0011048,-0.0043756,-0.0045743,-0.01012,-0.0010538,0.0012495,-0.0022674
0.0033013,0.003437,-0.011061,0.0032769,0.0055011,-0.0010242,0.0077156,0.013268
0.01061,0.0077212,-0.0025364,-0.0039835,-0.0098955,0.014847,-0.0091894,-0.010795
-0.0056994,-0.026795,-0.010143,-0.0030619,0.0061642,0.0074741,0.0053993,-0.0040466
0.0013266,0.0019311,0.012992,-0.0097559,-0.0010597,-0.007595,0.0047328,0.0024141
0.00050216,0.031758,0.020067,0.0070131,0.0074196,-0.0070446,-0.0033115,0.00096027
0.0074982,-0.0074509,-0.012235,0.0080367,-0.0075506,0.0011768,-0.0031044,-0.00040189
-0.0010913,0.0092719,0.0099737,0.0010231,0.0086262,0.0013275,-0.0025074,-0.0014989
-0.0096147,-0.019873,-0.022551,-0.0062705,0.0011873,0.0011542,-0.0094257,0.0056099
-0.0024161,-0.0015322,-0.00032453,0.0017758,-0.0064723,-0.0071513,-0.00054668,-0.0024479
-0.0028935,0.0091181,0.022046,-0.0060477,-0.0065392,-7.47e-05,0.0083573,0.0055725
-0.0031902,-0.01186,0.0055529,0.0015839,-0.0067794,-0.0087335,0.024943,-0.0016491
0.020168,0.021041,-0.010705,0.0091402,0.0085145,0.013905,-0.0056245,-0.00079584
-0.010931,-0.017474,-0.018892,-0.0067197,0.00037807,-0.0023271,-0.013145,-0.0076416
-0.0027601,0.0052974,-0.0033684,0.00096083,0.0079642,0.005166,-0.013298,0.0010966
0.013365,0.0035103,0.0046189,0.00098365,8.3596e-05,0.0051583,0.0017481,0.0018418
-0.0095327,-0.006926,0.028489,-0.0066386,0.0080057,-0.0024042,0.00084118,-0.0055168
-0.0012598,-0.017767,-0.017746,0.001502,-0.015168,-0.0098262,0.0075789,0.010198
0.006821,0.0027465,0.0064561,0.0097127,0.00082085,0.006177,0.006528,0.0020786
-0.00099228,0.047306,0.0072324,0.010088,-0.0066022,-0.0014209,-0.0099395,0.0013871
-0.0012788,-0.032115,-0.015539,-0.0131,0.0015508,-0.0014853,0.0051908,-0.0074476
-0.0017943,-0.016524,0.00053141,-0.0052531,0.0095909,-0.0018822,-0.002702,-0.00089288
-0.0024118,0.023797,-0.007128,-0.013305,0.0096613,-0.002591,0.005424,-0.0022565
-0.010769,-0.012909,0.008337,0.0096001,-0.013883,0.0042911,-0.0095974,0.0042383
-0.0032445,0.021403,0.0079013,0.0087974,0.0014666,-0.0045324,0.0067556,0.0031218
-0.0031351,-0.0066023,-0.0083452,0.0077826,-0.0067581,0.0023525,0.0074145,-0.013283
0.020864,0.011885,0.0065992,-0.001174,0.00055918,0.0016622,0.0078263,0.0019929
0.021814,-0.0017543,-0.0096224,-0.010162,0.007857,0.0091385,-0.015566,0.0099177
-0.00045922,-0.0087867,-0.002188,-0.0034543,-0.00042787,-0.006408,-0.0081048,0.0026414
-0.014962,-0.032742,0.0055663,-0.0043887,-0.00080996,-0.0059157,-0.0087774,0.011313
-0.006343,-0.0031449,0.005876,0.010557,0.006737,0.010561,0.0060201,-0.011087
-0.013884,-0.0055562,-0.0090894,0.0023776,-0.0090351,-0.0039427,0.013072,-0.0022131
-0.0064434,0.030841,0.007461,-0.0054665,-0.0012713,0.005155,-0.0030204,-0.0090745
0.016009,0.020625,0.00070173,0.0026275,-0.0012566,-0.0091189,-0.0030214,-0.00050725
-0.0010487,-0.0045398,0.0095291,0.0031563,0.006592,-0.0077811,0.0053343,2.3573e-05
-0.0026678,-0.0053532,-0.013094,-0.011795,-0.0012027,-0.0065139,-0.0014321,0.00035499
0.0036377,-0.0052262,-0.0047898,0.012335,-0.0012325,0.010264,0.0077737,0.00054358
0.0025144,0.011305,0.0031313,-0.0027056,0.0064907,0.011261,0.0014627,0.0084647
0.0019656,-0.010738,-0.0049377,-0.0023387,-0.0092723,0.0042344,-0.0050113,0.016353
0.0098813,-0.017006,0.0023422,0.0055562,-0.0016122,-0.0030688,-0.0040798,-0.0070217
-0.012843,0.0078209,0.0016726,-0.002467,0.006088,-0.0029044,-0.0037177,-0.01479
0.011774,0.016654,0.0010238,-0.0029121,-0.0017313,0.0046793,-0.003972,-0.006974
-0.025847,-0.021843,0.00053882,-0.0034701,-0.0015696,-0.011572,-0.0047661,0.00078092
0.022513,0.0017388,0.0081304,-0.0039748,-0.0011942,-0.0047266,0.0018894,0.008462
0.00041223,-0.0062212,0.00040312,0.0035662,-0.00059226,0.0018994,0.00060224,0.0082582
-0.014152,0.016948,-0.0070353,-0.00413,0.00020741,-0.0071498,0.015042,-0.0076302
-0.0056094,0.0089031,0.0013747,0.01209,0.0089454,0.0073732,-0.001487,-0.00012122
0.0026184,-0.0068195,0.009913,0.0053501,0.0020781,0.0065675,0.0057976,-0.00044407
0.0027781,0.0010406,-0.036213,-0.0088295,0.002921,0.013973,0.0056458,-0.00076801
0.0027532,-0.014468,0.019147,0.0006055,-0.012077,-0.009454,-0.017644,-0.0010789
0.010408,0.0090148,0.0040307,-0.0056609,-0.0039339,-0.0012758,-0.0016938,0.0064463
-0.0054906,0.0010162,0.0043035,0.011171,-0.00393,-0.0084977,-0.0013154,-0.0016202
0.017537,0.039534,0.012098,0.019637,0.0035833,-3.4891e-05,-0.00098336,0.0059838
-0.0064803,-0.039541,-0.011685,-0.019446,0.0030507,0.0083236,-0.00075375,-0.0097869
-0.0072436,-0.017386,-0.0045533,-0.027942,0.0023808,0.00082259,-0.00063944,-0.002035
-0.015968,-0.0031814,-0.0055441,0.0021096,0.0094877,-0.0069861,0.0071891,-0.0098012
-0.0091146,0.0033609,0.0010331,0.00064715,-0.0067903,-0.0072969,0.007135,0.0059882
0.0056609,0.010377,0.007469,0.022663,0.0004867,0.0077568,-0.00077921,0.014071
0.0051012,0.0025193,-0.0017307,-0.0018683,0.00010763,-0.00079041,-0.0087329,-0.0012212
0.012797,0.011197,-0.0029867,0.0053817,-9.832e-05,-0.0015745,0.006706,-0.00090205
-0.0024231,0.0051473,0.0038346,0.0054291,-0.015757,0.0055087,-0.0013481,-0.0006927
0.006287,-0.00019906,0.0032155,-0.0017839,0.0078032,0.004908,-0.0094616,-0.00068803
0.015353,0.01044,-0.0047774,-0.0086179,0.00023833,-0.0033434,0.0058142,-0.00095483
-0.014506,-0.033671,0.0033106,-0.0075042,0.0083737,0.0041882,-0.0023655,-0.0015081
-0.013223,-0.00013765,-0.0038047,-0.0065157,0.00089138,-0.011586,-0.002706,-0.01011
0.0033604,0.024772,-0.0027683,0.0097465,0.0011491,0.0039899,0.0048415,0.0046008
-0.011766,-0.037248,-0.0093278,-0.0057461,0.0012557,0.0040267,0.0046918,-0.0040932
0.0038686,0.040356,0.023243,0.017258,-0.0066596,-0.0036533,-0.0031358,0.010852
0.0034662,-0.039135,-0.0067775,-0.0071405,0.00082105,-0.0033889,-0.0030241,0.0027061
0.0028048,0.0058058,0.0098404,-0.00069237,-0.0075218,-0.010756,0.0049932,0.0028112
0.0098828,0.027075,0.0026744,-0.0022663,-0.00035793,0.005538,0.0052393,-0.012255
-0.0063794,-0.0062524,-0.043954,-0.0038171,-0.0010095,0.014252,-0.010156,0.0043185
0.0010093,-0.00017216,0.018404,-0.0051074,0.0062733,-0.00027966,-0.0021784,-0.0022898
-0.0069739,0.0064042,0.010138,0.0018801,0.0059692,0.00090766,-0.0021077,0.0068054
0.0086953,-0.0099242,0.0094946,0.017283,-0.0018645,0.0020458,0.013491,0.0079783
0.0088556,-0.0023449,-0.014636,-0.013541,-0.0016075,-0.0048392,-0.010049,-0.0067467
0.0011916,0.005575,0.016002,0.010915,0.0066753,0.0035457,-0.0023741,-0.0062257
-0.014417,-0.017572,-0.023495,-0.0032477,-0.00056312,-0.011955,0.0053161,-0.013926
-0.014615,0.021816,0.0075417,-0.0015573,-0.015637,-0.012299,0.0052568,0.0014517
0.00057365,0.0064397,0.015349,0.00011827,0.0082136,0.010383,-0.0025154,0.016582
0.0077446,-0.032513,-0.015763,-0.0062621,0.00060325,0.0015213,-0.0023562,0.00036211
0.014782,0.0065099,0.0078545,0.0025636,0.00057682,0.0081391,-0.0020791,-0.00018963
-0.0094794,-0.0014646,0.00015444,-0.0047507,0.00036528,0.0069462,-0.0095178,-0.0083985
0.01316,0.021736,0.00010932,0.0030396,-0.0077494,-0.0097509,0.014352,0.014857
-0.011002,0.0058473,0.015491,0.010389,-0.0002055,0.0050001,-0.00083392,-0.0085457
0.0039943,-0.0022153,-0.016173,-0.013807,0.0074982,0.0043604,-0.000442,-0.00052988
0.0034673,-0.010234,-0.024471,0.00094529,-0.00016404,-0.011663,0.0076667,-0.00023628
-0.012576,-0.002555,0.0063738,0.0079572,0.00029431,0.0037989,-0.0077872,6.1263e-05
0.0027625,-0.010394,0.0062145,-0.0004251,0.0010483,-0.011763,-0.0077413,0.00028952
-0.0051607,-0.0024598,0.0064312,-0.0006574,0.0020269,-0.0036659,0.007837,-0.0074092
0.0027773,-0.0021541,-0.00074112,-0.00051206,0.0031167,0.012454,-0.015679,0.00039159
0.0031974,0.029601,0.031509,-1.9331e-05,0.0041888,0.0053207,0.0077207,0.00027517
0.0039449,-0.016595,-0.014176,-0.007085,-0.018311,-0.0016792,0.0077894,0.015723
-0.010621,0.0076234,0.002587,0.0015886,-0.0019633,0.0069994,0.0079996,-8.2597e-05
0.0062946,0.00057721,-0.027831,0.010213,-0.0014916,7.0847e-06,-0.0072828,-0.0080193
0.0076747,0.0090068,0.011558,0.0030051,0.0065475,-0.007131,0.0009484,-0.0080303
0.0089555,0.0015404,-0.0043362,-0.0045384,0.0065601,0.0011325,-0.0064633,-6.8232e-05
-0.0056894,-0.037523,-0.0051628,-0.0046755,-0.0014196,-0.014303,-0.0061925,0.0080866
-0.012995,0.0089966,0.0014261,-0.0052178,0.0060663,0.0012586,0.01728,0.00081938
0.0025617,-0.0072789,-0.0077696,-0.0060907,-0.0022349,0.00098743,0.0013825,-0.0062641
-0.0059005,0.015323,0.0065663,0.0084656,-0.002907,0.00057022,-0.0070313,0.002408
0.00077901,0.014426,0.013391,0.0073696,-0.0037891,0.015685,-0.0079171,-0.004501
-0.0084667,0.005762,0.028444,-0.001397,0.0029175,-0.00051676,-0.0011682,0.011959
0.013468,-0.018421,-0.018582,-0.0098848,-0.0062084,0.0066477,-0.0022562,-0.0030237
0.0043133,0.012197,-0.010585,0.0054252,0.0001389,-0.0019053,0.0046155,0.012942
0.0033173,-0.011793,-0.010204,0.013298,0.0064308,-0.010562,0.0039774,-0.018341
0.002777,-0.0045102,0.0058599,-0.0019392,-0.0028294,-0.011484,0.0037485,-0.0031329
-0.0050965,-0.012882,-0.0093671,-0.0091275,0.0037535,0.0032295,0.0039652,0.0039399
-0.0047302,0.025564,-0.0012341,-0.0083784,0.0028846,0.0024721,0.0045895,-0.012617
0.0037729,0.0014692,-0.00096752,0.000203,-0.0053161,0.0020517,-0.010104,0.017687
-0.0031475,0.00084146,0.022745,0.0087253,-0.0051451,0.0021475,-0.0090028,-0.0065243
-0.0099807,0.00037143,-0.00033756,0.0015212,-0.0043935,-0.0049254,0.0077492,0.00084597
0.0066223,-0.0075739,0.00014675,0.0020226,0.0047048,-0.0035116,-0.0068484,0.00082545
0.0075419,-0.0071591,-0.014853,-0.0053736,0.01422,0.014106,0.0096141,0.0090375
-0.0072542,-0.0059929,0.0015024,-0.005007,0.00053296,0.00082601,-0.013227,-0.0058668
0.0012757,0.0038784,0.010077,-0.0046592,-0.013142,0.0031957,0.0027358,0.0028059
-0.013768,-0.016594,-0.02048,0.011305,0.0042065,0.013025,0.018445,-0.0042371
0.025703,0.026166,0.019091,0.0037996,0.0054892,-0.024725,-0.01296,-0.0037928
0.0024485,-0.0010536,-0.0041295,0.0040168,-0.0094515,-0.00093072,0.010106,0.011761
0.0023541,0.018314,0.0035235,-0.0037538,-0.0016274,-0.0016217,-0.0060839,-0.0045579
-0.021491,-0.025885,-0.0048725,-0.0039802,0.005545,-0.0032617,0.0010059,-0.0058691
0.0090417,0.013963,0.0019354,-0.012363,-0.011261,0.0022383,-0.0076367,-0.0076784
-0.0075495,0.019966,-0.0072424,0.010129,0.010637,-0.00034236,-0.0006926,-0.0019564
-0.0086493,-0.008287,0.0067738,0.008836,-0.0066671,-0.0027374,-0.0015168,0.0037599
0.0058959,0.022994,0.012898,-0.00052009,0.015178,0.0032777,-0.0022129,0.0097543
0.0049957,-0.049662,-0.019928,-0.0099662,-0.0017552,0.010178,0.012913,0.0084541
