0.035111,0.20073,0.59254,0.23925,0.090266,0.036598,0.030455,0.047361
-0.00859,-0.33901,-0.45595,-0.089595,0.093473,0.021572,-0.00032137,-0.0060762
0.031844,0.26707,-0.37659,-0.2998,-0.065802,-0.024322,0.0085041,0.01791
-0.0939,-0.18706,0.42171,0.39623,-0.028968,-0.046783,-0.052704,-0.060492
0.012615,0.01526,-0.76632,-0.096749,0.023274,0.031915,0.034481,0.016516
-0.054546,-0.025243,0.37821,-0.23317,-0.089809,-0.046361,-0.011511,-0.024416
0.087988,0.012407,0.61243,0.44697,0.091856,0.054148,0.0043835,0.035636
0.042474,-0.33065,-0.32936,-0.080017,-0.018178,-0.010305,0.0039037,0.0093973
0.067441,0.62839,0.85033,-0.12605,0.017553,0.041724,0.018307,0.061172
-0.14897,-0.49753,-1.1519,0.11513,-0.011417,-0.03941,-0.038195,-0.074427
0.034376,0.31841,0.32247,-0.2524,-0.026038,-0.018854,-0.0012762,-0.014361
-0.085293,-0.10875,-0.64559,-0.25684,-0.048515,-0.021078,0.0043912,-0.0084176
0.07033,-0.17612,0.13478,0.09701,0.0084187,0.0012881,-0.0052349,0.0060918
0.048134,0.24907,0.70567,-0.024633,0.028753,0.048615,0.03262,0.037133
0.066724,0.24366,-0.14209,0.79282,0.099211,0.011687,0.024374,0.014482
-0.046054,0.024281,0.18503,-0.24126,-0.045606,0.0075946,-0.0064878,-0.0071673
-0.1187,-0.45051,-0.55004,-0.34927,-0.015476,-0.026517,-0.052224,-0.051353
-0.0031976,-0.32349,0.10863,0.26833,0.0011317,-0.013093,-0.0036186,-0.0010979
0.057787,0.38038,0.41994,-0.073836,0.0028411,0.0081052,0.029741,0.041718
-0.053448,-0.08194,0.048532,-0.10739,-0.082211,-0.057408,-0.046141,-0.040508
0.10003,0.078326,-0.42599,-0.062252,0.088256,0.070948,0.041916,0.040809
0.017624,0.26739,0.039254,-0.22059,-0.057223,-0.02141,0.0045842,0.0039244
0.06596,-0.022566,0.75626,-0.080693,0.090079,0.055844,0.029118,0.028097
-0.06004,0.16147,-0.97451,0.7912,0.014508,-0.0020004,0.0059398,0.0036754
-0.094835,-0.59469,0.010628,-0.2242,-0.088002,-0.054031,-0.049436,-0.077189
-0.077156,0.08388,-0.4657,-0.53452,-0.091249,-0.060602,-0.027617,-0.026743
0.048441,0.048896,0.32624,0.38198,0.053256,0.025988,0.0090628,0.022737
0.11116,0.074101,0.31003,-0.13392,0.1051,0.073885,0.053094,0.056372
-0.067491,-0.1917,0.687,0.0066304,-0.051261,-0.040975,-0.043568,-0.034392
0.0057444,0.52522,0.059826,0.226,-0.016153,0.0024856,0.00073523,0.0011898
0.050325,-0.0093989,-0.34894,-0.2434,0.023544,0.0094111,0.022291,0.023017
-0.011672,-0.24863,-0.64914,0.30534,0.020876,0.0033161,-0.00211,-0.0077668
-0.032147,-0.13763,0.60945,0.0465,0.021965,0.0073297,0.0057291,-0.0053723
0.081861,0.019408,-0.34983,-0.27578,-0.0057048,0.013012,0.030104,0.02974
-0.092579,-0.17492,-0.41123,0.044141,-0.071496,-0.011712,-0.038552,-0.020293
0.076263,0.4763,0.59905,-0.42736,0.04177,0.018226,0.010445,0.023469
-0.068732,-0.33741,0.43711,0.3076,-0.089138,-0.085446,-0.049715,-0.050587
-0.035849,0.22992,-0.82422,0.22542,0.073865,0.012649,0.0073181,-0.0085642
-0.028201,-0.28051,-0.20225,-0.3209,-0.032236,-0.00029318,0.0016981,-0.014737
0.17342,0.6096,0.87404,0.61655,0.11593,0.094424,0.07393,0.063765
-0.031782,-0.12998,-0.85944,-0.65441,-0.043825,-0.0077468,0.020785,0.016274
-0.2367,-0.88982,0.5434,0.12723,-0.1281,-0.095617,-0.11097,-0.10214
0.08282,0.21946,0.026467,-0.035741,0.01226,0.0029747,0.0066661,0.029197
0.12242,0.015301,0.31965,0.57767,0.17488,0.077349,0.045448,0.066812
0.030396,0.61023,-0.16303,-0.32004,-0.13178,-0.044175,0.005264,-0.02827
0.10298,0.23228,-0.22156,-0.21225,0.10846,0.076029,0.02667,0.056358
-0.17642,-0.37598,-0.54887,-0.059331,-0.088392,-0.069758,-0.054389,-0.07015
0.01933,-0.17517,0.40301,-0.33762,-0.026703,-0.012671,0.0043928,0.013832
0.041071,0.43802,0.58801,0.52321,0.12977,0.059995,0.039209,0.026895
-0.10354,-0.26622,-0.51589,0.49949,-0.040488,-0.04674,-0.019853,-0.054365
-0.062418,-0.61533,-0.054405,-0.21387,-0.13859,-0.035533,-0.039463,-0.018737
-0.0062709,0.059828,-0.28079,-0.39863,-0.062451,-0.054262,-0.019045,-0.021973
0.26959,0.61213,0.08509,-0.21158,0.24309,0.17888,0.096634,0.13969
-0.1785,-0.23549,1.06,-0.24703,-0.096628,-0.077837,-0.059199,-0.087783
0.041413,0.38172,0.0068271,0.49429,0.074705,0.011761,0.005836,0.007061
-0.0074566,-0.32074,-0.67841,0.5504,-0.032274,-0.0054924,0.018211,-0.0052055
-0.12988,-0.43477,-0.81676,-0.48653,-0.21511,-0.12995,-0.069335,-0.062162
0.25915,0.45903,-0.43958,-0.16546,0.24397,0.18464,0.141,0.15607
-0.084185,-0.20192,1.0618,0.55029,0.03913,-0.0235,-0.039065,-0.054389
0.049001,0.37342,0.66875,-0.45092,0.036388,0.041567,-0.016602,0.024286
-0.16371,-0.0057079,-0.27343,-0.13955,-0.25743,-0.16012,-0.081364,-0.10107
0.12751,0.091023,0.091983,0.12416,0.039825,0.058216,0.02399,0.053093
-0.14874,-0.3141,-0.4915,-0.058092,0.005999,-0.022668,-0.0054117,-0.045049
0.093262,0.36446,0.58416,-0.021283,0.024,0.018917,0.033637,0.018347
-0.028667,-0.33919,-0.63652,-0.029552,0.20357,0.10493,0.024237,0.048093
-0.075746,-0.31522,-0.13939,0.70781,-0.15793,-0.1159,-0.017589,-0.049158
0.016145,-0.056449,0.18583,-0.76864,-0.13029,-0.057195,-0.028921,-0.038452
0.22515,0.31068,0.10124,0.55018,0.28694,0.1956,0.092183,0.15897
0.0056045,0.7753,0.028846,-0.2019,-0.085575,-0.052344,-0.021153,-0.042242
-0.36847,-0.91111,-0.42636,-0.68802,-0.23975,-0.15214,-0.1265,-0.16508
0.29815,0.23154,0.85874,0.97554,0.27775,0.1544,0.096629,0.12667
-0.042138,-0.52828,-0.82726,-0.56186,-0.11103,-0.093383,-0.039128,-0.026278
-0.077973,-0.12104,0.85936,-0.2682,-0.15599,-0.020328,-0.018079,-0.030259
0.072213,0.60263,-0.12885,0.4507,0.13507,0.053306,0.042587,0.067647
0.24334,0.38578,-1.028,0.31355,0.18394,0.11183,0.07247,0.10313
-0.4635,0.07248,0.6038,-0.46145,-0.23617,-0.1418,-0.10047,-0.18184
0.037926,-0.52402,0.45663,0.60921,0.13229,0.011006,0.023574,0.0095755
0.24092,0.52956,-0.49238,-0.43623,0.093815,0.085718,0.038157,0.060328
0.022309,0.39934,0.052356,-0.24656,-0.20316,-0.034869,0.0056798,-0.037026
-0.27196,-0.78528,0.10353,-0.0010699,-0.0552,-0.12405,-0.1129,-0.055405
0.165,-0.49073,0.094494,0.18419,0.17897,0.14661,0.057592,0.083862
0.0067378,-0.11295,-0.049957,-0.31418,-0.16378,-0.097484,0.0096039,0.029642
-0.23035,-0.17219,-0.55366,0.083429,-0.051195,-0.035615,-0.037809,-0.09289
0.22673,0.12342,0.59423,0.42468,0.23634,0.11375,0.064037,0.059848
0.0091421,1.0002,-0.35242,-0.0094785,-0.16003,-0.063384,-0.028503,-0.036094
0.47358,-0.016854,0.93951,0.62322,0.36124,0.22182,0.098557,0.181
-0.35186,0.24409,-0.39063,-0.75763,-0.20817,-0.14046,-0.078478,-0.09444
-0.26701,-0.69727,-0.98312,-0.59205,-0.25984,-0.13522,-0.059986,-0.12886
-0.14894,-0.33413,0.22649,0.41472,-0.037149,-0.067765,-0.026082,-0.039991
0.34535,0.30368,0.73356,0.19878,0.30242,0.20981,0.1166,0.13293
-0.18963,-0.052784,-0.6221,-0.060805,-0.015717,-0.045033,-0.038469,-0.039556
0.14653,0.72248,0.58526,-0.45021,0.0075546,0.066008,0.032037,0.060291
-0.026319,0.02703,-0.09421,0.53029,0.035736,0.011765,0.0078748,-0.0042873
-0.18985,-0.71829,-0.33785,-0.11225,-0.30634,-0.22311,-0.1107,-0.13097
0.14237,-0.43502,0.60573,0.11302,0.044039,0.049293,0.012653,0.040229
0.36971,0.44982,-0.3019,0.66537,0.22805,0.14976,0.089348,0.15026
-0.29726,-0.40222,-0.79487,-0.68299,-0.10513,-0.10099,-0.075479,-0.12902
-0.024129,0.23512,0.60349,0.1851,0.068741,0.039517,0.018492,0.014523
0.077488,0.69883,0.5887,-0.57207,0.086347,0.094779,0.082306,0.1115
-0.05725,-0.048641,-0.69058,-0.29391,-0.24698,-0.16189,-0.079483,-0.12005
0.030773,-0.42787,-0.21868,0.26022,0.13178,0.089563,0.040601,0.045762
-0.04989,0.51511,0.33997,0.34751,0.15275,0.12229,0.067102,0.030431
-0.31447,-0.59408,0.1952,0.34962,-0.34774,-0.27486,-0.14887,-0.17388
0.38698,-0.17661,-0.053385,-0.16626,0.14617,0.11683,0.079849,0.15194
-0.044842,0.23745,0.18514,0.26245,0.033023,-0.022875,-0.051578,-0.038297
-0.24814,-0.22512,-0.7333,-0.81145,-0.1249,-0.076574,-0.082167,-0.11097
0.26345,0.40665,0.47678,-0.16662,0.14838,0.15121,0.11326,0.13779
0.076973,-0.01333,-0.086341,0.54064,0.08621,0.043332,0.042715,0.03658
0.090817,0.13412,0.66096,0.76204,-0.0080613,-0.056649,0.0032236,0.015144
-0.2196,-0.23562,-0.83694,-0.42562,-0.15153,-0.063185,-0.044271,-0.075326
-0.020239,-0.57527,-0.087125,-0.35789,0.1467,0.077894,0.025114,0.014455
0.0069968,0.84116,0.26441,0.023432,-0.21572,-0.094855,-0.054437,-0.044524
0.0085757,-0.0112,0.22152,-0.68038,0.12051,0.10574,0.045035,0.059385
0.05349,-0.2672,0.37473,0.6751,0.046818,-5.6267e-05,0.0031577,0.020881
0.10225,0.33649,-0.91207,0.22205,0.025702,-0.044712,-0.0080848,-0.011836
-0.4384,-0.84291,-0.57302,-0.7649,-0.28452,-0.13694,-0.1056,-0.15576
0.1671,0.33355,0.62752,0.55138,0.063624,0.028829,0.039149,0.058416
0.20155,0.4039,0.68027,0.029624,0.18914,0.14881,0.09846,0.10026
-0.099214,-0.4134,0.29956,0.04091,-0.071016,-0.080998,-0.052318,-0.06844
0.086124,0.25702,0.0021776,0.26493,0.1581,0.089711,0.040117,0.060841
0.13291,0.46304,-0.58667,0.19016,0.015976,0.043569,0.031991,0.058843
-0.17011,-0.37972,-0.31746,-0.60384,-0.093127,-0.095036,-0.0769,-0.089968
0.098175,-0.44894,-0.077123,-0.4215,-0.09347,-0.0066795,0.0022034,0.028258
-0.23505,0.0857,-0.02227,0.62074,0.012728,-0.036053,-0.004446,-0.055639
-0.14716,-0.43783,-0.055482,-0.11504,-0.033887,-0.019856,-0.034585,-0.045274
0.36139,0.64586,0.75218,0.26738,0.11775,0.11182,0.083547,0.13703
0.0092228,0.64943,-0.61359,-0.47318,-0.055142,-0.015983,-0.0094196,-0.032504
-0.30499,-0.59241,0.66139,-0.082851,-0.19148,-0.1606,-0.10245,-0.13219
0.30976,0.19134,-0.52398,0.030184,0.24239,0.14753,0.10148,0.1348
-0.036728,-0.08043,0.023564,0.31003,-0.086882,-0.020308,0.00093575,-0.0049306
-0.094139,-0.16829,0.17362,0.24698,0.088617,-0.0069074,-0.021204,-0.027831
-0.057607,-0.15993,-0.32491,-0.57681,-0.073379,-0.01468,0.0038114,-0.011905
0.096322,-0.18845,0.32053,0.1368,-0.064679,-0.035472,-0.025658,0.011704
0.062866,0.20822,0.447,0.5346,0.20764,0.12592,0.030887,0.035262
-0.15811,0.078981,-0.1878,-0.075135,-0.08644,-0.062313,-0.022014,-0.042743
0.07391,-0.11305,-0.88858,-0.5889,-0.019862,0.00052512,0.0030103,-0.019155
0.040195,0.51647,0.62712,0.58082,0.052953,0.016524,0.019934,0.027918
-0.063762,-0.32111,-0.85607,-0.79786,-0.11273,-0.062175,-0.025958,-0.0030688
0.11397,0.51402,1.1521,0.71709,0.12195,0.084003,0.037245,0.036337
-0.043282,-0.26887,-0.074521,-0.11715,-0.13427,-0.068749,-0.024742,-0.010102
-0.27711,-0.67944,-0.6426,-0.45472,-0.09954,-0.098508,-0.063361,-0.11113
0.27236,0.33555,0.89733,0.4744,0.16527,0.12794,0.085564,0.12387
-0.050878,-0.083853,-0.42613,-0.58971,-0.071898,-0.013781,-0.0075808,-0.016063
-0.11417,-0.19514,-0.59965,0.57755,0.04301,-0.015203,-0.038104,-0.062254
0.26931,0.20575,0.26471,-0.22229,0.027751,0.05389,0.048601,0.071143
-0.10469,0.44026,0.16314,0.052364,0.0086849,-0.032782,-0.021054,-0.045673
0.090555,0.056216,0.11341,0.42474,0.025237,-0.0017847,-0.0050675,0.032501
-0.091636,0.10898,-0.12699,-0.22523,0.068982,0.060714,0.018266,0.024352
-0.074146,-0.45559,0.26708,-0.011811,-0.017678,-0.017511,-0.0058479,-0.031042
0.025468,-0.19923,-0.20974,-0.31587,-0.080189,-0.080542,-0.030538,-0.016379
-0.23772,-0.16758,-0.23627,-0.088299,-0.17485,-0.066069,-0.032258,-0.07988
0.19984,0.055139,0.6645,0.27614,0.11125,0.080603,0.04388,0.075605
0.1209,0.30681,-0.24808,0.18188,0.058827,0.047181,0.02625,0.044099
-0.082339,0.29223,-0.21217,0.059469,-0.066323,-0.048809,-0.022397,-0.049202
0.11491,-0.073575,0.24861,-0.28291,0.13491,0.097705,0.054394,0.077018
0.065088,0.053098,-0.13523,0.011773,0.022848,-0.012943,-0.0088621,0.00080264
-0.294,-0.32097,-0.78567,-0.76104,-0.30782,-0.1696,-0.10272,-0.12962
-0.017272,-0.47101,0.23728,0.2639,0.1045,0.034035,0.0071844,0.0057656
0.11335,0.46019,0.13209,0.69209,0.16626,0.082202,0.039545,0.062886
0.065651,0.41581,0.84567,0.040039,0.095884,0.06053,0.041102,0.041438
0.15107,0.21443,-0.12397,0.49273,-0.021464,-0.00017319,0.042911,0.034928
-0.16267,-0.58252,-0.96341,-0.33803,-0.12426,-0.037902,-0.049022,-0.073977
-0.10291,-0.6472,0.83868,-0.34968,-0.21343,-0.15466,-0.10995,-0.10562
-0.037293,0.30991,0.26581,-0.2283,0.13237,0.086757,0.070813,0.072896
0.13565,0.61776,-0.021544,0.15471,0.23345,0.1394,0.071227,0.094552
-0.13076,-0.03536,-0.37118,-0.10766,-0.27677,-0.16844,-0.069748,-0.095137
0.15597,0.014857,-0.66822,0.08903,0.1419,0.093267,0.046322,0.058703
0.066452,-0.2556,0.22909,-0.13227,-0.024711,-0.028097,-0.033595,-0.0063043
-0.20388,-0.43414,0.0057875,-0.39733,-0.10325,-0.063246,-0.043698,-0.071362
0.10272,0.62552,0.093101,0.33917,0.087244,0.082067,0.047503,0.066637
-0.013996,0.0068064,0.25329,0.4636,0.00064856,-0.029294,-0.0019071,-0.022049
0.10198,-0.30048,-0.33591,0.01451,0.051147,0.055974,0.042712,0.045343
-0.033838,0.36597,0.62042,0.15898,0.05848,-0.0058971,-0.021536,-0.01243
-0.12432,-0.049148,-0.052554,0.24827,-0.072263,-0.043235,-0.038236,-0.054655
-0.028178,-0.43566,-0.030946,-0.31299,-0.053552,-0.048555,-0.022928,-0.010832
0.083838,0.19312,0.016062,-0.22059,0.0036047,0.0168,0.032191,0.0099194
-0.036842,-0.13579,0.19264,-0.38553,-0.019448,0.043036,0.025451,0.023498
-0.013711,-0.082251,-0.71659,-0.43259,-0.037864,-0.024933,-0.019915,-0.0011251
0.076404,0.19383,-0.35557,0.16715,0.096202,0.054745,0.028624,0.037716
0.038994,0.50824,0.046746,0.57956,0.08582,0.055276,0.022318,0.022791
-0.047695,-0.36366,0.19095,-0.23833,-0.099811,-0.10155,-0.054751,-0.046079
-0.10618,-0.13244,0.51045,0.52953,-0.06919,-0.064083,-0.046547,-0.075417
0.17469,0.23219,0.19351,-0.014286,0.030438,-0.0039246,0.031209,0.075103
-0.12881,-0.41994,-0.19254,-0.10708,0.028564,0.063703,0.0223,-0.024476
0.16094,0.47181,0.3847,0.37662,0.098449,0.08458,0.044063,0.063155
-0.075222,0.03894,0.08791,-0.63693,-0.086785,-0.026785,-0.012648,-0.029285
-0.13573,-0.39857,-0.7882,-0.47435,-0.065237,-0.051292,-0.069438,-0.07523
0.12696,-0.44148,0.13822,0.20807,0.023021,-0.027783,0.0067756,0.026961
-0.17007,0.77126,-0.70909,0.33965,-0.032884,-0.01087,0.028728,0.019597
0.083208,-0.32083,0.5269,0.14719,0.10252,0.038459,-0.0034062,0.019997
0.17712,0.25267,0.49568,0.19472,0.1236,0.11224,0.082349,0.082967
-0.1523,-0.077956,-0.7055,-0.27225,-0.22098,-0.14132,-0.096786,-0.1117
0.19051,0.053536,0.52161,-0.12341,0.090665,0.058807,0.060734,0.076726
-0.22244,-0.16019,-0.49083,-0.42163,0.0023499,-0.045449,-0.070133,-0.11725
-0.069464,0.096983,1.1504,0.42054,-0.08096,-0.024618,-0.02069,-0.0138
0.1425,0.1245,-0.39765,0.14826,0.027341,0.042949,0.060544,0.090325
-0.1332,-0.45825,-0.018429,-0.047078,-0.071615,-0.053948,-0.060938,-0.086097
0.24352,0.38257,-0.5412,0.21369,0.13782,0.07498,0.067765,0.12086
-0.017621,0.096049,0.38496,-0.25302,0.038875,0.085564,0.055694,0.015543
-0.14498,-0.14036,-0.37214,-0.30334,-0.094315,-0.10859,-0.066319,-0.066638
0.046861,-0.061003,-0.58392,0.39314,0.012582,-0.023533,-0.025283,-0.0013127
-0.030063,-0.23375,0.70561,-0.33429,-0.006627,0.05924,0.037802,0.0077969
0.091396,0.26794,-0.68835,0.32684,-0.010294,-0.047746,-0.025708,-0.0084789
-0.089637,0.18487,1.0636,-0.10903,0.0025598,0.030889,0.0186,0.0044292
0.090944,-0.17097,0.76538,0.29346,0.056234,-0.008796,-0.024271,-0.00010801
-0.084621,-0.15943,-0.46106,-0.17932,0.0029699,-0.0095138,-0.0053195,-0.013682
-0.1458,-0.25868,-0.72943,-0.55363,-0.12555,-0.063835,0.005869,-0.043255
0.081547,0.37148,-0.21593,0.62908,0.030192,0.024665,-0.0055691,0.021497
0.021599,-0.017406,0.60008,-0.15617,0.094999,0.045871,0.0078895,0.025181
0.14502,0.4952,-0.4926,0.058979,-0.056647,-0.023316,0.0075846,0.023075
0.038902,-0.23532,-0.40546,0.056658,0.1057,0.12154,0.032648,0.046633
-0.10902,-0.15233,0.28809,-0.21578,-0.083041,-0.067256,-0.0031405,-0.037167
-0.072867,-0.14523,0.25775,-0.29448,-0.1083,-0.044086,-0.030047,-0.049195
0.1226,0.20952,0.35227,0.15194,0.083611,0.041179,0.037112,0.056665
0.038229,-0.37411,0.30909,0.32969,0.062264,-0.023726,-0.036814,-0.017251
-0.13226,-0.18027,-0.52752,0.163,0.030383,0.025868,0.0053467,-0.013775
-0.077573,0.33689,-0.018884,-0.081153,-0.097941,-0.10732,-0.047732,-0.066108
0.092252,0.34179,0.17522,-0.035318,0.060582,0.053485,0.046054,0.052221
-0.16975,-0.50825,-0.24606,-0.20789,-0.16506,-0.069125,-0.025587,-0.049245
0.28517,0.35044,0.45631,-0.23277,0.085603,0.10404,0.03464,0.10638
0.012229,0.20779,-1.0864,0.21682,0.016853,0.011616,-0.014933,-0.011796
-0.19124,-0.45124,0.03251,0.07698,0.05933,0.029589,0.013687,-0.0050517
-0.051575,0.35835,0.51817,-0.052219,-0.052021,-0.052334,-0.011948,-0.060747
0.23585,-0.1278,0.54538,0.01504,0.081306,0.0082621,0.0020888,0.024224
0.076986,0.29592,0.21077,0.16741,0.060446,0.015904,0.032336,0.038779
-0.20827,-0.72582,-0.28046,-0.26923,-0.2326,-0.068925,-0.030766,-0.04854
-0.034227,0.015667,-0.55259,0.077762,0.076172,0.050051,1.7301e-05,0.0277
0.013232,-0.051323,-0.30175,0.47187,0.056097,0.0050518,0.022865,0.0095913
0.044024,0.25134,-0.47567,-0.33835,-0.051385,-0.0012574,-0.032698,-0.016871
-0.0033527,0.030015,0.92948,-0.18138,0.026775,-0.031616,-0.018242,-0.020197
0.067745,0.71656,0.90075,-0.17333,0.056241,0.031173,0.035138,0.039083
-0.18658,-0.31516,-0.20028,0.19616,-0.087532,-0.047034,-0.028521,-0.072889
0.00048284,-0.5852,0.05115,0.16519,0.010306,0.0075778,0.017687,0.027224
0.20772,0.3602,-0.52746,0.050558,0.038229,0.054801,-0.021243,0.03515
-0.088394,-0.13615,-0.94348,-0.26077,-0.12779,-0.061269,0.026742,-0.01766
0.056521,0.19014,0.049473,0.085895,0.12237,0.073614,0.021012,0.024957
0.07049,-0.23151,0.13054,-0.23613,0.015663,0.053176,0.047298,0.053239
-0.032999,0.19438,0.28503,0.18645,-0.002744,-0.14625,-0.09008,-0.066266
-0.17024,-0.37935,0.48187,0.24904,0.019633,0.037441,0.0068574,-0.04528
-0.08536,0.28889,0.53096,-0.022029,-0.11358,-0.02905,-0.021716,-0.0017902
0.18127,-0.11135,-0.54309,0.20323,0.11196,0.036578,0.042582,0.079139
-0.066147,0.025633,0.53799,-0.01059,-0.0081061,0.038552,-0.0035953,-0.060779
0.21183,0.50223,-0.41942,-0.3864,0.033069,0.046843,0.019381,0.086076
-0.13206,-0.37076,-0.89938,-0.14438,-0.13996,-0.10277,-0.036823,-0.073928
-0.13508,-0.071789,0.7708,-0.06394,0.082375,0.035084,-0.015729,-0.032563
0.11902,-0.41601,-0.79672,-0.015158,-0.056968,-0.00019868,0.043908,0.062385
-0.078457,0.23321,0.11449,0.079317,-0.048934,-0.051828,-0.021653,-0.046098
0.040115,0.19831,0.84071,0.21148,0.092275,0.037127,0.03006,0.049055
-0.00039113,0.50303,0.024935,-0.026246,-0.0070536,-0.060777,-0.058569,-0.057691
0.027239,-0.31487,-0.56364,-0.075231,-0.0023059,0.045614,0.032859,0.032596
0.083721,-0.054696,0.86802,0.4791,0.067707,0.059666,0.015256,0.038869
-0.011664,-0.16457,-0.70745,0.016631,0.061967,0.028136,0.0057087,-0.031162
-0.1199,-0.42037,-0.075612,-0.22611,-0.10638,-0.025996,0.019713,0.0096348
0.13217,0.19978,-0.24122,-0.33431,-0.05569,-0.048724,-0.052196,0.0044731
-0.10875,0.32829,0.29823,-0.072722,0.08008,0.013913,0.016546,0.007459
-0.015799,0.37213,0.35715,-0.087472,-0.074875,-0.033966,-0.039559,-0.044407
-0.034905,-0.44844,-0.016413,0.3605,0.033831,0.041763,0.0062897,-0.010823
0.068388,0.14978,-0.18153,0.25513,-0.062294,-0.039991,0.021584,0.0065483
-0.064627,-0.42503,-0.38882,-0.46403,0.012476,0.026028,0.022241,0.0078125
0.067086,-0.26518,0.13362,0.027238,0.056014,0.021947,0.024089,0.024469
0.081845,0.73912,-0.22614,-0.070843,-0.008777,-0.12152,-0.058751,-0.0056805
-0.042818,0.11818,0.97378,0.27009,0.1158,0.15126,0.078298,0.042631
0.068719,-0.17744,-0.1302,0.4682,0.063029,-0.0262,-0.088468,-0.025747
-0.30212,-0.4642,-0.56612,-0.81768,-0.37802,-0.083349,0.01088,-0.085793
0.13344,0.3467,-0.057249,-0.008649,0.12035,0.096728,0.024326,0.049869
0.093459,0.17979,0.017486,0.40207,0.080805,-0.025824,-0.025168,0.029429
0.037912,-0.13335,-0.16505,0.029134,0.0022837,0.016538,0.057256,0.032245
0.075119,0.25611,0.36247,-0.06839,0.20395,0.027073,-0.041301,-0.020158
-0.077091,-0.16775,0.57681,0.26218,-0.1668,-0.12846,-0.032084,-0.042149
-0.1771,-0.51972,-0.17638,-0.47423,-0.032601,0.10346,0.069101,-0.0026751
0.0094092,-0.083964,-0.6904,0.041118,-0.057775,0.034581,0.027847,0.012274
0.053205,0.20074,0.024166,0.011502,-0.070152,-0.20248,-0.14008,-0.036264
0.064539,0.2788,-0.13607,-0.14719,0.095137,0.15828,0.12033,0.070686
-0.07272,0.10916,0.26464,0.23214,0.0095364,-0.038549,-0.04983,-0.033771
0.025211,-0.10157,-0.12022,-0.096961,-0.013256,-0.0027207,-0.017146,-0.005576
0.21836,0.31114,0.44674,0.36868,0.1762,0.087385,0.04714,0.085236
-0.14932,-0.2256,-0.18271,-0.35325,-0.062095,-0.040413,-0.020431,-0.065805
-0.18747,-0.23235,0.39502,0.081524,-0.16547,-0.080383,-0.0084414,-0.067921
0.20486,0.23003,-0.2547,0.08586,0.13145,0.06195,-0.018165,0.047728
0.026883,0.038267,0.096413,0.063368,-0.062462,-0.01931,0.044201,0.023355
-0.15968,-0.4921,-0.33088,-0.28641,-0.05255,0.011753,-0.016846,-0.023888
0.089901,0.15195,-0.58759,0.32959,0.12932,-0.0014605,0.024859,0.054342
-0.05276,0.15785,0.51219,-0.44357,-0.079819,0.026389,0.004725,-0.054604
0.006189,0.10611,0.63374,0.50902,0.015081,0.032075,-0.0074928,0.024096
0.13438,0.071269,-0.49276,-0.25099,0.062441,-0.063258,-0.066964,-0.014422
-0.15185,-0.12887,-0.49502,-0.23854,-0.12504,-0.041478,0.029115,-0.021865
0.070178,-0.17637,0.48381,0.048378,0.062358,-0.028017,-0.031872,0.032932
-0.097179,-0.066615,-0.33331,0.10486,-0.023375,0.094089,0.070465,0.0093354
0.13572,0.33623,0.71185,0.3169,0.10252,0.082616,0.055109,0.032411
-0.059008,-0.092053,-0.069026,0.046778,-0.067521,-0.10923,-0.10107,-0.085214
-0.048752,-0.017164,-0.32802,-0.42209,-0.080329,-0.075081,-0.014937,-0.0074534
0.0017579,-0.091486,0.093133,0.012997,0.071707,0.04452,-0.0065792,0.0080114
0.060206,0.18717,-0.28104,-0.030715,-0.010288,0.022992,0.041287,0.039359
0.078411,0.1484,0.55106,0.25053,0.079317,0.086749,0.034829,0.031844
-0.062105,-0.45581,-0.34447,-0.043367,-0.089851,-0.022279,0.020658,-0.01471
0.1455,0.7689,0.22659,0.093357,0.13003,0.015932,-0.025049,0.040065
-0.221,-0.71002,-0.53785,-0.02094,-0.09737,-0.064459,-0.016782,-0.061898
-0.0674,-0.14827,0.24342,0.042012,-0.076772,-0.13067,-0.10334,-0.047323
0.03728,0.061167,-0.19417,-0.43706,-0.010941,0.098774,0.082269,0.029112
-0.0065668,0.32475,0.15939,0.089213,0.077405,0.0384,0.016623,0.0035541
