0.0053988,0.0090583,0.080752,0.0053403,0.0018133,0.026732,0.098621,-0.0091838
0.021184,0.0099402,0.21911,0.0079815,0.018355,-0.014473,0.005426,0.014001
-0.0094731,0.020028,-0.024979,0.074851,-0.011398,0.0065572,-0.00040054,-0.009483
-0.0085013,-0.046927,-0.54044,-0.13029,-0.017406,0.0041344,0.010486,0.0062768
0.00056009,-0.0038368,0.55652,0.063894,0.007812,0.0097469,-0.032777,0.0065397
-0.0058626,-0.030853,-0.22647,0.023902,0.0092516,-0.0076551,-0.076145,-0.0087622
0.003325,0.043418,-0.015986,-0.079195,0.0022934,-0.001053,0.051655,-0.00063173
0.0045254,0.0075722,0.50544,0.13663,-0.013187,-0.0016188,-0.0092138,-0.0081809
0.013213,0.048684,-0.16579,-0.016768,-0.013736,-0.0093422,0.045685,0.0076258
-0.017612,-0.052345,-0.32227,0.01497,0.0086085,-0.00083993,0.013211,-0.0079045
-0.0021022,-0.014481,0.24437,-0.11184,0.007219,0.00034006,-0.051738,0.0077369
0.005019,-0.0018265,-0.24013,-0.045137,0.013639,0.048731,-0.00031466,0.0076881
0.011588,0.056117,-0.01655,0.02064,-0.010914,-0.02772,0.043038,0.0075838
-0.0057448,-0.058976,-0.17512,-0.015038,0.0040811,-0.018259,-0.02261,-0.01601
-0.015577,0.020719,0.00020087,0.051896,-0.035023,-0.016798,-0.040388,-0.0084047
-0.0020819,-0.032134,0.19478,0.026714,0.020185,-0.0078399,0.021467,0.014775
0.019348,0.033294,0.17944,0.12822,0.036749,0.024153,-0.016429,-0.0089646
0.0098883,0.022431,0.39549,-0.0034561,0.014438,0.071328,0.04907,0.0063243
-0.014626,-0.095458,-0.34272,-0.1583,-0.039199,-0.053808,0.022356,-0.0018469
-0.030603,0.062608,-0.15253,-0.017071,-0.030642,-0.030879,-0.026857,-0.025659
0.032343,0.012017,0.03454,0.083386,0.032147,0.030867,-0.013447,0.052073
0.010124,0.033375,-0.23759,-0.068354,-0.030549,-0.024628,-0.0086338,-0.026476
-0.019267,-0.022705,-0.12874,0.0043558,0.023538,0.013807,0.0023572,0.0043006
-0.0013746,0.014561,0.3808,-0.0025094,0.0070717,-0.0098384,0.01107,-0.0040474
0.016625,-0.0042648,-0.0016868,0.029335,0.0061845,-0.009442,-0.0062539,-0.0046414
-0.0046643,0.029507,0.064141,-0.086323,-0.033635,-0.00055392,0.020763,0.0025479
0.0047576,-0.040574,0.051865,0.097024,0.028356,0.032374,-0.071475,0.0019516
0.0055896,-0.15165,0.037277,0.11928,0.028142,0.03442,0.069404,-0.0063546
-0.049163,0.040845,-0.53573,-0.1911,-0.018674,-0.033837,0.053822,0.0011473
0.043651,0.11615,0.55129,0.18123,-0.010588,0.0068828,-0.031156,0.0088986
-0.0048633,-0.026221,-0.42728,-0.20979,-0.017974,-0.023464,-0.34076,0.0013094
-0.014732,0.020761,0.1947,0.087849,-0.0096234,-0.0079079,0.39137,-0.0060029
-0.009045,-0.0082757,-0.17358,0.033877,0.014454,-0.016781,-0.061026,-0.0052772
0.020359,0.081644,0.26819,-0.04469,-0.023859,-0.0030203,0.036193,0.0033994
0.0034491,0.00060523,0.070399,0.11697,0.070754,0.041536,0.033895,0.01211
0.018513,-0.018175,0.041005,-0.12995,0.0013973,0.0079455,-0.11583,0.020758
-0.035994,-0.24152,-0.020321,-0.043147,-0.060109,-0.0096184,-0.015668,-0.04104
-0.0039491,0.087407,-0.39263,-0.036161,0.011162,-0.010827,-0.0025627,-0.0092444
0.012845,0.077391,0.22245,0.11836,0.019825,-0.0033132,0.00095205,-0.0010169
0.045341,0.10331,-0.32289,0.038474,0.02053,0.0051182,0.080589,0.022767
-0.023938,-0.084528,0.36157,-0.048546,-0.057026,0.022129,-0.060319,0.007495
-0.031138,-0.032319,0.094436,0.076501,0.013782,-0.0072395,-0.030609,0.0079183
0.0080379,-0.004786,-0.38516,-0.086275,-0.0091388,-0.020819,0.092303,-0.014993
-0.015707,0.014701,0.50444,0.03324,0.022742,-0.011131,-0.14403,-0.01437
0.015029,0.042741,-0.030928,-0.073184,0.0079168,0.0059217,-0.020373,0.0097526
-0.0088366,-0.068277,-0.25421,-0.015438,-0.0067577,-0.0010969,0.18219,0.0026322
0.0067371,-0.0287,0.39277,0.11222,0.017686,0.06149,0.18226,0.026714
0.015081,0.052415,-0.35825,0.012477,0.0029677,-0.032841,-0.1768,-0.011793
-0.0071848,0.15951,-0.57789,-0.104,-0.027652,-0.041762,-0.13759,-0.066037
0.02576,-0.074706,0.71256,0.098605,0.027239,0.019314,-0.044136,0.051475
-0.0035374,-0.001969,-0.36541,-0.1922,-0.090259,-0.029059,0.064514,-0.026449
-0.0094953,-0.1771,0.24079,0.11744,0.065163,0.024275,-0.022277,0.043921
-0.015906,-0.16265,0.029391,0.11362,0.0091946,0.038845,0.063158,0.0047287
-0.030855,0.3226,0.044868,-0.11758,-0.0080542,-0.0087303,0.016589,-0.011276
0.031472,-0.010532,0.11146,0.095806,0.044787,0.014324,0.05702,0.027104
-0.0085705,-0.060844,-0.43293,-0.08989,-0.058737,-0.024906,-0.13594,-0.059832
0.013278,0.17099,0.37259,-0.041766,0.0095815,-0.017163,0.023235,-0.022024
0.011382,-0.089443,0.096544,0.076271,0.023244,-0.0094014,0.4636,0.03129
-0.0061057,-0.15579,-0.24067,-0.0011392,-0.025507,-0.017267,-0.46396,0.029999
-0.01543,0.12707,0.013541,-0.039237,-0.027241,0.021781,-0.23651,-0.010058
-0.00073594,-0.085511,-0.089831,0.056222,0.049358,0.029693,0.20827,-0.002763
0.014647,-0.012821,-0.13228,-0.026702,0.0090482,0.014354,-0.0045392,-0.026146
-0.016195,0.087227,0.14113,0.025051,0.0081588,-0.0085738,0.14884,0.013517
0.00030997,-0.035057,-0.076682,-0.10055,-0.046986,-0.03129,0.059412,0.014514
0.024813,0.050655,0.43883,-0.028241,-0.015701,0.00083683,-0.17098,2.582e-05
0.0022888,-0.06884,-0.4078,0.054473,0.00047611,0.009591,0.028109,0.016613
0.026172,0.060544,0.4837,0.18629,0.024949,-0.036383,0.055141,-0.0063374
-0.036564,-0.036793,-0.15292,0.022769,0.041983,0.058116,0.035115,-0.022164
-0.037542,0.054092,-0.57499,-0.2964,-0.034542,-0.011704,-0.031867,0.0081371
-0.023514,-0.15044,0.39911,0.11057,0.037333,-0.011557,-0.20801,-0.024687
0.044857,0.10016,-0.047404,-0.10098,-0.00042408,0.019437,0.077485,-0.018777
0.019492,0.064014,0.059239,0.30269,-0.069832,-0.028104,0.10648,0.049709
-0.0055148,-0.10253,0.029786,-0.14744,-0.006851,-0.0056881,0.0045197,-0.01411
0.016963,0.07697,-0.23099,-0.083996,0.032386,0.039936,-0.087422,0.016677
-0.014541,0.0084417,0.087285,-0.037681,-0.037832,-0.039482,0.15876,-0.01399
-0.014157,-0.12885,-0.18327,0.031395,0.087448,0.029717,-0.10893,0.018869
0.033539,0.094286,0.34163,0.10852,-0.036856,-0.041309,0.10876,-0.017786
-0.027971,-0.010124,-0.17561,-0.039913,-0.019999,-0.0023838,-0.15788,0.016273
-0.011454,-0.036259,0.3227,-0.014988,0.04424,0.052826,0.019903,-0.012249
0.004777,0.093673,0.00091763,-0.058864,-0.063064,-0.031958,0.10231,-0.03352
0.028463,-0.026786,-0.15787,0.14054,0.071866,0.055617,-0.090707,0.045827
-0.026272,-0.030508,0.12614,-0.0035037,-0.027866,-0.036247,0.019006,-0.0087991
-0.010817,-0.042407,-0.20959,-0.031044,-0.026629,-0.0031373,0.0021855,-0.0098998
-0.0030619,0.023665,-0.24833,-0.154,-0.0027611,-0.040619,-0.10924,0.0036787
0.020661,-0.019511,0.16459,0.080009,0.035845,0.022996,0.20894,0.016716
0.013631,0.078326,-0.0077856,0.084636,-0.043557,-0.046759,-0.10514,-0.040576
-0.016309,-0.049847,-0.1899,-0.06977,0.0092217,0.10167,-0.066749,-0.011399
0.0088458,-0.044665,0.54743,-0.046838,0.02257,-0.0082178,0.12881,0.034397
0.018529,0.13273,-0.48309,0.052607,0.028022,-0.032577,0.012392,-0.0044802
-0.034475,-0.064915,0.038435,-0.043964,-0.067922,-0.025985,-0.0025595,0.0047881
0.0057301,-0.067764,0.76621,0.21908,0.070848,0.011662,-0.073006,0.038482
0.021663,0.19402,-0.49155,-0.2121,-0.055584,-0.0054927,0.034859,-0.021111
-0.049341,-0.17054,-0.038315,-0.024268,-0.017539,0.00072522,-0.054211,-0.026226
0.042725,-0.060084,0.14862,0.23623,0.083338,0.038137,-0.074424,0.038093
0.0011704,0.056655,-0.77665,-0.24272,-0.034327,-0.010469,0.084172,-0.0318
-0.03304,-0.023296,0.62822,-0.0077871,-0.026916,0.026751,0.07868,-0.017401
0.018658,0.05183,-0.085382,0.12856,0.019531,-0.029901,0.035045,0.034511
-0.0073309,0.05564,-0.061418,-0.091696,-0.027853,-0.055372,-0.23341,-0.03969
-0.0012246,-0.011789,0.15791,0.041949,0.002812,0.012964,0.14099,-0.036187
0.02163,0.12299,0.14017,0.020949,0.025643,0.042488,0.017713,0.09271
0.0066386,-0.18842,-0.18713,-0.022867,0.0016614,-0.021261,0.0057138,-0.058485
-0.02287,-0.063088,0.3388,0.042163,0.0090854,0.032861,0.033879,0.049855
0.0031218,0.022772,-0.47762,0.050807,0.0011258,-0.0059377,-0.031646,0.011723
0.0060588,-0.031882,0.0050838,-0.029185,-0.006521,0.0030168,0.026837,-0.0089321
-0.0067369,0.10952,-0.18011,-0.12815,-0.060678,-0.041891,-0.13524,-0.059435
0.018956,0.096052,-0.30452,-0.050967,0.041807,0.015444,0.091116,0.039211
-0.018787,-0.024922,0.80558,0.069894,-0.019392,-0.0048837,-0.012694,-0.018486
0.012658,-0.065608,0.18248,0.13364,0.05254,0.014051,-0.0085008,0.0088813
-0.035134,-0.064997,0.27135,0.00070642,0.015297,0.025096,-0.0046264,0.12069
0.0021193,-0.062284,-0.80403,-0.11678,-0.021904,-0.0032611,0.0079485,-0.19905
0.062306,0.082856,-0.17831,-0.0067438,-0.043613,-0.039985,-0.055618,0.080859
-0.057215,0.018435,0.21702,0.050467,0.012518,0.00071732,-0.014905,-0.12528
0.019052,0.1502,0.19326,-0.04611,-0.017678,-0.0062191,0.16935,0.18302
-0.013168,-0.053632,0.031478,0.10998,0.061069,0.040783,0.12176,0.014225
-0.020814,-0.077871,-0.22061,-0.11427,-0.055917,-0.037888,-0.18982,-0.02159
0.019581,-0.10251,0.0012349,0.069632,0.029851,0.023513,-0.079055,-0.064394
0.068751,-0.026103,-0.050801,-0.042257,0.0059304,0.02982,-0.062816,-0.08239
0.0091048,0.21385,0.15671,0.033465,0.0051917,-0.003173,0.10785,0.12012
-0.08176,-0.2342,0.17233,0.04583,-0.019197,-0.051833,0.0025572,-0.019206
-0.0012611,0.13743,-0.16708,-0.1388,-0.0047072,0.0090585,0.050671,0.030825
-0.062355,0.023687,-0.017745,-0.0053494,-0.037254,-0.023396,-0.005539,-0.05042
0.10186,0.025482,0.34625,0.15687,0.055055,0.038508,-0.032849,-0.0056579
0.014756,0.11858,-0.37299,-0.073898,0.022251,0.0074098,0.024089,0.047246
-0.026646,-0.057123,-0.15308,-0.048755,-0.01843,-0.015105,-0.0057834,-0.017434
0.017067,-0.1192,0.013063,0.076797,-0.0043944,0.0020949,-0.12943,0.049639
-0.041106,-0.14559,0.28919,0.12404,0.0020025,0.027494,0.11486,-0.056707
-0.013092,0.036414,-0.13719,-0.24187,-0.038104,-0.0095968,-0.06144,-0.032011
0.00010406,0.061033,-0.10968,-0.027658,0.00050648,-0.023667,0.091907,-0.024646
-0.001084,0.015866,0.098254,0.087871,-0.014788,0.0083185,0.020093,0.020405
0.006993,0.011869,0.095606,-0.043189,0.017662,-0.02331,-0.050741,0.10364
0.055516,0.22208,0.076907,0.14166,0.066527,0.029754,0.10538,-0.1103
0.019136,-0.10293,-0.06044,-0.037874,-0.024713,0.0035234,-0.098053,0.066567
0.0066743,-0.017886,0.14353,0.042045,0.016945,-0.00015433,-0.067635,0.033037
-0.044992,-0.07798,-0.33512,-0.081052,-0.019953,-0.01206,0.0091173,-0.046685
0.0042256,-0.11204,0.14452,0.075601,0.0047528,0.023093,-0.00026941,-0.055481
-0.072561,0.15268,-0.29916,-0.067478,-0.034237,-0.050301,-0.032704,-0.05611
-0.095717,-0.13593,0.24989,-0.042356,-0.035397,-0.028532,0.1234,0.10729
0.10682,-0.048573,0.067445,-0.075708,-0.0062958,0.057571,-0.054912,0.1452
0.10568,0.23479,-0.41475,0.036192,0.061361,0.020664,0.065319,-0.16934
0.026235,0.05762,0.43731,0.13826,0.027559,0.024649,-0.00056384,0.04621
-0.014052,-0.056984,0.39697,0.060112,0.017909,-0.016883,-0.034478,-0.051872
-0.085284,-0.046924,-0.57638,-0.19677,-0.092106,-0.057779,-0.045146,-0.07262
-0.054503,-0.18603,0.25673,0.0094761,0.025905,0.018298,0.021178,0.1409
0.023742,-0.076167,-0.25549,0.015542,-0.042124,-0.00042753,0.0074844,-0.0041155
0.071491,0.52472,0.28991,0.17318,0.1176,0.049423,0.022751,-0.069117
-0.028259,-0.32862,-0.48458,-0.072666,-0.034486,-0.020065,-0.057963,-0.0062581
0.013719,0.16088,0.52919,0.011585,-0.0068015,-0.029273,0.01586,-0.0023564
-0.021259,-0.092379,-0.2466,-0.012585,0.020348,0.014278,0.018531,0.075617
-0.070803,-0.40064,-0.35705,-0.21651,-0.078525,-0.045057,-0.033266,-0.053953
0.052237,0.21277,0.2632,0.086503,-0.0068079,0.020092,0.0021103,-0.001417
0.026935,0.10692,0.48482,0.075607,0.016751,0.023087,0.023856,0.059857
0.11026,0.32796,-0.25126,0.1803,0.062706,0.0037314,-0.014581,0.15148
-0.065948,0.062193,-0.14525,-0.13842,-0.024795,0.0093745,0.16005,-0.32998
-0.088539,-0.47298,-0.13268,-0.16155,-0.050002,-0.037997,-0.19513,0.0044495
0.033999,0.1041,-0.056523,0.064386,0.04214,0.064472,0.075113,0.23958
0.01235,-0.027429,0.59058,0.10999,0.017456,-0.019749,0.016477,-0.031275
-0.020405,-0.093762,-0.55244,-0.071435,-0.014686,-0.0023826,-0.051788,-0.15932
0.030273,0.18767,0.26175,0.090434,0.015816,0.0063853,0.018015,0.10657
-0.10004,-0.063864,-0.056177,-0.053025,-0.01639,-0.07223,-0.032199,-0.060009
0.043189,-0.11933,-0.12704,-0.064618,-0.002322,0.027023,-0.022495,-0.047586
0.055103,0.031456,0.17857,0.047533,-0.0048007,0.022887,0.040026,0.14601
0.054013,0.30437,-0.079571,0.072312,0.030718,0.032906,0.086088,-0.055435
-0.10002,-0.19808,-0.13746,-0.091749,-0.059724,-0.067264,-0.12532,-0.064607
0.10881,0.24286,0.32502,0.1105,0.044555,-0.011168,0.0319,0.080078
-0.10106,-0.35797,-0.12828,-0.093529,-0.030849,0.030184,0.011756,-0.0043385
0.011915,0.0372,-0.10386,-0.12454,-0.01177,0.049732,0.041331,0.017211
0.032829,0.036363,0.074335,0.049997,0.0087689,-0.0066801,0.0035627,0.018329
0.038991,0.19311,-0.010616,0.048444,0.046978,-0.0059856,-0.00022356,-0.033874
-0.056184,-0.0087764,-0.43177,0.11372,0.0016188,-0.0028988,-0.048665,0.015284
-0.08902,-0.33488,0.3621,-0.10566,-0.049194,-0.075809,-0.048681,-0.11668
0.057544,0.11374,0.15502,0.10834,0.050435,0.040472,0.08496,0.061722
-0.061743,-0.21688,-0.083668,-0.15974,-0.036076,0.04853,-0.015587,-0.10593
0.12354,0.32226,0.38626,0.18193,0.057634,-0.028792,-0.054014,0.20881
0.019683,0.11394,-0.39271,-0.032739,-0.075561,-0.074914,0.0082752,-0.095033
0.017169,-0.037909,-0.26287,-0.11022,0.0010467,0.11269,0.092773,0.037916
-0.048365,0.12299,0.20583,0.026485,0.036855,-0.0056119,-0.027403,-0.032404
-0.013249,-0.13972,0.068271,0.041162,-0.015356,-0.10222,-0.071275,-0.00095953
-0.034103,-0.25773,-0.19791,-0.15929,-0.022851,0.072411,0.062518,0.069831
0.076351,0.46273,0.42578,0.19217,0.092657,0.017965,-0.032385,-0.031108
-0.19752,-0.89318,-0.35203,-0.29326,-0.17631,-0.023526,0.058111,-0.046233
0.12103,0.53398,0.32898,0.16746,0.11597,0.049575,-0.048601,-0.022715
0.047966,0.22152,0.18425,0.18501,0.040235,-0.059261,-0.01618,0.01578
-0.025712,-0.32948,-0.42672,-0.068182,-0.059375,-0.044713,-0.0080935,-0.040237
0.087815,0.47586,-0.39161,0.14971,0.090891,0.047242,0.023268,0.098312
-0.048724,-0.15841,-0.331,-0.19367,-0.063385,0.045808,0.024017,0.0096759
-0.060176,-0.075267,0.54838,-0.068595,-0.045382,-0.094759,-0.051962,-0.055935
-0.024534,-0.35992,0.20946,-0.15627,-0.073567,0.064071,0.061573,0.042384
0.13651,0.65258,0.45498,0.37814,0.17268,-0.047254,-0.056866,-0.023147
-0.13927,-0.66156,-0.25327,-0.2236,-0.11102,0.016945,0.022509,-0.025571
0.054751,0.24603,0.23669,0.18734,0.091219,0.10812,0.057315,0.019902
-0.031052,0.087914,-0.61492,-0.16912,-0.032967,-0.055557,-0.054473,-0.034786
-0.013556,0.037378,0.071304,-0.0099906,-0.030472,-0.092252,-0.024452,-0.056572
-0.0020482,-0.27974,0.10372,-0.12238,-0.026506,0.067132,0.029433,0.087382
0.050106,0.11302,-0.21608,-0.035766,0.017592,0.061946,0.036107,0.060866
0.087599,0.47223,0.34565,0.50103,0.085633,-0.10114,-0.0676,-0.019525
-0.11709,-0.51695,-0.29446,-0.23043,-0.065234,-0.016746,-0.016577,-0.02183
0.091128,0.26729,-0.22416,0.0035914,0.033065,0.072476,0.06386,0.0061056
-0.038873,-0.11613,0.39359,-0.11865,-0.034111,0.010212,0.017352,-0.0069408
0.023298,0.18102,0.37459,0.21344,0.060981,-0.05479,-0.046643,-0.046011
-0.17586,-0.60936,-0.6282,-0.32238,-0.18176,-0.075068,-0.010694,-0.056705
0.090435,0.42562,0.21043,0.11609,0.12067,0.098542,0.03181,0.086115
0.0026677,0.067695,0.043461,0.059274,0.039073,0.052708,-0.0046404,0.015798
0.023018,0.18625,-0.00031179,0.02277,0.0038046,-0.0010191,-0.025854,0.045665
0.043571,-0.058736,0.30861,0.062068,-0.031237,-0.085635,-0.00017798,-0.1202
-0.051431,-0.49051,-0.47291,-0.23548,-0.049682,0.056928,0.049273,-0.019913
0.0048128,-0.088029,0.14115,-0.024413,-0.0040441,-0.041966,-0.033532,0.10514
0.1037,0.27882,-0.12911,0.19692,0.059183,0.016148,0.032775,0.028945
-0.0044871,0.26246,0.20193,0.0078498,0.015087,0.012524,-0.025215,0.040881
-0.24961,0.060188,-0.052189,0.08075,0.019697,-0.029389,-0.035651,-0.10899
0.17242,-0.17221,-0.10957,0.0090193,-0.013425,-0.023618,0.017048,-0.045763
-0.075271,-0.24253,-0.19684,-0.31787,-0.10841,0.02206,0.031289,-0.019635
0.076463,0.15637,0.098889,0.10612,0.054249,0.068594,-0.00074264,0.031652
0.048214,0.10344,0.37672,0.067937,0.0050439,-0.079368,-0.032135,0.1547
0.041847,0.36459,0.25011,0.24516,0.11051,0.10152,0.038749,-0.064882
-0.15465,-0.66877,-0.49649,-0.25462,-0.1298,-0.12324,-0.045802,-0.080591
0.020481,0.11519,0.12433,-0.073218,0.018321,0.11342,0.058065,-0.010064
0.098226,0.34645,-0.032123,0.12497,0.062814,-0.032309,-0.0402,0.044628
-0.15555,-0.30295,-0.062046,-0.089192,-0.089657,-0.12294,-0.04372,-0.042072
0.056715,-0.03286,-0.20008,0.020081,0.022497,0.052532,0.031763,0.010522
0.0016798,0.037545,0.29027,0.11889,0.025066,0.025407,0.029727,0.20189
0.063308,-0.13107,-0.14927,-0.14978,-0.02646,0.04568,0.0044167,-0.093358
0.039559,0.25062,0.041611,0.067934,0.04829,0.0038353,0.0021193,-0.17226
-0.16248,-0.036645,-0.25604,-0.046368,-0.00023203,0.0089543,0.0065507,-0.0034483
0.090491,-0.11238,0.22097,0.0085087,-0.078132,-0.087828,-0.037598,0.17917
0.048595,0.3388,0.71087,0.14695,0.064406,0.048942,0.025467,-0.17058
-0.0071098,-0.15968,-0.78468,-0.08475,0.0050264,0.01257,-0.0075527,0.096616
0.0011279,0.045786,0.13994,0.015205,0.00085502,-0.017558,-0.011477,-0.026207
-0.059916,-0.22135,0.021071,-0.086252,-0.011377,0.013168,0.006429,0.1101
-0.0030527,0.11127,-0.16112,0.11675,0.014499,-0.035697,-0.031111,-0.056504
-0.054977,-0.095002,0.18221,-0.13531,-0.054832,0.015964,0.0097354,-0.057091
0.049985,0.27198,0.085364,0.12516,0.069492,-0.003114,-0.026274,0.022314
0.015117,-0.33823,0.067965,-0.11789,-0.057697,0.0015042,0.064794,0.0017276
0.043694,-0.060208,-0.28629,-0.067191,-0.02187,0.030445,0.041196,-0.0099174
0.018549,0.49676,0.23325,0.34082,0.052659,-0.072104,-0.065832,-0.05222
-0.068322,-0.447,-0.20771,-0.32981,-0.044288,0.061191,0.02448,0.12423
0.024842,0.23612,-0.25442,0.14142,0.062962,-0.015175,-0.040291,-0.15306
-0.06977,-0.38065,0.026754,-0.13457,-0.047034,0.049842,0.043452,0.12311
0.068982,0.29904,0.36611,0.11674,0.055503,0.021113,0.001154,0.053792
0.034124,0.065987,0.086524,-0.018393,-0.059381,-0.14908,-0.035321,-0.033279
0.012579,-0.032332,0.0011473,-0.0014668,0.029612,0.093205,0.034987,-0.15384
0.019658,0.40197,0.0069669,0.14268,0.063912,-0.0025273,-0.061503,0.1845
-0.20241,-0.46058,-0.14928,-0.12705,-0.051003,0.024573,0.042753,-0.1114
0.088984,-0.059121,0.074975,0.022982,-0.018869,0.026439,0.020437,-0.0015785
0.019552,0.20659,-0.090194,0.09066,-0.019691,-0.15236,-0.088252,-0.063013
-0.019191,-0.42969,-0.054283,-0.22241,-0.069049,0.051807,0.092965,0.096072
0.12988,0.15733,0.032926,0.028498,0.067804,0.030853,-0.036265,0.039141
-0.1263,0.046787,0.063066,0.031341,0.0086463,-0.034381,-0.0062589,-0.084785
0.0017422,0.076089,0.031652,-0.0014981,0.035384,0.1147,0.05847,0.13064
0.1,0.24672,-0.39995,0.064963,0.01577,-0.060756,-0.076518,-0.049392
0.019844,0.25519,0.24301,0.069182,0.0048598,-0.061211,0.01002,-0.031962
-0.075039,-0.50704,0.21623,-0.072314,-0.051901,0.096608,0.051326,-0.013498
-0.067848,-0.22703,-0.312,-0.091869,-0.013962,-0.0029449,-0.00095028,-0.018628
-0.044817,-0.076464,0.23048,-0.019423,-0.0065383,-0.010105,0.0078422,-0.032837
0.079845,0.4056,-0.048053,0.15326,0.056048,-0.043746,-0.040945,0.044531
0.071766,0.086197,0.20003,0.019428,-0.0061206,0.012066,-0.0077601,0.0097148
-0.037705,-0.050679,-0.07046,-0.055023,-0.029117,0.016149,0.028792,0.034242
0.0093779,0.0021977,0.3364,0.076486,0.010474,3.2152e-05,-0.0013811,-0.014746
-0.036874,-0.295,-0.53157,-0.14282,-0.051325,-0.082052,-0.050491,-0.0041853
0.050166,0.1428,-0.11711,-0.082097,0.020001,0.021663,-0.0076907,0.089918
0.028323,0.33822,-0.086935,0.25708,0.099584,0.0086101,0.003815,-0.11441
-0.18838,-0.62355,-0.050149,-0.28254,-0.14065,0.0137,0.056148,-0.077029
0.071848,0.24131,0.33209,0.11119,0.07266,0.054245,-0.0054313,0.039179
0.043224,0.1121,0.06454,0.11819,0.012729,-0.032843,-0.015912,0.00096521
0.10834,0.35586,0.051197,-0.010848,0.085485,0.080653,0.032745,0.020121
-0.069009,-0.33195,0.016174,-0.04838,-0.10786,-0.11386,-0.04748,0.026743
0.010876,-0.12274,-0.16894,-0.040158,-0.020698,0.054014,0.054763,0.16914
-0.10536,-0.17187,-0.11833,-0.14133,-0.020347,0.082408,0.041049,-0.10801
0.011877,0.28744,0.44299,0.16466,0.041712,-0.054013,-0.043394,-0.079106
0.12828,0.1549,-0.047246,0.2066,0.017303,-0.20058,-0.11406,-0.01862
-0.1465,-0.55279,-0.66013,-0.31206,-0.061949,0.11827,0.093726,0.041346
0.070742,0.33681,0.18882,0.11647,0.069973,0.035043,-0.021917,-0.016854
0.069544,0.25315,0.28681,0.07,0.030564,0.011032,-0.023157,0.0568
-0.11058,-0.24239,0.053576,-0.13166,-0.062839,-0.015385,0.0049274,-0.080999
0.0072623,-0.018862,-0.083434,-0.12976,-0.014961,0.042898,0.032256,-0.023308
0.032603,0.2574,0.029751,0.23918,0.03336,-0.1176,-0.064965,-0.066319
0.066922,-0.05642,0.0081726,0.084028,0.058348,0.11351,0.089242,0.1263
-0.069786,-0.39159,-0.18127,-0.11898,-0.096627,-0.059987,0.018873,0.070075
-0.026487,0.07166,-0.03216,-0.041789,0.013406,0.049629,-0.0025875,0.053387
0.0086501,0.12305,0.16563,-0.020129,0.02885,0.020244,-0.0068197,0.067271
-0.019774,-0.024671,0.20094,0.0011638,0.012147,-0.015922,-0.0571,-0.31933
0.090722,0.060835,-0.49612,-0.094443,-0.060016,-0.036236,0.0018902,0.1189
0.027195,0.11696,0.33316,0.092176,0.023582,0.01315,0.013018,-0.032858
0.047327,0.19346,0.34638,0.31939,0.091455,-0.079411,-0.04002,-0.0012556
-0.25487,-0.79334,-0.79076,-0.41252,-0.1841,0.013737,0.029904,0.089403
0.043173,0.43909,0.33752,0.076093,0.11916,0.12055,0.035247,-0.040775
0.083075,0.15635,0.12345,0.12862,0.017121,-0.032259,-0.00028719,-0.069687
0.0535,-0.088269,-0.25204,-0.0055302,0.025494,0.024452,0.0097403,0.11394
-0.14605,-0.25059,0.15701,-0.17076,-0.11362,-0.099329,-0.043389,-0.16792
0.12575,0.49381,0.17866,0.16357,0.099562,0.04245,-0.010524,0.24211
-0.021517,-0.13269,-0.11748,-0.010773,-0.030616,-0.057256,-0.039429,-0.17121
0.0054514,-0.18093,0.064286,-0.13929,-0.043584,0.055362,0.089191,0.036981
0.049436,0.041345,-0.019499,0.051508,0.013432,-0.0020144,0.00067639,0.099895
-0.00025602,-0.084548,-0.28389,-0.055352,0.0073251,0.067705,0.023258,-0.077885
-0.051241,0.12148,0.18478,0.1732,0.023826,-0.071509,-0.077562,0.017439
-0.01086,-0.041338,-0.13656,-0.028289,0.031586,0.040904,0.033858,0.048313
0.026588,-0.076868,0.28438,-0.042605,-0.0084394,-0.0018745,-0.0022544,-0.033212
-0.087196,-0.066133,-0.01962,0.051961,-0.04142,-0.036427,-0.0066302,-0.13372
-0.038917,0.050558,-0.20322,-0.088653,-0.02804,-0.039916,-0.03433,-0.010579
0.047689,0.019589,-0.06208,-0.097645,-0.014842,0.065329,0.05498,-0.014334
-0.044705,0.15608,-0.13483,0.087114,0.0063307,-0.095958,-0.051397,0.10631
