0.27276,-0.04809,-0.012504,-0.017591,0.0023922,-0.0071008,-0.0091638,-0.019901
0.024243,0.12876,-0.024838,-0.021418,-0.032443,-0.033229,-0.066371,-0.017998
0.30857,-0.14209,0.025579,0.045356,0.019695,0.050628,0.056339,-0.00026534
-0.43327,-0.032503,-0.034649,0.011367,0.018615,0.033973,0.10153,0.17479
-0.50822,-0.16675,-0.066006,-0.029206,-0.012043,-0.036031,-0.063319,0.07817
0.0044324,-0.035834,0.063757,-0.013579,-0.017659,-0.0265,-0.063046,-0.25845
0.45497,0.4006,-0.03598,0.0271,0.040491,0.054585,0.094527,0.18064
0.17652,-0.09088,0.04932,-0.024458,0.0056153,-0.0040868,-0.075134,-0.15938
0.10896,0.11506,0.031363,-0.027918,-0.0057438,0.0079198,0.060516,-0.0054548
0.071807,-0.19291,-0.010862,0.1022,0.0057927,-0.011485,0.024594,0.071621
-0.21993,-0.031393,-0.13127,-0.087772,-0.077438,-0.086192,-0.13634,-0.061561
0.36081,0.21554,0.15507,0.065627,0.033379,0.064748,0.069647,0.078708
-0.62199,-0.17199,0.0046893,-0.031883,0.0023181,-0.0040988,0.0017144,0.030787
0.15429,-0.08532,-0.012096,0.0021084,0.0014865,-0.0036287,0.0034626,-0.04193
-0.31377,-0.040147,-0.067343,-0.066986,-0.0078059,-0.011813,-0.018981,0.047539
0.18392,0.042166,-0.020699,0.049894,0.052973,0.073114,0.11396,0.22084
0.26621,0.05315,0.057269,0.0013699,-0.026768,-0.05334,-0.1056,-0.45937
-0.35246,0.04067,-0.013285,-0.001301,0.0031927,0.0074192,0.025419,-0.015975
0.12898,0.091423,0.0097964,0.042268,0.010118,0.013317,0.014884,0.0050088
0.33158,0.096359,-0.021838,-0.039407,-0.029478,-0.043377,-0.082345,0.20606
0.0079342,-0.30406,-0.037723,0.019657,0.0014678,0.0092834,0.038715,0.11133
-0.23952,0.053682,0.063856,0.0010103,0.024692,0.030753,0.01127,0.34613
0.22118,0.090737,0.040797,-0.016978,-0.0067863,-0.0023139,0.054501,-0.63661
-0.32306,0.0017619,-0.036616,-0.0028743,-0.022695,-0.019502,-0.057755,-0.040636
0.054724,-0.096432,-0.0826,-0.026872,-0.023007,-0.020717,-0.036129,0.0081851
0.12538,0.069637,0.051024,-0.02644,0.015785,0.0097365,0.057049,0.34485
-0.10506,-0.02296,0.074882,0.084274,0.04688,0.056261,0.065556,0.031037
0.019126,-0.052994,-0.026939,-0.046514,-0.023435,-0.045231,-0.088837,-0.1994
-0.0012456,0.19947,-0.020254,0.13554,0.023572,0.033319,0.046812,0.27843
0.038972,-0.26434,-0.092583,-0.19032,-0.030922,-0.04412,-0.066786,-0.48824
0.14259,0.416,0.13125,0.20205,0.047357,0.034865,0.038888,0.25921
-0.50769,-0.69641,-0.13743,-0.21115,-0.077614,-0.034472,-0.10515,-0.36883
0.067276,0.45307,0.086244,0.030818,0.023816,0.013479,0.06334,0.27698
0.54875,-0.1364,0.07628,0.045114,0.007925,0.0068613,0.075293,-0.029452
-0.11774,0.18979,-0.073074,0.027169,-0.023641,-0.015234,0.086583,0.43037
-0.034982,0.046566,-0.048962,-0.054069,0.015158,-0.029367,-0.12194,0.038297
0.36497,0.20489,0.070629,0.02816,0.03066,0.050344,-0.01937,-0.40234
-0.67086,-0.39997,-0.058171,0.023993,-0.00053819,0.012833,0.0034905,-0.16624
-0.25482,-0.32413,0.0017478,-0.019629,0.0074773,0.029787,0.0014007,0.10537
0.20439,0.40091,0.031008,0.077013,-0.031299,-0.05525,-0.0018486,0.069279
0.43169,0.018405,0.083502,-0.021943,0.0080557,0.023192,0.041205,0.47731
-0.22206,-0.14129,-0.068186,-0.02722,0.00048806,-0.024,-0.040611,-0.79256
0.64168,0.27641,0.020484,-0.094658,-0.022758,-0.024862,-0.11384,0.21636
-0.60125,-0.20182,-0.080725,-0.012732,-0.014769,-0.041688,0.079738,-0.35182
-0.68384,-0.26843,-0.028285,0.02391,0.024508,0.042978,0.079214,0.34916
0.8957,0.47699,0.068579,0.031456,0.024797,0.073125,0.16544,0.84356
-0.46232,-0.44145,-0.039626,-0.13826,-0.03736,-0.060492,-0.23267,-0.97145
0.27503,0.56145,0.1557,0.43648,0.087956,0.11086,0.087098,0.68212
0.46838,-0.34454,-0.071057,-0.16679,-0.03687,-0.077015,-0.047977,-0.50509
-0.31134,0.37667,-0.039178,0.051048,-0.029133,-0.038384,-0.083694,0.12584
-0.59538,-0.37979,-0.091453,-0.27813,-0.021681,3.9555e-05,0.050297,0.023424
0.10793,-0.14813,-0.00051869,-0.04568,-0.0066251,-0.0086572,-0.020388,-0.50303
0.57109,0.20242,0.17165,0.15428,0.02403,0.029397,0.056916,0.27177
-0.254,-0.20393,-0.043549,-0.021934,-0.015403,-0.0027287,0.080483,0.44233
-0.21251,0.078615,-0.013555,0.043216,0.015946,-0.018769,-0.12794,-0.5201
0.53005,0.16882,-0.098409,-0.048234,-0.014591,0.0050157,-0.01248,0.55221
-0.44165,0.19398,0.12277,0.11816,0.072665,0.084429,0.083853,-0.15693
0.31682,0.086359,0.062822,-0.074647,-0.058421,-0.11648,-0.088848,-0.59674
-0.51511,-0.89375,-0.25607,0.076371,0.013675,0.042675,0.0078838,0.44673
0.50054,0.63073,0.1727,-0.0072137,0.022894,0.038011,0.23219,-0.24363
-0.36944,-0.26856,-0.09714,-0.13045,-0.054614,-0.052934,-0.18323,0.37114
0.15007,0.33855,0.0040639,-0.0045636,0.015236,0.03484,0.064412,0.28926
0.20159,0.15467,0.21826,0.04222,0.021413,0.019539,-0.12036,-0.76588
-0.22887,-0.41533,0.022239,0.017792,-0.0046939,-0.0054254,0.018923,0.89712
-0.34338,0.032826,-0.2473,-0.10108,-0.047118,-0.055729,-0.018436,-0.53028
0.13948,0.035968,-0.026604,0.02179,-0.011634,-0.013907,0.025359,-0.37922
0.96111,0.42018,0.10789,0.36312,0.063193,0.050299,0.07281,0.22372
-0.59098,-0.74571,-0.2013,-0.28797,-0.033165,-0.11235,-0.14839,-0.26836
0.36413,0.80323,0.28196,0.037259,0.066715,0.13177,0.26944,0.66162
-0.96428,-0.91724,-0.10505,-0.044025,-0.0043317,0.0021009,-0.1565,-0.085513
0.26666,0.50002,0.03669,-0.13331,-0.035531,-0.00086097,-0.0028347,-0.22571
0.010187,-0.0062125,0.13655,0.11336,-0.011531,0.021528,0.0052167,-0.021871
0.095492,-0.098662,-0.22859,0.032226,-0.018556,-0.047963,-0.021941,0.31735
0.19604,0.20023,0.017397,0.084584,0.013503,-0.029873,-0.15401,-0.45637
-0.030286,0.062799,0.020515,-0.049588,0.006452,0.012977,0.16376,0.040829
0.51146,0.21547,0.082962,0.012691,0.030675,0.033365,0.1027,0.56722
-0.55318,-0.78764,-0.0083142,-0.12701,-0.054283,-0.054985,-0.096197,-0.35376
-0.4119,0.19328,0.010976,0.031142,-0.006042,-0.0024183,0.05752,-0.32406
0.012679,0.24337,0.015595,0.049327,-0.01198,-0.051514,-0.08667,0.12433
0.80529,0.18228,-0.063737,0.013028,0.060685,0.13319,0.00035967,0.47471
-0.47295,-0.23257,-0.052877,-0.00016821,0.016423,0.035499,0.012107,-0.8135
0.21562,-0.04045,-0.073612,0.03263,0.011093,-0.017041,0.025538,0.76548
-0.20824,0.047761,0.033957,0.017217,0.020786,-0.0092947,0.063869,-0.6111
-0.22947,-0.16305,-0.21113,-0.14041,-0.087733,-0.10555,0.065477,0.67123
0.9022,0.51495,0.42017,0.10666,0.013425,0.030276,-0.15516,0.21932
-0.7495,-0.62103,0.13204,-0.053714,-0.027257,-0.0074535,-0.14204,-0.55461
-0.11213,0.46843,-0.083991,-0.042739,0.0093235,-0.006822,0.037865,-0.28396
0.10618,-0.30231,-0.15979,0.10137,-0.024681,-0.036949,-0.10443,-0.069327
-0.060404,0.13728,-0.0048788,-0.026753,0.074546,0.090824,0.24599,0.11526
0.27332,-0.017325,-0.052679,-0.020113,-0.0048718,0.0023701,0.058862,0.11729
0.17887,-0.11758,-0.017622,-0.0032556,-0.012532,0.0027683,0.12252,0.89425
-0.68016,0.28192,-0.027452,-0.015179,-0.026476,-0.040968,-0.16701,-1.1277
0.53769,-0.21713,0.080223,0.11564,0.070234,0.097034,0.014697,0.35966
0.54732,0.18236,0.10175,-0.056823,0.01145,0.0094916,0.10092,0.19496
-0.91385,-0.44111,-0.103,-0.033515,-0.070686,-0.1016,-0.20913,-0.29225
0.45401,0.35832,-0.040593,-0.057624,-0.044026,-0.080963,-0.12919,0.1952
-0.63436,-0.01238,-0.037436,0.11216,0.044039,0.070798,0.17546,-0.28105
0.303,0.17427,0.088,-0.048174,0.013552,0.017593,0.10385,0.13651
0.35945,-0.29167,0.10308,0.023665,0.012971,0.0018875,-0.20904,-0.07066
-0.010197,-0.096608,0.12651,0.0075888,0.011328,0.032075,0.052474,0.42176
-0.50562,0.14328,-0.26238,-0.1427,-0.08465,-0.1099,-0.12375,-0.89864
0.15906,0.34286,-0.00010176,0.081399,0.030287,0.037526,0.054379,1.0568
-0.0032329,-0.4818,-0.12492,-0.045845,0.012925,0.099736,0.41696,-0.45946
0.027839,0.13785,0.11375,0.14029,0.066795,0.045574,-0.1292,0.10267
0.45907,-0.22889,0.0834,0.062004,-0.018835,-0.054826,0.008873,-0.0025555
0.034784,0.40038,-0.044197,-0.1323,-0.040853,-0.068996,-0.18619,-0.72208
-0.63527,-0.43818,-0.019669,-0.083648,-0.0072715,-0.012913,-0.060224,1.1559
0.17421,0.70489,0.10893,0.051116,0.042522,0.011635,-0.052511,-0.64639
-0.047285,-0.12748,-0.0037809,0.13074,-0.048093,0.035878,0.30471,0.60386
-0.29569,-0.47014,-0.07062,0.12353,0.025217,-0.033758,-0.25413,-1.0147
0.70583,0.48696,-0.0074536,-0.28314,-0.034721,-0.040737,-0.11864,0.68696
-0.40671,-0.46003,-0.02662,-0.081211,0.014056,0.062068,0.26753,-0.93025
0.25309,-0.15342,-0.027275,-0.090429,-0.039557,-0.061198,-0.28914,0.44579
0.54151,0.39462,0.20946,0.29928,0.14807,0.17522,0.49401,0.88172
-0.6677,-0.33436,-0.22947,0.0025309,-0.079413,-0.088503,-0.52306,-0.5993
-0.34996,0.42304,0.017008,-0.01171,-0.018904,0.014185,0.51079,0.52887
0.17817,-0.085784,-0.064612,-0.079656,-0.01411,-0.048604,-0.10114,-0.7197
-0.14774,-0.3961,0.12156,0.13394,0.044516,0.066441,0.10792,0.58014
0.41372,0.59531,0.13193,0.19065,-0.0067762,-0.086057,-0.52045,-0.47558
-0.36512,-0.33887,-0.20437,-0.44162,-0.034724,-0.0057063,0.19157,-0.031857
-0.041964,-0.076705,0.042348,-0.052428,-0.05442,-0.05107,-0.34319,-0.46492
0.22859,0.34579,0.11332,0.061326,0.020606,-0.049205,0.22633,1.2521
0.82719,0.10283,-0.0010258,0.056362,0.12047,0.19629,0.5019,-0.1684
-0.72842,-0.22469,-0.037256,0.16785,-0.090533,-0.0090521,0.12497,-0.25078
0.11617,0.055016,0.025855,0.1545,0.10634,0.069592,-0.33279,-0.36573
0.22728,-0.30149,-0.22754,-0.24849,-0.07822,-0.09907,-0.48664,-1.1072
-0.35541,-0.35545,0.13124,0.0063718,-0.027461,-0.015498,0.48618,0.79123
-0.07333,0.21677,0.047388,-0.041502,-0.015349,-0.031997,-0.20057,0.57859
-0.37925,0.19301,-0.025151,-0.056075,0.027879,-0.063494,-0.067438,0.12433
0.0049286,0.45247,0.0010508,0.032786,0.0079722,0.068843,0.075462,0.49454
0.21213,-0.50201,-0.13777,-0.017587,-0.044243,-0.026386,0.19817,-0.34557
0.49384,0.43966,0.17746,0.26858,0.074028,0.056396,-0.3559,-0.8903
-0.72741,-0.48182,0.042033,-0.19569,0.010987,0.090062,0.23907,0.26791
0.75709,0.78517,-0.066494,0.018114,-0.061615,-0.097699,0.22109,1.0741
-0.0043491,-0.35671,0.070986,0.24487,0.043723,0.024107,0.029921,-0.43937
-0.29614,-0.44146,-0.11607,-0.46929,-0.063467,-0.099212,-0.14521,-0.63465
0.32779,0.27232,0.066997,0.20359,0.062455,0.10297,0.041743,-0.087015
-0.22792,-0.22138,-0.091599,-0.087608,-0.023324,-0.0092868,-0.31152,-0.38141
-0.26206,-0.34802,0.10261,0.0097433,-0.015469,-0.052177,-0.050238,0.37101
0.22517,0.21073,-0.069824,0.2315,0.016449,0.014611,-0.1263,-0.094221
0.096448,0.25764,-0.062507,-0.045688,0.034128,0.04397,0.39365,0.87286
-0.46084,-0.077861,0.10083,-0.12494,-0.055499,-0.080065,0.0071772,-0.50167
0.010806,0.61209,0.0059066,-0.051913,-0.017551,0.018404,0.13447,0.81708
0.24591,-0.15871,0.082194,0.1116,0.054454,0.027273,-0.20299,-0.56971
-0.1206,0.065597,-0.16286,-0.12653,-0.04273,0.0088065,-0.047378,-0.087577
0.32744,-0.56606,-0.073561,0.061166,0.0028964,0.032442,0.00268,-0.07774
-0.71462,-0.3509,0.1306,0.095282,0.073284,0.049889,0.088689,-0.15446
0.57779,0.52399,0.073782,-0.018144,-0.028005,-0.073399,-0.2124,-0.25792
0.69675,0.092285,-0.0025954,0.10173,-0.01313,-0.096992,0.26056,0.86253
-0.56517,0.054637,0.080716,-0.070345,0.038665,0.14953,-0.0043005,-0.95294
0.3783,-0.1351,-0.082372,-0.09816,-0.014048,-0.0065872,0.27768,0.33408
-0.84111,-0.25444,-0.092435,-0.12284,-0.062215,-0.081096,-0.36614,-0.18964
-0.10685,-0.0003967,-0.08041,0.027895,-0.05091,-0.057713,0.030476,0.14834
0.2388,0.41575,-0.035886,0.08177,0.036252,0.025828,-0.20502,0.25277
0.30982,0.040677,0.067483,0.087331,0.02853,-0.00060692,-0.16503,0.64222
-0.44824,-0.27535,-0.056726,-0.055203,0.036584,0.091373,0.22374,-0.84836
0.62414,-0.4889,0.14792,0.046327,-0.016519,-0.024787,0.13706,0.68263
-0.56132,0.15151,0.095879,0.017949,0.026371,0.026958,0.086622,-0.62366
0.2363,0.82393,0.020354,-0.069608,-0.013944,-0.0030122,0.11452,-0.09617
0.15627,0.2583,0.067257,0.088199,0.042278,0.049085,0.019188,0.13938
0.11804,-0.098522,-0.040238,-0.03262,-0.039654,-0.098812,-0.41041,-0.65104
-0.51551,-0.85491,-0.25879,-0.13595,-0.072818,0.013097,0.011551,0.42523
0.12405,-0.048003,-0.11484,-0.027245,-0.026679,-0.11643,0.079101,0.12988
0.14486,-0.2286,0.16316,0.17563,0.098008,0.11298,0.23406,1.1483
0.29341,0.22683,-0.081671,-0.12159,-0.035421,0.028481,-0.042719,-0.55087
-0.62317,0.41278,0.14344,0.13541,0.025504,-0.066005,-0.0042332,-0.79411
-0.11922,-0.098212,0.058699,-0.014598,0.045864,0.11028,-0.011798,0.024142
0.65787,0.12638,0.025412,-0.032746,-0.0059806,-0.0053793,-0.29255,0.43341
0.38192,0.42523,-0.055999,-0.075444,-0.059894,-0.084818,-0.0097099,-0.51941
0.1037,-0.47289,-0.050969,0.021261,0.017015,0.051984,0.32315,0.87745
-0.70899,-0.050631,0.034032,-0.016135,-0.056157,-0.063133,-0.20532,-1.1569
-0.82714,-0.18947,-0.089201,-0.015785,-0.03665,-0.10125,0.0013975,0.35241
-0.1748,-0.49764,0.048459,0.10826,0.1153,0.1885,0.21106,0.22075
1.0136,0.60388,0.064131,0.2467,0.0097653,-0.052384,-0.059698,0.34523
0.12128,0.076559,-0.06607,-0.42839,-0.032367,0.04395,-0.1003,0.51722
0.39733,0.34225,0.0086824,0.10677,0.020504,0.0091881,0.25166,-0.61581
-0.45885,-0.2403,0.037471,0.0089724,-0.019031,-0.10183,-0.33454,0.1701
0.2096,0.24192,0.0036999,-0.13518,-0.010497,0.070157,0.020971,-0.90842
-0.21723,-0.6496,0.00022842,0.17495,-0.0089182,-0.053266,0.27649,0.58656
-0.33045,0.053358,-0.051752,0.033585,0.00088658,0.043108,-0.11656,-0.30933
0.066713,0.24173,-0.0041877,-0.059145,-0.0049948,-0.031807,0.052544,0.20985
0.46807,0.11207,0.017884,0.060529,0.035504,0.034037,-0.066319,0.50905
-0.17807,-0.083705,-0.00086889,-0.022138,-0.018577,-0.056635,-0.3451,-0.14501
-0.19471,-0.34353,0.057298,-0.0033886,0.043505,0.10991,0.18914,-0.82773
0.08205,0.21692,-0.11159,-0.048259,-0.075153,-0.1306,-0.16998,0.057104
-0.33779,-0.22237,0.12603,0.0065283,0.039659,0.1592,0.44872,0.38471
0.12008,0.57935,-0.096359,0.019932,-0.018012,-0.11443,-0.15531,-0.04377
0.50745,-0.33433,-0.012657,-0.070493,-0.029018,-0.037314,0.24506,0.74788
-0.17856,0.56312,0.10395,0.063898,0.038325,0.031363,-0.22676,0.21576
0.15203,-0.10085,-0.0356,-0.05257,-0.026536,-0.048792,0.01959,-0.59358
-0.060736,-0.45608,0.029393,0.096808,0.1048,0.199,0.128,-0.40841
-0.073952,0.0020633,-0.021773,0.013115,-0.04411,-0.061018,-0.22659,0.50466
-0.81861,-0.53969,-0.10365,-0.07619,-0.059224,-0.10219,-0.071739,-0.98556
0.19416,0.18609,0.033255,-0.022098,0.0046188,-0.026024,-0.035233,0.37605
0.81075,0.72236,-0.033463,0.027108,-0.024695,0.01905,0.084893,-0.30028
0.0010358,-0.74618,0.078498,-0.014795,0.040053,0.056468,0.07817,0.55135
-0.015846,0.79325,0.10302,0.14056,0.057945,0.070601,0.0089001,0.60739
-0.08289,-0.045965,-0.030625,-0.12501,-0.03379,-0.11822,-0.010851,0.067403
-0.080366,-0.097264,-0.080531,-0.031424,-0.016617,0.099426,0.22514,-0.76876
-0.025982,-0.2972,0.023602,0.0060892,-0.0078502,-0.081019,-0.28782,-0.095213
-0.26921,-0.075744,-0.061642,0.095927,-0.0075113,-0.018752,-0.02352,0.0095408
-0.25661,0.097388,-0.023055,0.010881,0.0079178,0.028636,0.19217,0.62217
0.092509,0.025696,0.093495,-0.10082,-0.031723,-0.07148,-0.31889,-0.57939
0.53309,-0.088768,-0.14834,-0.035793,0.053424,0.10285,0.36592,0.73162
-0.046799,0.59689,0.25249,0.026989,-0.041195,-0.011009,-0.23796,-0.60132
-0.41728,-1.0352,-0.17199,0.018254,0.0126,-0.046233,-0.022209,-0.4209
0.2804,0.38121,-0.023058,0.048603,0.081967,0.10597,0.11282,0.43929
-0.20967,0.25136,0.12869,0.072393,-0.036304,-0.01603,0.13332,-0.25196
0.48359,0.12049,0.0090325,-0.073355,0.0014677,0.0011894,0.11445,0.2742
0.30401,0.10376,-0.039433,-0.059705,-0.04689,-0.045908,-0.30609,0.36393
-0.76942,-0.40253,-0.057056,-0.073705,-0.064036,-0.12613,-0.29494,-0.36463
0.052931,0.037352,-0.0059361,0.10343,-0.0028102,-0.020366,0.20075,0.10332
0.47537,0.031945,-0.050943,0.01034,0.090278,0.12362,0.47694,0.35128
-0.45111,0.11305,0.18263,0.036811,0.043699,0.095758,-0.32567,-0.96024
0.20427,0.19689,-0.093994,0.0097624,-0.0095086,-0.024959,-0.034112,0.57893
-0.22356,-0.43162,-0.036282,-0.064401,-0.045867,-0.026897,-0.044861,-0.042515
-0.40948,-0.28348,-0.018066,-0.023029,-0.026475,-0.03462,0.19161,0.071495
0.69508,0.45863,-0.014594,0.085815,0.0014625,-0.055802,-0.0013136,0.21699
-0.52233,-0.44357,0.037847,-0.0042545,0.021886,-0.028074,-0.57365,-0.2771
0.35001,0.62923,0.10888,-0.043432,0.065593,0.14977,0.57888,-0.59601
0.23797,0.0438,-0.066765,-0.062558,-0.016244,0.047512,-0.049642,0.76338
-0.053062,-0.30438,-0.083057,-0.084131,-0.098885,-0.14794,-0.16166,-0.55516
-0.026868,0.46247,0.153,0.11188,0.01289,-0.0075119,0.085846,-0.010294
-0.17635,0.2056,-0.055026,0.089348,-0.0011656,-0.039584,0.11266,0.89074
0.032548,-0.88518,-0.059961,0.13075,0.070064,0.13038,-0.037555,-0.24413
-0.17397,-0.38397,0.027656,-0.23962,-0.0075798,0.0098437,-0.0092036,0.089582
0.20206,0.50488,0.019467,0.041159,-0.030798,-0.073308,-0.032609,-0.0032494
0.37728,0.53284,-0.069339,-0.066054,0.031741,0.021427,-0.11867,-0.8085
-0.55514,-0.58556,-0.0043773,0.0085537,-0.023116,-0.05753,0.13697,-0.15021
-0.11649,-0.0097075,-0.03528,0.053205,-0.00017804,0.064913,-0.32862,0.32112
0.66769,0.16325,0.11197,0.17623,-0.0011737,0.013942,0.43876,0.7539
-0.47443,-0.13407,0.063006,-0.045306,0.012808,-0.014848,-0.13666,-0.060833
-0.053617,0.50522,0.021489,-0.17484,-0.020813,-0.044533,-0.21578,-0.64279
-0.43779,-0.24904,-0.10595,-0.0098468,0.015191,0.034697,0.29085,0.35685
0.39651,0.17707,-0.069127,-0.073944,0.011619,0.035835,0.011556,-0.41538
0.15155,0.07493,-0.024247,0.10968,-0.031227,-0.048403,-0.17596,0.16393
0.59769,-0.27179,0.036388,0.080682,-0.011394,0.040327,-0.09803,0.2022
-0.66188,-0.3827,0.10473,0.11331,0.032473,-0.11937,0.28518,0.18088
0.19938,0.2016,-0.014884,-0.1431,-0.039886,0.074433,0.090632,-0.46703
0.044498,-0.3613,0.0052895,-0.078301,0.02959,0.0047562,-0.22174,0.29886
-0.4211,0.581,0.032086,0.019391,0.05348,0.062211,-0.1691,-0.32695
0.89868,0.22967,-0.083113,0.0099319,0.00043763,0.027814,0.21557,0.52762
-0.8283,-0.18991,-0.027715,0.049885,-0.028225,-0.036358,-0.038183,-0.34533
-0.10372,-0.41361,-0.02786,-0.040465,-0.087544,-0.10742,0.12281,0.25902
0.14377,0.2901,0.042174,-0.034981,0.017399,-0.021913,-0.13867,-0.29123
-0.41066,0.002289,0.027032,0.09676,0.044025,0.039846,-0.35495,-0.27651
0.76108,-0.2062,-0.041144,-0.013579,0.0075962,0.022562,0.2308,0.65608
-0.32848,0.5925,0.072715,0.038939,0.048418,0.12097,0.31294,-0.76449
0.35553,-0.36326,0.0095747,0.010883,-0.0056332,-0.017019,0.30468,1.1376
0.064808,0.10111,-0.082208,-0.13774,-0.084396,-0.079275,-0.34931,-0.73333
-0.12293,-0.098068,0.13282,0.053631,0.038678,0.012175,-0.21163,0.13849
-0.061453,-0.23152,-0.1274,-0.016311,-0.011263,-0.06281,-0.11754,-0.16641
-0.33208,-0.17045,-0.020038,-0.041974,-0.015167,-0.01464,-0.010785,-0.096781
0.20248,0.3951,0.086788,0.032709,0.027392,0.048149,0.10311,-0.21698
-0.3823,-0.12953,-0.034217,-0.040669,0.0075226,0.048456,0.23457,0.47978
0.57609,0.45938,-0.024123,0.098773,0.011626,-0.0048752,-0.082828,0.55499
0.13209,-0.10186,0.070098,0.24125,-0.0068019,-0.032877,0.035232,-0.29004
-0.35413,-0.18517,-0.087255,-0.37827,-0.078792,-0.089748,-0.2313,-0.87107
-0.32642,-0.25534,0.035575,0.060537,0.092563,0.13703,0.2024,-0.10734
0.14651,-0.14386,-0.029503,-0.075707,-0.024153,-0.0092456,0.0058386,0.60317
0.39399,0.38807,0.022875,0.1495,-0.0073993,-0.029467,-0.050746,0.29002
-0.10699,-0.1481,0.068256,0.21927,0.040815,0.03617,0.20893,0.5044
0.064937,-0.3283,-0.080546,-0.25049,-0.044051,-0.024433,-0.27272,-0.26615
0.0648,0.58978,0.037428,0.0047867,0.011031,0.006543,0.19009,-0.70615
-0.015129,0.018139,-0.070278,-0.19529,-0.020757,-0.027627,-0.28547,-0.72589
-0.050964,0.38252,0.11929,0.2116,0.040246,-0.0096308,0.083673,0.92979
-0.43355,-0.21268,0.0039854,0.053893,-0.0088693,-0.016851,0.058789,0.048972
-0.052585,-0.70208,-0.049554,-0.05054,-0.034851,-0.0011669,-0.043117,0.3976
0.48444,0.098051,-0.088574,-0.053928,-0.013685,0.023301,-0.045482,-0.42173
-0.35142,-0.017277,0.058686,-0.0022437,0.016166,-0.0044968,0.071229,-0.37668
0.37147,0.20995,0.0017728,0.066178,0.00049097,-0.044429,-0.20634,-0.083937
-0.29922,-0.38245,-0.040168,-0.012299,0.025458,0.052362,0.23906,0.86236
0.21376,0.76298,0.081808,-0.011045,-0.010595,0.0042662,0.25678,-0.17971
0.0015391,-0.28843,-0.045875,0.0071681,0.040335,0.15393,0.36618,0.29583
0.25549,0.23107,0.030251,0.026201,0.036929,-0.023722,-0.6018,-0.42369
-0.028827,-0.036708,0.036885,0.0063771,-0.068492,-0.13205,-0.06603,-0.37823
-0.37081,-0.45868,-0.072918,-0.076297,-0.034467,-0.11014,-0.28,-0.36412
-0.030324,0.10553,0.06,0.0043704,0.013527,0.11133,0.11418,0.45673
-0.045949,0.11654,-0.088057,-0.0017301,-0.026183,-0.061595,0.14058,0.43155
0.2496,0.29316,0.053041,0.014918,0.03419,0.035751,-0.14378,-0.02142
-0.55216,-0.68431,0.037965,0.062448,0.03121,0.060853,0.44388,-0.43708
0.61822,0.6463,0.054412,-0.046262,-0.003048,0.0074708,-0.32013,0.56306
-0.52915,-0.52598,-0.23316,-0.099976,-0.075547,-0.13066,0.25343,-0.51867
0.62079,0.24563,0.082005,0.11236,0.040966,0.077345,-0.36658,0.11569
-0.24122,-0.10052,0.039427,0.0203,-0.012515,0.014863,0.37295,0.090905
0.33813,0.30257,-0.032531,0.04536,0.053027,0.025482,0.047272,0.093148
-0.15185,-0.2107,0.10037,-0.023901,0.026177,0.092713,-0.11256,-0.23917
-0.15399,0.32552,0.062518,-0.023927,-0.015772,-0.08168,-0.023431,0.20827
-0.41736,-0.39739,-0.10022,-0.11133,-0.026973,-0.038309,-0.24143,-0.52873
0.22266,-0.087026,-0.03758,0.010667,-0.039689,-0.051991,-0.00023953,0.37449
0.22823,0.28357,-0.016508,-0.0015191,-2.4415e-05,0.024811,0.2343,-0.022994
0.18806,0.0078754,0.032213,0.086897,0.029114,0.012194,-0.17364,0.64291
-0.15078,0.091864,0.045454,0.081139,0.024359,0.027865,-0.13225,-0.06763
-0.19506,-0.37842,-0.031476,-0.10418,-0.037181,-0.02077,0.059596,-0.95265
-0.09137,0.13832,0.028668,0.04705,0.0094939,0.00066995,0.344,0.33202
-0.14837,-0.095924,-0.077488,-0.074153,-0.037565,-0.054566,-0.19065,-0.35218
0.53757,0.088493,0.034632,0.071567,0.049428,0.072822,0.24451,0.56074
-0.1216,0.29937,-0.093962,-0.03901,-0.0097134,0.024471,-0.025192,0.48129
-0.02681,-0.38702,0.069764,-0.038553,-0.011143,-0.082081,-0.27802,-0.78159
-0.22852,0.15907,0.089593,0.041738,0.029769,0.11998,0.034874,-0.31835
