0.0045802,0.012837,-0.24936,0.054561,0.02747,0.020257,0.013143,-0.0019554
0.0046938,-0.022818,0.18113,-0.024509,-0.010091,-0.002027,0.0050645,-0.0099759
-0.0029535,-0.011084,-0.059724,0.021758,-0.016897,-0.0089549,-0.018699,0.005691
0.0050642,-0.014185,-0.058659,-0.041277,0.014774,0.0071838,0.020011,0.0060545
0.013098,0.038421,0.65095,0.067377,-0.0088515,-0.0083608,-0.011572,0.0067583
-0.010136,-0.0015387,-0.69154,-0.043073,0.01384,0.0069059,0.0037967,-6.0047e-05
0.0056432,0.0066478,0.21578,-0.013268,0.0048321,-0.01727,-0.027584,0.0011049
-0.025518,-0.030776,-0.31666,-0.053993,-0.020095,0.0051643,0.027122,-0.013358
0.01358,-0.004542,0.054028,-0.032156,-0.021707,-0.0037654,-0.0039774,0.0032307
-0.0020253,0.022635,0.054808,0.083815,0.031416,0.002971,0.019671,0.0038121
0.0058531,-0.012067,0.10895,0.091052,0.014418,0.0255,0.0042005,0.011694
-0.001785,0.00030732,-0.031708,-0.0025132,0.021149,0.0013963,-0.011465,-0.0044197
-0.0092709,-0.003238,-0.037359,-0.10318,-0.034267,-0.022458,-0.019637,-0.021038
0.006839,0.023643,0.25703,0.023227,-0.042435,-0.022674,0.0030418,0.0088675
0.015253,0.03358,0.054557,-0.02979,0.0044463,0.01628,-0.021559,-0.0082246
-0.0075524,-0.044127,-0.2786,-0.04373,0.051656,0.023982,0.023818,0.0060733
0.00080846,-0.029984,-0.033244,0.13748,0.028828,0.015965,0.029932,0.0051305
-0.0066553,0.013571,-0.20365,-0.017481,-0.03286,-0.015637,-0.010852,0.01256
-0.0065944,0.00094282,0.38794,-0.071097,-0.024113,-0.031752,-0.020215,-0.010634
0.01658,0.057736,0.15418,0.031405,-0.023135,-0.016678,0.0098437,0.0058062
-0.023041,-0.057446,-0.43673,-0.11612,0.016872,0.0062795,-0.022078,-0.016411
0.007443,1.5797e-05,0.12346,0.033241,0.017706,0.037266,0.0091342,0.02403
0.022228,0.027799,0.031497,0.19039,0.033977,0.0060882,0.017597,-0.0059642
-0.033224,-0.090699,0.0084152,-0.066697,-0.035962,-0.0012583,-0.0045243,-0.020713
0.0052788,-0.027117,0.16637,0.035182,0.042191,0.015203,0.0051692,0.018657
0.02064,0.15585,-0.28866,-0.051049,-0.059735,-0.053998,0.0074424,-0.020752
0.012888,0.043514,-0.10426,-0.10673,0.0020131,0.017559,-0.029182,0.017341
-0.018004,-0.013488,0.17418,-0.061427,-0.014688,-0.0046584,-0.0033983,-0.0075487
0.0060123,-0.0083782,0.14062,0.092964,0.038715,0.01202,-0.0014094,0.0063621
-0.024535,-0.12172,0.12193,0.099058,-0.0016919,-0.002829,0.015601,-0.0031599
-0.00036961,-0.057098,-0.14234,0.027597,0.028304,0.013226,0.031805,0.011027
0.015922,0.037091,-0.14012,-0.050786,-0.019604,-0.0023381,0.00018874,0.0022726
-0.0069748,0.075492,0.11685,-0.096897,-0.043755,-0.018252,-0.0089768,-0.029275
0.016828,0.027802,0.062515,0.045436,0.018406,0.0046043,-0.05031,-0.013258
-0.0064536,-0.0033498,-0.071329,0.024373,0.010643,0.0038145,-0.029879,0.034627
0.0012847,-0.095187,-0.22331,0.04262,0.018863,0.002913,0.044773,0.020451
0.00097808,0.018398,0.013319,-0.10345,-0.019505,-0.021445,-0.0057243,-0.016987
0.00046204,0.032609,0.1874,0.054411,0.012622,0.032375,0.11581,0.015767
-0.03146,0.024823,0.091087,0.031405,-0.041134,-0.030892,-0.098173,-0.037804
0.014667,0.032806,0.0092933,-0.016485,0.037847,0.062211,0.032221,0.017437
0.029566,0.039333,-0.19493,-0.019003,0.0072659,-0.039869,-0.024101,0.025199
-0.017915,-0.019653,-0.010604,-0.0072016,0.015487,-0.0089967,-0.12639,-0.037849
-0.018327,0.034408,0.20517,0.019358,-0.062501,-0.017017,0.13167,-0.10118
0.028374,-0.23636,-0.12462,-0.032437,0.023356,0.0064346,0.0079508,0.13237
-0.026254,0.0045466,0.1796,0.056913,0.0075562,0.01454,0.025837,-0.0010317
0.028686,0.1023,-0.50846,-0.21185,0.015266,0.007339,-0.033539,0.0222
0.0056228,0.027683,0.22298,0.26343,-0.0080185,-0.015178,0.0093051,-0.0088659
-0.017395,0.0094755,0.73039,0.10815,-0.0074558,0.017222,-0.041211,-0.047479
-0.016995,-0.02856,-0.78626,-0.24795,-0.022023,0.010637,-0.029145,-0.015726
0.0067864,0.00065156,0.17004,0.030831,0.01076,-0.019515,0.029551,0.023661
-0.00074231,0.019092,0.042227,-0.095105,0.012618,-0.010963,-0.0060782,0.0079903
-0.00050118,0.041407,-0.33529,0.10001,0.022336,0.0048395,0.043333,-0.00034467
0.023158,0.03446,0.24787,0.10738,-0.02296,0.019938,0.12283,0.02991
-0.0078798,-0.0041469,0.17486,-0.1288,0.0091372,-0.012583,-0.10371,-0.057383
0.00012434,-0.014294,-0.31888,0.046649,0.016718,-0.0067107,-0.10502,0.027045
0.00026171,-0.044671,0.42453,-0.046868,-0.047283,-0.040381,-0.044964,-0.005613
-0.007513,-0.049205,0.055622,0.36359,0.098431,0.10544,0.13936,-0.022291
-0.031054,-0.058716,-0.18099,-0.34687,-0.10051,-0.045447,-0.020246,0.031894
0.046801,0.029956,-0.12631,-0.0055611,-0.0028888,-0.031752,0.0080282,0.016405
-0.01613,-0.062013,-0.34776,-0.11101,-0.053295,-0.025013,0.013714,-0.037559
0.0067545,0.12902,-0.045761,-0.24723,0.0068308,0.021882,-0.049801,0.010445
0.021785,0.074145,0.45356,0.40808,0.084308,0.038714,0.051853,0.027322
-0.025611,-0.10798,0.080694,0.20806,0.10126,0.025404,-0.056599,0.0049425
-0.0181,0.12973,0.28797,-0.026197,-0.044053,-0.026122,0.046214,-0.002278
-0.010225,-0.10442,-0.42703,-0.2089,-0.05528,-0.045956,-0.11692,-0.041374
0.013757,-0.0079101,0.16635,0.057324,-0.058225,0.020096,0.15647,-0.0029681
0.0070134,0.10403,-0.27994,-0.23697,-0.014702,-0.0003431,0.01427,-0.04315
0.031979,0.017751,0.019025,0.21104,0.090134,0.025104,-0.06719,0.057109
-0.013092,-0.057851,0.26322,0.055948,-0.017688,-0.0054243,0.18569,0.032497
-0.0034855,-0.029888,-0.36154,-0.039373,0.013192,0.0017083,-0.26552,0.016096
-0.0020359,-0.2181,0.27766,-0.10666,-0.059262,-0.0080915,-0.19319,-0.07007
-0.0090566,0.074747,-0.083079,-0.036317,0.0076016,-0.04234,0.20866,0.016194
-0.0091422,0.039058,0.29364,0.16468,0.042596,0.03223,-0.0040618,0.032579
-0.0023631,0.068649,-0.57284,-0.088385,-0.023805,0.0052238,0.15384,0.0023184
0.034823,0.033474,0.21962,-0.012951,0.027888,-0.01345,0.2138,0.026755
-0.030128,0.07585,-0.060433,0.071786,-0.04395,0.015707,-0.44977,-0.12865
-0.0015151,0.016323,0.041635,-0.14599,-0.020283,0.014836,0.1541,0.059456
0.0039097,-0.20888,0.26772,0.32602,0.083222,0.0074324,0.055023,0.036429
-0.021268,0.17899,-0.040536,-0.21574,-0.0072355,-0.022274,-0.19401,-0.056998
0.056044,0.1143,0.129,-0.037759,0.0046084,0.0035378,0.3118,0.084001
-0.021871,-0.11704,-0.14185,0.077625,-0.061675,-0.040528,-0.32697,-0.048277
-0.020751,-0.1659,-0.098955,-0.034701,0.004127,0.032615,0.022159,-0.031916
-0.0034034,-0.13518,0.091215,0.077569,0.07644,0.050723,0.22666,0.08616
0.045354,0.084521,-0.61866,-0.26571,-0.071622,-0.056786,-0.11886,-0.069174
0.01566,0.1897,0.14802,0.04476,-0.010402,-0.0088145,0.10403,0.04098
-0.014782,-0.044233,0.61329,0.22798,-0.044354,-0.00070669,-0.11883,-0.028844
-0.046223,0.16624,-0.29682,0.026588,0.045688,-0.0011517,0.057844,0.025948
-0.03181,-0.28623,0.11712,-0.082299,0.04928,0.013404,-0.020825,0.010046
0.020866,0.076333,-0.001024,0.011281,0.037197,0.019655,-0.17406,-0.1702
0.0028357,0.12171,0.29584,-0.0045634,0.0098092,0.0099117,0.14564,0.16507
0.023962,-0.056569,-0.57028,-0.11358,-0.087308,0.023351,0.078968,0.0082502
0.061252,-0.021898,-0.061769,-0.026071,-0.035223,-0.064896,0.016032,-0.0076862
-0.049059,0.036966,0.15467,0.078814,0.041209,0.0031597,0.065149,0.031428
-0.017825,-0.021888,0.38822,-0.04075,0.04055,0.0090145,-0.14228,-0.12439
-0.0014295,-0.043203,-0.15362,0.1231,-0.060534,0.015476,-0.21717,0.056074
-0.015818,0.042851,0.0028332,0.062254,-0.004188,-0.039633,0.32345,0.018023
0.03233,-0.005817,-0.26139,-0.044245,0.014201,0.00020444,-0.15434,0.026968
0.017575,-0.087086,-0.032493,-0.19722,0.025653,0.017922,0.07537,-0.050029
0.0020626,-0.09864,0.56587,0.2197,0.053203,0.029047,0.020255,0.0056646
-0.037814,0.046049,-0.69792,-0.11441,-0.0052414,0.025417,-0.077157,0.0064454
-0.00041002,0.12051,-0.031192,-0.067017,-0.056506,-0.040421,0.072963,0.022536
0.0052529,0.17883,0.26499,0.072933,0.00046476,0.0026823,-0.020482,-0.055513
0.018832,0.00099148,0.029369,-0.07696,-0.061226,-0.002261,-0.20779,0.045677
-0.044872,0.015129,0.05223,0.077628,0.047392,-0.0089822,0.34042,0.013574
0.018011,-0.2801,0.56726,0.11536,0.021793,0.052492,-0.21851,0.0044333
0.0049354,0.075758,-0.69367,-0.14308,-0.0048401,-0.075637,0.13962,0.010514
-0.021337,-0.010235,0.26573,0.10707,0.05393,0.013271,0.047924,-0.053975
0.0093374,0.042369,-0.16798,-0.024977,-0.05917,-0.00038706,-0.4313,-0.11069
0.072884,-0.11441,-0.15449,-0.16459,-0.054592,-0.029773,0.3575,0.14534
-0.011421,-0.054446,0.14003,0.17217,0.044586,0.043222,0.0069707,0.042497
-0.018286,-0.039391,-0.2223,-0.085382,0.035427,0.0084226,0.062589,-0.036179
0.058826,0.17567,0.45517,0.054711,0.019492,0.0069104,0.030724,0.026629
-0.085797,-0.049277,-0.30931,0.029918,-0.026829,0.030945,-0.23832,-0.097186
-0.06991,0.07284,-0.0046782,-0.1049,-0.0022574,-0.0057125,-0.081308,0.021969
-0.018516,0.35005,0.012892,-0.013486,-0.032122,-0.041151,0.14996,-0.053609
0.022055,-0.10671,0.30059,0.062383,0.00047254,0.017647,0.065258,0.089837
0.10745,0.00045842,-0.1636,0.029325,0.0093818,-0.080045,-0.053193,0.037862
0.074761,-0.31083,0.058016,-0.049902,0.0023258,0.048,0.13194,0.0087922
-0.059202,-0.13783,-0.02756,0.059158,0.034008,0.026415,-0.096488,0.0022477
-0.098128,0.0035434,-0.10151,0.11423,0.010777,0.042583,-0.033726,-0.083585
-0.033475,0.077326,0.21728,-0.22863,-0.082843,-0.067448,0.016924,-0.029997
0.088281,0.089418,-0.53371,-0.0009124,0.026743,-0.014322,-0.38112,-0.00085186
0.0093872,-0.085548,0.050556,0.0081153,0.050606,0.022671,0.43644,0.027688
-0.012587,-0.10426,0.49267,0.14992,-0.042423,0.012712,-0.038812,0.017063
0.045316,0.13276,-0.19236,-0.075498,0.044539,0.010879,0.12922,0.053693
-0.044081,0.3158,0.15899,0.08201,-0.024508,0.0096556,0.18072,-0.041764
-0.0079742,-0.11834,-0.26633,-0.057002,-0.077812,-0.0611,-0.45686,0.043342
-0.010978,0.20132,0.23427,-0.039088,0.087591,0.079906,0.11302,-0.011348
-0.037869,-0.19256,-0.19893,-0.16859,-0.005028,-0.083016,-0.10302,-0.049772
0.067361,0.098989,0.2466,0.13287,0.027007,0.03593,0.012027,0.045007
-0.039155,-0.42276,-0.27231,0.084119,-0.035125,0.0068736,0.099618,-0.1335
-0.013732,-0.051189,0.05026,0.028692,-0.01171,0.032747,0.012892,0.070748
0.018555,0.2359,-0.088619,0.020748,0.011449,-0.027247,-0.28531,0.016987
0.049766,-0.020417,-0.022822,-0.073292,-0.035738,-0.016996,0.46456,0.11134
0.040674,-0.088852,0.17932,0.14414,-0.020203,-0.038167,0.037162,-0.13069
-0.024473,-0.2053,0.0584,-0.37459,0.034828,0.010708,-0.41863,0.079868
-0.028463,0.48829,0.27923,0.159,0.059129,0.043578,0.24531,-0.0070164
-0.033523,-0.30746,-0.50988,0.080626,-0.0098926,0.044654,0.12968,-0.055322
-0.054702,0.63712,0.033796,-0.13315,-0.024077,-0.040974,-0.28225,0.028944
0.018201,-0.34162,-0.1305,0.072588,-0.0072694,-0.03388,0.22729,-0.027256
-0.0092011,-0.10523,0.52635,0.29193,0.0010267,0.026634,-0.18608,-0.02031
-0.011101,-0.10323,-0.48233,-0.20127,0.00045624,-0.03145,-0.37405,-0.12945
0.11453,-0.12224,0.42731,-0.070518,0.006481,0.1044,0.56992,0.20811
0.047345,0.21494,-0.10573,-0.026028,0.0035719,-0.081191,-0.080182,0.039211
0.036798,-0.24518,-0.074423,0.081556,-0.04697,-0.025201,-0.050381,-0.0037021
-0.11337,0.48565,-0.19737,-0.19202,-0.011754,0.0074716,0.22998,0.00057781
-0.08399,-0.34507,0.081218,0.06835,0.016148,-0.013559,-0.37185,-0.089381
0.030157,0.043003,-0.15869,0.12123,0.084251,0.037565,0.1127,-0.063387
0.0095702,0.017675,0.13188,-0.02533,-0.010117,0.020909,0.034832,0.03119
0.010175,-0.090948,0.29859,0.096957,-0.048044,-0.024093,-0.051124,0.030146
0.032077,0.20461,-0.32142,-0.17716,-0.076597,-0.074059,0.057661,0.043086
-0.018028,0.12699,0.20186,0.033379,0.044317,0.1283,-0.10771,-0.070094
0.016753,-0.32723,-0.030518,0.19533,0.11859,-0.0038788,0.085575,0.050651
-0.026966,-0.051988,0.40234,-0.013423,-0.042224,-0.026502,0.2002,-0.000257
-0.031428,0.22258,-0.29738,-0.25026,-0.017119,-0.01898,-0.34164,-0.019158
0.066236,-0.12493,-0.30188,0.14094,-0.017672,-0.084007,0.17921,0.056758
0.047415,-0.11539,-0.48564,-0.15126,-0.036276,0.11359,-0.018,-0.022457
-0.0020113,0.11182,0.44178,0.16435,0.044579,0.026724,-0.11248,-0.10074
-0.10564,0.33773,0.12279,-0.19063,-0.00081759,-0.02393,0.060242,0.079378
0.017607,-0.072091,0.48076,0.10709,-0.038403,-0.068682,0.055098,0.0096461
0.0082925,-0.12825,-0.36648,-0.041682,-0.11364,-0.074941,0.098665,0.0021601
-0.055399,-0.31084,0.025729,-0.034241,0.11066,0.036903,-0.13742,0.048823
0.11578,0.10287,-0.0086647,0.08205,0.064986,0.07285,0.10418,-0.053575
-0.056058,-0.00027796,-0.26171,0.32844,-0.023978,-0.052213,-0.30998,-0.10957
-0.023801,0.11848,0.17722,-0.18924,0.069671,0.16184,0.11932,0.092142
0.11894,0.20622,0.25799,0.32175,0.0086753,-0.035641,0.23507,0.0052031
-0.065319,-0.23931,-0.24062,-0.53303,-0.075877,-0.044376,0.22405,0.012952
-0.068891,0.13205,-0.022938,-0.099932,0.0095781,0.032426,-0.58619,-0.024833
0.045484,0.062173,-0.16681,-0.11411,-0.10355,-0.11937,0.18684,0.016995
0.011847,-0.073015,-0.045472,0.058398,0.013682,0.03023,-0.14441,-0.033613
-0.029566,-0.27124,0.38308,0.37349,0.056611,-0.066262,0.16254,0.07284
-0.0088595,0.025703,-0.057178,-0.079231,-0.0052206,0.075677,0.22542,-0.0081471
0.034493,0.095605,0.098579,0.1493,0.048299,0.042847,-0.048767,-0.066489
0.021999,0.24781,0.017956,-0.10182,-0.062426,-0.022726,-0.16688,0.10798
0.10963,-0.38846,-0.71815,-0.010216,0.04705,-0.0099903,-0.080951,-0.05554
-0.1793,0.11965,0.22002,-0.18444,-0.036018,0.03585,0.022681,-0.049321
-0.040066,0.70334,0.4577,-0.015528,0.0016573,-0.047864,0.03576,-0.021409
0.027557,-0.87209,0.040504,0.065449,0.0039563,-0.018015,0.13102,0.013372
0.00047666,0.14118,0.24707,0.21264,0.079731,0.047599,-0.2146,-0.014246
0.17596,-0.096511,-0.84025,-0.076385,-0.068959,0.00021094,0.068879,0.045221
-0.13317,0.39444,0.4074,-0.17121,0.048682,-0.028297,0.0037397,0.0050705
0.034239,-0.047344,0.0098051,0.20744,-0.021929,0.10129,0.1584,0.021902
0.053273,0.11248,0.10481,-0.15266,-0.071103,-0.097084,0.14765,0.072092
-0.16205,-0.082802,-0.26218,0.045015,0.0097094,-0.031399,-0.29662,-0.063787
0.028792,-0.33813,-0.075593,-0.074,0.0092914,0.062435,0.19859,-0.035174
0.070983,-0.10637,-0.013836,-0.047441,0.037295,-0.051093,-0.36783,0.0083982
-0.035573,0.14592,0.44103,0.11869,-0.046163,-0.044461,0.043349,-0.074632
0.13098,0.0083595,-0.028352,-0.065868,0.041207,0.19171,0.23046,0.12139
-0.10896,0.20403,-0.09066,0.36931,0.04274,-0.052889,-0.077469,-0.052106
0.049551,-0.091087,-0.31307,-0.47305,-0.06394,-0.14429,0.067914,-0.08702
-0.10398,0.14964,0.26816,0.22001,0.034493,0.044103,-0.33044,0.087601
-0.022066,0.2406,-0.0087335,-0.028325,-0.0052241,0.11567,0.43286,0.0038251
0.061592,-0.30984,-0.19691,-0.078318,-0.08925,-0.25589,-0.21914,0.053089
0.038256,-0.15057,0.11825,0.17021,0.078986,0.20445,0.11956,-0.076454
0.0099126,-0.41539,-0.22012,-0.22979,0.014452,0.075908,-0.01343,0.029653
-0.054619,0.62115,0.5282,-0.045804,0.0052862,-0.15667,0.090435,-0.0034834
-0.007271,-0.065229,-0.23373,0.14217,0.0035562,0.1237,0.069115,0.034931
0.018328,0.23597,-0.14298,0.14497,-0.01521,-0.10727,-0.13436,-0.027286
0.013199,0.048206,0.12382,-0.0073598,-0.044045,0.078786,-0.17759,-0.049878
0.1635,-0.73757,0.23389,0.11434,0.041542,0.0084444,-0.41222,0.076195
-0.14143,0.02746,-0.62126,-0.37235,-0.024157,-0.085498,0.76442,-0.14149
-0.074433,0.29643,0.88427,-0.051872,-0.022021,-0.079417,-0.53643,0.11725
-0.05003,-0.0018228,-0.74193,0.17985,0.087792,0.15847,0.3357,0.032064
0.095999,0.21656,0.22085,0.013593,-0.060835,-0.10682,0.14796,-0.061088
0.036267,-0.051798,-0.23907,-0.031446,0.0020606,0.18704,-0.16941,0.0018703
-0.087439,0.22001,0.024216,-0.030145,0.027638,-0.053473,0.07058,-0.0056352
0.007477,0.20716,0.078923,0.051074,-0.10818,-0.22623,0.053951,0.072605
0.11915,-0.64864,0.35983,-0.052476,0.056067,0.29453,-0.12749,-0.036896
0.029768,-0.37254,-0.03574,0.10382,0.067264,-0.27156,-0.13185,-0.0060421
-0.19771,0.48951,-0.27822,0.064601,0.018635,0.12315,0.070805,-0.022299
0.061603,-0.12126,0.15501,0.052972,-0.0048674,0.072944,-0.098039,-0.054307
0.0024172,0.17625,-0.18418,0.025855,-0.043571,-0.25798,0.28405,0.062166
0.092469,0.1005,0.32505,-0.41906,-0.020658,0.17692,-0.33626,-0.0086272
0.018063,-0.082963,-0.27502,0.23862,0.023725,0.12691,0.20688,0.053773
-0.0031772,-0.11749,0.23014,-0.13569,0.0029861,0.10667,-0.014405,-0.04745
-0.089238,-0.18616,0.10319,0.035862,-0.02829,-0.0096441,0.056033,0.031392
-0.076321,0.095135,-0.57127,0.10584,0.0084706,-0.11304,-0.018433,-0.061431
0.082814,0.27894,-0.30058,-0.15032,-0.07336,-0.46881,0.012407,0.056658
0.0062973,-0.077693,0.61242,0.35576,0.016359,0.056957,0.038832,0.01042
-0.10143,0.32194,0.068832,-0.21718,0.067713,0.25497,-0.0023436,-0.059702
0.13602,-0.19538,0.34473,0.25021,0.073614,0.14262,-0.28376,0.025908
-0.092699,-0.03674,-0.41727,-0.42794,-0.035974,0.10414,0.092356,0.0016931
-0.0057214,0.0022669,-0.020851,-0.03971,0.012187,0.038644,0.2037,-0.038397
0.26411,-0.38611,-0.19267,0.26683,-0.048106,-0.2494,-0.09064,0.062188
-0.057301,-0.068098,0.26946,0.061755,0.016763,-0.04219,-0.244,-0.032139
-0.12731,0.078175,0.075072,-0.18695,-0.059559,0.033857,0.26675,0.046144
-0.072168,0.06781,-0.24602,0.19143,-0.011956,0.039767,0.21457,-0.030824
-0.064862,0.0027544,0.1177,-0.17947,0.042191,-0.01785,-0.11212,-0.051953
0.073541,0.062168,0.29097,0.06619,-0.029797,-0.045932,-0.29994,0.045259
-0.024465,0.68841,-0.49108,0.1148,0.084966,0.11171,0.24429,-0.0049687
0.22713,-0.45285,0.32007,-0.21403,-0.07395,0.0025124,-0.31558,0.0079866
-0.14791,0.082073,-0.74981,-0.029827,0.033023,-0.028755,0.29409,0.028989
-0.086632,0.015656,0.84084,0.1053,0.015654,-0.14486,0.17551,0.010627
0.13017,-0.55577,-0.20274,0.14536,-0.00082848,0.14766,-0.18596,-0.086716
-0.059631,0.25342,-0.12157,-0.0803,-0.016367,-0.15806,-0.093888,0.0098898
0.063012,0.10371,0.24829,-0.031207,-0.0075995,0.094585,-0.60985,0.050049
-0.040733,0.048306,-0.024241,-0.10438,0.01751,0.13175,0.84476,-0.028974
0.043415,-0.54495,0.10538,0.099855,-0.027139,0.014711,-0.0037406,0.022768
-0.12181,0.38883,0.079712,0.035459,0.030184,-0.016184,-0.0079668,0.041354
-0.02835,0.34513,-0.65841,-0.21136,-0.076262,-0.12718,0.11167,-0.07444
0.097461,-0.47747,0.014296,0.14798,0.04403,-0.0078596,-0.59985,0.019647
0.01354,0.25941,0.38615,0.088798,-0.023169,-0.0035946,0.33247,0.0039551
-0.02239,0.080325,-0.12084,-0.11746,0.073448,-0.029269,0.0876,-0.042656
0.02058,0.12562,0.048653,0.26892,0.021022,0.13398,-0.17776,0.028983
0.10281,-0.13728,-0.11251,-0.23903,-0.032424,-0.036237,0.17869,0.055452
-0.1436,0.039801,0.30227,0.067377,-0.040411,-0.0068787,-0.090414,0.005969
0.054026,-0.55573,0.10542,-0.078915,0.051495,-0.025662,-0.74767,-0.064553
-0.093972,0.34076,0.1247,0.040533,-0.037973,-0.1058,0.75652,-0.062414
0.029218,0.010335,-0.64015,-0.13584,-0.027292,0.051728,0.1739,0.074555
0.0094621,-0.062153,0.17829,-0.1138,-0.017476,0.14379,0.13753,0.017646
0.018855,0.20992,-0.20799,0.42976,0.023453,-0.078934,-0.24451,0.0082826
0.057863,-0.37619,0.14809,-0.27558,-0.013129,-0.022987,-0.068461,0.069062
0.0099472,0.3588,0.14719,0.18696,0.068703,0.083879,0.17053,-0.074234
-0.053807,0.14793,0.41639,0.0068058,0.034911,0.021072,-0.25675,-0.070623
0.00025737,0.067142,-0.87894,-0.29169,-0.11452,-0.088513,0.062117,0.056181
0.01675,-0.32359,0.24567,0.12717,0.12791,0.057873,-0.4826,-0.076564
-0.15198,-0.04995,0.26537,0.18399,-0.058676,-0.0098979,0.14903,0.054955
0.10406,-0.011642,0.41175,0.056415,-0.088946,-0.28458,0.46638,0.037248
0.089839,-0.036614,-0.27198,-0.29703,0.1147,0.21854,0.21325,0.019376
-0.069777,0.12694,-0.28183,0.10562,-0.065233,-0.0072898,-0.21867,-0.0059371
-0.039479,0.021317,-0.027144,-0.018861,-0.019406,0.086363,-0.17297,-0.061782
0.031209,-0.083647,-0.21263,-0.11709,0.033651,-0.022271,-0.095689,0.0082028
0.12526,0.050891,0.44332,0.38076,0.031834,0.066703,0.13686,0.024211
-0.040034,0.022673,-0.088168,-0.42347,-0.11035,-0.23166,0.33578,0.048452
-0.044055,-0.056109,0.095328,0.14297,0.084031,0.098653,-0.10931,-0.0053883
-0.098461,0.16723,-0.42315,-0.043651,0.0057787,0.065238,-0.80009,-0.11423
0.085814,-0.33162,-0.037096,0.064969,0.037663,0.042342,0.6706,0.081036
-0.037306,0.31173,0.28104,0.31396,0.077885,0.0054142,-0.20321,-0.0055997
-0.052288,0.053694,0.58067,-0.20167,-0.1317,-0.085869,0.049677,-0.014665
0.050551,-0.072244,-0.36424,-0.066723,-0.0054496,-0.076452,0.12705,-0.016215
-0.039424,-0.2361,-0.45354,-0.26452,-0.066952,-0.037613,-0.047279,0.029155
0.10111,-0.068359,0.42697,0.096523,-0.019288,0.053435,0.17607,-0.011032
-0.019348,0.36428,-0.25787,0.11881,0.12213,0.24324,-0.48441,-0.0037181
0.028594,-0.073253,0.15977,0.27942,0.045091,-0.22606,0.39951,0.027745
-0.045368,0.14263,-0.0033359,-0.41377,-0.062655,0.11448,-0.15889,-0.010489
0.045847,-0.18842,-0.030947,0.21057,0.025585,-0.039455,0.53294,0.021955
0.0030234,-0.05335,0.11475,0.010656,-0.026157,-0.093562,-0.64481,-0.023704
0.027067,-0.30436,-0.71471,-0.1324,-0.022752,0.070029,0.10279,0.0084447
-0.12585,0.2464,0.7003,0.060577,0.051144,-0.047917,-0.068913,-0.022471
0.020121,0.091252,0.048641,0.079622,-0.06261,-0.048202,-0.026909,0.00064938
-0.019025,-0.1385,-0.27776,-0.1788,-0.020577,0.14797,0.15181,-0.023662
-0.03097,-0.1659,0.16732,0.18225,0.075418,0.05671,-0.078,0.022029
0.048887,0.56364,0.032632,-0.0020398,-0.032623,-0.13417,0.15244,-0.0025765
-0.050498,0.0072417,0.028901,0.026269,0.06146,0.067639,-0.20261,0.0044
0.14964,0.087662,0.35098,-0.098961,0.0061248,-0.072237,0.4432,0.035363
0.025933,-0.36015,-0.88434,-0.28996,-0.12037,0.00082846,0.0036425,0.027878
-0.022415,0.061052,0.12758,0.36964,0.010365,-0.072632,-0.61577,-0.08065
-0.12052,-0.09377,0.16059,-0.32098,0.078341,0.16818,0.26381,0.022057
0.0041489,-0.14966,-0.01111,0.21817,-0.0567,-0.11293,0.14965,-0.00022398
0.13143,-0.28755,0.41027,0.15992,0.035246,0.068014,-0.48172,-0.0071451
-0.045007,0.51818,0.089664,0.097918,0.010628,-0.0083528,0.4249,0.040154
-0.097014,0.124,-0.15965,-0.04707,0.0022982,-0.030335,0.01112,-0.030287
-0.033633,-0.20589,-0.74319,-0.28459,-0.021123,0.0011353,0.082796,-0.0074832
0.05843,-0.17582,0.80079,-0.046238,0.0025983,0.030437,-0.085472,-0.039704
0.046071,0.26668,-0.30016,0.15862,0.010621,0.048977,-0.29745,0.052987
0.0075467,0.078434,-0.10745,-0.10841,-0.013017,-0.0062107,0.22864,0.0052463
0.029242,-0.012529,-0.041958,0.090084,-0.013888,-0.15077,0.11786,0.02827
0.025859,0.0087118,0.19381,-0.034345,0.031326,0.068911,-0.25525,-0.026182
-0.18157,-0.12578,0.29508,0.074094,-0.033578,-0.010283,0.25678,-0.025186
0.048272,-0.13007,-0.043809,-0.098947,0.018179,0.02698,-0.11297,0.015656
