-0.098021,-0.028117,-0.063243,-0.024677,-0.024973,0.0046918,0.18445,-0.09621
0.12734,0.043515,0.015502,0.030243,0.014571,0.043817,-0.095025,0.15422
-0.14888,-0.0024736,-0.012845,0.0075362,-0.00075534,0.035397,-0.21027,0.2925
0.182,-0.017641,0.0086871,0.00095484,0.0071392,-0.06741,0.10543,-0.56065
-0.26306,0.013704,0.025626,0.010378,0.0069564,-0.0066345,-0.10011,-0.072516
-0.030669,-0.009894,0.053271,0.0043286,-0.001343,-0.00074216,0.20487,0.14603
0.043867,0.0054285,0.004878,-0.017479,-0.017763,-0.010295,-0.026623,-0.27169
0.22693,-0.0027276,-0.034747,-0.024077,-0.011001,0.019794,0.13434,0.35639
0.042629,0.020393,-0.059031,0.0077583,0.0034271,-0.0038882,-0.12605,0.073099
-0.11022,-0.050183,-0.014412,-0.00020404,0.010053,-0.026478,-0.043739,0.023483
-0.059701,0.051152,-0.0032695,0.014554,0.0090444,0.061346,0.067337,-0.28812
-0.0951,-0.019402,0.091184,0.0052871,-0.0072683,-0.021968,-0.043701,0.11847
0.18945,0.0037096,-0.04351,-0.01999,0.00025969,0.059007,0.052776,0.16758
-0.089216,0.018853,0.0071464,0.017081,0.0081925,-0.055721,-0.087705,-0.085019
0.021818,-0.044341,-0.0061192,-0.0082751,0.00082365,0.0082592,-0.4089,-0.17088
-0.00082269,0.0094132,-0.0042981,0.0056789,-0.014182,-0.030721,0.4114,0.26792
-0.078659,0.0004276,-0.025556,-0.003446,0.0020541,-0.040001,0.054556,-0.13811
0.10925,0.022475,0.016819,0.011266,0.018102,0.027446,0.037199,-0.094815
-0.022235,-0.010344,0.029619,-0.012704,-0.013055,0.015781,0.21091,0.090275
-0.11286,0.0035774,-0.0025316,0.0027146,-0.013364,0.01933,-0.26119,0.055177
0.11942,-0.0060143,0.037496,-0.0050487,0.0093699,0.046515,-0.029201,-0.14763
0.011105,0.039092,-0.053745,0.010821,0.00054567,-0.081823,0.069106,-0.058906
0.054678,-0.048471,0.0044924,-0.0044004,-0.00062854,0.0018613,-0.17873,0.27327
-0.13275,0.020551,-0.030572,-0.011664,0.0060218,0.047717,0.1093,-0.28461
-0.0047345,-0.027035,-0.018907,-0.0031553,-0.0027715,0.0010074,-0.051032,0.40787
0.062977,-0.0034583,0.023332,0.0055005,-0.011249,0.0021499,-0.096266,0.046313
0.03029,0.013396,0.041033,0.014279,0.019729,-0.0038368,0.25638,-0.46217
-0.15092,0.031476,0.049532,0.0074945,0.0042375,-0.064141,-0.17893,-0.092701
0.072623,-0.058631,-0.052852,-0.014956,-0.010894,-0.0071696,0.021064,0.1098
0.0041744,0.039686,0.0074048,0.0014886,-0.0023198,-0.0050272,0.3259,0.13982
0.20489,0.0056176,-0.035006,0.0020108,-0.0092159,0.074918,-0.35814,0.24975
-0.10755,-0.0052765,-0.023294,0.0021378,-0.00045162,0.076272,0.17142,0.012094
-0.082109,0.014033,0.012002,-0.0059824,0.0082385,-0.10263,-0.031854,-0.38384
0.0079074,0.0081185,0.0013345,-0.0066896,0.016762,0.061598,-0.11768,0.024145
-0.10218,-0.00011839,0.023504,0.00012608,-0.029638,-0.10286,-0.063755,0.0023434
0.065892,-0.026495,-0.022615,-0.0088065,0.0096166,-0.017712,0.19947,-0.097702
-0.016857,-0.023893,0.066186,0.01358,0.025139,0.043897,-0.14076,0.2858
0.20678,0.00055955,-0.0072816,0.012782,-0.0064841,0.07451,0.22047,0.19056
-0.29205,-0.014604,-0.032751,0.012381,-0.01487,-0.073967,-0.16934,0.052212
0.19168,0.017761,0.043553,-0.0031613,-0.0077175,0.051846,0.026608,-0.41259
-0.036172,0.012865,-0.076237,-0.026009,-0.0083184,-0.063586,0.012262,-0.13564
0.063699,0.010627,-0.010206,-0.040576,-0.008708,-0.0063055,-0.28993,-0.0094094
-0.017181,0.03486,0.076917,0.038982,0.030301,0.059331,0.35447,-0.0042513
-0.12401,-0.039629,-0.088649,0.025016,0.01502,0.086014,-0.38322,0.22223
-0.040047,-0.057327,0.0087242,-0.027975,-0.015504,-0.13769,0.63641,0.20791
0.20113,0.16031,0.064669,0.043858,0.016757,-0.0028445,-0.18982,0.20966
-0.082516,-0.036473,0.025077,-0.0096881,-0.013343,0.037112,0.22246,-0.22611
-0.096223,-0.086398,-0.023344,-0.032514,-0.027834,-0.017916,-0.58085,-0.02086
0.27553,0.040918,-0.009395,0.0222,0.035656,-0.0037455,0.34573,-0.29016
-0.29644,-0.084537,0.0053679,-0.032983,-0.026065,0.095561,-0.32436,-0.023361
0.054719,0.0062598,-0.087506,-0.010391,-0.0098741,-0.13364,-0.29927,-0.33395
0.016884,-0.021831,-0.029388,-0.01916,-0.00948,-0.058085,0.62764,0.14896
0.098879,0.16826,0.13345,0.089389,0.053299,0.20538,-0.36842,0.045133
-0.19779,-0.12537,0.0028847,-0.020509,-0.0011896,-0.08522,0.37884,0.5973
0.21463,0.067089,0.0085209,-0.012857,-0.016704,0.038862,0.24481,0.17848
0.041202,-0.019262,0.009292,0.018527,-0.0011108,-0.039714,-0.63946,0.081369
-0.075562,0.05338,-0.089323,-0.028087,-0.0091817,0.0069229,0.44888,-0.16021
-0.10274,-0.097898,-0.022699,-0.020102,-0.017561,-0.048042,-0.22173,-0.69935
-0.023392,0.026487,-0.041951,0.011034,0.02058,0.013976,0.077825,0.17245
-0.039899,0.11344,0.19555,0.033949,0.027135,0.05233,0.061867,0.0029651
0.066526,-0.17364,-0.16276,-0.037302,-0.021232,-0.081281,-0.29562,-0.46113
-0.025243,0.078695,0.10887,0.023966,0.00067033,0.082162,0.3647,0.50615
0.26124,-0.036413,0.17405,0.046124,0.022798,0.0039367,-0.27478,0.27252
0.0017294,-0.10551,-0.33443,-0.07987,-0.063916,-0.10468,0.30669,-0.59212
-0.1346,0.050389,0.068269,-0.017722,-0.0013695,0.13937,-1.0326,0.37767
-0.087809,0.063188,-0.077855,-0.0093179,0.0075055,-0.091911,0.80795,0.33839
-0.0081957,0.12714,0.12692,0.047063,0.025229,-0.017391,0.099866,-0.15973
-0.084066,0.19427,0.18399,0.057609,0.067221,0.042284,-0.11452,0.3826
0.15379,-0.30657,-0.24918,-0.032675,-0.054451,-0.038458,0.43038,-0.53007
0.074175,0.030635,0.14846,0.025685,0.018988,0.044317,-0.55026,-0.12787
-0.29698,-0.15286,-0.26369,-0.057024,-0.025618,0.10227,0.31986,-0.0062571
0.17598,0.011798,0.036868,-0.00020016,-0.01696,-0.08412,-0.36599,0.19628
-0.090194,-0.027589,0.11855,-0.0074766,0.021182,-0.046654,0.69629,0.22119
0.10185,0.11476,0.095767,0.014638,-0.0049634,-0.043308,-0.46108,-0.89594
0.20635,0.012004,0.051177,0.011504,-0.0013184,0.059032,-0.30287,0.3378
0.090634,0.14291,0.020657,0.022538,-0.0063103,0.011141,0.13975,0.19912
-0.19127,-0.085183,-0.029338,-0.068849,-0.034735,0.032916,0.13648,-0.26928
-0.25764,-0.10215,-0.12283,0.0037121,0.015832,-0.093052,-0.2272,0.5673
-0.0080916,0.22342,0.14041,0.053481,0.021109,-0.029518,-0.12951,0.2385
-0.029563,-0.21227,-0.14147,-0.020461,0.02839,0.11518,0.48571,-0.43353
0.12247,0.19749,-0.039839,0.040114,0.014264,-0.017771,-0.21006,0.0019337
0.13482,-0.24514,-0.30435,-0.038112,-0.029463,0.0091245,-0.27532,0.37506
0.42082,0.028161,-0.21591,-0.028769,0.0058772,0.023393,0.6568,-0.39989
-0.61422,0.0083515,0.38034,0.036429,0.0022089,-0.022909,0.23795,-0.28386
-0.072994,0.03876,0.35477,0.024013,-0.010108,0.017317,-0.7273,0.021246
0.13697,-0.02103,0.30781,-0.035502,-0.023981,-0.099486,0.42336,-0.0046445
0.045655,-0.037657,0.01525,-0.0099858,-0.01639,0.0083267,0.14956,0.050578
0.38639,0.12227,-0.22712,0.0062988,-0.0030174,-0.0037903,-0.56317,0.34353
-0.45084,0.037239,-0.28928,0.067797,0.071122,0.12165,-0.39734,0.52485
0.096378,-0.058283,-0.1033,-0.051972,-0.019954,0.017587,0.5471,-0.62079
-0.026003,0.062158,-0.09107,-0.024477,-0.0098656,-0.16697,-0.4353,-0.2456
-0.12135,-0.11712,-0.12394,-0.04437,0.00062996,0.092267,0.10881,0.13104
0.10127,0.16982,0.43087,0.014142,-0.026794,-0.07088,0.60225,-0.31549
0.081475,0.0098278,-0.16511,0.065882,0.017796,0.04771,0.13855,0.0031139
-0.17869,-0.38454,0.047544,-0.037033,-0.02155,0.03479,-0.22263,0.47822
0.22083,0.098293,0.037197,0.088435,0.058288,0.023677,-0.48739,0.29626
0.093461,-0.1252,-0.032894,-0.081308,-0.039872,-0.087058,0.54587,0.017138
-0.13871,0.072055,0.11598,0.03918,0.019339,0.077349,-0.025318,-0.15158
-0.093324,0.55843,0.080252,0.035128,0.03207,-0.014876,-0.19076,-0.25982
0.017739,-0.088015,-0.17939,-0.070781,-0.049321,0.0027818,0.24705,-0.043569
0.021448,-0.2124,-0.048692,-0.06042,-0.014563,-0.057853,-0.91986,-0.06476
-0.091177,-0.11399,-0.055979,0.050219,0.010884,-0.017628,0.20348,-0.34401
0.27261,-0.006595,0.18356,0.011086,0.011217,0.084098,0.56824,-0.048782
-0.28637,-0.15856,0.18002,-0.013514,-0.013447,0.020747,-0.21693,0.41155
0.12206,0.30308,-0.17997,0.031563,-0.00023151,-0.10588,0.80118,0.25142
0.15404,0.14296,0.15677,0.060935,0.035787,0.048392,-0.54879,0.1046
-0.12778,-0.41219,-0.39411,-0.12016,-0.045401,-0.070637,-0.438,0.11737
-0.23086,0.14661,0.054895,0.043388,0.0067706,0.060903,-0.24058,-0.30917
0.11871,-0.092813,-0.12195,-0.010638,0.0052181,0.083896,0.77887,0.16165
0.27292,0.15288,-0.11176,0.030324,0.043895,-0.017258,-0.24559,-0.094888
-0.32261,-0.059849,0.21027,-0.0057302,-0.033483,-0.070897,0.14838,-0.49141
0.31651,0.02784,-0.088039,0.0059089,0.0072168,0.0085368,0.071765,0.09311
-0.17714,0.0018497,0.5888,0.01016,0.0093629,-0.0059546,-0.55181,0.28281
-0.093084,0.07982,0.12122,-0.055901,-0.019661,0.02589,0.24044,-0.068593
-0.14287,0.048856,-0.098434,0.018279,0.0057021,0.10388,0.012829,-0.27694
0.36822,0.18004,-0.2115,-0.0019728,-0.031989,-0.26411,-0.006503,0.18694
0.096063,-0.3726,-0.30524,0.078473,0.046862,0.14095,0.1445,0.41482
-0.25624,-0.14186,-0.1063,-0.11546,-0.062367,-0.016403,-0.15865,-0.010245
0.061847,-0.07371,-0.073061,0.0099948,0.023317,-0.0012576,0.45893,0.063691
-0.096916,0.11342,0.097271,0.017394,0.038519,0.2025,-0.22993,-0.43176
-0.090116,0.29555,0.18725,0.086513,0.0068917,-0.21729,-0.39798,-0.12885
0.15473,0.099037,0.05217,-0.016923,-0.0011014,-0.018353,0.0789,0.15168
-0.071127,-0.045087,0.040834,-0.027166,-0.016639,0.025703,0.4265,0.03379
-0.047248,-0.30758,0.025641,0.0012732,-0.016285,-0.038679,-0.55117,-0.046477
0.34433,0.054592,0.0032561,-0.10323,-0.023523,0.1316,0.44201,0.25287
-0.26409,0.0029937,-0.08558,0.050263,0.031893,0.035768,-0.30601,-0.28893
0.0084572,0.171,0.034467,0.040219,0.017083,-0.014445,-0.39848,0.075853
-0.020836,-0.08143,0.12981,-0.023706,-0.021138,-0.13682,1.0997,0.14176
0.097193,0.12142,-0.14325,0.053943,0.0031111,0.035555,-0.15011,-0.14811
-0.0011007,-0.2118,-0.22243,-0.039389,-0.0039675,-0.012809,-0.25231,0.24364
0.10225,-0.025578,0.079527,0.047601,0.027891,-0.00013379,0.095805,0.12871
-0.072218,-0.24108,0.028044,-0.052704,-0.018545,-0.0037358,-0.70788,-0.47679
-0.36961,0.37638,0.044733,-0.028308,-0.03394,-0.0070969,0.27544,0.061839
0.31213,0.16248,0.043045,0.042191,0.020737,0.076485,0.23648,0.060259
-0.11063,-0.086825,0.037401,0.010018,0.020466,0.0052818,-0.36711,-0.43857
0.19409,0.0020302,0.049317,0.015687,0.02774,0.037172,0.48531,0.57698
-0.15955,-0.096048,-0.017494,-0.042211,-0.051181,-0.054716,-0.20182,-0.14807
0.060081,-0.093462,-0.056489,-0.030448,-0.013135,-0.044391,-0.027085,0.043541
-0.11905,0.087015,0.10157,0.051595,0.032567,0.044037,0.46361,0.19745
0.11892,-0.062564,-0.25616,-0.07662,-0.0077337,-0.071285,-0.11364,0.099309
0.080373,0.036525,0.23681,0.12464,0.030128,0.038907,-0.37101,-0.24022
-0.18802,-0.24748,-0.16096,-0.086351,-0.049061,-0.008389,-0.37477,-0.14696
0.10855,0.11772,-0.05665,0.017159,-0.0030402,0.01341,0.52739,0.26486
0.10718,0.21083,0.11557,0.028728,-0.0036606,-0.012715,0.12904,-0.3751
-0.0011726,-0.0074581,-0.07784,-0.03655,0.034979,0.046283,0.1156,0.19021
-0.049038,0.20392,0.12478,0.07054,0.034658,0.0031452,-0.26349,-0.037347
0.038079,-0.008346,-0.031264,-0.010267,-0.020374,-0.02472,-0.47591,-0.24119
-0.11702,-0.16173,-0.028597,-0.014158,-0.0052353,0.080094,0.21505,0.31077
-0.38974,-0.34346,-0.054629,-0.090131,-0.044977,-0.1431,0.085821,-0.0083664
0.45562,0.1259,0.099946,0.027252,0.0010785,0.056025,0.31123,0.26748
-0.21889,-0.041679,0.12736,0.01009,0.00028327,-0.040888,0.088689,-0.42851
0.10564,0.10907,0.047044,0.038655,0.046641,0.011906,-0.15917,0.08458
0.29953,0.080904,-0.17644,0.012199,-0.0080039,0.042912,-0.3003,0.024316
-0.20519,-0.053195,-0.14051,-0.052781,-0.030595,-0.01014,0.26468,0.16081
0.061315,0.060304,-0.042985,0.024148,0.025881,0.024626,0.009251,0.2236
-0.14333,0.039369,0.029198,-0.02217,-0.033904,-0.05619,-0.077875,-0.38648
0.093647,-0.10874,0.053146,0.019295,0.039873,0.090641,-0.2421,-0.01039
-0.14381,0.20802,0.17918,0.054482,0.020331,-0.043382,0.33447,-0.15186
0.16554,-0.098683,-0.011773,-0.042265,-0.03825,-0.0058654,-0.060309,0.20296
0.027583,0.054604,0.046097,0.025056,0.019968,-0.039638,0.05819,0.054461
-0.1059,-0.19343,-0.20635,-0.049152,-0.016292,0.034548,0.12923,-0.20433
-0.18078,-0.085923,0.015192,0.031233,-0.0066007,-0.041294,-0.42218,0.29772
0.15474,0.080401,0.064697,0.015773,0.0021474,0.029795,0.017416,-0.14559
-0.0047507,-0.10743,-0.032939,-0.087743,-0.028968,-0.017524,-0.016241,0.056357
0.06064,0.094294,0.019371,0.049209,0.0096806,0.0046387,0.27005,-0.28793
0.063025,-0.00053626,-0.053084,-0.03358,0.0089951,0.034178,-0.12843,0.042528
-0.00445,0.1088,-0.057894,-0.0070823,0.031699,0.055786,0.29759,0.28231
-0.18021,0.3518,0.070768,0.090521,0.031028,-0.055334,-0.10074,0.03101
0.20794,-0.13973,-0.016621,-0.0057202,-0.016467,-0.025648,-0.2943,0.15975
0.12108,-0.031215,0.22817,0.048286,-0.0093278,-0.034817,0.42438,-0.28969
-0.47983,-0.49566,-0.13073,-0.15375,-0.072681,0.0030961,-0.34726,0.028876
0.17874,0.11507,0.081608,0.059642,0.035575,0.095911,0.12892,0.15773
-0.012508,0.067358,0.089746,0.0003079,0.0029423,-0.037593,-0.58016,-0.45293
0.055846,-0.058873,-0.04192,0.003379,0.0092109,-0.03018,0.71067,0.094649
0.11804,0.22311,-0.1194,0.028989,0.023304,0.0010127,-0.085531,0.1693
0.072103,0.032783,-0.069122,0.045221,-0.0014532,0.0013253,0.015916,0.032444
-0.19982,-0.073562,-0.13427,-0.088964,-0.049269,0.0019848,0.016544,0.07176
-0.018909,0.037312,-0.20482,-0.0064578,0.020568,0.010703,-0.18265,-0.23101
0.10619,-0.018338,-0.21877,0.019578,0.012718,-0.0039641,-0.039327,0.050596
-0.0048821,-0.14111,-0.18084,-0.049332,-0.010475,0.012396,-0.018639,-0.033341
0.006948,0.26753,0.65504,0.076663,0.028851,0.020397,-0.11721,0.20605
-0.12385,-0.12382,0.8075,-0.023464,-0.0024406,-0.01934,0.40973,0.26823
0.017239,-0.0055916,0.2708,0.018224,-0.003101,-0.028925,0.00096911,-0.23179
-0.084782,-0.012611,-0.20206,-0.0086754,-0.0046044,0.030609,-0.42974,-0.14869
0.10971,-0.075236,-0.52545,0.021077,-0.030454,-0.051597,0.35779,0.01417
0.054096,-0.075493,-0.45647,-0.033202,0.0054136,0.068461,0.032063,-0.089762
0.10752,0.059008,-0.20784,-0.0077712,-0.013883,-0.06977,-0.17681,-0.11857
0.050539,0.081205,0.00033187,0.050002,0.013643,0.010716,0.10958,0.20048
-0.16472,-0.068198,0.0042289,-0.016702,0.02594,0.021276,-0.042243,-0.1715
-0.054887,0.058961,0.062615,-0.052186,-0.015683,0.055988,-0.080068,0.24278
0.035601,0.08187,0.22146,0.036831,0.037418,0.021293,-0.027997,0.11597
-0.23713,-0.084537,0.15416,-0.070308,-0.049134,-0.082749,0.13091,-0.12169
0.1665,0.0673,0.11883,0.016797,-0.0021077,-0.021804,0.016944,0.1316
0.2242,0.16908,0.13504,0.14959,0.053142,0.00090597,-0.029542,-0.18653
-0.02341,-0.24951,-0.15079,-0.078186,-0.024423,0.0087107,-0.56613,0.0022676
-0.15264,-0.018074,0.057834,-0.0024027,-0.00079155,0.071826,0.22424,-0.0044195
0.072681,-0.043952,0.02102,0.017774,0.01445,-0.028574,0.8136,-0.11154
-0.18953,-0.16355,-0.12909,-0.095429,-0.064626,-0.034725,-0.29656,0.01871
0.13234,0.15443,-0.0028964,0.041297,0.020045,0.014288,-0.2006,0.091573
-0.039008,0.090007,-0.08366,-0.032385,0.0032816,0.055967,0.036573,-0.031653
0.10914,0.15904,-0.030244,0.066945,0.018433,-0.081546,-0.049599,0.0095993
0.076317,-0.0057538,-0.1528,0.035096,0.011304,0.01582,-0.13502,0.16066
-0.076124,-0.26428,-0.10837,-0.096414,-0.049044,-0.050414,0.19854,-0.15017
-0.20147,0.10914,-0.042894,0.016119,0.009288,-0.0069466,-0.16875,0.16025
0.088751,0.17608,0.023777,0.044175,0.068805,0.18502,0.09773,-0.24011
-0.090689,-0.12667,0.41415,0.049557,0.011713,-0.084267,-0.10347,0.10519
0.16401,-0.17424,0.22835,-0.078007,-0.037785,-0.0027736,0.18205,0.090156
0.24902,-0.044194,-0.001016,-0.019139,-0.025821,-0.055301,0.042355,-0.023258
-0.15775,0.022496,-0.1374,0.06132,0.031333,0.062558,-0.12169,-0.19051
-0.12761,0.29315,-0.16609,0.0066747,-0.038521,-0.071102,-0.37028,0.14254
-0.10588,0.011761,0.080899,-0.01899,-0.008716,0.028361,0.56393,-0.014895
0.1117,-0.093522,-0.0028162,0.00049522,0.019714,-0.044772,-0.0056707,-0.14393
-0.043019,-0.18576,-0.15519,-0.082292,-0.014878,0.038324,-0.25887,0.2836
-0.12971,-0.061648,-0.30655,-0.047286,-0.017739,0.02837,0.022119,-0.27359
0.21404,0.1999,0.17141,0.10687,0.035505,-0.011555,0.10915,0.16679
0.069051,0.018956,0.22371,0.045345,0.020513,0.012612,-0.030824,-0.22613
-0.047188,-0.029034,-0.083677,-0.067248,-0.015611,-0.024147,0.15532,0.317
-0.0558,0.14642,0.1618,0.065807,0.036244,0.034078,-0.19278,-0.12386
-0.19157,-0.11431,-0.0085222,-0.0017185,-0.012132,0.0070195,-0.13773,0.044743
0.34881,-0.095338,-0.094119,-0.029168,-0.021136,-0.020068,0.086824,-0.13269
-0.006853,0.18588,0.19392,0.067522,0.0081068,-0.024386,-0.056755,0.17568
0.012962,-0.19279,-0.3414,-0.065063,-0.0035387,0.024855,0.19103,-0.090009
-0.046211,0.020152,-0.016439,-0.037762,-0.048963,-0.067863,-0.24648,-0.0055484
-0.23944,-0.023656,0.045139,-0.0075995,0.02,0.033456,0.2487,0.15853
-0.27696,0.016199,0.068483,0.025496,0.0082263,-0.02249,0.082674,-0.093517
0.27254,0.043226,-0.0051514,0.0077462,0.025688,0.077159,-0.050337,-0.036809
0.17665,-0.20339,0.28678,-0.12178,-0.051738,-0.018815,-0.10526,-0.28028
0.0073415,0.30349,0.11643,0.19353,0.073814,0.033575,0.095565,0.037829
0.12471,-0.090481,-0.35202,-0.091289,-0.034225,-0.023394,-0.082447,0.23375
-0.13591,0.13002,-0.00021801,0.017512,-0.023564,-0.080393,-0.15594,0.061788
-0.073419,-0.029656,-0.192,0.052113,0.035903,0.049941,0.078173,-0.036662
-0.073694,-0.22999,0.055505,-0.12013,-0.043252,0.0080805,-0.027585,-0.1448
0.28937,0.22691,-0.013829,0.13303,0.059024,-0.010763,-0.12776,0.16025
-0.089119,-0.078319,0.15148,0.021396,-0.0015348,0.016857,0.45939,-0.059872
-0.031854,0.0061677,0.034792,-0.089287,-0.014637,0.052041,-0.084444,0.11422
-0.078733,0.18083,0.2222,0.049581,0.019073,-0.014258,-0.10145,0.030519
-0.18971,-0.33597,-0.42667,-0.070871,-0.088412,-0.13469,-0.12192,-0.21321
0.075417,-0.065687,0.071896,-0.021465,0.02981,0.050672,0.010682,0.23143
0.033121,0.066013,0.14513,0.010416,0.022142,0.018915,0.038172,-0.24671
0.14883,0.15038,-0.2352,0.033235,-0.0018534,-0.05773,-0.063804,-0.053787
0.012626,-0.17423,0.38439,-0.092668,-0.018414,0.14892,0.094034,0.13257
-0.11462,0.17497,-0.013945,0.10244,0.043137,-0.0333,0.056941,-0.08242
0.14349,0.13049,-0.20808,0.088009,0.034673,0.02778,-0.028332,0.0089505
-0.065002,-0.19007,-0.071212,-0.065418,-0.059242,-0.028075,0.024206,-0.0028105
0.023457,0.12518,0.10079,0.0011882,-0.04325,-0.11583,-0.028698,-0.0046801
0.030635,-0.26398,-0.066018,-0.17395,0.020058,0.11533,-0.023388,0.19283
-0.27376,0.45713,0.070772,0.25176,0.075804,-0.077217,-0.1548,0.074028
0.4427,0.12639,0.16272,0.05059,0.03782,0.064273,0.14068,0.043115
-0.25228,-0.58141,-0.27758,-0.20804,-0.10973,-0.077097,-0.010292,-0.18474
0.0072093,-0.052105,-0.032574,-0.040127,-0.046662,-0.0086173,0.003519,-0.12172
-0.20833,0.25286,0.18733,0.17186,0.047304,-0.01095,-0.1053,0.024735
0.15728,-0.32075,-0.21743,-0.157,0.0081833,0.13514,0.18778,0.047957
-0.17493,0.08265,0.20939,-0.032964,0.047062,0.054908,-0.10136,-0.20283
0.18811,0.18692,0.096558,0.076985,-0.0077599,-0.079755,0.12038,0.029225
0.20146,0.29409,0.11222,0.096353,0.01576,-0.019024,-0.02337,0.3225
-0.071489,-0.19318,-0.51303,-0.028408,-0.038492,-0.060002,-0.0031609,0.1079
0.06428,0.048096,0.25579,-0.046895,-0.037604,0.015904,0.015174,-0.14398
-0.21293,0.0031387,0.085981,0.056093,0.0028565,-0.056925,-0.22748,-0.3372
0.17297,-0.18043,-0.30904,0.0059551,0.051643,0.081062,0.20589,0.23364
-0.24112,-0.25475,0.22854,-0.12087,-0.071,-0.046413,-0.16085,-0.02293
0.066517,0.3163,0.027298,0.11907,0.072271,0.076581,-0.045206,0.090457
0.001218,0.12312,0.23501,0.020918,0.043718,0.067467,0.10148,-0.018195
-0.015083,-0.12663,-0.27506,-0.065035,-0.031943,-0.042375,0.14046,-0.011624
0.018602,-0.045261,-0.24765,-0.037848,-0.022173,-0.08885,-0.082999,-0.17808
0.096166,0.052466,0.32983,-0.038077,-0.044352,-0.017288,0.049231,0.15453
0.05566,-0.17861,-0.18635,-0.15099,-0.036041,0.047286,0.029509,0.0013996
-0.022571,0.44859,0.28699,0.31194,0.10441,-0.0045156,-0.048914,0.072363
-0.13646,-0.3387,0.099407,-0.015334,-0.036871,-0.016465,-0.062,-0.1656
-0.18276,0.031466,-0.21879,0.024408,0.016949,0.026981,-0.026543,-0.21479
0.29286,0.14756,-0.31578,0.041219,0.01611,-0.022812,-0.045231,0.36743
0.0019731,-0.44826,0.23172,-0.32394,-0.093907,0.04475,0.084124,0.14088
0.077431,0.2941,-0.20691,0.1165,0.07757,0.041688,0.0014516,0.12676
0.026597,0.18225,0.081665,0.15927,0.046078,-0.040373,0.026582,-0.14503
-0.26074,-0.21919,0.41967,-0.12553,-0.079217,-0.045735,-0.028326,-0.37765
0.018987,-0.0030255,-0.32485,0.074347,0.013893,-0.029528,0.11772,-0.28057
-0.19806,0.221,0.12882,-0.014755,-0.003037,-0.015437,-0.21519,0.21927
0.29747,-0.2753,-0.0024339,-0.10398,-0.0052959,0.098098,0.18375,0.21131
0.050526,0.4664,0.11458,0.079914,0.061603,0.053512,-0.091748,0.30054
-0.034882,-0.35384,-0.19491,-0.0023256,-0.052408,-0.10184,-0.07281,-0.19013
-0.015926,-0.27031,0.13721,-0.10094,-0.050364,-0.015729,0.15496,-0.048556
0.22996,0.37077,-0.061702,0.19007,0.091431,0.047015,-0.0094449,-0.01732
-0.16636,-0.064921,-0.14991,0.026682,-0.00161,-0.022151,-0.080894,0.089298
-0.18246,-0.1325,-0.20259,-0.14593,-0.071141,-0.034961,0.011818,-0.098574
-0.068023,0.09061,0.30019,-0.0073766,0.016253,0.032602,-0.042887,-0.044824
0.045926,0.13723,-0.24626,0.075606,0.050239,0.03239,-0.017647,0.20109
0.20943,-0.13109,0.052617,0.025753,-0.023334,-0.082554,0.049002,-0.26099
-0.049944,-0.063471,0.33175,-0.077556,-0.016575,0.077928,-0.022505,-0.19736
-0.016711,-0.071704,-0.12801,-0.1547,-0.0074243,0.098977,0.22845,0.29866
-0.077226,0.38512,0.4047,0.14738,0.027489,-0.12197,-0.13634,-0.053002
-0.056247,-0.3481,-0.24704,-0.07643,-0.044986,9.5702e-08,0.030663,0.13987
0.14191,0.26805,0.18419,0.2369,0.071436,-0.035984,-0.14641,0.12889
-0.099777,-0.29812,-0.66654,-0.092666,-0.022464,0.027332,0.011532,-0.12365
0.1936,-0.032126,0.12659,-0.058529,-0.015065,-0.013343,-0.034776,-0.29646
0.089061,0.39262,0.054491,0.12641,0.045913,0.021911,0.089894,0.15796
-0.3006,-0.32244,-0.21727,-0.25118,-0.10583,0.0008455,-0.043612,0.083705
0.1057,0.45398,0.40114,0.29072,0.099638,-0.021059,0.11224,0.012155
0.092418,-0.2479,0.047887,-0.09361,-0.0017602,0.082094,-0.027911,0.13863
-0.2894,-0.43623,0.017813,-0.17097,-0.081525,-0.040368,-0.041846,-0.37293
0.16108,0.061212,-0.11366,0.019365,0.040735,0.049848,0.031403,0.11
-0.049054,0.22184,-0.022581,0.087492,-0.024695,-0.10757,-0.050635,-0.069374
