-0.0080217,-0.042249,0.14248,0.035647,-0.022094,-0.027126,-0.0075959,-0.023913
-0.0010979,0.010788,-0.10578,0.027176,0.0086282,0.011714,0.0076544,0.031571
-0.0017565,0.0099321,0.28053,0.02054,0.0081157,-0.012415,-0.0085308,0.0015537
0.013595,0.02557,0.10358,0.023108,0.0075852,0.017766,0.006405,-0.0046864
0.01377,0.01075,0.23576,0.010732,0.0070125,0.0086827,0.0056537,0.004894
-0.001281,0.0043224,-0.23917,-0.040825,-0.0092269,-0.016002,-0.010714,-0.0089409
-0.00046337,-0.02527,-0.50987,-0.077566,-0.025471,-0.001368,-0.0035676,-0.0073076
-0.0074439,-0.0080441,0.33804,0.071986,0.013044,0.0059042,-0.0040995,-0.0059898
-0.0068453,-0.006786,-0.24826,-0.045312,-0.0029539,0.005933,0.011169,0.018332
0.0089379,0.017384,0.12492,-0.0072368,0.012578,-0.0012644,0.0031943,-0.0047189
-0.02271,-0.029338,0.1643,0.014928,-0.0027813,-0.0079672,-0.0045914,0.0029762
0.015401,0.02499,-0.11904,-0.048485,-0.009946,0.009074,0.003413,0.0024055
0.0062086,0.016463,0.06605,0.13114,0.022283,0.0027294,-0.0040736,-0.0063304
-0.018817,-0.039096,0.18876,-0.055397,-0.0077805,-0.011656,0.01199,-0.0074687
0.018722,0.014748,-0.010093,0.04795,0.0012441,0.0047247,-0.0030807,0.0069609
-0.013715,0.0062624,-0.064571,0.0031481,-0.021161,-0.0030048,-0.017999,-0.0097601
0.016907,0.044904,0.17019,-0.026451,0.018566,0.011947,0.0063609,0.012813
0.0091589,-0.017734,-0.41865,-0.049331,0.0031021,-0.0050691,-0.00024324,0.0044544
-0.021312,-0.017584,-0.24777,0.012204,-0.0050996,-0.01483,-0.0065228,-0.011365
0.0035337,-0.017135,0.416,-0.045015,0.0096372,0.0063611,-0.0047021,0.020017
-0.0024221,-0.047614,-0.16923,0.013759,-0.038478,-0.011495,0.0050684,-0.01084
-0.00036167,0.023815,0.29502,0.032989,0.014832,0.010043,-0.0009297,-0.010282
-0.0061841,0.025258,-0.055954,-0.0020707,0.0057477,0.0087342,0.039412,-0.0018448
0.018907,0.026919,-0.070908,0.034425,0.012613,0.0081759,0.00065496,-0.001238
0.0043819,-0.0026756,-0.020626,-0.036598,0.0043283,0.00059119,-0.00039863,0.0071002
-0.010835,0.022088,0.011059,0.011677,-0.0034295,-0.0062921,-0.010834,0.0075082
0.004477,-0.0007097,-0.099564,0.022845,-0.0028989,0.0029734,-0.022765,0.0077868
-0.0042783,-0.0088603,0.11659,0.058896,-0.0020292,-0.018716,-0.051407,-0.015491
-0.029089,-0.080615,0.026052,-0.084044,-0.016634,-0.0012817,0.052408,-0.0076071
0.01626,0.018505,-0.099308,-0.047426,0.0077776,-0.0074285,0.016187,0.0080471
0.0070655,0.0075836,0.011656,0.06644,0.031974,0.025192,-0.018469,0.0080907
-0.0017296,-0.003508,-0.057846,-0.10238,-0.030089,0.03399,-0.14452,-0.0074184
0.013468,0.032644,0.27533,0.070807,0.0012433,-0.051379,0.23221,0.00062995
-0.0098229,0.0071164,-0.12404,0.054673,-0.014608,-0.012151,-0.052452,-0.014613
0.014218,0.013917,0.023668,-0.064714,0.0084002,0.011098,-0.022595,0.0093468
0.015052,0.021818,-0.10229,0.11137,0.023529,0.010623,0.094131,0.025594
-0.031029,-0.031881,-0.079089,-0.088563,-0.023772,0.0021132,-0.10984,-0.02063
-0.0070868,-0.038147,0.033092,-0.015574,0.015041,0.024695,0.028296,0.003396
0.008595,0.018258,0.15171,-0.0050407,0.0072163,-0.0075048,-0.039266,0.0038357
-0.007455,-0.0036274,-0.29744,-0.0016781,-0.00035897,-0.016279,0.0073944,-0.011561
-0.00045164,-0.010275,0.072231,0.049778,-0.015523,-0.0093184,-0.019001,0.0040582
-0.0014465,-0.0017725,0.3105,-0.037697,-0.0070719,0.0057294,-0.039564,-0.01178
0.013241,0.045349,-0.096805,-0.013817,0.0015001,-0.010001,-0.014117,0.011301
-0.010854,-0.040677,-0.04842,0.0042606,0.0023245,-0.0094485,0.12885,-0.004737
0.020161,0.037161,-0.015152,0.039701,0.018779,-0.00030598,0.046609,0.018311
-0.0030648,-0.0022627,-0.070777,-0.0096109,-0.02733,0.0096039,-0.04927,-0.013252
-0.010314,-0.033856,0.16325,0.050873,0.020163,0.04354,-0.010177,-0.0056658
0.0060343,0.012742,-0.12207,-0.08438,-0.010711,-0.016035,-0.12544,0.0097842
0.0066802,0.0047332,0.28063,0.076049,0.028389,0.025724,0.11998,0.0017752
-0.00078039,-0.011019,-0.34182,-0.054314,-0.0032336,-0.019181,-0.0090093,0.0014688
-0.016485,-0.0032861,-0.028921,-0.030358,-0.035286,-0.049597,0.018126,-0.0068381
0.0064229,0.051345,0.15817,0.023089,0.010406,0.0045644,-0.0179,0.008063
-0.01788,-0.042452,-0.33246,-0.057556,0.008972,0.026143,-0.078311,-0.016314
-0.0032385,-0.019055,0.14329,0.025239,-0.031583,-0.031459,0.040009,-0.0017689
0.011556,0.0043616,0.0028309,0.061193,0.021773,0.019727,-0.02991,0.0049485
0.011131,0.020006,0.24071,-0.0038941,0.012996,0.0083899,0.11071,0.0039904
0.019092,0.027902,0.08431,0.05676,-0.0030909,0.00538,-0.061238,0.0033165
-0.019204,-0.042246,0.024991,-0.038162,0.0048073,0.011108,0.024781,-0.0047739
0.0055274,0.012698,-0.11901,-0.03893,0.0053799,-0.013277,-0.060899,0.011024
0.014963,0.020867,0.14976,0.015055,-0.0093319,0.0025294,0.056541,0.011641
-0.030212,-0.041167,-0.26454,-0.0092714,-0.008275,-0.0041791,-0.029497,-0.026427
0.010382,0.021923,-0.19086,-0.041656,0.00053425,0.01313,0.047753,0.0060954
-0.011877,-0.0086005,-0.018949,0.011824,-0.0065136,-0.016254,-0.0011428,-0.0081002
-0.011149,-0.023362,0.08173,0.042144,0.0095285,0.0010468,-0.027943,0.0011781
0.012563,0.055736,0.020798,-0.067472,-0.006078,-0.0055601,-0.032563,0.0025675
0.0046341,-0.013559,0.10631,0.050476,-0.0064518,-0.020598,-0.0067767,0.0037779
0.019848,-0.004791,0.16878,-0.0023757,0.02408,0.034048,0.050123,0.01253
-0.019832,-0.027469,-0.095809,0.054976,-0.0081597,0.010044,-0.0094078,-0.010318
0.010652,0.0042069,-0.09504,-0.059275,0.014105,-0.029932,-0.11415,0.0054896
-0.0058604,0.035438,0.34771,0.083798,-0.018399,0.00025687,0.064748,-0.0025695
0.0087582,-0.0041379,-0.12322,-0.040012,-0.0039948,0.0070406,0.082322,-0.0032201
-0.00016993,-0.0051114,0.097501,0.068732,0.026199,0.045233,0.055643,-0.012006
-0.01698,-0.022032,-0.63381,-0.24638,-0.060488,-0.049167,-0.015891,0.010266
0.0052923,0.031271,0.22845,0.10871,0.025139,0.012905,-0.18795,-0.006548
-0.019157,-0.055841,-0.0024413,-0.013641,0.0097426,-0.010773,0.17893,0.008036
0.0035809,0.0059935,-0.19121,-0.0030076,0.01836,0.0047476,-0.10389,-0.00052335
0.011154,0.0060636,0.28275,0.10263,0.019699,0.012553,-0.029521,-0.00088772
0.034906,0.06944,-0.022523,-0.03962,-0.0097976,-0.0029984,0.065573,0.0069541
-0.011088,-0.03839,0.55165,0.023743,-0.054688,-0.026279,-0.0062092,-0.008318
-0.025346,-0.020909,-0.49383,-0.058989,-0.0058137,-0.010399,0.01328,3.3462e-05
0.0075913,0.03541,0.27784,0.070904,0.035041,0.029024,0.030995,0.016207
-0.014055,-0.010672,-0.51807,-0.056321,0.012988,0.029474,0.040084,-0.0068486
0.011042,0.004339,0.3347,0.13638,0.013806,-0.016908,-0.21618,-0.014582
0.012355,-0.013693,-0.2209,-0.1566,-0.01729,0.007003,0.10699,0.016381
0.020972,-0.017985,0.30569,0.06422,0.029058,-0.000415,-0.013022,-0.02331
-0.041323,0.015168,-0.27358,-0.13869,-0.081452,-0.054816,0.025791,0.0070787
-0.018291,-0.015171,-0.19261,-0.022732,0.010712,0.015688,0.082767,-0.0016638
0.012007,0.032541,0.19829,0.076872,0.016704,-0.0076036,0.0089324,0.0053264
0.018438,-0.04375,0.088214,0.059282,0.014877,0.031619,-0.056025,0.012567
0.016773,-0.024236,0.22074,0.065622,0.036677,0.024018,-0.050763,-0.0033116
0.0071602,0.11538,0.0030056,0.017883,-0.0037025,-0.006977,0.031386,-0.011082
-0.025881,-0.0541,-0.35385,-0.060772,-0.028075,-0.014544,-0.068294,0.0047672
-0.0040912,-0.02485,0.14983,0.063515,-0.0051827,0.0012381,0.071575,0.012815
0.010163,0.022919,0.052471,-0.09415,-0.0053461,-0.014385,0.021304,-0.0027489
-0.022052,-0.036818,-0.13088,-0.073113,-0.020753,-0.006751,0.00012831,-0.0030045
0.0087536,0.0054527,0.21667,-0.013886,0.026743,0.00074014,-0.0066986,0.011995
0.0010932,0.054335,-0.38908,-0.0018864,0.019986,0.00036892,-0.099624,-0.051434
0.0018496,-0.0011839,0.23211,0.11212,-0.033197,0.023511,0.034997,0.017827
0.01875,0.0094157,-0.19245,0.00081924,0.031223,0.0077888,0.030936,0.024725
-0.018708,-0.024049,0.1738,-0.038298,-0.036861,-0.023272,0.05283,-0.061716
-0.0014241,0.023386,0.05767,-0.044117,0.004547,0.016294,-0.063319,0.079031
0.046843,-0.019307,0.35732,0.25649,0.053618,-0.021994,0.1039,-0.006071
-0.038272,-0.080116,-0.24051,-0.12162,-0.022768,-0.0054333,-0.11046,0.011035
0.00082575,-0.055142,-0.52587,-0.18723,-0.013973,0.011123,-0.0043755,-0.080812
-0.015619,0.12852,0.25816,0.058612,-0.029598,-0.0037717,0.27266,0.077433
-0.0093689,-0.13611,0.33773,0.013571,0.031821,0.043438,-0.28789,-0.022408
0.019864,0.1292,-0.083827,0.10694,0.021916,0.004163,0.040344,0.025599
0.010001,0.11254,-0.13838,-0.012755,-0.01219,-0.043535,-0.086007,-0.036561
-0.0072329,-0.04613,-0.16822,-0.09495,-0.03103,-0.029289,-0.13484,-0.052671
-0.015769,-0.059592,-0.17167,0.0097163,-0.0028473,0.015836,0.15271,0.055526
0.008152,0.014751,0.28235,-0.080453,-0.013061,-0.0016246,0.21507,-0.0085763
0.017784,0.017574,-0.016407,0.088751,0.032518,0.028036,0.013666,0.0288
-0.010406,-0.093054,0.49416,0.15879,0.0013385,-0.012064,-0.06099,-0.0038855
0.024826,0.071346,-0.1015,-0.14337,0.034054,0.026725,-0.14236,0.0030093
-0.033265,-0.052764,-0.14164,0.010311,0.0054512,-0.011772,0.073261,-0.036302
0.0022284,0.019213,-0.53517,0.0098557,-0.030196,-0.010442,-0.063595,-0.004612
0.021339,-0.00037268,0.082689,-0.083211,-0.0030975,0.014883,0.11037,0.058909
-0.0076754,-0.04671,0.38985,0.073667,-0.046593,-0.053275,-0.13172,-0.049073
-0.014809,-0.054544,-0.41932,0.057408,0.026376,0.050384,0.0072053,0.022735
-0.0079446,0.13505,0.53004,-0.015825,0.0045784,-0.033821,-0.097207,-0.022828
0.013097,0.024185,-0.20684,-0.068575,0.012884,0.061046,0.21217,0.032739
-0.013783,-0.026591,0.019485,-0.038544,0.0044411,-0.047985,0.084637,-0.029483
0.044782,0.092193,0.17918,0.058939,0.0028283,-0.0015936,-0.088509,0.032638
-0.044964,-0.14381,-0.046252,0.013669,0.0082679,0.020589,-0.11166,-0.03083
0.0066261,0.091849,-0.31092,-0.063949,-0.025849,-0.059409,0.054146,-0.00094984
-0.0031198,-0.0075244,-0.081211,0.045965,-0.013302,0.071137,-0.20094,-0.010267
0.035425,-0.12359,-0.04232,-0.0071213,-0.00069909,-0.0093847,0.25515,-0.011607
-0.033981,-0.03134,0.23721,0.0588,0.035635,-0.003826,0.21845,0.073422
0.014988,0.065156,0.15655,0.025362,0.017763,0.0021265,-0.26492,-0.020622
-0.0056081,0.079722,-0.22245,-0.091824,-0.038561,-0.03038,0.015482,-0.012428
0.0052293,-0.018499,0.2699,-0.011869,0.0073664,0.00036989,-0.18259,-0.058313
0.054726,0.068241,0.083346,0.045874,-0.016297,0.02414,0.047562,0.083726
-0.052932,-0.18235,-0.23141,-0.052126,0.015446,0.0018608,0.097399,-0.055325
-0.029006,0.082521,-0.021789,-0.025335,-0.014624,-0.02751,0.17112,0.039854
-0.037656,-0.11264,0.037822,0.26627,0.057489,0.029582,-0.16773,-0.021652
0.038437,0.17048,-0.13137,-0.2246,-0.057382,0.016621,-0.027767,0.0021123
0.027707,0.018237,-0.05137,-0.084059,-0.031262,-0.027636,0.14603,0.0094593
0.024312,-0.030269,-0.28914,0.031704,0.057524,-0.0019233,-0.34187,-0.0074176
0.0052343,0.071597,0.33181,0.068264,-0.002204,0.015389,0.36718,0.014129
-0.021346,-0.12186,0.34779,0.10414,0.023659,-0.030547,-0.14982,-0.027191
-0.03171,-0.056325,0.27122,-0.047712,-0.044838,-0.006974,0.10584,-0.076335
0.013383,0.041392,-0.66013,-0.027475,0.010838,0.023645,0.078248,0.14051
-0.0031743,-0.086669,0.047744,-0.092551,0.026503,0.01455,-0.20996,-0.032567
-0.011091,0.059368,0.01989,0.046468,-0.060343,-0.010665,-0.024631,0.021849
0.0051404,0.033933,-0.15943,0.014835,0.0082463,0.0028669,-0.099635,-0.055523
0.014063,0.039646,0.12379,0.00017467,0.068458,0.039706,0.30832,-0.045992
0.023213,0.19292,0.25579,0.010256,-0.066889,-0.071841,-0.29929,0.073678
0.0088502,-0.093116,0.012796,-0.0098406,0.016601,0.019965,0.18836,-0.0093371
0.025394,-0.1318,-0.05559,0.017609,0.03015,-0.020653,-0.18076,0.0092432
-0.099199,-0.11113,0.10883,0.12334,-0.041682,0.017364,0.35938,-0.003835
0.01005,0.078365,-0.26235,-0.12288,0.004285,0.016891,-0.066585,0.0057052
-0.0060958,-0.031339,0.072321,-0.096501,0.02735,0.0013448,-0.13936,-0.040573
0.024501,0.061028,-0.46379,-0.00096983,0.019519,0.017497,-0.047865,0.044678
0.047465,0.099209,0.47644,0.085445,-0.0038199,0.010494,0.058015,-0.019743
-0.038491,-0.094983,-0.28221,-0.079442,-0.050696,-0.058921,0.044379,-0.014832
0.016793,-0.036053,0.15535,0.22321,0.027192,-0.011229,-0.12831,0.0051546
-0.005422,0.0030465,0.16755,0.040441,-0.020166,0.036269,0.024558,-0.0061156
-0.011531,0.045488,0.21686,-0.30725,0.0026665,-0.010213,0.0038559,0.037862
0.03727,0.074666,-0.51773,0.024141,0.0099745,0.052488,0.013966,-0.034294
-0.031208,0.034404,0.35179,0.042781,-0.037045,-0.080227,-0.02191,0.019939
-0.029764,-0.022279,0.49352,0.21783,0.072763,0.044882,0.13167,-0.033698
0.010119,-0.1281,-0.65101,-0.16899,-0.01206,-0.025204,-0.032545,0.046855
0.010187,0.0050864,-0.22506,-0.0078843,-0.033745,0.014278,-0.045834,0.003431
0.017299,-0.15411,-0.088551,-0.079742,0.03095,0.030541,0.16154,-0.023864
0.00029335,0.22308,0.41661,0.08438,-0.013597,-0.023314,-0.20041,0.0034312
0.021846,0.0051116,-0.033657,0.093849,0.0041363,-0.01454,-0.023335,-0.0090111
-0.042802,-0.056424,-0.14495,-0.043765,-0.0021129,0.0020916,0.020006,-0.0069643
0.0097552,0.016565,-0.31025,-0.00079248,-0.0091337,0.018686,0.0071509,0.017114
-0.031129,-0.040406,0.35755,-0.16066,-0.048261,-0.019505,-0.077755,0.00068127
0.030122,0.01536,0.2433,0.11657,0.068071,0.0046774,0.2732,-0.0092017
0.021827,0.097708,0.20556,0.056802,-0.0036895,-0.010329,-0.11934,-0.0043484
-0.024677,0.0026423,-0.18893,-0.067063,-0.021072,0.021438,0.018545,-0.0077006
0.0077465,-0.021138,-0.18022,0.15872,0.031859,0.0062639,-0.21107,0.028148
-0.0060863,-0.021922,-0.22028,-0.15653,-0.0243,0.0066816,0.075089,-0.060383
0.0038387,-0.039954,0.090855,-0.12189,-0.048716,-0.031977,0.09616,0.086436
-0.0019037,-0.10717,0.44375,0.099106,0.021211,-0.03159,0.15705,-0.015583
0.046637,0.096704,-0.71873,0.030657,0.11515,0.062489,-0.093727,0.016378
-0.053956,-0.013729,0.2521,0.15013,-0.087352,-0.038884,-0.27342,-0.067829
0.0086627,-0.023437,0.15581,-0.2527,-0.00055707,0.046977,0.16472,0.012785
-0.0076793,0.099933,-0.049915,0.15862,-0.0075117,-0.031648,0.0017696,0.0078984
-0.0090438,-0.017655,0.24209,-0.092252,-0.022481,0.014145,0.026649,-0.035959
-0.0029232,-0.039655,-0.43907,0.104,0.04034,0.012369,0.23924,0.084002
0.0032482,0.080957,0.32552,0.020491,0.0090332,-0.029186,-0.21208,-0.038774
0.0098186,-0.015476,-0.1483,-0.21044,-0.038233,-0.0010393,-0.28046,0.017331
0.048278,-0.032667,-0.16383,0.098161,0.00021583,-0.027941,0.11227,-0.0056692
-0.021912,-0.0025864,0.62979,0.10984,0.022969,0.046732,0.23955,-0.014088
-0.013326,-0.11341,-0.57478,-0.058614,0.022381,0.0046754,0.10909,-0.031293
0.0035301,0.056192,-0.016048,-0.055862,0.014233,-0.005223,-0.38869,0.028858
-0.018474,-0.0019486,0.31666,0.10245,-0.040402,-0.045089,0.2302,-0.0051841
-0.024898,-0.0068295,-0.10509,-0.12256,-0.055487,0.018115,0.0043936,0.031041
0.030943,0.096044,0.05044,0.011627,0.031523,0.02816,-0.027434,0.0051391
0.0083198,0.0096066,-0.18824,0.021016,0.017476,0.016089,-0.0061472,-0.074705
0.024405,0.038382,0.25627,0.038778,0.019439,-0.026329,-0.0020602,0.080841
-0.03793,0.026066,-0.31775,0.018246,0.029377,0.0018876,-0.32742,-0.082792
-0.014511,-0.20685,0.085293,0.0062992,-0.02332,-0.0092857,0.34633,0.028081
0.016664,-0.011404,0.024876,-0.028534,-0.0061648,0.0098434,0.097835,0.061642
0.0010314,0.019481,-0.20461,-0.063225,-0.06007,-0.011523,-0.072416,-0.021583
0.02462,0.019678,0.24542,0.0267,0.041347,0.027911,0.023447,0.0044578
0.0015462,0.1465,0.19088,-0.017115,0.024613,-0.035914,-0.36432,-0.024803
0.0021363,-0.036747,-0.39041,0.25799,-0.00076917,0.062905,0.39726,0.0074204
-0.059558,-0.084384,0.37541,-0.32015,-0.042351,-0.089175,0.019298,-0.024077
0.019564,-0.020064,0.12564,0.08433,-0.0060336,0.00070141,-0.099565,0.0057408
0.012903,0.10075,-0.55858,-0.028362,0.014801,0.020737,-0.24032,-0.027849
0.0063448,-0.051249,0.70805,0.053134,0.051724,0.018404,0.19886,0.070924
-0.0001917,0.069432,-0.46196,0.032527,-0.0044222,0.033142,-0.078733,-0.064581
0.0088032,0.04749,-0.063941,0.0041885,-0.028548,0.010346,0.059655,0.073971
-0.021504,-0.14133,-0.20045,-0.10947,-0.044131,-0.065832,0.082361,-0.052075
0.025917,0.010605,-0.12033,0.059095,0.058063,0.046329,0.074532,0.026248
0.018118,-0.089866,0.29654,-0.052541,0.004391,0.018101,-0.074296,0.012062
-0.068415,-0.035279,0.14779,0.063231,-0.041313,-0.073007,-0.18563,-0.094851
0.024137,0.16817,0.56244,0.13252,0.014487,0.0068741,0.15355,0.10355
0.014632,0.069001,-0.53423,-0.087428,0.0075485,0.038676,-0.049587,-0.057302
-0.0029857,-0.089281,-0.022644,-0.042467,-0.0075674,-0.048015,0.16581,0.054861
0.010602,-0.024724,-0.62029,-0.1079,0.0081294,0.028151,-0.31692,0.0020444
-0.022461,0.0048145,0.81365,0.14605,0.015557,0.033045,0.12047,-0.036425
-0.023817,0.022008,-0.29183,0.0011027,-0.039945,-0.048632,-0.012798,-0.029467
0.03794,0.1115,-0.15691,-0.12781,0.013569,0.041282,0.097205,0.038586
0.037858,-0.025129,0.53682,0.072867,0.059017,0.014053,0.045443,-0.082023
-0.039754,-0.17839,-0.34568,-0.10683,-0.051905,0.002787,-0.073586,0.077831
0.0080682,0.064684,0.27932,0.075952,-0.045609,-0.086007,0.021546,0.04983
-0.022015,-0.015196,-0.66049,0.21509,0.023367,0.036956,-0.028929,-0.048435
0.010398,-0.043028,0.27865,-0.057096,0.037965,0.020293,0.055393,-0.036954
0.011367,-0.026197,-0.12303,-0.2417,0.0060842,-0.034319,-0.23442,0.061064
-0.02705,0.12184,0.50119,0.17545,0.0058892,0.021567,0.24886,-0.0042303
0.0044529,0.050066,0.065442,0.02872,-0.017315,0.031586,0.027615,0.0016534
0.012108,0.04003,-0.35934,-0.16761,-0.032314,-0.027955,-0.1724,-0.007103
0.011553,-0.033261,0.22805,0.085554,-9.0881e-05,0.014453,0.10157,-0.092856
-0.020631,-0.13877,-0.4597,-0.016757,0.032439,0.0099472,0.068349,0.033604
0.032762,0.035757,0.1264,0.064861,0.01836,0.012808,-0.34963,0.0051837
-0.015748,0.052702,-0.15212,-0.074967,-0.058005,-0.055397,0.50479,0.087468
0.005755,0.0060025,0.28449,-0.03659,-0.0092363,-0.030759,-0.20318,-0.016665
-0.019832,-0.072562,-0.008483,0.0094182,0.047358,0.02425,-0.31618,-0.11238
-0.01424,-0.049359,0.015042,0.072019,0.033494,0.055129,0.096356,0.11997
0.014925,0.029699,0.31381,0.011395,-0.019749,-0.039391,0.22236,-0.015686
0.013219,0.032709,-0.013769,0.17168,0.035925,0.076965,0.28045,0.14402
0.012144,0.19471,-0.072581,-0.15024,-0.096414,-0.095488,-0.089422,-0.26854
-0.03497,-0.023058,-0.27926,-0.12652,-0.018268,0.0059985,-0.40389,0.019939
0.0048029,-0.15979,-0.40829,-0.12472,0.02836,0.0222,-0.078111,0.025393
0.0064505,-0.18473,0.23656,0.35482,0.05155,0.0078448,0.28542,0.021885
0.0010625,0.19823,-0.13113,-0.196,-0.0031067,0.025369,-0.10293,0.057113
0.011778,-0.011859,0.76591,-0.019572,-0.010399,-0.034758,0.17854,-0.00091166
0.022575,0.090202,-0.39639,0.079241,-0.040561,-0.016505,-0.11218,0.0047069
-0.037286,-0.020047,-0.091142,0.10021,0.046947,0.0095694,-0.099664,-0.066309
0.027134,-0.023189,0.33221,-0.097606,0.0018806,0.027602,0.083819,0.082925
-0.018772,-0.10737,-0.36798,-0.1552,-0.043304,-0.048547,0.079477,-0.071325
0.0046517,0.086517,0.39319,0.20044,0.059434,0.070047,-0.026211,0.087627
-0.011778,0.12893,-0.6678,-0.0467,-0.0027501,-0.015108,-0.014012,-0.097054
-0.052058,-0.38579,0.25072,0.02497,-0.050378,-0.038349,-0.063206,-0.0087264
0.056163,0.23079,0.48152,-0.053438,0.018102,-0.0073562,0.037477,0.047511
-0.022601,0.0032682,-0.29858,-0.0006031,-0.01585,-5.2732e-05,-0.11799,-0.014502
0.024453,0.33128,-0.16194,-0.058434,-0.0033977,0.046295,0.10328,0.016144
0.048947,-0.37782,0.023279,0.08603,0.0012782,-0.024351,0.0057956,-0.0010363
-0.043092,-0.10758,0.09324,0.027118,0.0065003,-0.024356,0.1516,-0.0032809
-0.0099377,0.18935,0.14303,-0.00018459,0.036108,0.030674,-0.1866,-0.029326
0.061874,-0.10424,-0.17677,-0.034386,-0.011253,-0.0078145,-0.087912,0.046171
-0.070434,0.050149,-0.29336,-0.098509,0.0050235,0.016196,0.14197,0.0047695
-0.0088552,0.065454,0.38927,0.12016,0.014399,0.024278,0.17404,-0.028277
0.012071,0.049438,-0.11168,-0.026884,-0.03037,-0.04637,-0.13285,-0.029362
0.015939,-0.038822,-0.04578,-0.10246,-0.020327,0.01497,-0.15367,0.0094078
-0.051487,-0.083907,0.53927,0.18191,0.020709,-0.026153,0.15916,0.048958
0.029197,0.16291,-0.50688,-0.11201,-0.040351,-0.005573,-0.15396,-0.012371
0.0087198,0.11532,0.016291,0.34315,0.038531,0.022291,0.057164,0.04401
0.028361,-0.43691,-0.018864,-0.50789,-0.023922,-0.012495,-0.15874,-0.12585
0.018272,0.047134,0.28401,0.23309,0.077041,0.038919,0.20765,0.10286
-0.052593,-0.078312,-0.37295,-0.10557,-0.04908,-0.026236,0.12583,-0.106
0.02664,0.15066,0.041828,-0.038876,0.011933,-0.012422,-0.18571,0.12243
-0.025572,0.16633,0.20966,0.11377,-0.036625,0.0022923,0.14676,-0.055756
0.016898,0.10313,-0.2419,0.056436,0.016364,0.017787,-0.011691,-0.015658
-0.010505,-0.16374,-0.083401,-0.069541,0.0070165,0.049429,-0.06979,0.047298
0.032393,-0.010544,0.23459,-0.084187,-0.0098177,-0.043729,0.10294,-0.023224
-0.057886,0.013385,0.17461,0.22319,0.0050473,-0.019802,-0.18266,0.014905
0.03095,0.037713,-0.34119,-0.14036,-0.0030143,-0.0039899,-0.16163,-0.096128
0.0097673,0.020198,0.39701,0.042847,0.0050426,0.0036622,0.15088,0.14375
-0.027644,-0.25268,-0.15981,-0.01744,-0.0021313,-0.027982,0.045401,-0.062155
-0.010872,0.069104,0.016996,0.021564,0.022172,0.018494,0.21931,0.0051651
0.013307,0.15722,0.026754,-0.075029,0.01525,0.02617,-0.22358,-0.021114
0.05276,-0.073223,-0.31923,0.044434,-0.030904,0.010886,-0.12504,-0.015576
0.021537,-0.088899,0.28407,-0.049027,-0.022686,0.011802,0.20379,0.03001
-0.080429,0.1285,-0.34119,-0.02612,-0.014859,-0.049265,0.044744,-0.0090052
0.01241,0.066151,-0.035689,-0.057356,-0.0074258,0.022797,-0.047732,-0.007416
0.0031368,-0.078144,0.071223,0.092869,0.03872,-0.006687,0.042676,0.04259
-0.0066464,-0.11511,0.46697,0.15191,0.068948,0.041639,-0.14623,-0.038911
0.0066354,-0.0048506,-0.088791,0.041839,-0.057321,-0.059075,0.095147,0.005427
0.035395,0.28371,0.27134,-0.10497,-0.011929,-0.012139,-0.09373,0.026533
-0.052906,-0.18807,-0.71186,-0.1722,0.0098476,0.033963,-0.22149,-0.007554
-0.015803,0.078001,0.24018,0.15155,-0.015357,-0.0066062,0.42236,-0.0037547
0.076608,-0.045289,0.11637,-0.056576,-0.0014804,0.030442,-0.091942,0.0061685
-0.033366,-0.052305,-0.10208,-0.062869,-0.034275,-0.026455,-0.022049,-0.040546
-0.017608,-0.015172,0.07447,0.109,0.081792,0.0027354,0.18708,0.0045737
0.045627,0.018034,-0.23829,-0.064202,-0.04369,-0.030096,-0.39376,-0.0065902
-0.031379,0.023384,0.24826,0.14464,0.019133,0.031557,0.12663,0.035871
-0.030136,-0.069264,-0.098215,-0.17781,-0.02654,-0.0074763,0.014466,-0.00021883
0.033491,0.12356,-0.12049,0.055139,-0.0088793,0.0012413,0.035892,0.010752
0.010902,-0.10816,0.15902,0.054982,0.056327,0.034127,-0.035357,-0.094813
-0.0041959,0.064638,-0.26684,-0.19363,-0.042131,-0.0419,0.097576,0.097393
-0.0038952,0.0021161,0.71916,0.23109,0.00010026,0.022816,-0.19069,0.017039
-0.019214,0.087627,-0.15703,0.039638,0.018608,-0.029891,0.20071,-0.047058
-0.018573,-0.092586,-0.45102,-0.034265,0.020908,0.034056,0.18501,0.045331
0.053078,0.01633,0.15661,-0.15541,-0.032256,-0.019901,-0.24629,-0.010901
-0.038324,-0.030784,-0.053269,0.1053,0.0075041,0.011329,0.00021671,-0.020759
