0.17085,0.050088,-0.013171,-0.00015245,-0.010315,0.053299,0.26368,0.18883
0.25029,0.10552,0.0034435,-0.0078997,0.029008,0.042207,0.28293,0.13526
-0.17188,-0.11206,-0.026959,-0.00714,0.0062008,-0.007349,-0.1794,-0.15815
0.23171,0.014218,0.051869,0.025585,0.01504,-0.0012505,0.13295,0.057955
-0.44736,-0.10983,-0.0022844,0.02765,0.00070411,-0.040993,-0.50092,-0.2566
0.1315,0.030936,-0.025429,-0.040285,-0.013644,0.037265,0.40896,0.12344
-0.027431,0.068911,-0.0020503,0.032333,0.010711,0.014363,-0.18596,0.048396
0.37742,0.12884,0.083353,-0.012732,0.018767,0.077346,0.53405,0.20496
-0.023121,-0.00022003,-0.042737,0.0038404,-0.036535,-0.086625,-0.40672,-0.12585
-0.34654,-0.20074,-0.052174,-0.019734,-0.030171,-0.10265,-0.45131,-0.19352
-0.020875,0.0045178,0.0083301,-0.020973,-0.0087722,-0.017442,0.03635,-0.012538
-0.26931,-0.063189,-0.0015413,0.0081345,0.020266,0.036564,0.067575,0.043698
0.19393,0.019043,-0.018885,0.0054693,-0.012888,0.03635,0.26227,0.00029017
0.21723,0.27551,0.050459,0.018385,0.056246,0.083767,0.17618,0.10854
-0.070716,-0.30901,-0.035395,-0.007328,0.0091609,0.046018,0.37064,0.087728
-0.043145,0.15593,0.028341,0.0068324,-0.013515,-0.085007,-0.49352,-0.21881
0.33052,0.19288,0.030576,-0.0014255,-0.0041957,0.010481,0.11811,0.18753
0.070669,-0.1839,-0.013461,0.014782,0.013298,0.011587,0.028806,0.062529
-0.38998,-0.030682,-0.010577,-0.022842,-0.047397,-0.074309,-0.37461,-0.056958
0.19315,0.0026381,-0.0082397,0.010402,0.00086766,0.0026698,0.023359,-0.063352
-0.16132,-0.17083,0.024321,0.020414,0.025099,-0.0072246,0.059604,-0.0043905
-0.11275,0.097161,-0.069395,-0.047814,-0.021551,-0.0018561,0.073501,-0.23126
0.32254,0.32289,0.077844,0.047685,0.025191,0.050758,0.015552,0.25765
-0.43953,-0.18749,-0.096138,-0.068189,-0.045285,-0.036208,-0.10066,-0.26176
-0.12944,-0.22096,-0.012701,0.010836,0.0017307,-0.027982,-0.18418,-0.0055027
0.23438,0.099892,0.039652,0.01142,0.025845,0.083236,0.30719,0.20834
0.12562,0.22266,0.092619,0.035236,0.042731,0.10949,0.60834,0.13873
0.32146,-0.3978,-0.017646,0.012042,-0.0024638,-0.09063,-0.53292,0.11349
0.12058,0.24708,0.021292,0.0043394,0.0071055,0.0054227,0.26181,0.10753
-0.22733,-0.08546,-0.064309,-0.01137,0.00069909,-0.079657,-0.58334,-0.28794
-0.31811,0.27441,0.029805,-0.011735,-0.061137,-0.04936,0.15267,-0.28662
-0.01434,-0.33289,-0.12648,-0.067131,-0.061462,-0.012939,-0.057978,-0.015759
0.063296,0.28369,0.091514,0.04119,0.054368,0.061425,0.2979,0.21868
-0.18987,-0.23181,-0.0038222,0.01642,0.036514,0.018332,-0.3815,-0.067764
0.31766,0.35901,-0.021788,-0.008509,-0.013158,-0.016331,-0.0084996,0.032094
0.030003,-0.086715,0.076925,0.036856,0.038534,0.11438,0.553,0.1996
-0.0060573,-0.13157,-0.019821,-0.027042,-0.018997,-0.018892,-0.31792,-0.11013
0.28076,-0.31225,0.032151,0.042083,0.0098415,-0.04119,0.25796,0.15178
-0.31079,-0.11637,-0.063595,-0.052577,-0.038826,-0.038828,-0.29377,-0.051988
-0.27028,0.13394,-0.02541,0.0015177,0.0069685,-0.027982,-0.21246,-0.30593
0.038085,0.21051,-0.032688,-0.022184,-0.024635,0.053271,0.5035,0.0784
-0.18755,0.055956,-0.030633,-0.029951,0.0069324,-0.061166,-0.45811,-0.1486
0.36741,0.048198,0.074345,0.071901,0.039053,0.0033997,-0.028127,0.14556
0.22723,0.10928,0.1021,0.04888,0.016872,0.051517,0.43953,0.35032
-0.061949,0.31484,0.098781,-0.0054196,0.010507,0.020682,-0.011578,-0.1769
0.38836,-0.27698,-0.17084,-0.059909,-0.058359,-0.010904,0.036669,0.14724
-0.4874,-0.42129,-0.035667,-0.028759,-0.025813,-0.01187,-0.27084,-0.22689
-0.45029,-0.11493,-0.050901,0.0020846,0.045566,0.017937,0.09445,-0.10641
0.37205,-0.025176,0.049003,0.040544,-0.00046685,-0.0072377,-0.056313,0.093006
-0.18603,0.39345,-0.016835,-0.030356,0.0002257,-0.048107,-0.30887,0.011543
0.17977,0.0085219,0.041383,0.031838,0.00088725,-0.026288,-0.01323,-0.15469
-0.037759,-0.045514,0.037071,0.0086237,0.0016426,0.058485,0.3487,0.14302
0.13129,-0.024225,-0.083579,-0.021707,-0.0052264,0.050183,0.45149,0.094661
-0.19467,-0.011362,0.047277,-0.020055,-0.043123,-0.066695,-0.26506,-0.086209
0.42284,-0.013102,0.023698,0.021284,0.051969,0.020335,-0.51043,-0.014508
0.015702,0.12764,0.08001,0.023943,0.014303,-0.024842,0.3096,0.006613
-0.22041,0.31716,-0.034118,-0.020223,-0.0078649,-0.038481,-0.38356,0.04025
-0.43358,-0.74982,-0.13947,0.0056221,-0.0069213,0.15088,0.86207,-0.046733
0.11893,0.45703,0.10725,0.038684,-0.0064644,-0.082167,-0.4705,0.13526
0.35198,-0.27422,-0.13801,-0.069643,-0.022191,0.074539,0.56288,0.26452
-0.085024,-0.085127,0.06989,0.0009551,0.016262,-0.14477,-1.007,-0.53523
-0.23815,0.125,0.019988,0.00064312,0.0075125,-0.021245,0.085994,-0.053934
0.11177,0.23034,0.04037,0.0078244,0.0065272,0.078272,0.42921,0.020656
0.41769,0.191,-0.040992,-0.0084472,-0.033249,0.013675,-0.25655,0.23574
-0.36809,-0.52499,-0.036945,-0.0010655,-0.017782,-0.034768,0.24173,-0.087746
0.27664,0.48045,0.16917,0.061301,0.053106,0.050631,-0.19167,0.12895
-0.21196,-0.183,-0.056084,0.014491,0.015357,-0.0032604,0.32645,0.026702
-0.17873,0.13442,0.028969,-0.0089294,-0.006209,-0.016716,-0.0016779,-0.058804
-0.10076,-0.68201,-0.19311,-0.063957,-0.027566,0.010024,-0.092142,-0.034611
0.24864,0.20701,0.051305,0.0053909,0.0055251,-0.06414,-0.31479,-0.19094
0.10446,0.13346,-0.034022,-0.035384,-0.0089546,0.05704,0.4996,0.26783
-0.17299,0.29619,0.059748,0.032539,0.022382,-0.0099158,-0.36975,-0.05002
0.018728,0.16645,0.076016,0.05318,0.013413,0.031275,-0.10347,-0.051372
0.32865,-0.51281,0.015939,0.019138,-0.020189,-0.0073039,0.064324,0.044992
-0.34459,0.03845,-0.13524,-0.10818,-0.046892,0.007003,0.31461,0.052212
0.11602,0.028042,0.076016,0.02323,0.019713,-0.097547,-0.74923,-0.36444
-0.33686,0.11546,0.0011656,0.0073907,0.0005012,0.070067,1.0464,0.2888
0.60876,0.58454,0.02242,0.03187,-0.0024318,-0.059892,-0.70368,-0.017739
-0.094447,-0.23371,0.029432,0.03397,0.05817,0.052254,0.16454,0.045295
-0.67327,-0.67886,-0.11178,-0.041435,-0.036302,-0.014856,0.20454,-0.16214
0.35671,0.16928,0.058592,0.031611,0.034344,-0.018743,-0.42171,0.03944
0.026959,-0.2825,-0.030715,-0.036595,-0.011489,0.15781,1.0412,0.39908
0.39254,0.03075,0.010349,0.019036,0.0054196,-0.016653,-0.55716,-0.053352
-0.31179,0.7063,0.056634,-0.012729,-0.032583,-0.11273,-0.56124,-0.33492
0.00026816,-0.27564,-0.086896,-0.045933,-0.0399,-0.044709,-0.016963,-0.10285
-0.061521,0.3143,0.017897,-0.002108,0.014576,0.054579,0.12522,0.095767
0.0032686,-0.3662,0.035959,0.056855,0.037172,-0.04898,-0.021412,-0.066518
0.13262,0.065709,-0.0082904,-0.0089192,-0.01873,0.0044817,0.44585,0.16169
-0.032379,0.19487,0.034519,0.020062,0.034726,-0.0031965,-0.00059876,0.063379
-0.38989,-0.26937,0.0010732,0.003769,0.00259,0.053474,0.024232,-0.1333
0.13811,-0.41443,-0.092546,-0.049647,-0.052354,0.018451,-0.30746,-0.013272
0.24623,0.43849,-0.035307,-0.022981,-0.012772,0.024358,0.12782,0.11891
0.27688,0.35176,0.17249,0.075642,0.082259,0.00029376,-0.24314,0.028047
0.10318,-0.52554,-0.11047,-0.012197,-0.0018027,0.039126,0.66988,0.15004
-0.55041,0.12015,0.013241,-0.013864,-0.038671,-0.157,-0.70688,-0.41563
-0.029509,-0.10842,0.081505,0.030693,-0.02086,0.059464,0.63962,0.43835
-0.226,0.055266,-0.10218,-0.059029,-0.018991,-0.054256,-0.73724,-0.47719
0.10194,0.33813,0.07058,0.0054249,0.029196,-0.014011,-0.15765,-0.0851
0.39233,0.11495,0.13051,0.083135,0.068876,0.16472,0.59062,0.38011
0.58403,-0.27898,-0.25828,-0.09926,-0.071854,-0.080105,-0.099813,0.051868
-0.66469,-0.26628,-0.024785,-0.002257,-0.010111,0.0099504,0.39026,-0.037358
-0.1716,0.41043,0.11348,0.054555,0.019876,0.013708,-0.32042,0.0046661
-0.10577,-0.46747,-0.10755,-0.060757,-0.028587,-0.076002,0.15946,6.3157e-05
-0.081556,0.13198,0.13402,0.051124,0.063435,0.022561,-0.70166,-0.35404
0.25493,0.077044,0.042555,0.00028874,-0.039846,-0.018457,0.21221,0.17054
0.24881,0.13433,-0.01409,0.0059227,0.021051,0.04314,0.28969,-0.010954
0.017172,-0.0551,-0.059399,-0.0021964,-0.0038189,0.043039,0.49708,0.35983
-0.30101,-0.14021,0.046538,0.02256,0.010575,-0.027016,-0.60563,-0.26425
0.025519,-0.075729,-0.072495,-0.045322,-0.03731,0.0512,0.19823,-0.11086
0.35213,0.46393,0.089875,0.020061,0.01662,-0.011822,0.16537,0.32606
-0.051894,0.17115,-0.022408,-0.016349,-0.038537,-0.146,-0.68826,-0.31503
-0.26037,-0.32381,-0.066628,-0.014501,0.01599,0.070622,0.35794,0.21371
-0.24413,-0.34259,-0.051122,0.0095941,0.023932,-0.05687,-0.19282,-0.16761
0.059023,0.060662,0.031973,0.0011044,0.0008251,0.02683,0.14782,0.09466
0.2366,0.14648,0.089471,0.053882,0.048081,0.095835,0.24325,-0.038713
-0.0052275,0.091379,-0.010506,-0.027066,-0.006357,-0.0055543,0.18271,-0.074785
0.079687,-0.38795,-0.0012216,-0.01469,-0.029829,-0.0036171,-0.39121,0.011372
0.11264,0.23763,0.016853,-0.0099766,-0.038015,-0.046851,0.021857,0.11229
-0.37932,-0.066616,-0.10382,-0.035791,-0.015207,-0.002832,-0.10278,-0.13731
-0.065554,0.044849,0.004528,0.017711,-0.0002534,0.034051,0.21668,0.0532
0.42223,0.41431,0.076454,0.025795,-0.016304,-0.093213,-0.14819,0.20813
-0.017985,-0.2286,-0.028912,0.01971,0.085343,0.12244,0.38483,-0.07086
-0.3022,0.16345,0.054991,0.022609,0.015778,-0.061777,-0.32048,-0.12039
0.089965,-0.043133,0.022572,0.002726,0.0015426,0.064709,0.069291,0.011449
0.17044,-0.19245,-0.072493,-0.040576,-0.03568,-0.076278,-0.25184,-0.020587
-0.041055,0.10789,-0.020203,-0.021974,-0.033698,-0.0079168,0.091206,-0.030457
0.10081,-0.32451,0.069382,0.042454,0.046209,0.067187,0.22468,0.12128
-0.28879,-0.090049,-0.10094,-0.066242,-0.069688,-0.14717,-0.52128,-0.16767
-0.085462,-0.0043774,-0.015515,0.011393,0.024675,0.091861,0.51178,0.19619
-0.054031,-0.16205,-0.0021047,-0.0055792,-0.014514,0.026987,0.036602,-0.021232
0.29183,0.59313,0.14293,0.055161,0.062788,0.056881,0.062046,-0.045792
0.21254,0.15081,-0.032981,-0.0012473,-0.0089297,-0.091978,-0.48206,-0.12646
-0.29699,0.054659,0.0175,0.013053,0.020493,0.14255,0.41931,0.097321
-0.20314,-0.25598,-0.056858,-0.026746,-0.036252,-0.16193,0.038642,-0.099839
0.37855,0.23369,0.025405,0.01219,-0.0070651,0.080014,-0.18738,0.19707
0.24575,-0.48685,-0.024637,0.0047457,0.0067527,-0.053811,0.17852,0.027684
-0.43748,-0.093012,-0.058428,-0.033644,-0.025764,-0.047842,-0.61297,-0.1391
-0.21863,0.26343,0.02572,-0.025057,-0.018404,0.020029,0.25222,-0.076995
-0.0049703,-0.13867,0.016994,0.014711,0.021221,0.0096272,0.25286,0.088384
0.31168,0.0668,0.048287,0.023043,0.030684,0.054303,0.00067717,0.082841
0.49579,0.13005,-0.028839,0.023313,0.04894,0.11548,0.14602,0.16346
-0.46917,0.26324,0.090198,0.031133,-0.025861,-0.15026,-0.45852,-0.35777
-0.21656,-0.58659,-0.13386,-0.078469,-0.06915,-0.0006435,0.21812,-0.082621
-0.027628,0.11359,0.056541,0.030517,0.051392,0.0095306,0.096399,0.27033
0.10589,0.19326,-0.049769,-0.016795,-0.016269,-0.026309,0.27544,-0.032852
0.051999,-0.034511,0.00013231,-0.017134,-0.02249,0.0085604,-0.38846,-0.12444
-0.063434,-0.077906,0.010808,0.01403,0.0090965,0.043274,-0.20319,0.089763
0.26805,0.36649,0.068143,0.037763,0.0081662,-0.0086841,0.1253,0.063102
-0.14081,-0.046969,0.039336,0.0072592,0.021756,0.031855,0.14186,0.045443
0.25659,-0.4845,-0.083362,-0.030617,0.0032911,0.01608,0.17363,0.012901
-0.42318,0.23164,-0.065474,-0.029087,-0.023397,-0.11864,-0.34949,-0.36332
0.022158,-0.2125,0.014987,0.019496,0.012445,0.080972,0.34727,0.23634
0.013657,0.04948,0.048731,0.02117,-0.021562,-0.025226,0.070957,0.10809
-0.050975,0.30639,0.027958,-0.00085198,0.0077792,-0.030263,-0.73007,-0.15483
0.29641,-0.26194,-0.031809,0.00011262,-0.0086292,0.012028,0.35378,0.2364
-0.16343,0.18854,0.072333,0.016125,0.023096,-0.0069135,-0.072841,-0.31976
0.17844,0.23637,-0.073988,-0.054408,-0.022087,0.046326,0.48454,0.083197
-0.38927,-0.23515,-0.010167,0.015157,0.043098,0.031367,-0.22309,0.0081893
0.33642,0.056006,0.060404,0.0062438,-0.023916,-0.051966,-0.055584,0.11193
0.0040818,-0.40466,-0.088971,-0.018421,-0.028305,-0.016749,-0.15551,-0.081757
-0.04976,0.095308,0.026124,0.027325,0.045038,0.073665,0.24756,0.0055324
-0.20684,0.057577,0.038711,0.034274,0.00033529,0.0152,-0.006125,0.037995
0.026572,0.030525,-0.097747,-0.067819,-0.053374,-0.067982,-0.11521,0.078219
0.027306,0.11662,0.10152,0.049131,0.02439,-0.035787,0.027155,-0.076748
0.11753,0.26118,0.066602,0.0021826,0.014948,-0.013324,-0.1662,-0.043698
0.033147,-0.099199,-0.077179,-0.013523,-0.011108,-0.00025614,0.031612,0.11558
0.056374,-0.13797,-0.017067,0.0096715,0.032602,0.1213,0.54424,-0.26979
-0.21886,0.057123,-0.034142,-0.04551,-0.07214,-0.093092,-0.60979,0.059107
0.10524,-0.38255,-0.0033216,0.0084389,0.018946,-0.02537,-0.20048,0.0094739
0.089824,0.18293,0.044137,0.0075502,0.01723,0.036054,0.29102,0.14422
-0.12639,0.035055,0.045623,0.014475,0.0089035,0.044602,0.14045,0.056692
-0.13153,0.057722,-0.061589,-0.0018838,0.017434,0.0079736,0.012683,-0.13729
0.087804,-0.059933,-0.0043912,0.0054533,0.01138,-0.019628,0.047448,0.099127
0.24058,0.082319,0.052749,0.013069,-0.0018107,0.031389,0.41424,0.1929
-0.041846,0.22825,-0.023404,-0.010353,-0.038207,-0.05069,-0.69494,-0.31959
-0.18987,-0.035077,-0.0066586,-0.0024473,-0.0044831,-0.032132,0.18529,0.01266
0.17174,-0.39464,-0.014451,-0.010244,-0.01815,-0.014871,-0.088356,0.17304
-0.065197,0.0010462,0.015641,0.013004,0.029993,0.0323,-0.21255,-0.34589
-0.1955,0.041879,-0.017828,-0.018704,-0.016338,-0.038816,0.10192,0.17632
-0.068161,0.16404,0.0026197,-0.011598,0.0069887,0.076883,0.47369,0.023633
-0.047795,0.076568,-0.00073158,0.010985,0.014142,-0.010785,-0.36839,-0.12889
0.47698,-0.0041294,0.035065,0.041383,0.013023,0.0032016,0.03125,0.30766
0.014939,-0.1431,-0.077093,-0.037432,0.0036733,-0.013827,0.018439,-0.047302
-0.2155,0.12602,0.069313,0.0012383,-0.0060997,0.024002,0.047549,-0.17712
0.081001,-0.026617,0.0056333,0.001219,-0.031938,-0.039787,0.071971,0.066378
-0.16038,0.11702,-0.033833,-0.0062351,0.012121,-0.010164,-0.088607,0.033332
0.1047,-0.18466,0.083521,0.041314,0.032442,0.081397,0.23651,0.11216
0.13198,-0.28131,-0.064445,-0.012491,-0.033238,-0.054223,-0.17267,-0.051175
-0.15776,0.11126,-0.0014015,-0.01152,0.0029361,-0.010591,-0.21546,-0.16196
-0.16281,0.082353,-0.071237,-0.041809,-0.030477,-0.029457,-0.024744,0.0049633
-0.077103,0.18195,0.022909,0.037214,0.015399,-0.01644,0.017419,-0.050764
0.078115,0.084108,0.015492,-0.0088297,0.023719,0.076039,0.33438,0.15595
0.21156,-0.22601,0.078508,0.023217,0.0024539,-0.017027,-0.072091,0.072001
0.028408,0.21187,-0.045767,-0.046298,-0.032865,-0.045273,-0.36444,-0.27714
0.10794,0.12248,0.025491,0.024823,0.050213,0.038164,0.32547,0.12614
-0.24521,-0.40285,-0.051538,0.009974,0.0010989,-0.017156,-0.26805,-0.021377
0.061599,0.11792,0.051156,0.018436,-0.0012301,0.053565,0.28347,-0.0081644
0.19833,0.026897,0.013161,0.018831,0.01909,0.13988,0.61063,0.5247
-0.26684,-0.30152,-0.11086,-0.067083,-0.086923,-0.22028,-0.89103,-0.49452
0.086089,0.28946,0.077616,0.034074,0.024199,-0.0044168,-0.083899,-0.020953
-0.13475,0.12933,-0.022793,-0.02141,-0.0068929,0.013462,0.25599,0.16974
-0.18757,-0.28017,-0.036858,-0.0068214,-0.00020832,-0.018321,-0.16996,-0.40871
0.20923,0.18754,0.059044,0.015575,0.013485,0.017753,0.35638,0.29717
0.31428,-0.10724,-0.00065691,-0.00082522,0.026901,0.067661,0.077751,0.20107
-0.1292,0.21821,0.0026466,-0.016724,-0.014209,-0.055273,-0.38703,-0.25114
-0.089027,-0.18875,-0.017339,0.0227,0.015408,0.048205,-0.027652,-0.019111
-0.0020059,0.068357,0.03261,0.0315,0.014221,0.08972,0.56519,0.21927
0.015142,0.16687,0.026903,-0.0061096,-0.017931,-0.13336,-0.61303,-0.33088
-0.013849,-0.20009,-0.074055,-0.027904,-0.011013,0.019869,0.23763,0.15256
-0.080951,-0.09655,0.010656,0.0048492,-0.004373,-0.067657,-0.27881,0.00689
-0.03753,0.20369,0.0075581,-0.025349,-0.021646,0.010271,0.24522,0.076494
0.061898,-0.275,-0.036189,0.006275,0.030876,0.081599,0.2941,0.15028
0.1315,0.21169,0.036236,0.021487,-0.018545,-0.025861,-0.39931,-0.30387
-0.0084118,-0.32552,-0.024423,-0.0031283,0.01006,0.031199,0.2325,0.095478
-0.045478,0.12433,0.0013594,-0.012756,-0.0079455,-0.044621,-0.22041,0.12021
-0.018996,0.42335,0.051739,0.0084286,0.0059204,0.066459,0.44899,-0.13732
0.0082556,-0.02816,-0.0056754,-0.0018432,-0.0027681,0.020254,-0.10647,0.079675
-0.19055,-0.21388,-0.014502,0.0035272,0.0051544,-0.13659,-0.43596,-0.25271
0.2984,0.10798,0.064182,0.032545,0.037417,0.025648,-0.1027,0.068672
-0.15793,-0.23574,-0.066833,-0.031826,-0.015609,0.030739,0.15201,0.098879
-0.23957,-0.12966,-0.048604,-0.0019746,-0.013663,-0.02703,0.080312,0.18217
0.29523,0.16644,0.0090691,-0.010638,-0.019643,0.017028,0.083535,-0.079461
0.19591,0.080308,-0.0035436,-0.01871,-0.0026375,0.022847,0.25055,-0.02946
-0.0069012,0.18058,0.038295,0.0050639,-0.025366,-0.017033,-0.1662,0.0042189
-0.24332,-0.04192,0.056278,0.068455,0.083992,0.077148,0.014648,-0.11887
-0.028993,-0.11938,-0.051278,-0.031752,-0.03383,-0.038572,-0.18262,0.070361
-0.16025,-0.37259,-0.018821,0.0090013,0.0042354,0.010398,0.062506,0.0021838
0.14534,0.2922,0.012996,-0.035994,-0.035839,-0.049862,0.0075844,-0.025686
0.40507,0.24256,0.059834,0.028437,0.026018,0.0068034,-0.097856,-0.012275
-0.41827,-0.075562,-0.05788,-0.032181,-0.036416,-0.062028,0.065898,-0.12075
-0.15125,-0.21612,-0.058705,-0.014788,0.011464,0.040497,0.03719,0.23543
0.16797,-0.014411,0.034164,0.049332,0.044707,0.033287,-0.11454,0.032861
0.086088,0.061301,-0.0055885,-0.035168,-0.014964,0.010339,0.31273,-0.11186
0.03917,0.073749,0.040967,0.036348,0.027424,-0.020302,-0.15882,0.042225
-0.076936,0.19481,0.0098338,-0.0018304,-0.023909,0.019613,-0.0070992,-0.076935
0.34376,-0.013146,0.057185,0.022066,0.018037,0.012866,-0.10832,-0.080679
-0.23352,-0.40966,-0.074984,-0.040494,-0.050284,-0.064163,0.20853,0.24785
-0.06166,0.036478,-0.050983,-0.01768,-0.026015,0.061679,-0.18187,-0.10069
-0.20468,0.13012,0.027398,0.0046092,0.020469,-0.039601,-0.16982,-0.088102
0.15029,0.05908,0.011586,0.0030687,0.026794,0.077071,0.54246,0.18403
-0.080369,0.097229,0.034386,0.024785,0.016672,-0.096209,-0.62181,-0.25999
0.076036,-0.075348,0.0021777,-0.00029924,-0.0017369,0.01878,0.34668,0.097204
-0.047513,-0.036471,-0.037925,-0.017246,-0.020256,-0.030805,-0.10539,0.10168
-0.047753,-0.020347,-0.0075034,0.021022,0.03957,0.060132,0.046345,-0.12675
0.086972,-0.019125,-0.031276,-0.026007,-0.040732,-0.020465,0.30225,0.015908
0.17908,0.099936,0.039381,-0.00208,0.0046733,0.0012108,-0.33013,0.039353
0.05668,-0.30395,0.016994,0.022375,-0.0037622,-0.0074574,-0.093766,-0.032025
-0.15733,0.30024,0.034207,-0.015366,-0.034734,-0.0074367,0.072792,0.051605
-0.11505,-0.009598,-0.042143,0.0015854,0.013269,0.047893,0.11376,0.023337
0.18688,0.16479,0.060923,0.033834,0.046322,0.033118,0.051727,0.08412
0.13477,-0.090631,-0.039867,-0.0048601,0.0094301,-0.013159,0.15188,0.035982
-0.41533,-0.29899,-0.087045,-0.036581,-0.019695,-0.052243,-0.50753,-0.21745
0.10508,0.063855,0.044257,0.0089149,-0.0024516,-0.07648,0.0037993,0.032688
-0.28849,-0.087057,0.0025886,-0.0088963,0.013861,0.078298,0.37437,-0.09757
0.27251,0.3275,0.046105,-0.0038233,-0.01011,-0.040687,-0.19945,-0.0067217
0.094976,-0.12121,-0.035638,-0.014567,-0.058821,-0.034511,-0.021537,0.11087
0.0094836,-0.018656,-0.023344,0.029582,0.031953,0.089496,0.088131,0.085011
0.39305,0.11942,0.052233,0.027421,0.020424,0.12074,0.43398,0.19898
-0.42496,0.11254,0.035209,0.010464,0.016536,-0.096914,-0.38318,-0.36555
-0.030121,-0.54067,-0.042973,-0.013339,-0.01032,-0.040157,-0.15334,-0.075769
-0.055601,0.2362,-0.057306,-0.04397,-0.043918,-0.060875,0.013277,0.092708
0.044705,0.14447,0.0233,-0.0033837,0.002127,-0.0032526,-0.040005,0.21815
-0.073843,0.05749,0.018864,0.0067054,0.034275,0.09319,0.1869,-0.1454
0.2755,0.067819,0.01494,0.017346,0.029011,0.024919,0.038283,0.25859
-0.14991,-0.23916,0.026727,0.0048594,-0.0062088,-0.020862,-0.18817,-0.32153
0.079551,-0.1054,-0.024311,0.0080361,-0.0094571,-0.052116,0.01614,0.02665
-0.15296,0.071617,-0.044776,-0.020287,-0.036104,-0.006313,0.16735,0.012763
0.0048113,0.04344,0.0041506,0.021172,0.03819,0.0073808,-0.27359,-0.020112
0.12407,0.2259,0.0911,0.030616,0.0019658,0.067452,0.43504,0.11561
-0.17707,-0.35597,-0.10424,-0.070238,-0.051319,-0.028763,0.01106,-0.0011154
0.10989,0.041064,-0.027107,-0.0080043,-0.0045148,-0.054226,-0.44506,-0.13455
-0.053803,0.49536,0.088252,0.014251,-0.013683,-0.031962,0.14384,-0.0095779
0.21442,-0.59532,-0.031493,0.027934,0.069955,0.1086,0.10531,0.13321
-0.086182,0.35348,0.04343,-0.0057987,-0.0031953,-0.038746,-0.27157,-0.09557
-0.058314,-0.12893,0.00058689,0.014869,0.0094353,-0.013244,0.091899,-0.03126
-0.015723,0.010111,0.027586,0.019883,0.022226,0.11441,0.54047,0.20879
0.071755,0.10496,-0.094106,-0.053001,-0.058332,-0.10942,-0.5965,-0.001294
-0.24186,-0.04822,0.018707,0.0074021,-0.013301,-0.028971,0.06494,-0.14729
0.20738,0.027537,0.0072089,0.013827,0.016849,0.058467,0.15063,0.10517
-0.0097131,-0.41617,-0.065422,-0.041333,-0.038061,-0.089505,-0.050034,-0.12032
-0.087525,0.16228,0.051478,0.02957,0.040817,0.042733,-0.052932,-0.17627
0.13922,0.21906,0.038083,0.023459,0.026942,0.041301,0.15672,0.29641
-0.070434,-0.0085106,-0.035148,-0.020686,-0.04071,0.00025927,-0.023932,-0.092609
-0.13734,-0.096338,0.011167,0.0062792,0.032955,0.0059087,-0.049468,-0.030033
0.25165,0.17543,0.066896,0.010237,0.013219,0.011733,0.12565,0.0085536
-0.059545,0.14252,-0.0018939,-0.017084,-0.037845,-0.075711,-0.41353,0.031876
-0.14154,-0.39956,-0.040234,0.01758,0.012132,0.02506,0.19211,-0.0063337
0.16126,0.18756,0.036614,0.020048,-0.0013045,0.040748,0.36496,0.1441
-0.081742,-0.17684,-0.13161,-0.064676,-0.031554,-0.067674,-0.51106,-0.22023
-0.035503,-0.01876,-0.014048,0.013281,0.022829,0.035656,0.19844,0.087558
0.15077,0.12843,0.092543,0.011797,0.029091,0.053678,0.049811,0.058894
-0.085913,0.37264,-0.0065594,0.0014276,-0.028182,-0.045134,-0.080481,-0.064736
-0.073874,-0.45089,0.0020265,-0.0018386,-0.00022092,-0.0032969,0.081964,0.059981
-0.18025,0.0016615,0.048964,0.025856,0.004001,0.0069872,-0.025072,-0.16077
0.17324,-0.034638,-0.083618,-0.024458,-0.0072919,-0.030181,-0.034834,-0.023563
0.15854,-0.027418,0.042427,0.011621,0.028769,0.072524,0.33289,0.034675
-0.021314,0.36834,0.060263,0.0015166,-0.04379,-0.075575,-0.39987,0.25677
-0.015091,-0.14309,-0.061291,-0.007776,0.032998,0.0021527,0.14039,-0.2005
0.1768,-0.21709,-0.025508,-0.0084316,-0.0064752,0.016804,-0.18827,0.022499
-0.41465,0.1078,0.011102,0.015095,0.0095499,-0.0001666,-0.12119,0.066338
