0.00047856,0.00059743,0.022392,0.01495,0.0075624,-0.0081993,-0.0084123,0.0024826
-0.00029408,-0.011442,0.0014077,-0.0022264,-0.00049689,0.00010611,0.01498,-0.0058377
0.014613,0.014835,-0.079576,0.0034409,0.0071463,0.0083088,-0.0083481,-0.0065901
-0.00933,0.0099335,0.090837,0.016671,-0.0085114,-0.014845,0.0076166,0.0081532
-0.0016754,0.021574,-0.04184,-0.0011961,0.0072443,0.00097258,0.0081987,0.0072289
-0.0092235,-0.027675,-0.015106,-0.0028965,-0.0002813,0.016714,0.001145,0.014108
-0.016373,-0.028033,-0.13095,-0.027192,-0.023318,-0.0066859,-0.013683,-0.0024802
0.023606,0.08304,-0.010982,-0.027071,-0.022884,0.0088705,0.0025915,-0.011343
0.016697,0.0083414,0.0044688,-0.049503,0.024345,-0.0069786,-0.0049181,-0.0047225
-0.0062068,-0.08088,0.12135,0.084839,0.040099,0.00040103,0.010498,-0.0060669
0.0091921,0.017702,0.32571,0.14879,0.047661,0.015352,0.0096829,0.0081241
6.272e-05,0.022018,-0.27281,-0.092798,-0.062465,-0.024614,-0.0073541,0.0067474
-0.010336,-0.029562,0.18402,-0.039096,-0.048135,-0.0022369,-0.009241,-0.0099821
0.001489,0.042195,-0.2825,0.0046732,-0.0030235,-0.011137,-0.01919,-0.018385
-0.02664,-0.067549,-0.12042,-0.070988,0.034016,0.019166,0.0021564,-0.0026238
-0.0082141,0.04761,0.36283,-0.046931,0.0086192,0.0029068,0.0082308,0.013987
-0.0050094,-0.010356,-0.53834,0.14026,0.014927,0.010534,0.030546,0.062686
-0.0084741,0.016936,0.32257,-0.008089,0.022077,-0.0047578,-0.016673,-0.052006
0.075731,-0.026153,0.053471,-0.0060961,-0.063359,-0.019544,-0.0083891,-0.010073
-0.041162,-0.014088,0.46584,-0.11013,0.0010004,0.020765,0.078746,0.055292
0.00014213,0.0066135,-0.8942,0.095005,-0.011381,-0.016804,-0.099203,-0.082858
0.042936,0.0517,0.301,0.023944,0.047769,0.015986,-0.0034108,0.036095
0.0083553,0.0038678,0.41061,-0.026529,0.021846,-0.0060641,0.014315,-0.017729
-0.010708,-0.0043671,-0.38549,0.083396,0.011903,0.0028182,-0.0071846,0.021256
-0.06191,-0.012443,0.21809,-0.20244,-0.068595,0.0034676,0.033477,0.0047254
0.01828,-0.028504,-0.10542,0.074937,-0.0015035,-0.019765,0.018985,0.011048
-0.04374,-0.021476,0.10698,0.13205,0.02515,-0.0043248,-0.035099,-0.037577
0.010062,0.00086554,-0.53269,-0.088003,-0.043703,0.0030264,0.050927,0.0076429
0.03959,-0.0080989,0.22851,0.01447,0.096424,0.033683,-0.050954,0.029849
0.029917,0.053605,0.24499,0.063191,-0.093533,-0.029404,-0.035849,-0.033211
-0.033884,0.038017,0.065818,-0.18448,0.027237,0.016995,0.034025,0.021714
0.036233,-0.030988,-0.19065,0.04537,0.037212,0.0010595,0.0027285,-0.00071047
-0.017255,-0.043719,0.20204,0.058803,0.015013,-0.0068993,-0.0044792,-0.014724
-0.030298,0.0077645,-0.14806,0.12354,0.0081153,0.0086979,-0.0030984,0.0028004
-0.0031906,0.029623,0.09269,-0.14853,-0.10001,-0.030351,0.014605,0.020206
0.04793,-0.017531,-0.19568,-0.090786,-0.0040507,0.00867,0.0014415,-0.017636
-0.041635,-0.056119,-0.031609,0.025515,0.015278,0.00065577,0.019389,-0.0017566
0.039971,0.053745,0.18413,-0.016938,0.012958,0.00018388,-0.018143,0.0050577
-0.0046707,0.045574,0.0046917,0.17292,0.0045963,0.022773,0.028822,0.018333
-0.043097,-0.0112,-0.086109,0.11789,0.11483,0.01365,-0.058963,-0.016469
0.0027154,0.023279,0.27159,-0.12105,-0.00073331,-0.0037873,0.046429,0.033878
0.000115,-0.085869,-0.56927,0.0087554,-0.053827,-0.029497,0.0092605,-0.0096494
0.019797,0.083116,0.13553,-0.025965,-0.060795,-0.00083472,-0.091721,-0.091538
0.015419,-0.086614,0.28669,-0.09387,-0.022089,-0.011294,0.033525,0.015623
-0.035873,-0.02397,0.081671,-0.031453,0.015368,0.0019614,0.058056,0.015645
0.038337,0.014319,-0.024817,-0.088247,-0.065233,-0.015397,-0.06384,0.026038
0.0040878,0.076316,-0.12574,0.080818,0.11963,0.046313,0.028107,0.030977
-0.044633,-0.040059,-0.32286,0.086873,0.023913,0.015397,-0.064136,-0.040634
-0.0062294,-0.045061,0.17168,0.040954,-0.046918,-0.014389,0.057632,0.083341
0.025394,0.069291,0.1057,0.037884,-0.045507,-0.027596,-0.04499,-0.044021
0.034301,0.060446,0.030911,-0.086237,0.012604,0.014506,0.2125,0.09913
-0.003339,0.013558,0.4673,0.066197,0.095808,0.0099322,0.10966,-0.11341
-0.025426,-0.080165,-0.72916,0.040402,0.0080705,-0.026132,-0.33946,-0.088371
-0.0010246,-0.034102,0.43096,-0.15012,-0.032797,0.030933,0.12974,0.21374
-0.031854,0.034059,-0.24911,0.031547,-0.066809,-0.022259,-0.35801,-0.3854
0.022744,-0.031866,-0.17529,0.036834,-0.024423,-0.0061309,0.17451,0.17874
-0.0010758,-0.028069,0.39697,-0.041449,0.007985,0.0012421,0.22084,0.01006
0.022031,0.06225,0.026654,0.015449,0.0069217,-0.0077695,-0.13129,0.12634
-0.0013023,-0.064179,-0.21802,-0.14312,0.050815,0.029609,0.18236,0.075966
-0.055124,0.00020258,-0.34629,0.11727,0.023041,0.0043167,-0.13367,-0.12484
0.016988,0.0062477,0.16351,0.15023,-0.013199,-0.0052148,-0.0083,0.039152
0.05874,0.14939,0.50352,0.0046813,0.0053176,0.0012744,-0.043015,-0.058324
-0.016084,-0.024248,-0.30056,-0.20039,-0.06139,-0.022902,0.066284,0.0027826
0.010785,-0.063079,-0.077535,-0.065287,-0.0097018,-0.015142,-0.0096267,-0.02175
-0.025312,-0.016094,0.051685,0.15275,0.027866,0.0089326,-0.037782,-0.024442
-0.015592,-0.041852,0.22924,0.023912,0.01232,0.017972,0.011575,0.079149
0.031675,0.099746,0.080055,0.086511,0.060686,0.035217,-0.003539,-0.016596
-0.00091894,0.055659,0.27571,0.003428,-0.030523,-0.017731,0.040828,-0.069816
-0.058612,-0.22158,-0.71418,-0.12513,-0.043057,-0.023992,0.073762,0.075963
-0.00041324,0.010607,-0.45664,-0.15199,-0.024348,-0.015108,-0.20952,-0.10204
0.018021,0.081681,0.62493,0.14841,0.0094497,0.00088736,-0.050767,0.045543
0.091151,0.0092709,-0.36636,-0.021471,0.050102,0.05514,0.33213,0.26198
-0.069386,0.030089,0.62809,-0.13077,0.003592,-0.024192,-0.11433,-0.23287
-0.0098946,-0.03328,-0.34739,0.17182,0.01828,-0.025997,-0.099717,-0.031686
-0.011271,0.0554,0.26742,0.034454,-0.093208,-0.020293,0.010141,-0.039726
0.02033,-0.04642,-0.3977,-0.1057,-0.0024327,0.040165,-0.064825,0.040775
0.0066183,-0.010176,0.55141,0.43852,0.11139,0.022956,0.13717,0.062111
0.048783,0.077897,-0.04715,-0.23923,-0.032406,-0.0090708,0.046207,0.04822
-0.02555,-0.056535,-0.20803,-0.2011,-0.034795,-0.055667,-0.13476,-0.078821
-0.045029,-0.024117,-0.20443,-0.21953,-0.051486,0.023893,0.062317,0.071464
-0.0022915,-0.013761,-0.41926,0.097705,0.074161,0.010788,-0.012195,-0.14208
-0.022643,0.066959,0.82693,0.11974,-0.024877,0.0063352,-0.055139,-0.025085
0.026591,-0.040849,-0.52091,0.098378,0.018474,0.033575,0.01775,0.085217
0.05948,-0.087929,0.16929,-0.019921,-0.0071211,-0.056418,0.025204,0.015319
-0.056682,0.097199,0.33369,0.085255,0.014882,0.063981,0.30973,0.02122
-0.001436,-0.016807,-0.25641,-0.087179,0.029005,-0.058777,-0.30903,0.22614
0.014426,0.031128,0.021169,0.17164,-0.051499,-0.026521,-0.17478,-0.23075
0.01446,0.014737,0.21004,-0.16433,-0.016363,0.027874,0.080532,-0.069027
0.045643,-0.0030734,-0.53674,-0.08196,0.040256,0.034252,0.11465,0.062958
-0.048174,0.0094448,0.33294,0.049815,0.0089254,0.0085828,0.062282,-0.16187
-0.016864,-0.017444,0.22381,0.035148,-0.031923,-0.033043,-0.035555,0.14903
-0.039964,-0.098737,-0.39547,-0.031322,-0.05043,-0.035435,-0.17728,-0.040947
-0.015768,0.0083562,0.10923,-0.14741,-0.0067589,-0.0059607,0.091156,-0.01054
0.01673,-0.00039527,-0.087604,0.07273,0.076419,0.016611,0.019794,0.062662
0.073074,0.054862,-0.12323,-0.02392,-0.011257,0.071424,0.092198,0.054919
-0.011082,0.064508,0.39655,0.22938,0.035156,0.017706,0.13502,-0.010127
-0.001835,-0.073711,-0.1658,-0.29087,-0.057897,-0.043315,-0.080028,-0.03956
0.1315,0.17823,0.059019,0.28241,0.099778,0.0051243,-0.093515,0.019687
-0.14284,-0.071487,0.017173,0.11158,-0.0080433,-0.032682,-0.10154,0.12657
-0.06731,-0.14418,-0.010489,-0.18918,-0.045997,-0.055434,0.044574,-0.19731
0.037897,0.04553,-0.056582,0.040592,-0.092566,0.03836,-0.11487,-0.015733
-0.045441,-0.12723,0.095791,-0.16348,-0.077465,-0.0011871,-0.06229,-0.016576
0.081988,0.18215,-0.0083032,0.14143,0.18712,0.060533,0.11851,-0.01961
-0.024096,-0.032654,-0.32329,-0.053498,-0.048239,-0.010587,0.31194,0.078033
-0.050245,-0.097898,0.15031,-0.27885,-0.017289,-0.058074,-0.31736,0.020247
0.082296,0.12112,0.022205,0.22532,0.12425,0.082262,0.042287,0.0040023
0.037737,0.016592,0.24648,0.1339,-0.10773,-0.011433,0.56848,-0.063265
-0.020247,-0.035537,-0.050607,-0.14366,-0.04927,-0.057967,-0.49953,0.1626
0.094996,-0.035133,-0.3679,-0.050091,0.072649,0.012879,-0.15708,-0.11577
-0.25048,-0.076684,-0.0016637,-0.013741,-0.03175,-0.0021097,0.1245,0.045613
0.090578,0.1586,0.11823,0.26991,0.003875,-0.017059,-0.10156,-0.034818
0.0234,0.035815,0.35785,0.2368,0.13183,0.038306,0.10222,0.05491
0.0082429,-0.04115,0.23096,-0.27966,-0.054726,-0.00011136,-0.13778,-0.10896
-0.025458,-0.043292,-0.31938,0.092875,-0.079486,-0.015177,0.19649,0.019116
0.031861,-0.050529,-0.29522,-0.46795,-0.161,-0.014792,-0.040478,0.08705
0.0089032,-0.048302,-0.026018,0.099583,0.14663,0.055614,0.17757,-0.11576
-0.023145,0.025684,-0.090169,-0.039821,-0.0072756,-0.007203,-0.35808,-0.0022593
0.061762,0.08612,0.10682,0.10009,0.018817,-0.023633,0.23659,0.054196
-0.13374,-0.068801,0.18356,0.076507,0.11631,-0.032727,-0.14767,-0.077354
0.031945,0.12519,-0.045883,0.12617,-0.0033622,0.028146,0.33975,0.12043
0.05171,-0.025236,0.099374,0.070965,-0.058817,0.0029896,-0.34973,-0.030865
0.02748,-0.010311,0.18234,-0.02618,-0.065811,-0.0062909,0.21928,0.14915
-0.056422,-0.1564,-0.031581,-0.05667,-0.048095,-0.03058,-0.18177,-0.19879
0.073,0.092569,-0.42587,0.016889,0.079887,0.0398,-0.038815,0.096849
-0.022506,0.050032,0.26431,-0.22946,-0.080682,-0.021557,0.23333,0.058916
-0.093848,-0.096163,-0.28965,-0.1102,0.063592,0.011864,-0.24806,-0.28974
0.19401,0.091219,0.045027,0.28724,0.098298,0.06948,0.025696,0.17542
-0.20653,0.0019282,0.20626,-0.15513,-0.055037,-0.067913,0.19662,-0.077139
0.016572,-0.0060534,-0.031855,0.32042,-0.013941,-0.0024341,-0.20245,-0.00072772
0.050684,0.010835,0.17506,-0.090234,-0.044326,0.015373,0.048641,0.1466
0.013144,-0.050859,-0.14923,-0.19859,0.025505,0.00071605,0.13053,-0.080901
0.029296,-0.0054184,-0.15331,-0.17523,-0.0075883,-0.046607,-0.034592,0.066096
-0.064497,-0.010545,-0.087754,0.30934,0.012813,0.021895,-0.056453,0.00079834
0.075911,0.050009,0.53875,0.20952,-0.014507,0.019019,-0.021825,0.1208
-0.041382,0.035304,-0.31378,-0.39559,0.0046698,-0.0078851,0.33385,-0.12916
-0.0021803,-0.06214,0.064992,0.1665,0.055239,0.004236,-0.54513,-0.13978
-0.033071,0.039848,-0.12957,-0.11971,-0.026385,-0.014412,0.17655,-0.11363
0.029849,-0.087044,0.0018931,0.026687,-0.06018,0.022489,0.24092,0.20041
0.0066453,0.0041041,0.055038,0.10491,-0.046034,-0.025517,-0.42977,-0.07123
0.0064258,0.017996,-0.045566,0.10601,0.0315,0.013368,0.16523,0.010368
0.021161,0.026222,-0.015566,-0.26045,0.10944,0.013844,0.3393,0.20407
-0.027365,-0.0017175,-0.062952,-0.042747,-0.016051,-0.001106,-0.42244,-0.075587
-0.014057,0.090537,0.18164,0.40634,0.060456,0.03052,0.21635,0.17126
0.045771,0.013406,-0.26533,-0.31246,0.033587,0.022368,0.15402,-0.0091202
-0.058321,-0.10909,0.18127,0.097507,-0.15949,-0.11172,-0.3834,-0.46128
-0.021037,0.018723,0.27681,-0.011774,-0.11231,0.011133,0.51724,-0.037578
-0.01367,0.0051286,0.26753,-0.2095,0.027481,-0.04627,-0.70768,0.1285
0.034493,-0.033454,-0.80407,0.25598,0.034589,0.068144,0.30008,0.075407
0.029773,-0.0035557,0.29228,-0.23843,0.090161,0.058068,0.047273,0.23219
0.057771,-0.022141,-0.14183,0.18412,0.12521,0.017738,0.30656,0.11368
-0.054113,-0.0026575,0.10303,0.16566,-0.12501,-0.060359,-0.20375,-0.12478
0.044695,0.055702,-0.051043,-0.38679,-0.089947,-0.019918,-0.17113,-0.11682
0.048476,0.0052827,-0.071095,0.30018,0.14403,0.029509,0.12373,-0.17542
-0.1686,0.041967,0.10804,-0.055496,-0.088178,-0.029621,-0.060231,-0.15986
0.018029,0.056641,0.4658,0.18545,0.094869,0.044429,-0.16678,0.33686
-0.032159,-0.075737,-0.60477,-0.34587,-0.034876,-0.014422,0.20426,-0.066826
-0.013898,-0.13668,-0.13358,-0.12773,-0.10371,-0.026872,-0.16419,0.16972
0.18312,0.10785,0.41841,0.27586,0.035884,0.045881,0.58068,0.024661
-0.072838,-0.045621,-0.075219,0.10593,-0.038368,-0.085345,-0.54485,-0.25063
0.0082774,0.10581,0.32052,-0.19301,0.072051,0.040401,0.15456,0.1027
-0.025915,-0.10987,-0.46771,-0.17609,0.00042561,0.016967,0.0299,-0.00066748
0.028101,0.065132,0.23699,0.39874,0.036507,0.031987,-0.19324,-0.12308
-0.040591,0.013618,-0.02022,0.047211,-0.0221,-0.015984,0.18707,0.047661
0.0020702,-0.037866,0.057485,-0.16779,-0.12791,-0.033122,-0.056956,0.2842
-0.0085533,-0.026914,-0.53584,-0.32374,0.14136,0.011854,-0.10623,-0.36783
-0.010707,-0.063103,-0.1638,0.31465,0.020241,-0.013865,-0.0087227,0.082165
0.049479,0.21263,0.81109,0.08445,-0.038194,0.053796,0.17986,0.069846
-0.00065754,-0.098561,-0.38763,-0.46625,0.012771,-0.019484,0.27898,0.31994
-0.013338,-0.0048777,0.31434,0.45279,-0.030144,-0.0070137,-0.48545,-0.55193
0.089129,0.0089998,-0.010317,0.02222,-0.049783,-0.057022,0.0034438,0.28914
-0.16995,-0.033577,-0.19716,0.024,0.063395,0.049517,0.24577,-0.01646
0.053367,0.062914,0.38506,-0.15081,0.020693,-0.0074125,-0.11725,-0.03056
0.033025,-0.052573,-0.634,-0.080101,-0.075832,0.0068153,0.11856,-0.048486
-0.09745,-0.22303,-0.086618,-0.068446,-0.045998,-0.056097,-0.34226,-0.11489
0.12367,0.25551,0.59296,0.063856,0.016787,0.077265,0.14243,0.1165
-0.068519,-0.02245,-0.4981,0.10576,0.13602,0.016083,0.12096,-0.047227
0.068679,0.021705,0.31608,0.033538,-0.0010908,-0.013406,0.2507,0.16918
0.02769,0.16154,0.032655,-0.020527,0.050196,0.011867,-0.50673,-0.077118
-0.0509,-0.1813,0.2751,0.13032,-0.0077194,-0.025588,0.35671,0.12005
-0.042343,-0.10886,-0.55028,-0.132,-0.1833,-0.039972,-0.10442,-0.045004
0.021749,0.081417,0.050467,-0.23027,-0.023812,-0.0077593,-0.054508,-0.14416
0.0081874,-0.001661,0.42459,0.029961,0.041051,0.024463,0.26395,0.18021
-0.02865,-0.0069711,-0.5246,0.15579,-0.011806,-0.044463,-0.29766,-0.19843
-0.010849,-0.028574,0.013224,-0.056496,0.10723,0.035846,-0.27846,-0.13265
0.045851,0.12865,0.1452,0.40831,0.00029974,0.046855,0.20429,0.25211
-0.014845,-0.043236,-0.085064,-0.27029,-0.0041014,-0.011485,0.14249,-0.17689
0.064872,-0.020829,0.10632,-0.06874,0.06286,0.063609,0.13693,0.19784
-0.01967,0.016214,0.75085,-0.01772,-0.15844,-0.0096755,0.10033,0.017273
0.028434,-0.064777,-1.0131,-0.24904,0.073665,-0.083555,-0.13324,0.078384
-0.22828,0.041159,0.30234,0.12145,0.00069631,-0.049239,-0.25331,-0.2987
0.12429,-0.0093249,0.066732,0.14976,-0.026479,0.030381,0.1992,0.065246
0.054863,-0.051669,0.11831,0.1104,0.014963,0.0067282,-0.15976,0.24773
-0.022588,0.1334,0.27293,0.027201,-0.070744,-0.026349,-0.025865,-0.25968
0.047977,-0.13333,-0.62035,-0.39705,-0.0026106,0.064222,0.25776,0.09731
-0.054041,0.031286,-0.33515,0.45377,0.18807,0.052212,-0.17461,-0.048598
0.19451,0.10396,0.075873,-0.11714,-0.037564,0.00047046,0.030665,0.060713
-0.26122,-0.048172,0.53809,-0.10352,0.008437,-0.02035,-0.053745,-0.019376
0.031965,-0.042525,-0.23366,0.21223,-0.087245,-0.080206,0.011945,-0.037844
-0.011507,0.0033619,0.61538,-0.17817,-0.15954,-0.014637,0.33125,0.061211
0.023067,0.0031364,-0.56153,-0.61811,0.074004,0.020547,-0.27409,-0.17409
0.05836,-0.0045652,0.28227,0.53412,0.083351,0.0023545,-0.029781,0.21048
-0.022029,0.018908,-0.034755,0.38934,0.096095,0.048341,-0.037113,0.02044
0.016865,-0.044029,-0.17178,-0.3089,-0.074635,-0.020979,0.0083608,-0.024992
-0.043467,0.048418,-0.17109,-0.1222,0.03219,0.020916,0.035624,-0.03512
0.038984,-0.0088453,-0.090142,0.22305,-0.021416,0.017482,0.098255,-0.14305
-0.0098148,0.025955,0.35045,0.070056,-0.11927,-0.0083618,-0.094265,0.025616
0.012347,-0.066325,-0.42033,-0.41043,0.034146,-0.065074,-0.028014,0.00907
0.010647,0.088996,0.65258,0.249,0.14822,0.026368,0.068644,0.32969
-0.015943,-0.016061,-0.21861,0.11742,-0.036353,0.023203,-0.0091185,-0.30275
0.033348,-0.045504,0.069536,-0.1575,-0.036439,-0.0046573,0.36232,0.30589
-0.084062,0.0088061,-0.2932,-0.091511,-0.024722,-0.041777,-0.56787,-0.50169
-0.039985,-0.063468,-0.09346,0.081623,-0.048343,0.013424,-0.08113,0.10968
0.048894,0.027554,0.007009,-0.066524,0.010186,0.012685,0.29181,0.21764
0.02714,0.040622,0.23676,0.2079,0.011024,0.050037,0.12232,-0.068619
-0.0027247,0.02354,0.31597,-0.046456,0.064655,-0.061705,-0.25234,0.055692
0.038343,0.00054972,-0.23895,-0.10934,0.0082402,0.037132,0.059805,-0.065383
0.026081,0.042561,0.017402,-0.073566,-0.032079,-0.012579,0.23955,0.13893
-0.0077857,-0.076635,-0.5092,-0.0014829,-0.055407,0.0002907,-0.087412,-0.25265
-0.078673,-0.013176,0.33657,0.18426,0.11069,-0.025683,-0.2802,0.049656
-0.014736,0.0062486,-0.087242,0.13825,-0.080456,-0.0044688,0.13763,0.077823
-0.034938,-0.12809,0.19427,-0.10277,0.019462,0.017122,0.017267,-0.034639
0.086922,0.18478,0.2338,-0.18988,0.0038316,0.03132,0.34263,-0.060618
0.03006,-0.016894,-0.30678,-0.063139,0.020594,0.0069123,-0.44134,0.11741
-0.0029523,0.054943,-0.22654,0.18951,0.022349,0.0064412,0.173,0.19489
-0.020513,-0.061743,0.44134,-0.0034197,-0.085123,-0.055977,-0.20489,-0.23443
-0.023181,0.053885,0.054928,0.076699,-0.05219,-0.031847,0.065918,-0.029955
-0.027044,-0.1693,-0.63621,-0.42076,0.066199,0.016355,0.14202,-0.0040644
0.037895,0.033891,0.15756,0.40456,0.035476,-0.005178,-0.10921,0.046667
0.030872,0.061898,0.35971,-0.030625,-0.058569,0.028354,0.030873,-0.088237
-0.09497,0.032367,0.2696,-0.027896,0.19019,0.093148,0.2883,-0.064544
0.04332,-0.030439,-0.71122,0.056614,-0.015153,-0.014425,-0.22843,0.28992
-0.014996,-0.031698,0.26441,-0.21157,-0.1667,-0.068356,-0.1375,-0.20463
0.074042,0.12351,0.44204,0.037198,0.024922,0.0012023,0.068023,0.068394
-0.0018686,-0.14182,-0.90201,-0.039237,-0.17412,-0.040371,-0.01078,0.13916
-0.0081541,0.02483,0.56237,0.23143,0.11185,0.0023103,0.11061,-0.18905
0.016365,0.077219,-0.03919,-0.011082,0.14133,0.035906,0.16741,0.11356
-0.052975,-0.10939,-0.2233,-0.17527,0.0085042,0.029853,-0.19047,0.17085
-0.15321,-0.14453,0.32757,0.016676,-0.075578,-0.093136,-0.57832,-0.57244
0.15371,0.37744,-0.14875,0.052692,-0.040935,0.050581,0.52929,0.21199
0.016801,0.010265,0.084504,-0.040507,0.13519,0.055424,0.14961,0.17346
0.038115,-0.23158,0.38882,0.30322,0.0066425,-8.7713e-05,-0.11492,-0.069467
-0.047682,-0.060163,-0.6782,-0.14584,-0.14614,-0.045575,0.063722,0.062903
0.017261,0.14079,0.62248,0.07955,0.035688,0.020279,0.028167,-0.02957
-0.017282,-0.058938,-0.63161,-0.59827,-0.088604,-0.053021,-0.14536,-0.025575
-0.018945,0.01246,-0.086718,0.23726,0.12193,0.054197,0.072126,-0.057504
0.019494,0.081888,0.40243,0.16058,-0.066417,-0.010316,-0.048078,0.23383
-0.035429,-0.16253,-0.60328,0.11422,-0.0044467,-0.028453,0.047105,-0.26162
0.057843,0.014283,0.49629,-0.17804,0.10537,0.030505,-0.15096,0.19732
-0.037173,0.050414,0.15167,0.014345,-0.033549,-0.0057064,-0.095381,-0.22636
0.054102,0.063328,0.053268,0.0060972,-0.030744,-0.043574,0.16763,0.1383
-0.074853,0.029482,-0.025467,0.07065,-0.00406,0.033994,0.05317,0.10321
-0.017914,-0.0046966,-0.0091253,-0.052016,0.0064312,-0.0073449,0.015425,-0.29275
0.076485,0.046101,0.24608,0.38417,0.12459,0.082556,0.19589,0.20068
-0.049367,-0.16244,-0.69487,-0.28183,-0.11148,-0.039782,-0.08454,0.052849
0.018766,0.049123,0.22578,0.133,0.063308,-0.030202,-0.30201,-0.18078
0.16392,0.0091277,0.38007,0.1099,-0.12434,0.010291,0.21572,0.22712
-0.25428,-0.14108,-0.67018,-0.89899,-0.10325,-0.073862,-0.10895,-0.24632
0.03792,0.013622,0.10795,0.045264,0.15148,0.038418,-0.1816,0.0084591
0.040853,0.052551,-0.032166,0.5321,0.0010652,0.011931,0.20947,0.10054
0.0048666,0.25015,0.31991,0.21461,-0.02147,0.034751,0.2368,0.16979
0.063105,-0.057039,0.23056,-0.15254,0.022744,-0.017831,-0.34931,-0.081766
-0.034147,-0.087627,0.13226,0.0045293,-0.0219,-0.013087,0.13064,-0.18658
0.041463,0.017474,-0.53631,-0.0077392,0.070938,0.064133,0.30869,0.54968
-0.12396,-0.086028,0.58389,-0.080345,0.081473,-0.060419,-0.46486,-0.62348
0.02438,-0.062812,-0.83674,0.09695,0.023723,0.018484,-0.011913,-0.10434
0.033405,-0.046256,0.27,0.26279,-0.11976,-0.0049197,0.32997,0.10791
0.012444,0.1741,0.058222,-0.29775,-0.24128,-0.045645,-0.096896,0.1238
-0.046473,-0.042795,-0.028606,-0.29919,0.032947,0.044068,-0.13725,0.10078
0.059494,0.1073,0.36758,0.099713,0.2335,0.037352,0.23978,0.31317
0.12683,0.037941,-0.11334,0.21818,-0.022547,-0.050057,-0.3015,-0.28555
-0.19648,-0.17326,-0.3231,-0.22474,-0.047441,-0.030162,0.075699,-0.11744
-0.004621,-0.01116,0.10574,0.22542,0.057732,0.027509,0.0054382,-0.057997
0.045821,-0.015143,0.0018799,0.15652,-0.026796,0.0067011,0.075021,0.032797
-0.0063085,0.056864,0.053515,-0.39044,-0.0035908,-0.036994,-0.12061,0.045094
0.034227,0.064361,-0.15281,0.27361,0.049798,0.053382,0.19277,0.064629
-0.012222,-0.0079462,0.43015,-0.006629,0.0012043,0.02822,0.04669,0.0055679
-0.020552,-0.15957,-0.041268,-0.26994,-0.1408,-0.042156,-0.0043632,-0.030166
-0.014067,0.11005,-0.63749,0.12407,-0.055032,-0.0096533,-0.11709,-0.17487
0.062047,0.059319,0.76629,0.55773,0.11095,0.047003,-0.17479,0.19702
-0.010845,0.0012704,-0.50967,-0.61001,-0.024913,-0.021328,0.10353,0.03911
-0.0060652,-0.040187,0.12074,0.097379,0.13158,0.0269,0.053878,-0.015476
-0.017229,-0.056873,-0.099794,-0.11648,-0.052375,-0.089988,-0.12026,-0.10725
-0.05978,-0.0016721,0.2669,0.14004,0.032126,0.0107,0.17541,0.0058612
0.093081,-0.054193,-0.27063,-0.30373,-0.068933,0.024475,0.058665,0.11264
-0.050557,0.11356,0.17877,0.17819,-0.020763,-0.0013432,0.11585,-0.17019
0.017397,0.11059,0.22464,0.22669,-0.0042562,0.027563,-0.42629,0.10213
-0.015326,-0.18871,-0.61777,-0.057434,-0.0048507,-0.052336,-0.036644,-0.024202
-0.015779,0.027388,0.31465,0.22243,0.015758,0.048387,0.38593,-0.03425
0.070739,0.062771,-0.10451,-0.11597,-0.013093,0.0017153,-0.18272,0.24319
0.025363,0.15893,0.82612,-0.028431,0.18995,0.096559,0.28772,-0.12994
-0.073996,-0.19235,-0.69992,-0.17325,-0.12458,-0.12056,-0.32102,-0.13051
-0.016669,-0.18642,-0.4185,-0.1606,-0.11984,-0.017275,-0.056877,-0.00070411
0.0095726,0.12236,0.52884,-0.06009,-0.021235,-0.00023676,0.032359,0.056681
-0.0033302,0.023684,-0.27218,0.20854,0.13335,0.06311,0.11008,-0.035879
0.0069119,0.11202,0.26483,0.17171,-0.037934,-0.061672,0.082228,0.034847
-0.014576,-0.072972,-0.10138,-0.27686,-0.089244,-0.030708,-0.14488,0.058616
0.072653,0.12529,0.32565,0.45117,0.1668,0.11719,0.34334,-0.057803
-0.036262,-0.16037,-0.82801,-0.58062,-0.03626,-0.078626,-0.51465,0.045235
0.080408,0.038517,0.54783,0.37728,0.089225,0.038316,0.055951,0.016213
-0.16335,0.0027887,0.17237,0.21347,-0.10698,-0.024076,0.20522,0.12849
