-0.1312,0.0040258,0.016315,0.02038,0.0090483,-0.0010864,0.16768,-0.04238
-0.020849,-0.10103,-0.035675,-0.010854,-0.0063183,-0.0022022,-0.084867,-0.01603
0.037323,-0.099951,-0.025511,0.0046277,0.001516,0.027066,0.049349,0.13977
0.10658,0.071491,0.016129,0.0042205,0.0011722,-0.022751,-0.031303,0.16703
0.046529,-0.021949,-0.043112,-0.019996,-0.0074242,0.020239,0.08788,0.07941
-0.049446,-0.20595,0.031481,0.010035,0.014793,0.0077871,-0.07604,0.099914
0.052124,0.45136,0.029199,0.00057508,-0.010209,-0.012838,-0.0052628,-0.21336
-0.064051,-0.032812,-0.010758,0.0064304,0.011502,-0.0019623,-0.10336,0.018221
-0.063306,-0.12659,-0.010204,-0.0034219,-0.0057624,-0.029119,-0.015981,-0.30181
-0.016981,-0.12722,-0.016019,-0.020858,-0.0070232,-0.0075219,0.071686,0.24032
0.043094,0.057674,-0.020464,-0.0064709,-0.015434,-0.022349,-0.089081,0.116
-0.031564,-0.089635,0.015374,0.00098334,-0.0073345,-0.010614,0.2202,-0.32554
0.10323,0.29546,0.036566,0.025138,0.033013,0.10586,-0.072877,0.0091459
-0.082981,0.022781,-0.019735,0.011331,0.0040076,-0.040619,-0.0033726,-0.1061
0.051319,-0.45702,0.002278,0.014079,0.022633,0.11143,0.3455,0.32819
-0.024313,0.28385,0.016158,-0.021649,-0.036452,-0.11131,-0.49275,-0.25358
-0.09062,0.025539,0.02139,0.0052446,0.013819,-0.0073163,0.15656,-0.10042
0.071219,-0.060287,-0.044979,-0.030731,-0.030125,0.015666,-0.2256,0.55782
0.023295,0.027074,-0.034833,0.010618,0.018829,-0.0044074,0.26599,0.60473
0.20228,0.062504,0.051675,0.027433,0.019785,-0.021192,0.41449,-0.2582
-0.21322,-0.18643,-0.051059,-0.050723,-0.050816,-0.12051,-0.79088,-0.80641
0.033473,0.094848,0.032129,0.018392,0.025812,0.096794,0.28996,0.16298
-0.03513,-0.099604,0.0046134,-0.0072109,-0.0079754,0.1006,-0.42798,-0.52654
-0.04462,0.012754,0.015112,0.036826,0.027775,-0.029579,0.64222,0.35898
-0.17489,0.21366,0.017022,0.0024017,0.00057767,-0.026737,-0.46868,-0.10675
0.2304,-0.012867,-0.012837,-0.00077169,0.012345,0.040085,0.43114,0.28519
-0.10195,0.050897,-0.011696,-0.02707,-0.03813,-0.015564,-0.35335,-0.62287
0.18767,-0.11197,-0.033924,-0.0059015,-0.025505,-0.15383,0.15809,0.90856
0.044791,0.005264,0.084944,0.062976,0.097411,0.23517,0.64486,0.52274
0.22757,-0.066524,-0.068661,-0.062428,-0.059745,0.057914,-0.38821,-0.12419
-0.067958,0.032646,0.013609,-0.022607,-0.051487,-0.49043,0.0082086,-0.19059
-0.76236,-0.22689,-0.10525,-0.044101,-0.034027,0.10524,-0.30122,-0.62452
0.20889,-0.07726,0.028221,0.052655,0.055004,0.1799,-0.16738,-0.5216
-0.06576,0.41355,0.085937,0.13456,0.15279,0.27123,-0.14768,0.35257
0.4631,-0.096448,0.11446,-0.048848,-0.03019,0.10418,0.65833,-0.11719
0.086485,0.10426,-0.035326,-0.037159,-0.064786,-0.11968,-0.13387,0.45519
-0.13234,-0.1805,-0.10651,-0.049653,-0.099919,-0.4327,-0.82029,0.45569
0.063727,0.21887,0.0093157,-0.00078897,0.020326,-0.092995,0.022541,-0.66874
-0.17125,0.010021,0.022284,-0.00012642,0.0067514,0.20469,1.0668,-0.12998
-0.18439,-0.14663,-0.052461,0.0070711,0.023464,0.024191,0.098999,0.70873
0.051533,-0.18403,-0.066563,-0.010198,0.00030182,0.17966,-0.043102,0.16152
0.09495,0.059589,0.058386,0.081248,0.093675,0.00069651,-0.0016875,-0.24759
0.37992,0.083333,0.11198,-0.0072566,-0.024443,-0.19934,-0.73373,-0.35313
0.1308,0.0049353,0.032342,-0.0097378,0.013157,0.36855,0.44359,0.0052799
-0.74661,-0.11133,-0.1331,-0.10563,-0.14512,-0.50758,-1.013,0.06243
0.046149,0.14337,-0.0089705,0.04894,0.047588,0.16267,0.57364,-0.5281
0.090792,-0.0015777,0.037729,0.039932,0.036646,0.088088,0.21817,0.27431
0.36903,0.14396,0.10071,0.054764,0.072218,0.35257,0.66363,0.69269
-0.25386,-0.26174,-0.13272,-0.10203,-0.11887,-0.42814,-0.68957,-0.78378
-0.069131,0.063776,0.063721,0.038149,0.026224,0.12061,0.20024,0.26176
-0.11157,0.05057,-0.099362,-0.017045,0.015668,-0.25023,0.1405,-0.1878
0.26925,0.12795,0.065238,-0.002066,-0.017413,-0.046217,-0.35062,0.12575
0.088099,-0.10344,0.04165,0.044013,0.09906,0.46241,0.18977,0.44628
-0.14322,-0.22298,-0.060927,-0.074059,-0.12704,-0.46298,-1.089,0.23835
0.07679,0.18209,0.030851,0.034456,0.046358,0.24326,0.74224,0.032843
0.11532,-0.10044,0.090426,0.057187,0.040887,-0.14336,0.5404,-0.64052
-0.027831,0.13933,-0.10864,-0.060438,-0.050065,0.33855,0.44964,-0.070312
-0.21091,-0.036917,-0.011395,-0.0058417,0.0074706,-0.046677,-0.51228,-0.094808
0.12448,0.096884,0.023186,0.041313,0.025601,-0.075295,-0.49204,0.43127
-0.045718,-0.021879,-0.035651,-0.051818,-0.074124,-0.36046,0.63815,-0.23755
-0.27316,0.013383,0.046981,0.058437,0.090889,0.67203,-0.23378,-0.51175
0.13583,-0.22619,-0.072238,-0.04991,-0.057572,-0.27015,-0.56815,0.44509
-0.4435,-0.05966,0.091308,0.044887,0.058659,-0.3217,0.092236,-0.52117
0.77847,0.29573,0.029793,-0.040108,-0.052447,0.025048,-0.042596,0.69914
-0.1914,-0.16637,-0.014872,0.015311,-0.0078338,-0.08771,0.1685,-0.062633
0.010271,0.14105,-0.04318,-0.0076792,0.028723,0.39756,0.43672,0.52572
-0.08493,-0.24257,-0.047915,-0.015372,-0.051868,-0.23448,0.13537,0.08572
0.41817,0.25257,0.079714,0.062536,0.086562,0.22248,-0.17775,-0.31454
-0.14268,-0.046823,-0.074805,-0.055188,-0.055843,-0.23716,-0.40144,-0.70501
-0.055972,0.060237,0.097664,0.053371,0.060031,0.36403,0.65622,-0.023161
-0.27377,-0.053735,-0.082559,-0.072658,-0.058037,-0.16203,-0.45557,1.0064
-0.027258,-0.023895,0.0019544,0.012121,-0.011684,-0.30148,-0.094651,-0.33637
0.10402,-0.055075,0.023496,0.026559,0.042764,0.35731,-0.05593,-0.68723
-0.22161,0.00048404,0.03727,0.017635,-0.027536,-0.21937,0.078034,0.17633
-0.092846,-0.0051074,-0.026518,-0.014548,0.019637,0.46659,0.085975,0.37325
0.090882,-0.070125,0.0044405,0.031662,0.028131,-0.46069,0.27201,-0.70805
0.47718,0.15179,-0.033647,-0.062413,-0.080044,-0.2978,-0.68317,0.49384
-0.11586,-0.055056,-0.015727,-0.023291,-0.015708,0.19093,0.2536,0.21818
0.096045,-0.031504,0.0033243,0.0084074,0.01024,-0.023933,0.12345,-0.011214
-0.035609,0.0059854,0.085585,0.063875,0.083629,0.34842,0.32644,0.14357
-0.17787,0.08991,-0.042982,-0.013258,-0.02238,-0.16753,-0.12887,-0.19729
-0.17965,0.024958,0.085699,0.0659,0.10585,0.54544,-0.10196,-0.17739
-0.062775,-0.065094,-0.13055,-0.08164,-0.1259,-0.60742,-0.14817,-0.038056
0.61989,-0.065265,0.034433,-0.002875,-0.007118,0.33319,0.20061,1.1032
-0.17538,0.068544,0.025849,-0.0025085,-0.038038,-0.61107,-0.09471,-0.7127
0.017713,0.075684,-0.085739,-0.025742,0.02355,0.26945,0.084087,0.19282
-0.31633,-0.022785,0.036151,-0.002052,-0.0095763,0.013361,-0.6123,-0.6585
-0.70625,-0.20491,-0.060888,-0.0093211,0.0036732,-0.050672,0.21009,-0.86212
0.40683,0.13054,0.10824,0.085447,0.09509,0.48499,0.74274,0.41518
0.34012,-0.015541,0.083139,0.032303,-0.0082663,-0.29958,-0.002561,0.64368
0.73036,0.038462,-0.081224,-0.06731,-0.08728,-0.3632,-0.63188,-0.0024932
-0.48272,-0.072045,-0.0099005,-0.018343,0.022297,0.16325,-0.010363,0.28834
0.083756,0.10099,0.023352,0.061668,0.086091,0.53892,0.0029105,0.39215
-0.51739,-0.30726,-0.21634,-0.13231,-0.16949,-0.62627,-0.062599,-0.74468
0.47638,0.3687,0.28611,0.11042,0.13027,0.36259,0.82038,0.69942
-0.59458,-0.10526,-0.12607,-0.046225,-0.077482,-0.32397,-0.94789,-0.78048
0.079442,0.043226,0.038962,0.022809,0.04276,0.21045,0.7111,0.16656
0.5828,0.16353,0.0075836,0.028634,0.037433,0.28367,-0.26526,-0.046444
-0.38142,-0.20811,-0.040467,-0.044081,-0.054821,-0.37239,0.2486,0.10547
0.18825,0.05824,0.020071,0.023775,0.03127,-0.10353,-0.36983,0.042868
0.099244,-0.00066334,-0.044746,-0.0096071,0.0064218,0.29997,0.088053,-0.0025902
-0.45738,-0.2767,0.0077901,-0.026694,-0.02784,0.072277,0.029669,-0.22223
0.11586,0.027019,0.029746,0.011834,-0.024454,-0.51229,-0.74349,0.19845
-0.021579,0.2085,0.0058762,0.012355,0.024808,0.24333,0.62744,-0.50033
0.14794,0.027488,0.037912,0.029527,0.034621,0.1226,-0.15358,-0.20211
0.069955,0.001751,0.00077461,0.0084698,0.013534,-0.19265,0.78911,0.67659
0.062977,-0.10122,-0.10585,-0.07458,-0.10801,0.096082,-0.64703,0.0039796
0.12332,0.086894,0.084755,0.037779,0.030008,0.083186,0.010921,0.3063
-0.3634,-0.10555,-0.029542,-0.0064497,-0.017299,0.096377,0.15467,0.4549
0.066073,0.18797,0.019479,0.034536,0.086099,0.0093527,0.10267,-0.56708
0.031826,-0.088552,-0.042039,-0.058293,-0.019444,-0.093684,-0.45383,-0.40465
0.26484,0.19616,0.082547,0.074308,0.1186,0.30133,0.79245,0.57816
-0.43129,-0.20916,-0.11458,-0.067619,-0.1412,-0.63452,-1.0309,-0.83951
0.31215,-0.25824,0.10118,0.023953,0.0050147,0.060025,0.71245,0.29022
-0.14134,0.21333,0.019317,0.036872,0.025303,0.034841,0.24675,0.44427
-0.20757,-0.10567,-0.14086,-0.11438,-0.13543,0.088988,-0.99872,-1.1061
-0.027926,0.16171,0.043116,0.062814,0.061769,0.0059796,0.21972,0.40624
0.18557,0.017701,0.0092632,0.021897,0.046763,0.26402,0.060929,0.49982
0.016129,0.089322,0.070414,0.020854,0.022982,-0.050483,0.56677,-0.026698
0.028651,-0.18454,-0.0077257,-0.010643,-0.001437,-0.21183,-0.71391,-0.073098
0.24572,-0.037789,-0.014403,0.0053422,0.059692,0.68426,0.80534,0.47215
0.10088,0.16964,0.0031159,-0.017418,-0.051294,-0.77881,-0.071964,0.23197
-0.25591,-0.1419,-0.033783,-0.016727,-0.021807,0.11536,0.2299,-0.54885
-0.058474,0.1425,0.030695,0.015003,-0.0079893,-0.033178,-0.80751,-0.072155
0.13175,-0.10486,-0.014688,-0.023869,-0.033089,-0.19349,0.0089367,-0.53137
-0.22135,0.13676,-0.0372,0.022992,0.020381,0.49472,0.045626,0.30398
-0.18237,-0.1427,-0.013262,-0.016064,0.012161,-0.16986,0.37381,-0.090823
-0.070688,0.016268,0.057424,0.0076886,-0.026161,-0.22413,-0.78532,-0.23051
0.2187,0.066394,-0.043552,-0.022675,-0.0084638,-0.010032,0.25113,-0.081899
0.12829,-0.19471,0.027813,0.0258,0.049549,0.29371,0.73627,0.99715
0.022766,0.070611,0.029402,0.028071,0.04592,0.39779,0.39876,0.10026
0.086228,0.10692,0.031367,-0.00048578,-0.020035,-0.63669,-1.0185,-0.2592
0.055788,-0.059723,-0.044775,-0.013412,-0.0007262,0.10984,-0.039771,-0.030616
0.049339,0.026227,0.034888,0.035659,0.048326,0.33791,0.91902,0.14064
-0.3093,0.13223,-0.073836,-0.080321,-0.13912,-0.46259,-0.97268,-0.62444
-0.093029,-0.1782,-0.03531,-0.010155,-0.032053,-0.11346,-0.03755,-0.34342
0.062028,0.016919,0.064446,0.042863,0.057208,0.26774,0.25375,0.35953
0.1134,0.005908,-0.016603,-0.0071544,0.019859,0.017723,0.13435,-0.058958
-0.027804,0.0061593,0.018756,0.011919,0.020774,0.13822,0.36152,0.49244
0.019122,0.10972,-0.0087231,-0.0088929,-0.02512,-0.25122,-0.59586,-0.45681
0.19066,-0.060118,0.042038,0.040266,0.086045,0.20356,0.65361,0.94238
-0.067678,-0.0047479,-0.047327,-0.051043,-0.074927,-0.22155,-0.71682,-0.78289
-0.38733,-0.021874,0.012509,0.014517,0.023417,0.36613,0.31828,-0.27965
0.24976,-0.017892,0.0029268,-0.012667,-0.040866,-0.43828,-0.090265,0.3575
-0.075152,-0.172,0.002061,0.01613,0.036661,0.13932,-0.16648,0.28998
0.16481,0.071414,0.002015,0.030768,0.02129,0.16902,0.35744,0.12342
0.011924,0.16647,0.0026482,-0.031204,-0.048227,-0.17048,-0.18903,-0.6226
-0.11718,-0.065756,-0.06652,-0.044855,-0.039309,0.017577,0.037894,-0.0059128
-0.056941,0.02342,0.028711,0.028688,0.024489,0.074747,-0.47117,-0.020483
-0.072706,0.15241,0.045981,0.032883,0.057193,0.20172,0.85879,0.37266
0.40483,-0.03894,0.0085622,-0.024846,-0.066199,-0.4945,-0.32803,-0.20778
-0.071743,-0.043761,0.049123,0.050366,0.10741,0.58562,0.79186,0.35808
-0.22403,-0.24559,-0.12932,-0.070074,-0.10958,-0.66872,-1.1058,-0.43424
-0.016132,0.097558,0.020071,0.019656,0.024842,0.14022,0.015821,-0.034562
0.0020765,-0.0060752,0.012931,0.014537,0.041691,0.33283,0.070941,0.14576
0.039073,0.0070076,0.013404,0.0003232,0.011046,0.12866,0.30461,-0.0088622
0.1635,0.067772,0.045029,0.00044776,-0.036009,-0.29897,-0.34841,0.5331
-0.2114,0.013346,-0.048349,-0.023974,-0.021379,0.044131,-0.014586,-0.60441
-0.085627,-0.014903,0.022383,0.0055169,0.0082057,0.027559,0.023282,-0.12667
0.21328,-0.016918,-0.039654,-0.012212,-0.025065,-0.1585,0.22321,0.38542
-0.048056,0.11599,0.023291,0.017041,0.019873,0.027684,0.33769,0.069587
-0.079403,-0.04715,0.00018006,-8.5064e-05,0.026309,0.0572,-0.047629,-0.45165
0.1986,0.0077039,0.047151,0.030414,0.010283,0.072284,0.16592,0.20284
0.052826,0.083736,-0.039009,-0.024195,-0.027937,-0.059299,-0.77628,0.087097
-0.19505,-0.37481,-0.016143,0.015679,0.028901,0.19306,0.089281,0.045324
0.089315,0.092586,-0.017012,-0.029888,-0.053729,-0.28183,0.17194,-0.1086
-0.30323,0.11121,0.021012,0.026285,0.059771,0.16951,-0.18796,-0.12267
0.082394,0.056907,-0.003443,-0.027063,-0.02169,0.1688,0.40636,-0.0024905
0.23247,0.040173,0.027015,0.028553,0.0060608,-0.27165,0.25181,0.35546
0.00011562,-0.14098,-0.0046267,-0.025775,-0.021516,-0.045227,-0.7987,-0.25066
-0.15292,0.084678,-0.027954,-0.010397,-0.01886,0.049275,0.1631,-0.21118
0.046605,0.092731,0.01173,0.012262,0.013804,-0.059265,-0.25132,0.27785
0.10517,-0.093101,-0.0028477,-0.004518,0.0061038,-0.011212,0.52986,0.31635
-0.22186,-0.082097,0.014094,0.025391,0.036262,0.2727,0.6713,-0.56662
0.29659,0.18832,0.038934,0.024053,0.010762,-0.033941,-0.23357,0.58777
0.016145,-0.031646,-0.022242,-0.023997,-0.046623,-0.15571,-0.35743,0.020165
-0.059083,-0.17131,-0.028905,-0.0014468,0.012941,0.12026,-0.35739,-0.59807
-0.40097,-0.13645,-0.074812,-0.056652,-0.075762,-0.2903,-0.60103,0.022721
0.074272,0.10451,0.043233,0.013555,0.046998,0.10594,0.4351,-0.83494
0.31104,0.11398,0.051901,0.037293,0.037717,0.10638,0.69641,0.83801
-0.14345,-0.0072858,-0.025283,-0.016751,-0.017583,-0.039142,-0.59883,0.13559
0.37641,0.19998,0.11639,0.1013,0.11538,0.34824,0.53217,1.0955
-0.33782,-0.06351,-0.093476,-0.077485,-0.094877,-0.24053,0.35996,-0.48822
-0.14228,-0.18333,-0.069068,-0.08454,-0.1018,-0.25992,-0.5176,-0.44777
-0.025515,0.033304,0.0332,0.04871,0.047407,0.13275,-0.24478,-0.51338
0.25055,0.17847,0.056937,0.05652,0.063439,0.046336,0.30889,0.4457
-0.084159,-0.1152,-0.083883,-0.03772,-0.022603,-0.0033006,-0.50502,-0.54654
-0.073869,-0.057114,0.087275,0.047273,0.031445,0.04733,0.45718,0.2634
0.31435,-0.12054,-0.031127,-0.039951,-0.039953,0.035757,0.25633,0.62376
-0.28614,-0.12908,-0.056219,-0.057028,-0.049118,-0.25486,-0.9662,-0.80949
0.12412,0.062906,0.06676,0.058755,0.066681,0.10705,0.23674,0.58849
-0.15949,0.22555,0.0097638,-0.020515,-0.012623,0.083882,0.14765,0.0038347
0.14205,0.15096,-0.016184,0.017827,0.041314,0.15293,0.70297,-0.051534
-0.14583,0.035387,0.012452,0.033239,-0.044789,-0.22507,-0.38339,0.0016693
-0.041695,-0.13817,-0.060451,-0.036798,-0.020855,0.034583,-0.097388,-0.37757
0.24055,-0.052849,0.023078,0.010734,0.011539,-0.015462,-0.26534,0.0091149
-0.075294,-0.033805,0.021036,0.0037882,0.02103,0.15343,0.9235,0.58453
0.039674,-0.070757,-0.027335,-0.034384,-0.023826,-0.070856,-0.63615,-0.42499
-0.0099975,0.057935,0.018739,-0.010193,0.0017126,-0.1595,-0.18244,0.47244
-0.022021,0.16886,0.018714,0.045007,0.066107,0.26085,0.32962,-0.40204
-0.10561,-0.13062,-0.011782,-0.0094374,-0.041841,-0.052554,-0.37189,0.14202
-0.025243,-0.28589,0.036561,0.037464,0.02144,-0.17717,0.24229,-0.37399
0.072638,0.27509,-0.031684,-0.040725,-0.064409,-0.056476,-0.67698,-0.38657
-0.098539,-0.014886,-0.060396,-0.025073,-0.0024004,0.015311,0.78269,1.0611
0.17474,0.16845,0.067494,0.022127,0.035838,0.12709,0.01271,-0.48618
-0.11308,-0.13173,-0.054371,-0.039564,-0.04312,-0.015359,-0.43052,0.10321
0.13333,-0.083692,0.019213,0.032156,0.026659,-0.043055,0.4385,-0.031327
0.00073041,-0.044147,0.022477,0.034158,0.050074,0.30238,0.0018693,0.076721
-0.026434,-0.011768,0.0021065,-0.0024561,0.0037366,-0.22201,-0.35304,-0.31085
0.10611,0.20083,0.051614,0.0079715,-0.018718,0.0069439,0.64115,0.60489
-0.18033,0.13908,-0.024563,-0.020855,-0.0019059,0.12735,-0.16488,-0.15253
-0.058106,-0.07447,-0.023505,-0.0033611,-0.016432,-0.25402,-0.36008,-0.50664
-0.097697,-0.26304,-0.078134,-0.041402,-0.046932,-0.10027,-0.92566,-0.10118
0.12285,0.10963,0.030322,0.005481,0.015795,0.13415,0.71073,0.38785
-0.091624,-0.021149,0.036382,0.043521,0.023245,0.089503,0.53476,0.0025496
0.27441,-0.10971,0.010581,-0.028732,0.0066907,0.17265,0.15677,0.23018
0.048527,0.078161,-0.015595,0.023306,0.020897,-0.2869,0.0076574,0.12875
-0.19225,0.051054,0.036177,0.012389,-0.0043555,-0.0060024,-0.43369,-0.54736
-0.066638,0.036937,0.0097842,0.0090959,0.001334,0.16584,0.27463,-0.14361
0.29088,0.021873,-0.047816,-0.041007,-0.03226,-0.12098,-0.63342,0.70772
-0.21482,0.038764,0.019693,0.0029334,0.012148,0.033495,0.071738,-0.35761
0.0093492,-0.059447,-0.053227,-0.015132,-0.0059352,0.036477,0.13862,-0.076625
-0.0519,-0.14678,0.014811,0.006518,0.007412,-0.0024135,0.036961,-0.083248
0.063765,0.027301,0.075557,0.060182,0.028957,0.14296,0.5501,-0.23747
-0.22731,0.15042,-0.081719,-0.05722,-0.081712,-0.34872,-0.64845,0.12336
0.20259,0.050464,0.043171,0.037105,0.066214,0.23214,0.35497,0.24571
-0.0033087,-0.062154,-0.018409,-0.047558,-0.034963,-0.061307,-0.19329,0.32605
-0.0072226,-0.070962,0.022606,0.048025,0.067888,0.12887,-0.17592,0.19012
0.0039804,-0.11742,-0.021417,-0.043515,-0.055039,-0.222,0.20765,-0.48031
0.029501,0.055354,-0.010123,-0.0020679,-0.013356,0.033689,0.12138,-0.43553
0.31722,0.10259,0.071738,0.070593,0.091046,0.24707,0.53119,0.60443
-0.39369,-0.047137,-0.10439,-0.083548,-0.12501,-0.2928,-0.73882,-0.56426
0.14352,0.10497,0.086058,0.050955,0.056866,0.15668,-0.16074,0.68471
0.066707,0.018672,-0.029135,-0.0026002,0.0035764,0.033673,0.72551,0.19956
-0.2899,0.021169,0.01075,-0.0099203,0.0040024,-0.18439,-0.76434,-0.64433
-0.098495,-0.10678,-0.08339,-0.041331,-0.035651,0.011231,0.041904,-0.56154
0.18098,-0.075916,0.079206,0.075102,0.080032,0.27765,0.87624,0.48644
-0.11362,-0.080649,-0.032414,-0.06674,-0.086197,-0.2672,-0.89216,0.079057
0.17617,0.075896,0.027464,0.041137,0.044163,0.22883,-0.42237,0.26478
0.22406,0.059695,0.056164,0.023949,0.026267,-0.02288,0.84629,0.3642
-0.10956,-0.025809,-0.047448,-0.047774,-0.053453,-0.16263,0.15307,-0.40635
-0.16844,-0.030714,-0.079896,-0.017592,-0.022674,-0.033947,-0.30502,-0.65433
0.14027,0.20982,0.0059129,0.0052506,-0.006091,-0.058665,0.086151,0.59503
-0.020712,0.00048724,0.045959,0.028609,0.027625,-0.1042,-0.49454,0.055326
-0.090203,-0.049932,0.040081,0.021174,0.047018,0.37569,0.7981,-0.062437
0.056045,-0.043901,0.066048,0.021851,0.043777,0.10645,-0.023575,0.27169
-0.1131,-0.23224,-0.11102,-0.063332,-0.05313,-0.10872,-0.43473,-0.14669
-0.026257,0.1346,-0.0072966,0.015389,-0.0023261,0.041031,0.12749,-0.47367
-0.0097511,0.041067,0.017339,-0.015619,-0.046739,-0.39881,-0.36662,0.28579
0.19635,0.050187,0.032869,0.031032,0.039685,0.28969,0.86118,0.2942
-0.24981,-0.21233,-0.054566,-0.039977,-0.055722,-0.2607,-0.64814,-0.61821
0.16076,0.043168,-0.018263,0.0058175,0.010988,0.021132,-0.30094,-0.0086084
0.26417,0.21523,0.048372,0.035758,0.052836,0.35529,0.93198,0.52911
-0.15143,0.029895,0.0051983,-0.0046562,-0.023195,-0.15504,-0.98542,-0.058777
-0.14246,-0.0061495,0.024621,0.0019442,0.010259,-0.016131,0.22685,-0.24806
0.12493,0.066518,-0.017868,-0.0067857,0.0054943,0.10129,0.24078,0.26539
-0.09335,-0.28484,-0.020316,0.00052136,0.0021288,-0.12245,-0.16314,0.01793
-0.0016566,0.14186,-0.013732,-0.015121,0.00047402,0.031535,0.042565,-0.22225
-0.10028,-0.23959,-0.0058535,-0.02243,-0.038486,-0.069884,0.47452,0.17762
-0.0057581,0.1183,0.042282,0.033261,0.033486,-0.0054256,-0.0059883,0.10585
0.087924,0.16997,-0.0023992,0.011246,0.0050564,0.24762,0.15248,-0.20738
-0.09895,-0.1454,-0.038726,-0.033942,-0.04618,-0.33492,-0.92469,-0.76761
0.16922,0.025314,0.026582,0.022478,0.019819,0.090065,-0.0054589,0.59851
0.0023071,0.0034168,0.013361,0.0083687,0.022804,0.061181,0.46157,0.51712
0.16551,0.062464,0.05402,0.040655,0.056068,0.2266,0.19241,0.20834
-0.11586,0.021913,-0.093878,-0.044929,-0.060365,-0.25746,0.014299,-0.49739
-0.11701,0.059781,-0.016316,-0.029722,-0.037497,-0.047082,-0.4147,-0.33045
0.019666,-0.029156,0.013447,-0.0074085,-0.00015261,-0.071602,0.16811,0.39523
-0.074292,-0.098465,0.0035914,0.006604,0.012997,0.099101,-0.13557,-0.061148
-0.016515,0.0067389,0.040542,0.036093,0.025929,0.11389,-0.073122,0.046749
0.20135,0.020518,-0.0001922,-0.0044834,0.0079815,0.13715,0.047264,-0.75914
-0.35679,-0.024963,0.0068305,0.0024383,-0.016876,-0.26063,0.19931,0.33325
0.24073,-0.11207,-0.0083977,0.010272,0.022055,0.030009,0.41894,0.15908
0.23042,-0.089669,-0.022311,-0.027708,-0.039115,0.048147,-0.54014,0.49707
-0.21399,0.044993,-0.0037209,0.0056761,0.033927,0.012571,0.68373,0.13104
-0.067808,0.34096,-0.0075653,0.00086617,-0.001295,-0.03759,-0.76013,-0.12705
0.10687,0.096147,-0.034268,-0.034662,-0.05151,-0.12573,-0.6066,-0.45239
-0.2842,-0.28351,0.040603,0.015815,0.01549,0.044946,0.6349,-0.30333
0.34358,0.028547,0.060133,0.050192,0.050617,0.067825,0.039874,0.37673
0.035137,0.02209,0.031462,0.021044,0.014202,0.14532,0.34726,0.12924
-0.25867,-0.016461,-0.085041,-0.048655,-0.047344,-0.1377,0.19424,-0.20604
0.23348,-0.011223,-0.00064266,-0.010752,-0.0092546,0.0065805,-0.29702,0.35337
0.03349,0.028665,0.0034271,0.025367,0.042599,0.27229,0.64561,0.02665
-0.14824,-0.1938,-0.033346,-0.041558,-0.05546,-0.30222,-0.89085,-0.52724
-0.076684,-0.0056754,-0.00078462,1.3867e-05,0.0019251,-0.029393,-0.90253,-0.0070163
-0.039041,0.23565,0.0553,0.025908,0.043745,0.10743,0.42154,0.28011
-0.10291,-0.04552,-0.059253,-0.033282,-0.054078,-0.3117,0.42481,-0.20774
0.18006,-0.12807,0.0081447,0.002959,0.0061483,0.15326,0.020564,-0.11543
0.12501,0.23976,0.10977,0.064899,0.068732,0.20023,0.91661,0.45664
-0.032084,-0.081806,-0.050976,-0.011303,-0.022389,-0.012443,-0.58127,0.31923
0.0057709,0.016383,-0.021203,-0.014898,-0.025263,-0.12436,-0.19486,-0.2743
0.010492,-0.16223,-0.020352,0.0066684,0.02041,0.10631,0.33496,-0.0022069
-0.20837,-0.01813,-0.026036,-0.033387,-0.034745,-0.1347,-0.93029,-0.70743
0.28281,0.14925,0.062044,0.043646,0.0738,0.29812,1.1017,0.81487
-0.074763,-0.006515,0.00040252,-0.028803,-0.045648,-0.23941,-0.68629,-0.43137
-0.14405,-0.058194,-0.04025,-0.040567,-0.034586,-0.024205,0.19262,0.1235
0.21319,0.16423,0.079838,0.078182,0.083024,0.39413,0.15867,0.23238
-0.29277,-0.21519,-0.13198,-0.086771,-0.13042,-0.58734,-0.62987,-0.41886
0.21425,0.10836,0.10556,0.074128,0.091063,0.18013,0.48054,0.2955
-0.25502,-0.012256,-0.035133,-0.024597,-0.033076,-0.11403,-0.5188,-0.68536
