-0.043808,-0.10651,-0.056161,0.0090593,0.026685,0.021038,0.012461,-0.016602
-0.026917,-0.087613,0.18038,-0.018499,0.0040013,0.029344,0.019808,0.002782
-0.018312,-0.0015966,-0.087719,-0.046152,-0.034219,-0.017549,-0.0044067,-0.025469
0.035255,0.099744,0.17643,0.058134,0.029016,0.028757,0.0024557,-0.00032838
-0.015787,-0.13102,-0.48244,-0.026567,-0.017385,-0.066066,-0.029753,-0.0080243
-0.078311,-0.18793,0.035448,-0.08183,-0.040695,0.018439,0.031939,-0.0095066
0.08205,0.21836,0.15082,0.087686,0.068458,0.055931,0.023606,0.05016
-0.034103,-0.066089,-0.027345,-0.041087,-0.041404,-0.06268,-0.054656,-0.031707
0.027458,0.10326,0.28247,0.05594,0.043942,0.045722,0.039396,0.034514
0.025959,0.1141,-0.028258,0.0045772,-0.0034191,-0.024829,-0.022348,-0.00059731
-0.060547,-0.23158,-0.098867,-0.053705,-0.050436,-0.047563,-0.021161,-0.050575
-0.011983,-0.10113,-0.34967,-0.0009793,0.012496,0.047919,0.03508,0.017803
0.016347,0.12597,0.21316,-0.016417,-0.017573,0.01155,-0.017787,-0.0061494
0.079548,0.15446,0.067712,0.072058,0.046935,0.022785,0.023224,0.041693
-0.049122,-0.078494,-0.12088,-0.040401,-0.028414,-0.020313,-0.0061106,-0.0263
0.020223,0.010885,0.1556,0.028507,0.045228,0.014612,0.019045,0.0083178
-0.041706,0.03617,-0.040758,-0.042324,-0.052809,-0.076026,-0.049886,-0.034583
0.044964,0.032016,0.10911,0.050842,0.04421,0.058952,0.029191,0.039794
0.0054412,-0.021614,0.056535,0.017989,0.0076931,-0.0025647,-0.017187,0.0043597
-0.036377,-0.073686,-0.11457,-0.040111,-0.037758,-0.0028211,0.0063276,-0.0085373
-0.057732,-0.2437,-0.19502,-0.053639,-0.014265,-0.012008,-0.0017541,-0.022675
0.027137,0.11612,0.064097,0.0085264,0.0078113,0.0013885,0.0055235,0.00083618
0.0075951,0.05354,-0.017134,-0.01744,-0.026063,-0.016978,-0.0030384,-0.00049339
0.064008,0.23475,0.16353,0.10336,0.064114,0.011362,0.0038071,0.03602
-0.044928,-0.14994,-0.033173,-0.050285,-0.033753,0.024183,0.010373,-0.022117
-0.013614,-0.10547,-0.16803,-0.0089244,0.0010577,-0.0096054,-0.0068794,-0.026066
0.018113,0.011232,0.010601,0.017077,0.01264,0.011589,0.0066416,0.016781
0.019558,0.11586,0.15239,-0.010949,0.0090376,0.033015,0.019652,0.02087
0.014444,0.052825,0.086057,0.024371,-0.0018279,-0.023549,-0.014639,0.0099405
-0.020626,0.048462,0.053701,0.029299,0.003493,-0.048785,-0.041309,-0.015811
-0.0076605,-0.038752,0.085968,-0.043137,-0.021915,0.0042288,0.0025225,-0.017235
-0.064055,-0.3272,-0.5133,-0.052438,-0.031219,-0.051846,-0.031107,-0.025586
0.067815,0.1273,0.05199,0.0091103,0.045893,0.10355,0.077029,0.068439
-0.026205,-0.011963,8.6108e-05,0.00084704,-0.0014599,-0.005869,-0.00082491,-0.032139
0.11486,0.46568,0.41677,0.10248,0.0065146,-0.059606,-0.045756,0.031942
-0.11039,-0.37699,-0.041577,-0.060972,-0.023809,0.075209,0.067131,-0.028476
-0.068894,-0.17211,-0.31219,-0.051989,-0.022023,-0.031248,-0.029727,-0.049408
0.12242,0.40156,0.43329,0.12155,0.035321,-0.035543,-0.032236,0.039395
-0.11443,-0.53014,-0.5238,-0.11081,-0.0081469,0.046236,0.043265,-0.012159
-0.0060683,0.0098454,-0.1993,-0.053994,-0.019893,-0.020821,-0.022689,-0.0010939
0.18933,0.66194,0.64834,0.13542,0.046526,-0.010668,-0.027574,0.056722
-0.060174,-0.21543,-0.1616,-0.011682,0.026518,0.037222,0.043843,-0.0031096
-0.044574,-0.053641,0.017947,-0.011275,-0.025772,-0.010194,-0.019507,-0.032546
0.016345,-0.010988,0.15429,0.003565,-0.024845,-0.020104,-0.014361,0.007094
0.020093,-0.019129,-0.09742,-0.014134,-0.009993,-0.039147,-0.010661,-0.001661
-0.11207,-0.27476,-0.34691,-0.079866,-0.028036,0.026867,0.039008,-0.035478
0.025936,0.034173,0.086258,0.0020541,0.022934,0.045695,0.018074,0.015139
0.10636,0.47865,0.12585,0.12282,0.026313,-0.052374,-0.049414,0.0099161
-0.088722,-0.34594,0.0013021,-0.029391,-0.0093763,0.037882,0.040194,0.011891
-0.0034649,-0.054503,-0.12,-0.071099,-0.020933,0.0043477,-0.025212,-0.0095395
-0.011595,-0.058641,-0.09424,0.01386,1.1448e-05,-0.035602,-0.018852,-0.014653
0.059924,0.24533,0.44035,0.06955,0.053771,0.035195,0.028059,0.028375
0.00098902,0.015012,-0.10104,0.01007,0.015372,-0.017844,-0.0018001,0.0027672
-0.0083403,-0.077452,0.062481,-0.055458,-0.037307,0.00025534,0.0084763,-0.013161
-0.038519,-0.06414,-0.36777,-0.088485,-0.057842,-0.035908,-0.027427,-0.09758
0.10517,0.20163,0.21471,0.12904,0.062593,0.076402,0.054133,0.19456
-0.015685,-0.024578,-0.12325,0.0025738,0.010961,0.00093567,-0.020674,-0.051249
-0.12083,-0.29973,0.036688,-0.062421,-0.064738,-0.067185,-0.041227,-0.069888
0.023224,0.085373,-0.011627,0.019335,0.0071037,-0.034263,-0.015539,-0.010317
0.017457,0.044003,0.32346,0.028667,0.054535,0.060709,0.025062,0.002028
0.064825,0.29531,0.041141,0.02016,-0.016084,-0.00086993,0.02592,0.029349
-0.068771,-0.32314,-0.58453,-0.084039,-0.0091799,-8.0624e-05,0.0027621,0.0011936
0.070448,0.19133,0.21406,0.076084,0.044368,0.055396,0.033856,0.058199
-0.079109,-0.23611,-0.052249,-0.092289,-0.073769,-0.076569,-0.075958,-0.07293
-0.032091,-0.19588,-0.16906,0.013489,0.0040075,0.018067,0.0094067,0.0064775
0.017027,0.14283,0.40582,-0.011789,-0.0032146,-0.012342,0.016651,-0.015795
0.092184,0.3282,-0.020833,0.12174,0.076644,0.05084,0.024019,0.048033
-0.0019182,0.070582,0.082733,-0.030879,-0.045456,-0.073749,-0.054339,-0.051816
-0.047055,-0.24201,-0.14412,-0.047916,-0.010316,0.043505,0.047252,0.012888
-0.013,-0.059302,-0.15734,-0.0003839,0.025453,0.019777,-0.0071431,0.015529
0.05201,0.19906,0.17212,0.0090207,-0.024589,-0.019879,-0.01445,0.026198
-0.0019405,0.027292,0.066829,0.017961,0.003054,-0.020659,0.0018005,-0.017974
-0.012112,-0.032663,0.10941,0.048442,0.03752,0.0019752,0.0024211,0.0075596
-0.049744,-0.28085,-0.3427,-0.049196,-0.038826,-0.0064932,0.0029052,-0.014838
0.0098142,-0.0070722,-0.00052166,-0.025752,0.00030394,0.0087656,0.018766,0.00042794
0.0028027,0.19676,0.020639,-0.053334,-0.0092155,0.032205,-0.012562,-0.017108
-0.0073692,-0.173,-0.049171,0.024676,0.0030843,0.0013254,-0.012948,0.0029569
0.011907,0.11593,-0.03364,0.037307,0.014114,-0.0058221,0.0020681,0.01408
0.015328,0.03079,0.4858,0.032709,0.02436,0.026276,0.0092035,0.016793
-0.050284,-0.13359,-0.42467,-0.050186,-0.059377,-0.10561,-0.046036,-0.058573
0.089711,0.33022,0.40125,0.06343,0.060325,0.04375,0.031848,0.038622
-0.071792,-0.3334,-0.52827,-0.078449,-0.045746,0.013415,0.016416,-0.01922
0.059083,0.26603,0.27752,0.032729,0.021204,0.0065317,0.0092544,0.041653
0.020972,0.040276,0.11258,0.037896,0.019194,0.023139,0.010267,0.0025388
-0.046348,-0.17073,-0.21436,-0.039637,-0.02829,-0.022681,-0.019802,-0.019596
0.043559,0.15971,0.41,0.065274,0.02709,0.0096671,-0.0030792,-0.0095644
-0.1088,-0.41808,-0.45504,-0.11686,-0.057083,-0.051774,-0.033563,0.00082873
0.042601,0.13936,-0.030189,0.030279,0.039176,0.081923,0.044805,0.042277
-0.0027441,0.23631,0.15293,-0.017638,-0.036089,-0.097219,-0.057136,-0.018474
0.01285,-0.17443,-0.20913,0.090139,0.068265,0.098135,0.059056,-0.041039
0.011464,0.041088,0.26109,0.0092043,0.0080839,-0.0040146,-0.012769,-0.0019847
-0.053344,-0.11489,-0.14423,-0.089013,-0.06853,-0.059968,0.00099761,-0.018291
0.045517,0.016671,-0.054841,0.014041,0.017895,0.024079,0.0068235,0.011938
0.15229,0.61041,0.68791,0.1153,0.056367,-0.0017005,-0.0028694,0.08905
-0.20922,-0.65175,-0.64904,-0.19118,-0.085806,-0.043293,-0.043478,-0.099213
0.0002393,-0.13567,-0.073495,0.040364,0.0057234,0.024613,0.025823,0.033145
0.038497,0.14326,-0.086638,0.037041,0.0032226,0.01481,0.01768,0.032854
0.061664,0.30142,0.45005,0.033729,0.039934,0.036881,0.018105,0.071492
0.014823,0.11839,0.073066,0.054247,0.030305,-0.0028439,-0.027601,-0.085657
-0.055405,-0.11883,-0.19668,-0.06525,-0.056635,-0.041917,-0.025789,-0.032593
-0.016402,-0.15435,-0.025147,0.034688,0.037067,0.013255,0.015544,-0.019365
0.0067557,-0.051851,-0.030377,-0.052202,-0.016711,-0.0015955,0.010206,-0.022327
0.021956,-0.014581,-0.13385,-0.0056314,0.0084893,0.014896,0.020397,0.076147
-0.048721,-0.11182,-0.17782,-0.0052662,-0.035945,-0.023348,-0.0088784,-0.020254
0.013747,0.0098735,0.15238,-0.0041583,0.0060254,0.0007951,0.0002239,0.017141
0.022102,0.047894,0.15574,0.036839,0.0091662,-0.037671,-0.030626,-0.01441
-0.015728,0.0038298,0.044601,-0.054131,-0.018962,0.025348,0.0078529,-0.0054215
0.0095455,0.24532,0.053531,0.011864,0.015111,0.041433,0.014135,0.036093
0.089808,0.2089,0.24391,0.10168,0.048584,0.0027367,-0.0037985,0.015901
-0.048844,-0.10771,-0.24572,-0.02738,-0.012596,-0.01271,0.0012033,-0.027593
-0.070997,-0.27778,-0.13654,-0.04003,-0.020247,0.010592,-0.0017616,-0.040398
0.030724,0.00058709,-0.047665,0.031869,0.025498,0.0022292,0.011116,0.023781
-0.0017066,-0.040027,-0.018896,-0.062122,-0.047191,-0.045627,-0.014504,-0.0072723
0.027125,0.15497,0.099011,0.021636,-0.019296,-0.0078584,-0.0080337,-0.0085887
0.016104,-0.076674,0.03496,0.056869,0.047163,0.014228,0.015068,0.035743
-0.12777,-0.419,-0.37168,-0.15887,-0.073754,-0.025891,-0.015477,-0.053417
0.0886,0.39805,0.30475,0.10977,0.079552,0.067468,0.033035,0.044947
0.0020889,0.066416,0.075338,-0.0033398,0.0076435,0.01335,-0.0036938,-0.0043696
0.035309,0.19889,0.11399,-0.0050628,-0.015693,-0.02405,-0.00099459,0.010197
-0.076982,-0.40606,-0.11808,-0.0041649,-0.037281,-0.068253,-0.037375,-0.043752
0.07137,0.34455,0.26037,0.06197,0.044171,-0.0023904,-0.027279,0.021403
-0.028049,-0.25549,-0.2382,-0.057098,0.0015397,0.11052,0.083646,0.025778
-0.0091057,0.07005,-0.46175,-0.018562,-0.025304,-0.034866,-0.025165,-0.015494
0.048724,0.11192,0.35082,0.082528,0.040941,0.021719,-0.0022834,0.014064
0.003378,0.074849,0.093749,-0.036493,-0.027033,-0.0093534,0.019479,-0.0035467
-0.052662,-0.19476,-0.033063,-0.033144,-0.034444,-0.065912,-0.037858,-0.030043
0.0047329,0.042112,0.21857,0.037028,0.010683,-0.03858,-0.025577,0.01209
0.050266,0.011509,-0.018585,0.0097058,0.045996,0.049556,0.017648,0.036577
-0.095409,-0.23737,-0.17242,-0.091243,-0.037387,0.050717,0.037564,-0.026902
-0.009487,0.097155,-0.2941,0.016509,0.003484,-0.0029964,0.0033471,-0.045214
-0.0031288,-0.10346,-0.11322,-0.024873,-0.041418,-0.07943,-0.037775,-0.0021592
0.057973,0.089584,0.20358,0.044155,0.055376,0.087852,0.031616,0.040473
0.018937,0.080874,0.10637,0.006442,-0.010063,-0.031804,-0.014958,-0.0025593
0.10732,0.53876,0.45788,0.11317,0.036185,0.007219,0.0021284,0.033341
-0.13734,-0.53501,-0.22491,-0.049154,-0.016675,-0.0060387,-0.0032598,-0.046868
0.003644,0.06961,0.010278,-0.035331,-0.028235,-0.032846,-0.023612,0.030218
0.014095,-0.049013,-0.15962,-0.02578,-0.0068325,0.019961,0.011014,0.014301
0.0025293,0.034056,-0.2152,-0.045131,-8.7804e-05,0.0031897,0.01429,-0.0013359
-0.00080009,-0.061573,0.049928,0.061415,0.061464,0.072275,0.056168,-0.0015557
-0.012471,0.010547,0.053244,0.034541,-0.010502,-0.04698,-0.035506,-0.033603
0.0058125,0.011959,0.11139,-0.041188,-0.029175,-0.0036056,-0.003059,-0.0038663
-0.032375,-0.04424,0.11235,-0.049691,-0.08096,-0.11045,-0.088656,-0.045027
0.060293,0.10684,-0.10933,0.039542,0.060498,0.08553,0.051632,0.030783
-0.051996,-0.096288,-0.12405,-0.0003766,0.0046232,0.0063858,-0.0037809,-0.01031
0.076443,0.29419,0.31934,0.10409,0.056362,0.0040241,0.011042,0.082186
-0.022602,-0.29635,-0.15961,-0.044986,-0.018255,0.0085581,0.041661,0.027375
-0.082894,-0.27805,-0.29202,-0.10299,-0.039056,0.020408,0.0022546,-0.073053
0.028974,0.24341,0.082141,0.01718,0.002281,-0.046008,-0.029091,-0.023908
0.0087984,0.028682,0.044895,-0.0034999,0.0046859,0.04396,0.0099601,0.01822
0.0053287,0.16525,0.14656,0.015967,-0.015776,-0.037612,-0.013627,-0.040895
0.088984,0.29383,0.24908,0.076713,0.050629,0.014121,0.0093284,0.12636
-0.029376,-0.30546,-0.23205,-0.023575,-0.022408,-0.0038249,-0.030647,-0.066419
-0.029634,-0.10334,-0.05439,0.012378,-0.016001,-0.036625,-0.0085124,-0.025781
-0.03701,-0.070663,-0.031257,-0.042031,0.0073564,0.025221,0.029032,-0.0018351
-0.043852,-0.1935,-0.21892,-0.046616,-0.014953,0.0099274,0.0041278,-0.0022768
0.066977,0.33191,0.36494,0.060376,0.018402,0.011259,-0.012619,0.0044489
-0.040413,-0.16637,-0.19602,-0.042306,-0.010091,0.013506,0.041538,0.0031381
0.055944,0.23412,0.18966,0.050584,0.016373,-0.02259,-0.036381,0.025478
-0.011084,-0.23139,-0.10511,0.017791,0.019269,-0.019199,-0.0041766,-0.014119
0.024075,0.22689,0.074191,0.014807,-0.0095657,0.0076968,0.0052128,0.0095351
-0.049713,-0.20334,-0.16434,-0.099466,-0.031321,0.01085,0.0071742,-0.028579
0.017217,0.032134,0.022336,0.026406,0.00077715,0.013362,0.009213,0.019756
0.021317,0.10397,0.071535,0.025465,0.0086698,0.0071752,-0.0046157,0.021361
-0.022214,-0.044286,-0.10237,-0.023635,-0.0074238,-0.015638,-0.011151,-0.016383
0.034719,0.2182,0.24344,0.020461,0.0075062,-0.015974,-0.0027658,0.015514
-0.058053,-0.22752,-0.17924,-0.02115,-0.024312,-0.032703,-0.010775,-0.031628
0.035459,-0.02314,0.021109,0.031914,0.053677,0.043856,0.019568,0.0062355
-0.020402,-0.020327,-0.037508,0.0082626,-0.016144,-0.020305,-0.013133,-0.0034775
-0.037677,-0.12435,0.0049714,-0.045032,-0.014978,0.025163,0.0085434,-0.021254
0.062305,0.15887,0.13341,0.059422,0.033638,0.032094,0.014542,0.023797
-0.016831,-0.066735,-0.081573,0.0087509,-0.011138,-0.014984,-0.0027092,-0.0083733
0.006505,0.052699,0.094487,-0.017919,-0.016773,-0.022292,-0.019582,0.0076644
-0.023864,0.026649,-0.2369,-0.099359,-0.05387,-0.044601,-0.0047028,-0.021685
0.032455,-0.0036348,-0.021254,0.060673,0.057001,0.050741,0.034164,0.044016
-0.028171,0.015975,0.1239,-0.014942,-0.020302,-0.033345,-0.035812,-0.0066979
0.059185,0.099535,0.10436,0.03274,0.034393,0.04667,0.027483,0.036334
0.035986,0.19025,0.044586,0.054992,0.017879,0.0093232,-0.010439,0.0081872
-0.090534,-0.2998,-0.079358,-0.065498,-0.046425,-0.036191,-0.0090783,-0.029384
-0.0081421,-0.059335,-0.0099482,0.022887,0.013407,0.01156,0.015812,-0.053384
-0.044808,-0.22108,-0.16114,-0.054585,-0.029054,-0.027178,-0.014005,-0.024766
0.065678,0.2477,0.1552,0.054139,0.045165,0.027283,0.01075,-0.021228
-0.0038769,0.068451,0.041854,0.029457,-0.013622,-0.043757,-0.027188,0.04394
-0.025814,-0.21648,-0.022967,-0.026178,0.02153,0.056656,0.020548,0.038853
0.0087285,0.075683,-0.24055,-0.088349,-0.044269,0.00047657,0.013263,0.019062
-0.0010275,0.040819,-0.023287,-0.0076712,-0.030927,-0.032546,-0.017866,-0.0070101
0.062472,0.21077,0.23926,0.06818,0.046264,0.035761,0.01303,0.015572
0.01161,0.13905,0.18788,0.045886,0.0078126,-0.028932,0.0043402,-0.01488
-0.029177,-0.20046,-0.27988,-0.0042432,0.017792,0.015633,-0.0048684,-0.028473
0.025173,0.071366,0.43566,0.042332,0.01351,0.0055196,0.0011083,0.013284
-0.099784,-0.38529,-0.4258,-0.08868,-0.044471,-0.02002,-0.008808,-0.015185
0.0012504,0.043383,-0.077846,-0.015577,-0.016033,-0.013863,-0.018733,-0.012771
0.038461,0.16758,0.14908,0.026082,0.027948,0.016445,0.01071,-0.010991
-0.012075,-0.10752,-0.1216,-0.011667,-0.0068216,-0.022619,-0.0060999,0.021334
0.068179,0.22602,0.21882,0.057825,0.027639,0.0096875,0.0013969,0.02178
-0.080145,-0.22147,-0.29037,-0.10972,-0.056489,0.011747,0.017691,-0.025129
0.027484,0.12961,0.17982,0.047993,0.029709,0.037992,0.027102,0.037003
0.016306,0.054294,-0.033422,0.031107,0.012818,0.0020554,-0.0096596,-0.0183
0.027224,0.10886,0.18058,0.027512,0.002403,-0.0028528,-0.0070178,0.01992
-0.025399,-0.15834,-0.13015,-0.032518,-0.024653,-0.055393,-0.027893,-0.020248
-0.00060293,0.0041216,0.019667,0.01579,0.018005,0.0080837,0.0054387,-0.0060332
-0.015185,-0.081929,0.10727,-0.037739,-0.0097876,0.015504,-0.0010771,0.0078747
-0.014001,-0.032098,-0.2418,-0.028302,-0.013831,-0.017445,0.0070792,-0.025331
-0.027795,-0.094795,-0.027019,0.013498,0.0062594,0.0032989,-0.0091732,-0.01957
0.061135,0.25479,0.17404,0.049068,0.027319,9.4015e-05,0.0049637,0.033165
-0.020198,-0.091827,-0.18496,-0.030734,-0.020833,-0.0030664,0.0028163,0.008066
0.0019524,0.0061003,0.076075,0.024056,0.010224,0.017767,0.015882,0.014658
0.026134,0.12595,0.32452,0.033458,0.018782,0.03172,0.0053588,0.0061334
-0.025895,-0.11669,-0.30695,-0.049884,-0.034447,-0.02352,-0.012881,-0.025335
0.072097,0.32286,0.22026,0.070333,0.053402,0.039546,0.016081,0.037363
-0.11008,-0.45625,-0.31334,-0.12207,-0.085098,-0.076109,-0.040352,-0.040244
0.012916,0.067152,0.044433,0.005295,0.0108,-0.0035327,-0.010111,-0.03168
-0.020488,-0.15559,-0.09805,-0.00098997,0.0050302,0.030454,0.02884,0.00050431
0.070366,0.20258,0.27379,0.062087,0.045942,0.0099904,0.0062888,0.025031
0.042789,0.12562,0.073015,0.053912,0.016282,-0.018251,0.00037452,0.049682
-0.064512,-0.065875,-0.12309,-0.064483,-0.037143,-0.0075664,-0.0046301,-0.019355
-0.0017019,0.042911,0.067778,0.027365,0.0027851,0.010624,-0.001137,-0.057197
-0.026533,-0.12495,-0.26063,-0.053161,-0.012432,0.0048861,0.010519,0.060996
0.025345,0.18992,0.27521,-0.0011372,-0.0046955,-0.024994,-0.040385,-0.016518
-0.001826,-0.19033,-0.10449,0.035278,0.033839,0.077011,0.056655,0.0069868
0.025394,-0.044938,-0.061656,0.0017057,0.0095222,0.029458,0.012178,0.02206
-0.032951,0.14374,-0.078162,-0.039039,-0.069661,-0.14432,-0.080365,-0.088448
-0.020006,-0.20851,0.059388,0.038325,0.038702,0.047915,0.0445,0.034991
0.03342,0.055665,0.02476,0.015262,0.0067286,0.0048161,-0.0038303,0.0098162
0.0025209,0.13177,0.11568,-0.029991,-0.0012997,0.00021525,-0.0064128,-0.0074308
-0.019034,-0.027942,-0.21522,-0.027137,-0.024301,-0.004443,0.0058355,0.030391
0.062163,0.1527,0.36609,0.03149,0.031508,0.014814,-0.0057307,0.01409
-0.012228,0.045988,-0.049647,0.012796,0.0019662,0.019391,0.014011,-0.032835
-0.016243,-0.15579,0.0026757,0.010148,-0.0037771,-0.013835,-0.012678,0.014556
-0.044171,-0.11164,-0.25392,-0.031598,-0.0094787,-0.0066316,0.0082323,-0.015764
0.020808,0.074962,-0.0019273,0.0042751,-0.007688,-0.013797,-0.00124,0.0088138
-0.016755,-0.18276,-0.086673,0.0079655,0.024693,0.026864,-0.0020372,-0.013474
-0.04739,-0.14228,-0.14898,-0.028668,-0.029776,-0.010086,0.0057062,-0.0046655
0.10885,0.45544,0.47623,0.050437,0.024099,0.0076773,0.0061411,0.019515
-0.01648,-0.0050764,-0.021631,0.010887,0.0066765,0.0093895,0.006819,-0.019091
-0.048108,-0.10027,-0.069975,-0.037792,-0.011523,-0.013091,-0.015939,0.06704
0.037526,-0.055384,-0.088403,-0.032809,-0.022351,-0.0052282,-0.023251,-0.081407
-0.02526,0.091222,0.057874,-0.036279,-0.064469,-0.091976,-0.030832,-0.019045
0.028941,-0.14472,-0.09055,0.077199,0.096882,0.11751,0.078495,0.082314
0.027938,0.15052,0.15486,0.042344,0.016676,-0.0092493,-0.0077142,-0.042917
-0.036394,-0.070494,-0.18187,-0.039046,-0.015893,-0.01094,-0.023746,0.019325
-0.039251,-0.058245,-0.053739,-0.01843,-0.016479,-0.020034,-0.00075447,-0.020043
0.035011,0.062114,0.18745,0.065135,0.046013,0.034038,0.02229,0.042079
0.006992,0.040928,-0.083879,-0.046196,-0.023933,0.0029861,-0.0014045,-0.036489
-0.013391,0.011913,0.18613,-0.032116,-0.046796,-0.042835,-0.02488,0.0099451
-0.033225,-0.21885,-0.16756,-0.0097416,0.00079705,0.029341,0.0066352,-0.021604
-0.012664,0.084708,0.018183,-0.010176,-0.021726,-0.030598,-0.023963,-0.021564
0.080223,0.1274,0.00038505,0.037076,0.042025,0.019376,0.031829,0.033717
-0.019765,0.019937,-0.0026817,0.01497,-0.0031158,-0.016246,-0.0056483,0.0037823
0.0077403,-0.06512,-0.030234,0.040713,0.038229,0.049804,0.019818,0.01369
-0.040754,-0.12802,-0.14466,-0.096793,-0.037152,-0.040549,-0.024699,-0.014785
0.04493,0.13467,0.1621,0.063041,0.028286,-0.0063464,0.001227,-0.0037956
-0.048753,-0.091808,0.015237,-0.027164,-0.031496,0.0036796,-0.0042239,-0.00063898
0.020776,0.025488,0.00074222,0.0070277,0.017394,0.036131,0.02116,0.017616
0.088363,0.40508,0.21221,0.10261,0.049516,0.0048646,0.0067951,0.019225
-0.065552,-0.22962,-0.11621,-0.11574,-0.091653,-0.043343,-0.024087,-0.027436
-0.050704,-0.28728,-0.1253,-0.015247,0.023554,0.0087516,0.0065462,-0.020964
0.00028422,0.074776,-0.11958,0.013769,0.0047901,-0.0105,-0.018445,-0.00030033
0.041271,0.13827,0.13592,0.018791,0.0088601,0.032109,0.026138,0.027151
-0.020332,-0.063456,-0.021931,-0.015006,-0.018188,-0.034773,-0.02344,-0.016087
-0.034715,-0.10517,-0.099813,-0.039933,-0.013078,0.015997,0.020733,-0.019857
0.0072463,0.0015243,0.16884,0.038379,0.0014011,-0.010341,-0.0049784,0.00098801
0.0049548,0.026199,-0.14522,-0.006388,0.017802,0.011642,-0.01426,0.00017928
0.0056935,0.0032181,0.035788,0.0052106,0.0048599,-0.019387,0.00095654,0.024904
0.1264,0.30931,0.2654,0.10371,0.063717,0.037182,0.009504,0.043852
0.0068509,-0.071059,-0.036292,0.01464,0.0061302,0.01702,0.026899,0.017529
0.020803,0.18883,0.16778,0.025942,-0.0047408,-0.017843,-0.0096483,-0.015729
-0.22369,-0.56974,-0.42875,-0.22264,-0.126,-0.028938,-0.022436,-0.13493
0.022266,0.095661,-0.16264,0.018497,0.032367,-0.0012512,0.0036764,0.049672
0.039326,0.11988,0.099138,0.015203,0.0091976,0.025626,0.013541,0.045166
0.022771,0.047786,0.060996,0.018285,-1.5624e-05,-0.011175,-0.0010089,-0.016104
0.012165,-0.043586,0.13112,0.013302,0.0052458,-0.025882,-0.02454,0.11571
-0.022894,-0.099809,0.03028,0.040564,0.017876,0.01279,0.0054508,-0.13733
0.020099,0.035715,0.041268,0.022937,0.022965,0.019104,0.0032158,0.0064939
0.0013107,0.058915,-0.14001,-0.015662,-0.017991,0.0011815,0.015967,-0.0068165
0.03838,0.11096,0.0093809,0.018371,0.012485,-0.0015674,-0.018373,-0.01241
-0.056169,-0.15163,0.034767,-0.031952,-0.034064,-0.027876,0.0021909,0.02952
0.076668,0.21636,0.13709,0.050973,0.045192,0.031898,0.015536,0.049227
0.030003,-0.011923,0.12652,0.00022379,0.023202,0.037312,0.014116,0.031376
-0.095308,-0.078903,-0.3738,-0.11505,-0.084964,-0.074036,-0.033195,-0.07874
-0.065456,-0.28136,-0.10696,-0.037817,-0.014183,0.010374,0.0063962,0.0076442
0.041162,0.07668,0.13049,0.083202,0.055503,0.0014464,-7.4177e-05,0.00099033
0.021525,0.12145,-0.019222,0.013898,-0.0088654,0.016298,0.0096476,0.010134
0.024517,0.065589,0.25116,0.05968,0.027153,0.0314,0.019636,0.003345
-0.035121,-0.096865,-0.149,-0.059664,-0.047126,-0.047096,-0.040732,-0.027522
0.015245,0.042027,-0.052527,-0.014823,0.010875,0.022913,0.0079516,-0.0044721
0.0044177,-0.00088634,0.011966,-0.01557,-0.0015131,-0.016445,0.0014061,0.01788
0.050055,0.14998,0.19473,0.048473,0.025549,-0.0011313,0.0019931,0.00071482
-0.01952,-0.083617,-0.081587,0.021791,0.014347,-0.0014391,0.0018467,0.022502
-0.032512,-0.093008,-0.14539,-0.05616,-0.026982,0.021748,0.024434,-0.0023223
-0.012672,-0.090306,-0.0057518,0.00215,-0.0044734,-0.0018026,-0.016078,-0.034367
0.02391,0.14179,0.0931,0.016706,-0.003967,-0.0016851,-0.0023281,0.012534
-0.032682,-0.070194,-0.062368,-0.028759,-0.025485,-0.040307,-0.027841,-0.0021579
0.027948,0.053378,0.079633,0.060175,0.055832,0.062098,0.040459,0.0074292
0.0099871,0.049976,0.20366,-0.00661,-0.025902,-0.045981,-0.031532,0.017644
-0.063552,-0.16783,-0.443,-0.089606,-0.036684,-0.020778,-0.0013815,-0.034338
0.088246,0.17992,0.09832,0.067931,0.077719,0.075176,0.037346,0.0386
-0.0036025,0.029725,0.17756,0.051027,0.0043046,-0.0081959,-0.0011903,-0.0061
-0.034525,0.02166,0.075151,-0.047228,-0.054288,-0.044445,-0.031063,-0.020285
-0.027939,-0.28175,-0.22451,-0.05529,-0.012526,-0.0024606,0.0023004,-0.0040967
0.039755,0.15141,0.068549,0.026871,0.01214,0.0082314,0.0049396,0.0034344
