0.0149,0.055996,0.032006,0.0053568,-0.0038779,-0.0010002,-0.013976,0.00927
-0.00046872,-0.039242,-0.007735,-0.016999,-0.0027629,0.0064288,0.0019516,0.0092347
-0.02433,-0.049549,-0.033598,0.0065174,-0.0022472,-0.0016964,0.010008,-0.0067427
0.0057484,0.040825,-0.01407,0.0056021,0.0053832,0.0058886,0.010096,-0.0074265
0.003837,0.075744,0.051264,0.0038481,-0.0032948,-0.0020471,-0.0056892,0.0072162
-0.006523,-0.046238,-0.0089625,-0.014096,-0.01253,-0.017662,0.0016517,-0.017413
-0.0016986,-0.043701,-0.014507,0.0068005,0.0013289,-0.017484,-0.014772,-0.003049
-0.0048605,0.013303,-0.011697,0.0043988,-0.0005206,0.01414,-0.015859,-0.0042067
0.015543,0.0001506,0.039021,0.010274,0.013425,0.022522,0.01411,0.018344
-0.010508,-0.027991,-0.033828,-0.0065758,0.012113,-0.00019252,0.0049445,0.0022298
0.01879,0.054402,0.012216,-0.0069417,-0.0043432,0.0084029,0.019277,0.017817
-0.0057785,-0.02563,-0.0024106,0.0013956,-0.012495,-0.0065086,-0.0052797,-0.013052
-0.013843,-0.049006,-0.030881,-0.012891,0.0032121,-0.013815,-0.013964,-0.012358
0.01018,0.070303,0.028145,0.02034,0.0035864,-0.0058156,0.0010671,-0.003698
-0.0041461,0.035227,0.025839,-0.00071484,-0.0037052,-0.0060018,-0.007069,0.004941
-0.0023235,-0.045329,-0.01489,0.0017888,-0.0031672,0.0090808,0.0084632,0.0055927
-0.00020059,-0.015799,-0.032158,-0.011496,-0.010513,0.0082674,0.00073252,-0.0018486
0.0098046,0.052734,0.059345,0.0060519,0.013284,0.0073162,0.00092943,0.0060146
-0.0037696,-0.0045167,-0.0065603,-0.0082623,-0.0020783,-0.017057,0.0090048,-0.0098504
-0.0020324,-0.094346,-0.066216,0.00013491,-0.0018708,0.0056033,-0.0063171,-0.0024768
-0.00072542,0.025152,0.036433,0.015593,0.013963,0.0050923,-0.0059679,-0.002981
-0.0077168,0.0024151,-0.011078,-0.02433,-0.0092147,-0.010721,-0.0055331,0.0044102
0.00043406,0.0095584,-0.0053791,0.021124,0.0067571,0.012849,0.0028638,0.012016
0.0081538,0.0626,0.022681,-0.0041102,-0.016234,-0.010188,-0.0041454,-0.0035119
0.007716,-0.017706,-0.012357,0.0095634,0.0077375,0.021641,0.01255,-0.0030816
-0.0085861,-0.027832,0.02279,-0.0079364,0.00051635,-0.024585,-0.0017352,-0.0023515
-0.001575,-0.014346,-0.027726,-0.017326,-0.0066983,0.0072856,-0.00019298,-0.0014089
0.0054291,0.03076,0.031693,0.0050216,0.0016526,-0.0078219,0.0014144,0.007437
0.0047303,-0.017419,-0.017537,0.0045494,0.0098679,0.0081812,-0.0049243,0.00061667
-0.0035586,0.028639,0.012144,0.0047482,0.0022461,0.00060945,0.0039967,-0.0063621
-0.019335,-0.049836,-0.027713,-0.010045,0.0021622,-0.0070678,-0.0032985,-0.0057701
0.0043541,0.036192,0.019101,0.030351,-0.0060397,0.00082241,0.012078,0.0023549
0.0050472,-0.017997,-0.0037119,-0.0070764,-0.0067179,0.016515,-0.0046453,0.0023957
-0.0016545,-0.03275,-0.025877,-0.013196,0.00020022,-0.006832,-0.0065533,0.0022095
0.0154,0.038749,0.0072485,-0.0038706,-0.0085996,-0.0067081,-0.0091006,0.0018619
0.0013511,0.0088978,0.0018405,-0.010544,0.0061001,-0.0065665,-0.012,0.0014226
0.010656,0.049409,0.067139,0.013538,0.013204,0.0091793,0.024176,-0.0068628
-0.027248,-0.058686,-0.062698,-0.0097866,-0.010604,0.0014115,-0.0017511,0.00048012
-0.0032065,-0.034386,-0.0051547,0.0054582,0.0050437,0.0013181,-0.0035068,2.5612e-05
0.012314,0.012687,0.020664,0.012491,-0.0023814,0.0010296,0.0035194,0.0073889
-0.0041735,0.019829,-0.0090457,-0.0041912,-0.0017379,-0.015117,0.0037969,-0.00088985
-0.0057289,0.025979,0.030397,0.0024161,0.0068034,0.015369,0.0050794,-0.0013938
0.0078171,0.015501,-0.0096578,0.0011808,0.015234,-0.0012275,-0.00064157,0.0058727
-0.010164,-0.050544,-0.043322,-0.023423,-0.015683,0.0054815,-0.013662,-0.010317
0.010923,0.0078072,0.0076698,0.014617,-0.0079318,-0.011261,-0.010889,-0.010843
0.001044,-0.035589,0.018649,-0.0018352,-0.00058727,-0.0044361,0.015152,0.0043733
0.0073089,0.05417,0.013543,0.013185,-0.0013667,-0.0051425,0.0094871,0.004172
-0.0013661,0.012038,-0.0070679,-0.010632,-0.010087,0.010183,-0.0046426,0.012063
-0.017084,-0.052073,-0.026963,-0.0029898,-0.0030829,-0.0052628,-0.0038876,-0.0031673
0.0070311,0.018502,0.0090649,-0.002982,0.027675,0.011014,-0.011662,-0.0024737
0.00059395,-0.018228,0.0076291,0.012792,0.0042093,0.012044,0.0034043,-0.0015502
0.00253,0.017355,0.015756,-0.0025789,-0.0031217,-0.0023374,0.01025,0.0073043
-0.0029716,0.038951,0.002108,0.0055687,-0.010014,-0.016717,-0.0065334,-0.015105
-0.0005054,-0.0087498,-0.018004,-0.0096504,0.0068058,-0.0078652,0.00013426,0.0014048
0.0018811,-0.0015406,0.009617,-0.01698,0.00024549,0.0084316,0.0069731,0.0098558
-0.0038556,-0.010575,0.0062641,0.014844,-0.006471,0.008659,0.0062594,-0.0054362
0.0055179,-0.0366,-0.020832,-0.0079151,-0.0056926,0.00065538,-0.0098039,0.010211
0.014224,0.03705,0.01378,0.024112,0.0025061,-0.0076396,0.0056118,-0.0056556
-0.016878,-0.032027,-0.0074065,-0.01411,-0.013103,-0.0082097,-0.010078,-0.013879
0.0059784,0.014099,0.0014385,0.010166,0.010084,-0.0086294,0.0055336,0.0012843
-0.003027,0.0039634,0.001354,0.0031007,0.017532,0.014756,-0.0023171,0.0087069
-0.012435,0.00067973,-0.0073869,-0.01978,-0.014044,-0.00040995,-0.0024194,0.00067233
0.0014616,-0.010688,-0.0166,-0.0038784,0.0014091,0.016209,0.0052305,0.0084785
-0.00011395,0.0095557,0.013155,0.003864,0.0014374,-0.0058105,-0.010574,-0.014762
-0.001295,0.015001,0.019669,-0.0044045,0.0016312,-0.0042009,0.012734,0.0090031
0.013689,0.0058644,-0.0047389,0.010368,0.0018844,0.0051027,-0.0028972,0.0093501
0.005787,-0.025718,-0.0054434,0.016944,0.0020467,-0.0016589,-0.0027211,-0.0060339
-0.0016875,0.013707,0.0095042,-0.0080701,0.0019617,-0.0091202,0.0054776,-0.0060033
0.014469,-0.0013212,0.016316,0.005713,-0.0063023,0.0060216,-0.0017495,0.0015738
-0.0085286,0.022426,0.0068222,-0.0040857,-0.007168,-0.0030795,-0.0010161,-0.014545
-0.016251,-0.032706,-0.034855,-0.02167,-0.00059227,-0.0049778,-0.00021893,0.00039483
-0.0088621,0.012664,-0.015014,-0.015577,-0.0098812,-0.022783,-0.0072756,0.0074349
-0.0020113,-0.036854,-0.019377,0.0066075,0.019848,0.022021,0.0089536,0.0066821
0.0044287,0.029852,0.038456,0.02946,-0.0049339,-0.0030055,-0.006318,-0.0017889
0.010706,0.010051,0.0028784,0.0062309,0.0019094,0.01959,0.01715,0.0054775
-0.0063065,-0.017594,-0.0082214,-0.0005628,0.0014557,-0.0038401,-0.014425,0.0050009
0.0005613,-0.013447,-0.017666,-0.014466,0.0015731,0.0047406,0.00053671,0.0045073
0.0080843,-0.00045247,0.0061908,0.0033678,0.0022275,-0.0017951,-0.0082115,-0.011724
0.00071559,0.04514,0.047802,-0.0020409,0.003307,-0.00036562,0.0063173,-0.0046951
0.0096309,-0.0016012,-0.010294,-0.0075707,-0.0031647,0.00084334,0.0052026,-0.0056555
-0.012255,-0.023675,-0.01244,0.0021125,-0.025185,-0.021909,0.0042213,-0.0067133
0.0050726,0.017586,-0.0063242,0.0033489,0.0073822,0.0015251,-0.0043002,0.0079041
-0.0012076,0.0044848,-0.00065132,0.011639,0.0084497,0.00083728,-0.012446,-0.00068363
-0.015743,-0.040046,-0.019667,-0.012091,0.0091588,-0.0081841,0.0032732,0.0067561
0.015989,0.063295,0.053235,0.002568,0.0094455,0.0059853,0.0037808,0.0068971
-0.015412,-0.099732,-0.063443,-0.014505,-0.014143,0.020222,0.012436,-0.00024088
0.0073616,0.056877,0.028868,0.0072564,0.00093036,0.0035585,-0.0021441,0.00088604
-0.0013938,0.0021689,0.0025256,0.021253,-0.0077476,-0.004753,-0.0010632,-0.005514
-0.0023171,-0.02122,-0.016719,-0.011318,-0.00098113,-0.0046421,-0.0079259,0.0037801
-0.0029253,0.018455,-0.020177,-0.012129,0.0057686,-0.0039702,0.00057098,-0.010513
0.012633,0.012239,0.024236,0.0033155,-0.0029533,0.0049342,-0.0068968,0.0061189
0.0054035,-0.016194,-3.9507e-05,0.0037823,-0.0035612,-0.0015568,0.0087351,-0.0011104
-0.0090261,-0.012176,0.02448,0.0048123,0.011856,-0.0080129,0.00066819,-0.0087696
0.0082321,0.031808,0.011761,0.0062327,-0.003548,0.0010305,0.00028676,-0.001155
-0.0055979,-0.0097828,0.00039544,-2.2802e-06,0.0048703,0.0020336,-0.0078718,0.0062465
0.0038523,0.0029808,-0.025981,-0.021959,0.0057524,0.0027708,-0.0080283,0.0057832
-0.0027732,0.038122,0.01771,0.018254,-0.016674,-0.0045534,0.015552,-0.0024004
0.0055697,-0.0065382,-0.002141,-0.0045366,0.015561,0.0035492,0.00822,0.013044
-0.025881,-0.10013,-0.070495,-0.012292,-0.014861,-0.0041118,0.0011798,-0.010349
0.0045047,0.015074,0.031127,0.010623,-0.014281,0.0037582,-0.013504,-0.0022914
0.010982,0.050263,0.037168,0.009623,0.017263,0.019362,0.0030538,0.0058933
-0.013995,-0.025322,-0.028571,-0.015121,-0.0061638,-0.019819,0.0037866,-0.017144
0.0079756,0.007706,-0.017094,-0.0087109,0.0092161,-0.0044541,-0.0036615,0.0066177
0.022428,0.032803,0.04098,0.021255,0.0087489,0.0029043,-0.0037742,-0.0010368
-0.0095793,-0.011989,-0.0021995,-0.010976,-0.0075361,0.002214,0.0034226,0.0067007
0.0057084,0.0065136,0.033508,0.011914,0.0072611,0.0090885,-0.0054467,0.0063559
0.0056902,0.033816,-0.015675,0.0040516,-0.0093286,0.00012219,0.0010062,-0.0020746
-0.025423,-0.055033,-0.032451,-0.011125,-0.010377,-0.016792,-0.00046824,-0.010747
0.0059435,-0.0022486,-0.016845,0.0053947,0.012015,-0.0024667,0.0059571,0.0038451
-0.00191,-0.026621,-0.00023315,-0.0089765,0.0032837,0.011998,0.0048375,0.010552
-0.0021752,0.04371,0.0093755,-0.015286,-0.012983,-0.0044982,-0.003699,-0.013935
-0.002651,-0.017805,0.019544,0.0097796,-0.005384,0.0028555,-0.003969,0.0008343
0.0045551,-0.015848,-0.009084,0.0035777,0.0027589,-0.0049383,0.0040124,-0.0075108
0.011747,0.018276,0.016913,0.012825,0.011494,0.011176,-0.003272,0.0080001
-0.0043975,0.014089,0.019074,-0.0017154,0.0051472,0.0042444,-0.0025084,0.0083437
-0.012543,-0.013081,-0.034151,-0.0011499,-0.00080744,-0.002436,0.0061609,-0.0065104
0.018594,0.069166,-0.0023461,0.014383,0.0090147,-0.0090338,0.006978,0.018025
0.0030548,-0.036512,0.012851,-0.0098748,-0.012551,-8.8991e-05,-0.0079693,-0.011953
-0.01235,-0.049288,-0.019718,-0.019204,-0.0032882,-0.0069803,0.00033158,-0.010688
0.003547,0.030546,-0.0060575,-0.0056456,0.0053262,0.0092834,-0.014991,0.0060295
-0.0040174,-0.03147,-0.00049173,-0.00019731,-0.018079,0.0018197,0.00079691,-0.00098861
-0.011652,-0.0086405,0.013009,0.0052703,0.0046227,-0.0058868,0.0087003,-0.0005494
0.011886,0.013409,0.0035582,0.011079,0.0032438,-0.0059426,0.00096586,-0.00044795
-0.0036847,0.011643,0.0026546,0.001864,0.0014381,0.0095519,0.016681,-0.00059988
0.012005,0.017694,0.02601,0.0090217,0.015097,-0.006211,-0.0066769,-0.00087518
-0.011296,0.00057605,-0.0045787,0.0013065,-0.010196,0.0092979,-0.0066767,-0.0011279
0.0045823,-0.008364,-0.034637,-0.0136,0.0039175,0.0091904,0.0009625,0.0065848
-0.010654,0.014237,0.0058666,-0.0046766,-0.0048929,0.0012342,0.00052487,0.0067263
0.021101,0.021318,0.015089,0.012176,0.0025267,-0.0068116,-0.0080457,-0.0084859
0.0060493,0.0048575,0.0084348,0.0054531,0.0027512,-0.014981,0.006503,0.0077911
-0.024631,-0.074339,-0.053281,-0.01722,-0.012091,-0.0076442,-0.0026343,-0.014841
-0.0007014,-0.02095,0.0017898,-0.009051,0.0047572,0.0074402,-0.0040767,0.0016204
-0.00035021,0.016751,0.025253,-0.0012621,-0.0093673,-0.00088987,0.002346,0.0023504
0.0076316,0.0077844,0.032806,0.014076,0.015656,0.01434,0.0011867,0.0028436
0.0076052,0.030563,-0.014556,-0.0019316,0.0014982,-0.001478,0.00040955,0.01081
-0.00041579,0.038417,0.016005,0.013384,0.0026533,0.006383,0.0079234,0.0027551
-0.016393,-0.023289,-0.023951,-0.01016,-0.0044752,-0.0011531,-0.0074966,-0.021321
0.01442,0.017205,-0.0094237,0.005624,-0.0043611,-0.0085211,0.0087905,-0.0066708
-0.0016512,-0.035652,0.012754,-0.0017703,0.002978,-0.0079981,0.0019944,0.0077568
-0.0020199,-0.002457,-0.011992,-0.0011576,-0.0058225,0.00031796,-0.0045795,0.0064835
-0.0022223,0.0071763,0.010275,-0.00044374,0.00064461,0.0085276,-0.011063,0.0052897
-0.0021779,-0.030316,-0.029574,-0.0075327,-0.016466,-0.0068698,-0.0019349,0.0043122
-0.0096393,-0.021178,0.0093351,0.0087624,0.021211,0.0087799,0.007112,-0.011976
0.022295,0.042517,0.025634,-0.0062671,0.0045204,0.0085987,0.00042351,0.0033465
-0.0079558,0.0203,-0.011851,-0.005727,-0.00388,-0.015202,-0.014197,0.0034012
0.0011091,-0.0017671,0.013985,-0.0051994,0.0038933,-7.5936e-05,0.017929,-0.011862
-0.0053005,-0.00020967,0.0091517,0.010982,-0.0034347,-0.00065049,0.0030203,0.0043465
0.011752,-0.021983,-0.026722,-0.0040422,-0.010349,-0.0012356,-0.0042971,0.0050475
-0.0025496,0.010854,0.015314,0.027824,0.014233,0.013853,0.0037031,0.0057537
-0.0092512,0.027752,0.0098606,-0.0028651,-0.0080053,-0.017843,0.0034943,-0.0092642
-0.00061086,-0.02621,-0.012114,-0.010264,0.0086984,0.013073,0.0028286,-0.0010267
-9.1037e-05,-0.010569,-0.019469,-0.0022687,-0.006098,0.005038,-0.013917,0.0069784
-0.007675,-0.034751,-0.019929,-0.033614,-0.013394,-0.010715,-0.0075953,-0.0086966
0.0079305,0.018504,0.018012,0.0129,0.010256,0.0048544,-0.0014708,0.0066677
0.015525,0.047811,0.0087735,0.012336,0.0024238,-0.0029531,0.0046924,0.0062658
-0.0082943,0.006532,0.023035,0.0038547,-0.0055352,-0.002884,-0.0044738,-0.017619
-0.00883,-0.0504,-0.017042,0.0031767,0.0021145,0.0050847,0.010316,0.0054311
-0.0017252,-0.013404,-0.0019436,-0.005255,0.0020187,-0.010261,0.010138,-0.0026131
0.020797,0.047344,0.021423,0.017644,0.0098351,-0.0020103,0.0028241,0.0051889
-0.01161,-0.0087278,-0.017438,-0.0219,-0.013526,0.006415,-0.0039172,0.0054207
0.010416,0.029301,0.0061995,0.016688,0.0099805,0.014997,-0.010294,0.0058667
-0.022467,-0.033946,-0.0016979,-0.022892,0.0021172,0.00023577,-0.00094919,-0.0013565
-0.00080355,-0.018852,0.013347,0.023395,-0.005978,-0.0067185,0.0082204,-0.0085329
-0.0025864,-0.011402,-0.034673,-0.024118,0.0012399,-0.013803,-0.0064471,-0.0079484
0.01922,0.043095,-0.01285,0.0065066,-0.0074996,0.0022929,-0.0060243,0.00031752
-0.0055351,-0.019377,0.00093846,-0.0018211,-0.0087078,0.0024049,0.0016509,0.0084069
0.0014077,-0.019048,0.014845,-0.0021234,0.0055466,0.017724,0.0088497,0.00068745
0.0010661,0.051983,0.037032,0.01349,0.011992,-0.014248,0.00011882,-0.0071892
0.001267,-0.017149,-0.01035,0.0059822,0.0029958,0.00030091,-0.008693,0.0082641
0.001959,0.015782,0.013462,0.0065648,0.0021596,-0.0010025,-0.0017294,0.0080445
-0.012589,-0.067984,-0.055622,-0.023924,-0.021652,-0.0023619,0.0055795,-0.015603
0.012169,0.036175,0.032208,0.0081237,0.0097352,0.0042308,0.0055427,0.0076811
-0.017678,-0.0078075,-0.020237,-0.0068192,0.002543,-0.0044735,0.0059975,-0.0080148
-0.00072265,0.010811,0.0054066,-0.0063882,-0.0042637,-0.004889,-0.01657,-0.0080004
0.016017,0.013642,0.038436,0.024951,0.020412,0.010876,0.007988,0.023325
0.0089919,-0.0074352,-0.015228,-0.0065815,-0.017359,0.0037497,0.0013265,-0.0078384
0.001567,0.01757,0.00045628,0.0006152,0.0072489,-0.0029318,-0.0055411,3.5061e-06
-0.0062771,-0.013182,-0.016113,-0.015857,-0.0074627,0.0062776,0.010616,-9.779e-05
-0.022313,-0.0061164,-0.017919,-0.0011607,0.00093692,-0.0079108,0.0027873,-0.00039079
0.00043114,-0.023755,-0.012471,0.0058132,0.0012043,0.001145,-0.01344,-0.00090571
0.015222,0.027809,0.024073,-0.0025876,-0.014397,-0.0058166,-0.0067437,-0.0016278
-0.016846,-0.038603,-0.0016136,0.0050041,-0.0066848,-0.0054893,-0.0082049,-0.0024918
0.021553,0.02745,0.028007,0.020826,0.024469,0.0098953,0.013658,-0.0033874
0.013322,0.02333,0.019399,-0.009836,0.0088506,0.001319,0.0044019,0.011448
-0.018081,-0.011454,0.0038513,0.0066783,0.0011874,-0.0076615,0.0032978,-0.004718
-0.0023906,-0.014067,-0.073446,-0.023516,-0.014172,0.0065594,0.002662,-0.0048972
-0.0022133,-0.0077846,-0.0096206,-0.014633,-0.0060619,-0.0027081,0.0025237,-0.0046528
-0.0020588,0.0073646,0.03094,0.0097472,0.0019678,0.0037704,-0.0049963,0.01163
0.013564,0.03117,0.040075,0.018251,0.0098079,-0.012935,-0.0044101,0.0047989
-0.0023218,-0.014842,-0.013782,0.0029697,0.0017632,0.025382,0.0041139,0.0059501
-0.002889,0.0017316,-0.013686,-0.0049122,-0.0065481,-0.01407,-0.010832,-0.0085505
-0.011555,-0.0054334,0.0011746,0.010199,0.00056626,0.0093121,0.0053273,-0.0076521
0.0030174,-0.013177,-0.00043476,-0.021997,-0.015822,-0.013902,0.00567,-0.0071431
0.0019034,-0.005979,-0.0027237,0.015752,0.0069633,0.0021598,-0.0097831,0.01632
0.00089069,0.0084385,-0.021022,-0.017055,-0.0090262,-0.012876,-0.0018953,-0.0075809
0.007946,0.022532,0.015359,0.012567,0.01447,0.019067,0.0059964,-0.00063919
-0.00025336,-0.033627,-0.0025679,-0.012365,0.022819,0.0042045,0.0061748,0.0060487
-0.0080303,-0.011191,0.0036459,0.0021044,-0.0074566,-0.018429,-0.0012987,-0.018573
0.008032,0.019861,0.018564,0.0092667,0.0016354,0.013639,-0.00079174,0.011628
-0.006844,0.012819,0.0031399,0.0014034,-0.020411,-0.0090048,-0.00016866,0.0030627
0.0018857,0.0066838,-0.019351,-0.005865,-0.011307,0.0073442,-0.0073442,0.0026978
0.0027992,-0.0066533,-0.0023383,-0.0048344,0.013129,0.0079458,0.016612,0.018359
-0.0042742,0.019203,0.022552,0.019923,-0.0019296,-0.007249,-0.01437,-0.02033
0.0039643,-0.010061,-0.0075485,0.0056592,0.013758,-0.0070225,0.0011682,-0.0041103
0.0039955,0.014416,0.0086468,-0.0088129,-0.010129,0.0086218,0.00067595,0.0043783
-0.0041872,-0.040517,-0.053984,-0.015876,-0.0032281,-0.0071583,-0.0002002,-0.010618
-0.012698,-0.026489,0.023368,-1.5744e-06,0.0032985,-0.0074206,0.0064484,0.0054973
0.0020452,0.017679,0.0065543,-0.00023184,0.0095657,0.0079252,-0.0026541,0.0058095
0.0089861,0.0065635,-0.0025214,-0.016437,7.6182e-05,0.0077234,0.0039461,0.0059586
0.00052336,0.018974,0.0043327,0.014086,-0.0094119,-0.0079504,-0.020414,-0.0018057
0.0081003,0.0087584,0.011827,0.013427,-0.0031407,3.7299e-06,-0.013056,-0.0095781
0.0006091,0.0077753,0.027998,0.020828,0.0033918,0.0081352,0.026125,-0.0016307
-0.014072,-0.022666,-0.025211,-0.026115,-0.0053255,0.0007541,0.019003,-0.001313
-0.012531,-0.020022,-0.022896,0.0054042,0.0098597,-0.014434,-0.003287,-0.000764
0.0051086,-0.02367,-0.02781,-0.0097093,0.0021266,0.017129,-0.0018981,0.0078187
0.015196,0.036047,0.01436,0.0065113,-0.012893,-0.01406,-0.016165,0.0087326
0.0096395,0.048847,0.04066,-0.00080021,0.011628,0.0012789,0.00051458,0.0018412
0.0037519,0.021525,0.027179,-0.00055151,-0.01035,0.00059883,0.0010555,-0.0052148
-0.002756,2.5742e-05,-0.0030641,0.0071566,0.0069591,0.015174,0.00097781,-0.0047913
-0.010096,-0.0788,-0.034728,-0.0089477,0.0086826,-0.0017707,0.00030535,0.0029869
-0.026168,-0.04327,-0.044449,-0.0097403,-0.0053771,-0.018815,-0.016441,-0.013177
0.019405,0.044466,0.030452,0.012724,-0.0041548,0.0033257,0.013474,0.0092667
-0.021604,-0.025664,-0.012722,-0.011693,-0.011234,-0.0054182,0.0043886,-0.0076717
0.022997,0.044457,0.029766,0.01094,0.012362,0.0020472,0.0034375,-0.001295
0.012946,0.0062196,-0.0054468,0.0026435,0.0041193,0.010246,0.0030031,0.0051721
-0.0045342,-0.037532,-0.023952,-0.0052458,-0.0046506,0.003592,-0.0046304,-0.0037145
0.002075,0.046944,0.02944,0.018532,0.0018059,-0.0023832,-0.0038505,0.019029
-0.0061339,0.017858,0.014363,-0.012022,-0.0075819,-9.0007e-05,-0.0025828,0.0031079
-0.021324,-0.06249,-0.030147,-0.0032666,-0.0091698,0.0023375,0.006799,-0.012484
0.018907,0.031686,0.020612,-0.010022,0.020686,0.0045325,0.0006347,0.011188
0.020611,0.033552,0.025501,0.014465,0.0040416,-0.0016625,0.0021438,-0.0041376
-0.0321,-0.050511,-0.070799,-0.015832,-0.012096,-0.016505,-0.0044739,-0.027321
0.0089321,0.035909,0.020134,0.00059912,0.0035947,0.0067621,-0.011511,0.0040939
0.0028219,0.0026289,0.024309,0.016878,-0.0035673,-0.0021281,0.0044475,0.0041971
0.011874,-0.025987,-0.0039717,0.0017781,0.0054258,0.0039014,0.012209,0.012138
-0.018706,-0.042168,-0.018008,-0.01341,-0.0085944,-0.013894,-0.0037368,0.0045932
0.012647,0.024951,0.021306,0.010421,0.0011012,-0.00045834,-0.011997,-0.0027083
-0.018971,-0.042359,-0.042049,-0.020444,0.0030913,0.013306,-0.0046268,-0.0018937
0.0038076,0.054057,0.026667,0.011206,0.0050054,0.0042167,0.010656,-0.00077951
0.010884,0.010776,0.024751,0.019441,-0.0011478,0.011455,0.018257,-0.0072516
-0.0053477,0.00066651,-0.01614,-0.011373,-0.0077143,0.0037406,-0.0052909,0.0098062
-0.0056711,0.0086269,-0.025372,-0.010937,0.0086224,-0.011274,0.0024335,-0.0044672
0.017791,0.0033706,0.028496,0.012919,0.00091827,-0.0025759,0.0022757,0.0044307
0.010316,0.031203,0.020508,-0.0023164,-0.0073953,-0.017295,-0.029272,-0.0027283
-0.028226,-0.065094,-0.033812,-0.025405,-0.00063331,-0.0087723,0.0015203,-0.0026241
0.011352,0.0102,-0.0096745,0.0061376,-0.0021124,0.015043,0.00094317,0.0046964
0.0038416,0.0059743,0.014521,0.021965,0.011772,0.022854,0.008146,-0.004169
-0.004055,0.015134,0.015051,-0.0014211,-0.013477,-0.008736,-0.00020598,-0.0056671
-0.0046279,-0.033062,-0.0083328,0.0062056,0.0082668,-0.0093128,0.0072184,0.00038267
-0.005695,-0.013552,-0.016729,-0.0099416,-0.0087743,-0.009992,0.0070121,0.0063872
0.00065159,0.019506,0.013249,0.0047414,0.013635,0.0049863,-0.00085536,0.0047591
-0.0010359,-0.0033097,-0.01207,-0.012279,-0.0025801,0.0044781,-0.00083944,-0.004304
0.012906,0.020654,0.016885,0.017168,-0.0027456,0.011978,-0.00085176,0.0027782
0.0036463,0.014373,0.014463,-0.0083393,0.0052617,-0.0037622,-0.0087839,-0.0051752
-0.0051784,-0.029031,-0.034619,-0.018259,-0.0099057,-0.003729,-0.0012235,-0.0047378
-0.005621,0.023873,0.010599,-0.0044981,0.0063311,0.0041894,-0.009375,0.011815
0.010185,-0.029819,-0.029301,0.0019729,-0.0086265,-0.0035202,-0.0018795,-0.010353
-0.012479,0.0049994,0.017708,0.01699,0.007647,-0.0034682,0.0057793,0.014506
-0.0034083,-0.005078,0.034423,0.0093909,-0.0073915,-0.011283,0.013731,0.00025237
0.0059806,0.017184,-0.002783,0.010357,0.0087433,0.0043278,-0.0013923,-0.014237
0.0076707,0.039492,-0.0083182,-0.0037655,0.00137,-0.0034361,-0.00054695,-0.0056653
0.0092614,0.021752,0.025193,-0.0020445,-0.0060597,0.020191,0.0083342,0.0024462
-0.0050657,-0.060314,-0.019879,-0.0082647,-0.0057229,-0.010674,-0.014013,0.010083
-0.019832,-0.050975,-0.050146,-0.01491,0.0023769,0.01335,0.0024817,0.0094789
-0.0038685,-0.0050342,0.0044966,-0.0065354,0.010405,-0.0093535,0.010715,-0.0070782
0.011567,0.0074689,0.019019,0.0011992,0.0027006,-0.008576,-0.012911,-0.016017
-0.0047197,0.04179,0.0091825,0.00058674,-0.0051548,0.0077331,0.0018685,0.0062479
0.0098781,0.020524,0.022121,0.023081,0.0024341,0.00037033,-0.0073613,0.0051748
0.0086193,0.0068937,-0.0043423,-0.0013867,-0.0057826,0.00047062,-0.0091412,0.0043217
-0.00053821,-0.0063073,-0.015186,-0.0022811,0.0014884,0.00015785,0.020265,-0.0040418
-0.0018233,0.036047,0.0055242,-0.0028815,-0.014726,-0.016189,-0.0047465,0.0035569
-0.01072,-0.04546,0.0033662,0.0046962,0.0081971,0.014008,0.002061,-0.0041457
-0.011474,-0.031933,-0.013635,-0.0029983,0.0078907,0.0049517,-0.0059795,-0.0037672
-0.0039789,-0.032684,-0.014071,-0.010416,-0.0077231,-0.0041111,0.002452,0.0046075
0.011834,0.02261,0.0021531,0.0057714,0.0082869,0.002646,0.0038325,-0.0025591
0.012535,0.040154,0.035064,0.0063939,0.0012137,-0.013655,0.013559,0.0058834
-0.0019421,0.027631,-0.0013265,-0.0086295,0.0022069,-0.0060008,-0.0077627,-0.001399
0.0073273,-0.023006,-0.021211,-0.00027455,-0.0045274,0.01786,0.0019991,-0.0010262
-0.0067258,-0.018356,-0.0013564,0.00021608,-0.0035732,0.0032144,-0.01218,-0.0086458
0.010372,0.041143,0.042345,0.016322,0.0048589,0.012452,-0.0036613,0.0070053
-0.027511,-0.063745,-0.070105,-0.022212,-0.00284,-0.0092963,0.004022,-0.00090391
-0.0033205,0.018079,0.012512,-0.0059676,-0.0033301,-0.01537,-0.004693,0.0067531
0.0047618,-0.0028361,0.00077546,0.010376,0.011199,0.0018324,0.0016415,-0.0090163
0.020201,0.05294,0.050578,0.011143,-0.013841,0.0030836,-0.0079391,-0.0012772
-0.0116,-0.056878,-0.0181,-0.0037774,-0.0079525,0.0039104,0.013749,-0.0012426
-0.012386,0.011543,-0.0024039,0.012331,0.013483,-0.011334,0.0044757,0.0067177
0.025789,0.031895,0.019389,0.0046087,0.0038499,0.0042708,0.0034803,0.0069515
-0.0063363,-0.04229,-0.054269,-0.027087,-0.0053719,0.0039393,0.0030134,-0.00059377
0.00069135,0.023874,0.034657,0.0031147,0.0016065,0.0034043,-0.004785,-0.00035529
-0.0077744,-0.019052,-0.018083,-0.0063094,0.001419,0.0027661,-0.0044188,-0.008011
-0.0082857,-0.029915,-0.024377,-0.00051998,0.0018495,0.0021013,-0.0038664,-0.007963
0.014775,0.054213,0.024304,0.012914,0.0027809,-0.0063556,-0.0032854,-0.00020423
-0.0011024,0.014842,0.01148,-0.0047789,-0.0037788,-0.0069575,-0.0027909,0.0074904
0.0065753,0.00046182,0.031488,0.0091847,0.005402,0.0081169,0.0053749,-0.00044992
-0.024688,-0.028149,-0.048117,-0.015288,-0.0089335,-0.00018802,-0.0022224,0.0072763
-0.0011308,-0.024459,-0.00068527,0.0078569,-0.0078755,0.0072042,0.0057119,-0.0005502
0.014753,-0.0045744,0.0095051,0.0082973,-0.0071423,-0.02437,-0.0020107,-0.0083053
0.015142,0.046575,0.021037,0.0093442,0.016672,0.014491,0.013728,0.0074161
-0.0078073,-0.0043832,0.0019942,-0.012653,0.0010882,-0.0090044,-0.0095417,-0.00031439
-0.015092,-0.017324,-0.009297,-0.011072,0.0086621,0.0067065,-0.0093173,-0.00030489
