-0.070289,0.028743,-0.075958,0.012039,-0.0021628,0.0084432,0.00065155,-0.30924
0.0060639,-0.0057012,0.20556,-0.0042007,-0.0043948,-0.0067976,-0.006628,0.12891
-0.0037236,-0.0061918,-0.14236,0.018479,0.0010634,-0.01466,-0.021644,-0.096763
0.002167,-0.011326,-0.048479,-0.037105,-0.0011194,0.00048481,0.0024043,-0.11914
-0.030603,-0.05229,0.011092,-0.022392,-0.010642,-0.0081568,0.010751,0.21023
-0.031354,0.0033199,-0.0028838,-0.0074687,0.003998,-0.0013785,0.0033113,-0.04608
0.09396,0.11553,0.12748,0.023558,0.01952,0.028808,0.019066,0.0025703
0.0095365,0.032968,-0.13064,0.024041,-0.0031184,0.0044502,0.0032549,0.074878
-0.034702,-0.20696,-0.029403,-0.021555,-0.0093552,-0.019626,-0.020731,-0.055867
-0.015615,0.10493,0.084884,0.027291,0.00055229,-0.0042761,-0.013828,-0.053905
0.035089,0.23276,0.16275,0.014013,0.018446,0.019273,0.016213,0.01033
-0.015929,-0.23074,-0.13397,-0.014988,-0.010734,-0.019328,-0.024233,0.11343
-0.012904,-0.074826,0.037127,0.0022541,-0.0013791,-0.0029732,0.01344,-0.16625
-0.010857,0.037128,-0.019402,-0.012849,-0.0084022,0.0057233,0.020042,0.17173
0.021345,0.036406,-0.091269,-0.013691,-0.0084465,0.014444,-0.0042652,-0.18457
-0.017736,-0.027846,-0.24601,-0.015895,-0.0014378,-0.0081924,-0.012496,-0.1643
-0.0027653,-0.012425,0.28584,0.0042747,-0.0027939,-0.0076104,-0.0046121,0.31879
-0.0114,0.05386,-0.15549,0.0082988,0.026841,0.0082976,0.019354,-0.047789
0.050603,-0.022444,0.24653,0.012481,0.0018488,0.0082499,0.0046233,0.19646
-0.019472,0.048657,-0.02857,0.009691,-0.0071689,-0.015542,-0.0098639,-0.089824
-0.010463,-0.029882,-0.049656,-0.022964,-0.0078097,-0.0083106,-0.0086058,-0.08725
-0.0083219,0.076644,0.073579,0.032008,0.0078558,0.014443,0.0082995,-0.11696
-0.036756,-0.063508,0.018871,-0.0050674,-0.014844,-0.0096331,-0.029521,-0.18734
0.10688,0.047188,-0.076329,-0.017281,0.0099518,0.0055435,0.002904,0.13881
0.031361,6.6754e-05,-0.083015,0.018298,0.011787,0.013214,0.03525,0.15044
-0.099849,-0.19114,-0.0049988,-0.023964,-0.025149,-0.0099932,-0.0028188,0.19903
-0.013775,0.081894,-0.048682,0.011537,0.016132,-0.0015693,-0.0019787,-0.23131
0.00029517,0.15509,0.15075,0.014891,0.010443,0.0071871,-0.0013769,-0.00037447
-0.010709,-0.13468,-0.056453,-0.0064249,-0.011118,-0.0072536,-0.0089312,0.14127
0.03946,-0.074863,0.016977,-0.029061,-0.017409,-0.0059477,-0.0013058,-0.12719
-0.044045,-0.046362,-0.073586,-0.0059824,-0.00067723,0.0031648,-0.0020069,-0.11848
0.083028,0.24944,0.11077,0.016292,0.023427,0.01215,0.012392,0.034818
-0.078903,-0.10818,-0.021809,-0.024281,-0.015407,-0.018158,-0.020546,0.099027
-0.01396,-0.03301,0.13242,0.044615,0.023454,0.01372,0.024313,-0.11219
0.13732,0.35709,-0.16649,0.012375,-0.0006002,-0.0094612,-0.0090821,0.15267
0.023347,-0.40028,-0.04143,-0.019292,-0.02505,0.0060139,-0.0033093,0.090561
-0.051191,0.044494,-0.084392,0.012068,0.0048272,-0.0023647,-0.0050049,-0.093747
-0.15647,-0.005877,0.11208,-0.003128,0.010967,0.012293,0.0094731,-0.14875
0.075052,0.095422,-0.11565,-0.0026733,0.0012783,0.0031537,-0.014431,-0.17476
-0.020117,-0.074422,0.16164,-0.041543,-0.031926,-0.037524,-0.0063742,0.43845
-0.1132,0.023558,0.075418,0.01287,0.020876,0.015361,0.017928,-0.13685
0.14789,-0.12551,0.17058,0.012059,0.0035845,0.005679,0.034838,0.028844
0.060234,0.19858,0.21838,0.042036,0.025708,0.027317,-0.010613,-0.049606
0.1079,-0.1585,-0.90809,-0.04544,-0.014218,-0.02115,-0.032791,-0.13913
-0.0771,0.19596,0.2041,-0.0079188,-0.02239,0.0010275,-0.00071219,0.10228
-0.19124,-0.17354,0.031322,-0.017013,-0.014431,-0.038865,-0.016104,-0.046195
0.045409,0.047199,0.097752,0.013407,0.017423,0.023291,0.038192,0.17109
0.14731,0.32034,0.33436,0.059969,0.026197,0.031251,-0.0017759,-0.083877
-0.01133,-0.48618,-0.24964,-0.033655,-0.019498,-0.022857,-0.0264,0.17157
-0.14953,0.25283,0.042173,0.029202,0.012987,0.0092868,0.003686,-0.18082
0.0064269,-0.34579,-0.0083393,-0.017352,0.0063053,0.01034,0.026294,-0.1413
-0.011471,0.29517,-0.057369,-0.025127,-0.016232,-0.01205,-0.020819,0.048618
0.094637,0.049176,0.21507,-0.0098931,-0.015623,-0.018958,-0.0046906,-0.039289
0.013243,-0.13273,-0.17584,-0.010703,-0.0074824,0.0051599,-0.0034395,0.26104
0.0029313,0.15318,-0.050734,0.011676,0.016084,-0.0022055,-0.0015801,-0.28262
-0.060881,-0.11136,-0.073694,0.010654,0.0083244,0.013696,0.11001,0.17538
0.16559,0.22756,-0.03347,0.0021793,0.000615,0.0061035,-0.090868,-0.051126
-0.12261,-0.24569,0.070443,0.017781,0.00086505,-0.0014047,-0.018563,0.31972
-0.011823,0.37482,0.13695,0.0029342,0.0091159,-0.0086943,-0.0092239,-0.31373
-0.080532,-0.5738,0.072503,-0.018917,-0.013716,-0.0078534,-0.00042876,-0.13178
0.12418,0.012603,0.025315,0.022397,0.010421,0.016783,0.03131,0.32554
-0.069563,0.082949,-0.19275,-0.029635,-0.027958,-0.020763,-0.031058,-0.34904
-0.14602,-0.015146,0.026753,0.0043514,0.0038431,0.0043815,0.023559,-0.0081155
0.21526,0.10436,-0.075001,-0.0087844,0.019775,0.0060647,0.0077632,-0.027628
0.014229,0.16978,-0.0067321,-0.0068249,-0.003683,0.0074449,0.015307,0.4509
-0.038476,0.11057,0.082467,0.025652,0.0037334,0.0082176,-0.00079243,0.098516
0.14247,0.0026158,0.16883,0.033856,0.010774,0.023735,-0.0094733,-0.33549
-0.3422,-0.25162,-0.2086,-0.044715,-0.013755,-0.024303,-0.018753,-0.20312
0.19413,0.10121,0.0051918,-0.014647,-0.030683,-0.057792,-0.020965,0.081597
0.04759,-0.15391,0.084189,0.022679,0.030466,0.048435,0.038552,0.19889
-0.14154,-0.2776,-0.033348,-0.010624,-0.0019953,-0.0099642,-0.019753,-0.28764
0.1816,0.62777,-0.065294,-0.012737,-0.010686,-0.013762,0.007548,0.21725
0.017837,-0.0067378,0.07518,0.040012,0.027992,0.021941,0.042771,0.2856
-0.15481,-0.4981,-0.0095496,-0.024078,-0.018671,-0.003944,-0.069815,-0.36209
-0.20939,-0.11509,-0.037597,0.0060262,-0.010027,-0.005139,-0.009377,0.088266
0.20782,0.19421,0.07736,0.028776,0.022611,0.041937,0.060452,-0.22145
0.059779,0.29346,-0.047409,-0.034007,-0.014657,-0.019036,-0.024137,0.22521
0.12139,-0.13508,0.0019374,-0.010541,0.0029556,-0.016441,-0.013139,-0.001242
-0.18491,-0.020969,-0.071984,-0.0024936,-0.010752,-0.0053548,0.030672,-0.15913
-0.023699,0.12552,0.12072,0.029103,0.014256,0.005962,-0.02606,0.17997
0.10342,0.11226,-0.038014,-0.0095753,0.0074041,0.0014494,0.026856,-0.08748
-0.024812,-0.082269,-0.056916,-0.024829,-0.023705,-0.027071,0.00889,0.34858
0.026079,-0.010845,0.008489,0.014558,0.0067389,0.013887,-0.018261,-0.241
-0.004784,-0.13903,0.20444,0.03825,0.036223,0.030424,-0.016152,-0.45232
0.012847,-0.10982,-0.1647,0.0071735,-0.013258,0.014693,0.053965,0.43169
0.061765,-0.17276,-0.12228,-0.078671,-0.047704,-0.056675,-0.12035,0.011855
-0.20986,-0.012317,0.089974,0.022918,0.01919,0.019605,0.062911,0.11669
0.074139,0.29838,0.082285,0.038528,0.023798,0.025018,0.026366,-0.15081
-0.091666,0.046379,-0.06617,-0.039627,-0.033441,-0.032333,-0.0024953,-0.24926
-0.11033,0.065276,-0.041801,0.0072123,0.004084,0.0041126,-0.014921,-0.027401
0.23246,0.031128,0.046946,0.030587,0.019403,0.0018425,-0.033569,0.16606
0.23646,-0.045876,-0.096194,-0.039871,-0.0030896,-0.0076472,0.004535,0.49759
-0.18239,0.03792,0.22429,0.04576,0.037984,0.022676,0.060406,-0.39065
-0.19545,-0.10907,0.00038614,0.013968,-0.0061688,0.014731,0.079012,-0.0060098
0.2824,0.17534,-0.096515,-0.049339,-0.042251,-0.039368,-0.17473,-0.26323
0.030459,-0.29074,0.018932,0.0043198,0.0074037,0.024265,0.10292,0.53916
-0.40702,-0.43137,-0.13036,-0.020228,-0.013827,-0.021178,-0.034349,-0.39808
0.17028,0.46241,-0.044715,0.010048,-0.0046081,0.019348,-0.048382,-0.10899
0.056726,-0.048915,0.096038,0.02509,0.035001,0.020597,0.068016,0.16132
0.10207,0.23555,0.026232,-0.021753,-0.027719,-0.056671,-0.036961,0.18357
-0.038285,0.031899,0.058251,0.018086,0.026182,0.037459,0.035315,-0.028821
-0.02032,0.14965,-0.04262,-0.0038428,-0.0061717,-0.017301,0.004202,-0.12568
-0.084922,-0.29691,-0.019198,-0.0017775,-0.015166,-0.0020872,-0.027781,0.4318
-0.0815,0.36195,0.15108,0.031788,0.015012,0.01297,0.01086,-0.61315
0.0082057,-0.69486,-0.14993,-0.028525,-0.0092765,-0.0031704,-0.050517,-0.0081695
0.20247,0.11183,0.084767,0.035673,0.029189,0.019999,0.015751,0.00014748
-0.18405,-0.10566,-0.23121,-0.088377,-0.057121,-0.050185,-0.086443,0.04854
0.20148,0.28986,0.14441,0.052364,0.059857,0.051989,0.19787,0.15639
0.062324,0.18631,0.040455,0.0048765,-0.0027483,0.0062266,0.071559,0.38131
-0.25098,0.049485,-0.034082,-0.035249,-0.041838,-0.039078,-0.18492,-0.2282
0.19709,-0.24178,-0.022977,0.018301,0.0051062,0.017552,0.028829,-0.22668
-0.16631,-0.075908,-0.010549,-0.0059634,-0.01811,-0.034943,-0.046327,0.17383
-0.023587,0.2896,0.090594,0.032868,0.029201,0.029855,0.049285,-0.27088
0.029082,-0.28737,0.0080796,-0.0057141,-0.0013756,0.00083312,0.08811,0.030482
0.099258,0.073004,-0.070076,-0.01243,-0.00051633,-0.020652,-0.20389,0.34894
0.053174,0.054288,-0.058032,0.0046219,0.016005,0.019852,0.079394,-0.25507
0.05491,0.15223,0.098202,0.045024,0.032335,0.059598,0.10228,0.30288
-0.44144,-0.17613,-0.055692,-0.063545,-0.045544,-0.065702,-0.087787,-0.54056
0.25338,0.035011,0.02564,-0.0089593,-0.022547,-0.012448,0.025587,0.15959
0.0088165,-0.16122,0.059325,0.021077,0.023075,0.016208,-0.033363,-0.034091
0.12414,-0.17884,-0.010793,-0.004667,-0.0023915,0.0047702,0.087645,0.46457
-0.062595,0.75715,0.0017316,0.02344,0.0028267,-0.007403,-0.063968,-0.078607
-0.15928,-0.45203,-0.059791,-0.019148,-0.023402,-0.01206,0.012106,-0.35889
0.10036,0.0017952,-0.015398,0.0087766,0.028762,0.046017,-0.035644,0.1861
0.067604,-0.29971,-0.082897,-0.040621,-0.019887,-0.051379,-0.012107,-0.061054
0.014815,0.20104,0.028194,0.028488,0.018559,0.0087292,0.01199,-0.1475
-0.044009,0.05257,0.085075,-0.0023231,-0.0040843,0.00010908,0.02828,-0.050067
0.014359,-0.065442,0.011001,0.0076281,-0.0018264,0.016635,0.059611,0.15289
0.016565,0.5093,0.0021666,0.019044,0.0017294,0.019138,0.16019,0.28936
0.047756,-0.24981,0.035347,0.023619,0.021853,0.0072948,-0.32644,0.031366
-0.095041,0.22375,0.0085322,-0.026182,-0.020065,-0.035004,0.045184,-0.12824
-0.14509,-0.56566,0.061419,0.0017571,0.016076,0.016681,-0.0055982,0.18701
-0.10838,0.15326,-0.13524,-0.04941,-0.026452,-0.033508,0.053374,-0.79386
0.10311,-0.010284,-0.059008,0.0074352,-0.0073806,0.017108,-0.0034148,0.034035
0.31923,-0.1481,-0.0074141,0.015935,-0.0050283,-0.019268,-0.050045,0.43223
-0.099791,-0.084723,0.081839,0.023123,0.019639,0.036921,0.14059,-0.064676
0.072204,0.098237,-0.14263,-0.040949,-0.011399,-0.0018047,0.0059531,0.084447
-0.010193,0.29531,0.13205,0.0038738,-0.0042138,-0.033744,-0.079577,0.42657
-0.27152,0.21988,0.2109,0.072113,0.057018,0.050689,-0.023415,-0.53271
0.050721,-0.35436,-0.30442,-0.070254,-0.038472,-0.03733,0.10264,0.046009
0.16443,0.070618,0.10149,0.03008,0.0063107,-0.00069373,-0.14827,0.14909
0.067311,0.076936,0.037461,0.0059275,-0.011684,0.012363,0.12876,-0.0032169
-0.20275,0.081776,0.034098,-0.010059,0.0013424,0.017625,-0.10622,-0.088474
0.0029075,-0.24746,-0.073213,-0.018135,-0.017056,-0.031664,-0.0098058,-0.04039
0.053032,0.21105,0.090328,0.036116,0.019134,0.005207,0.04326,-0.055872
-0.12006,-0.27044,-0.099935,-0.019391,0.0084623,0.018928,0.04597,-0.00093243
0.018091,-0.37056,-0.11181,-0.012869,-0.0020494,-0.0060656,-0.023896,0.10482
0.048771,0.27298,0.0014439,-0.014571,-0.020046,-0.015024,0.0070064,-0.076482
0.068291,0.14848,0.08524,0.014763,0.009333,-6.5332e-05,-0.023835,-0.014339
0.31257,0.048934,0.094219,0.020733,0.015927,0.023248,0.049122,0.19677
-0.48365,0.22727,-0.07217,-0.019789,-0.023588,-0.030978,-0.077544,-0.21063
0.42899,0.098938,0.039441,-0.0049854,0.015839,0.0013195,-0.035706,-0.084192
-0.3493,-0.055065,0.076877,0.026221,-0.0064381,0.026329,0.1361,0.28031
0.031518,-0.29086,-0.070578,-0.012118,-0.0045804,-0.018586,-0.093322,-0.079973
0.023236,-0.12601,-0.014077,0.012653,0.013433,0.022625,0.064668,-0.1698
-0.023414,-0.038761,0.010191,-0.0012971,0.0083188,0.0090931,-0.015791,0.45708
-0.1009,0.134,-0.022666,0.0082148,-0.0045429,-0.01255,0.015657,0.0036987
0.1425,-0.060894,-0.090011,-0.029415,-0.041022,-0.042502,-0.068973,-0.46725
0.10552,0.11937,0.026896,-0.01283,0.031475,0.0285,-0.083679,0.061625
-0.11008,0.1757,0.11002,0.034453,0.017461,0.020756,0.28261,0.04004
0.073612,-0.40684,-0.191,-0.059403,-0.044123,-0.050024,-0.27604,-0.086953
-0.086248,0.36398,0.15646,0.049477,0.034152,0.027241,0.098813,0.15226
0.04202,-0.059488,0.028537,-0.005938,-0.021176,-0.0051029,-0.030875,-0.1432
-0.058623,-0.21786,-0.081894,0.0010452,0.0086658,0.0093215,0.36606,0.18192
0.040059,0.10562,0.043953,0.023622,0.029998,0.0080789,-0.45213,-0.25601
0.032194,0.49497,0.22584,0.038362,0.011697,0.030229,0.046728,0.15047
0.11246,-0.25421,-0.26377,-0.064141,-0.046044,-0.025835,0.051486,0.092609
-0.1096,-0.39981,-0.0040647,-0.026095,-0.017969,-0.019529,-0.076891,-0.045744
-0.16422,-0.12795,-0.019358,0.011907,0.002481,0.0022842,0.15537,0.26495
-0.010463,0.032906,-0.04446,-0.0047221,-5.1883e-06,-0.014987,-0.039497,-0.15891
0.11973,0.3599,0.1395,0.041369,0.037337,0.022593,0.065898,0.10723
0.033654,0.044387,0.001919,-0.0058887,-0.0025237,-0.017551,-0.012623,-0.090143
0.030531,-0.051061,-0.065555,-0.029157,-0.010209,-0.010189,-0.087965,-0.42682
-0.020835,-0.10434,-0.0070561,0.010693,0.014129,0.021392,-0.043838,0.032771
-0.072961,0.18141,0.030056,0.012051,0.0077094,0.03033,0.095129,0.42179
0.061132,-0.047247,-0.039406,-0.0096306,-0.037625,-0.022589,-0.008268,-0.36684
0.10645,-0.1297,0.089487,0.031312,0.026234,0.0264,0.043282,-0.071826
-0.14242,-0.1173,-0.005492,-0.0060735,-0.0040831,-0.01059,-0.094783,0.20896
0.054052,0.16479,-0.090895,-0.036169,-0.034937,-0.040198,-0.00096911,0.58005
-0.1113,0.094901,-0.035285,-0.012343,0.0040247,-0.0080358,-0.011128,-0.45692
0.10183,-0.21327,0.1363,0.034042,0.019216,0.031066,0.17212,0.10597
0.16907,0.39457,0.062927,0.0014611,0.018691,0.0068467,-0.23164,-0.021499
-0.21405,-0.23791,-0.05345,-0.016144,-0.0051097,-0.010144,0.10665,-0.26308
-0.13216,-0.33542,-0.104,0.0049759,-0.0051009,-0.0039017,-0.022996,0.035495
0.065372,0.097803,-0.018126,-0.0051132,-0.0045919,-0.013039,0.01295,-0.025812
0.029538,0.27754,0.033424,0.024287,0.019883,0.041002,0.097715,-0.15111
0.067426,0.013841,-0.072528,-0.039307,-0.041118,-0.052384,-0.096779,0.40923
0.00099789,-0.070991,0.056836,0.023074,0.015383,0.019464,0.022936,-0.016658
0.072925,-0.082258,0.095526,0.016188,0.0094964,0.029926,0.011026,0.0088917
-0.13953,-0.1347,-0.11106,-0.028798,-0.012131,-0.029083,-0.055014,-0.060869
0.12718,0.17841,0.055111,0.020703,0.028401,0.029486,-0.019549,-0.37437
0.096718,0.2227,0.14855,0.023741,-0.0019134,0.017583,0.093487,0.41987
0.07851,-0.34107,-0.16778,-0.051299,-0.040707,-0.057521,-0.075613,-0.092261
-0.3207,0.56075,0.049578,0.013987,0.021346,0.030311,0.098003,0.1909
-0.21969,-0.34236,0.009376,0.0083916,0.004597,-0.031649,-0.14347,-0.30836
0.2172,-0.28925,-0.040524,0.0020674,0.0029263,0.014425,0.098505,-0.065832
-0.032415,-0.10367,-0.078382,-0.036275,-0.014718,-0.034353,-0.12121,0.20874
0.18978,0.15773,0.097939,0.041868,0.0065897,0.041178,0.12724,-0.092526
0.066069,0.10389,-0.074243,-0.013365,-0.0032222,0.022747,0.2112,0.25853
-0.10409,0.30596,-0.0084249,0.0013232,0.0029313,-0.026687,-0.33789,-0.27569
-0.15448,-0.023356,0.13245,0.015783,0.009575,0.010407,0.081751,-0.06915
0.04137,-0.51459,-0.079909,-0.016731,0.0089714,0.0014004,-0.013962,0.042519
0.24973,0.27221,-0.011291,-0.0023928,-0.014505,-0.014637,0.031585,0.035274
-0.0060566,-0.027793,0.011336,-0.00367,-0.0062294,0.0012126,-0.11718,0.14185
-0.22661,0.032781,0.074675,0.026309,0.010255,0.025261,0.15719,0.11747
-0.11603,-0.036625,-0.016255,0.0015903,-0.0042407,-0.005285,0.04229,-0.26768
0.13712,0.16359,-0.081822,-0.046583,-0.034224,-0.051633,-0.094895,0.30324
-0.030669,-0.17837,-0.0051476,0.0068106,0.02174,0.018832,0.034255,-0.46978
0.21565,0.055059,0.096177,0.036828,0.038532,0.041958,-0.039647,0.29383
-0.13246,0.012454,-0.06725,-0.018939,-0.015199,-0.029099,0.026446,-0.055389
-0.03646,0.15478,0.059096,0.019317,0.0010988,0.024556,-0.010277,-0.35294
-0.043551,-0.35392,-0.071594,-0.012339,-0.0063485,-0.0077834,0.052903,0.44979
0.15872,0.009652,-0.029378,-0.012229,-0.014063,-0.032088,0.00495,0.097825
-0.085664,0.08105,-0.032677,-0.027145,-0.021938,-0.024645,-0.18515,-0.29593
-0.072995,0.1173,0.098436,0.0445,0.032686,0.053816,0.069045,0.17855
0.16633,0.070166,-0.034508,-0.016101,-0.014076,-0.015369,0.018209,-0.084459
-0.061948,-0.11695,0.060248,0.025278,0.017605,0.04116,0.16299,0.066593
-0.17081,0.2802,0.030282,-0.0034748,-0.0050188,-0.034661,-0.11331,-0.10046
-0.026562,-0.22515,-0.070902,-0.03234,-0.011684,-0.0088472,-0.044871,-0.25649
0.027497,-0.11935,0.091325,0.032125,0.020881,0.024387,0.024462,0.27768
0.30367,-0.10677,-0.12481,-0.013478,0.0064821,-0.0057181,0.078716,-0.12504
-0.01925,0.1718,0.061224,-0.0052701,-0.0083034,-0.013564,0.00022687,0.33639
-0.013091,0.068781,-0.077235,-0.013632,-0.0081217,0.00069684,-0.11771,-0.038107
-0.17967,0.093792,-0.016166,0.016186,-0.00096178,-0.0019191,0.021473,-0.089632
-0.11445,-0.50864,0.011235,-0.0015744,-0.010293,-0.0054801,0.0036696,0.34123
0.25943,0.37334,0.061204,0.0036648,-0.0047313,-0.0094972,0.024407,-0.54549
-0.15223,0.12476,0.041621,0.0087757,0.016,0.025678,0.013803,-0.078718
0.0025148,-0.073087,-0.061728,-0.0015583,-0.0024119,0.0068728,-0.0041673,0.19655
-0.0095391,0.077528,0.033367,-0.01926,-0.012701,-0.026393,-0.0055607,-0.27788
0.0085469,-0.23579,-0.032084,-0.012892,-0.0067187,-0.01918,-0.075974,0.0039306
-0.019636,0.16612,0.10891,0.033259,0.039181,0.044132,0.097168,0.36088
0.10263,-0.17081,-0.05213,0.0019821,0.015675,0.022656,0.021445,0.056321
0.032368,0.064728,-0.086491,0.002529,-0.014847,0.0018609,-0.053661,-0.0076622
0.02739,-0.15201,-0.057744,-0.027802,-0.036989,-0.042269,0.0039603,0.19347
-0.10056,0.20887,0.056547,0.004497,0.0036398,-0.0087355,0.037326,-0.38082
0.030012,0.099171,0.091525,0.028877,0.012999,0.023901,0.17867,0.1096
-0.074644,0.03332,0.077924,-0.0017257,0.014292,-0.014891,-0.39259,-0.17616
-0.033221,-0.21616,-0.17977,-0.040546,-0.03169,-0.023514,0.050238,0.037857
0.10624,0.13939,0.076365,0.021774,0.015634,0.021732,0.15613,-0.12032
-0.016252,0.045524,-0.051719,-0.010005,0.0078714,0.011893,-0.0038125,0.69736
-0.041353,-0.27021,-0.040003,-0.010752,-0.00018534,-0.013491,0.0088255,-0.35456
0.00028973,-0.048389,0.04967,0.027495,-0.00058862,0.016317,-0.047357,-0.3618
0.14887,-0.0371,-0.00085333,0.0033067,-0.016648,-0.0077741,0.062524,0.1621
-0.062839,0.28108,0.082286,0.0027003,0.0064166,0.0080733,-0.075471,-0.052842
-0.19559,0.11834,0.0023931,0.010075,0.0061419,0.0090585,0.10867,0.075606
0.16642,0.02973,-0.037453,-0.021464,0.0059418,-0.012908,-0.18258,-0.058109
-0.053448,-0.26653,-0.060879,-0.021646,-0.0020699,-0.0035053,0.065443,-0.052881
-0.057324,0.040833,0.056897,0.017312,0.0054466,0.0056469,0.070433,0.29528
0.030093,0.14561,-0.043631,0.0094673,0.0049694,0.0064521,0.089185,0.047708
0.052061,-0.12535,0.012557,-0.021717,-0.01916,-0.024665,-0.10565,0.13901
0.22611,-0.0070477,-0.00094095,0.017555,0.003418,0.0060796,0.048042,-0.0050272
-0.18388,0.15709,-0.013583,0.010143,-0.0052903,-0.018315,-0.19962,-0.56017
0.078021,-0.44418,0.0060479,-0.012677,-0.013837,0.0039982,0.05824,0.095689
-0.1695,0.28482,-0.028023,-0.0040373,0.0014338,0.026445,0.080476,0.00041561
-0.0055958,-0.07576,-0.014578,-0.0030456,0.017264,-0.0054248,-0.10823,0.021902
-0.032104,0.11626,0.15507,0.013656,0.0024899,0.017884,0.34489,0.037446
-0.076731,-0.1231,-0.035659,0.014722,0.02738,0.0026041,-0.28578,-0.0044408
0.025404,0.1816,0.11534,5.8696e-05,0.0058271,0.018917,0.00029716,0.047928
0.22825,-0.050536,-0.23652,-0.046026,-0.038994,-0.042736,0.03916,0.16586
0.024438,0.20773,-0.0056765,0.0092522,0.0019974,-0.026275,0.04924,0.053893
-0.031447,-0.2826,0.011228,0.0096555,-0.012079,0.0056987,0.0064986,0.2123
0.17713,0.28674,0.049478,0.0099107,-0.0032654,0.0062956,-0.10543,-0.21103
-0.4445,-0.1731,-0.045753,-0.021186,0.0049472,0.006828,0.095568,-0.42783
0.21226,-0.27228,0.055324,0.041399,0.028242,0.023019,-0.062933,0.01449
-0.0012963,0.0065008,-0.09886,-0.0054453,-0.011362,0.00026952,0.03597,-0.016831
-0.13932,0.034435,0.18032,0.002346,0.0035153,0.0089427,-0.076488,0.056902
-0.020747,0.23905,0.02614,-0.02897,0.0027672,0.002165,0.099909,0.26774
0.294,-0.2562,-0.11637,-0.0056144,-0.013417,-0.027909,0.01863,0.26471
-0.14582,0.26531,-0.045021,-0.013463,-0.013641,-0.018826,-0.12467,-0.092703
-0.064493,-0.12201,0.10598,0.033501,0.01781,-0.0018764,0.021782,-0.24255
-0.077549,0.13832,-0.032114,-0.020901,-0.004983,0.0072779,0.012653,-0.092143
0.034419,0.022144,-0.046651,0.026487,0.019481,0.039843,0.01951,-0.025689
0.2552,0.010908,0.069136,0.027191,0.0051319,0.017621,0.40898,0.017824
-0.096743,-0.142,-0.16183,-0.065773,-0.056039,-0.090753,-0.60089,0.060352
0.053846,0.17564,0.18235,0.044302,0.038862,0.0505,0.098592,-0.0011226
0.00822,-0.21253,-0.16346,-0.025593,0.00053355,0.019326,0.17879,0.14445
-0.28389,-0.21605,0.067128,-0.0022044,-0.0071743,-0.0047531,-0.055803,-0.24655
0.018494,0.046262,0.023364,0.012776,0.023404,0.0094121,-0.019074,0.41832
0.26531,0.25414,0.073131,0.011492,-0.0015289,-0.031921,-0.046469,-0.26814
-0.17649,-0.051986,-0.017491,-0.0059933,-0.011586,0.012023,0.15961,0.15473
0.10831,0.15344,0.056392,-0.0082577,-0.029998,-0.038152,-0.24376,-0.1718
0.012712,-0.19757,-0.15831,-0.018471,-0.009569,0.0054567,0.11913,-0.097532
-0.27264,0.12356,0.064968,0.018379,0.026649,0.026104,-0.016825,-0.13539
0.10717,0.094823,-0.04716,0.0010646,0.01654,0.024186,0.17672,0.26479
0.061372,-0.33774,-0.049209,-0.015446,-0.0083334,-0.015651,-0.081606,-0.26874
0.06078,0.075952,0.035624,0.0080775,0.0068953,0.0082464,-0.096834,0.22744
0.082735,0.28859,0.098167,0.024778,-0.00025542,-0.013604,0.060258,0.39511
0.056333,-0.19275,-0.03342,0.0032573,0.016952,0.01227,-0.024828,-0.39902
-0.090508,-0.18916,-0.054687,-0.041156,-0.043303,-0.023903,-0.032084,0.10862
-0.16499,0.158,0.09634,0.031774,0.013969,0.010245,-0.071031,-0.18666
0.11924,0.36395,0.0361,0.010695,0.0087495,0.0049167,0.069233,0.3288
-0.22455,-0.3761,-0.15028,-0.042252,-0.035815,-0.048038,-0.033175,-0.41837
0.17704,0.0084736,0.099026,0.03676,0.051935,0.077728,0.074811,0.20275
0.17496,-0.12236,-0.060081,-0.017965,-0.01719,-0.0084742,0.45557,0.2623
-0.074122,0.13057,0.028759,-0.018824,-0.0010422,-0.03312,-0.58635,-0.27715
-0.28765,-0.099357,-0.06355,-0.0046336,-0.0089578,0.0040173,0.01157,-0.48269
0.21599,0.10988,-8.6084e-05,0.01712,-0.0017791,-0.013913,0.038637,0.36857
0.0014878,0.34376,0.071895,0.015516,0.0049987,0.015046,0.089136,0.21828
-0.061894,-0.53165,-0.1121,-0.0091811,-0.0041091,-0.025907,-0.10182,-0.1726
0.066493,0.27894,0.11284,0.029108,0.025716,0.051045,0.044675,0.1269
