-0.006956,-0.010478,0.0025805,-0.0005416,-0.014281,-0.0029051,-0.0056302,0.013041
0.001892,0.0024168,-0.075141,-0.0072276,-0.0053689,0.0054403,0.0019903,-0.010734
0.010451,0.0078407,-0.053194,0.00134,-0.004476,0.013014,0.0016574,-0.0028156
-0.0048596,-0.0029966,0.02747,-0.0061821,0.0039111,-0.0035349,0.0012321,0.0054664
0.0027507,0.015897,-0.029271,0.017102,0.0041095,-0.020603,0.00076964,0.0061542
0.0020338,0.0092157,0.065934,-0.0068096,0.011749,0.0089117,0.00032319,0.0068786
-0.022538,-0.06233,-0.045136,-0.0074132,-0.0043531,0.0071397,-6.3271e-05,-0.0081655
-0.0082831,-0.011029,0.029767,0.0076987,-0.012823,-0.010038,-0.0081736,-0.01568
0.013783,0.015296,0.0032154,0.0074798,0.0021276,0.0044783,-0.00056263,-0.00011291
0.012649,0.025343,0.12643,-0.0079212,0.0016201,0.0039759,-0.00068521,-0.00051825
0.01194,0.012277,-0.20161,0.0084363,0.0092659,0.0041614,0.014852,0.014429
-0.027313,-0.077733,-0.043668,-0.029418,-0.021678,-0.010602,-0.0008945,-0.0098425
0.012054,0.091816,0.32593,0.01901,0.010413,0.0064579,-0.0089425,-0.0028985
0.0048997,0.013269,0.046539,0.036316,0.011753,0.0004685,0.006256,0.01973
-0.0021241,-0.0089449,-0.039299,-0.040273,-0.0099816,-0.021001,-0.0022257,-0.0044126
0.0063468,-0.014487,-0.45577,-0.01574,0.015292,0.019902,-0.0031441,0.0027914
-0.0089852,-0.019759,-0.085709,0.00026666,-0.022091,0.0057183,-0.0042607,-0.013392
-0.0013988,0.013542,0.31385,0.030983,0.018189,0.0065344,0.0023469,0.0016637
0.01345,0.014547,0.1505,0.04507,0.010873,-0.0090478,0.016835,0.016666
-0.026832,-0.056034,-0.18361,-0.027723,-0.012951,-0.002002,-0.023117,-0.03089
-0.020462,-0.018372,0.094081,-0.054349,-0.022061,-0.011298,-0.0079688,0.0074813
0.009412,-0.012638,0.054636,-0.010971,-0.008518,-0.0054707,0.015521,0.006871
0.039641,0.086808,0.041842,0.016997,0.012307,0.007978,0.0083239,0.0064616
0.0079468,0.014986,-0.14806,0.030116,0.017319,-0.0018517,-0.0061897,-0.0014403
-0.0074421,-0.032306,-0.016168,-0.010185,-0.00093495,0.0044294,0.0030634,-0.0089319
-0.0065515,-0.015795,-0.055997,0.013599,0.0047355,0.011436,0.0045921,0.015275
-0.012959,0.025344,0.10618,-0.015661,-0.0045167,-0.0041598,-0.0018726,-0.014784
-0.011253,-0.034292,-0.054097,0.0033595,-0.0051685,0.0044745,0.0068696,0.0023599
0.013954,0.046889,-0.029694,-0.015787,-0.012895,-0.0097124,-0.024016,0.0040606
0.0077593,-0.0052024,0.20257,0.066816,0.019008,-0.000115,0.0070218,0.013575
0.0012462,0.027618,0.017831,0.016003,0.012162,-0.0060962,-0.0014398,-0.016156
-0.044747,-0.15187,-0.42714,-0.14552,-0.033727,0.034581,0.013377,-0.014975
0.018186,0.05001,0.36849,0.03483,-0.0017567,0.0045604,-0.026285,0.0092056
0.049445,0.10226,0.08543,0.056806,0.021911,-0.05713,0.0049576,0.017307
0.049107,0.028818,-0.47836,0.076748,0.052774,0.029294,0.052731,0.048464
-0.11553,-0.14625,0.24842,-0.11585,-0.073229,-0.09535,-0.085922,-0.084662
-0.0068129,0.030826,0.11803,-0.0046748,-0.0043999,0.053525,0.018643,0.00096766
0.00039852,-0.033158,0.052671,-0.018536,-0.0061138,0.062012,0.022411,-0.022526
0.046867,0.060534,-0.11962,-0.00029417,0.0078912,0.07858,0.096795,0.063813
0.023306,0.10097,0.22571,0.12113,0.037948,-0.045312,-0.071286,-0.01335
0.023488,-0.013684,-0.42758,-0.028747,0.0062071,-0.10674,0.0019661,0.027179
-0.030754,-0.033914,0.037014,-0.027872,-0.016862,0.026878,-0.035464,-0.010139
-0.077002,-0.13995,0.22831,-0.071725,-0.054683,-0.011798,-0.035366,-0.047553
0.040903,0.08962,-0.018153,0.050156,0.048855,0.066248,-0.0055203,0.016041
0.0182,-0.025175,-0.077613,0.079263,0.043493,-0.043589,0.030898,0.016133
0.011097,0.0077838,0.049833,-0.063332,-0.032041,0.0026163,0.019602,0.022694
-0.019483,0.0089136,0.08294,-0.081552,-0.037469,-0.029308,0.054771,-0.0034767
0.028023,0.0096515,-0.15789,0.047349,0.0034678,0.063919,0.058643,0.023688
-0.049511,0.025792,0.0072023,0.049426,0.020249,-0.0067214,-0.16385,-0.09852
0.021338,0.0027253,0.062804,-0.01309,-0.0028423,-0.0069538,0.02022,-0.002256
-0.0016568,-0.043966,-0.029899,0.031672,0.020162,-0.02296,-0.014131,-0.0070361
0.022069,0.049646,0.049635,-0.058199,-0.027795,-0.0082083,0.053355,0.067601
0.0065023,0.017781,-0.15155,0.03815,0.0097363,0.044741,0.019473,0.042554
-0.017177,-0.045906,0.24164,0.016793,0.0079888,-0.028484,0.04041,-0.042855
-0.0021321,-0.047633,-0.013008,-0.14482,-0.025002,0.0063338,-0.08696,0.022188
-0.018663,0.0049703,-0.17341,0.062023,-0.0031188,0.00083029,0.020274,-0.028424
0.0036181,0.018451,0.1665,0.013049,0.026877,0.010043,-0.012659,-0.00010389
-0.0054737,-0.022489,-0.51698,0.05244,0.010335,0.011164,0.017711,0.012586
0.024531,0.054271,0.44768,0.0083479,0.0019244,-0.057453,-0.028828,-0.022322
0.015661,0.045693,0.13034,0.091331,0.017221,0.01609,0.012169,0.027517
-0.024147,-0.063954,-0.24299,-0.10556,-0.045372,0.029574,0.00032408,-0.0020869
0.014559,0.10007,0.43661,-0.0050533,-0.013971,-0.1726,0.04501,-0.0484
0.01462,-0.025028,-0.15924,-0.05328,0.0021069,0.19884,-0.057219,0.021913
-0.047421,-0.14262,-0.64749,-0.094625,-0.020493,0.0029159,-0.049208,-0.048289
-0.031,-0.049627,0.19922,0.065846,0.004219,-0.0034812,0.14624,-0.016197
0.032528,0.097827,0.6166,0.09989,0.0684,0.053263,0.10617,0.11076
0.057079,0.11253,-0.12031,0.17166,0.039091,-0.078451,-0.23294,0.051356
0.02684,0.0026236,-0.61946,-0.054561,0.017602,0.021757,-0.0046727,-0.054196
-0.10527,-0.21604,0.073041,-0.30502,-0.14481,-0.13938,-0.014048,-0.050383
0.027726,0.065953,0.16774,0.037778,0.020343,0.062706,0.067239,0.093149
-0.011808,0.020236,0.13158,-0.049327,-0.033999,0.018966,0.068018,-0.12443
0.049509,0.14633,0.37542,0.21502,0.067131,0.042926,-0.10434,0.038519
0.00081276,0.021738,-0.19857,0.057289,0.058214,-0.0044872,0.10625,-0.019663
-0.032689,-0.072866,0.43677,0.047459,-0.0058414,-0.066769,-0.11126,0.013913
0.043091,0.0028284,-0.47152,0.06792,-0.023172,0.20161,0.14288,0.038505
-0.02923,-0.079174,-0.86173,-0.29574,-0.063752,-0.21351,-0.2163,-0.022914
-0.10076,-0.18543,0.4477,-0.14515,-0.017874,-0.014393,0.077299,-0.044191
-0.0070714,-0.025866,0.13315,0.059053,0.013163,-0.0056207,0.10943,0.0068962
0.16612,0.26005,0.19306,0.13004,0.060741,0.054226,-0.13644,0.037184
-0.018751,0.11858,-0.28774,0.099922,0.0076201,0.054166,0.11941,0.031108
0.016144,0.050196,0.70428,0.20396,0.025422,0.10913,-0.054759,0.011618
-0.065655,-0.24211,-0.93667,-0.30712,-0.065961,0.013434,0.026313,-0.022228
0.079012,0.10818,0.72765,0.028108,0.053284,-0.086875,0.063693,0.014312
-0.097244,-0.040575,0.22642,0.02239,-0.039185,-0.13104,0.16529,-0.036192
-0.055673,-0.11916,-0.38214,-0.050845,-0.0077545,-0.018194,-0.41941,0.083178
-0.015082,-0.019104,-0.19719,-0.11373,-0.03222,-0.029086,0.028965,-0.22172
0.040319,0.032428,-0.15373,-0.034035,-0.026516,0.0019829,0.035628,0.13524
0.12645,0.28523,0.6347,0.37484,0.10343,0.1712,0.10319,-0.017047
0.02485,-0.11991,-0.99833,-0.10708,-0.0013119,-0.026494,0.015916,0.010044
-0.12364,-0.12005,0.39991,-0.012493,-0.051208,-0.010373,0.12818,0.053714
0.040434,-0.019243,0.26815,0.047868,0.040108,0.049697,-0.19852,-0.056821
0.03267,0.05824,0.05396,-0.12229,0.015152,0.0299,0.0055289,0.0072305
-0.1236,-0.058841,0.072383,0.015805,-0.039929,-0.132,0.036836,-0.043142
-0.014452,-0.010712,-0.064894,-0.17791,-0.062556,-0.17877,-0.15316,0.049252
0.10996,0.10109,-0.03581,0.04793,0.033155,0.24767,0.44058,0.048805
-0.0083593,-0.020742,-0.19861,0.054596,0.04389,0.18465,-0.20092,-0.022677
-0.018005,0.0605,0.0098033,0.039407,-0.015043,-0.31512,-0.041921,-0.018474
0.14337,0.070351,-0.027522,0.066518,0.043439,0.10577,0.16497,0.30999
-0.11804,0.0078465,0.49406,0.18375,-0.0155,-0.085622,-0.37843,-0.42088
-0.044331,-0.2917,-0.69918,-0.20258,-0.0204,0.031325,0.070393,-0.062568
-0.096165,-0.062737,0.6266,-0.054153,-0.018412,0.034035,-0.06469,-0.04377
0.10192,0.18746,-0.55297,0.06523,0.021663,0.17242,0.23522,0.22313
0.011424,0.014608,-0.020501,-0.11941,-0.0093497,-0.16236,-0.065015,0.052635
-0.023376,0.0059057,0.80027,0.15608,0.0061681,-0.016135,0.0071665,-0.061204
0.13853,0.014117,-0.74918,-0.14847,-0.087474,0.042281,0.095309,0.047011
-0.11209,0.040133,0.18018,-0.049369,0.014954,-0.1573,-0.13506,-0.02059
0.052779,0.014086,0.3516,0.18752,0.079442,-0.089822,0.018861,0.087329
-0.078088,-0.048393,-0.44761,0.038892,0.051356,0.27724,-0.05437,-0.13791
0.018339,0.118,0.40686,-0.033991,0.039751,0.069569,0.032344,-0.041272
-0.041155,-0.37783,-0.25609,-0.14009,-0.073217,-0.048832,0.25901,-0.022425
0.047805,0.17457,-0.098127,0.010022,-0.069674,0.10885,0.16029,0.15988
0.081916,0.11855,-0.092021,-0.052179,-0.10679,-0.27881,-0.40026,0.11456
-0.10291,-0.054013,-0.22528,0.11086,0.11151,-0.0020615,-0.23718,-0.37698
0.048123,0.16445,0.89746,0.28028,0.17064,0.17249,0.071329,0.021866
-0.074156,-0.31229,-1.0324,-0.32532,-0.031105,-0.1463,0.14444,0.26529
0.03048,0.085752,0.63597,0.10654,-0.14186,-0.020983,0.016989,-0.036155
0.041892,0.084646,0.44184,-0.087896,-0.043704,0.001923,0.068444,-0.061149
0.0069924,0.050982,-0.42121,0.13903,0.061361,0.094814,0.014193,-0.0044289
-0.08219,-0.12531,-0.33144,-0.29734,-0.075313,0.1019,-0.095309,-0.10042
0.023967,0.03166,0.85558,0.034344,0.094533,-0.078137,-0.054859,0.056376
0.10615,0.17759,-0.97343,0.31547,0.17365,-0.054764,0.018624,-0.035454
-0.00037503,-0.16432,-0.25902,-0.31974,-0.22782,0.14826,0.57679,0.58314
-0.11657,-0.032899,0.7,0.22315,0.046648,-0.12573,-0.59412,-0.62113
-0.024183,-0.04461,-0.019033,0.029827,-0.034514,-0.11145,0.010252,-0.1423
0.12035,0.059601,-0.064628,-0.16662,-0.034633,0.089443,0.23811,0.3387
-0.057812,0.04696,-0.18658,0.17856,0.17008,0.078723,-0.12398,0.087106
-0.011221,-0.018294,0.14646,-0.015396,-0.015534,-0.080632,-0.14757,-0.11526
0.0032019,0.037313,0.35617,-0.024528,-0.006911,-0.044244,-0.1293,-0.28255
-0.005626,-0.11315,-0.23746,-0.11655,-0.13328,-0.0068185,0.19003,0.18102
0.018128,0.062125,-0.017329,0.0746,0.034419,0.039871,-0.085931,-0.058253
0.012962,0.04732,0.087488,-0.076069,-0.035165,0.31468,0.42775,0.18121
-0.051707,-0.049182,-0.069714,-0.15337,0.0099643,-0.30762,-0.31424,-0.10723
-0.01161,-0.06501,-0.61099,0.16493,0.045607,-0.02283,0.12621,0.16252
0.070433,0.20859,0.10813,-0.001765,0.018034,0.027807,-0.079419,-0.049411
0.076422,0.01924,0.41206,0.27044,0.084384,0.085901,0.083249,0.04449
-0.080756,-0.26809,-0.016135,-0.39989,-0.16093,-0.14585,-0.15311,-0.11225
0.0038189,0.1886,0.53637,0.3471,0.11837,0.019851,-0.024563,0.041364
-0.10858,-0.38515,-0.73529,-0.16864,-0.038622,0.028292,-0.094879,-0.34701
0.13583,0.38548,0.44791,0.10661,0.00073309,0.14523,0.67445,0.47282
-0.036774,0.032385,-0.19129,0.054475,0.0095785,-0.066654,-0.79441,-0.27141
-0.016814,-0.052469,0.35031,-0.34951,-0.051433,-0.091522,0.19486,0.047146
-0.04574,-0.10158,-0.64267,0.058176,0.0128,0.094246,-0.0046542,-0.08508
0.002586,0.020061,-0.17374,0.074403,-0.04785,-0.087316,0.046189,0.14615
0.059166,0.025755,0.02059,0.059002,0.0087064,0.0045527,0.10657,0.038646
-0.015392,-0.035323,0.45533,-0.33116,-0.059857,-0.028479,0.013216,-0.056154
0.068886,0.26859,0.54523,0.56844,0.32434,0.18866,0.1959,0.22771
-0.11727,-0.31865,-0.71583,-0.078075,-0.12032,-0.13307,-0.29122,-0.12743
0.051,-0.030335,0.40896,-0.08358,-0.11295,0.01414,0.0040996,-0.17085
0.010525,-0.053594,-0.46029,-0.019071,0.041484,-0.080664,-0.14558,-0.0062724
0.057131,0.1736,0.10155,-0.096168,-0.055472,0.13721,0.33731,0.19298
0.064595,0.30614,-0.12883,0.044141,0.010591,-0.035295,-0.2504,-0.25313
-0.23386,-0.31435,-0.10944,-0.20735,-0.056521,-0.074634,-0.017561,0.10148
0.028084,-0.073442,0.3884,0.19698,0.033161,0.097501,0.26335,0.00074708
0.08434,0.17433,0.36553,-0.19486,-0.016314,-0.16712,-0.28153,0.1423
-0.002605,-0.089545,-0.3818,0.34487,0.23328,0.24105,0.16914,-0.15901
-0.10739,-0.17217,-0.35574,-0.15168,-0.10052,-0.17008,-0.17312,-0.080967
0.12213,0.049735,0.034088,0.050174,-0.080299,-0.0021164,0.066603,0.15864
0.038214,0.18471,0.40862,0.051557,-0.019097,0.080631,0.13744,-0.0028928
-0.022541,0.0922,0.37308,-0.18769,-0.019328,-0.086337,0.022196,0.081503
-0.0048668,-0.093968,-0.56043,0.026203,-0.0039078,0.16045,0.21102,-0.012329
-0.017631,-0.059433,-0.13636,0.097833,0.096404,-0.17967,-0.54036,-0.013647
0.0021336,0.049968,-0.26934,0.15864,0.085343,0.1271,0.18824,-0.018691
-0.007623,-0.098604,0.74502,-0.049981,-0.14716,0.1038,0.13807,0.10366
-0.17149,-0.27536,-0.43412,-0.41861,-0.10924,-0.18709,-0.14396,-0.33456
0.18271,0.25693,0.11909,0.22548,0.23826,-0.15925,-0.17255,-0.12938
-0.062161,0.031538,0.26061,-0.053743,-0.14317,0.10209,0.046108,0.10392
0.038878,0.11948,-0.44304,-0.13737,0.083315,0.22288,0.52949,0.31311
0.055375,0.051272,0.065756,0.39792,-0.049917,-0.069379,-0.29885,-0.038529
0.08772,0.098322,-0.26641,-0.064253,-0.18235,-0.21934,-0.24245,0.15994
-0.18582,-0.14066,0.9114,0.077582,0.14009,0.093518,0.074041,-0.36445
0.0067696,-0.20775,-0.85644,-0.16187,0.082028,0.095429,0.2752,0.082911
0.078445,-0.0038457,0.80897,0.0050021,0.10446,0.09024,-0.2338,0.23478
0.013034,0.11027,0.13746,-0.017086,-0.097719,-0.048201,0.08471,-0.09842
-0.040829,0.032867,-0.73462,-0.0027261,0.060708,-0.0085625,0.51849,0.003251
-0.13687,-0.25074,-0.38849,-0.053912,-0.10077,-0.065117,-0.7457,-0.24278
0.085893,0.13603,-0.052167,-0.076472,-0.10623,-0.022774,0.10479,0.022482
0.012233,0.022937,0.54803,0.12609,-0.04194,-0.131,-0.10859,-0.075309
0.034739,0.036084,0.11673,-0.077402,0.014013,-0.068302,0.053614,0.20749
0.061244,0.37094,0.26543,0.18198,0.27287,0.29973,0.17964,0.16965
-0.063619,-0.27022,-0.34749,-0.039665,-0.093083,0.021559,0.083995,-0.085384
-0.050788,-0.0062412,-0.063964,-0.14775,-0.067913,-0.10478,-0.091509,-0.13425
0.051958,0.020318,0.46115,0.30316,0.13758,-0.0006781,-0.07348,-0.0073329
-0.030483,-0.28595,-0.72406,-0.22655,-0.16419,0.021012,0.29301,0.045548
0.082568,0.042785,0.29568,-0.066095,0.049936,0.10764,0.068111,0.19582
0.060775,0.20196,-0.0094852,0.12689,-0.048546,-0.10959,-0.41515,-0.19022
-0.066465,-0.11202,-0.052077,-0.10222,-0.038219,-0.12466,-0.12058,-0.1059
-0.034635,0.063629,0.05992,0.01076,0.033557,0.076405,0.15261,0.064788
-0.13291,0.035771,-0.41483,-0.082327,0.080357,-0.007624,-0.011097,-0.069817
-0.016623,-0.060679,0.83604,0.078363,-0.0076401,-0.017974,0.13003,0.13788
0.066001,-0.020922,-0.61854,0.18732,0.089555,0.29547,0.17807,0.15608
0.031254,0.19513,0.37497,-0.0059181,-0.026557,-0.24617,-0.20162,-0.17173
0.12353,-0.0059208,0.062924,0.08466,-0.058767,-0.00083175,0.086672,0.052953
-0.06169,-0.25716,-0.003985,-0.32143,-0.18593,-0.14634,-0.23597,-0.13036
0.062458,0.13603,-0.50894,0.16798,0.17137,0.084938,0.051724,0.0056417
-0.1134,-0.10071,0.25682,-0.44485,-0.14152,0.093272,0.014678,-0.038084
0.042718,0.016002,0.33212,0.34274,0.087913,-0.01066,-0.048233,0.036326
-0.0097163,0.039844,-0.64054,0.064512,-0.068823,-0.054475,0.33307,0.15937
-0.0068233,0.0089044,0.19426,-0.29333,0.16218,0.13329,0.0028133,0.042413
-0.0050008,0.062872,-0.025542,0.5667,0.19455,0.035769,-0.34406,-0.18954
-0.044703,0.052451,0.36179,-0.23122,-0.16832,-0.11453,0.010109,-0.029121
0.0059985,-0.09336,0.040769,0.1467,-0.045533,-0.014985,0.30593,0.24171
0.092117,0.11723,-0.54004,-0.15411,-0.22046,-0.073761,-0.29432,-0.12003
-0.090772,-0.22203,0.042251,-0.18367,0.14874,0.067131,-0.011103,-0.10722
0.051807,-0.032521,0.37219,0.086703,0.076369,-0.077353,0.23222,-0.0015404
0.044324,0.038211,0.53992,0.022839,-0.03968,0.055388,-0.18261,-0.029667
-0.10424,0.092899,-0.56125,0.0233,-0.0037938,0.19268,0.23594,0.12888
0.029123,0.14057,-0.23385,-0.082215,0.060044,-0.17986,-0.059172,0.05254
0.031285,-0.12239,-0.061183,-0.0020035,-0.06541,-0.0061407,-0.30994,-0.070847
0.020053,3.9954e-05,0.10925,-0.045479,-0.15191,-0.10511,0.015364,-0.053559
-0.074673,-0.04648,0.39281,-0.0067026,0.044257,0.086768,0.12823,0.018516
0.028145,0.011424,-0.60876,0.15529,0.16479,0.11689,0.060369,0.012436
0.031019,-0.037586,0.14545,0.15983,0.11638,-0.022614,0.42916,0.17014
-0.0279,0.048028,0.095777,0.084245,0.00035486,0.081747,-0.44515,-0.23523
0.05345,0.056526,0.17497,-0.17491,-0.184,-0.19596,-0.10964,0.077416
-0.015014,0.018311,0.11221,-0.19035,-0.0079511,0.12761,0.12298,-0.016939
0.00030963,-0.028343,-0.12988,0.13724,-0.019252,-0.12026,-0.11445,-0.010236
-0.049366,-0.17001,-0.23029,-0.25625,-0.046595,-0.018205,0.15491,0.051117
-0.0076028,0.038192,0.11552,-0.082397,0.066096,0.043113,-0.029282,-0.074456
0.071641,0.18199,0.43047,0.47932,-0.0091486,0.032772,-0.033512,0.1371
-0.06828,-0.11365,-0.40306,-0.1953,0.017039,-0.025229,0.041336,-0.17311
-0.097858,0.02642,-0.37714,-0.089709,0.066782,-0.0052996,-0.023044,0.12789
0.0311,0.078994,0.54819,0.18734,-0.039582,0.0070619,-0.12501,-0.22576
0.18674,-0.033711,-0.53952,0.073437,0.033624,0.19173,0.11789,0.17149
0.002268,-0.10814,0.63526,-0.25223,0.020292,-0.17011,0.19711,0.23261
-0.085126,0.012454,-0.30823,0.16256,-0.0019973,-0.00056619,-0.036708,-0.098384
0.0017708,-0.085472,-0.18095,-0.081649,-0.10396,0.036079,-0.15477,-0.057136
0.019431,0.21573,0.29898,0.069131,0.050259,-0.12277,-0.27481,-0.28517
-0.010191,-0.028946,0.2092,0.091381,-0.0077672,0.11678,0.64228,0.24064
-0.11186,-0.069391,-0.22523,-0.37354,-0.19143,-0.19022,-0.73877,-0.096466
0.096275,0.078643,0.024709,0.12903,0.12514,0.15203,0.56765,0.1108
-0.034641,-0.061714,-0.1138,-0.078542,0.044271,0.11275,-0.35881,-0.12825
0.011125,-0.13931,-0.14312,0.27159,0.21489,-0.0030388,0.10831,0.086439
0.054464,0.1814,0.23959,-0.021867,-0.10514,-0.13279,0.22782,0.10784
-0.083417,-0.021773,-0.26383,-0.13753,-0.12717,-0.050187,-0.23445,-0.086472
0.082898,0.032313,-0.10731,0.27618,0.10126,0.072385,0.080177,0.019541
-0.039328,-0.062471,0.47429,-0.28177,-0.10026,-0.047038,-0.09554,-0.082069
0.0038772,-0.016677,0.19154,0.0069981,0.0021497,0.14543,0.18149,0.037781
0.025594,0.053121,-0.37781,0.03847,0.025524,0.024031,0.041663,0.042268
-0.02079,-0.039824,0.32853,0.075686,0.0091987,-0.13838,-0.0092919,0.039799
-0.0494,-0.0057093,-0.30656,0.0070028,0.016273,0.0016653,0.058634,-0.10329
-0.013725,-0.17214,-0.5482,0.018327,-0.077517,-0.032306,-0.51242,-0.020434
0.085622,0.18757,0.69054,-0.14882,-0.11529,-0.036723,-0.041543,-0.02442
0.083803,0.13547,-0.46417,-0.2363,0.24699,0.1063,0.38759,0.087872
-0.16845,-0.087287,0.1684,0.36653,0.071654,0.01476,0.0043045,-0.050525
0.015588,-0.0056563,0.30757,0.028799,-0.032607,-0.0059305,0.11597,0.16228
0.080654,-0.019811,0.19538,0.057494,-0.035555,-0.025547,-0.17386,8.2942e-05
-0.036056,-0.053239,0.042149,-0.19349,-0.14143,0.042131,0.088921,-0.24777
0.017053,0.0022975,-0.57473,-0.026761,0.00041523,0.009651,0.20889,0.036081
-0.064345,0.052666,0.44609,0.12172,0.053514,-0.076223,-0.40089,0.046995
0.056309,-0.026623,-0.88675,-0.0050136,-0.099343,0.026522,0.10961,0.12077
-0.065533,0.04705,0.6944,-0.39912,0.050095,-0.041644,-0.050349,-0.13354
0.039631,-0.099298,-0.14335,0.36821,0.15884,0.023857,0.086499,0.18204
-0.041677,-0.088362,-0.33401,0.10785,0.071542,0.019827,-0.051253,-0.13613
0.097085,0.10545,0.51618,0.27071,-0.10149,-0.014774,-0.058012,-0.041609
0.041807,0.061807,0.33898,-0.39559,-0.22662,-0.01764,0.073759,0.106
-0.043801,-0.023374,-0.51348,-0.21343,0.087441,0.018707,0.28155,-0.052557
-0.058715,0.036893,0.0046259,0.22216,0.13024,0.03911,-0.34856,-0.040231
0.027757,0.13951,0.47692,0.09063,-0.074573,0.097726,-0.01167,0.0031703
-0.026997,-0.084927,-0.30278,-0.12277,0.043282,-0.016852,0.14406,0.03958
-0.043474,-0.13886,-0.46272,-0.29135,0.045976,-0.21114,0.0017623,-0.07067
0.017469,0.053741,0.025382,0.30572,-0.067059,0.022731,0.11655,0.040284
-0.00012923,-0.21155,0.11993,-0.16563,-0.10905,-0.049228,-0.37825,-0.010182
0.13069,0.28376,0.37337,0.42855,0.098898,0.15958,0.37733,0.11345
-0.066248,-0.11578,-0.25546,-0.067859,0.079508,0.063983,-0.38176,-0.066399
0.0031028,-0.056945,0.082827,-0.030758,-0.019334,-0.054091,0.29025,0.14416
-0.043909,0.10305,0.3002,-0.19611,-0.033845,-0.022332,-0.13774,-0.18612
0.034938,0.13203,0.24655,0.082723,-0.06554,-0.028154,0.099595,0.12109
-0.041679,-0.10875,-0.67256,-0.17226,0.010953,-0.21248,-0.12352,-0.26318
0.015158,-0.094676,-0.096829,0.1632,0.024388,0.34593,0.29326,0.090578
-0.036936,-0.075412,0.27342,-0.2545,-0.13386,-0.096,-0.16709,0.018824
0.051808,0.10468,-0.60412,0.083336,0.2869,0.13263,0.11136,0.061691
0.038946,0.17074,0.41685,0.30302,-0.072207,-0.11748,-0.2159,0.072122
-0.013275,-0.098009,0.26396,-0.11757,-0.10166,-0.21403,-0.0082122,0.035923
0.004317,0.054003,-0.2768,-0.0055522,0.010836,0.17889,0.0088524,-0.03782
-0.041203,-0.062734,0.4692,0.014535,-0.094611,-0.031951,0.055864,-0.17157
-0.056065,-0.035511,-0.01333,-0.17456,0.18283,-0.025245,-0.03671,-0.0053402
0.061446,0.041535,0.10172,0.38765,0.076761,0.059703,0.030391,0.070458
0.0068842,-0.23717,-1.0254,-0.20573,-0.038478,0.013355,0.048141,0.063472
-0.0085613,0.08308,0.42891,-0.22087,-0.23357,0.14945,-0.099659,0.14507
-0.023794,0.12156,0.42093,-0.017543,0.0071184,-0.24987,0.094608,-0.091756
-0.0075808,-0.064961,-0.42013,0.044691,0.17615,-0.020177,0.059239,-0.23384
0.078898,0.16569,0.52078,0.29384,-0.10083,0.025813,-0.036221,0.077317
0.016442,-0.037396,-0.20192,-0.27031,-0.12781,0.020094,0.28201,0.059689
-0.11739,-0.080873,-0.26629,0.04713,0.23639,0.10976,-0.54338,0.0017574
0.10653,0.073018,0.14337,0.34714,0.10923,0.050939,0.14982,0.082854
0.031602,0.14899,-0.13282,0.035367,-0.017129,0.17004,0.12657,0.091926
-0.1,-0.26892,-0.59064,-0.37283,-0.15074,-0.23745,-0.13585,-0.19745
-0.061304,-0.10406,0.78099,-0.16617,-0.088739,-0.25044,0.020712,-0.011431
0.054789,0.095991,0.25692,-0.023244,-0.0031368,-0.0016655,0.005192,-0.021293
-0.0083928,0.11277,-0.085647,0.2843,0.074917,0.18938,0.007907,0.00023528
0.031633,-0.091657,0.023536,-0.1008,-0.10429,-0.043145,-0.062613,0.01474
-0.011566,0.047001,-0.14683,-0.020301,0.068944,0.083429,0.11511,0.077318
0.0033048,0.054214,-0.12536,0.16775,0.18075,0.031165,-0.013872,0.0083291
0.076359,-0.05249,-0.017973,0.065251,-0.042394,0.074042,0.41591,0.23712
-0.027262,-0.029515,0.0087333,-0.039483,-0.093089,0.008839,-0.23116,-0.30726
-0.019484,0.045661,-0.39701,-0.16377,0.0045709,-0.12596,-0.45055,-0.06307
-0.04224,-0.09285,0.15748,0.088575,0.046715,0.036073,0.13751,0.047173
-0.0031531,0.061589,0.18368,-0.10514,-0.10011,-0.23225,0.10117,0.038692
0.034092,0.077339,0.31095,0.010813,0.040271,0.17821,0.22861,-0.002642
0.060899,0.10821,0.18394,0.23964,-0.00094432,0.0098501,-0.31554,-0.021896
