0.08844,0.018051,-0.018951,0.0048368,0.0016284,-0.0043333,0.0061218,0.0068635
-0.15615,0.046491,0.043372,0.012389,0.010195,0.0040392,0.021917,0.007281
0.079342,0.036699,-0.059346,-0.027203,0.0033644,0.012844,0.022328,0.048612
0.031043,0.012367,0.032457,0.0268,-0.0034065,-0.017165,-0.039606,-0.049343
-0.18283,-0.0032286,-0.0090823,-0.012995,-0.010283,-0.00026629,5.05e-05,-0.0060618
0.14872,-0.041844,0.035062,0.0097568,0.0060492,0.0086467,0.0083553,-0.002023
-0.045648,-0.010405,-0.045809,-0.014249,-0.016966,-0.014024,-0.030419,-0.053557
0.13054,0.020148,0.068783,0.016609,0.0066327,-0.0058694,0.0086706,0.018521
0.41694,-0.01305,-0.019497,-0.02262,-0.0011869,0.025285,0.024056,0.049918
-0.54054,-0.031842,-0.013715,0.016554,0.0065853,-0.02988,-0.0076661,0.0016304
0.22495,0.042359,0.015877,0.001366,0.014467,0.024056,0.022942,0.022425
-0.66238,-0.11776,-0.094689,-0.0056412,-0.0086746,0.0075385,-0.0090378,-0.03558
0.33712,0.098143,0.021911,-0.027888,-0.015899,-0.024603,-0.033194,-0.023231
0.12367,0.05817,0.053324,0.012724,0.016236,0.021509,0.020903,0.013386
-0.058019,-0.073015,0.015289,0.030173,0.001741,-0.0024554,0.0049431,-0.010915
0.2165,0.040653,0.009394,0.00087331,-0.0047907,-0.018291,-0.010629,-0.0017988
0.19924,0.031571,-0.019143,-0.020685,0.012151,0.013111,0.005544,0.0019619
-0.19481,-0.085551,-0.0080383,0.035595,-0.025672,-0.017613,-0.024609,0.0080676
-0.36443,-0.022899,0.0033349,-0.01016,-0.0011672,-0.0011235,0.00044085,-0.038732
-0.16281,0.11663,-0.047882,-0.056502,-0.00034199,0.023439,0.041486,0.1184
0.21198,0.019394,0.0098265,0.013743,0.015821,0.0090774,-0.003296,-0.021816
0.54557,0.07538,0.058956,-0.0024667,0.023858,0.010331,0.0063763,0.0080423
-0.18911,-0.30911,-0.049166,0.012214,-0.038743,-0.04326,-0.023621,-0.10567
0.23139,0.16361,0.083779,0.050161,0.015517,0.012249,0.0079505,0.073852
-0.42129,-0.075272,-0.04999,-0.029072,-0.00083811,0.012739,-0.00066607,-0.023732
-0.36572,0.007356,0.010681,0.009032,0.0059935,-0.018345,-0.0026003,-0.030561
0.66615,-0.063274,-0.069743,-0.007295,-0.0029614,-0.0028066,-0.013269,0.023413
-0.7821,0.11252,-0.0016413,-0.046724,-0.027578,-0.0030469,-0.016653,-0.10232
0.49844,0.097512,0.067184,0.039246,0.018228,0.0044654,0.011196,0.078349
-0.12703,-0.03885,-0.02674,0.008482,0.0017935,0.019782,-0.015134,-0.034784
-0.16967,-0.032907,-0.01738,-0.013987,0.0091748,0.027268,0.045412,0.13712
0.16927,0.097032,0.040686,-0.028179,-0.0064393,-0.012204,0.0055911,-0.031088
0.38833,-0.011229,-0.016865,-0.0029433,-0.005997,-0.059659,0.037323,0.037745
0.4906,0.02283,-0.003162,0.0459,0.010414,0.025458,-0.070474,-0.025152
-0.60918,-0.20821,0.034014,0.0086884,-0.0042331,0.040015,0.017875,-0.0028345
-0.083077,0.13189,0.023322,0.049141,0.027999,0.0075361,0.028647,-0.0062725
-0.11006,-0.4395,-0.0049362,-0.075253,-0.033701,-0.087431,-0.061825,-0.16147
-0.3197,0.26005,-0.10611,-0.013148,-0.025422,0.04441,0.019769,-0.015474
-0.10369,0.085213,0.063333,0.024489,0.021502,-0.10452,-0.046915,0.088593
0.61092,0.015141,-0.074438,-0.048085,0.02894,0.15343,-0.027506,0.019191
0.0094723,0.33251,0.090716,0.035158,-0.0030379,0.076123,0.20294,0.17632
-0.48644,-0.29087,-0.049499,0.001309,-0.027422,-0.11782,-0.12138,-0.18855
0.34986,0.12789,-0.0017076,-0.024088,-0.012791,-0.084893,-0.055508,-0.035277
0.55661,0.14115,0.055453,0.037515,0.025411,0.096474,0.11882,0.12094
-0.73621,-0.33169,-0.033556,0.014445,0.017026,0.058811,-0.020797,-0.087312
0.036245,-0.16739,0.028381,-0.0074381,-0.022217,-0.11212,-0.021663,0.089114
0.13141,0.055419,-0.071486,-0.051916,-0.021978,0.052402,0.022271,0.031814
-0.07856,0.23613,0.22087,0.10704,0.04894,-0.095895,-0.14668,-0.041761
0.24536,-0.34956,-0.17356,-0.046809,-0.0049103,0.2011,0.081354,-0.03892
0.19901,0.33264,-0.013508,-0.03742,-0.035285,-0.18903,0.011819,-0.0071007
-0.69999,0.23899,-0.026264,0.0020592,0.0044658,0.062208,-0.01062,-0.1025
0.16832,-0.30761,-0.048179,-0.029996,-0.010883,-0.04494,0.007084,0.011463
0.097352,-0.0010143,0.092573,0.015064,0.035673,0.059893,0.08119,0.062332
0.50749,-0.098978,0.052489,0.043913,0.011214,0.13432,-0.045824,0.027716
-0.52248,-0.0014047,-0.042999,-0.013251,-0.013935,-0.21273,-0.061548,0.0099534
-0.052451,0.093565,-0.044989,-0.030957,-0.00054678,0.11971,0.13517,0.064013
-0.047113,0.22897,0.046893,0.045791,-0.0029776,-0.10342,-0.12036,0.0021201
0.57642,0.056783,-0.024976,-0.025118,-0.028549,0.078224,0.014957,0.12825
-0.85701,-0.30204,0.012823,0.029589,0.024897,0.023592,0.040564,-0.27722
-0.015949,-0.23338,0.02728,-0.016998,-0.037344,-0.08779,-0.1142,-0.066627
0.72597,0.31595,-0.013147,0.014382,0.0039686,-0.037043,0.058398,0.13468
0.016141,0.072912,0.00065426,0.0061785,0.016267,0.06686,0.035086,-0.024717
0.29656,-0.13977,0.052948,0.03634,0.046312,0.17767,0.12092,0.10429
-0.40648,-0.17739,-0.12175,-0.16847,-0.031414,-0.18041,-0.17582,-0.14135
-0.48133,0.2621,0.0004353,0.032733,0.024383,-0.061247,0.0047643,0.07538
-0.011041,-0.0033241,0.068597,0.093669,0.040676,0.067174,0.053732,0.013244
0.62608,-0.14063,-0.049317,-0.008467,-0.038454,0.049213,-0.020806,-0.0069109
-0.56323,0.088004,-0.040151,-0.0075258,-0.0813,-0.11479,-0.015653,-0.055406
0.22699,0.0432,0.15113,0.018616,0.012908,0.051707,0.037729,0.093721
-0.023369,-0.12018,-0.11625,-0.062982,-0.029624,-0.022041,-0.017424,-0.029404
0.32322,0.070254,0.024226,0.012782,0.080305,0.22565,0.02904,0.011249
-0.15756,-0.25154,0.13387,0.12006,0.062049,-0.14379,0.043339,-0.012447
-0.14016,0.20285,-0.070067,-0.054682,-0.013068,-0.084665,-0.16305,-0.09406
-0.12803,0.33837,-0.12817,-0.1062,-0.057797,-0.0042272,0.088658,0.12485
0.16299,0.2014,0.098957,0.08972,-0.039395,0.15937,0.079078,-0.012248
-0.14101,-0.22953,0.016897,0.032718,0.0045957,-0.18777,-0.027934,-0.0518
0.1465,-0.39387,-0.014853,-0.089553,-0.0104,-0.021814,-0.044581,-0.039544
0.33514,0.102,-0.018781,0.0048414,0.057246,0.16594,-0.032543,0.096504
-0.25919,-0.3355,-0.14166,-0.073615,-0.049826,-0.013911,-0.092126,-0.1261
-0.11046,0.094821,0.079559,0.13736,0.050964,-0.13036,0.12194,0.099187
0.24485,0.36817,0.11581,0.029692,0.030536,0.17719,0.1034,-0.054343
-0.51016,-0.84535,-0.093579,-0.090875,-0.026757,-0.21533,-0.1933,-0.070378
0.50439,0.58219,0.046257,-0.028473,-0.013547,0.15349,0.1077,0.20712
-0.29082,0.21861,0.035479,0.091863,0.044611,0.088297,0.076999,0.027024
-0.28592,0.64858,-0.017366,-0.01956,-0.018227,-0.20055,-0.074812,-0.10465
0.33343,-0.22143,0.042306,0.065826,-0.023696,0.059359,-0.036118,0.013096
0.10881,0.010373,-0.068946,-0.12214,-0.058263,-0.008345,-0.026942,0.0032708
0.19138,-0.25614,-0.040911,0.016675,0.011226,0.063581,0.076255,0.012908
-0.43206,-0.33078,0.061947,0.043564,-0.040646,-0.10913,-0.11858,-0.19287
0.42802,-0.23815,0.089913,0.051543,0.084714,0.19112,0.15299,0.058299
0.1093,-0.075416,-0.2152,-0.1314,0.0064693,-0.075433,-0.023896,0.088103
-0.73019,-0.11377,0.014355,0.0030172,-4.6419e-05,0.036537,0.014583,-0.05468
0.31787,-0.15129,0.029912,0.026132,0.027632,-0.19097,-0.0046711,0.069449
-0.0095814,0.62532,0.083275,0.025222,-0.011079,0.10288,-0.18231,-0.10037
0.14975,0.63821,0.0044383,0.064205,0.02481,-0.079922,0.12362,0.19463
0.072234,-0.060261,-0.025355,-0.074445,-0.06802,0.0987,-0.069734,-0.029823
-0.26329,-0.23386,-0.05204,-0.053987,-0.032391,-0.10156,0.043693,0.038112
-0.4809,-0.13416,0.065194,0.047705,0.029225,0.015789,0.042938,-0.15745
0.53551,0.11779,0.083626,0.089674,-0.0091991,0.013429,-0.0092974,0.038382
-0.20981,-0.28713,-0.029051,0.01642,0.046636,0.39825,0.050453,-0.086536
1.0663,-0.45396,-0.031917,-0.048151,0.023975,-0.26129,0.056843,0.068592
-0.23782,-0.1264,-0.051103,0.012032,0.00027637,0.0090034,-0.030863,-0.012094
-0.76319,0.21179,-0.056073,-0.13204,-0.024846,-0.14478,-0.1518,-0.10179
0.2171,0.60969,-0.062595,-0.051126,-0.082728,-0.08376,0.15384,0.19853
-0.23946,-0.047087,0.17192,0.23134,0.045564,0.089732,-0.067362,0.06923
0.13901,0.18141,-0.070504,-0.15139,0.008841,0.040121,-0.041245,-0.1297
-0.059367,-0.2268,-0.015585,-0.011159,-0.020599,0.12034,-0.039602,0.055267
-0.25101,-0.16984,0.09514,0.098021,0.020074,-0.20669,-0.021173,-0.032049
0.22015,0.17985,-0.058416,-0.042106,0.0059804,0.037764,-0.077506,-0.22006
0.16709,-0.28027,0.10941,0.12334,0.061976,0.12107,0.035163,-0.01725
0.52708,0.058226,-0.097407,-0.12453,-0.031053,-0.15896,0.2157,0.20809
-0.35817,-0.070984,-0.062623,0.0029776,-0.023556,0.056863,0.025603,0.079542
0.038225,-0.074649,0.20504,0.07573,0.037258,0.087505,0.10323,0.095557
-0.41547,0.16384,-0.060631,0.0074118,0.010756,0.28228,0.24242,0.23918
0.17049,-0.044037,-0.22691,-0.21778,-0.047898,-0.11934,-0.38799,-0.45901
-0.04216,0.1985,-0.027693,0.0017601,-0.051757,-0.51833,-0.43863,-0.14704
-0.29112,0.1861,0.17076,0.12718,0.00060463,0.27103,0.042886,-0.05761
0.39629,0.12735,-0.052292,0.0024627,-0.022047,-0.025249,0.29962,0.20273
0.11742,-0.16692,0.12446,0.18241,0.053491,0.17175,-0.0099686,-0.011008
0.24306,-0.25167,0.014105,-0.10648,-0.029948,-0.073419,0.031051,0.023291
-0.40261,-0.60169,-0.13333,-0.12229,0.024092,-0.33599,0.034831,-0.027839
-0.18998,0.2087,0.16594,0.11899,0.096742,0.34815,0.14399,0.12563
-0.066503,0.48166,-0.16722,-0.10172,-0.041455,0.060019,-0.19532,0.029741
0.6077,-0.034978,0.014406,-0.089296,-0.0036438,-0.22174,0.17275,0.24452
-0.37753,-0.04743,0.0065467,0.054731,0.010821,0.21477,-0.0030873,-0.26488
0.026889,-0.021845,0.05061,0.18997,0.09996,0.0021966,-0.21675,-0.25236
0.39469,0.041555,0.091671,0.059006,0.0037133,-0.0090052,0.03797,0.27871
-0.8169,0.13184,-0.15894,-0.22825,-0.20789,0.031137,-0.068126,-0.2676
0.51352,0.032662,-0.05962,-0.054032,-0.12659,-0.14459,-0.01193,-0.048141
-0.67305,0.1828,0.016054,0.0041192,0.048801,-0.029523,0.12097,0.21925
0.53953,-0.18959,0.093108,0.14201,0.089929,-0.19447,0.018845,0.044448
0.55762,-0.2297,0.10268,0.18029,0.15215,0.21224,-0.11441,0.070741
-0.4567,-0.76756,-0.11826,-0.26376,-0.054729,0.0035331,0.14354,-0.26174
0.30533,0.5885,-0.045896,-0.12004,-0.15815,0.0078477,-0.051187,0.17409
-0.40306,0.44359,0.085061,0.16566,-0.022175,-0.048506,0.089734,0.14506
0.4138,0.060597,-0.03109,0.022277,0.16596,0.34903,0.033883,-0.21584
-0.59081,-0.31294,0.018201,-0.02769,0.07546,-0.12171,-0.079379,-0.034344
-0.2146,-0.35225,-0.081296,-0.016476,0.02917,-0.36939,-0.10254,0.055331
0.13766,0.73439,0.17662,0.1957,0.059119,0.29108,-0.03583,0.12959
0.36781,-0.4978,0.040799,-0.016649,-0.076706,0.006283,0.043359,-0.063212
-0.074328,0.43398,-0.15324,-0.20814,-0.13527,0.072321,0.097626,-0.094596
0.558,0.096998,-0.11599,-0.13586,-0.11394,-0.24455,0.0043543,0.019289
-0.48931,-0.37965,0.0053637,0.068677,-0.023153,0.026443,-0.21815,0.036531
-0.73749,-0.34314,-0.037404,0.039935,0.043433,-0.28346,0.13571,-0.034044
0.83734,0.42286,0.085676,0.099814,0.010208,0.21211,0.02858,-0.0034166
0.28858,-0.16084,0.094767,0.0072592,0.076651,0.11008,0.039098,-0.096474
-0.089507,-0.21901,0.10762,0.11419,0.060101,0.11573,-0.16177,0.14134
-0.77689,0.27278,0.014379,-0.064281,0.074485,0.25306,0.39243,0.0077185
0.043221,-0.26248,-0.13954,-0.052913,-0.040742,-0.20547,-0.30953,0.018278
0.30523,0.53523,-0.059337,-0.080072,-0.025692,-0.043273,0.017527,0.00025576
0.59287,0.15795,-0.0050698,-0.038308,-0.028226,-0.1771,0.30736,0.061441
-0.43868,-0.32478,0.1386,0.094147,-0.0099389,-0.0156,-0.54439,-0.14384
-0.21894,0.094056,-0.074676,0.066181,0.051155,0.0099748,0.43752,0.07009
0.30809,-0.046461,-0.035528,0.018037,-0.049799,0.094549,-0.31674,0.045736
-0.77721,-0.16661,-0.17259,-0.27646,-0.10341,-0.30806,-0.078362,-0.20945
0.67631,0.065334,0.19572,0.2697,0.05331,0.38169,0.32815,0.14114
0.21035,-0.31401,0.0091857,-0.14663,0.021489,-0.022114,-0.11629,-0.018063
-0.29027,-0.18122,-0.11275,0.070025,-0.0034539,-0.033842,-0.079329,-0.098872
0.034686,0.086593,0.1832,0.0072154,0.041458,0.026747,0.051766,0.072983
-0.15119,0.22726,-0.062978,-0.044777,-0.015051,-0.07497,0.060073,0.022968
0.095589,0.49068,0.16435,0.086548,0.0071906,0.13668,0.070548,0.10383
0.15495,-0.018076,-0.11999,0.02615,0.022458,0.0042703,-0.13747,-0.067217
-0.0078449,0.50544,-0.12821,-0.10945,-0.016237,-0.012226,0.057607,-0.14759
-0.13839,-0.42572,-0.0024061,-0.0089017,0.031339,-0.17101,0.23745,0.29803
-0.083096,-0.50182,0.013952,0.060791,-0.022849,0.051786,-0.14127,-0.14719
0.16457,-0.47361,-0.0019395,-0.018944,-0.046502,-0.42079,-0.25389,0.11553
0.42549,0.27905,0.043178,-0.022676,-0.032141,0.022242,0.061672,-0.056585
-0.66498,0.1386,0.071069,0.064538,0.043616,0.80424,-0.077548,-0.22712
-0.047865,0.054113,-0.058728,0.062904,0.063824,0.066707,0.095674,-0.044224
-0.36623,-0.077063,0.013466,-0.19114,-0.096026,-0.62787,0.053031,0.056183
0.59638,0.25311,0.014561,0.022194,0.017809,0.26644,0.024701,0.17038
0.33668,0.35705,0.02301,0.032387,0.023126,-0.15037,-0.040455,-0.019045
-0.40833,-0.25908,-0.12498,-0.026328,0.029758,0.04958,0.11038,0.092121
0.18188,-0.083507,0.047365,0.05814,-0.032396,-0.025849,-0.052395,-0.11928
0.30827,-0.25515,0.008907,0.044215,0.055335,0.044272,-0.083168,0.027103
-0.31439,0.30397,-0.013765,-0.068211,-0.082392,-0.17776,0.19682,-0.10996
-0.30807,-0.14967,0.057399,0.095035,0.061715,0.23824,-0.15176,0.069293
0.49445,0.077377,0.089432,0.024748,-0.012924,-0.10519,-0.053023,0.085664
-0.66823,-0.27459,-0.12097,-0.11666,-0.04119,-0.058499,0.0299,0.022071
-0.095198,-0.066549,-0.042676,-0.0025988,0.039093,0.26992,0.25157,0.086614
0.47838,0.45808,0.058674,0.084603,-0.01434,-0.37721,-0.43584,-0.25407
-0.041043,-0.16261,-0.058957,-0.12104,0.01743,0.35947,0.15505,-0.086901
0.52687,0.20336,0.08128,-0.033152,-0.068357,-0.16126,-0.0065133,0.14321
-0.52035,-0.030759,-0.067134,0.11503,0.025616,-0.010726,0.0022343,0.047337
0.059924,-0.23292,-0.035135,-0.12805,-0.028383,-0.0025717,0.041522,-0.051525
0.35387,-0.41167,0.083702,0.16115,0.074543,0.12,0.080617,0.013871
-0.63045,0.56511,0.031526,-0.078492,0.045285,-0.19045,0.080455,-0.034635
-0.18946,0.017096,-0.020045,0.0053929,-0.030529,-0.1135,-0.15477,-0.038357
0.16979,-0.06419,0.0067066,0.084781,0.010687,0.54701,0.14761,0.19156
0.64364,-0.11693,0.033222,0.010655,-0.042511,-0.41049,-0.2006,-0.079182
-0.21985,0.20192,-0.042373,0.00069999,0.0048269,0.055104,0.1441,0.054476
-0.14594,-0.19419,-0.024852,-0.063521,-0.073959,-0.39778,-0.14603,-0.026796
-0.13329,-0.032252,-0.20312,-0.11281,0.010411,0.42804,-0.10893,-0.0053257
0.54626,0.25786,0.13409,0.047424,0.039661,0.05713,0.11645,-0.024342
-0.51172,-0.51122,0.08865,0.010701,0.014396,0.067636,0.016298,-0.17967
-0.22697,0.39532,0.043457,0.011636,0.028923,-0.16664,0.12339,0.1759
0.30888,0.20478,0.037311,0.11327,0.021098,0.11765,-0.014599,-0.059433
-0.2305,-0.38659,-0.086696,-0.20725,-0.071524,-0.15278,-0.14785,-0.10381
0.085411,0.17703,-0.048242,0.097395,0.0086025,0.089242,0.13648,0.098678
0.33414,0.092309,0.057943,0.11326,0.034382,-0.0027029,0.0004417,0.1511
0.23992,-0.35806,0.0358,-0.019271,0.028576,-0.016302,0.043157,0.031514
-0.56845,0.22588,-0.09149,-0.058511,-0.064169,-0.10049,0.020147,-0.079148
0.27886,-0.18573,0.028043,0.041833,0.029083,-0.051353,-0.15617,0.023198
-0.30192,0.38476,0.020505,-0.0077217,-0.027824,0.062711,-0.041093,-0.18425
0.027834,-0.21834,-0.081167,-0.16036,-0.0082044,0.049001,-0.024681,0.0098045
0.41279,0.028318,-0.0015272,0.076487,0.010266,0.1369,0.0040158,-0.089935
-0.17998,-0.11048,0.03483,-0.046362,-0.018601,-0.05383,-0.085638,0.18025
-0.29659,0.074681,-0.0096156,0.089329,0.023166,-0.20877,0.27107,-0.00076768
0.40998,0.34732,0.084682,-0.0075856,0.003483,0.2357,-0.010119,0.16265
-0.13307,-0.49816,0.059784,0.054301,0.040076,0.068938,0.063779,0.0048906
-0.8176,-0.034718,-0.022842,-0.0059357,-0.0074122,-0.10791,-0.085603,-0.13187
0.79282,-0.085216,-0.055552,-0.016619,0.017246,-0.03793,-0.029665,-0.076956
0.016396,0.41065,-0.048242,-0.025305,-0.058088,-0.33952,0.042535,0.0285
-0.15891,0.45913,-0.0029528,-0.04863,-0.022905,0.26722,-0.12056,-0.057265
0.43965,-0.47163,0.016165,0.07632,0.02073,0.0073761,0.018992,-0.0048046
0.1617,-0.14659,-0.038793,-0.057781,-0.013625,0.22319,-0.070498,0.00035172
-0.62198,-0.28237,0.027151,0.024798,0.03763,-0.055593,0.017537,-0.00055171
-0.073148,-0.31297,-0.05134,-0.020171,0.0022213,-0.0022006,0.065269,0.11156
-0.0021922,0.96145,0.20303,0.096302,0.0048325,-0.141,0.073953,0.033162
0.023579,-0.040131,-0.11502,-0.094225,0.021805,0.0042984,0.052682,-0.0012055
0.54005,-0.055342,-0.13737,-0.067706,-0.056339,-0.057923,-0.13812,-0.02361
-0.39923,-0.45567,0.15241,0.10632,-0.0030034,-0.0059491,0.10378,-0.012185
0.011303,-0.082944,-0.0029802,-0.047889,0.010115,0.0060155,-0.041696,0.14835
-0.10074,0.40658,0.037332,0.03284,0.014576,0.1756,-0.035606,-0.23907
-0.028522,-0.15324,-0.015673,0.052102,-0.0048354,-0.19037,-0.11277,-0.12878
0.02107,-0.078896,-0.05266,-0.036767,0.0070234,0.13618,0.19488,0.22097
0.26251,0.50692,0.020131,0.039647,0.011539,0.023064,-0.12917,-0.11135
-0.1925,-0.0974,-0.086217,-0.062579,-0.014337,0.0088877,-0.039091,0.00016225
0.094166,-0.39024,-0.043276,-0.078056,-0.015636,-0.14994,0.088869,0.048774
0.012013,0.03737,0.12591,0.024245,-0.015656,0.044459,0.058072,0.051016
0.21473,-0.19279,-0.023632,0.048838,0.024641,0.16778,0.054736,0.12451
-0.31668,0.33254,0.16454,0.14403,0.026942,-0.0088863,-0.03153,-0.043393
0.12537,-0.13499,-0.15339,-0.16687,-0.0012809,-0.2608,-0.021525,-0.062705
-0.071047,0.2444,-0.055901,-0.055863,-0.037027,0.0047595,-0.079029,-0.06715
-0.086798,-0.38324,0.0033223,0.031553,0.012979,0.045464,-0.054447,-0.02636
-0.34331,0.19142,0.1408,0.20455,0.038938,0.29955,-0.00050999,-0.034693
0.59097,0.091768,-0.042566,-0.052725,-0.02977,-0.3644,0.0071185,0.01703
-0.17175,0.018507,-0.10198,-0.20919,-0.021407,0.20381,-0.052497,0.18373
-0.042487,-0.0087524,0.02477,0.031937,-0.021861,0.04506,0.057035,-0.12
0.3329,-0.29254,0.064201,0.12378,0.015948,-0.36249,0.31337,0.044061
-0.39561,0.018868,-0.061596,-0.027271,0.006382,0.28705,-0.3539,-0.17497
-0.22789,0.33772,0.014956,-0.077271,0.043503,0.10372,0.49153,0.14535
0.4051,-0.17541,-0.041603,0.059983,-0.028692,-0.029444,-0.54299,0.0053331
0.17279,0.25608,0.15981,0.13477,0.0086892,0.067119,0.21992,0.13951
0.17362,0.064571,-0.036688,-0.024486,0.06192,-0.24746,0.012565,-0.045829
-0.60329,-0.27826,-0.15433,-0.23781,-0.11125,-0.098353,-0.31486,-0.050637
0.035074,-0.49513,0.080368,0.010674,0.020332,0.10036,0.080963,-0.28877
0.20494,0.46598,-0.01239,0.041474,0.0034485,0.05193,0.31769,0.15422
0.02416,0.088122,-0.010961,0.13586,0.0021116,-0.024785,-0.10355,0.083521
-0.21604,-0.28521,0.060906,-0.026691,0.031946,0.2998,-0.21258,-0.047329
-0.15316,0.16664,0.0075838,-0.0090908,-0.039818,-0.16226,0.13253,0.074317
0.075531,-0.07934,0.039776,0.14904,0.068145,-0.34936,0.22174,-0.0049643
0.36335,0.43019,-0.069138,-0.1544,-0.026882,0.33882,-0.10098,0.1828
0.27415,-0.297,-0.02991,-0.036876,-0.035723,-0.16952,-0.23452,-0.24634
-0.49707,0.26259,-0.045232,-0.13896,-0.0051246,0.21788,0.1638,0.026617
0.03219,-0.093461,-0.028568,0.078897,0.010354,0.062247,-0.15747,-0.07763
0.19493,-0.14439,0.17694,0.15653,0.0030063,-0.19189,0.17502,0.041659
-0.097946,-0.30836,-0.14704,-0.12395,0.0041403,-0.12276,0.11289,0.071683
0.026033,0.1076,0.022943,0.019399,0.013736,0.090572,-0.20432,0.012709
-0.0671,0.00078805,0.053615,0.071242,0.023872,-0.011556,0.10578,0.06865
-0.16578,0.049939,0.1159,0.04698,-0.012513,-0.068085,-0.018867,-0.23588
0.099552,-0.036054,-0.025843,-0.12443,-0.064405,0.18053,-0.11594,0.069243
-0.30649,-0.074097,-0.099504,0.1106,0.039825,-0.16275,0.11366,0.18848
0.19058,0.74065,0.050112,-0.0069945,0.026518,0.34821,-0.16326,-0.35364
0.3523,-0.29828,-0.22595,-0.25178,-0.041994,-0.16148,0.040548,0.28724
0.040532,-0.02542,0.10371,0.13324,0.013869,-0.17671,0.14942,0.15804
0.36546,-0.019383,0.078984,0.069577,0.0065622,0.082791,-0.0069898,-0.1402
-1.0723,-0.3202,-0.0019673,0.065216,-0.001408,0.029997,-0.17846,-0.35853
0.44372,-0.060639,0.03422,0.050478,0.036878,-0.031398,0.14158,0.24392
0.12138,-0.043185,-0.13138,-0.29393,-0.081634,-0.14114,0.083396,0.25944
-0.034668,0.34648,0.19759,0.10357,0.041586,0.11457,-0.090897,-0.32104
-0.066182,-0.11054,-0.10333,0.041132,0.00039622,0.10303,0.20086,0.11872
-0.021882,0.056638,0.036232,0.0042752,0.060551,0.231,-0.091533,-0.054517
0.31611,-0.35157,-0.071609,0.0093867,-0.066862,-0.46169,-0.15775,0.11259
-0.71626,0.39551,0.056879,0.0020519,-0.014476,0.07274,-0.037395,-0.011918
0.35025,-0.04203,-0.055591,0.075772,0.0069704,0.069638,-0.23704,-0.12196
0.055284,0.27638,0.082524,0.050176,0.036745,-0.103,0.26944,-0.043927
0.35987,-0.30347,-0.06829,-0.16162,-0.026536,0.27408,-0.084722,0.0051545
-0.37731,-0.1476,-0.07076,-0.084058,-0.018699,-0.088172,0.20399,0.04226
0.068653,0.29922,0.075071,0.0867,0.0212,-0.11994,-0.064807,0.044559
0.023451,-0.087698,0.0020589,0.060984,0.0071014,-0.033168,0.25873,0.12105
-0.20322,-0.19081,0.12428,-0.013094,0.048132,0.20985,-0.20051,-0.065617
0.28446,-0.34558,-0.15996,-0.049694,-0.051367,-0.056446,0.040433,0.052674
0.10197,0.28443,-0.054105,-0.08003,-0.026161,-0.10682,-0.26288,-0.11261
-0.25877,0.34012,0.11323,0.1616,0.029638,0.081249,0.14489,0.022059
-0.01482,0.024504,0.091443,0.081528,-0.0092419,-0.1488,-0.043057,-0.029359
0.15013,-0.11611,-0.010637,-0.13271,0.00551,0.22692,0.01562,0.10765
-0.33634,0.39407,-0.083967,0.11272,0.042684,-0.071733,0.03916,-0.15976
0.32971,-0.4924,-0.081634,-0.22885,-0.085013,-0.20715,-0.11274,-0.02469
-0.39897,-0.15043,0.012481,0.061645,0.044633,0.11943,0.092127,-0.077748
0.53903,-0.047817,0.019614,-0.0074748,-0.028894,-0.058946,0.18631,0.19239
-0.30462,-0.12036,0.0034679,0.033088,0.030772,0.19653,-0.17256,-0.062652
-0.34981,0.32143,-0.0034614,-0.034914,-0.018186,-0.043228,-0.03011,0.11251
0.76137,-0.049099,0.14829,0.27324,0.058856,0.010613,0.16933,0.16406
-0.20246,0.198,-0.056292,-0.057946,0.012005,0.20864,-0.15174,-0.30705
0.071348,-0.079365,-0.085925,-0.23945,-0.096283,-0.45846,-0.27429,0.080036
-0.16086,0.092192,-0.019247,-0.0058079,-0.016177,0.10133,0.33283,-0.13073
0.20863,0.28637,0.056833,0.017804,0.064562,0.0035528,0.06755,0.32299
-0.37513,-0.27502,0.023882,0.065603,0.0049881,0.10617,-0.031877,-0.21038
-0.1285,-0.51793,0.0056167,0.012459,-0.015558,-0.029369,-0.013389,-0.03013
