0.018522,0.04227,0.12965,0.032725,-0.011267,-0.020654,-0.017791,-0.0015303
-0.028886,-0.10953,-0.46315,-0.031041,0.0051336,0.036447,0.029016,0.014275
0.017882,0.13845,0.20011,-0.0094547,-0.0021789,-0.0076615,-0.025418,-0.024745
0.018286,0.013525,0.10359,0.049946,0.0058076,0.0028929,0.02209,0.022127
0.019158,0.14078,0.34072,0.052793,0.0056814,-0.033841,-0.023795,0.0065323
-0.0031129,0.019617,0.11419,-0.0091756,-0.0024525,0.02244,0.024325,-0.0011702
-0.0097176,-0.062009,-0.45923,0.0045101,-0.018424,-0.00032331,-0.0055916,-0.016587
-0.016551,-0.12103,-0.13748,-0.14811,-0.0029667,-0.0083859,-0.0043713,0.0071526
-0.008195,-0.041308,0.0016958,-0.01328,-0.0027644,-0.0093848,-0.0034595,-0.00027765
0.0074604,0.043849,-0.001648,-0.0041496,0.0057459,-0.010814,0.0048039,-0.0076433
0.014867,-0.0059035,0.47109,0.14593,0.030391,0.018964,0.0047144,0.016293
-0.0091949,0.013542,-0.41451,0.015955,0.008548,0.010005,-0.019345,-0.0066072
-0.056612,-0.13076,0.061481,-0.11232,-0.044407,-0.021806,-0.012598,-0.029492
0.029166,0.070497,-0.19421,0.042352,0.011815,0.025187,0.02511,0.017906
0.053036,0.2122,0.49767,0.049791,0.012804,0.018073,0.015835,0.026141
0.015043,0.036989,0.14356,0.081018,0.036406,-0.012154,-0.01681,0.00293
-0.053704,-0.18985,-0.43817,-0.15398,-0.050322,-0.01897,-0.0023635,-0.020581
0.033991,-0.0084893,-0.13242,0.094039,0.0105,0.012904,0.0045886,0.0023995
-0.0035142,0.024777,0.23105,-0.034602,-0.046479,-0.010536,0.011918,0.0015325
0.013085,0.1113,0.034404,-0.070853,0.029175,0.012187,0.0040214,0.015934
-0.10398,-0.26611,-0.21391,-0.17791,-0.035472,-0.059449,-0.034726,-0.055816
0.059241,0.22742,0.13654,0.13764,0.049093,0.032639,-0.010597,0.020877
0.0028644,-0.13501,-0.20801,0.14268,0.04878,0.023196,0.021678,0.01189
0.031848,0.10795,0.4672,0.0021541,-0.028556,-0.001466,-0.00048047,0.011206
0.0059577,0.043391,-0.23231,-0.072728,-0.026871,-0.0019966,0.016553,0.0033599
-0.035313,-0.13173,-0.19372,0.10506,0.022179,-0.0095172,0.010106,-0.0037871
-0.029069,-0.095174,0.18693,-0.090598,-0.030339,0.0071619,-0.020025,-0.010313
0.048416,0.15487,-0.034867,0.18261,0.033865,0.024371,0.0119,0.014843
-0.005841,0.03389,-0.055383,-0.26425,0.0035536,-0.0051112,-0.011456,-0.01452
0.0034389,-0.066776,-0.12745,0.052223,-0.043212,-0.011349,-0.0042064,0.0028748
-0.017697,0.0011857,0.68202,-0.0089584,0.026578,-0.010287,-0.0053494,-0.0035446
-0.007085,-0.036634,-0.62464,-0.18961,-0.099168,-0.056805,-0.014701,-0.010526
0.050483,0.1775,0.18115,0.19871,0.095689,0.060001,0.022697,0.036534
0.013957,0.12596,0.28948,0.16499,0.017872,0.0043051,0.013396,-0.010777
-0.023276,-0.075995,-0.35042,-0.016209,0.019226,0.01069,-0.011086,-0.0039014
-0.13179,-0.49241,0.040633,-0.16454,-0.064322,-0.037798,-0.011513,-0.052028
0.071091,0.13365,-0.68593,-0.068993,0.016878,0.015288,0.01215,0.024728
0.022821,0.083208,0.58853,0.074476,-0.0034487,-0.0096401,-0.010527,0.0077736
0.012471,0.0049767,-0.25081,-0.079112,0.022295,0.012407,-0.0016785,0.022173
0.071314,0.21974,0.46253,0.34363,0.038563,0.065696,0.038345,0.03663
-0.019368,-0.014266,0.44924,0.14577,0.052486,-0.021804,0.00761,-0.019315
-0.048558,0.045479,-0.39881,-0.65054,-0.17844,-0.070539,-0.031689,-0.036471
-0.031692,-0.0069171,0.005235,0.22765,0.025646,-0.0024216,-0.025025,-0.0071803
0.015967,-0.12389,-0.071701,-0.070722,0.024829,0.0029579,0.0042038,0.013827
0.016849,0.016204,-0.18972,0.17464,0.054637,0.031772,0.0015522,0.0032273
-0.028337,-0.15481,-0.15739,-0.065125,-0.071019,-0.0015858,-0.0013214,-0.0074535
-0.0094542,-0.095039,-0.33658,-0.12314,0.00083542,-0.010825,0.019509,-0.010001
-0.0039516,-0.035818,0.1537,0.37836,0.091656,0.043415,0.0020113,0.011658
0.051112,0.21296,0.50632,-0.49592,-0.08698,-0.041807,0.0012183,-0.0045722
0.023022,0.074564,0.37329,0.13804,0.043052,-0.00084431,-0.0061521,0.011881
-0.033828,-0.013852,-0.4556,0.35841,0.03577,0.009916,-0.012352,-0.0092445
0.020555,0.20323,0.47819,-0.039148,0.038379,0.021443,0.037039,0.025615
0.036881,0.065641,-0.57268,-0.25218,-0.091332,-0.029144,0.00098713,0.014495
-0.040431,-0.16578,-0.083901,-0.041408,-0.011285,-0.0094596,-0.035038,-0.027524
-0.016832,-0.12852,0.27296,0.011935,-0.035459,0.025393,0.014473,0.0083449
-0.088136,-0.18547,-0.10266,-0.032551,0.05384,-0.010882,-0.022667,-0.042481
0.018891,-0.096176,-0.33314,0.025954,0.021761,-0.0091674,0.0018331,0.0071351
0.046487,0.23343,0.46124,0.14695,-0.014359,0.0069621,0.002063,0.024222
-0.012981,-0.022691,-0.42358,0.32224,0.024349,0.0062508,0.0016293,-0.014608
0.098474,0.15427,0.54449,-0.11145,0.0062858,0.043508,0.032036,0.023679
0.068419,-0.10726,-0.42151,-0.62877,-0.090484,-0.06072,-0.00019192,-0.0090283
-0.20477,-0.023143,0.10296,0.038799,-0.030035,-0.024872,-0.032317,-0.026438
0.075634,0.16622,0.17535,0.10556,0.079605,0.042028,0.01395,0.03427
-0.012368,-0.023119,-0.053364,0.098236,-0.0028477,-0.0081256,-0.0019456,0.0014523
0.031225,0.033077,0.46588,0.32402,0.011971,-0.011009,-0.0018971,0.00023464
-0.035564,-0.11207,-0.94459,0.010724,0.069023,0.025716,-0.0016221,-0.016237
-0.032611,-0.030678,0.60782,0.0097416,0.0033369,0.00051399,0.006552,-0.0089547
0.040705,-0.060131,-0.51541,-0.22718,-0.037892,0.014875,-0.00096844,0.021987
-0.0024157,-0.0058434,0.57067,0.1963,-0.032502,0.029621,-0.00088399,-0.0016269
0.0027388,-0.031709,-0.60078,-0.5189,-0.075252,-0.064716,0.0067154,-0.017352
0.017564,0.2148,0.55739,0.062873,0.067711,0.0052964,0.0061861,0.029497
-0.074967,-0.31175,-0.71253,0.17471,-0.04887,-0.080547,-0.041472,-0.056341
0.11559,0.29644,0.53335,0.089257,0.04432,0.076386,0.027941,0.045534
-0.036266,0.0093475,0.44056,-0.022155,-0.050278,-0.023692,-0.019764,-0.03979
0.039046,0.030763,-0.026233,0.13676,0.066702,0.080297,0.042175,0.054926
-0.034285,-0.084672,-0.20747,0.22925,0.028778,0.02116,-0.0048226,0.0093596
-0.085116,-0.11893,-0.73211,-0.69877,-0.085637,-0.084105,-0.051285,-0.051582
0.018849,-0.073287,0.3739,0.35955,0.098245,0.0063394,0.019979,-0.0030618
0.019576,0.058418,0.20378,0.036448,0.040698,0.0029779,0.021363,0.021894
0.034343,0.1259,0.0091085,0.097683,-0.048274,-0.00091047,0.01517,0.015249
0.032248,0.072645,-0.53506,0.13026,-0.029008,0.033329,0.008954,0.015878
-0.001821,0.15486,0.58307,-0.59813,-0.097557,-0.050838,-0.052241,-0.031022
-0.098539,-0.37856,-0.12496,0.024752,0.0035587,0.0042767,0.011049,-0.031712
0.039493,0.050088,0.069965,0.14276,0.079168,0.034651,0.011189,0.029531
0.0063981,-0.0040682,-0.30022,0.13385,0.0048363,0.0014047,-0.012779,-0.011168
-0.010179,0.022726,0.14597,0.19539,0.0079689,-0.032674,-0.01389,-0.012951
0.020893,-0.023861,0.51484,-0.039098,0.0035557,0.010886,0.039277,0.032212
-0.017939,-0.02435,-0.28341,-0.10948,-0.0075815,-0.00037048,-0.024937,-0.0083387
0.15405,0.41423,0.39612,0.41188,0.045436,0.051072,0.04368,0.068577
-0.049644,-0.37009,-0.8313,-0.79816,-0.12624,-0.053271,-0.03594,-0.073015
-0.16067,0.10093,0.1131,0.39808,0.094422,-0.0085279,-0.0058575,-0.011339
-0.0073021,-0.14816,0.11572,-0.18165,-0.089989,-0.017731,0.001187,-0.0043216
0.03567,0.055064,-0.37211,0.0077302,0.10097,0.059742,0.0086482,0.02608
0.039066,0.069921,-0.12435,0.02774,0.010086,-0.018384,0.00087352,0.009535
0.034833,-0.0026568,0.72519,0.19844,0.0035754,0.013363,0.0012368,-0.01484
0.00023587,0.039254,0.11078,-0.026766,-0.028709,-0.0014592,0.0096473,0.007758
-0.064181,-0.25139,-0.16185,0.0011779,-0.087174,-0.070848,-0.044316,-0.047525
0.013713,0.13887,-0.17389,-0.021521,0.078267,0.047236,0.018914,0.022576
0.069768,0.098218,0.43511,0.21101,0.061991,0.048029,0.027343,0.046278
-0.0136,0.06165,0.031026,-0.33095,-0.11146,-0.037214,-0.0035116,-0.0076488
-0.0026245,0.042585,-0.70057,-0.24708,-0.073497,-0.028725,0.0043968,-0.0064547
-0.015162,-0.077726,0.060119,0.097567,0.083624,0.034572,-0.011458,-0.0049539
-0.036166,-0.065485,0.40153,0.46288,0.095541,-0.026855,-0.011967,-0.018933
-0.05819,-0.2404,-0.24786,-0.18852,-0.036941,-0.0097566,-0.01263,-0.025116
0.035861,0.016481,-0.15067,-0.11353,-0.11834,-0.0078426,0.0023731,0.0076117
0.089897,0.30935,0.29348,0.031537,0.18675,0.072558,0.041088,0.063524
0.010515,0.024043,-0.10188,0.11275,-0.013386,0.012487,-0.02126,-0.0058764
-0.1081,-0.2819,-0.45249,-0.082843,-0.087446,-0.071173,-0.020442,-0.052181
0.031349,0.14369,0.31188,0.098428,-0.052652,0.024365,0.0045446,0.010554
0.054197,0.18475,0.3052,-0.010223,0.066142,0.009752,0.030199,0.033926
-0.023741,-0.10405,0.30139,-0.12996,0.010131,-0.013606,-0.021795,-0.028878
-0.022744,-0.036288,-0.34393,-0.098457,-0.049245,-0.03006,0.05921,-0.0059025
0.018002,-0.027775,-0.051922,-0.057182,0.013163,0.023098,-0.070879,0.0091856
-0.034556,-0.0024535,0.3873,0.28301,-0.091063,-0.025652,-0.013949,-0.014795
0.014576,-0.063819,0.012016,0.0011363,0.16248,0.019419,0.026625,0.0081297
0.055688,0.060096,-0.87946,0.12207,0.032706,0.049325,0.027279,0.054525
-0.044332,-0.069029,-0.055612,-0.29774,-0.09658,-0.037218,-0.011963,-0.031885
0.026809,0.14243,0.094111,-0.13156,-0.029298,0.0098965,-0.020626,-0.0089461
-0.020025,-0.016008,0.55091,0.30963,0.070913,0.01091,0.0093766,-0.0016715
-0.059757,-0.13721,-0.30339,-0.14503,-0.084968,-0.042215,-0.046631,-0.049096
0.056261,0.11583,0.28848,0.03603,0.049613,0.029883,0.053846,0.044163
-0.015423,-0.068388,-0.042406,0.11019,0.020915,-0.023157,-0.0092883,-0.0030532
-0.001065,0.0062512,-0.26111,-0.18152,-0.031237,0.0014608,0.014039,0.0046527
0.037084,0.14486,0.66441,0.20609,0.064204,0.017552,-0.0012618,0.012634
0.0054036,-0.090026,-0.58023,0.013358,0.025298,0.040612,0.022703,0.020875
-0.033614,-0.05809,0.35286,-0.081644,-0.054593,-0.038725,-0.023754,-0.025389
0.013653,0.060451,-0.11096,-0.08773,-0.08951,-0.048443,-0.023756,-0.024701
-0.0014286,-0.031869,-0.10813,-0.13783,-0.039936,0.011704,-0.0087787,0.0072025
-0.016559,-0.030864,-0.67202,0.14389,0.087119,0.024834,0.013279,-7.7948e-05
0.014995,0.047553,0.35353,-0.022209,0.019196,0.022506,0.019061,0.015913
-0.00056162,0.054934,0.43892,0.053465,0.022856,0.0049706,-0.014642,-0.0073274
-0.0084764,-0.047521,-0.17873,0.12303,0.083158,0.011454,0.014064,0.016168
0.0070258,-0.024969,0.12845,-0.09299,-0.08866,-0.036109,-0.011642,-0.0073058
-0.055435,-0.12687,-0.20774,-0.14036,-0.094293,-0.044001,-0.028929,-0.03864
0.038661,0.08472,0.1181,0.090622,0.011056,0.026741,0.040562,0.031572
0.039357,0.094351,0.14416,0.11519,0.14847,0.043158,0.0094249,0.008021
-0.0222,-0.059133,-0.30372,-0.028544,-0.034527,-0.0027274,-0.005215,6.1182e-05
0.01781,0.084578,0.31824,0.072272,-0.023155,-0.0095173,-0.0035581,-0.0079746
0.034053,0.087063,0.17105,-0.13037,-0.013356,-0.0086021,-0.017152,0.022931
-0.051929,-0.14641,-0.66941,-0.059141,-0.060103,-0.007895,0.0083522,-0.024435
-0.013802,-0.015037,0.26493,-0.065937,0.024208,-0.023076,-0.013305,-0.0094405
-0.015678,-0.042504,0.029893,-0.11164,-0.025596,0.0083398,-0.0042576,-0.010159
-0.010514,-0.0096771,-0.12166,0.10865,0.0099082,0.0082277,0.019703,0.004738
0.0098515,-0.017121,0.23615,0.31375,0.068949,0.039087,0.011643,0.011901
0.014618,-0.0087384,-0.54087,-0.090443,0.011524,0.007156,0.002856,0.019206
0.082355,0.18884,0.48044,-0.0031779,0.025535,-0.0094557,-0.0065144,0.03449
-0.09129,-0.14972,-0.010603,-0.011535,-0.052928,-0.049799,-0.039687,-0.07508
0.025099,0.07779,0.49341,0.0083628,0.0026347,0.026821,0.02079,0.018568
0.017437,0.0041344,-0.67425,-0.13169,-0.050161,-0.013825,0.003316,0.010688
-0.020707,-0.035523,0.0053814,-0.10354,-0.00062501,-0.023085,0.0018717,-0.0050132
-0.01148,0.035647,0.37067,-0.062541,0.010379,0.030542,-0.0068306,-0.012921
0.044825,0.12237,0.096083,0.23507,0.045131,0.03791,0.024124,0.033867
-0.062974,-0.2455,-0.3536,-0.013448,-0.045016,-0.047704,-0.022521,-0.044282
0.0087282,-0.037707,-0.40999,-0.17347,0.020952,0.015922,0.087454,0.041771
0.041146,0.19851,0.59139,0.37345,0.06308,0.017748,-0.099264,-0.0047787
-0.043784,-0.16938,-0.41716,-0.13009,-0.028291,-0.019009,0.0030953,-0.027625
0.011863,0.046948,0.23252,-0.09085,-0.042477,-0.00090051,-0.02745,0.0045042
0.036333,0.12987,-0.25186,0.068003,0.0047362,0.0014349,0.027823,0.013467
-0.017174,-0.099153,0.46972,-0.23341,0.027402,0.011139,0.036142,0.014824
-0.023653,-0.02981,-0.045298,0.12026,-0.044628,-0.034504,-0.018048,-0.022774
0.0090088,0.080603,0.17295,0.25242,-0.023533,-0.0027886,0.01376,-0.0057064
0.010359,0.0055647,0.022446,-0.22859,0.01297,0.035987,-0.0012029,0.011207
0.050541,0.088427,-0.38888,0.059676,0.088731,0.027259,0.015202,0.035666
-0.07372,-0.19495,-0.078438,-0.21835,-0.038117,-0.036573,-0.054225,-0.049589
0.0046696,0.0061626,-0.29773,0.10232,0.0075937,-0.014616,-0.0063854,0.0054294
0.0044572,0.042555,0.53823,0.12449,-0.02415,0.0074745,0.025869,0.0054547
0.042919,0.12456,-0.42257,0.0056624,0.022728,-0.0013026,0.011225,0.0052681
-0.067291,-0.17789,0.55393,-0.011016,-0.039564,-0.017346,-0.026976,-0.026269
-0.005686,-0.013391,-0.1579,-0.12038,-0.055127,-0.0015591,0.036127,0.012497
0.055993,0.094597,-0.035917,0.14626,0.085057,0.053749,0.005054,0.02786
-0.022832,-0.088261,-0.13682,-0.17251,-0.0021284,-0.0079377,0.0046457,-0.0036469
0.031214,0.17246,0.036884,0.24294,0.019054,0.0083379,-0.019883,-0.003987
0.014858,0.025245,0.58427,0.10301,0.047009,0.0084695,0.0018007,0.0032803
-0.0095765,-0.04538,-0.73864,-0.22523,-0.050889,-0.046855,-0.031688,-0.0053888
-0.010959,-0.015632,0.55992,-0.053752,-0.039823,0.0063736,0.020612,-0.0065988
-0.05959,-0.2208,-0.82328,-0.27979,-0.083181,-0.042593,-0.01273,-0.023732
-0.014662,0.043215,0.30273,0.19204,0.046414,0.017589,-0.0062434,0.0058723
0.053848,0.11355,0.21658,0.11339,0.068512,0.031206,0.024824,0.027762
-0.017705,-0.032042,-0.028583,-0.030291,-0.039735,-0.040275,-0.020907,-0.02811
0.028885,0.076133,0.15956,0.15176,0.034387,0.053533,0.028351,0.01817
0.014191,0.040071,-0.11978,0.11161,0.056243,0.023705,0.015985,0.010491
0.047638,0.062703,-0.48014,0.073713,0.025115,0.026339,0.035164,0.026987
-0.11315,-0.23179,0.43895,-0.43339,-0.12255,-0.095229,-0.055414,-0.057463
0.015816,0.038064,0.13577,0.032925,-0.0051481,0.0099898,0.0092645,0.014725
0.019915,0.026909,-0.073863,0.079942,0.0012135,0.028882,-0.021198,0.0088825
0.023541,0.03775,-0.048148,-0.11367,0.028502,-0.015631,-0.0297,0.0028312
-0.0051335,0.053465,0.32226,0.20228,0.013786,0.0089368,-0.008183,-0.019319
0.0037509,-0.036444,-0.32201,-0.095884,0.019599,0.00094822,0.0047974,0.020371
0.0030698,-0.013824,0.067211,0.11116,-0.0082636,-0.0081699,0.056749,-0.0031815
-0.054047,-0.09742,-0.37373,-0.20532,-0.061138,-0.018035,-0.00017136,-0.019635
0.067042,0.15086,0.2365,0.28523,0.072992,0.042169,0.021953,0.041447
-0.086292,-0.20541,-0.35873,-0.24338,-0.096925,-0.061419,-0.04079,-0.054114
0.033459,0.10073,0.26573,0.17876,0.078546,0.046612,0.022414,0.022032
-0.0027296,0.016038,0.11429,-0.23724,-0.095231,-0.024141,-0.023148,-0.011146
0.0479,0.13552,0.24617,0.070369,0.10854,0.054433,0.0017598,0.026211
0.021677,-0.016363,0.0090471,0.27186,0.056776,-0.0069651,0.010761,0.017024
-0.049977,-0.15767,0.03874,-0.064564,-0.032467,-0.0055997,-0.012093,-0.023032
0.036034,0.094873,-0.37345,-0.11304,-0.019544,-0.012212,-0.0044402,0.01543
-0.0095181,-0.00060462,0.2822,-0.070864,-0.030486,0.0041044,0.0025343,-0.00038617
-0.038412,-0.045409,0.19523,-0.040969,-0.05834,-0.050558,-0.022184,-0.031374
-0.027408,-0.10182,-0.97569,-0.039525,0.0057614,-0.004253,0.0076713,-0.030575
0.038975,0.095898,0.20955,0.19158,0.060173,0.033922,0.0064856,0.025549
0.0043809,-0.0070865,-0.075005,-0.018542,0.0036488,0.0018561,0.029173,0.019872
-0.014124,0.010523,0.61677,0.0033884,-0.014772,0.0014894,0.067987,0.0070402
-0.032372,-0.078988,0.0022048,-0.17079,-0.025626,-0.02163,-0.12718,-0.020957
0.043042,0.14451,0.053826,0.14781,0.0029915,0.026253,0.029373,0.013635
0.055377,0.069441,0.24177,-0.047599,0.048091,0.043332,0.021706,0.024366
0.027488,0.0294,-0.09797,0.28266,0.023898,0.021352,-0.0020244,0.018488
-0.048993,-0.094843,-0.42607,-0.17373,-0.015031,-0.040201,0.012693,-0.027928
-0.057263,-0.15612,-0.1935,-0.32316,-0.037798,-0.048014,-0.027897,-0.037037
0.01823,0.09546,0.3786,0.16996,0.0098306,-0.002306,0.017019,0.022441
-0.025326,-0.034248,-0.41923,0.11762,0.0024342,-0.020184,-0.047507,-0.028792
-0.038818,-0.16008,-0.0037281,-0.19168,-0.036825,0.015908,0.044626,0.005287
0.088053,0.21326,0.34371,0.27268,0.032609,0.02841,-0.0029692,0.024032
-0.018727,-0.0047211,-0.17305,-0.075871,-0.062568,-0.013319,-0.018035,-0.034114
0.016681,0.016886,0.11766,0.22306,0.10761,0.047462,0.0074093,0.02693
-0.0083334,-0.071778,0.1271,-0.34649,-0.05808,-0.039006,0.010742,0.020081
-0.0077427,0.026454,0.059798,-0.073642,-0.0046806,0.0084547,-0.016284,-0.023463
0.049361,0.13071,-0.21948,-0.020618,0.0414,0.025415,0.035009,0.020753
-0.040831,-0.066123,0.56487,0.0083778,-0.052668,-0.019943,-0.015914,-0.004472
0.0020657,0.042193,-0.38377,0.27167,0.064505,0.020198,0.11137,0.032489
0.044387,0.085269,0.020519,-0.011645,0.0098388,-0.018735,-0.083745,0.083587
-0.070769,-0.24416,-0.58809,0.056933,-0.029442,-0.012008,-0.093696,-0.1724
-0.039042,-0.095956,0.23193,-0.093091,-0.061334,-0.045494,-0.019827,-0.0093573
0.030241,0.076739,0.11283,-0.11823,7.9965e-05,0.0061926,0.013506,-0.0052807
0.0046355,-0.021634,-0.052127,-0.034251,0.037781,0.018671,0.054115,0.012365
0.0018996,0.056514,0.21088,0.12779,0.020851,0.016086,0.032697,0.052435
0.053902,0.16542,0.36145,-0.13938,-0.0034095,0.038128,0.012609,0.014553
0.0049141,-0.051788,-0.45305,0.02446,0.012297,-0.00073066,0.010011,0.024804
-0.011923,-0.038585,-0.12517,0.16707,-0.041079,0.0011841,-0.0062126,-0.017589
-0.012134,0.041901,-0.080381,-0.15617,-0.054016,-0.057885,-0.044111,-0.010696
-0.019257,-0.029104,0.19113,0.078376,0.12184,0.040369,0.020826,-0.0092641
-0.033537,-0.1118,0.27483,0.018723,-0.037279,-0.024959,-0.022936,-0.013719
0.01502,0.073717,-0.12112,-0.10185,-0.0084735,-0.0044998,0.0037416,-0.0012984
0.024512,0.010266,0.084616,0.074393,-0.01117,0.01524,-0.016736,0.011579
0.041504,0.071392,-0.39483,0.16277,0.055492,0.018202,-0.014277,0.00069234
-0.020199,-0.087784,0.20831,0.020891,-0.020028,-0.027119,0.034502,0.012248
-0.051407,-0.046046,0.20175,-0.27434,-0.11313,-0.019228,-0.0031623,-0.040179
0.018096,0.016753,-0.34734,-0.020196,0.088584,0.034168,0.0056274,-0.00059774
-0.014818,-0.055378,-0.12749,-0.098939,-0.031908,-0.022938,0.053123,0.029401
0.029623,0.097476,0.35457,0.10802,0.033652,0.03635,0.014352,0.081265
0.02659,0.054106,-0.03101,0.21981,0.035881,0.0093016,-0.11067,-0.094613
0.0075814,0.088614,0.22001,-0.027141,-0.040143,-0.017733,0.029641,0.010127
-0.027079,-0.09527,-0.57515,-0.099845,-0.02967,-0.01309,-0.002108,-0.033561
-0.030129,-0.06731,0.26756,-0.02062,0.036638,-0.023261,-0.018261,0.0015411
-0.0011411,-0.053555,-0.24089,0.0077453,-0.028295,-0.0088631,0.059512,0.030064
-0.0022056,0.0324,0.39297,0.062933,0.06481,0.045938,-0.026405,0.0055122
-0.01738,-0.10596,-0.23806,-0.051447,-0.074686,-0.038495,-0.010251,-0.00169
0.015975,0.062728,0.058204,-0.016549,0.0061128,0.026755,0.0064383,0.00045643
0.12119,0.32729,0.99575,0.0645,0.064595,0.061657,0.054814,0.073995
-0.077122,-0.19575,-0.98553,-0.051844,-0.040423,-0.059299,-0.052835,-0.062958
-0.040505,-0.10121,-0.12488,0.1257,0.0029328,0.0070448,-0.012101,-0.028264
-0.0040865,-0.015362,-0.11296,-0.21565,-0.063767,-0.052386,0.0048511,-0.0099975
0.070432,0.26364,0.37772,0.07288,0.1027,0.066642,0.05247,0.038353
-0.020713,-0.21834,-0.39293,-0.01563,0.0019681,0.0045042,-0.056886,-0.02393
-0.066991,-0.079012,0.28271,-0.1753,-0.077064,-0.066934,-0.018549,-0.024803
0.017427,0.048833,0.12159,0.27476,0.029745,0.032238,0.034766,0.028281
-0.0016373,-0.029544,-0.22925,-0.00039447,0.018018,-0.025706,-0.0061355,0.002953
0.063771,0.14776,0.26712,0.20297,-0.072686,0.017528,0.0074093,0.032443
-0.043536,-0.058748,-0.18216,-0.31024,0.031685,0.013971,-0.0025084,-0.023575
-0.0025549,-0.022956,0.088706,0.18653,0.089579,0.049927,0.011161,0.0069069
0.023306,0.060718,-0.084992,-0.23646,-0.039075,-0.022826,0.0094708,0.0066768
-0.020102,0.021015,0.45799,-0.14168,-0.080436,-0.024538,-0.023139,-0.016589
0.039462,-0.024539,-0.70077,0.30695,0.098498,-0.0021383,0.0071139,0.022871
-0.055637,-0.13051,0.3086,-0.156,-0.064813,-0.01825,-0.0091239,-0.039141
-0.00072328,0.015616,-0.11271,0.055347,-0.00031679,-0.018324,-0.017137,-0.015176
0.0087194,0.09347,-0.047082,0.026508,0.010289,0.020953,0.0065422,0.0088838
0.073961,0.11862,0.51821,0.2331,0.036747,0.036978,0.030683,0.048795
-0.06317,-0.20586,-0.33221,-0.2091,0.00032545,-0.0015835,-0.015044,-0.028097
-0.012425,0.0027286,-0.074655,-0.020444,-0.005768,-0.016678,-0.013527,-0.018553
0.030548,0.05671,-0.44982,0.16473,0.010283,0.022886,0.035097,0.030564
-0.043891,-0.0051647,0.060079,-0.34213,-0.076636,-0.06261,-0.025616,-0.021498
0.014081,0.011942,0.7072,0.028958,0.030527,0.023709,0.0072449,0.028125
0.0090569,0.029277,-0.022582,0.20818,0.027537,0.024073,0.00067009,-0.00843
0.019127,0.0070556,-0.29289,-0.092287,-0.053717,0.0010562,0.040464,0.0090762
0.013045,0.077398,0.2004,0.22308,0.021838,-0.006182,-0.092158,-0.0056168
-0.024785,-0.1274,-0.098579,-0.30465,0.020429,-0.028798,0.016938,0.0020082
0.0072464,0.017427,0.309,0.045165,0.012758,0.027026,0.047608,-0.038318
-0.023605,-0.13641,-0.77266,0.070903,0.030167,-0.018375,-0.023367,-0.0013256
-0.015688,-0.010349,-0.014796,0.054717,0.0099493,0.022453,0.015171,0.011877
0.038915,0.1853,0.19381,0.028037,-0.048338,-0.014667,-0.016302,0.0018314
0.015312,0.044918,0.16059,-0.095613,-0.067142,0.026338,0.022911,0.0081064
-0.016098,0.01425,0.35737,0.018571,0.046708,-0.018801,-0.031289,-0.00020224
-0.031828,-0.086206,0.18535,-0.052821,0.042724,0.021589,0.02409,0.016063
-0.0084392,-0.069034,-0.6035,0.040087,-0.04036,-0.040138,-0.029893,-0.021409
0.054015,0.026428,-0.36772,0.045689,0.016054,0.014702,0.079997,0.035388
0.022622,0.082629,0.47814,-0.052944,0.0088579,-0.0013535,-0.021393,0.084324
-0.024615,-0.049227,0.03387,0.032399,-0.030554,-0.01006,-0.076311,-0.1408
-0.048756,-0.056933,-0.047306,0.1686,0.046478,0.012188,-0.0065751,-0.015397
-0.003011,-0.018834,-0.027147,-0.40192,-0.072299,-0.028195,0.0004683,0.007222
0.011021,0.025852,-0.081944,0.10279,0.019584,0.032963,0.046587,-0.0025209
0.024613,0.09263,0.34663,0.16029,0.087917,0.016,0.046031,0.057284
0.053472,0.087667,0.26332,0.04509,-0.046888,0.014611,-0.024521,0.0074374
-0.050709,-0.13748,-0.49707,-0.14813,-0.017593,-0.01037,-0.0088017,-0.026547
0.0013157,0.042363,-0.011178,0.042231,0.027401,-0.0043403,-0.0084477,0.018257
-0.048039,-0.13021,-0.18878,0.10086,-0.068096,-0.061057,-0.023583,-0.01413
0.028052,0.056476,-0.077946,-0.0034476,0.016333,0.014909,0.0081615,-0.0064358
0.026734,0.079978,-0.13179,-0.083348,0.046457,0.012859,-0.0070649,0.02563
-0.004882,-0.035109,0.16493,-0.060884,-0.040064,0.019049,0.0088066,-0.019706
-0.027584,-0.092368,0.3956,-0.006456,0.01471,-0.0052561,-0.0067378,-0.009915
