0.021607,-6.4413e-05,-0.12517,0.086486,0.0018465,0.0082451,-0.0049992,-0.0013259
-0.0062105,0.05834,0.014329,-0.10471,0.0022604,0.0011334,-0.011897,0.014053
0.029966,0.031484,-0.049609,0.031067,0.0027554,0.017715,0.0042383,-0.0016846
0.028906,0.060424,0.19816,0.1806,-0.0045771,-0.0047644,0.0042877,0.0062179
-0.009436,-0.073398,-0.063036,-0.25033,-0.0042121,-0.011867,0.0038754,-0.0090758
-0.022923,-0.057504,-0.0053204,0.042815,-0.0040427,-0.0037784,0.0030577,-0.00068958
-0.012113,0.0063729,0.19928,0.02907,0.003699,-0.011826,-0.0058712,9.1725e-05
-0.0010342,-0.030453,-0.41798,-0.056551,-0.012242,0.0031029,-0.0071427,0.0010142
-0.021424,0.042676,0.18992,0.075913,0.010663,-0.0057091,-0.008409,-0.0058256
0.012371,0.01453,0.0077441,0.021202,0.0099575,0.008837,0.013918,0.0029019
0.01436,0.041048,-0.026487,-0.040095,0.0013164,0.0079059,0.0052683,0.0036425
-0.0075109,-0.026526,0.048779,0.0098731,-0.015219,0.0072942,-0.0030491,0.0040943
-0.013946,-0.016633,-0.008052,-0.0082471,0.007263,0.0070763,-0.0032266,0.0041582
-0.03598,0.00015074,0.053497,-0.016346,0.014112,-0.0084069,0.0046707,-0.011858
0.074919,-0.0075882,-0.094416,0.10245,-0.0024298,-0.0080304,0.0049119,-0.0049133
0.0061612,0.061697,0.032642,-0.050815,-0.0032218,0.008031,0.0051937,0.0094082
0.0074736,-0.11997,-0.073318,-0.039205,-0.035034,-0.015084,-0.018015,-3.8827e-05
0.05503,0.0571,0.10294,-0.01948,-0.0040002,0.0084353,-0.0022614,0.0059745
-0.085927,0.023,-0.017254,0.0079977,0.027475,0.00041131,-0.0022185,-0.0035889
-0.071896,-0.057768,0.0029513,-0.042896,0.0047419,-0.015689,-0.0021976,-0.020682
0.018979,0.080805,-0.016777,0.038723,0.01369,-0.00070807,0.005705,0.0096052
0.030688,-0.029782,0.087076,0.080982,0.015111,0.022043,0.01376,0.0093211
0.0027404,0.0011759,-0.14678,-0.041136,-0.030284,-0.0020029,-0.0014239,0.0019908
0.045058,-0.013918,0.031536,-0.007403,-0.0055665,-0.0024495,-0.008612,-0.012409
0.0019176,-0.0049824,-0.010634,0.010157,-0.0047284,0.012919,0.0077469,-0.0027699
-0.032533,0.051113,-0.030757,0.097312,0.011124,-0.010609,0.0084723,0.038476
0.0044177,-0.033434,0.057567,-0.19137,-0.0049483,-0.0027781,-0.01438,-0.01398
0.0034115,-0.0010408,0.26263,-0.01999,-0.013829,-0.018341,-0.014047,-0.01202
-0.0044456,-0.062756,-0.337,0.056865,0.03151,0.02078,0.0094094,-0.0027823
-0.0037707,0.047061,0.024646,0.047177,-0.0093311,-0.0026144,0.009114,-0.0098656
0.0051657,0.0082166,0.027526,0.044905,-0.018914,-0.0025627,-0.0070556,0.0057687
0.022126,0.024003,-2.9179e-05,0.073678,0.026434,-0.0024489,0.0078896,0.0051689
-0.054616,-0.022613,0.14526,-0.18666,-0.029357,-0.0022099,-0.016225,-0.01145
0.017044,0.016896,-0.059909,0.014011,0.024756,0.0060172,0.0066705,-0.0047586
-0.0050959,-0.044967,-0.07638,0.042999,0.0012875,-0.0011885,0.006364,0.025496
-0.0038343,0.018274,-0.052508,-0.037075,-0.0060737,-0.00041959,0.0063418,-0.0064361
0.036455,0.042412,0.074241,0.09423,0.0025536,0.0082455,-0.0090307,0.0089049
0.014172,-0.0039577,-0.055569,-0.047338,-0.0042238,0.0090676,0.0070603,0.0089956
-0.00044636,-0.0272,0.026603,-0.0085627,-0.010916,-0.013705,-0.00016741,-0.021899
0.039389,-0.019527,0.046929,0.0074784,0.013627,-0.013308,-0.0073798,0.0098135
-0.13981,0.034775,0.17673,0.00077534,-0.00096278,0.010188,-0.0068533,-0.028838
0.047892,-0.043798,-0.084629,-0.036562,-0.015634,-0.0057327,0.0013547,0.010458
-0.0067832,-0.044078,-0.24553,0.012498,0.008692,0.0014723,0.0015982,-0.0051844
0.0087828,0.073194,0.045212,0.014906,-0.0060924,0.00063715,0.0017015,0.01796
0.040014,0.0034166,0.068727,0.032849,0.018134,0.015307,0.017322,0.009594
0.0088314,0.051204,0.012671,-0.043409,-0.0046068,-0.016906,-0.013997,-0.0068114
0.0011256,0.0053967,0.049252,0.043585,0.0037315,0.013467,0.001534,4.0468e-05
-0.030105,-0.07963,-0.032067,0.012296,0.011802,-0.0028721,-0.0063598,-0.0088566
0.032171,0.022394,0.019067,-0.051473,-0.019545,-0.0033694,0.0092266,0.013444
-0.054355,-0.055889,-0.039285,-0.014841,-0.012223,0.0042016,0.001442,-0.018903
0.014977,0.052739,0.011765,0.0052924,0.018176,-0.01138,-0.014073,0.003592
-0.009735,0.051648,0.078547,-0.037474,-0.0063604,0.0045949,0.0017495,0.0029286
0.020158,-0.090005,-0.057595,0.099617,-0.015337,-0.010369,0.0020185,-0.0051516
-0.0044461,-0.020191,-0.029287,-0.075067,-0.0085391,0.0062069,0.0023197,0.0028706
-0.012972,0.0036656,-0.094033,0.040468,0.037671,-0.00043003,0.010398,0.0035793
0.0025681,0.083305,0.16264,0.04801,-0.0015673,0.016479,-0.0050865,0.0047327
0.042205,0.015485,-0.10258,-0.052451,0.0066082,0.0098935,0.010453,0.014013
-0.04263,0.0029072,-0.045618,-0.011141,-0.015981,-0.028194,-0.021194,-0.023458
0.029046,0.013668,0.25548,-0.00031364,-0.0069773,0.0035887,0.0014832,0.0092952
0.04597,-0.12484,-0.29328,-0.012614,-0.0056395,0.019157,0.01599,0.01051
-0.023402,0.055499,0.15128,0.021816,0.019068,-0.004991,-0.008855,-0.019959
-0.062047,0.046509,0.088305,0.016648,-0.011173,-0.029749,-0.018237,-0.011866
-0.03088,-0.06588,-0.030031,-0.059646,-0.010564,0.0075376,0.0036353,0.0035572
-0.03126,-0.054739,-0.10302,0.10529,0.028641,0.0055497,0.017875,0.010775
0.093381,0.09622,-0.053086,-0.090116,-0.01073,0.011457,0.0090107,0.0099204
0.038677,-0.018433,0.025878,-0.012914,0.0042312,0.0021126,0.00058724,0.0089475
-0.031103,0.039609,0.063867,0.063698,-0.012255,-0.0066211,-0.015164,-0.0076422
0.024679,-0.033704,-0.079087,-0.031828,-0.02093,0.0010219,-0.007013,-0.0085061
-0.067606,-0.019266,0.050971,0.013382,0.0096492,-0.0061854,-0.0062888,-0.0092146
0.027626,0.020448,0.064215,0.020024,0.024947,0.010722,0.018136,-0.0019374
0.020893,0.022652,0.00030393,-0.003723,0.0015986,-0.010958,-0.004203,0.0055003
-0.010046,-0.0288,-0.062348,-0.049741,-0.013549,0.014446,0.012472,0.013063
0.012726,0.06076,0.055914,-0.00063409,0.01063,-0.0071088,-0.010113,0.012889
-0.05139,-0.099933,-0.020206,-0.0047735,-0.004179,0.002237,-0.0017549,-0.018506
0.032255,0.027659,-0.11928,0.047089,0.01212,0.0032262,0.014057,0.0047828
-0.032733,-0.009918,0.055065,-0.056334,-0.026594,-0.012048,-0.017346,-0.018811
0.0042288,0.0059779,0.057099,0.075019,-0.0032484,-0.012319,-0.017749,-0.0033246
-0.0047584,0.0051308,0.1912,0.10449,0.019645,0.01034,0.0051736,0.020042
0.026598,0.081545,-0.30058,-0.19527,-0.028143,-0.0063919,0.012519,-0.011162
0.0046068,-0.045678,0.011446,0.026625,0.025424,0.015811,0.012239,0.0046533
0.077436,-0.024586,0.010197,0.03532,0.00085113,0.0068115,0.012234,0.012787
0.010158,-0.081371,0.00048603,-0.013093,-0.0079289,0.0057985,-0.010911,0.0053637
-0.15106,0.1124,0.16987,-0.0325,-0.0007886,-0.0027897,-0.01818,-0.025532
0.085269,-0.036848,0.01827,0.14164,0.02232,-0.01894,-0.0018522,0.01373
-0.086073,0.0021807,-0.11854,-0.17751,-0.016766,0.0042075,0.014521,0.0058603
0.022155,0.018413,-0.021986,0.026422,-0.00097133,-0.0036804,-0.0082348,-0.01795
0.027185,-0.043111,0.0031804,0.035327,-0.0085804,-0.0035527,0.00010305,0.0048081
0.01527,0.043826,0.019673,0.0058985,-0.00070063,0.0045882,-0.0073991,-0.0039083
0.057234,0.099213,0.012426,0.11019,0.022523,0.0051125,0.023923,0.010732
-0.010367,-0.049012,0.021403,-0.065956,-0.024934,-0.017629,-0.0074817,-0.0057793
-0.069701,-0.17426,-0.085071,-0.0071497,0.028799,0.030057,-7.6966e-06,0.0014259
0.012646,0.067518,0.0066847,-0.073044,-0.019315,0.0074538,-0.00046112,-0.00657
-0.028454,-0.010708,0.039829,0.056523,0.010596,-0.015236,-0.024381,0.017187
-0.012988,-0.002137,-0.11795,-0.055883,-0.021834,-0.0068671,0.0064472,-0.021057
0.07476,0.10147,0.17377,0.035359,0.00087588,0.0090608,0.013972,0.027047
0.00022559,0.034625,-2.9059e-05,-0.0051979,0.0086936,-0.0065141,0.0060455,-0.0027205
-0.049564,-0.12479,-0.0082137,-0.02076,-0.0059926,-0.022269,-0.0017137,-0.024619
0.034063,0.060112,-0.040405,0.0047437,-0.0040535,0.00098584,0.0062648,0.0080303
0.039348,0.080627,0.29966,0.12621,0.030031,0.024333,-0.0091715,0.0091276
0.012385,-0.056386,-0.39605,-0.086158,0.0022299,-0.014613,-0.016875,-0.0057999
-0.047398,-0.093935,-0.019161,0.070316,-0.0019438,0.024815,0.014314,0.0022908
-0.093349,-0.055962,-0.022785,-0.14728,-0.01424,0.0019394,-0.0015961,-0.013418
0.046599,0.080883,0.04718,0.025758,-0.0038979,-0.0052568,0.013517,0.0096927
0.013646,0.074749,0.098688,-0.013105,-0.018181,-0.0047792,-0.010608,-0.0063503
0.019556,-0.011186,0.032193,0.055502,0.0051903,-0.012445,-0.019186,0.016731
0.03397,0.058353,0.037083,0.058912,0.034951,0.010672,0.019159,0.00093816
-0.067379,-0.21567,-0.080563,-0.034669,-0.022457,-0.013587,-0.0048125,-0.014593
-0.0028481,0.042647,0.0315,0.0089404,-0.01042,0.00079408,0.010574,0.0092152
0.063441,0.14651,-0.048659,0.072798,0.016854,-0.00069021,-0.004922,-0.013617
-0.017477,0.010405,0.045469,-0.20175,-0.01824,0.0056394,-0.0044134,0.010572
0.03474,-0.068671,-0.054373,0.0067541,0.01759,-0.0034077,-0.0035712,0.0035445
0.039304,-0.067466,0.033447,0.012256,-0.0080934,0.011427,0.013133,0.019868
-0.11422,0.03704,0.073538,0.089674,0.014298,0.011182,-0.0013046,-0.049936
0.042166,0.056796,-0.067544,0.037131,-0.0011413,-0.0041522,-0.00014298,0.028436
-0.093408,-0.016594,-0.085236,-0.019616,-0.0076854,-0.01125,-0.0069348,-0.018489
0.073071,0.019491,-0.033836,-0.064842,-0.01344,-0.0024827,-0.0061304,0.020229
-0.035753,-0.069676,0.12651,0.0024303,0.0046485,-0.017122,-0.0055678,-0.0038207
0.057808,0.043876,-0.032916,0.10292,0.02273,0.030581,0.018211,0.0031568
-0.01217,-0.022629,0.10602,0.055435,0.0013736,-0.00013057,-0.0050542,0.0099648
0.044545,-0.05809,-0.081027,-0.13374,-0.012817,-0.0077443,-0.0049891,-0.0224
-0.044609,0.023622,-0.054758,-0.06743,-0.0043461,-0.0078506,0.010644,0.015503
-0.021369,0.089798,-0.026359,0.011435,-0.012251,0.0074678,0.002805,-0.0090646
0.028297,-0.054944,0.073792,0.040256,-0.020746,-0.047586,-0.02852,-0.017901
-0.021102,0.081316,0.072806,0.042992,0.017287,0.038058,0.025998,0.020317
0.024887,-0.0018354,0.14143,0.0050194,0.031798,0.022291,0.0022327,0.0040842
-0.014514,-0.086085,-0.34638,-0.072412,-0.016064,-0.0011415,-0.0061304,-0.0040732
0.054855,0.070436,0.046186,0.030689,0.030066,0.0067321,0.0086816,0.0036489
-0.088351,-0.15735,0.037606,0.057512,-0.0094906,-0.0089239,-0.015826,-0.0040411
0.039484,0.019847,-0.043773,-0.13197,-0.041062,-0.017013,-0.0092782,0.0040445
0.023933,0.13373,0.24016,0.23578,0.044611,0.0058004,0.012817,0.012216
0.044755,-0.08855,-0.17225,-0.13644,-0.041642,-0.018611,-0.004071,-0.018638
-0.24132,0.072307,0.0089236,0.00068733,0.012629,0.0036157,0.0027241,-0.018224
0.13523,-0.016158,-0.0046239,-0.056795,-0.019124,0.0023758,0.0020966,0.013465
0.034691,-0.010128,0.029781,0.03406,0.027235,0.016991,0.0097644,-0.001671
0.043851,-0.042647,-0.10644,0.022635,-0.0044447,0.0086435,0.0023135,0.022324
-0.0085,0.06551,0.14908,-0.028895,0.010927,-0.022497,-0.012493,-0.023932
0.034283,0.063782,-0.00089747,0.020082,0.0030832,0.0095554,-0.0035173,0.023576
-0.069853,-0.048319,0.091595,0.068273,-0.02018,-0.0281,-0.017792,-0.014921
-0.055329,-0.13825,-0.23008,-0.14167,0.0035658,0.051823,0.030441,0.016729
0.054294,0.090935,0.026082,0.11734,0.035149,0.014656,0.0081971,0.0012516
0.024522,-0.11039,0.0008426,-0.14642,-0.042732,-0.030533,-0.01436,-0.030147
-0.043146,0.047491,-0.0085054,0.051693,-0.0036013,-0.013684,-0.0060755,0.00067843
-0.023736,0.16688,0.0924,0.08666,0.011881,-0.013057,0.0017689,6.4466e-05
0.051457,-0.056208,-0.0082959,0.090977,-0.0040677,-0.036456,-0.0064086,0.0072061
-0.036456,0.089704,0.19773,-0.060901,0.034582,0.064697,0.016378,0.014435
-0.0065404,-0.24663,-0.36739,-0.10398,-0.028278,-0.0062431,-0.0078336,-0.017197
0.062563,0.013031,0.085303,0.054971,-0.012797,0.00097406,-0.016359,0.0061139
0.084227,0.22017,0.0084606,-0.092159,0.018687,0.024065,0.03004,0.02966
-0.067314,-0.14106,0.034063,0.056225,-0.01964,-0.022769,-0.016941,-0.016957
-0.15056,-0.031954,0.15318,-0.030827,0.020715,-0.014482,-0.00098704,-0.0088624
0.11528,0.039207,-0.049518,0.022134,-0.016534,-0.0058068,0.0075713,-0.0008656
0.089486,-0.029746,-0.043989,-0.00323,0.016915,-0.00467,-0.014805,-0.024305
-0.21982,0.13547,-0.14366,0.18236,0.0036465,0.027826,0.025464,0.014539
0.063015,-0.10657,0.072886,-0.24148,-0.0019354,0.013367,0.003171,-0.0014971
0.079519,0.1105,0.074551,0.13895,0.023313,-0.016985,-0.011582,0.021408
-0.036554,-0.19845,-0.059806,-0.04404,-0.061479,-0.032145,-0.026776,0.0052185
0.11404,0.059756,0.038203,0.068422,0.032601,0.030272,0.01999,0.0047153
-0.1166,-0.013661,-0.17684,0.02294,0.00084593,0.0061538,0.0037078,-0.026898
-0.07207,0.11252,0.17151,-0.18037,-0.023827,-0.010726,-0.013044,-0.027061
0.091184,0.032369,0.068835,-0.017498,0.013479,-0.0046471,0.0089435,0.027698
0.075801,-0.026863,-0.062239,-0.057799,-0.0041628,-0.0067026,-0.00045453,0.012387
0.013952,-0.111,-0.010511,0.14521,0.0094468,0.0067466,0.013644,0.020734
-0.079366,-0.0077453,0.044134,0.15514,0.046711,0.035926,0.0045395,-0.0098118
-0.12649,0.0032017,-0.023818,-0.097448,-0.040664,-0.020501,-0.019822,-0.04807
0.059905,0.056186,-0.10564,-0.018352,-0.010421,-0.029517,-0.012483,0.0074391
0.097124,-0.019397,0.11054,0.009655,-0.0031709,0.0090395,0.010952,0.031636
-0.084766,-0.074356,-0.11792,0.048781,0.0045025,-0.0062993,-0.0042429,0.0088205
0.085055,0.18824,0.083669,-0.15147,0.012569,0.026036,0.019958,-0.01419
-0.025724,-0.15419,-0.019236,0.0020567,-0.018066,-0.0034267,0.005283,-0.0061823
-0.041738,0.20947,0.026348,0.00089074,0.021941,-0.0011351,-0.009382,0.0015888
-0.0019036,-0.12879,-0.021972,-0.093236,-0.031514,0.0013781,-0.0085889,0.0013448
0.023358,0.016642,0.015162,0.24216,0.02463,-0.0040264,-0.0081108,0.016597
0.0024684,-0.074513,0.027922,-0.087892,-0.012851,-0.0098556,-0.00022836,-0.046302
0.083395,0.081182,0.054875,0.07146,0.012159,0.014884,0.015035,0.031516
0.015653,-0.20394,-0.0059615,0.31253,0.021378,0.0075497,0.0064769,0.00015193
-0.16988,0.12534,-0.13135,-0.55336,-0.024412,-0.02405,-0.010169,-0.0075198
0.034453,-0.086185,-0.094605,0.15289,0.015291,0.0061659,-0.011315,0.0084985
-0.097833,0.061091,0.11254,-0.14659,-0.039255,-0.010913,0.003204,-0.0065547
0.19915,0.30249,0.1158,0.088399,0.030728,0.0031692,0.017917,0.025309
-0.097707,-0.2912,-0.11522,0.11755,-0.024649,0.0096798,-0.0061209,-0.013272
0.11337,0.092377,0.037428,-0.0021403,-0.0020987,-0.014567,-0.029788,-0.020908
-0.1051,-0.10992,0.011817,-0.065186,0.0048006,0.024296,0.032849,0.010081
0.043467,0.24943,0.066012,0.086644,0.035242,0.016846,0.0098476,0.0015074
-0.027399,-0.22896,-0.065698,-0.0062702,0.0033401,-0.0058696,-0.0051544,0.0080881
-0.060575,-0.03009,-0.10245,-0.11689,-0.012818,-0.020722,-0.012286,-0.0091276
0.162,0.033363,0.033245,0.051243,-0.013347,0.011011,-0.0038536,-0.0030927
-0.055458,-0.014813,0.012522,-0.073356,-0.021839,-0.051592,-0.019,-0.020488
0.0057051,-0.041026,0.11587,0.10912,0.02406,0.049098,0.02818,0.0091706
-0.1228,0.12762,0.053583,0.26855,0.014878,-0.0072602,-0.01074,0.023496
0.12257,0.039052,-0.0497,-0.33137,-0.010333,0.013837,0.01272,0.030337
-0.10032,-0.11832,-0.17834,-0.07494,-0.02805,-0.035775,-0.018572,-0.017216
0.030757,0.19527,-0.0037467,0.091745,0.024411,0.031771,0.020432,-0.0098544
0.009982,-0.043098,0.07652,-0.026615,0.022313,-0.0018586,0.0047708,-0.010129
-0.067246,-0.18456,-0.022339,0.070746,-0.03404,-0.01908,-0.018652,-0.033657
0.15161,0.052539,0.091476,-0.028946,0.011907,0.011681,0.012696,0.021207
-0.067779,-0.065744,0.036121,-0.02733,-0.027089,-0.010941,-0.010518,-0.0016447
-0.0076922,0.0077904,-0.078468,-0.063694,0.021003,0.014659,0.0055199,0.007318
0.048631,0.085684,0.021189,0.18316,0.023395,-0.013212,-0.025048,-0.0064879
0.082855,-0.051287,-0.087265,-0.067736,-0.012235,0.03016,0.015041,0.042875
-0.16585,0.056659,0.040555,0.15199,-0.0080408,-0.027505,0.0086487,0.0068393
0.041859,0.01703,0.083122,-0.20539,0.0043314,0.024268,0.0026426,-0.028914
0.031888,0.11649,-0.015566,-0.02375,0.00099052,-0.0024722,0.012566,-0.010037
-0.12669,-0.038139,-0.045771,-0.03061,-0.010695,-0.029971,-0.0086137,-0.038456
0.12856,0.14468,0.093174,0.25004,0.039221,0.011846,-0.022058,0.010493
-0.0060044,-0.43798,-0.18512,-0.05677,-0.044805,-0.025549,0.0032274,0.05843
-0.16122,-0.0050304,-0.005617,-0.12223,0.010594,0.021952,0.004489,-0.027606
0.20449,0.14776,0.1478,-0.1717,-0.028862,-0.0095736,0.028392,0.057049
-0.17189,-0.16497,-0.15378,-0.00064676,0.024546,0.044115,-0.0033156,-0.10155
0.071253,0.39545,0.22336,0.12657,0.0070426,-0.019942,-0.012529,0.012463
0.20104,-0.20742,-0.055879,0.24966,0.0048462,-0.021937,-0.038208,0.13383
-0.21949,0.036266,-0.05338,0.024647,0.010357,0.046014,0.021428,-0.19012
0.012301,0.057198,-0.034432,-0.35438,-0.023195,-0.01918,0.010428,0.080108
0.043571,-0.035356,0.00099649,0.134,0.013553,-0.037807,-0.0083784,-0.00039063
0.0444,0.007525,-0.017646,0.16702,-0.0045027,-0.0020057,0.0043759,0.0061292
0.020747,-0.018956,0.034188,-0.17169,-0.022819,0.01018,0.0020455,0.013773
0.0024088,-0.061887,-0.055018,0.17873,0.036611,0.014499,0.016009,-0.016703
-0.019091,0.18204,0.22978,-0.17287,0.040946,0.065797,0.038485,-0.015364
-0.16059,-0.24088,-0.088436,-0.26479,-0.048764,-0.046685,-0.039946,0.025119
-0.092608,0.14629,-0.041042,0.17838,-0.021308,-0.033691,-0.024046,0.13554
0.21038,-0.21761,-0.065252,0.057887,-0.055966,-0.027848,-0.038895,-0.051579
-0.1399,-0.0024679,-0.1525,0.048656,-0.0038358,-0.0055658,-0.014258,-0.21593
0.21014,0.21576,0.13587,0.10648,0.080806,0.080115,0.081028,0.041227
-0.11335,0.024883,0.082404,-0.032516,0.073204,0.0026147,0.01246,-0.068589
0.10056,0.043185,-0.030449,-0.06314,-0.042267,-0.027267,0.022042,0.22871
0.022449,-0.17455,-0.04564,-0.064296,-0.054928,-0.0019591,-0.023267,0.027413
0.064093,0.16761,0.1386,-0.022239,0.026947,0.00010628,-0.045577,-0.10196
-0.14453,-0.018013,-0.056272,0.029197,-0.008135,-0.0057519,-0.013812,-0.034634
-0.090551,-0.12426,-0.014053,0.0091029,-0.0044516,0.019286,0.032894,0.049083
-0.010488,-0.14554,-0.025098,0.54786,-0.048331,-0.088973,-0.046024,0.11701
0.078943,0.48658,0.049869,-0.61391,0.10223,0.1226,0.077741,-0.2225
-0.0018378,-0.48698,-0.11843,-0.085932,-0.060559,-0.025561,-0.0017991,0.084351
-0.032855,-0.012068,0.023919,0.14838,0.0025879,-0.04886,-0.057786,-0.0098967
0.05825,0.11459,-0.039081,-0.34639,-0.04395,-0.017373,0.019428,0.12745
-0.046402,0.22961,0.028497,0.33092,0.05015,0.030037,0.011294,-0.2064
0.030551,0.029376,0.07841,0.15173,-0.035192,-0.00028922,-0.019586,0.020586
-0.068394,-0.18798,0.064026,0.21962,0.090716,0.032215,0.020523,-0.042161
0.22035,0.15707,0.0011564,-0.30823,-0.0097436,0.033589,0.022124,0.32517
-0.017104,-0.19185,-0.094484,-0.033746,-0.024332,-0.04336,0.0084454,-0.14994
-0.14085,-0.15523,-0.019735,-0.036472,-0.015867,0.0041496,-0.044199,-0.076294
-0.23824,0.010252,-0.016735,-0.04515,-0.039304,-0.066344,-0.050124,-0.11775
0.25915,0.21143,0.031834,0.38307,0.038043,0.073162,0.076383,0.16293
-0.041362,-0.16908,-0.10036,-0.52754,-0.057202,-0.061634,-0.063294,-0.14894
0.20202,0.47691,0.14168,0.18998,0.034576,0.037334,0.077583,0.32073
-0.035683,-0.15736,0.0083126,0.058072,0.016853,-0.020173,-0.04795,-0.26498
-0.2007,-0.19961,0.038955,0.27188,0.085323,0.039712,0.099134,0.2259
0.12873,0.027067,-0.078531,-0.2773,-0.11126,-0.0091811,-0.090498,-0.23831
-0.34357,0.004723,0.031229,-0.17411,0.036677,0.0053074,0.023928,0.15511
0.2119,-0.13514,-0.029792,0.12218,-0.048968,0.0051981,-0.065128,0.063372
2.1822e-05,0.021555,-0.18303,-0.34773,0.0066699,-0.017315,-0.013536,-0.44938
0.030383,0.12461,0.14223,0.55809,0.06269,-0.038903,0.061958,0.25169
0.38256,-0.0031085,0.07908,0.12937,0.017167,0.034002,-0.01791,-0.15176
-0.20811,0.18079,0.041662,-0.071392,-0.020896,0.037122,0.11438,0.43539
-0.13964,-0.046659,-0.024907,-0.31026,-0.0049174,-0.0063244,-0.040994,-0.23656
-0.31044,-0.49462,-0.050754,0.060726,-0.060032,-0.065292,-0.08559,0.073519
0.3183,0.14411,-0.052105,0.088356,-0.029924,-0.014966,-0.043007,-0.066415
-0.058457,0.16763,0.10321,0.085835,0.093478,0.066358,0.063005,0.20747
-0.019208,0.12249,-0.17915,-0.39838,-0.048811,-0.0011811,-0.017988,-0.40545
0.31849,0.16298,0.084734,0.059868,0.012389,-0.006825,0.041603,0.33357
-0.14719,-0.018803,0.01958,0.19742,0.058699,0.033627,0.022437,0.02363
-0.033587,-0.15336,0.14086,0.016289,-0.0033899,-0.012775,0.056746,-0.26587
-0.23123,-0.22889,-0.043621,0.0095509,-0.064431,-0.036717,-0.12157,0.036248
0.017968,0.064156,-0.14315,0.12176,0.0082967,-0.030336,0.018482,-0.028394
0.12846,-0.17418,0.0065371,-0.32937,0.0036334,-0.0090909,-0.038702,0.02841
0.061444,0.42342,0.046298,0.4566,0.054076,0.089776,0.050963,0.0079431
-0.26911,-0.24292,-0.023629,-0.44757,-0.098557,-0.045944,-0.00098445,-0.1325
0.45649,0.14212,-0.0077857,0.29627,0.0062828,0.0058862,0.0015234,0.57123
-0.26299,0.11319,0.10163,-0.043381,0.055711,0.011066,-0.042308,-0.23077
0.33646,-0.2326,-0.10966,0.07711,0.018137,-0.030341,0.016592,-0.13225
-0.25474,-0.22845,0.13927,-0.10092,0.033935,0.030054,0.069225,-0.19735
-0.15524,0.34603,-0.050365,-0.12241,-0.0063644,0.043696,-0.02497,0.063309
-0.076819,-0.15734,0.016538,-0.2328,-0.071388,-0.067673,0.030638,0.25563
0.019528,0.27578,-0.066139,-0.097428,-0.074816,-0.030702,-0.084734,0.055793
0.16577,0.025649,0.038094,0.47861,0.11679,0.053063,0.0424,-0.086029
0.23815,0.12007,-0.099496,0.26009,-0.050495,0.011889,-0.0025747,-0.11709
-0.26184,-0.57744,-0.12616,-0.38837,0.0022436,-0.021155,-0.024763,-0.24119
-0.30937,-0.14051,0.076409,-0.026666,0.017793,-0.0066768,0.0068655,-0.027984
0.47169,0.1629,0.12611,0.17283,-0.0035807,-0.022474,-0.040517,0.41482
0.066483,0.76137,0.21827,-0.03554,0.023891,-0.0058003,0.075423,0.027003
-0.047956,-0.43857,-0.085383,-0.087351,0.052711,0.051235,-0.012263,-0.064022
-0.090025,-0.083726,-0.098799,-0.021138,-0.043104,5.0658e-05,-0.014261,-0.23898
-0.25464,-0.11669,-0.10504,0.13217,-0.022536,0.02777,0.0071435,0.21455
-0.033451,0.083239,0.12853,0.045814,-0.011725,-0.030241,0.044283,-0.1245
0.066328,-0.25361,-0.18846,0.30924,-0.027185,-0.05747,-0.059005,0.16586
0.099852,0.30587,0.060635,-0.88364,0.016556,0.023551,0.0098297,-0.016339
0.41874,0.05318,0.0088392,0.10172,0.064863,0.071679,0.0086457,-0.093706
-0.46974,-0.3076,0.118,0.21518,-0.069196,-0.061792,-0.11719,-0.0046471
-0.012074,0.46498,-0.02461,0.32265,0.05289,0.045057,0.14804,-0.45324
0.34483,-0.13913,-0.07377,-0.17798,-0.044146,-0.021466,0.03094,0.75485
-0.0022748,0.43147,0.065575,0.063739,-0.02298,-0.096646,-0.093419,-0.35014
-0.25003,-0.70958,-0.12127,-0.42378,0.008269,0.054708,0.03279,-0.089628
-0.20375,-0.034044,0.13954,0.22129,0.042708,0.027172,-0.0045119,0.55089
0.074303,0.042168,0.011992,0.60797,0.002637,-0.0067213,-0.049123,-0.65614
0.030433,0.15927,0.058077,-0.31357,0.0051,0.0080606,0.055123,0.46048
0.12702,-0.16622,-0.23075,-0.10278,-0.020902,0.024597,0.019042,0.049154
0.20924,0.35654,0.082249,-0.2574,0.032908,0.034657,-0.055973,-0.5613
-0.33914,-0.30948,0.027777,0.1784,0.0089778,-0.0014985,0.017359,0.091506
0.12275,0.2437,0.097781,0.11498,-0.031448,-0.076815,0.012211,0.24386
0.10215,-0.20161,-0.082594,-0.12896,-0.019029,0.0033796,-0.0092031,-0.43039
0.11351,0.26108,-0.11444,-0.029357,-0.016784,-0.019092,0.070031,0.66401
0.014722,0.3267,0.026358,-0.42746,-0.01689,0.0041955,-0.086237,-0.27699
