0.01467,0.022923,0.23362,0.089218,0.016883,0.0093084,-0.086986,0.014978
-0.0010441,0.0089354,-0.082029,-0.033398,-0.00747,-0.01434,-0.14509,-0.00096082
-0.0088134,-0.027743,-0.50144,-0.031473,-0.040143,0.023645,0.31453,-0.00095462
-0.0009182,0.04555,0.014407,-0.092531,0.0049222,-0.017217,-0.020086,-0.0085839
0.0069089,0.040934,0.55855,0.14273,0.026338,-0.011684,0.1166,-0.00058435
-0.001049,-0.073359,-0.34699,0.10383,0.016478,0.0014731,-0.11988,0.015073
-0.0092139,0.0068473,0.11598,-0.10792,-0.016689,0.014737,-0.090064,-0.016402
0.005868,-0.0078725,0.19486,-0.070896,0.012883,0.012729,-0.0062135,-0.0091021
0.005217,0.015183,0.043222,0.066317,0.011496,-0.012198,-0.017946,-0.0098511
-0.018846,-0.056628,-0.48186,-0.063417,-0.036463,0.018148,0.12398,0.012705
-0.019294,-0.035395,0.27453,0.087114,-0.0059971,-0.013445,-0.057166,0.0040015
0.02744,0.071598,-0.15637,-0.028332,0.0013341,-0.036759,-0.045357,0.01883
0.027674,0.053921,0.14884,-0.1042,0.024614,0.026193,0.027497,0.010374
-0.010801,0.021301,-0.017875,0.1261,0.0013799,0.011191,-0.071807,-0.021361
-0.0021509,-0.010509,0.16761,-0.031819,0.0019883,-0.0037918,0.18135,0.0017189
-0.016858,-0.10412,-0.39221,-0.038255,-0.036026,-0.034511,-0.22773,-0.014175
0.023018,0.037053,-0.25639,0.052344,0.043594,0.082998,0.1936,0.0012471
-0.03893,-0.03268,0.39746,-0.065007,-0.032618,-0.057564,-0.031316,-0.0066899
0.031585,0.07693,0.053717,0.077589,0.016505,0.0047482,0.042227,0.016747
-0.023252,0.0062162,0.71018,-0.0055697,-0.004487,0.0043757,-0.039876,0.0013073
-0.0080499,-0.049656,-0.59042,0.027642,-0.0098492,-0.035129,-0.013087,-0.0060765
0.030448,0.034338,-0.21272,-0.1213,0.00018635,0.011372,-0.097081,0.0024343
0.0064515,-0.030677,0.31461,0.13997,0.040998,0.034628,0.027917,0.011196
-0.0095975,-0.080318,-0.16868,0.068453,0.010798,0.011279,0.11969,0.0045176
-0.0098064,0.10454,-0.55512,-0.17963,-0.067135,-0.035235,-0.063468,-0.033335
0.005845,0.024223,0.45275,-0.095662,0.002455,0.0122,-0.19258,0.0068813
-0.017369,-0.063227,-0.14998,-0.021841,0.0086998,-0.0027962,0.23337,0.0078426
0.014218,0.05317,0.4224,0.17667,0.022108,0.005561,0.035657,0.0084914
0.022379,-0.0095395,-0.18438,0.064471,0.035166,0.013704,-0.13665,0.016557
-0.016419,-0.040708,0.034374,-0.051948,-0.061148,-0.033123,0.10727,-0.022678
0.0071415,0.021796,0.035253,-0.046447,-0.0086607,-0.0020874,-0.11566,-0.007612
-0.0084978,0.036984,-0.18781,0.057841,0.021062,0.020987,0.1001,0.0071777
-0.016392,-0.057918,0.10724,-0.075574,0.020416,0.01285,0.019222,-0.0015742
-0.016417,-0.013033,-0.026801,0.036408,-0.0027174,-0.034094,0.0079153,-0.010221
0.022816,-0.015804,-0.1009,0.095166,-0.0093542,-0.0024613,-0.075252,0.020509
-0.00015109,0.10588,0.38889,-0.15901,-0.015337,0.014111,-0.066669,-0.026403
0.008457,-0.030422,-0.29564,0.053388,0.025893,-0.023452,-0.021048,0.021005
0.040743,-0.017967,0.068903,0.05922,0.020227,0.079998,0.085416,0.014286
-0.036291,0.010959,0.035307,-0.1031,-0.05611,-0.050831,-0.020087,-0.0076099
-0.0041457,-0.060322,-0.2718,0.0039641,0.0075618,0.013376,0.045968,0.0020026
-0.011504,-0.098577,0.07843,0.068609,0.031414,0.030066,0.073288,-0.0039787
0.019584,0.22457,-0.044522,-0.056463,-0.02362,-0.071341,0.054544,-0.017961
-0.020301,-0.067405,0.15906,0.036368,0.014452,0.013745,-0.10371,-0.0010577
0.0095774,0.033086,0.027769,0.028124,-0.026038,-0.027074,-0.14349,-0.015877
0.00010044,-0.0056295,-0.0069041,-0.11919,0.0035956,0.017423,-0.18192,0.039099
-0.017123,-0.1138,-0.12407,0.12632,0.0489,0.053876,0.4294,0.0076307
0.01298,0.10642,0.29275,0.030442,-0.02276,-0.042305,-0.15345,-0.016492
0.0048024,-0.017382,0.085658,-0.039898,-0.031606,0.018277,0.10045,-0.017588
0.013228,-0.11063,-0.32548,-0.014939,-0.0010779,0.0014416,-0.051609,0.020028
-0.016424,-0.0095629,0.15929,-0.020322,0.037493,0.00096955,-0.0086556,0.0026786
0.0015788,0.14496,-0.27308,0.10748,0.029294,0.0089335,-0.083785,-0.0070501
-0.011274,-0.061283,-0.1764,-0.2334,-0.017985,0.0016855,0.050677,0.022206
-0.00079829,0.15282,0.41257,0.089831,-0.041918,-0.044452,0.019515,-0.034405
0.071549,0.029418,-0.018519,-0.016431,-0.034685,-0.0046853,-0.10691,0.0029799
-0.021211,-0.1111,-0.098903,0.049568,0.027245,0.01929,0.117,0.0017324
0.033225,-0.23724,-0.075586,0.0066131,0.026836,0.019617,-0.089589,-0.022362
-0.15568,-0.10644,0.21714,0.073195,0.026753,0.01196,0.10192,0.032357
-0.0015849,0.20355,-0.041332,-0.055961,-0.027572,-0.019212,0.035679,0.0096337
0.089857,0.083481,-0.3925,0.11833,0.0045203,-0.003467,-0.053596,0.010914
-0.021298,0.23628,0.54204,-0.068843,-0.0098466,-0.026626,-0.025038,-0.010901
0.032691,-0.018326,-0.24352,-0.19623,-0.00051603,0.036395,0.01999,-0.017033
-0.01354,-0.024845,0.47118,0.11097,0.001044,-0.017501,-0.0042612,3.8417e-05
0.058627,-0.29951,-0.10055,-0.076557,0.0024056,0.014774,-0.066364,0.0010117
-0.06383,-0.10803,-0.64196,0.093626,-0.0044647,0.00030474,-0.18963,0.0013733
0.024528,0.10491,0.29147,0.13061,0.027145,0.017069,0.42281,0.0011059
-0.0053331,0.043804,-0.26669,-0.11261,-0.027842,-0.021031,-0.09644,0.00030897
-0.013581,0.015183,-0.053638,-0.11126,-0.01315,-0.01257,-0.099371,-0.047706
0.038382,0.20851,0.21863,0.12787,0.040094,0.011123,0.054016,0.091665
-0.083819,-0.077673,0.29939,-0.10564,-0.05541,-0.035899,-0.066662,-0.04229
0.02658,-0.061044,-0.32098,0.14122,0.036516,0.041733,0.030156,0.011548
-0.02009,-0.0069221,0.57222,-0.077584,-0.0042026,-0.0058804,0.023742,-0.012334
0.019583,-0.079847,-0.44977,0.010124,0.0023114,0.0010634,-0.039144,-0.020151
0.014043,0.062767,-0.029485,0.11373,0.0014859,0.0079819,-0.0098547,0.019311
0.03463,0.028597,0.24303,-0.041799,0.024602,-0.0084821,0.026147,0.0043913
-0.074319,-0.0047081,-0.36414,-0.16088,-0.029944,0.037666,-0.14926,0.0052642
0.046588,-0.17214,0.40142,0.06821,0.0096377,-0.056656,0.25363,-0.017291
0.053043,0.17262,-0.4569,-0.026466,-0.036438,-0.017971,-0.045937,0.014697
-0.0090985,0.074623,0.23015,0.024467,0.011437,0.013135,-0.078918,-0.0082692
0.015146,0.11069,0.0011589,0.15189,0.067275,0.060128,0.053165,0.023111
-0.078598,-0.14949,-0.16568,-0.18955,-0.05644,-0.033235,-0.024848,-0.0318
0.021194,-0.20567,0.21724,0.0016672,-0.00033395,-0.0013664,-0.031987,0.0067339
-0.068822,-0.025564,-0.15074,-0.062327,-0.022228,-0.031847,-0.023249,-0.025257
-0.0049274,0.08007,-0.10167,0.16597,0.0028369,0.0080128,0.063601,0.012963
0.025768,0.12113,0.23455,0.045824,0.051322,0.06338,0.0096377,0.027743
0.062959,0.021549,0.1638,0.052948,0.021499,-0.014321,-0.044593,0.011337
-0.0098791,0.0096068,-0.37713,-0.16563,-0.039976,-0.014247,-0.0053363,0.0028348
0.04995,0.10989,0.3983,0.013418,-0.031774,-0.045791,0.025899,-0.013379
-0.038552,-0.11453,-0.23237,0.010394,0.022471,0.00049986,0.0023124,-0.029471
0.037113,-0.077609,0.27374,-0.058657,-0.0023455,0.023221,0.033341,0.009303
-0.090402,-0.19357,-0.18826,0.024531,0.010989,0.006952,-0.052851,-0.0063257
0.039657,0.24829,-0.24511,0.10396,0.031393,0.030017,-0.0062542,0.017527
-0.0259,0.0055784,-0.052711,-0.1007,-0.050201,-0.032451,0.06375,-0.036208
0.0021285,0.054732,0.094525,0.0057052,-0.022453,-0.016354,-0.10067,0.035641
0.014722,-0.049662,0.060069,-0.028359,0.029139,0.023538,0.10204,0.0064346
-0.034485,-0.214,-0.026232,0.0095473,0.0034125,0.0089194,-0.03908,-0.006866
0.019113,0.13174,-0.10515,0.05806,-0.021226,0.0020504,-0.094365,0.026628
0.011886,0.041731,0.44377,0.078709,0.056892,0.018313,0.11585,-0.034148
0.053406,0.18706,0.051557,0.016805,-0.012318,-0.067481,-0.01003,0.013499
-0.051756,-0.25362,-0.2669,-0.12817,-0.0025492,0.018023,0.074855,0.0051899
0.039725,0.14824,0.048299,0.010107,0.01553,0.0092458,-0.074782,0.018935
-0.047822,-0.10063,-0.24101,-0.084971,-0.060013,9.868e-05,-0.12291,-0.093559
0.012948,-0.10264,0.06406,0.070047,-0.0029162,0.014267,0.13375,0.058735
0.025981,0.21216,0.045471,0.036934,0.022582,0.0051561,-0.031118,-0.0079573
0.0063405,0.00020274,0.15322,-0.0050974,-0.006992,-0.0035326,-0.1095,-0.042949
-0.069692,-0.06592,-0.23187,0.053107,0.033438,-0.019412,0.1722,0.095025
-0.0067751,-0.086594,0.20976,-0.061895,-0.0044263,0.020123,0.0092694,-0.023265
-0.015554,-0.16198,-0.13866,-0.068693,-0.050131,-0.041186,-0.1297,-0.02263
0.068485,0.12329,0.03667,0.064228,0.037042,0.030911,0.21593,0.0030639
0.019251,0.25454,-0.067024,0.032485,0.022731,0.017439,-0.23547,0.022172
0.024611,-0.056982,0.13061,-0.03082,-0.022822,-0.0037804,0.015766,-0.020581
-0.071512,-0.069491,0.10057,-0.00045053,0.017441,-0.0096382,0.094421,0.014763
0.035534,0.17697,-0.19413,0.069072,0.0027456,0.015189,-0.022988,0.0025825
-0.052892,-0.3267,0.14672,-0.087774,-0.067031,-0.062329,-0.0082031,-0.088836
0.037917,0.066695,-0.031724,0.029067,0.042427,0.070219,0.014047,0.091832
0.01863,0.012513,-0.2832,-0.080378,0.0030171,-0.0089887,-0.049642,-0.017898
0.014096,0.065144,0.10365,0.11514,0.017956,-0.041949,0.05888,-0.0037205
-0.022506,-0.032902,-0.090162,-0.0641,-0.037628,0.0028674,-0.027328,0.01759
-0.020571,0.047352,0.29067,0.0068061,0.016082,0.0085816,-0.026933,-0.023785
-0.034272,-0.1148,0.033582,0.085514,-0.008334,0.014517,0.0052607,-0.025807
-0.023896,0.005283,0.58177,-0.086002,0.0063225,-0.010426,0.092384,0.04314
0.042466,0.096096,-0.91851,-0.0079789,0.028732,0.035326,-0.031631,-0.035513
0.032521,0.064452,-0.2191,0.014684,-0.0037298,-0.0046053,-0.039133,0.0038134
0.040276,0.074457,0.10082,0.044359,0.0025517,0.0023851,0.030441,0.067113
0.003171,-0.29621,0.54122,0.0029289,-0.03063,-0.029849,-0.04181,-0.017894
0.038044,0.15477,0.15772,-0.046933,0.006125,0.015759,0.0098913,0.0061765
-0.12908,-0.018881,-0.36818,0.012304,-0.012017,-0.032633,-0.017116,-0.056304
-0.061288,-0.08371,-0.088769,-0.068895,-0.0066381,0.004871,0.049751,0.19303
0.092456,0.12362,-0.095125,0.022473,0.0070112,-0.01201,-0.17151,-0.30808
0.019275,0.055837,0.12312,0.06027,0.013675,0.03431,0.25732,-0.0044318
-0.0076131,-0.076174,0.17736,-0.0021438,-0.001996,-0.012078,-0.1711,0.081213
0.058581,-0.045558,0.084317,0.022693,0.022599,0.020876,0.097978,0.066648
-0.1259,-0.1096,-0.35934,-0.05304,-0.022024,-0.015334,-0.013959,0.045948
0.040535,0.052627,-0.038079,0.05136,0.020067,0.011775,-0.0076882,0.026821
0.034439,0.074446,0.052795,0.022744,-0.015656,8.8499e-05,0.029823,-0.022539
0.0042068,0.14361,0.17461,-0.084806,0.018713,0.01144,-0.066568,0.014175
0.043496,0.01787,0.32241,0.0095373,-0.017944,0.0061152,0.030354,-0.074961
-0.097799,-0.2719,-0.071083,0.00093745,-0.032237,-0.04762,-0.06278,-0.064215
0.025557,0.14097,-0.35332,-0.1339,0.0069136,0.021907,0.067997,0.038116
0.062011,0.021679,0.51311,0.24604,0.021426,-0.011717,-0.037865,-0.072704
-0.097682,-0.067474,-0.77549,-0.054029,-0.0040862,-0.015191,0.034488,0.095856
0.038924,-0.0012927,-0.16073,0.013356,0.04013,0.0044198,-0.034207,0.060013
0.026885,-0.021379,0.28514,-0.051282,-0.040785,0.008911,0.022788,-0.046757
-0.008375,0.029398,0.0064471,-0.11473,0.0036254,0.030332,0.018953,-0.020757
-0.066443,0.034836,0.34547,0.12013,-0.00593,-0.024496,-0.013793,0.10715
0.071765,-0.027658,0.064446,0.0048733,-0.022297,0.0087129,-0.090836,-0.061273
0.02363,-0.048237,-0.061622,0.015885,0.040588,-0.003038,0.08446,-0.049428
-0.054564,0.043347,-0.12804,-0.11286,-0.01263,0.01,0.058298,-0.068271
0.063618,0.15268,0.19696,0.1728,0.036595,0.023546,0.071889,0.10874
-0.0752,-0.15111,-0.13141,-0.080871,-0.015186,0.013195,-0.11804,-0.026163
0.028667,0.036697,0.13882,0.02404,-0.012107,-0.053209,-0.043698,-0.0041673
-0.015726,-0.027651,-0.2391,0.034058,-0.040482,-0.051343,-0.057299,-0.012674
0.017908,0.013906,-0.3847,-0.1759,0.00094429,0.041904,0.012816,0.026518
0.012186,0.043384,0.12422,0.042785,0.041652,0.015665,0.10437,0.027501
-0.009563,-0.079951,0.29822,0.049908,0.0034223,0.0031905,0.014811,0.005879
-0.031738,-0.097691,-0.20219,0.01002,-0.0043628,-0.010432,-0.020713,-0.0071487
0.00038665,0.014781,0.26832,0.056356,-0.0050555,0.030344,-0.017008,-0.12101
0.063444,0.20431,0.25275,-0.045237,0.0014821,-0.022055,-0.0046079,0.10955
-0.029986,-0.03533,-0.41846,0.0020773,-0.039271,-0.018447,-0.02206,-0.0029953
-0.0064047,0.023793,0.34872,0.0027049,0.036922,0.018247,-0.014434,-0.099337
-0.0063958,-0.1877,-0.54119,0.018722,0.019285,0.010139,0.049475,0.10944
0.040368,0.11967,0.19759,0.018455,-0.013916,-0.027223,0.020905,-0.0097341
-0.092682,-0.0073809,0.15466,-0.013998,-6.8727e-05,0.030802,-0.014744,-0.01197
0.047555,-0.061655,0.11488,-0.13335,-0.025027,0.0039473,-0.011252,-0.022798
0.039165,0.12777,-0.19082,0.051264,0.020643,-0.0069331,-0.016152,0.035325
-0.063213,-0.19799,0.19642,-0.0065598,-0.034902,-0.010374,0.0012596,0.029067
0.0685,0.21789,-0.52051,0.068719,0.050523,-0.0070057,-0.0062336,0.036223
0.043658,0.21067,0.12869,0.074437,0.01125,-0.012901,0.00033919,-0.1698
-0.11427,-0.35263,0.22527,-0.067281,-0.059059,0.0029726,0.013324,0.036294
0.0089001,-0.049742,-0.1174,-0.03616,0.026966,0.032828,0.0096491,0.069205
-0.047589,-0.2392,0.081355,-0.051259,-0.019898,-0.0012188,-0.017998,-0.10931
0.11494,0.22847,0.17659,0.11349,0.034559,-0.044081,0.0090568,0.15003
-0.0032703,0.12754,-0.2669,-0.026843,0.010511,0.014108,-0.010235,-0.089598
-0.050493,0.20048,0.35329,0.035108,0.009447,0.025427,0.018285,0.0237
0.035831,-0.045414,-0.22901,0.033506,-0.015475,0.037225,0.0089362,0.044544
-0.064689,-0.1348,-0.17952,-0.17997,-0.056283,-0.051669,-0.022573,-0.011897
0.030543,-0.077143,0.046318,-0.034579,0.012302,-0.006599,0.0017968,0.072415
0.00089956,-0.084981,0.24291,0.071931,-0.012492,-0.03835,-0.027555,-0.19548
0.041338,0.10628,-0.24043,0.038728,0.033749,0.048413,0.021862,0.043213
0.089047,0.21534,0.35235,0.14766,0.026286,0.019208,0.055932,0.11639
-0.12959,-0.21761,-0.47985,-0.12443,-0.011339,-0.0011835,-0.027254,0.0087217
-0.05985,-0.065283,0.20777,0.034867,0.030163,0.0025562,-0.024839,-0.068024
0.071951,0.13637,0.016714,-0.03894,-0.0057014,-0.0011714,0.016156,-0.034455
-0.077503,-0.28112,-0.19351,-0.03402,-0.033336,-0.028338,-0.037087,-0.08439
9.3168e-05,0.021189,0.20996,-0.0057974,-0.029655,-0.032377,-0.020401,0.04138
0.1567,0.32636,-0.023033,0.084132,0.0050433,0.0020806,0.01169,0.023485
-0.0059442,-0.053069,0.2946,-0.030324,0.00024211,0.027948,0.035881,0.1199
-0.10518,-0.040983,-0.25161,-0.099387,-0.0051205,0.045042,0.020957,-0.021757
0.046054,0.17113,0.40073,0.080082,0.035751,-0.017112,0.021511,-0.067315
0.040828,-0.093998,-0.65397,0.039527,0.036842,0.036676,0.013897,0.28542
-0.14503,-0.14699,-0.15628,-0.056701,-0.041008,-0.090504,-0.072435,-0.34914
0.10501,-0.063562,0.18541,-0.0051821,0.028656,0.085835,0.012347,0.11242
-0.021956,0.13674,0.2414,0.014629,-0.043302,-0.066812,-0.044264,-0.12073
0.083391,0.18669,-0.14938,0.088816,0.032201,0.0067544,0.039187,-0.088306
-0.10206,-0.43609,0.31998,-0.15755,-0.080609,-0.044363,-0.002532,0.32752
-0.030735,0.31117,-0.11531,0.2053,0.095156,0.038361,0.0029593,-0.11361
0.063956,-0.16727,-0.057625,-0.11939,-0.025977,0.028971,0.0014711,-0.049586
-0.059094,-0.13783,-0.19689,-0.053219,-0.045033,0.0059451,0.016804,0.022824
0.13236,0.25809,0.23671,0.068301,0.0385,-0.022926,-0.029039,-0.11194
-0.25157,-0.3487,-0.15167,-0.14492,-0.064066,-0.019027,0.012219,-0.091867
0.25033,0.36562,0.15731,0.088879,0.069283,0.024628,0.030769,0.32686
-0.034,0.011,-0.17551,-0.019012,0.032147,0.060089,0.025984,-0.097596
-0.027094,0.20219,0.19189,0.14081,0.011598,0.0081142,-0.04189,0.079045
0.074753,0.2468,0.09561,-0.0023556,-0.032061,-0.093139,-0.040633,0.010871
-0.096743,-0.50197,-0.36832,-0.027363,-0.0057808,0.052735,0.037214,-0.14094
-0.034756,-0.3628,-0.016073,-0.067996,-0.058609,-0.069756,-0.011491,0.0033762
-0.11497,0.32356,0.28281,-0.054919,0.05126,0.0714,0.032343,-0.12912
0.1545,-0.32044,-0.27043,-0.020139,-0.059059,-0.10845,-0.080642,0.14729
0.078448,0.5021,-0.053306,0.1688,0.063812,-0.013998,0.0097289,0.074124
-0.030197,-0.07361,0.10193,-0.034841,-0.0014834,0.051556,0.030797,0.06588
-0.053638,-0.12947,0.29809,0.018007,0.026982,0.042412,-0.016872,-0.30577
-0.053706,-0.027991,-0.021019,-0.16383,-0.045404,0.1074,0.10912,-0.038923
-0.014194,-0.27274,-9.8237e-05,-0.071348,-0.030555,-0.035149,-0.052395,0.08713
0.073091,0.397,0.19095,0.16375,0.0015695,-0.058228,-0.033265,0.18332
0.03638,0.17745,-0.3528,0.0031591,0.035384,-0.0025028,0.032834,0.078542
0.062973,0.012651,-0.098139,0.040797,0.023711,-0.0024934,-0.0034489,0.014869
-0.089768,0.079163,0.044428,0.17462,0.067509,-0.020583,-0.01786,-0.039855
-0.078693,-0.49452,-0.42716,-0.27614,-0.076197,-0.0029633,-0.026433,-0.19633
0.033087,-0.048942,0.40904,0.062101,-0.033223,-0.035724,-0.013512,0.051962
0.018525,0.12282,-0.14839,0.070694,0.031707,-0.032355,-0.033324,-0.10051
0.080483,-0.12263,0.27025,-0.24374,-0.053652,0.13329,0.10242,0.06487
-0.054454,0.47136,0.5972,0.25874,0.038823,-0.092042,-0.050654,0.033057
-0.01879,-0.1494,-0.3842,-0.10948,-0.018642,0.066537,0.039606,-0.0072838
-0.038533,0.032758,-0.64905,0.011418,0.040185,0.024242,-0.0089364,-1.9834e-05
0.082341,-0.26801,0.38175,-0.049629,-0.057419,-0.093267,-0.016259,0.18908
-0.038247,0.038237,0.044966,-0.049496,0.017324,0.057835,0.017588,-0.063865
-0.10282,-0.020844,-0.088142,0.098586,0.030486,0.016115,-0.0015587,-0.094114
0.14676,-0.042948,-0.078896,0.12955,0.029099,-0.031876,-0.027509,-0.11245
-0.070826,0.31082,0.16,0.012374,-0.002603,-0.0092248,-0.022035,-0.11923
0.032995,0.14364,0.20801,0.036128,0.052202,0.09063,0.09995,0.37694
0.14487,-0.3881,-0.59794,-0.18205,-0.10382,-0.1162,-0.068538,0.085881
-0.20501,-0.020078,0.2269,-0.21238,-0.057038,-0.0054411,-0.012392,-0.2672
0.16202,0.29219,0.1977,0.18772,0.043865,-0.030508,-0.036538,-0.04304
-0.20795,-0.31372,0.27404,-0.090556,-0.043361,0.082211,0.046586,-0.00069842
0.14573,0.29964,-0.21801,0.2894,0.15797,0.0286,0.034201,0.085435
-0.11266,-0.30028,-0.16368,-0.2032,-0.086265,-0.010784,0.012817,0.019452
-0.0058068,0.056198,-0.1043,0.041045,0.01327,0.011979,-0.0090152,0.074577
-0.0091601,-0.0072341,0.075595,-0.0018249,-0.011921,-0.081703,-0.085161,-0.24905
0.23007,0.36061,0.2892,0.096819,0.033662,0.068577,0.066449,0.18182
0.0020813,-0.21478,-0.19001,-0.039441,-0.052996,-0.10665,-0.061284,0.047552
-0.3095,-0.20096,-0.50972,0.017597,0.0015799,0.04161,0.016518,-0.1354
0.12386,-0.096292,0.22178,-0.11609,0.0020572,0.021329,0.026614,0.040147
-0.0025925,0.29633,0.44302,-0.050496,0.010867,0.097858,0.078209,0.12982
0.11538,-0.044844,0.24057,0.050457,0.0044645,-0.018559,-0.040173,-0.16234
-0.007364,0.12368,-0.28386,0.086173,0.029599,-0.078939,-0.05593,-0.030861
0.0033269,0.0058779,-0.20854,0.097362,0.03927,0.032733,0.014307,-0.0063917
-0.056439,-0.18688,0.083669,-0.25766,-0.10725,-0.059688,0.0054621,0.098919
-0.11683,-0.1107,-0.078584,0.077941,0.027505,0.064735,0.033863,0.15232
0.017356,0.29691,0.0091745,0.012222,-0.017412,-0.055545,-0.033873,-0.10423
0.11204,-0.15149,0.16164,-0.023991,-0.023219,0.0011146,-0.010447,-0.061791
-0.090061,-0.22143,-0.40757,-0.030505,0.01791,0.00046758,-0.028485,-0.13499
0.16168,0.43096,0.29634,0.27308,0.12155,0.099182,0.060977,0.15211
-0.077544,-0.23336,-0.17804,-0.013438,-0.024905,-0.030256,-0.0069202,-0.12298
-0.057534,-0.011561,0.14599,-0.18932,-0.062248,-0.082451,-0.051623,0.10161
-0.098763,-0.16217,-0.12404,-0.11644,-0.045306,0.05269,0.05269,0.0049396
0.24354,0.19638,0.67989,0.26553,0.088369,0.024262,0.0019818,0.10985
0.015443,0.53887,-0.2131,0.0020834,-0.012707,-0.065632,-0.031484,0.025224
-0.13555,-0.69146,-0.55865,-0.43062,-0.13738,0.033375,0.053945,-0.13979
0.0084792,-0.0045963,0.68542,0.1711,0.058366,0.0011285,-0.03099,-0.0022029
-0.029542,0.4023,-0.28807,0.1132,0.035717,-0.053079,-0.028889,-0.030096
0.00030843,-0.37828,-0.46298,0.030054,0.044754,0.073559,0.03627,-0.073926
-0.042187,-0.16708,-0.3356,0.0012032,0.0072059,0.028958,-0.0001319,-0.030791
0.054729,0.43482,0.42062,0.12914,0.01644,-0.085963,-0.068258,0.069311
0.09682,0.19438,0.45381,-0.14052,-0.029644,0.10315,0.10501,0.17251
-0.094463,-0.55035,-0.40082,-0.089341,-0.069089,-0.037046,-0.035124,0.0054664
0.09127,0.50022,0.44786,0.23518,0.093036,-0.022427,-0.035447,-0.018428
-0.071804,-0.3305,0.13486,-0.066046,-0.06678,-0.063867,0.0027517,-0.07239
-0.075505,-0.15651,-0.6378,-0.16525,-0.016991,0.0030992,-0.0060832,0.013784
0.048861,0.21266,0.3524,-0.054467,-0.014769,-0.0083809,-0.0068626,0.027559
-0.003876,-0.072286,0.24004,0.024807,0.01106,0.09775,0.071055,-0.18064
0.070103,0.12265,-0.57535,0.10489,0.045765,-0.01378,-0.037776,0.068477
-0.035045,-0.13243,-0.076476,-0.024005,-0.0036767,0.001207,0.018204,-0.0059601
0.07002,0.27012,0.59934,0.076545,0.050634,0.056882,0.027875,0.042444
-0.029982,-0.18056,-0.73765,-0.014928,-0.033505,-0.12042,-0.079383,0.07457
-0.070368,0.18345,0.63144,0.084171,0.0091241,0.023499,0.0085605,-0.0095291
-0.082881,-0.24365,-0.23642,-0.18164,-0.10343,-0.04329,-0.02115,-0.15375
0.1747,0.12809,0.037529,0.12394,0.10455,0.061314,0.049945,0.18978
-0.11738,-0.063452,0.074921,-0.023794,0.0072669,0.039787,0.018532,0.02149
0.041796,-0.17895,-0.34649,-0.094731,-0.02869,0.024474,0.009546,-0.088446
-0.041999,0.024024,0.24548,-0.042744,-0.058313,-0.078574,-0.047253,-0.0078791
0.022881,0.17987,0.11849,0.022495,0.019991,0.012019,0.020223,-0.18321
0.07311,-0.07615,0.17915,0.085496,0.019054,-0.01579,-0.0064369,0.079465
0.038696,0.039968,-0.26118,0.076393,0.001901,-0.036276,-0.033049,0.02853
-0.057055,0.28855,0.045183,0.050486,0.062862,0.045167,0.026787,0.31073
-0.12871,-0.46132,-0.21717,-0.25721,-0.11007,-0.012839,-0.006216,-0.091146
0.14331,0.22108,0.28482,0.083568,0.045907,-0.0065983,-0.0068045,-0.10802
-0.077659,-0.19525,-0.51369,-0.075182,-0.016056,0.032823,0.0094232,-0.178
0.16875,0.61744,0.79985,0.30589,0.1257,0.058281,0.034423,0.058501
-0.22707,-0.81036,-0.64233,-0.25746,-0.10737,-0.016837,0.013042,0.024463
0.086663,0.42681,0.074121,0.1098,0.026461,-0.005959,-0.024082,0.018664
0.079339,0.21116,0.54388,0.095112,0.026777,-0.042856,-0.015078,0.13728
-0.18556,-0.61386,-0.58334,-0.20782,-0.083204,-0.01109,0.023936,-0.18742
0.07434,0.0064172,0.10009,-0.10375,-0.061277,-0.043827,-0.055706,0.12503
0.00073603,0.34553,-0.060827,0.09465,0.053729,-0.0081178,-0.019518,-0.10326
0.078743,0.044107,0.39583,0.043314,0.04342,0.08883,0.070455,0.17557
0.035175,0.078447,-0.07611,0.085374,0.033149,0.013586,-0.0038139,-0.11654
-0.10685,0.018342,-0.038626,-0.045711,-0.01591,-0.037446,-0.022716,-0.058524
0.14399,0.1835,0.14153,0.25833,0.083814,0.022695,0.014576,0.12151
-0.17446,-0.56711,-0.69145,-0.27699,-0.12088,-0.07086,-0.039749,-0.070692
0.045752,-0.15529,-0.084038,-0.027283,0.0026795,-0.013089,-0.013542,-0.05147
0.014223,0.24771,0.44823,0.093475,0.024707,0.039585,0.030539,0.083199
