0.0021563,-0.010893,0.066452,-0.00045885,-0.0043399,-0.010928,-0.050683,-0.0061723
0.036977,0.070653,-0.028276,0.0082284,0.0035635,0.020099,0.07053,0.043007
-0.0058004,-0.043869,0.0080649,0.0085114,0.011541,0.012308,-0.049547,-0.0090661
-0.017331,-0.0031431,0.16627,0.01593,-0.011701,-0.011019,-0.021047,-0.053348
-0.037302,-0.010434,-0.46829,-0.055442,-0.011572,-0.01101,-0.055687,-0.05107
0.019617,0.0358,0.018908,0.0054489,0.011805,-0.019079,0.017763,0.052224
0.043577,-0.044027,0.082337,-0.019938,-0.0041805,0.019368,0.034849,0.014178
0.057768,0.070603,0.12233,0.048341,0.010716,-0.012835,-0.020143,0.10813
-0.10183,-0.073147,0.070461,-0.0082179,-0.021633,0.0016297,0.048307,-0.048723
-0.091122,-0.0061956,0.053099,-0.0019415,0.00040056,0.00048478,-0.056229,-0.065651
0.027975,0.045225,-0.030826,0.012547,0.014442,0.046498,0.096533,0.010759
0.11556,-0.035789,-0.033348,-0.0038653,-0.010602,-0.055387,-0.11776,-0.022166
0.0082936,0.071276,0.028649,0.018997,0.011369,0.0075216,0.043669,-0.0075917
-0.0041656,-0.063167,-0.12776,-0.04403,-0.0054507,-0.0068829,-0.067186,-0.030843
-0.046434,0.053065,0.058242,0.025671,0.0093409,0.010716,0.08112,0.096073
0.0066335,-0.072295,-0.063038,-0.021941,-0.006722,0.028868,0.011935,-0.048491
-0.055968,0.013751,-0.023478,0.00070453,0.0088477,-0.0074306,-0.048543,0.058753
0.0546,0.022003,0.075449,3.2658e-05,-0.014306,0.003006,0.12568,-0.028057
0.048968,0.0070254,0.015694,0.0075256,0.0018838,-0.026125,-0.075404,0.033948
-0.03413,0.023417,-0.014148,-2.9833e-05,0.0026766,0.022085,-0.027341,0.03277
-0.038736,-0.022617,0.073081,0.00094964,-0.011973,-0.039995,0.0039446,-0.18106
0.019296,-0.029511,-0.080904,0.010476,0.012582,0.014235,-0.051829,0.10258
-0.047697,-0.012861,-0.022214,0.0049653,-0.00964,-0.010346,-0.03806,-0.030787
0.033601,0.019554,-0.023957,-0.0080612,0.0072335,0.011553,0.10051,-0.010823
0.02869,0.020852,0.10124,0.010073,0.0084244,0.033379,-0.041775,0.11608
-9.0775e-05,-0.024669,0.016936,-0.019162,0.0016305,-0.0070893,0.012116,-0.078911
0.072047,0.062517,-0.0041567,0.013269,0.0023542,-0.015921,0.098274,0.022491
-0.1067,-0.030318,0.0059579,-0.017837,-0.012947,-0.0086786,-0.049117,-0.062904
0.0025381,0.0090812,-0.11737,0.020312,0.010359,0.014583,0.0069629,0.05663
0.0011946,-0.061661,-0.015024,-0.036177,-0.021468,-0.008774,-0.023168,-0.047747
0.0064917,0.030833,0.00055499,0.0083312,0.0010372,0.0070067,-0.038505,-0.031834
0.057691,0.013236,0.023468,0.0058097,-9.8774e-05,0.0070633,0.0075086,0.11995
-0.047975,0.018659,0.10886,0.019171,0.014374,-0.024355,0.0055314,0.024233
-0.0053449,-0.038394,-0.047565,0.0018768,0.005575,0.014264,0.041894,-0.085622
-0.017022,-0.016784,-0.00032711,0.0010019,-0.0029127,-0.0020406,-0.19525,0.070326
-0.027833,-0.0097844,0.0082756,0.00096596,0.0046153,-0.0028438,0.083891,-0.1812
0.064153,0.021996,0.0091363,-0.013953,-0.010896,-0.011422,0.20025,0.11168
0.071621,0.07083,0.001768,0.010736,-0.0026313,0.0036446,-0.033329,0.096484
-0.099201,-0.035361,-0.029914,-0.0033267,-0.0019491,0.026868,-0.038755,-0.094381
0.012416,-0.00017973,-0.070568,-0.025115,0.0066385,0.0036335,-0.042937,-0.015426
0.062384,-0.011791,0.04386,0.0077005,-0.00044836,-0.019188,-0.054248,0.052852
-0.12155,-0.016233,0.016786,0.0090749,9.9899e-05,-0.0026127,0.0048182,-0.11486
0.014938,0.040547,0.028425,-0.005414,0.0081869,0.0063488,0.047774,0.03768
0.12003,-0.052806,-0.014316,0.026725,-0.0074897,-0.015905,-0.0039008,0.12152
-0.10329,-0.0073397,-0.024862,-0.027314,-0.015681,0.00077363,-0.017618,-0.10402
0.0090117,0.0052853,-0.026163,0.019975,0.014914,0.017175,-0.048137,-0.028431
0.074197,0.03245,0.044516,-0.011095,-0.0015449,-0.013681,0.13895,0.13016
-0.056014,0.043612,0.062111,0.027918,0.013197,0.017527,-0.049991,-0.042286
0.032634,-0.062,-0.020597,-0.042654,-0.011023,0.024874,-0.013238,-0.022868
-0.089358,-0.025822,-0.047901,-0.011831,-0.0037416,-0.038422,0.015071,-0.031327
0.06252,0.043358,-0.0047994,0.034523,0.0039229,-0.00032185,-0.0663,0.056052
-0.027328,-0.033812,-0.032489,-0.020692,-0.011371,-0.016849,0.055567,0.03473
0.00035754,0.070807,0.048302,0.025736,0.012915,0.0059929,0.006162,-0.20607
0.098424,-0.033734,-0.0048144,-0.0058155,-0.0091905,-0.0018968,-0.10465,0.10578
-0.046039,-0.027751,-0.0043102,-0.0059418,0.00031923,0.0064733,0.059454,-0.015251
-0.027255,-0.005848,0.0031589,-0.021532,0.0021849,0.007641,0.05332,-0.06234
0.037148,0.038827,-0.021119,0.041115,0.019588,0.017054,-0.076339,0.48714
-0.071881,0.027225,0.056077,-0.013385,0.0053759,0.089106,0.10746,-0.42206
-0.018505,-0.041395,-0.038303,-0.021046,-0.01726,-0.10467,-0.10706,-0.0010723
0.072407,0.027853,0.055425,0.033698,0.0062065,-0.0098602,0.13069,-0.085547
-0.033209,-0.069748,-0.13131,-0.0445,-0.025822,-0.025062,0.022882,0.10663
-0.038054,0.0099469,0.088994,0.017796,-0.011674,-0.040876,-0.024857,0.15501
0.10518,0.056763,-0.01039,0.03311,0.025453,0.067862,-0.28609,-0.079066
-0.056276,-0.092348,-0.054819,-0.061022,-0.0078724,0.02014,0.22404,-0.10896
0.063772,0.048084,0.11927,0.040117,0.013688,0.0036793,-0.2278,-0.01822
0.0045187,0.072808,-0.035563,0.00060632,0.012295,0.026428,0.34416,0.085946
-0.15586,-0.040863,0.0035784,0.015755,-0.0040519,0.010285,-0.019578,-0.1229
0.043586,-0.026888,-0.029303,-0.031638,-0.019665,-0.044805,-0.27097,0.18426
0.016911,0.060095,-0.040553,0.014665,0.012271,-0.037362,0.18437,-0.11762
0.16254,-0.045802,0.063835,0.0062389,-0.0021452,-0.0064907,-0.052086,0.0094772
-0.22269,-0.0091372,-0.04366,-0.017809,-0.00062235,0.016586,0.13606,0.37618
0.11895,0.021027,-0.049664,-0.01834,0.00099335,0.00071112,-0.14324,-0.28556
0.01544,-0.057532,0.046811,0.012551,-0.013124,0.086628,-0.0011271,-0.19704
-0.095913,0.020173,0.05918,0.020256,-0.0040684,-0.084947,0.037146,-0.024598
0.097128,-0.0042524,-0.019711,-0.0030021,0.012429,-0.013996,0.14976,0.089431
-0.17136,0.079614,0.0057059,0.020875,0.0050612,0.041585,-0.20323,0.17529
0.082721,-0.072421,-0.052278,-0.041022,0.012878,0.026935,0.10309,-0.0095164
0.10132,0.047112,-0.014624,-0.0013409,-0.010974,-0.011307,-0.20392,0.129
0.18128,0.023952,0.086434,0.030377,0.0038704,-0.049943,-0.029013,-0.62733
-0.1225,0.029979,0.023184,0.030548,-0.01282,0.028024,0.090657,0.43312
-0.23909,-0.1533,-0.041418,-0.047789,-0.014067,-0.011867,0.28984,0.11558
-0.058072,-0.04102,-0.053539,-0.032758,-0.0075713,-0.036767,-0.0079964,-0.25164
-0.015636,0.14097,0.017631,0.02104,0.038019,0.086295,-0.4425,0.10466
0.19427,-0.0831,-0.077848,-0.019053,-0.010034,-0.033058,0.40064,0.090081
0.18994,0.1078,0.10588,0.050271,0.020175,-0.042969,-0.17429,-0.10873
-0.074988,0.026735,0.015053,0.02605,-0.01198,0.10373,0.01149,0.19504
-0.13199,-0.099451,-0.044545,-0.04473,-0.012775,-0.11615,-0.0041501,-0.061253
0.1117,0.026149,0.014114,0.017673,-0.0056634,0.039746,0.08223,-0.048663
-0.22054,0.036156,-0.058106,-0.021109,-0.0062648,0.016771,-0.13674,-0.17146
0.017715,-0.030708,0.15334,0.01078,0.016713,-0.044521,-0.029116,0.026561
0.11334,-0.15923,-0.16403,-0.04293,-0.022599,0.043171,0.12328,-0.19296
0.033012,0.25953,0.09087,0.059933,0.047755,0.052998,-0.1173,0.25199
0.025015,-0.1499,-0.03598,-0.032215,-0.029975,-0.030993,0.37415,-0.057301
0.056965,-0.0051701,-0.022309,-0.0069174,0.0020495,-0.029416,-0.45675,0.25584
0.011339,0.044758,0.12282,0.010733,-0.012451,-0.036237,0.24994,-0.12133
-0.26752,0.054034,-0.054802,0.028399,0.020186,-0.0046704,-0.21586,-0.027011
-0.11404,-0.0013,-0.0012153,0.00682,-0.025181,-0.020628,0.32663,0.26936
0.28655,-0.035723,-0.09159,-0.022977,0.038767,0.11131,0.011554,-0.19777
-0.016184,-0.080689,0.041708,-0.0065044,-0.006912,0.0084857,-0.36287,0.020293
-0.058567,0.0045354,-0.029996,-0.022022,-0.029575,-0.10242,0.071704,-0.47044
0.21644,0.11888,0.069699,0.039809,0.040974,0.13027,-0.59817,0.24241
-0.17385,-0.049232,-0.10302,-0.047509,-0.0453,-0.15274,0.84601,0.041847
-0.15826,0.017099,0.046912,0.013048,0.0085363,0.095526,0.33266,0.046819
0.38826,-0.016481,0.051539,0.026363,0.0073067,-0.03887,-0.1171,0.36159
-0.14437,-0.015441,0.020392,-0.015179,-0.009734,-0.032349,-0.32651,-0.5579
-0.14025,-0.079685,0.007627,0.029217,0.020122,0.0058577,-0.25164,-0.014232
-0.12461,0.10462,0.10594,0.0034363,0.011121,0.1071,-0.11354,0.048065
0.048809,-0.0086353,-0.18599,-0.014282,-0.020976,-0.087966,0.43045,0.425
-0.21627,-0.10705,-0.017784,-0.0081907,0.0098412,0.045576,-0.16625,-0.10458
0.47577,0.1364,0.039447,-0.017197,-0.0057844,-0.047129,0.15264,0.21383
0.33297,-0.053861,-0.014463,-0.017672,-0.0053742,-0.022566,-0.12597,0.0097007
-0.10034,-0.016839,0.03191,0.021831,0.026655,0.11902,-0.24914,-0.46137
-0.38831,0.087561,-0.10948,-0.023544,-0.050368,-0.083525,0.39527,-0.15274
-0.15611,0.044648,0.14859,0.057162,0.029134,0.018127,0.13757,0.07844
-0.011435,0.046487,-0.028611,0.013789,0.0072896,-0.060403,-0.2163,-0.13063
0.11952,-0.14342,-0.12463,-0.075904,-0.037857,0.024751,-0.18177,0.16326
-0.13347,-0.15841,0.16539,0.03754,0.018572,-0.0074532,0.076375,0.16111
0.0081676,0.19037,0.075281,0.033164,0.035783,0.093226,-0.20893,-0.11719
0.39263,-0.10958,-0.16187,-0.011534,-0.017677,-0.055796,0.79642,0.35359
-0.32108,0.0086776,0.053727,0.0045338,0.029863,0.045653,-0.31566,0.080125
0.39101,0.018974,0.06381,-0.020397,-0.032683,-0.11015,-0.20291,-0.12894
0.019324,-0.20669,-0.21164,-0.047116,-0.017857,0.0002679,-0.57718,-0.16204
-0.24438,0.21821,0.046212,0.034257,-0.0036813,0.072157,0.55352,-0.025268
0.0095615,0.28006,0.063059,-0.041121,0.0022873,0.050742,-0.021373,-0.11448
-0.019937,0.010109,0.034114,0.032348,0.0082324,-0.04066,0.14414,-0.058011
-0.25,-0.093457,0.092878,0.036766,0.014572,-0.0068508,0.12893,-0.099015
0.083654,-0.19784,-0.056067,-0.027258,-0.017381,-0.10573,-0.26948,0.25603
-0.041933,-0.20521,-0.090277,0.012382,0.0063731,0.084523,0.17597,-0.013315
0.3283,0.20115,0.016335,0.014862,0.0077669,0.001369,-0.010806,-0.12206
-0.13104,0.088622,-0.01456,0.018661,0.010081,0.043188,-0.33701,0.39426
-0.21416,-0.13852,-0.10197,-0.023934,0.0051514,-0.047952,-0.067441,-0.21962
0.33089,-0.0047046,0.11588,-0.0044578,-0.03095,-0.076944,0.16606,-0.040697
-0.11239,0.06803,0.11714,-0.0096325,0.018427,0.1278,0.36447,0.1026
-0.029044,0.025406,-0.089976,-0.039955,-0.011266,0.042515,-0.15113,-0.025551
0.36816,0.20413,0.017091,0.013832,0.0046287,-0.07528,0.22114,-0.099061
-0.43108,-0.043223,-0.0091498,0.003551,-0.0043369,-0.0070049,-0.67515,-0.10433
-0.10109,-0.25452,-0.085979,0.03133,0.016629,-0.065133,0.37795,0.23062
0.35633,0.032618,0.056175,-0.019289,-0.025897,0.047475,-0.16,-0.14947
-0.22353,0.02301,0.08519,0.016501,0.0014021,0.0031712,-0.080088,-0.0097385
-0.27749,0.0075945,0.10688,0.022125,0.0053636,0.013497,0.31823,-0.075355
0.27449,-0.035178,-0.28757,-0.048904,-0.005625,-0.022498,0.07883,0.17132
0.044485,0.0057021,0.080376,0.037902,0.0079552,0.0050562,-0.012273,0.029403
0.1683,0.084467,0.02372,-0.0066687,0.015112,0.010505,-0.2936,0.0009097
-0.10919,0.060848,0.083686,0.004522,0.00023517,0.079819,0.39746,-0.13143
-0.012572,-0.04221,-0.13466,-0.038397,0.0021663,-0.052817,-0.24354,0.015895
-0.2909,0.12556,-0.041071,-0.010969,-0.0029386,-0.004916,-0.081493,0.099001
0.22754,-0.219,0.017239,0.047225,4.2551e-05,-0.034639,-0.0652,0.10134
0.19004,-0.14068,-0.065495,-0.020487,-0.028451,0.021811,-0.18885,-0.30675
0.016517,0.14716,0.14255,0.019981,0.012746,-0.08569,0.27264,0.15409
-0.1861,-0.0062169,0.055627,0.0044478,0.0062114,0.010065,-0.40945,0.067815
-0.19383,0.17055,0.14061,-0.0045249,-0.0012207,0.16074,0.63582,-0.090805
-0.095049,-0.097626,0.003285,-0.014508,-0.017229,-0.13358,0.26878,-0.10444
0.366,0.063142,-0.10313,-0.0016736,0.028756,0.14274,-0.4736,0.28387
-0.023171,-0.11317,-0.19889,-0.035854,-0.02702,-0.1198,0.34134,-0.1527
-0.029135,0.030151,0.063874,0.00062138,-0.012401,-0.007384,-0.20705,-0.023144
0.082268,-0.013352,-0.027763,0.030014,0.041547,0.0030738,-0.49299,-0.053116
0.092943,-0.092994,0.002898,0.013465,0.0020681,0.020594,0.18046,0.11806
-0.11265,0.075414,0.072132,0.036885,0.017532,0.029253,0.37154,-0.18783
-0.26622,-0.0047782,-0.042783,0.0062836,-0.013774,0.044507,-0.08557,0.28844
0.12784,0.18545,-0.08713,-0.016218,-0.013888,-0.066437,0.013086,-0.13169
-0.4033,-0.16336,0.12348,-0.046641,-0.021973,-0.06897,-0.69664,-0.1663
0.33114,-0.064425,-0.00088805,-0.030588,-0.030207,0.052966,0.67256,0.1535
0.075427,0.10087,0.02641,0.0084095,0.039664,-0.004762,-0.21808,0.0070334
0.28294,-0.065572,0.041683,0.039232,0.023794,-0.054084,0.15163,0.17481
-0.032477,0.09163,0.051246,0.0075114,-0.030703,0.13202,0.53507,0.0075407
0.14135,-0.093602,0.098998,0.030852,0.032604,-0.039954,-0.73776,-0.2221
-0.12182,0.071025,-0.29544,-0.077845,-0.020599,0.062787,0.33352,-0.16301
-0.43555,-0.19167,-0.026621,-0.013622,-0.026343,-0.15377,-0.064299,0.028498
-0.037236,0.19234,0.0036703,0.067321,0.062001,0.099025,-0.034139,0.04006
0.056321,0.078487,0.035293,-0.01492,-0.021553,-0.030877,-0.3041,0.11401
0.072448,0.30722,0.10622,0.059497,0.011652,0.0029751,-0.047534,0.15643
0.083764,-0.52987,-0.056884,-0.061644,-0.041875,-0.010653,0.21851,0.018254
0.10115,0.019687,0.031428,0.0037613,0.020743,-0.025025,-0.13248,-0.16099
0.025939,0.011508,0.14631,0.036344,-0.0037015,0.061423,0.71803,0.00020134
-0.31958,-0.37246,-0.27271,-0.065852,-0.02917,-0.094967,-0.27888,0.055388
0.41671,0.44116,0.065423,-0.045095,-0.00072689,0.068412,-0.0080969,0.043104
-0.10991,0.010223,-0.064168,0.067619,0.042904,0.12194,-0.072877,-0.29407
0.098461,0.11079,0.1444,-0.00061703,0.00050731,-0.16879,-0.70062,0.11564
-0.14832,0.22895,0.074546,0.016534,0.0051892,0.0086576,0.023045,0.040225
-0.094821,0.076469,0.11693,0.01046,-0.0053548,0.076021,0.93557,0.0060779
0.12472,-0.30737,-0.35385,0.0052938,-0.0075953,-0.052728,-0.19497,0.094345
-0.020949,-0.61772,0.052212,-0.06093,-0.024961,0.020846,-0.50621,-0.020548
-0.31161,0.24741,0.021987,0.030858,0.036263,0.03126,0.48156,-0.19636
0.075614,0.20293,0.015904,-0.00051491,-0.019278,-0.060228,0.19321,0.27824
0.15934,0.14053,0.15865,-0.0067706,-0.0041074,0.035927,-0.56395,-0.089879
-0.21415,0.029754,-0.17488,0.003917,-0.011964,-0.039049,0.50908,0.025294
0.1987,-0.1918,0.038756,0.023227,0.019686,0.0045194,-0.92217,-0.082342
0.49922,0.068654,0.018397,0.011517,0.036188,0.042142,0.39286,-0.017726
-0.0095947,0.082466,0.060996,-0.031771,-0.056199,-0.11342,-0.085517,0.067432
-0.18962,0.12791,-0.052173,-0.0055269,-0.0075186,0.07683,0.6094,-0.071757
-0.24639,-0.048373,-0.032127,-0.0037785,0.025867,0.081171,0.39605,0.20357
-0.32187,-0.14484,-0.05094,0.01247,0.02034,0.00037606,-0.8472,-0.2244
-0.25172,-0.19503,0.016044,-0.019146,-0.00089652,-0.0024659,0.10929,-0.019174
0.46603,0.10477,0.12147,0.018851,0.00097245,-0.053288,0.1129,-0.10106
0.17822,-0.049672,-0.13369,-0.013799,-0.021146,-0.019933,-0.026627,0.35249
0.01316,0.12468,0.3359,0.031695,-0.020517,-0.027591,-0.56799,-0.17944
0.0046669,0.068047,-0.32183,-0.031904,0.0028289,-0.052476,0.5992,0.024234
-0.041466,0.080485,-0.044677,0.014265,0.033352,0.085922,-0.32729,0.035586
0.21783,-0.14737,0.058067,0.006087,-0.014705,0.021518,0.13229,-0.14445
-0.21977,0.098125,-0.0053367,-0.017571,-0.01611,-0.049266,0.41064,0.062235
-0.037493,-0.079489,0.10184,0.021138,0.013751,0.046286,-0.40405,0.07653
-0.32535,-0.054136,0.0055946,0.036006,0.020393,0.0038283,0.5877,0.20138
0.20953,-0.099197,-0.04301,-0.012196,-0.0038635,-0.044095,-0.76261,-0.4014
0.079426,-0.08286,-0.16023,-0.053142,-0.0042702,0.034473,0.56764,0.10176
0.15693,0.3913,0.14677,-0.016292,-0.00427,0.074181,-0.31323,-0.010016
0.058063,-0.085791,-0.074843,-0.041854,-0.019538,-0.0045486,-0.12483,0.089888
-0.084216,-0.0095857,0.18259,0.05037,-0.0032735,-0.11708,-0.16439,0.08054
-0.12778,0.054286,-0.050183,0.034296,-0.002433,0.063852,-0.017736,0.017087
-0.21837,-0.013689,0.015214,0.0743,0.045401,-0.063512,0.63579,0.049558
0.10077,0.2153,-0.090644,-0.056119,-0.00047419,-0.014301,-0.11761,-0.45225
0.083702,-0.58591,-0.00099562,-0.044669,-0.030753,-0.029613,-0.09054,0.20249
0.046835,-0.094175,-0.059614,0.014468,0.009202,0.001342,-0.29908,-0.11552
0.18873,0.077531,0.054211,-0.0042588,-0.021258,0.087794,-0.03297,0.034307
-0.050942,0.27766,0.013045,0.031403,0.02631,0.12928,0.77763,0.30244
-0.16337,0.010308,-0.065196,-0.027443,-0.012121,-0.11579,-0.30466,-0.083966
0.038827,0.19976,0.0074452,-0.0013967,0.011931,0.13381,-0.35686,0.31944
0.17191,-0.028917,0.066809,-0.023357,-0.026499,-0.27862,-0.38456,-0.28636
-0.28899,-0.076578,0.073015,0.023961,0.013224,0.083624,0.32638,-0.060384
0.060753,-0.19772,-0.006706,-0.015465,0.0060657,0.063469,0.4593,-0.21617
-0.14776,0.070696,0.028772,0.046149,0.022265,-0.035108,-0.5137,0.080387
0.10715,-0.066152,-0.13514,-0.033118,-0.024216,0.05306,0.18303,0.0082588
-0.0045226,0.33237,0.16392,0.075058,0.046214,-0.062823,0.35463,0.13032
0.35109,-0.0097998,-0.23116,-0.097969,-0.071191,-0.054551,-0.43807,-0.14606
-0.039153,-0.20195,0.039215,0.0024995,-0.0014239,0.062483,0.48088,-0.046141
0.017908,-0.34277,-8.3532e-05,0.0092194,0.021223,0.069803,-0.8235,0.34506
-0.39352,-0.15361,0.043974,0.031471,-0.0031059,-0.079265,0.78327,0.051051
-0.11818,0.43457,0.025944,0.01447,0.027321,0.084098,-0.12675,-0.27288
0.1877,0.24863,0.019177,0.0050298,-0.0045263,-0.065179,-0.46494,-0.06617
0.197,-0.39379,-0.02849,-0.059345,-0.028228,0.027436,0.56989,0.082616
-0.15094,0.2521,-0.0061538,0.024562,0.018754,-0.036649,-0.51585,0.07691
0.075913,0.12328,-0.0073599,-0.01651,-0.0042418,0.023758,0.012899,0.00014361
0.14571,-0.04158,-0.072393,0.012985,0.0355,0.013438,-0.1382,-0.21188
-0.34542,-0.021706,0.22592,0.011722,-0.041842,-0.082971,0.86283,0.26068
0.15917,-0.15206,-0.15491,-0.035749,-0.025479,0.039598,-0.90136,-0.073412
0.18439,0.084355,0.15636,0.042503,0.029765,0.029974,0.63643,0.077392
-0.23767,-0.098461,-0.023407,0.019819,0.014397,-0.088122,0.18386,-0.10344
-0.0052254,-0.10887,-0.07941,-0.03374,-0.0091751,0.11506,-0.15327,-0.1581
0.076684,-0.094426,-0.1844,-0.040408,-0.025394,-0.063814,-0.77725,-0.10511
-0.10223,0.33129,0.15473,0.13223,0.059451,0.15605,0.41708,0.013035
0.19102,-0.18557,-0.2782,-0.12554,-0.059337,-0.022799,-0.12191,0.42601
-0.13123,0.17376,0.24714,0.045454,0.04797,-0.16338,0.24844,0.033466
0.038509,-0.36621,0.07097,-0.026667,-0.032592,0.015284,-0.44798,-0.17324
0.073405,0.222,0.025405,-0.0057495,0.0038331,0.0054865,0.56065,0.14694
0.011026,0.18221,-0.050581,0.022668,0.016857,-0.0047735,0.32513,-0.0021392
-0.16516,0.12268,0.024319,-0.011224,-0.032295,0.047795,-0.30113,-0.26549
0.10722,0.016499,0.13297,0.033705,0.028555,-0.031242,-0.42693,-0.25651
-0.046151,-0.19607,-0.26507,-0.0609,-0.042515,0.016651,0.33866,0.32641
-0.061332,-0.05172,0.077717,0.025467,0.0203,-0.019123,-0.018719,0.059484
-0.045808,-0.18014,-0.13866,0.034941,0.037349,0.072194,-0.37074,-0.16748
0.033664,0.064094,0.26224,0.029729,-0.0071171,0.016445,0.62468,-0.026446
0.26471,-0.22612,-0.097566,-0.06877,-0.019631,-0.062507,-0.56231,0.0609
-0.1563,0.36453,0.053006,0.0592,0.015031,0.029321,0.43977,0.32905
0.11461,0.010859,-0.17035,-0.05562,-0.0051473,0.02508,-0.22205,-0.065864
-0.087243,0.11524,0.005257,-0.022967,-0.018096,-0.07606,-0.61847,-0.053794
-0.13036,-0.075951,0.16618,0.024205,0.0070999,0.038171,0.5623,-0.0020398
-0.15717,-0.23859,-0.030135,-0.015581,-0.01569,-0.10053,0.22409,-0.37112
0.15844,0.27874,0.050955,0.045453,0.015067,0.016688,0.11178,0.074549
0.40048,-0.13925,-0.16653,-0.0032461,0.013558,0.086538,0.0060814,0.10267
-0.29986,0.015926,-0.031939,-0.036275,-0.012158,-0.1161,-0.63565,0.020639
0.0017285,-0.076555,0.10513,0.056081,0.024185,0.12089,0.42291,0.026698
0.02381,0.034792,0.074261,-0.046272,-0.033305,0.040326,0.24527,0.21725
-0.12345,0.073947,-0.10033,-0.0073248,0.0032149,0.064087,0.36412,-0.085445
-0.071109,-0.20459,0.089117,0.040037,0.0012213,-0.089636,-0.81101,-0.16951
0.13646,0.39859,-0.11601,-0.013746,0.015602,0.023546,-0.51634,-0.12102
0.05687,-0.20621,0.11098,-0.0048621,-0.0082404,-0.18332,-0.078869,-0.034833
0.0054396,-0.037946,-0.098907,-0.019505,-0.0078305,0.046726,0.98935,0.61844
-0.17179,0.12746,0.11967,0.043675,0.024513,0.056906,-0.095733,-0.33527
0.22182,-0.23465,-0.039561,-0.049818,-0.020792,0.011135,-0.00082697,-0.069948
-0.13392,0.13377,-0.046342,0.0046917,0.0044438,-0.0044799,-0.2529,0.053459
0.23644,-0.01554,-0.010294,0.035429,0.0062329,0.080757,0.48674,-0.20012
-0.34906,0.093807,0.045721,0.011337,0.0078235,-0.04518,-0.16359,0.2087
0.0048741,-0.29225,-0.14264,-0.036086,-0.022143,0.09474,-0.46963,-0.42985
0.32595,-0.12288,-0.018948,-0.028458,-0.021186,-0.21784,0.44286,0.48747
-0.28778,0.37884,0.15302,0.011,0.018571,-0.021695,-0.78631,-0.31891
0.36381,0.20768,0.12487,0.04335,0.019116,0.11296,0.87363,0.40996
-0.37747,-0.072534,-0.10232,-0.0017161,-0.0038034,-0.017073,-0.085141,0.065021
0.11274,-0.0085388,0.057776,0.039736,0.020224,0.14259,-0.12336,-0.29189
0.0072359,-0.17923,-0.12952,-0.074722,-0.025943,-0.056923,-0.93634,-0.045056
0.058424,-0.34365,-0.12601,-0.025085,-0.032947,-0.045811,0.99862,-0.016716
-0.17544,0.45781,0.18423,0.032069,0.030386,0.00365,0.01551,0.080165
-0.033909,-0.24473,0.049759,0.041756,0.031126,0.013164,0.0016253,0.064146
0.18252,-0.10066,-0.14027,-0.01969,-0.023051,-0.1812,0.19463,-0.15977
-0.22584,0.33449,0.14409,-0.01178,0.00053986,0.10064,-0.58241,-0.084398
0.43062,-0.15113,-0.08254,-0.0048572,-0.023186,0.015462,0.57216,0.40746
-0.20699,0.37108,0.0073282,-0.0066642,0.0073105,0.0090343,-0.25876,-0.26174
0.031988,0.0092585,-0.055245,0.0063962,0.029578,0.14405,-0.40391,0.049632
0.090305,-0.45654,0.011217,-0.0045166,-0.018764,-0.056221,0.55309,0.030449
-0.23068,-0.23823,0.051037,0.015539,-0.02036,-0.13921,-0.70298,-0.20834
-0.051581,0.17917,0.080649,0.035575,0.024978,0.17555,0.15526,0.26463
0.28101,0.076585,-0.17247,-0.037909,0.00023949,-0.081498,0.45597,0.021272
-0.00034487,0.26641,-0.043363,-0.0093735,-0.0085067,-0.059399,0.22193,-0.27294
-0.25557,-0.16545,0.32034,-0.0036164,-0.0012004,-0.0083639,-0.28397,0.12518
-0.24188,0.35915,-0.2135,0.0029623,0.014323,0.064069,-0.54403,-0.13547
0.16711,-0.22988,0.058776,-0.01297,-0.016727,-0.036674,0.51065,0.15583
0.15268,-0.017818,-0.073294,0.0032948,-0.00076758,0.026416,0.17223,0.068475
0.30207,-0.13617,0.0079067,0.051675,0.038566,-0.026726,-0.082111,0.2728
-0.024784,-0.55171,-0.056574,-0.016461,-0.031727,-0.03879,-0.10454,-0.24093
-0.24216,0.17541,0.12428,-0.037334,-0.024288,0.076866,0.50313,-0.27942
-0.046177,0.53962,-0.0039235,0.051225,0.045204,0.062634,-0.79645,-0.024174
0.062185,0.17529,-0.034821,-0.032352,-0.02633,-0.058403,0.3142,0.2109
