0.21118,0.019825,0.023534,0.014412,0.011981,-0.016852,-0.24885,-0.033253
0.041864,-0.046774,0.018409,0.0437,0.0028597,0.0082175,0.23129,0.079514
-0.44841,-0.083604,-0.10364,-0.068357,-0.045671,-0.044381,-0.071156,-0.41052
0.20036,0.043401,0.18199,0.077069,0.038625,0.067417,0.40948,-0.3079
-0.026368,0.038663,-0.022344,0.0038067,0.01391,-0.031547,-0.46549,-0.23556
-0.024006,0.012611,-0.06013,-0.053423,-0.0023692,0.041314,0.079103,0.22388
-0.022465,0.05959,0.01358,0.030657,0.028961,0.082586,0.53822,0.63636
0.10045,-0.054764,0.041619,-0.017191,-0.024959,-0.09555,-0.90356,-0.37069
-0.1664,0.090872,-0.00071006,0.014091,-0.0080648,0.030082,0.51169,0.9769
-0.09348,-0.16071,-0.075653,-0.062956,-0.037814,-0.11096,-0.40797,-0.4547
0.39023,0.095602,0.034507,0.048499,0.049569,0.020452,0.48445,-0.6364
0.21259,0.01502,0.079302,0.028008,-0.0039754,0.02613,-0.83387,0.49211
-0.15389,-0.1063,0.035574,0.0081536,-0.0032904,0.054904,0.79463,-0.35148
0.074363,-0.0030023,-0.22062,-0.034811,0.0047006,0.068156,-0.2155,-0.13522
-0.49902,0.0048245,0.0077045,0.00031226,-0.034632,-0.097768,0.18085,-0.45027
0.058667,0.081859,-0.074379,-0.019664,0.011658,-0.044137,0.041152,0.49616
0.11951,0.064891,0.12082,0.022097,0.010918,0.057303,0.13017,0.41874
-0.12168,-0.060814,0.12564,0.023746,-0.013286,-0.066942,-0.54859,-0.31296
0.40726,-0.075775,0.033841,-0.03054,0.0094034,0.059444,0.19319,0.26209
-0.33688,-0.0030252,-0.077592,-0.02367,0.0086101,0.014182,-0.043727,0.48508
-0.1307,0.1027,0.070406,0.052185,0.038863,0.023336,0.098924,-0.64873
0.14761,-0.14981,-0.0015148,-0.0059733,-0.0094188,0.078606,0.63654,-0.38735
0.13454,0.058665,-0.093033,-0.018225,-0.027027,-0.13287,-0.72607,0.64654
-0.02719,0.078157,-0.034491,0.015758,-0.01401,-0.048699,-0.27364,-0.37892
0.3111,-0.038376,-0.19423,-0.052055,-0.024919,0.026582,0.12599,0.40252
-0.13322,0.17621,0.29511,0.075663,0.018702,-0.086288,0.16227,-0.52255
-0.33135,-0.076013,-0.1041,-0.053751,0.00014575,0.14451,-0.067176,-0.14126
0.17499,-0.15455,0.07149,0.0054335,0.0058849,0.032076,0.58309,-0.10294
-0.30388,-0.027015,-0.050148,-0.0042699,-0.0026754,0.022169,-0.40553,0.24028
0.28568,0.10591,-0.083255,0.018892,0.029441,0.021316,-0.62266,0.62887
0.1001,-0.080344,0.10742,0.0046358,-0.014918,-0.15792,1.0676,0.035206
-0.15623,0.019949,-0.062554,0.030956,0.035887,-0.0077987,-0.62206,0.014492
-0.13771,-0.10481,0.21191,0.011647,-0.013917,0.080861,0.8096,-0.6389
-0.12387,-0.021889,-0.085586,-0.0849,-0.032112,-0.07186,-0.65233,0.14832
0.19866,0.098186,-0.019236,0.014343,-0.011497,0.057197,-0.40533,-0.11434
0.34501,0.21548,-0.15383,-0.050428,-0.0072807,0.061467,0.34885,-0.14421
0.055296,0.1081,-0.038705,0.056285,0.019244,-0.028146,-0.23177,0.10765
-0.40822,-0.15083,0.12082,0.0059124,0.0054232,-0.0088652,0.049691,0.55859
0.30984,0.010779,0.080924,0.094888,0.021608,-0.029424,-0.032611,-0.15373
-0.27067,-0.053646,0.17675,0.0025131,-0.010132,0.02717,0.93448,-0.25707
0.26212,-0.2786,-0.32595,-0.10741,-0.019186,-0.089141,-1.0285,0.046025
-0.20118,0.090891,0.050406,-0.00053442,-0.013029,0.059211,0.62043,-0.28905
-0.38458,0.030935,-0.1768,-0.051616,0.0086608,-0.019807,0.15658,0.46008
0.27925,-0.011353,0.17431,0.052388,0.014891,0.025538,-0.66831,-0.23331
0.023196,0.11603,0.11369,0.023177,0.02926,0.031308,0.016107,-0.12227
-0.22423,0.026998,-0.099093,-0.0055827,-0.018484,0.036616,0.78592,0.31319
0.47227,0.038759,0.021255,0.0059613,0.0044471,-0.013225,-0.27145,-0.24388
0.24117,-0.032055,0.052835,0.0037079,-0.019206,-0.040086,-0.86186,0.11472
-0.42469,-0.14332,0.049382,-0.0042438,-0.027035,-0.051701,0.2259,0.24097
0.066147,0.29264,-0.02199,0.060186,0.035565,-0.0009993,-0.27205,-0.038042
-0.25204,-0.44247,-0.15541,-0.13147,-0.06586,-0.012681,0.73927,-0.51344
0.27843,0.33822,0.022285,0.053022,0.043603,0.0073478,0.46162,0.53087
0.17411,0.11767,-0.037141,0.034878,0.074778,0.12969,-0.96231,-0.32968
-0.071283,-0.12932,0.2125,0.086868,-0.011537,-0.09864,0.31593,0.043123
-0.21249,-0.20921,0.14622,-0.12749,-0.035802,0.080155,0.42888,-0.18854
-0.36152,-0.053309,-0.40727,-0.046073,-0.013751,0.07215,0.013282,0.39583
0.043682,-0.0067158,-0.2597,-0.044048,-0.054785,-0.22446,0.040408,-0.087474
0.37957,0.09343,-0.0042295,0.050434,0.0052387,-0.052054,-0.25159,-0.17811
0.12536,0.45686,0.78877,0.30774,0.13526,0.19082,-0.71459,0.12364
-0.18452,-0.449,-0.31914,-0.30333,-0.11759,-0.019209,0.61758,0.30219
0.13275,0.10102,0.13122,-0.0093292,0.043851,-0.010112,-0.64217,-0.46219
0.22061,0.10567,-0.041928,0.010026,-0.028602,-0.031646,0.89015,0.45679
-0.12932,0.0016926,-0.082442,0.12971,0.04024,0.017987,-0.69478,-0.087099
-0.10977,-0.085782,0.13432,-0.03303,-0.022959,-0.056353,0.030597,-0.6299
-0.42883,-0.022695,-0.13999,0.068905,0.039624,0.065689,0.37474,0.16789
0.12757,-0.32227,-0.44055,-0.20465,-0.068953,-0.02225,-0.42076,-0.080897
0.09384,0.11251,-0.13661,0.0063823,0.010566,0.0076693,0.67666,0.33727
-0.0039981,0.21493,0.3253,0.085714,0.020208,0.084709,0.73258,0.20465
0.022823,0.019473,0.084014,-0.028211,0.0066752,-0.065075,-0.45792,0.10616
0.23616,0.036151,0.22948,0.056041,0.016663,-0.051572,-0.39131,-0.11743
0.30506,0.11725,0.34072,-0.020433,-0.012501,-0.0080467,-1.0012,-0.11891
-0.24397,-0.28501,-0.24109,-0.023262,-0.034099,-0.067664,0.39908,-0.12964
-0.16691,0.16305,-0.052834,0.039205,-0.0092014,0.097457,0.95442,0.018039
-0.055923,0.036358,-0.1334,0.033138,0.069897,0.14342,-0.99703,-0.053688
-0.19767,-0.15292,-0.41283,-0.066244,-0.054697,-0.03922,0.72411,-0.19734
0.052473,0.053042,0.22658,0.075554,0.046652,-0.13792,-0.69895,0.041072
-0.17447,-0.20736,0.10768,-0.14432,-0.079202,-0.11346,0.63737,0.32789
0.57493,0.15073,0.10286,0.085714,0.06777,0.16731,-0.23908,-0.15414
0.17003,0.23686,-0.045431,-0.0003252,0.011096,0.048645,-0.22536,0.48883
-0.36995,-0.21335,0.071925,-0.042821,-0.014671,-0.015648,0.53459,-0.021535
0.061215,0.083401,-0.040135,0.099671,0.0063704,0.053382,-0.25716,-0.48756
-0.35937,-0.11267,-0.078519,-0.063775,-0.050405,-0.14959,0.11948,-0.040368
0.061105,-0.15857,-0.16946,-0.086344,-0.0205,-0.037696,0.55992,-0.17121
0.30401,0.30693,0.0054791,0.14283,0.08871,0.053942,-0.82425,-0.04422
-0.22845,-0.11362,0.028857,-0.11725,-0.066187,-0.038206,-0.47643,0.24549
0.31747,0.095368,0.47318,0.016954,-0.016291,0.14687,1.1619,0.10905
-0.065711,-0.11409,-0.22441,0.053282,0.050777,-0.06319,-0.6597,0.21385
-0.12172,0.18576,0.081767,0.030151,0.025229,0.010211,0.11816,0.062117
0.083779,-0.14802,-0.15193,0.047889,0.015771,0.037399,0.052003,0.10129
-0.047215,0.21049,0.084612,0.050235,0.0294,-0.006844,-0.40638,0.053445
-0.2851,-0.36525,-0.21399,-0.19097,-0.13,-0.092953,0.018441,-0.7474
0.32642,0.12421,0.088514,0.033929,0.029123,0.090316,0.17368,-0.1981
0.11146,-0.078328,-0.22938,-0.088297,-0.0091823,-0.07478,0.4374,0.44886
-0.34701,-0.041546,0.13614,0.059475,0.028553,0.044858,-0.072361,-0.30603
0.28524,0.18994,0.18595,0.03247,0.0020785,-0.11217,0.18884,0.49236
-0.25003,-0.029946,0.008242,0.011327,0.013581,0.088668,-0.61337,-0.2951
0.14954,0.074235,0.15301,0.036213,-0.014315,-0.04593,0.0034534,0.0025225
-0.1003,0.066187,-0.36059,0.10034,0.0050502,0.017183,0.6753,0.15377
0.041816,-0.14761,0.07247,-0.17054,-0.0058749,0.084095,-0.30721,0.47726
0.25023,-0.0053881,0.11154,0.036481,0.023545,-0.055507,-0.81793,-0.20481
-0.23053,-0.10246,-0.084711,-0.075431,-0.062917,0.13717,1.0511,0.20024
0.023295,-0.042494,-0.077247,0.055953,0.039158,-0.22178,-0.77528,-0.49715
-0.057332,0.28931,0.33753,0.10202,0.040199,0.15506,0.52805,0.030183
-0.33121,-0.17968,-0.45825,-0.070639,-0.013557,0.015833,0.076965,-0.37995
0.49062,0.20481,0.31486,0.029596,0.010074,-0.094239,-0.13598,-0.034351
0.25909,-0.097568,-0.2288,-0.074253,-0.030005,0.026875,-0.077829,0.25612
0.0045285,-0.032476,0.18847,0.086404,-0.0011729,-0.097702,-0.60537,-0.066513
-0.42233,-0.20856,-0.12471,-0.10548,-0.036089,0.024715,0.83128,0.66775
-0.311,0.008798,0.23433,-0.008856,-0.024893,0.020291,-0.21025,-0.64468
-0.005102,0.1457,0.14571,0.0096991,0.0018857,-0.023498,0.45221,0.26615
0.2382,0.088112,-0.32911,0.1071,0.13099,0.17613,-0.56238,0.4962
0.20109,-0.012281,0.17808,-0.059804,-0.066557,-0.098382,0.21574,-0.5795
0.47821,0.26146,-0.26686,0.14219,0.019113,0.012914,-0.4397,0.18583
-0.39071,-0.52598,-0.28361,-0.14611,-0.010266,-0.021366,-0.24782,-0.4447
-0.35061,0.12662,0.25151,-0.01067,-0.02204,-0.02235,0.77483,-0.043907
0.41122,-0.069666,0.0090274,-0.045441,-0.024461,-0.030423,0.54092,0.45666
-0.51141,0.13406,0.25955,0.077392,0.036514,0.070023,-0.57622,-0.068857
-0.16543,-0.0066437,-0.18993,-0.080072,-0.019537,0.0040249,-0.57046,-0.081261
0.44887,0.2237,0.018873,0.098878,0.048853,0.059472,-0.34934,-0.2437
-0.0052643,0.03213,0.47514,0.019947,-0.024541,-0.0063834,1.1334,0.44514
0.35363,-0.34317,-0.39085,-0.020572,0.0098805,-0.15427,-0.19238,0.041305
-0.077787,0.11777,0.17803,-0.0076172,-0.012096,0.015229,0.049651,-0.2198
-0.12941,0.037549,0.048804,-0.019777,-0.05912,-0.074413,0.33048,-0.2049
-0.052334,-0.19412,-0.417,-0.072969,-0.013699,0.070873,-0.65146,0.20297
0.036416,0.14999,0.17698,0.074927,0.062078,0.046594,-0.90815,-0.3097
-0.46299,-0.014061,0.035908,0.017817,0.028,0.080553,0.52473,0.44289
0.077584,-0.20681,-0.63927,-0.079892,-0.014057,0.048206,0.69626,0.20855
-0.299,0.21557,-0.012623,0.094766,0.053257,-0.035215,-0.5107,-0.45256
0.46537,0.076228,0.4472,0.0032415,-0.035664,-0.030181,0.79965,0.1685
0.64605,0.17411,0.4569,-0.0024148,-0.04651,-0.05536,0.19233,0.27374
-0.42921,-0.20852,-0.059779,-0.10147,-0.03404,-0.057564,-0.74584,-0.48043
0.27586,-0.14194,-0.26976,0.018872,0.040801,0.0088998,0.22024,-0.21739
-0.35281,0.091904,0.29635,0.046313,0.014048,0.026186,-0.16487,0.09699
-0.14882,0.023195,0.034967,-0.0034627,-0.0047321,0.017651,-0.15359,0.28662
0.15634,0.11186,0.3032,0.15076,0.023777,0.030582,-0.27588,0.18325
0.028253,-0.23647,-0.61744,-0.17859,-0.064229,-0.020237,-0.050521,-0.15554
-0.15091,0.24376,-0.19062,0.024011,0.090835,0.053513,-0.12697,0.27966
-0.18388,-0.29847,-0.10049,-0.061769,-0.073413,-0.083388,0.86126,-0.62828
-0.1916,0.067493,-0.28304,0.032848,0.036787,-0.024215,0.02917,0.32231
0.581,0.053734,0.03307,0.034486,-0.016166,0.059322,-0.30793,-0.19933
-0.072221,0.12214,0.32376,-0.017758,-0.0059044,0.065534,0.74019,0.32689
0.078626,0.077869,0.274,0.10263,0.043882,0.001905,-0.53263,-0.071238
-0.13731,-0.24337,0.11083,-0.088901,-0.062388,-0.022571,0.11915,-0.099794
0.15348,0.11846,0.34366,0.0089611,0.01098,-0.13316,-0.7228,0.14563
0.025566,0.005637,-0.10315,0.0052941,0.037245,0.06073,-0.12381,0.031935
-0.11173,0.096124,-0.013968,0.032664,0.016324,0.020306,-0.13933,-0.22845
-0.075631,-0.23676,-0.17619,-0.08874,-0.051758,-0.02737,1.0912,-0.062072
0.013191,0.16188,-0.11143,0.047362,0.028439,0.0042463,-0.91433,-0.10533
-0.049766,-0.10718,-0.56483,-0.027608,-0.039762,0.037547,1.0654,0.091573
0.025721,-0.083189,0.06737,-0.039969,-0.029581,-0.044405,-0.19457,0.12607
-0.15526,0.17948,0.050911,0.088615,0.051331,0.039498,-0.43588,-0.039013
-0.18127,-0.029477,0.10192,0.014473,0.031138,0.077751,-0.17496,0.11918
0.33622,-0.037456,0.096013,-0.004711,0.011268,0.05382,0.36002,0.11311
0.26947,0.12485,0.26133,0.030717,0.014851,-0.20525,-0.098457,0.16411
-0.1907,-0.20634,0.098161,-0.1532,-0.099176,-0.0051902,-0.0051033,-0.0075226
-0.082429,0.14857,0.1977,0.083565,0.028074,0.051653,-0.33738,-0.28266
0.15523,0.072068,-0.15704,0.029516,0.013344,-0.011685,0.068731,-0.25139
0.096769,-0.1785,-0.20971,-0.011068,0.012569,0.10172,0.65149,-0.20422
-0.20017,0.052759,-0.073402,0.00071894,0.017817,-0.076428,-0.75963,0.11041
-0.0062488,0.1017,-0.11996,0.033787,-0.0020528,0.071864,0.93856,0.42322
-0.23977,-0.16413,-0.01007,-0.067619,-0.054515,-0.14772,-1.0726,-0.10372
-0.020627,0.060777,0.026365,-0.013647,0.0093969,0.062724,0.38049,-0.089249
0.39258,0.0511,-0.020369,0.016998,0.026273,0.016641,0.4553,0.17511
-0.077254,-0.16045,0.067935,-0.021544,-0.026651,-0.011859,0.020169,0.083594
0.080136,0.060354,0.23704,0.012218,0.015278,0.016613,-0.721,-0.10454
-0.45234,0.17558,0.12074,0.087573,0.043099,0.06294,-0.23658,-0.046236
0.26608,-0.18141,-0.12359,-0.045381,-0.036763,0.017371,0.73103,-0.22044
-0.051126,0.1143,-0.29959,-0.0042006,0.0099959,-0.073803,0.11059,0.24442
-0.043326,-0.023996,0.023249,-0.016208,0.0034011,-0.04715,-0.48259,-0.20218
0.32821,0.043083,-0.037313,0.05823,-0.010099,0.003042,0.64412,0.40528
-0.055556,-0.014026,0.15185,-0.031898,-0.015355,-0.025142,-0.42667,-0.24012
0.14622,0.03774,0.24699,-0.013971,0.018451,0.03221,-0.54218,-0.11588
-0.24151,-0.24,-0.2287,-0.044693,-0.010563,0.073544,1.029,0.059681
-0.018222,0.082145,0.052448,0.00092727,-0.00099944,0.0052128,-0.60586,-0.15725
-0.26327,0.067016,-0.12885,0.021743,0.015882,0.0070278,0.2561,0.15731
0.05505,-0.026799,0.10194,0.0028462,-0.022298,-0.061526,0.092841,0.013229
0.048218,0.043836,-0.16951,0.015377,0.0096558,-0.020683,-0.10796,-0.072484
-0.18684,-0.12653,0.04112,-0.041492,-0.02868,-0.050091,-0.95091,0.13477
0.36114,0.25933,0.17933,0.10614,0.058153,0.061181,0.63197,0.17299
0.2576,-0.20505,-0.074853,-0.057247,-0.018865,0.039626,0.24743,-0.05378
-0.019084,0.026402,0.060339,-0.0085101,-0.0098105,0.01792,0.42279,-0.087403
-0.062145,0.18686,0.069948,0.03302,0.022632,0.0036898,-0.46524,0.10845
-0.33317,-0.060908,-0.052961,-0.050575,-0.0077202,-0.042314,-0.12837,-0.51512
-0.20073,-0.069457,-0.19792,0.021255,-0.030796,-0.018648,0.56314,-0.044873
0.27099,-0.12824,-0.11369,0.021448,0.015725,-0.011244,-0.73924,0.41025
-0.16183,0.13033,0.18532,-0.0033018,0.022401,0.050376,0.6699,0.1799
0.21039,-0.2535,-0.010907,-0.091875,-0.041959,-0.07567,-0.91793,-0.3353
0.41786,0.096962,0.047937,0.0062254,-0.0053011,0.048497,0.83668,0.26541
-0.32913,0.30854,0.31449,0.080755,0.031067,0.016979,-0.33477,-0.023715
-0.15586,-0.28916,-0.46256,-0.070689,-0.018514,-0.029375,0.082165,-0.25587
-0.03882,0.25781,0.26954,0.12279,0.041516,0.03445,-0.31065,0.022873
-0.18082,-0.034978,-0.053914,-0.010349,-0.0074146,0.012909,-0.027443,0.24228
0.19191,-0.15277,-0.075565,-0.040402,-0.0089551,-0.078833,0.11352,-0.20754
0.063833,-0.011087,-0.10932,-0.053549,-0.0099497,0.094554,0.58325,0.22712
0.17667,0.099349,0.14118,0.020092,-0.010411,-0.045698,0.43877,-0.17368
-0.033124,0.012943,-0.018951,0.039398,0.013068,0.038937,-0.63772,-0.075178
0.0032582,-0.091692,-0.010337,-0.042972,-0.033303,-0.050282,-0.50265,0.037307
0.10459,-0.050939,-0.24528,-0.00081845,0.022303,-0.039898,-0.28526,-0.00080741
-0.44894,-0.083345,0.39525,-0.021866,-0.02332,0.015782,0.25283,0.31831
0.045739,0.20245,-0.16533,0.089107,0.07971,0.062772,0.36556,-0.12972
0.08208,0.010597,0.066082,-0.050694,-0.028147,0.0082578,0.21214,-0.13282
0.27988,0.037518,0.21464,0.019768,-0.011141,-0.052985,-0.32351,-0.27533
-0.021219,-0.020507,-0.36082,-0.011863,-0.0022511,0.012823,0.25734,0.2257
-0.37166,-0.084635,0.033951,0.0030117,-0.0015792,-0.035755,-0.42406,-0.18299
0.013924,-0.045064,0.13989,-0.068263,-0.048191,0.0048214,0.49385,0.31971
0.13874,-0.11258,-0.21608,0.047875,0.022076,0.064229,0.38743,0.13984
0.12938,0.31428,0.051092,0.046807,0.037527,0.0092017,-0.57732,-0.16137
-0.13183,-0.014779,0.32374,-0.040218,-0.032887,0.010775,0.056523,0.17176
0.078934,-0.10799,-0.18718,0.036734,0.029754,-0.088404,-0.82158,-0.26955
0.13978,-0.08305,-0.09835,-0.019313,-0.0010275,0.093283,0.46217,-0.081401
0.021289,-0.026422,0.044252,-0.052208,-0.015878,-0.10932,0.068512,0.070544
-0.079654,-0.0011259,-0.062903,0.03957,0.016331,0.029504,0.08143,-0.11891
0.11281,0.15639,0.0032729,0.029509,-0.0061486,0.0171,0.31137,0.19468
-0.608,0.047201,0.15787,-0.043167,-0.013207,0.033087,0.043813,0.099009
0.22557,-0.13385,-0.27038,0.001496,0.0028002,0.0074711,0.26489,-0.036314
0.13061,0.23006,0.46079,0.03884,0.010531,-0.0513,-0.89366,-0.11489
-0.14709,-0.34563,-0.28979,-0.055772,-0.029075,-0.0252,0.06447,-0.23592
0.249,0.076666,0.039379,0.014849,0.009077,0.0085681,0.4306,0.15686
0.058527,-0.073054,-0.10766,-0.0069058,0.015777,0.097743,-0.02832,0.17327
-0.03412,0.1901,0.088141,0.050871,0.014661,-0.030419,-0.029549,0.17964
-0.19744,0.02293,0.0085587,0.0083277,-0.0018833,-0.016109,0.34368,-0.16204
0.21085,0.027494,0.05144,-0.017702,-0.0024392,-0.09357,-0.71634,-0.20627
-0.14523,-0.24904,-0.087976,-0.074591,-0.04939,0.080767,0.22754,0.098448
0.092155,0.099671,-0.057702,0.04021,0.021376,-0.040432,-0.13474,0.030519
-0.017039,0.057882,-0.005376,0.013635,0.014524,0.11247,0.076701,0.095942
-0.069504,0.078527,0.077795,0.017085,0.00026663,-0.031613,0.57943,0.20842
0.033558,0.15363,0.067749,0.073686,0.056568,-0.051591,-0.88485,-0.34172
0.071312,-0.31833,0.0042557,-0.11353,-0.066773,-0.010592,0.58931,-0.41116
-0.058888,-0.087088,-0.065445,-0.013143,0.0050429,0.020696,0.20292,0.034886
-0.10702,0.01198,0.1399,-0.023223,-0.017217,-0.020283,-0.64971,0.12503
-0.0017686,0.17485,-0.21592,0.083334,0.022589,0.0073552,0.34517,0.65887
-0.13992,-0.043242,-0.063096,-0.052271,-0.016201,-0.044311,-0.087112,-0.034253
0.32414,-0.0014517,0.074358,0.015766,0.0070678,0.044129,-0.3563,-0.064255
0.095211,0.081169,0.15676,0.022126,0.029975,0.078053,0.98552,-0.16751
-0.044332,0.086621,-0.14459,0.05281,0.013575,-0.035685,-0.42711,-0.034235
-0.015885,0.037181,0.33384,0.021725,-0.010738,0.00024324,-0.10805,-0.31551
-0.17116,-0.19338,-0.29111,-0.10269,-0.050615,-0.040458,0.21113,-0.036597
-0.26078,-0.28574,-0.19927,-0.070784,-0.027765,-0.048341,-0.63692,0.012678
0.30806,0.21269,0.1407,0.054636,0.042332,0.0077267,-0.40341,0.16065
0.073238,0.15349,0.049466,0.062443,0.034763,0.06494,1.2092,0.28303
-0.16185,-0.025409,0.19156,-0.00054474,0.0042095,0.013435,-0.44535,0.052407
0.17954,-0.096713,-0.29969,-0.0092771,-0.018197,0.0010034,-0.013052,-0.11687
0.0336,0.088778,0.26373,-0.041756,-0.017056,-0.035597,0.2507,-0.2876
-0.24135,-0.14016,-0.21934,0.0037318,-0.016104,-0.01898,-0.097776,0.27383
0.26036,0.17007,0.19677,0.010136,0.031221,0.0033682,-0.47966,-0.1132
0.085724,0.066625,-0.11261,0.024428,0.023086,0.077975,0.22212,0.12092
-0.33467,-0.090895,-0.069028,0.023216,-0.017229,0.025188,0.87421,-0.29744
-0.13206,-0.028743,-0.031557,-0.02475,-0.019413,-0.099816,-0.78944,0.14003
0.08613,-0.18391,0.062553,-0.02574,-0.0067236,-0.03047,-0.10461,0.028334
-0.084556,0.17875,0.041536,0.020234,-0.0022431,0.023593,0.25801,0.12703
0.19291,-0.064861,0.19437,-0.050871,-0.0054928,-0.068974,-0.77753,-0.24159
0.32471,0.062702,-0.18238,0.026618,0.030928,0.091629,0.55736,0.20558
-0.0029434,-0.023918,-0.12824,0.034019,0.013747,0.029806,0.57831,-0.11607
-0.073561,0.026883,0.22338,0.0026392,-0.025444,-0.043172,-0.62607,-0.057503
-0.17876,-0.07461,-0.1281,0.0028231,-0.0162,0.051958,0.18806,0.12317
-0.12525,0.029625,-0.26917,-0.074811,0.0023094,0.024987,0.31006,0.065431
-0.16382,0.25176,0.29968,0.10564,0.037552,-0.024204,-0.30009,0.0019286
0.24552,-0.15252,0.062391,-0.057439,-0.020382,-0.027202,-0.027249,0.016631
0.0037575,0.064841,0.28425,0.0062218,0.030989,0.014238,-0.38186,-0.10314
0.044364,-0.17567,-0.40215,0.0075278,-0.012105,-0.041781,0.35197,0.016497
0.051244,-0.15585,-0.082699,-0.053546,-0.033007,-0.00050721,0.41361,-0.17156
-0.43278,0.030835,0.078814,0.0026474,-0.0086078,-0.057027,-0.73853,-0.19008
0.29005,0.080673,-0.15146,0.027588,-0.0014715,0.047386,0.45586,0.53259
0.21241,0.041788,0.21927,0.083626,0.035474,-0.045282,-0.52069,-0.18163
0.020111,0.19656,-0.019453,-0.032574,-0.022362,0.11177,0.72884,0.067124
-0.10302,0.10041,0.062209,-0.0087459,0.013059,0.012035,0.00044951,-0.040611
0.15834,-0.26207,-0.035988,-0.071648,-0.013953,-0.0076878,-0.11231,-0.15321
-0.13088,0.054331,0.10726,0.013005,0.0064612,-0.017389,-0.49935,0.1661
-0.35036,-0.08337,-0.032163,0.026523,0.0043225,-0.048527,-0.15888,-0.14655
0.17646,0.028071,-0.14222,0.0081861,0.026652,0.015487,0.59163,0.24313
0.042295,-0.063869,-0.043218,0.013024,0.0030974,0.048856,0.27149,0.0055331
0.013931,-0.0065014,-0.015767,-0.021058,-0.035274,-0.019513,-0.49798,-0.13369
0.10996,0.13915,0.050719,-0.0077333,0.005023,-0.057397,-0.26737,0.12237
-0.3452,-0.12539,0.064035,-0.024825,-0.032545,-0.0025875,0.46679,-0.34237
0.098117,-0.0099149,-0.154,0.05282,0.015835,-0.0034943,0.23029,-0.018078
0.24842,0.15791,0.17892,-0.0013855,0.024973,0.026105,-0.75736,0.035196
0.2177,-0.08334,0.031887,-0.0079467,0.002559,0.07101,0.70583,0.14776
-0.2273,0.093031,0.021543,0.017197,0.011025,-0.040217,-1.0004,-0.0072918
-0.040053,0.028572,-0.017477,0.018999,-0.019965,-0.041623,0.90014,0.20252
-0.073542,-0.09181,-0.016646,-0.065356,-0.02009,0.051322,0.40135,0.064286
0.06084,-0.098757,-0.1419,-0.032948,0.0028656,-0.050481,-0.33948,-0.034715
-0.092118,0.036996,0.019279,0.053666,0.033321,0.043402,-0.43003,-0.051561
-0.12796,-0.060646,-0.018434,-0.02419,-0.022425,-0.0032498,0.05494,-0.18518
0.053559,0.1083,0.096345,0.014889,-0.0080735,-0.011029,0.074551,-0.031705
0.20939,0.13863,-0.081146,0.077327,0.060806,0.058932,0.036304,-0.16976
0.11247,-0.2255,0.12991,-0.071128,-0.057911,-0.090289,-0.024302,0.042774
-0.13589,-0.067438,-0.0033669,-0.031989,-0.0047642,-0.060136,-0.23348,0.24973
-0.035761,0.26414,0.020616,0.0619,0.0094139,0.087138,0.29164,-0.036895
0.038017,-0.14206,-0.10916,-0.0082961,-0.0074397,-0.038797,-0.050463,0.07006
-0.031341,0.060063,-0.086882,-0.0083008,0.015114,0.085735,0.29364,-0.0038538
-0.21189,-0.018524,0.056816,-0.031933,-0.00094259,-0.039167,-0.53901,-0.037449
0.09104,-0.1037,-0.053151,0.022358,0.022585,0.039544,0.50754,-0.13918
-0.035563,0.077623,0.17612,-0.017246,-0.031472,-0.045547,-0.32633,0.26852
0.4093,0.047558,0.047721,0.021233,0.0087299,-0.0056713,0.1424,-0.042669
0.020225,-0.016418,-0.03419,-0.002707,0.002487,0.049544,0.13387,-0.059648
-0.335,-0.031209,-0.07189,-0.018659,-0.019062,-0.044073,-0.10915,-0.36336
-0.10129,1.4241e-05,0.096705,0.028102,0.022074,-0.052059,-0.12483,0.24659
0.057458,-0.043064,-0.14683,-0.01871,-0.022692,0.010232,0.28442,0.056904
-0.17134,0.21966,0.0020342,0.075184,0.041798,0.010367,-0.86911,0.034444
0.32126,-0.27625,-0.11975,-0.088778,-0.034611,-0.004422,0.52317,-0.087781
