-0.029546,0.13015,0.021564,0.021518,0.017115,-0.011143,0.0027239,0.0030985
0.039787,-0.047497,-0.014828,-0.016538,-0.006634,0.0033312,0.0041927,0.012005
-0.060379,-0.24689,-0.023178,-0.0010412,-0.0070305,-0.0061472,-0.018156,-0.0108
0.13113,0.051916,-0.058551,-0.049355,-0.015259,-0.0081185,-0.0020938,-0.010811
-0.034309,-0.36553,-0.042664,0.01045,0.0078041,0.005508,-0.0024653,-0.01935
-0.041645,0.29488,0.04864,0.022413,0.015332,0.0037897,0.0041616,0.0027117
-0.024633,0.18792,0.052499,0.010451,0.0073468,-0.0051745,0.0023181,0.00089065
0.039021,-0.076895,-0.029602,-0.024854,-0.0083384,0.01008,-0.015519,0.014554
0.015326,-0.1306,-0.008638,0.010821,-0.00049059,-0.0050319,0.0057021,-0.010645
0.028272,0.10027,0.015132,0.00074305,-0.016006,0.011954,0.01166,0.019343
-0.063431,-0.036392,0.011325,0.015471,0.0075999,-0.0094445,-0.0051638,-0.004664
-0.017786,-0.14554,-0.0041466,0.00031452,1.0178e-05,-0.014825,0.010081,0.0033213
0.024925,-0.0043771,-0.0081745,-0.01373,-0.0075241,0.034521,0.010527,0.0041312
-0.028217,0.085278,0.0061642,0.011949,0.016243,-0.018023,-0.011786,-0.018093
0.042736,-0.0082426,-0.0014903,-0.0013294,-0.0068342,-0.0087226,-0.0024289,-0.0011658
0.0047723,0.26102,0.0064366,-0.0072473,0.0013242,-0.00030897,-0.00077848,0.015516
-0.054874,0.12457,0.028515,0.0015605,0.0094021,-0.00069916,-0.014953,-0.015214
0.044487,-0.39853,-0.03795,-0.014222,-0.006111,0.0057699,0.0094932,0.0001935
-0.024741,0.014839,0.0017084,0.023516,0.0094136,0.0036466,-0.0057072,0.0069821
0.042081,0.14909,-0.040064,-0.025626,-0.006545,0.0088393,0.0097275,0.013037
0.025576,-0.046024,-0.006487,-0.020613,-0.030517,-0.017361,0.0011813,-0.0048679
-0.012866,-0.087501,0.017501,0.023446,0.0078981,0.0035468,5.4011e-05,-0.015163
-0.019955,0.10368,0.017546,0.013308,0.015077,-0.0062168,0.0065412,-0.0018397
-0.044026,-0.26635,0.026199,0.019695,0.0067824,0.0083011,-0.018212,-0.019205
0.0073975,0.049105,0.005497,0.003778,0.014381,0.00036705,0.0041074,0.018985
0.00060626,0.14105,-0.012582,-0.026596,-0.024563,-0.014404,0.0033309,0.011338
0.083648,-0.26721,-0.01996,-0.0090809,-0.0084851,0.018509,0.01079,0.012527
-0.1105,0.56178,0.030049,0.0091587,0.023485,0.012866,-0.0047529,0.006723
0.020379,0.097713,0.01188,0.012133,0.00091583,-0.00047438,-0.0042893,-0.014243
0.032066,-0.46541,-0.051839,-0.031781,-0.021661,-0.014109,-0.0035513,-0.0039375
0.043085,0.25979,0.017684,0.017715,0.010277,-0.0049545,-0.0026794,-0.0018536
-0.023259,-0.30148,-0.014771,0.011937,-0.0049839,-0.0044873,0.013801,-0.016136
-0.0015582,0.025724,-0.02489,-0.025826,-0.0050605,-0.0049547,-0.001124,0.015547
-0.10165,0.28414,0.041546,0.021564,0.025604,0.025011,-0.0084971,-0.0083417
-0.0025168,-0.13061,0.028056,-0.0099196,-0.0067492,-0.031513,-0.00056531,-0.0016589
0.11636,-0.36805,-0.026301,0.012646,-0.016127,-0.0022968,-0.0085848,-0.010948
-0.003159,0.33817,0.019292,0.01911,0.021029,0.019278,0.014365,0.011052
0.059935,0.037158,-0.022312,-0.037204,-0.027921,0.010082,0.0058712,0.033449
-0.10966,0.19313,0.0056055,-0.0076456,0.0012961,0.0093664,-0.0027009,-0.0059942
0.049113,-0.4168,-0.05268,-0.0091977,-0.00047676,-0.006261,-0.011227,-0.013403
-0.035439,-0.10957,0.022097,0.028624,0.029454,-0.0056402,-0.0039672,-0.020053
-0.036303,0.29703,0.042874,0.019996,-0.010333,-0.012397,0.0035411,0.0051493
0.014595,0.18706,-0.0056825,-0.0037882,0.013046,0.0044822,0.0035291,-0.00055505
0.023347,-0.11941,0.024977,-0.011506,-0.025414,-0.0099198,0.011613,0.017211
0.021535,0.016708,-0.044908,-0.018864,-0.00078371,0.0067116,-0.0035199,0.011261
-0.029181,-0.047711,0.011006,0.0052766,0.0086922,0.0073826,-0.010723,-0.010853
0.028412,-0.15146,-0.018528,-0.0017015,-0.012766,-0.00014237,0.013319,-0.0024181
-0.046844,0.0075289,0.0067852,0.0069696,0.012793,-0.0002256,-0.0018237,-0.018155
0.019422,0.11488,0.016343,-4.8725e-05,-0.00075062,-0.0006233,-0.017168,0.0045453
0.024785,0.013513,0.0099426,0.016238,0.008925,-0.01688,0.0063174,-0.0044008
0.016504,-0.069656,-0.028133,-0.014532,-0.0052177,0.013594,-0.0016503,0.002187
-0.036628,0.077678,0.019324,0.0091772,-0.004247,0.012759,-0.0019317,0.0090024
0.0448,-0.22988,-0.042888,-0.029826,-0.019496,-0.0036799,0.013394,0.016313
-0.075662,0.23666,0.035395,0.03254,0.034952,0.011234,0.0053786,-0.0069688
0.038832,0.018653,0.0043431,-0.014623,-0.0049168,-0.012727,-0.010254,0.0016913
-0.042099,0.11003,0.012517,0.00061455,-0.013985,-0.020777,-0.0021877,-0.012493
0.048099,-0.48054,-0.025978,-0.0076281,0.00011403,-0.012817,-0.0094639,-0.002852
0.066739,0.17644,-0.017448,0.0075738,-0.0092804,0.011234,0.0069549,-0.00090676
-0.095869,0.26723,0.045777,0.015004,0.004931,0.020151,0.0079367,0.0086764
-0.0023214,0.16469,-0.00056822,-0.0087576,0.011695,0.006068,0.0011895,0.002195
0.0037516,-0.28227,-0.0082607,0.0066017,-0.0044772,0.0078937,0.0022145,0.0028873
0.0085969,0.0017257,0.0069038,-0.0092348,0.011158,0.0019535,-0.0047353,-0.0049771
0.012655,-0.35288,-0.048908,-0.017208,-0.0039308,-0.012034,-0.011945,-0.013582
0.039866,0.25389,-0.011607,-0.0016915,-0.010785,-0.018714,0.011779,0.016247
-0.049908,0.18076,0.040816,0.021691,0.013883,-0.0026577,-0.0038767,-0.0090419
0.00156,-0.064068,0.014821,-0.0017537,-0.0082095,0.0048038,-0.0041775,-0.0032563
0.014874,-0.026179,-0.0034147,0.0060776,-0.014701,0.0037235,-0.004661,0.0026171
-0.041074,-0.10977,0.0019614,-0.0017269,0.0099433,0.017717,0.018216,0.0088058
0.021199,0.23464,-0.00011034,0.0060388,0.0031845,-0.0076305,-0.0057559,-0.00016294
0.021834,-0.11496,-0.017301,-0.017536,-0.0037173,-0.0094998,0.001625,-0.00079916
0.038666,0.0085808,-0.018264,-0.0099626,0.012715,0.0046137,0.0013382,-0.00096743
-0.0067952,-0.11053,0.028314,0.0053442,-0.009969,-0.0119,-0.022242,-0.00080934
-0.091481,0.077019,0.020903,0.012817,-0.0014239,0.011443,0.016784,-0.0083365
0.026478,-0.16939,-0.040491,-0.0030892,-0.0085211,0.01219,0.0089734,0.0153
0.018733,0.009881,0.00035512,0.0045926,0.0077659,-0.0097416,-0.0066911,0.0074154
-0.0054552,0.19165,0.01837,0.012509,0.023927,0.00012622,0.0087772,-0.016478
0.024204,0.029169,-0.017819,-0.033962,-0.022634,-0.013197,-0.022799,-0.017336
-0.0094323,0.049213,0.016602,0.013655,0.0086139,0.012435,0.0079415,0.01274
-0.020345,0.082338,0.01202,0.0069287,0.00041647,0.014174,0.0072789,0.0036092
0.022821,-0.12689,-0.0083966,-0.0072991,-0.015988,-0.0082691,-0.0012767,0.0023708
0.0030058,0.065501,0.017583,0.0099615,-0.0014828,-0.00038752,-0.0019991,0.0092567
0.01413,-0.22587,-0.035261,-0.02734,-0.0028228,-0.02472,-0.010405,-0.014605
-0.013883,-0.086955,0.012625,0.029089,0.019218,0.012595,-0.0029626,-0.0066013
-0.002585,-0.085384,-0.034096,-0.0006059,0.0023178,0.002424,0.01257,0.0098372
-0.053128,0.50263,0.0356,0.00059426,-0.006493,-0.008032,0.028385,0.018986
0.022451,-0.33199,0.0031319,0.0012956,-0.0071092,0.012828,-0.018065,-0.010595
-0.0019521,0.042647,-0.0062873,-0.022035,0.0083152,-0.0049959,-0.0096792,-0.0010294
0.038093,-0.31271,-0.015887,0.00088841,-0.007138,0.0090264,-0.016877,-0.022889
0.033412,0.52793,0.021376,0.0076129,0.0011047,0.00030474,0.007112,0.025168
-0.03164,0.058242,0.019667,0.013881,0.0094419,0.0078747,0.0075169,-0.0054378
-0.016697,-0.0043784,-0.013158,-0.011392,-0.0057482,-0.0074519,0.0077191,-0.0053708
-0.023795,-0.0232,0.0010267,-0.0055131,0.0022412,-0.014606,-0.00011887,0.0020017
0.0089294,-0.36327,-0.039357,0.0082671,0.0098586,0.0096634,-0.00036603,-0.0065952
0.010425,0.03146,0.0063132,-0.00114,-0.0063636,-0.005106,-0.00079897,0.00030999
0.042429,0.014142,-0.0025661,-0.002366,-0.022918,-0.012126,-0.0013534,0.0073275
-0.052028,0.32962,0.066867,0.01247,0.0072357,0.019832,-0.0097544,0.0068455
0.023335,-0.45533,-0.043135,-0.003487,0.0062017,-0.0029466,-0.010277,-0.0088242
-0.028761,0.36856,0.026873,-0.0033807,-0.0023362,-0.0022804,0.012797,-0.00059795
0.088397,-0.057858,-0.058986,-0.026321,-0.010361,-0.0093667,0.012663,0.0079982
-0.054764,-0.17023,0.00401,0.021376,0.02911,0.014876,-0.0028405,-0.014469
-0.090675,0.0033729,0.03617,0.0068188,-0.0011336,0.0079193,-0.0024877,0.0098809
0.043766,0.20139,-0.0016306,-0.0075862,-0.0075001,-0.0068777,0.0058406,0.026107
0.021173,0.022079,-0.00014678,0.017118,0.0019264,-0.0061901,-0.017013,-0.028499
0.022006,-0.029999,0.0013608,-0.012937,-0.0044356,-0.0057665,0.0069804,0.0022008
0.062593,-0.14595,-0.012982,-0.019751,-0.011286,0.0020996,0.015248,-0.0067747
-0.028377,-0.01753,-0.012191,0.0043619,0.012371,0.0095322,-0.015677,-0.00057802
-0.047388,-0.095321,0.026928,0.020226,-0.0039052,-0.0069102,-0.0076512,-0.010184
-0.041104,0.043848,-0.005169,0.0043151,0.0024121,0.0075217,0.00032449,0.011619
0.0061324,0.34512,0.016463,0.0034584,-0.0075577,-0.0095487,0.00051805,0.002658
0.023864,-0.16193,-0.025269,-0.005762,0.0055595,-0.0032646,-0.0069982,-0.005575
0.011755,-0.019408,-0.028548,-0.023243,-0.012534,0.0031284,0.040312,0.026083
0.0083389,-0.036046,0.053906,0.013706,0.0088739,0.002004,-0.0060037,-0.011812
0.036356,0.10398,-0.011774,-0.0040199,0.0076257,0.016951,-0.021014,-0.0022982
-0.045611,-0.18964,-0.014108,0.0020132,-0.00043624,-0.014437,-0.0048213,-0.00039628
0.011669,0.040398,-0.007303,-0.006961,0.00036533,-0.014016,0.0034028,0.009149
0.09041,0.088442,-0.053539,-0.0072875,-0.0057232,0.0025317,0.011383,0.0025773
-0.1378,-0.30447,0.073818,0.016739,0.0044425,0.027268,-0.019985,-0.035943
-0.00096739,0.35408,0.015155,0.010335,-0.00080002,-0.010295,0.01087,0.0029178
0.017081,0.10467,-0.011315,-0.01115,0.0015212,-0.00098178,0.0024502,0.017713
0.0031765,-0.34709,0.024882,0.029992,0.0031539,-0.0074772,0.0017313,-0.014747
-0.0025392,0.2754,-0.0099399,-0.015157,0.0037618,0.0013277,0.0010204,0.015225
0.024419,-0.047859,-0.022829,-0.014233,-0.012449,-0.0058893,0.00043268,0.0063672
-0.0088994,-0.212,-0.0065203,0.0090182,-0.0063796,0.0099407,-0.01557,-0.0098477
0.015081,0.066975,-0.015872,-0.023623,0.0065885,-0.0057922,-7.0348e-05,0.013548
0.04157,-0.099841,-0.011561,-0.010438,-0.0043792,-0.0060869,0.015661,-0.0016204
-0.015932,0.037922,-0.0085715,0.0098951,-0.0075153,0.0091994,0.00029421,-0.016467
0.0057455,0.096271,0.02524,0.014482,0.0055202,-0.0066849,0.00056867,0.015627
-0.074116,0.42413,0.020514,-0.0038961,0.0039189,0.0088358,0.00069685,0.00063637
0.016958,-0.16963,-0.021929,0.025609,0.019206,0.0088975,-0.0072895,-0.0069787
0.02044,-0.23582,0.046873,-0.013815,-0.0032479,0.0012594,0.0077521,-0.0073473
-0.032788,-0.0042603,0.0083189,-0.0048288,-0.0011025,-0.014179,-0.0010769,-0.016093
0.036967,-0.023599,-0.044073,-0.017833,-0.013765,-0.0062856,-0.0024441,0.03723
-0.019971,-0.051363,-0.0014501,0.017175,0.012995,0.0013942,-0.011787,-0.026827
0.0078636,-0.11634,0.018318,0.021597,-0.0072387,0.00098096,-0.013217,0.010781
0.0038874,0.24666,-0.0010729,-0.012933,-0.0045733,0.0159,0.0091829,-0.0059078
-0.0079119,-0.050882,-0.021106,-0.0088359,-0.0027352,-0.00067385,0.016603,-0.0063548
0.050997,-0.20689,-0.018661,-0.021251,-0.017474,-0.025201,0.0013856,0.032992
-0.037913,0.38427,0.0061974,0.019838,0.029378,0.012772,0.0026036,-0.012882
0.0066536,-0.15814,0.0067468,-0.0028674,-0.0026287,0.0040287,0.0044904,-0.0034959
0.020562,-0.037651,-0.0011029,-0.0033559,-0.011672,-0.0044082,-0.0010368,-0.0015831
-0.050995,0.2272,0.03765,0.0029675,0.0025307,0.011012,-0.006509,0.0003905
0.010632,-0.22013,-0.017369,-0.0070211,0.0011645,-0.012153,-0.0044592,-0.0056533
-0.021157,0.090748,0.021469,0.029524,0.015656,0.0042133,-0.0029783,0.0035181
0.0099165,0.06757,-0.017713,-0.019887,-0.0085933,-0.0024623,-0.01004,-0.011271
0.049233,-0.013764,-0.002201,0.0012537,0.014361,0.006753,-0.0022313,0.012467
-0.020336,-0.32861,-0.010253,0.0071851,-0.0092755,-0.0073685,0.012739,-0.01113
-0.011285,0.082896,-0.0029138,-0.0098165,-0.017065,0.017499,0.0038111,0.0040075
-0.0018156,-0.027858,0.0041631,0.004952,-0.0012401,-0.020362,0.0024654,0.011156
0.023532,0.13163,-0.028024,-0.011048,-0.00087645,0.011748,0.0089196,0.0026385
-0.0057836,0.042663,0.01785,0.0046143,-0.00033181,-0.019032,-0.015722,-0.0058271
-0.035325,-0.13342,0.01695,0.012791,0.016044,0.01231,0.0067635,-0.0063893
0.012811,0.28765,0.0084894,-0.01004,-0.0064339,-0.0035325,-0.0095399,0.0087544
0.052543,-0.2532,-0.007443,-0.0014529,0.0025015,-0.003954,0.005642,-0.0073153
-0.041156,0.38661,0.008228,-0.0083885,0.0036803,0.018973,0.0053544,0.0078456
-0.0025574,-0.22991,0.00076071,0.015975,0.012567,-0.004961,-0.010497,-0.0083086
-0.026752,-0.17373,-0.014311,0.001281,-0.010085,0.002444,0.0048769,-0.0011082
0.0037459,-0.1337,-0.0058268,0.0021768,-0.0097607,-0.01346,0.0045492,-0.0017842
0.011115,0.30258,-0.012909,-0.020436,-0.0021977,0.0020195,0.0041376,0.013157
0.026845,-0.02276,0.0034877,0.011534,-0.0030487,-0.0058291,-0.011938,-0.0030785
0.0041692,-0.095557,0.019939,0.0043007,0.0033813,0.0098236,-0.004525,-0.011335
-0.010089,0.04387,-0.0025999,-0.010922,-0.0061907,0.0020435,0.0030585,0.0040918
0.02293,-0.090013,-0.0016408,0.0048845,0.0075066,0.0020179,0.0031213,-0.0036233
-0.022075,0.032856,-0.00068494,-0.010826,0.0056329,0.0018782,-0.0042436,0.0045821
-0.03606,0.020541,0.00014447,0.027838,0.011823,-0.0062251,0.012251,0.0052136
0.019753,0.12942,0.00068027,-0.00416,-0.0050299,0.0011371,-0.0021186,0.0059754
-0.003251,-0.024759,0.016371,0.0025517,-0.0057846,-0.0072608,0.0072254,-0.008899
0.012072,0.07251,-0.0076065,-0.014485,-0.021678,-0.0079279,-0.014573,0.0073227
-0.004498,0.014502,-0.00099141,-0.0082925,0.01756,0.0070179,-0.0052101,-0.0001552
-0.0058799,0.012672,0.0050374,-0.0021499,0.0024779,0.014208,0.0195,-0.0079356
0.078524,-0.47819,-0.051823,-0.0036761,-0.0045278,-0.0097436,-0.0030885,-0.00034847
-0.071278,0.060183,0.0084053,0.010757,0.012059,0.021127,-0.010548,-0.016329
-0.048726,0.021584,0.021983,0.01004,-0.0025521,-0.010364,-0.0028675,-0.0010092
0.029241,0.11204,-0.010823,-0.013581,-0.017195,-0.01829,-0.01121,0.014549
-0.0091172,0.30215,0.05075,0.033595,0.0071374,0.0051559,0.011443,0.007047
0.047114,-0.048508,-0.012091,-0.012637,0.0079192,-0.0025193,0.010567,0.0077795
0.018054,0.011578,-0.0042483,-0.0040392,-0.0070339,0.013395,0.001933,-0.0067654
0.0049224,-0.0050731,-0.0041797,-0.018948,0.0013632,-0.009569,-0.00655,0.010101
0.015107,-0.031955,-0.020057,-0.0028428,-0.0059224,-0.0088878,0.0007775,-0.012194
-0.10805,0.013387,0.018154,0.012943,0.010197,0.015437,0.00045236,-0.003616
0.033565,-0.27748,-0.030283,-0.010641,0.002858,0.0008654,0.0080326,-0.0034592
0.0023178,0.0014968,0.022238,0.012441,-0.00451,0.0019981,-0.0078114,0.003772
-0.014271,-0.069639,-0.011464,-0.0035909,-0.0041184,-0.0047251,-0.0080799,0.0024571
0.030835,0.090931,0.0018997,0.0039341,0.0039984,0.0039915,0.0072043,-0.0072611
0.028493,0.1519,0.00036845,-0.0038975,-0.0036319,-0.011048,-0.008807,-0.0016887
0.0023735,-0.1166,-0.023385,0.0042578,0.0042143,0.0047451,-0.0013565,-0.0039418
-0.06296,0.3904,0.071585,0.012796,-0.0037233,0.0044565,0.014023,0.009742
0.051376,-0.19272,-0.042775,-0.017401,-0.0039991,-0.004072,-0.0094575,0.008379
-0.013902,-0.08528,0.0083245,-0.00051228,0.019038,0.0026941,0.006378,-5.8772e-05
0.014738,-0.25859,-0.0099692,-0.0070164,-0.020511,-0.014159,-0.00097523,-0.0077313
-0.0031921,0.31459,0.0032359,-0.00585,0.002397,0.0080395,-0.00033412,0.0086977
0.0028295,0.012406,0.0081234,0.010614,-0.0059502,-0.0086715,0.0081818,0.0021523
-0.06067,0.080432,0.011801,0.026595,0.016972,0.021767,0.00098737,-0.011995
-0.0058907,0.0075576,0.0059284,0.0029263,0.00085725,-0.0021499,-0.014247,0.0050654
-0.012277,-0.33273,-0.025364,-0.005724,0.0081947,0.0055082,0.001438,-0.017179
0.084321,-0.025738,-0.035114,-0.038338,-0.023536,-0.010009,0.0011307,0.0070884
0.041569,0.19678,0.0083432,-0.0087985,-0.00060499,-0.0019172,0.00049592,0.015344
-0.039375,-0.14545,0.011915,0.0050279,0.0066683,-0.0015504,-0.00035613,-0.0079761
-0.0028826,-0.14935,-0.0080004,0.011237,-0.0017058,-0.0011498,-0.0090811,-0.00025065
-0.029371,0.38449,0.050894,0.033512,0.013365,-0.008538,0.013553,-0.0082068
-0.017971,0.021241,-0.0061573,-0.0061174,-0.0027623,-0.00024888,-0.010436,0.0073547
0.030797,-0.097957,-0.030437,-0.0060641,-0.018785,0.0081389,0.012789,-0.0003473
-0.016125,0.079871,0.017094,-0.0054916,0.012222,0.0088487,0.0051142,-3.3446e-05
-0.025863,0.051145,0.011136,0.0032166,0.0043648,0.001879,-0.0022719,0.0082559
0.056617,-0.12626,-0.017548,-0.019242,-0.018897,-0.012824,-0.0094887,0.00098521
-0.033755,0.17587,0.0086075,0.0050314,0.020561,0.011509,0.0067569,0.0014639
0.016168,-0.30383,-0.028101,0.0055579,0.0055236,-0.0033864,-0.008358,-0.013867
-0.011739,0.026669,0.020392,0.0056988,-0.0093728,0.0048463,-0.008056,0.0096017
0.00021293,-0.24626,-0.017964,-0.0023369,-0.0085682,-0.010782,0.0076198,-0.014078
0.013271,0.17662,0.0053002,-0.002817,0.0078675,-0.0034499,0.007433,0.0010945
0.0040945,0.041161,0.0044494,-0.011201,-0.0070053,0.0034269,-0.00074556,0.00055781
0.042907,0.21074,-0.0045878,0.0039491,0.0014472,-0.0056762,-0.0090198,8.8651e-05
-0.042383,0.055999,0.017574,0.011553,0.0019333,0.0084648,0.0061335,0.01545
-0.025472,0.079104,0.00089119,0.011733,0.010047,0.0069806,-0.0020927,-0.0079603
-0.0394,-0.32875,0.0080219,-0.0032767,-0.013297,-0.017751,0.005401,-0.0076379
0.048496,-0.059184,-0.023502,-0.017878,0.010014,0.012547,0.0051781,0.016338
0.011591,0.10436,0.0077938,-0.0087333,-0.0059614,0.004218,-0.010603,0.0091344
-0.017295,0.14339,0.0079909,0.016195,0.0091047,-0.0036593,-0.0029266,-0.013798
0.047813,0.070631,-0.0074904,0.0020381,-0.0072535,0.0044849,0.012533,-0.0057383
0.011629,-0.24912,-0.023215,-0.012328,-0.0081043,-0.010526,-0.011134,0.0019699
-0.071169,-0.0047967,0.015371,0.019806,-0.0011855,-0.0019695,0.0041866,-0.014112
-0.02096,0.006466,0.022279,-0.003246,0.0057735,0.0065552,-0.0039889,0.0086103
0.021496,0.02777,-0.0024511,0.0043987,0.01285,-0.00072826,-0.0043707,-0.0078237
0.016927,0.029705,-0.0040029,-0.019736,-0.018959,-0.0083143,0.0030934,0.0070917
0.027556,-0.00099783,-0.029057,-0.0052337,0.019751,0.014973,0.010642,0.0066505
0.060868,-0.10099,-0.0070732,0.0012012,-0.011648,-0.009009,0.0026893,0.01439
-0.11783,0.29428,0.030911,0.0075845,0.0040053,0.013529,-0.0051214,-0.0087471
0.014637,-0.1419,-0.0086995,0.0062999,-0.0036468,-0.011063,-0.0049779,-0.000352
0.05192,-0.065109,-0.00085002,-0.0025039,-0.0034014,-0.0045116,-0.0047088,-0.015273
-0.052781,0.17311,0.030965,0.0046852,-0.0031104,-0.0056961,0.0034736,0.016613
0.01331,-0.123,-0.0071591,0.012235,0.012827,0.0012022,-0.0038959,0.0013856
-0.0071687,-0.14155,-0.0060572,-0.003367,-0.0024716,0.016357,0.012218,-0.01419
-0.0042925,0.054294,-0.0049959,-0.010981,-0.0021226,0.00082639,0.0049185,0.0011114
0.053749,-0.12974,-0.035366,-0.026344,-0.0095457,-0.014093,-0.010188,-0.015149
-0.020068,0.35278,0.0043556,0.012966,0.0065282,-0.0050119,-0.0096748,0.015284
-0.030127,-0.061056,0.020487,0.013167,0.0070488,0.012309,0.0064571,0.0066321
0.0080353,-0.074855,0.0053659,0.0055248,-0.0079868,0.0064075,0.0069606,-0.0018925
0.00051127,-0.0095393,0.0060465,-0.0020962,0.00046131,0.00046711,-0.0081602,0.0054368
0.025048,-0.13149,-0.0085632,-0.0096283,0.0011012,-0.0057674,0.0079677,0.0052169
-0.020462,0.042774,0.008499,0.0064288,0.0095027,0.0031197,-0.0071693,-0.010399
0.0039782,0.12165,-0.0052773,-0.0085725,-0.0056422,-0.012057,0.0010879,-0.002432
0.0040241,-0.0052434,-0.0031317,0.0078714,0.002495,0.0033773,0.0014474,-0.0022394
0.026104,0.051811,-0.008706,-0.0067804,-0.012983,-0.0051615,0.0016726,0.0057066
-0.008098,0.026492,0.0089845,0.0098869,0.0026186,-0.0062287,0.0095308,-0.0020941
-0.020318,-0.26122,0.0027774,-0.0047484,0.0024657,0.016047,-0.0062558,-0.0022179
-0.041324,0.095059,0.003656,0.0038607,0.0022443,-0.00058716,-0.0066216,-0.002441
0.015591,-0.036877,-0.012021,-0.0034842,0.0020225,0.0065634,-0.00715,0.0051235
-0.028329,0.13304,0.018143,0.012175,0.0018575,-0.0092669,0.0078634,-0.010682
0.02315,-0.065817,-0.015208,-0.011709,-0.006032,-0.0011969,-0.00053853,0.012726
0.084816,0.063129,-0.0025445,-0.012614,0.0017876,0.0072465,-0.00099515,-0.0027195
-0.0070086,-0.018054,0.0017218,0.001744,0.0018381,0.0080932,-0.0012268,0.013307
-0.049231,-0.07414,-0.0098557,0.00026863,0.0018607,-0.0066554,0.0066311,-0.009534
-0.0032294,0.11414,0.010006,0.014397,-0.0060455,-0.013732,0.0069532,-0.00099286
-0.0025736,-0.085848,0.014825,0.013064,0.0014697,0.0023686,-0.00031364,-0.0080216
0.0064873,-0.017955,-0.0028896,-0.019198,0.0087167,0.0025374,-0.0074505,0.00055444
0.0073733,0.051868,-0.019496,-0.011972,-0.0077646,-0.0053888,-0.0067587,0.0090501
-0.0085536,-0.056542,0.011941,0.019165,-0.0010632,-0.0057079,-0.0061625,-0.013824
-0.010624,0.070324,-0.0024236,0.0038871,0.013297,0.017303,0.0098728,0.0022212
0.0087066,-0.005605,-0.00032454,-0.0031759,-0.011397,0.0090452,0.010039,0.0103
0.018244,-0.027053,0.0022704,-0.017741,-0.012442,-0.0069945,-0.0056846,0.010402
-0.028551,0.0055279,0.004959,0.0069595,0.010373,0.0004392,-0.0060366,-0.013108
-0.0061438,-0.11913,-0.00047261,0.00049934,-0.020901,-0.015564,0.00121,0.0022636
-0.0076752,0.17692,0.0012637,0.0018326,0.018829,0.015251,0.00048658,-0.0059807
0.037731,0.010855,0.0021404,0.01086,0.012354,-0.0087335,-0.0003313,0.0090562
-0.010142,-0.0077964,-0.0057091,-0.0037547,0.0063965,0.0061985,-0.0011836,-0.0072669
0.0051361,-0.097456,-0.014355,-0.0030168,0.00069256,-0.0024483,0.0057924,-0.0080064
0.028814,-0.085785,-0.0079051,-0.0025969,-0.0050869,-0.011191,-0.0028021,-0.00089388
0.021557,0.082437,-0.0016264,-0.0025147,-0.0034549,0.0034899,0.012127,0.014149
-0.11078,0.087404,0.028291,-0.010577,-0.018101,0.010445,-0.0040759,0.0059321
0.021991,-0.015833,-0.011598,0.0044921,-0.0022725,0.0019667,-0.012306,-0.0098906
0.036699,-0.11776,0.011683,0.019298,-0.0028167,-0.0062314,-0.0046938,0.0057398
0.011225,0.13307,0.004386,0.0026422,0.011686,0.0015377,-0.0046135,-0.0018948
0.0079812,0.033194,-0.0023972,-0.0063463,0.01025,0.0096788,0.011432,-0.0015893
-0.043281,0.035278,0.014512,0.00022855,0.00099167,-0.0052479,0.0044104,-0.0012021
-0.00175,-0.10333,-0.015484,-0.008774,-0.00018986,-0.012024,0.0055569,-0.0085829
-0.031223,-0.22676,-0.0066691,-0.0097814,-0.016535,-0.010707,-0.0086415,-0.0081342
0.087345,0.00067508,-0.029459,-0.0026445,0.0067321,0.0064287,0.00074702,0.015746
-0.012937,0.28971,0.017753,0.020587,0.014893,0.015828,0.010117,0.00053152
0.027585,-0.016094,-0.021124,-0.018122,-0.0078117,0.0017218,-0.0041453,0.016496
-0.064242,0.16892,0.041623,0.014054,0.00091516,0.018633,-0.0031249,-0.0067201
0.032213,-0.21024,-0.020391,0.0076461,-0.0060322,-0.019535,-0.0025391,-0.006662
-0.026416,-0.091345,0.011642,-0.0062907,0.0023867,-0.011347,-0.018031,-0.0067951
-0.028752,-0.068193,0.012619,0.0032153,-0.0052278,-0.011559,0.005138,-0.007115
0.04128,0.1173,-0.0021031,-0.003211,-0.0055016,0.011093,0.012387,0.0002334
-0.026893,0.075167,0.013979,0.0053923,0.017219,0.0020128,0.003842,0.0075121
0.016892,0.0017071,-0.02545,-0.018052,-0.015078,0.0082349,0.0030588,0.0069985
-0.022834,-0.023724,0.0043474,0.012328,0.0071526,0.0065216,0.0023096,0.0065891
0.025257,-0.24981,-0.029481,-0.012747,-0.0096427,-0.010728,0.0016377,-0.0092816
0.019604,0.41841,-0.0016789,0.016349,0.028478,0.0035597,-0.014576,-0.0093408
0.029291,-0.080617,0.072695,-0.0093838,-0.01114,-0.0051427,0.00052633,0.014208
0.021738,-0.27764,0.061643,0.0042365,-0.011205,-0.0054774,-0.0077713,-0.0089979
-0.027676,-0.055555,-0.22921,-0.028316,-0.0029228,0.002597,0.007379,-0.00090657
-0.018162,0.077028,0.021312,0.018263,-0.0019442,0.0034229,-0.00092159,0.014962
-0.11395,0.39208,0.048175,0.011295,0.01508,0.0047059,0.014181,-0.023968
0.037058,0.036018,0.085843,0.0053788,-0.0066854,-0.0015388,0.0057912,0.015058
0.061004,-0.30593,0.024409,0.01584,0.0028822,9.5859e-05,-0.026108,-0.00079726
-0.032737,-0.088982,-0.02791,-0.012476,-0.0033092,0.0093765,0.012224,0.0066052
0.015299,-0.18964,-0.002428,-0.0098039,-0.0020376,-0.012972,-0.004205,-0.0095548
0.026832,0.51658,-0.010309,-0.0079065,0.0065129,0.0032064,0.0027587,0.0055024
-0.012897,0.03031,0.064069,0.016282,0.006596,-0.0046625,0.0019223,-0.010606
0.0056337,-0.34206,0.10256,0.0079266,-0.0018207,-0.0053081,0.0011801,-0.010882
