0.02443,-0.13296,-0.11155,0.023959,-0.012914,-0.012954,-0.015443,-0.020819
0.15277,0.23341,0.19512,-0.069853,0.025002,0.00098444,0.0074097,0.0030568
-0.095758,0.16036,0.1399,0.096898,-0.015495,0.0070569,0.0066453,-0.012616
0.044885,-0.096575,0.073974,0.16383,0.02992,0.005611,-0.002041,0.010209
-0.065355,-0.43732,-0.58826,-0.089257,-0.025975,-0.010849,-0.0029054,-0.006548
0.074077,0.40333,0.27153,-0.24976,0.012376,0.02039,-0.0036061,0.015399
-0.01297,-0.39429,-0.39167,-0.12337,-0.02674,-0.0021806,-0.0039782,-0.0018388
0.0096342,0.20261,0.20548,0.063042,0.0051617,-0.0083765,-0.011692,-0.018932
0.11061,0.094423,0.307,0.37241,0.029867,0.017134,0.020214,0.034676
-0.22584,-0.076343,0.054535,-0.2802,-0.015344,-0.0041796,0.0058,-0.028333
0.085974,0.27759,0.21351,0.27052,0.025461,-0.010253,-0.00034688,0.018691
-0.0010039,-0.10102,-0.30341,-0.3884,-0.0043339,0.021973,0.009393,0.0038579
0.036584,-0.16554,-0.45174,-0.029704,-0.042566,-0.040555,-0.019923,-0.033883
0.026914,0.16135,0.42192,0.14351,0.0042742,-0.0025766,0.0051823,0.01465
-0.13924,-0.15268,-0.0993,0.66188,0.042347,0.011051,-0.0014686,0.0085847
0.0070269,-0.10865,0.06827,-0.39755,-0.029818,0.0084493,-0.0087915,0.0023419
0.083016,0.10523,-0.037706,-0.34069,-0.0010215,0.0056515,-0.0012273,0.011295
0.14337,0.027679,0.19964,-0.074768,-0.011499,-0.0047302,0.0056382,-0.0038184
-0.21054,-0.075736,-0.21106,0.0091532,0.0017017,0.001104,0.011935,-0.035305
0.083462,0.037311,-0.12733,0.30972,0.031197,-4.5703e-05,-0.0055808,0.010566
0.025033,0.21858,0.30507,0.0073978,-0.016433,-0.00028669,0.0001891,0.0088809
-0.08135,-0.17229,-0.3248,-0.029535,0.023045,0.0081162,-0.0095964,-0.0011228
0.076865,0.11506,0.07993,-0.065565,-0.030075,0.0015206,0.0043174,0.01986
0.031336,0.19854,0.037555,-0.060704,0.0036929,-0.0047283,0.010825,0.0017943
-0.04529,-0.41287,0.29207,-0.053491,0.022439,0.004702,0.0021988,-0.0081564
-0.32384,-0.068992,0.0082643,0.22172,-0.021149,-0.025122,-0.021533,-0.040974
0.32182,-0.033367,-0.40022,-0.040226,-0.018151,-0.0084225,0.0021042,0.036378
0.064529,-0.10082,0.096451,-0.10586,0.038837,0.023496,0.018355,-0.010322
-0.12644,0.26136,-0.066373,0.17992,-0.014544,0.00035952,-0.0041279,-0.0091471
0.084801,0.2644,0.054044,-0.26221,0.0012418,0.016026,0.0048585,0.039841
0.11942,0.032194,0.26754,-0.1286,-0.0075357,-0.015303,-0.0173,-0.027606
-0.21132,0.10133,0.14199,0.50975,0.0061783,0.00025509,-0.00040091,0.006964
-0.0027428,-0.4612,-0.5979,-0.25365,-0.019808,0.00030217,0.0007674,0.002555
-0.0064571,0.0052403,0.01553,0.12839,0.0086372,-0.022928,-0.00608,-0.017795
0.0026825,0.029152,0.40405,-0.31989,0.0059636,0.016486,0.018024,0.0080436
0.078373,-0.04716,-0.3221,0.14498,-0.035316,0.001275,0.0026754,0.0094736
0.14206,0.15143,0.35449,-0.10039,0.080326,0.025062,0.018111,0.0097774
-0.19666,-0.084415,0.31124,0.32849,-0.006407,0.0095783,-0.013832,-0.0066666
0.031792,0.052656,-0.84745,-0.13715,-0.0064941,-0.021861,-0.015002,-0.016254
-0.0071928,0.1595,0.092155,-0.042998,-0.052873,-0.038063,-0.024355,-0.034305
-0.24167,-0.30791,0.15579,-0.06027,-0.012891,0.015695,0.020799,0.025515
0.22842,0.16018,-0.10062,0.021977,0.019549,0.0067314,0.0035239,0.038622
0.13092,-0.029479,0.38516,-0.0078761,0.013064,-0.0022559,0.002209,-0.010246
-0.15069,-0.1828,0.072012,-0.16681,0.0066105,0.012393,0.0014565,-0.011468
0.17254,0.29889,-0.39535,0.37916,0.015714,-0.0038203,0.0014068,-0.0040112
-0.10332,-0.049618,0.32975,0.21365,0.0090271,0.0039064,0.0020816,-0.0035637
0.067245,0.25899,-0.12502,-0.50957,-0.036982,0.012148,0.0033775,0.013114
-0.2548,-0.06111,0.15003,-0.011489,0.010419,-0.0026209,0.0050864,-0.001138
0.085405,-0.19284,-0.2618,-0.12196,-0.028501,-0.0093117,-0.0086892,0.008049
0.19626,-0.46535,-0.34506,0.3377,0.010317,-0.02375,-0.014796,-0.014301
-0.20385,0.3809,0.48873,-0.031104,0.033171,0.0085554,-0.0056672,-0.021522
0.19788,-0.18097,-0.26329,0.10825,0.0089023,0.0093157,0.018533,0.017535
-0.24614,0.4102,0.24138,-0.0005877,0.00013728,0.00186,0.018682,0.016952
0.059043,-0.37713,-0.13078,-0.27739,-0.047663,0.017392,-0.0051771,-0.01534
0.075673,0.32369,-0.053025,-0.086783,-0.017157,-0.014383,-0.037279,-0.0010294
0.031423,-0.23147,0.096487,0.073985,0.029293,-0.0074542,-0.0071107,-0.01803
-0.041781,-0.046992,0.17925,0.17621,0.013653,-0.00075931,0.02305,0.027598
0.012411,0.18225,-0.18831,0.065608,0.037507,0.0058597,0.014337,0.010992
-0.033044,0.14109,0.099766,0.063582,-0.016395,-0.0030502,0.021576,0.002532
0.03186,-0.027275,0.15517,-0.32202,-0.046628,0.0039213,-0.017676,-0.036841
0.04975,-0.21264,-0.30209,0.056267,0.0091141,-0.019978,-0.033126,0.0022049
0.05869,0.39788,0.088615,0.1498,-0.0056364,0.026876,0.02984,0.033679
-0.004376,-0.59302,0.0014771,-0.051454,-0.0051543,0.0038498,-0.00075052,0.010671
-0.27214,0.23958,-0.13754,0.20811,0.072882,-0.0031969,-0.015614,-0.019933
0.045298,-0.20029,-0.0019073,-0.22952,-0.04508,-0.010022,-0.014822,-0.050261
-0.011543,0.040996,-0.30985,-0.052782,-0.0074988,-0.016784,0.0093935,0.0057171
0.012154,0.22411,0.61271,0.066595,0.029473,0.023234,0.025757,0.030901
0.35227,0.19729,-0.012113,-0.21393,-0.035489,0.0083473,0.0030016,0.04095
-0.22468,-0.22185,0.179,0.39672,0.0011014,-0.014642,0.0036081,-0.04233
-0.023434,-0.23954,-0.49736,-0.22407,-0.0087434,-0.0066813,-0.034942,0.038685
0.040903,0.0069957,0.095518,-0.11321,-0.01769,-0.0067843,0.0045256,-0.06787
-0.064881,0.12073,0.35961,0.027448,0.052756,0.024204,0.012633,0.043883
-0.023031,0.24137,-0.72563,0.27604,-0.070654,-0.02298,-0.010607,-0.0092467
0.13246,-0.06387,0.40429,-0.18927,0.11982,0.031458,0.020768,0.014619
-0.085211,0.067521,-0.31248,0.058261,-0.055832,-0.023342,-0.0025837,-0.0018721
0.20506,0.12247,0.26363,0.24136,-0.020064,0.00015154,-0.018132,-0.0040016
-0.16136,-0.11454,0.17655,-0.2221,0.04675,0.0081774,-0.0024174,-0.014953
-0.16818,-0.31033,0.46063,0.28963,-0.067003,-0.0071274,0.013318,-0.01864
-0.040058,-0.37904,-0.851,-0.43603,0.052224,0.024479,0.013437,0.0246
0.038284,0.24466,0.53229,-0.22674,-0.0098692,-0.022075,-0.025533,-0.033024
0.15591,0.71451,0.058305,0.25603,-0.010993,0.0015984,0.021355,0.051233
0.050061,-0.41577,-0.70607,-0.17881,-0.067904,-0.021705,-0.017842,-0.02696
-0.042844,-0.11566,0.31659,0.14553,0.054448,0.025218,-0.0025739,0.021519
0.0030885,-0.21516,-0.23091,0.54598,0.013079,-0.013839,-0.011035,-0.02235
0.054717,0.1331,0.38264,-0.56838,-0.01945,0.0096081,0.042656,0.028363
-0.061159,0.39058,0.038502,-0.048534,0.0041726,0.0018461,-0.013401,0.0010091
0.13012,0.14813,-0.31141,0.37699,0.052772,0.033201,0.016131,0.035381
-0.23276,-0.22509,0.073008,-0.10061,-0.030216,-0.03696,-0.024913,-0.064559
-0.010712,-0.26045,0.023756,0.1539,0.012387,-0.02116,-0.034811,-0.03365
-0.024841,0.017881,0.3938,-0.13839,0.046953,0.033704,0.017908,0.01082
0.15456,0.13344,0.025831,-0.29423,-0.099189,-0.02863,0.016314,0.076955
-0.065548,0.065161,-0.13787,0.40326,0.018684,0.026219,0.023156,-0.068983
-0.0044183,-0.071925,-0.26542,-0.45886,0.0097094,0.0029531,-0.031688,0.0035573
-0.012552,0.028502,-0.11083,0.17831,-0.055626,-0.0046567,0.015937,-0.0091782
-0.011123,-0.27668,0.18226,-0.1864,0.034155,-0.020032,-0.013689,0.12801
0.22654,0.15358,-0.30164,0.33772,0.053275,0.0037023,0.012087,-0.13118
-0.15164,-0.13169,0.46121,-0.40579,-0.013048,0.01965,-0.00075494,0.033744
0.05643,0.3853,-0.058696,0.52631,-0.0078495,0.0043226,0.0099378,-0.025901
-0.14271,-0.41206,-0.226,-0.44145,-0.063525,-0.042359,-0.057778,-0.13892
0.023236,0.16896,0.079127,0.54918,0.01526,0.035753,0.045735,0.22493
0.092608,-0.12832,0.03053,-0.045679,0.079667,0.011989,0.0076846,0.16604
0.041895,0.55218,0.33208,-0.32749,0.066448,0.011257,0.054455,-0.1214
-0.25328,-0.10927,-0.61076,0.28835,-0.10347,-0.068061,-0.087417,-0.083437
0.083281,0.21336,0.33246,-0.097699,-0.0091619,0.024036,-0.0037212,-0.22026
0.029672,-0.63917,0.0019296,-0.14108,-0.0028863,0.014181,0.024599,0.07802
-0.084472,0.11232,0.1122,-0.54099,-0.08494,-0.0037437,-0.048905,0.046899
0.31233,-0.055019,0.16704,0.76486,0.15896,0.025136,0.080929,0.1332
-0.029326,-0.1292,-0.31323,-0.39215,-0.036095,-0.0083338,-0.022962,0.033794
-0.046966,-0.14906,-0.064425,0.04069,-0.075233,-0.017978,-0.00087901,-0.05469
-0.18647,0.32641,-0.26571,-0.038951,0.027239,-0.003563,-0.0011052,-0.0064501
-0.01123,0.48267,0.34321,0.10228,-0.01646,-0.003951,-0.015858,-0.086929
0.024604,-0.56421,-0.26504,0.22743,0.021231,0.0044321,0.032787,0.10968
0.068493,0.27818,0.031228,0.3003,-0.0076196,-0.001815,-0.027373,-0.11294
0.018008,0.054159,0.37687,-0.39756,0.10782,0.016276,-0.0014171,0.0016011
-0.026027,-0.34201,0.41572,0.085067,-0.062867,0.0037779,0.00088649,-0.0014827
0.0060661,0.060255,-0.3035,-0.17699,0.0025288,-0.0084277,0.0026425,0.094835
0.12937,0.21431,-0.47563,-0.35934,-0.017819,-0.0051755,0.011438,0.023389
-0.13313,-0.23241,-0.14813,0.44872,-0.023873,0.013053,-0.011876,0.26745
-0.14894,0.62461,0.59184,0.080663,0.029966,0.014587,0.018699,-0.49371
0.042771,-0.88855,-0.55412,-0.57424,-0.068056,-0.032105,-0.013821,0.052808
0.20772,0.24183,0.39682,0.46024,0.05681,0.0057123,0.0080605,0.11141
0.10415,0.13132,-0.26001,0.13765,-0.032624,-0.028056,-0.048102,-0.13628
-0.04061,0.036537,0.49741,0.091773,0.055051,0.038835,0.028983,0.20265
-0.3582,-0.22312,-0.13681,-0.21511,-0.046262,-0.019645,-0.01823,-0.1431
0.082607,0.35162,-0.21827,0.085888,0.031828,-0.0075831,0.044748,0.085843
0.096061,0.0022848,0.15893,-0.26879,-0.0064274,0.020905,-0.00090288,0.007308
-0.08957,-0.21701,-0.27838,-0.011127,-0.011692,0.0037671,0.0086358,0.0037094
0.13641,-0.040983,-0.13091,-0.044796,0.016603,0.027193,0.026132,0.22216
0.048043,0.21011,0.20422,0.46075,0.031783,-0.01816,-0.065978,-0.22985
-0.12058,-0.002115,-0.037265,-0.53949,-0.044428,-0.038726,-0.01017,-0.073107
0.21526,-0.37938,0.17706,0.42417,-0.040586,-0.011428,0.013743,0.16734
-0.0010969,0.59605,0.64479,-0.17199,0.058309,0.047629,-0.0097873,-0.30629
-0.33452,-0.44039,-0.39938,0.41275,-0.0062673,-0.0027061,0.021053,0.16229
0.12666,-0.29848,-0.48663,-0.25385,0.0228,0.024555,0.028495,0.042616
-0.15869,0.36005,-0.60127,-0.56562,-0.089468,-0.05851,-0.080849,-0.14835
0.29236,0.29429,0.54585,0.13024,0.06274,0.01344,0.052659,0.20798
0.080667,0.12123,0.66565,0.52574,0.041677,0.013742,0.022856,-0.027928
-0.26246,-0.7158,-0.031332,0.31339,-0.058945,-0.0028291,-0.029755,-0.027447
0.099697,-0.040861,-0.49151,-0.71982,0.065708,0.026488,0.050759,0.060794
-0.081487,0.48466,-0.13091,0.18272,-0.099706,-0.05417,-0.025106,0.14229
0.039521,0.20644,0.15703,-0.54186,-0.039219,-0.0021733,0.0078111,-0.17464
0.12094,-0.068653,0.071989,0.62252,0.059983,0.018831,-0.069618,-0.17226
-0.022812,0.13163,0.18841,0.020553,0.096538,0.040402,0.023645,0.03938
-0.25732,-0.42898,-0.13775,-0.018304,-0.070143,-0.038877,-0.032722,-0.10246
0.11383,-0.053924,-0.080916,0.17156,0.0442,0.0075041,0.050521,0.16805
0.18485,-0.19962,0.20161,-0.28304,0.025305,0.023071,0.047115,0.22638
0.025844,0.094269,-0.16425,-0.020451,-0.11136,-0.00033352,-0.0035192,-0.01282
-0.12183,-0.077773,0.10591,0.46996,0.087317,-0.00059004,-0.046348,-0.2678
-0.15006,0.073633,-0.13111,-0.45684,-0.089355,-0.056145,-0.05765,0.055574
0.088156,0.22627,-0.47798,-0.75805,-0.13309,-0.018744,0.0409,-0.13619
0.083665,0.47624,0.3147,0.56197,0.21458,0.072554,0.038471,0.23519
0.069868,0.063972,0.019065,0.33382,0.032425,0.014824,0.067906,0.060474
0.061982,-0.43004,0.53035,0.19885,-0.014934,-0.004058,-0.08175,-0.019589
-0.22878,-0.38083,-0.21994,0.0071514,-0.036587,-0.030467,-0.027711,-0.26265
-0.10619,0.36717,-0.022144,-0.1668,-0.04037,-0.040421,0.0034537,0.08929
0.04054,-0.17772,0.088447,0.015449,-0.026623,-0.0021669,-0.019481,0.036405
0.025426,0.050168,-0.27694,-0.42879,-0.019403,0.029961,0.020704,-0.030608
0.24034,0.034103,-0.06246,-0.060141,0.16797,0.056082,0.045878,0.14594
-0.236,-0.364,-0.063289,0.49151,-0.098255,-0.056796,-0.037798,-0.11402
0.27577,0.41614,0.36454,0.019779,0.016951,0.058046,0.058539,0.22015
-0.053665,0.13988,-0.19515,-0.45316,-0.010632,-0.014158,-0.024778,-0.28199
-0.11678,-0.59878,0.047267,0.21406,-0.017461,-0.04766,-0.03028,0.058531
0.014011,0.36352,0.37612,0.47717,-0.019335,0.019261,0.010466,0.17087
-0.21005,0.3599,-0.71137,-0.33156,-0.0082392,-0.0093136,-0.035579,-0.32798
0.16291,-0.1935,-0.31857,-0.44902,0.055448,-0.00089426,0.019004,0.13241
0.10124,0.30382,0.70097,0.40405,0.0084952,-0.0023473,0.010232,0.044697
-0.011717,-0.84733,-0.093747,-0.024412,-0.030916,-0.0055307,0.00082614,0.034469
0.028505,-0.12172,0.39287,0.17676,0.031984,0.05264,0.084864,0.14142
-0.27627,0.77032,-0.55137,-0.55935,-0.083132,-0.061474,-0.12009,-0.20425
-0.064733,0.35273,0.68645,0.25288,0.077555,0.0357,0.019158,-0.056893
0.21156,-0.50594,-0.61117,0.58097,-0.087139,-0.045795,-0.020533,0.028905
0.22532,-0.13849,0.17304,-0.86009,0.10247,0.0617,0.042276,0.22492
-0.13296,-0.48468,-0.24179,0.26756,-0.018074,-0.008795,0.012292,-0.2738
0.026283,0.4793,0.19312,0.68324,-0.012003,-0.038605,-0.0012715,0.2277
0.045072,0.31874,0.005674,-0.38616,0.041604,0.057875,0.024702,-0.20848
-0.10191,-0.25863,-0.10132,-0.02515,-0.10828,-0.063627,-0.058648,0.19079
-0.025538,0.057457,0.22639,-0.10501,0.084324,0.041588,0.060742,-0.043409
-0.0077651,0.10847,-0.42799,-0.62668,-0.01404,0.013545,-0.062806,-0.14547
-0.22797,-0.3588,0.37962,0.67794,0.0417,-0.0076148,0.015794,0.048804
-0.083369,-0.37274,-0.54712,-0.39657,-0.13107,-0.092502,-0.062889,-0.10101
0.42783,0.68449,0.50854,0.32915,0.08541,0.071304,0.052805,0.14742
-0.0049917,-0.016953,-0.090165,-0.043024,-0.050176,-0.00044664,0.066211,0.16913
0.12753,0.51139,0.34556,0.088022,0.0099862,0.0050286,0.0010318,0.049926
-0.040875,-0.21193,0.087966,0.19646,0.032348,0.017788,-0.056526,-0.35888
-0.36154,-0.59021,-0.33476,-0.20709,0.025241,-0.016471,-0.012464,0.090918
0.12608,-0.056703,-0.19217,0.18984,0.020013,-0.011465,0.00061781,-0.092978
-0.18816,0.15296,0.019891,-0.27157,-0.01493,-0.0059988,-0.001484,0.22233
0.24936,-0.35815,-0.15415,-0.65844,-0.0021707,0.015713,0.020421,-0.15817
0.039066,0.66399,0.074106,0.77333,-0.067629,-0.00096386,0.035161,0.20347
0.2267,-0.11851,0.65114,0.15784,0.061189,0.01425,-0.0041121,0.010905
-0.34495,-0.050678,-0.73292,-0.19876,-0.08526,-0.0090545,-0.066167,-0.3525
-0.067177,-0.040551,0.042555,0.11211,0.055017,-0.031945,0.0051837,0.26996
0.16914,0.010063,0.26228,-0.038499,0.036556,0.039199,0.022344,-0.20732
-0.049852,-0.14677,0.1009,-0.074253,0.00020062,-0.0066681,0.032055,0.247
0.026437,0.0038456,0.075526,-0.68202,-0.014435,-0.021188,-0.020539,-0.039145
-0.13241,0.27873,-0.27481,0.72721,-0.0065478,-0.0044117,-0.018447,-0.10526
0.076018,-0.12475,-0.14697,-0.11487,-0.053321,0.0045574,0.014682,0.14955
0.0039064,0.26279,0.17496,0.38419,-0.052247,0.013487,0.0083366,-0.056669
0.20619,0.059032,0.38267,-0.2763,0.14591,0.030127,-0.014196,-0.16208
-0.067317,-0.27348,-0.36372,-0.12858,-0.0051798,-0.0080938,0.02514,0.059446
-0.21562,-0.48871,-0.10699,-0.18258,0.010291,-0.015305,-0.0064349,0.22495
0.12775,-0.087648,-0.053318,-0.04385,-0.042215,-0.014976,-0.038455,-0.30602
-0.0535,0.58799,0.19361,0.17949,-0.053785,-0.014893,0.0074548,0.17005
0.1387,0.11316,-0.40631,0.21237,0.0061686,-0.0071588,0.022227,-0.096272
-0.029897,0.24414,0.88909,0.050226,0.12128,0.055232,-0.025088,0.1612
-0.21492,-0.5279,-0.27859,0.16261,-0.10761,-0.046333,-0.001461,-0.1274
0.17848,-0.51715,-0.33721,-0.41991,0.0064158,0.047621,0.046308,0.014765
-0.12963,0.74174,-0.018643,0.0049207,-0.02146,-0.030057,-0.014695,0.025214
-0.059869,-0.21812,0.30512,0.48431,-0.0039847,0.0096468,0.010572,-0.010309
0.13866,0.18029,-0.80813,-0.65868,0.090024,-0.020891,-0.0189,0.11097
0.16932,-0.12947,0.5819,-0.050953,0.018471,0.018785,-0.0019629,-0.17387
-0.046463,0.24489,0.31316,0.47302,-0.046524,0.0035015,0.0063494,0.095725
0.23242,0.30404,-0.16033,-0.38708,0.028233,0.042498,0.0058418,-0.088337
-0.50325,-0.42747,0.13776,0.14072,-0.1552,-0.075218,-0.019104,0.078485
0.010698,-0.0012486,-0.035913,0.1572,0.013107,-0.013665,-0.037026,-0.083529
0.054316,-0.16906,-0.26889,-0.4249,0.13526,0.031986,0.014941,0.01158
-0.037303,-0.69499,-0.14867,0.52426,-0.030519,-0.0083736,0.020047,-0.0033649
0.15719,0.52682,-0.027964,-0.070858,0.023797,0.04516,0.056823,0.34816
0.13744,0.21304,0.3191,0.47758,0.0716,0.0052613,-0.022879,-0.33238
-0.18277,-0.24026,-0.30317,-0.58193,-0.10614,-0.057667,-0.039256,0.0018383
0.032216,0.38145,0.18293,0.25592,-0.14268,-0.034269,-0.0079978,-0.031994
0.1494,0.6258,0.018876,-0.78498,0.18019,0.098765,0.039433,0.019418
-0.17484,-0.32186,0.34413,0.20729,-0.036538,-0.033774,0.0089886,0.070453
0.060072,-0.11412,-0.11607,-0.19838,-0.0042863,0.0053646,-0.044957,0.027777
-0.089942,-0.45877,0.2544,0.72376,0.018731,-0.010611,0.010157,-0.084734
0.0097709,0.00010897,-0.71649,0.35595,0.032268,0.0040939,0.010127,0.022351
-0.10727,-0.4182,-0.25405,-0.27901,-0.09654,-0.028656,-0.01379,0.052391
0.045626,0.31179,0.45706,-0.47879,0.062174,0.024106,0.03231,-0.05704
0.21256,0.71049,0.069374,0.14639,0.055718,0.014244,0.015886,0.053349
-0.08979,-0.36397,0.08758,0.049025,-0.13086,-0.050021,-0.086164,-0.022889
-0.14282,-0.26399,-0.28088,-0.43509,0.042343,0.019238,0.015554,-0.0047623
0.28646,-0.093016,0.30293,0.90539,0.037203,0.011441,0.024405,-0.056592
-0.077884,0.48072,-0.14447,-0.6942,-0.028221,0.012725,0.042037,0.11827
-0.12961,-0.05785,0.17222,0.25964,-0.051696,-0.023813,-0.033233,-0.22257
0.20618,-0.14115,-0.33701,0.018388,0.11555,0.034375,0.040462,0.22541
-0.2294,0.35797,0.32176,-0.018121,-0.089088,-0.0006846,-0.034231,-0.10048
-0.047316,-0.53694,-0.28844,-0.48151,0.076045,-0.012396,-0.031291,0.080767
0.16634,0.18911,0.55149,0.62908,0.024089,0.022081,0.040972,-0.12171
-0.10282,0.0047977,-0.39928,0.19706,-0.050803,-0.038359,-0.013105,0.19813
-0.08674,-0.041254,0.05018,-0.18339,0.0064017,0.0013342,0.0016669,-0.053544
0.20204,-0.014902,-0.31265,-0.26186,-0.086634,-0.0229,0.015105,-0.048503
-0.15523,-0.0022727,0.1779,0.21214,0.044284,-0.0014354,-0.066171,-0.20828
0.093969,0.13241,0.049861,-0.84686,-0.054414,-0.0041514,0.016189,0.1161
0.021389,-0.31616,-0.18986,0.31124,0.14064,0.063205,0.051849,-0.035734
0.080198,0.44856,0.4982,0.7559,-0.018718,0.0136,-0.021141,0.19605
-0.17625,-0.51052,-0.46357,-0.4839,-0.039773,-0.035437,0.00073056,-0.055557
0.14805,0.40036,0.44778,0.32226,0.023521,0.017841,0.023872,0.084243
0.034483,-0.015603,-0.19211,0.14549,-0.077985,-0.029657,-0.014306,-0.1116
-0.11365,-0.34824,-0.083587,-0.38749,0.055043,-0.013941,-0.012541,0.028165
0.037358,0.2941,-0.39867,0.08493,-0.060915,0.0023583,0.013108,-0.14545
-0.15419,0.35471,0.25808,0.012175,0.082675,0.02691,-0.00814,0.031369
0.1402,-0.26492,0.50623,0.073305,0.0019395,0.012714,0.0014363,0.215
-0.15583,-0.38409,-0.13017,-0.15824,-0.021654,-0.032525,-0.013115,-0.17214
0.093296,-0.042007,-0.06524,-0.097473,0.0039845,0.0082884,0.018434,-0.027684
0.070508,0.26109,-0.15789,-0.32839,-0.038732,-0.021195,-0.028831,-0.030444
-0.08054,0.20558,-0.030944,0.23043,-0.0098308,0.011706,0.0015503,0.070279
0.072041,0.30186,0.047009,-0.035562,0.042986,0.013064,-0.015161,-0.006465
-0.088013,-0.31198,-0.1661,0.34237,0.048512,0.01391,0.030637,0.10628
0.29031,-0.43998,-0.026613,0.10998,-0.025345,0.014007,0.045326,0.0093278
-0.26365,0.0077539,-0.029287,-0.015345,-0.062052,-0.010276,0.0054834,0.068759
0.0050157,0.045846,-0.097529,0.49948,0.031783,-0.027771,-0.02647,-0.17754
0.093001,0.30023,0.71223,-0.51104,0.029621,0.016309,-0.035017,-0.074259
0.091002,-0.008864,-0.35309,-0.30752,-0.013429,-0.010534,-0.01241,-0.051518
-0.096927,0.033208,0.3108,-0.13418,-0.049727,-0.014029,-0.0054852,0.1721
-0.23732,-0.24716,-0.38148,0.13447,-0.0079826,-0.0013311,0.056231,-0.035505
0.053157,0.066884,-0.087478,-0.31012,0.003438,-0.003018,-0.030136,-0.0091864
0.11225,0.10717,0.073099,0.75838,0.04005,-0.0029219,-0.0064967,0.10379
-0.073016,-0.14654,-0.16055,-0.54006,-0.0070602,0.014852,0.0023674,-0.12527
0.11743,0.55608,0.45878,0.26014,0.02615,0.034578,-0.011279,-0.016056
0.029851,0.041867,-0.23512,-0.0076979,0.045422,0.016699,0.038384,0.11126
-0.060662,-0.60455,-0.28256,-0.18266,-0.020441,-0.016166,-0.0052135,-0.0093232
0.11988,0.062398,0.15979,0.37138,0.015009,0.013106,0.044944,-0.058258
-0.015008,-0.28237,0.084372,-0.023576,-0.099206,-0.044909,-0.05389,0.025939
0.033305,0.19574,0.17145,0.16403,0.011242,-0.026927,-0.028797,-0.039027
-0.2292,-0.10279,-0.078433,-0.38664,-0.028883,0.0041337,0.026108,0.019407
-0.13253,0.45951,-0.25092,0.10498,0.015013,0.0014049,-0.037743,0.060076
0.16543,-0.095543,0.083597,-0.54888,0.010687,0.027803,0.053233,-0.042134
0.11661,-0.18332,0.2528,0.31614,0.044822,0.013746,-0.013072,-0.091601
-0.068806,0.116,-0.072004,-0.11957,0.032198,-0.00079643,-0.009517,-0.0095459
0.13233,-0.0058199,-0.20378,0.2539,-0.034454,-0.014893,0.0020641,0.056437
-0.022075,-0.0072596,0.22462,0.50666,0.056088,0.011336,0.0066909,0.075957
-0.1331,0.19045,-0.090836,-0.40171,-0.07894,-0.023075,-0.0029283,0.065357
-0.020183,-0.10882,-0.07061,-0.03627,0.0056614,0.014999,0.0047716,-0.037377
0.05226,-0.22723,0.18582,0.0058308,-0.0027721,-0.0072552,-0.009212,-0.091382
0.015413,-0.057783,-0.54573,-0.099303,0.0050161,0.011432,0.0096015,-0.01851
-0.01193,-0.16555,0.19783,-0.29216,-0.0022455,0.0080268,0.0060801,0.032666
-0.13764,0.38441,0.11305,0.57402,-0.047923,-0.010349,-0.020393,-0.15689
0.25666,0.042785,0.24665,0.32747,0.039969,-0.0053763,0.03886,0.21709
-0.14874,0.25264,0.28423,-0.82662,0.058372,0.014444,-0.035584,-0.080425
0.028932,-0.28483,-0.37923,0.068665,-0.055266,-0.013926,-0.0020854,-0.034618
0.038898,0.22592,0.11116,-0.052125,0.026958,-0.0048654,0.014018,0.31448
-0.018679,-0.57508,-0.40559,-0.16055,-0.0078434,-0.0053165,-0.0029821,-0.30751
0.11219,0.031238,0.035193,0.41928,-0.0039206,0.00052039,0.0095982,0.28618
-0.23455,-0.17285,-0.0067533,0.23629,0.01477,0.0052001,-0.057205,-0.436
-0.013843,0.53287,0.10823,-0.17086,-0.0068836,0.0013971,0.031553,0.057454
0.19474,0.31392,0.72485,0.63258,-0.030049,0.028698,0.018693,0.064218
-0.047124,-0.20361,-0.61506,-0.73269,0.0078092,-0.021789,-0.0014355,0.0073629
0.065173,0.098073,-0.11818,-0.11505,0.013258,0.0065753,0.04978,0.22417
-0.13957,-0.71052,-0.11515,0.53654,-0.0053366,-0.018768,-0.038273,0.10649
0.066564,0.1987,0.094975,-0.86549,-0.00040627,-0.0039587,-0.046703,-0.36038
