-0.025813,-0.051909,-0.10839,-0.017289,-0.020692,0.0028244,0.072827,-0.021702
0.013478,0.020123,0.057732,0.05396,0.071853,0.032326,-0.035951,-0.013832
0.02926,0.13087,0.38661,0.14829,0.078781,0.016005,-0.03275,0.017595
0.021529,-0.055764,-0.348,0.062335,0.0079071,0.01662,0.074427,0.010038
-0.040969,-0.086677,-0.30165,-0.30561,-0.15642,-0.067328,-0.058879,-0.013089
0.013644,-0.016444,-0.067097,-0.033585,0.038897,0.045252,0.073988,0.01853
-0.041171,-0.0010808,0.38787,0.16776,0.0236,0.018059,0.11223,-0.043518
0.036833,0.10033,0.17321,-0.076122,-0.030329,-0.055665,-0.18778,0.027371
0.036815,0.077146,0.28891,0.13372,0.056937,0.057881,-0.02247,0.035926
-0.056727,-0.16418,-0.672,-0.069515,-0.066054,-0.016843,0.11539,-0.041268
-0.017108,-0.0063887,-0.015506,-0.08408,-0.0086806,-0.045888,-0.039703,-0.016727
0.0073212,-0.0042429,0.030212,0.16022,0.13514,0.048627,-0.12751,9.7877e-05
0.063452,0.13889,0.17449,0.014586,-0.0099521,-0.038021,-0.084144,-0.0065573
-0.028488,-0.038272,0.34578,-0.18562,-0.11632,0.014642,0.27957,0.080296
-0.018691,-0.07523,-0.33938,0.074619,-0.0048326,-0.019632,-0.097274,-0.036444
0.01444,0.035427,-0.021361,0.005692,0.034937,0.031437,0.14594,0.02584
0.015893,0.059015,0.011938,0.044738,0.072947,0.058906,-0.021383,-0.014201
-0.030265,-0.10617,-0.21402,-0.027112,-0.047173,-0.07745,-0.20854,-0.062752
0.0085508,-0.030398,0.061177,-0.030043,-0.067447,-0.010107,0.044919,-0.0023686
-0.00056581,0.044376,0.043301,-0.19027,-0.018679,0.0033867,-0.074343,0.011119
-0.01067,0.056002,0.28141,0.30519,0.1467,0.072593,0.26077,-0.021786
0.033163,0.075199,-0.0045106,0.12878,0.015483,-0.036749,-0.036697,0.086891
-0.032756,-0.092943,-0.025441,-0.27362,-0.11454,-0.027719,-0.12384,-0.014084
0.018597,-0.057441,-0.59518,0.20012,-0.02378,-0.025347,-0.016851,0.042578
-0.046685,0.0023133,0.61208,-0.46517,-0.1413,-0.029753,-0.051892,-0.071394
0.021798,0.016229,0.069967,0.10586,0.19724,0.099459,0.11485,-0.028235
0.068053,0.14851,-0.26355,0.37428,0.093241,-0.013056,-0.11792,0.03092
-0.032855,-0.085169,0.3278,-0.074167,0.1008,0.093196,0.13292,-0.035122
-0.015444,-0.067674,-0.54035,0.25219,-0.13259,-0.15259,-0.038664,0.069963
-0.036293,-0.088229,-0.11841,-0.46773,-0.24088,-0.0008689,0.12525,-0.021476
0.005695,0.095068,0.28177,-0.30518,0.0013714,0.0089318,-0.078463,-0.0050733
0.031874,0.036496,0.13034,0.52022,0.20263,0.056308,-0.0014024,-0.013788
0.073004,0.10273,-0.0084289,0.054611,0.065405,0.016251,-0.041916,-0.00069162
-0.02753,0.011961,0.32022,-0.07743,-0.0512,-0.072014,-0.16068,0.026651
-0.058953,-0.15035,-0.42928,0.053711,-0.022098,0.010556,0.095864,0.0061594
-0.044617,0.013928,0.19708,-0.21568,-0.10469,-0.016919,0.0016097,-0.061631
-0.038891,-0.1593,-0.32363,-0.048884,0.092338,0.10375,0.072504,0.0035453
0.099333,0.14271,0.0088825,0.19581,-0.00044518,-0.072389,-0.027385,0.022538
0.026832,0.045405,0.15573,-0.074095,-0.069597,0.017427,0.16249,0.034819
0.017482,0.104,0.085731,-0.11531,-0.012694,-0.040653,-0.0070243,0.0015523
-0.076895,-0.14194,0.21296,0.12759,0.12403,0.073829,-0.036784,0.0086948
0.040611,0.026702,-0.33764,0.076621,0.028404,-0.029641,-0.22439,-0.061104
0.01827,0.032037,-0.01926,0.1844,-0.010536,-0.030655,-0.062393,0.026243
-0.019215,-0.071127,0.18369,-0.222,-0.20405,-0.054133,0.13682,0.012588
-0.0096853,0.053191,-0.22878,-0.29237,0.11921,0.1031,0.084744,0.014807
-0.031564,-0.001244,0.079347,0.43288,0.1305,-0.019892,-0.084998,-0.068894
-0.022549,-0.10163,0.10809,-0.25826,-0.16291,-0.02478,0.10502,0.034792
0.048521,0.080138,-0.15826,0.086764,0.082293,0.033538,-0.032016,-0.010112
0.0097748,-0.01855,0.155,-0.047695,-0.18101,-0.095266,0.082448,-0.00045647
0.0097058,0.07087,0.23491,0.0029415,0.11743,0.13528,-0.16084,0.10286
0.017139,0.004366,-0.27072,0.20052,0.19644,0.037237,0.1443,-0.11419
-0.030347,-0.038725,-0.14379,-0.19603,-0.18601,-0.11632,-0.16642,0.035886
0.00015153,-0.043122,-0.1271,0.064393,0.0014968,-0.067834,-0.04632,-0.017273
-0.0084341,0.053414,0.31006,-0.048569,-0.053417,0.049802,0.12938,0.0075215
-0.0012568,-0.038294,-0.13749,-0.19068,0.016476,0.03355,-0.053577,-0.0069864
-0.017186,-0.013496,0.23291,0.27865,0.10955,0.039883,0.13114,0.032899
0.014286,0.018641,0.061409,-0.031835,-0.024368,-0.016836,-0.027714,-0.013474
-0.0082562,-0.050973,-0.33206,0.15803,-0.0026795,-0.034724,-0.030482,-0.0054629
0.032424,0.11387,0.2477,-0.22346,-0.036527,0.049019,-0.041583,-0.0055097
0.0034257,-0.041361,-0.2147,0.064591,0.06931,-0.0075366,-0.0066088,-0.013519
-0.017358,-0.01666,-0.14818,0.021267,-0.12256,-0.094819,-0.027275,0.017491
0.0087929,0.023749,0.36252,-0.048921,-0.049307,0.021671,-0.041086,-0.029579
-0.0044507,-0.0063519,-0.12641,-0.1453,0.16462,0.068521,0.092701,0.032804
0.0050533,-0.0057081,0.035023,0.10076,-0.011388,0.014393,0.3352,-0.0063476
-0.0020037,0.0019996,-0.10498,-0.027527,-0.068867,-0.023734,-0.63373,0.016899
-0.010075,0.024487,0.1654,0.042186,-0.02296,-0.030547,0.311,0.016422
-0.042492,-0.10222,-0.25514,0.11622,0.048423,-0.014223,-0.033731,-0.015773
0.0025733,0.0049514,0.25798,-0.17176,-0.050151,0.0092617,-0.082129,-0.017295
0.062981,0.065112,-0.10881,0.18588,0.1418,0.15684,0.24368,0.043133
-0.00152,0.0083148,-0.075734,-0.14013,-0.063926,-0.16531,-0.17377,-0.13899
0.012502,0.07702,0.41021,0.16863,0.019359,0.019513,0.3528,0.077299
-0.019764,-0.080223,-0.35561,-0.038486,-0.038759,-0.030491,-0.52812,0.0048952
-0.035774,-0.041605,-0.12426,-0.029072,-0.020004,0.02119,0.19949,0.050428
-0.0043714,0.028594,0.20544,-0.070057,-0.010434,0.034584,-0.14333,-0.012418
0.027355,0.0050602,-0.18643,-0.1149,-0.087938,-0.075654,0.085091,-0.0039057
0.0044219,0.0046374,0.091734,-0.15513,-0.041101,0.05022,0.11234,-0.025767
0.0046133,-0.019861,0.096003,0.17002,0.20093,0.037247,-0.09984,-0.031488
-0.0036514,0.0094697,-0.055018,0.2216,0.13077,0.056968,0.19888,0.056571
0.0028025,0.02223,0.022628,0.0010403,-0.11079,-0.070959,-0.16364,0.0035192
0.00040499,0.02632,0.024903,-0.076772,-0.12541,-0.027063,-0.016317,-0.011401
0.020453,0.006392,0.022168,0.011603,0.0084848,0.0081258,-0.03217,-0.019724
-0.046178,-0.091783,-0.13452,-0.093934,0.048361,0.057392,0.55322,0.033176
-0.01155,-0.025424,0.0070334,0.27733,0.032998,-0.074894,-0.64392,-0.047823
-9.5917e-05,0.04986,0.20351,-0.33674,-0.10022,-0.03709,-0.045989,0.011133
0.012214,0.033065,-0.077443,0.039552,0.086309,0.030624,-0.012392,-0.031577
0.018072,-0.012965,-0.17268,0.023116,0.0069025,0.043004,0.11348,0.043407
0.049029,0.028984,-0.07495,-0.11222,-0.080261,-0.01481,0.050838,0.017862
-0.05113,-0.013302,0.18434,0.236,0.067353,-0.024977,0.18284,0.00932
-0.024847,-0.046749,0.17571,-0.12638,-0.10472,0.028524,0.32982,-0.060244
0.049258,0.068366,-0.069096,0.043879,0.11446,0.083257,-0.3209,0.1059
-0.0091464,-0.020495,-0.11968,0.052109,0.052791,-0.040722,-0.33988,-0.055103
-0.013232,-0.025135,-0.037743,0.023379,0.0066797,-0.031391,-0.047444,-0.051511
-0.0026336,-0.0008223,-0.1585,-0.11318,-0.13382,-0.092441,0.080185,0.022451
0.0066592,0.036645,0.065459,-0.046141,-0.017681,0.033437,0.11401,-0.0054925
-0.008886,-0.014009,0.41553,0.13721,0.081286,0.088095,0.2111,0.020625
-0.01002,-0.050507,-0.24144,-0.0019665,0.045817,0.016748,-0.096583,-0.0087237
-0.011947,-0.032778,-0.15622,0.027505,-0.045701,-0.086715,0.01943,0.023612
0.01714,0.040295,0.30292,0.022071,-0.12238,-0.042272,-0.1675,-0.030757
-0.0081273,0.0056418,-0.21665,-0.35389,0.05097,0.088035,0.13123,0.023583
0.022084,0.051429,-0.020366,0.18192,0.13149,0.0078175,-0.07725,-0.016369
0.022089,0.060684,0.20425,0.08425,-0.012807,-0.0012575,-0.035804,-0.0020409
0.015327,0.0018946,-0.0029021,0.0034092,-0.084433,-0.040479,0.35663,0.066703
-0.084369,-0.14121,-0.31194,-0.02759,-0.036228,-0.0082046,-0.44699,-0.09906
0.07417,0.021134,-0.040715,0.094113,0.045777,0.025132,0.076962,0.039878
-0.048572,-0.011975,0.17282,-0.10745,0.043937,0.020167,-0.00074035,-0.0085264
0.03918,0.047761,-0.10651,-0.038729,-0.011259,-0.015709,-0.14829,0.0058603
-0.045663,-0.0033148,0.34916,0.1665,0.043307,0.049852,0.50194,-0.010614
0.0093021,-0.0092114,-0.24944,-0.12611,-0.10584,-0.072634,-0.16716,0.043656
0.016671,0.014447,0.087958,0.089439,0.071703,0.007158,-0.16368,-0.042297
-0.031125,-0.025878,-0.040533,-0.14961,-0.05746,-0.031218,0.027325,-0.0029491
0.030305,0.026416,0.14968,0.10837,0.014242,0.023211,0.16285,0.036544
0.013783,0.046752,0.036753,-0.0048143,-0.0021522,0.037798,-0.16415,-0.0021175
-0.010133,-0.066002,-0.1489,-0.044184,-0.020319,-0.041909,0.03022,-0.0097128
-0.033519,-0.069289,-0.15186,-0.11101,-0.00064076,0.034331,-0.17603,-0.048831
0.06077,0.099664,-0.042772,0.2018,0.088735,0.040164,0.16275,0.06022
-0.024321,-0.019952,-0.0072328,-0.088932,-0.01727,-0.03206,0.055047,-0.026202
-0.015629,0.024971,0.083542,0.072828,0.0099053,-0.018142,0.056414,0.028031
-0.015025,-0.031344,0.14079,-0.045984,-0.032543,-0.027318,-0.11352,-0.073725
0.039722,0.037433,-0.0098975,0.0088672,-0.042811,-0.0047332,-0.063376,0.043746
-0.015627,-0.042373,-0.074761,-0.05868,0.033991,0.034173,0.13705,-0.017854
-0.0092334,0.02596,0.074562,0.1034,-0.036335,-0.0041778,-0.051047,0.069617
0.0043315,-0.0075632,0.025603,-0.12199,-0.0036568,0.0053212,0.012958,-0.022084
0.0097038,-0.0099274,-0.10475,0.038334,0.022683,-0.031097,-0.13208,-0.0041223
-0.03181,-0.051053,0.06432,0.021309,-0.012137,0.034826,0.31034,0.0060339
0.028649,0.049265,-0.13456,-0.041067,0.07123,0.0465,-0.16802,-0.030939
0.0039798,0.041567,0.27117,0.19399,0.06131,-0.066865,-0.23172,-0.0371
-0.019567,-0.065903,-0.21482,-0.14948,-0.1285,-0.0089324,0.13437,0.010913
0.0050474,-0.0073152,-0.088355,-0.080155,0.0089441,0.024475,0.031267,0.019363
0.0074896,0.053165,0.22598,0.14358,0.012171,0.0095293,0.22403,0.019561
-0.020262,-0.048964,-0.24203,-0.11913,-0.033172,0.016354,-0.20982,-0.027504
0.10111,0.21683,0.39812,0.13966,0.099481,-0.0096778,0.010433,0.10474
-0.11325,-0.24411,-0.37587,-0.21244,-0.12084,-0.060445,0.25946,-0.044667
0.0080432,0.004817,-0.01496,0.043909,-0.029626,-0.041686,-0.40807,-0.046074
0.042664,0.06442,0.29613,0.065504,0.061133,0.094099,0.078576,-0.016649
-0.017519,-0.011085,-0.48652,0.071466,0.073709,0.011583,0.040538,-0.026598
-0.032042,-0.0030645,0.53037,0.030634,-0.0073154,0.00031873,-0.060168,0.041469
0.045983,0.034033,-0.10438,0.099081,0.044603,0.0059021,0.15256,0.023749
-0.033285,-0.071138,-0.13979,-0.23915,-0.098847,-0.041926,-0.0079028,-0.024819
0.0038552,-0.021004,0.033471,-0.10938,-0.023842,0.012931,0.01355,0.013125
0.048343,0.12267,0.062873,0.16792,0.066342,0.021744,-0.064436,0.020429
-0.040138,-0.076975,-0.12356,-0.039952,-0.093885,-0.054905,-0.00026939,-0.026462
-0.0035158,0.021101,0.10499,0.087666,0.026992,0.017024,0.033261,0.02845
0.0099586,0.010818,-0.042566,-0.04243,0.054438,0.041953,0.066407,-0.03391
0.0081956,0.048337,0.1743,0.062561,0.051523,0.0040972,-0.14385,-0.010744
-0.024415,-0.10099,-0.33928,-0.15148,-0.090585,-0.049726,0.02702,0.02739
0.021447,0.031224,0.072555,0.034634,-0.027748,-0.041368,-0.069413,0.0022638
-0.018381,-0.016323,0.15232,0.050774,0.0057744,0.060486,0.13763,-0.015728
0.02786,0.021733,-0.067805,0.029686,0.017573,-0.0019171,-0.10107,0.012743
0.0038178,0.035902,0.17133,0.0022828,0.10865,0.060507,0.13733,0.041215
-0.012446,-0.051889,-0.29282,-0.0085385,-0.010898,-0.041331,-0.068195,-0.07826
-0.044374,-0.0305,0.033395,-0.073738,-0.068559,-0.026231,-0.08423,-0.07179
0.017463,0.10038,0.24492,0.11074,0.0051265,0.0042122,0.058175,0.060936
0.024722,-0.04169,-0.13401,-0.12749,-0.040395,0.018786,0.054085,-0.0081508
0.016578,-0.011066,-0.032752,0.03158,0.0682,0.0098099,0.027845,0.18946
-0.045938,-0.11218,-0.076459,-0.0058864,-0.10622,-0.13187,-0.083984,0.059509
0.063791,0.17851,0.39055,0.049287,-0.047256,0.10182,-0.0089949,-0.2502
-0.044856,-0.045317,-0.41383,0.048921,0.19141,0.062707,0.064405,-0.013713
0.018701,-0.0026864,-0.068796,0.063668,-0.0063944,-0.030311,-0.036244,-0.020484
-0.034682,0.0091023,0.29955,-0.28112,-0.15555,-0.020964,0.09518,0.026261
-0.02543,-0.088597,-0.13802,0.20235,0.11927,-0.050026,-0.22845,0.072026
0.038515,0.063054,0.070658,-0.24355,-0.12743,0.022838,0.0014805,-0.031236
0.055446,-0.028602,0.041971,0.2562,0.22087,0.080048,0.22353,0.076306
-0.021647,0.042356,-0.19333,0.021708,-0.047795,-0.042874,-0.092481,-0.026811
-0.013183,0.049232,0.091186,0.013565,-0.043915,-0.025976,-0.031643,0.019089
-0.020764,-0.05475,0.098992,-0.1046,-0.073142,0.013331,0.039271,-0.051439
0.010345,0.019818,0.026245,0.080927,0.043653,0.0047068,-0.036094,-0.050809
-0.06034,-0.14057,-0.063212,-0.16435,-0.11542,-0.036034,-0.016139,-0.0024299
0.048628,0.08196,-0.15984,0.042604,0.11425,0.063364,0.41853,0.046807
0.017139,0.03186,0.011685,0.038256,0.0070774,-0.079409,-0.49872,0.057774
-0.021855,-0.024685,-0.039074,-0.05163,-0.076404,-0.0028976,0.075022,-0.055608
0.048863,0.084502,0.25942,0.070614,0.09147,0.05894,-0.087265,-0.027946
-0.012995,-0.062485,-0.18619,0.007179,0.019295,0.028196,0.04567,0.054499
0.011121,0.034,0.13124,0.06305,0.0042596,-0.0014214,0.17737,0.011645
-0.0431,-0.017256,0.022576,-0.035318,-0.055401,-0.053643,-0.011831,-0.024105
-0.004005,0.017432,0.18073,-0.038411,-0.019715,0.019484,-0.11497,-0.045312
-0.027987,-0.12039,-0.36569,-0.064174,0.040054,-0.0013601,-0.022135,0.025877
0.017734,0.03756,0.037171,0.050582,-0.0021392,0.0082946,0.17318,0.017456
0.031669,0.092623,0.18456,0.015972,-0.0065996,-0.014434,-0.17756,-0.015852
0.021789,-0.033287,-0.29128,0.01886,0.026035,-0.0072015,0.089307,0.019901
0.011745,0.035094,0.063301,-0.027043,-0.052897,0.0066527,-0.050284,0.0078697
-0.02947,-0.10025,-0.00029783,0.042304,0.014639,0.0040196,-0.0032707,-0.035874
-0.031282,0.03773,0.13702,-0.054048,-0.020744,-0.0068005,0.14383,0.014176
-0.024681,-0.027062,0.078745,-0.034292,-0.033178,-0.033076,0.00011989,-0.0055408
0.045251,0.065099,-0.040706,-0.053974,0.040765,0.04287,-0.15303,-0.008649
0.014612,0.025334,-0.001564,0.17667,0.084685,0.033874,-0.14317,0.012974
-0.030618,-0.021363,0.032521,-0.068362,-0.065003,-0.020877,0.17131,0.028213
0.026631,0.0029609,-0.071346,0.094066,0.060534,0.0035159,-0.036591,-0.0098692
-0.032675,-0.1129,-0.32918,-0.14851,-0.093695,-0.049483,0.038878,-0.046842
0.041026,0.083867,0.34444,-0.015064,0.010774,0.030665,0.10934,0.026262
-0.0027879,0.0070692,-0.043202,0.064326,0.068518,0.0091636,-0.12195,0.013636
0.038484,0.086204,0.24177,0.12045,0.031969,0.02628,0.071081,0.047592
-0.069951,-0.16319,-0.3792,-0.12054,-0.1228,-0.058838,-0.086009,-0.059785
-0.0080091,0.032301,0.085616,-0.057342,-0.0053698,0.0037458,0.19453,-0.0040675
-0.017855,0.00086015,-0.051695,0.028749,0.0094138,-0.0046238,-0.21363,-0.019685
0.025782,0.055031,0.27093,-0.0027477,0.031329,0.017833,-0.01468,-0.0049272
0.029616,0.046399,-0.11883,0.043771,0.037488,0.040139,0.079874,0.040517
-0.0057839,-0.048499,-0.065104,-0.0032383,-0.041885,-0.046814,-0.062775,-0.00015126
0.006091,-0.010959,-0.013476,-0.03414,0.020153,0.030606,0.081363,0.0062558
-0.043658,-0.067578,-0.042149,0.060546,0.028425,-0.016568,-0.057069,-0.025925
0.040597,0.094177,0.2553,-0.039579,-0.040636,-0.024288,-0.039438,-0.0028255
0.0011713,-0.025556,-0.29255,0.0089682,0.046996,0.046399,0.13534,0.028621
-0.0057456,-0.004655,0.15092,0.026125,-0.037264,-0.031241,-0.016306,0.029142
0.0040112,-0.030274,-0.24156,-0.0041214,0.0030056,0.047287,-0.05644,-0.032817
-0.024553,0.0073582,0.28874,-0.027378,-0.020029,-0.077566,-0.016326,-0.040392
0.0019676,0.03831,0.070804,-0.043772,-0.051822,0.015954,-0.021364,0.013971
0.012931,-0.0074306,-0.19935,-0.021983,0.063946,0.030919,0.099646,0.005138
0.015871,0.057797,0.15844,0.06948,0.022828,0.014233,-0.068148,0.026885
-0.044107,-0.13322,-0.30872,0.066892,0.01267,-0.018385,0.021395,-0.006533
0.012545,0.044295,0.22724,-0.12315,-0.059914,0.0035301,0.18807,0.01459
0.02169,0.0039776,-0.13245,0.054311,0.031957,-0.029211,-0.3652,-0.042135
0.014549,0.0030499,-0.013464,-0.0021271,-0.024,0.00077244,0.10393,-0.0043848
-0.0088691,0.064249,0.16921,0.027887,0.030127,0.023343,0.0099346,0.011048
-0.025082,-0.0084516,0.31291,0.019324,0.030266,0.0073732,-0.052895,0.020044
-0.0027616,0.010901,-0.23186,-0.012221,-0.039301,0.0076048,0.18152,-0.0086081
0.011333,-0.042138,-0.43462,-0.07452,-0.045897,-0.030673,0.025904,0.0029985
0.025161,-0.042636,0.41529,0.074767,0.080653,0.056515,0.058297,0.015318
-0.039229,-0.099703,-0.46313,-0.12662,-0.066016,-0.09034,-0.2685,-0.089534
0.0058437,0.084076,0.29018,-0.022171,-0.0094278,0.044238,0.084154,0.02357
0.035553,0.11094,0.1839,0.13823,0.070661,0.014791,0.092472,0.26011
-0.03589,-0.0497,-0.10945,0.018525,-0.028944,-0.030366,-0.16555,-0.14611
0.026,0.079218,0.074451,0.047962,-0.011459,0.041484,0.091482,-0.13277
-0.013097,-0.1114,-0.10847,-0.055448,0.04488,-0.0040977,0.028018,0.034778
-0.043809,-0.019938,0.059786,-0.034805,-0.055368,-0.049956,-0.11325,-0.15834
0.050982,0.056645,-0.023361,-0.078494,-0.023254,0.0054676,0.12907,0.19521
0.028955,0.063498,-0.03071,0.15658,0.10989,0.052813,-0.049416,0.073204
-0.039768,-0.14015,-0.017508,-0.11887,-0.10907,-0.032889,-0.015911,-0.10142
0.00083804,0.015932,0.15688,0.056314,0.085557,0.0609,0.28397,0.10954
-0.029151,-0.030795,-0.23346,-0.012451,-0.048285,-0.087653,-0.3378,-0.067193
0.018488,0.07122,-0.070237,-0.10537,-0.088518,-0.033191,-0.045891,-0.038187
0.042028,0.079742,0.085417,0.060003,0.090078,0.0837,0.15913,0.01609
-0.0054897,-0.0366,0.055016,0.047225,0.058011,0.020864,-0.019988,-0.022612
-0.01467,0.0032549,0.19867,0.075784,-0.020521,-0.010742,-0.0052377,0.016407
-0.024436,-0.097776,-0.12418,-0.057194,-0.028284,-0.050172,0.008198,-0.0085828
-0.011099,0.019523,-0.039168,-0.0082226,-0.035628,-0.0036703,-0.049647,0.049971
0.0022445,0.06604,0.17139,-0.028001,0.0042081,0.042833,0.02483,0.074343
0.055031,-0.020634,-0.17337,0.015322,0.028557,-0.027844,0.013394,-0.15434
-0.032087,-0.029342,0.0663,0.042615,-0.017482,-0.0047701,-0.028817,-0.026373
-0.01668,-0.022295,-0.25047,-0.07197,0.014288,0.010458,0.046943,0.029253
0.015396,0.024229,-0.0060603,-0.016459,-0.0091958,-0.0056637,-0.0091946,0.044768
0.024981,0.024486,0.1209,0.029333,0.044653,0.056142,0.068351,0.060314
-0.035075,0.0097602,0.10046,-0.020262,-0.011816,-0.022974,-0.079969,-0.024659
0.0066918,0.026783,0.13696,0.13221,0.0088771,-0.032144,-0.04033,-0.053115
0.024802,-0.02631,-0.13607,-0.1453,-0.080609,-0.018232,-0.070785,-0.063651
0.003172,0.02978,-0.046689,-0.00044727,0.024764,0.042311,0.12533,0.1157
-0.011674,-0.13346,0.029441,0.067428,0.020824,-0.02217,-0.00682,-0.015322
-0.027716,0.061766,-0.041698,-0.066264,-0.037147,-0.00044123,0.15765,0.011481
-0.013653,-0.0019165,-0.035061,0.18451,0.070163,-0.032811,-0.21724,-0.015549
0.022971,0.042613,0.07908,-0.21172,-0.086523,0.037242,-0.006479,-0.019038
-0.011164,-0.023339,0.018261,0.049223,0.10233,0.045814,0.047847,0.0081937
0.040702,0.034768,0.031844,0.068265,-0.027465,-0.022709,-0.015047,0.0032335
-0.00062405,0.029705,0.026206,-0.030271,0.0080624,-0.012224,0.047206,-0.041866
-0.025384,-0.014702,-0.16176,-0.020375,-0.041676,-0.024566,-0.0074305,-0.0097965
-0.017741,-0.058879,-0.022568,0.011698,0.025786,0.018041,0.016421,-0.017446
0.014503,-0.063153,0.13341,0.019061,0.014537,0.0058489,-0.060982,0.19335
0.00084546,-0.0034457,-0.34793,-0.10736,-0.075857,-0.01461,0.049237,-0.21303
0.034689,0.066108,0.28503,0.10176,0.02002,-0.043619,-0.12198,0.083861
0.014034,0.052082,0.15016,-0.048224,-0.010313,0.059241,0.089057,0.044954
-0.03812,0.040397,-0.1125,0.037135,0.083349,0.020409,0.096025,0.0060307
-0.020563,-0.055288,0.11242,-0.0088465,-0.01899,0.019544,0.14864,-0.017496
-0.027246,-0.032595,-0.029396,0.056246,0.026765,-0.029221,-0.36253,-0.10393
0.058991,0.068445,0.076141,-0.064584,-0.091572,-0.071017,0.10959,0.067001
-0.02735,-0.10476,-0.26121,-0.035859,-0.03784,0.011631,-0.10632,-0.067131
-0.012618,-0.029679,-0.066665,0.079193,0.086509,0.047216,0.076445,0.064197
0.017475,0.089881,0.18282,-0.056243,0.023637,0.043948,0.16656,0.00028637
0.0084057,-0.035485,-0.28514,0.064766,0.023402,-0.060306,-0.1165,0.030387
0.046174,0.10987,0.18008,0.058684,-0.047232,-0.030895,-0.022309,-0.0016832
-0.033315,-0.075225,0.089186,-0.27024,-0.094753,0.022939,-0.0040274,-0.017873
0.0042311,-0.0041036,0.070112,0.20294,0.12284,0.038673,0.070688,0.012892
-0.0053101,0.027364,0.10192,0.017629,0.011745,0.023947,-0.088064,0.00447
-0.038466,-0.11246,-0.11834,-0.075488,-0.029521,-0.0058877,0.2687,-0.0042198
-0.032567,-0.039579,-0.11328,0.033889,-0.071025,-0.066766,-0.38343,-0.091316
0.06737,0.15326,0.046827,-0.075127,-0.018676,0.012917,0.32207,0.032383
-0.003912,-0.025509,-0.123,-0.018851,0.034139,-0.0091994,-0.2322,0.03901
-0.003877,0.033596,0.10274,0.17206,0.087705,0.015265,-0.0068691,-0.0086371
-0.0026017,0.0019825,0.011712,-0.088124,-0.021914,-0.015205,-0.055893,-0.0087455
-4.0631e-05,-0.027578,-0.077411,0.06758,0.033347,0.055749,0.074809,0.12474
-0.019814,-0.04859,0.12263,-0.041048,-0.051429,-0.0061308,0.12831,-0.12383
0.047054,0.039081,0.00060371,-0.016283,-0.034371,-0.021069,-0.066687,0.0031593
-0.0031175,-0.0080394,0.039092,-0.054132,-0.0095466,-0.012476,0.20866,0.021057
-0.0068766,-0.026818,-0.0055693,0.024587,0.014991,-0.0038293,-0.13976,-0.047008
0.011793,0.083881,0.021925,0.071236,0.046926,0.0047688,-0.089189,0.06431
-0.056851,-0.12112,-0.26927,-0.11719,-0.062202,-0.018086,-0.16388,-0.043636
0.0058263,0.061963,0.082349,0.01439,-0.023294,0.021173,0.080754,-0.011596
0.012481,-0.029878,0.0077697,0.068049,0.085579,0.028617,0.089505,0.051014
-0.028692,0.049933,0.079081,-0.026037,0.014441,0.027558,0.11992,0.011412
0.046877,0.04483,0.14198,0.037133,0.028914,-0.013273,0.0079386,-0.044367
-0.0024868,-0.059809,-0.17675,0.023237,-0.074137,-0.07811,-0.16028,0.024455
-0.0045031,-0.13841,0.038357,-0.11482,-0.091552,0.0052385,0.037579,-0.016293
0.025428,0.0043667,-0.032155,0.083475,0.093982,0.0028662,-0.030652,-0.010119
-0.014232,0.24296,0.16675,0.03169,0.013945,0.024682,0.02641,0.0041653
0.024816,0.045067,-0.068141,0.010661,0.0045942,0.00085448,0.029853,0.011163
-0.037349,-0.028137,-0.16684,-0.0423,-0.0040244,-0.0058204,-0.12124,-0.020223
-0.036901,-0.13421,0.081136,-0.11927,-0.066268,0.020298,0.034458,0.019422
0.033791,-0.063164,0.034686,0.037981,0.060277,0.032032,-0.018693,-0.010625
-0.0050467,-0.065376,-0.056681,0.031589,-0.0071429,0.0288,0.5861,0.069098
-0.028423,0.03914,-0.13886,0.0027506,-0.010875,-0.10734,-0.6597,-0.077669
0.049634,0.11063,0.1858,0.061182,0.0018206,0.021266,0.14933,0.025293
-0.01304,-0.021597,0.01785,-0.035359,-0.0086973,-0.0078982,-0.073552,0.018316
0.0022832,0.049948,0.17634,0.048559,0.066254,0.031337,-0.047608,-0.051892
0.040842,0.01376,-0.097842,-0.00044645,-0.0083863,0.006097,0.1879,0.0021709
