0.026208,0.031277,0.035528,-0.012043,0.00038892,0.030681,-0.083362,0.0039027
0.0058236,0.028863,0.053511,0.027588,0.015058,-0.024496,0.16384,-0.097956
0.25227,0.082524,0.035352,0.029424,0.0070032,0.014425,-0.20748,0.26382
-0.29795,-0.11308,-0.082092,-0.0068206,-0.01599,-0.055657,-0.072816,-0.21782
-0.067677,-0.058644,-0.065332,-0.019048,0.008497,0.015262,0.1303,0.032823
0.18436,0.034244,0.014368,-0.015505,-0.021212,0.0084051,-0.13682,-0.18175
-0.14411,0.008843,0.031143,-0.012192,-0.0036777,0.01745,0.29836,0.33221
0.087016,-0.010145,-0.031306,-0.017177,0.014103,0.011019,-0.29786,-0.26202
0.18216,0.086551,0.092214,0.055372,0.016388,0.051431,0.26257,0.26227
-0.17122,-0.0056856,0.0030804,-0.013264,-0.020377,-0.10371,-0.1138,-0.19547
-0.019729,-0.060094,-0.079922,-0.01983,-0.0025647,0.021985,-0.0050682,-0.031992
-0.058181,-0.045143,0.0074703,0.020211,0.015007,0.014309,-0.083306,-0.042031
0.065735,-0.015213,-0.046935,-0.033617,-0.022483,-0.048654,0.11996,0.14379
-0.045522,0.076843,0.069693,0.045336,0.033286,0.08315,-0.028317,-0.081987
0.12458,0.08277,0.060764,0.038326,0.033798,0.01143,0.10458,0.055372
-0.14191,-0.138,-0.1048,-0.07815,-0.075652,-0.052658,-0.27812,0.10329
0.12428,0.055094,0.033976,0.00047576,0.0096894,0.00052822,0.089484,-0.13374
-0.1235,-0.025575,0.00045021,0.00062881,-0.014722,-0.039675,0.067121,0.26538
0.13032,0.049552,0.075726,0.031561,0.023188,0.022281,-0.15744,-0.27848
0.08077,0.046064,-0.052832,0.01506,0.022069,0.061549,0.29867,-0.1256
-0.077192,-0.074984,-0.025895,-0.017656,-0.010092,-0.03123,0.052364,0.23906
-0.14855,-0.071108,-0.030871,-0.027503,-0.0028907,0.017253,-0.26407,-0.036142
-0.10219,-0.051256,-0.04409,-0.0065901,-0.011022,-0.051085,0.15332,-0.14628
0.1322,0.086586,0.075395,0.021762,0.012286,-0.010046,-0.27428,-0.044114
0.039047,0.10056,0.070093,0.034255,0.027798,0.12435,0.24944,-0.20613
0.1418,-0.048335,-0.091025,-0.031469,-0.034994,-0.093559,-0.12734,0.52343
-0.036266,0.006834,0.029595,-0.011215,-0.012192,0.007878,-0.013953,0.28401
-0.042383,-0.0079349,0.0099563,0.017012,0.002353,-0.047963,0.29304,-0.29336
-0.15827,0.015993,0.03731,0.0064498,0.0086382,0.004668,-0.2449,-0.05438
0.14687,-0.062732,-0.068301,-0.0037214,0.0067555,0.11918,0.075995,-0.30527
0.0055185,0.0053886,0.028905,-0.021184,0.00469,-0.10247,-0.25141,-0.070078
-0.18396,0.07962,0.047749,0.016705,0.0026665,0.019803,0.32038,0.53461
0.23486,-0.089662,-0.097328,-0.0070916,-0.02251,-0.052687,-0.13003,-0.35661
-0.17512,0.053069,0.047468,0.02474,0.030949,0.14905,0.038234,-0.069295
0.12567,-0.084768,-0.11075,-0.067415,-0.047717,-0.1327,-0.049847,0.016436
-0.1122,0.0059071,0.053902,0.036738,0.022848,0.039512,0.035143,-0.13633
0.13516,0.01367,0.042066,0.016743,0.016093,0.0092359,-0.090076,0.43438
-0.014662,0.11881,0.11958,0.036387,0.025686,0.034033,0.38644,0.40008
-0.11611,-0.13972,-0.17485,-0.060973,-0.050104,-0.0035433,-0.3483,-0.33455
0.25288,0.096583,0.1031,0.036705,0.0072413,-0.09588,-0.15399,-0.26389
-0.29031,0.013671,-0.024589,-0.022594,0.0021454,0.038175,0.19588,-0.030653
0.02014,0.062688,0.049741,0.018572,0.012472,-0.031062,-0.040655,-0.050099
0.05159,-0.06307,-0.058385,-0.011885,-0.0010746,0.10273,0.22278,0.021643
0.12444,0.0097789,0.016919,-0.012427,-0.0074242,-0.044738,-0.20081,-0.079602
-0.20679,-0.17275,-0.060978,-0.021949,0.001118,0.018762,0.048405,0.1876
0.033974,-0.0089544,-0.12797,-0.016701,-0.030185,-0.074001,-0.2949,-0.24446
0.15829,0.11945,0.19951,0.081832,0.047119,0.020588,0.36305,0.48566
-0.17888,-0.0043949,-0.0068918,-0.01503,-0.0090825,0.091387,-0.071762,-0.066451
0.41156,0.012431,-0.011164,-0.017913,-0.01116,-0.088392,-0.060772,-0.049733
-0.24367,0.070638,0.032137,0.018694,0.017629,0.082646,0.55945,-0.15356
-0.051832,-0.046677,-0.023951,0.024571,0.030639,0.01071,-0.75069,0.17395
-0.075724,-0.11183,-0.1315,-0.078404,-0.073425,-0.14781,0.14911,-0.32825
-0.15857,0.10195,0.092805,0.014406,0.0025992,0.029308,-0.069198,0.079039
0.14619,-0.015358,-0.023054,-0.017388,-0.0066531,0.019091,-0.077152,0.073134
-0.0035951,0.05825,0.074883,0.029248,0.0083761,-0.013887,0.29759,0.0041646
0.065469,0.047439,0.088535,0.044832,0.055549,0.11827,0.13349,0.027966
0.018405,-0.12796,-0.132,-0.025444,-0.013689,-0.092072,-0.24126,0.0044777
0.16003,-0.047879,-0.017819,-0.0098239,0.011331,0.026844,-0.030056,0.052327
-0.088514,0.059827,0.0080925,0.02129,0.0052345,0.11526,0.71198,0.29088
0.099596,-0.031958,0.0077278,-0.033682,-0.055796,-0.17894,-0.83584,-0.44118
-0.238,0.083249,0.051609,0.028467,0.03107,0.049904,-0.17361,-0.1564
0.022684,-0.038918,-0.07027,-0.049879,-0.038987,-0.011205,0.14424,0.1093
-0.063818,-0.006364,-0.028278,0.0050022,-0.00027666,-0.010974,0.0010961,-0.24294
0.018994,-0.020479,0.015324,0.021557,0.030247,0.042772,0.59287,0.84352
0.054184,0.061062,0.054455,0.039125,0.013858,-0.021611,-0.21281,-0.32588
0.13008,-0.072861,-0.065855,-0.035885,-0.025658,-0.016226,0.01386,0.15462
-0.32122,-0.023007,0.014264,-0.016002,0.0057139,0.020332,-0.24289,-0.60724
0.15529,0.062249,0.075579,0.020403,0.029965,0.025986,-0.038003,0.26105
0.16205,0.033738,0.022858,0.0025659,-0.015466,-0.014597,-0.012258,-0.071561
0.026749,0.030646,0.010068,0.02363,0.0098254,-0.015367,0.2719,0.25136
-0.056939,-0.089586,-0.090498,-0.049894,-0.042934,-0.015466,-0.38059,-0.10095
-0.044699,0.053766,0.046644,0.031364,0.013384,0.031745,0.16341,-0.02897
0.037129,0.11509,0.099128,0.05599,0.053451,0.06345,0.29478,0.17702
-0.16561,-0.26625,-0.23878,-0.11686,-0.063574,-0.12379,-0.38496,-0.47542
0.079771,0.089026,0.056551,0.044173,0.021625,0.05574,0.32696,0.3504
0.15574,0.0017918,-0.021236,0.008244,0.0044785,0.031677,-0.10915,0.24217
-0.12409,-0.018689,-0.0009558,-0.044278,-0.036615,-0.086465,-0.12375,-0.33663
-0.14014,0.10779,0.12037,0.043682,0.031536,0.01413,-0.030048,-0.062693
-0.0063691,-0.069564,0.0019856,0.015147,0.0062265,0.052634,0.31211,0.035812
-0.086642,-0.04859,-0.064618,0.0036311,0.012831,0.0060434,-0.4021,-0.093217
0.34047,0.01604,-0.0076362,-0.029479,-0.018699,-0.023745,0.12438,0.21585
0.018494,0.054712,0.056047,0.0096952,-0.017948,-0.01316,0.0013439,-0.021298
-0.053,0.028032,0.00053138,-0.011867,0.015003,-0.048259,-0.098888,-0.13443
-0.094995,0.044063,0.050476,0.038142,0.01739,0.097122,0.33963,0.25596
0.0685,-0.094558,-0.1326,-0.028492,-0.026819,0.023922,0.027931,0.090629
-0.090433,0.023836,0.065768,0.013994,0.022506,-0.034241,-0.081015,-0.20574
0.11911,0.037619,0.018195,-0.007024,0.00080387,-0.031244,-0.35467,-0.05958
0.13897,0.06233,0.035527,0.025073,0.017029,0.016697,0.17545,0.22123
-0.25139,-0.20741,-0.14066,-0.061873,-0.038449,-0.054787,-0.084566,-0.48941
-0.20799,-0.021165,0.021383,0.02125,-0.0016038,0.012171,0.060577,0.2473
0.13866,0.036578,-0.0080527,0.0091946,-0.0050428,0.053924,0.23596,-0.018256
-0.0044584,0.038327,0.015459,-0.027094,-0.0014685,-0.053822,-0.01144,-0.10904
0.062611,0.064669,0.063204,0.030352,0.025317,0.057003,-0.20495,0.21517
-0.054122,0.016277,-0.010892,0.026067,0.013439,0.027937,-0.031942,0.022412
0.20337,-0.019332,0.021525,-0.039287,-0.044336,-0.10115,0.14836,0.066972
0.0085399,-0.0024345,0.0051452,0.01441,0.032114,0.021876,-0.2263,-0.19568
-0.068678,0.035408,-0.0053484,0.0076136,0.0008248,0.037919,0.33661,0.093983
0.09458,-0.016332,-0.018651,-0.0051462,-0.0054049,-0.0062279,-0.23284,0.090219
-0.059636,0.0047054,-0.00506,-0.00085369,-0.0024471,-0.0016056,-0.090523,-0.21063
-0.12081,-0.15339,-0.068056,-0.026995,-0.014172,-0.0035898,0.22482,0.030541
-0.045067,0.07013,0.079456,0.025105,0.013562,0.033848,-0.020951,0.12922
0.025243,0.072342,-0.0017442,0.029767,0.025498,0.00047075,0.0082338,0.010943
0.058732,0.032161,0.054284,0.0020675,0.0055129,-0.026321,-0.1016,0.3448
-0.0056498,-0.027139,-0.057785,-0.034897,-0.038927,-0.031372,0.16526,-0.60452
-0.10275,-0.16768,-0.1192,-0.042149,-0.022027,-0.046077,-0.33948,-0.25006
-0.026221,0.10348,0.050257,0.011723,0.0094035,0.085982,0.33749,0.27028
0.21134,-0.0096078,0.0062024,0.0098793,0.00092011,-0.048852,-0.26466,0.20241
-0.098855,0.025153,0.046563,0.0074424,0.0075504,0.049936,0.11964,-0.082624
-0.042026,0.098993,0.10201,0.043892,0.037454,-0.031219,-0.049085,0.26204
0.22471,-0.0065702,0.0014275,0.010164,-0.0028464,0.028365,0.1111,-0.19939
-0.058749,-0.080638,-0.10625,-0.031069,-0.035079,0.033565,-0.010505,-0.076285
0.16685,-0.0062416,-0.017611,-0.0016408,0.026705,-0.031221,0.10791,0.19236
-0.40664,0.060143,0.056565,0.012481,0.0027255,0.021422,0.097496,-0.028797
0.06936,-0.092495,-0.078897,-0.027802,-0.021224,-0.097678,-0.30088,0.11682
-0.12581,-0.073371,-0.017595,-0.02873,0.0015956,0.025484,-0.19727,-0.44344
0.14797,0.086645,0.053102,0.01758,-0.014833,0.023757,0.12723,0.070423
0.16496,0.036477,-0.030844,0.0018643,0.015428,0.037889,0.17361,0.088189
-0.18233,0.0031231,0.058511,0.010151,-0.016928,-0.049134,-0.025288,-0.07626
0.046068,0.018056,0.031648,0.034642,0.021024,0.01285,0.0012057,0.1106
-0.061416,-0.028189,-0.010593,-0.01852,-0.011233,0.02081,-0.034034,0.08107
0.12227,-0.011024,-0.03004,0.0066854,0.026999,0.029433,0.27697,0.11873
0.0046865,0.02202,0.034932,0.00056962,0.0029187,-0.047327,-0.23627,-0.10295
-0.015336,0.031139,-0.011642,-0.0059423,-0.013203,-0.014348,-0.10398,-0.18488
0.08525,-0.046805,-0.076249,-0.020915,-0.013629,0.018757,-0.05207,0.23968
-0.10075,0.022212,-0.0023544,-0.0053959,0.0015718,0.020497,-0.049036,-0.080592
-0.043223,0.035125,0.085837,0.017245,-0.0067004,-0.056211,0.068983,-0.32745
0.014629,-0.17163,-0.10738,-0.015259,0.0084457,0.03848,0.47316,0.23097
-0.14659,0.027784,0.020842,-0.00099936,0.00020282,0.023236,-0.24395,0.0607
0.11355,0.024998,0.01852,0.0057085,-0.0078895,-0.031644,-0.10733,0.11227
0.1077,0.10216,0.066033,0.012986,0.023341,0.01452,-0.048412,0.10225
-0.054409,0.017659,0.015015,0.01319,-0.0075785,-0.01785,-0.092262,-0.072332
-0.091215,0.037191,0.013297,-0.0015044,0.00096222,0.019839,0.048783,-0.37273
0.14583,-0.097497,-0.080924,-0.015663,-0.013544,-0.028488,0.014297,0.045707
0.023731,0.034612,0.058958,0.017268,0.011339,0.032652,0.069186,0.13822
-0.012653,-0.098827,-0.084237,-0.028088,-0.018257,-0.038791,0.072408,0.14999
-0.22175,0.024519,0.027281,0.011986,0.0068841,0.022887,0.10977,-0.14221
0.23174,0.09123,0.0959,0.020065,0.024075,0.022384,-0.02163,-0.047783
-0.12921,-0.13366,-0.19093,-0.058618,-0.029378,-0.040355,-0.31334,-0.072274
-0.047035,0.18558,0.12838,0.041654,0.033853,0.084573,0.063909,0.089995
0.11113,-0.10708,-0.023015,-0.014814,-0.020732,-0.10293,0.0023381,0.49326
0.0018684,-0.011063,-0.026296,-0.0011238,-0.0056756,0.022069,0.011638,-0.44237
0.063216,-0.025532,0.003106,0.028402,0.008767,0.068971,0.054617,-0.063316
-0.086962,0.092687,0.090188,0.011583,0.007132,-0.06368,0.046872,0.11183
-0.033878,-0.069496,-0.060822,-0.027924,-0.025957,-0.031952,0.16902,-0.028903
-0.034665,-0.042524,-0.051026,-0.027538,-0.012077,0.00030534,-0.18815,0.13785
0.044028,0.010048,0.0021314,0.004858,0.017811,0.087952,-0.0017241,-0.33363
0.022822,0.11179,0.097717,0.029992,0.017053,-0.050201,-0.085333,-0.012744
-0.020135,0.035884,0.023348,0.016293,0.009193,0.015429,0.036127,0.094585
0.07897,-0.022916,0.042946,0.01026,-0.0058077,-0.035762,0.072023,0.19387
0.12439,-0.14346,-0.18108,-0.043162,-0.012493,0.030154,-0.01818,-0.025129
-0.19685,0.040734,0.029658,0.004188,0.0045008,0.032957,0.029924,-0.052975
-0.017862,0.03691,-0.0052807,0.0037385,0.013635,-0.012239,-0.09703,-0.092166
-0.01057,-0.030257,-0.020376,-0.013216,-0.024404,-0.027681,-0.032314,0.15375
-0.080922,-0.020241,0.078593,0.0082245,-0.00039914,-0.013497,0.12247,0.074109
-0.072119,0.043581,-0.012192,-0.0019177,0.0074916,0.053924,0.19579,0.175
0.44616,-0.033992,-0.049515,-0.0041979,-0.008456,-0.090573,-0.37414,-0.53749
-0.18178,0.083043,0.053507,0.0095445,-0.0090019,-0.00098905,0.10894,-0.01774
-0.025986,-0.0037898,0.039747,0.023928,0.01388,0.026558,0.099274,0.16335
-0.039602,-0.04462,-0.067017,-0.023449,-0.0099347,-0.015079,-0.12075,-0.033184
-0.090169,0.015091,0.053548,0.023614,0.044672,0.1167,-0.12047,0.10415
0.06388,-0.0043997,0.0028195,-0.0069214,-0.0019643,0.023549,0.24919,0.06046
-0.03141,-0.0013835,0.007141,-0.013708,-0.024909,-0.12292,-0.027189,0.031669
0.044856,-0.030132,-0.042944,-0.004756,-0.0086553,0.043956,0.073605,-0.044324
0.11192,-0.011837,-0.053518,-0.011446,-0.0080168,-0.054563,0.011917,0.19208
-0.018757,-0.00032822,-0.024149,0.013065,0.0081601,0.018417,-0.20519,-0.2589
-0.035613,0.013085,0.0066923,-0.024922,-0.0070444,-0.0031858,0.0075277,-0.02966
-0.18149,-0.025586,0.031753,0.030943,0.0010611,0.0053763,-0.04573,-0.18985
0.082384,0.094934,0.066961,0.0088743,0.016885,0.012817,0.11921,0.058256
0.053005,0.015124,0.041863,-0.012978,0.001398,0.003656,-0.028855,0.066932
0.027763,-0.01568,0.033933,0.027811,0.017111,0.071919,0.1274,0.22705
0.093422,-0.13139,-0.16887,-0.048633,-0.037563,-0.086732,-0.13844,0.13183
-0.1943,0.02598,0.033667,0.0074182,0.0013756,-0.018805,0.017387,-0.34511
-0.029615,0.095633,0.046441,0.023775,0.0010309,-0.0052108,0.024423,0.18481
0.112,0.029448,0.0012191,0.00014846,0.016004,0.024629,0.015225,0.17245
0.067431,-0.032772,0.022491,0.022282,0.014982,0.023991,-0.026118,-0.40751
-0.02976,-0.020935,-0.014571,-0.011417,-0.0098596,0.016334,0.040848,0.13142
-0.038421,-0.059558,-0.1169,-0.053903,-0.019397,0.001557,-0.010372,-0.0073974
-0.059811,0.00095541,0.029453,0.004582,0.0099559,0.010727,0.062819,-0.20519
0.015547,0.037276,0.059098,0.03177,0.00030782,-0.05793,-0.2232,0.18127
0.086011,-0.042452,-0.018371,-0.018594,-0.016804,-0.032719,0.070104,0.14734
-0.10648,-0.041162,-0.014029,-0.0053064,-0.0098351,-0.015331,-0.0015076,-0.16331
0.0079712,0.08927,0.049457,0.032984,0.029261,0.0801,0.00035565,0.025096
0.10069,0.052434,0.039231,0.0026878,-0.00096311,0.026961,0.11518,0.096558
0.014754,0.043207,0.0091251,0.0052292,0.0010048,-0.010744,0.12398,0.066554
-0.078636,-0.041227,-0.03453,-0.014492,0.0036894,-0.033097,-0.26319,-0.0037789
0.077713,-0.046424,-0.031039,-0.010211,-0.0010931,0.0066767,0.077232,-0.11667
-0.13383,0.049089,0.041285,0.025196,0.025269,-0.024331,0.33886,-0.040329
0.052138,-0.10795,-0.10017,-0.01828,-0.027042,0.0066367,-0.55802,-0.042855
-0.059659,-0.010836,0.02823,-0.0082854,-0.017743,0.0058277,0.17445,0.061313
0.14817,0.066709,0.028042,0.0080973,-0.001696,0.043617,0.082574,0.020953
-0.081923,-0.10918,-0.084481,-0.039371,-0.010124,-0.067381,-0.17731,-0.10195
-0.02315,0.13453,0.074551,0.029313,0.019682,0.040174,0.1689,-0.0026803
-0.019217,0.002479,0.084512,0.019319,0.017749,-0.00074272,0.036304,0.10814
0.125,-0.066298,-0.076889,-0.029766,-0.02335,-0.041536,-0.05051,0.019936
-0.067456,0.015388,0.0052404,0.015333,0.013928,0.05855,0.050165,0.13927
-0.058073,0.068598,0.050044,0.014294,0.0048403,0.0027358,0.018889,-0.057023
0.24638,-0.00027605,-0.036276,0.014086,-0.0036153,-0.052673,-0.15935,-0.0373
-0.27163,-0.05885,-0.050999,-0.02446,0.0041742,0.0095344,0.093943,-0.089879
0.17698,0.048264,0.067763,0.015587,-0.0031614,0.02529,-0.049193,-0.088507
-0.30577,-0.062836,-0.024395,-0.014534,-0.0023647,0.0023818,0.028429,-0.03925
0.156,-0.026047,-0.031133,-0.0057406,-0.0014356,-0.0045452,0.076676,-0.057263
0.032163,0.024932,0.015988,0.0027163,-0.016148,-0.042422,-0.068755,0.34375
0.12863,0.089553,0.030997,-0.012638,0.00028733,0.013683,-0.087887,-0.22546
-0.092671,-0.019829,-0.0093144,0.0029932,0.016602,0.054312,0.12825,0.21209
-0.052991,-0.10765,-0.04984,-0.01268,0.0015723,0.016873,0.11047,0.10882
0.12275,0.029761,0.027094,0.026514,-0.0056945,-0.083106,-0.23544,-0.31045
-0.21438,-0.0052907,-0.035907,-0.0042492,-0.0051731,0.012097,0.0041743,-0.032611
0.16121,0.03793,0.05825,0.012263,0.00312,0.01334,0.12581,0.11138
-0.079981,0.0037603,-0.018626,-0.010002,0.011305,-0.0013211,-0.034876,0.064147
0.076098,0.033143,0.053411,0.022444,0.011461,0.0071138,-0.0015515,-0.090443
0.010739,0.024521,0.031581,-0.00012817,-0.012159,0.022961,-0.00090494,-0.017645
0.05085,-0.053621,-0.030109,-0.0077642,-0.004966,-0.0085154,0.021726,0.094909
-0.030793,-0.037652,-0.10881,-0.047612,-0.013876,-0.0092084,-0.027308,-0.040951
-0.13256,0.04072,0.037346,0.020835,0.0080287,0.013106,0.0084878,-0.056305
-0.0192,-0.021983,0.0021214,-0.0054786,-0.0094427,-0.043022,-0.011124,-0.10517
0.0452,-0.038429,-0.04223,-0.001312,0.0042059,0.017912,0.047168,0.10384
0.015743,0.077365,0.061179,0.025879,0.010116,0.00085087,-0.15984,-0.036662
-0.097739,-0.033744,0.031841,0.0061838,0.00847,-0.00018504,0.087076,0.21684
0.21425,-0.012041,-0.020186,-0.013152,-0.0084219,-0.0005892,0.030446,0.044535
-0.00040536,0.025644,-0.00066144,-0.00058946,0.0063618,0.015398,0.014102,-0.10849
0.031967,0.017097,0.043764,0.012805,-0.0018943,0.00089691,0.15505,-0.11016
-0.064191,-0.029725,-0.058828,0.0036712,-0.00202,0.026069,-0.12523,0.038634
-0.14939,-0.060164,-0.027437,-0.027992,-0.0097395,-0.065615,-0.19447,-0.076881
0.017099,0.074024,-0.0030546,-0.011926,-0.0016988,0.02236,0.1187,0.0038808
0.097854,0.13034,0.13113,0.051796,0.022061,0.031813,0.0013516,-0.02374
-0.017817,-0.13377,-0.10176,-0.040037,-0.016573,-0.021942,0.086071,0.17644
0.036251,-0.031109,-0.0065833,0.0015463,0.0074619,0.048408,-0.0099905,-0.16884
-0.11562,-0.10877,-0.067744,-0.026695,-0.030747,-0.093103,-0.075732,0.034071
0.034036,0.10192,0.066414,0.046962,0.0095064,0.0067849,0.037619,0.1205
-0.0070433,0.069787,0.060121,0.011377,0.018879,0.02022,0.025842,-0.043455
0.19101,0.05279,-0.008325,0.0069325,0.012951,0.02567,-0.024584,0.24396
-0.027638,-0.050421,-0.037235,-0.036943,-0.0084094,0.0078505,-0.13657,-0.27641
-0.092013,-0.013033,0.043753,0.020146,0.017089,0.029528,0.065311,0.10549
-0.18086,-0.12383,-0.085705,-0.025074,-0.027982,-0.081027,0.20627,-0.29795
0.15233,0.047171,0.003973,-0.00076825,0.00459,0.019951,-0.16688,-0.0015397
0.088622,0.078371,0.031367,0.015023,-0.010351,0.019856,0.062741,0.18383
-0.22999,-0.053473,-0.011565,-0.024385,-0.018169,-0.011186,-0.058543,-0.036661
0.13515,0.08919,0.085841,0.037508,0.043695,0.059423,0.078014,0.10466
0.044096,-0.087527,-0.059524,-0.0099755,-0.019914,-0.057574,-0.098493,0.070285
0.012533,0.025427,0.013006,0.0052522,0.0021548,-0.0029189,0.067747,-0.04529
0.00074866,0.01352,-0.048328,-0.018247,0.00075868,-0.026632,-0.10316,-0.046916
-0.039423,-0.022222,0.022026,-0.010149,-0.0082733,0.0041839,0.0059706,-0.0058879
-0.00035036,0.081757,0.036644,0.045076,0.029893,0.042809,0.098461,-0.1425
-0.0402,-0.10461,-0.058955,-0.016826,-0.0096712,0.019113,0.010513,0.088347
0.081433,-0.042476,-0.022295,-0.016409,-0.017593,-0.027689,0.00020835,0.10681
0.019439,0.057235,0.021915,-0.00079783,-0.0017519,-0.0037657,-0.080666,-0.10411
-0.14878,0.015009,0.058267,0.0063633,-0.0013194,-0.010694,0.080559,0.064103
0.014298,0.018643,0.024351,0.012765,0.0070082,-0.025153,-0.055033,-0.013796
0.14222,-0.0096377,-0.048636,-0.020661,0.00747,0.022964,0.098658,-0.087441
-0.068399,0.016458,0.018849,0.015577,0.0077585,0.047455,-0.22378,0.1175
-0.092477,-0.012111,-0.023354,-0.0032835,-0.0078353,0.0089846,0.14982,-0.093023
0.087282,-0.024716,-0.019075,-0.006603,-0.00028098,-0.045788,0.024421,-0.0066855
0.0035439,0.041453,0.039564,0.0059927,-0.00079828,0.031481,-0.03719,0.04185
0.11815,-0.039859,-0.058139,-0.027633,-0.032733,-0.095072,0.0042092,-0.016799
-0.22489,-0.065239,-0.030566,0.017812,0.021237,0.043555,-0.038883,0.044348
0.075534,0.05147,0.060198,0.0096793,0.0050147,0.018068,-0.010421,0.045463
0.018348,0.021297,0.066074,0.018285,0.020295,0.0086015,0.16731,0.0093496
0.078635,0.062904,-0.051791,-0.019037,-0.018776,0.0077418,-0.084358,-0.041508
0.090712,-0.058368,0.003485,0.0067822,0.012821,-0.023321,-0.102,-0.10033
-0.079665,0.032031,0.0051524,0.0016051,-0.009959,0.0013878,0.098162,0.050761
-0.26157,-0.033622,-0.015867,-0.011525,-0.0090844,0.0035466,-0.093704,-0.041919
0.036905,0.0019778,-0.0052639,-0.0016818,0.0075171,0.045258,0.087753,0.019916
0.11311,-0.017806,-0.002437,-0.00030735,0.00067131,0.0088189,0.017476,0.080232
0.069717,-0.015036,0.015836,-0.0074301,-0.0062696,-0.090662,-0.12471,-0.0089169
0.095744,0.025933,-0.02081,0.0083339,0.010087,0.027667,0.036488,-0.059403
-0.064926,-0.019703,-0.0028872,-0.0074403,-0.012761,0.05113,0.18894,0.03097
-0.18411,0.02022,0.015159,0.0080815,0.011166,-0.043616,-0.21382,0.020546
0.15356,0.044432,0.049259,0.0318,0.011627,-0.0062182,0.070777,-0.059065
-0.12915,-0.032791,-0.064369,-0.021949,-0.011292,-0.015827,0.050895,0.042286
0.038347,-0.039492,-0.02867,-0.028006,-0.018446,-0.017166,-0.085671,-0.011395
0.14786,0.07114,0.039163,-0.0098089,0.0058471,0.037134,0.051945,0.021847
-0.1063,-0.060454,-0.025165,0.024662,-0.00090316,0.022324,-0.067334,-0.0067835
-0.022546,-0.012656,0.043508,0.012579,0.00031019,0.00083313,0.048772,-0.027393
0.13163,0.050213,0.033598,0.031623,0.040613,0.034761,-0.021622,0.084596
0.026219,0.065465,0.03033,-0.020257,-0.020799,-0.001533,0.072925,-0.16338
-0.15288,-0.084142,-0.060677,-0.0028721,0.011182,-0.030649,-0.066247,0.033045
-0.055163,-0.04693,-0.028871,-0.025886,-0.035497,-0.014141,0.052767,0.079886
-0.0091101,0.028952,-0.0070921,0.0043802,0.0031091,-0.053918,0.039058,-0.0074142
0.016877,-0.02015,-0.049664,-0.029085,-0.0058281,-0.024966,-0.22478,0.067915
0.10965,0.040574,0.00033911,0.0069132,0.015904,0.080905,0.14396,-0.053501
0.036094,0.016164,0.049995,0.019135,0.005984,0.014335,0.20002,-0.0043086
-0.030575,-0.030709,0.029758,0.015911,0.0037064,-0.0051705,-0.3924,-0.081008
-0.065684,0.056143,0.057346,0.021097,-0.0063052,-0.0081568,0.24973,0.037316
0.033329,0.0029948,0.0079416,-0.01976,-0.016014,-0.017553,-0.099966,-0.015742
-0.029691,-0.073409,-0.063922,-0.005072,0.021622,0.013737,-0.0039201,0.018485
0.081664,0.053002,-0.010201,0.010314,-0.0026755,0.015306,0.13151,0.0079573
-0.062018,-0.079135,-0.073555,-0.012946,-0.01077,-0.021041,0.0013352,0.023532
-0.015269,0.084607,0.11281,0.018581,0.020714,0.029112,-0.0902,0.081036
0.081366,-0.033942,-0.076306,-0.043812,-0.025535,-0.038033,-0.049826,-0.061899
-0.11585,-0.028355,0.015382,0.0028294,-0.0012423,-0.012169,0.028316,-0.093317
0.0023607,0.01578,-0.002499,0.010022,0.015287,0.082795,0.097181,0.040654
-0.025237,0.020792,0.050127,0.0012683,0.0004464,-0.058053,0.0084589,-0.028154
0.12888,0.034021,0.0018101,0.031393,0.0087871,-0.028402,-0.1749,0.035182
-0.16907,-0.045692,-0.037717,-0.0010016,-0.0066482,0.00019836,0.05563,0.14378
0.25926,-0.0071279,-0.021364,-0.01764,-0.014623,-0.010794,0.075922,-0.085902
-0.064263,0.024849,0.035269,-0.010596,-0.0072658,0.040786,-0.06631,-0.099642
-0.016231,0.011164,0.014821,0.0045695,0.02336,0.038311,-0.011069,-0.069408
-0.082289,-0.024888,-0.012745,-0.0033771,-0.016331,-0.017808,0.085628,0.13789
-0.020915,-0.036673,-0.040087,0.004601,0.0066509,-0.018001,-0.02647,0.046279
0.12898,0.084864,0.080723,0.01282,0.022143,-0.0013626,0.011281,0.070665
