0.010279,0.091112,-0.15909,0.042674,0.018176,0.024292,0.012872,0.01525
0.042006,0.050966,0.1543,0.10883,0.04328,0.024658,0.015152,0.024005
0.010837,0.048112,-0.47686,-0.17269,-0.010171,-0.022276,-0.0067067,0.0087698
-0.083402,-0.28475,-0.49215,-0.24746,-0.10333,-0.054047,-0.037356,-0.061852
0.0014101,0.052643,0.88269,0.11165,0.037162,0.007553,0.0090224,-0.00035959
-0.00027851,-0.0015278,-0.24724,0.046504,-0.0026929,0.0064597,-0.0081334,-0.017521
0.028924,0.10841,0.092318,0.25404,0.058543,0.044469,0.020781,0.043224
0.034622,0.039811,-0.060917,-0.16253,-0.013249,0.0046141,0.010177,0.010389
-0.02974,-0.042248,-0.028801,-0.053424,-0.022493,-0.011395,-0.0082961,-0.0062709
0.00018223,-0.0042339,0.0062156,0.2541,0.031027,0.004305,0.0048064,-0.0064652
-0.0082267,-0.048965,0.13314,-0.22401,-0.032237,-0.026461,-0.020526,-0.0056826
-0.00019527,0.05779,-0.19421,-0.026999,-0.0091099,-0.0022567,0.00964,0.003844
0.016431,0.0029735,0.21781,-0.053841,0.014434,0.0064419,0.017225,0.0062698
0.025888,0.051337,-0.0094239,0.077497,0.030475,0.030715,0.0099587,0.032492
-0.081415,-0.22787,-0.29487,-0.071412,-0.062709,-0.054585,-0.043597,-0.058535
0.053636,0.16425,0.49686,0.16249,0.047199,0.039499,0.02037,0.02184
-0.0067339,-0.0077218,-0.50613,-0.010873,-0.0071657,-0.0074045,-0.0015322,-0.00015566
-0.028403,-0.025875,0.14597,-0.084609,-0.015005,-0.015616,-0.0079812,-0.015347
0.050919,0.17172,0.17826,0.11247,0.023613,0.03053,0.02428,0.015283
-0.0032807,-0.1886,-0.23677,-0.029315,-0.00066038,-0.0095039,-0.0064095,-0.0019095
0.004263,-0.0051065,0.27834,-0.025377,0.013876,0.012847,-0.0063069,0.011433
-0.059206,0.058703,-0.39769,-0.17184,-0.04191,-0.035072,-0.0144,-0.022506
0.01741,-0.1916,-0.45601,0.0012208,-0.01146,-0.0046486,0.00069848,0.0059865
-1.7081e-05,0.22947,0.81801,0.01083,-0.027272,-0.012912,-0.0077243,0.0034728
0.021622,0.065247,0.16898,0.24107,0.035886,0.034001,0.022982,0.01708
0.027935,-0.065995,-0.24615,-0.072846,0.045267,0.026746,0.014794,0.0079119
-0.027703,-0.07747,0.52482,0.030231,0.00072179,-0.0034897,-0.0010019,-0.023958
-0.0045011,-0.015517,-0.34048,-0.0048497,0.019071,-0.0099806,-0.00099934,-0.00041717
-0.019588,-0.059673,-0.8288,-0.10876,-0.048643,-0.031998,-0.024336,-0.0153
-0.0027096,0.039774,0.7845,0.1079,-0.0076657,-0.0072666,-0.016418,-0.0062514
-0.000909,0.024277,-0.90785,-0.1373,0.0087209,0.017142,0.0070487,0.018727
0.055868,0.17396,0.84402,0.037653,-0.023181,0.009838,0.022572,0.02816
0.018874,0.057756,-0.022005,0.069946,0.037269,0.025446,0.022317,0.0061905
-0.041879,-0.21633,-0.61506,-0.087071,-0.028377,-0.037578,-0.032768,-0.023959
-0.0016262,0.04589,0.90816,0.043795,0.030415,0.016175,0.0057934,6.0284e-05
-0.063606,-0.1718,-0.024116,-0.067892,-0.043507,-0.016257,-0.010378,-0.031186
0.030019,0.036846,-0.28913,0.086407,0.023941,0.01377,0.020354,0.022983
-0.0018575,0.0083593,-0.31132,-0.14136,-0.040186,-0.018523,-0.026931,-0.016965
0.075343,0.19682,0.047932,0.19405,0.04558,0.027679,0.027524,0.028881
-0.066308,-0.076382,0.12384,0.037381,0.0076859,-0.04281,-0.027173,-0.018931
0.003011,0.025644,0.55044,-0.018429,0.0019473,0.0044142,0.0043044,-0.0039565
0.05678,0.042642,-0.4579,0.1196,0.082402,0.067705,0.043804,0.04267
0.032462,0.053108,-0.18486,-0.11918,-0.017272,0.014069,-0.0024818,0.027216
-0.1169,-0.35691,-0.11601,-0.375,-0.12574,-0.078609,-0.048694,-0.081638
-0.0007341,0.14066,-0.33062,0.1502,-0.0010342,0.00036606,-0.0011635,-0.002768
0.021557,0.053484,0.27028,0.012949,-0.010156,0.00080762,-0.00058706,0.013673
-0.010909,-0.0014392,0.53275,-0.011347,-0.019732,0.0085661,0.0076651,-0.0012141
0.12073,0.25694,0.088048,0.47734,0.17416,0.078361,0.06261,0.069631
-0.091211,-0.30436,-0.32727,-0.40314,-0.083898,-0.078728,-0.046727,-0.055138
-0.0059566,0.11921,0.71542,0.06538,-0.027655,-0.017166,-5.5307e-05,-0.016204
-0.0062048,-0.097358,-0.1068,0.10761,-0.00059199,-0.0023266,-0.016128,0.0067322
0.0096796,0.022574,-0.93655,-0.11527,0.043967,0.044137,0.0066439,0.021514
-0.020792,-0.098978,0.16448,-0.067577,-0.043081,-0.010453,-0.0019954,-0.018654
0.050754,0.13964,-0.49398,0.083337,0.034103,0.0057848,0.0049117,0.019157
-0.041448,-0.042887,0.57449,0.14742,0.00084999,-0.001027,0.0040232,-0.02115
0.030528,0.11874,-0.022296,-0.22816,-0.0034074,0.00012691,0.018874,0.02466
0.078955,0.17078,0.20908,0.41003,0.12199,0.071467,0.010489,0.01615
-0.13074,-0.45786,0.12239,-0.8032,-0.21713,-0.12319,-0.04449,-0.054313
-0.020576,0.091314,-0.35919,0.12773,-0.020544,-0.0058763,-0.013191,-0.014703
0.07348,0.16907,0.34927,0.66802,0.11882,0.079655,0.026302,0.041316
-0.028216,-0.084543,0.11078,-0.29514,-0.039902,-0.053972,-0.0041343,-0.0034561
0.010376,0.041161,-0.28539,-0.13301,-0.0029737,0.023148,0.0048244,0.0070882
0.0096739,0.022839,-0.44366,0.1803,0.059226,0.014382,0.021814,0.010174
-0.045886,-0.15466,0.2557,-0.22945,-0.11779,-0.048823,-0.031463,-0.033648
0.10151,0.18919,0.57944,0.47259,0.20873,0.083623,0.032281,0.047062
-0.056014,-0.077249,-0.628,-0.52096,-0.15664,-0.064881,-0.029351,-0.029357
0.0049176,0.06308,0.68152,0.24692,0.035319,0.036758,0.017858,0.010242
0.034284,0.072716,-0.84085,-0.13451,0.072422,0.021127,0.0097767,0.0016947
-0.10846,-0.4686,0.52066,0.049143,-0.15621,-0.080748,-0.061357,-0.03924
0.05348,0.35463,-0.21885,0.13812,0.1214,0.051293,0.046815,0.0128
-0.0030144,-0.065943,-0.010729,0.27884,0.013533,-0.012464,-0.017008,-0.0057199
0.011511,0.12165,0.15648,-0.47413,-0.074119,-0.014079,0.013103,0.0073577
0.0036495,0.081129,-0.46256,-0.22826,-0.016416,0.02327,0.012426,0.013504
0.0048537,-0.18083,0.18369,0.39521,0.07026,0.0061769,-0.011036,0.013075
-0.047399,-0.10351,0.16151,-0.41912,-0.1565,-0.072818,-0.025977,-0.017274
0.041925,0.1234,0.6293,0.24803,0.062717,0.052192,0.014379,0.0082002
0.014501,0.021001,-0.39697,0.088638,0.081061,0.0063437,0.008223,-0.0046993
0.041548,0.071562,0.057998,0.22276,0.071644,0.078663,0.048957,0.037176
0.013035,0.070322,-0.51585,0.37763,-0.066406,-0.043559,-0.027859,-0.0074229
-0.10279,-0.2571,0.16024,-0.78426,0.010699,-0.079397,-0.027233,-0.04525
-0.009238,-0.043654,-0.46269,-0.32896,-0.10387,0.017655,-0.011842,-0.0062562
0.036055,0.070587,0.96559,0.70745,0.11227,0.051954,0.018336,0.015844
-0.021052,0.0085716,-0.57889,-0.33662,-0.037541,-0.0079856,0.0010349,-0.017685
-0.015713,-0.025307,0.23216,0.56508,-0.023445,-0.045097,-0.024283,-0.0047435
0.04509,0.22011,0.079099,-0.43511,-0.010802,0.010918,0.013172,0.024027
-0.025477,-0.027735,0.11913,0.16841,-0.016281,-0.011768,-0.018973,-0.0089706
0.054142,0.059804,-0.0059339,-0.28852,0.076578,0.05097,0.03582,0.037204
-0.013086,-0.11069,-0.54477,-0.21015,-0.060736,-0.01959,0.013541,-0.0014885
-0.024653,-0.13262,-0.30856,0.36036,0.048281,0.042157,-7.9417e-05,-0.015942
-0.0049574,-0.17731,0.42257,-0.20504,-0.033633,-0.084159,-0.021095,-0.014458
0.08398,0.13888,0.93048,0.20784,0.045585,0.07798,0.043698,0.04926
0.11622,0.55919,-0.58962,0.50928,0.13041,0.075476,0.02971,0.034077
-0.32286,-0.84503,-0.60733,-0.89191,-0.32514,-0.23214,-0.14156,-0.16188
0.040186,0.32547,0.44622,0.51282,0.086169,0.085101,0.029764,0.039498
0.026282,0.21163,0.38972,-0.37125,0.044986,-0.0036502,0.0047622,0.021289
0.034932,0.024155,-0.45001,0.42234,0.059917,0.025455,0.0025437,0.018357
0.075243,-0.026786,0.31704,0.070348,0.014275,0.055562,0.047008,0.023463
-0.03126,-0.13763,-0.39465,-0.039409,-0.091804,-0.014734,-0.0020365,-0.0097488
-0.010277,-0.098661,0.033543,-0.37767,0.12427,-0.021425,0.01977,0.0049984
-0.002102,-0.12972,-0.61506,-0.33576,-0.03328,0.0039839,-0.0046474,0.0053059
0.078963,0.44807,0.90389,0.71975,0.044367,0.022048,0.0027788,0.0066603
-0.088119,-0.35025,0.17785,-0.78761,-0.20573,-0.092649,-0.051862,-0.038134
0.065951,0.20151,-0.51945,0.87851,0.10687,0.081412,0.026567,0.026761
-0.077082,-0.20958,0.39679,-0.39748,-0.033331,-0.041938,-0.027677,-0.025625
-0.010298,0.16595,-0.0054729,-0.013418,-0.024366,-0.0018397,-0.011494,0.0075138
0.015751,0.13209,-0.30737,0.44407,0.14993,0.045515,0.01267,-0.014638
-0.030333,-0.14795,0.13673,-0.13622,-0.0099361,-0.032538,0.01365,0.0016173
0.00010151,-0.049938,0.2,0.0088354,-0.16777,-0.0092568,0.022745,0.017276
0.084088,0.25378,-0.61005,-0.61541,0.082597,0.03739,0.032104,0.024654
0.01126,-0.25233,0.38758,0.30959,0.029683,-0.0096969,-0.028726,0.00046438
-0.077225,-0.1612,-0.75768,-0.32619,-0.030583,-0.041134,-0.027155,-0.03171
-0.001285,0.013069,0.61348,0.50911,0.072417,0.052389,-0.010305,-0.017058
0.10648,0.37419,0.64435,0.38745,0.016988,0.052021,0.037233,0.060145
-0.058562,-0.083233,-0.40573,-0.86069,-0.096565,-0.11265,-0.025295,-0.034391
0.011324,0.088467,0.10387,0.39228,-0.019133,-0.00418,-0.033849,-0.019348
-0.13711,-0.5385,-0.070407,0.25815,0.061468,0.025889,0.011649,-0.027482
0.089736,0.20105,-0.39179,-0.36276,-0.026271,0.047953,0.072292,0.074047
0.012056,0.18221,0.30913,-0.1647,-0.015688,-0.023791,-0.015786,-0.011642
0.012538,-0.0022602,-0.43065,0.19612,-0.030215,-0.0095061,-0.018004,-0.011155
0.0051238,0.083151,0.10642,-0.17985,0.010137,-0.018439,-0.027911,-0.010508
0.044388,0.17801,0.7248,0.43176,0.099417,0.027625,0.009367,0.013639
0.020872,-0.087602,-0.23113,0.23106,0.020427,0.042781,0.023683,0.0065108
-0.12794,-0.42684,-0.97106,-0.3322,-0.12428,-0.051114,-0.031707,-0.031963
-0.0035421,0.088731,0.88936,-0.31584,-0.061,-0.027562,0.0073374,-0.00026075
-0.027655,-0.14249,-0.06234,0.16076,0.10035,0.003966,0.00019273,-0.0077758
0.049896,0.15394,-0.059093,-0.21575,0.030398,0.0042853,0.0092683,0.023602
0.072988,0.19846,0.087846,0.05539,0.094548,0.043571,0.018756,0.023535
0.026014,0.11004,-0.081341,0.70297,0.0017424,0.020122,0.0049624,-0.0002034
-0.013006,-0.10212,0.3876,-0.17588,-0.15611,-0.027112,-0.016768,-0.00077774
-0.044253,-0.023284,-0.84788,-0.73343,-0.059988,-0.027871,-0.015435,-0.025071
-0.0053944,-0.083279,-0.067826,0.175,0.10991,0.033513,0.01661,0.0050999
-0.044929,-0.032912,0.29895,0.060649,-0.044416,-0.05374,-0.014419,-0.019501
-0.02995,-0.099991,0.39317,0.30862,-0.021693,-0.00031551,-0.022489,-0.012723
0.055411,0.19066,-0.059737,0.47432,0.086201,0.037837,0.023853,0.025682
0.00052739,0.033128,0.070394,-0.87298,-0.12489,-0.032763,-0.0079539,-0.005629
0.047866,0.028139,-0.28296,0.092269,0.11257,0.045862,0.022955,0.026281
0.0022574,-0.035458,0.047116,0.21009,0.01869,0.015904,0.015182,0.012021
-0.042603,-0.11809,0.2039,0.046559,-0.01538,-0.013438,-0.015593,-0.032951
0.06147,0.093957,-0.23904,0.31635,0.017795,0.012202,0.016507,0.047322
-0.099982,-0.24909,-0.29268,-0.5307,-0.093956,-0.079451,-0.060551,-0.06783
-0.0039808,0.018847,0.1901,-0.43411,0.05375,0.00026412,0.0030183,-0.0037593
0.067802,0.26679,0.31951,0.87124,0.044671,0.071339,0.042922,0.036135
0.044756,-0.043073,-0.010852,-0.082425,-0.021747,0.024218,0.012079,0.020453
-0.057606,0.15219,0.23507,-0.68358,-0.0065728,-0.062983,-0.011529,-0.027369
-0.04387,-0.069765,-0.71774,0.52381,-0.0045373,-0.010402,-0.0045191,-0.02125
0.015964,-0.12419,0.083051,0.39447,-0.023559,0.049489,-0.01371,0.0078176
-0.018262,0.0030116,0.55847,-0.59214,-0.10193,-0.054726,-0.015496,0.013287
0.04149,-0.041236,-0.72306,-0.019679,0.050893,0.029031,0.01382,0.011122
0.031668,-0.070575,-0.1795,-0.22275,0.046185,-0.0034419,0.0042349,-0.0061932
0.0073503,0.13313,0.78393,0.54895,0.042137,0.012292,0.010736,0.016244
-0.046875,-0.047405,0.1729,0.34159,0.032576,0.006109,0.0023098,-0.030834
0.025252,0.059959,0.14629,-0.33848,-0.043921,-0.014217,-0.0052983,0.016633
-0.081139,-0.11469,-0.33439,-0.28223,0.00054288,-0.025525,-0.019918,-0.036771
0.047669,0.092993,-0.28488,-0.35095,0.0016492,0.026379,0.020798,0.027522
-0.002851,0.019005,-0.087212,0.30531,-0.041367,-0.0075873,-0.0084182,0.0061504
0.094898,0.20216,-0.11338,0.17758,0.089184,0.059368,0.048356,0.055104
-0.042423,-0.16267,0.48642,0.37457,-0.084393,-0.015607,-0.043588,-0.060235
-0.055886,-0.18535,-0.48959,-0.14304,-0.078738,-0.061144,-0.034525,-0.035375
-0.039538,-0.05371,0.42344,-0.82045,0.050693,-0.038441,0.020686,0.0045643
0.069028,0.13845,-0.13631,0.91316,0.084673,0.083793,0.020446,0.043927
0.035564,0.14921,-0.40545,-0.48045,0.0073905,-0.0066045,0.0039093,0.020259
-0.069291,-0.13026,0.64396,0.19517,-0.017031,-0.0278,-0.0052867,-0.019454
-0.0028807,0.10548,-0.18082,-0.27745,-0.050833,-0.01031,-0.030312,-0.028188
0.047826,-0.056792,0.38598,0.25923,0.0079584,0.046638,0.022868,0.0098449
-0.041665,-0.13187,-0.58743,0.20474,0.050478,-0.028139,-0.0017365,-0.0067617
0.033736,0.11536,0.1999,-0.36984,-0.094594,0.008068,0.021063,0.015867
0.0086436,-0.064596,0.063868,0.13739,0.049834,0.0070979,-0.0023875,0.0074925
-0.023143,0.039388,-0.015163,-0.12526,-0.039238,-0.015417,-0.025218,-0.0084347
-0.014878,-0.033841,-0.086856,0.30264,0.083793,-0.020666,-0.0084649,-0.0085249
0.017543,0.082252,-0.22256,-0.4001,0.036226,0.045574,0.016448,0.014942
0.0269,0.027257,-0.24966,0.15614,-0.041366,0.010833,0.018051,-0.00064415
0.012844,0.1046,0.72462,0.53278,-0.039777,-0.00052334,-0.011706,-0.00069372
-0.056162,-0.23388,-0.46881,-0.78672,-0.045171,-0.05938,-0.002735,-0.00088677
-0.03967,-0.075167,0.14154,0.23611,-0.010907,-0.0099142,-0.025533,-0.032469
0.031017,0.15822,0.44832,0.06982,0.094045,0.030458,0.021343,0.014
0.054391,-0.033851,-0.16459,0.42556,-0.0039723,0.061715,0.028473,0.037064
-0.01631,0.0052557,0.084331,-0.69614,-0.02395,-0.064416,-0.019728,-0.033471
-0.0012709,0.073201,-0.31292,-0.044652,0.0025766,0.0039187,-0.013774,0.005609
-0.041021,-0.14147,-0.13774,0.14612,-0.041905,-0.037619,-0.0238,-0.009733
0.020737,0.018624,-0.47589,0.25122,0.037579,0.03787,0.02853,0.014196
0.043375,0.17177,0.40752,0.37172,0.061043,0.050957,0.018433,0.014754
-0.020006,-0.017027,0.63805,-0.46216,-0.034204,-0.029457,-0.0070204,-0.0082653
-0.0053559,-0.10952,-0.68251,0.40463,-0.045055,-0.00020465,-0.0086163,-0.00039908
-0.037639,-0.12861,0.61728,-0.84923,-0.0025502,-0.017573,0.0059275,-0.0087103
0.016068,0.19945,-0.04175,0.16648,-0.039062,-0.011311,-0.018036,-0.0020413
0.038761,-0.023705,-0.04383,0.71784,0.11948,0.041987,0.028863,0.027467
-0.063078,-0.095132,-0.40583,-0.67045,-0.096503,-0.060768,-0.048732,-0.044982
0.023282,0.047174,-0.18304,0.05812,0.032467,0.016474,0.030358,0.0075127
0.016758,-0.058537,-0.070474,0.13983,-0.055517,0.0082595,0.0082327,-0.0021277
0.034593,0.094443,0.32357,0.24035,0.15553,0.039781,0.017601,0.020269
-0.024874,0.15325,0.524,0.0089968,-0.021794,0.0018282,-0.011951,-0.010907
-0.036896,-0.11002,-0.41319,-0.32762,-0.12677,-0.043012,-0.018021,0.0060595
-0.0096781,-0.11059,-0.12807,0.01097,-0.042664,-0.040074,-0.024129,0.00078124
0.025051,-0.028921,-0.30862,0.17188,0.10489,0.041731,0.0087133,0.012008
0.043349,0.048774,0.91851,0.075422,0.041714,0.038046,0.041367,0.015796
-0.017731,-0.080338,-0.81651,-0.49071,-0.053249,-0.067175,-0.043451,-0.043157
0.044632,0.19388,0.88937,0.96482,0.084964,0.10839,0.035394,0.037664
-0.08215,-0.13532,-0.8655,-0.62838,-0.13787,-0.052921,0.019959,-0.023474
-0.030714,0.12077,-0.08373,-0.37892,0.035838,-0.028057,-0.019549,-0.0080812
0.011867,-0.060134,0.33482,0.17555,0.0046049,0.0031163,-0.0050462,-0.0020781
0.030583,0.057325,0.4215,0.16179,0.026588,0.017241,-0.0067738,0.0026463
0.010496,-0.08078,-0.43906,0.13603,-0.038291,-0.040017,-0.040153,-0.016822
0.030356,-0.059898,-0.040319,0.17732,0.052784,0.027227,0.027954,0.033918
-0.034388,-0.082957,0.15373,-0.16754,-0.058974,-0.030336,0.0026287,-0.0085404
-0.0038486,0.19368,-0.10138,-0.10272,0.025298,0.0067103,-0.0063692,-0.010844
0.020344,0.11335,-0.27669,-0.075347,-0.0067141,0.037303,0.024687,0.027343
0.022271,-0.051193,0.3044,0.27953,0.063651,0.046043,0.017799,-0.0032768
-0.061005,-0.20707,-0.2145,-0.32154,-0.013931,-0.045288,-0.019293,-0.016946
0.027842,0.058836,0.089143,0.080575,-0.013375,0.0051068,0.00691,0.0172
-0.024128,-0.012158,0.37745,-0.28097,-0.075812,-0.037746,-0.028978,-0.026354
0.04058,0.10265,0.45864,0.68709,0.048352,0.028599,0.013225,0.031541
-0.051637,-0.065993,-0.54807,-0.35103,-0.00046933,-0.023054,-0.015336,-0.028338
0.03515,0.091015,-0.55516,-0.035179,0.019951,0.017764,0.025632,0.012436
0.004178,-0.035689,0.54915,0.073387,0.031769,0.010189,0.0031215,-0.010337
0.0040696,-0.023935,-0.62169,0.09348,-0.09736,0.0089255,-0.012601,0.0049596
-0.035289,-0.052851,0.12596,-0.33242,-0.015318,-0.10297,-0.044877,-0.035212
0.0034495,-0.051342,0.38618,0.078849,0.020609,0.081172,0.047123,0.041331
0.034436,0.098686,0.16852,0.0634,0.12018,0.038397,0.01367,0.0083543
0.0029851,-0.0081073,-0.38392,0.19288,-0.0055093,-0.035501,-0.0043229,-0.0010426
0.0027796,0.10562,0.80178,0.085247,-0.036216,0.00049665,-0.0065886,0.0055249
0.00247,-0.03613,-0.5767,-0.23601,-0.034717,0.021653,0.0070915,-0.010911
-0.060526,-0.20654,-0.47055,-0.30273,-0.079532,-0.042225,-0.033437,-0.026909
0.055953,0.19592,0.52018,0.21982,0.039848,0.019792,0.020356,0.04341
-0.023038,-0.016603,0.029349,0.64255,0.1199,0.020087,0.0044288,-0.026606
-0.031758,-0.14158,-0.77843,-0.75515,-0.097497,-0.057156,-0.018768,-0.010491
0.022121,0.13264,0.57329,0.063957,0.0046015,0.030003,0.01314,0.0057272
-0.017552,-0.10123,0.28677,-0.12834,-0.042685,-0.03903,-0.017228,-0.017104
0.060175,0.13223,-0.069243,0.55741,0.08874,0.079198,0.046132,0.038106
0.020828,-0.0040125,0.558,-0.07465,0.078659,0.017217,0.0076471,0.015001
-0.018598,-0.018711,-0.78641,0.014823,-0.10394,-0.061142,-0.039158,-0.01622
-0.02707,0.0329,-0.033224,-0.47763,-0.021148,0.023685,-0.00067218,-0.00096621
-0.028186,-0.16169,-0.47134,-0.026423,-0.055216,-0.025148,-0.0097106,-0.017408
0.0014698,0.0075123,0.29911,0.26975,0.036705,-0.019935,0.0041891,-0.010825
0.030806,0.12769,0.35088,0.062502,0.0052714,0.031884,0.025692,0.026724
-0.0023457,-0.010379,0.092976,-0.028007,0.054113,-0.025459,-0.022943,-0.013921
-0.011601,-0.037571,0.27788,0.27385,0.019386,0.042921,-0.00069281,0.0081331
-0.027751,-0.077048,-0.39748,-0.55441,-0.075627,-0.020358,-0.0087848,-0.024028
0.019873,0.021038,-0.22163,0.096031,0.07321,-0.011903,0.0076571,0.014813
-0.0092042,0.023008,-0.1092,-0.019166,-0.042797,0.0058253,0.017373,0.0075833
0.080204,0.20211,0.66485,0.58864,0.020585,0.040435,0.020139,0.01676
-0.024807,-0.26307,-0.67508,-0.36631,-0.065877,-0.025682,-0.015699,0.0031257
-0.027984,0.21157,0.27472,0.12677,0.064049,0.0022208,-0.0047107,-0.017955
0.01527,-0.040278,0.1601,-0.32705,0.0034662,-0.0014628,0.0057245,0.0079005
-0.036337,-0.05208,-0.11494,0.13635,-0.01348,-0.02946,-0.023849,-0.021158
0.012031,0.010328,0.28395,0.28923,-0.033433,0.027224,0.0079385,-0.0037792
-0.0038739,-0.15871,-0.35479,-0.58621,0.0067649,-0.0034448,-0.000429,0.0052462
-0.021418,0.02672,0.13339,0.1614,-0.0090855,-0.035451,-0.033052,-0.0018851
0.022319,0.028474,-0.61716,-0.0026101,0.037361,0.040864,0.027694,0.0218
0.018578,0.1997,0.53637,0.27835,-0.03244,-0.00063147,0.010424,-0.017302
0.0071131,-0.074878,-0.044415,-0.045639,0.048084,-0.011011,0.0015119,0.013775
-0.034881,-0.14498,0.079575,0.11506,0.013916,0.002375,0.0012378,-0.0020319
0.033689,0.13924,0.15089,-0.17501,-0.056636,0.016447,0.017481,0.01348
-0.044765,-0.096465,-0.316,-0.1501,0.015857,-0.038908,-0.020224,-0.033413
0.018778,-0.031856,0.13728,-0.046286,-0.089564,0.00039333,-0.010643,0.0057058
0.036527,0.090057,0.187,0.1723,0.14961,0.056077,0.037991,0.0057908
0.039255,0.26005,-0.021829,0.048445,-0.0020514,0.026305,-0.0075505,0.029281
-0.082966,-0.26576,0.15676,0.55446,0.001326,-0.073634,-0.053833,-0.048886
-0.0025382,-0.03583,-0.44192,-0.61792,-0.098832,-0.0018702,0.016179,0.021238
-0.0011056,-0.043441,-0.39425,-0.002073,0.017415,0.0069835,-0.00060651,0.0052377
0.01488,0.062597,0.28042,-0.30913,0.0064108,-0.0081296,0.021005,0.0046544
0.0063618,0.040542,0.37704,0.22836,0.0015155,-0.00033654,-0.012437,-0.019581
-0.010855,-0.16315,-0.28532,-0.13614,-0.019823,0.01482,0.0087704,0.018481
0.010395,0.14837,0.36184,0.35946,0.021557,0.014018,0.0146,-0.0061337
0.00012011,-0.05456,-0.31001,0.063039,0.064126,0.01299,-0.0025708,-0.0074451
-0.0023328,0.033967,-0.28359,-0.35831,-0.078914,-0.011638,-0.011414,0.0067928
0.0032354,0.06299,0.80701,0.2998,0.0067927,-0.0051538,0.0036628,-0.0024098
-0.0065121,-0.045748,-0.30781,-0.28366,-0.014857,-0.045682,-0.027759,-0.0037165
0.070008,0.18354,0.030063,0.58415,0.14463,0.062097,0.034799,0.042034
-0.087531,-0.21125,-0.061172,-0.26445,-0.023398,-0.033336,-0.011931,-0.052554
0.036498,0.08902,0.013663,-0.20835,-0.090126,0.043115,0.0038204,0.0095037
-0.026591,-0.15872,-0.63314,0.022639,-0.0093918,-0.052153,-0.0039374,0.0017362
-0.034475,-0.07977,0.12852,-0.089012,-0.062817,-0.014267,-0.011757,-0.021109
0.059902,0.16989,0.7202,-0.090415,0.046511,0.047587,0.027297,0.042534
-0.024536,-0.010528,-0.36406,-0.019299,-0.032575,-0.030503,-0.035122,-0.010533
0.0013613,0.036171,0.21506,0.43925,0.0599,0.017157,0.0042029,-0.0085859
0.012535,-0.079785,-0.085035,-0.2901,0.019864,0.018654,0.020332,0.0090937
0.016556,0.063958,-0.28335,0.15449,0.043078,0.0129,0.021087,0.011005
0.0052032,0.061122,0.18657,-0.0066307,0.02035,-0.05503,-0.024835,-0.018716
-0.014229,-0.034127,-0.12544,0.1723,-0.07967,0.017701,-0.00034613,-0.0021198
0.020232,0.16016,0.50096,-0.23119,-0.038543,0.012061,-0.0071392,-0.0017871
-0.024663,-0.20855,-1.0202,-0.36699,0.018322,-0.009682,0.0093487,0.013567
-0.063232,-0.21922,0.67662,0.44276,-0.0032221,-0.01643,-0.0056639,-0.034046
0.052932,0.17447,0.3151,0.071252,0.037148,0.054263,0.01809,0.027453
-0.043177,-0.066758,-0.14748,-0.34231,-0.063862,-0.071008,-0.044385,-0.028285
0.078466,0.22896,-0.050653,0.46697,0.084337,0.04536,0.02571,0.0411
-0.011416,-0.016377,-0.045486,-0.32115,0.013072,-0.018368,0.0018764,-0.0064943
-0.0077335,-0.02924,-0.015756,-0.14325,-0.050927,0.0035788,0.0091766,0.016412
-0.011715,-0.1455,-0.63227,-0.1071,-0.03712,0.0097626,0.00077358,-0.023103
0.015947,0.14273,0.69383,0.74244,0.062571,0.031523,-0.0077007,0.0076147
-0.033968,-0.070598,-1.0022,-0.55354,-0.025021,-0.056081,-0.00063793,-0.024398
0.026134,0.011854,0.83041,0.061379,-0.0027769,0.020425,-0.0014983,0.01358
-0.014628,-0.015381,0.257,-0.17738,-0.03458,-0.020164,0.0053384,-0.011259
0.015669,0.028511,0.34079,0.33197,0.02809,0.040967,-0.0035313,0.010569
0.023324,0.058971,-0.27909,0.12782,0.099263,0.0086079,0.018852,0.024576
-0.069748,-0.14912,-0.13707,-0.33815,-0.094636,-0.05461,-0.036757,-0.031491
0.0020927,-0.047624,-0.18241,0.10398,0.00086405,0.0077092,-0.006139,-0.0089441
0.035672,0.098598,-0.29361,-0.047906,-0.00511,-0.0074347,0.0092891,0.014285
0.0074076,-0.015132,0.23023,0.06365,0.027835,0.032832,0.025245,0.0070394
0.018606,0.10246,-0.1973,0.16378,-0.080173,-0.0043482,-0.012958,0.0083468
-0.01703,0.0433,-0.12988,-0.35765,0.061373,-0.0019602,0.019575,-0.0054017
