-0.00859,0.00051364,-0.022381,0.014861,-0.0021352,0.0007365,0.0054486,-0.0027516
-0.0010257,-0.015128,-0.016664,-0.0012545,-0.0030215,-0.00031963,-0.009641,-0.0035523
-0.0012763,0.00028133,0.0039826,-0.0016793,0.0042344,-0.0017483,-0.001432,0.0038732
-0.0014914,0.0077314,0.016445,-0.0019411,-0.0038653,-0.011178,-0.0011756,-0.0038229
0.0061741,-0.00049822,-0.002297,-0.0019782,-0.011778,0.010699,-0.0010237,-0.0031881
-0.0016965,-0.00085777,-0.0049285,-0.0017666,0.011669,-0.0061565,-0.0009088,-0.0020945
0.0061505,0.0067617,0.0089387,-0.0013178,-0.011704,0.001006,-0.00074795,-0.0006659
-0.001546,-0.00099509,0.008323,-0.00067301,-0.0037971,0.0011203,-0.00046425,0.0087411
0.0064447,-0.016279,-0.0066716,0.0079155,0.011953,0.0020749,0.0078024,0.010311
-0.0089558,0.0077666,0.0029394,0.00093069,0.0043128,0.011628,0.00061596,-0.011764
-0.0086874,0.0085652,-0.0099673,-0.006087,0.0045486,-0.0016503,0.0013633,-0.0029459
0.007266,0.00162,-0.022336,0.0024088,0.0048611,-0.0067921,0.0021376,-0.0023893
-0.007941,0.0024091,0.020057,-0.0048935,-0.018181,0.011494,0.0028206,-0.002306
0.00040794,0.002977,0.054238,0.011033,-0.0020765,-0.017431,-0.02014,-0.0026559
0.0088839,-0.020223,-0.05303,-0.012315,-0.0015103,-0.0078985,0.0034806,-0.0033497
0.0018323,0.0030725,-0.012984,0.0032133,-0.0008573,0.0086776,0.011144,0.019165
0.0026139,-0.0052429,0.010183,-0.0048288,0.015503,0.001004,-0.012762,0.0025027
0.0032976,0.0096025,0.016539,0.010503,0.00068154,0.00040583,0.0021352,-0.0063602
-0.0040693,0.00086177,0.029784,0.01022,0.0015242,0.0070533,0.016868,0.00046684
-0.0039928,-7.156e-05,-0.082483,-0.021237,-0.01326,-0.0022625,-0.0075153,0.0074187
0.0034382,0.0069324,0.0083571,0.0021168,0.0031573,-0.0038583,-0.0005925,-0.016705
-0.013046,0.006343,0.021532,0.0021773,-0.0039599,-0.0053241,-0.0013277,-0.0093618
0.0013011,-0.017417,0.012098,0.0023686,0.0044098,0.0013189,-0.0018307,-0.0017647
-0.00026026,-0.0018491,0.034922,-0.00517,-0.0030159,0.0083463,-0.0020498,0.006103
0.005892,0.0061327,0.0040221,0.018545,0.012803,0.0001366,-0.0019639,0.022039
0.012148,0.0064589,-0.049604,-0.012519,-0.010646,5.4796e-05,-0.0015862,0.0069258
-0.004744,-0.0087684,-0.0091654,0.0031017,0.0047599,0.0079777,0.01466,-0.00026727
-0.0055823,-0.00057684,0.054578,0.010648,-0.0034708,-0.0074837,-0.0079957,-0.023091
0.0018956,0.0075115,-0.038454,-0.028974,-0.0040662,-0.007384,0.00065322,-0.0069675
-0.005744,-0.015824,0.00054441,0.0092605,0.0030094,0.00040001,0.0092401,0.0011471
-0.0051273,0.015304,-0.023809,0.00042835,0.0021798,-0.0075657,-0.0057803,0.0090245
0.01144,0.014939,0.013608,-0.00066585,0.0013167,0.007849,-0.013239,-0.0067725
0.0047408,-0.02472,0.02714,0.006111,0.00048702,-0.00012121,0.0024501,0.0084733
0.0058608,-0.0020577,-0.0062794,0.013071,-0.00023899,-0.00010879,0.0022268,0.0079311
-0.016599,0.012703,0.0074864,-0.010943,-0.00079294,0.0079754,0.0017588,-0.0083534
0.0075636,-0.0037527,-0.056239,0.0044351,-0.0011154,0.00072554,0.0011144,0.014351
-0.0076394,0.0033999,0.052749,-0.0111,-0.0089784,-0.0062742,0.015999,-0.009847
-0.015324,-0.01258,0.0063801,-0.0028917,0.0068778,0.002491,-0.0081965,-0.0027683
0.015819,-0.004716,-0.0079401,-0.0022567,-0.0082677,0.0034228,-0.016712,-0.01903
0.0077552,0.011416,0.0095759,0.0063403,0.0080014,-0.0036595,0.01395,0.0039518
-0.00036041,0.0045375,-0.027287,0.014981,0.0086785,-0.003296,-0.0021046,0.011572
0.0071735,0.013607,-0.0016231,-0.0076951,0.0092254,-0.0034161,-0.01016,0.0038926
-0.0086586,-0.0084212,0.0082126,0.0085266,-0.0061466,0.0037474,-0.0024006,0.02
-0.0087773,-0.0070694,0.0177,-0.01455,0.0014998,0.0026071,0.013334,-0.026074
0.0068134,-0.005982,-0.035711,-0.0066402,-0.02257,0.0010922,0.0057353,0.006212
-0.00096229,0.0024876,-0.003557,0.0010229,-0.00017826,-0.00061827,-0.0018436,-0.0082692
-0.00086514,0.0026212,0.020481,0.00068551,-0.0014795,-0.010122,-0.0016877,-0.0071705
-0.00070874,-0.013399,0.0052238,0.00024058,0.0050092,0.0040487,-0.0016981,0.017164
0.0073298,0.024818,0.028839,0.015393,0.011738,0.0030167,-0.0019317,0.0020983
-0.00016933,-0.015394,0.0053903,-0.00067428,0.0033172,0.010344,-0.0023963,0.010034
-0.015377,-0.0010362,-0.065154,-0.0088743,-0.012282,-0.012991,-0.010857,-0.013753
0.00077357,-0.0022304,0.02029,0.006409,0.011863,0.0032781,0.0040279,-0.0067319
0.0091986,0.020254,0.011703,-0.0095422,0.0053686,0.0043388,-0.0044984,-0.015674
0.002032,-0.011583,-0.028402,0.0057393,-0.0084986,0.0056341,0.026178,0.014268
0.010437,0.0038881,0.02503,-0.0024504,-0.006539,-0.0086669,0.0023938,0.012967
-0.012572,-0.0036331,0.015837,-0.0028469,0.0031778,0.00030444,-0.0054942,-0.011585
0.0032075,-0.010745,0.0066246,0.012413,-0.0030182,-0.0066653,-0.01311,0.011063
0.0030014,0.0059182,-0.033744,-0.019089,-0.0018621,-0.0062246,-0.012675,-0.0049563
-0.0054111,0.0071973,0.0042157,0.0043046,-0.0012605,0.0094261,0.01138,0.0028534
-0.0063687,-0.0070184,0.0034135,0.0045577,-0.001225,0.009092,0.0043031,-0.0046416
0.0002371,0.017842,0.0029889,0.0051619,0.021742,0.00069451,0.0050902,0.0036909
-0.0010527,-0.027716,0.010801,-0.0095084,-0.010369,1.9202e-06,-0.0019461,-0.003534
0.0055794,0.0046304,-0.012208,0.0073548,-0.0036616,-0.016267,-0.0012356,-0.010815
-0.0031238,0.0054004,-0.0035825,0.0087452,-0.0048514,0.0067209,-0.00063414,0.020825
0.0042171,0.0057514,-0.0024809,-0.0055157,-0.0059753,-0.0012293,-0.0079829,-0.010215
0.0042152,0.005615,-0.0012342,-0.012186,0.0087168,-0.00098965,0.0079548,-0.0023553
0.0046441,0.0049609,0.031233,0.011994,0.0080613,0.0074391,-0.0075075,-0.0024109
0.0053862,-0.011812,0.00098843,-0.0034124,-8.8499e-05,-0.007267,0.00032921,-0.002485
-0.017165,-0.0055483,-0.02181,-0.0037638,-0.0079237,0.0094373,0.015858,0.0053192
-0.00069341,0.00047866,-0.021631,0.003172,0.0079543,0.0026735,3.793e-05,0.0054375
-0.0078572,-0.0091313,0.0093295,-0.0059126,-0.0072014,-0.0043275,-0.0080418,-0.0021099
0.0081129,0.012752,0.016473,0.000425,0.0012314,0.0038771,-0.0083488,0.0060884
0.008118,-0.019569,0.0077873,-0.0010317,-0.0058694,-0.011892,-0.00084392,0.0065314
4.4467e-06,0.026899,-0.016499,-0.0022609,-0.0051168,0.003029,-0.0011085,-0.016488
-0.0083221,-0.0040177,-0.017078,0.0047108,0.011258,0.0018508,0.014335,-0.0083601
0.0067093,0.012636,0.037513,0.027784,0.0041461,-0.0074339,-0.0013585,0.0074267
-0.0016266,-0.0092398,-0.024465,-0.011157,-0.0030691,-0.0089561,-0.0013078,-0.00039108
-0.0019402,-0.0073986,0.0079555,-0.010608,-0.0026428,0.013168,-0.0089662,0.0072748
-0.0097528,-0.00557,0.0096759,-0.0097337,0.0053503,0.0044721,0.0068774,-0.00076977
-0.0015809,0.0037784,-0.027333,-0.008653,-0.0025982,0.004155,-0.0085185,-0.0010154
0.014737,0.0048026,0.0059937,0.00033238,-0.0031004,0.012244,0.015101,-0.0090157
0.0078536,-0.0026223,0.031182,0.017122,0.0038328,-0.01822,-0.00043757,0.0065363
0.008863,-0.0028882,0.0088427,0.010379,-0.0051953,0.0063408,-0.0082841,0.0066106
-0.013667,0.0040893,0.016873,0.0034659,0.0089755,-0.0080425,-0.00061901,-0.00097643
-0.013032,-0.012778,-0.069798,-0.019306,-0.0081947,-0.0069055,-0.00083633,-0.00062308
-0.004976,0.0014011,-0.016676,-0.0033002,-0.0096514,0.0017534,-0.0010501,-0.007999
0.0026433,0.01558,0.0046605,0.0045769,0.0047879,0.0021865,-0.0089841,0.00027527
0.017677,0.0064916,0.02587,-0.0034948,0.0040259,0.017784,0.014506,-0.007114
-0.0066426,-0.0023144,0.023944,0.011565,0.0037786,-0.013929,-0.00083781,0.0088325
-0.0076678,-0.01079,0.0070337,-0.0048915,0.0040559,0.0008853,0.0074904,0.0089951
-0.00087178,-0.0033191,-0.0012478,0.0018818,0.012595,-0.00014574,0.00038283,0.0011428
0.0060542,0.0044246,-0.032181,-0.0071075,-0.017623,-0.0090602,-0.01444,0.00088009
-0.0024502,0.0045597,0.031202,0.0072801,-0.00084491,0.013351,-0.0058517,-0.0074046
0.012676,-0.010799,-0.014574,-0.0017523,0.00024635,-0.0031034,0.010394,-0.0080315
0.0045005,-0.0026574,-0.0058469,-0.0028814,-0.0066871,0.0041603,0.010748,-0.00090604
-0.011441,0.0054889,-0.013287,-0.0038568,0.0016994,-0.0117,-0.0048621,-0.0015323
0.011646,0.013588,0.017554,0.0031818,0.0019408,0.0039895,-0.0051991,0.0058365
-0.020027,-0.0018442,0.0084812,0.01045,0.0018807,0.01211,0.0019752,-0.0021455
-0.004868,-0.0095986,-0.0091371,-0.0054796,0.0094047,-0.003041,-0.0066651,0.0058053
-0.0052832,-0.0097062,-0.011578,-0.0055542,-0.0066434,-0.0103,-0.0075293,0.0062118
0.0023014,0.0056309,0.017186,0.0023935,0.00070606,0.0058853,0.0073596,0.0067785
0.010207,0.020798,-0.023963,0.010524,-0.0075292,-0.0014083,-0.0087352,-0.0004589
0.010703,-0.0032253,-0.0096308,-0.01244,0.015582,-0.0087634,0.022389,-0.007845
0.0037831,-0.019489,0.021381,-0.0040277,-0.015873,-0.00055334,0.0069775,-0.015499
0.0049628,0.0033639,0.014447,-0.011146,-0.00033214,-0.0002061,-0.0081804,-0.0078477
-0.0093905,-0.0048538,0.031908,0.02085,-0.00032622,0.015717,0.00020581,0.0073292
-0.0082658,-0.0049561,-0.035966,0.0059674,0.015347,0.000323,-0.014907,0.0066968
0.00029628,0.018776,-0.0099642,-0.0011763,-0.00024533,0.0082614,0.0088336,0.013839
-0.0073057,0.011693,0.015671,-0.00065654,-0.0002778,-0.0073889,0.0010276,0.0054721
0.0079286,-0.018429,0.0014769,-0.0081623,-0.0082176,-0.015412,-0.014899,-0.018276
-0.00082229,-0.0013909,0.0019259,-0.00028926,-0.0084357,-0.00018613,0.0001786,-0.0026389
-0.0021506,0.00012533,-0.061096,-0.0082748,-0.00089196,-0.00073169,0.0073108,-0.0022862
0.0041729,0.0015234,0.0079497,0.0070069,-0.0011421,0.0064718,0.006624,0.01399
-0.012847,0.002577,0.029752,0.006599,0.014332,-0.0019038,-0.0017793,-0.00077946
0.017334,0.01872,0.020361,-0.0015586,-0.0012731,0.013315,0.0055904,0.00015339
0.0011342,-0.012664,0.019209,-0.0095319,0.014586,-0.0024731,0.0052881,-0.014603
-0.0066829,-0.021277,-0.028162,-0.0094224,-0.01621,-0.017979,-0.002741,0.0016926
0.0094888,0.0007968,-0.020132,0.014423,5.7795e-05,0.005841,-0.0029455,0.017687
-0.0051382,0.014704,0.066632,0.022899,-0.014796,0.0064105,-0.011009,-0.0057446
-0.0038405,-0.0027092,-0.033707,-0.007536,0.009461,0.007045,0.004305,-0.0061101
0.0054042,-0.0042542,-0.03233,-0.0067164,0.0024283,-0.00021173,-0.01165,-0.0068047
-0.0087982,0.010354,0.00024522,-0.013856,0.010892,0.00013065,0.003714,0.0078835
0.00032792,-0.0055513,-0.014228,-0.0056373,-0.0042908,-0.015459,0.0036314,-0.00099188
-0.0063264,0.010623,0.033601,0.010067,-0.004122,-0.00013518,0.0038168,-0.0020549
-0.0053264,-0.019287,-0.0046582,0.0020179,0.0035481,0.0070893,0.012119,0.0048104
0.026785,0.013928,0.019509,0.0015423,-0.0047232,-0.0014803,-0.0027528,0.0040687
-0.0037255,0.00062349,-0.0032096,0.0087612,-0.013281,-0.0022428,-0.0018516,0.0035869
-0.01093,-0.0048411,-0.025929,-0.023064,0.0091863,-0.0028379,-0.00097295,-0.0044303
-0.0026832,-0.0028054,0.0059885,0.0077514,0.00025899,0.00469,-0.0081152,-0.019998
0.005315,0.0064348,0.0064958,0.0075372,0.014714,0.0047948,2.7426e-06,0.011531
0.012978,-0.00076251,-0.0011075,-0.00024459,-0.0020511,0.0052852,0.0076691,-0.0036513
0.0046109,-0.0010391,-0.0013271,0.0078104,0.004731,-0.0017379,-0.0085454,0.0047018
-0.027628,-0.0021461,0.029195,0.0081874,-0.019555,-0.00079942,0.0061551,0.036523
0.010053,-0.0038888,0.035784,-0.014835,0.0032821,-0.0077019,-0.0027248,-0.025429
-0.022856,-0.013783,-0.12206,-0.022283,-0.0048198,0.00082753,-0.011508,-0.024938
0.014453,0.015397,0.024652,0.017039,-0.0047515,0.0090499,0.0034803,0.0067433
0.02845,0.0058684,-0.0081579,-0.0062575,0.011318,-0.014324,0.003363,-0.0084826
-0.019706,0.0047811,0.03762,0.0094167,0.0043009,0.001058,0.011665,0.023178
0.0029787,-0.0033298,0.052816,0.0094225,0.013182,0.0006139,0.012727,0.015829
-0.0049527,-0.010633,-0.032829,-0.014002,-0.016851,-0.0077057,-0.01704,-0.022694
-0.020052,-0.0016294,-0.00068993,0.0016775,0.0077973,0.0074811,0.00024748,-0.0064648
0.027902,0.007812,-0.015106,0.0017791,0.0010346,0.015013,0.0018075,0.0097871
0.0059122,0.01737,0.0016853,0.0097154,-0.013825,0.0071001,-0.0048088,-0.0052559
-0.0081438,-0.012358,-0.013178,-0.013624,0.0022121,-0.0084922,-0.0041665,0.018645
0.016713,0.0042707,0.0025284,0.0098268,-0.0055443,-0.0084238,0.0036521,-0.004506
-0.029136,-0.018877,0.033047,0.0018937,-0.013603,-0.0084352,-0.0047526,-0.020046
0.0025759,-0.0037321,-0.030954,-0.014013,0.025003,0.0070019,0.0020139,0.0032978
0.0024114,0.0029198,-0.0095784,-0.0066368,0.016625,0.0065896,0.0085434,0.010912
0.0016728,0.0091102,0.011566,0.016249,0.00041388,-0.0096559,-0.016173,-0.0049062
-0.0072997,-0.00048407,-0.014006,-0.0077884,-0.015751,-0.0025942,0.0062071,-0.01279
-0.00085274,0.013525,0.023449,0.0072657,-0.0083929,0.0044587,0.013332,0.0029783
0.0056191,-0.018885,0.030461,0.014613,-0.0087401,-0.0039866,0.0052579,0.011184
0.012314,0.00405,-0.031889,-0.024746,-0.0011635,0.01125,-0.0024282,0.0039691
0.003738,0.0042862,-0.0073665,0.0064171,0.014325,0.0033671,-0.017656,0.012459
0.0033817,0.0052107,0.0023025,-0.0012543,0.006442,-0.0041874,0.0062877,0.005218
-0.0043972,-0.0011601,-0.00316,0.0069192,0.0063823,-0.0036511,-0.0010796,-0.025769
-0.019661,-0.015088,-0.0084753,-0.0081583,-0.017177,-0.002935,-0.00083709,-0.010359
-0.0034247,0.0099948,0.025057,-0.0074827,0.013815,0.0056493,-0.00088769,0.0044757
0.0051779,0.0034758,0.011176,0.016678,-0.0022568,-0.0014577,-0.0012591,0.003119
-0.0017217,-0.0036366,-0.03473,-0.0060854,-0.0029005,-0.0009138,0.005895,0.0091204
0.014892,0.011956,0.027854,0.017877,-0.011501,-0.00058222,0.0050344,0.0070514
0.00028163,-0.012253,-0.0041579,-0.013086,-0.0045096,-0.00046204,0.0040916,-0.01847
-0.0065582,-0.0058213,-0.052456,-0.013094,0.0026042,-0.0083177,-0.012422,0.0031164
-0.0057158,0.00025444,0.023889,0.0022164,0.0021901,0.0071805,-0.013122,0.0017037
0.010518,-0.0093212,0.045556,0.0094466,0.017816,-0.00075318,0.0099134,-0.0069488
0.010791,0.0048593,-0.041777,-0.014753,-0.0051456,0.0070186,0.0098805,0.03189
-0.0049688,0.004023,0.019995,0.015673,0.0035883,-0.0007132,0.0024198,-0.0068266
-0.013347,0.01178,0.012292,0.0071058,-0.010792,-0.00051371,-0.0047006,-0.0060247
-0.014297,0.01252,-0.017992,-0.0090878,-0.001606,-0.0080532,-0.0037669,-0.012731
0.0079178,-0.0095254,-0.02412,-0.0093846,0.0074804,0.0078424,0.0050832,-0.011474
0.0065868,5.7786e-05,0.0092621,-0.0015571,0.00062167,0.00020994,-0.0017412,0.0054272
0.0053296,-0.0059462,0.042734,0.014384,0.0010868,0.00022039,-0.00094629,-0.0011873
-0.0035027,-0.012248,-0.017844,0.0071277,-0.014645,1.0115e-05,-0.0082683,0.015491
0.0036423,0.0043266,-0.00094645,-0.015612,0.0081341,-0.016057,0.0074801,0.0085393
0.0033749,0.0045745,0.022866,0.0085446,-0.00076668,0.0067372,-0.00058344,0.0091726
0.011303,-0.011506,-0.079315,-0.0064621,-0.0098952,-0.0018524,-0.0011632,-0.029512
-0.011703,0.0109,0.020711,-0.013858,0.020057,0.01295,0.0058305,-0.0059681
-0.011044,0.001699,0.0028598,0.017541,-0.012228,0.004366,-0.0029213,0.0094969
-0.010248,0.00021612,0.039345,0.0095915,0.0028244,0.0037357,-0.0038498,0.0091013
0.0062374,-0.0011095,0.028981,-0.01424,-0.0049793,-0.012299,0.0031717,0.00071686
0.0071068,-0.0020821,-0.043499,0.00080745,0.011255,-0.012422,-0.0051878,5.2589e-05
0.0079373,0.0052211,-0.021562,0.00015675,0.0045729,0.0034145,0.010207,-0.0084153
0.00086402,-0.0026234,0.016851,0.0073752,-0.0017494,0.0039869,-0.0052997,-0.0089552
-0.006367,0.0055623,0.0014939,-0.0086567,-0.0079179,-0.0028986,-0.0048502,0.014155
0.0017889,0.0062076,0.0026289,-0.0087693,0.0014809,0.01396,0.0036822,-0.0093272
0.0018112,-0.0086579,-0.0033382,-0.00071465,-0.012794,-0.00021589,0.0045751,0.014378
0.0014453,-0.015743,0.014598,0.015503,0.0038259,0.0013166,-0.010104,-0.0085006
-0.0071517,0.0082811,-0.0063684,0.016367,0.0044176,-0.0050309,0.014209,0.0079026
-0.00051891,-0.0069515,-0.027501,-0.021701,0.0046223,0.0040314,0.0070949,0.00097571
-0.0020091,0.0088666,0.01339,0.010488,0.0045045,-0.01849,-0.015887,-0.01379
0.0041438,0.0010785,0.030117,-0.0044424,-0.0036575,-0.010169,-0.0078788,-0.0052772
0.0024945,0.0087933,-0.0087228,-0.011959,-0.0041437,0.021165,-9.0425e-05,0.010779
-0.0067656,0.00080605,0.0062174,0.0034772,-0.0046842,0.0052283,-0.00025169,0.026497
-2.7864e-05,-0.0072222,-0.042138,0.0028033,0.010404,0.012402,0.0073672,-0.04408
0.0072042,0.00036004,-0.0051079,-0.0060821,-0.0057244,-0.011907,0.0072402,0.01783
-0.00064425,-0.0076734,0.0239,0.0082239,0.0016174,-0.0050882,-0.00056356,-0.0064452
-0.00016598,0.0077676,0.0062092,-0.0009645,0.001159,-0.0060881,0.0074193,0.0082045
0.00072248,-0.00015809,0.012495,0.0056041,-0.0071293,-0.014795,-0.015703,-0.00059927
0.0018643,-0.0079763,-0.019465,-0.0031652,0.023604,0.015758,0.0081472,-0.0014916
0.003082,-0.0078458,0.0042239,-0.0037384,-0.016018,0.0075034,0.00078786,0.013432
-0.011412,0.015866,0.021052,-0.0039034,-0.0087752,0.015139,-0.022207,-0.026083
0.0051424,0.00063521,-0.031638,0.0041051,-0.0014754,-0.016063,0.0094424,0.012802
-0.0019877,0.0089021,0.0099429,0.0045566,0.0059788,0.0075706,0.0097846,0.005076
-0.0093363,0.0015175,-0.018618,0.0051231,-0.0019289,-0.0078104,0.0022546,0.0053963
0.014437,-0.013801,0.046375,0.0056597,0.013958,-0.015425,-0.0053366,-0.0097207
-0.0086665,0.0019274,-0.014163,-0.0095751,-0.008805,0.0080902,0.0026255,-0.0012631
-0.00039943,-0.01384,-0.028602,-0.025019,-0.0077242,0.00019465,0.0026797,-0.016156
0.00026095,0.0013981,0.018555,0.0062055,0.0093124,-6.1401e-05,-0.013021,0.0080506
0.0089576,0.0086273,0.0023224,0.021664,-0.004713,0.015145,0.010174,0.0088038
0.0021914,0.0079253,-0.006845,-0.0019773,0.0046934,-0.0010356,0.0019255,0.017294
0.0032659,0.0071936,-0.0087032,-0.0099158,0.0060653,-0.0016937,0.0012893,-0.005605
-0.0036241,-0.0091112,-0.0029602,0.0057527,-0.00080024,-0.0024081,0.00047973,-0.0052661
-0.010852,-0.0096768,-0.0049611,-0.0018019,-0.00043062,-0.010932,-0.0082533,-0.005168
0.0048716,-0.0022785,0.008944,0.0064678,-0.0085225,-0.0037549,-0.009191,-0.020946
-0.0034018,0.013097,0.062301,-0.0085746,-0.017239,0.0035773,0.0055892,0.0099253
0.0034135,0.0051943,-0.024581,0.0076406,0.0047848,0.0033227,0.0049403,0.0015619
-0.0058112,-0.01038,-0.017413,0.00028933,0.010855,0.011151,0.004557,0.016531
0.00037394,-0.0023973,-0.056946,-0.0073163,0.0089915,-0.004185,-0.003358,0.0080193
0.0065882,-0.002128,0.028583,0.0081761,-0.00060937,-0.0036694,-0.0032283,-0.0083025
-0.0025488,0.013851,0.035984,-0.015757,0.0056416,0.0047948,0.0048421,-0.0089718
0.0044144,-0.0091574,-0.011306,0.006868,-0.0034117,-0.0023493,0.020719,-0.0096039
-0.0036491,-0.0086637,-0.0038612,-0.0019619,-0.012106,-0.0017897,-0.010412,0.0054297
-0.0032777,-0.00031101,-0.027542,0.012599,0.0029928,-0.0014463,-0.010506,0.0048833
0.0054511,0.015869,0.011474,-0.0039606,-0.0050142,-0.0013886,-0.010815,0.0043917
0.0067495,0.0085756,0.019471,-0.012413,0.010717,-0.0094491,-0.011254,-0.0038421
0.00040039,-0.014441,0.027681,0.0029908,-0.0045299,0.013466,0.0039557,0.0036401
-0.0060138,0.0014396,-0.034279,0.0032477,-0.011718,0.0049309,0.011555,0.0034252
-0.0048821,-0.0063407,0.020982,0.019593,0.012561,-0.0036973,0.011694,-0.012274
-0.0041566,0.0012463,-0.056649,-0.018373,0.0057649,-0.0044842,0.0044424,0.0034427
-0.0038969,-0.0070528,0.037426,0.0063918,-0.0087292,0.0026935,-0.0024244,-0.0040987
0.0037285,0.015667,0.0062888,-0.0078544,0.0080622,-0.0054916,-0.0012343,-0.0036508
0.0031743,-0.0008493,-0.025058,-0.0066048,0.0013614,0.010107,0.0078023,0.0047565
0.010179,-0.0018338,0.013741,0.0099853,-0.013295,-0.012964,-0.014604,0.0054384
0.0014251,0.0049926,0.013373,0.0027474,0.018711,0.0034186,-0.0061401,0.02956
-0.0073586,-0.019338,0.012958,0.0028889,-0.019849,0.0045149,-0.0059674,-0.016724
0.0073454,0.011203,-0.04215,-0.013002,-0.003976,-0.0019668,-0.0062657,-0.016306
-0.0090956,-0.0048757,0.012123,0.0098533,0.0038612,0.0072652,0.01651,-0.016108
-0.0097706,0.010599,0.011698,-0.00653,0.01153,0.00079264,0.015659,-0.00050311
0.0053443,0.0029514,0.0034077,0.016143,0.0034665,0.0018867,-0.016432,0.0071097
0.0050145,-0.012223,-0.0049882,-0.031331,-0.0046466,-0.013027,-0.0014633,0.014603
0.0048722,-0.0037438,-0.013542,0.007438,0.0028579,-0.0049691,-0.0018185,0.014221
-0.0028975,0.012659,0.024587,0.015344,-0.0052422,0.0026044,0.013792,-0.0018145
0.0051289,-0.010018,-0.03123,0.00020209,-0.0054939,0.0019296,0.00627,-0.0022454
-0.010137,0.0062143,0.029987,0.0088074,0.0021113,0.0087341,-0.0088553,-0.018325
-0.0018552,0.0065462,-0.018242,-0.013678,0.0019524,-0.00028124,-0.0082701,-0.0031762
-0.0013207,-0.0012945,0.01171,0.0028675,-0.0059719,-0.0015259,-0.0077209,-0.0036481
0.0070406,-0.0017084,-0.0050017,0.0035685,0.0095797,0.0051502,0.00051254,0.011565
0.0075478,-0.010271,-0.005711,-0.0039092,0.0095275,-0.0035566,0.0085685,0.0034804
-0.0076682,0.0043967,-0.0058908,-0.011825,-0.013966,-0.011914,0.00081806,-0.0043797
0.00040472,-0.0043872,0.018008,0.0032763,0.0015703,0.0035885,0.0085444,0.0036813
0.00048054,0.0026687,-0.035532,-0.0053819,-0.0063854,-0.0038969,0.00055616,0.0042652
-0.0074538,-0.0054659,0.044393,0.017045,0.0090314,0.0046671,-0.0074494,0.0051808
0.015679,0.0026213,0.0076624,0.00042245,0.00095464,0.013572,-0.0075851,-0.017059
-0.016015,0.0035559,-0.0131,-0.0082133,-0.0071477,-0.0085719,-0.0075956,-0.0078567
-0.00090733,0.0050899,-0.025936,0.0068751,0.0082124,0.00055744,0.016008,0.0092271
0.0063904,0.014854,0.023605,0.0066691,0.00022469,0.0095171,0.0085621,0.010612
-0.00186,0.0013278,-0.013126,-0.016673,-0.0076046,-0.005303,-0.0065013,-0.0038498
0.013462,-0.012358,-0.011298,-0.0085558,0.00040832,-0.012772,-0.0057858,0.0047688
-0.010108,-0.018667,-0.025721,0.0074427,-0.0069551,-0.0051189,-0.0049867,0.012929
0.0055622,0.0056534,0.052897,0.023353,-0.0062692,0.002079,0.0036167,-0.034105
-0.017665,-0.0019537,0.013569,-0.0078451,0.025837,0.016762,0.004298,0.0043079
0.013932,-0.0023487,0.0047254,-0.00031039,0.0033048,5.072e-05,0.0047722,0.0032526
0.0065713,0.012468,-0.020457,-0.00093869,0.004099,-0.00097013,0.0049589,0.0019266
-0.016344,-0.0041277,0.0084771,-0.017469,-0.018826,-0.009543,-0.018629,0.0083047
-0.0001562,0.0028069,-0.025401,-0.0028638,-0.003112,-0.0098952,0.0043104,-0.00089157
0.0082301,0.0022306,-0.035785,-0.0037712,-0.0035249,0.0058575,-0.0043137,0.0057163
0.008784,0.0098912,0.0090125,0.0034851,0.0033811,0.006442,0.010259,-0.010853
-0.0063437,-0.0054407,0.023485,0.026912,0.0098921,0.015176,0.0012537,-0.0036963
-0.013761,-0.020405,0.015769,-0.011521,-0.01507,-0.0072042,-0.0077766,0.011543
0.0021053,0.01172,0.025065,0.013152,0.0068322,-0.0062565,0.0067183,0.0035649
0.0099482,0.0048002,0.0043972,-0.0086082,0.0054993,0.0099662,-0.0020382,-0.012071
0.0097177,-0.0023018,-0.030932,-0.0067524,-0.0032692,-0.013405,-0.0027206,-0.0041737
0.0013822,0.0058687,-0.011098,0.0027856,0.0040703,0.0094929,0.0047193,0.0037744
-0.015055,-0.0098589,0.00084748,-0.0037213,0.0041042,-0.0072247,0.0046777,0.0039417
-0.00047941,-0.0026365,0.020014,-0.0030482,-0.0032239,-0.024316,-0.010663,-0.0036683
0.0061529,0.011973,-0.00086312,0.0047091,-0.0024083,0.013174,-0.0022683,0.012215
-0.0028185,0.0028597,-0.015122,-0.0038511,-0.0092292,0.0039809,0.006371,-0.0030659
-0.019407,-0.021966,-0.061855,-0.005137,0.0074012,0.010865,-0.0082602,-0.0026096
-0.0043938,0.00021221,0.046551,0.001088,0.00046387,0.01055,0.0084204,-0.017652
0.026696,0.0070847,-0.0022025,-0.00053343,0.0011009,-0.0047528,-0.0062186,0.0064854
0.011368,-0.001224,0.073359,0.013681,-0.0063765,-0.0039029,0.010172,-0.00055604
0.004211,0.014376,4.2659e-06,0.0048478,0.0014495,0.0050724,0.0027528,0.0080137
-0.010587,0.0069295,-0.026765,-0.0035105,0.0011595,-0.0093396,0.0026428,0.016449
-0.0020101,0.007521,-0.030187,-0.011402,0.0084259,-0.00050958,-0.0058605,0.0011721
-0.0093433,-0.023125,-0.025635,0.012342,-0.00012164,-0.0076729,-0.014942,-0.014503
-0.0014879,0.00072472,0.010652,0.0050951,-0.0087767,0.00035433,0.014561,-0.0072123
-0.0019226,-0.0070095,-0.014711,-0.025459,0.0059894,0.00018055,-0.010909,0.0074319
-0.0027534,-0.0073119,0.015804,-0.0013033,-0.0026,-0.0080594,-0.0051489,-0.017331
0.004016,0.0076867,0.01648,0.0071809,-0.0031943,0.014878,0.008697,0.012458
-0.0048107,-0.00093678,-0.0048652,-3.888e-05,-0.0035112,0.0066706,-0.00035209,-0.012308
0.010069,0.013874,0.029638,0.0082807,0.0043388,0.014326,0.0069596,0.0023941
0.0019612,-0.010207,0.025737,0.0087054,-0.0030375,-0.016781,0.0072728,0.025537
0.017827,0.02851,0.014021,0.00905,0.013422,-0.008539,-0.0072791,-0.005261
-0.012672,-0.026174,-0.099947,-0.029749,-0.0010257,-0.0078976,-0.005623,-0.0040798
-0.0037243,0.0054001,0.027025,0.017308,-0.015237,0.008468,0.004161,-0.0023194
-0.010205,-0.017494,-0.019436,-0.021645,0.0018848,0.016997,0.0061383,-0.00023813
-0.0010726,0.0065609,-0.0049609,0.0096617,0.011101,-0.0058573,1.1257e-05,0.0018459
0.0078651,0.014898,0.047294,0.0018834,-0.0033931,-0.013297,-0.014455,-0.0042001
0.0086685,-0.00044732,-0.026249,0.0019233,0.005122,0.0024559,-0.0061498,-0.003018
-0.01434,-0.00052661,0.01716,0.0019857,-0.010333,-0.0054659,0.0014638,0.005222
