-0.047413,-0.11342,-0.38884,-0.13733,-0.026287,-0.010501,-0.02319,-0.022339
0.0076822,0.00038741,0.12292,0.1028,-0.010999,0.019343,0.017006,-0.001967
0.016445,0.052378,0.31318,0.017196,0.029007,0.027138,0.035013,0.017779
0.033389,0.097496,0.23907,0.17641,0.031228,0.020515,0.0071356,-0.0017938
-0.035398,-0.035965,-0.40158,-0.24779,-0.051335,-0.047752,-0.035766,-0.02895
0.013094,0.089509,0.1982,0.26759,0.031066,-0.0061922,0.0074205,0.022756
-0.078999,-0.2294,-0.68655,-0.37979,-0.089152,-0.058292,-0.04342,-0.033748
0.016436,0.069436,0.73389,0.090325,0.04841,0.022252,0.014491,0.036158
0.049387,0.063599,-0.10353,0.16891,0.029026,0.0087213,0.016856,0.029348
0.019785,-0.11472,-0.38036,-0.075062,0.047268,0.026024,0.0026126,-0.015381
-0.041288,0.0573,0.43941,-0.1117,-0.053831,0.0037567,-0.0048369,-0.020393
0.08466,0.26665,0.41444,0.37802,0.13924,0.082413,0.057033,0.044948
-0.016737,-0.10411,-0.41241,-0.4116,-0.23313,-0.11318,-0.053893,-0.038712
-0.11918,-0.32825,-0.59145,-0.0357,0.0090046,-0.0050508,-0.032814,-0.029646
0.17567,0.44642,0.67984,0.88106,0.28831,0.15673,0.096995,0.087566
-0.29614,-0.60714,-0.60685,-0.92558,-0.37827,-0.21365,-0.14081,-0.16353
0.23138,0.39523,0.23729,0.0077734,0.19068,0.11857,0.11343,0.12374
-0.084909,-0.24045,0.23066,0.004851,-0.10451,-0.11163,-0.054006,-0.057811
0.19325,0.31482,0.22075,0.51493,0.1832,0.12784,0.075995,0.1129
-0.21458,-0.1575,-0.62436,-0.55182,-0.11678,-0.068416,-0.082129,-0.097763
0.25485,0.50603,0.78499,0.72957,0.28512,0.13631,0.10477,0.13107
-0.43696,-0.68027,-0.70451,-1.0299,-0.61152,-0.28879,-0.19898,-0.23936
0.14773,0.31317,-0.028556,0.22392,0.24654,0.10938,0.069208,0.079955
0.11029,-0.077691,0.024333,0.5664,0.15373,0.11149,0.081126,0.049499
-0.01093,-0.18199,0.65658,0.1879,0.01312,-0.010189,-0.015131,0.020012
0.15005,0.30485,-0.1804,-0.12902,0.18835,0.094305,0.061113,0.076313
0.021329,0.10242,0.1126,-0.23507,-0.066091,-0.022113,-0.0112,0.0062243
-0.25818,-0.53759,-0.81841,-0.58958,-0.41677,-0.22042,-0.15475,-0.16015
-0.080602,-0.22245,0.11044,0.5533,0.15868,0.045161,0.028205,-0.017398
0.36559,0.73731,0.43691,0.38764,0.28592,0.1962,0.16998,0.16856
-0.30268,0.053942,0.28545,-0.35791,-0.40759,-0.21984,-0.14366,-0.16451
-0.0067229,-0.15518,-0.32033,-0.1547,0.019571,-0.014075,-0.0062774,0.0076884
0.13753,-0.094313,-0.49708,-0.57334,-0.021637,0.042039,0.059216,0.069224
-0.0087645,-0.14856,0.8651,0.66816,0.4032,0.15381,0.030161,0.044986
-0.045188,0.02273,-0.63211,-0.062825,-0.11607,-0.067357,-0.076894,-0.063644
0.092681,0.1193,-0.29397,0.10683,-0.10827,-0.041846,-0.018839,0.010044
0.031423,0.25531,1.003,0.67988,0.24755,0.15298,0.080097,0.055727
-0.29041,-0.29797,-0.51711,-0.90705,-0.46394,-0.27982,-0.12336,-0.14528
0.26823,0.18523,0.1663,0.052656,0.12947,0.12765,0.13653,0.14874
0.050827,-0.23965,0.27695,0.34906,0.31293,0.13953,0.062569,0.030614
-0.38105,-0.48439,-0.90585,-0.51025,-0.3163,-0.22256,-0.17403,-0.18052
0.41645,0.89981,0.85197,0.8107,0.46426,0.27384,0.17584,0.21722
-0.27731,-0.5127,-0.5337,-0.80362,-0.5751,-0.27139,-0.20129,-0.21475
0.20747,0.30544,0.48021,0.51831,0.2123,0.085864,0.076538,0.1009
0.12658,0.16983,-0.90525,-0.28629,0.052913,0.087235,0.07905,0.070103
-0.39667,-0.53495,0.13674,-0.36293,-0.20802,-0.16557,-0.12371,-0.18986
0.042852,0.035021,0.5966,0.4892,0.072859,0.0078763,0.015221,0.040264
0.18695,0.3471,0.12704,-0.1605,0.023943,0.077527,0.074336,0.097151
0.043861,-0.046746,-0.067268,0.0074675,-0.031086,-0.002121,-0.031735,0.028524
0.083538,0.099938,-0.19884,0.24878,0.40267,0.17649,0.072649,0.069556
-0.34068,-0.30252,-0.33462,-0.21452,-0.15758,-0.1434,-0.088465,-0.16975
0.046767,0.18793,0.66748,-0.1165,-0.1178,-0.062732,0.0088375,0.014141
-0.0020422,0.045699,0.32402,0.63392,-0.22121,-0.096947,-0.064855,-0.034896
-0.032286,-0.3159,-0.55841,-0.39017,-0.16514,0.019292,0.0029896,-0.043565
0.4492,0.15078,-0.0069065,0.25798,0.73521,0.33217,0.21997,0.25334
-0.20595,-0.47414,-0.92053,-0.31086,-0.42936,-0.23743,-0.14871,-0.12137
-0.1235,0.5308,0.203,-0.68796,0.06501,0.035953,0.0057991,-0.020017
0.16394,0.28568,0.44617,0.49833,0.16163,0.073186,0.057999,0.095736
-0.33736,-0.27725,0.048443,-0.14362,-0.35132,-0.22015,-0.17212,-0.19649
0.20723,0.39096,0.51417,0.60626,0.22985,0.1558,0.10449,0.087547
0.18766,0.096578,0.83044,0.51693,0.21969,0.13123,0.1069,0.11225
-0.11468,-0.75281,-0.71285,-0.70359,-0.56591,-0.26933,-0.14862,-0.12159
-0.34726,-0.46858,-1.0225,-0.64309,0.11164,0.0025374,-0.028396,-0.10501
0.03053,0.21572,0.26745,0.36891,0.084839,0.034466,0.01534,0.053889
0.35637,0.40952,-0.41445,0.19015,-0.080201,0.07014,0.084886,0.10623
-0.087021,0.51002,0.29805,-0.26811,0.36865,0.079272,0.0087611,-0.0097643
0.10739,-0.063826,0.78676,0.34073,-0.013805,0.022985,0.021275,0.057592
-0.13091,-0.29311,-0.44215,-0.35828,-0.12804,-0.13064,-0.10468,-0.098484
-0.13122,-0.15989,0.20233,0.35042,0.10808,0.077941,0.059674,-0.010347
0.20604,0.31482,-0.3228,0.24987,-0.17756,-0.017216,0.044446,0.078363
0.081612,0.13479,0.69663,0.19919,-0.091557,-0.019644,-0.0030212,0.048952
-0.10838,-0.56101,-0.40768,-0.35706,0.088362,0.0064504,-0.067954,-0.092017
-0.20165,-0.36501,-0.34146,-0.66855,-0.062451,-0.11975,-0.072654,-0.11873
0.2228,0.66446,0.64551,0.58013,0.25984,0.19513,0.12357,0.12494
-0.24897,-0.40385,-0.5914,-0.33902,-0.21705,-0.13445,-0.095957,-0.11051
0.13415,0.31987,-0.19326,0.099716,-0.052824,0.0097459,0.027398,0.066448
0.037955,0.052781,0.18583,0.19066,-0.071712,0.0041441,0.041405,0.039692
-0.027764,-0.201,-0.26362,-0.19974,0.019523,-0.032563,-0.014127,-0.010159
0.055941,0.4269,0.22554,0.06859,0.20108,0.088376,0.040903,0.042448
0.063712,-0.034195,0.041603,0.12658,0.092529,0.078655,0.034604,0.033523
-0.11335,-0.22935,0.23911,-0.10831,-0.039759,-0.085029,-0.088141,-0.092001
0.024504,0.093395,0.40527,0.30948,-0.071741,-0.043756,-0.023374,0.024583
0.1328,-0.25143,-0.48778,-0.021245,-0.076039,0.037528,0.056184,0.046629
-0.10972,0.0052367,0.45815,-0.17576,0.10054,0.040585,0.024783,-0.041986
-0.11007,0.15843,0.18766,0.004176,-0.045038,-0.058958,-0.039914,-0.085102
0.053305,0.32649,-0.36714,0.20091,0.023944,0.027394,0.018312,0.042687
0.099417,-0.61939,-0.68965,-0.13555,-0.052972,-0.059773,-0.02664,0.053169
-0.10373,0.08465,0.21384,-0.38038,-0.017586,0.039437,-0.0019944,-0.060361
-0.078421,-0.093727,-0.28714,-0.069785,-0.071262,-0.041196,-0.039366,-0.038983
-0.011004,-0.10191,-0.21455,-0.096913,-0.10193,-0.050486,-0.035936,0.032166
0.12272,0.25074,0.32727,0.2399,0.096473,0.059538,0.040583,0.067415
0.10408,0.26825,0.22537,0.54799,0.22954,0.094272,0.10483,0.0898
0.026003,0.44582,0.16643,-0.18462,-0.060782,-0.016501,0.0083161,-0.065766
-0.019369,-0.18583,0.55533,-0.08244,0.029989,5.4257e-05,0.00036285,0.013331
-0.15139,-0.29328,-0.064471,-0.093716,-0.031116,-0.036969,-0.029583,-0.057286
0.057339,0.30083,0.08343,0.35383,0.07332,0.050503,0.010812,0.041355
-0.012389,-0.62228,-0.44225,-0.25519,-0.12109,-0.075165,-0.09856,-0.14472
-0.21349,-0.68369,-0.35914,-0.28016,-0.11764,-0.048238,-0.054055,-0.092302
0.19572,0.55485,-0.00077896,0.092705,0.02653,0.044406,0.034379,0.10522
0.16875,0.48887,0.29656,0.27342,0.12271,0.093126,0.088533,0.21427
-0.13698,-0.27222,-0.55353,-0.44202,-0.11009,-0.12039,0.022786,0.03268
-0.016618,0.33528,0.4025,0.13621,-0.0062523,0.014287,-0.013849,-0.11042
-0.054065,-0.1567,-0.10006,0.10696,0.046137,0.0064407,-0.051952,-0.081372
-0.036299,-0.038333,0.1258,-0.069768,-0.0202,-0.017283,-0.0049248,-0.17636
0.077607,0.20255,-0.15883,0.027657,0.071203,0.05406,0.080938,0.23792
0.085978,-0.17421,0.3938,0.40641,0.14327,0.073318,0.0030119,0.099321
-0.01027,0.042686,-0.29266,-0.30259,-0.14581,-0.052371,-0.05857,-0.091925
-0.0076342,0.11056,0.12284,-0.05622,-0.029268,-0.017855,-0.048683,-0.093495
-0.015568,-0.15858,0.31917,0.15539,0.063644,0.02073,0.025318,0.032193
-0.018837,-0.31157,-0.17964,-0.09741,-0.10165,-0.038321,0.046711,0.027376
-0.11957,-0.019715,0.12106,-0.19924,-0.064917,-0.039053,-0.02314,-0.029819
-0.013735,-0.11838,-0.81233,-0.34881,-0.069499,-0.075629,-0.019878,0.040212
0.055706,0.18119,0.14746,0.41004,0.21898,0.12485,0.033131,0.010683
0.10345,0.43156,0.18095,0.41529,0.064224,-0.0008205,-0.020601,-0.05633
0.097094,0.11249,0.89086,0.3012,0.12024,0.1167,0.044898,0.057268
-0.18351,-0.025287,-0.61809,-0.76662,-0.3106,-0.17221,-0.083813,-0.094716
-0.01335,-0.20146,-0.10488,-0.043512,-0.011734,0.013884,0.0061154,-0.028951
0.043594,-0.13597,0.098024,0.091895,0.022947,0.025124,0.078961,0.15191
0.17364,0.46842,0.10882,0.28673,0.22214,0.13371,0.11781,0.19692
-0.092528,-0.27534,-0.058449,-0.067149,-0.086114,-0.090904,-0.12834,-0.12886
-0.10623,-0.6406,-0.55726,-0.36461,-0.12752,-0.078656,-0.11314,-0.18482
-0.18658,-0.036756,-0.49945,-0.26445,-0.087833,-0.024398,-0.0005212,-0.16555
0.45752,0.55253,0.54252,0.63778,0.37122,0.23712,0.2103,0.1881
-0.30412,-0.096384,0.66592,-0.066242,-0.35709,-0.23762,-0.15903,-0.0049307
-0.085961,-0.29291,0.39357,0.12801,0.01096,-0.094961,-0.083425,-0.00073146
-0.026368,0.36251,-0.26466,-0.081427,0.071005,0.034326,0.032529,-0.0089761
0.10249,0.35965,0.016409,-0.10782,0.050586,0.12058,0.10421,0.1817
0.23801,0.12151,-0.37139,0.11831,0.19178,0.18023,0.0933,-0.069876
0.01137,-0.21419,-0.40517,-0.23309,-0.092457,-0.044655,-0.023625,0.10984
0.076,0.19054,0.4148,0.28105,0.055427,0.023087,-0.028453,-0.21082
-0.15752,-0.79643,-0.15994,0.018093,-0.069739,-0.11028,-0.023846,0.11455
-0.27846,-0.37721,-0.67993,-0.68739,-0.32911,-0.26678,-0.15951,-0.12654
0.070134,0.30999,0.42397,0.17172,0.096488,0.16143,0.086828,-0.06758
0.27012,0.69927,0.78523,0.55609,0.26142,0.17331,0.12844,0.2293
-0.34184,-0.12493,-0.14935,-0.41738,-0.31828,-0.27068,-0.22256,-0.30486
0.15833,-0.11572,0.26237,0.60996,0.34266,0.25138,0.16673,0.1991
0.023767,0.27471,-0.29885,-0.050825,0.0030574,0.021188,0.031071,0.04805
-0.085885,-0.63972,-0.95748,-0.74562,-0.23469,-0.21062,-0.14459,-0.060853
0.019704,0.22069,0.35695,0.21828,0.098579,0.11913,0.07783,-0.040583
0.12344,-0.0097294,0.52731,0.088163,0.018446,0.0032117,0.042573,0.077683
0.19417,0.67037,0.49901,0.3773,0.11817,0.059241,0.031175,0.1211
-0.30076,-0.88627,-0.9698,-0.46278,-0.23581,-0.15785,-0.12034,-0.19338
0.018894,0.087017,-0.10512,-0.0419,-0.067719,-0.069849,-0.044858,0.053921
0.36098,0.37243,0.45331,0.66434,0.40309,0.35452,0.2262,0.26715
-0.31634,-0.13063,0.066022,-0.43526,-0.17512,-0.15033,-0.12765,-0.35983
-0.014859,0.20387,0.38285,-0.0084532,-0.091015,-0.060806,-0.028351,0.0084585
-0.20366,-0.16197,-0.55556,-0.24516,-0.054553,-0.048427,-0.03051,-0.10383
0.024763,-0.22686,-0.16945,-0.11587,0.0060835,0.028023,0.053617,0.062872
0.11823,0.049564,0.0036341,0.41659,0.14736,0.083364,0.052538,0.175
-0.052904,-0.026827,-0.23063,-0.2524,-0.16024,-0.11601,-0.072369,-0.014941
0.35816,0.42753,0.90131,0.38762,0.092356,0.00078502,0.0074155,0.0576
-0.14631,-0.48575,-0.37507,-0.18686,-0.055285,-0.034917,-0.043819,-0.098367
-0.096576,0.24811,0.14867,0.028967,0.052596,0.049759,0.016084,-0.076472
0.10856,-0.044505,-0.2889,0.068613,0.16451,0.19882,0.12428,0.16139
-0.1028,0.087049,-0.34054,-0.075183,-0.081219,-0.035016,-0.03239,-0.074098
0.040402,0.23371,0.76293,0.23821,0.062717,-0.02906,-0.040729,0.027237
-0.10516,-0.21654,-0.091257,-0.55302,-0.29694,-0.10588,-0.026686,-0.044821
-0.034171,-0.35942,-0.40486,0.038028,0.0018052,-0.087515,-0.022352,-0.0032579
0.11077,0.077613,0.32252,0.23518,0.14529,0.087769,0.04983,0.0021434
-0.023092,0.13385,-0.297,0.19482,0.094374,0.053161,0.041249,-0.013417
0.071734,-0.072296,-0.45387,-0.19736,-0.056202,-0.080444,-0.071268,0.013105
-0.0027215,0.28915,0.63945,-0.053561,-0.046775,-0.029372,-0.021426,0.020592
-0.065632,-0.092345,0.0053111,-0.24253,-0.05463,0.02178,-0.0035815,-0.059309
-0.10758,-0.12129,-0.2565,0.1094,0.024366,0.036822,0.014584,-0.013497
0.13105,0.047264,0.6787,0.31255,0.051933,0.033724,0.041865,0.058435
-0.0042224,0.046755,-0.49947,0.042782,0.037639,0.068595,0.032104,0.0016544
-0.050983,0.056974,0.11484,0.067508,-0.017604,-0.06139,-0.014373,0.10583
0.11675,0.030796,-0.20762,-0.28559,-0.059161,-0.052356,-0.042973,-0.1215
0.022828,-0.23533,-0.11981,0.1608,0.12293,0.1018,0.063024,0.045089
-0.15325,-0.062228,-0.010272,-0.40947,-0.19181,-0.109,-0.095548,-0.067991
-0.01372,-0.028633,0.39595,0.2103,0.11165,0.016,0.0039125,0.013826
0.088796,0.044298,0.053623,0.14102,0.077943,0.060646,0.087166,0.18707
0.035846,0.31158,-0.081714,0.15275,-0.021462,-0.031239,-0.033932,-0.16691
-0.072332,0.11525,0.0093343,-0.04582,-0.023855,-0.033797,-0.016043,-0.05674
0.0052042,-0.17957,-0.26922,-0.22124,-0.086032,-0.017241,6.5925e-05,-0.013657
-0.076346,-0.2078,-0.26918,-0.32626,-0.16862,-0.097999,-0.071438,-0.0213
0.041636,-0.064891,0.19075,0.15616,0.12003,0.092284,0.050995,0.085682
0.17126,0.28746,0.27762,0.31393,0.14078,0.11737,0.086531,0.0979
0.00791,-0.1111,-0.27042,0.0085151,0.043659,0.0017594,-0.011253,-0.037831
-0.11193,0.14782,0.84743,0.23384,0.0019331,-0.0038229,-0.046611,-0.06249
-0.13251,-0.32271,-0.63864,-0.34485,-0.10059,-0.070945,-0.026979,0.024685
0.010191,0.1463,-0.20203,0.030952,0.017867,-0.012118,-0.014548,-0.049469
0.1461,0.23229,0.19903,0.02567,0.013688,0.039671,0.061229,0.089881
-0.13704,-0.38743,-0.3627,-0.37602,-0.13673,-0.11108,-0.05732,-0.081198
0.1701,0.0023717,0.51352,0.32631,0.13662,0.090244,0.051706,0.077239
-0.017528,0.068003,0.49397,0.28166,0.028655,0.010875,0.005392,-0.021469
-0.19985,-0.30831,-0.87237,-0.46246,-0.17195,-0.099044,-0.071506,-0.14359
0.15353,0.64308,-0.34157,0.24291,0.15162,0.073123,0.047206,0.10882
0.0019225,0.18887,0.31399,-0.11765,-0.016626,0.0039567,0.009517,0.0089146
0.13217,-0.031268,0.11765,-0.03662,0.033886,0.052662,0.0259,0.056586
-0.14559,-0.41729,0.3413,0.10235,-0.087794,-0.015509,-0.029029,-0.037149
0.11974,0.38998,0.54422,0.14945,0.039955,0.017694,0.024204,0.0013763
-0.14345,-0.3801,-0.87974,-0.0064175,0.026364,-0.035729,-0.033109,-0.022786
-0.068199,-0.44707,0.12649,-0.085777,0.01989,-0.0042478,0.0024895,-0.0076137
-0.052011,0.013003,-0.40345,-0.23072,-0.11209,-0.098868,-0.071536,-0.085432
0.14138,0.35124,0.4476,0.36256,0.12293,0.11816,0.089317,0.14262
-0.063724,0.14746,0.035604,-0.43889,-0.20434,-0.11045,-0.092327,-0.096644
0.061698,0.098716,-0.03198,0.12326,0.086098,0.036268,0.048163,0.024867
0.058599,-0.26393,-0.56814,0.010884,0.095946,0.074519,0.12039,0.2021
-0.0017946,0.16513,0.72465,0.26402,0.090665,0.035904,-0.047708,-0.30003
-0.11195,-0.067521,-0.30059,-0.14789,-0.14897,-0.11084,-0.081747,0.033187
0.12516,0.20551,0.13152,0.13472,0.040398,0.0714,0.04862,0.20855
-0.058371,0.2266,0.37485,-0.21658,-0.060766,-0.019625,-0.0013727,-0.0092084
0.077026,-0.060195,-0.35698,0.21167,0.085942,0.07622,0.009552,-0.12843
0.013302,-0.47577,0.12675,0.059561,0.058309,-0.016777,0.026104,0.030532
-0.094967,0.10686,-0.4201,-0.3058,-0.19824,-0.1506,-0.10032,-0.10988
-0.092069,-0.27515,-0.20407,-0.047885,-0.0034344,0.010678,0.005614,-0.0017042
-0.078824,-0.064654,0.15436,-0.016862,0.049978,0.022182,0.0086896,0.11435
0.087271,0.31493,0.26857,0.17206,0.056965,0.025296,0.01146,-0.033634
0.10415,0.012955,0.38353,0.18517,0.089057,0.099054,0.077446,0.079088
-0.0097791,-0.031623,-0.28107,-0.20991,-0.079311,-0.076023,-0.058144,-0.08576
0.044777,-0.099941,-0.085662,0.011631,-0.01003,0.0084466,0.019228,0.057886
-0.035332,0.43023,0.23257,0.029855,-0.038903,-0.03016,0.0049131,0.0016626
-0.046568,-0.11169,-0.346,-0.038767,0.0055982,0.042318,8.9356e-05,-0.021162
0.033754,0.17034,0.064872,-0.00070544,-0.010109,0.014397,-0.011566,-0.019834
0.063278,-0.064975,-0.0075557,-0.022631,0.01446,-0.013102,0.015979,0.01198
-0.030672,-0.2387,0.28522,0.31429,0.14838,0.052809,0.027236,0.041781
-0.039709,-0.24858,-0.58994,-0.16481,-0.086114,-0.13222,-0.08776,-0.064053
-0.013013,0.00093598,0.46772,-0.1108,-0.041577,0.033029,-0.0089727,-0.055772
-0.13197,-0.14268,-0.52629,-0.24387,-0.10923,-0.076436,-0.0097792,0.020039
0.14943,0.31083,0.43581,0.24823,0.11706,0.14121,0.082035,0.070346
-0.012555,0.3379,0.18173,-0.055439,-0.034199,-0.032325,-0.014278,-0.036721
0.015695,-0.13837,-0.016302,0.19857,0.070585,0.012805,-0.0091264,0.012287
-0.0065781,-0.13174,-0.30087,-0.26077,-0.083188,-0.0042416,0.011994,0.046269
0.03963,0.00052542,0.028772,0.068998,0.021182,0.010539,0.025937,0.018834
3.3698e-05,-0.044246,0.53303,0.16656,0.056501,0.0025515,0.0015835,-0.015148
-0.10004,-0.014196,-0.29699,-0.076005,-0.039088,-0.028239,-0.053252,-0.094809
0.0066494,0.076744,-0.10915,0.099797,0.0081195,-0.06632,-0.037078,0.021831
0.040008,0.15206,-0.32269,-0.13423,-0.020756,0.067863,0.034379,0.053273
0.039664,-0.15386,-0.21442,-0.091284,0.037874,0.038252,0.028198,-0.031942
-0.01012,-0.073807,0.26812,0.094733,0.011423,-0.014634,0.0067577,0.00041909
-0.11796,-0.19225,0.10714,-0.23376,-0.10875,-0.098704,-0.061355,-0.052862
0.11318,0.13262,0.26031,0.29682,0.098448,0.067177,0.026762,0.058125
0.10332,0.29204,0.51144,0.16168,0.030809,0.045352,0.059884,0.059804
-0.14172,-0.32356,-0.58457,-0.31225,-0.11674,-0.070631,-0.040442,-0.079295
0.055869,0.19874,-0.099851,0.1007,0.054128,0.086179,0.037979,0.046784
-0.055305,-0.025842,-0.053085,-0.09207,-0.034516,-0.062565,-0.040997,-0.031023
0.0084421,0.086114,0.20868,0.10182,0.03182,-0.0091918,-0.035205,0.015157
0.10666,0.2118,-0.03588,0.19105,0.12874,0.10569,0.079011,0.052426
-0.15807,-0.27569,-0.3037,-0.24476,-0.12586,-0.092697,-0.057262,-0.067497
-0.018443,-0.080259,-0.00092441,-0.12547,-0.035992,-0.0414,-0.0215,-0.016056
-0.066187,-0.59978,-0.30613,-0.15201,-0.054162,-0.036673,-0.039551,-0.066019
0.20063,0.55815,0.91493,0.56041,0.18724,0.1331,0.10014,0.095899
0.010008,0.146,-0.33685,-0.28372,-0.11631,-0.086195,-0.023924,-0.0061284
-0.067127,-0.06032,-0.17888,-0.051255,-0.0040389,0.024495,0.010107,-0.027866
0.023576,0.15187,0.37162,0.092888,0.00011812,-0.0036797,-0.0013231,0.030764
0.030908,-0.052855,-0.0083967,0.11546,0.090681,0.039675,0.0034837,0.0052899
0.031196,-0.1753,-0.079936,-0.072324,-0.022386,0.05207,0.046942,0.043277
-0.032209,0.056034,-0.17388,0.018578,-0.019757,-0.053565,-0.059475,-0.020529
-0.10628,-0.009829,-0.14328,-0.099052,-0.035053,-0.0048889,-0.011882,-0.038964
0.050225,0.16369,-0.081559,0.010374,0.0015985,-0.0058063,0.0096584,0.057196
-0.0080279,-0.097062,0.060408,0.072884,0.058992,0.0059405,0.0053054,-0.052998
-0.022267,-0.042649,0.2004,-0.14487,-0.088866,-0.086423,-0.055497,-0.041445
0.0014112,-0.00032577,0.31941,0.047077,0.027788,0.030638,0.023666,0.01437
-0.083336,-0.35072,-0.76593,-0.1916,-0.074141,-0.039843,-0.029355,-0.04842
0.084854,0.20608,0.29106,0.17411,0.06759,0.063111,0.052267,0.068581
0.10896,0.16539,0.53051,0.2022,0.055612,0.020581,0.019393,0.023155
-0.010514,-0.10319,-0.34554,-0.18325,-0.023512,0.036562,0.036419,0.0040374
-0.0006772,0.19038,0.034778,0.13562,0.056851,0.017468,0.0093453,-0.0037157
0.0041677,0.12343,0.15905,0.13443,0.022803,-0.021655,-0.046969,0.015519
-0.052793,-0.17378,-0.58742,-0.31418,-0.087457,-0.0038732,-0.0086199,-0.024873
-0.080139,-0.10351,0.0090337,0.020892,-0.048422,-0.063561,-0.02524,-0.00892
0.052857,0.0018076,0.22557,-0.020148,-0.017378,0.0007774,-0.0041351,0.030616
0.016607,0.021052,0.5598,0.059474,0.0048223,0.015853,0.0070775,0.0062716
-0.041057,0.084326,0.10525,0.18708,0.080102,-0.027127,-0.015378,-0.059775
0.036427,-0.098349,-0.61246,-0.17757,0.0050508,0.043285,0.022316,0.011395
0.0080094,-0.0024105,-0.45605,0.082895,0.060897,0.063184,0.050249,0.024315
-0.038628,0.039235,0.4792,-0.2176,-0.12717,-0.076132,-0.048144,-0.059606
0.015749,-0.20335,-0.46361,-0.045403,0.0036792,-0.022029,0.0012959,0.026242
0.02473,0.095208,0.36292,0.15702,0.03201,0.023665,0.027404,0.040978
0.044709,0.11937,0.5732,0.15809,0.020779,-0.008043,-0.0082713,-0.014021
-0.071594,-0.017918,-0.38519,-0.13378,-0.045211,-0.014446,-0.03496,-0.020359
-0.0033921,0.013214,-0.044494,0.048206,0.02188,0.044312,0.017923,0.022804
-0.047791,-0.0064173,0.036506,0.03224,0.019142,-0.011126,-0.005791,-0.009181
0.16154,0.30354,0.3984,-0.0029441,0.04042,0.04563,0.018798,0.055407
-0.0094941,-0.1781,-0.29414,-0.0043122,-0.02367,-0.012601,0.01331,-0.010581
-0.078029,-0.30759,-0.2431,-0.083171,-0.048194,-0.038311,-0.014812,-0.036139
-0.037676,0.074606,-0.3441,-0.053819,-0.0019756,-0.0013124,-0.011314,-0.022234
-0.05362,0.043041,0.22846,-0.097292,-0.056953,-0.058861,-0.046953,-0.047869
0.11568,0.072239,-0.0098198,0.17629,0.10714,0.077315,0.065363,0.073799
0.0091623,0.029076,0.48999,0.11056,-0.0019599,0.0083006,0.012805,-0.0091498
-0.068104,-0.053868,-0.2141,-0.13005,-0.040606,-0.039458,-0.017342,0.02355
0.0017987,-0.14274,-0.17301,-0.013548,-0.0089739,-0.011048,-0.025154,-0.038817
0.024461,0.14861,0.21831,0.10945,0.077097,0.047163,0.020699,0.030733
-0.022685,-0.04354,0.017361,-0.16629,-0.056036,-0.01256,-0.012357,-0.0094589
0.056323,0.08853,-0.08628,0.1056,0.036821,0.021514,0.024494,-0.010415
-0.0038436,0.078212,0.30731,0.090167,-0.034913,-0.037335,-0.016711,-0.002924
-0.039231,-0.065646,-0.44131,-0.13354,-0.02098,-0.024376,-0.018275,-0.0023094
-0.034693,-0.21031,-0.49507,-0.14283,-0.053711,-0.017269,-0.018801,-0.031927
0.14185,0.36977,0.5378,0.25826,0.10192,0.077939,0.044535,0.072118
-0.0025934,-0.26453,0.29118,-0.031412,0.016914,0.026776,-2.8571e-05,0.0047423
-0.18749,-0.029216,-0.062372,-0.12111,-0.089351,-0.053951,-0.012011,-0.070557
0.047675,0.042565,-0.19469,-0.050169,0.010061,-0.024229,0.0081887,0.033103
0.10908,-0.0039874,0.28394,0.25098,0.072978,0.052698,0.044342,0.19019
-0.096706,0.079797,-0.73785,-0.20323,-0.049454,-0.034873,-0.052698,-0.27149
-0.0065824,-0.10547,0.28369,0.11684,0.040345,0.0092596,0.0054433,0.02306
0.0051916,0.041158,0.12562,-0.11887,-0.057279,-0.049779,-0.023963,0.0038677
0.079933,0.22254,0.72039,0.25166,0.093738,0.092423,0.061911,0.04653
-0.031883,-0.20976,-0.8046,-0.36733,-0.10181,-0.087614,-0.072879,0.018956
-0.017613,-0.11477,0.037621,0.092761,0.042334,0.035275,0.0016327,-6.5602e-05
