0.097913,0.30927,0.36195,0.062804,-0.038932,-0.044284,-0.097976,0.0050747
0.042301,-0.024198,-0.11283,-0.046119,-0.013012,-0.0029978,-0.026921,-0.049083
-0.044719,-0.11465,-0.009125,0.07914,0.034192,-0.034276,-0.13113,-0.0024093
0.0083867,-0.054821,0.15042,0.032269,0.0090063,0.02612,0.0041674,0.043391
-0.095635,-0.29536,-0.32894,-0.13207,-0.0022548,-0.079122,-0.12747,-0.091416
-0.067981,-0.2308,0.10001,0.023655,-0.038061,0.010053,0.053725,-0.078588
0.12258,0.27652,0.078008,0.038628,0.027294,0.18496,0.43987,0.17594
0.038818,0.29422,-0.066877,-0.0088341,0.030466,-0.022597,-0.069594,-0.030489
0.017227,0.053339,0.21201,0.092461,0.04241,0.06745,0.041285,0.060557
-0.043004,-0.028975,-0.21847,-0.11815,-0.030109,-0.10719,-0.24337,-0.10496
-0.1098,-0.36553,0.078757,-0.015394,-0.092997,-0.21044,-0.15854,-0.010819
-0.0027451,-0.027265,-0.11553,0.025899,0.010147,0.093729,0.084138,0.038747
0.07553,0.56176,0.080987,0.021408,0.013625,0.0007527,-0.078434,-0.096724
0.054796,0.10166,0.10524,0.056938,0.049925,0.18256,0.15015,0.00441
0.020601,-0.49651,-0.29341,-0.17254,-0.10029,-0.18123,0.011666,0.083626
-0.05914,0.19477,0.23587,0.16838,0.20278,0.26068,0.13846,0.045994
0.15038,-0.44237,-0.073338,-0.01472,-0.041806,-0.12495,0.17837,0.27281
-0.2583,-0.063242,0.31726,0.043134,-0.11621,-0.29178,-0.55678,-0.38598
0.12008,0.45155,-0.21011,-0.025783,0.14295,0.43152,0.32297,-0.0020418
-0.011941,-0.12183,-0.093229,-0.12019,-0.14742,-0.26795,-0.28449,0.0097608
-0.060644,-0.085861,-0.21468,-0.083788,-0.057411,0.047091,0.20644,0.024407
0.08388,0.24779,-0.0034183,0.075963,0.046505,0.032902,0.014404,0.058335
-0.038337,0.026433,0.27605,0.094006,0.032556,-0.0056737,0.030054,0.019314
-0.074536,-0.10464,0.1173,0.056927,0.011258,-0.16218,-0.058957,-0.161
0.085822,0.16242,0.029551,0.043454,0.069535,0.11041,-0.05709,0.097561
0.099877,0.095842,-0.024918,-0.039681,0.020502,0.20271,0.27036,0.10148
-0.11006,-0.074637,-0.21678,-0.19213,-0.096653,-0.088614,-0.26361,-0.085542
0.080913,-0.4536,-0.16998,-0.015235,-0.0088538,0.064276,0.13081,0.029125
-0.1403,-0.32306,0.061602,0.10048,0.025337,-0.13577,-0.076592,-0.070526
0.084727,0.20922,0.079984,-0.0091102,-0.0028619,-0.10288,-0.032979,0.11441
-0.042028,0.36546,0.18977,0.093289,-0.0084994,-0.18843,-0.23696,-0.058264
0.087714,0.34544,0.069888,0.024476,0.038872,0.31904,0.23461,0.01907
0.0043526,0.075524,-0.077929,-0.020724,0.052863,0.17805,0.15607,-0.014536
-0.065999,-0.63586,0.017883,0.019718,-0.036826,0.053474,0.16834,0.011694
-0.068611,0.057542,-0.34001,-0.20608,-0.13594,-0.36642,-0.27577,-0.08234
0.0361,0.10997,0.26847,0.036176,-0.032649,-0.19818,-0.20837,0.024017
0.03808,-0.017754,-0.087662,0.02791,0.063262,0.30082,0.3537,0.081772
-0.038191,0.3217,0.098791,0.074147,0.1451,0.18539,-0.15336,-0.14202
0.011379,-0.16246,-0.13304,-0.004438,0.0027915,-0.060267,-0.10573,0.0026164
0.062461,-0.019055,-0.071602,0.0033266,-0.10544,-0.27262,-0.012127,0.13413
-0.017527,-0.4922,0.33093,0.081832,0.070282,0.25063,0.13465,-0.059262
0.036793,-0.021077,-0.32285,-0.15976,-0.095647,-0.1556,0.092122,0.14898
-0.0095935,0.66629,0.50707,0.20788,0.052046,-0.070515,-0.069465,-0.038756
-0.079428,-0.071963,-0.58488,-0.2219,0.043457,0.3408,0.14225,-0.13159
-0.0017039,-0.064951,0.22986,0.034972,-0.083489,-0.19592,-0.35048,-0.021691
0.051035,-0.016427,-0.1423,-0.068479,-0.095364,-0.2749,-0.093963,0.09414
-0.054338,0.065823,0.19704,0.14753,0.23378,0.47095,0.42035,-0.050819
0.033852,-0.21566,-0.080401,0.019233,-0.041591,-0.090789,-0.0098388,-0.027403
0.011442,0.1725,0.32989,0.0079667,-0.085301,-0.25611,-0.18055,0.031702
-0.019158,-0.38373,-0.49406,-0.12018,0.032976,0.21066,0.13556,0.01004
0.021218,-0.30243,0.12752,0.072749,-0.045163,-0.16551,-0.21709,0.010355
0.0477,0.74821,0.18707,0.0011967,-0.052935,-0.10959,-0.058357,0.041875
-0.11847,0.036556,-0.46344,-0.12363,0.088942,0.31721,0.29937,-0.089301
0.015542,0.063617,0.41855,0.15929,0.061095,0.02971,0.043273,-0.022621
0.067158,-0.33583,-0.1199,-0.087678,-0.081244,-0.24555,-0.5228,0.062985
-0.01855,-0.15735,0.061683,0.017907,-0.0099147,0.014045,0.39664,0.050548
0.015507,0.11729,0.0096313,0.053581,0.048025,0.19756,0.10445,-0.029034
-0.01931,0.224,0.15281,0.049879,-0.0021026,-0.11106,-0.11238,-0.051616
0.055279,0.093917,-0.079956,-0.072035,0.049462,0.14077,0.1817,0.075346
-0.051267,0.049864,-0.18931,-0.015836,-0.017206,-0.033048,-0.23349,-0.024485
-0.043404,-0.19262,-0.073829,-0.086475,-0.085833,-0.2663,-0.19447,-0.071094
-0.00023467,-0.11823,0.071577,0.044271,-0.016236,0.097267,0.26018,0.075229
0.10121,-0.30225,-0.049075,0.087785,0.035483,0.035271,-0.0085945,-2.8703e-05
-0.035815,-0.035826,0.22155,-0.025549,0.0466,0.018341,-0.084386,0.0078954
-0.066856,0.36835,-0.092161,-0.044932,-0.052063,-0.021526,-0.13641,-0.16607
0.017106,0.027871,0.041523,0.0069337,-0.024827,-0.058666,0.0096036,0.041441
0.053537,0.059416,-0.065045,-0.080366,-0.10489,-0.099253,0.097414,0.15487
-0.096564,0.21032,0.14204,0.21682,0.27105,0.46676,0.47117,-0.020208
0.083892,-0.17345,-0.049367,-0.054768,-0.053072,-0.15794,-0.20593,-0.014476
-0.02122,-0.1866,-0.22656,-0.075227,-0.0073524,-0.076347,-0.13885,0.0081829
-0.020796,0.089032,0.21094,0.022045,-0.022436,0.0063132,-0.1033,-0.07746
0.038103,-0.14134,-0.018632,-0.060428,-0.05271,-0.09971,-0.023294,0.0093074
0.01403,0.076506,-0.07125,0.036248,-0.029157,-0.060417,-0.040849,0.056854
0.038506,0.29846,0.085484,0.054004,0.06278,0.068248,0.031147,-0.0058028
-0.046228,-0.16067,-0.077799,-0.038418,-0.058803,-0.0031914,0.0371,-0.015077
0.016224,-0.1716,-0.050974,-0.068925,-0.026893,-0.016525,0.087843,0.013256
-0.032989,0.16299,0.07451,0.095655,0.11972,0.16208,0.060253,-0.022115
-0.022445,-0.20237,-0.11364,-0.059918,-0.048033,-0.075364,-0.16879,-0.0033648
-0.076958,-0.17812,0.018138,0.011534,0.001869,-0.024258,0.011589,-0.046753
0.015144,0.3189,0.14891,0.083581,-0.0032087,0.035504,0.10233,-0.041866
0.075216,0.075437,0.0031703,-0.062606,-0.03133,-0.12156,0.14275,0.14504
0.049622,-0.052107,0.13228,0.033644,0.042994,0.067787,-0.17218,-0.0010793
-0.021809,-0.013601,0.0087838,-0.042117,0.03253,0.088249,-0.038594,-0.042623
-0.013792,-0.018954,-0.2853,-0.055912,-0.047039,-0.083627,-0.16067,-0.042576
0.065615,-0.046164,0.17669,0.16382,0.030757,0.036207,0.19477,0.076183
-0.042087,-0.013001,-0.20044,-0.17213,-0.078008,-0.052801,-0.02817,0.031027
-0.04875,0.12984,0.12289,0.10816,0.05616,0.03148,-0.010357,-0.14049
0.029124,0.07934,-0.14782,-0.057582,-0.027856,-0.0085522,0.10643,0.099292
-0.035619,-0.16247,-0.11036,-0.083089,-0.033336,-0.064229,-0.10853,-0.03969
0.014703,0.17357,0.27083,0.17263,0.070817,0.027881,-0.038881,-0.018821
0.016416,-0.054958,-0.031538,-0.055776,0.010994,0.1657,0.40089,0.12306
-0.076514,-0.33891,-0.069442,-0.025974,0.029184,-0.04173,-0.29689,-0.12879
0.026097,0.12312,0.36905,0.058877,-0.031074,-0.063311,-0.2251,-0.03856
0.067612,0.12736,-0.084086,-0.0592,-0.091845,-0.16457,0.11003,0.075163
-0.005675,-0.28615,-0.20455,0.033636,0.042048,0.11576,-0.055019,-0.074921
0.033401,0.21958,0.10621,0.0090757,0.026796,0.074999,0.21957,0.067339
-0.033794,-0.21527,-0.18596,-0.062628,-0.043829,-0.22384,-0.25945,0.04972
-0.020133,0.46062,-0.075301,0.029577,0.088063,0.28214,0.23584,-0.018226
-0.01233,0.068178,0.085866,-0.010905,0.00070824,0.038485,0.15116,0.042616
0.027641,-0.13826,-0.037792,-0.011818,-0.04795,-0.079807,-0.17823,-0.034574
-0.034165,0.021756,0.16478,0.011584,-0.034338,-0.049438,0.035218,-0.048241
0.004311,-0.39877,-0.10888,-0.018585,-0.020816,-0.25343,-0.2184,-0.0078469
0.0015768,0.25384,0.026155,0.030496,0.055247,0.26114,0.24627,-0.0007685
0.066437,0.040271,-0.022416,0.080431,0.022089,-0.037083,-0.21323,-0.020202
-0.051319,0.1563,0.19896,-0.017725,0.043859,0.14875,0.097221,0.034956
0.01566,-0.13642,-0.091634,-0.030237,-0.05126,-0.071943,0.0053302,0.032003
-0.013355,-0.3379,0.11983,-0.035848,-0.044477,-0.097471,0.22239,0.034045
-0.051621,0.16512,-0.22342,-0.074067,-0.037322,-0.052669,-0.2897,-0.051703
0.042465,0.051584,-0.045314,0.058055,0.056163,-0.007657,-0.17808,-0.060023
-0.034778,-0.02883,0.058832,-0.0065544,0.032837,0.17836,0.30074,-0.028827
0.045653,-0.043223,-0.044558,0.044948,0.002006,-0.017964,-0.086579,0.05066
0.026569,0.055786,0.097781,0.0020904,-0.044281,-0.10444,0.051042,0.085315
0.025444,0.078755,-0.26322,-0.079967,0.010972,0.051646,0.26034,0.028474
-0.04371,0.20801,0.34267,0.15073,0.081626,0.067332,-0.20155,-0.026295
-0.017167,0.10685,0.034333,-0.032133,-0.059034,-0.07314,-0.038654,-0.032593
0.018611,-0.13459,0.12594,-0.034658,-0.036053,-0.096388,-0.15803,-0.045715
-0.046358,-0.13904,-0.26392,-0.028675,0.025664,0.091381,0.088326,-0.042805
-0.032994,-0.40491,-0.2905,-0.11576,-0.06897,-0.017517,-0.041636,-0.0086825
0.081584,0.17135,0.06229,0.032156,-0.022787,-0.024494,0.054286,0.05637
-0.023427,0.17886,0.23178,0.11807,0.14104,0.11742,0.087987,0.050642
0.026562,-0.065108,0.10775,0.063665,-0.014825,-0.083967,-0.080172,0.044362
0.020293,0.070815,0.016783,-0.045401,-0.013847,-0.011628,-0.011968,-0.11879
-0.026799,0.016281,-0.089916,-0.014078,0.010989,0.060745,-0.0040273,0.029842
0.018087,0.037983,0.30913,0.040297,-0.010895,-0.015581,0.14648,0.083948
-0.047955,0.13003,-0.45944,-0.15563,-0.032867,0.0091558,-0.037788,-0.097101
0.0020997,-0.087811,-0.029009,0.054749,-0.0081775,-0.052646,0.05935,0.080568
-0.010765,0.020391,-0.0083538,-0.038867,-0.014897,-0.044656,-0.21153,-0.085889
-0.023263,-0.30752,0.12762,0.079888,-0.013745,0.025565,0.016109,-0.049174
0.051299,-0.036782,-0.040612,-0.064901,0.042462,0.048985,0.015544,0.058397
-0.0052542,0.015439,-0.041884,0.019272,-0.017876,-0.020942,0.037163,0.01071
-0.012971,0.077892,0.12564,0.074416,0.055363,0.04254,-0.04323,-0.012264
0.090541,0.40911,-0.0060699,-0.0095863,-0.04262,-0.073081,-0.0059053,0.044186
-0.038926,-0.22632,0.21859,0.086377,0.047193,0.061646,0.040655,0.046994
0.027617,0.22352,-0.18668,-0.076628,0.019585,0.071321,0.19078,0.042573
-0.13249,-0.29226,0.0332,-0.031189,-0.055712,-0.099193,-0.10224,-0.11023
0.042552,0.073318,-0.062224,-0.020422,0.0083227,0.049753,0.020723,-0.029033
0.0053705,-0.0042672,-0.07695,-0.075861,-0.069807,-0.091351,-0.12053,-0.042169
-0.0098854,-0.27815,0.057959,0.05292,0.030257,0.0010781,-0.14384,-0.032395
0.043698,0.15636,-0.1419,-0.054939,-0.0036603,-0.00068775,0.11425,0.086476
0.041368,-0.059969,0.051331,0.047217,-0.0069918,-0.033618,0.059408,0.041308
-0.055561,0.19943,0.11644,0.095091,0.091128,0.13716,0.058326,0.011981
-0.012291,-0.078543,-0.10017,-0.019696,-0.013522,0.035405,0.048026,0.006265
0.0075229,-0.10192,0.11485,-0.015434,-0.055032,-0.15138,-0.19851,-0.030827
-0.027034,0.21797,-0.096191,-0.0016191,0.036987,0.11557,0.11518,-0.02166
0.056145,0.016156,0.22046,0.10711,0.0046166,-0.0079988,0.15291,0.072297
0.0071803,0.028575,-0.10755,-0.10411,-0.035166,-0.061746,-0.26504,-0.054047
-0.0098514,-0.064108,0.066928,-0.018835,0.034594,0.039767,0.0022294,-0.025814
-0.049697,-0.37851,-0.10941,-0.10625,-0.075353,-0.086545,0.0099813,-0.069332
0.02817,0.28105,-0.044465,0.032032,0.0098868,0.012464,0.13406,0.058152
0.012716,0.0085961,-0.067492,0.013546,0.040282,0.02459,-0.015165,0.0058647
0.0054213,0.17149,-0.030452,0.065402,0.0080218,0.028438,0.039863,0.048071
-0.064082,-0.34751,0.051392,0.00063897,0.030289,0.079228,-0.082778,-0.0098563
0.030721,-0.0020074,0.10083,0.014894,-0.064836,-0.15852,-0.13242,-0.0034596
0.0085197,0.074142,0.025292,0.076919,0.066311,0.11235,0.14133,0.020426
0.041101,0.49643,0.021183,-0.040156,-0.013857,-0.0065265,0.027571,-0.032244
0.018971,-0.17493,-0.0044432,-0.047751,-0.055385,-0.077753,0.0025576,0.03331
-0.050183,-0.34094,-0.012127,-0.032272,0.019905,0.078116,-0.059336,-0.080423
0.021042,-0.058825,-0.0096846,-0.0017983,0.016885,-0.00012567,0.10664,0.07127
-0.064267,0.14591,-0.14588,-0.042234,-0.025074,-0.039252,-0.08645,-0.019871
-0.017014,0.0063891,-0.077525,0.042066,0.042868,0.038783,-0.045869,-0.049402
0.037883,0.084858,0.06182,-0.068688,-0.052303,-0.078437,-0.022512,0.0060767
0.022386,0.12435,0.23222,0.1026,-0.0055354,-0.039137,0.037605,0.029492
0.038099,-0.12325,0.065566,0.071925,0.034954,0.086647,0.12621,0.013225
0.014683,-0.09274,0.10786,0.058145,0.030126,0.033522,-0.085025,0.0356
-0.024504,-0.077764,-0.4384,-0.15768,0.011029,0.01252,0.068065,0.01084
-0.032673,-0.13755,-0.010893,-0.013471,-0.038363,-0.046766,-0.14069,-0.029676
-0.041109,0.074429,0.015685,-0.033181,-0.024839,0.019448,0.078447,-0.054581
-0.010694,0.43494,0.14212,0.0092362,0.0041266,-0.00017826,-0.0079588,0.014396
0.027477,-0.13377,0.002276,0.0743,0.0010883,-0.043578,-0.11758,-0.03349
0.073617,-0.12493,0.14411,0.0054794,-0.018803,-0.032993,0.063195,0.044174
0.0029481,0.19355,-0.15025,-0.0098489,0.06132,0.10166,0.20718,0.06791
-0.04373,-0.1578,-0.013113,0.0049165,0.022574,-0.030273,-0.13028,-0.024645
-0.0038291,0.0055962,0.19628,0.081231,-0.002146,0.0088382,-0.050486,-0.077234
-0.064867,-0.092004,-0.3504,-0.21023,-0.09066,-0.046336,0.0010843,-0.011887
0.046461,-0.14721,0.17459,0.091955,0.023157,-0.023551,-0.1168,0.038251
0.025224,-0.035203,0.044205,-0.0038774,-0.019433,0.054121,0.18865,0.041451
0.027332,0.28377,-0.085766,-0.020706,0.0087953,-0.03962,-0.021287,0.036207
0.0055199,0.037462,0.049902,0.049548,0.03028,0.10156,0.2833,0.053211
-0.056222,-0.06201,-0.056919,0.0037353,0.01411,-0.11621,-0.59417,-0.21265
-0.017567,0.072134,0.09353,0.021202,0.015006,0.088007,0.21252,0.03529
0.043225,-0.2082,0.0010741,0.0075923,-0.014184,-0.012786,0.18718,0.078397
0.024665,0.29224,-0.014096,0.0090462,0.027582,0.0028603,-0.14679,-0.036064
-0.057319,-0.020514,-0.037989,-0.0063622,-0.0087678,0.0096509,0.09391,0.028459
0.00089447,-0.10745,-0.21126,-0.11719,-0.084771,-0.14873,-0.14446,-0.016372
-0.0031951,-0.10098,0.28643,0.012433,0.025708,0.09824,0.029998,0.017646
0.0091866,-0.19549,0.025447,0.015663,0.0099981,0.0010138,0.032786,-0.032974
0.046417,-0.092809,-0.033168,0.041614,-0.006806,0.013315,0.1778,0.1212
-0.0083101,0.33334,0.095152,0.10678,0.053734,0.0029388,-0.2213,-0.12907
-0.014235,0.099381,-0.40179,-0.16298,-0.057945,0.001617,0.023815,-0.010427
-0.041804,0.095855,0.21862,0.061177,0.0258,-0.037277,-0.00059257,0.031523
0.057034,0.040464,0.02719,0.029676,0.024103,0.058102,0.033439,0.027612
-0.038612,-0.24048,-0.022486,-0.030849,0.0075281,0.0609,0.10182,-0.014857
0.0065057,0.0087461,0.0074072,-0.026922,-0.03945,-0.16218,-0.17933,-0.018299
0.0041711,0.05204,0.046621,0.048706,0.015941,0.09143,0.11055,0.04022
0.039684,-0.15831,0.079324,-2.8611e-05,-0.013946,-0.030372,0.032599,0.019663
-0.012428,0.0030726,-0.066775,-0.033307,-0.035579,-0.012366,-0.047218,-0.064612
-0.03521,0.037752,-0.11872,0.018453,0.036719,0.051469,-0.020382,-0.025195
-0.020801,0.080967,0.12621,0.021904,0.022981,-0.034219,-0.051317,0.0051915
0.023309,-0.16926,-0.0040432,-0.0075885,0.0088606,-0.0036844,0.055477,0.073667
0.042979,0.09407,-0.25939,-0.10905,-0.03716,-0.0051466,0.011618,0.0087055
-0.070497,0.2317,0.18077,0.061555,0.0018816,-0.014922,-0.025619,-0.03305
0.027307,0.032684,0.01214,0.020328,0.0086507,0.029693,-0.062887,-0.035589
0.0010013,-0.14504,0.11002,0.041228,0.014357,0.027259,0.057124,0.0014202
-0.00065364,-0.15572,-0.033276,-0.039335,-0.0043481,0.024684,0.077376,0.015719
0.045814,-0.11223,0.019635,0.04461,-0.0081734,-0.032732,-0.0095784,0.023059
-0.0161,0.21604,0.018447,0.035448,-0.012395,-0.019991,-0.0084695,-0.0078024
-0.0071817,0.29436,-0.21694,-0.14488,-0.016584,-0.0073217,0.080342,0.024593
-0.013957,-0.32528,0.016186,0.050484,0.0031477,-0.057023,-0.21241,-0.043997
-0.021361,-0.15221,0.022104,0.019906,0.047196,0.096842,0.097121,0.059659
0.032702,0.1104,0.0035472,-0.072642,-0.02479,-0.07662,-0.085204,-0.055259
-0.008167,0.081157,0.19445,0.11648,0.013863,0.032275,-0.0018406,-0.068588
0.01243,0.11445,-0.077541,-0.053508,-0.00097178,0.0018076,0.081402,0.066437
-0.030084,-0.043604,0.3199,0.13598,0.024244,0.081914,0.11744,0.03722
-0.025708,-0.16969,-0.40261,-0.14337,-0.051415,-0.048019,-0.17529,-0.062603
0.018441,-0.055984,-0.28414,-0.11049,-0.02515,-0.052539,0.093397,0.063684
0.0092371,0.17675,0.3085,0.1251,0.055869,0.059976,0.04016,0.033072
0.056466,-0.10895,-0.10829,-0.0070133,-0.011703,-0.015682,-0.046396,-0.03744
-0.0038312,0.041597,0.23995,0.079038,-0.0092502,-0.022056,0.028798,0.016095
-0.046895,-0.16107,0.10431,-0.023012,0.016295,-0.013944,-0.17165,-0.1188
-0.026394,0.39786,-0.30333,-0.10219,-0.028816,0.0087982,0.094953,0.034621
0.064732,0.089241,0.025569,0.029105,0.011694,-0.03941,-0.061135,0.015758
-0.039973,-0.20936,0.16958,0.082016,0.036296,0.060643,0.087728,0.012519
0.025918,-0.1285,-0.066419,-0.052551,-0.056555,-0.034344,0.003562,0.079989
-0.011597,-0.1419,-0.19024,-0.069564,0.037827,0.082203,0.085679,-0.015906
0.0034652,0.12183,0.063512,0.070383,0.014747,-0.02708,-0.056034,-0.025002
-0.030382,0.051599,0.13975,-0.023059,-0.024233,-0.010682,-0.109,-0.048831
0.0044519,0.0070979,-0.032422,0.017426,-0.016581,-0.032852,0.043642,0.0062806
-0.00075042,-0.025111,0.061865,0.019896,0.022159,0.031172,0.065292,-0.023869
0.0173,0.09144,-8.9047e-05,0.03876,-0.0094507,-0.01412,-0.029272,0.055856
-0.018747,-0.1387,-0.13314,-0.07487,-0.02532,-0.051649,0.016866,0.010887
0.047985,0.19554,-0.017624,0.0065802,0.029382,0.020139,0.023212,-0.0027317
-0.03213,-0.10452,0.0023034,0.0013107,0.0063107,0.037238,-0.12802,-0.024269
0.037861,-0.1916,0.11399,0.080739,0.0070294,-0.023744,0.023752,-0.014855
-6.4579e-05,0.23337,-0.073093,-0.16168,-0.031072,0.024671,0.033138,0.033164
-0.076022,-0.02439,0.011593,0.070828,0.024602,0.033902,0.056509,-0.020946
0.01256,-0.16137,0.040251,0.01273,-0.013744,-0.050988,0.00037571,0.018085
0.01511,0.15559,0.021045,0.00021205,-0.005799,0.011877,0.02132,-0.021595
0.063948,0.078714,-0.014405,0.080518,0.063795,0.019094,-0.099056,0.00073026
-0.020949,-0.091978,-0.08914,-0.07402,-0.047291,0.0017594,0.030225,0.0070787
-0.036585,0.092041,0.12541,0.068369,0.012547,-0.040071,-0.027993,0.0054471
-0.014109,0.072336,-0.15152,-0.14799,-0.061126,-0.012354,0.10161,0.05073
-9.5034e-05,-0.17676,0.010284,0.027491,0.02901,0.0151,-0.018195,-0.067796
-0.0097231,-0.15553,0.11126,0.040683,-0.044605,-0.082094,-0.11376,-0.0061815
0.035619,-0.081066,-0.027968,0.063892,0.093604,0.13416,0.010334,-0.0064517
0.011357,0.23741,0.022357,-0.082347,-0.03247,0.00025106,0.096226,0.033047
-0.019735,-0.15693,-0.019226,0.039401,0.014908,-0.022715,-0.082843,-0.051756
0.036166,0.18526,-0.07509,-0.00093139,0.0013129,0.018264,0.12904,0.074948
-0.00075602,-0.084541,0.049348,-0.016518,-0.034524,-0.06472,-0.01074,0.014485
-0.05266,0.17574,0.032899,0.0073756,0.01622,-0.0066337,-0.12758,-0.0068821
0.020713,0.11411,0.10904,0.10883,0.043502,0.090299,0.11418,-0.01288
0.00024823,-0.13081,-0.18396,-0.18186,-0.054897,-0.071392,-0.11362,-0.066209
-0.01279,-0.15579,-0.03419,0.040829,-0.01387,0.0078766,0.056468,0.036201
-0.0029722,0.020378,0.026837,-0.0048167,0.033487,0.038881,-0.015699,-0.04149
0.013989,0.11401,0.0069919,0.056127,-0.0065747,-0.03294,-0.0091835,0.044674
0.030286,-0.09473,0.21136,0.06771,0.01467,0.011553,-0.079646,-0.033213
-0.039957,-0.089646,0.039067,-0.031917,-0.035078,-0.07707,0.10142,0.029676
-0.016967,-0.087402,-0.25113,-0.10122,0.0010705,0.029944,0.049694,0.014572
0.060282,0.1104,-0.16595,-0.084457,-0.040316,0.020636,0.14766,0.13223
-0.042507,-0.0085825,0.10822,0.089684,0.07563,0.09065,-0.19123,-0.14108
0.04193,0.081751,0.13479,0.031364,-0.0024085,-0.025597,-0.03026,0.0068361
-0.014442,0.070212,-0.023172,0.084729,0.030204,-0.047106,-0.034188,-0.06482
-0.0083731,0.0658,0.16559,0.015326,-0.029991,-0.021222,-0.03946,0.0033496
-0.072505,0.074336,-0.12759,-0.083616,-0.0038334,0.043666,0.10996,0.047538
0.082426,-0.05572,-0.0052533,0.037071,-0.0091007,-0.04048,0.0235,0.036924
-0.035569,-0.1325,-0.054511,-0.10011,-0.02287,0.015006,-0.064194,-0.02018
0.02678,-0.12768,-0.0030357,0.027438,0.0092176,-0.00098865,0.12849,-0.013953
-0.027364,-0.04307,-0.05475,-0.0027118,0.0011441,-0.0024712,-0.10118,-0.014427
0.012838,0.058529,0.04781,0.027984,0.0077546,-0.0048167,-0.08097,-0.005932
0.045595,-0.017146,0.11727,0.010304,-0.040928,-0.046719,0.1191,0.06601
-0.0075398,0.075617,-0.13495,0.015005,0.058638,0.1144,0.053985,0.013483
-0.021899,0.018732,0.018437,0.011461,0.017776,-0.028932,-0.11206,-0.039047
-0.021179,0.11872,0.06254,-0.054333,-0.038239,-0.054631,-0.089827,-0.068666
0.010137,-0.099987,-0.08018,-0.025512,-0.0077375,0.02176,0.13641,0.10392
-0.045063,0.18288,0.074968,0.035876,0.023279,0.043962,-0.027099,-0.099574
0.0244,-0.13513,0.043602,0.036285,0.015551,-0.019369,0.075794,0.039685
0.015742,-0.055348,-0.13551,-0.039977,-0.038998,-0.043328,-0.086379,0.0063964
-0.00038079,0.061649,0.15433,0.09583,0.031255,0.018915,-0.029557,-0.019282
0.046598,-0.042542,-0.12647,-0.095867,-0.031666,-0.020107,0.074027,0.01003
-0.038533,-0.25818,0.091994,0.032779,0.014394,0.02721,-0.018152,0.055694
0.0019659,0.31456,-0.081113,-0.0266,-0.0023239,-0.0030593,-0.0016532,-0.046094
0.019447,-0.16595,0.049572,-0.024434,-0.026904,0.022017,0.029678,0.017208
-0.0019998,-0.087864,-0.19538,-0.0078534,0.011247,-0.053767,-0.088137,-0.0045629
-0.047033,0.37911,0.098442,0.023062,0.010815,0.035138,0.020156,-0.017979
0.001317,-0.16208,0.12662,0.013687,0.011003,0.022903,0.081487,0.031238
-0.0055042,-0.054992,0.014249,0.065733,0.019604,-0.036108,-0.19282,-0.060447
0.018422,0.12116,-0.02006,-0.070587,-0.01044,0.02178,0.10377,0.0034939
0.034085,-0.049918,0.062486,0.0503,-0.0013069,0.016499,0.21357,0.066579
0.010324,-0.18845,0.042913,0.038103,0.031037,0.0024399,-0.13697,0.0037219
-0.037141,0.2257,-0.32094,-0.17706,-0.069944,-0.059605,-0.073153,-0.060014
-0.006655,-0.10737,0.072913,0.053749,-0.0075297,0.0022808,0.02959,0.055262
0.01594,0.13824,-0.0012615,0.020159,-0.00044692,-0.0070015,-0.071376,-0.064199
0.01513,-0.21043,0.098239,0.050796,0.029615,0.0066302,0.037638,-0.0039635
-0.016767,0.15942,-0.033784,-0.033693,0.03608,0.074792,0.10639,0.0097767
-0.032733,-0.22712,0.12682,0.040198,-0.027596,-0.044386,-0.052704,0.094508
0.014238,0.203,-0.029201,-0.032486,-0.0048727,0.016493,-0.041102,-0.10116
-0.032032,-0.093737,-0.17428,-0.080466,-0.020563,-0.015923,0.024276,0.063442
0.070616,0.089227,0.08101,0.12197,0.03476,0.02241,0.057914,0.010072
-0.0061013,-0.057729,0.2663,0.03477,0.0047628,-0.02483,-0.095892,-0.042714
0.026595,-0.13437,-0.20606,-0.038298,-0.0013716,-0.0014703,0.040029,-0.040463
-0.0035364,0.31276,-0.017228,0.011435,-0.022965,-0.040371,-0.049357,0.024409
