-0.01212,0.01686,0.017836,-0.0011038,-0.0074552,-0.0081778,0.015777,-0.0016109
-0.0046223,-0.013144,-0.01268,-0.0093058,0.008314,0.00035882,9.1398e-05,-0.002096
0.01087,-0.0042781,-0.012028,-0.0016463,-0.0074063,-0.0067141,-7.2407e-05,0.013112
0.010914,0.051089,0.043206,0.021861,0.0079227,-0.0060343,-0.0081019,0.0050091
-0.01235,-0.073749,-0.034523,-0.032586,-0.0081115,0.0023481,0.0073107,-0.018537
0.0034969,0.019576,0.0047306,0.022428,0.0071063,-0.0050306,-0.016272,-0.0027995
0.011487,0.0029642,0.0046585,-0.008514,-0.00099363,0.018693,-0.00066672,0.0053574
-0.0040814,-0.0062814,-0.011345,-0.00052112,-0.001067,0.0031965,0.0072977,0.0059094
-0.011993,0.0076518,0.01921,0.0072491,-0.0086869,-0.012473,-0.00017514,0.014421
-0.0044069,-0.0018902,-0.0052074,0.0069234,0.015209,0.010727,0.0081419,-0.00044536
0.0031476,0.019992,-0.0063909,-0.0093199,0.0080717,0.0024666,0.0087469,-0.015349
-0.0048115,-0.020285,-0.015469,-0.0023649,-0.0067468,-0.021628,0.0015439,-0.0069396
0.0031236,0.010189,0.014578,-0.011158,-0.0059084,0.0087858,-0.013575,0.0012901
0.0036445,-0.0057477,-0.0020471,0.0035281,-0.012942,-0.0077911,-0.013267,-0.0063059
0.0046238,0.0099902,0.0050723,0.010628,0.0033351,0.0068559,-0.0054072,0.0093466
0.0060276,-0.012991,-0.010893,-0.0053141,0.0038228,0.0059521,0.0099854,0.0092142
-8.5461e-05,-0.0044776,0.012533,0.0026886,0.004133,-0.0025995,0.017306,0.0011398
0.0095217,0.01981,0.028386,0.003413,0.0042649,0.0047016,-0.006835,0.00076837
-0.012254,-0.018332,-0.018149,-0.0032148,-0.0035949,-0.0033708,0.00794,-0.0075192
-0.010929,-0.0095849,-0.025637,-0.0017392,0.0039843,-0.0033962,-0.0086121,-0.0081002
-0.0022665,0.014758,-0.0019826,0.0076006,0.0035552,0.0045747,-0.0095467,0.0068386
-0.0097471,-3.0305e-05,0.0059073,0.0011009,-0.0048847,-0.0029668,0.0052029,0.0060622
0.013551,0.0085054,0.0058811,-0.0058547,-0.0056906,-0.0026588,-0.0033645,-0.0025787
-0.0025714,-0.014376,-0.0097858,0.0021944,0.0011918,0.0054336,0.0038644,-0.0033949
0.020154,0.048462,0.029331,0.009576,0.00022923,-0.009983,-0.0043258,-0.0041131
-0.0040782,-0.045203,-0.017288,-0.030497,-0.0084563,0.013576,0.018953,0.003175
-0.0048641,-0.014118,0.0066803,0.0071896,0.0065173,-0.0020041,-0.0044334,-0.0048786
-0.013415,0.0089561,-0.00029976,0.0057461,0.0062032,-0.0098142,-0.012015,0.010852
0.0093211,-0.0071316,-0.0069985,-0.011069,-0.001515,-0.0019975,-0.0038337,-0.0042979
0.00080015,0.031492,0.002147,0.019512,-0.0010066,0.0058655,0.0044353,0.0043281
3.2005e-05,-0.015681,-0.019833,-0.0039229,-0.00015342,-0.0018181,-0.0028837,-0.0024139
0.0069809,-0.0079494,0.020694,0.0045558,0.00090762,0.014027,0.0054096,-0.0012084
-0.0017877,1.2005e-05,-0.0014065,0.013525,0.001993,-0.0012955,0.0058303,-1.0652e-05
-0.0027816,0.015953,-0.0081535,-0.00857,0.0029055,-0.0087451,-0.001663,0.0010397
-0.019334,0.0085006,0.015938,-0.0074058,0.0034726,-0.00053544,-0.0014749,0.0018304
0.003381,0.0087498,0.016059,0.0010501,-0.012044,-0.0079344,-0.001427,-0.0055179
-0.0048122,-0.038128,-0.031303,-0.0068755,-0.0046113,0.0081166,-0.0015009,-0.005392
0.0265,0.0084054,-0.0011594,5.8314e-08,-0.0054194,-0.0070621,-0.0016467,0.010062
0.0035981,-0.0078981,0.012813,-0.0016343,0.0091055,0.0012278,-0.0017876,-0.0059468
-0.0032629,0.0068046,-0.012665,0.0041489,8.3193e-05,0.0017365,-0.0018333,0.0013732
-0.0020333,0.0058056,0.00075858,-0.01348,0.0067651,0.017881,0.0061129,0.00087683
-0.0085274,-0.010695,-0.0013397,0.00062047,-0.0019402,-0.0050726,-0.0013312,0.00046027
0.00049357,0.0043639,0.0047376,0.0077743,0.0053194,-0.0046874,-0.00072142,0.00017379
0.0014283,0.027669,0.019203,0.01603,0.0051421,-0.012282,7.7344e-05,0.015656
0.0019938,-0.011057,-0.012499,0.0019749,-0.010309,0.0033372,0.0087686,-0.0077967
-0.021261,-0.018122,-0.0043979,-0.0033342,-0.0098498,0.0030806,-0.0060463,-0.015529
0.0098496,0.0063376,0.012194,0.0075352,0.006434,0.0025801,0.01016,0.00023915
0.0094964,0.0074555,-0.017558,-0.0049676,-0.00060603,0.0018776,-0.0052467,0.0082354
0.0012365,0.00067437,0.0077079,-0.010091,0.0002047,-0.0067698,-0.013282,0.00063881
0.00079056,-0.0063383,-0.013801,-0.01606,0.00099151,0.00016114,-0.0061296,-0.0069256
-0.0074177,-0.013662,0.011435,0.00031353,-0.0061109,0.007135,0.0084876,0.0011657
0.015672,0.017763,0.0050845,0.0077286,0.010098,-0.001391,0.0072932,0.0092739
-0.00029337,-0.021369,-0.0017679,0.0063291,0.0026967,0.0059002,-0.0016975,0.0017423
-0.00067118,0.017498,0.014211,0.0042271,0.0028903,-0.010007,0.0051574,-0.0058528
-0.0089192,0.017312,-0.017324,0.0018153,-0.0049748,-0.0022113,-0.011038,0.0098711
-0.00938,-0.02962,-0.010384,-0.0083032,-0.0052753,0.0058516,-0.003312,-0.013632
-0.0097744,0.017409,0.011719,0.0054947,0.0020269,-0.0092768,0.0049037,0.0017422
-0.0021559,-0.0056408,-0.0055075,-0.0033877,-0.0064237,-0.00076813,0.013523,-0.0064898
0.021426,-0.0050515,0.00066771,0.0042627,0.00074221,0.015681,-0.0010563,0.0086024
0.0063788,0.019097,0.014857,-0.0027948,0.0080369,0.0087287,2.0442e-05,0.00023073
-0.00041381,-0.01924,-0.017423,-0.0012478,-0.007849,-0.013915,-0.0068961,-0.00025379
-0.0068621,0.0048274,0.013344,0.00085436,4.7883e-05,-0.0054703,-0.0063513,-0.00056914
0.010273,0.0052685,-0.0021624,0.0031995,0.0083145,-0.005076,-0.0062525,-0.00064868
-0.00396,-0.010159,-0.01711,-0.010182,0.0090851,0.0028538,0.0012101,-0.0082824
-0.0029634,0.0054071,0.0074305,0.015069,-0.013393,0.010508,0.0083083,0.0077502
-0.0025913,0.0051225,0.016562,-0.0072557,0.0031983,0.0023032,0.0073775,0.016121
-0.010787,-0.018769,-0.0055873,0.00079278,-0.003846,-0.0060634,-0.0092182,-0.0067215
-0.0041168,-0.0037038,0.0032341,-0.0077157,0.0043499,-0.0066882,0.0055648,-0.0062121
0.0097362,0.026931,0.0037648,0.0063545,-0.0035947,0.00052282,-0.0028328,-0.0058945
0.0075698,-0.0049682,-0.019731,0.004134,0.011338,0.0078381,-0.0030935,0.0019791
-0.0025038,0.0099635,-0.004748,-0.0062773,-0.013295,-0.0081258,0.0047825,-0.0060383
-0.0045486,0.0013852,0.0097723,-0.008913,-0.0070263,0.0073357,0.0051081,0.0013475
0.0017086,-0.022915,-0.015017,0.0043863,0.0069388,-0.00048526,-0.0022227,0.0085952
0.0086516,-0.00043174,0.022708,0.010484,-0.0023808,-0.00038898,-0.0095225,-0.007633
0.00075254,0.0063872,-0.0017961,0.0017798,0.0043344,0.015374,0.0065286,0.015254
-0.0063703,-0.017984,-0.010214,-0.0060104,-0.0039691,-0.007936,-0.0010311,-0.00080303
-0.0050036,0.020332,0.013172,0.0026996,0.011869,-0.015656,-0.00099321,-0.008902
-0.0031301,-0.011354,0.0058383,-0.0034994,-0.0028609,-0.0077682,-0.0089761,-0.0012361
0.0068488,0.019857,-0.0010931,0.006392,0.014209,0.0079695,0.006318,-0.0012746
0.0012659,0.0046077,-0.0078198,0.00082231,-0.015264,0.00037871,0.0058998,0.0065619
0.0033384,-0.018101,-0.014566,-0.012701,-0.0056024,0.0085803,-0.0023379,-0.0090257
-0.0027475,0.0062902,-0.0059113,0.0046178,-0.011748,0.0013385,0.0051126,-0.001208
-0.0093201,-0.0083311,0.010184,-0.0021003,0.012969,-0.005772,-0.0029495,0.0065394
0.0069763,0.00035556,0.018026,-0.0017038,0.0059185,0.01057,-0.0030617,-0.0014384
0.0070597,0.032203,0.017631,0.013621,-0.0016969,0.011138,-0.003033,0.013901
-0.0090301,-0.030055,-0.029965,-0.010719,-0.0020325,-0.012052,0.0049379,-0.0021373
-0.002142,-0.0067234,-0.015226,0.011377,-0.010622,-0.012259,0.0052079,-0.018294
0.0044095,-0.0070818,-0.00045505,-0.013626,0.0039108,-0.012981,-0.017868,-0.0032882
-0.0048616,0.015911,0.0067274,0.00043735,0.010449,0.0092625,0.013818,0.0038669
0.0092456,0.0077647,0.014277,-0.00090929,0.0091114,0.015552,-0.0013155,0.011049
-0.0078334,-0.015713,-0.0011852,-0.0018769,-0.015638,-0.0095172,-0.00079094,0.002704
0.0065009,0.00029044,-0.00064611,0.013251,-0.0012424,0.0046281,-0.0080757,0.0023347
0.01326,0.032369,0.023559,0.0054188,0.0054528,0.0035529,0.0080385,-0.0056307
-0.018755,-0.028921,-0.014722,-0.0098262,-0.0033496,-0.012542,0.00062345,-0.013345
0.0042405,0.019386,-0.021967,-0.0013772,0.011428,0.011143,0.0086826,0.0026405
-0.019295,-0.018241,0.0094575,-0.00066481,-0.01269,-0.011327,-0.0069018,0.0032494
0.004391,-0.0092214,-0.0064749,-0.007872,-0.0053502,0.0058741,0.00070724,0.0040635
0.02059,0.022806,0.00057952,0.0080995,0.0022522,0.0078449,-0.0075619,0.012824
-0.0020048,-0.0082266,0.0073285,0.0080945,0.010173,0.0021136,-0.0082445,-0.0096231
-0.00098629,0.0070187,-0.0016244,-9.0382e-05,-0.0049822,-0.0038173,0.0065338,-0.00087626
8.2187e-05,-0.025144,-0.010391,-0.016389,0.0036723,-0.010231,0.0056105,-8.448e-05
0.0010605,0.020438,0.020333,0.006214,-0.010772,0.013919,0.012522,0.00050782
-0.0059938,-0.012276,-0.0030281,-0.0024004,0.0062879,-0.009582,-0.0117,-0.014741
-0.0055502,0.001935,-0.0022817,0.004856,0.0078449,-0.002559,0.0033411,0.0088824
0.0023516,-0.0070468,-0.0087241,-0.003073,0.0015478,-0.0038974,-0.0047929,-0.0066934
0.0099218,0.04684,0.016554,0.0051963,-0.0049633,0.002302,-0.0048104,0.016723
-0.014011,-0.031682,-0.0048023,-0.0093562,-0.0040281,-0.0070805,0.0033075,0.0010615
0.00098316,-0.00048041,-0.0027492,0.015702,-0.0035633,0.015129,0.0039286,-0.006772
0.00034525,-0.015932,-0.024423,-0.013556,-0.0036061,-0.001159,-0.0029839,-0.0067802
0.01544,0.015552,0.015896,0.01198,0.019319,0.0066562,-0.0018752,0.0088189
-0.00053096,0.015689,0.016506,0.0060585,-0.012808,-0.0005211,-0.00066241,0.0087304
-0.00066251,-0.0078244,-0.0070183,-0.0081966,-0.0060824,0.00059093,0.0083332,-0.0149
-0.016224,-0.015973,5.8896e-05,-0.0076105,0.00060676,-0.013685,0.0015235,0.00040569
0.0074132,-0.0087192,-0.0011858,-0.0079763,0.0074206,0.011069,-0.0056135,-2.8139e-05
-0.0079567,0.014048,-0.0027284,-0.0015308,-0.0011466,-0.0035151,0.0024284,-0.00053039
0.0078902,0.013428,-0.012129,0.011798,0.014025,-0.0029232,0.0021472,-0.0010274
0.0080003,-0.018218,0.0021161,0.0087504,-0.0095756,-0.010666,-0.0064478,0.0063782
0.0079431,-0.010438,-0.0066655,-0.010426,-0.0017071,-0.0032794,0.00017214,-0.0016751
-0.015739,0.013398,0.016326,-0.0063844,-0.009355,0.011534,-0.0090776,-0.0017018
-0.0083407,0.022013,0.016392,0.013352,0.00642,0.010494,0.00508,-0.0015063
-0.0010533,-0.015965,0.0012112,-0.0056354,-0.0013657,0.0015789,0.003809,0.0066887
0.0062066,0.024274,-0.006013,0.015017,0.0062784,0.00055921,0.0029296,0.0071877
0.0057169,-0.029362,-0.021185,-0.010418,-0.001918,-0.015901,-0.0052455,-0.0079116
0.0053656,0.018254,0.017934,0.0041836,0.005332,0.0069382,0.010563,0.00036489
-0.010431,-0.036115,-0.013835,-0.011319,-0.010944,-0.0012269,-0.0044034,-0.014925
-0.0026107,-0.012798,-0.0071736,-0.0099005,-0.0037408,-0.001359,0.0043849,0.00086938
0.020973,0.033596,0.0067458,0.0085527,-0.0041639,-0.0013165,0.0054693,0.0086852
-0.0022449,-0.0061712,-0.0031285,-0.0027947,0.011357,0.0066589,-0.016991,0.00073374
-0.017648,0.01649,0.010353,0.0028553,0.0038523,-0.00092222,-0.0006729,0.008302
-0.0018529,0.01577,0.0084248,0.0096428,0.0045995,-0.00066357,-0.00036991,0.00017856
-0.0017606,-0.016068,-0.00083685,-0.014099,-0.0020686,-0.00040302,-0.00047215,-0.0079777
-0.0017395,-0.024315,-0.017246,0.0013472,-0.0084466,-0.0079606,0.0069043,0.0073001
0.0060524,0.0066342,-0.0016573,0.016192,0.00093899,0.0079217,-0.00154,-0.0086456
0.01384,0.01424,0.014647,0.021845,0.010295,0.00038593,0.013431,-0.0089055
0.0060276,0.0062756,0.01591,0.0019638,-0.011785,-0.0071136,-0.018323,0.0065599
-0.017369,-0.032906,-0.021513,-0.028356,-0.010735,0.0088676,-0.0029116,0.006541
-0.0016609,0.0060653,-0.011928,-0.022473,0.013372,-0.006369,0.0050581,-0.0011174
0.0062677,0.021637,0.0053628,-0.0036923,-0.0019839,0.0018317,0.0055937,0.0070375
-0.0092158,0.0060131,0.022349,0.0050444,0.0057212,0.0099809,0.0064416,-0.0080656
0.0065722,-0.017359,-0.015786,0.0045349,0.0052998,-0.0054208,-0.00033646,-0.0073994
-0.0088675,0.014025,0.0081032,0.011377,-0.010973,-0.0053707,0.00072621,0.0089768
0.0069652,-0.017027,-0.015314,-0.0046856,0.0038812,0.0022748,-0.013965,-0.0058899
0.0071885,-0.001149,-0.0077968,0.011896,0.0030962,-0.005938,0.002339,0.010413
-0.00040276,0.014777,0.015194,0.0070408,-0.013224,0.0012574,-0.0051179,-0.0047
-0.00021178,-0.00050421,0.0069586,0.0044738,0.0018807,0.0082845,0.002718,0.0033844
-0.0078959,-0.023558,-0.0089133,-0.011473,0.0015874,-0.00040901,-0.00536,-0.012258
-4.4512e-05,0.031547,0.014554,0.005753,0.0015269,-0.0013001,0.017598,0.010858
-0.00010643,-0.030518,-0.0085417,-0.014679,0.0094644,-0.0099286,0.0013617,-0.005374
0.0075542,0.016783,-0.0079221,-0.010881,0.0018667,0.005028,-0.0071238,-0.0062103
-0.00046576,0.0093462,0.00851,0.00091462,0.0020446,0.0045571,1.9207e-06,0.008431
-0.0163,-0.013816,-0.014062,0.0045557,-0.0057556,0.0043045,0.0071403,0.0073979
0.022614,0.025374,0.010155,0.015269,-0.0060067,-0.0035513,-0.0091333,-0.0013953
-0.0086662,-0.013738,0.0028959,0.0015583,0.0012524,-0.0034197,-0.0097459,-0.010042
-0.016352,-0.029588,-0.012515,-0.0054127,-0.015194,-0.0031648,0.0053185,-0.0028396
0.0073727,0.0012958,0.018543,0.0022275,0.0072558,0.0049677,0.0048352,0.0046383
0.0077817,0.02429,0.010124,-0.0065864,0.0062503,-0.0025151,0.0044612,0.0045999
0.016045,0.00040626,-0.014269,-0.00032639,0.0053865,0.0055918,0.0042296,-0.0029693
-0.0070098,0.0078396,-0.015438,-0.0099133,0.0048014,-0.0098038,-0.011456,-0.0024931
0.0010049,-0.0080523,-0.00099827,0.0040469,-0.0032303,0.0059731,0.0042987,0.005951
-0.022499,-0.016003,-0.009789,0.0027741,-0.0030574,0.0060522,-0.011002,-0.0011677
0.0083777,0.01523,0.020901,0.0098955,0.0052878,-0.0095464,0.012944,0.0073079
-0.0078984,0.0074968,0.0052833,0.0020426,-0.0095208,0.0060842,-0.0020186,-0.007759
0.0068878,-0.00016273,0.021535,0.0025968,-0.008521,-0.0017048,-0.0012502,-0.0073468
0.0059946,-0.023388,-0.031972,-0.0042281,0.0081814,-0.0094365,-0.00043934,0.00073207
0.0051943,0.0081319,0.00083875,-0.0030326,0.0014267,0.0063588,0.0081539,0.00089012
-0.003195,-0.007159,0.010343,-0.0018685,0.010198,0.0066358,-0.0067927,0.0010014
-0.0034597,0.0010506,-0.0037375,-0.0087524,-0.0046253,-0.00079614,-0.006278,0.0011307
-0.0033802,0.01711,-0.00259,-0.0003805,-0.0040153,-0.0081508,0.0018442,0.0013257
0.0048282,0.017519,0.013609,0.0075757,-0.0036092,0.007963,0.0019338,0.0094135
-0.0023514,-0.029069,-0.017709,-0.00047259,-0.0033993,-0.0072009,0.0096287,-0.0058782
0.0062151,0.01004,-0.002742,0.0068231,0.0044476,0.00098447,-0.0062828,0.002274
-0.0086649,-0.0058908,-0.0038304,-0.0094682,0.0043333,0.0090328,0.0011324,0.0025562
0.0075748,-0.006617,0.0026928,-0.0023378,-0.0037165,0.0012939,-0.014931,-0.012899
0.00015621,0.015672,0.0092637,0.004888,0.011569,-0.0065995,0.0080967,0.0027519
-0.0075261,-0.0014387,0.0004698,0.012284,-0.0044805,-0.006791,0.007775,-0.012987
-0.0076479,-0.010907,0.0076924,-0.0035505,-0.0049709,-0.0070182,-0.00023283,0.010227
0.01548,-0.0046891,-0.00029213,0.0042679,0.002312,0.0084349,-0.00028967,0.0099394
-0.00053974,0.0018495,-0.0079349,-0.011139,-0.013844,0.0084047,-0.00022148,0.0018179
-0.0087091,-0.0066803,0.00023743,-0.01071,0.0012937,0.00076306,-0.007873,0.0015128
-0.0010979,0.01676,0.008417,-0.0022497,0.0087045,0.0011495,0.0079657,-0.0065984
0.0067594,0.0097196,-0.014811,-0.0013747,0.0006017,-0.0060986,0.00038258,-0.0069074
0.0070964,0.0033653,0.016388,0.023156,0.0082337,-0.0054427,-0.0072099,0.0083722
-0.015719,-0.018138,-0.023002,-0.014646,0.00031888,-0.0048157,0.0008034,-0.0076573
0.016377,-0.008217,0.0077234,0.010119,0.00024137,0.019087,0.00098795,0.0074941
-0.0060892,0.0093495,-0.0084743,0.0035411,-0.0076821,0.0036471,0.0011643,-0.00085194
-0.0051174,0.018619,0.0067135,0.004495,-0.007869,-0.0043406,0.0013353,-0.0092308
0.0035431,-0.011895,0.014393,-0.002828,0.0074824,-0.012706,0.001489,0.013648
-0.0036508,-0.011988,-0.0087615,-0.018559,-0.0084754,-0.0057723,-0.0062194,-0.010297
-0.0033337,-0.005056,0.015398,0.0041387,-0.00099583,0.00095686,0.0015964,-0.0029015
0.012276,0.0090872,-0.01476,0.0028456,0.014371,0.0076458,0.0092503,0.0046065
-0.0115,-0.00050999,0.0021843,0.0011948,-0.0013681,-0.0011549,0.0010623,0.012232
0.011317,0.0055678,0.0035492,-0.0083443,-0.0012921,-0.0018605,0.00044119,-0.0034769
-0.0051448,-0.0035916,0.0047807,0.0057943,0.006798,0.013428,-0.0082216,0.0043345
-0.013938,-0.019922,-0.017696,-0.010792,-0.0083718,0.005655,-0.0092285,-0.019041
0.0084432,0.019193,-0.0092646,0.004588,-0.0077913,-0.0096234,-0.0024522,-0.0032959
0.0073688,0.0043289,0.0066357,0.020737,0.00065768,-0.0090977,0.0044592,0.012516
0.0063175,0.021215,0.014433,0.014114,0.0090893,-0.00073507,0.011677,-0.0028312
0.0053206,-0.00077992,-0.0092314,-0.015522,0.0018116,-0.00030805,0.0037201,0.0053706
-0.011215,-0.022953,-0.0017831,-0.013805,-0.0056023,0.0076981,-0.0037056,-0.0097465
-0.0041819,0.016887,0.029013,0.011114,0.0024412,-0.00020707,-0.010601,-0.0013285
-0.01258,-0.045506,-0.018392,-0.019166,-0.0053154,-0.00057241,0.006383,0.014947
-0.0050846,0.0086033,0.0044326,0.012384,0.010207,-0.0011326,0.00020158,0.0077504
0.018372,0.015314,-0.0040826,-0.003625,-0.005641,-0.0017581,0.0018797,-0.0073805
0.0031363,-0.0016499,-0.012669,-0.012386,-0.0059327,0.0055238,0.0033562,-0.007082
-0.0039451,0.00493,0.0021676,0.009755,-0.0062359,-0.010375,-0.0034154,-0.0070159
0.0048404,-0.0037002,-0.0063505,-0.0072603,0.0091255,-0.0024465,-0.002992,-0.0071682
0.013702,0.019536,0.0087634,0.01492,0.01675,0.0059432,-0.0032857,0.0081494
-0.016625,-0.0034399,0.00072838,0.02176,0.0010294,0.0069694,0.0035172,-2.8696e-05
0.0074142,-0.0024303,-0.0069788,-0.01013,-0.014603,-0.0072874,0.0018954,0.0074648
-0.0080715,-0.016746,0.024663,-0.010484,-0.014541,0.0098547,-0.0079587,0.0072779
-0.0084416,0.00016459,-0.0060379,-0.0028499,0.0011861,0.0034574,0.0054576,-0.00054242
-0.0014454,0.02454,0.0022884,-0.010797,0.0091018,-0.0033052,0.0033577,-0.00036946
-0.0025438,-0.014183,-0.0052613,0.012442,0.0091581,-0.0028432,-0.0061875,-0.015679
0.0041183,0.0010588,0.0023809,-0.0034999,-0.0065143,-0.010913,0.008276,-0.0074727
0.010974,-0.0078162,-0.013944,-0.011739,0.0088997,0.0037309,-5.6234e-06,0.016363
0.010417,-0.0093543,-0.0073378,0.0034103,0.0084766,-0.0056559,-0.0075715,0.0010725
-0.013047,0.0045883,-0.0010924,0.010788,-0.0078015,0.0080507,-0.0066845,0.0091034
0.003106,-0.0046571,0.0050333,0.010484,-0.024278,-0.0095141,0.01812,-0.01426
0.0041177,0.025783,0.011323,0.0025663,0.0060117,0.012298,0.0041209,0.0012933
-0.010162,-0.021006,-0.0053993,-0.012929,-0.0027272,-0.0043529,-0.0098633,-0.0067122
0.0069511,0.019147,0.017551,-0.0047491,0.012176,0.0032128,-0.0084398,0.0086418
-0.0072415,0.0055297,0.0021166,0.0036478,0.011822,0.011598,0.00039558,0.0005312
-0.013848,-0.03088,-0.028322,-0.011207,-0.011482,-0.010552,0.00090886,-0.0075623
0.01826,0.026693,0.019819,0.013151,-0.0030083,-0.0087795,0.0087035,0.0078236
0.0030801,-0.0097297,-0.0021309,-0.001439,-0.0018679,0.016606,0.00040642,-0.00018754
-0.004707,0.0078366,-0.016305,-0.00032794,0.0074238,-0.0050388,-0.00040873,-0.00037325
0.0027567,0.00092633,0.0083131,0.0086252,0.0012208,-0.0036933,-0.009183,0.0072234
0.0099341,-0.022806,0.0012395,-0.0137,0.0027198,-0.0029953,-0.0022779,-0.00087696
-0.014306,0.0070165,-0.0063621,0.0029403,0.003881,-0.0030208,0.0048651,-0.0090701
-0.01514,-0.0030784,0.0089545,-0.011848,-0.011087,0.0040995,0.0045676,-0.001715
0.015381,0.0098575,0.01604,0.019977,-0.0031896,-0.012713,-0.0031122,-0.0021896
-0.00075351,-0.016142,-0.016179,0.0045923,-0.0036288,0.0092851,0.0052332,-0.0025864
0.0068457,-0.0024369,-0.0015324,-0.011177,0.0033787,4.8163e-05,-0.0017618,0.0050183
-0.00086335,0.020119,-0.010082,0.011731,-0.0053692,0.0066835,-0.00084042,0.0050981
-0.00048212,0.0048429,-0.0025355,0.0030643,0.0016381,0.013724,-2.575e-05,-0.0022894
-0.0077275,0.0063745,0.0056492,-0.021417,0.0090014,-0.0022051,0.0082966,0.0062893
0.008523,0.00099387,-0.0010941,-0.014641,0.0012335,-0.017699,-0.0072661,-0.0004883
0.0012562,-0.011756,0.016224,0.00018193,0.0017881,-0.0094279,-0.0077048,-0.0071283
-0.0062131,-0.0011613,0.0027073,0.015451,0.0027418,0.014647,-0.00078005,0.0018279
0.0016564,0.0088302,0.012733,0.015682,0.0038826,-0.00032069,0.0058473,0.010586
-0.014228,-0.013413,-0.00093372,0.0087091,-0.0028653,0.00021367,-0.0032248,-0.012242
0.0086643,-0.021204,-0.030814,-0.013394,-0.0099407,-0.0072905,-0.012123,-0.012048
0.015726,0.0089258,-0.014647,-0.0039897,0.0059143,0.0083626,0.010623,0.018973
-0.0085481,-0.00092436,-0.0072203,-0.0024606,-0.017866,0.00029558,0.010469,-0.0050488
0.0062927,0.03554,0.038398,0.006485,0.0047176,-0.00019616,0.010883,-0.0058607
-0.017742,-0.021898,-0.0026039,0.0069453,-0.0042909,-0.0086549,-0.011655,0.0010721
-0.0024152,-0.00098627,0.0028646,-0.0090502,0.010029,0.0062746,0.0051692,0.00028621
0.013276,0.0048054,-0.0073855,-0.010253,0.008852,-0.002172,-0.017006,0.0075401
-0.0019103,0.011251,-0.0018118,-0.0043135,0.00017637,0.0051653,-0.00029801,0.0072911
-0.0011604,-0.012886,-0.0036197,-0.0065669,-0.00027884,-0.0028954,0.0082272,-0.0082517
0.0075893,0.0026058,-0.0048511,0.006784,-0.0003371,-0.0028895,0.0084656,-6.2941e-05
0.00073141,-0.0049453,0.01798,0.01265,0.0077111,-0.0026487,-0.0073924,0.00052558
-0.0062948,-0.01229,-0.0054792,0.003483,-0.02317,0.0055768,-0.015804,-0.014407
0.0019709,0.02729,0.0027841,0.010657,0.016222,0.0060676,0.0068523,0.0097105
0.0019834,-0.0034778,-0.0042537,0.0028958,-0.014878,-0.0012837,-0.0017079,-0.0053557
-0.006282,0.0047868,0.0045062,-0.012147,0.0084534,0.0068639,0.013404,0.010616
-0.0071327,-0.033761,-0.01012,-0.011267,0.00028361,-0.0086148,-0.0023602,0.0028725
-0.00042058,-0.0017816,0.0064807,0.013109,-0.00024368,-0.016483,0.0057304,0.0026326
-0.001573,0.0071353,-0.016027,-0.017328,-0.00080435,-0.0010762,-0.0092582,-0.0057205
0.013052,0.0087228,0.00049057,0.0067087,-0.0012391,0.0064322,0.0072145,-0.0065086
-0.0032543,0.0029805,-0.0064578,-0.0085128,-0.0014039,0.0061318,0.00026326,0.00036509
0.012104,0.021017,0.025606,-0.00039413,-0.001205,0.0059058,-0.0068738,-0.0084073
-0.0033648,5.6338e-05,0.010667,-5.3556e-05,0.0071884,0.0057828,0.0012772,0.0063785
0.0049584,0.01005,-0.0045274,0.0082429,0.00027229,-0.0020722,0.0012151,0.0057868
-0.017736,-0.043117,-0.0045086,0.0089094,0.0091559,-0.002097,0.00079547,-0.0022856
0.0065368,0.043406,0.026218,0.025332,0.0024031,-0.002183,-0.015464,0.013434
-0.016097,-0.058618,-0.053024,-0.012935,-0.012365,-0.018018,-0.00047685,-0.0095993
0.0080265,0.010282,2.5392e-05,-0.0044979,-0.0040494,0.020691,-0.00089347,-0.0011738
0.00073761,0.00038977,0.0058818,-0.027635,-0.011793,-0.0032053,0.02253,-0.00048562
0.0089051,0.0058608,-0.003895,-0.0043035,0.0034733,-0.011492,-0.00043253,0.00014292
0.0091075,0.011502,0.017921,0.0030112,0.0027751,-0.0040443,-0.0073235,0.00060656
-0.0064447,0.0098547,-0.0064805,0.010043,0.0096908,0.0036353,0.0095043,0.00085202
-0.006482,0.016734,0.016848,0.0091471,0.016569,0.0038205,0.0029201,-0.0069256
-0.0066202,-0.03037,-0.013624,-0.0073148,-0.015508,0.019969,-0.011739,-0.0070398
0.000951,0.032408,0.02696,0.0076614,-0.00049354,0.0051492,0.012152,0.0084161
-0.0072192,-0.045262,-0.025753,-0.00056426,-0.0086425,-0.017325,-0.027121,0.00047593
0.031349,0.033117,0.015366,0.014839,0.0069264,-0.00073611,-0.0045742,0.0082693
-0.016179,-0.021845,-0.014115,-0.016562,-0.008513,-0.0077389,0.009607,-0.0072518
0.0064384,0.0083951,-0.0051012,-0.0011728,0.0074657,0.00061824,3.7833e-05,0.016366
-0.0023434,-0.0011951,-0.0046077,-0.0016352,0.007893,-0.0069593,0.013894,-0.014725
-0.0034036,-0.011409,0.0030175,0.005405,0.00048087,0.0086171,0.0046004,0.00091243
-0.012263,-0.014143,-0.013302,-0.019107,-0.0070474,0.0083677,-0.0041667,0.00066027
-0.0053416,0.014409,0.017014,0.010872,-0.0069419,-0.0075948,-0.0044534,-0.0077462
0.0097036,0.027741,0.008314,0.0017802,0.0085854,0.0077174,0.0037656,0.014744
0.0017578,-0.012918,-0.015729,0.00072815,-0.0073239,-0.0081091,-0.010846,-0.017739
0.0099615,0.0097739,0.023137,0.0079503,6.9963e-05,0.0074703,0.0062247,0.0043175
0.0030589,-0.013555,-9.2213e-05,-0.015428,0.0074036,-0.00023394,-0.0077578,0.0029764
-0.0034231,0.0028961,0.00040193,0.0088201,-0.0086821,-0.0078256,0.0094494,0.0018806
-0.0018484,-0.0036078,-0.0068206,0.010382,0.0065661,0.0080663,0.0029146,0.0012147
-0.00025163,-0.0020868,-0.0063332,-0.01085,0.006315,0.00049284,-0.011935,0.001108
-0.0066703,0.022838,-0.0060943,0.015243,0.0062038,-0.014986,0.019467,0.0016096
-0.0056639,-0.030571,-0.0061555,-0.013147,-0.0094004,0.00064717,-0.0044694,-0.012947
0.010469,0.0016734,0.001349,-0.010344,-0.0092679,0.0083109,-0.0055423,0.012
0.0026467,-0.0054058,0.00093071,-2.1898e-05,-0.0090468,0.0080107,-0.014829,0.005946
-0.0056252,-0.0048408,0.00057549,0.0020067,0.01468,-0.00022668,-0.0086517,-0.0078984
-0.0063947,0.026926,0.023874,0.011243,-0.00060882,-0.00073183,0.013258,0.0014951
0.00051593,0.0040561,-0.015028,0.004189,-0.00025041,-0.0090716,0.012082,0.0026961
-0.00034056,-0.0030964,0.0088573,-0.0035327,0.0079055,-0.0017412,0.0036185,-0.012217
0.014615,-0.010187,0.0016703,-0.019692,-0.0074405,-0.0021095,0.0035622,0.0036084
0.0063985,0.0061281,-0.005513,0.010475,0.0083438,0.0055071,-0.0037499,-0.0044514
