0.0097313,-0.018631,-0.048374,-0.01672,0.0020278,-0.0038078,-0.0093137,0.0010832
-0.020604,0.013907,0.11941,-0.0020374,0.0018419,0.0033331,0.0053607,0.0017718
0.0035973,0.0066541,0.1208,0.02818,0.0012217,0.0024149,0.0047022,0.002576
0.0041434,-0.0012483,0.034842,0.0036942,-0.015352,0.0013901,-0.011238,0.0034239
-0.0033876,0.005982,-0.098318,-0.0051002,-0.00081602,0.0003878,0.01222,-0.0035998
0.0044186,0.0050937,0.034843,-0.0059406,-0.0096306,-0.00049012,-0.0031116,-0.0029892
0.0041238,-0.0037401,-0.010112,0.0012367,0.013098,-0.0089888,0.0051678,-0.0026718
0.0035607,0.010861,-0.029383,0.00085666,0.020623,0.013986,0.0056928,-0.0027374
-0.0050417,-0.021342,-0.030336,-0.0070448,0.012965,-0.0096878,-0.017264,0.0045795
0.0018181,0.001234,-0.0049663,-0.0068234,-0.0099694,0.0059059,-0.0012713,0.0036588
-0.014837,0.0082575,0.03101,0.0093308,-0.0014771,-0.0017673,-0.001037,0.0023721
-0.00021772,-0.00031553,0.014685,0.010137,-0.016437,-0.0093125,0.0068981,-0.0069862
0.014534,-0.0010962,0.015639,-0.0044673,-0.0081234,0.0066602,-0.0086683,-0.00083729
-0.001736,-0.0097477,-0.014025,-0.0033245,0.0077822,-0.0085894,0.0069998,-0.0024615
0.0057325,0.0049653,0.0026117,-0.0021707,-0.015545,0.015192,-0.00076095,0.0039167
-0.0099041,0.019623,0.040886,0.0066928,0.0079721,-0.00018495,0.0070962,-0.0050187
-0.0017844,0.0030284,0.076314,0.007546,0.016015,-9.953e-05,0.014891,0.0098689
-0.0012175,-0.029104,-0.24334,-0.023107,-0.00688,-0.0080463,-0.008703,0.0017213
0.015138,-0.0063462,0.12085,0.016286,0.0018695,0.00719,-0.0090666,0.0017494
-0.0075284,0.0089214,-0.057287,-0.014862,0.0031703,-0.0090774,-0.0096645,-0.0057541
-0.0068455,0.0011749,0.020049,0.0085245,0.012497,0.0056961,-0.0026472,0.0025431
0.0014418,0.017339,0.041589,-0.007216,-0.0016403,-0.0030892,0.0042778,-0.012527
0.0016165,-0.0051092,-0.014778,0.00048991,-0.0082689,0.0037504,0.0034531,0.0036353
0.0092535,-0.0037753,0.078697,0.016052,-0.0076353,-0.012712,-0.0049515,0.0040948
-0.0068966,-0.0022723,-0.052126,0.00038712,-0.015521,0.0023341,0.010457,-0.0033686
9.4589e-05,0.014809,-0.024014,0.00030185,0.014922,0.01773,0.0028795,0.0046698
-0.0087351,-0.015245,-0.05575,-0.0077425,-0.0021333,-0.0055515,0.0035591,0.00477
0.0058099,-0.0066639,0.070987,-0.00040748,-0.0039651,0.0027788,-0.0032232,-0.0030697
-0.0030003,0.0092181,-0.019513,-0.0011929,0.0097148,-0.0042318,-0.0019995,-0.0032287
0.011841,0.0089843,0.20317,-0.0022826,0.0001366,-0.0032594,-0.00076583,0.0042877
-0.012072,-0.022867,-0.24612,-0.0035937,-0.0012083,0.0055711,-0.0075033,-0.011771
0.0034234,-0.00019747,-0.0007936,0.0028429,0.0058272,-0.0091033,0.0011072,0.01111
0.0036146,0.0069202,-0.037716,0.0016086,0.0056507,-0.00049058,-0.0062317,0.002652
0.0040405,0.0065214,0.064969,0.00073501,-0.017441,0.00011335,0.0095686,0.0019817
-0.0032401,0.0065762,0.065286,0.00041106,0.0066986,0.00050999,0.0017187,-0.0064362
-0.0027485,-0.0006727,0.010438,0.00075738,-0.00026843,0.0085259,0.001587,-0.0068667
0.0053822,-0.0074752,-0.052365,0.0017991,0.00050114,0.00075075,-0.0063311,-0.0070086
-0.0023783,0.0016241,0.0021384,0.0034556,-0.0068012,0.00065235,0.0014962,0.0010443
-0.010438,0.002944,0.033481,-0.0022628,0.0089583,-0.0073653,0.001679,0.017341
-0.010954,-0.0037851,-0.028587,2.0144e-05,0.00087353,0.0001631,0.0020214,0.0027991
0.019597,0.0046329,0.011251,-0.0056034,0.00025142,-0.00016941,0.0024629,-0.0036096
0.00321,0.0045969,-0.026714,0.0040293,-0.0084017,0.0072985,0.0029058,0.005771
0.0025143,-0.019569,-0.087828,-0.010371,-0.009283,-0.00082758,-0.0045736,-0.0083125
0.0019977,0.010337,0.14036,0.013547,0.0056054,-0.016689,-0.012262,-0.0069849
-0.013884,-0.0070592,-0.060991,0.0054205,0.0051648,0.0066329,0.0032144,0.0096105
-0.0060279,-0.0168,0.026726,-0.019076,0.0051006,0.006664,0.01059,-0.0054701
0.0099398,0.01266,0.051751,0.0026989,0.0054022,0.0068437,-0.0057227,-0.0053338
0.010544,0.042527,0.013877,0.00064397,0.0059702,-0.0084852,0.0090452,0.0023035
-0.0042799,-0.020753,-0.063609,0.0062591,-0.008983,-0.00032644,-0.0074955,-0.0058494
-0.0033636,0.0026021,-0.024488,0.011987,0.0072356,-2.2876e-05,-0.0083516,0.0016127
-0.018041,-0.020226,-0.10302,-0.013192,-0.023651,0.00013295,-0.0012334,0.0091853
0.021922,-0.011209,0.068209,0.0012148,-0.0001618,4.3658e-05,0.0061113,0.0012951
-0.00072446,0.0060557,0.03634,-0.0071794,0.0074012,0.0074537,0.0058814,0.0091611
-0.0079008,0.015743,0.059374,0.0085417,-0.00086381,-0.0010934,0.0058448,0.0014312
0.00036309,0.017637,0.09829,0.0014709,0.014264,-0.002116,0.0059124,0.0014037
0.00061271,-0.019719,-0.17516,-0.012866,-0.01735,-0.011128,-0.0096493,-0.006676
-0.0071597,-0.0027487,0.051298,0.012251,0.0060009,-0.0045265,-0.0018721,-0.022882
0.016107,-0.0018911,-0.066315,-0.0014959,-0.0015425,0.010076,-0.0098684,-0.0081452
0.0079218,0.0062289,0.10469,0.008186,0.0068767,0.0016237,-0.0023761,0.0063776
-0.016071,-0.017451,-0.11536,-0.0057782,0.0077069,0.0015173,-0.0027603,0.013024
-0.0011435,0.0052487,0.0081213,-0.0044922,-0.0070541,0.0020172,0.0047145,0.019772
-0.0019159,0.0041041,-0.0089749,-0.011508,0.0014323,-0.0047153,0.01235,-0.0044875
-0.0026715,0.010471,0.067995,0.0043728,0.0017099,-0.003182,-0.0032093,-0.0049836
0.0045112,0.016645,0.082935,0.011911,-0.0063577,0.014221,0.0049338,-0.0051357
0.0041185,-0.0085128,-0.057919,-0.0044526,-0.007175,0.00036683,0.0054853,0.0028329
0.0040559,-0.010199,0.043694,0.01789,-0.00065055,-0.0059322,-0.009465,-0.0045827
-0.0034322,-0.011719,-0.16719,-0.022488,-0.010025,0.0029419,-0.00097684,-0.0040184
-0.010527,-0.0051098,0.059158,0.0073747,0.019651,-0.012174,-0.00041187,-0.0033483
0.0061557,-0.0058466,0.0037715,-0.01737,-0.0051032,-0.0043916,-0.0078396,-0.002616
-0.00036579,-0.0059932,0.025935,0.012789,0.0018687,-0.0048397,0.00016736,0.013773
0.0088171,0.041385,0.024113,0.0042119,0.0016255,0.0023014,-0.007592,-0.0010874
0.0022745,0.011255,0.029682,0.0038431,0.017607,0.017249,0.015848,-0.00036336
-0.0045487,-0.010576,-0.097786,0.0038912,-0.0049858,0.0011269,0.0080914,0.0080726
-0.011805,-0.01651,0.03257,-0.011296,-0.011658,0.00091559,-0.0073358,-0.014916
0.0038447,-0.0067965,0.053813,-0.0027272,-0.010449,-0.006815,0.0008649,0.0087202
0.0033093,-0.0051117,-0.065058,-0.0095668,-0.0015717,0.0090968,-0.0063729,0.00079709
-0.0055508,0.011802,0.02774,0.014938,0.007001,-0.0061907,-0.0056675,-0.0074606
0.0086315,0.0047879,-0.066054,0.0081606,-0.00044048,0.0018356,0.010697,-0.00040646
-0.00084819,-0.01053,0.11461,0.0012327,0.0073468,-0.006033,0.011351,-0.0014076
0.0052737,-0.0028249,-0.031782,-0.0059382,-0.0008283,-0.006437,-0.011635,0.005273
-0.0040464,0.0045899,0.0025565,-0.013406,-0.0014234,0.00063531,-0.0036636,-0.0036662
-0.012998,0.004038,-0.048079,0.0022575,-0.0021234,-0.00034152,-0.0038412,0.0031625
0.0019966,0.011258,0.011498,0.0020285,0.005013,-0.0013905,0.0034707,0.0024382
0.0097587,-0.012748,0.0092426,0.0094154,-0.011153,0.021118,0.002717,0.0020506
-0.005348,0.0023455,0.01524,-0.0067452,0.0041462,-0.010761,-0.0059882,-0.0057856
0.0034528,0.0018124,-0.064569,-0.0073101,0.0040757,-0.0031478,0.00092863,0.0023431
0.012547,0.0012122,0.058469,0.015591,0.0042584,0.0049572,0.0079761,-0.0048811
-0.0095417,-0.0073345,0.0010282,-0.00051836,-0.0031584,-0.0020861,0.00745,0.0036929
-0.00055237,-0.00043057,-0.034346,-0.0009548,-0.0026181,-0.00092268,-0.0083954,0.0045157
0.00024927,-0.0015063,0.061157,-0.0091796,-0.0020156,0.00050469,-0.0082915,-0.00252
0.00054938,0.020755,0.0918,0.013848,-0.0014317,0.0020427,-7.9586e-05,0.0059373
0.00032763,-0.011648,0.002749,-0.0021868,0.0068803,-0.0042723,0.0083592,-0.0092287
-0.023761,-0.012612,-0.28388,-0.010377,-0.00055789,-0.0029443,0.0013034,-0.0089737
0.014411,0.0024167,0.060707,-0.010659,-0.0003205,-0.00188,-0.0057329,-0.0010979
-0.0021005,-0.021095,-0.024997,-0.010765,-0.0080161,0.006677,0.0027658,0.0066152
0.01289,0.026319,0.10858,0.020629,-0.00016959,-0.00073249,0.0032685,0.0063833
-0.0029192,0.019652,0.13435,0.021053,0.0076418,-0.00066633,-0.0042896,0.013851
0.0052634,-0.0021492,-0.064208,-0.0095209,-0.00016255,0.0068984,0.0035005,-0.0022275
-0.0016319,-0.0080487,-0.057208,0.0069374,-0.00011618,-0.0092529,-0.0046013,-0.010601
-0.0080951,-0.0061325,-0.016821,-0.0078408,-2.6924e-05,0.0056136,-0.012929,-0.0034459
0.0091151,-0.012307,0.056279,-0.014952,8.3098e-05,-0.003131,0.0098277,-0.0041654
-0.004924,0.012254,-0.041899,0.0010895,-0.007644,0.011461,0.0090432,-0.012694
-0.0035661,-0.01072,0.00029548,0.0011378,0.0079823,-0.013024,0.00039277,0.010117
-0.0026161,0.0046714,-0.013109,0.0086144,2.5828e-05,-0.0061769,-0.00046844,0.0096688
0.0056356,-0.0039995,-0.0356,-0.0076791,-0.00031111,0.00084672,-0.0013408,0.0016516
-0.010075,0.0103,0.026536,0.0070474,-0.00086104,0.00030901,-0.0022194,0.0095249
0.0050089,0.00090451,0.025094,-0.0095794,0.0062079,0.007872,0.0047215,-0.013615
0.0041444,-0.00071071,-0.0082713,0.0050641,-0.01029,8.3602e-05,-0.011733,0.0024743
0.0031243,0.0056601,0.036281,0.012013,-0.0033733,0.0081246,0.010978,0.0030119
0.0099346,-0.0032586,0.081052,0.003514,0.0036572,0.0084467,-0.012999,-0.0042778
-0.014335,-0.019552,-0.17831,-0.012601,0.0031342,-0.014702,-0.0054535,-0.0038303
-0.007072,0.0036902,0.0083833,-0.012904,-0.0048152,-0.006744,0.0024241,-0.0034767
0.00053046,0.01175,0.063094,0.01039,0.0033303,0.0010071,0.010644,-0.0031933
0.00065637,0.0045405,-0.014233,0.0025656,0.0041541,-0.0070754,0.011335,0.012697
0.016679,0.013182,0.08874,0.01048,0.0054193,0.00031579,0.012187,-0.0026194
-0.0062053,-0.0093474,-0.089174,-0.012749,-0.0007998,-0.0001619,-0.010405,-0.0022252
0.0021686,-0.016306,0.0064084,-0.0046119,-0.0068491,0.015029,-0.0097317,0.0060765
0.002586,-0.0077941,-0.038891,0.0036525,-0.0050935,0.0068995,-0.0093567,-0.0011844
-0.012891,0.00051542,0.024638,-0.0035734,0.0042979,-0.0089015,-0.01714,-0.00063882
0.0025425,0.016437,0.017073,0.0049499,-0.0022529,-0.0011523,0.013832,-0.00018556
-0.005801,0.0087612,0.047642,0.0057472,-0.0092204,0.0066417,-0.0022678,9.5627e-05
0.0012142,-0.0068246,-0.016505,-0.0012483,0.014589,-0.0090381,0.020647,0.00015714
0.0080936,0.00099323,0.004417,0.015125,-0.001157,-0.0013815,0.0045967,2.4862e-06
-0.00062609,-0.0067964,-0.092464,-0.023352,-0.0017575,-0.0016627,-0.0034383,-0.0081195
0.0064655,-0.0067266,0.029184,-0.007381,0.0050136,-0.0020416,-0.011219,-0.0084735
-0.0095658,0.0012044,0.0026731,0.0083061,0.0035972,-0.0024441,0.0046911,0.014701
-0.0017721,0.0091562,0.03165,0.0080896,-0.013722,0.005045,-0.0026264,-0.00096781
-0.0013999,0.0092595,0.030633,-0.00016301,0.0078745,0.012716,-0.0019825,-0.00071002
0.0071088,-0.014189,-7.9163e-05,0.0070849,0.0060548,-0.0027933,-0.0090661,-0.00013867
0.0080025,0.0012243,-0.083843,-0.016914,-0.018988,-0.018019,-0.00049562,0.0084867
-0.0066956,0.00073383,0.05262,-0.0095259,0.0032571,0.0060666,0.01587,0.0015808
0.0019047,-8.2602e-05,-0.0051345,0.0059281,-0.0051625,0.0068744,0.00092732,-0.0054278
-0.0054072,0.014402,0.01577,0.013895,0.010551,0.015523,0.0015126,0.0028819
-0.0052905,-0.0026239,0.0052924,0.014383,0.003537,-0.0071934,-0.005851,-0.012721
-0.0055859,-0.01978,-0.060683,-0.016107,0.0049465,-0.014528,-0.0055748,0.0023593
0.0093741,-0.013446,0.020369,-0.0073863,-0.0010564,-0.0065638,0.0023131,0.0012497
0.0084414,0.0087775,0.076145,0.0013154,0.0086718,0.001057,0.0021733,-0.00032287
-0.00043086,0.039281,0.020519,0.009821,-0.013072,0.0083806,-0.0059926,-0.0021772
-0.009276,-0.03116,-0.17766,-0.013275,-0.0040901,0.0076935,0.0012712,0.0037266
-0.0023255,0.00064757,0.060118,0.010044,-0.0036638,-0.0086898,0.0083719,0.0019964
0.0049085,0.0096644,0.093849,0.0016189,0.0037392,-0.0015794,0.0075407,0.0084567
0.0046823,0.003562,-0.04445,0.00055396,0.0025458,0.0056918,-0.0089808,-0.0080061
-0.0029851,-0.010071,-0.033679,-0.01647,-0.0070567,0.0053778,-0.0098793,-0.00045997
-0.0024963,-0.00025235,-0.021602,0.013223,0.0064714,0.0053153,-0.0028961,-0.00017836
0.0060836,0.009313,0.039099,-0.011725,-0.0034035,-0.017946,0.012044,-0.0072536
-0.00076966,-0.0050297,0.062621,0.0026332,0.0027167,-0.0019426,0.0037606,0.0094239
0.00028893,0.0034651,-0.013725,0.0095781,0.0016699,0.0063994,-0.0042502,0.010629
-0.014262,-0.012096,-0.049781,0.0013808,0.0092554,-0.00078486,0.0036705,-0.011607
0.0023848,-0.0047415,-0.022754,0.0014807,-0.0057269,-0.0001079,-0.011536,-0.010539
0.0033042,0.0022772,0.058857,0.0019926,-0.0042895,0.0083836,-0.003028,0.0059382
0.011896,0.0092002,-0.0321,0.010607,-0.0022402,-0.0066042,0.0056891,-0.0012704
-0.0031229,0.00064465,0.016489,-0.019685,0.0079745,0.0017616,0.0067006,0.0069127
-0.0027226,0.0080551,-0.037679,-0.010873,-0.013004,-0.0056211,0.0076957,-0.00071445
-0.002562,-0.015334,-0.022564,-0.0020854,0.004842,0.0024621,0.00073612,-0.00064933
0.0051407,0.016419,0.1091,0.0066622,0.0065694,0.010357,-0.0064703,-0.00064023
-0.010886,-0.013969,-0.064012,0.0075828,-0.00019853,-0.013204,-0.013982,-0.00063718
0.0040411,0.0026993,-0.033531,0.0085301,6.1611e-05,0.0020837,0.0016417,-0.00061304
0.0030628,0.019331,0.052581,0.0017239,-0.0082796,-0.0062704,0.0014064,-0.00056609
0.0018442,-0.026793,-0.055401,-0.0050196,0.0061192,0.016448,0.0088669,-0.00051716
0.00044895,0.0047753,0.080023,-0.0039194,-0.003444,-2.7061e-05,-0.0070883,0.0073109
-0.0010378,-0.0032539,-0.064877,-0.010664,-0.005489,-0.00093991,-0.0072718,-0.00055785
-0.0025133,0.011607,0.079654,0.0059103,0.0080502,-0.0096392,0.016208,-0.0007142
-0.0038636,0.002561,-0.080865,0.0066486,-0.0016482,-0.0025827,0.0086773,-0.0087902
0.0028395,-0.014615,-0.0081409,-0.00072482,0.0046715,-0.0030999,-0.0064824,-0.0013278
0.0020763,0.0071484,0.094046,-0.00065514,-0.011932,0.0045268,-0.0059424,-0.0017177
0.0095534,-0.01007,0.02218,0.014628,0.01889,-0.0030864,0.0023517,0.013542
-0.013747,0.012027,-0.11438,-0.033006,-0.0044696,0.0053053,-0.012973,-0.0023555
-0.0053267,-0.004576,-0.041806,0.0049131,-0.0039942,0.014003,0.010503,-0.010292
0.0035088,0.0026482,0.0062963,0.011269,-0.003268,-0.00056493,0.0024462,0.0132
0.012652,0.01021,0.038734,0.0096014,-0.0024445,0.00049098,-0.0058523,-0.01
-0.0014861,0.002369,0.048735,0.0078493,-0.0016573,-0.0064388,-0.0064875,0.006015
-2.1102e-05,0.0024254,0.044993,-0.009471,-0.0010006,-0.021488,0.00065795,0.0065101
0.0012426,-0.013179,0.012449,-0.010963,0.015105,0.002151,0.0078835,-0.0085739
-0.013472,-0.021069,-0.13467,-0.019923,-0.00021386,0.0098029,0.0074558,-0.008043
0.0026114,0.0022049,0.048733,0.010638,-0.0078511,0.0015463,0.0072155,0.0080594
0.0025892,0.017667,-0.008226,0.010478,-0.015551,0.00093959,-0.0163,0.00064438
0.0021332,0.0098257,0.0061769,0.018662,0.0080135,0.0081131,0.0071548,-0.0068627
-0.0064561,-0.028995,0.005123,-0.011757,0.0082186,-0.00025847,-0.008443,0.0011583
0.0082312,0.010683,0.019011,0.0050229,0.0085366,-0.00066171,-0.00067344,0.0012641
0.0073128,0.042958,0.094018,0.0063302,-0.0066644,-0.00087446,-0.00083939,0.016879
-0.009039,-0.025961,-0.15312,-0.015816,-0.006183,-0.0087116,0.0066698,-0.0067076
-0.0094374,-0.0086791,-0.011576,-0.0068556,0.0020875,-0.00076589,-0.0015578,0.0007935
-0.0016162,0.00090879,0.065713,-0.0059095,0.0024277,-0.0083378,-0.0020271,-0.015324
0.01443,-0.012973,-0.0067147,0.0026577,0.0025643,0.0075696,0.0053379,-0.00037387
-0.00043388,0.0042308,0.0061377,0.00328,-0.0053703,0.007816,-0.0028223,-0.0012146
0.00052365,-0.0022657,-0.090427,-0.0039723,0.0020533,0.0079403,-0.0030061,0.005627
0.0014866,0.006534,0.063422,0.020005,0.0014431,4.5932e-05,-0.0029887,0.0045729
0.0022499,0.0071519,0.022557,0.0048834,-0.0071057,-0.0081202,0.0050453,0.011301
-0.0051786,0.0073779,0.0056062,-0.010352,-2.8075e-05,-0.00095994,0.0054376,0.0024321
-0.0052918,0.0072067,0.18408,0.013243,-0.0084396,-0.0096946,-0.0018753,-0.0063417
-0.0059343,-0.01678,-0.098722,0.0052367,0.014646,0.0048297,-0.0013488,-0.0071249
0.00076561,-0.0098404,-0.21034,-0.042258,0.0067888,-0.0041165,-0.00087568,-0.023256
-0.0006804,0.0046884,0.060096,0.0035822,-0.00076496,0.0027063,-0.00051732,5.7209e-05
0.0055371,-0.004303,-0.091834,-0.0055767,-0.0080863,0.009848,-0.00030178,0.016026
0.011802,0.0024123,0.13912,0.024199,0.008142,0.0018217,-0.00021767,0.016879
0.0026622,0.0015543,0.058346,0.0071937,-0.0069092,-0.013489,-0.0080309,0.010398
-0.0061266,0.0010517,-0.03668,-0.0016934,0.0013171,0.0029679,-0.0002366,-0.011339
0.0011353,0.00094921,0.049704,-0.010122,-0.0063334,0.012033,0.0076073,-0.017261
-0.014592,0.016831,-0.049696,0.0054088,-0.0064591,-0.0020814,0.007733,0.0080444
-0.0064584,0.0017045,0.0007118,-0.0020098,0.00096216,-0.00051819,-0.0076663,-0.0059467
0.0098492,-0.021163,-0.0027791,-0.0012508,0.015999,-0.0069239,0.0082459,0.0030948
0.0029853,0.0027379,-0.0374,0.007503,-0.00031444,-0.013664,-0.0071055,0.0038173
0.019704,0.010765,0.029057,-0.0072043,-0.0010008,0.018205,0.00087385,0.0040141
-0.018257,-0.020588,-0.038212,0.0013141,-0.0015929,0.0027028,0.00084757,-0.0040656
-0.0016587,0.002444,0.018404,-0.0061402,-0.0020201,-0.0054466,-0.0072393,-0.012484
0.0068853,0.0096495,0.003612,0.0094355,-0.0022383,-0.0061412,0.0078573,0.0023597
-0.00050969,-0.0066296,0.011353,-0.0066217,-0.010045,0.00076645,-0.0085008,0.0093777
-0.0082328,0.0084633,0.026295,-0.0073376,0.0057965,-0.00018546,0.006285,0.0008901
-0.00061137,0.00038091,0.0097041,0.0074382,0.0061803,0.0067772,-0.002344,0.00040977
-0.00098237,0.00044742,0.040028,0.006623,0.0066638,0.0061385,-0.0030048,0.00013262
-0.0092145,-0.0069754,-0.14807,-0.009635,-0.00064988,-0.0098614,0.0044106,0.0078202
0.0217,0.0014473,0.055001,0.0056364,-0.00022141,0.0056455,-0.003478,-5.1812e-05
-0.0018834,0.009917,-0.0068681,-0.0022236,6.7503e-05,-0.0020866,0.0045716,-0.0079492
-0.0017837,0.0025997,-0.036806,0.013612,-0.015445,-0.0018978,0.0050472,-0.0081222
0.0063743,-0.005078,0.082205,-0.0094639,-0.0076908,-0.0016995,-0.0021766,-0.0083963
-0.0087087,-0.0054439,0.013873,-0.0012824,0.0077458,-0.0015751,0.014003,0.0068938
-0.0080499,-0.006354,-0.0001009,-0.0010469,0.007493,0.0062388,-0.016859,0.0065784
0.0082635,0.0078888,0.11007,0.006761,0.015058,0.0061129,-0.0089077,0.0063762
0.0010954,0.0062164,-0.12477,-0.0091549,-0.00075461,-0.0097229,-0.0012161,-0.0014491
-0.0061632,-0.034549,-0.16575,-0.017521,-0.0086604,-0.009939,-0.0015325,-0.0012391
0.0020966,0.003065,0.073214,0.013001,-0.0086497,0.0055625,0.0058895,-0.00082904
-0.0053668,0.041184,-0.001211,0.0044144,-0.0085422,-0.0021886,0.00557,-0.0081094
0.002716,-0.0059696,0.11159,0.011551,-0.0005438,0.0059297,0.0054517,0.0080506
0.010736,0.01008,0.12321,0.011102,0.023133,0.0143,-0.0021951,0.00063977
0.0030701,-0.020131,-0.16112,-0.012459,-0.0078531,-0.00056517,0.0060839,0.0085959
-0.012489,-0.010858,-0.053572,-0.020014,0.0080297,-0.00752,-0.016635,-0.0072286
0.0030864,0.014211,0.063156,-0.0037385,0.00044219,-0.0066979,0.015485,-0.015607
0.002882,-0.0076789,-0.037628,0.012896,-0.015008,-0.013861,-0.0070548,0.006944
-0.0053201,0.0091943,0.03438,0.0063784,0.00074034,0.0099369,-0.0062537,0.0058509
0.0019105,-0.013437,-0.025968,2.9674e-05,-0.014804,0.0099348,-0.0056484,-0.0031042
0.0011614,0.01031,-0.00046272,-0.0062972,0.00087225,0.0017343,0.0025106,-0.004125
0.00030444,-0.021102,0.071291,0.018484,0.032149,0.00099112,0.010387,0.0029394
-0.0083839,0.017414,0.04822,-0.0039081,0.00088623,-2.6303e-05,0.002368,0.010377
0.014265,0.00098074,-0.14806,-0.026721,-0.0070139,-0.016821,0.0097406,0.0025962
-0.0097673,0.0078507,0.021522,0.012481,0.00059334,-0.00237,-0.022125,-0.012631
-0.0022673,0.0068918,0.018213,0.0043286,-0.015384,0.01223,0.0084057,0.0036619
0.0055671,-0.0017956,0.037906,-0.012042,-0.00025514,0.0036731,-0.0079642,0.0044672
-0.0018845,-0.010313,-0.082724,0.0025597,0.00697,0.0033003,-0.00084272,-0.0025385
0.0065796,-0.026397,0.024254,0.01704,-0.0092397,-0.012297,0.0064032,-0.0018434
-0.00038591,0.012522,-0.015595,-0.0075071,-0.0018919,0.0037184,0.013825,-0.016956
0.00052879,0.012744,0.047971,0.007177,0.013498,0.012189,-0.0098008,0.0146
-0.0064403,-0.010091,0.12104,-0.0091259,-0.0020615,-0.010461,-0.0019781,0.0069119
-0.0057951,0.014293,-0.13288,-0.009492,0.0061214,-0.0018831,-0.0017993,-0.0087199
0.0023694,0.0076739,0.05885,0.021708,-0.0010813,0.0065367,-0.0093176,0.0068311
0.010191,-0.0066645,0.0078839,-0.017125,-0.00035726,-0.0087351,0.0066478,-0.0010643
-0.005767,-0.0054657,-0.11459,-0.0088689,0.00032603,0.0069523,0.0069547,-0.0011157
0.0014168,0.0032839,-0.019871,0.015134,-0.00699,-0.0010605,-0.00066624,-0.0011178
-0.0072354,-0.0039803,0.049937,9.0974e-05,0.0010325,-0.0092513,-0.00066277,-0.0010749
0.0074475,-0.0038703,0.024965,0.0083985,0.00092965,-0.0018734,0.0069154,-0.001008
-0.0012921,-0.01197,0.023105,0.00090581,-0.0072448,0.005578,-0.0091927,-0.00094696
0.00572,0.010906,0.006067,-0.0068148,6.6678e-05,0.0053985,0.0057413,0.0068915
-0.0026739,0.010247,-0.033303,-0.0069528,-0.0082322,0.013275,-0.010686,-0.0009508
-0.010786,-0.013758,0.0069512,-0.0072664,0.014877,-0.0098517,-0.0036423,-0.0010407
0.0048456,0.017176,-0.0059408,0.0079709,0.0069869,-0.0093473,0.0036027,-0.0011753
-0.0026693,-0.014044,-0.0019922,-0.0079912,-0.0006426,0.0068807,-0.0044173,-0.0013196
0.013486,0.0019685,0.02597,-0.0081647,0.0075363,-0.0081564,0.0036581,-0.0092381
-0.0092825,0.010454,-0.040079,0.023143,-0.015499,0.00011985,0.020047,0.0063682
0.0070303,0.0034677,0.041177,0.015616,0.00038127,0.016001,-0.0021907,-0.0013408
-0.00020255,-0.0035284,0.042452,0.00043178,0.0081365,-0.015244,-0.00070945,0.0067043
-0.0076585,0.0049417,0.049282,-0.006906,-0.00015401,0.0079495,-0.014788,0.01485
-0.007608,-0.033724,-0.21173,-0.029967,-0.024508,-0.0081228,-0.013413,-0.016028
0.007724,0.0054369,0.0099434,0.0092772,0.01328,0.006934,0.026643,-7.4025e-05
0.0071021,0.0052667,0.051144,0.0014186,0.0040001,-0.0014641,-0.0041408,-0.0076858
-0.0015971,0.012712,0.037993,0.0011898,-0.01307,-0.0097727,-0.0042578,0.0079455
-0.0026446,0.0044201,0.018436,0.00088523,0.016973,0.01335,-0.012728,-0.0079013
-0.011536,0.0038947,-0.030191,0.00064159,0.00055429,-0.010158,0.0018284,0.015092
0.010927,-0.0044588,0.056467,0.00058274,0.008085,0.013474,0.008353,-0.0089683
0.0023699,-0.0050233,0.0047187,0.0085933,-0.0073013,0.0061042,0.014876,-0.0018859
0.0019515,-0.0056441,-0.061169,-0.0065821,-0.006617,-0.016693,-0.009646,-0.0026381
-0.0058971,0.0014544,0.037452,0.0018427,0.0021912,-0.00029879,-0.010364,-0.0033303
0.0022703,0.016254,0.11979,0.018087,0.0033368,0.00052251,0.0050022,0.019539
-0.0048337,-0.02373,-0.28384,-0.028351,-0.0033361,0.0013249,-0.002595,-0.0043039
0.0039627,0.0065584,0.052571,0.0029751,-0.01014,-0.0057671,0.0058419,-0.004539
0.005114,0.0056436,0.082009,0.010381,-0.0015329,0.0026282,0.0067444,-0.0046177
-0.0093167,-0.010746,0.054776,0.0094604,0.014638,0.010834,-0.0078739,0.0032457
0.0074207,0.012173,-0.044144,-0.023152,-0.00068705,0.0031762,0.00086268,-0.004414
-0.0072842,0.0041528,0.0047612,-0.0013432,0.007209,-0.0047626,0.0015372,0.0036329
0.0011751,-0.011355,-0.047753,-0.0029946,-0.0085005,-0.0051962,-0.0059688,-0.0038732
0.0093199,0.0046727,0.025497,0.011226,-0.00088006,-0.0059354,0.0017319,0.0043167
0.001531,-0.0025457,0.037414,0.0024926,-0.0011105,0.00087248,-0.0065869,0.0047661
-0.0065133,0.0059249,-0.0040221,0.0022134,-0.0013046,0.015311,0.0082261,-0.0025289
-0.014719,-0.0013032,0.041775,0.01043,-0.0013882,-0.0093727,0.0072422,-0.0097722
0.0082824,0.022527,-0.012862,0.0036253,-0.0012976,-0.0027163,-0.017202,-0.0013716
0.00011411,-0.039842,-0.1369,-0.026199,0.0068198,0.0041868,0.0053403,0.01481
0.0077506,0.0068957,0.013229,0.0066398,-0.0082818,-0.011962,0.004651,-0.00035064
-3.759e-06,-0.0012617,0.09361,0.0003067,0.015858,0.011431,0.0042051,-4.4841e-05
0.00028434,-0.009515,-0.06777,-0.0063836,-0.0067831,-0.011543,-0.003831,-0.0077626
0.00073945,0.029145,0.083601,0.017637,-0.0060115,0.012811,0.011726,-9.1905e-05
-0.0065581,0.0054657,0.039663,0.0019665,0.0024115,0.014045,-0.0039027,0.0073562
0.0095156,-0.010158,-0.074909,-0.014321,-0.0050795,-0.0080403,-0.011737,-0.0087977
0.0019704,-0.0098897,-0.026093,0.00013548,0.018297,-0.0067993,-0.0040168,-0.0093951
-0.013646,0.0062357,0.037373,-0.0013511,-0.0056203,-0.013701,-0.0041867,0.013494
-0.0061051,-0.0087449,-0.0018626,-0.0029228,-0.0064782,0.017963,0.0034142,0.0052979
0.0011927,-0.00026859,0.01249,0.0034686,-0.007596,-0.0056368,0.0032232,-0.010458
0.0083318,0.0080847,-0.067739,0.0023929,-0.00097549,-0.006357,0.010929,0.005328
-0.00020351,-0.007262,0.0079166,0.0095949,-0.0020174,0.00029339,0.0031389,-0.0020516
0.0069455,0.016077,0.044723,0.0094755,0.012937,0.0066914,0.003299,0.0063867
0.0064286,0.0077265,-0.011423,-0.013657,-0.0028127,-0.0025589,-0.012052,-0.00073096
-0.0095113,-0.016681,0.011819,-0.020876,-0.002308,0.0040199,-0.0038997,-0.00011053
-0.0017886,-0.0023626,0.0053288,0.018891,0.0066121,0.0031776,-0.011361,-0.0075105
