0.043781,0.001723,0.021286,-0.013381,0.014304,-0.0070163,0.0017535,0.0015905
-0.28169,-0.030868,-0.019654,-0.0058179,-0.017581,-0.02294,-0.013883,-0.036751
0.0091315,-0.014331,0.00088066,-0.013277,-0.017984,0.0079774,-0.014093,0.0032652
0.12704,0.098417,0.083244,0.011256,-0.010256,-0.00014945,0.0011669,0.011984
0.0017484,-0.059977,-0.084382,0.0053121,0.0056656,0.0074103,0.00072381,-0.0030005
0.078704,0.0021267,-0.063554,0.0078442,0.014184,0.015055,0.023732,0.0207
0.069022,0.041672,-0.064201,0.018586,0.015273,-0.00065809,-3.3102e-05,-0.0028382
-0.23807,-0.0049072,-0.10116,0.021516,0.001032,-0.008513,-0.015822,-0.05005
0.024767,-0.091837,0.013323,-0.054152,-0.013058,-0.016372,-0.0001733,0.0042687
0.045145,0.0064732,0.30996,-0.037004,-0.019367,-0.00084959,-0.0077908,0.004086
0.02629,0.078394,0.31866,0.041349,0.013162,0.014582,0.015958,0.027692
0.10111,0.061113,-0.0015476,0.094786,0.029678,0.022101,0.0084907,0.043894
-0.081875,-0.12337,-0.48859,-0.095395,-0.02462,-0.032959,-0.014659,-0.025505
-0.045983,0.048911,-0.21427,-0.0054683,-0.0091397,0.0057049,0.001113,-0.0088124
-0.025444,-0.10865,-0.054077,-0.048999,-0.017591,-0.010272,-0.0067515,-0.023452
0.034613,0.061274,0.23479,0.024638,0.012637,0.0051272,0.00079187,0.00066924
-0.014061,0.067613,0.19296,0.067641,0.027004,0.028536,0.015957,0.00091465
0.078691,-0.010558,-0.052504,-0.0053975,0.0022329,-0.010312,-0.0080631,0.0085164
-0.030812,-0.00072704,0.031671,-0.022286,-0.0068477,-0.0098468,-0.00085738,0.00014072
-0.03011,-0.082347,-0.053003,0.0092203,-0.015756,-0.016972,-0.0091883,-0.0083941
-0.0052964,0.072534,0.037967,-0.0048265,-0.00099108,0.015118,0.0061125,-0.0012349
0.059016,0.064975,-0.023606,-0.0023185,-0.001592,0.00038655,-0.0017525,0.014006
-0.024946,-0.035407,-0.035327,0.016251,0.013675,0.0090255,0.0063104,-0.0016143
-0.046498,-0.11996,-0.060829,-0.043361,-0.009928,-0.0059665,-0.00097488,-0.0012188
0.025419,0.021689,0.039262,0.021569,-0.0021631,0.0021736,-0.00025329,0.01508
0.0032015,0.053294,0.052887,-0.0079623,0.021255,0.0021221,0.0083499,0.00020641
-0.027236,0.068657,-0.052021,0.0085834,-0.0022592,0.0016773,-0.0065587,-0.014821
0.027887,-0.049011,-0.049347,-0.03811,-0.010266,-0.014726,0.0017646,-0.006764
0.012368,0.029104,0.10771,0.047431,-0.010593,-0.0078908,-0.013646,0.00083034
0.0043651,-0.078955,0.0053015,0.023224,0.012429,0.014561,0.0096793,0.00016671
-0.011745,-0.05203,-0.074901,-0.01678,-0.0035996,0.0059682,-0.006351,-0.00079573
-0.0047332,-0.061377,-0.0073884,-0.017724,-0.011667,-0.010034,0.00085007,-0.0018108
0.0097607,0.17443,0.083352,-0.010737,-0.011631,-0.002061,0.00014671,0.013036
-0.0073029,-0.016922,-0.013166,0.019887,0.035674,0.0064869,0.0072739,-0.018494
-0.0011448,0.1135,-0.062213,-0.019556,-0.010347,0.0077208,-0.0011304,0.0053272
-0.018467,0.040666,0.038018,0.0037676,-0.0013244,0.001455,-0.0094196,-0.0014185
0.019096,-0.22943,0.014234,0.019547,0.015704,-0.0047656,0.021432,0.023622
-0.01318,0.051548,-0.031959,-0.0034848,-0.014177,-0.011244,-0.010218,0.0020326
-0.021292,0.038684,0.00095067,-0.002856,0.010352,0.012989,0.0049125,0.011562
0.080872,-0.29965,-0.043445,-0.009853,-0.012475,-0.0025833,-0.0035595,-0.018477
-0.066011,0.34176,0.076754,0.014551,-0.0046432,-0.0033553,-0.012204,-0.01805
0.045773,-0.0045346,-0.0060733,-0.007802,-0.013013,-0.004888,0.002493,-0.0028906
-0.037143,0.069642,-0.011256,-0.014439,0.0094259,0.00083982,0.0016355,-0.011966
0.020828,-0.20694,0.021445,0.0024197,0.0082168,-0.0014727,0.0088937,0.0096873
-0.015099,0.03506,-0.17434,0.027101,0.0070671,0.012,-0.0067251,-4.4563e-05
-0.020338,0.00051533,0.29131,-0.010785,-0.0094001,-0.0052332,-0.0059359,0.013922
0.020376,-0.012691,-0.16805,-0.025418,-0.0097679,-0.021614,-0.019863,-0.0027976
0.0052185,-0.020171,0.048951,0.014298,0.0060103,0.0020886,0.013973,0.0046114
0.012183,0.016037,-0.049601,0.0066268,0.022222,0.0268,0.0094351,0.012638
0.01786,0.078163,0.15431,0.021718,-0.00039729,0.013256,0.059914,0.013218
-0.00099766,0.1477,-0.22852,0.012589,0.00038081,0.015779,0.032123,0.021627
-0.090915,0.096567,-0.016501,-0.059818,-0.030404,-0.044212,-0.14475,-0.07185
0.029827,-0.093489,0.152,0.0077743,0.0086055,-0.018742,-0.025817,-0.0096298
0.025818,-0.23649,-0.18168,0.06725,0.023579,0.037125,0.091771,0.012935
0.014746,-0.50431,0.42197,-0.044981,-0.016665,-0.017447,0.059506,0.011631
-0.01081,0.72186,-0.15282,-0.047117,-0.018162,0.028467,-0.083419,0.010225
0.027496,-0.32857,-0.39772,-0.048006,-0.027484,-0.067128,-0.047643,-0.022125
-0.0031194,0.12129,0.19457,0.062095,0.033819,0.039867,0.081304,0.024339
-0.0090561,-0.011275,0.20044,0.13484,0.04882,0.021767,-0.00082423,0.0092552
-0.045276,0.15105,-0.36738,-0.087843,-0.037043,-0.035048,-0.027997,-0.0048066
-0.018365,0.35144,0.32313,-0.044071,0.0027471,0.033842,0.031346,0.0054449
0.071343,-0.4808,-0.060696,-0.02377,-0.011702,-0.036978,-0.064797,-0.03846
-0.026425,0.035761,0.17185,0.089297,0.02086,0.025961,0.043007,0.01143
0.094404,0.0085725,0.2434,0.098997,0.029785,0.027203,0.050023,0.0452
-0.097475,-0.087648,-0.23135,-0.11234,-0.039878,-0.010091,-0.028224,-0.031399
-0.062932,-0.066777,-0.5263,-0.091586,-0.01637,-0.031571,-0.019965,-0.015604
0.065388,0.19545,-0.24911,-0.056951,-0.02462,-0.0063172,-0.042441,0.014311
-0.048252,-0.13709,0.26787,0.055037,0.01374,0.010727,0.029364,-0.004037
0.088493,0.13097,0.35747,0.089319,0.02093,0.0037906,0.023651,0.023487
0.053779,-0.062915,0.29006,0.015748,0.012926,0.0040871,-0.028243,-0.0040622
-0.14474,0.02294,-0.20392,-0.079006,-0.025654,-0.035212,-0.016915,-0.046855
0.0081773,-0.096976,-0.10647,0.039581,0.022436,0.010976,0.018473,-0.0025391
0.058861,0.22405,-0.073006,0.074143,0.024223,0.048974,0.085458,0.043609
0.053507,-0.00039148,0.31791,-0.0076051,-0.0050173,-0.0071187,-0.066406,-0.0095906
-0.10232,-0.02215,-0.10661,-0.03512,-0.018863,-0.0088621,-0.031438,-0.037165
0.02051,-0.092286,-0.51938,-0.080026,-0.0099461,-0.003132,0.010085,-0.055236
0.085747,-0.20269,0.64178,0.12234,0.0057911,-0.0055044,0.010809,0.1462
-0.078415,0.38308,-0.91173,-0.1159,-0.010819,0.038857,0.15018,0.1362
0.075417,-0.10455,0.44616,-0.028777,-0.012763,-0.072902,-0.095147,-0.17249
-0.092424,-0.082113,0.37291,0.033094,0.0003136,-0.0044657,-0.17001,0.062782
-0.072819,-0.39511,-0.14641,-0.077341,-0.010171,-0.036676,-0.018928,-0.26019
0.034129,0.1809,0.21612,0.18828,0.050026,0.080804,0.10126,0.12423
0.0032183,-0.03744,-0.40027,-0.043771,-0.021833,0.012189,0.082119,0.083878
0.054196,0.28724,0.213,0.00075482,0.0088204,-0.016074,-0.028798,-0.12228
0.15625,0.34055,-0.071958,0.017397,0.032581,0.03468,0.042213,0.12432
0.07479,-0.10931,0.35923,0.029263,-0.0054655,0.093521,0.20901,-0.1282
-0.33939,0.00016313,-0.5971,-0.11282,-0.043164,-0.20745,-0.45087,0.16018
0.045348,-0.3322,0.06585,-0.011349,-0.0027531,0.021723,0.10857,0.013348
-0.01453,0.080472,-0.11259,0.035877,-0.0017052,0.0071394,-0.035476,0.056349
0.089045,-0.025901,0.55638,0.051537,-0.0089187,0.014216,0.084861,0.023343
0.019011,-0.41201,-0.49565,-0.05864,0.030298,0.11335,0.20325,-0.27339
0.024524,0.32937,0.18635,-0.052762,-0.016738,-0.062303,-0.024483,0.025507
0.0034993,-0.047122,-0.021203,-0.0012781,-0.0013958,-0.004389,-0.18437,-0.025002
-0.13798,0.5518,0.14007,0.0019942,-0.0094163,-0.079427,-0.11202,-0.13537
0.10809,-0.39634,0.14644,0.27731,0.060909,0.049228,0.044809,0.43705
0.0078372,-0.18753,0.20799,0.0043049,0.022151,0.054107,0.12305,-0.026306
-0.0082537,-0.07244,-0.30915,-0.24669,-0.055379,0.013843,0.076925,-0.10385
-0.13453,0.094011,-0.66351,-0.092672,-0.054542,-0.11816,-0.18633,-0.15581
0.12222,0.15653,-0.035009,-0.04887,-0.014468,0.0096128,0.099601,-0.066286
0.098897,0.42486,0.60008,0.19001,0.072579,0.076493,0.052206,0.38979
-0.22713,-0.43509,-0.21877,-0.015985,-0.020044,-0.0276,-0.055233,0.078185
0.14467,0.26379,0.69609,0.13062,0.066943,0.016694,-0.074807,-0.4631
0.12082,-0.22952,0.023999,-0.088562,-0.025943,0.044248,0.063031,0.046703
-0.2831,-0.079205,-0.81405,-0.10318,-0.072238,-0.024036,0.099645,-0.22045
0.34673,0.11546,0.24339,0.11776,0.076427,0.045563,-0.020351,0.40786
-0.40422,-0.51495,-0.1092,-0.12938,-0.087772,-0.10646,-0.14114,0.12766
0.21344,0.72617,0.26076,0.21728,0.09147,0.028199,0.026238,-0.052662
-0.051072,-0.78967,-0.23997,-0.2257,-0.088875,-0.072777,-0.10395,-0.39075
-0.050263,0.57662,-0.086798,0.033312,0.019736,0.0062142,0.10146,0.08186
0.0038196,-0.27749,0.010822,0.02519,0.034558,-0.01442,0.056865,0.1379
0.20373,0.33375,0.25746,-0.031519,0.0024635,0.054213,0.082685,0.72966
0.017131,0.16449,0.24794,0.13663,0.032762,0.05665,-0.11034,-0.53418
0.091716,-0.072536,-0.1421,0.12361,0.055046,0.14129,0.14136,-0.56001
-0.31476,-0.37783,0.087602,-0.26543,-0.14167,-0.10681,-0.17844,0.027786
-0.045199,0.39484,-0.17996,0.0014814,0.020818,-0.032911,0.023459,-0.01166
0.081903,-0.17934,-0.4366,0.073717,0.027105,-0.029474,0.19217,0.64376
-0.11056,-0.18903,-0.13481,-0.10238,-0.052118,-0.10604,-0.30488,0.027156
0.12246,0.074937,0.55421,-0.010228,0.01796,0.087677,0.017407,-0.14123
0.041347,-0.11438,0.1152,0.16328,0.034592,0.02762,0.03507,-0.29015
-0.063257,-0.20914,-0.31164,-0.034894,0.0214,0.010784,0.085173,0.088525
-0.011513,0.40973,0.13939,-0.081898,-0.037344,-0.05582,0.035809,0.12746
0.47634,0.56483,0.23145,0.23199,0.10012,0.047751,0.082725,0.091789
-0.60264,-0.59339,-0.05405,-0.25897,-0.12939,-0.083401,-0.12579,-0.73006
0.48978,0.34265,0.39738,0.1856,0.077974,0.098825,0.081421,0.56743
-0.39121,-0.84551,-0.50178,-0.0061876,-0.012988,-0.014089,-0.077957,0.11633
-0.077406,-0.11193,-0.78259,-0.24939,-0.051345,-0.015556,-0.050439,-0.013755
0.21781,0.674,0.37738,0.13548,0.032896,0.039517,0.045732,0.27036
-0.045429,0.37606,0.036424,-0.093109,-0.049266,-0.029241,-0.07922,-0.53934
-0.0067375,-0.25222,0.33148,0.097485,0.038536,0.058459,0.13694,-0.020694
0.047459,0.33931,0.30509,0.076276,0.015765,-0.026494,-0.0087384,0.13973
-0.19931,-0.72051,-0.040938,-0.053253,-0.015147,-0.073934,-0.10161,-0.0019581
-0.062941,-0.26234,-0.44143,-0.078497,-0.014257,-0.021734,0.062286,0.14184
0.55464,0.8618,0.24936,0.12669,0.066066,-0.0026152,0.022962,-0.28685
-0.39769,-0.72133,-0.19167,0.0081107,-0.023638,0.030802,-0.038958,0.25164
0.26205,-0.039342,0.26166,-0.020379,0.0059695,0.040215,0.049195,-0.18859
-0.45757,0.34215,-0.41878,-0.19394,-0.095104,-0.036063,-0.087011,-0.11743
0.051976,0.35754,0.6153,0.12684,0.040103,0.052646,0.037094,0.43039
0.52283,-0.43479,-0.55906,0.1437,0.098676,0.048947,0.077774,0.27068
-0.24355,0.26396,0.16119,-0.097861,-0.076173,-0.031405,-0.027704,-0.29661
-0.094588,-0.43702,-0.0090645,-0.036492,-0.0084772,-0.040069,-0.061016,-0.29896
0.15375,0.13202,-0.032798,-0.094818,-0.019139,-0.039761,0.0085442,0.11279
-0.32927,0.5536,-0.28619,-0.038735,-0.038361,-0.061948,-0.10868,-0.3583
0.40819,0.13649,0.73699,0.40542,0.23035,0.15104,0.21955,0.34497
-0.38359,-0.74733,-0.95087,-0.25384,-0.14287,-0.080528,-0.085427,-0.04603
0.14872,-0.036552,0.72252,0.0001235,-0.025182,0.024618,0.069734,0.55322
-0.10927,0.30901,-0.064264,-0.097065,-0.056939,-0.04131,-0.096485,-0.62375
0.12698,-0.41807,-0.0027417,-0.05197,-0.011113,0.073214,-0.021668,-0.031428
0.14163,0.45925,0.50256,0.22239,0.11286,0.086802,0.059916,-0.18839
-0.13375,-0.32684,-0.28174,-0.046793,-0.020403,-0.17267,-0.093667,0.35317
-0.33172,-0.53738,-0.43974,-0.070428,-0.012081,0.021005,0.056961,0.27258
0.24144,0.82974,-0.3268,-0.013193,-0.010463,-0.012261,0.012068,0.137
0.54332,0.71078,0.42339,0.14715,0.015562,0.016166,0.0061532,-0.074583
-0.30561,-0.47706,-0.37465,0.01056,0.034353,0.090253,0.054761,-0.52509
-0.06802,-0.3583,0.072219,-0.14339,-0.048394,-0.0090908,-0.014255,-0.18218
0.080075,0.5196,0.62035,0.16822,0.055799,-0.00083744,0.0096611,0.33907
-0.37158,-0.81971,-0.48399,-0.35241,-0.10668,-0.10379,-0.10042,0.54263
-0.10275,0.24373,0.49584,0.12261,0.0029421,-0.005277,-0.0088015,-0.86996
0.55307,0.075766,0.28636,0.25782,0.11902,0.076301,0.089214,0.054992
-0.50112,-0.75065,-0.59894,-0.33635,-0.12542,-0.085099,-0.103,0.48395
0.11546,0.81733,0.30528,0.26341,0.09036,0.10485,0.086911,-0.14197
0.11187,0.16276,-0.47331,-0.035157,-0.037805,-0.025192,-0.004525,0.22825
-0.014833,-0.30742,-0.16414,-0.090084,-0.017207,0.0095784,0.0061351,-0.041949
0.33985,0.60175,-0.27657,0.13085,0.074457,0.021923,0.049134,-0.42561
0.10615,-0.43263,1.0173,-0.074973,-0.028182,-0.050555,-0.086057,-0.1545
-0.66306,-0.38472,-0.67248,-0.24664,-0.098515,-0.043818,-0.01641,0.44471
0.16132,0.64334,0.37378,0.24031,0.066412,0.03421,-0.030998,0.044135
0.23078,-0.64082,0.078683,0.033357,0.028739,0.034923,0.041805,-0.068175
-0.11586,0.46825,0.29411,0.076581,0.030171,-0.026249,0.076527,0.11362
-0.1407,-0.79426,-0.46426,-0.10789,-0.039177,0.022359,0.017831,-0.34273
0.22366,0.92338,-0.14926,0.017889,0.0077657,-0.01478,-0.049073,0.37272
-0.094266,0.043475,0.076039,-0.023281,-0.024547,-0.0050556,-0.038924,-0.038956
-3.1584e-05,-0.10413,0.14339,-0.028273,0.01235,0.03573,0.079043,-0.024151
0.016582,-0.3435,-0.014379,-0.035444,-0.045301,-0.056619,-0.15629,-0.73904
-0.072013,0.55134,-0.2685,0.011174,0.021775,0.014682,0.083342,0.54402
-0.089659,-0.49464,-0.24035,-0.10559,-0.043618,0.023029,0.017135,0.25641
0.10061,-0.35771,0.18976,0.13918,0.071577,-0.031592,-0.073065,-0.27994
0.07238,-0.12251,0.35833,0.066796,0.023956,0.030501,0.086786,0.24845
-0.10219,0.11953,0.044687,-0.033417,-0.014568,-0.032894,-0.0028606,-0.38517
0.10823,0.6667,0.56499,0.056696,-0.013027,0.0047536,-0.029306,0.1615
0.47549,0.002047,-0.14102,0.10928,0.082733,0.096529,0.148,0.35466
-0.6127,0.23742,-0.48516,-0.22109,-0.10293,-0.085714,-0.15873,0.074006
0.12136,-0.16819,-0.65122,0.0405,0.023146,0.043992,0.065751,-0.26143
-0.13837,-0.70501,0.12491,-0.13841,-0.062866,-0.10017,-0.10074,-0.31751
-0.15253,0.22783,-0.1318,-0.06306,-0.048579,0.0054611,-0.033335,-0.11779
0.28803,0.5193,0.79368,0.18866,0.097421,0.056493,0.088354,0.3943
0.10464,-0.6519,0.071045,0.18013,0.078635,0.045454,0.045872,-0.20733
-0.124,0.62172,-0.16098,-0.12637,-0.026319,-0.0038958,0.0037129,0.19148
0.22077,-0.093007,-0.014591,-0.05744,-0.045049,-0.060044,-0.061078,0.072341
-0.25736,-0.47573,-0.46307,-0.04906,-0.0083388,0.017804,0.016012,-0.35719
-0.095019,-0.30451,0.76047,-0.014027,-0.040816,-0.020287,-0.014668,0.42937
-0.063268,0.035468,-0.2978,0.064151,0.029647,-0.0024827,0.0033308,-0.21525
0.38674,0.45683,-0.022986,0.12332,0.078155,0.055449,0.038781,0.090933
-0.18908,0.60613,-0.35598,-0.14927,-0.075032,-0.018606,-0.017862,-0.021837
-0.071728,-0.012132,-0.043039,-0.043481,-0.031696,-0.021836,-0.041957,0.16921
0.15987,-0.38758,0.17707,0.12691,0.059349,-0.0014797,0.020663,-0.27773
-0.18354,0.1134,0.25299,-0.03031,-0.0055261,0.010835,-0.010333,-0.085462
0.30185,-0.48613,0.11783,0.08474,0.062166,0.046004,0.11435,0.14124
-0.17569,-0.66374,-0.084018,-0.18574,-0.097532,-0.075955,-0.082553,0.025385
-0.024829,0.83721,-0.1605,-0.030464,-0.024191,-0.0036939,-0.070384,-0.074353
0.010537,0.015491,-0.1371,0.16706,0.055262,0.020485,0.041049,0.10028
-0.12495,0.3697,0.29837,0.00046115,0.0078493,0.03563,0.040609,-0.22294
0.077001,-0.17214,-0.25087,-0.037578,0.028943,0.018389,-0.0091447,0.12156
-0.0071049,0.15381,0.28914,-0.039787,-0.037418,-0.038871,0.0014748,0.14303
-0.10162,-0.52906,-0.60755,-0.05943,-0.034495,-0.018695,-0.028558,0.28778
0.28812,0.44234,0.59657,0.12387,0.046161,0.001139,0.010837,-0.50622
-0.12469,-0.58813,-0.27973,-0.10546,-0.06038,0.021023,0.003269,0.018822
0.013214,0.23238,-0.059313,0.074217,0.037162,-0.028962,-0.019218,0.026677
-0.03948,0.19521,-0.059251,0.007548,0.034601,0.03121,0.053449,0.26699
0.10788,0.021818,0.33042,0.022936,-0.028741,-0.024805,-0.059473,-0.13541
-0.13918,0.050457,0.17775,-0.044025,0.011165,0.021803,0.0094566,-0.086589
-0.11009,-0.88968,-0.22511,-0.069241,-0.025693,-0.0009591,0.0023882,-0.023472
0.068551,0.59111,-0.08752,0.039738,0.01638,0.016015,0.020572,-0.13259
0.2467,0.41924,0.41225,0.14864,0.050773,0.017675,0.063484,0.39976
0.016729,0.22206,-0.26212,-0.040789,-0.009109,-0.035408,-0.010137,-0.14391
-0.18473,-0.20267,-0.17569,-0.021722,-0.030952,-0.0028996,-0.060282,-0.0047541
-0.18602,-0.033827,-0.085627,-0.15399,-0.069672,-0.041193,-0.079622,-0.22896
0.12273,-0.44106,-0.39448,-0.007708,0.031067,0.029423,0.033124,0.14454
0.062953,0.065128,0.11454,0.042873,0.0060175,-0.0096406,0.01226,-0.064397
-0.012309,-0.15477,0.19787,0.014499,0.0041782,0.013728,0.045372,0.15882
0.14848,0.37295,0.439,0.15837,0.057405,0.037252,0.077928,0.2112
-0.21906,-0.46864,-0.088951,-0.10267,-0.044742,-0.017053,-0.093046,-0.22131
-0.051778,0.12703,0.27772,-0.0024196,0.0027015,-0.0085488,-0.014332,0.039638
0.25177,0.31017,0.090417,0.076375,0.051299,0.015779,0.0641,-0.2489
-0.19991,0.033755,-0.22621,-0.10885,-0.071088,-0.04583,-0.10777,0.0068
0.25571,-0.1117,-0.55236,0.0037174,0.025709,0.048585,0.055976,0.0027949
0.0073791,0.77316,0.092577,0.085194,0.052088,-0.005848,0.070944,0.068444
-0.23581,-0.68131,0.09016,-0.06823,-0.078392,-0.037347,-0.1019,0.23638
-0.10811,-0.37065,-0.33159,-0.050752,-0.006728,0.0088003,0.021887,-0.070403
0.19436,0.2772,0.16676,0.043718,0.016909,-8.0519e-05,0.036152,0.29715
-0.20337,-0.048395,-0.074646,-0.081596,-0.015258,-0.0169,-0.05899,-0.64537
0.1838,0.1868,0.49445,0.12046,0.03761,0.060144,0.072509,0.062319
0.12274,-0.26263,0.46905,0.11895,0.043031,-0.003118,-0.0067641,-0.073114
-0.27564,-0.33581,-0.75392,-0.27332,-0.084554,-0.065925,-0.093626,0.47817
0.27147,0.40438,0.57157,0.23291,0.053663,0.074896,0.11664,0.066283
0.007702,0.341,-0.45842,-0.10446,-0.02638,-0.033813,-0.040007,-0.067738
-0.17507,-0.09592,-0.060253,-0.035364,-0.00413,-0.0093291,-0.032304,-0.24472
0.021064,-0.015649,0.18408,0.073098,0.02681,0.015424,0.046033,-0.13612
-0.035899,-0.012092,-0.078058,-0.028942,-0.011631,-0.029977,-0.054945,0.19705
-0.017312,-0.093218,-0.33664,-0.05221,-0.041369,0.0028094,0.05545,-0.21937
-0.0011679,-0.38383,-0.17241,-0.019895,0.015589,0.019951,-0.068046,0.047184
0.019966,0.45285,0.41389,0.10728,0.057465,0.021369,0.090194,0.10884
0.12323,-0.40973,0.070275,-0.076862,-0.033213,-0.039903,-0.094913,0.19414
0.12735,0.30401,-0.14256,0.091632,0.040105,0.039157,0.056135,-0.03999
-0.25096,-0.20824,0.43487,-0.090737,-0.097912,-0.030632,-0.019459,0.02286
0.01734,0.35268,-0.18986,0.055127,0.044627,0.0084315,0.060736,-0.10384
0.14894,0.082396,0.09682,0.020672,0.014368,0.015635,-0.024002,0.014299
-0.13893,0.091701,0.18724,-0.030799,0.014297,-0.024688,-0.0084102,-0.18088
-0.050178,-0.3684,-0.48826,-0.037424,-0.018129,-0.0031511,-0.048971,0.08081
-0.061245,-0.10963,-0.20193,-0.030839,-0.02816,-0.013428,-0.036352,-0.031312
0.12567,-0.076716,0.13525,0.051407,0.015603,0.030547,0.084309,0.074996
0.058992,-0.042795,0.31039,0.10807,0.043082,0.027385,0.0087023,0.18846
0.060934,0.21838,-0.47238,-0.11799,-0.0079228,-0.014894,0.0029873,-0.12761
0.008443,0.22112,0.48577,-0.016517,-0.02769,-0.010119,-0.0025253,0.27704
-0.17488,-0.35754,-0.40379,-0.0083718,-0.0080394,-0.020541,-0.038452,-0.78261
-0.14401,0.51751,0.30977,-0.014498,-0.0033064,-0.014665,-0.033918,0.25867
-0.093615,-0.23675,-0.09534,-0.010778,-0.052266,-0.015718,-0.0041488,0.059567
0.64812,0.069933,0.016817,0.18276,0.11869,0.070182,0.082272,0.17637
-0.27115,-0.19168,-0.040332,-0.10592,-0.045111,-0.022576,-0.032593,0.21879
-0.087121,-0.18028,0.2007,-0.0024007,-0.012586,0.018382,0.033654,0.076439
0.12054,0.51829,0.29943,0.054975,0.028454,-0.010319,0.006926,-0.43251
-0.024567,-0.40556,-0.21678,0.01065,0.015105,0.0081736,-0.011975,0.056417
-0.24986,-0.17302,-0.54709,-0.12823,-0.045227,-0.020241,-0.015957,-0.15467
-0.00078308,-0.073964,-0.17883,-0.057283,-0.020045,-0.025551,-0.052427,0.29969
0.090488,0.15674,0.26138,0.028341,-0.0032613,-0.023578,0.0033854,-0.026182
0.15013,0.29872,0.46866,0.17605,0.067651,0.079354,0.057832,0.11895
-0.086129,0.1839,-0.071701,-0.08212,-0.03367,-0.0057756,-0.044941,-0.37149
0.015686,-0.046464,-0.076924,-0.03446,-0.025654,-0.036653,0.01596,-0.071677
-0.020384,-0.45756,-0.33442,-0.016311,0.0061176,0.01033,0.014599,0.23377
0.06334,0.062371,0.12595,0.0585,0.022889,-0.0052852,0.0061912,-0.19324
-0.10121,0.57652,0.40672,-0.0055426,-0.022045,-0.013054,-0.016755,0.46268
0.06264,-0.50844,-0.4291,-0.021563,0.01973,0.026153,0.008314,-0.18804
0.13128,0.28561,0.57181,0.11106,0.046425,0.026392,0.042127,-0.013767
-0.13908,-0.15472,-0.39513,-0.077488,-0.043927,-0.028031,-0.025103,-0.14274
-0.007344,-0.46328,-0.40781,-0.096026,-0.017454,-0.01222,-0.053271,0.20145
-0.012852,0.19775,0.21388,0.070336,0.015962,0.026847,0.058665,0.099093
-0.061204,0.16069,-0.15454,-0.055312,-0.014407,-0.035896,-0.072529,-0.35377
-0.11183,-0.12376,0.48733,0.027105,-0.022872,-0.0051495,0.0060065,0.25246
0.1811,-0.095687,0.061325,0.0446,0.053032,0.017564,0.1145,-0.24118
0.1089,0.5457,-0.21436,-0.017727,-0.028699,-0.0067439,-0.11415,-0.061828
-0.01396,0.15389,0.26861,0.075364,0.036993,0.047007,0.078098,0.20615
-0.076781,-0.41968,-0.44413,-0.097115,-0.038448,-0.055502,-0.050625,-0.0041611
-0.016622,0.38597,0.20105,0.051583,0.0033639,0.03731,0.023496,0.18688
-0.099641,-0.47014,-0.21832,-0.071627,-0.016699,-0.018327,-0.027278,-0.50462
0.032093,0.010828,0.13367,0.033713,0.02683,0.01192,0.039589,0.59821
0.032672,-0.069171,-0.24251,-0.061867,-0.022,-0.028241,-0.049069,-0.32857
0.2511,-0.12984,0.34908,0.10252,0.024404,0.0096061,-0.011844,-0.0086245
-0.065176,0.019847,-0.059896,0.026554,0.025285,0.016102,0.049721,0.0046501
-0.1917,0.055597,-0.086648,-0.048094,-0.011866,-0.00088138,0.065193,0.077996
-0.012517,-0.027537,0.28389,0.0029268,-0.024992,-0.010001,-0.090664,-0.11103
0.042606,0.28679,0.089947,-0.016341,0.0088691,-0.01114,0.0037274,0.1215
-0.12677,0.35583,0.010496,-0.004859,-0.020072,0.0036337,0.012136,0.0053511
0.15338,-0.13775,-0.6342,-0.0098084,0.012906,0.010982,-0.026607,0.074519
-0.051699,0.21342,0.14899,0.054693,0.021753,0.026594,0.059256,-0.27743
0.0029929,-0.56653,-0.15356,-0.10025,-0.055974,-0.035453,-0.074017,0.10176
0.069785,0.079006,0.40616,0.033505,0.022093,0.0045011,0.042448,0.26428
0.0016477,-0.57996,-0.083159,0.034412,0.029632,0.005763,0.018237,0.108
-0.10742,0.21405,-0.049227,-0.0035314,-0.0018725,0.0073035,-0.0057731,-0.48277
0.18702,0.03381,0.11011,0.036921,-0.0019414,-0.022233,-0.037153,-0.15304
-0.085553,0.38366,-0.10632,-0.047517,-0.017385,-0.004834,0.0024067,-0.077673
0.16642,0.40909,0.25179,0.070935,0.02207,0.020322,0.027063,0.20962
