0.077612,0.026838,0.026006,0.0029098,0.010154,-0.0037953,0.01179,0.1348
-0.056229,-0.002179,-0.024823,-0.018587,-0.013337,0.018138,0.14281,0.038147
-0.0019669,-0.015335,-0.0055334,-0.0089495,0.0021609,-0.022085,-0.17213,-0.18151
0.090785,0.018192,0.0052244,0.015991,-0.00581,-0.022547,0.059238,0.26688
0.017675,0.0042032,-0.032084,-0.014261,-0.0059718,0.01703,0.0010432,0.09037
0.082343,-0.034249,0.093144,0.064215,0.017307,-0.020416,-0.034137,-0.23716
-0.16894,0.043229,-0.080162,-0.037729,0.017137,0.052526,0.25847,0.23496
-0.017346,-0.013373,0.01061,-0.007608,-0.0065124,0.001159,-0.4101,-0.14469
0.061379,0.0071099,0.022057,-0.0015984,-0.0067919,-0.0031551,0.21815,0.32286
-0.12655,-0.035502,-0.045278,-0.035164,-0.030582,0.015528,-0.12218,-0.34465
-0.063573,-0.093762,-0.026685,0.0091146,-0.015356,-0.084005,-0.07922,-0.045112
0.095997,0.09071,0.078477,0.045573,0.062387,0.12751,0.44894,0.19707
0.25206,0.065211,-0.018328,-0.0036442,-0.00039496,-0.045389,0.15022,0.035896
-0.21199,-0.037294,0.026966,0.0023139,-0.023929,-0.12596,-0.80304,-0.60223
0.19555,0.056462,0.011309,-0.006705,-0.0081509,0.02688,0.26154,0.91928
-0.30028,-0.036791,-0.049834,-0.022806,-0.015538,0.0075271,-0.14778,-0.9197
0.18105,-0.12237,-0.016171,-0.014731,0.0085642,0.074446,0.24271,0.82929
0.035399,0.18192,0.01031,0.017455,0.040621,0.079704,0.45635,-0.29135
0.041713,-0.038432,0.021363,0.0033134,-0.021083,-0.062396,-0.54651,-0.30887
0.034384,-0.049192,0.016611,0.044226,0.018585,-0.0081422,0.30341,0.53181
-0.48701,-0.084487,-0.027658,-0.024089,-0.020234,-0.023427,-0.30773,-0.17663
0.25962,-0.049988,-0.033477,-0.029988,-0.012651,-0.053935,-0.029778,0.035393
-0.067621,0.18009,0.030357,0.0028755,0.01007,0.040606,0.089084,-0.50886
0.19787,-0.010638,0.054506,0.019644,0.0011608,0.017776,0.094729,0.2736
0.10557,0.0034585,-0.093757,-0.034478,-0.031353,-0.020921,-0.13847,-0.17344
-0.23298,-0.0038634,0.077856,0.043597,0.030001,0.041818,0.194,0.67257
0.042858,-0.04827,-0.024315,0.0039011,0.013643,-0.0046945,0.13147,-0.11924
0.089571,0.0026817,-0.048638,-0.036288,-0.033312,-0.058588,-0.30181,-0.4888
-0.070202,0.054647,0.075245,0.032547,0.045515,0.036669,0.20019,-0.1203
0.061969,-0.049314,-0.051066,-0.039416,-0.046764,-0.054696,-0.33731,0.11195
0.14819,-0.09892,0.064666,0.044902,0.056874,0.096972,0.23617,0.30728
-0.37593,0.12407,-0.069665,-0.050234,-0.050103,-0.094529,-0.25713,-0.086189
0.13659,0.056851,0.022632,0.034741,0.014762,0.12031,0.043549,0.54163
0.052182,-0.05063,-0.03327,-0.0047159,-0.006703,-0.040397,0.20894,-0.67673
-0.0041523,0.036176,0.059701,0.034609,0.041452,0.055485,0.47267,0.52458
-0.14116,-0.198,-0.049839,-0.058205,-0.059714,-0.18635,-0.74525,-0.31308
0.10306,0.11445,0.036662,0.02147,0.033501,0.13224,0.76353,-0.45758
0.034138,-0.01829,-0.040173,-0.023381,-0.030372,-0.066856,-0.6521,0.24119
-0.25354,-0.010116,0.024197,0.010152,-0.0089389,-0.025448,-0.10361,0.2183
0.51362,0.12319,0.057601,0.051475,0.074634,0.16335,0.62686,-0.47135
-0.11,-0.025113,-0.065382,-0.040365,-0.076254,-0.1872,-0.85868,-0.17818
-0.070148,0.013003,-0.01711,-8.1571e-05,0.038621,0.095584,0.30087,0.80114
0.047064,0.02584,0.030074,0.00015349,-0.0024788,0.0045157,0.014201,-0.30156
-0.12502,-0.12775,0.0054975,0.007014,0.0036188,0.0087671,0.29164,0.69493
-0.31145,-0.025943,-0.012883,0.0048254,0.010017,0.0069329,0.14295,-0.33688
0.22461,0.097463,0.076584,0.024977,0.016668,0.030181,0.037792,-0.15269
-0.037226,-0.084469,-0.092914,-0.057191,-0.046765,-0.12487,-0.60994,-0.13498
0.15594,0.039267,-0.012916,0.0010198,-0.0083704,0.041425,0.31588,-0.095965
-0.037689,-0.12331,0.020547,0.0049163,-0.01648,-0.02598,-0.20189,-0.12766
-0.031908,0.17931,-0.022861,0.001997,0.022801,0.047583,0.31182,0.16466
-0.078653,-0.0050414,-0.025134,-0.0072266,0.0080459,0.11342,0.22325,-0.79821
0.23195,0.04247,0.13928,0.063475,0.033062,-0.09425,-0.4287,1.2113
0.26103,-0.038346,-0.06072,-0.035895,-0.019402,-0.059868,-0.10416,0.18763
-0.34227,-0.038176,0.0073797,0.022488,0.045767,0.068175,0.38594,-0.6481
-0.3506,-0.099814,-0.071217,-0.058805,-0.092054,-0.16313,-0.96434,-0.16918
0.33185,0.18846,0.08526,0.063265,0.05896,0.24636,1.0028,-0.086019
-0.14987,-0.14422,-0.063433,-0.057353,-0.071857,-0.20328,-0.53224,0.92099
0.46956,0.18968,0.10659,0.086522,0.10897,0.19883,0.60134,-0.17319
-0.10359,-0.10742,-0.053971,-0.068031,-0.070608,-0.10223,0.17448,-0.5813
-0.34734,-0.22273,-0.15494,-0.075838,-0.055928,-0.083415,-0.48072,0.16425
-0.20602,0.20435,0.11621,0.07887,0.0906,0.16099,-0.01699,-0.42845
-0.19311,-0.035199,0.017761,0.0058533,0.0019888,-0.080499,0.014995,0.79127
0.32589,0.0062353,0.011512,0.010335,0.014459,-0.027113,-0.09026,0.054239
0.23334,0.088713,0.036026,0.03821,-0.012271,0.024012,-0.12998,-0.64924
0.30645,-0.067211,-0.079465,-0.05843,-0.03876,0.15103,0.35854,-0.24992
-0.12709,-0.12454,-0.052729,-0.044808,-0.06463,-0.24723,-0.44927,0.45394
0.18594,0.20593,0.11694,0.063675,0.066701,0.079939,0.36517,0.013973
-0.44965,-0.053131,-0.038872,-0.0063912,0.01952,-0.046175,-0.1311,-0.10692
-0.37124,-0.012611,0.0031755,-0.012983,-0.010802,0.00048554,-0.15317,0.10531
0.59962,0.036479,0.023832,0.035767,0.04591,0.15839,0.63702,0.66898
-0.41148,-0.0094243,-0.0089809,-0.0011772,-0.0059778,-0.040515,-0.22116,-0.42383
0.013116,-0.11291,-0.057216,-0.046118,-0.049721,-0.0099678,-0.17425,0.29424
0.5759,0.10004,0.057781,0.025584,0.015767,-0.10945,0.017678,-0.46678
-0.079572,-0.073839,-0.016434,-0.028489,-0.028669,0.059007,-0.038427,-0.8696
-0.64267,-0.047901,0.032059,0.025971,0.019834,0.02589,0.17896,0.48122
0.17569,0.093291,-0.054732,-0.029691,-0.010678,-0.045634,-0.51073,0.22723
-0.045886,0.0077127,0.04375,0.046937,0.036141,0.031033,0.17398,0.27913
-0.05027,-0.021691,-0.070308,-0.0094787,-0.011358,0.2395,0.26535,0.42526
0.40138,0.0063773,0.010219,-0.011143,-0.027893,-0.41298,-0.50098,-0.41967
0.028538,0.0065944,0.036274,-0.0046923,0.010234,0.13585,0.46949,-0.41112
-0.11745,0.010003,-0.046026,-0.021249,-0.013999,-0.10621,0.067139,0.0053229
0.058068,-0.046902,0.013808,-0.0061292,-0.0068199,0.009448,-0.27976,-0.16488
0.29596,0.10771,0.13771,0.071775,0.086332,0.36591,0.77026,0.53397
0.078931,0.01883,-0.057481,-0.0065272,0.0074058,0.025943,-0.066478,0.16356
-0.54608,-0.09654,-0.033386,-0.022567,-0.064178,-0.36952,-0.79934,-0.061574
-0.32561,-0.013051,0.013906,0.0078,-0.0036084,0.023652,-0.22507,0.10143
0.099717,0.018936,-0.056894,-0.024904,-0.0062164,0.049715,0.3383,-0.37216
-0.1877,-0.03119,0.01949,-0.0034078,-0.01711,0.060911,-0.026938,-0.13282
0.51491,0.010016,-0.0068699,-0.013378,0.010993,-0.0044914,0.028128,-0.4165
-0.056964,-0.066157,-0.033937,-0.030974,-0.038571,-0.13797,-0.0072908,0.16748
0.19878,-0.022887,-0.037522,0.0067347,0.014396,0.043758,-0.10665,1.3872
-0.16489,0.11073,0.1082,0.084459,0.092129,0.11105,0.54285,-0.61141
0.050113,0.01579,0.0054483,0.0070325,-0.00057553,0.071284,0.14923,-0.22563
0.19459,0.067632,0.02177,-0.0068849,-0.021695,-0.045212,-0.26982,-0.52126
-0.0085895,0.023284,0.00085269,0.0033515,0.0049468,0.041616,-0.11241,0.2673
-0.025806,-0.017431,-0.018666,-0.04079,-0.030523,-0.083528,0.035688,-0.20121
-0.22995,-0.11151,-0.037455,-0.030339,-0.042641,-0.14819,-0.33953,0.66278
-0.28191,0.019921,-0.0093776,-0.0046594,-0.0083223,0.026774,0.10226,-0.74699
-0.059405,-0.1408,-0.04445,0.0048559,0.025381,0.1054,-0.04527,0.52345
0.14796,0.092523,0.06002,0.0060268,-0.019676,-0.13064,-0.20075,-0.2945
0.083581,0.07878,-0.00082707,0.05365,0.1144,0.28808,0.71191,0.51801
-0.00034522,-0.095756,-0.031607,-0.039632,-0.095727,-0.2158,-0.40957,-0.34067
0.62504,0.13239,0.10075,0.077862,0.084409,0.19433,0.21542,0.15177
-0.226,-0.040096,-0.056502,-0.054732,-0.048281,-0.09819,-0.032161,0.24933
-0.091557,0.013334,-0.034195,-0.038943,-0.056283,-0.1399,-0.49993,-0.43526
-0.40885,-0.080831,0.0040287,0.00025715,0.021357,0.046,0.56354,0.087231
0.095542,0.084929,0.05854,0.047293,0.051877,0.10025,0.04775,-0.67486
0.1091,-0.1291,-0.050058,-0.038369,-0.058376,-0.13333,-0.32403,1.1119
-0.28202,0.066622,0.022165,0.024642,0.042296,0.15771,0.31844,-0.049711
0.37572,0.04705,-0.029443,-0.013551,-0.0053285,-0.097105,-0.34272,-0.62857
0.059276,0.038195,0.044979,0.03463,0.025442,0.11755,0.39833,-0.53536
0.057822,-0.13284,-0.10648,-0.088638,-0.11532,-0.1988,-0.61869,0.20356
-0.50403,0.016934,0.046887,0.046188,0.056728,0.062642,0.18182,0.33441
0.31802,0.06408,0.035564,0.024759,0.04927,0.065264,-0.10719,0.77991
0.25677,0.069573,0.06181,0.010723,-0.005132,-0.004087,0.53851,0.19233
-0.49445,-0.069376,-0.023666,-0.0042069,0.010404,0.041559,0.058509,-0.74251
0.28103,0.06061,0.067552,0.042039,0.025278,0.02225,-0.16126,-0.23441
0.15175,-0.12635,-0.14133,-0.06955,-0.070054,-0.14001,-0.46078,-0.10621
-0.33651,0.01905,0.029717,0.02042,0.0056955,0.16476,0.53121,0.66135
0.019357,-0.0015444,-0.051147,-0.023626,-0.012811,-0.25769,-0.52506,0.041104
0.26749,-0.037531,-0.054301,-0.068188,-0.062564,-0.015356,-0.13403,-0.7731
-0.16762,0.022803,0.053285,0.043888,0.068004,0.15882,0.62833,-0.091551
0.36626,0.079966,0.054566,0.047918,0.059189,0.14886,0.028143,0.54543
-0.49352,-0.013086,0.060181,0.014991,-0.01827,-0.13049,-0.22514,0.023722
-0.29702,0.0018666,-0.030896,-0.015405,-0.023618,-0.023035,-0.07246,0.04546
0.24084,0.0069186,0.054441,0.042635,0.03511,0.072019,0.30156,0.042012
-0.12001,-0.093452,-0.12245,-0.10046,-0.092636,-0.096737,-0.44477,-0.56167
0.37013,0.12007,0.046043,0.054411,0.06892,0.031408,0.26886,0.30003
0.53633,-0.035148,-0.0045779,0.0061187,0.0032652,0.017091,0.18784,0.035122
-0.040913,0.09435,0.059721,0.034764,0.022069,0.014955,-0.20621,0.46325
-0.2982,-0.10297,-0.090622,-0.055919,-0.054973,-0.030755,-0.35124,-0.63052
-0.30503,0.0046216,0.051491,0.038189,0.045301,0.043702,0.34071,0.18352
-0.57498,-0.12952,-0.068504,-0.06579,-0.059793,-0.018983,-0.13403,0.073552
0.060336,0.019578,-0.019998,-0.015835,-0.010347,-0.13941,0.034881,-0.33466
0.24852,0.048266,0.050098,0.040517,0.046057,0.098299,0.1505,0.25407
0.79588,0.045658,-0.020461,-0.012747,-0.030179,-0.053775,-0.32827,0.50085
0.2216,0.085248,0.082582,0.044333,0.043214,0.093794,0.39992,-0.011212
-0.446,-0.080365,0.016841,0.0096546,0.024874,0.11275,0.16586,-0.56458
-0.59977,-0.10587,-0.09977,-0.061457,-0.092526,-0.26186,-0.67828,-0.22791
-0.11669,0.079295,0.0061628,0.026457,0.04264,0.17289,0.69441,0.26973
0.50098,0.067808,0.044826,0.03085,0.023753,0.025382,-0.15611,-0.17189
-0.093698,0.13092,0.069587,0.044693,0.045393,0.012773,-0.14715,0.18623
0.118,-0.15608,-0.12432,-0.097111,-0.080896,-0.1324,-0.45389,-0.28969
0.0042519,-0.0071013,0.055213,0.010604,0.01888,0.010009,0.18645,0.52526
-0.061287,0.0050925,0.036522,0.046604,0.054796,0.13403,0.53727,0.42747
0.31621,-0.042878,-0.056182,-0.052199,-0.098712,-0.11253,-0.3639,-0.38965
-0.51711,-0.088801,-0.012041,0.010909,0.01131,-0.17486,0.059984,-0.26599
0.041717,0.071348,-0.010109,0.033076,0.072602,0.3462,0.27687,-0.95777
0.41584,-0.037211,-0.049175,-0.078828,-0.10177,-0.2591,-0.19054,0.83912
-0.18949,0.048636,0.044158,0.051009,0.074891,0.14329,-0.40563,1.0596
-0.12212,0.026207,0.013566,-0.029736,-0.052915,-0.14872,-0.13511,-0.82366
0.10042,0.014034,0.024238,0.023285,0.023201,0.091995,0.33059,0.23922
-0.16991,0.082814,0.045441,0.054073,0.053506,0.17007,0.5603,-0.61579
-0.29778,-0.064929,-0.0402,-0.031272,-0.0089682,-0.063525,0.099564,-0.21283
0.56465,0.085079,0.047752,0.032369,0.022872,-0.086311,-0.3334,0.33634
0.15662,-0.054751,-0.027837,-0.013523,-0.023431,-0.00083272,-0.29238,0.89038
-0.25929,0.014155,0.036479,0.017849,-1.4875e-05,0.14536,0.13175,-0.63573
-0.39787,-0.099561,-0.0024228,-0.030247,-0.032269,-0.23379,-0.3139,-0.40379
0.36065,-0.16131,-0.19959,-0.10323,-0.08121,-0.075244,-0.27915,0.39393
-0.068716,0.02536,0.054655,0.017977,0.017474,-0.0029675,0.055269,-0.5049
0.20405,0.048147,-0.01222,0.021537,0.06116,0.16399,0.59336,0.64474
0.3881,0.2058,0.085368,0.056723,0.034818,0.10643,0.18958,-0.35056
-0.52669,0.0075691,0.036082,0.0071176,-0.014166,-0.073532,0.20261,0.16604
0.059042,-0.045946,-0.026503,0.0060223,0.039491,0.10836,-0.21567,0.35018
-0.45768,-0.095805,0.0071131,-0.016795,-0.069845,-0.16902,-0.36151,-0.38546
-0.16321,0.18476,0.11293,0.055511,0.048165,0.10083,0.14729,0.60616
0.88832,-0.06555,-0.030495,-0.035545,-0.021005,-0.12255,-0.14244,-0.81618
-0.49739,-0.13783,-0.13547,-0.040775,-0.027862,0.073728,0.48252,0.364
0.37602,0.060047,0.046734,0.023445,0.042808,-0.014052,-0.49558,-0.81186
0.18095,-0.027441,-0.04725,-0.038696,-0.043579,-0.08891,-0.59857,0.38629
-0.31716,-0.040788,-0.042644,-0.016405,-0.0057286,0.060886,0.41267,0.055664
-0.47075,-0.002393,0.076621,0.028051,0.00038504,-0.047742,0.029114,0.22965
0.29697,0.081611,0.038093,0.048328,0.037696,0.11795,0.62469,0.52504
0.17195,-0.068115,-0.086631,-0.064262,-0.049567,-0.11259,-0.28753,-0.73362
0.074654,0.11263,0.070928,0.05034,0.067118,0.12091,0.38885,0.7205
-0.12093,-0.046905,0.003984,-0.013591,-0.010461,-0.025089,-0.35434,-0.48058
-0.048016,0.039537,0.017797,0.0020257,-0.016677,0.019285,-0.37168,0.091689
0.23915,-0.042598,-0.051642,-0.012215,-0.022058,-0.1298,0.089934,-0.19503
-0.50034,0.010234,0.037441,0.021516,0.035521,0.21382,0.39251,0.27249
0.31373,0.14969,0.081201,0.048061,0.030627,-0.099613,-0.13239,-0.32547
-0.089466,-0.20379,-0.08523,-0.058103,-0.060569,-0.12582,-0.17486,-0.19439
0.011551,-0.019974,-0.07191,-0.039609,-0.01176,0.056562,0.06964,-0.043341
0.11137,0.028852,0.050447,0.056399,0.059803,0.11953,0.25195,0.45256
-0.11652,-0.080471,-0.10105,-0.090447,-0.11138,-0.20971,-0.6703,-0.21719
0.078429,0.06695,0.036286,0.012177,0.029649,-0.00046167,-0.042921,0.044639
0.11744,0.089423,0.11899,0.098893,0.092577,0.24051,0.67106,0.27693
-0.23559,-0.019784,-0.032422,-0.033173,-0.039521,-0.21255,-0.30512,0.060549
0.40741,0.021334,0.066413,0.038018,0.039738,0.19539,0.31982,-0.12272
-0.30022,-0.029172,-0.053558,-0.03907,-0.044682,-0.0906,-0.071834,-0.28022
-0.3692,-0.070072,-0.10381,-0.022363,-0.0039086,0.18659,0.21213,0.21792
0.11987,0.12438,0.14157,0.033243,-0.010113,-0.2553,-0.27853,0.20308
0.2276,-0.056327,-0.036776,-0.036556,-0.0089426,-0.018843,-0.14315,-0.50852
0.39044,-0.019628,-0.076727,0.0024055,0.022733,0.05928,0.042893,0.28449
-0.11058,-0.02436,0.013819,0.0015643,-0.0012478,-0.044669,-0.22396,0.0060054
-0.31376,0.014761,0.0085581,0.031213,0.020575,0.14609,0.32032,0.24857
-0.076772,0.0038216,-0.0060314,-0.01012,-0.013319,-0.094326,-0.44119,-0.35165
-0.076717,0.060362,0.056702,0.0027513,-0.0089865,-0.038373,0.10253,-0.6782
-0.021398,-0.072634,-0.0056173,-0.0080414,0.010465,0.057228,0.64112,0.71573
0.27207,-0.050316,-0.012649,-0.018769,-0.040468,-0.064356,-0.58132,-0.23847
-0.060817,0.050397,-0.01861,0.0021067,0.018386,0.13663,0.56136,-0.095574
0.090923,0.066552,0.031438,0.015764,0.015607,-0.050459,-0.10245,0.57846
0.22753,-0.05571,-0.049969,-0.0088912,-0.0015751,-0.047649,-0.018401,0.29166
-0.26155,0.074667,0.057359,0.021939,0.0060881,0.0039141,-0.53842,0.25144
-0.0037117,0.027988,0.017268,0.037876,0.038579,0.10345,0.53291,-0.26692
-0.54119,-0.21178,-0.092355,-0.078426,-0.084014,-0.031161,-0.6238,-0.76205
0.40374,0.073391,0.032976,0.016567,0.020722,-0.19763,-0.13973,-0.40298
0.25735,0.054499,-0.013122,-0.0054992,0.031968,0.056485,0.40118,-0.0044237
-0.053536,-0.011568,-0.0041518,-0.0041993,-0.011751,0.066676,0.46161,0.47361
0.14883,0.085317,0.075496,0.059387,0.037528,0.098338,0.097213,0.85481
-0.050252,-0.0069687,-0.00073207,-0.025741,-0.031459,-0.0047801,0.034488,-0.59077
-0.38424,-0.12456,-0.068756,-0.032993,-0.031324,0.015351,-0.54783,-0.7733
-0.17875,0.060926,0.074568,0.045556,0.030249,-0.12208,-0.2919,0.71534
0.38251,-0.012358,-0.070745,-0.032094,-0.026073,-0.057053,0.081847,0.31163
-0.36004,-0.1325,-0.043755,-0.039161,-0.027911,0.015901,0.11089,-0.40254
0.31668,0.099988,0.061749,0.040177,0.040898,0.019452,0.26254,0.69141
0.33791,0.053186,-0.0043565,0.010724,0.032369,0.13392,0.34801,-0.23423
-0.060226,-0.014638,-0.0079457,-0.018173,-0.037626,-0.15603,-0.55574,-0.36583
-0.51845,0.060451,0.074031,0.047036,0.041831,0.16511,0.2457,-0.25454
0.49268,-0.042595,-0.071426,-0.044012,-0.026423,-0.051676,-0.10742,-0.4636
-0.33455,0.018772,0.055158,0.012896,-0.0085063,-0.072879,-0.23175,0.15074
0.050924,-0.014673,-0.038845,0.021959,0.040308,0.15523,0.74161,1.1574
0.1768,0.019849,0.0057155,-0.017218,-0.044581,-0.14159,-0.58275,-0.30243
-0.38168,-0.089448,-0.029814,0.0045515,0.017717,-0.0027852,-0.03666,-0.83695
0.27203,-0.0068161,-0.0043513,-0.02202,-0.022884,-0.037577,-0.44354,0.67894
0.043474,-0.0051561,0.020394,-0.018419,-0.009909,0.035984,0.33387,0.094801
-0.051308,0.018268,-0.0405,-0.01525,-0.0053588,-0.04661,0.54882,-0.53162
-0.1047,0.057219,0.071853,0.05078,0.030511,0.075303,-0.27412,0.53428
0.25253,0.050861,-0.024415,0.0007782,0.012489,0.027897,0.17599,0.33715
-0.3288,-0.11657,-0.00053902,-0.0083688,-0.0041086,0.085399,-0.277,-1.0879
0.02092,-0.0066446,-0.020373,-0.0075611,-0.018884,-0.15821,-0.15526,0.58269
0.31172,0.060545,0.0095535,-0.0046276,-0.016121,-0.086167,0.22086,-0.085567
0.0063316,0.053258,0.04944,0.046918,0.042995,0.19117,0.14036,-0.35452
-0.1986,-0.021829,-0.026802,-0.0098725,0.017292,-0.015136,0.19815,0.49139
0.17428,-0.01785,-0.0016863,-0.019628,-0.023674,0.012032,-0.31303,-0.21425
-0.1091,0.11815,0.084488,0.05581,0.044255,0.067977,-0.12064,0.21445
-0.52555,-0.37322,-0.23022,-0.16714,-0.15471,-0.32511,-0.33921,-0.34083
0.27555,0.21777,0.13168,0.084449,0.07414,0.089876,0.052681,0.20517
0.33936,0.062324,0.021581,0.0604,0.066386,0.13314,0.1566,0.62572
-0.00077132,-0.066188,-0.052438,-0.04382,-0.037399,0.10206,0.46538,-0.44586
0.095553,0.05144,0.035238,0.022227,0.020831,-0.088306,-0.060306,-0.46904
-0.055043,-0.029224,-0.011436,-0.037704,-0.055327,-0.14758,-0.032244,-0.1601
-0.041916,-0.010141,0.042805,0.011475,0.016016,0.050683,-0.40097,0.80462
-0.062837,0.024039,-0.027788,0.014196,0.02464,0.093766,0.56755,-0.68835
-0.34532,-0.042608,-0.042888,-0.029,-0.028761,-0.03286,-0.32481,0.30966
0.0020027,0.017582,0.036975,0.015031,0.012643,-0.039436,-0.32473,-0.0038138
0.028247,0.010121,0.040099,0.036989,0.016435,0.12115,0.28916,0.074732
0.23654,-0.048898,-0.041347,-0.017974,0.0062259,-0.082527,0.14477,0.02014
0.27858,0.090607,0.011239,0.021674,0.0054066,0.09119,0.1836,0.1178
0.17268,0.053348,0.041417,0.007068,-0.0018717,-0.1787,-0.36999,0.23773
-0.60289,-0.13782,-0.11504,-0.085639,-0.062822,0.02112,0.053975,-0.72692
-0.18035,-0.022713,0.018347,0.0010631,0.025302,0.041575,-0.51975,0.37565
0.40876,0.046278,0.0040476,0.017028,0.012138,0.030584,0.52848,-0.30873
0.16373,0.084025,0.13114,0.063825,0.038013,0.065911,0.1311,0.19649
0.16198,-0.003827,-0.076921,-0.0068576,-0.0066601,-0.079243,-0.2019,0.58152
-0.46383,-0.11611,-0.042086,-0.054209,-0.075131,-0.10033,-0.094623,-0.76567
-0.22866,-0.026448,0.016746,0.015709,0.035682,0.15884,0.35066,0.19296
0.048686,0.022999,-0.033491,-0.0078955,-0.01014,-0.067372,-0.079153,-0.50416
0.20618,0.173,0.11936,0.078183,0.099955,0.15077,0.55043,0.1804
-0.027609,-0.1231,-0.064125,-0.061982,-0.094901,-0.17881,-0.69316,0.44577
0.1924,0.056771,0.025052,0.0090668,0.030356,-0.032491,-0.15538,0.19093
-0.055561,-0.091921,-0.089954,-0.044682,-0.039839,0.027466,-0.1017,0.30347
0.094387,0.0090434,0.036005,0.018871,-0.00075233,-0.022114,-0.23293,-0.12889
0.17092,0.03157,0.012289,0.027764,0.053895,0.20183,0.87692,-0.33267
-0.28243,0.014695,0.026528,-0.0024685,-0.024324,-0.14428,-0.4077,-0.6283
-0.35505,-0.049459,-0.038222,-0.0094152,0.0067712,0.0021891,0.14471,0.16516
0.10639,0.018727,-0.025386,-0.02441,-0.048147,-0.030547,-0.34497,0.082639
0.15465,0.12548,0.12791,0.085297,0.1156,0.2889,0.78119,0.23211
0.36708,-0.049441,-0.031065,-0.031868,-0.072254,-0.3283,-0.66507,0.66941
-0.38099,-0.068276,-0.072194,-0.047714,-0.025703,-0.077129,-0.069675,-0.88367
-0.010237,-0.063404,-0.010679,-0.0011441,-0.0024137,0.058429,0.14044,0.069219
-0.011126,-0.0029819,0.013248,0.0065192,-0.0022141,0.07086,0.5138,-0.31893
0.047942,0.043316,-0.031368,-0.0010071,0.029745,0.10865,-0.3622,0.71415
0.059388,0.044761,0.019635,0.015587,0.015434,-0.0082392,-0.24309,0.44601
0.20437,0.0015954,0.025452,0.0017535,-0.01392,-0.038376,0.39074,0.099156
-0.18011,-0.00039692,0.016813,-0.01129,-0.019411,-0.068813,-0.82947,-0.79149
-0.12459,0.053845,0.047578,0.038732,0.03774,0.063251,0.51903,-0.78481
0.1057,0.0071856,-0.0082796,-0.004826,0.00092452,0.0050873,0.33775,0.34914
0.10477,-0.055467,-0.018977,-0.0096427,-0.013028,-0.017559,-0.079507,-0.29346
-0.43198,-0.088202,-0.032197,-0.0074516,-0.012207,-0.14561,-0.30517,0.75661
0.19057,0.0020152,-0.040512,-0.022056,-0.027995,0.12125,0.15886,0.57502
0.01875,0.027322,-0.012526,0.0010681,0.0099702,0.026049,-0.11172,-0.00022948
0.12962,0.065849,0.044615,0.022942,0.031592,0.0075536,0.090496,-0.24325
0.40438,0.024145,-0.032107,-0.010813,0.0059571,0.01251,0.15104,0.26579
-0.42453,-0.066059,0.00067288,-0.02942,-0.050934,-0.12959,-0.54645,-0.74796
0.12531,0.0067146,0.050245,0.014506,0.025311,0.066702,0.42664,-0.34588
-0.50229,-0.022658,8.1994e-05,0.0042131,0.008341,-0.015211,-0.041935,-0.18706
0.21542,0.10403,0.053441,0.049327,0.038826,0.14032,0.4265,0.1439
0.13819,-0.15981,-0.1104,-0.061076,-0.078673,-0.13911,-0.37595,0.79256
0.27524,0.15474,0.10147,0.055595,0.061832,0.10649,0.069593,0.3833
-0.24614,0.0087649,0.031781,0.031771,0.030333,0.047829,-0.11544,-0.48999
-0.040306,-0.07415,-0.062607,-0.023596,-0.040644,-0.13647,-0.46437,-0.038704
-0.088703,-0.062532,-0.10418,-0.079583,-0.041888,-0.064352,0.21777,-0.58511
-0.02936,0.0361,0.016317,0.0043151,0.0031775,-0.0095549,0.35392,0.077768
0.053563,-0.012318,0.018061,-0.0061427,0.008821,0.10625,0.024182,0.92039
0.16845,-0.027871,0.0034569,0.0065924,-0.02461,-0.13041,-0.363,0.0050915
0.04098,0.11446,0.075129,0.058638,0.06735,0.25779,0.61614,-0.787
-0.12019,-0.046515,-0.023708,0.0098655,0.011627,-0.095567,-0.2481,0.58839
-0.045017,0.027678,0.0045963,-0.037784,-0.050921,-0.096174,-0.25991,-0.87184
0.02815,0.047178,0.019799,0.025241,0.028204,0.092187,0.17443,0.4774
0.35331,-0.0045019,0.029668,0.011394,0.01451,-0.038317,-0.20325,-0.21903
