-0.0026662,-0.18639,-0.2143,-0.062987,-0.028002,-0.020985,-0.038976,-0.0086725
-0.012313,0.064805,0.17316,0.03262,0.011892,0.02799,0.01146,-0.0014704
0.032868,-0.10643,-0.066922,0.042109,-0.0024845,-0.0083647,0.0014153,-0.01757
0.00051144,-0.0063595,0.35948,-0.034807,-0.00095902,-0.0053233,0.03172,-0.0021974
0.015931,0.13741,-0.041845,0.012569,0.016276,0.0054813,0.015257,0.029076
0.0010966,-0.026873,-0.55286,-0.034644,-0.0056832,0.031427,0.13809,0.021572
-0.012904,-0.076533,-0.071163,0.011072,-0.01235,0.0017919,0.062899,-0.0091259
0.012603,0.0057182,0.12424,-0.0063565,0.0039328,-0.04466,-0.36758,-0.039664
-0.0088475,-0.10605,0.14588,-0.016306,-0.01942,-0.02211,0.018192,-0.007648
0.047201,0.051307,0.34091,0.020666,0.026967,0.0070365,0.017542,0.039945
-0.061868,-0.04408,-0.20184,0.011183,0.0025515,0.027454,0.17073,0.0014723
-0.0081402,-0.048094,0.16791,0.033663,-0.0065806,0.023968,-0.051823,-0.0059252
-0.025943,0.30367,-0.32275,-0.028922,-0.015861,-0.034158,-0.023294,-0.029132
-0.0056144,0.094294,-0.14328,-0.0046882,0.021793,-0.013622,-0.10149,0.0021862
0.084531,-0.016204,0.48582,-0.0031384,-0.018425,0.007827,0.19902,0.025567
-0.044108,-0.27451,-0.53941,-0.024506,0.012071,0.069458,0.15204,0.0019846
0.0072732,0.073263,0.39559,0.032473,0.0039891,-0.047466,-0.18022,0.0095883
-0.0033285,-0.014249,-0.14133,-0.020019,-0.019228,-0.014989,-0.095432,-0.037559
0.025635,-0.021375,0.097893,-0.026043,0.0048436,-0.02092,-0.15717,0.0011492
0.031493,-0.039137,0.026237,0.053198,0.013567,0.020294,0.18027,0.031935
-0.0094106,-0.062356,0.065517,0.053457,0.022391,0.045754,0.033004,0.015717
-0.034726,0.25175,-0.20511,-0.040967,-0.0079148,-0.023013,0.10323,-0.031877
-0.083484,-0.58952,-0.40865,-0.050312,-0.022791,-0.014379,-0.11761,-0.017054
0.10238,0.38897,0.43402,-0.036848,-0.030101,-0.045654,-0.11444,0.013391
-0.14855,0.18347,-0.057229,0.070101,0.024873,0.047233,0.22179,0.01269
0.10174,-0.25989,0.29951,-0.057151,-0.021837,-0.0012267,-0.054308,-0.026867
0.12714,0.50916,-0.017831,0.042756,0.033015,-0.026785,-0.16127,-0.0036512
-0.11119,-0.17957,-0.18865,0.042012,0.025466,0.041079,0.088927,0.027644
-0.0040011,-0.15472,-0.11991,-0.02018,-0.0053766,0.069751,0.19708,0.035677
0.010724,0.082609,0.17135,-0.0032498,-0.028289,-0.13591,-0.27326,-0.034403
-0.020927,-0.076846,-0.30887,-0.0089793,0.011333,0.072654,0.18693,0.020328
0.032887,-0.036387,0.3439,0.0013728,-0.02725,-0.077877,-0.20238,-0.050309
0.069617,0.14054,0.11253,0.011837,0.019909,0.021942,-0.01047,0.019209
-0.10687,-0.41001,-0.37116,-0.079451,0.004285,0.10653,0.16175,-0.0054803
-0.0049106,-0.040541,0.16581,0.031966,-0.011674,-0.035078,-0.076251,0.00076168
0.023849,-0.031079,-0.042139,0.049058,0.011086,-0.020129,0.20467,0.014734
-0.074954,0.073003,-0.32274,-0.075156,-0.013345,-0.075346,-0.17633,-0.017963
0.10562,0.52145,0.55104,0.088919,0.024463,0.0021502,0.044826,0.027948
-0.019449,-0.040985,0.13428,0.017763,-0.00040959,0.063561,0.046173,-0.01139
0.019565,0.18245,-0.26823,0.070684,0.0058851,-0.04003,-0.14247,0.02818
-0.057708,-0.32037,-0.3754,-0.22888,-0.042478,0.081426,0.087362,-0.087758
0.046261,-0.041266,0.14045,0.048844,-0.0047535,-0.072653,-0.163,0.039055
-0.074421,0.088972,0.12257,0.0056354,0.017605,0.12228,0.036575,0.017713
0.11155,-0.17253,0.35172,0.055863,0.016868,-0.091677,0.16366,0.051003
0.033659,-0.05093,-0.070692,0.067073,0.016512,0.043715,0.12579,0.013605
-0.10533,0.091238,-0.26147,-0.030686,0.00090193,-0.087582,-0.34133,-0.079078
-0.0011297,-0.27683,0.022705,-0.033956,-0.030009,0.16474,0.13842,-0.031787
-0.036896,0.12982,-0.23961,-0.044019,-0.0059682,-0.22031,-0.01237,0.022805
0.06841,0.10613,0.15738,0.017484,0.010472,-0.005702,0.073753,-0.0087353
-0.0055986,0.11197,0.13071,0.010094,0.0036584,-0.032863,0.021616,0.022435
-0.016709,-0.065249,-0.043527,-0.0036135,-0.018601,-0.15199,0.15884,0.030766
-0.011747,0.06327,-0.27768,-0.00025166,0.014006,0.45706,-0.4059,-0.0069242
0.056163,0.11675,0.52224,0.074661,0.0077095,0.042249,0.037639,-0.0046523
-0.047467,-0.10058,-0.20776,-0.068309,-0.021933,-0.072227,0.10599,-0.0094869
0.028669,0.033833,0.091641,1.3119e-05,0.026514,-0.24325,-0.09983,0.0016077
-0.028311,0.031944,-0.10735,-0.033477,-0.0033796,0.015456,0.30254,-0.0031503
0.054563,-0.23514,0.12009,0.072786,0.028802,0.21411,0.1643,0.030371
-0.027863,-0.075387,-0.082078,0.013558,-0.033383,0.12235,-0.56172,-0.03892
-0.049411,0.024774,-0.28749,-0.078754,-0.018179,-0.1127,0.14001,0.0074465
0.0053234,0.0021607,-0.044601,-0.01684,-0.0037254,-0.26268,0.19935,-0.025876
0.026965,0.17763,0.59229,0.082188,0.010097,-0.18997,-0.25043,0.0097772
0.039196,-0.0021544,-0.26519,0.054612,0.039148,0.011154,0.43204,0.05236
0.019056,0.11295,-0.26957,-0.13804,-0.041254,0.075816,-0.55705,-0.014711
-0.064036,-0.053532,0.11493,0.0049919,-0.0042042,0.3015,0.26758,-0.050151
-0.021792,-0.13308,0.13514,0.015781,0.0099799,0.11691,-0.17931,-0.006487
-0.072167,0.15651,0.052908,0.012263,0.017138,0.19029,0.33697,0.030785
0.12927,-0.20763,0.066415,0.065294,0.0017273,-0.2664,-0.019667,0.022808
-0.0029864,-0.029939,-0.13553,-0.043647,-0.020688,-0.11458,-0.10137,0.016397
-0.00010542,0.0098109,-0.30329,-0.0099994,0.012201,-0.10874,-0.073137,-0.020009
0.036046,0.24716,0.36592,0.017341,-0.0014527,-0.16122,-0.021909,0.014668
-0.098316,-0.22488,-0.10763,0.029874,0.016158,0.37743,0.059243,-0.052006
0.017776,0.1473,0.31904,-0.020054,-0.013385,-0.030751,-0.0021134,0.029451
0.03956,0.049903,-0.28004,-0.031589,-0.019984,-0.11837,-0.018614,-0.022594
0.044209,-0.11213,-0.080386,-0.013048,-0.003742,-0.12483,-0.08373,-0.0052167
-0.10965,0.074193,0.016876,-0.019342,0.0041052,0.32897,0.28752,0.026883
0.0072399,-0.055742,0.096335,0.04335,0.027107,-0.16565,-0.22438,-0.019907
0.043253,-0.087734,-0.24817,0.01908,-0.0048783,-0.078509,-0.063955,0.03432
0.061191,-0.075588,0.10974,-0.04485,-0.013539,0.27808,0.10538,-0.013325
-0.10241,0.20874,0.18023,0.016055,0.0012884,-0.46957,-0.067591,-0.022023
0.037638,-0.045437,-0.002555,0.014617,0.016276,0.087116,0.26085,0.07084
-0.033438,-0.0082637,-0.029387,0.0056738,-0.0075873,0.56852,-0.32378,-0.078453
-0.01016,-0.13938,-0.12407,0.0048121,-0.0078108,-0.18549,0.17003,0.014433
0.084629,0.092998,0.48914,0.074349,0.015553,-0.14695,0.14769,0.0056582
0.0012446,0.0010483,-0.68025,-0.12971,-0.031322,-0.29533,-0.35251,-0.011131
-0.03373,0.36489,-0.17024,0.0017909,0.00773,0.10092,0.14548,0.042097
-0.01271,-0.25462,0.5585,6.9981e-06,0.015445,0.0073622,0.063349,-0.02222
0.040489,-0.0075645,-0.010137,0.04467,0.0073934,0.076097,-0.15338,-0.0009618
-0.046415,-0.098268,-0.080562,0.010968,-0.00083008,0.25458,0.058315,-0.011254
-0.0081226,-0.019248,0.27497,-0.0070667,-0.017031,-0.3554,0.13666,0.0017205
-0.032299,-0.090145,-0.43806,-0.01693,0.0057109,0.34593,-0.01915,-0.0087217
0.076384,-0.028206,-0.097081,-0.010523,-0.0028306,-0.074667,-0.10371,0.027958
-0.025646,0.059073,0.22546,0.01236,0.0043355,-0.028062,-0.038335,-0.020823
-0.0021805,0.11085,0.074819,0.020561,-0.0039126,-0.05818,0.27109,0.017011
0.029881,0.19832,0.028191,0.029673,0.0037899,-0.15355,-0.27682,0.0087871
-0.046424,-0.1163,-0.29744,-0.093261,-0.01936,0.30037,-0.088304,-0.037624
0.0033841,0.087428,0.2937,0.065591,0.028205,0.021589,0.19581,0.002743
-0.00044449,-0.091262,-0.072342,-0.040928,-0.0098428,-0.34022,0.02048,0.020387
0.066857,-0.24881,-0.050404,0.024384,0.0069668,-0.31363,0.0023882,0.030721
-0.021662,0.096692,-0.029498,-0.0043833,-0.0075161,0.081125,-0.10125,-0.052465
-0.063369,0.15447,0.023211,0.02096,0.024604,0.26078,0.26369,0.020522
-0.0041062,-0.099543,0.023143,-0.0091489,-0.02187,0.21081,-0.34858,-0.016245
0.022817,-0.024219,0.15095,-0.0088802,-0.0064313,0.46146,0.077355,0.0088519
0.048266,0.053853,-0.23351,-0.032939,-0.015026,0.064429,-0.028793,0.017508
0.056403,-0.08186,0.11189,0.020316,-0.0006651,-0.46105,0.10669,0.0096584
-0.10901,0.00080959,-0.032145,0.072925,0.044676,-0.36128,0.070164,-0.0068185
-0.018026,0.1479,-0.018101,-0.062373,-0.027165,-0.1625,-0.06759,-0.031718
0.0095282,-0.11539,0.012199,-0.025925,0.0028407,0.13472,0.053197,-0.0022184
-0.010069,0.15721,-0.020659,-0.0049386,-0.01351,0.024428,-0.20004,-0.0038609
0.064507,-0.080993,0.053998,0.016471,0.0098621,0.096378,0.039893,0.026252
-0.016124,0.013298,0.13369,0.054127,0.01048,0.19134,0.046204,-0.013124
-0.0093675,0.0017407,-0.11798,0.014386,0.0038703,0.14996,0.12306,0.010988
0.0067639,-0.085328,-0.068046,-0.071488,-0.0023526,-0.094437,0.1525,0.036057
-0.022631,-0.029901,-0.043854,-0.0004408,-0.0084457,-0.063353,-0.43666,-0.05534
0.011321,-0.051193,-0.028456,0.00083703,0.00095551,-0.092612,0.12031,0.025463
0.045421,0.045887,0.11258,0.018119,0.0022041,-0.097767,0.16649,-0.0032626
0.00078758,0.12839,0.013656,0.01216,-0.012629,0.12951,-0.064051,0.029892
-0.052928,-0.038312,0.019665,-0.0094086,0.011139,0.14861,0.10855,-0.039492
-0.014591,-0.017259,-0.2049,0.0079258,-0.0045143,-0.2154,-0.13533,-0.016275
-0.0014869,0.065673,0.15197,-0.014109,-0.0047285,-0.1213,-0.18521,-0.0019826
0.017892,0.08435,0.15143,0.0025072,-0.012744,0.2183,0.085305,0.0036245
0.028489,-0.27493,0.064953,0.010851,0.018478,-0.017591,0.083811,0.016548
-0.0158,0.041481,-0.13308,-0.028125,0.010895,-0.00063267,0.076964,0.013782
-0.043834,0.11111,-0.19451,0.010662,0.0035494,0.020169,0.0027118,0.019167
0.015433,-0.0035776,0.12182,0.041406,0.011945,-0.10214,-0.13137,-0.04512
0.037506,0.080849,-0.09026,-0.045102,-0.018792,0.016931,0.22858,0.032028
0.038206,-0.17347,0.022052,-0.0064975,-0.026354,0.058617,0.011063,-0.0071664
-0.021666,0.00071357,0.078128,0.024566,0.020366,-0.093107,-0.2382,-0.022162
-0.033155,-0.051077,-0.0052978,-0.0064796,0.0041321,0.077956,-0.012173,0.0025036
-0.0046801,0.055581,-0.030318,0.01761,-0.0046732,0.056101,-0.037515,-0.0036861
-0.01504,0.12651,-0.018409,-0.02818,-0.0058741,0.012543,0.17857,0.013744
0.021079,0.044981,-0.10148,-0.011125,-0.007039,0.1025,-0.018949,0.038974
-0.013994,-0.040865,0.4154,0.068626,0.015525,-0.23763,-0.15205,-0.05315
0.051325,-0.061629,-0.16464,-0.070374,-0.023917,-0.016553,0.0071763,0.01852
-0.040863,0.0048505,-0.13315,0.016972,0.03098,0.023124,0.014206,-0.011682
-0.0013855,-0.030237,0.18674,0.010142,0.0083019,-0.040381,0.25963,-0.0031236
-0.0096683,-0.042928,-0.30133,-0.0051001,0.0016213,0.12942,-0.062197,-0.010447
0.028398,0.044344,0.017967,-0.0054293,-0.012771,-0.013542,-0.046744,0.021087
-0.011796,-0.010623,0.12823,0.024749,-0.0039305,0.070638,0.15543,0.036831
0.0029216,0.027009,0.10796,0.015189,-0.0033751,-0.10958,-0.23117,-0.017893
0.002507,-0.013875,-0.17427,-0.049567,-0.011272,-0.0070037,-0.27839,-0.04936
-0.0050865,0.023805,-0.005464,0.0026131,-0.0042176,-0.0045137,0.13804,0.012704
-0.019867,-0.0077123,0.0072408,-0.015462,0.010081,0.07716,0.096385,0.019816
0.020514,-0.045574,0.0064638,0.02933,0.0083962,-0.020456,0.089653,0.0032076
-0.0014054,0.074226,0.11074,-0.011203,-0.0011884,0.053449,0.32223,0.0254
0.031219,-0.00032501,0.039308,0.011506,0.01285,-0.076798,-0.32947,0.00053379
-0.022593,0.019112,-0.044127,0.027123,-0.011762,-0.091335,-0.2157,-0.063434
0.047806,0.022344,0.26569,0.027672,0.011065,0.025323,0.10996,0.01338
-0.14057,-0.10071,-0.49347,-0.080851,-0.027989,0.093667,0.062375,-0.026623
0.060719,-0.053593,0.16938,0.029399,0.0038504,-0.01088,0.12636,0.035486
0.04244,0.0073929,-0.23101,-0.016812,0.012712,0.063805,-0.010455,0.035733
-0.023246,0.059116,0.062757,0.01476,0.014035,-0.18953,-0.1842,-0.010294
0.043704,0.016193,0.18341,-0.02434,-0.015841,0.10458,0.073517,0.014421
-0.037588,0.051146,0.20134,-0.0012198,-0.0068322,0.071392,0.043469,0.00024656
-0.032418,0.00050351,-0.070837,0.029561,0.01742,-0.054654,-0.0013474,-0.021845
0.020402,-0.049361,-0.094014,0.005626,-0.013545,-0.039336,0.055897,-0.044256
0.042891,-0.0044594,0.16312,0.02861,0.0095804,-0.00014108,-0.26161,-0.0045884
-0.043047,-0.036619,-0.49459,-0.057729,-0.014745,0.015692,0.085003,0.011253
0.0046945,0.01031,0.19103,0.012182,-0.00047845,0.093763,0.079938,0.034656
0.02189,0.042374,-0.052977,0.019522,0.00568,-0.031771,0.262,0.050186
0.00050922,-0.01881,0.14104,0.0033035,0.011757,-0.11094,-0.30665,-0.043535
-0.020612,0.03742,0.10928,-0.020836,-0.0054634,0.012665,0.076668,-0.027626
-0.0026168,-0.023565,0.0078499,-0.013742,-0.0067182,0.026896,-0.080626,0.0042134
-0.015981,-0.02227,0.015943,-0.0064972,0.0081457,0.010293,0.10402,0.0050734
0.032933,0.0021301,-0.078139,0.032359,0.00015709,-0.0055157,-0.064735,-0.0017238
-0.020015,-0.0050754,-0.095455,-0.0063509,0.00058821,0.026556,0.022776,0.014893
0.004807,0.0030382,0.0104,-0.013125,-0.021858,0.028354,0.0077546,-0.0077949
0.013597,0.018748,-0.04965,0.019858,0.010832,-0.00039969,-0.023054,0.015932
0.014115,-0.012546,-0.025118,-0.001285,0.0047447,0.0023319,0.0015754,0.0077683
-0.0093108,0.018585,0.069239,-0.0065048,0.0065532,-0.073358,-0.073738,-0.032381
-0.017632,-0.0050452,0.17978,0.019472,0.0082313,-0.016998,0.15012,-0.0029321
-0.0029989,-0.0053577,-0.020634,-0.0096666,0.001771,0.10862,-0.0061946,0.018137
0.003443,0.0019565,-0.28906,-0.023926,-0.020784,-0.087179,-0.050501,-0.023606
0.0018609,0.0090335,0.41401,0.023372,0.0030029,-0.033916,0.016807,0.0049704
-0.015353,-0.02319,-0.35662,-0.031868,-0.012775,0.034379,-0.086206,0.0026182
0.0066883,-0.008708,0.14112,0.0058073,0.0023126,0.0087503,-0.040093,0.0086441
0.0056387,0.0057458,0.00063038,0.019492,0.017194,0.092732,0.20894,0.015358
0.036254,0.020357,-0.16918,0.0095548,0.00081644,0.02104,-0.043028,0.014928
-0.0030546,0.019691,0.15448,-0.0079999,0.00022403,-0.096695,0.015983,-0.016227
-0.042086,-0.058606,-0.11515,-0.02504,-0.0079149,-0.025903,-0.12202,-0.023637
0.0049403,0.019895,0.19283,-0.0023009,-0.0079564,-0.008615,-0.034914,0.01591
0.012863,0.012941,-0.055507,0.036829,0.015655,0.002155,0.082563,0.00068528
0.0050008,0.021899,0.33405,0.037559,0.015903,-0.0013813,-0.09692,-0.014692
-0.018701,-0.016039,-0.55344,-0.039402,-0.023015,-0.0037394,0.0055339,-0.02237
0.0042778,-0.015307,0.10968,-0.03029,0.00028682,0.033768,0.117,0.032455
-0.0041079,0.00028928,-0.0046127,-0.021352,-0.0080661,0.079258,0.050089,-0.021945
0.0031282,0.0070292,0.010547,0.026217,0.0065696,0.02252,0.14817,0.033289
0.018283,0.0126,0.085855,0.034118,0.020813,-0.004532,-0.26138,0.018497
-0.0054411,0.0092818,0.003706,-0.005528,-0.019871,-0.19017,0.0002499,-0.027332
-0.0055142,-0.010405,-0.008313,-0.014554,-0.01369,0.011998,-0.099001,-0.0027976
0.010234,-0.0068391,0.027079,0.014995,0.016182,0.078503,0.026299,-0.0096671
-0.0051211,-0.033997,0.016477,-0.04947,-0.015944,-0.052763,0.21199,0.022186
-0.0047616,-0.020823,0.030229,0.026705,0.015113,0.18927,0.13805,0.030153
0.0034545,0.0098607,-0.10366,0.017249,0.015678,-0.13191,-0.40584,-0.071702
-0.027371,0.066189,-0.049324,-0.0072642,-0.0064931,-0.10904,-0.028269,-0.017628
0.019945,-0.015998,0.10742,-0.0075842,-0.012514,0.18067,0.14652,0.020708
-0.010853,0.0049151,-0.11741,-0.0070696,0.012971,-0.098047,0.064451,0.027918
0.0052007,0.0029463,-0.059069,0.017673,-0.0084667,0.062986,0.13989,0.012006
0.021157,-0.0075069,0.22856,-0.019456,-0.0067975,0.0075496,0.021321,0.012126
0.0056474,0.034839,0.050968,0.037546,0.0099643,-0.061484,-0.23673,-0.018628
0.013221,-0.0037406,-0.11462,0.016516,0.010487,0.035115,0.099936,0.01336
-0.026548,-0.022026,-0.017836,-0.051561,-0.020801,-0.03134,-0.14059,-0.017085
0.0034912,-0.050866,-0.096197,-0.0028152,-0.0055979,0.019822,-0.067567,-0.00074258
-0.03721,-0.010968,0.0091961,-0.017019,-0.0061439,-0.046301,0.077045,-0.023626
0.0077912,-0.017735,-0.054214,0.023038,0.0090898,0.01985,0.012104,-0.015398
0.0059594,-0.030029,0.24328,0.015891,0.0090832,0.038243,0.18272,0.031862
-0.011161,0.16503,-0.10815,-0.030527,0.0095821,0.039886,0.056985,-0.014517
0.026977,-0.08745,0.13136,0.024497,0.0027527,-0.0613,-0.03802,0.025261
-0.0045106,0.0879,-0.095191,0.016918,0.0040582,0.039353,-0.18167,0.010594
0.12872,-0.13787,0.24936,0.056044,0.0054221,-0.040851,0.13272,0.027332
-0.12034,-0.016811,-0.53142,-0.12388,-0.040333,-0.067278,-0.22051,-0.018452
-0.048757,0.057388,0.054604,0.00825,-0.00066605,0.12452,0.055507,-0.072298
0.015173,0.13578,0.11004,0.053877,0.022683,-0.074375,0.055207,0.021837
0.016682,0.035091,0.035281,-0.018295,-0.0015842,0.00057045,0.04545,0.029445
0.0026613,-0.083453,0.090673,0.033979,0.0047439,0.060687,0.0042952,-0.0026254
0.0044457,0.1147,0.09919,-0.015698,-0.012817,-0.057829,-0.082466,0.011655
0.029952,-0.22146,0.024197,-0.010805,-0.0071127,0.035731,0.14559,-0.0056444
-0.037945,-0.15962,-0.28082,-0.036933,0.014342,0.028778,-0.076689,-0.02301
0.027297,-0.023508,0.099457,0.015663,0.0049374,-0.047668,0.0083737,0.006724
0.0068073,-0.13584,-0.11567,0.0066845,-0.011707,-0.022047,0.032913,-0.0021133
-0.0058755,0.46191,0.16736,0.014465,0.011355,0.019367,-0.066587,-0.010268
-0.050081,0.12557,-0.075806,0.0077836,-0.0040493,0.021582,0.05252,0.037021
0.014534,-0.095689,0.043855,0.009899,0.0044299,-0.0078198,-0.056017,-0.00093211
0.047094,-0.10041,-0.0070432,-0.0029953,0.0053296,-0.037734,0.013479,0.00068358
-0.022901,0.046523,0.019034,-0.023585,-0.0015779,0.0020959,-0.02035,-0.0131
-0.008042,-0.04962,0.049311,-0.0055263,-0.024297,0.088254,0.022544,-0.011351
0.013567,0.059388,-0.11359,0.011657,0.0073653,-0.06823,-0.013372,-0.0021698
-0.036057,-0.10775,0.31034,0.027675,0.0074458,0.024983,-0.025631,-0.0013969
0.06991,-0.17191,-0.38212,-0.043466,-0.0083719,0.00091614,0.088221,0.0064875
-0.035364,0.21638,0.052446,0.064062,0.014717,-0.0073614,-0.0070582,0.021493
-0.02334,-0.052502,-0.0084607,-0.11025,-0.032524,-0.062069,-0.029841,-0.018767
-0.0029751,0.054111,0.032347,0.027935,0.03752,0.040176,0.0042606,-0.0047309
-0.020799,-0.070534,-0.032269,0.018271,-0.001648,0.0026688,0.0089834,0.0091411
0.0093309,-0.08733,-0.011344,0.0018697,0.0062227,0.0051142,0.0071841,-0.023796
0.071796,0.12392,0.10536,0.072732,-0.0014227,0.0004539,-0.079988,0.037283
-0.0133,0.13574,0.037459,-0.042637,-0.024671,-0.0038848,-0.018918,-0.010603
0.058346,-0.21492,0.010559,-0.024286,-0.0089247,0.077505,0.08032,-0.0033178
-0.12,0.20439,-0.032676,0.0021941,0.0066896,0.017495,0.12341,0.012271
0.013697,-0.037527,0.052304,0.028304,0.022144,-0.098437,-0.14001,-0.018579
-0.0018447,-0.075773,-0.1764,0.0065374,0.0062021,0.0029271,0.00085167,-0.0022163
-0.033969,0.071615,0.42555,-0.0010316,-0.017657,-0.10801,-0.047648,-0.016901
0.042375,0.074571,-0.52761,-0.096088,-0.025935,0.069126,0.042957,0.015331
0.055548,-0.33349,0.20497,0.041896,0.036121,0.073978,-0.039324,0.016173
0.021543,0.066434,-0.16524,0.0071783,-0.0033076,-0.014736,0.12017,0.008869
-0.027939,0.064818,-0.034489,0.034819,0.019886,0.0065622,-0.032631,0.0010457
-0.084615,-0.086159,0.20983,-0.015098,-0.034897,0.0052562,-0.075331,-0.030882
0.0082051,0.14713,-0.05376,-0.0013667,-0.0035782,-0.034375,0.1175,0.014574
-0.01477,0.10257,-0.14264,0.006028,0.020092,0.043588,-0.078858,-0.0031805
0.049739,-0.093816,0.24958,0.0070997,-0.010772,0.0043308,-0.062668,0.0019464
0.021949,0.018722,0.10746,-0.029695,-0.010264,-0.058786,-0.0057886,-0.0088361
0.018684,0.024794,0.10943,0.043551,-0.001877,0.049362,0.091646,-0.0039162
0.078409,-0.054325,-0.067001,0.038694,0.037743,0.016377,0.17464,0.040546
-0.15116,0.13045,-0.40075,-0.091755,-0.00087672,-0.14953,-0.35884,-0.046945
0.0089408,-0.040264,-0.034272,-0.004496,-0.0084576,0.013192,0.092118,-0.00047317
-0.0043279,-0.20855,0.047308,0.019029,-0.016311,0.059863,0.073659,0.0082324
0.074367,-0.0075874,0.016306,0.010169,-0.0088104,0.092516,0.20221,0.03382
-0.083084,-0.15542,0.17883,0.00053139,-0.001503,-0.0059088,-0.28068,-0.01769
0.062664,0.13075,-0.017899,-0.017174,0.013575,-0.024771,0.10892,0.017369
-0.12855,0.33732,0.092031,0.020121,0.005367,-0.027253,-0.089995,-0.033374
0.10162,0.16162,-0.021317,-0.0042842,-0.010306,0.056038,0.0057503,0.0092492
0.10524,-0.29306,-0.17773,0.0036643,-0.0020498,-0.064894,0.10006,0.0041655
-0.046991,-0.15042,0.12253,0.01278,0.0067555,-0.031395,-0.032493,0.0057583
-0.018848,-0.026786,0.05045,0.022882,0.0082412,0.054632,4.3278e-05,-0.017332
-0.052315,-0.015417,0.073578,-0.021097,0.017866,-0.05669,-0.043193,0.013116
-0.045653,0.16513,-0.278,-0.041521,-0.027119,0.0023708,-0.0048653,-0.027622
0.048183,-0.039955,-0.020788,0.015791,-0.0020016,0.021709,-0.032781,0.017094
-0.020655,0.072054,0.063491,0.009787,0.0070079,0.0022406,0.044925,-0.00074999
0.036973,0.01608,-0.0018268,-0.02076,-0.023735,0.038508,0.063448,0.0051483
0.017872,-0.052551,0.23649,0.033406,0.022847,0.0060084,-0.009904,0.011582
-0.0001017,-0.088013,-0.14332,0.000461,0.0061354,-0.079515,-0.075522,0.0029823
0.084139,-0.060108,-0.063152,-0.010023,-0.0034445,0.070752,0.20819,-0.012959
-0.13629,0.17083,0.062685,-0.021174,-0.021315,0.22193,0.011184,0.018193
-0.037107,-0.020977,-0.00055188,0.0064438,0.015284,-0.3141,-0.33193,-0.021062
0.052893,0.051352,0.16084,0.057604,0.028508,-0.053504,0.045646,0.0096183
0.039409,-0.10479,-0.1564,-0.062627,-0.043877,0.034591,-0.0038701,-0.0071229
-0.015388,-0.1147,-0.12389,-0.0023686,0.0014703,0.0046964,0.075805,-0.0087858
0.052509,0.1152,-0.037772,0.027678,0.016252,0.19272,0.099405,0.0048179
-0.0066429,0.030033,0.29841,0.019824,0.008328,0.0049663,0.077207,-0.012835
-0.12977,0.17648,-0.33272,-0.049361,0.0010908,-0.12104,-0.1526,0.016834
0.04333,-0.22698,0.14823,-0.00031341,-0.013401,-0.052482,-0.11958,-0.015088
0.052737,0.19435,0.023376,0.033915,0.011543,0.10128,0.16928,0.032402
-0.038033,-0.43486,0.12884,-0.0017032,-0.010227,-0.050317,-0.067395,-0.0045465
0.014056,0.17413,-0.12189,-0.02164,-0.016414,0.01631,0.067748,-0.0087534
-0.0014275,0.13044,0.058927,0.004927,0.0084335,-0.050136,-0.10685,-0.011711
-0.014132,0.043239,-0.04921,0.038542,0.025132,0.039765,0.29709,0.017378
0.045781,0.12342,0.098697,0.039848,0.0023648,0.028598,-0.28538,-0.031463
0.013319,-0.0037467,-0.23333,-0.15537,-0.04425,0.026101,0.15149,0.028592
-0.026806,-0.26718,0.06309,0.062294,0.041583,-0.20185,-0.28425,0.001587
0.072552,-0.13422,0.11272,-0.0022932,-0.013488,0.1417,0.36022,0.035439
-0.049074,0.2097,-0.24791,0.010556,-0.021846,0.15818,-0.27369,-0.026409
-0.11109,-0.021928,0.41213,0.077774,0.032257,-0.098021,0.018833,-0.058992
0.027034,0.048581,-0.21795,-0.03464,-0.015127,-0.12733,-0.041171,0.00043754
-0.0091923,-0.092007,-0.026931,-0.060736,-0.0076657,0.05418,0.14246,0.035193
0.085882,0.018884,-0.028741,0.0075483,0.015618,-0.014797,0.079618,0.014693
-0.014661,0.13182,-0.058055,0.021942,0.0078411,0.11083,0.021664,0.017786
-0.020584,-0.019469,0.22951,0.021578,0.00020511,-0.061147,-0.10127,-0.0095519
-0.024742,0.10234,-0.033355,-0.017005,-0.01518,-0.054019,-0.094344,-0.035563
0.059239,-0.091249,-0.12092,-0.039237,-0.022776,0.0075053,0.11151,0.0025298
0.043762,-0.17342,0.0044533,0.040616,0.016397,0.022219,-0.040139,0.026622
-0.071752,-0.021963,0.0051012,0.011346,0.016331,0.013892,0.0035088,-0.018214
-0.0069665,0.048383,0.16056,-0.010165,0.00041893,0.014012,-0.10306,0.0081913
