-0.56629,-0.026803,-0.00017323,-0.0078808,0.0029408,0.0078986,0.11233,0.14083
-0.085406,0.22465,0.025343,0.015865,0.01871,0.031499,0.011799,-0.31997
0.30297,-0.016981,-0.0099025,0.0090075,-0.004643,-0.0076997,-0.09616,-0.071712
-0.29227,-0.47818,-0.051727,-0.020752,0.0031771,-0.016113,-0.094112,-0.14585
0.46581,0.02899,-0.0070345,-0.0033065,-0.020302,-0.017259,0.049239,0.043692
-0.45174,0.46616,0.045323,0.029824,0.010926,0.035796,0.11495,0.33333
0.020696,-0.14251,-0.0047472,-0.015398,-0.020237,-0.083295,-0.014604,0.13782
0.50357,0.141,0.068695,0.009208,0.034738,0.024256,0.1444,-0.11231
-0.50039,-0.24562,-0.023855,-0.0059025,-0.011581,0.038545,0.0055073,0.029167
0.17451,-0.052623,-0.095075,-0.029529,0.012705,-0.00098722,-0.25186,-0.46802
-0.01062,0.024126,0.0036047,0.00091754,-0.017432,0.038724,-0.026016,0.076811
0.13045,0.28856,0.061694,0.038774,-0.00050078,-0.053203,-0.11329,0.18793
0.27492,-0.017864,-0.021657,-0.017223,0.00089467,0.012136,0.080839,0.092346
-0.3147,-0.25501,0.012229,-0.0026821,-0.0055468,-0.015608,0.15086,-0.12424
-0.40718,0.05362,-0.023261,-0.011052,0.011323,0.0037144,0.081504,0.091772
-0.028452,-0.052543,0.028885,0.020385,0.012373,0.038343,0.044432,0.16034
0.82,0.083508,0.012921,0.013604,0.0053956,0.0018965,-0.062726,-0.16324
-0.54952,-0.34205,-0.039735,-0.023617,-0.040823,-0.027789,0.0010471,-0.053471
0.1374,0.47613,-0.0043042,0.010125,0.0066197,-0.011716,0.0080112,0.34679
-0.05478,-0.11811,0.0092559,-0.026053,-0.00059307,-0.027835,-0.26919,-0.61215
0.04054,0.25743,0.023506,0.03159,0.031409,0.04142,0.036511,0.022832
-0.27711,-0.32044,0.029593,-0.0047799,-0.014486,-0.030021,0.066334,0.33126
0.14301,-0.11132,-0.051649,-0.033909,-0.036718,-0.015113,0.048037,0.018803
0.64616,0.41418,0.052368,0.045521,0.042733,0.063051,0.1706,0.096573
-0.83756,-0.39385,-0.057283,-0.01664,-0.0028996,-0.0063496,-0.11925,-0.36946
0.20676,0.041991,0.033453,-0.0016798,0.021429,-0.0047125,-0.062641,0.24877
0.019564,0.13605,0.012591,0.027981,0.013879,0.059779,0.0049953,-0.38256
0.57504,-0.047841,-0.14234,-0.068092,-0.064823,-0.039929,0.15391,0.5733
-0.60593,-0.11684,0.069903,0.022871,0.0039909,-0.069938,-0.13206,-0.40001
0.22454,0.2834,-0.021277,0.012128,0.0016632,0.00066781,0.036856,0.53126
-0.33327,-0.21915,0.061714,0.0093703,0.014395,0.015522,-0.0043277,-0.57366
0.119,-0.098428,0.092887,0.022688,0.0035178,-0.01745,0.0013676,0.46891
-0.058221,0.31155,0.0097382,0.0054156,0.016358,0.058292,-0.13418,-0.5556
0.51201,-0.25402,-0.086723,-0.034508,-0.02479,0.0087419,0.072991,0.45937
-0.58984,0.048183,-0.041196,-0.034536,-0.010251,-0.017312,-0.096128,-0.33134
-0.017892,0.091462,0.004578,0.028729,0.028846,0.0038234,0.061343,0.080274
0.13562,-0.08003,-0.052014,-0.040148,-0.024781,-0.029293,0.33417,0.11794
0.090033,0.25693,0.12417,0.071112,0.023884,0.00051429,-0.12956,0.22232
0.76692,-0.026049,-0.053253,-0.012799,0.0025115,0.0071964,-0.3457,-0.74321
-0.37357,-0.11931,-0.014026,0.028061,0.043399,0.084344,0.75613,0.71767
-0.35559,-0.54029,-0.039131,-0.025437,-0.049239,-0.080693,-0.62029,-0.11799
-0.54641,0.49177,0.067249,-0.025165,-0.041351,-0.027064,-0.49715,-0.64628
0.59384,-0.084825,0.040125,0.044348,0.027902,0.018664,0.68982,0.73504
-0.87088,-0.033907,-0.049529,-0.074657,-0.028832,-0.029365,-0.3153,-0.42065
0.70151,0.17812,0.033276,0.016539,0.023185,0.016473,0.22338,0.78195
0.34276,-0.16506,-0.062505,0.01372,0.028197,0.085986,0.20494,-0.78665
-0.19832,0.20434,0.03071,0.01121,-0.013277,-0.055129,-0.1602,0.60288
0.80166,0.27245,-0.061834,0.0017671,-0.0070409,-0.016246,-0.1159,-0.45251
-0.67767,-0.22503,0.066187,0.032721,0.047206,0.077586,0.18692,-0.073318
-0.39163,-0.38086,0.0084,-0.028491,-0.030103,-0.078388,-0.24667,-0.089071
0.32699,-0.14751,0.022281,0.0056292,0.0031699,0.0079836,0.59664,0.3603
-0.50114,0.045496,-0.056773,-0.052682,-0.07192,-0.053906,-0.8157,-0.72271
-0.048052,0.14287,-0.065408,-0.00078598,0.025582,0.025077,0.071053,0.6968
0.65762,0.18196,0.089328,0.06692,0.037506,0.0028356,0.40682,0.38843
0.36304,0.40202,0.031653,0.016916,0.041601,0.1138,-0.36835,-0.82386
-0.76902,0.033555,0.11249,0.028238,-0.017182,-0.056087,0.17824,0.69548
0.18246,-0.25566,-0.082574,-0.048027,-0.037584,-0.01474,-0.028717,-0.62999
-0.46375,-0.13305,-0.20978,-0.087073,-0.043249,-0.06699,0.29396,0.63798
0.49999,-0.27998,0.067257,0.036229,0.075112,0.099495,-0.040549,-0.49276
0.03655,-0.36772,-0.00853,-0.02926,-0.041842,-0.070128,-0.22824,-0.0148
0.097945,0.4894,0.040343,0.021758,-0.018978,-0.021291,0.14312,0.024389
0.10983,0.23336,0.19128,0.12743,0.11265,0.1131,-0.069647,0.29587
-0.20757,-0.38083,-0.16451,-0.11797,-0.12334,-0.1514,-0.24435,-0.514
-0.057035,0.2215,0.035628,0.05147,0.062305,0.09916,-0.11796,0.10872
0.1479,0.46497,0.04931,-0.0048465,-0.01783,0.013094,0.63563,0.22413
-0.10632,-0.3295,-0.10053,-0.02152,-0.019962,-0.042558,-0.23488,0.055713
-0.22137,-0.053942,0.038645,0.01671,0.024622,0.049269,0.11389,0.70159
-0.28339,-0.054984,-0.041505,-0.031168,-0.0091489,-0.0083182,-0.23158,-0.75546
0.53841,-0.11736,0.049375,0.029883,0.042724,0.0035914,-0.19169,-0.11444
0.41304,0.25579,-0.0011708,0.012286,0.016181,-0.016161,0.43115,-0.03188
-0.80179,-0.25793,-0.067782,-0.052544,-0.057403,-0.090361,-0.58687,-0.34183
0.16581,0.05965,0.076695,0.015463,-0.0058824,0.04745,0.99936,0.97532
-0.061766,0.014121,-0.012379,-0.0097472,-0.031978,0.0075142,-0.94035,-0.70007
0.55795,-0.29873,-0.12349,-0.065171,-0.033662,-0.029773,-0.044774,-0.48736
-0.41923,0.6002,0.10308,0.083917,0.051977,0.068748,0.67909,0.83687
0.47431,-0.3805,0.073538,0.086032,0.076724,0.060726,-0.19885,0.28295
-0.24084,0.17475,0.0062396,-0.020009,0.0092645,-0.038939,0.24166,-0.47758
-0.7169,-0.069651,-0.013561,-0.04724,-0.041418,-0.012718,-0.29094,0.20823
0.65173,0.28385,-0.01009,-0.027615,-0.036934,-0.11216,-0.40906,0.10806
0.30742,-0.11809,-0.093409,-0.024359,-0.0015544,0.082996,-0.029856,-0.58992
-0.23579,-0.11364,-0.029542,-0.0068042,0.0013837,0.00098161,0.59385,0.51339
-0.39987,-0.11107,0.040871,0.071592,0.064957,0.054847,0.13173,-0.21283
-0.38687,-0.19775,0.047858,-0.0079508,-0.029955,0.033259,-0.28485,-0.35006
0.54694,0.13353,0.015434,-0.026427,-0.017714,-0.11032,-0.13288,0.54689
-0.18327,0.023545,-0.10265,0.0088215,0.016152,0.015778,-0.10706,0.11405
0.25053,0.23073,0.061253,-0.073498,-0.10731,-0.11804,0.1772,-0.41568
0.55755,-0.025411,0.038585,0.039682,0.0034474,0.021462,0.3164,0.10693
0.24258,0.18542,0.1026,0.0988,0.13839,0.13937,-0.24845,-0.042841
-0.87752,-0.45663,-0.15342,-0.091224,-0.084595,-0.083017,-0.576,-0.64476
-0.039536,0.28316,0.043299,0.071179,0.10049,0.15218,0.47809,0.62888
0.10796,-0.094677,0.0046434,-0.00010149,0.037384,0.079596,0.20592,0.23542
-0.23665,-0.073656,-0.097925,-0.070949,-0.09455,-0.16834,0.086006,0.55799
-0.051514,0.30847,0.079275,-0.00096603,-0.03798,-0.092483,0.064191,-0.38359
0.32818,-0.48573,0.020935,0.03006,0.034751,0.11867,-0.55579,-0.39303
-0.31494,-0.017085,-0.037919,-0.016853,-0.040729,-0.12958,-0.456,-0.41656
0.12853,0.082849,-0.033938,-0.0086504,-0.006697,0.052656,0.9694,0.48974
0.27247,0.15819,0.025931,-0.015305,-0.0036817,0.0085903,0.028498,0.22382
0.015135,0.2628,0.033005,0.03382,0.015369,-0.059073,-0.20535,-0.65826
0.10115,0.14461,0.011089,-0.0095177,0.011508,-0.0023523,-0.056995,0.67538
-0.065399,-0.3243,-0.055481,0.010912,0.054996,0.18598,-0.34259,-0.88616
-0.028824,0.11852,0.15318,0.094846,0.11432,0.13019,0.70921,1.1032
0.3767,-0.36559,-0.11365,-0.086317,-0.10783,-0.092295,-0.47977,-0.53358
-0.4626,-0.12203,0.033819,0.0058905,-0.057217,-0.099154,0.31134,0.81719
-0.65669,0.11448,-0.13174,-0.10569,-0.11701,-0.26541,-0.69463,-0.78447
0.42411,0.071267,0.084419,0.10968,0.13452,0.15169,0.29676,-0.76227
-0.20983,0.070102,-0.013308,-0.028004,-0.029076,-0.010851,-0.04472,0.68667
0.47251,0.2688,0.028169,0.035801,0.033095,0.021732,0.08275,-0.15112
0.41984,0.12957,0.0058479,-0.01139,0.016679,0.14908,0.57297,0.76718
-0.5502,-0.28436,-0.080123,-0.09134,-0.06245,-0.049956,-0.417,-0.47092
-0.073422,-0.20698,0.067179,0.046093,0.022333,-0.020678,0.20505,0.086718
-0.17053,-0.01303,-0.028945,0.018208,0.020859,0.04869,-0.072127,-0.21955
0.3296,0.31362,0.14681,0.098506,0.073394,0.039697,-0.36225,0.12057
0.11718,-0.15578,-0.10911,-0.041098,-0.039246,-0.1194,0.096141,-0.3759
-0.051734,0.017631,0.10918,0.029177,0.010725,0.070217,0.47184,0.89386
0.074896,-0.32858,-0.19843,-0.12793,-0.073649,-0.056009,-0.65057,-0.5758
-0.011553,0.30707,0.0074227,-0.027558,-0.057696,-0.060184,0.15906,-0.28095
-0.3132,0.058274,0.10254,0.073179,0.035839,-0.0034835,-0.1286,0.441
0.12918,-0.15322,-0.091531,-0.043582,-0.0029949,-0.032314,-0.15148,-0.13527
0.12051,0.054064,0.020509,0.068389,0.084711,0.035331,0.76483,0.15823
9.2757e-05,0.45885,0.09649,0.019235,-0.012573,0.12343,-0.22949,-0.52393
-0.014111,-0.37184,-0.057538,-0.018708,-0.012967,-0.024437,0.20983,0.5055
-0.69276,-0.13676,-0.050045,-0.06883,-0.056937,-0.0407,-0.2069,-0.034628
0.63377,0.19248,0.1349,0.10284,0.12079,0.17545,0.0034117,-0.098113
-0.2149,-0.27633,-0.065551,-0.043541,-0.043068,-0.1746,-0.16841,-0.21883
0.45585,0.097578,-0.019511,-0.024677,-0.041771,0.016161,-0.45761,-0.050771
-0.16855,0.1755,0.013855,0.041067,0.021976,-0.012617,0.31527,0.38138
-0.13954,0.0077779,0.017344,-0.0036741,-0.032531,-0.036623,-0.13076,-0.0054076
-0.25375,-0.43242,-0.07313,-0.050422,-0.01071,-0.034012,0.4156,-0.29733
0.59558,0.33607,0.030077,0.017447,0.040202,0.12731,0.15739,0.80021
0.091128,-0.089117,0.028957,0.020061,-0.0047776,-0.044679,-0.0077132,-0.48886
-0.31986,0.22419,-0.061657,-0.042408,-0.028147,-0.025579,0.012702,0.05312
-0.11959,-0.24689,0.023401,0.010173,-0.013785,-0.063935,-0.36101,-0.29031
0.14872,0.3008,0.065213,0.022155,0.015402,-0.017476,-0.059642,0.011259
-0.45435,-0.073505,-0.053337,0.041046,0.091117,0.20125,-0.13022,0.0089376
0.14992,-0.038326,0.035223,-0.049779,-0.059787,-0.10195,0.24084,-0.31195
-0.19198,-0.043733,-0.004562,0.023552,0.023753,0.089145,0.21201,0.075915
0.68796,-0.32831,0.0077003,0.019143,0.0058015,-0.0066376,-0.13553,0.37249
-0.51858,0.26906,0.018265,-0.039381,-0.09024,-0.10055,-0.09547,-0.18489
0.73873,0.14558,-0.073259,0.012171,0.024699,-0.052469,-0.14164,0.38734
-0.41299,-0.12011,9.3019e-05,0.0020413,0.030415,0.051139,0.11817,0.31769
0.09733,-0.11969,-0.02594,-0.038392,0.005238,-0.0088838,0.11366,-0.72538
-0.17601,0.19679,0.013891,0.023802,-0.0036915,-0.029679,0.085264,0.14857
-0.19496,-0.32351,0.026608,-0.030071,-0.050821,0.03546,0.013978,0.092643
0.00025118,0.14276,-0.0032677,0.026474,0.067101,0.13169,0.059419,0.024714
-0.24767,0.13669,0.0017945,-0.017778,-0.079677,-0.1787,-0.33003,0.14522
0.63069,0.072969,0.079552,0.063242,0.11012,0.14304,0.28681,-0.15473
-0.092107,-0.041392,0.048503,0.018869,-0.043688,-0.098741,-0.32718,-0.3
-0.049852,0.23698,0.0004241,0.012453,0.028603,0.0096928,0.069408,-0.37492
0.17819,-0.19595,-0.08983,-0.034721,-0.001717,0.077561,0.16537,0.71201
-0.18259,-0.1862,-0.12174,-0.068248,-0.02567,-0.051271,-0.12989,-0.51557
-0.61749,-0.16486,0.037371,0.013584,0.011363,0.01428,-0.14009,0.060268
0.83399,-0.11653,-0.088222,-0.038606,-0.077788,-0.10781,0.36625,0.56393
-0.17937,0.46761,0.13588,0.033982,-0.0033514,-0.018056,-0.15317,0.27333
-0.1095,-0.027784,-0.007102,-0.0096739,0.016874,0.12056,-0.085389,-0.21661
0.19406,0.0010458,0.10976,0.058063,0.054184,0.035519,0.24354,-0.040488
-0.19579,-0.13927,-0.043311,0.0035575,0.0077861,-0.061732,-0.033127,-0.17073
-0.36219,0.10718,0.018819,0.006715,0.018655,-0.01502,-0.064942,-0.19742
0.025415,-0.1421,-0.086683,-0.010955,-0.030588,0.049927,-0.080798,-0.31138
0.18726,-0.020628,-0.0089796,-0.026901,-0.023493,-0.079158,-0.21664,0.024789
0.5297,0.267,0.055396,0.020135,0.023146,0.041273,0.0084103,0.31122
0.13729,0.031381,0.011239,0.04287,0.061069,0.15149,0.39556,0.24482
-0.18788,-0.049638,-0.072572,-0.077086,-0.067315,-0.15652,0.090084,0.046614
-0.34741,-0.18832,-0.017545,-0.0046228,0.011972,0.022276,-0.26211,0.039162
-0.24262,-0.049216,0.081747,0.0099489,-0.029684,0.023375,-0.029906,0.028749
-0.031698,-0.20997,-0.0094642,0.013749,0.003202,-0.082385,-0.0733,-0.82775
0.16739,-0.0053001,-0.033343,-0.01593,-0.0057357,-0.012296,-0.032402,0.28956
0.073649,0.58196,-0.020777,-0.0077151,-0.016096,0.024893,0.29753,0.4496
-0.054345,-0.12649,0.052268,0.023941,0.012794,-0.030771,-0.18255,-0.24813
-0.075333,-0.20013,-0.047867,-0.029265,-0.019047,0.065343,0.13207,0.41277
0.92481,0.32994,0.085803,0.067828,0.069318,0.002631,-0.32558,0.18801
-0.55455,-0.29452,-0.022599,0.026553,0.044208,0.11803,0.49455,-0.54865
-0.17072,0.066387,-0.013105,-0.02029,-0.031857,-0.080734,-0.42841,-0.48477
0.13785,-0.064498,-0.033664,-0.065252,-0.057953,-0.055692,-0.069438,0.3028
-0.51202,-0.1718,0.025475,-0.0073631,-0.0039833,-0.027513,0.1343,-0.011904
0.075624,0.080644,-0.10107,-0.019191,0.011423,0.063945,0.30672,0.049899
-0.050811,0.12306,0.071149,0.047027,0.04149,0.013175,-0.21082,0.098931
0.38427,-0.16115,-0.012695,0.0032164,0.0068652,0.036944,0.16425,-0.013591
0.32844,0.29867,0.084517,0.028652,-0.022919,-0.076931,-0.048406,0.63188
0.12746,0.049226,0.057502,0.02155,-0.032438,0.007186,-0.25853,-0.22641
-0.48283,-0.31647,-0.11009,-0.057157,-0.0056615,-0.053781,0.172,-0.22581
-0.1811,0.34888,0.018508,0.0036803,-0.011984,-0.023968,-0.14852,0.34872
0.05664,-0.33103,-0.057252,-0.03773,-0.018918,0.02048,0.13988,-0.82469
-0.1991,-0.083869,-0.032969,-0.032434,0.013896,0.011286,-0.25758,-0.40864
0.26227,0.32411,0.091405,0.09042,0.079734,0.075108,0.10755,0.9062
-0.16194,-0.22427,-0.027531,0.018785,0.030824,0.048831,0.22328,-0.26385
0.1121,0.10755,0.017016,-0.020503,-0.046755,-0.020593,0.038364,0.018717
0.76098,0.0082289,-0.00091362,0.011665,0.026318,0.053605,0.00085771,-0.0047451
-0.28932,-0.11461,-0.018302,-0.048947,-0.07101,-0.081429,0.081227,0.54527
-0.39404,0.037252,-0.019204,0.0082613,-0.0037165,-0.10688,-0.66528,-0.6818
-0.2044,0.035117,0.035505,0.042246,0.039817,0.077479,0.38577,0.45192
-0.15905,-0.034655,0.020629,-0.048962,-0.042644,-0.10737,0.0062765,0.002986
0.64129,0.18706,0.021726,0.015572,0.0063482,0.088257,0.11582,0.45573
-0.51157,-0.15215,-0.00071591,0.024743,0.030516,0.047415,0.14915,-0.73705
0.15989,0.048036,-0.093942,-0.052704,-0.0089412,-0.010471,-0.099672,-0.40241
-0.050675,0.23946,0.085631,0.041196,0.0056257,-0.0063578,-0.14867,0.31492
0.29064,-0.43044,-0.11814,-0.021423,-0.011172,-0.0017882,-0.061944,0.13282
-0.03963,-0.055809,0.029514,0.0019371,0.011505,-0.011552,0.10536,-0.18876
0.069512,0.1136,0.068199,0.017813,-0.01187,0.019636,-0.044514,-0.067353
0.28224,0.086468,-0.040549,0.002975,0.036133,0.013949,-0.15053,0.7993
-0.65254,0.12959,0.078731,0.012197,-0.0085067,-0.052062,0.12542,-0.58355
0.021127,0.07228,-0.034693,-0.04051,-0.052183,-0.02245,0.11359,0.50706
-0.16774,-0.30335,-0.013765,0.0087414,-0.0014474,0.00067759,-0.090697,-0.5747
0.1769,-0.10639,-0.069889,-0.004387,0.033916,0.063473,0.23189,0.08621
-0.15842,0.17839,0.077444,0.036966,0.022201,0.063563,-0.10668,-0.034191
0.85494,0.081165,-0.002358,-0.047218,-0.013598,-0.077969,-0.16262,0.085886
-0.30126,0.13159,-0.0055304,0.063098,0.066787,0.099157,0.02283,-0.33714
0.30039,-0.0080419,0.059327,0.00054729,-0.088421,-0.21798,-0.052668,0.53792
-0.38839,-0.16741,-0.081731,-0.078662,-0.073012,0.017384,0.38231,0.32592
-0.61766,-0.0035919,-0.030392,-0.002556,0.050644,0.08664,-0.36097,-0.45141
-0.096899,0.13203,0.05739,0.033774,0.056239,0.068279,0.16265,-0.052615
0.13757,-0.46234,-0.052076,-0.0084478,-0.040304,-0.091939,-0.25676,-0.3992
0.55006,-0.0032523,-0.014084,0.019505,0.050339,0.067356,0.10941,-0.044562
0.26091,0.32447,0.078686,0.024115,-0.007591,-0.0081813,0.060736,0.25522
0.10826,0.21082,-0.038379,-0.025718,-0.018698,-0.044866,-0.063981,0.35329
-0.58658,-0.084629,0.08085,0.041958,0.024861,0.11374,0.19862,0.039529
0.074749,0.2123,0.022838,-0.022808,-0.033128,-0.12593,-0.21249,-0.053426
0.18535,-0.32059,-0.11844,-0.024634,0.0027564,0.0098101,0.11696,0.25311
-0.20067,-0.20011,-0.04617,-0.041511,-0.04696,-0.080271,-0.15013,-0.18279
-0.091231,0.040851,0.020601,-0.0029334,0.03678,0.11201,0.31206,-0.42457
-0.21233,0.06461,-0.0045513,-0.018064,-0.058184,-0.061437,-0.2417,-0.4332
0.44482,0.2602,0.19805,0.16325,0.16062,0.21213,0.34172,0.67509
-0.26733,-0.11584,-0.083276,-0.068361,-0.10352,-0.20004,-0.40109,-0.52775
0.25299,-0.14253,-0.11493,-0.049007,0.0086907,0.061305,0.16141,0.56922
0.075055,0.2734,0.063309,0.025615,0.02823,-0.019784,-0.048553,0.18553
-0.51452,-0.25881,-0.049182,-0.024722,-0.053196,-0.084378,-0.32591,-0.14816
0.80871,-0.12187,0.047172,0.018105,0.013805,0.054491,0.2544,0.25362
-0.076794,0.1376,0.0005861,0.0050414,0.033285,0.044697,-0.030506,-0.37001
-0.69076,0.12137,-0.0092744,0.029328,0.028119,0.073197,0.064917,-0.25677
0.29201,0.048235,-0.013499,-0.057781,-0.072395,-0.094856,0.0038053,0.059397
0.25337,-0.1054,0.058547,0.04055,0.036294,0.016762,0.36482,0.67868
-0.25838,0.19921,0.019827,0.012079,-0.012863,-0.03742,-0.34544,-0.74226
-0.27863,-0.42886,-0.058758,-0.05671,-0.047589,-0.030794,0.17507,-0.20131
-0.10674,0.16651,-0.043705,-0.0088063,0.018638,0.029058,-0.037965,0.39871
0.27097,0.087118,-0.0045816,0.0082141,0.022412,0.017501,-0.33935,0.12434
0.25037,0.052401,0.035893,0.02642,0.050268,0.059954,0.15916,0.23718
0.20219,-0.12401,0.0080026,0.030817,-0.0067414,-0.0072332,-0.027803,-0.16614
0.002682,-0.026522,-0.0019377,-0.032949,-0.046857,-0.019637,0.061231,-0.59192
-0.39607,0.1435,0.053038,0.022606,-0.015445,-0.094145,-0.087562,0.35833
0.096858,0.067546,-0.014775,0.0096405,0.024733,0.074172,0.22369,0.25372
0.2278,-0.284,0.012921,0.0057023,0.049838,0.032377,-0.24454,0.2954
-0.22557,-0.11307,-0.083223,-0.052394,-0.049958,-0.078771,-0.013612,-0.58899
-0.30497,0.36987,0.0086547,0.0065689,0.0061852,0.076722,0.2066,0.24756
0.035081,-0.054261,0.02235,-0.0054224,-0.039851,-0.10275,0.19713,0.23444
-0.025917,-0.05082,-0.01135,-0.018364,-0.00072256,0.046693,-0.25431,-0.98666
0.45008,0.057789,0.0166,0.053589,0.068876,0.087252,0.053317,0.27377
-0.098794,0.034558,0.012234,-0.016039,-0.018436,-0.036174,0.03962,0.25237
0.1245,-0.24048,-0.048013,-0.023915,-0.059332,-0.097471,-0.18782,-0.10417
-0.33377,0.24584,0.077981,0.069286,0.07924,0.19203,-0.075202,0.18022
0.33752,-0.19577,0.023034,-0.033043,-0.024347,-0.16789,0.12772,0.62603
-0.089854,0.027654,-0.087765,-0.033787,-0.0026682,0.033719,0.047153,-0.15486
-0.16423,0.20546,0.058295,0.051631,0.027307,0.031551,-0.21352,-0.22395
0.074739,-0.20795,-0.10875,-0.065693,-0.059223,-0.087901,0.2616,-0.39286
0.033995,-0.077727,0.020945,0.0049732,-0.027713,0.0041837,-0.088703,0.098474
-0.13591,0.16101,0.12763,0.044928,0.051641,0.074104,0.14215,-0.096612
-0.36917,-0.10659,-0.085012,-0.047412,-0.016439,-0.0026592,-0.17943,-0.51685
0.5256,0.23072,0.024117,0.079421,0.057027,0.0084226,0.069788,0.89592
-0.026035,-0.091622,-0.04468,-0.020044,-0.017225,0.044618,0.30162,-0.00084886
0.10357,-0.12033,0.052425,-0.017872,0.0026801,-0.019654,-0.1658,-0.19214
-0.41271,0.042284,-0.051931,-0.031434,-0.032069,-0.036768,-0.20887,-0.053424
0.43978,0.10566,0.055899,0.0016284,-0.012476,-0.054479,-0.077769,0.53891
-0.052653,-0.072728,0.00030288,-0.0047053,-0.016993,0.012365,-0.044716,-0.81661
0.1528,0.012937,0.0071149,0.035475,0.032263,-0.0086796,-0.029197,-0.10949
-0.46402,-0.037496,-0.049419,-0.010641,0.0023398,0.046165,0.11239,0.52004
0.23342,-0.10017,-0.021546,0.0053879,0.041632,0.067539,0.26569,-4.0177e-05
-0.13281,0.1995,0.012069,0.01323,-0.0060613,-0.014582,-0.090803,0.28776
0.11578,-0.099015,0.019833,-0.026221,-0.070293,-0.09812,0.090433,-0.15232
-0.18431,0.13041,0.048491,0.035414,0.052269,0.07542,-0.0038837,-0.55939
-0.15603,-0.2512,-0.0034274,-0.044103,-0.059988,-0.14165,-0.12567,0.054576
0.49265,0.13305,-0.034055,0.0086449,0.054159,0.11078,-0.25401,0.4992
-0.21172,-0.043152,-0.04289,-0.0016283,0.004348,0.036396,0.26479,-0.21114
0.11625,-0.083135,0.0019857,-0.020164,-0.045166,-0.075439,-0.016567,0.13495
-0.16243,0.18564,0.046664,0.03908,0.030703,0.040882,0.010128,-0.19511
0.27307,0.14579,0.060712,0.027792,0.036612,0.11939,-0.17874,-0.42523
-0.35887,-0.28177,-0.095728,-0.022641,-0.043198,-0.1608,0.050335,0.27546
0.56592,0.096739,-0.0079675,-0.026139,0.025461,0.012137,0.011114,0.52629
-0.42205,0.17024,-0.0037221,-0.021609,-0.015398,0.075075,0.15043,-0.19516
-0.0338,-0.24237,0.057763,0.045807,0.0060056,-0.10519,0.11819,0.071656
-0.21382,0.022211,-0.034622,-0.019018,-0.027473,0.057184,-0.18598,-0.25295
0.047388,-0.20777,0.038984,0.010664,0.0015491,0.046856,0.16072,0.070927
0.43949,0.37343,0.035738,0.010031,-0.00034848,-0.080909,-0.21606,-0.076157
-0.44961,-0.1465,-0.052907,-0.012959,0.014114,0.002807,-0.026803,-0.10204
0.19365,0.054864,0.022376,0.0042936,0.021894,0.033219,-0.044611,0.39912
0.056306,-0.067323,-0.067024,-0.024115,-0.015767,-0.028017,0.035289,-0.142
0.097072,-0.12878,-0.016643,0.011136,0.0028279,0.030462,0.0016524,-0.10599
-0.1723,0.19134,0.017303,-0.007306,-0.023963,0.005549,0.1583,-0.43518
0.39956,-0.021638,0.027214,0.014022,0.020748,0.0061854,0.10527,0.1312
-0.075193,0.14457,0.0055494,0.0043955,-0.0041607,-0.0075311,-0.096982,0.32958
-0.28031,-0.24248,-0.016242,0.0023699,0.010053,0.025786,-0.021104,0.12909
-0.35083,0.19671,0.079075,0.023021,0.00020646,-0.004435,-0.15362,-0.14381
0.104,-0.11929,0.033571,-0.0044753,0.0047287,-0.060193,0.097686,0.60101
0.016396,0.0098867,-0.067036,-0.025813,0.0075159,0.053088,-0.033306,-0.55527
0.46884,0.066957,-0.082334,-0.033356,-0.03855,-0.055501,-0.0068226,0.046533
0.0057283,-0.11243,0.0032042,0.019843,-0.00061735,-0.01076,0.20248,-0.05819
-0.45355,-0.050551,0.049038,0.0091018,0.012254,0.039495,-0.14473,-0.43348
0.14225,-0.065347,0.00074549,0.028678,0.01622,0.0024096,-0.20142,-0.015822
0.13968,0.057274,-0.0084834,-0.03801,-0.04276,0.011769,-0.11284,0.5419
0.0005232,0.13316,-0.0095198,-0.018494,-0.0078047,-0.072198,0.29524,-0.28669
0.13001,0.17309,0.029153,0.033017,0.051271,0.10266,0.078561,0.0036787
-0.099431,-0.18012,0.0060411,0.015241,0.033181,-0.018126,0.2209,0.48005
-0.24607,0.012175,0.045992,0.014168,-0.015175,0.010661,-0.22522,-0.1749
