0.02119,0.18303,0.051379,0.096517,0.02549,0.015223,0.084419,0.09991
-0.17138,-0.1592,-0.041885,-0.052019,-0.036469,-0.047037,-0.1269,-0.074001
0.21193,-0.20575,-0.0099987,-0.0046719,0.018378,0.031341,0.03587,-0.0076938
-0.058561,-0.092168,-0.0091725,0.0042325,-0.013021,0.00039502,0.032693,0.095296
-0.086481,-7.1382e-06,0.01533,-0.017449,0.0022818,0.00078308,-0.04335,-0.12441
-0.06007,-0.16428,0.0088373,0.00057109,0.0019364,-0.006551,0.065307,-0.033596
0.23233,0.67354,0.018167,0.05814,0.0016893,0.0096074,-0.055193,0.063817
-0.48851,-0.23469,-0.00371,0.029958,0.032848,0.0023048,-0.0057922,-0.057754
0.29594,-0.11289,0.021093,0.040618,0.0094618,0.00268,-0.027757,0.079277
0.18269,-0.090893,-0.056143,-0.14469,-0.029478,-0.012825,0.036218,0.085153
-0.2394,-0.12685,0.029948,0.044022,-0.021564,-0.0052525,0.015248,-0.10207
0.25826,-0.031166,0.037013,-0.010591,-0.013749,0.0097104,-0.011804,-0.021311
-0.27667,0.38461,-0.089662,-0.027186,0.017368,-0.0070041,0.025726,-0.032252
0.084857,-0.16118,0.025056,0.033605,0.017105,-0.00065114,-0.036322,-0.0027907
0.090964,0.29849,-0.001373,-0.023101,0.008937,0.02107,0.043737,0.12074
0.082642,-0.074994,0.011092,0.045325,-0.022713,-0.027622,-0.039569,-0.037824
-0.22443,-0.29247,0.023757,0.0048369,0.015941,0.017514,0.14258,0.082891
0.42481,0.096592,0.029123,0.043083,-0.0078976,0.0082204,-0.12931,-0.11953
-0.49495,-0.026565,0.0039745,-0.035307,0.015144,-0.016278,-0.04315,0.010765
0.015686,-0.10741,-0.051573,-0.043057,-0.0086969,-0.0089821,-0.028631,-0.049484
-0.073792,-0.34005,-0.051565,-0.058606,-0.032554,-0.0088824,-0.038457,-0.065159
-0.089635,0.46522,0.0039359,0.073976,0.021705,0.030902,0.13902,0.043035
0.57227,0.16247,0.067922,0.018509,0.0056694,0.0087445,0.020226,0.14365
-0.2026,0.01953,0.023016,0.040505,0.0053198,-0.012978,-0.050412,-0.019838
0.22871,0.022115,0.025233,-0.00059926,0.028524,0.012443,0.021235,-0.016777
-0.30402,-0.22802,-0.074111,-0.11237,-0.057473,-0.032359,0.0085996,-0.010728
-0.20616,-0.26309,-0.01743,0.05714,0.020813,0.0008819,-0.018386,-0.0017085
0.13186,0.24309,-0.023634,-0.1322,-0.025652,-0.0051628,-0.044765,-0.13083
0.20954,0.0066209,0.063442,0.093513,0.021872,0.019709,0.06146,0.10888
-0.31785,0.047968,0.032859,0.19553,0.022701,0.0051034,-0.075523,-0.064889
-0.053324,0.11422,-0.068456,-0.20104,-0.0076462,0.0056463,0.059241,0.12019
0.72012,-0.039211,0.087706,0.19267,0.016625,0.013486,0.066892,0.14753
-0.35092,-0.023117,-0.11576,-0.24874,-0.037447,-0.049514,-0.15425,-0.21792
-0.22128,-0.064119,-0.022552,0.036634,0.0097088,0.019801,0.028815,-0.06235
-0.087553,-0.082576,0.093897,0.0091018,-0.006018,0.0027648,0.05407,-0.080799
0.23709,0.033929,0.061656,0.15244,0.016971,0.016708,0.055004,0.18055
-0.075458,-0.12448,-0.0725,-0.080702,-0.030579,-0.016301,-0.037904,-0.011688
-0.079303,0.032838,-0.019616,-0.0030987,0.023381,0.0055269,-0.036345,0.01538
0.31241,0.25242,0.0093089,-0.013218,-0.0084604,-0.026954,-0.064592,-0.042088
-0.5947,-0.095328,-0.016939,-0.040508,0.0068626,0.01926,0.088855,-0.0039323
0.27815,-0.063676,0.026805,0.048327,-0.0008856,-0.0041485,-0.020995,0.082992
0.28273,-0.075195,-0.054475,-0.097615,-0.0004767,-0.011233,0.07464,0.015146
0.18441,0.25023,0.052115,0.10051,0.015784,0.044773,-0.062013,-0.13008
-0.35318,0.072468,0.12045,0.073068,0.00083927,0.015219,-0.017437,0.021442
-0.22872,-0.16015,-0.21625,-0.1482,-0.014262,-0.045483,-0.065823,-0.038926
0.35511,0.19644,0.018896,-0.0005298,0.017197,0.026453,0.065415,0.10228
0.040411,-0.23571,0.12294,0.3052,-0.053291,-0.066061,0.11763,0.069796
-0.47492,-0.18397,-0.068198,-0.34053,0.02432,0.028425,-0.027046,-0.12058
0.36727,0.10316,0.085876,0.12454,0.023622,0.020856,-0.08777,0.03954
-0.21053,-0.22247,-0.055871,-0.073322,-0.039535,-0.026169,-0.041145,-0.113
-0.15047,-0.14086,-0.048662,-0.067213,0.038218,0.035939,-0.02745,0.016642
0.13502,0.41456,0.0053505,0.15037,-0.016363,-0.0036104,0.024301,-0.00015885
0.27029,0.34474,0.066541,0.00095647,0.015566,-0.011895,0.099347,0.18897
0.12704,0.063876,-0.045252,-0.070607,-0.022277,-0.012307,-0.043628,-0.071865
-0.011445,-0.25083,-0.010057,0.013267,0.018386,0.034203,0.14296,0.029681
0.050576,-0.33838,0.023499,0.13482,0.012299,-0.013038,-0.19985,-0.12426
-0.38996,0.2174,-0.014929,-0.073613,-0.017394,-0.013455,-0.017319,-0.011302
-0.15997,0.122,0.062266,0.098646,0.022791,0.017305,0.073082,0.070427
0.35358,-0.065944,-0.041565,-0.19988,-0.047016,-0.022289,-0.023,0.041579
0.21239,0.074147,-0.060486,-0.17971,0.0075029,-0.014967,0.037379,-0.036347
-0.40881,-0.27627,0.037106,0.13641,-0.0088886,0.0081328,0.12834,0.039153
-0.2228,-0.1516,0.024993,0.15544,0.013363,0.0080505,-0.12593,-0.01333
0.16129,-0.013896,-0.034042,-0.083054,0.027615,0.023904,-0.085346,-0.21693
-0.34173,-0.011973,-0.014815,0.038209,-0.012781,-0.01464,-0.015755,0.038385
0.90049,0.42328,0.114,0.21421,-0.006088,0.079822,0.12991,0.24563
-0.45889,0.17129,-0.014781,-0.032216,0.039978,-0.083484,0.016245,0.061862
0.19073,-0.14938,-0.080882,-0.20945,-0.062063,-0.035971,-0.12944,-0.23112
0.43294,0.2017,-0.029587,-0.067666,0.031502,-0.019967,-0.048575,0.062222
-0.37795,-0.35789,0.022055,-0.043929,-0.023145,0.03474,0.11884,-0.10514
0.048545,0.002136,0.074318,0.058193,0.016117,0.081221,0.029378,0.086668
-0.42648,0.19024,-0.028667,0.052782,-0.0070188,-0.036796,0.073626,0.10576
-0.25271,-0.31353,-0.075544,-0.03508,0.0011652,-0.0068003,0.048157,0.076543
0.052477,-0.081727,0.027776,0.014585,0.017215,-0.016242,-0.2037,-0.15763
0.6697,0.057574,0.039253,0.12405,0.0020633,-0.0025119,-0.0025738,-0.034241
-0.17137,-0.049944,-0.088135,-0.035455,-0.028669,-0.051366,-0.036031,-0.13871
-0.30236,0.26275,0.15294,0.01876,0.010947,0.071825,0.11028,0.053388
0.17173,0.10016,-0.0039548,0.12024,-0.0041091,0.062678,-0.0083876,0.24648
0.42626,-0.25444,-0.044194,-0.21019,0.0042481,-0.094113,-0.07103,-0.14402
-0.45873,0.34784,-0.031308,-0.045127,0.028148,-0.015458,0.0010526,0.039267
0.29804,-0.21917,-0.036453,0.074888,-0.041861,-0.01368,0.11435,0.023592
-0.57867,0.10457,0.0023901,-0.17081,0.020701,0.028418,-0.090763,-0.14408
0.23605,0.058196,0.030528,0.15606,-0.010802,0.016878,0.080259,0.082606
0.058367,-0.23609,0.13439,0.010319,0.019832,0.04501,-0.030004,0.0073069
0.43076,0.05585,-0.20856,-0.043279,0.0032248,0.0028042,0.17868,0.24583
-0.33818,-0.22262,-0.01277,0.099147,-0.029318,-0.040166,-0.18547,-0.34392
0.11599,-0.10173,0.06672,-0.1151,0.0082573,-0.022105,-0.084086,0.033601
-0.32498,0.0065188,0.030957,0.13566,-0.016699,0.0095944,-0.064031,0.033664
0.18364,0.65918,0.10719,0.078621,0.036626,0.015654,0.062928,0.06204
-0.081871,-0.07139,-0.055942,-0.090989,-0.011278,-0.042836,0.12624,-0.021866
-0.211,-0.44962,-0.099327,-0.21754,-0.01184,0.022137,-0.036557,-0.061337
0.21514,0.43879,0.077921,0.16673,0.01937,0.00041892,-0.0020445,0.15532
-0.080322,-0.15667,-0.10326,-0.15809,-0.019243,0.033555,-0.011289,-0.10542
0.16349,-0.27588,0.027955,0.080181,-0.010615,-0.06507,-0.048193,-0.12404
0.025865,0.29153,0.087775,0.19277,0.029439,0.017737,0.0041603,0.04526
0.81849,-0.095004,-0.0418,-0.20439,-0.00086794,0.047978,0.18388,0.16823
-0.78911,-0.25499,-0.025358,0.20005,0.031071,0.010034,-0.072953,0.033669
-0.52651,0.031708,0.035379,-0.13385,-0.031131,-0.010511,0.0055277,-0.12461
0.47848,0.094776,0.21098,0.35596,-0.039061,-0.022083,-0.13674,0.13022
-0.26814,-0.0099419,-0.38071,-0.53343,0.0073822,0.0058329,0.038422,-0.14765
0.16283,-0.016501,0.058198,-0.027657,-0.024407,0.010043,-0.11766,-0.083366
0.20969,0.73066,0.052343,0.14825,0.068959,-0.056846,0.082906,0.026564
-0.32905,-0.098081,0.016957,-0.081918,-0.016968,0.039279,0.13317,0.073618
0.18132,-0.50442,0.070126,0.2759,-0.00077947,-0.0062584,-0.051741,0.012114
0.21895,-0.20049,0.032581,-0.042444,0.023803,-0.044802,-0.048992,0.0074112
0.034744,-0.44421,-0.0099082,0.026317,-0.013637,0.056779,0.12645,0.099699
-0.26971,0.65622,-0.09714,-0.07252,-0.019556,-0.021533,-0.11891,-0.13218
0.062613,0.10306,0.0040879,-0.058418,-0.017655,0.017298,-0.027482,-0.024013
-0.38375,-0.054206,-0.035739,-0.065377,-0.00038921,0.024807,0.072096,-0.11538
0.28007,-0.032181,0.15702,0.13959,0.039825,0.071111,-0.0083891,0.24099
0.32565,-0.28304,-0.10624,-0.093325,-0.029988,-0.094073,-0.0040099,-0.034689
-0.1784,0.28619,0.087931,-0.030888,0.047899,-0.0022451,0.05348,0.079027
-0.053759,0.19638,-0.1277,0.013525,-0.046828,-0.075384,-0.18765,-0.16983
0.097178,-0.0096292,0.028687,0.070599,-0.0015933,0.022563,0.11661,0.068687
-0.038253,-0.32883,-0.012093,-0.0318,-0.0037526,0.034119,0.029432,-0.011016
-0.69396,0.20291,0.032675,0.25325,0.032832,0.069149,0.012744,-0.080814
0.82633,-0.0037613,-0.015137,-0.058228,0.0068366,-0.035859,0.020863,0.18839
-0.15595,-0.00502,0.017702,-0.36393,-0.018986,0.0086583,-0.1091,-0.24847
-0.12422,-0.18283,-0.031967,-0.037778,-0.0053254,-0.054745,-0.063697,-0.045329
0.15642,-0.32324,0.031441,0.12464,-0.045716,0.055359,0.024762,0.15173
0.10783,0.15642,0.090342,0.14023,0.047498,-0.036066,0.13275,0.016539
-0.57513,0.26122,-0.020305,0.088091,0.008758,-0.032402,-0.013925,0.10493
0.77097,0.13621,-0.10653,-0.13284,-0.0057241,0.034643,0.18498,-0.020445
-0.47145,-0.0048009,0.15054,0.078894,0.027343,0.0081991,-0.13939,0.061498
0.35405,0.41716,-0.14878,0.089881,-0.0094615,0.035993,-0.13712,-0.10382
-0.29832,-0.5678,-0.091242,-0.29615,-0.030477,-0.0076743,0.0029649,-0.049358
-0.20782,-0.37633,0.025914,-0.017737,-0.028171,0.032881,-0.01668,-0.10477
-0.028097,0.57428,0.06218,0.15074,0.028462,-0.10827,0.0618,0.033572
-0.014221,-0.36742,0.11958,0.013317,0.0064268,0.053283,-0.018719,-0.0019555
0.43749,0.27305,0.011253,0.046211,0.0071625,-0.052335,-0.030575,0.06219
-0.093947,0.23713,0.042648,0.030687,0.046232,0.067808,0.11338,0.16397
0.14855,-0.65412,-0.17607,-0.13451,-0.071683,-0.077535,-0.023304,-0.15696
-0.087279,0.10132,-0.042516,-0.081626,-0.018415,0.012578,-0.010278,-0.04073
0.14836,0.42042,0.10824,0.19001,0.057698,0.049827,0.051143,0.12238
-0.39034,-0.11557,-0.14486,-0.1314,0.00054972,0.011165,0.020217,-0.01124
0.19982,-0.089822,0.10513,0.12657,-0.0099816,0.052804,-0.13462,0.058452
-0.51271,-0.00061174,0.11638,0.018877,-0.020549,0.0024345,0.062852,-0.18414
0.54974,-0.089824,-0.15021,-0.23581,-0.01529,-0.0078396,-0.098513,-0.035801
-0.33861,0.16463,0.070411,0.10424,0.021654,-0.18195,0.0062279,0.019277
0.026818,0.025458,-0.0040765,0.092932,0.027982,0.049683,0.095871,0.15315
0.0068008,-0.1834,0.038967,0.13555,-0.0039743,0.053707,-0.032699,-0.079428
0.4927,0.18164,-0.075468,-0.1126,-0.035084,-0.0061183,-0.059348,-0.10833
-0.19541,-0.040394,-0.059772,-0.17561,0.0049489,0.081061,0.13264,0.23782
0.44925,0.30292,0.19437,0.18069,0.014465,-0.036229,0.073774,-0.080788
-0.39493,-0.30614,0.02244,-0.17609,0.001108,0.0094041,-0.11187,0.19281
-0.37717,-0.10968,-0.23935,0.059714,-0.0040967,-0.031755,0.035807,-0.23117
-0.22363,-0.2068,0.034994,0.030106,0.0064081,-0.034377,-0.077484,-0.095188
0.051976,-0.2493,-0.082699,-0.029071,0.0011133,-0.021558,-0.061122,-0.023997
0.64821,0.69817,0.11246,0.10215,-0.028028,0.053871,-0.016066,-0.055811
-0.30597,-0.12409,0.090818,-0.083366,0.028174,-0.05008,0.090081,0.26376
-0.072336,0.26562,0.064436,0.062751,0.005545,0.11976,0.047865,-0.040445
0.45359,-0.011891,-0.067872,0.0084365,-0.049075,-0.038298,-0.063059,-0.0062368
-0.64085,-0.48611,-0.14245,-0.075864,0.059674,0.014564,0.063275,-0.0077599
0.60487,-0.047736,0.097429,0.081537,-0.011835,-0.096963,-0.087968,0.033456
0.048074,0.37194,0.06438,0.0805,-0.029042,0.048738,0.10058,-0.038998
-0.70524,-0.057906,-0.016534,-0.15057,0.0082795,-0.032822,-0.074662,-0.14756
-0.081092,-0.051527,0.056639,-0.088787,0.03788,0.056885,-0.0052335,0.097566
0.78334,0.043789,-0.21668,0.031754,-0.041559,0.013484,0.2061,0.086048
-0.35039,-0.35353,0.046493,0.071529,0.0045469,-0.0062722,-0.15281,-0.058082
-0.10286,0.15961,-0.012394,0.079086,-0.0033403,-0.10334,-0.051671,-0.015407
0.10175,0.11166,-0.0092525,-0.15462,0.0051523,0.019762,-0.12382,-0.028879
-0.073503,0.10963,0.080695,0.083054,0.02217,0.035372,0.083777,0.03372
0.62191,0.33134,0.016282,-0.0036113,-0.014935,0.0062056,-0.0067091,0.086058
-0.45054,-0.39627,0.040102,-0.078327,0.0029799,0.12747,0.16768,-0.067357
-0.42796,-0.33911,-0.012243,0.092746,-0.010305,-0.093443,-0.048905,-0.059294
-0.07926,0.25358,0.092644,0.19579,0.015242,0.0068839,-0.039061,0.063641
0.022278,-0.13188,-0.13876,-0.17727,0.001269,-0.041023,-0.013786,-0.08872
0.41224,0.39029,0.034447,0.15918,0.00234,0.020001,0.12822,0.062355
0.57799,-0.012042,-0.076107,-0.37458,-0.012793,-0.083935,-0.12902,0.1738
-0.30739,-0.20967,0.068491,-0.0059882,-0.028379,0.06883,-0.074795,-0.22245
-0.51022,-0.10462,-0.14831,0.12423,-0.0051416,-0.021717,0.017411,-0.0085828
0.37356,0.049059,0.056005,0.14953,0.049344,0.0038927,0.0619,0.12056
-0.13564,0.14476,-0.020085,-0.10863,-0.036613,0.028554,0.074764,-0.10818
-0.25978,-0.13647,0.11707,0.04637,0.018305,0.060069,-0.084026,0.03176
0.092098,-0.25605,0.062182,0.037596,0.04214,-0.011064,-0.054518,0.032283
-0.058758,0.35391,-0.028357,-0.095054,-0.012205,-0.060036,0.023076,-0.044673
0.31738,0.18138,-0.061496,0.062904,-0.012218,0.01457,0.10203,0.15951
-0.069557,-0.19318,0.023867,0.042765,-0.036317,0.01747,-0.020971,-0.066904
0.068856,0.38066,0.022862,-0.069734,0.0012458,-0.043228,-0.018256,-0.12302
0.16199,-0.078656,-0.019302,-0.024871,0.030144,-0.018496,-0.0076783,0.17049
-0.38384,-0.45703,0.052463,0.067781,-0.011934,-0.024698,-0.0055614,-0.24094
-0.3024,-0.15323,-0.17627,-0.11994,-0.0074276,0.056264,0.034387,0.057306
0.6654,0.022843,0.029429,0.052704,-0.0027215,0.0064519,-0.12255,0.12869
0.091884,0.013729,-0.047868,-0.070342,0.0026975,0.076385,0.015764,-0.041279
-0.52818,0.15388,0.070192,0.13602,0.0014446,-0.13229,0.051127,0.017261
0.050288,0.10568,0.057288,-0.023635,0.017203,0.090974,0.10896,0.0082482
-0.24029,0.053234,0.03197,0.02837,-0.012524,-0.059353,-0.12274,-0.14609
0.21929,0.052952,0.018262,-0.021213,0.013565,0.071843,-0.010677,0.046219
0.4298,0.08,-0.0075991,-0.056134,0.0012434,-0.032294,0.03147,0.076607
-0.039279,0.15372,0.00010691,0.13362,0.028022,-0.036916,0.066474,0.18609
-0.19032,-0.30197,-0.030635,0.00047467,-0.031728,0.080687,0.078891,-0.0016815
-0.18314,-0.043053,-0.12512,-0.28393,-0.037909,-0.070311,-0.20457,-0.26916
0.5329,-0.19154,0.10567,0.1479,0.0013404,0.0026679,0.036546,-0.054615
-0.42868,0.070352,-0.0033348,0.031158,0.023446,-0.051016,-0.096039,-0.053541
-0.19545,0.008469,0.07109,-0.054849,-0.0026645,-0.011327,0.12435,0.23452
-0.19022,0.14127,-0.076666,0.0865,0.017142,0.029369,0.018022,0.0057971
0.44717,-0.19843,-0.10929,0.0032324,-0.010369,0.10352,0.014429,-0.10578
0.32842,-0.10677,0.068798,-0.053871,0.0091106,-0.085005,-0.035355,0.01799
-0.019753,0.41337,0.037692,0.024841,0.021425,0.1124,0.039838,0.080911
-0.77342,-0.1346,0.010006,-0.0030574,-0.051114,-0.031246,0.012645,0.020697
0.062845,0.3834,0.049303,0.064915,0.026169,-0.07154,0.069871,0.016788
0.42096,-0.072635,-0.031692,0.1654,-0.0044057,-0.025239,-0.18731,-0.09547
-0.042053,-0.28675,-0.030528,-0.41342,-0.041331,0.067469,-0.008845,-0.066847
0.11821,-0.38786,-0.0033385,0.085586,0.032336,-0.044304,-0.0035576,-0.085606
0.30568,0.15885,0.071358,0.036988,0.036486,0.052997,0.1498,0.26949
-0.22504,0.052551,0.066464,0.0030934,-0.021623,-0.14072,-0.12577,-0.064484
-0.35995,0.19626,-0.19956,0.093223,0.037079,0.038865,0.069192,-0.025255
-0.0076691,0.37672,0.053261,0.1042,-0.045808,0.092229,-0.0068269,-0.065978
0.057501,-0.40744,-0.019292,-0.1438,-0.012923,-0.01136,-0.041208,-0.022468
-0.14019,-0.28948,-0.04184,-0.065052,-0.012936,0.033203,0.090538,0.11331
0.33119,-0.15175,0.06486,0.14489,0.040126,-0.0082125,0.074835,-0.04118
-0.15029,0.71016,0.083677,-0.053152,0.0059448,-0.057416,-0.26164,-0.016869
-0.13625,0.063949,-0.030448,0.0049827,-0.021206,0.041804,0.17333,0.045955
0.42251,-0.19692,-0.080493,-0.086552,-0.017241,-0.015284,0.026894,0.077365
0.050534,-0.13142,0.06771,-0.022386,-0.012756,-0.064581,-0.037652,-0.14875
-0.19782,-0.41513,-0.038127,0.026465,0.0084081,0.034698,-0.035964,0.00096629
-0.1757,0.26887,0.031933,0.09992,0.054374,-0.014055,-0.084472,-0.043239
-0.073032,0.18264,-0.019298,-0.098243,0.00016792,0.078524,0.03701,0.023849
0.16995,-0.17041,0.033964,0.19007,-0.0060293,-0.10139,-0.029033,0.01508
0.0038271,0.13351,0.057823,-0.16028,0.0040623,0.055649,0.15682,0.18052
0.24696,-0.11659,-0.21455,-0.0014394,-0.032627,0.080755,-0.060081,-0.066064
-0.39079,0.21775,0.090669,-0.029546,-0.022885,-0.096744,0.0087246,-0.13932
-0.1517,0.10119,0.089714,0.26231,0.025085,0.038266,-0.050689,0.10056
0.65261,0.028435,-0.077477,-0.29851,-0.021702,-0.030401,0.089097,0.0043228
-0.49968,-0.26394,0.041877,0.02981,0.016498,-0.021977,-0.06551,-0.084967
0.19828,-0.069912,0.041529,0.11451,0.014942,0.078872,0.03835,0.097902
-0.016884,-0.033505,-0.10944,-0.12979,-0.01036,-0.079439,-0.023101,-0.15029
-0.32281,-0.19522,0.042698,0.094707,0.042583,0.073666,0.061011,0.022191
0.20386,0.33607,-0.009091,-0.039021,-0.036766,-0.10974,-0.13224,0.1313
0.11847,0.070216,-0.037404,0.0091064,-0.037164,0.042896,-0.040682,-0.1195
0.21767,-0.23215,0.18509,0.021022,0.02593,0.0088112,0.086149,0.15284
0.19579,0.17403,-0.30198,-0.12032,0.0040891,-0.00048113,-0.024095,-0.082882
-0.69865,-0.021476,0.22041,0.108,0.022166,0.07005,0.09103,0.10297
0.040537,0.073239,0.017821,0.28298,0.017382,-0.021722,0.050357,-0.039697
0.099388,0.036531,-0.11322,-0.42509,-0.034066,0.02088,-0.1446,-0.13586
-0.1639,-0.12436,0.092324,0.16173,-0.0075647,-0.052535,-0.00047906,-0.029055
0.25759,0.22242,0.040069,0.17467,-0.012836,-0.031499,0.06151,-0.015727
0.40218,-0.37706,-0.13775,-0.37174,0.020173,-0.018036,-0.021039,0.1781
-0.40265,0.045638,0.011628,0.11587,0.0053763,0.018708,-0.014252,-0.064282
0.10828,0.029966,-0.035364,0.028519,-0.041639,0.015903,-0.0050987,0.023003
0.17703,-0.18093,0.072957,0.039174,0.051058,0.012316,0.059669,-0.013288
-0.49283,0.20325,-0.038141,0.032212,-0.005478,0.02328,-0.087221,-0.025232
-0.16587,0.23043,0.061344,-0.021851,-0.0079629,0.048496,0.12293,0.0097723
0.39392,0.10429,0.074807,-0.043199,0.028164,-0.068557,0.07944,0.090746
-0.11626,-0.14406,-0.060063,0.078923,-0.037514,-0.023355,-0.22626,0.01367
0.27413,-0.37482,-0.030642,-0.045196,0.0061759,0.012255,0.0183,-0.19859
0.066347,0.21546,-0.078997,-0.063618,-0.012387,0.077631,0.024795,0.086717
-0.24684,-0.12464,0.091915,0.054744,-0.0070042,-0.084459,-0.072565,-0.028352
-0.22806,0.064513,-0.0098577,0.11395,0.0069372,-0.051324,0.13428,0.019705
0.64542,0.4226,-0.040301,-0.1526,0.045238,0.045156,-0.0012256,-0.0021883
-0.6039,-0.16799,-0.038269,-0.011709,-0.032644,-0.05196,-0.10248,-0.0067788
0.077744,-0.51176,0.03534,0.12917,0.0076341,0.079822,0.10502,-0.032088
0.25217,0.43121,0.06312,-0.16857,0.0096763,0.042275,0.027864,0.086478
-0.63559,-0.13457,0.0054938,0.047313,-0.03457,0.07732,-0.013987,0.091018
0.89117,0.0426,0.080457,0.16687,-0.00040447,-0.07356,0.080119,0.043367
-0.15137,-0.20746,-0.087847,-0.021042,0.033722,-0.14575,-0.19887,-0.19817
-0.074773,0.12436,-0.10174,-0.1725,-0.018434,0.039333,0.0071199,0.0058342
-0.42466,0.15595,0.12425,-0.0057061,0.030369,0.08223,-0.0062132,-0.064475
0.18318,0.18411,-0.089592,0.073894,-0.023168,-0.064688,0.041461,0.04323
-0.13281,0.020655,-0.0084899,-0.057742,-0.03068,0.082559,0.040108,0.0081869
0.35469,-0.25728,-0.022297,0.030001,0.023491,0.008357,0.012725,0.049014
-0.21392,-0.17405,0.057414,0.14255,0.006664,-0.083768,0.021521,0.17361
-0.066745,-0.066141,-0.049742,-0.05556,-0.0028377,-0.0055845,-0.074294,-0.2272
0.17605,-0.1836,0.1334,-0.079809,-0.012592,0.040731,0.084628,0.096853
0.33838,0.65356,0.083625,0.05409,0.0088829,-0.04536,-0.01716,-0.143
-0.31125,-0.062102,-0.081974,0.095901,0.030544,0.057392,-0.066698,0.045766
-0.051061,-0.2289,-0.11372,-0.27498,-0.017758,-0.064376,0.00713,0.085423
0.18552,0.24657,-0.051014,0.034904,-0.0109,0.081881,0.017968,0.093635
-0.6034,-0.19908,0.066874,0.056478,0.012145,0.07427,0.006289,-0.1634
0.30142,-0.15316,-0.017845,0.078404,-0.034501,-0.15006,0.004863,0.064978
0.17631,-0.047043,0.062244,0.04546,0.0054423,0.04893,-0.078651,-0.11111
-0.020595,0.14081,0.018419,0.0273,0.030396,-0.024738,-0.0088212,0.027806
-0.22826,0.18194,-0.039638,0.085743,-0.037844,0.01894,0.12109,0.16204
0.24763,-0.011325,-0.025852,-0.23287,0.034935,-0.047067,0.03743,-0.2237
0.0071748,0.012816,0.051828,-0.0068809,0.021926,0.081662,-0.049812,0.097068
-0.077415,-0.23062,-0.057056,-0.095441,-0.022485,-0.071502,-0.0093755,-0.016889
-0.0030501,0.19622,0.021738,0.056759,0.0029414,0.095093,0.0083754,0.12861
0.066998,-0.22078,0.045052,0.20059,-0.019262,-0.082443,-0.037622,0.024222
-0.26727,0.10691,0.019662,-0.061482,-0.0033462,-0.033617,-0.0085143,-0.12868
0.1545,0.065564,0.0071542,0.0055955,0.011562,0.046372,-0.014977,-0.0035838
0.24104,-0.083157,-0.055577,-0.12911,-0.029154,0.024711,0.0048002,-0.0079582
-0.0061251,-0.27315,-0.114,0.042128,-0.00031485,0.010656,-0.01173,-0.0095393
-0.03868,0.3655,0.12129,0.2767,0.082707,0.082126,0.060954,0.046586
-0.3466,0.0060074,-0.091088,-0.23068,-0.037619,-0.12047,0.067554,0.028572
-0.051166,-0.24258,0.093725,-0.011791,-0.025084,-0.073838,-0.1079,-0.15579
0.33776,0.53974,-0.0027534,-0.12946,0.011182,0.097039,0.0046477,0.034374
0.1406,-0.13434,0.0033851,0.072562,-0.022373,-0.045154,-0.023244,0.085218
-0.46865,0.067891,0.027027,0.11023,0.038463,0.085845,0.036037,0.10753
0.12312,-0.46556,-0.03292,-0.00031836,-0.024967,-0.087699,-0.019883,-0.093194
0.12368,-0.10321,0.0033459,-0.094459,-0.017327,-0.010751,0.059393,-0.048046
0.11613,-0.10255,-0.051847,-0.046778,0.0066494,0.066907,-0.015155,0.05499
0.21441,0.42883,0.074587,0.17413,0.046846,0.035923,0.014025,-0.0037675
-0.60907,0.063874,-0.086524,0.068146,0.017156,-0.033567,-0.048836,-0.022333
-0.12539,-0.077574,0.12067,-0.083861,-0.027931,-0.0090878,-0.024574,-0.095547
0.66632,0.14687,-0.093228,-0.16518,-0.041727,-0.016055,0.086339,0.30702
-0.070537,-0.4501,-0.017516,0.034662,-0.04001,-0.047056,-0.067988,-0.30726
-0.095769,-0.065471,0.0038723,0.054431,0.055238,0.046045,0.012284,0.030383
-0.32645,0.42234,0.033264,0.019001,0.009568,-0.0025347,-0.016607,-0.062551
0.22605,0.41496,0.023567,0.045607,0.03386,-0.0052942,-0.013978,0.070671
-0.066835,0.024736,0.044799,-0.045302,-0.020379,0.076978,-0.0032369,0.10235
0.24495,-0.5491,-0.036215,-0.050472,-0.012577,-0.10701,0.085836,0.17329
