-0.11546,-0.017623,-0.019155,0.01161,-0.00098347,0.02111,-0.0082036,-0.078509
0.12153,0.053381,0.048984,0.016484,0.0043257,0.010748,0.028451,0.030639
-0.2125,0.12769,0.15564,0.037169,0.01017,0.0088006,0.010631,0.061777
-0.35228,-0.004752,-0.011059,-0.03523,0.0011764,0.015395,0.024478,-0.071145
0.1318,0.055819,-0.044298,0.010583,0.016505,0.0070639,-0.00023364,0.15514
0.84923,-0.048461,-0.0062299,-0.036148,-0.0064113,-0.02418,-0.05572,-0.19705
-0.49657,-0.089543,-0.013939,0.019875,-0.0052733,0.007336,0.029785,0.051855
-0.12396,-0.22239,-0.098809,-0.03249,-0.027233,-0.0080378,-0.009483,-0.012176
0.13171,0.48362,0.16853,0.079832,0.044613,0.0076168,0.037309,0.095419
-0.3538,-0.20537,-0.11859,0.01263,-0.01653,0.0073501,-0.0095508,-0.023436
0.46727,0.14815,0.086242,-0.047074,-0.023296,-0.040005,-0.03279,-0.032319
-0.48234,-0.24528,-0.037683,-0.045007,-0.022588,-0.017036,-0.032223,-0.1104
0.14945,-0.17552,-0.029702,-0.012696,0.0090912,0.029689,0.0080156,0.01619
0.096962,0.22355,0.063227,0.057571,0.056226,0.037983,0.056901,0.10547
0.23433,0.13826,-0.02437,0.0018108,0.0017417,-0.015361,-0.026064,0.001087
-0.33072,0.2237,0.012579,0.015562,0.0019733,0.025998,0.048144,0.038488
0.6419,-0.24759,-0.020663,0.028835,-0.036787,-0.033331,-0.0097727,0.099714
-0.428,-0.21355,-0.068745,-0.12207,-0.028595,-0.029515,-0.08304,-0.20678
-0.26833,0.0056077,-0.013863,0.03972,0.026534,0.021477,0.054366,-0.0068427
0.38641,-0.011283,0.058442,0.0066398,0.019201,0.025496,-0.012194,0.089572
-0.46243,0.0024781,-0.00021963,-0.018096,-0.027187,-0.033483,0.013638,-0.15991
-0.32791,0.23555,0.10665,0.11389,0.027964,0.016073,0.02993,0.13558
0.66821,0.032616,0.034549,0.027415,0.0049303,0.0098536,-0.025957,0.01565
0.013247,0.0035089,-0.022168,-0.090254,-0.026012,-0.021011,-0.013266,-0.034579
-0.033161,-0.15651,-0.14256,-0.036175,0.013236,0.0094355,-0.0097143,0.0012408
0.16971,0.22399,0.0086679,-0.013522,0.013292,0.023223,0.0087648,0.061167
-0.19244,-0.37131,-0.10778,-0.053433,-0.049267,-0.041882,-0.035205,-0.073264
0.23645,0.07253,0.11771,0.086512,0.03653,0.0019555,-0.0080908,0.043239
-0.40716,-0.015427,0.037263,0.0081264,-0.01053,0.014464,0.067212,-0.027124
-0.1117,-0.0029023,-0.043749,0.016253,-0.0029276,-0.011859,-0.0043707,-0.042668
0.36966,0.13302,0.0080571,-0.0063262,0.004633,0.024763,0.019224,0.1054
-0.19126,0.33707,0.15391,0.057341,0.027716,-0.00058422,-0.01871,-0.091295
0.10418,-0.3132,-0.09839,-0.05094,-0.011902,0.0058059,0.021776,0.0153
-0.015438,-0.11514,0.047772,0.0043536,-0.012771,-0.026524,-0.039725,0.05786
-0.28108,0.12639,-0.071962,-0.097403,-0.021851,0.011612,-0.0084723,-0.03374
0.52244,-0.22891,-0.067119,0.065568,0.038956,0.034105,0.037135,0.069155
-0.3661,0.28076,0.062447,-0.0065708,-0.0021561,-0.037257,-0.0043584,-0.070128
0.041418,-0.10891,-0.08905,0.053766,-0.0043917,-0.0071284,-0.10124,-0.099033
-0.072769,-0.28701,-0.013118,-0.10444,-0.045613,-0.031602,-0.026257,-0.032214
0.10472,0.37291,0.095614,0.034994,0.01512,0.014564,0.10413,0.068535
0.02615,-0.042157,0.073527,0.12877,0.029683,0.03007,-0.02987,0.031551
0.6344,0.14791,-0.0090615,-0.16663,-0.017306,0.0073068,0.11881,0.16892
-0.7849,-0.26023,-0.082352,0.078431,0.030521,0.0088521,-0.035989,-0.098499
0.20205,0.37333,0.13394,0.12148,0.0090575,0.019002,0.091111,0.15759
-0.21266,-0.47584,-0.1505,-0.19424,-0.058466,-0.040593,-0.086506,-0.17362
0.031337,0.011619,-0.0072037,0.029118,0.015109,-0.037446,-0.1866,-0.1088
-0.0042546,0.10846,0.070672,0.0097032,0.018424,0.035894,0.071793,0.00016408
0.17325,0.23626,0.082663,0.0048237,0.021355,0.030658,-0.037764,-0.065011
-0.15344,-0.21434,-0.23671,0.037563,-0.038976,-0.037781,0.063283,0.05624
0.38478,-0.0086554,0.058626,-0.009431,0.016852,0.0023104,0.08646,0.17017
-0.21014,0.025552,0.10268,0.1217,0.0012314,0.018098,0.0010399,-0.096697
-0.10844,-0.12705,-0.064027,-0.20162,-0.031084,-0.037211,-0.036442,0.045734
-0.11375,0.27579,0.052094,-0.0023691,0.013875,0.031855,-0.04166,0.019635
0.37599,0.13233,0.07716,0.087196,0.027064,0.014557,0.070961,-0.019289
-0.25645,-0.42505,-0.23037,-0.112,-0.038017,-0.034222,0.01178,0.06051
-0.074099,0.16556,0.19207,0.17401,0.029918,0.026309,-0.12608,-0.1958
0.36756,-0.01835,0.03153,0.039352,-0.0032464,-0.022487,0.055276,0.21781
-0.34655,-0.055477,-0.095686,-0.17209,-0.012382,0.014765,0.024303,-0.19234
-0.0065827,0.124,-0.026659,0.01613,0.010314,-0.010357,0.0075321,0.065022
-0.0042923,-0.14438,-0.012584,0.033396,0.025646,0.027138,-0.096366,-0.010295
-0.036088,-0.040638,0.023594,0.012067,-0.021279,-0.0055677,0.048959,-0.034932
0.13142,0.27092,0.049819,0.061015,-0.021306,-0.022516,0.037738,0.054762
0.41939,0.016796,0.010965,-0.062417,0.017578,0.0076058,0.02665,0.080635
-0.19575,-0.099648,-0.085187,-0.10077,-0.045338,-0.063536,-0.015254,-0.13534
-0.1039,0.10203,0.074245,0.12549,0.063414,0.092309,0.0059186,0.03338
-0.0063342,-0.33769,0.005647,0.061696,0.00021649,-0.0013075,0.019864,0.20521
-0.53286,0.20821,-0.047737,-0.14345,-0.023781,-0.024008,-0.1141,-0.28312
-0.093807,-0.33592,-0.061237,0.041737,-0.016149,-0.014867,0.088335,0.13119
0.43176,0.29798,0.11483,0.00058388,0.0077097,0.0025676,-0.044731,-0.067687
0.093473,-0.23196,-0.04972,-0.032006,-0.014558,-0.026594,-0.044539,-0.091335
0.16569,0.44222,-0.038535,0.053764,0.042077,0.053617,0.049863,0.20766
0.50638,-0.031634,0.00017174,-0.01532,-0.0099991,-0.0071209,0.035317,-0.0001015
-0.52088,0.11793,0.15981,0.073215,0.032094,0.040885,0.060152,-0.0050583
-0.46023,-0.18236,-0.052714,-0.016843,-0.027296,-0.036964,-0.047687,-0.074108
0.31559,-0.24052,-0.10748,-0.1219,-0.032291,-0.022,-0.014967,-0.059791
0.090805,-0.012685,0.056411,0.085583,0.0089583,-0.023494,0.025347,0.10766
-0.27064,0.09275,0.038901,-0.019978,0.002452,-0.025547,-0.13773,-0.11866
-0.11369,-0.15181,-0.15363,-0.048484,-0.020692,0.026924,0.019319,0.0038437
0.55473,0.38649,0.11836,0.062172,0.04108,0.048403,0.098222,0.093064
-0.41908,-0.26022,-0.02071,-0.024175,-0.0074446,0.0079902,-0.018046,-0.061115
0.0622,0.10464,0.054089,0.067431,0.029235,0.0074595,0.014334,0.065473
0.19769,-0.0097722,-0.063047,0.0090294,-0.028309,-0.039077,-0.0078475,0.028026
-0.056101,0.15546,0.12879,-0.0036924,0.01555,0.040175,0.055799,-0.0013286
-0.25922,-0.25048,-0.24415,-0.17329,-0.057585,-0.043997,-0.10754,-0.11629
0.79278,0.23373,0.13214,0.071279,0.018267,-0.0026778,0.14246,0.24564
-0.70458,-0.25898,0.048232,-0.019246,0.016855,-0.0078409,-0.10055,-0.21239
-0.13475,-0.025568,-0.11165,0.11048,-0.03036,-0.028281,-0.078644,-0.13078
0.13392,0.16819,0.091051,-9.05e-05,0.064169,0.037539,0.075746,0.061144
0.16263,-0.11543,-0.10869,-0.093081,-0.02783,0.025496,-0.074307,0.04351
0.10644,0.15458,0.17198,0.10464,0.021424,0.021367,0.065554,0.12136
-0.082293,-0.18607,-0.044021,-0.048162,-0.022934,-0.053261,0.011417,0.076068
-0.036649,0.29219,0.0079826,0.12746,0.0025999,0.027768,0.075945,-0.10818
0.12652,-0.066758,-0.11076,-0.19735,-0.050938,-0.032886,-0.10045,-0.095908
-0.29505,0.0032959,0.012493,-0.046586,0.089501,0.069032,0.083228,0.073196
-0.31585,-0.15276,0.01715,0.040372,-0.052823,-0.049586,-0.014419,-0.023356
0.46361,-0.0020114,0.14446,0.11034,0.045612,0.033068,0.027693,0.1218
-0.010819,-0.39401,-0.19989,-0.070923,-0.067972,-0.065597,-0.1426,-0.17121
0.057476,0.21217,-0.070742,-0.042282,-0.025827,-0.0091316,-0.0020896,-0.12104
0.26108,0.42712,0.30562,0.22774,0.063367,0.023517,0.0040658,0.1476
0.074775,0.21186,0.031427,-0.065326,0.028444,0.025386,0.14202,0.19756
-0.40181,-0.51303,-0.2517,-0.061859,-0.044052,-0.0027125,-0.056246,-0.15836
-0.41229,-0.10952,-0.058155,-0.13652,0.0025338,-0.0054585,-0.074353,-0.029448
0.57412,0.044028,0.019675,-0.0075861,0.0199,0.0096796,0.041408,0.045092
-0.52789,0.40515,0.10808,0.0677,-0.015533,0.027087,0.033513,-0.036635
0.48633,0.10411,0.11435,0.066493,0.020842,-0.016042,0.042531,0.045228
-0.084486,-0.023907,5.44e-05,0.098645,-0.012173,-0.010881,0.021223,-0.030091
-0.30135,-0.36794,-0.1097,-0.077788,0.0097641,-0.012803,-0.015342,0.057353
0.39094,-0.4551,-0.20753,-0.087868,-0.062435,-0.030335,-0.20839,-0.16139
-0.1178,0.19735,0.15095,-0.010098,0.067553,0.037433,0.11345,0.094928
0.3578,0.12774,0.089466,0.0064261,-0.04598,-0.044412,-0.011091,-0.025079
-0.34145,0.076686,0.1612,0.14054,0.0577,0.051857,0.027215,0.041399
0.22676,0.16507,-0.25251,-0.16339,-0.074541,-0.0021358,0.11901,0.10724
-0.32253,0.033132,0.058047,0.078136,0.057464,0.03569,-0.1106,-0.13184
0.072632,0.097588,0.076495,0.13005,0.032151,-0.0064891,0.026083,0.035506
0.054339,-0.19041,-0.13478,-0.062628,-0.056322,-0.026892,-0.033231,-0.030921
-0.70222,0.20278,0.026327,-0.11694,-0.02,-0.071995,-0.085144,-0.088522
0.5262,0.035886,-0.087616,-0.071264,0.00092848,0.038445,0.17534,0.12091
0.13487,-0.36896,0.040231,0.075448,0.030258,0.031654,-0.032663,0.050813
0.36964,0.032439,0.043694,-0.042758,0.0057028,-0.0057486,-0.044715,-0.017359
-0.11929,0.32861,0.040418,0.10645,-0.010202,-0.018473,-0.071361,-0.1461
-0.23093,-0.072955,0.03007,-0.031007,0.01364,0.025159,0.03619,0.070645
-0.36658,-0.49257,0.08963,0.013536,-0.0012042,0.015971,0.067272,0.02304
0.21919,-0.19805,-0.095127,-0.034208,-0.01606,-0.022642,0.014211,-0.0083381
0.39603,-0.008264,0.11455,0.30867,0.054636,0.034062,-0.044905,0.045965
0.041664,0.62622,-0.087539,-0.27212,-0.023755,-0.025255,0.0068894,0.020944
-0.058564,0.24543,-0.17861,0.026448,-0.056002,-0.029187,-0.04175,-0.021791
-0.35931,0.033921,-0.0097546,-0.18739,-0.03417,-0.032888,0.019556,-0.0048065
-0.22667,-0.14151,0.076832,0.054771,0.049848,0.025723,-0.0051793,-0.17065
-0.071128,-0.39633,-0.19773,0.02692,-0.030141,0.0056711,0.039561,0.13695
0.29233,0.25824,0.23168,0.019433,0.069952,0.055118,-0.042258,-0.034718
0.033631,-0.16164,0.12524,0.25286,0.030019,0.041059,0.076867,0.065049
0.25948,0.029784,-0.046714,-0.25524,-0.017107,-0.028774,-0.009728,-0.00037885
-0.042438,-0.0058206,0.2321,0.09845,-0.0090761,-0.076193,-0.020895,-0.019144
-0.035271,0.12054,-0.093191,-0.075348,-0.047701,-0.04628,-0.042288,0.0096239
0.11553,-0.028505,-0.39829,-0.033672,-0.039491,0.045726,-0.096663,-0.1008
0.17249,-0.16139,-0.043404,0.059589,0.05443,0.044053,0.12949,0.27524
-0.6416,-0.015402,0.16616,0.032176,0.015254,-0.019572,-0.06576,-0.27579
0.060351,0.080519,0.15978,0.1567,0.014926,0.027085,0.14689,0.09811
0.23677,0.048836,-0.039108,-0.24763,-0.024509,-0.026755,-0.1066,-0.11064
-0.26986,-0.02333,-0.016426,-0.0023216,-0.032528,-0.0092954,0.0024809,0.074539
-0.28788,0.20093,0.032319,0.055522,0.030114,0.032286,-0.0023355,-0.0029354
0.58135,-0.48131,-0.27637,-0.036059,-0.024001,0.042859,0.01918,0.02337
0.087854,0.11653,0.017085,-0.051379,0.008188,-0.063993,-0.0041214,0.042876
0.05128,0.57078,0.34031,0.12599,0.063951,0.016031,-0.04214,-0.0084938
0.064002,-0.28485,-0.12962,-0.05929,-0.075825,-0.076646,0.044467,-0.077796
0.061836,0.27441,0.2139,0.18913,0.072822,0.048629,0.074807,0.14585
-0.37054,0.0060192,0.14196,-0.0040207,0.048609,-0.0063413,0.0010908,0.083178
-0.21754,-0.74444,-0.41702,-0.12299,-0.086114,0.055689,-0.091198,-0.27399
0.085033,-0.13662,-0.17359,-0.19051,-0.065582,-0.022703,-0.061332,0.051524
-0.076543,0.2267,0.046401,0.044721,-0.022161,-0.069353,-0.072745,-0.14966
0.20873,0.18929,0.020395,0.10801,0.037015,0.079903,0.10994,0.085675
-0.046237,-0.01478,0.019074,-0.029776,0.050199,0.026491,0.066004,0.12729
0.23321,0.38576,0.25074,0.13341,-0.03667,-0.12839,-0.03169,0.079068
-0.11439,-0.21592,-0.1788,-0.17432,0.081415,0.13818,0.098765,-0.072972
-0.080961,0.046183,0.092306,0.063375,0.013741,0.013151,-0.011191,-0.039175
-0.035924,0.15955,0.21268,0.025913,-0.029232,-0.10551,-0.13524,-0.023203
0.37582,-0.4847,-0.25728,0.024498,-0.024821,0.047595,-0.00050668,0.067148
0.086298,0.38614,0.23322,0.12733,0.018319,-0.043076,0.025138,0.081204
-0.41005,-0.025126,-0.20361,-0.20726,-0.11929,-0.080231,0.0035494,-0.10853
-0.18024,-0.45138,-0.28377,-0.0053241,0.046255,0.1712,0.059266,-0.066827
0.062143,0.34617,0.19941,0.019975,0.085146,0.0089482,-0.018848,0.0093405
-0.18331,-0.0075076,0.15716,0.0078277,-0.049292,-0.12083,0.042728,0.15828
0.43666,-0.11865,0.010345,0.12187,0.0027575,0.032559,-0.16975,-0.22916
-0.1529,-0.21606,-0.099591,-0.12947,-0.0081447,-0.030496,0.039511,0.082492
0.090846,-0.0039038,-0.03742,-0.033676,0.020111,0.04939,0.022538,-0.014478
-0.20352,0.32917,-0.15903,-0.033848,-0.0057996,0.076516,0.084373,-0.018179
0.38078,0.17127,0.14102,0.067822,0.023731,-0.051413,0.0063776,0.11997
0.048396,0.36154,0.17101,0.10181,-0.0084604,-0.038463,0.0071434,0.073086
-0.41116,-0.67736,-0.26178,-0.12538,-0.04003,0.044081,-0.0074479,-0.11918
0.39239,0.3658,0.25794,0.098248,0.022505,-0.093651,-0.092534,0.019733
-0.42444,-0.51942,0.081431,0.093175,-0.016457,0.032237,0.071824,0.059661
0.16122,0.10909,-0.13669,-0.1256,0.085051,0.11701,-0.061412,-0.12507
-0.28843,-0.064269,-0.055177,-0.051466,-0.040236,-0.073328,-0.015571,-0.058555
0.36721,0.075202,-0.067366,-0.068781,-0.079715,-0.092682,-0.032487,0.086869
-0.25467,0.61172,0.19159,0.17243,0.045014,0.059948,0.16958,0.045348
0.25963,-0.45562,-0.25636,-0.10272,-0.048476,-0.012843,-0.10418,-0.073795
0.057567,0.03707,0.072762,0.01084,0.046452,0.02573,0.09187,0.018493
0.0046435,-0.32381,-0.054772,-0.0033877,0.017557,0.027693,-0.13281,-0.013851
0.098587,0.50175,0.14365,0.057157,0.0054907,-0.038244,-0.044053,0.016315
-0.60057,-0.41475,-0.11155,-0.081249,-0.013445,0.046117,0.14672,0.069301
0.42059,0.27165,0.19673,0.20637,0.061786,0.022002,0.071669,0.11304
-0.011226,-0.18818,-0.16498,-0.21256,-0.035129,0.036691,-0.058919,-0.18141
-0.099486,0.19039,0.20977,0.13904,0.023238,-0.059348,-0.034607,0.06036
0.39891,-0.069755,-0.10925,-0.10523,-0.11522,-0.14189,-0.089948,-0.052364
-0.4749,-0.1263,-0.068356,-0.05372,0.0023575,0.030943,-0.04504,-0.065947
-0.24147,0.13571,-0.012457,-0.0099476,0.047911,0.076583,0.10069,0.028534
0.26645,0.11197,0.041867,0.081921,0.068679,0.073827,0.0042737,-0.040846
0.051691,-0.23162,-0.069929,0.050959,-0.083215,-0.09359,-0.021002,0.040004
0.19425,0.21975,0.11321,0.03838,0.022527,0.0049591,0.048858,0.061434
0.13995,-0.019699,-0.087708,-0.018174,-0.0042018,-0.012619,0.11247,0.18816
-0.13558,0.042276,-0.13256,-0.18151,0.016602,0.049315,-0.18198,-0.26749
-0.40001,-0.18634,0.22202,0.13362,0.014677,-0.012514,0.118,0.068482
0.28934,-0.28815,-0.038648,-0.042456,-0.0023621,0.02786,-0.16813,-0.047746
0.21904,0.25694,0.062496,0.062705,0.0041694,-0.0023415,0.044657,0.09281
-0.41737,-0.23371,-0.13093,-0.044009,-0.020849,0.013084,0.11499,0.042991
0.25456,0.27545,0.075631,0.082024,0.031606,0.01084,0.042413,0.02802
-0.14721,0.61545,0.063791,-0.059543,-0.057363,-0.10319,-0.1184,-0.14792
-0.363,-0.73617,-0.10536,-0.10147,-0.0063793,0.0071339,-0.0389,-0.11714
0.68005,0.19606,-0.065913,0.027011,0.0052695,0.022329,0.016106,0.090523
-0.34372,-0.11403,0.040665,-0.0014665,-0.029621,-0.064129,-0.022604,-0.10097
-0.20598,0.13455,0.17516,0.14217,0.10058,0.085209,0.049246,0.13878
0.60161,0.48491,0.088228,0.060428,0.021528,0.010825,0.029515,0.11646
-0.078103,-0.9018,-0.3671,-0.21459,-0.086622,0.0027975,0.028204,0.028636
-0.41918,0.082333,-0.048123,0.020827,0.0029168,-0.0087878,-0.079534,-0.11653
0.63009,0.27348,0.047443,0.063856,0.016637,0.061693,0.17473,0.12568
-0.48801,0.14994,0.2107,-0.023072,0.0010571,-0.060164,-0.13941,-0.16793
-0.36969,-0.62156,-0.17427,-0.037263,-0.020984,-0.0086039,-0.077531,-0.092845
0.38214,0.40706,0.13481,-0.034189,0.0513,0.035048,0.046916,0.10699
0.072152,0.30814,0.26175,0.26634,-0.025142,-0.079199,-0.048121,-0.030917
0.07653,-0.097262,-0.084835,-0.066549,0.030085,0.069308,0.19148,0.17982
-0.10272,0.0025271,-0.24387,-0.17466,-0.057201,-0.051412,-0.1174,-0.1677
-0.4242,-0.27748,-0.13245,-0.066723,-0.021933,0.0037764,-0.0060369,0.020135
0.69233,0.50502,0.31733,0.17075,0.065252,-0.038238,-0.021118,0.0013982
-0.40792,-0.74685,-0.45843,-0.15768,-0.076962,0.081055,-0.0060635,-0.035849
0.23663,0.47996,0.32921,0.12016,0.075032,-0.012444,0.031706,0.057568
0.031976,-0.19894,0.10316,0.098639,0.021619,0.010324,0.061316,0.055879
0.13355,-0.19793,-0.13463,-0.14328,-0.010077,0.033008,-0.041942,-0.0010866
-0.44404,0.17127,-0.077074,0.020339,-0.034972,-0.0062188,-0.04351,-0.11263
-0.0219,0.48835,0.26269,0.12167,0.010255,-0.091242,-0.029252,0.018744
0.25907,-0.23688,-0.10538,-0.11969,-0.02196,0.020453,0.18833,0.16705
-0.31951,-0.43211,-0.25791,-0.062368,-0.052646,0.016556,-0.16425,-0.17501
0.23539,0.14665,0.0089211,-0.080852,0.02828,0.014325,-0.0010891,-0.10857
-0.036084,0.57115,0.37465,0.1845,0.057204,-0.025355,0.0059272,0.12451
0.50767,-0.47787,0.049298,0.18678,0.034231,0.053586,0.020874,0.086807
-0.46079,0.05499,-0.28113,-0.26186,-0.03311,-0.038224,0.035955,0.02035
-0.16783,-0.040781,0.10824,0.11924,0.018618,0.011292,-0.042595,-0.090962
0.058202,-0.31187,-0.22953,-0.17846,-0.045818,0.014133,0.058582,0.025576
-0.072415,0.51504,0.094954,0.047406,-0.024225,-0.061475,-0.1216,-0.099681
0.49405,0.064496,0.088774,0.05398,0.051308,0.057428,0.12757,0.16515
-0.31389,-0.32069,-0.006131,-0.0030254,-0.030768,-0.027953,-0.092583,-0.14171
0.057282,-0.34505,-0.056835,0.086965,-0.0051267,0.025954,0.092749,0.096326
-0.018492,0.88803,0.17913,0.050336,0.057953,0.047335,-0.035277,-0.0038706
-0.14349,-0.52975,-0.27454,-0.23008,-0.075581,-0.041616,0.07031,-0.036015
0.057009,0.14179,0.10573,0.042772,0.008852,-0.068462,-0.16829,-0.077864
0.012863,0.13541,0.13235,0.025467,0.014966,0.0065962,0.022891,0.058717
0.091786,-0.33881,-0.08549,-0.016019,0.013599,0.012472,0.082052,0.093276
-0.025825,0.31294,0.20197,0.090477,0.051979,-0.0032895,-0.083858,-0.098356
0.25447,-0.28333,-0.2397,-0.014288,-0.057289,0.053449,0.080393,0.093932
-0.75438,-0.45403,-0.23058,-0.033488,-0.01748,0.049848,-0.0030859,-0.079325
0.33055,0.29502,0.11278,-0.0063635,-0.016468,-0.077083,-0.014165,-0.078809
0.20422,0.42651,0.24453,0.18408,0.070245,-0.00011502,0.015296,0.064173
0.3659,0.35568,0.017532,-0.19656,-0.015668,-0.017283,0.021841,0.09144
-0.19309,-0.07313,0.011372,0.023851,0.03789,0.096774,-0.019096,-0.028878
-0.32508,-0.33616,-0.12407,-0.11501,-0.034872,-0.041764,-0.0070391,-0.00067645
-0.053764,-0.2219,-0.090616,0.067476,-0.061939,-0.0038015,-0.044366,-0.027851
-0.28496,-0.11967,0.026807,0.048922,-0.003792,-0.078436,0.016986,-0.0016408
0.49807,-0.1445,-0.13847,-0.021334,-0.023794,-0.0072951,0.075607,-0.0083136
0.10944,0.3156,0.26495,0.013423,0.081975,0.015375,-0.14128,-0.063479
-0.16011,-0.12766,-0.045204,-0.034509,-0.029528,-0.016871,0.047063,0.028512
0.15958,0.20642,0.030702,0.17766,0.071832,0.13174,0.0012216,0.080709
-0.36036,0.035497,-0.03346,-0.19542,-0.035744,-0.053237,0.050472,-0.085963
0.030128,0.28566,-0.0064425,0.070788,0.014622,0.03049,-0.007457,0.044631
0.15852,-0.17389,0.15556,0.22428,-0.035512,-0.062184,-0.031535,-0.019408
0.10949,0.14201,-0.042084,-0.25211,0.00054842,0.01218,0.12658,0.081317
0.15492,-0.48447,-0.31164,-0.070024,-0.026449,0.018485,-0.080511,0.057545
-0.22229,0.019598,0.065756,0.028715,0.01564,-0.0051709,-0.020804,-0.12228
-0.18722,0.48796,0.099515,-0.048193,0.017037,-0.028559,-0.046743,-0.075621
0.088056,-0.39817,-0.020048,0.092133,0.024527,0.017719,0.028408,0.041188
-0.067692,-0.21946,0.023094,-0.0086292,-0.047608,-0.031081,-0.038054,0.048598
0.096937,0.22759,0.029412,-0.0043096,-0.019214,0.004346,0.081783,-0.037419
0.154,-0.40675,-0.16993,0.020874,0.032194,0.10048,-0.018265,0.025769
-0.50429,0.49615,0.23173,0.051964,-0.0021293,-0.094062,-0.056688,-0.019261
0.74796,-0.033295,0.016329,-0.028726,0.0033434,-0.024231,0.04498,0.015168
-0.56602,0.31284,0.25358,0.23823,0.056759,0.013547,-0.0098205,-0.04297
0.10703,-0.099456,-0.36276,-0.2587,-0.044913,0.058781,0.060377,0.087067
0.17083,-0.2444,-0.2645,-0.10774,-0.036189,0.018083,-0.002154,0.076349
-0.0027963,0.33813,0.34309,0.11103,0.043543,-0.037994,-0.080256,-0.10731
0.55175,-0.31511,-0.21371,-0.0958,-0.040522,-0.0077838,0.068162,0.082082
-0.87878,0.083133,0.11851,0.005836,0.03148,-0.031921,-0.096067,-0.21542
0.27508,-0.013531,0.15929,0.14304,0.0013608,-0.0089307,0.012919,0.023451
-0.51691,-0.14791,-0.021285,0.02795,0.048566,0.092314,0.10603,0.11933
0.16991,-0.2493,-0.16531,-0.11132,-0.10041,-0.064252,-0.12923,-0.091151
0.55039,0.13179,-0.061544,-0.031021,0.0076834,0.029075,0.088427,0.13513
-0.25399,0.15855,0.18105,0.043607,0.029357,-0.0027663,0.087138,0.033539
0.2448,0.10469,-0.05433,0.089961,0.0040339,-0.026979,-0.10182,-0.074754
-0.27127,-0.014347,0.0060664,0.0067385,0.0023976,-0.035718,-0.10338,-0.11097
-0.2313,-0.10693,0.010906,-0.13606,0.024756,0.041391,0.14503,0.12839
0.58231,0.18919,-0.0083891,0.020137,-0.0068206,0.024723,-0.083011,-0.1222
-0.059455,0.22543,0.096793,0.099223,0.017106,-0.007552,0.04079,0.15275
-0.05035,-0.13372,-0.18893,-0.13443,-0.083207,0.0070821,0.016605,-0.07058
-0.26061,-0.39258,-0.01366,0.083631,0.020216,0.0061313,-0.022613,0.043253
-0.54417,0.10044,0.083962,0.057118,0.030298,-0.033816,-0.022088,-0.1079
0.46486,0.19303,0.0027994,-0.097384,0.02494,0.012318,0.080698,0.092586
0.34438,-0.26551,-0.045868,-0.044109,-0.011698,-0.011565,-0.089301,-0.051097
0.048103,0.2402,0.18032,0.17036,-0.0016728,0.004122,0.10063,0.11694
-0.1182,-0.35078,-0.14678,-0.14857,-0.038855,-0.018516,-0.11527,-0.11443
-0.2315,0.11275,0.097661,0.078284,0.0016993,-0.032423,-0.041859,-0.10468
-0.29084,0.11044,-0.070988,-0.015018,0.034063,0.10308,0.18005,0.16968
0.48557,0.14473,-0.0044918,-0.091277,-0.012023,-0.03401,-0.1529,-0.041321
-0.05846,-0.017739,-0.093573,0.038083,-0.0036769,0.0091145,0.068382,-0.034525
0.20953,0.067595,0.044598,0.076897,-0.0033421,-0.018028,0.085797,0.080647
-0.015714,-0.21111,-0.027425,-0.0215,0.051508,0.040251,-0.069683,0.015039
-0.43781,0.29096,0.073153,0.00036267,-0.065695,-0.06658,-0.077945,-0.082996
0.30254,-0.40673,-0.0054331,-0.0067959,0.012208,-0.026426,0.021882,0.028751
-0.53627,0.27056,0.13482,-0.0051055,0.027383,0.051136,0.050201,0.0067369
0.72667,0.26619,0.071454,0.10568,-0.0045408,-0.02136,-0.039616,-0.015783
-0.37568,-0.58397,-0.23523,-0.12878,-0.013199,0.045408,0.080923,-0.030338
0.041339,-0.12176,-0.059148,0.017209,-0.014108,-0.013747,-0.1112,-0.067404
0.057403,0.10156,-0.041126,-0.097388,0.016316,0.020486,0.025072,0.0065765
-0.0062563,0.13696,0.1236,0.066551,-0.015517,-0.062222,0.1229,0.19996
