0.0077237,-0.02009,-0.051154,-0.022604,-0.019637,0.20111,0.21212,0.14925
0.058675,0.049933,0.013731,-0.0056736,0.0043108,0.093016,-0.11798,-0.096078
-0.03931,0.043291,0.015985,0.010995,-0.0032753,-0.13163,0.087215,-0.47656
-0.060547,-0.049721,0.0021809,0.003837,-0.003387,-0.091109,0.028807,0.24071
0.048813,0.026577,0.073626,0.019653,0.011789,-0.020951,-0.30317,0.046408
0.04596,-0.057958,-0.066735,-0.011881,0.011049,-0.00030635,0.050389,0.048739
0.0087841,0.070139,-0.028364,-0.020408,-0.0055261,0.14191,-0.060187,0.30194
0.039149,0.1367,0.040331,0.017607,0.0090356,0.1943,0.02087,-0.49809
-0.19016,-0.084587,-0.063631,-0.022706,-0.023288,-0.21035,0.30156,0.32237
0.064511,-0.54563,0.074054,0.030673,-0.00083827,-0.12628,-0.076818,-0.40547
-0.046584,0.27896,-0.0072525,-0.0018114,-0.0094758,0.04901,0.0039141,0.21303
-0.029411,0.1883,-0.041618,-0.026303,0.013345,-0.081604,-0.087925,-0.21609
0.070619,-0.010889,-0.028768,0.0041384,0.012941,0.13183,0.023838,0.32694
0.08234,0.30784,0.14088,0.050477,0.020526,0.034495,-0.12063,-0.006371
-0.088285,-0.33144,-0.055966,-0.027916,-0.010839,-0.10687,-0.14539,-0.19124
0.23713,0.078994,-0.033294,-0.012304,-0.026533,0.10674,0.26258,0.38095
0.025259,-0.039421,-0.025432,0.0035513,-0.0031562,0.12845,0.11894,-0.26919
-0.27321,-0.06207,-0.02453,-0.050664,-0.011013,-0.16724,-0.16289,-0.1071
0.019144,0.065834,0.047566,0.028177,0.020273,-0.0076627,0.1111,0.3617
-0.17742,-0.022098,-0.035688,0.013503,0.012685,0.043869,-0.21713,-0.39964
0.17546,0.027154,0.17101,0.1084,0.052288,0.033614,0.24894,0.1587
0.046798,-0.33931,-0.12928,-0.093435,-0.071742,-0.22626,-0.46898,0.056868
0.047051,0.10663,-0.014755,-0.037409,-0.046843,0.045403,0.85467,0.098285
-0.10348,0.16255,0.014454,0.018586,0.025396,-0.065513,-0.52226,-0.41921
0.0031099,0.085519,-0.065241,-0.050523,0.004207,0.14386,0.17501,0.085495
0.11829,0.39656,0.050634,0.083322,0.068997,0.2588,-0.30088,0.17154
-0.10849,-0.15052,0.0023878,0.0059839,0.024063,-0.23742,-0.19632,-0.093428
0.026403,-0.64664,0.016125,-0.017007,-0.037282,0.52885,0.094123,0.40489
0.1402,0.37954,-0.0025128,-0.024832,-0.045109,-0.60768,0.019049,-0.16554
-0.064253,-0.076447,0.016075,0.029261,0.0081749,-0.21796,0.4552,-0.46657
-0.1264,-0.0098141,0.024311,-0.018883,-0.010212,0.19828,-0.097858,0.017646
-0.038728,0.10185,0.021661,0.018215,-0.0062132,-0.076367,0.14611,0.254
0.058007,-0.060628,0.086051,0.0078292,0.020713,0.44472,-0.2786,0.56701
-0.015841,0.021544,-0.29789,-0.06546,-0.014696,-0.17317,0.31752,-0.18867
0.1617,-0.037469,0.019017,0.033042,0.0054152,-0.028708,-0.20399,-0.11963
-0.24533,0.07282,0.014424,0.0068472,0.019075,-0.29132,-0.35523,-0.449
0.12217,-0.1962,0.025515,-0.010829,0.026565,0.14219,-0.54462,-0.16418
0.04484,0.33295,0.20966,0.058482,-0.0033707,0.076986,1.0641,-0.1415
0.013959,-0.48376,0.036425,-0.050613,-0.039759,0.059144,-0.43276,0.59588
0.13009,0.54389,-0.087549,0.0057116,0.041934,0.4226,0.42991,0.1744
-0.045131,-0.036513,0.025333,0.016427,-0.024463,-0.65585,-0.045985,0.28362
-0.11367,-0.56222,-0.12497,-0.042154,-0.051967,0.12515,-0.25371,-0.36324
-0.30187,0.29967,-0.12438,0.017088,0.029334,0.19205,-0.23548,-0.084235
0.22704,0.29492,0.042919,-0.0016325,0.00044918,-0.39529,0.32498,-0.47093
-0.11944,0.028163,0.12725,0.033987,0.025359,0.22853,-0.14792,-0.083729
0.15215,-0.020677,0.011722,0.014082,0.033799,0.25027,0.23754,0.71209
0.10519,-0.32379,-0.006762,-0.022687,-0.044413,-0.18927,-0.20652,-0.25383
0.18523,-0.31284,-0.030203,-0.037511,-0.029427,-0.22194,0.064907,0.6289
-0.1708,0.035222,-0.051816,-0.0070166,0.0086066,0.1459,0.10331,-0.64713
-0.19839,0.02598,0.098686,0.014244,0.0073152,-0.013686,-0.27533,-0.44134
0.14803,0.85637,0.044335,0.018768,0.060537,0.42607,-0.25579,0.6444
-0.10141,-0.057819,0.040913,0.0069863,-0.026981,-0.42376,0.67984,-0.085521
0.091872,-0.55894,-0.15548,0.0028219,-0.0051781,0.055622,0.080822,0.048468
-0.076562,0.1898,0.032276,-0.0010597,-0.022386,-0.0092644,-0.44045,0.24963
0.066167,-0.63934,-0.0052426,0.019197,0.03095,0.19555,0.1438,-0.48956
-0.16595,0.58654,-0.087341,-0.053277,-0.055847,-0.24262,-0.32429,-0.54389
-0.091657,0.08617,-0.024601,-0.015166,0.0065868,0.02104,0.53107,0.28945
0.39964,0.19558,0.083901,0.024191,0.0075784,-0.40362,-0.56026,0.556
-0.035346,-0.10839,0.084513,-0.013467,-0.044935,0.26421,0.97775,0.089069
-0.045537,-0.39557,-0.0049178,0.06687,0.098939,0.13224,-0.96454,0.10354
-0.12452,-0.48566,-0.050108,0.0069503,0.016943,0.76794,-0.26139,-0.24108
-0.14153,0.81712,0.074447,-0.037486,-0.041555,-0.39487,0.73618,0.19946
0.55745,-0.29979,-0.10828,-0.0044208,0.03986,-0.17246,-0.4103,-0.34316
-0.48266,0.30335,0.056694,0.0042271,0.010448,-0.53651,-0.095084,-0.080031
0.0025791,0.23401,0.083271,-0.042945,-0.091256,0.21479,0.55747,-0.58653
0.12244,-0.35425,-0.13976,-0.013048,-0.03886,0.066621,0.45053,0.80673
0.065478,0.16842,0.096949,0.047322,0.019444,0.053029,-0.36756,-0.22153
-0.14279,-0.45061,-0.16861,-0.0020568,0.0061434,0.037583,-0.38181,-0.15675
-0.1637,0.25583,0.11776,0.026742,0.093951,-0.20943,-0.6794,-0.017366
0.18529,-0.25142,-0.19228,-0.029987,-0.020941,0.54269,0.42683,0.40953
-0.077778,0.13066,0.17515,-0.00014508,-0.048734,-0.38306,0.86848,0.25512
0.26738,0.045518,0.15029,0.038214,0.042282,0.41253,-0.25578,-0.063493
0.15084,0.43438,-0.19608,-0.032151,-0.029021,-0.65779,-0.19538,0.40016
-0.18591,-0.32367,0.26123,0.038628,0.01841,0.27789,-0.28244,-0.71208
-0.30687,-0.076288,-0.2825,-0.062088,-0.0033658,-0.097173,-0.15116,-0.43599
0.20021,0.070419,0.12565,0.0015342,0.0066528,0.45462,0.17511,0.1571
0.021093,-0.37345,-0.20204,-0.028366,-0.022395,-0.12541,-0.15514,-0.015745
-0.15021,0.5228,0.093715,0.027893,0.034073,0.19147,0.028372,-0.19028
0.10739,-0.296,0.1459,0.045304,-0.058522,-0.94673,0.69768,0.46986
-0.097104,0.13689,0.16587,0.047258,0.020158,0.41495,-0.16321,-0.058577
-0.021693,0.028987,-0.4082,-0.099174,-0.042168,0.006939,0.40274,0.13633
0.25519,-0.17106,-0.098901,0.012085,0.043885,0.045181,-0.51717,0.32994
-0.048314,0.26619,0.15714,0.060516,0.075506,0.11283,-0.78199,-0.097273
-0.042539,0.3439,0.36854,-0.047816,-0.072102,-0.059728,0.89822,-0.17492
0.19326,-0.80867,-0.15164,-0.023976,-0.0082918,0.083833,-0.34086,0.088323
-0.31847,0.048842,-0.13745,-0.008633,0.0089541,0.089342,-0.25143,-0.50452
0.11711,0.26842,-0.0028815,0.021696,0.010561,2.7819e-05,-0.012553,0.030185
-0.093404,0.11835,-0.068374,0.051503,0.050824,0.029075,0.50371,0.12358
-0.0034343,0.048565,0.13454,-0.020606,-0.065924,-0.28301,0.03615,-0.024628
-0.13432,-0.11476,-0.10555,0.0086934,0.019491,0.20637,0.33179,0.077319
0.071203,-0.26387,-0.039355,-0.024438,0.0024098,0.14158,-0.87061,0.10349
0.36581,-0.36992,0.035207,-0.049452,-0.070001,-0.5569,0.30726,0.20648
-0.045082,0.74249,0.24953,0.058885,0.052769,0.36261,-0.40628,-0.327
-0.034834,-0.30862,-0.31997,-0.0039107,-0.0036513,-0.25167,0.35615,0.51705
-0.29015,0.45102,0.14521,-0.026769,-0.0042874,0.013015,0.50731,-0.39559
-0.029851,0.070927,0.23733,-0.0096746,-0.034663,0.24207,0.09957,-0.10554
0.018602,-0.56535,-0.12255,0.070682,0.10845,0.0046961,-0.61184,-0.42746
0.28325,0.50344,0.042458,-0.035983,-0.04394,-0.23325,0.33976,0.49465
-0.23821,0.13043,-0.34408,0.013676,0.031002,0.63991,-0.5308,-0.10222
0.35774,-0.50027,-0.27138,-0.023,-0.042529,-0.42324,-0.16027,0.047785
-0.26776,-0.17734,0.44405,0.02541,0.00022367,0.097637,0.32073,0.25465
0.11692,-0.58413,-0.037678,-0.044573,-0.04461,-0.11485,-0.17082,-0.19765
-0.16223,0.3645,0.059938,0.024676,0.03343,-0.19135,0.50843,0.40269
-0.075163,0.35635,-0.13669,-0.040262,-0.00015088,0.22994,-0.2492,-0.288
0.16706,0.70333,0.29365,0.042082,0.0033343,0.1213,0.78297,0.25446
-0.16895,-0.082273,0.012275,0.02992,0.021007,-0.55125,-0.96683,-0.49847
0.2234,-0.57009,0.046173,-0.021542,-0.06356,0.31285,0.64728,-0.47095
-0.043992,-0.34153,-0.093866,0.005462,0.055142,0.14377,-0.50257,0.36902
-0.077785,0.37811,-0.17777,-0.021314,-0.012763,0.060206,-0.48137,0.14191
0.077748,0.31488,-0.098948,-0.046699,0.014532,-0.11551,0.40457,-0.0069256
-0.083041,-0.4068,-0.20961,-5.5819e-05,-0.011108,-0.18604,0.21706,0.021128
0.035118,0.5971,0.21836,0.087471,0.035348,0.08464,-0.098725,0.53469
-0.059187,-0.30168,0.055432,-0.02646,-0.04943,0.11955,0.2931,-0.25295
0.10282,-0.39899,0.39175,0.056191,0.046696,0.16932,-0.71733,-0.15347
0.083046,-0.19722,-0.31542,-0.04798,-0.043888,-0.13285,0.62661,0.46572
-0.096124,-0.1953,-0.08632,-0.034958,0.0065374,0.19789,-0.27063,-0.677
-0.0062377,0.22681,0.010362,-0.022572,-0.052358,-0.19691,0.88585,-0.089314
-0.11725,0.59486,0.052547,0.043365,0.068255,-0.42511,-0.53039,-0.28579
0.11673,0.24437,0.15547,-0.017132,-0.014589,0.023169,-0.49601,0.18066
-0.16442,-0.36073,0.065882,0.0068011,-0.0041207,-0.021844,0.20167,0.53064
0.21849,-0.019436,-0.14202,0.029356,0.060504,0.60543,-0.78522,0.17929
-0.094356,-0.19954,-0.24542,-0.027317,-0.063,-0.32129,0.99367,-0.1707
0.060635,0.29183,0.37777,0.024643,0.0080798,0.31384,-0.4642,-0.23258
-0.051549,0.01326,-0.45365,-0.064386,-0.02321,0.00010981,0.49381,0.1302
-0.025479,-0.0072283,0.18232,0.057499,0.054042,0.1243,-0.37258,-0.20477
0.14573,-0.19991,0.045048,-0.015695,-0.049172,-0.48156,0.86531,0.13195
-0.156,-0.10824,0.082501,0.028687,0.042302,0.031144,-0.60893,0.018297
0.11561,-0.65393,-0.038099,-0.02024,-0.022849,-0.28418,-0.26998,-0.033469
-0.09424,0.62829,-0.016789,-0.029692,-0.025545,0.026266,0.40672,0.061466
0.12126,0.16769,0.14896,0.031506,0.026774,0.58205,-0.47528,-0.031372
-0.11941,0.16071,-0.42983,-0.0085971,-0.0061571,-0.19942,0.90855,0.31706
-0.040868,0.25689,0.56002,0.029644,0.02439,-0.010046,-0.87196,-0.62926
0.023269,-0.30953,-0.31919,-0.025634,-0.014233,-0.34726,-0.14986,-0.066042
-0.12782,-0.11879,0.16605,-0.01811,-0.028276,0.60249,-0.20854,0.24071
0.10143,-0.13618,-0.032327,-0.025803,0.0055151,-0.4662,0.27181,-0.17946
0.055662,0.11611,-0.2827,0.045131,0.039909,0.52241,0.70477,0.47381
0.32833,-0.45648,0.15614,-0.031835,-0.019332,-0.48208,-0.0913,0.059966
-0.2305,0.74501,-0.075895,0.032283,0.022561,0.49303,-0.26148,0.020874
-0.13885,-0.42427,0.083235,0.041969,-0.022427,-0.6258,0.31969,-0.11078
0.045732,0.27233,0.078444,-0.010903,0.032825,0.47986,-0.59983,-0.10858
0.023666,-0.070011,0.010826,-0.02512,-0.061856,-0.39309,0.82786,0.19919
-0.089876,0.081137,0.12195,-0.016613,-0.0016934,-0.19576,-0.76082,-0.20156
0.0088493,-0.21785,-0.12798,-0.0089946,0.01052,0.3645,-0.52595,-0.72835
0.10919,0.067273,-0.20843,-0.025695,0.0065522,0.026566,0.4984,0.66558
-0.021769,0.058759,0.036361,0.0037852,0.0026316,0.013689,0.21666,-0.18859
-0.10041,-0.13422,0.098398,0.025086,0.0071447,0.11867,0.48721,0.19879
0.23549,0.27999,0.071704,0.054219,0.02054,-0.046705,-0.44849,0.30283
-0.26117,-0.30282,0.23825,0.021249,0.019644,-0.1769,-0.0053527,-0.1438
-0.01772,0.12458,-0.29147,-0.042271,0.012339,0.46185,-0.95026,-0.11277
0.061055,-0.2107,-0.2348,-0.065825,-0.087412,-0.72595,1.0511,-0.069833
0.04567,0.24652,0.14415,0.0053582,0.024861,0.33531,0.10608,-0.12358
0.27874,-0.44209,-0.04389,-0.016262,-0.065204,-0.029136,0.7601,0.34188
-0.33581,0.47797,0.40508,0.10352,0.079542,-0.25199,-0.89376,-0.14535
0.097329,-0.1718,-0.32126,-0.034036,0.0055794,0.2966,-0.73733,-0.29286
0.098297,0.30937,-0.0048017,0.00037236,0.024977,0.25441,0.31835,0.089508
0.00017243,0.40028,0.11865,0.018814,0.0044843,0.0095765,0.051586,0.39498
-0.13637,-0.5318,0.015929,-0.033775,-0.025038,-0.4946,-0.23473,-0.052795
-0.25706,-0.26104,0.18497,0.014243,-0.016987,0.35785,0.55918,0.016638
0.092207,-0.0062378,-0.36818,-0.032481,-0.01051,-0.42549,0.25059,-0.17882
0.13236,0.07035,-0.019632,-0.0097005,-0.013283,0.18751,0.42812,-0.12184
0.31152,-0.48005,-0.1056,-0.042056,-0.024953,0.19878,-0.39243,0.21535
-0.305,0.77145,0.17917,0.081832,0.079993,0.048614,-0.93975,-0.4967
0.0038513,0.021642,0.26552,0.018624,-0.0025464,-0.18148,-0.18643,0.023143
0.044062,0.18778,-0.16539,-0.004845,0.0014308,0.10588,0.42519,0.30596
-0.11388,-0.42908,-0.27616,-0.019752,-0.040427,-0.12485,1.0697,0.39703
0.27912,-0.31651,0.37972,0.020648,0.0049915,-0.14402,-0.41383,-0.051639
-0.11461,0.1706,0.16248,-0.0089323,-0.010645,0.15221,0.18192,0.069621
-0.070647,0.15338,-0.31803,-0.054172,0.014135,0.19471,-0.4419,-0.89081
-0.11445,0.30677,-0.23352,0.040814,0.039999,-0.0010539,-0.73846,0.24054
0.25255,-0.12497,0.0018027,-0.036776,-0.027212,-0.28819,0.26275,0.20526
0.17047,-0.11737,0.16874,0.0097341,-0.023924,0.080466,0.041136,0.65802
-0.57103,-0.20146,0.12588,0.047436,0.033745,-0.14896,0.24008,-0.21493
0.060838,0.075466,0.13776,-0.009601,-0.010884,0.3785,0.2283,-0.22556
0.091679,0.48606,0.093724,0.010594,-0.025301,0.0021628,0.62239,-0.29223
0.086196,-0.65831,-0.29649,-0.016795,0.0059828,0.14018,-0.29139,-0.11863
0.061678,-0.062255,-0.12737,-0.028996,0.012692,-0.61612,-0.26745,-0.17801
0.096921,0.12377,0.03079,0.036847,0.018462,0.20146,-0.20899,0.5674
0.13673,0.15489,0.04606,-0.045415,-0.031074,0.39911,-0.22132,-0.19426
-0.23447,0.32463,0.091994,0.029337,0.044166,-0.3947,-0.59509,0.26458
-0.11251,0.19179,-0.21991,-0.027581,-0.036651,-0.18302,0.59272,-0.17347
0.21149,-0.36431,0.19061,-0.0049737,-0.046588,-0.069939,1.1897,-0.034451
-0.14676,-0.080413,0.20016,0.073806,0.069334,0.31635,-0.66531,0.090039
-0.18001,-0.41797,-0.19045,0.013327,-0.0012294,0.21323,-0.019627,0.042806
0.16691,0.38273,0.041946,-0.046081,-0.039524,-0.019211,-0.48261,0.10943
-0.073551,0.19321,-0.16644,-0.011085,0.071488,0.18759,-0.65639,-0.12143
0.10793,-0.36321,-0.020821,-0.038391,-0.066903,-0.39674,0.90206,0.086904
0.025113,-0.25617,0.2262,0.020021,0.029339,0.20721,0.10965,-0.46577
-0.048056,0.30971,0.10322,0.046652,0.0083079,-0.40402,-0.081149,0.11552
0.14575,0.14346,-0.23582,-0.068059,-0.083404,0.062439,0.51288,-0.34284
-0.074623,0.19951,0.12158,0.089909,0.10559,0.49496,-0.25633,0.72157
-0.062877,0.43668,-0.1923,-0.018427,-0.026306,-0.4738,-0.19503,-0.033822
0.24904,-0.77543,-0.059732,-0.025695,-0.010253,0.24388,-0.31296,0.24447
-0.23441,-0.27265,0.25515,-0.033207,-0.033554,-0.45039,0.25642,-0.53503
-0.14673,0.60817,-0.19085,-0.0094464,0.013416,0.0096026,-0.32866,0.10661
0.090866,-0.063128,-0.0048747,0.0067457,0.0058916,0.48659,0.046503,-0.01581
0.0039364,-0.37904,0.15874,0.062356,0.029964,0.26409,-0.07018,-0.22043
0.017577,0.43777,0.12156,0.0010875,-0.015911,-0.16491,0.52858,0.22903
-0.083205,-0.3791,-0.09258,-0.01321,-0.014685,-0.34004,0.72438,0.021505
0.10358,-0.05404,-0.13245,-0.035574,0.0099218,0.31545,-0.73238,0.1188
0.096211,0.089431,-0.076987,0.011719,0.041916,-0.10619,-0.95776,0.26323
0.059915,0.26052,0.43229,0.04237,-0.012826,-0.17612,0.57263,-0.35828
-0.044938,-0.47174,-0.44116,-0.029772,-0.068645,-0.38633,0.17103,-0.23141
-0.29094,0.5705,0.37294,0.0062371,0.038413,0.38169,-0.35256,-0.54558
0.13075,0.20461,-0.46072,-0.068096,0.0037801,0.42682,0.6759,0.80606
0.051589,-0.20663,-0.019132,0.044586,-0.0081397,-0.83482,-0.31545,0.51581
0.15451,-0.60636,-0.019752,-0.0066612,0.010986,0.62156,0.4495,-0.45087
0.08407,0.27229,0.42902,0.0053639,-0.047612,-0.09467,-0.28732,0.020117
-0.24033,0.28948,0.085219,0.042122,0.043213,0.11652,-0.19962,-0.12823
0.10275,-0.10893,-0.098755,-0.044521,0.0026572,0.056898,-0.21111,-0.1468
-0.23646,-0.24281,-0.14798,0.034522,0.018448,-0.050706,-0.10328,0.19195
-0.10558,-0.010475,-0.088075,0.0055657,0.0046144,-0.1084,1.0093,0.031515
0.063362,0.29068,0.11782,0.00097198,-0.023502,-0.18925,-0.2497,-0.44406
0.09676,-0.42687,-0.12574,-0.04231,-0.011688,0.080536,-0.71406,-0.14384
0.37519,0.48232,0.37583,0.031436,0.031673,0.099973,-0.034572,0.52263
-0.15977,-0.37686,-0.49423,-0.067266,-0.065868,-0.64447,0.17101,0.23026
-0.13909,0.56017,0.17963,0.02853,0.038958,0.233,-0.7073,-0.051456
-0.00095892,0.013728,-0.092506,0.053143,0.048944,0.97758,0.82005,0.19147
-0.014079,-0.19387,-0.034724,-0.063645,-0.075114,-0.51,0.70769,-0.22428
-0.058438,-0.19968,0.19883,0.045545,0.041829,0.248,-0.28168,-0.4284
0.26611,-0.42733,0.046821,-0.009687,-0.053141,-0.29522,0.087144,0.1292
-0.054565,0.46029,0.10294,0.067754,0.08562,-0.038784,-0.41399,0.21059
-0.23694,0.053149,-0.087295,-0.081319,-0.041495,-0.27268,0.26797,-0.38914
0.2619,-0.10367,-0.096504,-0.027068,-0.012219,0.15085,-0.50665,0.39268
-0.16922,-0.57361,-0.15405,0.0040534,-0.013717,-0.041897,0.18973,-0.13729
-0.12345,0.85272,0.14365,0.035552,0.024548,0.14916,0.040574,0.13356
0.066106,-0.27333,-0.017936,0.036192,0.0089152,-0.025784,-0.99154,0.15437
-0.033615,0.3079,0.11805,-0.033132,0.017452,0.13636,0.88824,-0.19615
0.020122,0.1502,-0.0028053,-0.016276,-0.035968,0.072627,0.07015,-0.43072
0.15425,-0.28863,-0.19156,0.024103,0.0046225,-0.053863,-0.15067,0.21007
0.068078,-0.012946,-0.00053508,-0.013741,0.021712,-0.009998,0.2278,0.36672
-0.17354,-0.19123,-0.044053,-0.020622,-0.0397,-0.50804,0.397,-0.079862
0.28924,-0.45195,0.18848,0.018915,-0.00017604,0.21652,-0.020707,0.077763
-0.30271,0.5233,-0.089827,0.010993,0.054186,0.28017,-0.62758,-0.10243
0.12615,-0.3987,0.16123,0.025848,-0.032911,-0.036007,0.40754,-0.1408
-0.16962,0.54061,-0.03499,-0.045902,0.0042239,0.21373,-0.19515,0.028927
-0.021381,0.20184,-0.10156,-0.0010693,0.001696,-0.23521,-0.019237,0.037079
0.083834,-0.63259,0.14705,-0.003584,-0.040245,-0.23277,0.042359,-0.046391
0.16005,0.71006,-0.072636,0.0092428,0.027134,-0.0034084,-0.14881,0.24924
0.13662,-0.027438,0.096798,0.045447,0.047889,0.28336,-0.71853,-0.18132
-0.35263,-0.36005,-0.3537,-0.043177,-0.048015,-0.1749,0.7429,-0.48093
-0.15712,-0.22421,-0.14322,0.01702,0.020889,0.029815,-0.0082523,0.19245
0.20267,-0.32911,0.4709,-0.015979,-0.01089,0.14053,0.41045,0.1491
-0.012189,0.35871,-0.2525,-0.032702,-0.018313,0.024119,-0.25965,0.47899
0.24807,0.021251,0.086087,0.021549,-0.0014477,-0.24279,0.33066,-0.026967
-0.21768,0.39467,0.32345,0.021676,0.00047195,0.063863,-0.010479,-0.18959
-0.0024977,-0.020326,-0.17287,0.0065405,0.041863,0.27691,-1.0236,-0.21453
0.06465,-0.013363,-0.09043,0.01493,-0.01043,-0.26307,0.83844,-0.11338
0.051802,0.046693,0.12518,0.015298,0.0072849,0.30851,-0.51067,0.29714
-0.11476,-0.53777,-0.31531,-0.070724,-0.03033,-0.38486,0.52996,-0.1977
0.029688,-0.0034453,0.010116,0.022375,0.017117,0.0474,-0.28253,-0.20235
-0.034534,0.47602,0.11759,0.0055874,-0.0066937,0.091192,0.066795,0.4065
0.064138,-0.18628,0.046947,-0.034912,-0.023515,-0.2194,-0.20425,-0.02797
0.22969,-0.39675,0.072432,0.010624,0.0060278,0.025485,-0.22985,0.041412
-0.39792,0.68096,-0.17264,0.033245,0.027699,0.38422,0.61292,-0.34546
0.088618,-0.28855,0.12421,0.025523,0.0029547,-0.17147,0.20419,-0.015751
-0.00327,-0.25029,-0.037657,-0.051352,-0.028657,-0.046122,-0.16214,0.24223
0.010071,0.25633,0.16089,0.021428,0.0035366,0.16659,-0.051258,0.36629
0.00039656,0.11303,0.03092,-0.0062871,-0.0018737,-0.058359,-0.51159,-0.12034
-0.059162,0.068021,-0.22581,0.021413,0.025322,-0.20832,0.26961,-0.53867
0.022335,-0.13868,-0.00084264,-0.0053199,-0.0011782,-0.08408,0.27915,-0.038099
0.1843,0.2252,-0.028753,-0.032328,-0.011652,0.27102,-0.14255,0.22408
0.067449,-0.63878,-0.066834,0.0023871,0.016611,0.017046,-0.43493,0.27819
-0.032926,0.042119,-0.090562,-0.0031411,-0.018698,-0.021062,-0.11533,0.11579
-0.057184,0.20573,0.46386,0.060214,0.038035,0.32674,0.21963,-0.31797
-0.11812,0.283,-0.011834,-0.010738,-0.047969,-0.87723,0.27558,-0.24923
-0.015872,0.064916,-0.35299,-0.075249,-0.0033591,0.54049,0.6767,0.43252
0.036165,-0.18833,0.034012,0.015401,0.00024007,-0.29974,-0.26093,-0.083437
-0.18208,-0.12257,0.078033,0.019427,-0.013179,0.11417,-0.56772,-0.3183
0.11831,0.0070634,0.082397,0.023219,0.02746,0.42764,0.25582,0.027134
0.078805,0.3517,0.11583,0.035026,0.02924,-0.096919,-0.27482,0.33766
0.15393,-0.54711,-0.0027529,-0.054164,-0.046135,-0.29941,0.12338,-0.24494
-0.076616,0.20338,-0.38358,-0.017539,0.0050286,0.057205,0.213,0.17783
-0.095846,-0.33293,0.15305,0.012207,0.034585,0.13817,-0.63848,0.089219
-0.004358,0.62566,0.037795,-0.01182,-0.019982,-0.51782,-0.29501,-0.1534
0.057706,-0.11687,-0.055681,0.066492,0.036341,0.54824,0.88924,0.13508
-0.073683,0.093889,0.070202,-0.04997,-0.039138,-0.12792,0.46712,0.085398
-0.039458,-0.010382,-0.16821,-0.025558,-0.020463,0.11339,-0.4699,-0.30351
0.28487,-0.51866,0.11372,0.069132,0.021457,0.1735,-0.050282,-0.14844
-0.18722,0.26936,0.44047,-0.0083088,-0.015427,-0.40545,0.010108,0.16976
-0.15156,0.34377,-0.11752,-0.015794,0.017015,0.20085,-0.37316,-0.29879
0.11022,-0.53089,-0.49848,-0.070456,-0.021934,-0.23645,0.22229,0.37952
-0.066197,-0.073336,0.10096,0.04666,0.070978,0.11042,-0.12554,0.16933
0.12378,0.38145,0.093258,-0.01569,-0.039862,0.086846,0.35637,-0.043785
0.055123,0.053744,-0.015379,0.055355,-0.02586,-0.18668,0.17529,0.1789
0.040355,0.23434,0.11737,-0.0055216,0.0041535,0.1067,-0.4507,-0.3351
-0.16262,-0.24714,0.099741,-0.026267,-0.01179,-0.012722,0.24317,-0.37728
0.047924,-0.7647,-0.20969,-0.045957,-0.010779,0.076401,-0.86949,0.25139
-0.18711,0.549,0.024588,0.060184,0.04645,0.033306,0.64658,0.084492
0.15603,0.34943,0.036847,0.018297,-0.0042551,-0.023409,-0.15744,0.11555
0.10893,-0.18559,-0.2118,-0.02374,0.0085893,0.20285,0.60417,-0.060774
-0.1642,0.066169,0.18524,-0.0040432,-0.0016074,-0.35999,-0.18401,0.20513
0.11784,-0.2971,0.17367,0.0065175,0.011223,0.027392,0.0029009,-0.029647
-0.037456,0.29936,-0.082089,0.007541,-0.0084152,0.18192,0.51105,-0.03393
0.033435,-0.07686,-0.12081,-0.032383,-0.029925,-0.34511,-0.5297,-0.07344
-0.029491,0.22907,-0.0047099,-0.011576,0.0010239,0.52147,-0.54045,-0.097783
0.0076,-0.3137,0.094669,0.015655,-0.024935,-0.2595,-0.35206,-0.2249
0.011625,-0.33562,-0.080001,0.018639,0.041014,0.068701,0.31791,-0.18715
0.00616,0.089317,0.065693,-0.017571,-0.042644,-0.34545,0.40291,0.30789
-0.18008,-0.025743,-0.02992,0.017061,0.045237,0.2491,-0.12403,0.10686
0.12575,0.70774,-0.19406,-0.017547,-0.007,-0.0051493,0.70848,0.16345
