-0.0087724,-0.045379,-0.21453,-0.07761,0.002326,-0.017244,-0.012679,-0.015561
0.02271,0.050555,0.21624,0.023303,0.002751,-0.0006587,0.0042451,0.015812
0.0076955,0.0058651,-0.2455,-0.016969,0.010551,0.0078503,-0.0022162,0.00058577
-0.022735,-0.047113,0.15778,-0.026454,-0.021172,-0.0073938,-0.0088338,-0.01431
0.0015068,0.070794,0.12126,0.049751,0.0013913,0.0082861,0.0076689,0.0024508
0.017704,0.085706,-0.089333,0.0009922,0.00024297,0.0002339,0.0081382,0.0040715
-0.052423,-0.21356,-0.051771,-0.031812,-0.0088149,-0.015857,-0.0074408,-0.025017
0.0098134,0.055862,0.13306,0.029704,0.021282,0.0069815,-0.0077628,0.016738
0.009141,0.0037309,-0.21352,-0.017445,-0.010862,0.0063572,0.0072798,0.0042317
0.008178,-0.033317,-0.0042883,0.0064569,0.0042355,-0.0020012,-0.0012402,-0.0080725
0.030525,0.10969,0.10596,0.046654,0.011926,0.0054322,-0.0019363,0.026374
0.0060414,0.058738,-0.037609,0.0092774,0.012178,0.0052834,0.020931,-0.0021847
-0.033861,-0.14623,0.15988,-0.066725,-0.034152,-0.018039,-0.018498,0.030903
0.0047029,0.026688,-0.0040784,-0.0095491,0.0056431,0.0057817,0.012622,0.07854
-0.026597,-0.05504,-0.16233,-0.0614,-0.0091649,-0.0092213,-0.026344,-0.21866
-0.0026913,-0.032215,-0.081336,0.058969,0.0072769,0.015016,0.0051809,0.022336
0.029562,0.18043,-0.067387,0.0077494,0.00021627,-0.015349,0.013371,0.020688
-0.0080172,-0.058867,0.095935,0.050384,0.0086635,0.0089346,-0.0018694,0.011234
0.040684,0.068766,0.30422,0.069349,0.024756,0.025224,0.0062346,0.064643
-0.035487,-0.06321,-0.078326,-0.1155,-0.053125,-0.02912,-0.0014703,-0.0064915
-0.0024219,-0.018631,0.24252,0.0031738,0.01715,0.0098543,-0.0016075,0.00072677
0.0067953,0.021961,-0.16461,0.057805,0.016786,-0.0063373,-0.002003,0.1561
-0.0080594,-0.10567,-0.62032,-0.084558,0.016076,0.0082857,-0.010425,-0.21288
-0.015864,-0.03375,0.11897,-0.017498,-0.024,-0.0086295,-0.0033332,0.01044
0.045879,0.10611,0.06387,0.095394,0.021673,0.021285,-0.0040217,0.036776
-0.010194,-0.043857,0.23369,-0.15925,-0.049836,-0.034476,0.034544,0.00698
-0.051022,0.080543,0.14773,0.16465,0.011734,-0.0037235,-0.012492,-0.062646
0.048718,0.137,0.027629,0.013095,0.011346,0.0044139,-0.004408,-0.0070483
-0.054396,-0.22512,-0.02359,-0.097833,-0.019526,-0.0021493,-0.019299,-0.14548
0.022707,-0.02114,-0.34984,0.042932,0.020783,0.023358,0.013104,0.24944
0.05359,0.092266,0.23474,0.028924,0.0071907,0.00248,0.02237,0.092128
-0.032111,-0.073437,-0.18653,-0.062245,0.017539,0.012814,-0.0072982,-0.047351
0.007561,0.034925,0.25846,0.026533,0.0044967,0.0068567,-0.02142,-0.036967
-0.015252,0.095288,0.16885,0.021069,-0.01686,-0.023799,-0.012392,-0.13562
0.039668,0.051265,-0.27694,0.053529,0.0076309,0.029823,0.043046,0.069709
-0.031156,-0.067211,0.40589,0.0063116,0.0072723,-0.027662,-0.019293,0.10176
-0.024805,-0.096718,-0.9133,-0.26131,-0.080581,-0.039669,0.0036729,-0.094239
-0.019393,-0.099521,0.1207,0.055562,0.017644,-0.0054781,-0.013015,-0.09579
0.055634,0.12864,0.019952,0.17614,0.028907,0.0055925,0.024523,0.067059
-0.010222,-0.050983,0.31174,0.038519,0.031911,0.018044,-0.024137,-0.057306
0.010168,0.10611,0.63116,0.033909,0.011681,0.0093351,0.0053124,0.11847
-0.038865,-0.085276,-0.77962,-0.20437,-0.054617,-0.0044097,-0.035323,-0.076589
-0.024018,0.0095798,0.72536,-0.004067,-0.010277,0.0080167,0.026031,-0.0018341
0.070627,0.13402,-0.42089,0.1507,0.051206,0.038183,0.041053,0.13079
-0.0048975,-0.047671,0.033982,-0.036789,0.0048634,0.0225,-0.0058671,0.030227
-0.016474,-0.090915,-0.50909,-0.058653,-0.016658,0.006503,-0.0054371,-0.11083
0.0041433,-0.051949,0.20367,0.030435,0.0019648,0.012335,0.0031376,0.22829
-0.0062149,0.08276,-0.072053,-0.043003,-0.025565,-0.15628,-0.058425,-0.34536
0.045498,0.11561,0.53095,0.135,0.041034,0.0080553,0.020683,0.049697
-0.028823,0.013237,-0.040176,-0.045119,-0.040694,-0.025743,-0.0018007,0.0072088
-0.042067,-0.17907,-0.66516,-0.15395,-0.028735,0.071132,0.014728,-0.010525
-0.04121,-0.079329,-0.035763,-0.051295,0.0065028,0.049642,0.0077873,0.03025
0.067684,0.14066,0.5232,0.23881,0.072776,0.020132,0.032097,0.031142
-0.0040348,-0.033844,0.733,0.028121,-0.0096676,-0.055723,-0.02949,-0.16866
0.0097975,0.0080136,-0.59237,-0.067024,0.0012468,0.025562,-0.0050594,0.35548
0.031591,0.072675,-0.27271,-0.00056848,-0.027461,0.076451,0.019501,0.050707
-0.063232,-0.11946,-0.59728,-0.085642,-0.033499,-0.059642,-0.041691,-0.26198
0.053684,0.13597,0.6443,0.12278,0.053229,-0.039427,-0.0088994,-0.02836
-0.078599,-0.15269,0.060615,-0.23454,-0.064335,-0.10548,-0.038366,-0.10924
0.0397,0.084649,0.22889,0.061707,0.035566,0.093578,0.088584,0.18077
0.033184,0.011109,-0.81289,0.074898,0.048226,0.081332,0.028013,0.11265
0.010737,0.10958,1.0278,0.12637,-0.0028068,-0.03241,-0.017252,-0.050394
-0.0046802,-0.074745,-0.31295,-0.001623,-0.0078961,-0.051675,-0.016326,-0.076104
-0.021238,-0.043394,-0.070695,-0.058208,-0.036931,-0.0069627,-0.016429,-0.020666
-0.023454,-0.039544,-0.52768,-0.12083,-0.019035,0.0086647,-0.0021707,-0.033252
-0.034651,-0.039975,0.18275,0.029717,-0.03951,-0.0043332,-0.028277,-0.0044168
0.031468,0.065334,0.19342,0.018714,0.058501,0.055705,0.030442,0.0041099
-0.0042695,-0.042536,0.51259,0.041528,0.0019959,-0.0068737,-0.0053043,0.017027
0.014946,0.052351,-0.31979,-0.03483,0.0020651,-0.052215,-0.033414,0.11396
0.050526,-0.015216,-0.6541,0.06265,0.06632,0.082632,0.079502,0.1011
-0.037862,-0.024796,0.4721,-0.096393,-0.047964,-0.041109,-0.064487,-0.20771
0.023295,0.079392,0.27155,0.049674,0.010006,-0.0027811,0.050595,-0.030118
-0.008309,0.032035,0.11357,0.14833,0.0050239,-0.014257,-0.012605,-0.0059096
-0.031357,-0.065783,-0.33541,-0.17633,-0.02454,0.025565,-0.0041466,0.16236
-0.014874,-0.019855,-0.4323,-0.018768,-0.032195,-0.023822,-0.010199,-0.095331
0.025291,0.058991,0.42669,0.011295,-0.010108,-0.060157,-0.0076593,-0.12273
0.0030903,0.036482,-0.35847,0.054556,0.0030853,-0.0041605,0.010916,0.16575
-0.0033389,-0.15884,0.17344,-0.0056554,0.039366,0.083075,0.02175,-0.058693
0.021742,0.15211,0.51315,0.18312,0.02147,0.038876,-0.030113,0.031046
-0.038697,-0.17131,0.0089198,-0.3311,-0.034196,-0.026266,-0.043299,0.0040088
-0.01266,-0.050481,-0.53957,-0.031516,-0.01775,-0.072666,0.05238,0.077567
0.013927,0.11687,0.53357,0.15314,0.00059688,0.0012578,-0.032233,-0.10894
-0.0059741,0.0032561,-0.10586,0.035891,0.036104,0.015211,0.038699,-0.040886
0.099153,0.14796,-0.79108,0.10881,0.11143,0.13994,0.061934,0.10155
-0.077462,-0.090007,0.53699,-0.19921,-0.14947,-0.086953,-0.056399,-0.072198
0.0026527,-0.08655,-0.27131,0.18863,0.033533,-0.018536,-0.035124,0.008846
-0.012591,0.063333,0.48029,-0.31521,-0.067026,0.00018513,0.01642,-0.021403
0.071814,0.24127,-0.080453,0.44406,0.095217,-0.015894,-0.010945,0.0024651
-0.025345,-0.084651,0.089611,-0.073515,0.020315,0.019142,0.031603,0.011465
-0.084867,-0.29702,-0.66881,-0.22726,-0.041069,-0.050231,-0.035077,-0.055853
0.026895,0.0038821,0.34452,0.022998,-0.033057,-0.0039028,0.00059385,0.20734
-0.040533,-0.078142,0.38432,-0.22687,-0.094744,0.0036136,0.037684,-0.003592
0.034278,0.092422,0.236,0.16642,0.072317,0.044398,-0.017054,-0.087528
-0.0056003,0.041518,-0.2687,-0.052351,-0.014975,-0.028561,-0.046172,-0.14678
0.058984,0.18479,-0.65031,0.22017,0.10498,0.027691,0.020571,0.020925
-0.061262,-0.21205,0.10118,-0.17192,-0.052334,-0.021295,0.034309,0.18047
0.14842,0.33383,-0.083291,0.34816,0.13711,0.1048,0.025534,-0.12956
-0.0086147,-0.071195,0.31963,-0.081851,-0.023634,0.029363,0.047956,0.090669
-0.0026479,0.15509,0.49573,0.13573,-0.02867,-0.062088,-0.055711,-0.025896
-0.15533,-0.26435,0.05872,-0.19836,-0.1767,-0.14025,-0.083247,-0.12732
-0.09249,-0.44924,-0.2464,-0.57943,-0.047159,0.019925,-0.01963,0.036849
0.068551,0.16206,-0.40207,0.24098,0.054664,0.00354,0.056821,0.07639
0.094014,0.17211,-0.40644,0.20077,0.097739,0.060602,0.036969,-0.00068781
0.071004,0.3179,0.75093,0.43495,0.13766,0.098156,0.022993,0.047728
-0.13964,-0.41258,-0.13689,-0.38889,-0.13669,-0.12457,-0.054535,-0.091201
0.080731,0.21094,-0.071878,-0.27446,-0.028419,0.073877,0.039768,0.18359
-0.1105,-0.30062,0.21149,-0.014839,-0.075101,-0.16404,-0.083737,0.0044098
0.13105,0.4764,-0.19908,0.35362,0.10727,0.085142,0.028894,-0.39468
-0.014931,-0.18441,0.39512,-0.05089,-0.011881,0.049063,0.018822,0.13471
-0.017775,-0.050112,-0.37633,0.028443,-0.018389,0.0015642,0.026848,0.01466
0.035543,0.13439,-0.71133,0.19038,0.095043,0.067322,0.037143,0.10492
-0.082796,-0.228,0.30925,-0.23314,-0.078842,-0.07494,-0.068014,0.054279
0.10256,0.3126,0.87706,0.34736,0.052411,0.042145,0.062186,0.18324
-0.10463,-0.23838,-0.52092,-0.41534,-0.075029,-0.082934,-0.057459,-0.38323
0.006093,0.016417,0.39733,-0.21053,0.02993,0.056305,-0.021454,0.018716
-0.073044,-0.35996,-0.087797,0.087153,-0.016177,-0.087918,-0.041299,0.068453
0.041247,0.31415,0.26402,-0.097917,-0.065006,-0.00032106,0.038948,-0.015491
0.18568,0.35424,-0.61953,0.47267,0.17297,0.11619,0.086431,0.35283
-0.052929,-0.36136,-0.45087,-0.19644,-0.18418,-0.081459,0.015405,-0.16215
-0.12689,-0.16564,-0.011864,-0.10886,0.020939,0.04047,-0.017507,0.0185
-0.059038,0.060528,0.11151,-0.011778,0.0081746,-0.11863,-0.18369,-0.72123
0.25249,0.59894,0.74728,0.65037,0.26276,0.24672,0.14239,0.45596
-0.20013,-0.46545,0.3086,-0.67834,-0.28519,-0.15992,-0.085668,-0.042533
0.075002,0.10727,-0.23015,0.061508,0.075224,0.013086,0.11687,0.35417
-0.0085563,-0.12348,-0.80998,-0.0014757,0.0075651,0.023247,-0.0076575,0.05196
0.0095405,0.089043,0.90078,0.46413,0.065736,-0.028435,-0.029657,-0.13795
-0.011895,-0.023518,-0.33649,-0.44398,-0.071466,0.029242,0.034967,-0.0066512
0.0048498,-0.1113,-0.5955,-0.0095524,-0.029818,-0.0074611,-0.048549,-0.23609
-0.01071,0.1066,-0.26875,0.12624,0.033937,0.0016623,0.01628,0.14835
0.058714,0.021795,0.94048,0.05859,0.072821,0.048677,0.018234,-0.057669
-0.1381,-0.17612,0.28376,-0.52187,-0.15506,-0.11623,-0.081861,-0.11215
-0.0068914,0.023377,-0.23584,0.12332,-0.047566,-0.094161,-0.033948,0.032504
0.10128,0.123,-0.036011,0.27952,0.14603,0.17012,0.10746,0.13549
-0.039776,-0.093831,-0.55704,0.028033,-0.065817,-0.033802,-0.01684,0.034389
0.18727,0.46782,0.1674,0.73758,0.27039,0.12249,0.069824,0.066589
-0.1787,-0.41076,0.22056,-0.92033,-0.28281,-0.09538,-0.085724,-0.12628
0.041605,0.027167,-0.40907,0.091307,0.078934,0.03883,0.04756,0.10462
-0.089886,-0.040528,-0.0004722,-0.035333,-0.066835,-0.11603,-0.077514,-0.14709
0.035649,-0.045711,0.57894,0.11036,-0.0098655,0.03319,0.038717,0.024323
0.19904,0.40797,0.43561,0.50978,0.28827,0.1813,0.083488,0.086941
-0.25616,-0.50142,-0.51385,-0.78438,-0.35253,-0.24229,-0.10737,-0.10049
-0.048639,-0.11862,0.067646,-0.31185,-0.03401,-0.018839,-0.025938,-0.030585
0.12658,0.29048,-0.67813,0.57635,0.19711,0.10191,0.039028,0.023017
0.098069,0.16378,0.15765,0.1473,0.020897,0.057938,0.033328,0.091607
0.03041,0.17403,0.98641,0.027951,-0.015228,0.029479,0.012229,0.042585
-0.13839,-0.38846,-0.43339,0.15,-0.043467,-0.076661,-0.015876,-0.076869
-0.071972,-0.17068,-0.66031,-0.36752,-0.047609,-0.033455,-0.034878,-0.047671
-0.012186,0.094552,-0.14867,-0.26524,-0.074039,-0.082762,-0.060082,-0.041386
0.17396,0.27591,0.45328,0.59879,0.22133,0.18184,0.13517,0.15317
0.056816,-0.031604,-0.073205,-0.46968,-0.012891,0.0416,-0.0039467,-0.02634
-0.16062,-0.14739,0.73107,0.13947,-0.11268,-0.11298,-0.048099,-0.079877
-0.0020386,0.014929,-0.81833,-0.081208,-0.023554,-0.086846,-0.021228,-0.007518
0.024428,0.017789,0.84851,0.20404,-0.0036745,0.057189,0.021408,0.034283
-0.011263,0.048177,-0.15487,-0.091546,0.001181,0.021879,-0.014482,0.0061508
0.046803,-0.043229,-0.56096,0.21033,0.10766,0.064643,0.019106,0.024877
-0.043844,-0.11694,-0.32203,-0.19683,-0.012935,-0.018031,-0.0030932,-0.03496
0.075967,0.24771,0.84435,0.17723,0.029491,-0.015555,-0.010838,0.084075
-0.07043,-0.083271,-0.47352,-0.23953,-0.11704,-0.05319,-0.011821,-0.040137
0.024798,-0.040505,-0.39654,-0.12017,0.0081952,0.02519,0.025493,-0.10295
-0.013213,-0.015237,0.31536,0.23786,-0.0088324,-0.0069369,0.015565,0.044283
0.034528,0.13292,0.059716,-0.14982,0.074335,0.045946,0.013542,0.026974
-0.12857,-0.42407,0.10196,-0.17351,-0.093417,-0.065831,-0.073873,-0.044946
0.052456,0.22034,0.80941,0.22963,0.035309,0.0018791,0.0036981,0.047833
0.13243,0.24614,-0.35659,0.48939,0.12507,0.093218,0.051185,0.040113
-0.12305,-0.23718,-0.48097,-0.40229,-0.15187,-0.11962,-0.079797,-0.091356
0.09826,0.34836,-0.11642,0.16349,0.14222,0.1292,0.11059,0.090815
-0.055618,-0.37268,-0.56438,-0.3606,-0.10194,-0.043071,0.0047909,-0.015328
-0.007095,0.099141,0.57796,0.017518,0.0062727,-0.034904,-0.022698,-0.019757
-0.02232,-0.072623,0.049913,-0.068911,-0.017563,-0.026131,-0.034926,-0.0090857
-0.031376,-0.013177,0.35612,0.052988,-0.087583,-0.03258,-0.024562,-0.046432
0.074942,0.19181,-0.28115,0.37683,0.13207,0.039253,-0.0075414,0.047456
0.054565,0.058813,0.81961,-0.14263,0.063194,0.14223,0.055109,0.038035
-0.1077,-0.28574,-1.0134,-0.066307,-0.075581,-0.1145,-0.031788,-0.058936
0.13572,0.32411,-0.11746,0.34938,0.1297,0.089187,0.060209,0.061642
-0.22207,-0.46887,0.35667,-0.63665,-0.26636,-0.14521,-0.074732,-0.091797
0.0074042,0.017027,-0.19513,-0.015876,0.025233,-0.028527,-0.0064925,-0.0029109
0.05937,0.15828,0.27947,0.086941,0.059132,0.0097645,0.0074708,0.0243
0.10628,0.18197,0.083353,0.20269,0.093106,0.10281,0.045506,0.04505
0.10142,0.2906,0.09827,0.37723,0.064566,0.086882,0.060805,0.059625
-0.088307,-0.25981,-0.30115,-0.094182,-0.050071,-0.076784,-0.032637,0.036789
-0.11202,-0.16717,-0.73196,-0.36193,-0.1338,-0.075508,-0.055276,-0.17212
-0.08781,-0.21566,0.4467,-0.17012,-0.046151,-0.081106,-0.085384,-0.044026
0.19428,0.39673,0.56285,0.30789,0.21276,0.19542,0.11132,0.12376
-0.086961,-0.14447,0.14687,-0.25681,-0.12269,-0.066435,-0.027692,-0.051986
0.044326,-0.004323,-0.12327,0.31545,0.041302,0.015865,0.036664,0.092467
-0.045146,-0.15937,-0.57025,-0.06061,-0.029486,-0.081485,-0.062784,-0.060308
0.0194,0.16469,0.45199,-0.32923,-0.014586,0.062982,0.041109,-0.00262
0.027037,-0.015051,-0.57385,0.26082,0.015843,-0.012084,0.020075,0.02335
0.024857,0.17807,0.65668,0.35126,0.10098,0.036709,-0.0089423,0.0021095
-0.10394,-0.19966,0.074964,-0.47111,-0.14971,-0.048709,-0.022822,-0.066114
0.094303,0.15779,-0.33869,0.37235,0.12319,0.044058,0.032795,0.045512
-0.036069,-0.084552,-0.235,-0.43057,-0.056819,0.010417,-0.0064223,-0.029978
-0.033485,-0.14482,-0.060542,-0.0047901,-0.056875,-0.063394,-0.039046,-0.034702
0.0010784,0.00073027,-0.027566,0.27465,0.013731,-0.059702,-0.025974,0.0077383
0.021223,0.094357,0.20501,-0.14714,0.030083,0.076783,0.033014,0.057838
0.089757,0.22969,0.51481,0.19041,0.078171,0.057622,0.036725,0.15399
-0.05102,-0.17949,-0.19251,-0.088302,-0.045137,-0.022908,0.0090503,0.13138
-0.057445,-0.071028,-0.01459,-0.14819,-0.066497,-0.039469,-0.026102,-0.47156
-9.3985e-05,-0.015672,0.29201,0.12691,0.029532,0.00020978,-0.029258,0.063601
0.02689,0.0095408,-0.94479,0.0014828,0.00049769,-0.021252,-0.00012106,-0.012994
-0.023853,-0.066261,0.58723,-0.0021152,0.010136,0.044149,-0.0010539,0.080502
0.0033987,0.068743,-0.23592,-0.22851,-0.020026,0.00049133,0.038214,0.15751
0.084689,0.2028,-0.10633,0.35307,0.073752,0.042421,0.023723,-0.015267
0.00082167,0.038116,-0.10404,0.25834,0.041244,0.0052785,0.0020111,-0.061814
-0.068813,-0.30116,0.75601,-0.59785,-0.14105,-0.07227,-0.035123,-0.05159
0.0085118,0.23903,-0.077979,0.12979,0.019198,-0.0028285,-0.0099144,0.031637
-0.07173,-0.30245,-0.43757,-0.14253,-0.047944,-0.1065,-0.063245,-0.085231
0.018979,0.035647,0.080732,0.18926,0.048696,0.070305,0.046956,0.1213
0.10931,0.20724,-0.53384,0.12754,0.13007,0.13755,0.078519,-0.020868
-0.08142,-0.10686,0.18345,-0.16967,-0.11571,-0.06825,-0.077811,-0.16853
0.048855,0.10233,0.55495,0.12647,0.022773,0.031427,0.031259,0.20093
-0.085513,-0.2423,0.51016,-0.19558,-0.063592,-0.071053,-0.023797,-0.062017
0.054587,0.21148,-0.59382,0.18258,0.039278,-0.00074846,-0.00066297,-0.021119
0.10178,0.10451,-0.026487,0.10949,0.073345,0.046792,0.046047,0.11927
-0.04584,0.0069374,-0.19858,-0.090275,-0.032121,0.00093493,0.014804,0.24874
-0.068357,-0.19878,-0.41104,-0.10771,-0.019846,-0.0058136,-0.070943,-0.57857
0.0026682,0.065101,0.45063,0.27326,-0.0075766,-0.028348,0.015387,0.06704
-0.036027,-0.14694,0.4873,-0.35497,-0.027058,-0.019855,-0.0074193,0.11589
0.0031197,-0.04584,-0.4869,-0.046765,-0.01616,-0.011508,-0.0065032,0.0066251
0.026581,0.16548,0.11782,-0.0033103,0.032714,0.012484,-0.0052719,0.13125
0.073703,0.21377,0.28382,0.13009,0.041357,0.052295,0.050938,0.037967
-0.034971,-0.29153,-0.38023,0.06804,0.0019832,0.037708,0.021393,-0.03779
-0.049359,0.086849,0.0082006,-0.10789,-0.054056,-0.070374,-0.047225,-0.23607
0.077309,0.13746,-0.77852,0.28453,0.068704,0.032555,0.024518,0.13851
-0.053691,-0.24195,0.37369,-0.22225,-0.074863,-0.044422,-0.044894,-0.10199
0.025987,0.2604,0.771,0.07467,0.0076504,0.010845,0.017757,0.21347
-0.027834,-0.2076,0.24686,0.041063,0.019605,0.0027162,-0.0064061,-0.041199
-0.020196,-0.068033,0.26356,-0.1846,-0.054386,-0.014369,-0.00020325,0.15632
0.064332,0.17147,-0.85261,0.18444,0.12184,0.05323,0.020852,-0.32771
-0.032043,-0.097897,-0.44892,-0.072455,-0.021836,0.010263,0.017911,0.060883
0.0034206,0.12464,0.13517,0.020213,-0.039938,-0.02583,-0.024363,-0.03726
-0.024156,-0.16787,0.24152,-0.20956,-0.010458,-0.046804,-0.004086,0.018999
-0.036098,-0.0060217,-0.10552,-0.081392,-0.066109,-0.020842,-0.030315,0.12899
0.054097,0.12618,0.41885,0.1324,0.04316,0.044868,0.022219,-0.018764
0.028151,0.080245,-0.24739,0.2141,0.036065,0.018092,0.013071,-0.095189
-0.0042735,0.10573,0.97824,0.023562,0.021838,-0.014817,0.028243,0.15038
-0.035313,-0.38397,-0.8495,-0.11142,-0.015404,0.016625,-0.026085,-0.078614
0.020789,0.12601,-0.95419,0.23768,0.056802,0.01074,-0.017284,-0.024421
-0.00039284,0.010104,0.66123,-0.27453,-0.074406,-0.0094176,0.015318,0.031392
-0.0055673,0.025817,-0.20902,-0.040337,-0.057761,-0.020989,-0.02233,-0.067896
0.051685,0.22006,0.59498,0.25946,0.083148,0.022238,0.056995,0.099098
-0.063378,-0.25839,-0.09831,-0.3597,-0.018833,0.0024534,-0.028167,-0.085232
-0.1166,-0.33875,-0.097915,-0.17039,-0.082245,-0.088633,-0.059175,-0.074306
0.14196,0.37008,0.0631,0.30578,0.12761,0.1081,0.057733,0.14733
-0.014188,0.15744,0.50301,-0.014787,-0.076388,-0.071422,-0.028885,-0.01414
0.079169,0.085807,-0.64013,0.31559,0.08732,0.091784,0.071808,0.05846
-0.069972,-0.11856,0.098151,-0.14645,-0.052924,-0.058126,-0.038362,-0.056721
-0.047374,-0.18268,0.17491,-0.04815,-0.036111,-0.06752,-0.062245,-0.20339
0.022113,-0.067879,-0.53631,-0.2564,0.043933,0.087552,0.047275,0.21226
-0.0098316,-0.00089527,0.65435,0.056345,-0.047361,-0.037792,-0.0065033,0.034045
0.028742,0.16685,-0.4183,-0.040936,0.03348,0.033276,0.026487,-0.1208
0.059739,0.15455,-0.12638,0.39515,0.090837,0.066448,0.02119,0.091537
-0.11998,-0.31064,-0.65959,-0.2236,-0.14901,-0.13373,-0.069446,-0.047658
0.075473,0.20161,0.92618,0.14743,0.055893,0.049603,0.035547,0.031972
-0.049288,-0.15973,-0.035216,-0.24368,-0.036744,-0.024596,-0.039179,-0.04453
0.029102,0.035374,0.47521,0.086255,0.034009,0.033824,0.03413,0.0041082
0.12309,0.38076,0.2547,0.34016,0.18232,0.11505,0.083251,0.037232
-0.25173,-0.62371,-0.66784,-0.82483,-0.34161,-0.21877,-0.11866,-0.13279
0.13122,0.30288,-0.30405,0.46032,0.14995,0.05557,0.014175,0.11093
-0.0014406,0.050716,0.33454,-0.14572,0.00098062,0.039564,0.012965,-0.013299
0.014413,-0.0056529,-0.090008,0.30485,0.071014,0.037951,0.0028168,0.025182
-0.016469,-0.069724,-0.20975,-0.021829,-0.046135,-0.019415,0.0073966,0.069541
0.07783,0.2489,0.27594,0.14109,0.040103,0.039591,0.042646,0.11158
-0.1558,-0.5342,-0.42369,-0.49526,-0.15481,-0.13629,-0.086383,-0.14556
0.016983,0.08104,-0.16871,0.12304,0.048595,0.0236,0.019116,-0.13875
0.17427,0.46972,0.65662,0.32257,0.22039,0.16023,0.078231,0.039446
-0.12154,-0.26662,-0.17041,-0.1252,-0.17086,-0.093245,-0.08064,-0.23432
-0.034604,0.028052,0.16277,-0.073855,-0.023679,-0.033429,0.042692,-0.020859
0.0052363,0.13448,0.6443,-0.072065,0.0057157,-0.0038651,-0.036057,0.55613
0.083762,-0.23709,-0.91313,-0.027372,-0.035647,-0.0044585,-0.0044022,-0.0028692
-0.049196,0.0062824,0.19173,-0.088934,0.02433,0.035065,0.035979,-0.1202
0.0984,0.16856,0.019427,0.36026,0.11556,0.052022,0.022382,-0.055044
-0.19231,-0.17265,-0.21899,-0.25767,-0.11336,-0.071093,-0.045473,0.0032087
0.063017,0.12309,0.26938,0.14376,0.056365,0.016873,-0.011656,-0.36927
0.044124,0.04819,0.36024,0.0028282,-0.00031385,-0.0048275,0.014128,0.21654
0.071483,0.064268,-1.0504,0.2268,0.044621,0.05093,0.023764,0.080026
-0.11246,-0.37444,-0.093999,-0.62055,-0.14486,-0.08953,-0.029869,-0.075934
0.070757,0.30383,0.30273,0.49359,0.095316,0.07375,0.04839,0.24908
-0.081596,-0.19621,0.54872,-0.35865,-0.047242,-0.037182,-0.030562,-0.13934
-0.037865,0.017566,-0.21539,0.02774,-0.033227,-0.046965,-0.032262,-0.036885
0.16324,0.251,0.25622,0.33414,0.14547,0.076125,0.035688,0.010908
-0.1421,-0.175,0.65785,-0.18826,-0.13585,-0.073671,-0.029521,-0.096232
0.05402,0.036421,-0.83585,0.070407,0.037055,0.035291,0.022483,0.056864
0.024936,0.048734,0.3848,-0.030892,0.0080086,0.03604,-0.0032303,0.041268
0.067294,0.087566,-0.48502,0.022244,0.081602,0.06139,0.018676,-0.072423
-0.014525,-0.019954,-0.8504,0.056045,0.0076262,-0.029477,0.010322,0.13738
-0.15831,-0.32148,0.55786,-0.28335,-0.13605,-0.11187,-0.051598,-0.080147
0.010753,0.065408,0.30839,0.12665,0.0097136,0.032637,0.012605,0.023702
0.070698,0.031359,-0.36422,0.088512,0.038499,0.052213,0.023128,-0.029144
-0.0019019,0.14694,1.0098,0.077004,-0.041979,-0.061111,-0.012437,0.025469
0.035153,-0.040734,-0.60011,-0.010614,0.057264,0.020729,0.022794,0.31922
-0.029147,0.062015,0.29803,0.012708,0.031408,0.0008372,-0.035593,-0.59379
0.023717,0.048375,-0.25796,-0.3293,-0.080735,-0.0036538,0.0073452,0.075618
-0.072292,-0.24682,0.09736,0.018964,0.0094962,0.0071059,-0.020619,0.10939
0.072886,0.18269,-0.02026,0.23068,0.098446,0.071908,0.052091,0.071139
-0.002324,-0.063298,-0.50955,-0.052159,-0.017585,-0.020544,0.014321,0.14179
0.029613,0.15416,0.39651,0.34344,-0.010962,0.0028202,-0.024655,-0.076017
-0.097338,-0.33031,-0.16616,-0.65999,-0.12414,-0.084819,-0.056996,-0.097211
0.062026,0.20917,0.18969,0.55487,0.088252,0.0055548,0.019028,-0.0074278
0.023593,0.069561,-0.36704,-0.020046,0.01731,0.031975,0.047452,0.2011
