0.00055767,0.0082854,0.28013,0.056855,-0.0060408,-0.013337,-0.0056927,-0.0047746
-0.023198,-0.092046,-0.28397,-0.19933,-0.027881,-0.030211,-0.021438,0.0026828
-0.015751,-0.0060593,0.040788,0.044266,-0.011249,-0.00039659,0.0014952,0.010083
-0.016177,0.00067193,0.14901,-0.001484,-0.0031601,-0.0096935,0.0084573,-0.013806
0.022397,0.045595,-0.019033,0.046161,0.019805,0.028013,0.0073499,0.0013375
0.03748,0.035359,0.0158,0.10118,0.026501,0.011341,0.006105,0.00084317
-0.0021583,0.001668,0.1399,-0.016206,-0.0063097,0.010739,0.0048538,0.0081757
-0.033989,-0.07069,-0.4458,-0.11861,-0.054931,-0.020597,-0.019714,-0.0235
0.0045236,0.045157,0.048262,0.036104,0.03716,-0.0045574,0.010635,-0.00039463
-0.0272,-0.049075,-0.15589,-0.005118,-0.0032301,-0.011549,-0.021202,-0.00060778
0.0036965,-0.0018392,-0.14656,-0.046775,-0.0040491,0.0051486,0.0020052,0.022723
0.050369,0.092928,0.57499,0.059872,0.019161,0.014098,0.0099434,0.014849
0.011257,-0.022904,-0.14905,0.01829,0.0038803,0.015102,0.018183,-0.00089597
-0.02773,-0.0059793,0.29547,-0.022783,-0.010941,-0.015449,0.0031854,-0.016831
-0.027592,-0.059816,-0.33906,-0.039743,-0.017667,-0.015179,-0.0039305,-0.017455
-0.0040322,-0.02848,0.033025,0.014275,-0.00088124,-0.0075857,-0.018922,-0.018479
0.011617,0.064415,0.12792,0.060954,0.0079641,0.022972,-0.0028324,0.058193
0.042718,0.046984,0.16809,0.13904,0.024326,0.0062661,-0.0025896,-0.04522
-0.012348,-0.018108,0.016172,-0.15806,-0.0065976,-0.010696,0.020871,0.022926
-0.036422,-0.068045,-0.83183,-0.14311,-0.037983,-0.019942,-0.026153,-0.0028847
0.0017607,-0.0086465,0.41043,-0.0036796,0.0004958,0.00994,-0.0029683,-0.020973
0.016326,0.07464,-0.0081332,0.12754,0.022974,0.016588,0.027988,0.023463
0.030829,-0.0052053,0.10808,0.11804,0.045198,0.015732,0.012062,0.013344
-0.0092457,-0.029037,-0.33356,-0.00052581,-0.010795,-0.008184,0.0039451,0.034726
-0.056819,-0.012242,0.512,-0.18866,-0.058877,-0.023872,-0.035442,-0.084115
0.04457,0.045203,0.051856,0.054002,0.026156,0.015564,0.026702,0.14139
-0.056462,-0.10694,0.18462,-0.061328,-0.052376,-0.046119,-0.051787,-0.45256
0.038614,0.046463,-0.11353,0.090433,0.033795,0.025445,0.033845,0.54053
0.0016381,0.028116,-0.61661,0.0013366,0.026911,0.019283,0.010267,-0.066593
0.051179,0.13403,0.47977,-0.00086659,0.020651,0.021249,-0.013017,-0.23471
0.0072367,-0.01948,-0.67569,0.098867,0.014817,-0.007846,0.010977,0.12996
-0.021202,-0.058099,0.62091,-0.012666,-0.014319,0.002143,-0.0036279,-0.08212
-0.073581,-0.25563,-0.54357,-0.2268,-0.074894,-0.058341,-0.025602,-0.019734
-0.025198,0.052068,0.35486,0.018388,0.0046835,0.0058459,0.015255,0.097804
0.04567,0.084222,0.40969,0.035016,0.028917,0.038319,0.024998,0.082238
0.060909,0.28697,0.11969,0.18235,0.044632,0.01556,0.0033767,-0.13762
0.02068,-0.065249,0.22524,0.093369,0.012857,0.007859,0.012638,0.093619
-0.043481,-0.15885,-0.90042,-0.12209,-0.042758,-0.031618,-0.033354,-0.045063
-0.053083,-0.07876,-0.0081468,-0.22112,-0.035981,-0.02464,-0.017503,0.031901
-0.031163,-0.13659,-0.42541,-0.077773,-0.044618,-0.010114,-0.033515,-0.18325
0.092967,0.23857,0.80323,0.25433,0.072227,0.059024,0.043775,0.060006
0.046161,0.062598,0.095508,0.06523,0.064712,0.011089,0.027111,0.090674
-0.10894,-0.078795,-0.30219,-0.050584,-0.043729,-0.060009,-0.020749,0.066131
0.026068,0.055897,0.20776,0.11814,0.043607,0.041139,0.025401,0.010981
-0.033442,-0.018741,-0.29386,-0.38972,-0.12671,-0.052633,-0.029644,-0.14405
0.040234,-0.069542,-0.18113,0.034544,0.046526,0.033613,-0.021826,-0.054468
0.15279,0.38673,0.69335,0.57732,0.10983,0.073184,0.072184,0.10823
-0.21198,-0.75238,-0.095096,-0.62997,-0.18705,-0.11379,-0.068103,-0.0075931
0.12509,0.25483,0.16837,0.45809,0.13231,0.074059,0.041493,0.089763
-0.14104,0.056601,-0.48926,-0.21454,-0.033639,-0.043119,-0.021067,-0.069291
0.05985,0.18424,-0.0014007,-0.11759,-0.028516,0.0033218,-0.0058752,0.029841
0.040412,0.15347,-0.35506,0.13909,0.069799,0.018047,0.0089419,-0.051366
-0.011464,-0.13726,0.17493,0.1025,-0.027457,-0.0066928,-0.0077751,-0.032486
-0.056174,-0.43798,-0.16189,-0.35952,-0.093407,-0.039518,-0.016807,0.023506
0.07094,0.39965,0.86871,0.26191,0.11443,0.068178,0.044531,0.03062
0.0032537,-0.13219,-0.4446,-0.055407,-0.028723,-0.034992,-0.018909,-0.073297
-0.032207,0.029157,0.030022,-0.060298,-0.0070631,0.0026888,-0.019514,0.040517
0.066452,0.25131,0.59581,0.58413,0.077938,0.048527,0.058376,0.075966
-0.12245,-0.36344,-0.56891,-0.70744,-0.1565,-0.077086,-0.066526,-0.067766
0.096454,0.24068,-0.26151,0.12778,0.094306,0.039954,0.043186,0.00052031
-0.058124,-0.052167,0.15966,0.035113,-0.036882,-0.030029,-0.011042,0.01551
-0.031651,-0.17018,-0.075981,0.04558,-0.0032747,0.0020091,-0.01838,0.00065668
0.12093,0.013028,-0.29213,0.080681,0.093427,0.065703,0.036733,0.03384
-0.092907,-0.056272,-0.13981,-0.16475,-0.12198,-0.065598,-0.056654,-0.049428
0.013886,0.098693,0.90153,0.16033,0.061179,0.0064139,0.013997,0.015976
-0.012305,0.063097,-0.53954,-0.25698,-0.044911,-0.0074821,0.0065655,-0.036039
0.16397,0.51489,0.72602,0.57529,0.17662,0.095665,0.069555,0.051994
-0.15303,-0.45463,-0.26329,-0.26458,-0.17295,-0.082747,-0.06262,-0.040417
-0.057301,-0.28564,0.24828,-0.31504,-0.054751,-0.035033,-0.030591,-0.016407
0.14639,0.52737,-0.42939,0.13583,0.1796,0.082485,0.071838,0.069457
-0.21367,-0.75139,-0.75937,-0.25452,-0.22764,-0.12083,-0.091368,-0.095132
0.15189,0.50293,0.24161,0.10092,0.17683,0.097269,0.081233,0.075962
0.032547,-0.091454,0.096998,0.51516,0.010456,0.025919,0.011395,0.02821
-0.040021,0.061218,-0.0052799,-0.24652,-0.062421,-0.037894,-0.043161,-0.019544
-0.0029744,-0.16939,0.72382,0.11926,-0.010278,-0.015927,-0.012158,-0.0047531
0.065788,0.34413,-0.092025,0.0010465,0.12027,0.045069,0.034132,-0.036767
-0.068007,-0.15417,0.20833,-0.25984,-0.12367,-0.042269,-0.021366,-0.01399
-0.060611,0.024197,-0.52779,-0.0015642,-0.054368,-0.043424,-0.045676,-0.0066761
-0.021485,-0.39428,-0.52373,-0.35851,0.05491,0.033924,0.039502,0.0086728
0.11173,0.30026,0.81832,0.55935,-0.014473,0.025811,0.031182,0.055531
0.073219,0.356,-0.4252,0.22129,0.1906,0.065086,0.038803,0.0245
-0.12159,-0.3543,0.54389,-0.45712,-0.18157,-0.090477,-0.070472,-0.053259
0.081817,0.32345,-0.46505,0.26866,0.032796,0.01995,0.0079427,0.040862
-0.18388,-0.5967,0.087012,-0.26254,-0.096394,-0.049112,-0.038599,-0.091721
0.073486,0.20491,-0.35252,-0.047678,0.055404,0.022458,0.031943,0.02545
0.14303,0.12715,-0.031004,0.18943,0.19867,0.093845,0.071021,0.072034
-0.076679,-0.16446,-0.017509,-0.26018,-0.21386,-0.077294,-0.054219,-0.053465
0.023924,0.25408,0.57638,0.45579,0.17697,0.055818,0.023454,0.024094
-0.15654,-0.23992,-0.2644,-0.36652,-0.2695,-0.12402,-0.1099,-0.070109
0.053934,-0.11321,0.41591,0.16125,0.071942,0.055147,0.038095,0.039095
0.17884,0.65893,-0.057284,0.36372,0.2017,0.085661,0.092607,0.070556
-0.11002,-0.41536,-0.128,-0.16959,-0.14531,-0.079149,-0.063429,-0.061672
-0.031595,-0.0086011,0.28189,-0.52887,-0.023265,-0.0093955,0.015302,-0.0061662
-0.015888,-0.13784,-0.62295,0.14946,-0.017698,-0.0018088,0.0083566,0.00244
0.092985,0.023155,0.21017,0.073916,0.066859,0.045218,0.024856,0.049751
-0.088142,0.14424,-0.199,-0.22521,0.011521,-0.032459,-0.052707,-0.052076
0.081096,0.34867,-0.43326,0.6667,0.058064,0.046208,0.033173,0.03262
-0.040023,-0.4898,1.0323,0.056339,-0.051921,-0.008128,-0.014601,-0.016615
-0.099819,-0.23105,-0.95287,-0.59996,-0.084676,-0.055139,-0.055472,-0.051293
0.21456,0.60169,0.38405,0.48326,0.16247,0.092448,0.090356,0.10072
-0.2135,-0.63916,-0.29507,-0.67359,-0.16997,-0.12014,-0.069028,-0.10702
0.12454,0.57888,0.58143,0.12189,0.027669,0.049399,0.044902,0.068242
-0.036175,-0.23507,-0.24889,0.15523,0.068629,0.023232,0.0029144,-0.013513
-0.0699,-0.040787,0.67947,-0.00029704,-0.14761,-0.06538,-0.046114,-0.031428
0.10986,0.31098,0.39705,0.24223,0.15353,0.073137,0.046609,0.061771
0.034656,-0.04646,-0.49825,0.14719,0.035621,0.0017604,0.0078661,-0.0071583
-0.10024,-0.36285,-0.3928,-0.077816,-0.10222,-0.036979,-0.037288,-0.027324
-0.013961,-0.028683,-0.87308,0.15618,0.0058275,-0.0038781,-0.0030337,-0.014625
0.074067,0.19836,0.10431,-0.74206,-1.8212e-05,0.015023,0.024416,0.022659
-0.016768,0.029336,-0.0055569,0.33977,0.074582,0.027195,0.0055997,0.0058052
-0.0062674,0.10492,0.99893,-0.18795,-0.01398,-0.01477,-0.013088,-0.011156
-0.05956,-0.20785,-0.061239,-0.014836,-0.079854,-0.041207,-0.024337,-0.021057
0.041151,-0.20623,-0.84982,0.3195,0.13316,0.056605,0.033882,0.030232
0.076395,0.39032,0.92,0.065784,-0.071557,-0.0031352,0.012755,0.0173
-0.06359,0.21369,0.3983,0.045926,-0.069746,-0.048907,-0.033269,-0.036632
0.050898,-0.21366,-0.83142,-0.19892,0.076037,0.059825,0.036371,0.032502
-0.11095,-0.291,0.43624,-0.041406,-0.11793,-0.082997,-0.059452,-0.056316
0.061088,0.17653,0.061555,0.20837,0.11523,0.054313,0.038928,0.064534
-0.11157,-0.29541,-0.88358,-0.3769,-0.097915,-0.051081,-0.035252,-0.073123
0.10668,0.37183,0.58143,0.072193,0.072417,0.038967,0.030998,0.031357
0.076376,0.14,-0.48116,0.36225,0.10418,0.059401,0.035036,0.050467
-0.10786,-0.31032,0.18979,-0.42721,-0.16578,-0.075321,-0.061792,-0.062159
0.093525,0.099672,0.20972,0.43108,0.13786,0.049022,0.037674,0.053181
0.00087697,0.089025,0.17176,-0.039538,0.022628,0.010479,0.013257,-0.017461
-0.12057,-0.24875,-0.64417,-0.48063,-0.16068,-0.058412,-0.033496,-0.024197
-0.029379,0.234,0.52373,0.33264,-0.022525,-0.025236,-0.024604,-0.037645
0.12505,-0.16714,-0.15236,-0.1724,0.10779,0.070504,0.039688,0.082361
-0.02553,0.046204,0.47228,0.10301,0.01043,-0.021602,0.010639,-0.016282
0.010034,0.22389,0.19521,0.28093,-0.010783,-0.0049952,-0.010509,-0.013809
0.019968,-0.20584,-0.81293,-0.07876,0.020217,0.026386,-0.00062195,0.018996
-0.035317,0.36554,0.89212,-0.1264,-0.084154,-0.044684,-0.022443,-0.035366
-0.069992,-0.52281,-0.79771,-0.10486,-0.011064,-0.0071587,-0.013634,-0.012931
0.11943,0.1147,0.16203,0.010097,0.0605,0.053263,0.049179,0.055195
-0.02095,-0.055628,-1.0308,-0.16976,0.084619,0.0040968,0.0097866,-0.002491
-0.15405,-0.16362,0.71691,0.32797,-0.12514,-0.060539,-0.045744,-0.08389
0.11204,0.34078,0.73598,-0.039166,0.0025434,0.031586,0.023419,0.053797
0.028522,0.19473,-0.37597,-0.18082,0.038786,0.007319,0.0065938,0.0048884
-0.036491,-0.2327,0.33693,0.070697,-0.055027,-0.031616,-0.041263,-0.011451
-0.027894,-0.050218,-0.97737,-0.17313,0.017988,-0.0149,-0.010539,-0.010681
0.11666,0.17914,0.25405,0.36132,0.11675,0.080736,0.059862,0.069581
-0.033244,-0.18677,0.41909,0.2659,-0.025208,-0.0028388,-0.017521,-0.028866
-0.01779,-0.079703,0.39284,-0.50997,-0.057431,-0.031663,0.015029,0.005909
-0.017983,0.21695,0.31237,0.13824,-0.020124,-0.021788,-0.01458,-0.01422
0.011824,0.045144,-0.56974,0.0021818,-0.00018697,0.018626,0.010544,-0.019484
0.023865,0.013125,-0.50015,-0.079029,0.079903,0.011265,-0.0036589,0.0054045
-0.16193,-0.57477,-0.54288,-0.21031,-0.16279,-0.067295,-0.041821,-0.064628
0.12647,0.39115,0.55507,0.42709,0.12364,0.072219,0.036536,0.075296
-0.063405,-0.11966,0.50486,-0.088356,-0.060064,-0.054213,-0.034228,-0.019746
0.074076,0.11223,0.11613,-0.035764,0.037072,0.046016,0.042878,0.041353
0.00086932,0.30585,-0.35272,-0.36484,-0.013658,-0.017332,-0.020995,-0.030011
-0.016525,-0.14847,-0.39915,0.17066,-0.00050273,-0.0018013,0.00097606,-0.0069363
0.17871,0.24057,0.29192,0.36376,0.18641,0.092703,0.069988,0.087302
-0.29607,-0.47356,0.19809,-0.38393,-0.28877,-0.14798,-0.11844,-0.14577
0.035468,-0.33899,-0.26073,0.35131,0.097126,0.049332,0.029573,0.043643
0.079022,0.39329,0.7066,-0.078615,0.023173,0.02019,0.029663,0.030196
0.021298,0.0039258,-1.1517,-0.20599,0.004202,-0.0014484,-0.00888,0.00098434
0.095792,0.12552,0.58878,0.20934,0.039371,0.023098,0.046579,0.049355
-0.065488,0.25043,0.4523,0.063438,0.01076,-0.015811,-0.0073106,-0.051579
-0.064676,-0.12082,0.50957,-0.28645,-0.11337,-0.024519,-0.053579,-0.036376
-0.05824,-0.38581,-0.96386,0.0099084,0.041853,0.0048995,-0.0064446,0.0012085
-0.0069292,0.027063,-0.2673,-0.10246,-0.038977,-0.036628,-0.0065883,-0.0011553
0.11323,0.1819,-0.2506,0.38507,0.090006,0.062273,0.039792,0.066216
-0.02511,-0.23985,-0.095555,-0.1587,-0.023571,-0.026044,0.0078303,-0.022861
-0.069594,0.20093,0.72188,-0.20053,-0.13673,-0.043346,-0.047614,-0.04927
0.13671,0.16946,-0.383,0.11295,0.22775,0.096565,0.053304,0.057593
-0.06984,-0.13845,0.75338,0.10325,-0.14847,-0.043759,-0.033065,-0.030225
0.060902,0.19098,-0.15445,0.18469,0.094056,0.035516,0.029241,0.031059
-0.080557,-0.23377,-0.53752,-0.29982,-0.044911,-0.040945,-0.01764,-0.016449
0.021136,-0.062403,0.16025,0.17921,0.027893,0.0155,0.013698,0.006774
0.0062905,0.20381,0.5221,-0.091508,-0.024061,-0.014296,-0.0096646,-0.0088345
-0.047239,-0.10806,-0.074207,0.049539,0.0017911,-0.013437,-0.017492,-0.032192
-0.030249,-0.20184,-0.27438,-0.31398,-0.10589,-0.028926,-0.0098048,-0.00091255
0.033737,0.054929,-0.45625,0.24598,0.082398,0.033034,0.0056224,0.030272
0.082185,0.26358,0.15488,0.072384,0.019833,0.02419,0.03669,0.0145
-0.0021369,-0.2402,0.0029699,-0.037742,0.034773,0.022936,-0.010241,0.022148
-0.0083717,0.074321,0.30288,0.11197,-0.0052508,-0.01731,-0.0022587,-0.024818
-0.08508,0.26109,-0.022942,-0.19542,-0.084244,-0.049417,-0.02523,-0.048161
0.04104,0.11616,-0.33819,-0.090343,0.024677,0.012742,0.014616,0.022551
0.010505,-0.25171,0.26007,0.26574,0.048283,0.028632,0.0235,0.015551
-0.0048554,-0.27223,-0.29498,-0.25749,-0.02118,-0.0095698,-0.022092,0.0012249
-0.059697,-0.1399,0.41151,0.068568,-0.07445,-0.023852,-0.028527,-0.028228
0.12734,0.22503,0.0015244,0.2451,0.15383,0.063721,0.050934,0.059935
-0.06079,0.23102,0.24907,-0.18086,-0.078903,-0.036147,-0.010411,-0.031313
-0.030149,-0.11963,0.096173,0.01626,-0.023064,-0.0033711,-0.0095624,-0.0053237
0.031916,0.065662,-0.8226,-0.087417,0.055366,0.013437,-0.0012998,0.012634
-0.077619,-0.18853,0.086862,-0.15088,-0.086017,-0.056126,-0.024733,-0.048024
0.10219,0.29763,0.24681,0.41658,0.076215,0.037945,0.037329,0.039026
-0.061553,-0.19538,0.057334,0.26058,-0.03585,-0.016764,-0.026004,-0.0076365
0.095015,0.26064,0.47518,-0.4256,0.0078928,0.037681,0.035355,0.046289
-0.037727,-0.48456,-1.0015,-0.174,-0.0029528,-0.001724,-0.005046,-0.025726
-0.053764,0.12204,0.28367,-0.17139,-0.052197,-0.025531,-0.037705,-0.04384
-0.0079303,0.040144,-0.22979,0.14688,0.055936,0.013145,0.01563,0.0078283
0.052903,0.3708,0.67186,0.36995,0.017017,-0.0029392,0.006641,0.012428
0.058605,0.020506,0.29644,-0.092411,0.041961,0.027679,0.029169,0.040633
-0.19362,-0.69735,-0.57189,-0.29173,-0.096112,-0.059173,-0.072987,-0.071285
0.038844,0.19509,0.62414,0.070961,-0.0071313,0.009856,0.020477,0.028485
0.084507,-0.011883,-0.79298,0.19943,0.1129,0.047239,0.043866,0.027571
0.076452,0.33868,-0.25098,0.2256,-0.025767,-0.0016587,0.0048695,0.027527
-0.032131,-0.073827,0.079845,-0.11053,0.0060378,-0.011694,0.004896,-0.018642
-0.077343,-0.039959,0.19271,-0.3041,-0.12787,-0.045146,-0.042135,-0.056445
-0.020471,-0.0076392,0.21262,-0.06906,0.0022931,-0.0001807,-0.01913,-0.00016897
0.020846,0.11363,0.26334,0.068676,0.037574,0.014096,0.019214,0.0093486
0.053969,0.2191,0.42047,0.12326,0.056752,0.021335,0.010475,0.018804
0.08636,-0.22473,-0.51459,0.321,0.13089,0.060699,0.025119,0.051495
-0.16341,-0.52315,-0.64672,-0.72785,-0.19243,-0.070973,-0.038221,-0.048934
-0.04685,0.090861,0.38885,0.40816,-0.022059,-0.0066634,-0.0074821,-0.024743
0.045637,0.15975,-0.41663,0.028134,0.0094746,0.0033572,0.015919,0.022468
0.11442,0.4852,1.0001,-0.037576,0.12091,0.044713,0.047674,0.030198
-0.066651,-0.279,-0.48356,0.0018745,-0.039626,-0.046959,-0.04505,-0.040571
-0.059757,-0.23728,-0.26316,-0.12594,-0.050767,-0.021893,-0.02798,-0.025689
0.12749,0.074897,0.23452,0.43846,0.1259,0.072898,0.051846,0.074969
0.010733,0.30755,-0.94188,-0.43077,-0.096202,-0.036055,-0.0088827,-0.011882
-0.082004,-0.1651,1.0747,0.13201,-0.045722,-0.020559,-0.0072154,-0.043892
-0.10405,-0.34616,0.70385,-0.21113,-0.058914,-0.028919,-0.04485,-0.020906
0.10844,0.41561,-0.33985,0.17047,0.082869,0.07184,0.05001,0.057199
0.047447,0.14539,-0.34277,0.18114,0.067201,0.016247,0.003907,0.010804
-0.076239,-0.09265,-0.18474,0.0069289,-0.027618,-0.054956,-0.034696,-0.058537
0.026342,0.016748,-0.43926,-0.14199,-0.037323,0.0067423,0.012381,0.013149
0.019196,-0.27156,0.15857,-0.2812,0.038262,0.013878,0.0202,0.038193
-0.035187,-0.2156,0.071539,0.066682,-0.011651,-0.0022793,-0.0033663,0.00075235
0.042906,0.20296,0.069146,0.23899,0.016204,0.012981,0.012045,0.0021565
0.034789,0.20796,0.078066,0.18272,0.0048127,-0.010616,-0.011646,-0.0046672
-0.10632,-0.28782,-0.045539,-0.25675,-0.076845,-0.041768,-0.035337,-0.074532
-0.036567,0.019132,0.92845,-0.21092,-0.064424,-0.010117,-0.012112,0.0034648
0.072265,0.071748,-0.11494,0.28196,0.097063,0.045287,0.034616,0.065312
0.056145,0.33408,-0.71366,0.0034125,0.079737,0.038451,0.034531,0.0095543
-0.014661,-0.0061663,-0.23427,0.17207,-0.0068903,0.00049339,-0.012409,0.0081991
-0.0074642,-0.053223,-0.33239,-0.087388,-0.053456,-0.03753,-0.028161,-0.016747
-0.03181,-0.31985,0.35999,-0.29866,-0.028859,-0.013334,0.0027962,-0.0261
-0.017537,0.18779,-0.0079381,-0.047684,-0.011474,-0.0052254,0.0022401,-0.0041153
0.043102,0.041713,0.61068,0.19714,0.014036,0.017951,0.024803,0.0024472
-0.068574,-0.31766,-0.52775,-0.11046,0.00052283,-0.021907,-0.031062,-0.021923
0.085168,0.32565,0.32356,0.22548,0.064964,0.047221,0.014434,0.071313
0.075017,0.16676,0.34735,0.22882,0.074434,0.014645,0.020856,0.024419
-0.20792,-0.60448,-0.64947,-0.63162,-0.20544,-0.088078,-0.058422,-0.092255
0.041518,0.20374,0.56223,0.22185,0.014546,0.0128,0.019053,0.0025361
0.03468,-0.067225,-0.38829,0.2102,0.047089,0.02847,-0.0043088,0.019676
0.053005,0.23641,-0.39256,0.0041303,0.079933,0.052817,0.035672,0.013744
-0.036414,-0.013956,-0.088982,-0.17892,-0.08987,-0.062615,-0.025103,-0.023233
0.023828,0.082389,0.30095,-0.011972,0.0064833,0.01012,0.016289,0.033533
0.053371,0.33791,0.24511,-0.019263,0.095444,0.044149,0.026691,0.027558
-0.05016,-0.60112,0.0087063,0.087976,-0.057627,-0.031222,-0.017751,-0.02575
0.04839,0.33195,0.21528,0.16156,0.062542,0.018005,0.023192,0.014086
-0.21406,-0.3672,-0.90456,-0.33687,-0.16941,-0.097532,-0.10077,-0.11079
0.10752,0.10993,0.72829,0.2265,0.089974,0.067302,0.039955,0.052849
0.099167,0.25256,0.26776,-0.014477,0.020242,0.028098,0.023569,0.05987
-0.11375,-0.24547,-0.34604,-0.48092,-0.050492,-0.03537,-0.024672,-0.058226
0.078727,-0.016863,-0.065573,0.49927,0.041947,0.025513,0.02839,0.050353
-0.018124,-0.08355,-0.2971,0.13658,0.00085518,-0.0077881,0.011218,-0.0048618
-0.044419,0.088162,0.36627,-0.10924,-0.0095361,-0.017872,-0.029053,-0.044145
0.039207,0.34486,-0.11978,-0.067928,-0.035976,-0.004559,0.0092562,0.018357
0.045309,0.040818,0.75015,0.126,0.11691,0.047904,0.032359,0.034031
-0.05754,-0.37647,-0.79656,-0.22404,-0.097721,-0.040094,-0.030225,-0.0286
0.035009,-0.17902,-0.19345,0.20187,0.1014,0.043977,0.024387,0.025569
-0.028996,0.17283,-0.28578,-0.49405,-0.14502,-0.06706,-0.046243,-0.037971
0.0079294,0.21794,0.23849,0.22895,0.022588,0.033053,0.015508,0.0073267
-0.018443,-0.036796,0.40179,0.13099,0.018548,-0.0072276,-0.0091981,-0.010296
-0.045564,-0.0303,-0.11928,-0.097949,-0.016167,-0.008178,-0.0031423,-0.020301
0.10652,-0.053323,0.43469,0.42696,0.16878,0.061498,0.049438,0.06353
-0.069575,0.15806,0.49169,-0.28526,-0.18415,-0.079409,-0.038747,-0.039775
0.043856,-0.46794,-0.80416,-0.031287,0.042367,0.030064,0.013795,0.021553
-0.09957,0.03625,-0.13033,-0.20245,-0.042333,-0.024154,-0.027076,-0.018008
0.15678,0.42763,-0.15619,0.37181,0.13186,0.086018,0.057588,0.075907
-0.077517,-0.036556,-0.51041,-0.067872,-0.076007,-0.069182,-0.044571,-0.071796
-0.013406,-0.0051034,0.86815,-0.10881,-0.0023222,0.0023328,0.010275,-0.015942
-0.010475,-0.071961,-0.0038969,-0.28318,-0.038164,-0.01985,-0.020052,-0.0066636
0.016842,-0.17461,-0.1004,0.18212,0.011372,0.03606,-0.0027909,0.010628
0.052457,-0.054917,-0.51156,0.21698,0.099125,0.021572,0.046325,0.028068
-0.0291,0.33466,0.61766,-0.084184,-0.08752,-0.039886,-0.021294,0.0065705
0.037397,-0.0048367,0.43839,-0.017441,0.084332,0.039222,0.03636,0.024252
-0.1702,-0.2283,-0.61026,-0.019468,-0.1663,-0.084781,-0.069964,-0.090788
0.082365,-0.084164,0.12074,0.15257,0.082885,0.049132,0.011122,0.03639
0.05291,0.23386,-0.056229,-0.22748,0.0042304,0.019159,0.013841,0.015051
-0.031921,-0.15556,-0.16493,-0.08142,-0.0033943,-0.010612,-0.0072481,-0.01435
0.0076614,0.1159,-0.39312,0.082694,-0.0022163,-0.024606,0.0024308,0.0026564
0.10142,0.12708,0.7513,0.33456,0.11718,0.062979,0.050593,0.073643
-0.1256,-0.15309,-0.091074,-0.43617,-0.12977,-0.052744,-0.034718,-0.067226
0.053225,-0.060807,-0.20177,0.27707,0.029954,0.026434,-0.0035463,0.025243
-0.026086,0.075172,0.12936,-0.011546,0.025527,0.011251,0.0034976,-0.023921
-0.074296,-0.26163,0.072654,-0.38939,-0.073252,-0.059355,-0.029117,-0.066074
0.049466,0.3341,-0.44454,0.4548,0.03009,0.017734,0.0081626,0.05541
0.056429,0.36144,0.35602,0.19206,0.069717,0.016074,0.014021,0.012886
0.0015566,-0.68039,-0.34153,-0.56071,-0.048105,0.014015,0.012171,0.025607
-0.03683,-0.0029616,0.35794,-0.068791,-0.06533,-0.035031,-0.028379,-0.023189
0.027274,0.44793,0.98311,0.36411,0.073123,0.0333,0.033188,-0.00042418
-0.079654,-0.40632,-0.9516,0.051958,-0.061963,-0.038552,-0.029598,-0.023223
0.064015,0.10556,-0.27361,-0.026972,0.076729,0.054267,0.025425,0.041077
0.0047782,0.068572,-0.51134,-0.1444,0.0051414,-0.00068421,-0.0049984,-0.010981
-0.0078361,0.082955,0.11321,-0.14267,-0.034411,-0.0394,-0.0038944,-0.015788
0.0022346,0.16266,0.4414,-0.044294,-0.049823,-0.015155,-0.010575,0.010536
0.034539,-0.13156,0.47835,0.42435,0.10708,0.032776,0.021595,0.0050388
-0.090929,-0.21525,0.087046,-0.1826,-0.064094,-0.02085,-0.040384,-0.032619
0.055399,0.0046152,-0.59035,0.16496,0.022199,0.026858,0.022133,0.030206
0.036152,0.13778,0.67216,-0.065679,0.0062521,0.027277,0.029454,0.0060331
-0.10922,-0.071934,-0.2993,-0.26649,-0.088659,-0.066577,-0.049582,-0.042438
0.14331,0.35494,0.055356,0.28053,0.12033,0.057798,0.05863,0.064823
-0.10396,-0.46839,-1.1798,-0.16667,-0.054011,-0.04479,-0.051945,-0.054578
-0.045569,-0.076654,0.81494,-0.052275,-0.033106,-0.014737,-0.0060825,-0.017406
0.069121,0.22956,0.37599,-0.061864,-0.019546,0.0076283,0.0089107,0.028246
0.045224,-0.062174,-0.77667,0.0021274,0.088745,0.046047,0.040028,0.043522
