0.019116,-0.15677,0.033963,-0.036002,-0.025619,-0.018217,-0.10779,-0.076966
-0.23033,0.29161,-0.084306,0.011085,0.012576,0.0048983,0.10969,0.072287
0.13095,-0.36519,0.021126,-0.01269,-0.0045417,0.0040403,-0.090024,-0.10861
-0.2331,0.13767,0.17717,0.064587,0.032565,-0.0050968,0.035838,-0.010611
0.28786,0.13611,0.12555,0.055549,0.0069064,0.01669,0.074103,0.13179
-0.17926,-0.17386,-0.53945,-0.15678,-0.026621,-0.031981,0.017944,-0.025138
0.040049,0.013854,-0.0038208,0.021605,-0.013128,0.02096,-0.0067112,0.04223
0.29252,0.16993,0.11758,0.036291,0.016325,0.01943,0.039971,0.17802
-0.11421,0.093427,0.18675,0.035941,0.015025,0.0026138,-0.067993,-0.31247
-0.060488,-0.42446,-0.028341,-0.026185,-0.024711,-0.021608,-0.11146,-0.068988
-0.34941,0.05551,-0.0028155,0.0061635,-0.0012367,-0.0063459,0.07385,0.12044
-0.066577,0.065585,0.091613,-0.007788,-0.0082869,-0.014132,-0.027638,-0.17288
0.099274,0.13696,-0.15257,-0.013638,0.0087603,0.0096565,0.037043,0.1299
0.41866,0.06527,0.051215,0.019483,0.026312,0.025862,0.09564,0.10701
0.29345,-0.026867,0.0043806,-0.010408,0.0050688,0.0031222,-0.024314,0.21095
-0.16435,0.013653,0.14884,0.021309,-0.016195,-0.019621,-0.065742,-0.29397
-0.037813,-0.074332,-0.26042,0.0049863,0.0012876,0.020022,0.079967,0.26237
-0.42411,0.0032169,0.095211,-0.036037,-0.020853,-0.034282,-0.11909,-0.11391
-0.081885,-0.10691,-0.010914,-8.7327e-05,0.010984,0.012739,-0.014908,-0.36936
0.092788,0.3922,0.14935,0.027224,-0.0047913,-0.0029737,0.048639,0.14409
-0.097737,-0.38041,-0.3975,-0.039537,-0.0055806,-0.011064,0.048269,0.098911
0.54178,-0.28065,0.11816,0.011176,0.0088125,0.027595,-0.062503,-0.097195
-0.19886,0.14901,0.13805,0.039349,0.015204,0.0036958,0.02153,0.13586
-0.54636,0.1005,-0.076463,-0.032629,-0.0017695,0.0032352,0.097799,0.097049
0.25435,0.10848,0.10968,-0.01694,-0.010631,-0.020612,-0.098818,-0.039928
-0.10812,0.23703,0.17349,0.04742,-0.003408,-0.0053035,-0.013229,-0.047171
0.8706,-0.084859,-0.073938,-0.0038164,0.0043519,0.010147,0.018898,0.083869
-0.020476,-0.008495,-0.16678,-0.046089,-0.0029832,-0.0054572,-0.017935,-0.23259
-0.33147,-0.03049,0.0083688,0.068439,0.013568,0.0026305,0.040309,0.026511
-0.16074,-0.085548,0.22106,-0.035885,-0.016441,-0.0046,-0.056543,0.024433
-0.16829,-0.16261,-0.24283,0.007544,0.016201,0.011946,0.089642,0.095891
-0.11271,-0.014906,-0.19779,0.026432,-0.0058538,0.013206,0.0018942,0.059613
-0.21697,-0.081348,0.27754,-0.07316,-0.012433,-0.047736,-0.17181,-0.30503
0.92597,0.32607,-0.22224,-0.025565,0.011991,0.063413,0.2087,0.46871
-0.81906,0.068802,0.34372,-0.033696,-0.04201,-0.059711,-0.12259,-0.33201
0.15853,-0.50629,-0.31925,0.043365,0.044304,0.020257,0.02935,0.15853
0.33858,0.4636,0.22058,0.15901,0.028765,0.021926,0.031585,0.12713
-0.056621,0.23166,0.12089,0.14938,-0.002642,0.015482,0.016951,-0.16026
-0.35293,-0.62937,-0.24267,-0.34479,-0.073296,-0.069492,-0.11595,-0.17875
0.38694,0.21789,0.14541,0.012549,0.035622,0.032563,0.023745,-0.11343
-0.15289,0.24262,0.18291,0.026223,-0.0039423,-0.0065131,0.037869,0.022987
0.38822,-0.21196,-0.3107,-0.0066945,0.011189,0.024212,0.043809,0.17861
-0.08495,-0.068883,-0.28146,0.078064,0.010727,-0.0080603,-0.020843,0.18354
-0.13829,0.18594,0.24682,-0.070945,-0.028785,-0.0017448,0.039187,-0.016224
-0.56525,-0.14436,0.070945,0.054034,0.017591,-0.011493,-0.041853,0.0785
0.043658,0.15768,0.1286,0.030849,0.016954,0.01744,-0.037553,-0.081237
0.074633,-0.002528,-0.072216,0.054356,0.00046798,-0.008608,-0.0026922,-0.11541
0.53135,-0.48462,0.13262,0.069352,0.01496,0.0355,0.078387,0.0279
0.1598,0.18822,-0.42893,-0.28395,-0.080172,-0.068797,-0.11445,-0.2628
-0.70815,0.51668,0.30529,0.0099486,0.0042418,-0.00095568,0.02069,0.066212
0.68125,0.0016326,0.0067289,0.060619,0.034007,0.043967,0.12483,0.23393
-0.34775,-0.06693,0.073463,0.087361,0.048406,0.027145,-0.028182,-0.039592
0.22502,-0.85231,-0.31498,-0.026251,-0.022663,-0.05124,-0.11766,-0.025844
-0.88392,0.15368,0.029088,0.025285,-0.022787,0.0042066,0.067574,-0.07432
0.9887,0.54459,0.30159,-0.046401,0.0012341,0.0059409,-0.01929,0.16827
-0.63288,0.28815,-0.02765,0.11069,-0.013121,-0.02278,-0.050256,-0.14081
0.16776,-0.33623,-0.12897,-0.20646,-0.0034752,0.042736,0.12279,-0.02483
0.67561,-0.16701,-0.016062,0.025324,0.029961,0.0067777,-0.0084395,0.22648
-0.44048,0.39469,0.01636,0.14923,0.040041,0.0017278,-0.014786,-0.091262
-0.46409,-0.18467,0.11892,0.0082013,-0.059462,-0.035295,-0.029517,-0.088943
0.0089601,-0.24226,-0.30811,-0.09397,-0.018805,0.0048317,0.0018144,-0.064754
0.74197,0.065922,0.04104,-0.001863,0.060277,0.028303,0.001164,0.27742
-0.64313,-0.39891,0.095944,0.25268,-0.025385,-0.035026,-0.038844,-0.29673
0.46651,0.41338,0.21434,-0.40089,-0.01788,-0.012906,-0.023727,0.073053
-0.099176,0.43667,-0.193,0.076656,-0.0029217,0.017043,0.063021,-0.049123
-0.2934,0.12863,0.041102,0.052993,0.011981,0.00066878,0.026898,0.10427
0.030268,-0.69395,0.25482,0.0053291,-0.019735,-0.014723,-0.10815,-0.23068
0.078916,-0.33219,-0.32306,-0.026691,-0.011892,-0.013291,-0.021804,0.10334
0.14409,0.49758,0.22474,0.16039,0.059046,0.10646,0.23067,0.35631
0.20383,0.093265,0.17677,0.066545,0.021134,-0.030828,-0.02376,-0.11357
-0.70165,0.28241,-0.52171,-0.097603,-0.00086032,-0.011686,-0.083514,0.011829
0.71054,-0.07777,-0.14148,-0.11379,-0.054147,-0.039935,-0.059631,-0.25463
-0.15041,-0.57681,-0.021244,-0.037152,-0.014076,-0.038112,-0.00043394,0.18591
-0.021634,-0.21153,0.071998,0.014907,-0.013744,0.016728,-0.00060561,-0.22334
-0.15332,0.77844,0.37917,0.026822,0.02482,0.054043,0.06464,0.10254
-0.050811,-0.22945,0.2963,0.069232,0.031299,0.0035946,-0.015063,0.062257
-0.13124,0.51767,-0.12647,0.064478,0.013642,-0.0014375,-0.035305,-0.045889
-0.10726,-0.67175,-0.18529,-0.10417,-0.043539,-0.030755,-0.0099243,-0.024292
-0.089847,-0.355,-0.31143,-0.15514,-0.030579,-0.028905,-0.038485,-0.065595
0.65255,0.678,0.015234,0.20071,0.068439,0.043984,0.099632,0.20772
0.17734,-0.40767,0.3531,0.04136,-0.02749,-0.014489,0.015214,-0.030575
-0.68737,0.1955,0.026351,0.046159,-0.0057066,-0.047564,-0.1504,-0.23261
0.98555,0.39023,-0.02266,-0.058681,0.016662,0.069956,0.15736,0.26566
-0.54239,-0.49001,-0.34998,-0.13275,-0.022928,0.017592,-0.007708,0.08056
-0.54127,0.091895,0.26365,0.019323,0.039461,0.0057729,0.055999,-0.00021965
0.50896,-0.014421,-0.37483,-0.078617,-0.038527,-0.028757,-0.1299,-0.25939
-0.40087,-0.13181,0.30053,0.11317,0.016374,0.022521,0.08128,0.020678
0.15214,0.50943,0.043665,0.025183,-0.014716,-0.059925,-0.069661,0.011302
-0.28985,-0.66655,-0.040437,0.064405,0.016588,0.012413,-0.06003,-0.1859
0.25394,0.12932,-0.082456,-0.05772,-0.014673,-0.034128,-0.046109,0.093573
0.48302,0.37106,0.25381,0.065229,0.032255,0.066202,0.12115,0.17051
-0.42781,-0.43862,-0.033439,-0.0044184,-0.029929,-0.014288,0.028765,0.091958
0.57701,0.80245,0.075602,-0.17338,-0.021314,-0.0093348,0.053008,0.17007
-0.64463,-0.53145,-0.33023,0.0029727,0.011422,0.019274,-0.015797,-0.080351
0.23959,-0.034967,-0.11569,-0.030916,0.013704,-0.01374,-0.082842,-0.3244
-0.73628,-0.26251,0.1517,0.075524,-0.014485,-0.037572,-0.06924,-0.22705
0.96137,0.54651,0.28056,0.25872,0.075127,0.088664,0.15043,0.56283
0.24186,0.085847,0.17502,-0.1074,-0.038071,-0.049102,-0.064379,-0.42337
-0.46817,-0.47009,-0.43832,0.093474,-0.010714,0.0019994,-0.026408,0.22915
-0.083355,-0.0053774,-0.11196,-0.3892,-0.054138,-0.016293,0.0059921,-0.017607
-0.21864,-0.1196,0.10357,0.11644,0.057873,0.067324,0.071093,0.040625
-0.39265,-0.012051,0.010557,-0.045326,-0.026484,-0.083692,-0.066467,-0.10308
0.47927,0.17268,-0.17432,0.009276,-0.026073,-0.0246,-0.032795,0.067348
-0.095955,-0.04013,0.16334,0.16424,0.051295,0.05662,0.1163,0.083038
0.6454,0.31637,0.042486,0.12382,-0.01303,-0.027883,-0.11241,-0.18944
-0.25387,-0.21762,0.37821,-0.12673,0.046744,0.096688,0.10841,0.17083
-0.089706,0.38532,0.13011,0.022544,-0.019161,-0.015012,0.0049007,0.0065453
0.44868,-0.12494,-0.68948,-0.099973,-0.054228,-0.089389,-0.0948,-0.09723
-0.55652,0.045838,0.047969,-0.11921,-0.003457,-0.0089038,-0.057336,-0.16439
0.05404,-0.097582,0.37729,0.17576,0.016302,0.023858,0.055808,0.21144
-0.7166,-0.52533,-0.079632,-0.01984,0.044452,0.048632,0.089759,0.13251
0.54934,0.32695,-0.11316,0.0048158,-0.020275,-0.035417,-0.078937,-0.24373
-0.14344,-0.64424,-0.23039,-0.070821,-0.021428,-0.0010556,0.019956,0.037314
0.86695,0.73483,-0.19449,0.034105,-0.01363,0.0037903,-0.0029919,-0.054185
-0.66302,-0.27335,0.27137,0.029951,0.0030139,-0.028438,-0.014259,0.029728
0.61767,0.3763,0.18614,0.11911,0.067288,0.058449,0.040934,0.19573
-0.98602,0.0021299,0.0755,-0.074215,-0.039985,-0.048437,-0.12704,-0.29879
0.68354,-0.21956,0.0023889,-0.12102,-0.014635,0.040866,0.15253,0.28708
0.02739,0.58857,0.37937,0.0095287,0.010004,-0.0026083,-0.0047462,-0.040762
-0.77878,-0.74516,-0.49192,0.13771,0.033515,0.007775,0.0087597,-0.065758
0.70718,0.20733,-0.084048,-0.0016405,-0.0068253,0.0087968,0.035232,0.24923
-0.65047,-0.35347,-0.13495,-0.18892,-0.040661,-0.03121,-0.082642,-0.20631
0.23838,0.47569,0.05604,0.030158,-0.020792,-0.041941,-0.063911,-0.29953
0.37634,-0.073424,0.042792,0.031813,-0.0091554,0.00046365,-0.01738,0.080258
0.2638,0.091185,0.43568,0.098341,0.034005,0.026474,0.034872,0.013549
-0.085656,-0.093617,-0.36431,0.035076,0.0078096,-0.02542,-0.053716,0.17512
-0.43397,-0.3851,-0.12695,-0.064117,0.014344,0.041086,0.06261,-0.026048
-0.21631,0.32766,0.10491,-0.043416,-0.00082556,0.008039,0.057431,0.013496
0.70208,0.0077447,-0.094642,0.080696,0.024732,0.047758,0.1115,0.099016
-0.55121,0.21997,0.60533,0.010249,-0.026532,-0.042861,-0.056185,-0.028173
-0.01914,-0.60403,-0.72344,-0.16211,-0.01456,-0.037635,-0.14933,-0.057686
0.44458,0.38074,0.36417,0.10959,0.020944,0.070556,0.19804,0.31231
-0.89475,-0.051928,-0.14917,-0.04244,-0.029983,-0.10977,-0.2891,-0.5852
0.55785,0.62097,0.10079,-0.032469,-0.0036996,0.053319,0.082927,0.098905
0.77347,-0.33585,-0.014528,0.038045,0.0058433,0.035628,0.15639,0.12094
-0.4558,-0.16551,0.22001,0.19288,-0.0013325,-0.04621,-0.093224,-0.12885
-0.35325,-0.22801,-0.04233,-0.23939,0.014032,0.026261,0.067826,0.25643
0.037395,-0.28912,-0.52218,0.09329,0.0053531,-0.0047989,-0.032457,-0.01091
-0.27334,-0.16911,0.11588,-0.05869,-0.027069,-0.03762,-0.10468,-0.10099
-0.27578,0.42855,0.0053875,-0.023156,0.034189,0.053184,0.070625,0.10516
0.81204,0.35415,0.054235,0.035986,-0.02168,-0.052207,-0.036869,-0.2894
0.20042,0.37076,0.24878,0.12659,0.055353,0.060794,0.097281,0.21643
0.020428,-0.02508,0.26273,-0.032602,-0.016005,0.01768,0.020861,0.099766
0.019786,0.19443,-0.16032,-0.12909,-0.063927,-0.095191,-0.17949,-0.25647
-0.14713,-0.74625,-0.058509,0.071655,0.020964,0.074065,0.1529,0.31149
-0.99653,-0.51069,-0.43908,0.038723,-0.011237,-0.021207,0.010352,-0.11869
0.45722,0.053246,0.096828,-0.086703,0.027159,-0.013706,-0.029092,-0.070915
-0.032891,0.03801,0.041741,0.016366,0.011404,0.0028269,-0.075052,-0.092377
0.099658,0.13909,0.22396,-0.13582,-0.042629,-0.010768,0.03623,-0.0034666
0.27281,0.36399,-0.12233,0.12897,0.029298,0.039053,0.070078,0.07092
0.28599,0.38179,0.19739,0.044945,0.00065432,-0.012087,-0.090963,0.15438
-0.501,-0.21263,-0.24023,0.0097449,-0.011525,-0.023971,-0.01745,-0.018654
0.47239,0.31191,0.13308,0.068818,0.0080412,0.0029262,-0.0065195,-0.28434
-0.19613,-0.65299,0.31504,0.04061,0.058855,0.052482,0.13681,0.3099
-0.042597,0.26654,-0.43862,-0.045587,-0.078416,-0.094512,-0.15041,-0.26025
0.34254,-0.08702,0.089542,-0.22267,0.025346,0.12409,0.20946,0.28537
-1.0595,-0.41623,-0.32724,0.063068,-0.020937,-0.073154,-0.12004,-0.085616
0.61727,0.4468,0.35121,-0.0947,0.0012305,0.0013041,-0.0064596,-0.0069816
-0.55599,0.017672,-0.083704,0.093921,0.0059161,-0.02725,-0.059292,-0.15117
0.23545,-0.64517,0.14469,0.21646,0.04808,0.037018,0.042047,-0.026015
0.79896,0.69926,0.00095671,0.03284,-0.012387,-0.00050704,0.0091608,0.18152
-0.31647,-0.12852,-0.011375,-0.23591,-0.081043,-0.053113,-0.086636,-0.13687
-0.14906,-0.35518,-0.28004,-0.040718,0.030384,0.051803,0.1074,0.13739
-0.0040883,0.5486,-0.014101,0.049955,0.010132,0.002306,0.0065139,-0.0020111
0.54644,-0.078359,0.3573,0.03738,0.030655,-0.0059905,-0.060235,-0.006761
-0.31204,-0.16628,-0.1745,-0.0076056,-0.017102,0.011275,0.03271,-0.14915
-0.57335,0.22637,0.23212,0.063119,0.023115,0.014713,0.043219,0.071547
-0.14436,-0.11743,-0.050942,-0.032847,-0.013074,-0.027508,-0.044787,0.014958
0.23327,-0.12667,-0.12097,-0.0161,-0.016874,0.0010539,0.041235,-0.022328
0.43584,0.55922,-0.020427,0.056385,0.010975,-0.025389,-0.067106,0.11518
-0.51967,-0.52552,-0.36153,0.0025269,0.0072029,0.0018195,-0.05864,-0.089253
0.63301,-0.52372,0.3147,-0.070435,-0.013235,0.027438,0.11223,0.14436
-0.5989,-0.09099,-0.0084442,-0.078131,-0.011737,0.0042731,-0.0086569,-0.13828
0.50929,0.66627,0.11396,0.048977,0.0037057,0.018225,0.0077305,-0.1099
0.42373,0.080498,-0.091431,0.029732,0.025404,0.014857,0.083117,0.13539
-0.40474,0.28904,0.28975,0.19316,-0.0087462,-0.06781,-0.1649,-0.12883
0.1325,-0.30596,-0.27332,-0.29512,-0.027842,-0.0024851,-0.016631,0.13714
-1.1346,-0.38964,-0.35037,-0.034764,-0.015579,-0.030525,-0.017575,-0.026723
0.36109,0.62483,0.48914,0.14814,0.020875,0.020741,0.083849,-0.096018
0.63473,-0.22371,0.26991,0.16946,0.0742,0.10504,0.12511,0.28945
-0.73499,-0.26419,-0.41254,-0.086584,-0.050662,-0.050756,-0.1426,-0.19794
0.32999,0.018206,-0.32153,-0.1192,-0.017802,-0.024862,-0.038926,-0.050297
0.34247,0.068417,0.29559,-0.045434,0.00060776,0.010404,0.014208,-0.05705
0.33445,0.050793,-0.027273,-0.014259,0.011864,0.030881,0.14889,0.21071
-0.57343,0.14591,-0.076983,0.074744,-0.0081142,-0.026794,-0.050266,-0.13094
-0.24187,-0.28561,0.11643,0.055866,0.018137,-0.015014,-0.10058,-0.10681
0.43375,0.18713,0.26379,0.044335,-0.0037006,0.018705,0.089932,0.21139
0.54894,-0.099126,-0.2536,-0.079034,-0.027124,-0.058787,-0.074036,-0.076076
-0.64313,-0.081782,0.21779,0.14501,0.064957,0.057225,0.039301,0.17836
0.31006,0.46492,-0.05977,0.051357,-0.016308,0.023365,0.1015,-0.041168
-0.35154,-0.41378,-0.21463,-0.39914,-0.098537,-0.065968,-0.16823,-0.24965
-0.16199,0.26424,-0.11666,0.013194,0.022121,0.016579,-0.057773,-0.10178
-0.4922,-0.19098,0.029517,0.055815,0.026164,0.013989,0.098594,0.18604
0.42474,0.030837,0.1768,0.18421,0.039333,0.012844,0.021462,0.046307
-0.12667,-0.11098,-0.017579,0.025762,0.0074591,0.013519,0.024974,0.020866
-0.019997,0.08593,0.049746,-0.081681,-0.030216,-0.046449,-0.046009,-0.15371
0.55336,-0.081452,-0.087815,0.042599,0.019865,0.012312,0.043231,0.13309
0.37843,0.23917,0.16554,0.039207,0.01655,0.048564,0.010943,-0.017365
-0.18275,-0.25586,-0.25892,-0.061627,-0.05654,-0.032251,-0.02695,0.12768
0.20817,-0.050053,0.11623,-0.058539,0.034143,0.02683,-0.0097304,-0.059562
-0.24878,0.43505,0.064537,0.14009,-0.0012096,-0.024933,0.045014,-0.059168
-0.32428,-0.58226,-0.016158,-0.15529,-0.038122,-0.063033,-0.059779,-0.085715
-0.26367,0.25612,0.0059009,0.014603,0.024754,0.045198,0.065337,0.099859
-0.22906,0.38588,-0.097063,0.070741,0.015668,0.049981,0.013766,0.018925
0.24184,-0.17144,0.056738,-0.10416,-0.018074,-0.048131,-0.12015,-0.063541
0.52525,-0.018642,0.076149,0.14689,0.010115,-0.0061734,-0.05372,0.048648
-0.29267,0.039689,0.10197,0.051792,-0.00058531,0.012651,0.051012,-0.11884
-0.43341,-0.41641,-0.35704,-0.30175,-0.06511,-0.053381,-0.022528,-0.062827
0.32913,-0.023744,0.044398,0.10368,0.0436,0.04628,0.047843,0.063958
0.095641,-0.011437,-0.043463,0.074304,0.044491,0.046215,0.16172,0.12412
0.33141,0.0012641,0.16224,0.040754,0.023348,0.0087552,-0.0087865,0.14344
0.083583,0.53502,0.15463,0.096994,-0.028117,-0.027542,-0.065969,-0.18947
0.0041826,-0.31327,0.042939,-0.12472,-0.016856,0.0069121,-0.019065,0.023565
-0.57136,0.23807,-0.16637,-0.078687,-0.021768,-0.044907,-0.088592,0.0077034
0.71284,0.20221,-0.13982,0.077306,0.026776,0.019464,0.051889,0.14358
-1.25,-0.62895,-0.036856,0.068274,-0.012292,-0.026948,-0.020747,-0.20403
0.31581,0.26937,0.22508,-0.11482,-0.021898,-0.012369,-0.072736,-0.13107
0.63905,0.15606,0.30706,0.16798,0.037258,0.055598,0.075677,0.18127
-0.5742,-0.27143,-0.42565,-0.18484,-0.037409,-0.017912,0.057939,-0.0099189
0.63264,0.28802,0.057798,-0.078816,0.012646,0.017678,0.0078407,0.053313
-0.17408,-0.39305,-0.13183,0.026271,0.00070047,-0.01673,-0.042295,-0.19857
0.095869,-0.34406,-0.030417,0.045781,0.013367,0.012178,-0.0055956,0.21211
-0.20889,0.65774,0.12435,0.074527,0.0042141,-0.012452,-0.045507,-0.16658
0.12836,-0.22618,0.064208,0.042725,-0.0031765,-0.04361,-0.036824,0.041264
-0.2838,0.056371,-0.049703,0.19243,0.030091,0.082696,0.18431,0.22679
-0.11655,0.36915,0.0051284,-0.17237,0.0020356,-0.0087752,0.047029,-0.0083448
0.35884,-0.1601,-0.11315,-0.083937,-0.033219,-0.037125,-0.16813,-0.15656
-0.19017,-0.1868,0.15759,-0.11358,-0.021571,0.028507,0.038153,0.039616
0.14682,0.077187,0.095969,0.058365,-0.010395,-0.046608,-0.11587,-0.19348
0.10855,-0.026612,0.13502,-0.029195,0.0077835,0.010699,0.080577,0.0035035
-0.26182,-0.28243,-0.15265,0.077189,0.017179,0.012775,-0.020796,0.052586
0.23445,0.18154,-0.10079,0.050036,0.0099739,0.0064483,0.049132,0.15709
-0.29079,0.08883,-0.13598,-0.00053834,0.017518,-0.000441,-0.0060814,0.020161
-9.2318e-05,-0.10223,-0.12855,0.019832,-0.03816,-0.039082,-0.061112,-0.14751
0.63055,0.39539,0.17818,-0.029128,0.038418,0.078084,0.20445,0.30975
-0.30536,-0.43524,0.034982,-0.053624,-0.010401,-0.047348,-0.16268,-0.2807
0.089735,0.50689,0.3504,0.016432,-0.028213,0.01432,0.0089925,0.05693
-0.96681,-0.9342,-0.59105,0.00097088,0.016394,0.0052871,0.00025152,-0.13097
0.085538,0.50041,0.3314,0.032387,-0.0014021,-0.011905,0.013827,0.014872
0.77542,0.21097,0.0040116,0.040038,0.012344,0.0019152,0.0261,0.11986
0.068204,-0.11263,-0.046824,-0.11685,-0.035913,-0.031192,-0.017483,-0.0027162
0.43643,0.10258,0.25152,0.030548,0.018076,0.021841,-0.053954,-0.0002876
-0.46004,-0.17182,-0.044563,0.045033,0.010386,0.0050422,0.011175,-0.051524
0.031487,0.012127,-0.38705,-0.033875,-0.0042404,-0.011029,-0.024359,0.047506
-0.43483,-0.046379,-0.23618,-0.0025409,0.005396,-0.0027899,0.019912,-0.062146
-0.31204,-0.22069,0.21285,-0.024581,-0.0077399,0.014127,0.0038636,-0.0055219
0.36308,0.45865,0.42042,0.087773,0.02641,0.0082941,0.099438,0.09187
0.30551,-0.2589,-0.091487,0.022033,-0.033091,0.018448,-0.014089,0.041654
-0.22216,0.023187,-0.059689,-0.097062,0.008747,0.020744,0.021842,-0.0087883
-0.56724,0.25486,-0.08121,-0.035647,-0.01242,-0.055524,-0.082855,-0.13076
0.78865,-0.42738,-0.11293,0.057168,0.028207,0.0081107,-0.016667,0.042228
0.51803,0.32362,0.21649,0.094716,-0.0022739,-0.022825,0.0087564,0.017775
-0.099144,0.24614,0.052519,-0.040851,-0.033529,-0.023226,-0.045928,-0.031933
-0.43254,0.095448,0.05754,-0.060956,0.0048773,0.030616,0.038219,-0.043629
-0.25021,-0.77733,-0.3075,-0.036139,0.0037574,-0.0015771,-0.042909,-0.039729
0.21225,0.27822,-0.087701,-0.0054103,0.01801,0.044578,0.10992,0.23859
-0.76321,-0.49933,-0.053217,0.031515,0.024387,0.013027,0.013134,-0.11418
0.32596,0.5753,0.22978,0.059435,-0.031662,-0.041517,-0.10609,-0.06656
0.022436,-0.18742,-0.086123,-0.077458,-0.017255,-0.0020174,0.041622,0.099902
0.27481,0.084223,0.23667,0.07432,0.020737,-0.0093691,-0.0047339,-0.053128
0.75656,0.572,-0.018953,0.077499,0.011957,0.029866,0.059156,0.027868
-0.31469,-0.44382,-0.10332,-0.099063,0.0032075,0.013859,0.037394,0.091645
-0.48213,0.071791,-0.0029573,-0.017818,-0.044652,-0.073161,-0.18003,-0.20658
-0.48677,-0.059315,0.16154,-0.11621,0.0011271,0.042254,0.10948,0.062321
0.79621,-0.02409,-0.12933,0.10587,0.031127,-0.006912,0.015024,0.16406
0.054239,0.022277,0.058561,0.054887,0.014082,-0.017249,-0.08838,-0.23654
0.31237,0.11399,-0.11283,-0.0032997,0.004692,0.0272,0.026147,0.041511
-0.85441,-0.38375,-0.081293,0.064394,-0.020441,-0.0060897,0.030994,-0.015794
-0.23436,0.15536,-0.13437,-0.14024,-0.022184,0.015872,0.004867,-0.0084436
0.53679,-0.41279,-0.1675,-0.085794,-0.0082512,-0.0084589,-0.020491,0.17414
-0.43878,0.36362,0.46361,0.071509,0.01366,-0.016724,-0.036979,-0.053386
0.53709,0.25774,-0.018717,0.13623,0.051474,0.045501,0.15855,0.16039
0.10064,0.050262,0.16942,0.029927,-0.043154,-0.048657,-0.0982,-0.21655
-0.37086,-0.11223,0.013803,-0.17752,-0.0045399,0.028655,0.059563,0.0099053
0.14564,0.32121,0.077142,0.0915,0.018903,-0.0039517,-0.087346,-0.083451
0.08366,-0.34279,-0.36775,-0.0072161,0.0037388,0.0020119,-0.0080166,0.025624
-0.0726,-0.19017,-0.11086,0.018233,0.0046455,-0.031313,-0.069794,0.047193
0.22767,-0.089833,-0.074839,-0.050945,-0.033074,-0.017543,0.039865,0.08235
-0.27235,-0.18565,-0.0023692,-0.034853,-0.015678,0.028242,0.14147,-0.0095996
-0.18284,0.25215,0.21555,-0.011222,0.017744,-0.0028183,-0.038148,-0.025266
0.54178,0.21765,0.32043,0.028203,0.028062,0.03026,-0.030003,-0.018833
-0.69275,0.12575,-0.27503,0.060311,-0.023921,-0.036498,-0.052696,-0.13031
0.39608,-0.062266,-0.14357,-0.024196,0.01001,0.031037,0.018801,0.086221
0.2339,0.47476,0.14106,0.040062,0.0045659,-0.017696,-0.034359,-0.0094273
-0.41494,-0.44033,0.066842,0.033818,0.037554,0.058691,0.147,0.17668
0.30246,-0.23173,-0.058049,-0.059207,-0.031931,-0.02975,-0.093613,-0.074314
-0.27454,-0.31985,0.075193,0.0025938,-0.016554,-0.018193,0.0091585,-0.020585
-0.24286,-0.035219,0.15187,-0.085771,-0.017868,-0.039993,-0.076134,-0.13136
-0.082069,0.25582,-0.21079,0.089882,0.019023,0.029685,0.10353,0.092908
0.93046,0.24336,-0.088249,-0.047992,-0.014871,-0.0042229,-0.014336,0.066046
-0.3906,0.10174,-0.23304,0.017181,0.02157,-0.023917,-0.070231,-0.094709
0.0017229,-0.32492,-0.005088,-0.096301,-0.027404,0.01051,0.014173,0.017276
0.25407,0.07733,0.18187,-0.020234,0.0026672,-0.0016044,0.028162,-0.011392
-0.73025,0.13675,0.038603,0.19917,0.041684,0.042069,0.042249,-0.047063
0.67062,0.15377,0.17249,0.085497,0.034942,0.01702,-0.013739,0.075188
-0.2799,0.081552,0.25051,-0.017907,-0.017787,-0.014118,-0.0069159,0.098277
-0.3011,-0.23026,-0.22772,-0.19,-0.046563,-0.012497,-0.023189,-0.094507
0.49923,0.044508,-0.070435,-0.002133,0.0028757,0.013591,0.015584,0.020431
-0.1644,-0.055128,-0.1351,-0.025627,-0.026104,-0.022405,-0.015558,0.067918
-0.4199,-0.27589,0.0085731,0.027799,-0.0087785,-0.050783,-0.093118,-0.32752
