-0.011603,-0.011384,-0.0093272,-0.0050517,0.0022013,0.0043904,0.0066204,0.0073625
0.013585,0.014859,0.0085366,-0.011515,0.0021932,0.0053755,0.0076179,-0.0072141
-0.008423,0.0015416,-0.0054061,-0.0026453,-0.013408,-0.0094371,-0.0065021,0.0012203
0.0081485,0.0031682,-0.0043549,-0.0019858,0.0022963,-0.0010646,0.0031522,0.0014231
0.00070575,0.0040237,-0.003898,0.0060838,0.0024581,-0.00080528,-0.0027119,-0.0065712
0.0082929,-0.011521,0.011703,0.0060195,0.010525,0.0069606,-0.0087187,0.016346
-0.0080977,0.0034797,0.011343,-0.0020434,0.003045,-0.0089768,0.00053017,-0.0079048
-0.0092838,0.0022769,0.0029656,-0.0023278,-0.0044021,-0.0016636,0.0014299,0.014473
-0.0029089,-0.014963,-0.013338,0.0053001,-0.0040684,0.0055663,0.0095211,-0.018031
0.003411,0.014447,-0.0062783,-0.0025072,-0.0038353,0.0050108,-0.0064381,0.0040317
0.017687,0.028199,0.016326,0.0055322,0.011869,0.0045817,0.0083353,0.0026383
0.0010324,-0.028206,-0.00023859,-0.0096699,-0.011665,-0.011271,-0.016307,-0.0064485
-0.015172,-0.013973,-0.024747,-0.0013126,-0.0041043,-0.0034432,-0.0020369,-0.0074429
0.00039531,0.0085431,0.02093,0.0070625,0.0033596,0.01245,0.0044795,-0.00018344
-0.0069458,-0.0074237,-0.0037866,-0.0080964,0.0029988,-0.01049,0.0034186,0.0076459
0.0096195,0.0084923,-0.0050566,0.015608,0.0027179,0.0058167,0.018334,0.008294
-0.0047167,0.017213,0.0016172,-0.0078363,0.0025947,0.0066186,-0.0054224,0.0017292
0.012377,0.003018,0.0007404,-0.0081491,-0.0051371,-0.015968,-0.0132,-0.0043694
0.0060178,-0.01864,-0.0075777,0.0068713,0.0029657,0.0004833,0.0027174,0.005401
-0.016176,-0.024559,0.00015813,-0.0095923,-0.0043828,0.0090312,-0.0046776,-0.0083004
0.00032168,0.016238,0.016119,0.00505,0.0039995,0.0018054,-0.0042743,0.0011126
0.0085371,0.025353,0.0011464,0.0040289,0.0045894,0.0021998,0.011618,-0.0056723
-0.014985,0.0025536,0.0019495,0.0030724,-0.0026983,-0.0054363,0.0038487,0.0024269
0.0079485,0.010193,-0.0051121,0.0022672,-0.0023069,0.0023301,-0.0041858,0.0097277
-0.00064797,-0.029876,-0.012423,-0.006137,-0.0099017,-0.0057334,-0.0046654,-0.0071446
-0.0093414,-0.008148,0.011119,0.0091468,-0.0020537,-0.0061527,0.0024647,-0.0089551
0.013306,-0.018099,-0.0048602,-0.006554,0.0056299,0.00112,0.0016717,0.0045487
-0.0028663,0.010962,-0.0056322,-0.01418,0.013183,0.016133,-0.0069298,0.0024068
-0.0030848,0.0013213,-0.0066877,-0.0059378,-0.0027932,-0.0079498,0.00021356,-0.0072902
0.012651,0.039273,0.015611,0.018132,0.0046143,0.0070197,-0.00024041,0.01474
-0.0026179,-0.015589,-0.0088267,0.0032772,-0.011433,-0.0014494,0.0073891,-0.001688
-0.0021604,-0.0069857,0.0061307,0.01191,0.0037936,-0.0021055,-0.00033028,0.005947
-0.0017752,0.010225,0.0059214,-0.0029495,-0.0043436,-0.010569,0.0078071,-0.0093091
-0.009436,-0.0033541,-0.0016097,-0.017971,0.0032779,-0.0033897,0.00047095,0.0070787
-0.0018173,-0.0090883,-0.008713,-0.0019908,-0.020155,0.011647,-0.014618,-0.0075776
0.013231,0.0082162,0.023537,0.0058806,0.011343,-0.0044881,0.0015237,-0.0065875
-0.0033091,0.0013398,-0.014409,-0.0099827,0.011852,0.010736,0.0097936,0.0020874
0.0033734,-0.022092,-0.0055302,0.012964,0.0047784,-0.00516,-0.013241,-0.0050858
-0.01342,0.016054,-0.0046315,0.0044858,0.005669,-0.005298,-0.005038,0.010916
0.0011971,-0.016837,-0.0039459,-0.0040728,-0.0090309,0.0024938,0.0032155,-0.0045872
0.0083475,0.0045789,-0.0034431,-0.0048066,-0.0082022,0.0025594,0.0037557,0.0031306
0.00035242,-0.005221,0.0047771,0.0023623,-0.0075855,-0.0051407,0.0044029,0.010687
0.0007052,0.024475,0.020826,0.0018635,0.008369,0.010604,0.012919,0.0025193
0.0015568,0.0080318,-0.0098858,0.0015387,-0.0072334,-0.0049253,-0.0020551,-0.013495
0.0027815,0.00028402,0.014258,0.0013937,0.015957,-0.0048723,-0.0015961,-0.0060396
-0.01144,-0.022236,-0.023939,-0.0063967,-0.00010293,-0.0048665,-0.001463,0.0015165
0.0055355,-0.012848,-0.0073556,-0.0062327,-0.0084274,-0.0049028,-0.017363,-0.014205
0.0066056,0.020317,0.0092018,0.0096645,-0.0010897,0.010651,0.0053973,0.017147
-0.0084159,0.0065669,0.017778,0.0021935,-0.0014303,0.010546,-0.0033911,0.0096373
-0.00057768,-0.0075942,-0.005205,-0.013064,-0.001577,0.0025894,-0.0044746,0.0022893
0.0066654,0.0087885,0.0026467,0.010721,0.0062923,-0.0054187,0.010198,-0.0049774
-0.010044,0.0086772,-0.0055883,0.011005,0.0065079,-0.0056702,0.0017985,0.0033599
-0.0036659,-0.031363,-0.022067,-0.012247,-0.0010218,-0.013776,0.0017496,-0.0040464
0.010393,-0.0017862,0.0080044,0.0034478,-0.00079199,0.0093649,0.0023105,-0.0038241
-0.006693,-0.011666,-0.0011475,-0.0044029,-0.0085491,0.0091304,0.0034311,-0.019425
0.0077865,0.0096818,0.0053495,-0.012324,-0.00094972,-0.014403,-0.0028649,0.0038786
0.0071079,0.02355,0.019848,0.018808,0.0063392,0.0091472,-0.0011973,0.011478
-0.016472,0.0067644,-0.0044175,-0.0046825,-0.0022835,0.0016989,0.00034504,0.011281
0.01515,-0.0014923,-0.012725,-0.0046006,-0.0032898,0.0023133,-0.0063031,0.003367
-0.015312,-0.0012581,-0.005113,-0.0043395,0.0034642,-0.0046877,0.0021158,-0.0044039
0.0091757,-0.00051257,0.010513,0.0039181,-0.005286,-0.0037802,-0.0057236,-0.0042103
0.01031,0.00050713,0.018415,0.020131,0.0018808,0.012715,0.0014686,-0.0038878
-0.012073,-0.021874,-0.020565,-0.010472,0.0094774,-0.010032,0.00039629,-0.0034762
-0.0034069,-0.0053358,-0.012723,-0.0020583,-0.0058563,0.013793,0.0068955,0.0047966
0.0049989,0.010975,0.018527,-0.0016098,0.0027558,-0.017447,-0.0022345,-0.0025372
-0.010285,-0.011998,-0.01267,-0.0013919,-0.0038279,-0.0021995,-0.003339,0.0057545
-0.010134,0.011752,-0.020251,-0.0092496,-0.002319,0.0049112,0.0037406,-0.0094011
0.021166,0.0041886,0.019337,-0.0017251,0.0070851,0.004014,0.0034541,-0.0011421
-0.0022349,0.0044336,0.0045999,-0.0021914,0.00073002,-0.0047192,-0.0042158,0.0070675
0.0056563,0.020305,0.013641,0.020692,-0.0059619,0.002333,0.0040693,-0.00044279
0.013603,-0.0029339,0.022902,0.01233,0.0024768,0.0018948,-0.0030965,0.015328
-0.017486,-0.026301,-0.022507,-0.019386,0.0025212,-0.0059254,0.0053589,-0.0081856
-0.0095369,-0.0029896,-0.02126,-0.0040945,-0.013645,0.010156,-0.001977,-0.00071509
0.006152,0.0044792,0.0029906,-0.0042725,0.0087471,-0.0045962,-0.0095943,-0.0013255
0.0061171,0.011785,0.0032308,0.011326,0.0073473,0.0043801,-0.001916,-0.0099605
-0.017444,-0.02782,-0.004945,-0.012011,-0.0098358,-0.0021564,-0.0023571,-0.010879
0.0058259,0.01084,0.0019817,0.011615,-0.0035324,-0.00097132,0.0047878,0.003885
0.005679,0.0029394,0.00074152,-0.0037835,0.010818,-7.0401e-05,0.011822,0.0032408
-0.0021945,0.0032937,0.0071716,0.0042404,-0.0057147,-0.0074183,-0.0045705,0.010744
0.0135,0.027562,0.0058532,-0.0034255,0.0016177,0.00033365,0.0025939,0.010813
0.0059012,-0.018085,-0.010869,0.0044322,0.0015463,-0.00026765,0.002142,0.011213
-0.025015,-0.0088316,0.0039614,-0.0034515,0.0096086,0.0064585,-0.0058825,-0.011622
0.0066412,-0.007434,-0.0043443,-0.01144,-0.013391,0.0050025,-0.0058424,-0.018808
-0.00075598,0.017082,0.026647,0.011753,0.010527,-0.0044773,-0.0055627,-0.0027137
-0.00039049,0.0097955,-0.012538,-0.004126,-0.0046933,0.009452,0.010549,-0.0025464
0.0076936,-0.013812,-0.0048088,0.0034856,-0.0044312,-0.015521,-0.004432,0.012866
3.777e-05,-0.014692,-0.02053,-0.0044185,-0.0043063,-0.0010961,0.0041171,-0.0033558
-0.0077276,-0.0083472,-0.005012,0.0034461,-0.0042467,-0.0018175,0.012683,0.0035406
5.2124e-05,0.013271,0.0027405,0.0036454,0.0036767,0.0058427,-0.010063,0.0024174
0.0077993,0.0035931,0.018437,-0.00385,0.0039635,-0.001532,-0.0016932,0.0012255
-0.0078687,0.017618,0.018719,0.0043412,-0.0032948,0.0072506,-0.001319,0.00010831
0.0077847,-0.014713,-0.012003,-0.0031021,0.013177,0.00080633,-0.0089613,-0.00080249
-0.015523,-0.0073111,-0.0034341,-0.0028118,0.0064443,0.002381,0.0066411,-0.017025
0.008145,0.00077925,-0.010338,-0.0026525,-0.0080019,-0.0038682,-0.0013503,0.0062028
0.00062581,0.01726,0.006236,0.0051662,-0.0069086,0.0052922,0.006176,0.014226
0.016535,0.010671,0.0071084,0.0050327,0.0017214,-0.0093515,-0.001983,-0.00077706
-0.0067235,-0.011443,-3.7002e-06,-0.0030059,0.0021107,-0.0088074,0.005456,-0.0076088
-0.0067453,-0.018091,-0.022962,-0.011066,-0.0058182,-0.00086839,-0.0027432,0.0014556
0.00077049,-0.0094819,0.0085502,-0.0034432,-0.0064254,-0.0010616,-0.003146,0.0028666
-0.0076423,0.014269,0.0086515,0.012117,0.00039282,0.014197,0.0042351,-0.0034984
-0.00070573,-0.0015401,0.00086588,0.0044007,0.0069923,-0.0018106,-0.011862,-0.002135
0.0060369,0.0056622,-0.0069013,0.0046498,-0.002056,0.013545,0.0032488,-0.00096371
-0.0029209,-0.010869,0.0088607,-0.010628,0.012493,-0.0099708,0.0027049,-7.3527e-05
-0.0040128,0.011516,-0.0065022,-0.010277,-0.0039125,-0.0098412,0.0099732,0.00046871
0.010684,0.010458,0.0016819,0.021218,0.0034847,0.0060843,-0.0061532,0.0084334
0.0099882,0.0095077,0.017726,-0.002184,-0.012189,-0.0013302,0.0012534,0.00036898
-0.013897,-0.022503,-0.020967,-0.0024259,0.011511,0.0068914,-0.0068138,-0.0002672
0.0014972,-0.0073885,-0.0051312,-0.010769,-0.011444,-0.0083923,0.00094549,-0.0012275
0.0014173,-0.0076011,0.010445,-0.0037224,-0.0030324,-0.008174,-0.0066838,-0.01022
0.001416,0.023779,-0.0055637,0.0032062,0.0053944,0.015334,0.0093689,0.0041518
-0.0063744,-0.014773,0.0014975,0.0023605,-0.0018725,-0.0081738,0.0022013,-0.0048127
0.0092771,0.0095791,0.0082037,0.0095321,0.0063525,-0.00054566,-0.0048141,0.0021285
-0.014104,-0.0047353,-0.0010094,-0.0063879,-0.0012246,0.0070083,0.011664,0.0016922
0.001669,0.0047347,-0.010413,0.0015609,-0.0011916,-0.0010962,0.004652,0.0017886
0.0019916,0.014455,0.01138,0.0021392,0.0064451,-0.0013874,-0.010326,0.010249
0.0025608,-0.030405,-0.0057844,-0.0047219,-0.0095514,0.0061599,-0.009898,-0.0042486
0.0034104,0.010603,0.00075602,0.0042775,-0.0022714,-0.0096874,-0.0018932,-0.0027917
-0.0033002,-0.0033431,-0.015733,-0.0022968,0.012715,-0.002042,-0.0019017,-0.001215
0.0057674,0.013502,0.0073464,-0.0012058,-0.011393,-0.0021442,0.0057735,0.00024911
-0.00079731,0.0062807,0.02315,0.0073704,0.0036102,0.013452,0.005591,-0.0064298
0.00024748,-0.032938,-0.015244,-0.007948,-0.0046963,-0.0021224,-0.0023835,0.0020161
0.00089847,0.020796,0.0014096,-0.00034323,-0.005002,-0.0098041,0.005314,0.002053
0.0088268,0.026897,0.0026039,0.0067726,0.018347,0.0060254,0.0052254,0.0092966
-0.015084,-0.037938,-0.011894,-0.017748,-0.0049754,-0.0015245,-0.0027056,-0.0074255
-0.0082773,-0.0016085,0.0045561,0.0043829,-0.0047115,0.0065827,0.004891,-0.0010849
-0.0018422,0.0033692,0.0127,0.0030413,0.0034239,-0.0087514,-0.018905,-0.0027245
-0.003353,0.00076339,-0.0032003,0.017475,-0.0041129,-0.00069709,0.0040348,-0.0043022
0.010891,0.01433,0.0037261,-0.0068538,0.0038284,-0.00055652,-0.0043453,0.0022113
0.0098698,0.0052645,-0.0054651,0.0082741,0.011553,0.0072401,0.0029568,0.0091714
-0.0062741,-0.034094,-0.030543,-0.023047,-0.02002,-0.00079674,0.0026641,-0.0067692
0.0093627,0.021275,0.01474,0.00071614,0.0028964,0.0065428,-0.0050685,0.0090748
0.017632,0.022816,0.0057149,0.0091737,-0.0055419,-0.0098211,0.0033033,0.0019227
-0.028511,-0.029713,-0.0026439,-0.0056018,0.0016688,-0.0029979,0.012179,-0.0049519
0.011357,0.011796,0.021089,0.0031284,0.0090387,0.0036304,0.0058577,-0.0039377
-0.01919,-0.001458,-0.0011896,0.011786,0.0010528,0.0023464,-0.0080155,-0.0030465
-0.01089,-0.015132,-0.0071247,-0.0031911,0.0012058,-0.0067236,-0.0062377,0.005375
0.012798,0.017381,-0.004814,-0.0028298,-0.006138,-8.3431e-07,-0.012505,-0.0022027
0.012868,0.0099943,0.0053715,-0.0027887,0.010194,0.0070252,0.012011,-0.0023539
-0.0027591,-0.013865,-0.00038795,-0.0030347,-0.0046113,-0.0011632,0.012453,0.0049859
-0.0027142,-0.015005,-0.0067848,-0.011283,-0.0038267,-0.0010677,-0.019067,-0.011311
0.005283,-0.00099195,0.009428,0.011672,0.0046007,-0.00049757,0.011237,0.003594
-0.0021679,0.012859,0.0013475,0.0034888,-0.0028597,0.0083035,-0.0058722,0.010785
-0.0094715,-0.020011,-0.046517,-0.020071,-0.010616,-0.0060226,-0.0076741,-0.0052536
0.014531,0.033468,0.022348,0.027007,-0.0030111,-0.0045582,0.006099,0.010222
-0.00060355,0.0093853,0.012955,-0.0037214,0.012226,-0.0030909,0.0044673,-0.0052986
-0.008143,-0.0062947,0.0037461,0.0048422,0.0039617,0.0060312,0.0032839,-0.012819
-0.00039286,-0.013665,0.018395,-0.0021456,0.0035627,-0.00077094,-0.0051152,0.010992
-0.00085516,-0.0050913,0.0023327,-0.0014296,-0.004498,0.0076453,0.0027537,-0.0043016
0.0061045,-0.012038,-0.021018,-0.0087978,-0.0045354,-0.0078459,-0.0044213,-0.0041292
-0.010675,0.012165,-0.0048987,-0.00091326,-0.0043454,-0.00038248,0.0044536,0.011421
0.011466,0.0048589,-0.0041793,-0.0012252,0.0038594,-0.0011751,0.0057197,-0.0045695
-0.013207,-0.0027948,-0.0034277,-0.009653,0.012209,0.0054888,-0.0086816,-0.005218
0.0092727,0.020444,0.02063,0.005205,-0.00281,-0.0037022,0.0078985,0.0095379
0.00096928,-0.01911,-0.0024244,0.012283,-0.01003,-0.0051609,-0.0072059,-0.0070672
0.0010706,-0.0041431,-0.017943,0.0039418,-0.0095231,0.0090798,-0.0071972,-0.00020375
-0.0060134,-0.0048052,0.013161,0.0037365,0.0064649,-0.0077153,0.0079472,-0.00096879
0.0030852,-0.0053029,-0.0027964,-0.011729,0.0066463,0.014873,-0.0085361,-0.0014118
-0.0030543,0.010126,-0.011042,-0.0034341,0.0066263,-0.016847,0.0060265,-0.0014361
0.0065668,0.010307,0.0041277,-0.002743,-0.0014118,-0.0013058,-0.0028586,-0.0010083
0.00040444,0.0030451,0.019327,0.013625,-0.0018326,0.0067586,0.0040425,0.015456
0.001608,0.0038752,-0.0044892,-0.0013697,-0.010236,0.0072538,0.0034049,0.00097213
0.017762,0.012646,0.018607,0.0068232,0.0046696,0.0078726,0.0030738,0.0022541
-0.021565,-0.04113,-0.028591,-0.0087475,-0.0039375,-0.014944,0.0030024,-0.012124
-0.014791,-0.0013667,-0.0054604,-0.016829,0.0030666,0.0012048,-0.0047286,-0.0032572
-0.0086276,-0.00098991,-0.013534,-0.0017153,0.0023045,-0.006234,0.0031862,-0.0024975
0.01283,0.022449,0.025378,0.021111,0.0016385,0.0018027,-0.012434,-0.0020669
0.0030466,-0.0013473,-0.0058295,-0.018498,0.0011034,0.0019282,0.0030259,-0.0019323
0.0092248,0.0058158,-0.0055175,0.012412,0.00071821,-0.0057754,-0.0051274,0.0058
0.0081791,0.012801,0.010727,0.0045444,0.0004914,0.0022153,-0.0055881,0.005605
0.00785,-0.019313,-0.003994,-0.0030426,0.00042892,0.010336,0.017368,0.0053853
-0.023024,-0.020059,0.028357,0.012996,-0.0072715,0.0029743,-0.0064601,0.0052009
0.009169,0.010714,-0.025175,-0.00218,-0.0069683,-0.0042841,0.0089529,-0.0027362
-0.01298,-0.020623,-0.00069597,-0.0096803,0.0013558,0.0040996,-0.0066649,-0.01843
0.0040201,0.018805,-0.023365,-0.0096447,0.0020826,-0.011045,0.0013542,0.0049762
0.0052434,0.027424,0.016074,-0.0021389,0.010819,0.0048724,0.0016853,-0.0028464
-0.0016755,0.01295,0.0081912,0.0050564,0.01189,-0.0028963,0.002031,0.0049711
0.014427,0.0064801,0.015503,0.012069,-0.010416,0.004712,-0.0055361,0.0049965
-0.024557,-0.062476,-0.024405,-0.019967,-0.0093318,-0.0034866,-0.0054794,-0.0027585
0.0064855,0.0012434,0.013608,0.010729,-0.00059268,-0.011746,0.0099799,0.0051523
-0.0016366,0.010049,-0.010905,-0.0050288,8.303e-05,0.0035211,0.001816,-0.010337
0.0059804,0.010801,-0.011823,0.0031783,0.0082624,0.011208,-0.0064264,-0.0023716
-0.0095255,-0.0042655,0.01102,0.0040946,-0.0073187,-0.0042102,-0.0067743,0.0055691
0.014485,0.019615,0.0030485,0.013217,0.00024333,0.0041702,-0.0068587,0.005616
-6.9424e-05,-0.0034202,0.011176,-0.00093348,-0.0002394,0.0050456,0.0012913,-0.0022934
-0.006385,-0.010829,0.0041098,0.00042215,-0.00087303,-0.0017106,0.017768,0.013039
-0.0046401,-0.01043,-0.018265,-0.022054,0.0062402,0.0071664,0.003501,-0.010907
0.012719,0.013354,0.0063906,0.0017433,0.0055519,-0.015377,0.0052447,-0.011609
0.014149,0.021377,0.0075941,0.0014132,-0.002877,-0.0069865,-0.00065682,0.0032029
-0.016251,-0.017698,-0.0069849,0.00043934,-0.0033772,0.0088179,-0.014481,0.0024048
-0.023992,-0.025819,-0.013997,-0.0010066,-0.0037315,-0.014846,-0.0052624,-0.013849
0.014272,0.012599,0.002161,0.0051468,-0.0039223,0.015832,-0.004483,0.0092735
-0.0029787,0.0038113,0.0024627,0.0035659,-0.0039445,-0.00060338,0.011156,0.0093746
0.010358,0.010364,0.010416,-0.013297,0.011815,-0.0015319,0.010384,0.0099203
-0.00014792,0.0010807,0.0026572,0.017246,-0.0035528,0.0053431,-0.014509,-0.0047687
-0.0029397,-0.0083232,-0.012959,0.0015238,0.0045783,0.004476,-0.00081806,0.0042429
0.0022888,0.013491,0.01825,-0.0058177,0.0048753,0.0037248,0.0048523,-0.01009
-0.0076403,-0.042774,-0.028777,0.0028909,-0.0027556,-0.012516,-0.005018,-0.0088816
0.0065132,0.033876,0.033356,-0.0038123,-0.0027746,-0.0051771,0.0010842,-8.9263e-05
0.0057605,0.0090987,0.0014088,-0.0027245,-0.0030497,0.0023134,-8.8058e-05,0.00056882
-0.009933,-0.015537,-0.023151,-0.0018695,-0.0035894,-0.0056549,0.0071777,-0.0069421
0.0061766,0.014646,-0.0012936,-0.0013978,-0.0043486,0.0021849,0.007231,0.016453
0.007013,-0.0097487,0.012347,0.014248,0.010391,0.010214,-5.4165e-05,0.00048162
-0.015472,-0.010613,-0.0055176,-0.017415,-0.0061242,0.0027901,0.00075382,-0.00011934
0.00099069,-0.011389,-0.015592,-0.0025426,0.008734,-0.0045148,-0.013999,0.0068837
0.0093389,0.03481,0.01365,0.004315,-0.0074307,-0.0039738,-0.013255,-0.0019037
-0.0061686,-0.012618,-0.0034563,0.011124,0.00012992,0.012118,0.010661,-0.010809
-0.0064957,-0.013018,-0.0042011,-0.0054148,0.0079841,-0.011034,0.0029984,-0.0041421
0.024049,0.025827,0.027144,0.0094861,0.00045963,0.00461,0.0028297,0.002557
-0.015946,-0.021062,-0.011011,0.0011956,0.00090836,-0.0034854,0.0024058,-0.0062311
-0.0012706,0.010388,-0.0016399,-0.0068311,-0.0063961,-0.0040467,-0.0059899,0.0086663
-0.0098154,-0.0048228,0.00031047,-0.0067889,0.0018926,0.0030101,0.008998,0.00046945
-0.0023006,-0.01202,-0.0054715,-0.0065077,-0.013347,-0.0056219,0.00059354,0.0082997
0.013615,0.012211,0.01196,0.0018058,0.01037,0.0014565,0.00013045,0.00091554
-0.0010784,-0.0024787,-0.025763,0.0025048,0.0027585,0.00094391,-0.0079506,-0.0061037
0.0082366,0.021991,-0.0015976,0.0033689,-0.0048725,0.0085563,-0.0079772,-0.0050379
0.0023099,-0.01599,0.021928,0.012155,0.0031702,0.00088202,0.0078907,0.0039891
-0.0035069,-0.014905,-0.0097933,-0.0024713,-0.0043073,0.0013149,-0.0072188,-0.01041
0.0061062,0.0095894,0.0049642,-0.0093698,0.0039701,0.0019428,0.009167,0.0063202
-0.0081838,0.010599,0.011727,-0.00085043,0.012361,-0.0051741,0.0022983,0.0071895
-0.0074907,-0.011882,-0.012716,0.0073481,-0.01044,-0.0045314,0.0033303,-7.4656e-05
-0.015293,-0.018793,-0.0056599,-0.008293,-0.0020198,-0.0040243,0.0043355,0.00010376
0.0075721,0.021108,-0.0060134,-0.00092723,-0.001537,-0.0036789,-0.0026139,-0.0079071
0.01445,0.021855,0.017557,0.0060457,-0.0012641,0.0043494,-0.009796,0.0071798
-0.010001,-0.02441,-0.013072,0.0049204,0.0065567,0.012323,-0.0094442,-0.0092453
0.0048122,0.0072507,0.011394,-0.0041349,-0.001524,-0.010917,0.006263,0.0054272
0.0044163,-0.00040917,0.0048739,-0.0052855,-0.0098453,-0.0027942,-0.0016781,-0.0033643
0.0045354,0.0072631,0.006244,0.0016896,0.012922,0.0054744,0.013697,0.003566
-0.0026775,-0.016599,-0.015934,-0.014265,-0.0034253,0.0060529,-0.010018,0.0028816
-0.0017549,-0.0016222,-0.014942,0.0016673,-0.0040761,-0.0011398,-0.0024376,-0.0053556
0.0070621,-0.0023844,0.016935,0.018264,0.0032717,-0.00060084,0.013033,0.0023055
-0.0077446,-0.010936,-0.014081,0.0041838,-0.012546,0.0075363,0.0051338,0.0023926
-0.0073457,0.03536,0.0092374,0.0060977,0.011012,-0.0080876,-0.010558,0.002644
0.0081142,-0.0040164,0.0088518,0.0002815,0.011429,-0.0084626,-0.0028539,-0.0048489
-0.0082629,0.0038002,0.00049816,-0.013579,-0.003548,-0.0013777,-0.0030562,0.0032556
-0.0016847,-0.019321,-0.0078998,-0.0045134,-0.002779,-0.01017,0.0044386,-0.0043657
0.004623,0.0046853,0.015002,-0.0039594,-0.002016,0.012191,-0.0037861,0.0035033
-0.0046909,-0.0023985,-0.0088554,-0.0041669,-0.0091929,0.011199,0.0035824,-0.0043736
0.009715,-0.0016206,-0.016937,0.0027442,-0.00096598,0.0026394,-0.004616,-0.0045021
-0.0066202,-0.00090416,-0.0014281,0.0013219,0.0069866,-0.0055624,0.0029641,0.0032021
0.0089309,-0.00034971,0.0063871,0.0074237,-0.0009696,-0.0055513,-0.0048534,-0.004611
0.0016846,0.015585,0.014256,0.0056638,0.0064447,0.0026421,0.0032124,0.011186
-0.0050402,-0.0078483,0.0064621,-0.0037579,-0.0019624,0.0033008,0.011512,0.0037371
0.0041675,-0.00036656,-0.0014699,0.010541,-0.0026771,-0.0037075,0.0043409,-0.011365
-0.0022051,-0.0010245,-0.0096246,-0.013881,0.0043863,-0.0029044,-0.0027906,0.012673
-0.00097637,-0.0019552,-0.0024172,0.0089102,-0.0041212,-0.0022382,-0.010008,-0.0023844
-0.00015446,0.0047589,-0.0032575,-0.0070609,-0.0046768,0.0059996,-0.0096047,0.0058562
0.00016375,0.0036451,0.0035823,-0.0071548,0.0027949,-0.0016871,-0.0016435,-0.0095552
-0.015629,-0.012924,-0.012982,0.0007792,0.0027277,0.0059452,0.0060521,-0.017388
0.007273,0.0021183,0.0019301,-0.0067161,-0.0048453,-0.0023079,0.0057043,-0.0019731
-0.0090679,-0.0057527,0.0016197,0.0094131,0.011326,-0.0029191,0.0051898,0.013342
0.0058608,-0.013006,0.017443,0.010091,-0.011294,-0.0035805,-0.0032316,0.0052322
0.013159,0.019408,0.0025293,-0.0047154,-0.0024674,-0.004161,-0.0038716,-0.0027679
0.012911,0.013234,-0.011986,-0.0038212,0.014264,0.0032695,0.0033146,0.012834
0.00511,0.015099,0.020562,0.012681,-0.0080993,0.0031661,0.0027271,-0.0026532
-0.010325,0.0012506,-0.0094657,-0.0021916,0.00062993,0.0033649,-0.0056205,-0.0024064
-0.017892,-0.020816,-0.016388,-0.025103,0.0090921,0.0038246,0.0017216,-0.0021338
-0.0098914,-0.012285,0.015233,0.014187,-0.014036,0.004446,0.0013381,-0.0097308
0.0057942,-0.012324,-0.016241,0.0062812,0.0015317,-0.010533,0.0010797,-0.001817
0.013533,0.0025605,-0.017003,-0.0019105,0.0011378,0.0056164,-0.0068137,-0.0018467
-0.01006,-0.0064818,0.0053031,-0.0024855,0.00048382,-0.017538,-0.0066604,0.0058282
0.0054153,0.02336,0.027481,-0.0031243,-0.0081333,0.0058703,0.0015828,0.0056314
-0.00245,0.0064826,0.010726,-0.0036765,0.01447,0.005525,0.010113,-0.0023846
0.013286,0.013481,-0.0056768,-0.0040026,-0.0019109,0.012738,0.003265,0.005254
-0.0020425,-0.017971,-0.013768,0.019435,-0.0025093,-0.011438,0.0043798,-0.010509
-0.0015864,0.0059122,-0.0056796,-0.0036412,-0.0029132,-0.012165,-0.0023097,0.012803
-0.0010352,-0.00090204,0.0029269,-0.0029576,0.012497,0.01071,-0.0013429,0.0048318
-0.016098,-0.030797,0.0041261,-0.0020639,-0.011004,-0.0051821,-0.0084981,-0.011032
0.0078319,0.017536,-0.0022505,-0.0011261,-0.0031635,0.010551,-0.00044605,-0.011383
0.00037843,0.0032071,-0.00077618,-0.00033413,-0.003107,0.0032345,-0.00066284,0.0037806
0.00056901,0.011924,0.0083472,0.0079466,0.012551,-0.011565,-0.0012946,0.0032456
0.0083973,0.0044642,-0.0063094,-0.0076644,-0.0030957,0.0050942,0.005585,0.0027035
0.000444,0.0042062,0.0098094,0.0074661,0.0046357,0.0061744,0.0045154,0.0022347
-0.0076304,-0.020047,-0.0058634,-0.0013113,-0.011109,-0.0084959,0.0034916,0.0019139
-0.00015615,-0.021259,-0.014257,-0.018242,-0.0034162,-3.98e-06,-0.020758,-0.0060196
-0.00052583,0.00080713,0.00033506,0.0037503,0.0043223,0.00030111,0.0021936,0.0018886
-0.0087033,-0.00046381,0.0068024,0.0024021,-0.003483,0.00020155,0.0098897,0.0021797
0.014393,0.037647,0.0053182,0.0013757,0.012241,-0.00025934,0.010101,0.0026111
-0.0015536,0.0058843,0.019497,0.016463,-0.0032152,-0.0087863,0.0027075,-0.0047075
-0.0018805,-0.0098304,-0.028635,0.00086301,0.0047794,0.013834,-0.004647,-0.0042364
0.0055601,-0.0096445,0.0016558,-0.014206,-0.0029137,-0.010359,-0.0043332,0.0039474
0.0051048,-0.0016124,-0.0067712,0.0023765,-0.0029319,0.012534,-0.012127,0.0041643
-0.011079,0.0061805,0.016385,0.0035394,-0.0031365,-0.00332,0.0031389,-0.0036081
-0.0039144,0.013502,0.0085606,0.0046874,0.0042832,-0.0031885,0.0024115,0.0040808
-0.0045976,-0.042275,-0.014718,-0.010003,-0.011867,-0.0027187,0.001418,-0.0039724
0.0025835,0.0029263,0.0089438,-0.0016074,0.018833,-0.0019941,0.00033542,-0.012073
0.0021048,0.024269,0.0013398,-0.0014288,-0.020663,0.006669,0.007196,0.011107
0.0018656,-0.0014,0.0015012,0.0061928,0.0026012,-0.00031723,-0.001216,-0.0046752
0.0097234,0.012209,-0.021789,-0.0098846,0.0027943,0.0081543,-0.0090926,0.010934
-0.0055878,-0.020489,0.0018747,0.0051753,0.011207,0.00072704,-0.00069929,0.0032511
0.0027248,-0.021087,-0.013321,-0.0031646,-0.0034571,-0.0070202,0.00053761,-0.0043183
-0.0045379,0.018376,0.010864,0.0042739,0.01336,-0.015063,0.0023335,-0.0040244
0.0037087,0.019758,0.027609,0.019734,-0.0088461,-0.0076865,0.012302,-0.0037545
-0.0039463,0.0062968,0.005628,-0.0036716,2.8627e-05,0.015236,-0.0010792,0.0042343
0.0036254,-0.0067305,-0.0083451,-0.011319,-0.0070712,-0.0086687,0.00094467,-0.0035445
-0.012694,-0.011951,-0.0067213,-0.011113,-0.0068156,0.014434,-0.0053507,-0.003674
0.0018083,0.0058146,-0.013198,0.0046749,0.00078419,0.014245,-0.012369,0.0038547
0.0081793,-0.00066769,0.011051,0.0047452,-0.0076244,0.0063248,0.0032206,0.0034499
0.0065964,-0.0081588,-0.012256,-0.010901,0.014989,-0.0094443,-0.0054341,0.0029748
-0.0027173,-0.0010243,0.01059,0.012476,-0.0015028,-0.017569,0.0086849,0.0024913
-0.0038995,-0.0024811,0.0015575,0.0046554,0.0055651,-0.0025202,-0.0010632,0.0020686
