0.78366,0.33217,0.20951,0.026,0.049158,0.13454,0.11854,0.26333
-0.55421,0.21114,-0.22958,0.00717,-0.032447,0.067259,-0.10572,0.17784
-0.61999,-0.17278,0.037084,0.012565,-0.0033137,-0.091178,0.42818,-0.21783
0.13893,-0.26696,-0.11582,-0.043452,0.0041082,0.043663,0.74392,0.41594
-0.049655,-0.36911,-0.15737,-0.051233,-0.041227,0.027473,-1.0103,-0.47925
0.18701,-0.055321,0.084007,-0.08092,-0.014327,-0.084863,0.12572,-0.11688
-0.96161,-0.054138,0.1236,0.10183,0.10797,0.088806,-0.13763,-0.052504
0.7831,0.51132,-0.023455,0.16075,-0.065501,-0.038897,-0.097575,0.011649
0.83409,-0.15848,0.13424,-0.014192,0.0582,-0.016858,0.081961,0.35135
-0.16141,0.48284,0.033111,-0.15825,-0.053132,0.019829,0.31557,0.071368
-0.35452,-0.41582,-0.13276,0.032282,-0.017658,-0.0013346,-0.30231,-0.21553
-0.007943,0.5598,0.041761,0.048802,0.085684,0.027299,0.5882,-0.014201
-0.33209,-0.86476,-0.076825,0.086211,0.029843,0.12823,-0.32523,0.17738
-0.5004,-0.52068,-0.11353,-0.097526,-0.16178,-0.24536,-0.40228,-0.2571
0.60887,0.49253,0.11208,-0.21261,-0.043406,0.071708,-0.065572,0.12729
0.7415,0.60353,-0.031375,-0.015654,0.073352,-0.059161,0.41822,-0.030303
-0.89612,0.15985,-0.042066,0.26037,0.080308,-0.080692,0.17296,-0.13855
0.88737,-0.0012623,0.19906,0.062053,0.041228,0.08789,0.088263,0.40115
-0.30115,0.042084,-0.056452,-0.031654,-0.07401,0.14407,-0.35196,-0.24247
-0.74314,-0.57705,-0.04204,-0.028366,-0.061472,-0.020293,0.10263,-0.033149
0.079451,-0.51293,0.0081244,-0.28012,-0.0067274,-0.10049,-0.58566,-0.20731
-0.11758,0.043971,-0.031471,0.25111,0.10574,0.33979,0.77305,0.52324
0.87538,0.9767,0.0881,0.27491,0.025378,-0.39685,-0.43545,-0.21587
-0.58335,-0.18043,-0.056441,-0.2257,-0.02214,0.085444,-0.098733,0.061894
-0.035054,-0.30529,-0.060316,-0.39248,-0.10819,0.026365,0.32466,-0.38204
-0.17979,-0.49396,0.004847,0.28173,0.039623,-0.068195,0.13275,0.29289
0.80254,0.5005,0.013057,0.062446,0.061049,0.05857,0.17665,-0.24428
0.18174,0.30606,0.0027896,-0.09686,-0.067911,-0.1011,-0.4754,-0.14534
-0.00167,0.39984,0.13011,0.21076,0.0041,0.14913,-0.19397,0.39747
-0.93525,-0.47778,-0.034504,-0.15449,0.027223,0.10789,0.49337,0.32259
-0.09567,-0.36172,-0.18594,0.011346,0.009687,-0.1915,0.1137,-0.13712
-0.23176,-0.061279,0.082604,0.052732,0.0067673,-0.20021,-0.6491,-0.36049
0.30827,0.27835,-0.14233,-0.13137,-0.12153,-0.14339,0.37433,0.22504
0.92881,-0.080843,0.31944,0.037516,0.141,0.61227,-0.19993,-0.34782
0.26348,0.069987,0.069868,0.12203,0.036949,0.081927,0.23009,0.17261
-0.73132,-0.43343,-0.25798,-0.088775,-0.050627,-0.024844,0.31464,0.52361
-0.74543,0.82479,0.0079824,0.053404,-0.043564,-0.31139,-0.65424,-0.3993
0.50962,0.14531,-0.014809,-0.037601,-0.051352,-0.2247,0.10066,-0.41695
0.096649,0.010273,0.056822,-0.09645,0.074223,0.21859,0.7632,0.57408
0.070557,-1.0812,-0.12821,0.017167,-0.034315,-0.0128,-1.0376,-0.39105
-0.57768,-0.32452,0.18842,0.13885,0.068044,-0.097608,0.29556,-0.26823
0.48408,0.52963,-0.031908,0.026057,0.021654,0.12992,0.23381,0.49471
0.13142,0.38516,-0.07798,-0.14186,-0.087733,-0.086105,-0.11234,-0.082118
0.81445,0.2757,0.15176,0.087931,0.044526,0.16225,0.23333,0.42616
-0.91042,-0.12054,-0.092975,0.0043006,0.0044969,0.11815,0.073772,-0.32294
0.2535,0.19103,-0.031504,-0.088127,-0.027833,-0.14802,-0.10158,0.66252
-0.52243,-0.46993,-0.14117,-0.064283,-0.091107,-0.090215,-0.56166,-0.93885
-0.0032207,0.16008,0.13961,0.075987,0.041674,-0.10838,0.2292,-0.23763
0.22806,-0.061297,0.083317,0.1141,0.12865,0.53785,-0.060204,0.54671
-0.61201,0.0071288,0.032796,-0.082626,-0.10353,-0.62207,0.37233,-0.78125
0.94588,-0.021143,-0.059496,0.048331,0.094953,0.19956,0.28285,0.91938
0.24832,0.026167,-0.045407,-0.016487,-0.049806,-0.013661,-0.68114,-0.46849
-0.29397,-0.59686,0.02843,-0.019287,0.039681,0.19132,0.79289,0.84352
-0.097396,-0.086857,-0.087149,-0.022489,-0.074738,-0.349,-0.63784,-0.33387
-0.63267,0.52424,0.085789,0.013207,0.036121,0.53832,-0.39337,-0.69102
0.22293,0.46881,-0.06043,-0.02898,-0.026412,-0.42668,0.51296,0.60444
0.513,-7.1665e-05,-0.11004,-0.046976,-0.098186,-0.047378,-0.080787,-0.70112
-0.46281,0.24222,0.086747,0.037838,0.063354,0.1538,-0.35311,0.95967
-0.00096462,-0.51092,0.11648,0.069539,0.1228,-0.15071,0.07062,-0.39914
0.31035,-0.36649,0.033534,-0.022143,-0.067731,0.32023,1.1335,0.26968
0.31796,0.34156,0.086689,0.043738,-0.031256,-0.17627,-0.54313,-0.57042
-0.062725,-0.14923,-0.101,0.024397,0.084024,0.19453,0.16137,0.24923
0.10654,0.088504,-0.11771,-0.10437,-0.08124,-0.19371,-0.10807,-0.1012
-0.82896,-0.17134,-0.06709,0.00045017,0.011887,-0.037468,-0.59495,-0.20097
0.017074,-0.20698,0.088398,0.018012,0.027278,0.045455,-0.1568,-0.036371
0.44765,0.541,0.059005,0.049699,0.035101,-0.15573,0.13347,0.42769
-0.45813,-0.19553,-0.076945,-0.091777,-0.074043,0.21925,0.12742,0.08255
-0.18162,-0.052563,-0.045058,-0.030862,-0.081277,-0.2578,-0.025536,-0.20743
1.1015,0.60563,0.20299,0.13945,0.15428,0.26639,0.62777,0.85634
-0.54996,-0.64997,-0.16713,-0.087896,-0.10928,-0.050433,-0.73574,-0.88281
0.49207,-0.024139,0.017893,0.045476,0.073562,0.097379,0.69738,0.33971
-0.29371,0.01864,0.055917,-0.030547,-0.055044,-0.34473,-0.52948,-0.6166
-0.28896,0.19249,-0.083901,-0.011524,0.028017,0.12247,0.56854,0.03996
-0.42263,0.18808,0.10606,0.031556,0.048671,0.35685,-0.19009,-0.15341
0.61081,0.095647,0.13298,0.10552,0.045116,-0.15917,0.02837,0.79693
0.12531,-0.47675,-0.13681,-0.048549,-0.030455,0.017795,-0.32332,-0.46426
-0.28324,0.28496,-0.079039,-0.10347,-0.085081,-0.12152,0.00018033,0.076598
0.72385,-0.11459,-0.05343,0.0026764,0.0057861,-0.077667,-0.22785,0.48047
-1.1318,-0.43393,0.096451,0.012024,-0.046899,-0.17049,-0.56568,-0.91875
-0.30866,-0.03193,-0.058371,-0.004603,0.054245,0.20298,0.85368,0.63354
0.64728,0.13809,-0.001213,0.0084639,0.02887,0.052481,0.53162,0.18729
0.3442,0.24516,0.042473,0.02904,0.0030952,-0.049746,-0.16364,-0.044942
-0.14367,-0.053886,-0.098356,-0.11347,-0.13134,-0.024193,-0.31912,-0.60969
0.28662,0.59577,0.23284,0.18357,0.18119,0.25463,-0.32989,0.2503
-0.060512,-0.09648,-0.0033785,0.030229,-0.0040205,-0.16688,-0.43083,-0.41147
0.39264,0.24742,-0.034543,-0.096651,-0.00704,0.22568,0.92074,0.4737
-0.51671,-0.40136,-0.11981,-0.0096943,-0.015406,-0.069149,0.71778,0.41947
-0.66681,-0.43659,0.059753,0.0094524,0.017538,-0.1385,-0.41536,-0.27951
-0.54116,-0.20037,-0.020402,-0.055371,-0.18192,-0.44376,-0.68997,-0.14895
0.92762,-0.091031,-0.095249,0.021833,0.065639,0.26551,0.16126,0.13723
0.12223,0.17141,-0.024204,-0.017293,0.0099832,-0.025131,-0.7786,-0.61776
0.05921,0.40336,0.044722,0.029849,0.072677,0.2951,0.9913,0.95261
0.46508,0.025717,0.096579,-0.016984,-0.051439,-0.13987,-0.50149,-0.44046
-0.81108,-0.36077,0.092979,0.083776,0.10568,0.037398,-0.0086759,-0.63185
0.66248,0.47499,-0.043715,-0.02793,-0.011588,0.22456,0.67937,0.93468
-0.2248,-0.12327,-0.04766,-0.0090401,-0.052726,-0.23639,-0.17419,-0.12984
-0.12511,-0.059663,-0.075121,-0.00075874,0.0047339,0.042886,-0.23814,-0.21481
-0.33264,0.2168,0.092519,0.027839,-0.0039452,0.067957,0.47233,-0.40571
-0.040226,-0.52907,-0.09954,-0.09507,-0.086765,-0.36589,-0.43532,0.53907
0.90398,0.37821,-0.018483,0.0060157,0.053543,0.15493,0.12142,0.18031
-0.6902,-0.12145,-8.2028e-05,-0.011727,-0.011746,0.099994,-0.23629,-0.18773
-0.010798,0.20966,0.14347,0.08732,0.078139,-0.059952,-0.011605,-0.22446
0.084363,0.034167,0.014155,-0.02359,-0.073626,0.037298,0.082881,-0.14399
0.41108,0.081711,0.057736,0.016214,0.050163,0.19175,0.2192,0.69962
-0.73729,-0.70972,-0.23313,-0.050067,-0.033577,-0.26561,0.016415,-0.2184
-0.012621,-0.22528,-0.084588,-0.034361,-0.034981,-0.059254,-0.74117,-0.60093
0.25264,0.2629,0.15213,0.094624,0.069573,0.046104,0.54365,0.51486
0.66963,0.57811,0.1178,0.0082671,-0.01725,0.13596,-0.38397,-0.82083
-0.074615,-0.41804,-0.086151,-0.013132,0.039454,0.20856,0.82148,0.95095
-0.86561,0.42213,0.063269,-0.0020807,0.011679,-0.16856,0.33988,0.014424
0.50303,-0.086261,-0.090945,-0.053705,-0.070941,-0.029949,-0.666,0.076787
-0.060318,-0.11736,-0.026343,-0.01305,0.00098988,-0.081926,-0.16724,-0.31204
0.032198,0.41606,0.060655,0.017265,-0.023765,-0.037943,-0.14304,-0.54108
-0.33412,-0.27642,-0.049777,-0.018156,-0.028793,-0.11036,-0.3302,0.18646
0.024201,-0.095007,0.032081,0.044432,0.05598,0.11472,0.34755,0.11876
0.22209,0.0072219,0.0087618,0.025425,0.043343,0.13047,0.56863,0.87741
0.23597,-0.30196,0.091038,0.04247,0.035614,0.055938,-0.35531,-0.74522
0.48208,-0.061079,-0.056676,-0.036442,-0.020775,-0.098723,0.54386,0.7772
-0.77721,0.01624,-0.074109,-0.077405,-0.069774,-0.057682,-0.48426,-1.0361
-0.39451,0.0011116,-0.022364,-0.008808,-0.055239,-0.021966,-0.39286,0.28089
0.50592,0.49758,0.037801,0.0066501,0.03202,-0.0056902,0.084023,-0.22527
-0.11335,-0.14074,-0.071462,0.0092817,0.0056039,-0.00030781,-0.099684,-0.14631
-0.21979,-0.34389,0.09678,0.054707,0.061466,0.1894,0.70566,0.71714
0.13923,0.47777,-0.0032623,-0.012887,-0.019104,-0.10148,-0.20166,-0.5594
0.35849,0.097037,0.011536,0.025086,0.075804,0.14916,-0.031048,0.42779
-0.28848,-0.233,0.06248,-0.019641,-0.061204,-0.154,-0.15598,-0.18412
0.64712,0.15961,-0.039315,0.0079219,0.029313,-0.066985,0.11259,0.48255
-0.36637,-0.44534,0.0010461,0.012472,-0.037045,-0.11417,-0.33319,-0.61839
-0.45713,-0.0022715,-0.03743,-0.038836,-0.058562,0.10253,0.38303,0.074279
0.034624,0.2313,-0.070942,-0.038012,-0.01281,0.11449,-0.32376,-0.098595
0.73028,0.063056,0.055055,0.021779,0.013773,-0.20283,-0.1331,0.3668
-0.76984,-0.45399,-0.051099,-0.00053449,0.044647,0.16664,-0.022524,-0.59651
0.53657,0.51761,0.07909,0.043599,0.04902,0.066925,0.77142,0.49146
-0.42988,0.060154,0.1102,0.045419,0.027652,0.083912,0.19086,0.54119
-0.23653,-0.17189,-0.073762,-0.10346,-0.10448,-0.13427,-0.35365,-0.72306
0.4512,-0.39036,-0.20551,-0.042457,0.0051236,0.068221,-0.044777,0.12002
-0.18597,0.36459,0.10751,0.065581,-0.0098971,-0.34018,-0.64969,-0.014151
0.40068,-0.057766,0.02345,0.018588,0.0073529,0.12486,0.097718,-0.38038
-0.24862,-0.013282,0.082972,0.043876,0.057265,0.15892,-0.23766,-0.091837
0.068418,0.21784,0.0059314,-0.0066248,0.0071462,-0.096846,0.48844,0.63679
-0.14413,-0.061221,-0.074393,-0.039181,-0.0025025,0.037897,0.037647,-0.050935
-0.08867,0.044323,-0.0097398,-0.030678,-0.057912,0.14189,0.60027,-0.14624
-0.15062,-0.26748,0.011673,0.018371,0.028059,-0.065611,-0.11951,0.22435
0.81309,0.33376,0.090322,0.0058373,-0.018349,-0.052968,-0.55224,-0.16184
-0.34539,-0.055434,-0.017226,0.064025,0.060475,0.016069,0.29184,0.30687
-0.11042,-0.57945,-0.17936,-0.11213,-0.10271,-0.12383,-0.54355,-0.6412
-0.19207,0.39247,0.079462,0.039657,0.023407,-0.027075,0.15732,0.21532
-0.0092248,-0.17127,-0.054007,-0.058823,-0.0063357,0.17376,0.5563,0.3655
0.26455,-0.0039247,0.10725,0.068987,0.042549,-0.052535,-0.45691,-0.50327
0.20925,0.36534,0.062957,0.055901,0.052894,-0.042134,0.18838,0.77627
-0.41205,0.27504,0.023974,0.034685,0.040207,0.16527,-0.36581,-0.72711
-0.6462,-0.47518,-0.15808,-0.12759,-0.12857,-0.14229,0.11688,-0.75502
0.73465,0.38316,0.0091745,-0.017045,-0.016267,0.080757,0.35716,0.84223
-0.16708,-0.5141,0.018288,0.038,0.0017895,-0.16703,-0.21387,-0.18516
0.48338,0.070566,0.01038,0.0061129,0.03469,0.12865,0.25586,0.67592
-0.3106,-0.3206,0.10325,0.098112,0.074437,0.0058217,-0.42935,-0.21355
0.10666,0.21363,-0.13212,-0.092277,-0.043099,0.057753,0.5106,0.16754
0.098056,0.3938,0.031506,-0.025892,-0.028796,-0.11386,-0.29284,0.063695
-0.24979,0.04835,-0.0068687,0.024063,0.015975,-0.039465,-0.004827,-0.2041
0.23428,-0.13681,0.026629,-0.004552,-0.049113,0.040149,0.046132,-0.49444
-0.028399,-0.19639,-0.024015,-0.017534,0.010689,-0.013847,-0.46749,-0.39075
-0.24759,0.10692,0.028721,0.048106,0.04734,0.11298,0.26047,0.56528
-0.41945,-0.045024,0.044039,0.02096,0.029941,-0.077614,0.31801,-0.02459
0.1895,0.16273,-0.056499,-0.028276,-0.041254,-0.021814,-0.16782,0.037398
0.54211,0.14004,0.00017339,-0.029033,-0.0098808,-0.00023787,0.1952,0.72361
-0.17799,-0.28717,-0.012859,-0.028094,-0.040038,0.010408,-0.16257,-0.65764
-0.17688,-0.10301,0.0056966,0.044768,0.032151,0.0092163,-0.36658,-0.58037
0.019056,-0.0078578,-0.030263,0.0017781,0.057939,0.16655,0.49576,0.94062
0.50755,-0.075099,0.043246,0.014362,-0.033379,-0.15225,-0.32786,-0.55688
0.095978,0.17762,-0.000379,0.019436,0.039026,0.097856,0.73018,0.7286
-0.86279,-0.38468,-0.090876,-0.069586,-0.12367,-0.24087,-0.81703,-0.78573
-0.25156,0.42202,0.13103,0.066991,0.056353,0.10416,0.22399,0.12923
0.55365,0.30303,0.0089468,-0.047883,0.00082233,-0.10155,0.079111,0.59359
0.46514,0.41437,0.10524,0.062086,0.084729,0.22855,-0.13378,-0.40396
-0.20683,-0.54317,-0.19732,-0.079662,-0.066777,-0.060606,0.1342,0.033715
0.13698,-0.33875,-0.039279,0.019338,0.0075285,-0.014435,-0.25456,-0.41239
-0.89619,-0.24957,-0.021922,-0.038847,-0.066963,-0.037676,0.18771,-0.050934
0.37178,0.14315,0.058228,0.043288,0.038317,-0.027475,0.026597,0.31137
0.44,0.27493,0.029607,0.039822,0.034748,0.056113,-0.087386,0.12661
-0.55108,-0.073828,-0.01392,-0.033092,-0.022613,-0.044374,0.088531,0.23728
0.5864,0.12806,0.12276,0.059254,0.053992,0.12397,-0.017106,-0.030894
-0.06871,0.19331,0.0016194,-0.065846,-0.032201,-0.056763,0.2805,-0.46357
-0.35153,-0.47178,-0.073381,-0.017881,-0.023402,-0.072061,-0.077106,0.065369
-0.011316,0.28875,0.022019,0.046622,0.0099347,0.076787,-0.10183,8.2841e-06
-0.024105,-0.064813,-0.12676,-0.044589,-0.033982,-0.095866,-0.32074,0.32932
-0.077265,-0.033196,-0.027643,0.004958,-0.0070066,0.057359,-0.18942,-0.40448
0.67265,0.18003,0.085343,0.046454,0.051458,-0.011121,0.40057,0.60583
-0.12661,0.14548,0.056699,-0.0063258,0.031664,0.073416,0.19209,-0.097929
-0.25715,-0.29957,-0.018842,-0.020739,-0.027707,-0.056045,0.046568,-0.42591
-0.46187,-0.33234,-0.023103,-0.0046323,-0.0098178,-0.078606,-0.36887,-0.17703
0.30586,-0.035429,-0.0099899,-0.012595,-0.02431,0.045709,0.19938,0.141
0.43712,0.30571,0.013086,0.018077,0.0068069,0.07583,-0.049688,0.21792
-0.48872,0.069082,0.0069981,-0.013918,0.013253,-0.018306,-0.18311,-0.036246
0.022421,0.16254,-0.0053328,-0.022387,-0.020391,-0.079329,0.043768,0.039254
0.41039,-0.24246,0.022099,0.070988,0.062484,0.14369,0.30409,-0.14503
-0.48637,0.28122,0.088253,0.00066287,-0.057971,-0.16111,-0.27726,-0.085884
0.72505,0.11986,-0.10474,-0.030276,0.024996,0.11593,0.43883,0.39786
-0.99265,-0.43492,-0.0029203,0.024894,-0.016283,-0.072227,-0.32379,-0.16308
0.28329,0.2133,-0.075378,-0.10749,-0.064286,-0.08555,-0.20924,-0.14621
0.2792,-0.47071,-0.072004,0.04104,0.060805,0.043638,0.26306,0.53819
-0.41269,0.15168,0.12487,0.056167,0.015125,0.07948,-0.30884,-0.89596
0.94717,0.32306,0.094042,0.031399,0.063935,0.17648,0.46285,0.54653
-0.25407,0.34305,0.047186,-0.0099904,-0.0042568,-0.034339,-0.040813,-0.12266
-0.37943,-0.49458,-0.10884,-0.07587,-0.096331,-0.28885,-0.5078,-0.19496
-0.2133,-0.46514,-0.045462,0.005725,0.0058945,0.11516,0.80499,0.67297
0.11734,0.42198,-0.0046239,0.024111,-0.0026352,-0.041137,-0.81902,-0.44675
-0.052151,-0.04639,-0.017452,-0.0046751,0.018625,0.071256,0.29526,0.0043406
0.068056,0.34469,0.1036,0.029272,0.030847,-0.022523,-0.11401,-0.070023
-0.23129,-0.098288,-0.016425,-0.021893,-0.035768,-0.077995,0.10542,-0.5858
0.64558,-0.032175,-0.010252,-0.0091476,-0.00082891,0.14953,0.4022,0.62654
0.15365,0.30593,0.036365,0.036763,0.019248,-0.095484,-0.34633,-0.046353
-0.78385,-0.62727,-0.079412,0.006825,0.056423,0.12616,0.29065,0.37336
0.39649,0.17115,-0.029107,-0.05193,-0.091907,-0.18477,-0.79645,-0.28789
0.031297,-0.10826,-0.054592,-0.053664,-0.02707,0.080832,0.64089,0.24663
0.18388,0.17111,0.094268,0.055916,0.055494,-0.0080461,-0.41554,-0.13103
-0.40237,-0.064064,0.018834,0.010485,-0.03222,-0.0082735,0.35115,-0.060634
-0.26487,0.11404,0.030958,0.035624,0.083941,0.24933,0.50734,0.24086
0.012281,-0.21736,-0.0032733,0.020796,0.012277,-0.12078,-0.74786,-0.84753
0.32904,0.34786,0.078769,0.019497,-0.02959,-0.20683,0.0038917,0.19677
0.57657,0.20861,-0.052568,-0.047417,0.012064,0.15388,0.36154,0.41497
-0.76172,-0.74352,-0.17205,-0.07902,-0.082108,-0.14044,-0.42622,-0.30562
0.045777,0.29752,0.063235,0.026143,-0.023127,-0.049725,0.11735,0.22044
0.088489,-0.11966,0.043756,-0.012699,-0.005838,0.092076,0.032896,-0.079272
0.61112,0.36637,-0.018954,0.00077963,0.041008,0.060932,0.33882,0.69042
-0.12597,0.015721,0.10294,0.099211,0.087392,0.039116,-0.02378,-0.55384
-0.43943,-0.091058,-0.12006,-0.051805,-0.052886,-0.041536,-0.3399,-0.12421
-0.22191,-0.17027,0.017145,0.0023163,0.019764,0.093795,0.089835,-0.1162
-0.19144,-0.32906,0.016437,0.020565,-0.014143,-0.038805,-0.20746,-0.29107
0.421,0.26248,-0.026944,-0.058816,-0.068263,-0.11162,-0.0024245,0.51859
0.042724,0.2068,0.028481,0.01439,0.060471,0.014871,0.20647,0.42525
-0.31985,-0.058841,0.03434,0.021107,-0.011241,0.026663,0.14577,-0.30172
0.61282,0.23739,-0.025753,-0.0082494,0.036072,0.023657,0.39205,0.15545
-0.30303,-0.23552,0.057666,0.026648,-0.017412,-0.066027,-0.65905,-0.57846
0.3961,0.010815,-0.0064263,0.014939,-0.00097466,0.061005,0.11403,0.27254
-0.60205,-0.34809,-0.12641,-0.060539,-0.017262,-0.018035,0.12199,-0.23168
0.028906,0.32453,0.086378,0.025387,-0.028086,0.07138,-0.18466,-0.099642
0.14523,0.20546,-0.0023418,-0.025202,-0.010569,-0.13172,0.012962,-0.081487
0.45429,-0.1833,-0.026147,0.044951,0.066346,0.091801,-0.082196,0.32942
0.14033,0.2134,0.054069,0.040552,0.04659,0.016081,0.2729,0.75431
-0.89268,-0.42243,-0.12025,-0.10813,-0.077133,-0.05325,-0.33444,-0.95482
-0.20842,-0.0086162,0.038261,0.021868,0.00064502,-0.0057897,0.25327,0.44851
-0.12749,-0.1104,0.023582,-0.044638,-0.062884,-0.0437,-0.096167,0.090202
0.37342,0.2384,0.056309,0.029783,0.014509,-0.0099892,0.29651,-0.15597
0.52006,0.12813,0.0052436,0.098041,0.11652,0.095743,-0.14043,0.052076
0.41977,-0.040159,-0.073773,-0.04199,-0.029609,0.05474,-0.096661,-0.52821
-0.35256,0.022903,0.038579,0.00083815,-0.025056,-0.023997,0.19898,0.33211
0.14467,0.049602,-0.017106,0.02342,0.036522,0.11673,-0.30993,-0.18135
-0.15389,0.082806,0.063316,-0.060591,-0.10286,-0.34406,0.086945,0.12858
-0.22548,0.070615,-0.025732,0.037178,0.064265,0.11655,-0.0078657,0.31379
-0.8333,-0.38252,-0.019666,-0.012199,0.0061821,-0.017268,0.025336,-0.14202
-0.25314,-0.10067,-0.052283,-0.037593,-0.011955,0.17647,-0.28626,-0.42622
0.64751,0.17214,-0.0071742,-0.0083312,-0.021833,-0.13775,0.29608,-0.054907
0.68117,-0.040243,0.037055,0.043977,0.030873,0.048496,0.026558,0.72747
0.47907,0.15517,0.048978,0.0019988,0.005265,0.063997,0.40845,-0.021497
-0.58063,-0.20668,-0.033828,-0.017068,-0.020723,-0.11413,-0.48619,-0.1378
-0.037414,0.13611,0.031068,0.057184,0.023097,-0.024633,-0.30587,-0.38208
-0.19962,-0.062969,-0.060718,-0.048575,-0.019606,0.019952,0.35366,0.2095
-0.25264,0.073135,-0.01204,-0.029597,-0.039526,-0.082389,-0.081509,0.1309
0.42227,0.22424,0.052267,0.012532,0.025755,0.19873,0.30578,-0.64745
-0.149,-0.50999,-0.055288,0.023011,0.035503,0.049669,-0.091117,0.65827
0.2646,0.58569,0.10265,0.017273,0.028652,0.062942,0.36383,0.36483
-0.40016,-0.1728,0.025844,0.018527,-0.018354,-0.098384,-0.53572,-0.81815
-0.18841,0.061886,-0.090677,-0.03593,-0.019631,-0.23948,-0.1425,0.83706
0.075342,-0.2446,-0.036164,-0.029019,-0.045426,-0.024187,-0.18984,-0.90821
0.07513,0.031596,0.04873,0.039304,0.013858,0.0093396,-0.25289,-0.087676
0.30701,-0.37403,-0.09364,-0.04949,0.0023501,0.1828,0.70362,0.047109
0.031094,0.19017,0.083943,0.056542,0.061162,0.083662,0.46504,0.86156
0.23194,0.29126,0.058466,-0.024928,-0.051376,0.010058,-0.52801,-0.46772
-0.41269,-0.46425,-0.10716,-0.059032,-0.037936,-0.1154,0.093292,0.26496
0.25005,0.85754,0.063911,0.056198,0.047093,-0.027035,0.086759,0.036305
-0.057143,-0.26407,0.048353,0.06318,0.055358,0.016769,-0.16601,-0.10107
-0.54851,-0.2033,-0.044554,-0.014639,-0.028912,0.038403,-0.080858,-0.46329
0.60215,0.030956,-0.019751,-0.029041,-0.010754,0.052229,-0.20636,-0.070364
-0.59764,-0.032573,-0.0026,-0.035111,-0.039094,-0.13046,0.18299,0.47183
0.032963,-0.32694,-0.063816,-0.033351,-0.020729,0.020652,0.063557,0.097129
0.12859,0.23024,0.014966,0.038213,0.051638,0.075426,0.30321,-0.048739
0.38619,0.16703,0.092798,0.054113,0.021334,-0.11452,-0.43269,-0.64708
-0.060747,0.1373,0.044455,0.0061898,-0.018168,0.0295,-0.017603,0.37957
0.53713,-0.13371,-0.075456,-0.051035,-0.027907,0.10996,0.33898,0.34384
-0.4079,0.017982,0.045685,0.0074943,0.046895,-0.012648,-0.18228,-0.18337
-0.50748,-0.3753,-0.083947,-0.0054248,-0.027864,-0.08723,-0.018679,0.14256
0.24432,-0.045858,-0.034057,-0.018955,-0.02519,0.0042948,-0.11619,-0.2633
-0.59855,0.20422,0.00083682,0.0066638,-0.022665,-0.081305,0.23458,-0.34522
0.94131,0.41664,0.084089,0.040959,0.081856,0.11695,-0.22643,0.6245
-0.10246,0.0076496,0.04457,-0.0012637,0.0076732,0.12202,0.73251,0.34235
-0.39039,-0.38078,-0.0782,-0.017856,-0.018208,-0.07484,-0.89121,-0.92486
-0.1997,-0.092027,-0.04981,-0.055369,-0.081445,-0.052989,0.13463,-0.23846
0.34837,0.099878,0.058974,0.011179,0.013351,-0.063746,0.16025,0.9103
0.36605,0.021695,0.036307,0.0564,0.03947,0.040163,0.10725,-0.34511
-0.23106,-0.04723,0.021569,0.040506,0.051243,0.00013516,-0.10959,0.55028
0.11189,0.25034,-0.0022336,-0.014039,0.0090774,0.042452,-0.098047,-0.48956
-0.25452,0.21709,0.002725,-0.0067287,-0.048582,-0.027904,-0.106,-0.30864
-0.4257,-0.55478,-0.16753,-0.10258,-0.052026,0.12585,0.10322,0.21772
0.54185,0.04334,0.15077,0.088357,0.045135,-0.17465,0.40674,-0.066857
0.16221,-0.011809,-0.081068,-0.012309,0.016063,-0.013751,-0.32648,0.0095408
-0.19833,0.14802,0.036344,-0.021584,-0.01428,0.039912,0.38142,0.67371
-0.00091287,-0.045786,-0.034715,-0.040455,-0.022264,0.03469,-0.2967,-0.39434
-0.27634,0.041564,-0.011518,0.010034,-0.0075325,-0.0049639,-0.37571,-0.62395
0.19494,0.16972,0.10725,0.06047,0.030339,0.030659,0.31684,0.68825
-0.1879,-0.23806,-0.052487,-0.021188,-0.025452,-0.08547,-0.44536,-0.54366
