-0.2733,-0.21732,-0.13824,-0.03685,-0.013894,-0.027579,-0.015755,-0.094067
-0.31707,-0.17273,0.01709,0.070678,-0.013291,-0.015665,0.30677,0.010013
0.15105,0.12392,0.091423,0.32565,-0.0034357,0.067177,0.020341,0.078177
0.2288,0.055114,0.13726,0.21869,0.031277,-0.021969,-0.22071,-0.016265
0.0059081,-0.028147,-0.020052,-0.46376,0.082752,0.052109,-0.089931,-0.01751
-0.2167,0.021755,0.13997,-0.42806,-0.10736,-0.047115,-0.16652,-0.013534
-0.051522,-0.022851,-0.75248,0.41632,0.014899,-0.038702,0.18991,-0.052962
0.046187,0.047655,0.41012,-0.042727,0.019041,0.014906,0.20651,0.042717
-0.14318,-0.01808,0.16605,0.24768,0.044976,0.028225,-0.13889,0.11687
0.88106,0.18509,0.10948,0.036927,0.029731,0.0098572,-0.039965,0.013767
-0.37092,-0.030865,-0.17208,-0.46336,-0.097117,-0.078288,-0.03407,-0.17141
-0.074672,-0.30624,-0.26209,0.10819,-0.077447,-0.024334,-0.033834,-0.077142
-0.66197,-0.077174,0.014483,0.43435,-0.074642,0.0083146,0.21169,0.0022676
-0.040124,0.23675,0.84066,-0.22321,0.25596,0.10576,0.0075441,0.13966
0.1883,0.052524,-0.56951,-0.20414,-0.037799,-0.0058749,-0.1231,-0.014534
0.48984,0.013803,-0.44023,-0.14535,0.013603,0.016118,-0.10287,0.0016816
0.27385,-0.21286,0.27654,-0.13796,-0.050295,0.1703,0.22347,0.11784
-0.81938,-0.18862,-0.6306,0.41274,-0.080982,-0.27923,-0.33271,-0.081465
0.31545,0.25812,1.0236,0.70096,-0.047517,-0.0055917,0.1885,-0.059477
0.38193,0.39095,0.63368,-0.58883,0.19011,0.029618,0.15349,0.11072
0.25351,0.14373,-0.73506,-0.35961,0.076449,0.021842,-0.00071206,0.082693
-0.34514,-0.42573,-0.05644,0.5788,-0.17834,-0.035823,-0.24295,-0.24715
-0.44558,-0.34574,-0.25634,-0.41894,0.073608,-0.0090455,0.052057,-0.036042
-0.037217,0.082657,-0.57107,0.10473,-0.16792,0.096192,0.072424,-0.018136
-0.1289,0.27082,1.0547,-0.2111,0.17537,0.031684,0.053372,0.136
0.079205,0.069549,-0.7273,-0.38943,-0.11469,-0.037064,-0.16826,-0.079439
0.31188,-0.22299,0.31425,0.54832,0.025139,-0.070142,0.056762,0.072159
-0.15756,0.14638,0.13808,0.44889,-0.060632,0.018525,0.16641,0.10835
0.58489,-0.020884,0.0070797,-0.21573,0.12849,-0.037271,-0.25333,-0.094594
-0.47779,-0.15686,-0.028262,-0.091081,0.01443,0.12066,0.20341,0.057497
0.4946,0.25179,0.12746,-0.12801,0.018658,-0.040514,-0.089133,-0.0060444
-0.77732,-0.18847,-0.080844,-0.23903,0.085672,0.063444,0.1415,0.026382
0.1359,-0.083323,0.016649,0.33454,-0.12144,-0.045534,-0.17588,-0.26039
0.75601,0.076994,-0.39568,-0.20385,-0.16608,-0.055975,0.27065,0.21077
-0.55223,0.33157,0.27245,0.11434,0.099666,0.00050926,-0.22204,0.0017609
-0.31472,-0.20426,-0.083663,-0.063064,-0.0039882,-0.09449,-0.1924,-0.13757
-0.31483,0.052051,0.1898,0.4349,-0.031357,-0.035371,-0.037749,0.035227
0.69581,0.096141,-0.12735,-0.5569,0.088562,0.17128,0.16507,0.020676
0.40335,-0.55322,0.2301,0.35893,0.16126,0.096978,0.10464,0.10838
-0.58404,0.28709,-0.31552,0.10349,-0.28128,-0.10897,0.13298,0.017474
0.021346,0.03532,-0.1459,-0.61269,0.027056,-0.0087004,-0.023729,-0.048871
-0.047617,0.0013009,0.25603,0.077489,0.13332,-0.00087084,-0.030753,-0.083121
0.51224,0.12869,0.0088714,0.10381,0.07647,0.070097,-0.25706,0.039161
-0.38631,-0.028529,0.25437,0.23185,-0.13602,-0.13267,0.1001,0.082883
-0.14248,-0.2593,-0.30367,0.12526,-0.074903,0.030516,0.062488,-0.19486
0.21245,0.4685,0.22565,0.32224,-0.068697,0.035514,-0.12092,0.12721
-0.37543,-0.42954,-0.38428,-0.81901,0.24171,0.077361,0.22939,0.048757
0.22819,0.025246,0.23361,0.54411,0.012512,-0.10151,-0.096769,-0.039611
0.095513,0.35893,0.13391,-0.4407,-0.068601,-0.015953,-0.1369,-0.0047655
0.21288,-0.24577,-0.37088,-0.062543,-0.04029,-0.016381,0.10329,0.013315
-0.082089,0.097149,-0.1089,0.35899,-0.16763,-0.031142,-0.061343,-0.023536
-0.40541,-0.32789,0.25562,-0.51072,0.096859,0.081636,0.074485,-0.14556
0.25909,0.091236,0.2066,0.85332,-0.035422,-0.036533,-0.12822,0.13258
-0.026169,0.15336,0.337,-0.22708,0.31076,0.15375,0.27667,0.014686
0.058499,0.29676,-0.28382,-0.22736,-0.083433,-0.011863,-0.070321,0.11043
0.1292,-0.3542,-0.44579,-0.029702,0.0081704,-0.096715,-0.13892,-0.1195
-0.26073,0.02648,0.030332,-0.21997,-0.16498,-0.062955,0.20209,0.019512
-0.034673,-0.16627,0.043131,0.45922,-0.09566,-0.005674,-0.35389,-0.012683
-0.045646,0.13341,0.1324,-0.61022,-0.12028,-0.0042299,0.18345,-0.014193
0.26758,0.17068,-0.044538,0.41417,0.23735,0.096679,0.039149,-0.0018076
0.17752,0.0035446,0.48998,0.71844,0.18005,0.077748,0.20442,0.062664
-0.1522,0.2303,-0.13823,-0.62851,0.035643,-0.1549,-0.38358,0.0069309
-0.27601,-0.21285,-0.74914,-0.29169,-0.21183,0.031829,0.11915,-0.09076
0.04143,-0.074609,0.34457,-0.029174,0.007636,0.0057248,-0.099189,-0.011014
0.07528,-0.26506,0.18913,0.38618,-0.2359,-0.099587,0.063886,-0.057475
0.054325,-0.48894,0.0023617,-0.67714,0.17469,0.13863,0.26551,0.15391
-0.1362,0.433,0.22079,0.45441,0.18484,-0.028849,-0.11087,-0.063172
0.16996,0.43749,0.007785,0.21212,0.099551,0.10164,-0.096202,0.042197
-0.0021589,0.092179,-0.44145,0.38627,-0.15877,-0.094652,0.082921,0.064246
-0.026806,-0.077409,-0.14966,-0.40524,-0.26132,-0.039616,-0.12845,-0.11422
0.064546,-0.088469,0.1034,-0.013628,-0.090093,-0.092899,-0.035339,0.0063629
0.01299,-0.071008,0.27283,-0.52453,0.41825,0.19038,0.096294,0.042419
-0.28478,-0.00912,-0.029994,-0.085847,0.076958,-0.034047,0.00059827,-0.030383
0.020712,-0.036489,0.094796,0.83455,-0.043074,-0.024505,0.013399,-0.048852
0.3727,-0.028575,-0.16492,0.20658,-0.28529,-0.015814,0.087822,0.048805
-0.23059,0.0082311,0.033675,-0.54671,-0.063742,-0.039527,-0.14322,0.027766
0.33465,0.1565,0.14142,-0.49482,0.058805,0.013607,-0.046702,0.020707
-0.51018,-0.060016,-0.431,0.29194,0.26148,0.12023,0.22922,-0.026892
0.086786,0.026804,0.164,0.085764,0.043475,-0.078761,-0.21354,-0.052098
0.040568,-0.075808,0.46154,0.4542,-0.13525,-0.090753,-0.0073846,0.00038364
-0.069408,-0.46016,-0.29157,-0.45087,-0.072613,0.092595,0.051174,-0.017225
0.35188,0.14121,-0.0032382,0.42748,-0.074207,0.0030936,0.14215,0.083148
-0.43692,0.088101,0.54575,-0.010512,0.070229,-0.014998,-0.031113,-0.04971
0.3222,0.42473,-0.82923,-0.37181,0.016595,0.007453,-0.085664,0.052998
-0.058839,-0.082368,-0.38868,0.027482,0.07737,0.00032637,-0.07616,0.00037806
0.3017,0.44603,0.29588,0.22552,-0.090936,-0.083286,-0.026096,-0.012778
-0.28493,-0.37253,0.26259,-0.6114,0.035603,0.1001,0.13468,-0.010544
-0.13214,-0.38379,0.14995,0.053243,0.035765,0.010965,-0.00039145,-0.024761
-0.044861,0.27708,0.17997,0.8363,0.09784,0.015891,0.029189,0.022303
-0.069312,-0.015626,-0.045801,-0.55059,-0.11322,-0.034194,-0.042796,-0.033515
-0.016605,-0.23591,-0.022827,-0.1852,-0.18244,-0.077361,-0.06076,-0.012312
0.4119,0.005702,-0.014792,0.29055,-0.054228,0.04222,0.091836,0.031695
-0.18062,0.15753,-0.29456,0.04459,0.30333,0.0040232,-0.038654,-0.0024579
-0.019711,-0.32885,0.029137,-0.086281,-0.023479,0.0033554,-0.077537,-0.012631
-0.10527,-0.046852,-0.11198,0.72401,0.0043012,0.0091391,0.068901,-0.0062281
0.28839,0.53521,0.02866,-0.38814,-0.0045046,0.029486,0.010282,0.095026
-0.0043804,0.17414,0.37227,-0.59222,-0.082038,0.0022702,0.075223,0.0019395
-0.29023,-0.25866,-0.079045,-0.073462,0.020662,-0.048655,-0.14966,-0.082715
0.20251,0.35518,0.022819,-0.11794,-0.048941,0.0412,0.047316,0.0281
-0.18357,-0.29841,-0.30068,0.82529,-0.0025209,-0.016806,0.049719,-0.05668
-0.026853,-0.50428,-0.30103,-0.57457,0.0032719,-0.066041,-0.094968,-0.017055
0.071792,0.33449,0.52748,0.26662,0.10119,0.050042,0.043333,0.06872
-0.05805,-0.20093,-0.19387,0.28511,-0.013264,0.019103,0.097533,0.0053798
0.07767,0.17432,0.37267,-0.5824,-0.11315,-0.02608,-0.065379,-0.035024
0.25423,0.11324,-0.13308,0.96855,0.14566,0.031422,-0.016174,0.049302
-0.16753,0.10593,0.22324,-0.53803,-0.18965,-0.011989,0.0023436,-0.030484
-0.14772,-0.028193,-0.024025,-0.81148,0.092,0.038376,-0.010475,-0.016407
-0.045583,-0.16383,-0.66147,0.33063,0.13114,-0.013467,0.015129,-0.0021339
0.0055585,0.13801,0.024732,0.25909,-0.049103,-0.02748,0.0084954,0.035788
0.47351,-0.13576,-0.19569,0.27473,-0.11324,-0.019675,0.047672,0.034839
-0.12721,-0.10677,1.0267,-0.25166,-0.05399,-0.013585,-0.11714,-0.028424
-0.29763,0.088084,-0.11321,0.27632,0.12821,-0.024622,-0.0089445,-0.02895
-0.24157,-0.15697,-0.64565,-0.51506,-0.0043979,0.096135,0.060315,-0.083797
0.20478,0.33275,0.14249,0.47555,0.063865,-0.010028,0.013067,0.088485
0.1743,-0.074069,0.066606,-0.25336,0.036571,-0.022079,0.013791,0.0037335
-0.051545,-0.080681,-0.12014,0.13956,-0.17134,-0.0018611,0.031423,-0.0097742
0.042958,0.068961,0.32745,-0.012493,-0.12109,-0.058251,-0.051306,0.016732
-0.018991,0.16866,0.18527,-0.29017,0.1654,0.043387,0.015286,0.012786
0.027627,-0.043177,-0.67785,0.14059,0.017779,0.021793,-0.073963,0.0093162
-0.10713,-0.2187,0.37939,0.24761,-0.0080036,0.025127,0.1101,-0.025368
0.25551,0.061018,-0.26821,-0.28155,0.010609,0.013834,-0.058017,0.0098237
-0.26798,-0.28379,0.27673,0.14001,-0.10615,-0.090828,-0.039641,-0.06522
-0.10752,0.19985,0.11419,0.052862,0.30489,0.062074,0.071242,0.038259
0.14346,-0.072819,-0.070172,-0.11163,-0.14852,-0.05144,-0.069209,-0.015834
0.024916,0.47845,-0.012461,-0.42244,-0.16382,0.021383,0.093733,0.053731
-0.047842,-0.30796,-0.12016,0.37879,0.061414,-0.01651,-0.072617,-0.057651
0.1219,-0.078229,-0.2922,0.24468,0.032897,0.038013,0.056922,0.048603
-0.08959,0.052066,0.47169,0.20482,-0.047846,-0.033647,-0.064322,0.0054847
0.045181,-0.21323,-0.24171,-0.42297,0.16207,0.04218,0.0091653,-0.014925
0.0032365,0.2819,0.092133,0.022607,-0.0092084,0.039199,0.066644,0.011056
-0.035776,0.1146,-0.17437,0.11743,-0.099831,-0.089207,-0.016702,-0.017825
-0.095783,0.025617,0.11525,-0.15515,-0.09243,0.032192,-0.053192,-0.046498
0.21301,-0.19735,0.13222,0.025926,-0.00029665,-0.11985,-0.081716,0.050481
-0.13387,0.054291,0.14852,0.053872,0.038521,0.15011,0.1479,-0.015482
-0.090623,-0.10994,0.084064,-0.16092,0.065484,0.053125,0.04208,-0.0095973
0.09178,-0.17319,-0.15677,-0.18383,0.027705,-0.059182,-0.086502,0.013729
0.14698,0.022873,-0.41112,0.18515,0.0041954,-0.014855,0.020157,0.023324
-0.12849,0.10566,-0.054056,0.29319,0.033835,-0.071593,-0.067421,0.0033964
-0.031398,0.13977,0.25942,-0.12409,-0.11894,-0.0026699,0.057228,-0.038651
0.10295,0.087245,-0.22619,0.12732,0.0361,0.0046214,-0.12915,0.04502
0.049136,0.18223,0.64044,-0.13604,-0.011185,0.13017,0.18605,-0.027545
-0.38666,-0.36601,-0.15348,0.2054,0.19006,0.0069583,-0.012849,-0.030477
0.047214,0.01785,-0.26987,-0.041946,-0.15103,-0.075885,-0.054165,0.066893
0.42252,0.11165,0.003335,-0.14913,-0.011984,-0.0089988,0.022676,-0.048304
-0.18166,-0.16614,0.048784,-0.26049,-0.13506,-0.026873,0.0062819,0.022263
0.039535,0.048887,-0.33804,-0.11175,-0.027269,-0.043783,-0.041326,-0.025924
-0.094295,-0.010748,0.48886,-0.06116,-0.0075298,0.010254,-0.034641,-0.01277
0.14968,0.021475,0.13576,0.64441,0.28508,0.1504,0.065058,0.038853
-0.30105,-0.08834,-0.1193,0.087381,-0.015309,-0.037991,-0.031542,-0.026691
0.11355,0.19255,-0.19308,-0.61834,-0.072003,-0.0087373,-0.012132,-0.0057287
0.15669,0.085185,0.092514,0.3749,0.13855,-0.035952,0.076236,0.055249
0.13895,-0.079423,-0.035948,0.11666,-0.15751,-0.049883,-0.11038,-0.015475
-0.222,0.014487,-0.35806,-0.37625,-0.1875,0.011649,0.068406,-0.030478
-0.098024,-0.2781,0.22296,0.18498,0.13376,0.031455,0.042084,0.0099702
0.17616,0.13988,-0.11722,0.041064,0.016628,0.033319,-0.0019647,0.019551
-0.35811,-0.064687,0.32825,-0.30246,0.039,0.017907,0.022292,0.036937
0.16933,0.12577,0.3122,0.40961,0.11505,-0.05294,-0.10349,-0.086612
0.16784,-0.16313,-0.39051,-0.11422,-0.20797,-0.061009,-0.026954,0.015947
0.0072903,0.24734,-0.045734,0.1555,-0.031067,0.033762,0.010818,-0.030355
-0.10751,0.0029659,-0.20204,-0.48523,0.052537,0.029064,0.073654,0.032474
0.17543,0.029388,0.71595,0.39352,0.16042,0.0035164,-0.071517,0.04062
-0.12915,-0.092411,-0.6778,-0.25382,-0.066636,0.050951,0.11538,-0.013496
-0.093538,-0.10192,0.01983,0.0044941,-0.019404,-0.024291,-0.083923,-0.028183
0.20157,0.12137,0.13435,0.14734,-0.03419,-0.027603,-0.036859,0.027788
-0.098021,-0.027238,-0.18757,-0.081019,0.01351,0.016655,0.021183,-0.002012
0.14619,-0.088167,0.43607,0.086315,-0.0017917,-0.033104,-0.028682,-0.0085022
-0.27793,-0.060835,0.1226,0.18079,-0.01795,0.0019819,0.19422,0.0079738
0.074888,0.025801,-0.2441,-0.22824,0.011764,0.058868,0.17208,0.031484
-0.1459,-0.051314,-0.54501,0.091681,0.017127,-0.073576,-0.31564,-0.070977
0.04581,0.16499,0.53479,-0.080657,-0.064067,0.018872,-0.098014,-0.010382
0.15193,0.084834,-0.22071,0.017877,0.042044,-0.046161,-0.026461,0.025907
0.017714,-0.0073407,0.25361,-0.020995,0.070307,0.020987,0.017495,-0.00090469
-0.0046198,0.0078154,-0.063521,-0.073475,-0.025715,0.095928,0.10633,0.042338
0.16267,0.029845,0.0011425,0.21181,-0.081618,-0.0083396,0.05509,0.0075386
-0.012953,-0.15199,-0.067622,-0.28154,0.098127,-0.033703,-0.11823,-0.042521
-0.18172,-0.20223,-0.059444,-0.012942,-0.056713,-0.042583,0.0020923,-0.013905
0.037455,-0.043671,0.032099,0.29301,-0.022756,-0.011653,0.26041,0.0075287
-0.1613,0.30682,0.36913,-0.096076,0.012311,0.019787,-0.093805,0.045204
-0.051697,0.11336,-0.55051,0.1731,0.0012935,0.05926,0.055198,-0.0025259
0.077873,-0.13359,0.46648,-0.24977,0.014061,-0.018489,-0.24767,-0.10453
0.12726,0.064154,-0.40965,0.081335,0.026635,0.012942,0.12845,0.10627
-0.003358,-0.060762,0.046645,-0.17715,0.038427,-0.11209,-0.2008,-0.010826
0.054899,-0.14251,0.15522,0.099476,-0.02924,0.098727,0.27944,0.0050966
-0.0013877,0.20096,-0.21673,0.074621,-0.098666,-0.041855,-0.2433,-0.033405
-0.030892,-0.014697,0.24359,-0.049555,0.0096339,-0.002295,0.091034,-0.024651
0.021219,-0.2027,0.2553,0.069564,0.069166,-0.032354,0.017909,0.00025229
-0.13438,-0.033455,-0.47029,0.094892,0.041224,0.086817,0.046245,0.03362
0.08774,0.080852,0.15318,-0.18548,-0.026707,-0.0042555,0.067513,0.028626
-0.070779,-0.01416,0.18092,0.18097,-0.079148,-0.0011768,-0.027263,-0.0148
-0.047993,0.42524,-0.19869,-0.14183,0.056651,0.033127,0.074344,-0.010929
0.0071137,-0.084313,-0.10161,-0.34882,-0.024722,-0.12054,-0.35467,-0.030404
0.20331,-0.16745,0.13002,0.31068,0.044579,0.10778,0.30227,0.066991
-0.022644,-0.31652,-0.16604,0.071815,-0.071022,-0.078946,-0.096047,-0.031657
-0.16377,-0.18062,0.050988,-0.088339,-0.012188,-0.040009,-0.065644,-0.068889
0.115,0.38767,0.3918,0.30687,0.11123,0.060802,0.11993,0.041009
0.10983,0.21511,-0.28368,-0.016419,-0.084437,-0.010506,0.085875,0.11049
-0.1562,0.050077,0.00074746,-0.30114,0.19655,0.051135,-0.19081,-0.07905
-0.034482,-0.093536,-0.18599,-0.032539,-0.10949,-0.011825,-0.053264,-0.027259
0.038277,-0.1001,0.43511,0.023098,-0.15198,0.027271,0.10066,-0.022699
-0.1085,-0.13472,-0.42789,-0.048598,0.12316,-0.042596,0.068304,-0.0022916
-0.059171,-0.15861,0.096807,0.2681,-0.12791,-0.034128,-0.1189,0.0032674
0.22684,0.10225,0.29521,-0.167,0.063988,0.060236,0.16391,0.072509
0.10216,0.28203,-0.36643,-0.12681,0.035572,-0.048786,0.01004,0.018099
-0.21411,-0.054886,0.45411,0.24857,-0.016888,0.0058554,-0.081114,-0.066338
0.074399,0.038842,-0.28245,0.029775,0.048111,-0.057134,-0.10236,0.029746
0.036744,-0.052072,0.034508,-0.12681,-0.003183,0.10603,0.03178,-0.014541
-0.02416,-0.13863,-0.28773,-0.049325,0.024822,-0.012383,-0.014823,-0.020152
0.014791,-0.071482,-0.08934,0.10598,-0.024173,-0.01386,0.0548,0.012342
-0.12926,0.087025,0.18041,-0.10605,-0.0098126,0.023541,0.0691,0.03569
0.27711,0.03154,0.087441,0.088428,-0.026194,-0.032945,-0.026155,-0.012712
-0.29748,0.080874,0.54027,0.0026684,-0.02673,-0.073901,-0.066441,-0.015477
-0.024121,0.09221,-0.34317,-0.11234,-0.034998,0.064785,-0.043571,-0.050264
-0.034174,-0.13236,0.13162,-0.083616,0.050574,0.047246,0.12861,-0.046119
0.18979,0.19364,-0.7248,0.38666,0.019159,-0.0092378,-0.0029982,0.13826
0.10263,-0.36153,0.33501,-0.34159,0.034947,-0.049858,-0.14948,-0.0043579
-0.16155,0.13066,0.22261,-0.041909,0.043307,0.042721,0.11858,-0.043948
0.0072427,0.0061519,0.11577,0.16764,-0.072996,-0.036013,0.0039503,0.019548
0.25734,-0.093233,-0.385,0.13692,-0.056303,0.011002,0.10008,0.0062192
-0.26347,0.045549,0.1734,-0.058217,0.085355,-0.011385,-0.16354,-0.0062426
0.17039,0.011052,-0.17691,-0.17033,-0.18731,-0.048392,-0.036952,-0.002743
-0.25454,0.21215,0.12033,0.22014,0.21926,0.11089,0.019,-0.030671
-0.15627,-0.16148,0.3013,-0.20093,0.062798,-0.018106,0.027928,-0.027931
0.20687,0.0087761,-0.37448,0.12066,-0.094131,-0.052918,-0.010042,0.013036
0.092362,0.043751,0.08637,-0.072066,-0.040362,0.029403,0.037868,0.04526
0.10935,0.021271,0.059303,-0.22234,-0.064559,-0.0060702,0.077654,0.02189
-0.1252,-0.083044,-0.07326,0.21191,-0.064663,0.027644,0.05419,-0.0022833
0.34942,-0.020512,0.031254,-0.0081519,0.13949,0.020788,-0.064269,-0.06618
-0.62313,-0.042561,0.1758,0.042401,-0.022136,-0.12055,-0.16871,0.017864
0.17606,0.036975,-0.22752,-0.063995,0.044203,0.056849,0.037672,0.031276
-0.11964,0.11543,0.13991,0.07187,0.12718,-0.024771,-0.030711,-0.0023039
0.5845,-0.073617,0.20667,0.074275,-0.14105,0.11171,0.16592,0.026735
-0.37432,-0.015063,-0.41021,0.32399,0.090269,-0.064275,-0.066791,-0.045403
-0.11187,0.040875,-0.13957,-0.75219,-0.11706,-0.013025,0.0065377,-0.023117
-0.064425,-0.054218,0.10621,0.45193,-0.10723,-0.069952,-0.050776,-0.0077
-0.012436,0.012395,0.12608,-0.31646,-0.1147,0.05429,0.011712,0.0088522
0.35667,0.045796,0.078199,0.05785,0.2748,0.062807,0.029892,0.050022
-0.090707,-0.039442,0.24504,0.3006,-0.008676,-0.060357,-0.0046056,-0.032783
0.081312,0.030688,-0.34984,-0.13471,0.10556,0.098275,0.086926,0.041318
-0.12166,-0.055731,-0.019951,0.1362,0.0084161,-0.032328,-0.10297,0.021781
-0.022319,-0.024713,0.22492,-0.24375,-0.12806,-0.046599,0.21359,-0.021703
-0.068061,0.13985,-0.21148,0.095353,-0.084985,-0.030962,-0.28458,-0.050647
-0.13529,-0.077281,0.45744,-0.26573,-0.057495,-0.055893,-0.050963,-0.026394
0.087991,-0.12112,-0.60615,0.089082,0.0015211,0.066299,0.13341,0.019652
0.063194,0.25075,-0.028211,0.012274,0.15483,0.054864,-0.019749,0.032933
0.41659,-0.11776,0.11337,0.36271,0.12138,0.012047,0.045335,0.02163
-0.38122,-0.062379,0.1715,0.17756,-0.12998,-0.084879,-0.029557,-0.037166
-0.30465,0.12801,0.23434,-0.34297,-0.068087,-0.016584,-0.0012991,-0.010066
0.18752,-0.11669,-0.29691,-0.045804,0.088128,0.084447,0.013427,-0.021544
0.105,-0.22603,0.10415,0.097716,0.025956,-0.016152,0.038037,0.077224
0.33983,0.41716,-0.27063,-0.18705,-0.17661,0.017244,0.017319,0.0051918
-0.10716,-0.039021,0.40136,0.061437,0.1523,0.0043815,0.067581,0.035817
-0.39198,-0.19684,-0.41741,-0.18569,-0.096569,-0.10231,-0.30438,-0.16697
-0.038438,0.012847,0.15638,-0.22955,-0.040193,0.08712,0.18179,0.068501
0.16353,0.080706,-0.13588,0.41032,0.14191,0.017476,0.0098456,0.015404
-0.13118,-0.010662,0.40686,0.36199,0.11384,-0.022408,-6.6133e-05,0.017252
0.27872,0.088531,-0.22655,-0.38089,-0.17925,-0.040239,0.02733,0.0035238
0.039481,-0.076328,0.22537,0.39972,-0.16747,-0.035595,-0.10261,-0.0025089
0.031555,-0.076441,-0.38237,-0.50207,0.14858,0.015611,0.064175,-0.016588
-0.19256,0.1663,0.48544,0.18293,0.17444,0.059432,-0.010363,-0.030967
0.13898,-0.081434,-0.43162,0.12961,-0.020253,0.018411,-0.02063,0.079339
-0.22443,0.080864,0.21725,-0.13505,-0.10786,-0.01324,0.041799,-0.060642
-0.00099011,-0.22669,-0.26977,0.042425,-0.026001,0.0037185,0.020874,0.017903
-0.095233,-0.29764,-0.15515,-0.21362,-0.055574,-0.032405,-0.075852,-0.036509
0.16724,0.33214,0.28429,-0.01095,0.022981,0.03426,0.071258,0.057448
0.0080365,0.29785,-0.040354,-0.072537,-0.039188,-0.078087,0.10969,0.01077
0.29695,-0.016561,0.32047,0.19231,0.071667,0.059628,-0.17253,-0.043701
-0.33914,-0.11148,-0.396,-0.07864,0.083177,0.001507,0.0049077,-0.012222
0.038185,-0.058986,0.3581,0.50155,-0.03526,-0.018555,-0.030502,0.019228
0.13969,0.013192,-0.23065,-0.51765,-0.025741,0.014747,0.025658,0.011517
-0.23097,-0.093375,0.28841,0.2707,0.025338,-0.0080945,0.025062,-0.019818
0.16678,0.048107,-0.37708,-0.025088,0.015545,0.0067368,0.022814,0.018881
0.018618,-0.12704,0.2305,0.030116,-0.024921,0.012621,0.050775,0.018162
0.010452,0.044063,-0.26648,-0.11354,0.0045281,-0.013466,-0.070065,-0.014189
-0.21039,0.17847,0.19307,-0.27927,-0.099918,-0.0085031,0.020321,-0.0078184
0.17601,-0.035529,-0.40652,0.16341,0.05989,-0.0031807,-0.036894,-0.032914
0.060534,0.020754,0.4202,-0.068284,-0.0472,-0.0048,0.032124,0.035722
-0.26696,0.0054439,-0.0203,0.1889,-0.030218,-0.01299,-0.045851,-0.020424
-0.063301,-0.36076,-0.14804,-0.11223,0.095607,0.027086,0.010427,-0.013636
0.16447,0.17388,0.17904,0.12192,0.01803,-0.017511,0.044489,0.024971
0.12751,0.28245,0.063229,0.14116,0.096425,0.032506,-0.037831,0.025088
0.10659,-0.0579,0.0044483,-0.078186,-0.021023,0.043711,0.075409,-0.013432
0.21777,0.035452,0.056767,0.088748,-0.03,-0.00022414,0.01642,0.041954
-0.43101,-0.2899,-0.25719,-0.25624,-0.17299,-0.053061,-0.035641,-0.059086
-0.067529,0.0037624,-0.14899,-0.20609,0.010892,-0.068341,-0.16706,-0.019977
0.042024,0.055396,0.15458,0.11571,0.10009,0.039783,0.13769,0.018474
-0.10193,0.14452,-0.080691,0.093931,0.0014777,-0.0018678,-0.05874,0.040641
0.16607,0.035162,0.028356,0.16042,-0.049755,0.018186,0.033056,-0.039205
-0.065918,-0.016112,0.20065,-0.089185,-0.045021,-0.016553,0.054128,0.005888
0.095051,-0.095915,0.045247,0.18227,0.12558,0.043023,0.083006,0.012358
0.025995,-0.016679,-0.12629,-0.30614,0.079389,-0.0057131,-0.15345,-0.066165
0.04065,0.089674,0.25487,0.14032,-0.066691,-0.0062875,-0.014483,0.067576
-0.19675,-0.18926,-0.43804,-0.10479,-0.094509,0.0021555,0.023344,-0.086275
0.17225,0.094019,0.012193,-0.04343,0.057692,0.0036482,-0.016689,0.13617
-0.0261,-0.019074,0.21405,0.32218,0.084558,0.021125,0.099534,-0.039027
-0.028577,0.059447,0.20671,-0.18972,-0.18619,-0.047512,-0.026727,0.074864
0.029506,0.018374,-0.32099,-0.065097,0.034446,0.0082362,0.033936,-0.11679
-0.15862,-0.13428,0.094357,0.31244,0.020187,-0.030638,-0.10927,-0.013237
0.35111,0.16297,-0.34081,-0.51792,-0.072249,-0.00011003,0.028058,0.049028
-0.29301,0.14234,0.25212,0.1246,0.10917,0.029665,-0.0069691,-0.078601
0.034992,-0.050607,0.017017,0.14021,0.13503,0.035541,0.067341,0.033836
