0.053559,0.16175,-0.18933,-0.062968,-0.020667,-0.0595,-0.095473,0.034714
0.1058,0.11887,-0.045871,-0.076196,0.034751,0.07609,-0.080711,-0.0033356
0.34814,-0.15744,0.39511,-0.058267,-0.027557,0.040923,0.35546,0.053874
-0.50554,0.1937,-0.34499,-0.039647,-0.051369,-0.1264,-0.46777,-0.23781
-0.0092798,-0.13122,-0.095886,0.18357,0.018123,0.073555,0.081743,0.16938
0.17097,-0.04547,0.040203,0.096366,0.032734,-0.055119,0.066377,-0.17725
-0.062802,-0.1112,0.048211,-0.019719,-0.022815,0.033991,-0.13852,0.12059
0.83037,0.22625,0.50805,-0.10224,0.015901,-0.026582,0.22545,0.085512
-0.62477,-0.22107,-0.52285,-0.042205,0.00074121,0.044352,0.018305,-0.0026884
-0.39501,0.19439,-0.16629,-0.043326,-0.0056457,-0.026505,-0.0095366,0.15876
0.06252,-0.03656,-0.20068,0.04992,-0.026746,-0.074825,-0.10007,-0.33066
0.16829,-0.32986,-0.069642,-0.12262,0.0074858,0.048143,0.31704,0.042831
-0.18566,0.038742,0.6641,0.25076,0.04191,0.037982,-0.46133,-0.026728
0.098278,0.67614,0.40429,-0.088475,0.021275,0.090183,0.13529,0.21026
0.6505,-0.037132,-0.28337,-0.054985,-0.015914,-0.068603,0.052691,-0.026892
-0.55447,-0.12602,-0.029674,0.52282,-0.0075729,-0.00082888,-0.13028,-0.002263
-0.72264,-0.49696,-0.082518,-0.61272,0.0070828,-0.034535,0.071643,-0.23702
0.82871,-0.0077926,-0.27415,-0.046822,-0.11239,-0.067975,0.10455,-0.017577
-0.35309,-0.053716,-0.2701,-0.012633,0.048564,0.031957,0.023572,0.088306
0.94852,0.39322,-0.23277,0.038241,-0.024953,-0.023455,-0.25729,0.027875
-0.19271,0.08788,0.45156,0.31037,0.12876,0.14107,0.43319,0.27858
-0.57122,-0.51245,0.11698,-0.2734,-0.083405,-0.12281,-0.26555,-0.24588
0.12062,0.1102,0.30875,0.25584,0.010742,0.10659,0.074659,0.23416
-0.026344,0.54158,-0.0071334,0.030212,0.059584,-0.038416,-0.18059,-0.15872
-0.019783,-0.26819,-0.077587,0.063914,-0.062318,-0.081986,-0.05617,-0.17731
-0.44999,0.097369,-0.081528,-0.37921,-0.004115,0.045377,0.048435,-0.066267
0.040785,0.092314,-0.54367,-0.15242,0.022441,0.085157,0.3671,0.10238
0.60079,-0.087171,0.58795,0.57898,0.14163,0.15415,0.16558,0.664
-0.50488,-0.063795,-0.17443,-0.60748,-0.21729,-0.30224,-0.51622,-0.67758
0.41649,-0.4185,0.11118,0.50705,0.0081346,-0.056848,-0.090869,-0.17053
0.19497,-0.15842,-0.15946,-0.28773,-0.033293,0.0085508,-0.048613,0.023656
-0.22597,0.36908,-0.14433,-0.022162,0.0028519,-0.018876,0.097023,0.087439
0.85947,0.92115,0.5075,0.40625,0.21112,0.23695,0.25407,0.45281
-0.89198,-1.0948,-0.59427,-0.3611,-0.11092,-0.090576,-0.068616,-0.24614
-0.15229,0.18192,0.40285,0.39505,0.029353,0.16252,0.19148,0.13888
-0.72543,-0.15465,-0.06251,-0.50477,0.0069733,-0.012409,-0.060383,-0.15149
0.23493,0.033619,-0.23943,-0.013692,-0.17062,-0.22606,-0.26348,-0.36214
1.0774,0.65463,0.19272,0.079003,0.11304,0.082531,0.13481,0.56612
-0.15222,-0.21608,0.13977,0.18701,0.044503,-0.087981,-0.093966,-0.12787
-0.27343,-0.66333,-0.21977,0.0677,-0.041278,-0.0040818,-0.10737,-0.24369
-0.45625,0.29519,-0.035958,-0.29494,-0.0045318,0.0059075,-0.030887,-0.15792
1.0209,0.71821,0.55683,0.90368,0.068308,0.067488,0.19831,0.42621
-0.080483,0.18036,-0.14544,-0.91405,0.1226,0.29115,0.37035,0.36962
-0.99806,-0.61646,-0.49404,0.07345,-0.27845,-0.29808,-0.26314,-0.5043
0.19532,-0.45847,0.13791,-0.030167,0.10872,0.028184,-0.23147,-0.37095
0.48181,-0.040958,-0.32431,-0.3942,-0.17495,-0.08757,0.13151,0.19643
-0.84424,-0.39012,0.1315,0.65572,0.036649,-0.12815,-0.055103,0.093173
0.35405,0.62795,0.4083,-0.13659,0.13593,0.10273,-0.32899,-0.091227
0.63334,-0.046221,-0.15442,0.26805,0.014572,0.15981,0.38842,0.34795
-0.022609,0.85576,0.10125,-0.28054,0.055398,0.10456,-0.036513,-0.097982
0.062669,-0.32176,-0.16929,-0.028041,-0.078725,-0.15883,0.12051,0.028511
-0.49879,-0.52687,0.14001,0.098998,0.024046,0.062099,0.10598,0.0033226
0.72452,0.54658,0.1254,0.53317,0.1265,-0.016972,0.10319,0.32013
-0.72605,-0.40776,0.23377,-0.29212,0.053929,0.10909,-0.21226,-0.30053
-0.81555,-0.12015,-0.54864,-0.83231,-0.32092,-0.26452,-0.41372,-0.72255
0.67269,0.42043,0.086243,0.021934,0.024286,0.10415,0.27105,0.26286
0.61339,-0.25933,-0.30891,0.36655,-0.058652,-0.10384,0.077486,0.60163
-0.85961,-0.77268,0.032222,0.1585,0.033356,-0.042076,-0.030251,-0.093781
0.74738,0.44762,0.38623,0.3476,0.099598,0.027338,-0.31293,-0.46692
0.51384,0.47732,0.015726,-0.40572,0.080289,0.17828,0.2819,0.38633
-0.38747,0.29097,-0.042605,0.1672,-0.04561,-0.039514,0.0094309,-0.27079
-0.50299,-0.027266,0.020879,0.11471,0.090674,0.10207,0.20161,0.27683
-0.4497,-0.23653,-0.15739,-0.21951,-0.065049,-0.029859,-0.10858,-0.038856
0.10068,-0.024905,0.049336,-0.14153,-0.060251,-0.14011,-0.12494,-0.13191
0.23417,-0.83708,0.054828,-0.21604,-0.052653,0.018401,0.13404,0.22208
0.77878,0.40707,0.13042,0.43719,0.13547,0.12965,0.046675,-0.097817
-0.49247,0.15599,-0.063193,-0.08276,-0.068196,-0.03635,-0.28286,-0.26027
0.81039,0.58529,-0.061188,0.47988,0.15505,0.017733,0.49984,0.82403
-0.90691,-0.45776,-0.046889,-0.61055,-0.15661,-0.084456,-0.4059,-0.59834
-0.7302,-0.26756,0.031735,0.036277,-0.17504,-0.26461,-0.23647,-0.56815
1.0292,0.36775,-0.13119,-0.14921,0.085008,0.18204,0.17999,0.42265
-0.13405,-0.2637,0.066305,0.25654,0.085954,0.12539,0.23598,0.20411
-0.7089,0.4526,0.040132,0.2089,0.040477,-0.0016606,-0.12,-0.23639
0.94897,-0.15918,-0.081938,-0.44601,-0.042061,-0.094582,-0.21231,0.049653
-0.55568,-0.17387,0.23441,0.1609,0.065905,0.11445,0.24381,0.24443
0.029194,-0.28316,-0.36751,-0.039638,-0.049452,-0.045413,0.016638,-0.017997
0.78213,0.7208,0.30155,0.18662,0.041005,0.058384,0.084073,0.058989
-0.29817,-0.49923,0.015527,0.041463,-0.038903,-0.013024,-0.069529,-0.24484
-0.17544,0.24505,0.14864,0.17891,0.068697,0.019528,0.1719,0.48246
-0.84556,-0.63727,-0.13687,-0.20839,-0.067348,-0.065002,-0.2871,-0.54239
0.39832,0.42074,-0.24182,-0.40418,-0.080936,-0.096722,-0.088925,-0.11748
0.68508,0.21346,-0.043632,0.074209,0.027462,0.055908,0.11668,0.12439
-0.19178,-0.16011,0.1979,0.27303,0.031515,-0.013721,-0.084962,-0.018695
-0.26608,0.21843,0.075305,0.11475,-0.028853,-0.008196,0.03282,0.14291
0.0075904,-0.63252,0.017956,-0.10216,0.066389,0.050264,0.017495,-0.0055692
-0.066204,0.37385,-0.34082,-0.27385,-0.056339,-0.016473,0.14326,0.030099
1.0608,0.79907,0.28922,0.22715,0.080782,0.066548,0.066966,0.10262
-0.77231,-0.64839,-0.12944,-0.042222,-0.04483,-0.019839,-0.14085,-0.092752
-0.88944,-0.26877,0.17045,0.021197,-0.042259,-0.064138,-0.027285,-0.010331
0.73015,0.34058,0.15906,0.34779,0.12724,0.16792,0.1493,0.26968
-0.90872,-0.77683,-0.39702,-0.39865,-0.10749,-0.17595,-0.27589,-0.55992
0.90823,0.26665,-0.0051698,-0.055255,0.0022662,0.0046374,0.063583,0.05309
0.30684,0.36687,-0.11872,-0.18638,-0.029308,0.0051407,0.11247,0.13791
0.42556,-0.0020622,0.47248,0.51044,0.069797,0.081939,0.026661,0.19317
-0.2561,0.46221,-0.037453,-0.037362,0.017157,-0.086518,-0.10801,-0.016097
-0.10394,-0.14856,-0.048337,-0.17543,-0.070776,0.02234,-0.02582,-0.14589
-0.30388,-0.20264,0.024617,0.10287,0.08709,0.11127,0.1954,0.22671
-0.99315,-0.24632,-0.26443,-0.31202,-0.10252,-0.13205,-0.061099,-0.25591
0.75658,-0.0033284,0.04583,0.44027,0.08024,0.097869,0.0021035,0.13515
-0.11521,-0.038676,-0.082303,-0.34131,-0.089623,-0.1352,-0.26279,-0.48812
0.63066,0.029928,-0.045144,-0.067985,0.030357,0.068835,0.20741,0.43148
-0.0071458,-0.070549,0.41756,0.14619,0.0045003,0.024275,0.061763,0.13032
-0.81101,-0.26998,-0.29358,-0.070988,-0.064135,-0.18128,-0.20702,-0.25768
0.69345,0.83546,0.11187,0.22763,0.13004,0.1878,0.22946,0.27528
0.017649,-0.36955,0.024715,0.011266,-0.014418,0.022747,0.0040441,0.025011
-0.22014,0.12039,-0.04835,-0.14301,0.040882,0.026566,-0.016316,-0.057217
-0.044728,0.033157,0.085686,0.012376,-0.03355,0.010903,-0.11329,-0.16893
0.14206,0.085753,0.009669,0.25531,0.0026663,-0.056883,-0.06086,-0.16379
-0.43005,0.009462,-0.11572,-0.35537,-0.11021,-0.10034,0.023213,0.065947
0.89018,-0.19812,-0.19206,0.14575,0.024526,0.027308,0.099251,0.2146
-0.78454,-0.39614,0.028222,-0.28282,-0.016301,0.0043548,-0.08339,-0.19475
0.30815,0.55243,0.30155,0.053003,0.040045,-0.0061105,0.099611,0.19736
0.16669,-0.48423,0.049608,0.28615,0.099744,0.10481,0.061648,-0.0071177
-0.84155,0.13968,-0.023443,0.24606,-0.00073926,0.0012085,-0.080636,-0.01854
0.29284,-0.30995,-0.36074,-0.50249,-0.13538,-0.050821,0.078755,0.077855
0.69727,0.44948,0.11895,0.0668,0.01754,-0.034791,-0.19435,-0.076425
-0.73518,-0.26904,0.020856,-0.011677,-0.001346,0.0035725,0.014916,-0.30839
0.79418,0.81361,0.098769,0.26508,0.028302,-0.035969,0.020415,0.20359
-0.065442,-0.027002,0.21545,-0.10823,0.10787,0.15263,0.14428,0.24223
-0.88471,-0.44089,-0.39224,-0.17676,-0.12101,-0.070031,0.0057215,-0.14426
0.39763,-0.43265,0.042476,0.028957,-0.032843,-0.11706,-0.26062,-0.31432
0.30331,0.54611,-0.066761,0.063183,0.083233,0.098009,0.12003,0.16979
0.11977,-0.1049,0.24676,0.12753,-0.04687,-0.073265,0.062207,0.28395
-0.67759,-0.5005,0.0029929,-0.022629,0.044453,0.11074,-0.098741,-0.32512
0.38747,0.19193,0.21314,-0.069968,-0.027099,-0.0073185,0.14333,0.28531
-0.051676,0.54978,-0.19783,0.021473,0.057155,0.032002,0.03586,-0.0050288
-0.0093176,-0.050037,-0.09345,0.13181,0.006607,-0.0073561,0.12264,0.0039505
-0.25715,-0.54087,-0.32036,-0.31114,-0.094044,-0.087951,-0.075928,-0.14321
0.72216,0.37986,0.36258,0.066896,-0.026811,-0.01578,-0.10132,0.18524
-0.4999,-0.74237,-0.098376,0.1648,0.067477,0.044261,-0.32993,-0.40086
-0.50892,0.65319,0.049535,-0.30505,-0.076479,-0.13467,-0.13692,-0.29798
0.71003,0.37609,0.13847,0.18284,0.049879,0.11952,0.34583,0.34839
0.11635,-0.086387,-0.24883,0.1385,0.025666,0.010592,0.12776,0.10399
-0.2685,-0.47579,-0.20178,-0.2799,-0.007427,0.07847,0.45299,0.38563
0.96001,0.065588,0.54866,0.57743,0.14692,0.10543,-0.28595,0.11691
-1.0503,-0.16115,-0.14403,-0.32007,-0.11978,-0.19648,-0.3451,-0.32664
0.03729,0.45618,-0.021868,0.0042616,0.013518,0.080154,0.24592,0.21858
-0.99321,-0.3616,-0.10197,-0.36389,-0.19475,-0.28221,-0.4957,-0.94371
0.43232,0.44226,0.20667,0.27041,0.091849,0.092535,0.13465,0.099474
0.80221,-0.37946,-0.24004,-0.19478,0.022048,0.088101,0.32568,0.52692
0.61154,0.31808,0.11688,0.50584,0.15059,0.15807,0.054603,0.3301
-0.49055,-0.26368,-0.18651,-0.34688,-0.061867,0.0054685,0.07911,-0.030647
-0.55273,0.024227,0.019613,-0.073747,-0.053462,-0.089181,-0.23465,-0.4075
0.37411,-0.096811,0.078072,0.1136,-0.067344,-0.11928,-0.1073,-0.074493
-0.37151,-0.20847,0.1844,0.12058,0.082817,0.069913,0.044667,0.030339
0.66619,0.45211,0.019489,-0.061516,0.059856,0.07065,0.17177,0.21133
-0.071249,-0.28991,-0.17252,0.12125,-0.05139,-0.032373,0.17006,0.2184
-0.18675,0.2332,-0.068912,-0.15967,-0.0095356,-0.021169,-0.20443,-0.1748
-1.0695,-0.10962,-0.21406,-0.23235,-0.033697,-0.067807,-0.31194,-0.58495
0.53468,0.1968,0.24586,0.020972,-0.061238,-0.093797,0.011727,0.26985
0.47507,0.040658,0.18759,0.25747,0.13503,0.21415,0.25983,0.20277
-0.24241,-0.11304,0.065232,0.025122,-0.022023,0.052378,0.2232,0.31588
0.83998,0.10663,-0.050701,-0.026668,-0.038973,-0.062463,-0.064844,0.031275
-0.79118,-0.1944,0.1518,-0.069128,-0.031778,-0.1217,-0.30535,-0.48702
0.027431,-0.22897,-0.72669,0.20264,0.024041,0.031446,-0.027819,-0.043901
-0.18427,-0.18469,-0.023468,-0.26628,0.027596,0.029967,0.12829,-0.069272
0.45106,0.45573,0.37698,-0.070175,-0.0052898,-0.001351,0.022813,0.1867
0.23196,-0.43775,0.019494,0.032375,0.026651,0.15573,0.20236,0.29422
-0.17512,0.73957,0.63603,0.21242,0.021145,-0.14011,-0.16994,-0.098352
-0.054758,-0.033043,-0.30734,0.10979,-0.0071438,-0.0067462,-0.05638,-0.17857
-0.43859,0.019627,-0.37571,-0.20581,-0.01234,0.024015,0.19782,0.17851
-0.61296,-0.52362,-0.32111,-0.10968,-0.11245,-0.087151,-0.32267,-0.40989
0.41166,-0.13961,0.42574,0.015424,0.020157,0.0035607,0.13134,0.15007
0.98518,0.56134,0.029191,0.091872,0.096341,0.10117,0.083089,0.37414
-0.9885,-0.42986,-0.087227,0.13614,-0.086735,-0.11416,-0.23272,-0.44069
0.47038,0.29944,0.26685,-0.092853,0.11211,0.13151,0.19244,0.27587
0.90871,-0.010001,-0.30329,-0.16423,-0.056456,0.026062,0.08602,0.12524
-0.91894,-0.23457,0.058025,-0.045635,-0.060538,-0.11779,-0.23091,-0.49441
-0.14323,-0.086579,-0.012383,0.28718,0.069105,0.0906,0.28122,0.40878
0.69019,0.58106,0.020081,0.0065153,0.035869,-0.044144,-0.104,-0.095078
-0.909,-0.23296,-0.084571,-0.1377,-0.011761,0.0091223,0.042977,0.11113
0.094418,-0.17042,0.033722,0.025887,-0.027056,-0.062147,-0.16096,-0.23803
-0.40989,-0.14628,0.022406,-0.20671,-0.025899,-0.023543,-0.013038,-0.13437
0.67384,0.057731,0.38674,0.36658,-0.063277,0.0078446,-0.029146,0.13356
0.74847,0.40262,-0.4473,-0.28656,0.087103,0.1493,0.17338,0.27721
-0.91449,-0.22808,0.28175,0.30173,0.018782,-0.075722,-0.0070733,-0.070271
0.31615,-0.059522,0.21066,-0.13476,0.012876,0.027998,-0.031401,-0.033749
-0.69473,0.035463,-0.6633,-0.22123,-0.024423,-0.031953,-0.040147,-0.14454
0.4474,0.10659,0.049321,0.15187,-0.054048,-0.068386,-0.080044,-0.14499
0.056774,-0.19433,-0.010318,-0.022833,0.041238,0.098054,0.32571,0.41007
0.35934,0.026919,0.12061,-0.065177,-0.050991,-0.10323,-0.22097,-0.096533
0.25854,-0.038771,0.43685,0.27512,0.13026,0.16354,0.046034,0.01507
-0.81246,-0.013757,-0.48104,-0.36143,-0.13374,-0.14074,-0.20865,-0.36418
-0.061752,-0.19352,0.0091751,0.2746,0.047576,0.0075105,-0.039241,0.031663
0.16226,0.85135,0.3844,-0.036546,0.002212,0.02261,0.085701,0.10114
0.38732,-0.36557,-0.14535,0.03214,0.042502,0.053368,0.15022,0.22677
-0.37278,-0.46516,0.31657,0.15161,-0.003591,-0.0091804,0.16119,0.11082
-0.00086954,0.28212,-0.38032,-0.20189,-0.003351,-0.031828,-0.078228,-0.076109
0.3094,-0.027507,-0.28442,-0.1684,-0.066129,-0.0064555,0.23489,0.18795
-0.57189,-0.078734,0.17411,-0.097956,-0.035505,-0.10478,-0.612,-0.70761
0.12451,0.17135,-0.32411,0.0039193,0.026318,0.071577,0.0051172,0.080377
0.88665,0.34551,0.72303,0.22573,0.07283,0.12389,0.26587,0.435
-0.32913,-0.23603,-0.13474,0.29633,0.041876,0.020379,-0.05533,-0.10349
-0.66111,-0.46172,-0.457,-0.3766,-0.1288,-0.16931,0.01206,-0.13478
0.31375,0.13359,0.1648,0.13696,0.092146,0.11661,0.27501,0.42147
-0.1235,-0.29619,0.21615,0.062727,-0.029729,-0.06772,-0.34232,-0.57323
-0.39643,0.20773,0.032639,0.12553,0.0053695,0.0039635,-0.080219,0.046819
0.65584,0.42337,-0.012543,-0.28623,0.0096442,0.019219,0.19518,0.32933
0.51323,0.048542,0.069867,-0.11225,-0.048492,-0.076241,-0.086392,-0.11651
-0.35287,-0.1904,-0.52049,-0.18254,-0.028755,0.061984,0.2693,0.28619
0.21656,0.45375,0.44742,0.38441,0.084159,0.0049453,-0.23975,-0.43347
-0.79019,-0.35961,-0.18524,0.18157,0.00088584,0.026722,0.14943,0.15148
-0.43752,-0.52644,0.080186,-0.26799,-0.060111,-0.059809,-0.081514,-0.26651
0.7986,0.67506,0.22041,0.15288,0.04934,0.042238,-0.075524,0.38805
-0.00071269,-0.56293,-0.34893,-0.23532,-0.053799,-0.02689,0.064413,0.089785
-0.15881,-0.046034,-0.031354,0.044357,0.052209,0.075882,-0.12288,-0.31076
0.36908,0.41453,0.090547,0.33634,0.06268,0.03725,0.066697,0.045884
-0.37227,-0.30324,-0.17527,-0.17869,-0.084668,-0.10443,-0.044533,-0.12814
0.6299,0.42178,-0.029401,-0.1634,0.016895,0.025483,0.092925,0.27088
-0.43334,0.062317,0.95128,0.032301,0.0087508,0.0052142,0.059927,-0.05117
-0.63818,-0.38613,-0.45221,-0.11318,-0.092505,-0.10991,-0.086506,-0.10695
-0.015791,0.10198,-0.34303,0.12057,0.011059,-0.037577,-0.11827,-0.19845
0.86177,-0.20703,-0.043997,0.055058,0.031324,0.090604,0.19951,0.31699
0.24889,0.18618,-0.22194,-0.043725,0.039218,0.072571,0.092873,0.19826
0.047089,0.60019,0.66758,0.37831,0.034849,0.0026731,-0.072385,-0.11708
-0.77249,-0.81891,-0.15831,-0.4382,-0.01352,0.0058557,-0.14973,-0.26275
-0.73863,0.16082,-0.27042,-0.065772,-0.044428,-0.035796,-0.086462,-0.18564
0.64407,0.20925,0.23825,0.49315,0.081337,0.063981,0.23293,0.46392
0.67703,-0.12787,-0.044523,-0.39643,-0.012741,-0.00094607,-0.11447,-0.11284
0.22588,0.19624,-0.092678,0.060856,-0.038903,-0.059983,0.082013,0.10603
-0.5605,-0.55973,-0.23929,-0.16675,-0.052657,-0.043605,-0.05991,-0.17724
0.078223,0.22292,0.14307,0.093138,-0.022913,-0.06128,-0.031271,-0.02529
-0.55646,0.092763,-0.10837,0.037232,-0.027278,-0.057697,-0.041492,-0.046883
0.51829,0.23073,0.67012,0.15183,0.099385,0.18707,0.075017,0.079458
-0.65917,-0.050252,-0.57054,-0.068857,0.022514,0.010383,-0.032125,-0.13709
0.37881,-0.055529,0.20497,-0.021506,-0.029941,-0.023933,0.067313,0.17963
0.14504,-0.11483,0.44518,-0.056511,0.013443,0.022547,0.013697,0.045777
0.51665,0.17588,-0.43237,-0.079684,-0.057639,-0.076404,-0.0065151,-0.078046
-0.70307,-0.34193,0.12402,0.14305,0.030312,-0.0085915,-0.096515,-0.154
0.77798,0.51748,-0.65202,0.23577,0.10494,0.1392,0.39808,0.6754
-0.79745,-0.48889,0.0069888,-0.29501,-0.092472,-0.103,-0.49318,-0.62318
0.63266,0.022227,0.18331,-0.1069,0.015121,0.029149,0.080113,0.14383
0.045139,0.36503,0.34341,0.24421,0.012608,0.018871,0.10197,0.077096
-0.75283,-0.043697,0.0086146,-0.19558,-0.077357,-0.14241,-0.27872,-0.53401
-0.1852,-0.30226,0.51949,0.14375,0.033902,0.06849,0.25171,0.36669
0.12437,-0.22787,-0.83224,-0.13609,-0.036387,0.018981,0.10885,0.11753
0.039369,0.15049,-0.14002,-0.065939,-0.0065896,-0.0090535,-0.057287,-0.12249
0.67477,0.3727,0.31293,0.19843,0.069178,0.039924,-0.026604,0.047576
-0.20596,-0.10129,0.46042,-0.030124,-0.019454,-0.020718,-0.01694,0.027874
0.15161,0.39767,-0.077145,0.14694,0.063851,0.020678,0.019008,0.17838
-0.10943,-0.071745,-0.43706,-0.090806,0.022368,0.016134,0.018728,-0.024891
-0.55891,-0.62299,-0.1306,0.045517,-0.097127,-0.065439,-0.19002,-0.35688
0.96613,0.3735,0.19985,-0.27233,0.025414,0.088356,0.1812,0.37566
-1.0284,-0.65412,-0.22681,-0.028605,-0.071257,-0.10089,-0.12622,-0.49353
0.96367,0.60721,0.31005,0.097371,0.057943,0.030497,0.13684,0.30702
-0.51198,-0.13685,0.039954,0.10613,0.030132,0.029041,-0.030587,0.080483
-0.61938,-0.12459,-0.19014,0.045097,-0.029562,-0.066481,0.042469,-0.0803
0.52509,0.26554,-0.080743,-0.022844,-0.019262,0.056275,0.019297,0.050867
-0.42124,-0.29863,0.31486,0.14467,0.030228,0.006673,-0.2178,-0.2837
0.76881,0.49787,0.027734,-0.36645,-0.013393,0.011409,0.15136,0.27586
0.46966,0.22605,-0.23282,0.24059,0.022247,0.00043277,0.080188,0.24597
-0.89885,-0.53708,0.31957,0.012625,0.0047463,-0.049327,-0.17277,-0.31772
0.066218,-0.25509,-0.03685,-0.18304,-0.018744,0.010995,-0.028339,-0.15626
0.65781,0.22467,-0.19522,-0.025815,0.0065621,0.0099546,0.21007,0.24717
-0.75273,-0.39876,-0.53974,0.26592,-0.04443,-0.020852,-0.12034,-0.17648
-0.19909,0.52683,0.49214,-0.24508,0.015484,-0.0031248,0.10656,0.20675
0.32594,0.22446,-0.019991,0.10528,-0.0016868,0.016186,-0.18657,-0.14907
0.34732,0.050879,0.20755,0.027535,0.083095,0.060153,0.12566,0.14733
-0.43615,-0.44047,-0.53341,-0.041641,-0.090294,-0.098423,-0.15997,-0.30222
0.16015,0.3682,0.67366,0.17001,0.086768,0.13339,0.22944,0.34592
-0.10808,-0.30959,-0.083628,-0.096636,-0.058229,-0.08901,-0.027328,-0.080535
0.50693,-0.24277,-0.015591,-0.069304,0.052447,0.10087,0.092044,0.26939
-0.58383,0.074366,-0.50544,-0.014316,-0.065635,-0.12548,-0.27297,-0.57367
-0.22094,-0.44605,0.32057,0.13861,-0.029355,-0.057053,-0.10771,-0.11806
0.66707,0.59913,-0.25807,-0.38323,-0.033392,0.017572,0.28243,0.4405
-0.3974,0.19671,0.31128,0.22617,0.016826,0.013301,0.014331,-0.070172
0.62161,0.28361,-0.15303,0.12475,0.12215,0.12644,-0.060386,0.22464
-0.49939,0.45802,0.51922,-0.076425,0.0020032,0.0063686,0.11333,0.074654
0.1324,-0.91029,-0.2042,0.092701,-0.054132,-0.1353,-0.26862,-0.46571
-0.74649,-0.15499,-0.65936,-0.14844,-0.007122,0.045481,-0.018044,-0.17013
0.59342,-0.12409,0.30313,-0.026462,-0.0056263,0.056419,0.27977,0.42213
0.47688,0.43845,0.23991,0.34849,0.035869,-0.024843,-0.19504,-0.23604
0.043106,-0.38028,-0.10415,-0.37645,-0.055019,-0.011544,0.088934,0.097152
-0.84775,-0.20947,-0.093288,0.03936,-0.036584,-0.060785,0.09243,0.35073
0.049372,0.11985,0.18923,0.07874,0.075173,0.060999,-0.12256,-0.33561
0.70772,0.5577,-0.49698,0.17013,0.053459,0.071913,0.16985,0.34961
-0.84394,0.052352,0.51272,-0.24191,-0.12525,-0.15343,-0.30448,-0.51641
-0.030203,-0.075534,0.014353,-0.056023,-0.0077988,-0.0057554,-0.030462,-0.14517
0.46518,-0.21908,0.029229,-0.02185,0.085607,0.13232,0.21819,0.34614
0.79997,0.35138,0.10906,0.16607,0.0066777,-0.020045,0.11339,0.29405
-0.72224,-0.33857,-0.30404,0.15717,0.05245,-0.02476,-0.14925,-0.26123
0.17627,0.20594,-0.0096607,-0.063085,-0.058151,0.040709,0.0011316,-0.068121
-0.5644,-0.15889,-0.28298,-0.18122,-0.059309,-0.080793,-0.075404,-0.085799
0.050001,-0.62872,-0.15576,-0.1964,-0.091442,-0.091817,-0.050006,-0.0078248
0.56899,0.44756,0.76324,0.40761,0.16596,0.19554,0.27328,0.33134
-0.39375,0.08283,-0.20425,-0.18129,-0.060407,-0.11702,-0.24573,-0.33299
0.58248,0.22086,0.34204,0.22456,0.073229,0.087555,0.15872,0.21041
-0.61025,-0.32777,-0.3694,-0.28894,-0.058255,-0.058366,-0.14637,-0.23425
-0.25711,0.12071,-0.15718,0.035779,0.037075,0.053939,0.11194,0.30064
-0.00089957,-0.19821,-0.13713,0.034268,0.0073359,0.017483,-0.020142,-0.1318
0.3601,0.72103,0.07429,0.1435,-0.014955,-0.012135,0.15202,0.16211
0.44897,-0.33003,0.10974,-0.26219,-0.053413,-0.12907,-0.16895,-0.17055
-0.43307,0.070932,-0.008618,0.13675,0.0013289,0.11192,0.024633,0.033558
0.2237,0.033191,-0.041098,0.097253,0.00099435,-0.070082,-0.18103,-0.22547
-0.58929,-0.48902,0.40721,-0.13154,-0.061964,-0.080736,-0.0040471,-0.063981
0.5388,0.086181,0.22295,0.043374,0.11741,0.16664,0.16576,0.18344
0.22783,0.22704,-0.34745,0.19965,0.05489,0.016474,0.063503,0.22917
-0.70013,-0.47733,-0.20462,-0.11586,-0.04639,-0.046381,0.025544,-0.1054
0.36612,0.11982,-0.52045,-0.26201,-0.014732,0.032918,0.05187,0.10204
-0.45338,0.11234,0.48097,0.13723,-0.037912,-0.050482,-0.22515,-0.28165
