0.0084651,-0.059793,-0.48598,-0.084028,0.025624,0.017258,0.012202,0.064749
-0.016714,0.22792,0.41127,0.15197,-0.021436,-0.029663,-0.026171,-0.12503
-0.062761,-0.2992,-0.52437,0.23497,0.01806,0.0018972,0.0059155,0.092206
0.050231,0.27251,0.39085,-0.28883,-0.027611,-0.0050869,-0.00089249,0.068411
0.13446,0.1527,0.56705,0.19653,0.075981,0.043244,0.054935,0.12411
-0.092147,-0.32489,-0.8286,0.048929,-0.038426,-0.017164,-0.037642,-0.20951
0.017643,0.31352,-0.11447,-0.55349,-0.042905,-0.01456,0.0024682,-0.12025
0.056214,-0.013194,0.24121,0.37235,0.023169,-0.0038876,-0.0046125,0.28197
-0.055807,-0.128,0.57343,0.185,0.034412,0.037928,0.011249,-0.10508
-0.14742,-0.41556,-0.80761,-0.32677,-0.079903,-0.04578,-0.051639,-0.063339
0.015431,0.21714,0.43856,0.3061,0.070462,0.033649,0.041047,0.11756
0.097035,0.15332,0.2067,-0.36865,0.047695,0.033723,0.01591,-0.070543
0.012179,0.11317,-0.76449,0.65025,-0.04682,-0.06132,-0.01755,0.012933
0.019689,-0.073015,0.81938,-0.70592,-0.088088,-0.032662,-0.0044478,-0.045771
0.011292,-0.035507,0.043254,0.15045,0.056889,0.034049,0.00077568,0.035202
-0.058883,-0.029423,-0.5217,0.033389,-0.002152,0.0064646,0.0062013,-0.048018
0.052139,0.02601,-0.81033,-0.11065,0.055594,0.041403,0.019906,0.041386
-0.014506,0.13329,1.0173,0.70322,0.027551,-0.016809,-0.012567,0.030742
-0.039835,-0.11158,0.33274,-0.57204,-0.15607,-0.066125,-0.044173,-0.02476
-0.039489,-0.15201,-0.73498,-0.070038,0.028583,0.0031385,0.011104,-0.0077901
0.080062,0.13055,0.69153,0.47359,0.14425,0.11293,0.04385,0.050158
0.021559,0.010056,-0.66865,-0.51292,-0.090326,-0.065045,-0.024238,7.8461e-05
-0.012375,-0.30315,-0.15349,-0.20289,-0.026927,-0.023387,0.0096568,0.01307
-0.045764,0.18106,0.9751,0.5196,0.013688,0.010779,-0.0033193,-0.099195
-0.13393,-0.22842,-0.42887,-0.065321,0.015325,-0.010043,-0.016756,-0.10308
0.32403,0.99464,0.55093,-0.29453,0.17271,0.15577,0.10173,0.2665
-0.20378,-0.24937,-0.68365,0.51086,-0.16304,-0.16403,-0.10913,-0.11576
-0.061703,-0.66147,-0.29889,-0.23568,-0.093719,-0.024263,-0.0088173,-0.054603
0.077887,0.34766,-0.40354,-0.08912,0.0057645,-0.002887,-0.011308,0.012618
0.17562,0.072908,1.0683,0.16947,0.10453,0.080196,0.086849,0.16432
-0.29198,-0.58608,-0.76096,-0.52167,-0.12497,-0.11821,-0.11229,-0.20845
0.33168,0.72683,0.73964,0.6825,0.24755,0.16026,0.11058,0.12133
-0.27292,-0.70759,-0.16708,-0.81008,-0.16806,-0.060506,-0.048675,-0.041117
0.067339,-0.036621,-0.69701,0.40874,-0.027797,0.00095993,0.0041305,0.03917
-0.020929,0.36584,0.96234,0.72363,0.13703,0.071227,0.034885,0.0034118
-0.067217,0.22574,-0.84832,-0.69969,-0.11139,-0.092068,-0.034466,-0.085313
-0.054294,-0.15599,0.96726,0.30429,-0.007929,-0.03607,-0.03216,-0.046826
0.25332,0.60363,-0.097281,-0.49751,0.095314,0.051448,0.057162,0.064488
-0.058137,-0.37409,0.10085,0.22427,-0.083373,-0.040651,-0.040308,0.06895
0.057526,-0.54122,-1.0353,-0.13863,0.11981,0.11721,0.06563,0.03651
-0.1201,0.48429,0.16643,0.45371,-0.23264,-0.15467,-0.094209,-0.11171
-0.093432,-0.41583,0.38257,-0.22506,0.12517,0.049973,0.011021,0.021652
0.072182,-0.085445,-0.42583,-0.51944,0.013977,0.043636,0.045034,0.036914
0.20208,0.43819,0.0010207,0.68566,-0.073518,-0.001863,0.0075634,0.034428
-0.16694,0.049995,0.34444,-0.70704,0.027176,-0.047597,-0.03124,-0.096128
0.073215,-0.29774,-0.021638,1.1179,0.15225,0.11718,0.061408,0.074452
0.039746,0.23261,0.022205,-0.57964,0.028284,-0.0077119,0.012196,0.015036
-0.24251,0.059083,0.80097,0.14786,-0.10268,-0.14114,-0.11607,-0.10957
-0.083422,-0.28138,-1.1154,-0.18071,-0.24088,-0.064317,-0.026052,-0.055889
0.067335,-0.024077,0.83979,0.041696,0.18378,0.11357,0.04845,0.052666
0.19775,0.10393,-0.1431,0.26104,0.038336,0.064707,0.076785,0.11615
0.021862,0.32837,-0.18426,-0.78448,0.072791,0.04731,0.020404,0.010913
0.11192,0.0066295,-0.0091762,0.36473,-0.0096644,-0.078867,-0.05004,0.0033596
-0.2504,-0.73243,-0.93141,-0.41624,-0.1855,-0.10259,-0.040697,-0.10953
-0.011575,0.018691,0.21789,-0.026008,-0.071884,-0.031506,-0.061107,-0.078368
0.10709,0.30502,0.37,0.93946,0.19824,0.12652,0.099252,0.15031
0.0084042,0.21522,-0.18218,-0.0019833,0.054207,0.050916,0.010071,0.035809
0.094904,0.24129,0.43958,-0.10201,0.0032436,0.030295,0.029982,0.037301
-0.082011,0.22482,0.14932,0.22028,0.028996,-0.053106,0.0019884,-0.073366
-0.14958,-0.58687,0.027969,-0.40152,-0.15051,-0.090482,-0.066711,-0.102
0.12582,-0.093565,0.5339,-0.25569,0.0032869,0.02711,0.0032155,0.044686
-0.14551,-0.098279,-0.62894,-0.26932,-0.080067,-0.067701,-0.061681,-0.086119
0.038908,0.26445,-0.14182,0.39151,0.068526,0.062693,0.028001,0.08469
0.14359,0.076009,0.095273,0.11914,0.21551,0.13743,0.069766,0.097641
-0.069605,-0.39,-0.90915,-0.58143,-0.083248,-0.038218,0.017532,-0.037776
-0.049999,0.2608,0.5056,0.45312,-0.17011,-0.11198,-0.049763,-0.046512
0.080242,0.033943,0.6294,0.39441,0.042239,0.026226,0.009201,0.104
-0.16974,-0.54203,-0.78331,-0.59499,-0.093548,-0.099595,-0.04729,-0.13228
0.16834,0.35564,0.90706,0.066692,0.1497,0.089009,0.062201,0.0027699
0.26412,0.52959,-0.45606,0.60621,0.060944,0.084189,0.03288,-0.02242
-0.40171,-0.74659,-0.63946,-0.76107,-0.087207,-0.059819,-0.096569,0.0022317
0.1273,0.63097,0.59575,0.95073,0.13342,0.070222,0.024845,0.11446
0.16697,0.55848,0.59513,-0.75851,-0.068175,-0.065824,0.060512,0.078298
-0.17701,-0.4532,0.045251,0.54073,-0.084569,0.0075085,-0.029292,-0.076662
0.17908,-0.11966,-0.69748,-0.40014,0.22327,0.14872,0.090826,0.077877
-0.48383,-0.63043,0.3239,-0.41278,-0.34085,-0.26763,-0.18886,-0.31053
-0.015815,-0.40491,-0.69909,-0.13794,-0.026897,-0.038297,-0.024713,0.023529
0.25018,0.52558,0.12135,0.71658,0.1895,0.10301,0.1068,0.11178
0.028832,0.10315,0.17438,-0.38274,-0.088517,0.0089271,0.0027966,0.017741
0.34736,0.66364,0.3815,0.59411,0.21128,0.16505,0.14017,0.18803
-0.13489,-0.5889,-0.74933,-0.63565,-0.13582,-0.091551,-0.12137,-0.16508
-0.15024,-0.3501,0.84441,0.32343,0.066948,-0.056891,-0.04713,0.053312
-0.11971,0.66599,0.29499,0.28651,-0.10144,-0.027411,-0.019646,-0.10911
0.050246,-0.09438,-0.71123,-0.33203,-0.00016569,0.028144,0.023848,0.019968
0.12424,0.32702,0.59786,0.18478,0.12037,0.16408,0.11483,0.13593
-0.37584,-0.37216,-1.0052,-0.88504,-0.20164,-0.31556,-0.21527,-0.26147
0.44662,0.32484,0.7375,1.017,0.32962,0.26811,0.20551,0.24911
-0.20711,-0.74435,-0.64896,-0.69911,-0.32603,-0.15602,-0.10722,-0.16114
0.16126,-0.029089,0.6664,1.0646,0.080547,0.052027,0.026091,0.13199
0.058226,0.15711,-0.27369,-0.68658,0.15817,0.14182,0.081794,0.065267
-0.18102,0.050774,-0.47351,-0.86835,-0.26519,-0.23833,-0.12005,-0.16658
-0.025252,0.25041,0.53033,1.0814,0.12318,0.052371,0.037532,0.022113
0.010635,0.26225,-0.24599,-0.35998,0.081521,0.10026,0.030988,-0.0014214
-0.12669,-0.46202,0.74273,0.41814,-0.14748,-0.094125,-0.053726,-0.0024089
0.12695,-0.3234,-0.21808,-0.22288,0.13186,0.032265,0.025733,-0.0036564
-0.047118,0.36093,-0.0081319,-0.054149,-0.041312,0.0032533,-0.035075,-0.035709
0.20385,0.34143,0.21192,0.38793,0.074961,0.037725,0.045363,0.11296
-0.072836,0.26426,-0.62319,-0.83899,-0.23082,-0.083246,-0.053083,-0.041696
-0.01818,-0.43764,-0.22454,0.63536,0.23587,0.10863,0.068047,0.023729
0.030791,-0.57491,-0.86295,-0.91272,-0.11952,-0.059171,-0.036745,-0.011435
0.11166,0.20551,1.0288,0.81583,0.15546,0.12362,0.10091,0.11786
-0.1833,0.59331,0.61214,0.29841,0.083946,-0.062251,-0.050759,-0.1359
-0.30054,-0.6031,-0.52266,-0.66117,-0.46667,-0.23419,-0.14073,-0.19509
0.35312,0.86425,0.8372,0.35614,0.23088,0.15486,0.14307,0.20564
-0.1129,-0.51215,-0.40306,0.087963,-0.064464,-0.03521,-0.051196,-0.050921
-0.010625,-0.57356,-0.55177,-0.080727,-0.046756,0.040062,-0.020381,0.058885
0.23096,0.29368,0.073278,0.086371,0.26948,0.092342,0.056073,0.082256
-0.05153,0.047979,0.34931,-0.5096,0.0020708,-0.034082,-0.008897,-0.10548
-0.04516,0.51501,-0.3768,0.02637,-0.067697,-0.026496,-0.019446,0.019356
-0.15602,-0.6132,-0.27197,0.55254,-0.034151,-0.056947,-0.053198,-0.090012
-0.01707,0.40854,0.77248,0.17194,-0.13269,-0.008765,0.0073884,-0.0039733
0.15258,0.17513,-0.51555,-0.77559,-0.0051323,0.03135,0.037428,0.097533
0.016492,-0.32961,0.14017,0.58293,0.25365,0.10942,0.083631,0.050049
-0.082101,-0.23251,0.13381,-0.85508,-0.09147,-0.033108,0.012778,-0.021883
0.23141,0.5109,-0.60928,0.19837,-0.0095078,0.001724,-0.027229,0.045391
-0.26968,-0.31267,0.62475,0.57686,-0.1564,-0.1533,-0.11502,-0.14678
-0.10858,-0.32218,0.52549,0.12747,-0.0078725,-0.0055407,-0.016515,-0.067061
0.32474,0.68452,-0.16348,0.29622,0.19503,0.16468,0.096406,0.18344
-0.16401,-0.30841,-0.39414,-0.60608,-0.11678,-0.10236,-0.041542,-0.089815
-0.14389,-0.7461,-0.67299,-0.028135,-0.036052,-0.055374,-0.039134,-0.065563
0.32393,0.72316,0.12681,0.34635,0.25808,0.22079,0.1278,0.2103
-0.28288,0.47403,0.56216,-0.75191,-0.25783,-0.24193,-0.14162,-0.1755
0.1302,-0.13517,-0.1696,0.36198,0.13438,0.18941,0.098423,0.0666
0.01653,-0.6374,0.12797,0.022595,-0.027174,-0.024637,0.0044132,0.014792
-0.0070177,0.40285,0.37622,-0.16119,0.02986,-0.0099149,0.0059566,-0.0031126
0.11345,-0.0083208,-0.76341,-0.0021013,-0.054812,-0.02529,-0.022276,0.027879
-0.20915,-0.027993,0.2278,0.34289,-0.039516,-0.040559,-0.041697,-0.088363
0.13328,0.031776,0.27329,0.41899,-0.017967,0.04502,0.056575,0.092622
-0.1261,-0.48346,0.18642,-0.51085,0.018218,-0.1284,-0.048173,-0.10961
0.042917,0.32759,-0.24237,0.19079,-0.03939,0.064065,0.0031854,0.038728
0.014509,-0.18022,0.22436,-0.025958,0.12277,0.075705,-0.00037592,0.021617
-0.040067,0.30843,-0.72804,-0.58478,-0.025653,-0.015086,-0.0041615,-0.020574
-0.058818,0.13889,0.13573,0.56908,-0.093601,-0.075288,-0.047224,-0.088034
0.12967,-0.43123,-0.42277,-0.62461,0.098481,0.098242,0.081283,0.12373
0.33747,0.6506,0.99285,0.62744,0.15143,0.067785,0.099854,0.17698
-0.49823,-0.71306,-0.33739,-0.28644,-0.21716,-0.13581,-0.14819,-0.21758
0.067851,0.63744,0.27234,-0.20415,-0.071139,-0.05989,-0.0071166,-0.036635
0.14551,-0.38785,-0.095055,0.48884,0.27577,0.19364,0.13197,0.11837
0.0014426,0.18513,-0.17101,0.39776,-0.20068,-0.086215,-0.043699,-0.088036
-0.097029,0.075097,0.53006,-0.48344,-0.016296,-0.016306,-0.057464,0.063806
-0.16326,-0.51981,-0.91382,-0.52996,-0.061229,-0.095839,-0.072851,-0.12795
0.14122,-0.062818,0.39498,0.50636,0.13436,0.090418,0.043916,0.056974
0.17044,0.20338,-0.036629,0.23976,0.056336,0.0047786,0.051908,0.096661
-0.12059,0.044269,-0.30315,-0.3645,-0.035903,0.015763,-0.0084853,-0.070128
-0.082452,-0.018116,0.18871,-0.099038,-0.15659,-0.078741,-0.050198,-0.052047
0.018994,0.25421,0.7198,0.18133,0.054541,0.0029559,0.0055689,0.025897
0.018152,0.040789,-0.31971,-0.26835,0.019588,0.034003,0.065108,0.022257
0.31078,0.28288,-0.24319,0.40911,0.18331,0.18523,0.088719,0.16985
-0.38004,-0.5112,-0.81762,-0.38952,-0.21336,-0.19345,-0.13576,-0.16621
0.27793,0.23532,1.0487,0.75654,0.26539,0.17722,0.10102,0.12122
-0.1952,-0.35398,-0.53745,-0.86408,-0.21819,-0.18123,-0.10882,-0.14171
0.065445,0.40083,1.1393,0.90526,0.10002,0.042263,0.045865,-0.0031933
-0.073818,-0.3485,-0.75294,-0.49655,-0.10893,-0.027978,-0.037317,0.028526
-0.065383,0.08479,-0.10051,-0.18423,-0.048139,-0.040121,-0.006941,-0.069443
-0.016433,-0.24952,-0.46903,-0.66231,-0.11518,-0.071165,-0.057788,-0.030106
0.099674,0.091829,0.67074,0.54158,0.18361,0.12281,0.084629,0.078107
0.020886,0.076913,-0.29131,0.84474,0.029622,0.082816,0.023189,0.10092
-0.093313,-0.22483,-0.32329,-0.93828,-0.075679,-0.11908,-0.0455,-0.10064
0.25936,0.9809,1.0063,0.84133,0.20454,0.11207,0.06708,0.13073
-0.20924,-0.46736,-0.40117,-0.45069,-0.059286,-0.067019,-0.044753,-0.12658
0.19567,0.15662,0.14522,0.034301,0.077586,0.085508,0.072194,0.080078
-0.051142,-0.23588,-0.81928,-0.22311,-0.23748,-0.02508,-0.019964,0.0074961
-0.24923,-0.25075,0.38907,-0.078314,-0.060438,-0.11892,-0.11098,-0.16597
0.012495,-0.12707,-0.16355,0.13739,0.084149,-0.017823,0.0014383,0.034882
0.09849,0.013899,-0.1305,0.28137,-0.062343,0.019054,0.027448,0.030806
0.26458,0.29441,0.88049,-0.36565,0.14814,0.092304,0.067994,0.11012
-0.060443,0.54934,0.22126,0.47065,0.21562,0.13895,0.068033,0.038206
-0.32933,-0.72066,-0.29654,-0.55131,-0.36735,-0.27063,-0.18343,-0.18471
0.15484,0.049106,-0.72129,0.2668,0.23579,0.161,0.14197,0.12174
-0.21475,0.049552,0.12512,-0.26694,-0.3101,-0.19801,-0.14281,-0.19772
-0.013199,-0.30893,-0.56324,0.21788,0.042637,0.028504,0.0019339,0.029888
0.37175,0.7124,0.61901,0.075301,0.19314,0.16203,0.10808,0.204
0.0047461,-0.1246,0.36641,0.017689,0.11063,0.031616,0.019922,-0.01844
-0.074141,-0.14473,0.3498,0.30306,-0.095372,-0.057487,-0.027837,-0.035598
-0.037074,-0.35363,-0.65107,-0.55384,-0.073416,-0.019242,-0.0038641,-0.0038828
0.067658,0.25741,0.19781,0.24222,0.043369,0.021046,0.0057472,0.029334
-0.12929,-0.07783,-0.0038773,-0.4201,-0.17509,-0.10129,-0.07746,-0.10067
-0.013128,0.044798,-0.35906,0.39479,0.14587,0.07395,0.050774,-0.01954
0.046784,0.22327,0.63975,0.14634,0.037222,-0.0008619,0.0071829,0.07692
-0.083964,-0.078475,-0.70189,-0.11947,-0.055876,0.0017713,-0.013338,-0.061571
-0.023424,-0.12392,-0.0383,-0.35595,-0.063235,-0.074847,-0.042392,-0.021041
0.12669,-0.0048628,-0.30444,0.74213,0.1791,0.14405,0.12288,0.15948
-0.078551,-0.14858,0.77559,-0.78497,-0.14932,-0.091535,-0.080175,-0.11369
0.22879,0.57357,0.68801,0.3925,0.099837,0.031083,0.035888,0.073546
-0.11448,-0.49696,-0.51932,-0.2939,-0.03444,-0.011157,-0.036654,-0.044434
-0.13875,0.22581,0.30226,0.44661,0.057302,0.0010007,-0.0085101,-0.0067245
0.0082926,-0.23214,-1.152,-0.14251,-0.12465,-0.033418,-0.0043255,0.014798
0.11635,0.22781,-0.006916,-0.076373,0.037409,0.05806,0.046659,-0.050107
-0.009415,-0.27056,0.80031,-0.097567,-0.07299,-0.067785,-0.026953,0.0018481
-0.14207,-0.25892,-1.0658,-0.23873,-0.0097502,-0.012142,-0.045041,-0.0087791
0.21078,0.53532,0.85553,0.8182,0.22001,0.1314,0.086463,0.1136
-0.04449,-0.030935,0.35982,-0.43753,-0.07862,-0.05916,-0.038551,-0.060448
-0.12664,-0.15027,0.13938,-0.032538,0.0084313,-0.0060608,0.0095332,-0.03076
0.050177,0.12998,-0.84139,-0.26674,-0.14432,-0.061476,-0.011746,0.023023
-0.15488,-0.2641,0.99062,0.41214,0.024666,0.00038825,-0.032519,-0.055437
0.18758,0.61454,-0.9862,-0.19262,0.092199,0.045885,0.048232,0.069597
0.1162,-0.038336,0.022374,0.25472,0.0098521,0.050776,-0.00442,0.022848
0.013363,-0.30799,0.99307,-0.065087,0.065122,0.022218,0.043438,-0.00065487
-0.1447,-0.13734,-1.024,-0.75926,-0.17303,-0.10269,-0.058468,-0.071442
-0.022165,-0.23206,0.00069465,0.55006,0.13044,0.043189,0.017971,0.044785
-0.1344,-0.11474,-0.034821,0.16282,-0.079391,-0.071075,-0.078537,-0.050303
0.16765,0.29674,-0.11538,0.2224,0.07297,0.086457,0.074407,0.049845
-0.083872,0.094609,0.1705,-0.60514,-0.17687,-0.084833,-0.045953,-0.052767
0.11983,0.43454,0.90258,0.53286,0.071338,0.0098456,0.029844,0.048607
-0.079786,-0.47351,-0.56237,-0.50402,-0.00061477,0.043317,0.021128,-0.028402
0.13026,0.078849,0.96452,0.47134,0.15624,0.086586,0.029802,0.083675
-0.070339,-0.069542,-0.61126,0.18495,-0.034449,-0.063148,-0.05349,-0.099493
-0.010247,-0.027809,-0.97002,-0.59013,-0.11055,0.008108,0.028771,0.070303
-0.073257,0.33455,0.97614,0.052439,0.084684,-0.035994,-0.020837,-0.0793
-0.096619,-0.29935,-0.45391,-0.25401,-0.12083,-0.086712,-0.038936,-0.017737
0.25413,0.033496,-0.55347,0.17093,0.10799,0.12867,0.098783,0.15264
0.00097467,0.0065254,-0.26,0.22612,-0.027031,0.00010857,-0.045742,-0.053291
-0.11512,-0.042395,0.50689,0.41906,0.035,-0.0041502,-0.019723,-0.011128
0.014384,0.0069554,0.27251,-0.14219,0.011192,-0.017185,0.0049165,-0.03366
-0.017031,0.17488,0.4966,-0.3818,-0.037449,-0.031183,-0.018471,-0.0036176
-0.091841,-0.3523,0.63402,0.041111,-0.096473,-0.053721,-0.02695,-0.061168
0.21276,0.4262,-0.71728,-0.14204,0.044287,0.040583,0.042501,0.052248
-0.17997,-0.096458,-0.29978,0.33193,0.03292,0.017753,-0.020588,-0.045307
0.11443,-0.26802,-0.23354,-0.1088,-0.0055616,0.057762,0.073127,0.1079
-0.1524,-0.26374,-0.021645,-0.10524,-0.00056092,-0.050262,-0.043514,-0.042266
0.19277,0.56134,0.014463,0.054329,0.12652,0.084124,0.074575,0.11374
-0.013246,0.070046,-0.13856,-0.058088,0.016897,-0.0082207,-0.033955,-0.04927
-0.23112,-0.43876,0.61159,-0.065222,-0.19591,-0.1481,-0.12739,-0.18024
0.25748,0.64453,0.15017,0.4963,-0.034561,0.046825,0.075132,0.12643
-0.15002,-0.78316,-0.82195,-0.59785,-0.01385,-0.04096,-0.043812,-0.067417
0.099634,0.33003,0.3043,0.13064,0.093581,0.072796,0.062654,0.057988
0.20014,0.51962,0.16981,0.55018,0.17903,0.1382,0.06662,0.11951
-0.30311,-0.6475,-0.5071,-0.41667,-0.061727,-0.13346,-0.078406,-0.1251
-0.075308,0.3496,0.90425,0.050729,-0.10504,-0.015122,-0.020382,-0.058481
0.023602,-0.33377,-0.56151,-0.5084,-0.083768,-0.092076,-0.040074,-0.0083841
0.056122,-0.032612,0.83101,0.8201,0.048745,0.081653,0.058236,0.056927
0.038371,-0.17384,-0.93473,-0.83879,-0.02821,-0.0011667,0.0013551,0.012938
0.17432,0.58265,0.39695,0.6553,0.16143,0.066103,0.047137,0.086599
-0.10533,-0.039561,-0.70769,-0.47955,-0.070399,-0.021096,-0.023326,-0.073415
-0.026034,-0.11395,-0.01659,0.5757,0.088251,0.049595,0.0084082,0.0095439
-0.039779,-0.29306,0.60131,-0.2667,-0.097455,-0.065923,-0.029891,-0.023905
0.081118,0.24552,0.8635,0.45981,-0.026232,0.01471,0.033349,0.044961
-0.20916,-0.16216,-0.80128,-0.71569,-0.12781,-0.091758,-0.098913,-0.11978
-0.01129,0.099076,-0.75334,-0.24026,0.058915,-0.026301,0.010827,-0.010247
0.089337,0.0097038,0.076458,0.51797,0.15927,0.10929,0.034581,0.084599
0.1709,0.3457,0.40523,0.20747,-0.021704,0.010216,0.019428,0.047634
-0.0093133,-0.1409,0.98074,0.07148,0.016306,0.027971,0.043663,0.0038183
0.032008,-0.15068,-0.60595,-0.45844,-0.015545,-0.0093418,0.013614,-0.00014349
-0.13623,-0.077954,-0.13105,-0.43458,-0.11712,-0.06266,-0.055139,-0.089539
-0.054517,-0.11155,-0.77644,0.24716,-0.03049,-0.014754,-0.014293,0.016532
-0.0052768,0.17964,0.56635,0.62809,0.088204,0.017305,-0.012449,-0.0025741
0.073363,-0.10669,0.85921,0.14732,0.090675,0.049337,0.028387,0.048206
0.11891,0.082108,-0.26981,0.12609,0.047405,0.026926,0.053482,0.090631
-0.28992,-0.27879,-1.0736,-0.81034,-0.2602,-0.12774,-0.12462,-0.20339
0.21504,0.23821,-0.24904,-0.2246,0.10544,0.069984,0.064527,0.1116
-0.17769,0.011802,0.41323,-0.038945,-0.097938,-0.043773,-0.01958,-0.096983
0.040481,0.06621,0.76987,0.73029,0.14499,0.030983,0.02158,0.046044
0.080638,0.27389,0.35478,-0.019673,0.083632,0.059628,0.031721,0.0094964
0.16876,-0.11289,-0.55131,-0.40805,-0.087594,-0.044281,-0.012785,0.12136
-0.048047,-0.18765,-0.36618,0.43722,0.020856,0.023221,-0.010708,-0.048393
-0.040316,0.18981,0.23995,-0.37044,-0.092127,-0.043384,-0.032784,-0.054954
-0.11461,-0.44877,0.43161,0.11015,0.10379,0.067611,0.061188,-0.00041411
-0.022402,0.12597,-0.40771,0.39857,-0.048166,-0.042824,-0.026002,-0.010192
0.0090449,0.14664,-0.52576,-0.43771,-0.063587,-0.046811,-0.028878,-0.01416
0.019093,0.09947,0.20709,-0.095076,0.034718,0.0089477,0.0057723,-0.0043898
0.13404,-0.11194,0.2748,0.20103,0.091679,0.062558,0.047043,0.074226
-0.19093,-0.21431,-0.28143,-0.33496,-0.15676,-0.064706,-0.060758,-0.066723
-0.00022595,0.18399,0.88623,0.4509,0.11146,0.02677,0.0033792,0.034479
-0.07269,-0.37726,-0.25599,0.018619,-0.00047423,0.0022553,0.0057959,-0.066704
0.2889,0.42117,-0.2961,-0.31994,0.00093064,0.019051,0.033048,0.10695
-0.0081061,0.23152,-0.70526,-0.44906,-0.14921,-0.086176,-0.031637,-0.069109
0.11459,0.10871,0.3101,0.68257,0.2367,0.14781,0.077507,0.10064
-0.34368,-0.54425,0.19826,-0.20471,-0.10757,-0.068215,-0.061531,-0.10259
0.076744,0.3917,0.73369,0.5125,0.019904,-0.00045681,0.0040053,0.024119
-0.039757,-0.43461,-0.42829,0.14211,0.039414,0.045517,0.023598,0.0038411
-0.038464,0.61795,0.37372,-0.53358,-0.089866,-0.11101,-0.057996,-0.10915
0.10277,-0.37049,-1.0983,-0.4988,-0.088336,-0.010089,-0.014716,0.075348
0.10959,-0.32493,0.27687,0.25497,0.15989,0.12869,0.067126,0.10378
-0.02626,0.14534,0.87895,0.58961,-0.017827,-0.078017,-0.015808,-0.032047
0.10148,0.4889,-0.73929,-0.34903,0.081524,0.088321,0.041121,0.034767
-0.31139,-0.50733,0.29652,0.21302,-0.11182,-0.090911,-0.058871,-0.13346
0.0094207,-0.086498,-0.91173,-0.34576,-0.010775,0.009711,-0.010911,-0.0055002
0.08057,-0.015508,0.62871,-0.41034,-0.098156,-0.070138,-0.002275,0.028118
0.0045864,-0.031864,0.19128,0.61979,0.010547,0.053009,0.006286,0.0066371
0.078928,0.9755,0.10278,-0.31154,0.098092,0.035943,0.046112,0.031777
-0.13395,-0.58116,0.00092438,0.13614,0.063916,-0.0038707,-0.0391,-0.0057918
0.20112,0.27746,0.037673,0.073789,-0.021396,0.027265,0.031699,0.034438
0.0045893,-0.26847,0.091109,0.34336,0.044769,0.0039761,0.016015,0.019379
0.11062,-0.15671,0.047964,0.35402,0.042498,0.074113,0.015079,0.042425
-0.31841,-0.25384,-0.67157,-0.83865,-0.21724,-0.19264,-0.10418,-0.1858
-0.010234,0.46639,0.30126,0.023579,0.068717,0.039201,0.033166,-0.024848
0.050526,-0.34956,-0.62992,-0.096662,0.00073018,0.035091,0.021003,0.13474
0.14591,0.28395,0.91044,0.61749,0.10164,0.068707,0.023775,0.051104
-0.1598,-0.30882,-0.34079,-0.90416,-0.21438,-0.14059,-0.067332,-0.095527
-0.036079,-0.10641,0.4238,0.6937,0.14717,0.072144,0.029578,0.015841
0.12126,0.56958,-0.92751,-0.34775,0.0078326,0.020392,0.026057,0.03436
-0.10736,-0.26687,0.29054,0.073881,-0.021567,-0.037136,-0.014919,-0.070581
0.1624,0.28772,0.50101,-0.2591,-0.072461,0.025189,0.024088,0.037421
0.13414,0.26816,0.52073,0.75456,0.2312,0.066975,0.025881,0.022634
-0.27086,-0.72975,-0.36883,-0.67722,-0.23503,-0.12294,-0.095742,-0.068164
0.094286,-0.017616,-0.060797,0.79052,0.052242,0.048559,0.041574,0.077123
0.07123,0.23272,-0.746,-0.58697,0.092393,0.064871,0.031,0.051592
-0.14697,-0.096527,0.27633,0.19224,-0.053139,-0.036057,-0.034314,-0.06743
-0.023254,-0.084769,-0.23588,-0.059762,0.012749,-0.020941,0.024781,-0.030743
0.026899,0.047052,0.48631,-0.41477,-0.031647,-0.02347,-0.026494,-0.010876
