-0.020484,-0.40156,-0.12375,0.053799,0.0076257,0.010419,0.0036065,0.0055012
0.1069,0.039839,0.23216,0.089643,0.063588,0.042622,0.037249,0.031432
-0.024764,-0.16648,-0.83096,-0.13271,-0.068884,-0.04326,-0.023536,0.018574
-0.049906,0.093579,-0.26491,0.011126,0.00066769,0.0026043,-0.015174,-0.025825
-0.0087113,0.38109,0.52678,-0.0027953,-0.0012397,-0.0072697,-0.0082802,-0.024198
-0.096884,-0.31152,0.2597,0.051784,-0.0042006,-0.017983,-0.010723,-0.0082368
0.037548,0.36903,-0.51262,0.034161,0.031072,0.0099037,-0.0066589,-0.0094303
0.0050693,-0.72281,0.63219,-0.071144,-0.0044673,0.022177,0.027799,0.019107
0.033812,0.58844,-0.92141,-0.11536,-0.047926,-0.03537,-0.023933,-0.0083069
0.023932,-0.42783,1.0476,0.050415,0.0183,0.025168,0.026294,0.010343
0.1098,0.63023,-0.41935,0.14544,0.085238,0.055615,0.038449,0.052204
-0.035529,-0.28178,0.40669,0.053041,-0.018623,-0.014243,-0.010449,-0.0070879
-0.098878,-0.63929,-0.27682,-0.038764,-0.074227,-0.043832,-0.049813,-0.073164
-0.017582,0.54934,-0.99139,-0.03569,0.012415,-0.0020564,-0.0014431,0.018569
-0.080997,-0.093172,0.38184,-0.19495,-0.063245,-0.045376,-0.013889,-0.044007
0.13989,0.35128,0.43001,0.03098,0.073794,0.044733,0.037566,0.067407
0.058174,-0.11423,0.35686,0.10367,0.032729,0.018042,0.019685,0.016798
-0.11638,0.44301,0.21703,-0.023289,-0.069645,-0.03974,-0.044617,-0.047729
0.099334,-0.59805,-0.27898,0.29865,0.18015,0.12115,0.07847,0.099832
-0.11627,-0.55972,-0.15506,-0.42305,-0.19518,-0.12453,-0.088158,-0.10371
0.055993,0.53502,-0.73932,0.14667,0.13175,0.074551,0.064431,0.090924
-0.080097,-0.2562,0.29704,0.068947,-0.1444,-0.094286,-0.06561,-0.10594
0.029596,0.048023,0.19732,-0.21258,-0.00063019,0.0094509,-0.0096259,-0.038463
0.26776,0.85981,-0.014083,0.4019,0.10195,0.073206,0.060606,0.10568
-0.23241,-1.0885,-0.27463,-0.22203,-0.055301,-0.020197,-0.010903,-0.025016
-0.03252,0.48135,0.64862,-0.13235,0.051417,0.0027576,-0.020659,-0.024048
0.064187,0.74445,0.72137,0.30329,0.00077248,0.0015814,0.023946,0.046424
-0.034202,-0.93832,-1.076,-0.44603,0.035605,0.023348,0.02176,0.022697
-0.099085,0.27674,0.92422,0.097374,-0.13246,-0.08794,-0.073733,-0.10273
0.082406,-0.32255,-1.0696,0.31797,-0.041857,0.019573,0.034612,0.06101
0.1133,0.097703,-0.64389,0.022403,0.18292,0.057119,0.034449,0.045292
-0.20105,-0.3948,0.4223,-0.31082,-0.09848,-0.060992,-0.058568,-0.079525
0.068702,0.64227,0.039488,-0.14104,0.020212,0.024759,0.013271,-0.00096835
0.23363,0.40092,0.49422,0.25937,0.062173,0.056566,0.038811,0.054326
-0.11482,-0.22387,0.43209,0.36739,-0.035573,-0.020393,-0.0056872,-0.007487
-0.13579,-0.12603,0.64577,-0.24687,-0.054864,-0.065737,-0.042439,-0.077125
0.17565,-0.65216,-1.1598,-0.052816,0.13655,0.11555,0.0923,0.16565
-0.11259,0.43009,-0.66408,-0.41073,-0.16489,-0.1018,-0.08608,-0.13857
0.01372,-0.53669,0.53053,0.17062,0.0015552,0.0085945,-0.0073801,0.0023902
0.038819,0.58001,0.28208,0.44033,0.08121,0.02478,0.047177,0.080723
-0.3408,0.40555,-0.37181,-0.30551,-0.15232,-0.11572,-0.11758,-0.20827
0.36148,0.30807,0.72355,0.14325,0.17617,0.12623,0.12354,0.22126
-0.10149,-0.9296,-0.86339,-0.30008,0.02776,0.039749,0.020739,0.0019597
-0.10966,-0.0080653,-0.049222,0.2153,-0.050715,-0.039247,-0.050872,-0.069567
0.18302,0.58408,0.94385,0.29801,-0.012582,-0.0092906,0.0024719,0.0063492
0.16066,-0.4532,-0.50591,-0.083861,0.087146,0.051341,0.055684,0.073148
-0.12977,-0.15372,-0.052404,-0.82928,-0.23626,-0.1075,-0.11014,-0.12719
-0.040856,0.049929,0.20471,0.34268,0.063775,-0.040613,0.012628,-0.016554
-0.051014,-0.17482,-0.17763,0.53343,0.12775,0.13483,0.095728,0.084932
-0.092172,0.38347,-0.17248,-0.17101,0.010401,-0.049819,-0.056222,-0.025446
0.11473,-0.13788,0.56963,0.12813,-0.038021,0.02283,0.033384,0.074751
-0.080487,0.37874,-0.37227,-0.037131,-0.079572,-0.053205,-0.057158,-0.10602
0.27424,0.29751,-0.43134,-0.25922,0.11291,0.089568,0.03963,0.073511
-0.30567,-0.33938,0.95488,-0.20798,-0.15518,-0.048531,-0.035247,-0.057973
0.078816,0.22969,-0.81233,0.033194,0.085645,-0.06875,-0.015743,-0.031308
0.038412,-0.3005,0.13887,0.13897,0.00012251,0.060447,0.043843,0.075598
-0.06563,-0.36223,0.46969,0.29927,0.09659,0.03461,0.026613,0.012746
0.15948,-0.34947,-0.55863,-0.27344,-0.069953,-0.028917,-0.012612,0.014312
0.0049776,0.68681,-0.51637,0.14762,-0.038491,-0.04414,-0.019186,-0.02943
-0.28503,-0.68963,0.49779,0.13931,0.018956,0.043567,-0.016757,-0.072037
0.1346,0.57974,0.45736,-0.26182,-0.038565,0.015274,0.025588,0.073553
0.17857,-0.22878,0.45494,0.19092,0.10879,0.011322,-0.0019405,0.00069557
-0.24709,0.12537,0.18776,-0.10751,-0.086403,-0.070215,-0.029465,-0.072186
0.082972,0.21927,-0.71204,-0.15233,0.047113,0.090572,0.044172,0.026508
-0.028617,0.24638,-0.17456,-0.28158,-0.21004,-0.17078,-0.086052,-0.031603
0.095104,0.071538,-0.38461,0.53506,0.22746,0.13757,0.079636,0.089159
0.099573,-0.3687,-0.2796,-0.12405,0.062196,0.038784,0.033329,0.0526
0.15389,0.53873,0.3265,0.30487,0.051569,0.063987,0.032898,0.069457
-0.24396,-0.46749,0.88357,-0.19957,-0.1796,-0.15399,-0.11674,-0.18064
-0.36824,-0.43342,-0.14591,-0.22081,-0.060908,-0.060261,-0.032402,-0.10376
0.20351,0.15651,-0.25749,-0.33439,-0.076311,0.017386,0.020786,0.073978
0.066958,-0.064617,-0.571,0.36042,0.11075,0.063737,0.035516,0.032919
0.11558,-0.55777,0.034575,0.16207,0.13379,0.079168,0.066898,0.086327
-0.19434,0.2605,0.7865,0.078932,-0.053469,-0.037637,-0.064523,-0.093241
0.19473,0.71014,-0.43606,-0.030161,-0.0053945,-0.013188,0.031861,0.064972
-0.051215,0.21913,0.43647,-0.10419,-0.042281,-0.042931,-0.034846,-0.048313
0.217,0.031386,-0.51523,0.29235,0.1481,0.099429,0.063014,0.097882
-0.19651,-0.55287,0.15326,-0.54566,-0.19251,-0.094232,-0.042315,-0.059534
-0.16056,0.095845,0.75974,0.1459,0.044777,-0.014809,-0.046703,-0.083856
0.07248,-0.16441,-1.0963,-0.18055,-0.070111,-0.014034,0.018156,0.03968
0.015619,0.43473,0.74948,0.092232,0.048527,0.04867,-0.0042533,-0.010031
0.13518,0.019859,-1.097,0.33985,0.080312,-0.0063326,0.018818,0.024204
-0.14102,-0.061931,0.86536,-0.038437,-0.0059379,0.086703,0.048435,0.056074
0.10793,-0.20927,-0.54529,0.012726,0.0086779,-0.062703,-0.016687,0.015179
0.053938,-0.16625,0.50029,-0.04539,-0.016277,-0.016899,-0.027727,-0.051393
-0.22376,-0.36554,-0.67484,-0.50192,-0.12749,-0.049179,-0.031127,-0.080647
-0.035648,0.38353,0.62697,0.28337,0.011144,-0.034415,-0.026457,-0.02499
0.23807,-0.13028,0.23391,0.5599,0.15755,0.17593,0.096021,0.15548
-0.32172,0.21155,0.30658,-0.56352,-0.1101,-0.129,-0.054065,-0.12436
0.38896,0.65125,-0.56892,0.13151,0.16131,0.12893,0.093705,0.16741
-0.10486,-1.1355,-0.60741,0.30908,-0.020416,-0.050253,-0.054457,-0.085989
-0.20898,0.48959,0.75422,-0.53036,-0.20213,-0.1353,-0.092459,-0.1032
0.18514,0.095476,-0.39195,-0.12815,0.069397,0.0613,0.065397,0.09213
0.028638,0.47869,0.32625,0.12604,-0.072804,0.00048749,-0.010852,-0.00043237
0.053075,-0.24914,-0.17205,0.26419,0.082445,0.080664,0.045707,0.040405
-0.018148,-0.13555,-0.31034,0.29431,0.09782,-0.034224,-0.022988,-0.028146
-0.094191,-0.048475,0.5447,-0.10445,-0.04229,0.014977,0.0094239,-0.011271
-0.24749,-0.44697,0.36538,-0.35512,-0.072474,-0.1158,-0.068127,-0.10458
0.26319,0.2225,-0.24735,0.040775,0.0068448,0.11215,0.056813,0.098152
-0.03829,0.10533,-0.71978,-0.050971,0.12482,0.065673,0.032729,0.026829
0.0060328,-0.24869,-0.18529,0.071918,-0.070626,-0.083561,-0.030854,-0.005608
0.14892,-0.034834,0.30405,0.26885,0.01397,-0.030869,-0.024318,-0.022038
-0.11404,0.50793,0.89337,-0.091897,-0.058848,0.0052491,0.021398,-0.021893
-0.05273,0.14958,-0.068778,-0.05512,0.047315,0.0096597,0.0050761,-0.01252
-0.093628,-0.72365,-1.2119,-0.39143,-0.15891,-0.06386,-0.049526,-0.017103
-0.046899,0.2876,0.35502,0.0038117,0.0031543,0.058801,0.0062561,0.058083
0.14321,0.53227,-0.083044,0.39114,0.20632,0.034426,0.063117,0.072083
0.17153,-0.4648,0.7541,-0.15741,-0.12696,-0.019544,-0.050949,-0.077258
0.10638,0.52865,0.42306,0.49899,0.19083,0.068662,0.085598,0.078063
-0.24304,-0.85151,-0.60943,-0.14895,-0.075277,-0.076404,-0.043362,-0.10333
-0.099499,-0.049137,-0.4882,-0.66669,-0.082662,-0.0023061,-0.016519,-0.043943
0.040692,0.58506,0.59494,0.37149,0.0031831,0.032371,-0.029716,0.01367
0.080233,-0.32277,-0.83107,0.094243,0.040212,-0.0042916,-0.0052166,0.045964
0.11825,0.4325,1.0322,0.060422,-0.011746,0.035735,0.0568,0.02183
-0.18224,-0.4194,-0.090345,0.29108,-0.059504,-0.16011,-0.038925,0.019692
-0.031721,-0.0067948,-0.91405,-0.63634,0.053268,0.10379,0.051619,0.024291
-0.24106,-0.37865,0.052728,-0.33003,-0.1493,-0.10173,-0.1321,-0.18277
0.18438,0.9017,0.58522,0.88467,0.2402,0.16149,0.11349,0.14097
0.27069,-0.36854,-0.6115,-0.67599,-0.12843,-0.098211,-0.02368,0.011343
0.028094,0.29666,0.36083,0.17933,0.0039145,0.072571,0.034835,0.014391
-0.049415,-0.091766,0.31854,0.48496,0.067959,0.02536,0.00015801,-0.052925
-0.030988,-0.71644,0.18271,-0.28097,-0.0060255,0.041073,0.0051671,0.051685
-0.14254,0.8121,0.72169,0.10005,-0.038255,-0.12297,-0.059525,-0.085667
0.077261,-0.091709,-0.97857,-0.20203,0.0021802,-0.061014,-0.022078,0.011849
-0.14467,-0.87205,-0.0045607,0.23158,0.052128,0.093832,0.047181,0.047695
-0.042298,0.43276,-0.85503,-0.25106,-0.12358,-0.041261,-0.015788,-0.063722
-0.06838,-0.21753,0.31071,-0.19989,-0.025696,0.026201,-0.023441,-0.017463
0.55063,0.50846,0.62664,0.72691,0.32959,0.10149,0.13363,0.21779
-0.50595,0.15636,0.11333,-0.41632,-0.26895,-0.16623,-0.1227,-0.21749
0.26864,-0.15487,-1.0344,-0.22978,0.014654,0.067534,0.027806,0.066893
0.03686,0.12707,0.5661,0.093944,-0.069297,-0.040412,-0.032181,4.3606e-05
-0.11734,0.47382,0.63199,-0.23854,-0.0047575,0.049231,0.040879,0.04223
0.08538,-0.71353,-0.63851,0.15109,0.091458,0.00031926,-0.018906,-0.025906
0.065518,0.34332,0.68329,0.54638,0.12572,0.062166,0.061594,0.029591
-0.20865,-0.69813,-0.70433,-0.37242,-0.066275,-0.11791,-0.069505,-0.10392
-0.25993,-0.7766,0.77697,0.20582,-0.18052,-0.017866,-0.060947,-0.082535
0.1945,0.98694,-0.45173,-0.0031585,0.17263,0.15772,0.10264,0.18791
0.078689,0.35056,-0.3122,-0.33134,-0.078212,-0.076762,-0.032026,-0.096715
0.12136,0.26985,0.26864,0.68638,0.27699,0.16861,0.11316,0.15789
-0.082162,-0.57298,-0.58547,-0.76491,-0.25439,-0.21549,-0.086639,-0.094685
-5.2906e-05,0.26826,0.073566,-0.1465,-0.10174,-0.071931,-0.076343,-0.080715
0.031162,-0.11465,0.86135,0.38732,0.025103,-0.0083683,0.011839,0.074932
0.1896,0.12453,-0.52617,-0.35478,0.034216,0.032149,0.030244,0.067579
-0.01121,0.10229,-0.11898,0.33552,0.076338,0.059844,-0.0046688,-0.063751
-0.25302,-0.36449,0.68483,0.35418,0.044448,0.14711,0.087539,-0.0065929
-0.17792,-0.23442,-0.4447,-0.36472,-0.14545,-0.10315,-0.091053,-0.096894
0.072947,-0.26429,-0.25454,0.040722,0.039022,0.0046316,-0.0090386,0.016892
-0.054634,0.51496,0.10673,-0.32774,-0.089663,-0.12413,-0.018244,-0.0012682
0.32337,0.37707,0.034492,0.26986,0.21726,0.14935,0.11503,0.15305
-0.033707,0.45587,0.75786,0.53242,0.11369,-0.013395,-0.0086778,0.010627
0.023932,-0.30845,-0.31558,-0.40496,-0.12999,0.064551,-0.02335,0.0082784
-0.16697,-0.45742,-0.37996,-0.10284,-0.048283,-0.064658,-0.023896,-0.12819
-0.012618,-0.49784,-0.48015,-0.035137,-0.073706,-0.074753,-0.050307,-0.02449
0.017575,-0.2843,-0.15971,-0.29147,-0.044074,-0.15409,-0.0015644,0.0064259
0.14115,0.8866,0.74243,0.47024,0.086892,0.28353,0.051931,0.058176
-0.096402,-0.1155,-0.27558,-0.32778,-0.11757,-0.13558,-0.061353,-0.040868
0.16317,0.57178,0.65237,0.19937,0.070979,0.020314,0.049881,0.045812
0.020978,-0.33086,-0.075781,0.054872,0.17856,0.027083,0.034927,0.037775
-0.29583,-0.58963,-0.12389,-0.14829,-0.19826,-0.12072,-0.04283,-0.11875
-0.012129,0.20545,-0.3187,0.12453,0.10712,0.22727,0.051781,0.084958
0.10908,0.33536,0.46799,0.14165,0.041884,-0.037112,0.0068924,0.032476
-0.23385,-0.063532,-0.71943,-0.23571,-0.11952,-0.061898,-0.059863,-0.056883
0.10241,-0.22555,-0.31899,0.094983,-0.0020344,-0.01934,-0.038847,-0.05783
0.16638,0.034298,0.62305,0.20432,0.10451,0.034896,0.038791,0.060869
0.16109,0.024731,-0.40086,-0.41564,0.011202,-0.041161,0.024553,0.041082
0.061103,0.44541,0.3966,-0.038708,-0.1118,-0.053672,-0.042717,-0.031858
-0.25451,0.10729,0.35387,0.17839,0.030629,0.035034,0.016281,-0.049396
0.14699,-0.32368,0.0081029,-0.022804,0.0072961,0.03629,0.029132,0.034395
-0.03608,-0.48188,0.056069,0.21621,-0.010974,-0.011693,0.01862,0.062322
-0.14348,-0.23134,-0.50422,-0.36361,-0.10281,0.039037,-0.031565,-0.060162
-0.052222,0.107,-0.19212,0.33774,0.16152,0.063386,0.049853,0.049251
0.034857,0.36335,0.26233,-0.15021,-0.014323,-0.11021,-0.065651,-0.039217
-0.012542,0.14216,0.45954,0.24915,0.042414,0.011136,0.020264,0.010754
-0.17455,-0.062546,-0.39462,0.019255,-0.042143,-0.0012461,-0.059343,-0.089059
0.28828,0.71735,-0.36292,-0.33984,-0.071473,-0.083651,0.024208,0.045332
-0.0097454,-0.58434,0.59058,-0.014425,-0.036607,-0.0083283,0.021671,-0.014452
0.12269,0.26019,-0.92368,-0.29136,0.024325,0.10848,-0.0036681,0.053087
-0.12482,-0.85152,0.60587,0.18365,0.057187,0.071929,0.011325,-0.0012385
0.115,0.25041,0.30868,0.30365,0.054198,-0.016521,0.027917,0.04938
-0.13613,0.13398,-0.070082,-0.13317,-0.08676,-0.095083,-0.039895,-0.06889
-0.045316,0.25796,-0.13246,0.11493,0.04727,0.038198,0.018366,-0.0054733
0.032191,-0.45002,-0.74319,0.053328,0.001659,-0.0086953,-0.0090053,0.0038474
0.053704,0.0076643,0.82117,0.16237,0.016941,0.075408,0.064581,0.098133
0.024099,0.45594,0.2475,-0.00027749,0.044748,-0.046419,-0.011728,0.010343
-0.24596,-0.45348,-0.14868,-0.62654,-0.18158,-0.15588,-0.12915,-0.198
0.2039,0.42966,-0.17908,0.35881,0.15014,0.11436,0.087133,0.12119
-0.047573,0.16073,0.3996,-0.12283,-0.1237,-0.047475,-0.042274,-0.09419
-0.045768,-0.17394,-0.26793,0.24341,0.099706,0.086257,0.022418,0.047516
0.062837,-0.16677,-0.61768,-0.42822,-0.099719,-0.05353,0.00097886,0.00089805
0.077067,0.31086,0.58502,0.29863,0.069096,0.073334,0.027323,0.06442
-0.07184,-0.33558,-0.56678,-0.24858,-0.056065,-0.063604,-0.10072,-0.10429
0.070137,-0.18098,-0.0055745,0.20976,0.10423,0.12198,0.10963,0.12847
-0.29371,-0.22608,0.1444,-0.064567,-0.1058,-0.1434,-0.02121,-0.065207
0.40647,-0.054766,0.36901,0.054188,0.10246,0.046128,0.045404,0.040774
-0.048913,0.48462,0.30048,0.28209,0.063639,-0.028777,0.019555,0.015679
-0.11384,0.1602,-0.30838,-0.011563,-0.091347,-0.079726,-0.092048,-0.079381
0.086162,0.33145,-0.015217,0.24384,0.11201,0.19735,0.053233,0.082279
-0.33169,-0.1535,0.3819,-0.44384,-0.17181,-0.080867,-0.076728,-0.1021
0.12552,-0.22385,-0.15471,-0.073113,0.017085,-0.0084137,0.0097911,0.0073956
0.13091,-0.58566,-1.1197,-0.67095,-0.024571,-0.015075,0.055008,0.066879
-0.10312,0.47432,0.85778,0.56723,-0.069394,-0.10857,-0.073407,-0.063815
0.026239,-0.25389,0.36698,0.32433,0.071659,0.16447,0.047228,0.0068535
0.035242,0.32429,-0.39174,-0.15966,0.10359,0.015298,0.011597,-0.0090134
0.18146,0.33567,-0.066944,-0.16706,-0.089055,-0.11048,-0.015386,0.038196
-0.09094,0.096473,0.24298,0.011646,0.041811,0.060813,0.0059447,0.0010109
0.013057,-0.48071,-0.73669,0.14687,0.059085,-0.041002,0.044588,0.059728
-0.13373,-0.76956,0.55817,0.31133,0.024812,0.04503,0.014495,0.019246
-0.056809,0.4603,-0.01719,-0.26089,-0.046538,0.045395,-0.037864,-0.081511
0.22666,0.20643,0.096616,0.1385,-0.047133,-0.055681,-0.034925,0.0070943
-0.2138,0.26355,-0.21282,-0.26036,0.013667,-0.094314,-0.0085178,-0.035699
-0.081276,-0.19976,0.33991,-0.27481,-0.13876,-0.00037749,-0.013803,-0.054073
0.0077401,0.029691,-0.28092,0.50479,0.20592,0.17907,0.050483,0.068787
0.31215,0.37321,0.67731,0.09079,-0.085007,-0.0014396,-0.011092,-0.0034003
-0.049695,-0.32099,-0.14236,-0.46375,-0.065537,-0.128,0.0046246,0.041494
-0.053307,0.31669,-0.65919,-0.19007,-0.023667,-0.083525,-0.0507,-0.046986
0.020851,-0.70449,-0.37789,0.47564,0.15895,0.18663,0.065249,0.089994
-0.09227,-0.054778,-0.084222,-0.30051,-0.079232,-0.020596,0.040077,-0.0090644
0.068725,0.4406,0.42767,0.33511,0.020153,-0.040986,-0.040198,-0.024306
-0.25354,-0.16666,0.11984,0.016901,0.14466,-0.0070673,0.0041849,-0.034055
0.1211,0.60713,0.96741,0.10503,-0.14358,-0.059067,-0.084483,-0.053756
0.20873,-0.43964,-0.57302,-0.13481,0.053253,0.05349,0.037707,0.018759
-0.068389,-0.38166,-0.17232,-0.10141,-0.070145,0.01861,0.019412,0.012582
-0.006951,-0.042342,-0.46354,-0.091994,-0.068886,0.024258,0.0093189,0.014808
-0.14608,0.55238,1.038,-0.14556,-0.029015,-0.015148,0.023293,-0.020326
-0.0095675,-0.2409,-0.64972,0.16814,0.14341,-0.013478,-0.0087959,0.033
0.2145,0.26932,-0.22377,-0.14989,-0.059045,-0.056689,-0.055609,-0.01239
0.025336,-0.21917,-0.26026,0.29212,0.043681,0.026841,0.05471,0.069803
-0.10134,0.20838,0.23065,0.2685,0.022103,0.002242,-0.02953,-0.01031
-0.11946,-0.48023,-0.11863,-0.22042,0.024583,0.025043,0.011766,-0.043025
0.040611,0.3846,0.0039993,-0.15934,-0.074252,0.078737,-0.0013717,-0.0062964
-0.098205,-0.12206,0.38518,-0.59615,-0.079675,-0.071996,0.0010642,-0.026398
0.14343,-0.089426,0.37842,0.71757,0.14046,-0.076444,0.010977,-0.0026661
0.085615,0.17484,0.33327,0.15499,0.015294,0.14291,0.012525,0.056743
-0.0061508,-0.011136,-0.53671,-0.11385,-0.041416,-0.007882,-0.025651,-0.043204
0.055672,-0.14057,-0.11331,0.37842,-0.013957,-0.16138,-0.0019661,0.018662
-0.080201,0.25556,-0.19179,-0.70469,-0.050271,0.089388,-0.017834,-0.029813
-0.069405,0.0070404,-0.33827,-0.19074,-0.055774,-0.074812,0.012922,0.0081653
-0.23128,-0.67245,0.080305,0.12506,0.0095965,0.042546,-0.0031817,-0.030062
0.20885,0.63458,0.67772,0.23734,0.099891,0.012881,-0.0034251,0.044075
-0.013349,-0.4512,-0.81954,0.078387,0.043846,0.079149,0.027918,0.012353
-0.045287,0.30744,0.72293,0.040888,-0.049028,-0.055253,-0.034209,-0.023773
0.22297,0.14643,-0.71711,-0.077302,0.086511,0.093804,0.08343,0.12248
0.22886,0.19849,0.46057,0.11406,-0.0034521,0.041279,-0.01009,-0.034399
-0.35628,-0.28821,0.16459,-0.11321,-0.17146,-0.27621,-0.072878,-0.089496
-0.009896,-0.35597,-0.24038,-0.011566,0.058151,0.10921,0.012058,0.010674
-0.14689,0.23333,0.48851,0.11171,0.036341,-0.021858,-0.013107,-0.055038
0.013366,0.014502,0.37213,0.012304,-0.018298,0.12712,0.0080754,0.033349
0.072148,-0.055114,-0.41361,-0.39678,-0.089854,-0.17821,-0.033393,-0.067734
0.24039,0.77218,-0.64471,0.18155,0.087915,0.15616,0.066087,0.13447
-0.22398,-0.75406,-0.21101,-0.032485,-0.038929,-0.072453,-0.013342,-0.038984
0.15571,0.4148,-0.16185,0.11964,0.092774,0.050475,0.0099063,0.029812
-0.15184,-0.94397,0.59876,-0.078289,0.0068486,0.025334,0.010977,0.0054225
0.087555,0.19067,-0.18871,0.039922,-0.054501,-0.092939,-0.025829,-0.049458
0.10014,0.59027,0.96063,0.38957,0.056816,0.0082313,0.016412,0.036932
-0.20034,-0.091636,-0.45223,-0.44334,-0.081682,-0.046248,-0.034576,-0.024822
-0.040741,-0.31306,-0.75556,0.18076,0.021487,0.14183,0.00042499,-0.016445
0.14128,0.097549,0.853,-0.23224,-0.0093071,0.017448,0.042824,0.045973
-0.13092,0.32379,-0.38164,0.073122,0.020825,-0.083783,-0.04842,-0.048852
0.041043,0.132,0.04829,0.078972,-0.075746,-0.060573,-0.015824,-0.035441
0.10241,0.41152,0.054301,0.2289,0.044904,0.047885,0.046639,0.086282
0.12341,-0.81562,-0.46179,-0.25916,0.070714,-0.016175,0.029493,-0.0037048
-0.11477,0.044719,0.4944,-0.088071,-0.021124,0.044343,-0.020347,-0.039326
-0.065145,-0.40979,-0.12222,-0.029908,-0.0033147,-0.0045777,0.030135,0.019022
0.13207,0.5793,0.32335,0.20661,-0.0079192,0.056243,-0.053052,1.3675e-05
-0.41298,-0.63131,-0.37646,-0.21962,-0.096746,-0.13214,-0.050603,-0.064626
0.24608,0.3343,-0.067992,0.194,0.10576,0.047808,0.045976,0.075426
-0.022388,0.26801,0.17824,-0.11306,-0.048514,-0.020881,-0.036037,-0.02503
0.063877,-0.085163,0.2631,0.086728,-0.020456,0.052436,0.055544,0.0167
0.13824,0.1664,-0.48818,0.34783,0.11151,0.033195,0.03206,0.044034
-0.041544,0.028402,0.07197,-0.66707,-0.10635,-0.047736,-0.051712,-0.052891
-0.038685,0.1122,-0.0641,0.35228,0.090679,0.012254,0.022712,0.0066276
-0.065308,-0.26358,0.24427,0.03602,0.014075,-0.006135,0.020376,-0.020108
-0.13847,-0.63493,-0.15285,-0.032508,-0.11063,-0.0096345,-0.051707,-0.039737
0.1545,0.60063,0.11523,-0.0038088,0.051661,0.032677,0.047775,0.072522
0.10937,0.10698,-0.42831,-0.16034,-0.023038,-0.090267,-0.017912,0.0041207
-0.094882,-0.16311,0.4308,-0.14296,-0.030208,0.020036,-0.030599,-0.033907
-0.075648,0.33767,0.37953,0.22872,0.0069096,0.027854,-0.0061862,-0.010129
-0.1296,-0.42777,-0.2027,0.12793,0.073177,0.011574,0.0085076,-0.0024655
0.20472,-0.017868,0.17181,-0.045184,-0.026047,0.057378,0.013841,0.02832
0.076395,0.089608,-0.58632,0.086083,0.045915,-0.0064337,0.026016,0.043278
-0.045168,0.13042,0.41316,-0.16428,-0.046166,-0.06257,-0.0089715,-0.035673
-0.01097,0.20215,-0.40349,-0.084226,-0.059498,-0.025029,-0.020133,-0.021031
-0.047114,-0.38471,0.19239,0.12375,0.061067,0.067202,0.0087221,0.0090848
-0.03601,-0.29488,-0.71376,-0.25116,-0.043557,-0.035751,-0.015774,-0.015588
0.022752,0.51048,0.4128,0.26721,0.056423,-0.052444,0.00027628,-0.0011752
0.090578,0.19474,0.76498,0.23266,0.0093748,0.095487,0.017718,0.029077
-0.089828,-0.54892,-0.54281,-0.31702,-0.03649,-0.083908,0.028428,-0.0027231
-0.025768,0.18918,0.20293,-0.016079,0.0044305,0.10486,-0.014935,-0.03386
-0.01372,0.27686,0.070987,0.071602,0.022368,-0.017834,0.0042767,0.013932
0.024594,-0.57736,-0.14024,-0.078447,-0.092446,-0.11614,-0.055077,-0.015594
-0.0047795,0.12905,-0.29327,0.17394,0.07371,0.059674,0.0019063,0.0024034
0.28036,0.77919,0.33156,-0.030381,0.036208,0.017037,0.042166,0.091037
-0.26943,-0.47166,0.23274,-0.08886,-0.0019599,0.021069,-0.012489,-0.031378
0.00086318,0.070976,-0.45907,-0.10147,-0.056415,0.024375,0.017729,-0.0059171
0.011794,0.25156,0.39561,-0.0037667,0.013612,0.018691,-0.023197,-0.051693
-0.034692,-0.62947,-0.15509,0.081238,0.0052616,-0.066578,0.021301,-0.0048129
0.040223,-0.16652,-0.52843,-0.024532,-0.065495,-0.1221,-0.035928,-0.029274
0.095454,0.25286,0.22122,0.24236,0.10639,0.12578,0.032011,0.054902
-0.12682,-0.2559,0.12065,-0.032079,-0.033486,-0.0022192,-0.0089823,-0.0096641
-0.040239,0.28372,-0.31695,-0.17671,-0.039647,-0.01338,-0.025909,-0.011572
