-0.52087,0.065092,-0.007628,0.11912,0.017096,0.04,0.046004,0.021719
-0.50642,-0.13769,0.075479,-0.068166,-0.013238,-0.043207,-0.05344,-0.084671
0.39192,-0.026479,-0.091004,-0.25459,-0.011604,0.023919,0.0031415,0.051776
0.086072,-0.023993,0.076241,0.0051244,0.014007,0.0075781,-0.0032558,-0.0067865
0.080839,0.048611,-0.011899,0.28933,0.032113,0.032972,0.036572,0.098545
0.31809,0.25313,-0.085123,-0.15931,-0.027863,-0.0095011,-0.010248,0.015684
-0.29148,-0.22336,-0.07568,-0.027824,-0.01776,-0.011089,-0.018649,-0.13083
0.015028,0.087848,0.014788,-0.003451,0.015281,-0.0039521,-0.0040664,-0.0053423
-0.51396,-0.33627,0.060683,-0.11769,-0.022714,-0.028191,-0.020914,-0.037558
0.5277,0.36448,0.023276,0.2692,0.055593,0.024578,0.017054,0.10872
-0.2415,-0.25415,-0.073007,-0.023993,-0.038929,-0.018309,0.024168,-0.081671
-0.38169,0.027698,0.054371,0.25084,0.014071,0.0067468,-0.046289,-0.0066068
1.024,0.35154,0.062912,-0.33003,-0.011799,0.01372,0.055686,0.10004
-0.49824,-0.33688,0.03173,-0.041319,0.032201,0.010719,0.017427,0.0042329
0.069026,0.31392,0.01615,0.046441,-0.017568,-0.025078,-0.028549,0.0029831
-0.13268,-0.27483,-0.13974,-0.050055,-0.035603,-0.0068929,0.018967,-0.0053273
-0.22863,-0.11977,0.040821,-0.11758,0.0020483,-0.0041143,-0.059099,-0.12242
0.36592,0.15285,-0.043536,0.050096,-0.021372,-0.00025715,-0.020769,0.0030756
0.15699,0.25274,0.091907,0.19055,0.05063,0.013144,0.055788,0.081991
-0.052673,-0.15713,-0.099232,-0.16244,0.0070874,0.036429,0.022266,0.051797
-0.25687,-0.12438,-0.061699,0.054788,0.0039082,-0.024184,-0.02731,-0.040572
0.020009,-0.032237,0.11123,0.12284,0.032653,-0.0050107,-0.030079,-0.07002
-0.47217,-0.16987,-0.0021076,0.023621,-0.040309,0.030797,0.037774,0.010406
0.45465,0.32218,0.090247,0.026674,-0.020527,-0.03474,-0.026557,0.013193
0.2155,-0.0013377,-0.049894,0.057155,0.036568,0.031972,0.066202,0.047562
-0.13402,-0.054507,-0.025175,-0.22506,-0.064815,-0.058765,-0.051073,-0.011805
0.18798,0.23283,0.045938,0.11463,0.018946,-0.026094,-0.04253,0.037769
-0.091746,-0.26448,-0.12683,-0.36215,-0.00096849,0.043937,0.068175,-0.0073392
-0.18423,-0.0072454,0.1666,0.049157,0.024441,0.018669,-0.03176,-0.069432
0.34788,0.020734,-0.18349,0.12548,0.025643,0.015649,0.040148,0.038758
-0.67503,-0.077759,0.057568,0.37175,-0.019934,0.0041144,-0.013263,-0.026467
0.1615,0.081907,0.031271,-0.24565,-0.0099062,-0.015399,-0.0046743,0.00087344
0.29567,0.13474,-0.058,0.067337,-0.013925,-0.050183,-0.059123,-0.034869
-0.084279,-0.26082,0.056765,-0.23257,-0.00033159,0.040838,0.042263,0.015463
0.10812,-0.13432,0.11896,-0.003158,0.038793,0.01581,0.010666,0.058787
-0.10362,0.13219,-0.30036,0.10633,-0.037393,-0.054778,-0.044236,-0.02163
0.061325,0.35855,0.31456,0.045855,0.012789,0.047818,0.041889,-0.0069057
0.14117,-0.0039077,-0.21658,0.27903,0.00111,-0.051604,-0.035489,0.040242
0.20527,0.07328,0.16748,-0.34883,-0.0029582,0.068453,0.06737,0.0099378
-0.88002,-0.3194,-0.042777,0.19502,0.070086,0.024675,0.022161,-0.0047101
0.31454,-0.16148,-0.13044,0.27273,-0.046018,-0.035047,-0.0073587,-0.012114
-0.10955,0.091832,0.098151,-0.36844,-0.03129,-0.025262,-0.10747,-0.12204
0.1604,-0.13044,0.071595,-0.3922,-0.04193,-0.024426,0.018418,0.0091652
0.7653,0.41468,0.14902,0.0097126,0.016252,0.029851,0.057644,0.13956
-0.39627,-0.22385,-0.39538,0.22627,0.042445,-0.026367,-0.067914,-0.089743
-0.51173,-0.019635,0.049469,0.069766,-0.017114,0.026005,0.063767,0.048392
-0.026322,0.030572,-0.060863,-0.0069749,0.03381,0.0077389,-0.0080062,-0.023615
0.49773,0.22669,0.1904,0.25194,-0.022786,0.0052646,-0.0017022,0.030538
-0.16557,-0.22581,0.024477,0.013672,0.0088516,-0.0044233,0.0048163,-0.0077781
-0.046613,0.12749,0.0055702,-0.222,-0.0040297,-0.005399,0.011757,0.03318
-0.16784,-0.28369,-0.068854,0.26017,0.01637,0.018091,-0.027619,-0.034425
0.10447,-0.070095,0.17556,-0.48331,-0.047789,-0.019941,0.011751,-0.039181
-0.080698,0.19522,-0.051959,0.20417,0.021363,-0.065021,-0.096703,-0.051902
0.22196,0.19584,-0.0038711,0.0025644,-0.019326,0.085643,0.11569,0.059757
0.30083,0.11459,-0.23756,0.28834,0.079237,0.033214,0.031618,0.053226
-0.33745,-0.28769,-0.19302,0.065176,0.0038471,-0.035206,-0.060048,0.0063597
0.10256,0.26619,0.41689,-0.5978,-0.097441,-0.049631,0.0045548,-0.018465
-0.48987,-0.28095,0.15358,0.027881,0.02538,0.044428,0.0064824,-0.0055708
0.22029,-0.030851,-0.21753,0.063993,-0.033541,-0.04212,-0.046603,-0.040646
0.27173,0.15171,0.03864,0.14974,0.054646,0.034616,0.048334,0.033005
-0.31979,-0.40812,-0.21703,-0.036091,-0.037273,-0.029772,-0.05248,-0.088703
0.26655,0.39001,0.22071,0.13762,0.027571,0.03851,0.08848,0.048029
-0.09366,-0.18895,-0.16917,-0.0046111,0.023395,0.005449,-0.013106,0.076646
-0.024857,-0.36511,0.03753,0.085713,-0.0024218,-0.027091,-0.091549,-0.080493
0.19213,0.72531,0.16295,0.032536,0.012784,0.011391,0.087587,0.13156
-0.075154,0.076066,-0.096614,-0.144,-0.040532,-0.0040555,-0.030338,-0.076268
0.009595,-0.095709,-0.0069115,-0.12045,-0.014365,-0.011024,2.2133e-05,0.0067548
-0.037482,0.19,-0.037905,0.082499,0.051634,0.013707,-0.0010006,-0.072887
-0.49698,-0.52605,0.21452,-0.023919,-0.022844,0.03077,0.013472,-0.034429
0.2255,-0.094227,-0.088232,0.041676,-0.011789,-0.046116,-0.034696,0.051273
0.23189,0.12025,-0.19104,-0.081239,-0.017164,-0.014152,0.0029056,0.05083
0.29542,0.10545,0.16957,0.069004,0.015496,0.048275,0.055931,0.041762
-0.31932,-0.11713,0.06278,-0.11468,-0.015413,-0.015238,-0.024092,-0.054651
0.034339,0.030838,-0.11282,-0.011825,0.023022,0.0062291,0.005009,-0.0045698
-0.013082,0.0044086,-0.11354,-0.017364,0.021618,-0.04345,-0.044244,-0.019321
0.10644,0.33783,0.016356,0.6452,0.050925,0.046916,0.039161,0.033753
-0.19479,-0.28585,-0.21215,-0.69395,-0.12318,-0.034822,-0.041519,-0.0014501
0.22315,-0.019767,0.33687,0.16907,0.030799,0.039865,0.049829,0.016162
-0.29541,0.036966,0.11111,0.09307,0.036528,-0.017687,-0.014732,-0.11579
-0.26415,-0.11408,0.017937,-0.15794,-0.058911,-0.043076,-0.047528,-0.029225
0.52303,0.30907,-0.021035,0.15594,0.0884,0.081124,0.076561,0.12835
0.069633,-0.13102,-0.11674,0.040049,-0.052667,-0.059051,-0.033039,0.068639
-0.29274,0.049756,-0.045037,-0.054639,0.010149,0.012921,0.0064629,-0.051631
0.04811,-0.17227,-0.11333,-0.19991,-0.012191,0.023426,-0.00032211,-0.013565
0.46118,0.18734,0.027447,0.095829,0.036544,0.011253,0.016813,0.018593
-0.4983,-0.19121,0.14106,0.03601,-0.031197,-0.055176,-0.059424,-0.088395
-0.06549,-0.14308,0.070303,-0.050288,-0.012377,0.04256,0.059951,0.016467
0.023272,-0.15974,-0.044234,-0.060249,-0.016497,-0.039582,-0.054804,-0.018997
0.18687,0.45424,-0.037646,0.093218,0.0031397,-0.012768,-0.0052915,0.070243
-0.22684,-0.044207,-0.1897,0.098346,0.069729,0.060346,0.059992,0.0024068
0.42656,0.28807,0.040505,0.16624,-0.020149,-0.031267,-0.030929,0.0036215
-0.46613,-0.12251,0.25633,0.030955,0.014434,0.024866,0.034288,-0.012348
0.8421,-0.23292,-0.11891,-0.42527,-0.037756,0.025645,0.021069,0.024694
-0.19716,0.28133,-0.061006,0.015828,0.01057,-0.044479,-0.047355,-0.017958
-0.84918,-0.55889,0.094081,0.018166,-0.043793,-0.021317,-0.038344,-0.085271
-0.12716,0.12049,0.0096543,0.0039287,-0.021095,-0.060965,-0.014495,-0.012623
0.31669,0.25804,0.067221,0.26287,0.086667,0.10236,0.078868,0.12256
0.0107,-0.33094,-0.12537,-0.12598,-0.04056,-0.015606,-0.055062,-0.061804
0.47506,0.37323,0.00077258,-0.01334,0.034996,0.053935,0.060403,0.06775
-0.052601,0.085984,-0.024095,0.062384,0.0088794,-0.040618,0.0035456,-0.0039242
0.069595,-0.376,-0.075424,-0.054712,-0.056241,-0.033733,-0.037959,-0.057816
-0.27636,0.11546,-0.059372,-0.098957,0.019433,0.0041694,-0.017042,-0.023585
0.35239,0.31205,0.17298,0.2107,0.040661,0.018328,0.01963,0.036088
-0.41461,-0.22362,0.12225,-0.11828,-0.054998,-0.030326,-0.0058466,0.0036515
-0.24458,-0.18831,-0.062521,-0.1254,-0.00185,0.01453,-0.022949,-0.035461
0.078781,0.071617,-0.1153,0.063853,0.028304,0.020224,0.030993,0.058763
0.28855,0.45128,0.15169,0.19896,-0.026969,-0.0052562,0.007638,-0.011224
-0.20927,-0.4434,-0.10507,-0.26755,0.012046,0.016398,0.016358,-0.0039159
0.12486,0.0016904,0.05226,0.18708,0.020307,-0.02403,-0.021083,-0.037124
0.448,0.19059,0.069519,-0.016059,-0.010129,-0.0014319,-0.011145,-0.0019704
-0.6375,-0.49504,-0.50569,-0.17467,-0.032605,-0.040761,-0.02442,0.038733
0.50959,0.58547,0.26489,0.2417,0.061985,0.045458,0.016899,0.077104
-0.48531,-0.10591,0.10837,-0.0097339,0.015562,0.03057,0.018751,-0.12104
0.25317,-0.12207,0.1811,-0.14804,-0.039249,0.00036561,0.043362,0.030705
-0.071348,-0.21081,-0.03312,-0.0012208,-0.024371,-0.053138,-0.050084,-0.029491
-0.059663,0.49734,-0.07452,-0.021834,-0.025615,0.041778,0.0039619,-0.011757
-0.054472,-0.33148,-0.054062,0.11145,0.035435,-0.01187,-0.028812,0.030026
0.12519,0.093383,-0.051505,-0.045363,-0.020521,-0.050061,0.023668,0.018398
0.16038,-0.047323,0.072481,-0.11581,0.01003,0.013162,-0.017979,0.008453
0.13047,0.028098,-0.1437,0.15933,0.033609,0.029404,0.010666,0.023709
-0.3542,0.014865,0.01104,0.054662,-0.01221,-0.0013047,0.024006,0.032675
-0.21511,0.060888,0.10009,0.016354,0.013038,0.014762,-0.016759,-0.090141
0.13335,0.063782,0.12495,-0.10356,0.04649,0.046267,0.036949,0.021818
-0.14616,-0.48526,-0.15475,-0.19559,-0.092017,-0.078796,-0.057049,-0.10865
0.37351,0.38146,0.1613,0.13848,0.011109,-0.0089937,0.02146,0.049144
0.37624,0.061293,-0.18306,0.1012,0.043027,0.036858,0.022305,0.15106
-0.50948,-0.22808,-0.077246,-0.011426,-0.066703,-0.01151,-0.015633,0.0094128
0.29023,0.18416,0.15122,-0.052126,0.04142,0.010146,-0.022191,-0.13358
-0.040339,0.1174,-0.029054,-0.037922,-0.01507,0.00057158,0.018176,0.034841
-0.080536,-0.16347,-0.04864,0.23281,0.0065061,-0.016398,-0.0039073,-0.055152
-0.36024,-0.041673,0.1612,-0.21794,0.0051064,-0.024723,-0.025883,-0.012325
-0.11761,0.10786,-0.065636,-0.05543,0.0046013,0.015,0.038267,0.070214
-0.034083,-0.27686,0.15927,0.016376,-0.018202,-0.014234,-0.030149,-0.01794
0.061325,0.031623,-0.18949,0.10651,0.038256,0.075027,0.042297,0.012574
0.76088,0.30783,-0.30086,0.058916,0.0018475,-0.022206,-0.025744,0.052383
-0.14975,-0.056619,0.33234,-0.13354,-0.018511,0.01386,0.031174,-0.015993
-0.23926,-0.060996,-0.016251,0.022453,-0.015577,-0.028362,-0.021555,0.0022617
0.35824,0.10748,-0.064445,0.028396,0.017893,-0.0010902,0.011152,0.0050232
-0.36101,-0.27792,0.0094994,-0.0046194,-0.035746,-0.053301,-0.050568,-0.13319
-0.26166,0.071269,0.058778,0.073646,0.05762,0.041245,0.019757,0.040435
0.21309,0.099511,0.006839,-0.071049,-0.022336,0.0090483,0.011202,0.017995
-0.3091,-0.045726,0.011252,-0.12482,-0.033198,-0.0012691,-0.013641,-0.028569
0.11309,0.072186,0.0026782,-0.047748,-0.013606,-0.020579,5.2871e-05,0.057136
0.5475,0.16364,0.044234,0.18376,0.021353,0.014105,0.036806,0.10337
-0.28807,-0.12294,-0.20753,0.13152,0.056597,0.032974,0.034248,0.00085586
-0.080633,-0.31811,0.013038,-0.088738,-0.048038,-0.05728,-0.077823,-0.1019
0.30438,0.48579,0.12757,-0.10408,0.043686,0.079612,0.052259,0.013977
-0.37245,-0.68582,-0.020703,0.27066,-0.0040553,-0.040529,-0.067576,-0.13567
-0.1388,0.30203,-0.088886,-0.41981,-0.058519,-0.042631,0.0081303,0.058892
0.15767,0.099682,0.10155,0.096343,-0.018356,0.010771,0.029543,0.05118
0.23179,0.13017,0.04922,0.23244,0.037998,0.033636,0.028075,0.044664
-0.38191,0.13584,0.11989,-0.24561,0.024254,0.0023834,-0.035212,-0.030815
0.38917,-0.07168,-0.17984,0.22593,0.026006,-0.0050129,-0.0040137,0.027741
-0.11027,0.021611,-0.045944,-0.15568,-0.035146,-0.019934,0.004451,0.0011561
0.04122,-0.37524,0.084102,-0.028717,-0.0031127,0.020033,0.029131,-0.017477
0.068534,0.11106,-0.18732,-0.0081327,-0.026338,-0.01796,-0.00045806,0.025774
-0.24969,-0.12221,0.016245,0.024944,0.0047087,0.0067354,-0.014195,-0.096345
-0.15875,0.09624,0.048106,0.047806,0.0043834,0.00043598,-0.02006,0.029743
0.064683,0.024073,0.15208,0.067807,0.012123,-0.013337,-0.018163,0.0054141
0.33173,0.17691,-0.084813,-0.072942,-0.0029471,0.020175,0.030522,0.010505
0.21034,0.10929,0.095523,0.068324,0.021974,0.015064,0.0088335,0.029837
-0.36346,-0.18701,-0.026236,0.21522,0.016731,-0.013084,-0.020666,0.0093973
0.14896,0.2171,0.17368,-0.29903,-0.04994,-0.033129,0.028021,-0.0031386
-0.59542,-0.49932,-0.23591,0.00032478,-0.0063613,0.017242,-0.032577,-0.061634
0.56926,0.44466,-0.24073,-0.0044105,0.029925,0.028414,0.024076,0.037778
-0.22172,-0.34147,0.27558,-0.18725,-0.035306,-0.023323,0.018211,-0.0090349
-0.15318,-0.11488,-0.054228,0.071234,0.05522,0.018012,-0.034667,-0.053357
0.60526,0.32852,-0.0029634,0.070867,-0.027164,-0.019679,0.0059314,0.084425
-0.35131,-0.017972,0.032103,0.088037,-0.0094903,-0.0037245,-0.008552,-0.0024001
-0.054004,0.1122,-0.064853,0.031242,0.076663,0.042408,0.023364,-0.0021541
0.26949,-0.038163,0.019879,0.22185,-0.081334,-0.037437,0.0079001,0.021561
-0.28138,-0.20321,0.07613,-0.25448,-0.030258,-0.032118,-0.054927,-0.088741
-0.13114,0.054492,0.088433,0.014863,0.01146,0.019581,0.022431,0.02512
0.30352,0.047253,-0.053048,0.051141,0.020867,0.008587,0.013467,0.049678
0.083095,0.14212,-0.060187,-0.22608,0.014153,0.021097,0.0041532,0.015608
-0.26209,-0.25463,-0.035723,0.079706,0.023122,0.0026008,0.010113,-0.014655
0.17475,0.013498,-0.019879,-0.071729,-0.022072,4.4147e-05,-0.0077514,-0.087494
-0.041827,0.1266,-0.029226,0.15532,0.011716,0.0055936,-0.0026109,0.032485
-0.35372,-0.18834,-0.0019004,0.23813,0.007505,-0.0277,-0.0057379,0.0029595
0.36053,0.27205,0.08521,-0.28279,-0.026788,-0.013978,0.014159,0.028692
-0.27755,-0.14072,0.044531,0.024212,0.018258,0.023285,-0.020913,0.02536
0.18878,-0.036476,-0.030084,-0.13561,-0.068274,-0.033074,-0.024782,-0.04475
-0.082206,0.16211,0.041306,-0.0025073,0.026122,0.035784,0.026302,-0.0088849
0.51877,0.21188,-0.014321,0.096792,0.027974,0.019046,0.031128,0.07073
-0.50281,-0.54428,0.0067764,0.2019,0.030935,-0.020654,-0.017783,-0.079719
0.21593,0.10401,-0.168,-0.12508,-0.051137,-0.044147,-0.049861,-0.015893
-0.11956,0.227,0.017032,0.012937,0.054883,0.07362,0.075655,0.088905
0.024072,-0.15141,0.00043115,0.26245,-0.010783,-0.026743,-0.024065,0.037705
0.21228,-0.022579,0.017454,-0.45688,-0.04546,-0.0172,-0.0054438,-0.0070453
-0.40964,0.012917,0.29518,-0.037691,0.020735,0.023971,0.0062014,-0.062272
-0.076896,0.010591,-0.15855,0.10447,-0.015676,-0.036247,-0.044245,-0.10531
0.11835,0.12711,-0.078628,-0.0077585,-0.014295,0.0050308,0.030219,0.074666
0.23448,0.088923,0.010627,0.24268,0.071672,0.03818,0.0025133,-0.037507
-0.10623,-0.19836,-0.032497,-0.081277,-0.046772,-0.015158,0.0049686,0.0044052
-0.1481,-0.071637,0.040971,-0.095981,-0.0022386,-0.0067355,0.0059488,0.037439
0.17677,0.14778,0.074022,0.019948,0.025891,0.024281,0.028669,0.039182
0.4665,0.037311,-0.074326,0.0020658,-0.03231,-0.015847,-0.012805,0.11976
-0.74479,-0.035989,-0.1618,3.9465e-06,0.0032673,-0.025413,-0.040076,-0.095425
0.27059,-0.079336,0.11678,0.030504,0.03929,0.011488,-0.005723,-0.020346
-0.050539,0.010148,0.1059,-0.030487,-0.033252,0.0014877,-0.0027287,-0.092598
-0.17928,-0.16416,0.095463,-0.12759,-0.042216,-0.0081141,-0.0067752,0.015807
0.32584,0.19653,-0.2419,0.098924,0.051591,0.0065099,0.02204,0.078235
-0.11057,-0.023454,0.024088,0.00058362,-0.001854,-0.0090493,-0.0015843,-0.077175
-0.22091,-0.19066,0.065596,0.38167,0.031641,0.039064,0.024204,-0.0050596
0.26216,0.28026,0.046711,-0.36789,-0.012296,0.010134,0.028964,0.068013
0.41107,0.12959,-0.0797,-0.10052,-0.024669,-0.033613,-0.026908,0.016879
-0.47393,-0.090931,0.03745,-0.067086,-0.013676,0.016793,0.011977,0.036474
0.1515,0.16992,0.10847,0.067585,-0.0030763,-0.042229,-0.050725,-0.04565
-0.37669,-0.50516,-0.25012,0.45913,0.038157,0.023262,0.018347,-0.034865
0.12387,0.24091,0.10162,-0.23666,-0.022895,-0.0058274,-0.00039701,-0.0099591
-0.068194,-0.22549,0.077174,-0.23888,-0.02999,-0.0047156,-0.029367,0.012945
0.18683,0.088628,-0.058348,-0.10244,0.032552,0.026518,0.048449,0.018008
0.068445,0.11521,-0.024097,0.11775,-0.014876,-0.029263,-0.024575,0.013182
-0.2131,-0.025328,0.054632,0.24964,0.062173,0.046853,0.025486,-0.03229
0.16814,0.13929,-0.017647,0.30865,0.0059399,-0.026136,-0.0037914,-0.0082405
0.012354,-0.15337,0.055935,-0.65844,-0.081959,-0.0057295,-0.025669,0.016001
0.24997,0.052215,-0.036907,0.16097,0.017304,-0.0087696,-0.0081105,-0.028849
-0.15981,0.038552,-0.15506,0.05639,-0.0086412,-0.011467,0.0026755,0.069063
-0.25189,0.17295,0.37413,-0.041591,0.027899,0.033373,0.054028,-0.009918
0.054872,-0.40483,-0.26859,0.048039,-0.021269,-0.01463,-0.025711,-0.046754
-0.064936,0.12393,-0.097631,0.014394,0.01599,-0.022524,-0.025642,-0.025956
0.17312,-0.0083734,-0.033678,-0.054912,0.038351,0.064383,0.069607,0.083168
0.10918,0.28215,0.07263,0.12282,-0.039954,-0.027477,-0.052864,-0.0093615
-0.20433,-0.32672,0.18266,-0.14681,-0.023541,-0.024918,-0.018518,-0.023443
-0.01819,0.054096,0.061805,-0.051139,0.001601,0.0014111,-0.0075002,0.00063626
-0.11312,0.048445,-0.017343,0.080889,0.027479,0.01207,0.011043,-0.024178
0.52031,-0.024059,-0.17328,-0.057189,-0.0009,-0.0011283,0.0055498,0.034091
-0.4984,-0.038679,0.0065906,0.094526,0.0020024,0.0083661,0.0070419,-0.0281
0.17704,0.30161,-0.096153,0.33767,0.027928,-0.0065643,0.030997,0.047145
-0.068209,-0.24484,0.17397,0.028633,-0.017295,0.0086371,0.014845,-0.028644
0.080184,0.072909,0.04336,-0.57702,-0.055863,-0.03197,-0.049203,0.011189
-0.048644,-0.18134,-0.26097,-0.035003,0.037069,0.027994,-0.020395,-0.074219
0.05322,0.095552,0.10557,-0.016655,0.0037355,0.0090878,0.023384,0.029035
0.16625,-0.00096431,0.15962,0.19879,0.016269,-0.018037,-0.0034595,-0.021567
-0.35167,-0.10213,-0.19172,0.13005,-0.042093,-0.0061167,0.0010442,0.02479
0.12259,0.19949,0.11451,0.07759,0.016678,-0.0016333,0.0060532,0.090206
-0.06918,-0.025214,0.039185,-0.14268,-0.0099969,-0.012057,-0.019343,-0.021074
0.40728,0.08295,0.011403,0.010998,0.018976,0.040987,0.018811,0.018041
-0.21477,-0.23471,-0.024466,-0.022255,0.010168,-0.0064397,-0.004451,-0.059495
-0.1232,0.19224,-0.10071,0.023578,0.018394,0.017534,0.043537,0.01042
-0.44261,-0.22387,0.070912,-0.039818,-0.018921,-0.027835,-0.032826,-0.03133
0.38275,0.21058,0.068147,-0.050251,-0.0239,-0.025552,-0.0073414,0.017547
0.54184,0.11135,-0.24939,-0.0025808,0.0030922,0.024154,0.018079,-0.030657
-0.44041,-0.21773,0.080061,0.12348,0.0069443,-0.0039519,-0.019321,0.0041706
-0.15646,-0.09725,0.12028,0.027787,-0.012764,-0.00071073,-0.010274,0.0057773
0.050819,-0.026879,-0.04133,-0.089472,0.0060932,0.0024296,-0.017225,-0.016804
0.1506,0.072219,0.088775,0.2304,0.063224,0.0052865,-0.0087489,0.062659
0.21324,0.26339,-0.066537,-0.34189,-0.052503,-0.00012677,0.046636,0.010781
-0.27705,-0.10892,-0.030264,0.05314,-0.044297,-0.013977,0.0085033,-0.03125
-0.19547,-0.13027,-0.060419,-0.028435,0.025361,0.018273,-0.0058578,0.0069334
0.18452,0.082138,0.13123,0.009607,0.015961,0.010571,0.019146,0.0077261
0.16003,-0.034478,-0.058225,0.13916,0.052688,0.0019299,-0.0182,0.0094373
0.11432,0.332,0.010104,-0.02711,-0.051724,-0.023236,-0.00093118,0.0033606
-0.6318,-0.60774,-0.12659,0.005945,-0.0079435,-0.02572,-0.054278,-0.081638
0.17981,0.31047,0.21743,-0.025122,-0.0031872,0.018164,0.040334,0.035127
0.095826,-0.076936,0.0095188,-0.017595,-0.0059219,-0.00064051,-0.0062432,0.040961
0.14658,-0.01907,-0.15735,0.0051447,0.030988,0.035404,0.024751,-0.017052
0.44751,0.20393,-0.0097131,0.042155,0.0061943,-0.014005,-0.0072181,-0.021176
-0.54279,-0.18808,0.07835,-0.087944,-0.033292,-0.023622,-0.039516,-0.072216
0.063829,0.079212,0.061722,0.269,0.0063206,0.0066921,0.021748,0.05718
0.22628,-0.009367,-0.15877,-0.36571,-0.015664,0.014453,0.028254,0.047351
-0.45477,-0.078879,-0.0023092,0.09204,0.041199,0.0073749,-0.0042902,0.062735
0.013444,0.041982,-0.021054,0.21913,0.012571,0.00089932,0.017914,-0.0059967
0.094009,0.086641,0.12286,-0.32095,-0.055009,-0.044269,-0.05353,-0.10441
0.22782,0.046168,-0.06185,0.14378,0.041232,0.027881,0.01581,0.0014362
-0.057624,0.075808,0.14324,-0.042312,-0.034951,0.014021,0.015089,0.037588
-0.13338,-0.30943,-0.083763,0.074775,0.052165,-0.0078646,-0.04775,-0.043277
-0.23072,0.031062,0.059257,0.050618,-0.041253,-0.006594,0.046184,0.0085186
0.26925,-0.019318,0.10826,-0.075052,-0.018268,-0.013411,-0.015494,0.0052993
0.50717,0.14207,-0.18979,-0.012859,0.027561,0.018618,0.017254,0.04076
-0.2139,-0.038237,-0.25141,0.018374,-0.020678,-0.019798,-0.019709,0.0055413
-0.16249,-0.012344,0.12511,0.080759,0.0091956,0.01204,0.01404,0.024678
-0.27188,-0.0063982,0.16609,-0.0059574,0.039322,0.020413,0.0010007,-0.089316
-0.14735,0.16669,-0.0025598,-0.13297,-0.016064,-0.002515,0.026731,0.030706
0.16856,-0.1194,0.16786,-0.074126,-0.031912,-0.0099505,-0.018522,-0.037239
-0.1553,-0.12454,-0.2734,0.068845,-0.00048782,-0.033262,-0.056935,0.019156
0.54258,0.26597,-0.019136,0.092961,0.038968,0.044615,0.051955,0.051178
0.010098,-0.16129,-0.012356,0.1471,0.00028201,0.0048379,-0.0043326,-0.0040075
0.12859,-0.072416,0.0064653,-0.15869,-0.023031,-0.027623,-0.0068456,0.0017037
-0.19627,0.27365,0.22569,-0.050037,0.0079139,0.0097843,0.013515,0.052443
-0.54961,-0.35748,-0.026637,0.013158,-0.008525,-0.0078022,-0.044379,-0.10965
0.43036,0.19944,-0.12651,0.00074137,-0.017617,-0.017682,0.015218,0.015645
-0.32256,-0.21744,0.088519,-0.047268,-0.0035847,0.0038112,0.020783,-0.032068
0.25952,0.11348,-0.0083952,-0.0052607,0.033797,0.041257,0.027201,0.029254
-0.11435,0.031156,-0.13765,0.072122,-0.0067942,-0.014581,-0.028015,0.013055
0.1785,0.014822,0.059048,-0.089221,-0.0079684,-0.0074089,0.0034004,-0.0016102
-0.24849,0.16019,-0.0044838,0.20464,0.0069591,0.00021982,-0.011665,0.017256
0.69251,0.18704,0.023912,0.022089,0.022392,0.023801,0.03581,0.046654
-0.64758,-0.37316,0.028346,0.001615,-0.0085958,-0.022765,-0.018556,-0.038352
-0.045301,-0.12247,-0.10669,0.039774,0.0076477,0.00099878,-0.026527,-0.027125
0.30684,0.071099,-0.043583,-0.42713,-0.053981,-0.022189,0.011856,0.0094329
0.027834,0.065899,0.062635,0.061606,-0.0060632,-0.014223,-0.043906,-0.031005
0.064826,-0.021928,0.1812,0.030206,0.026356,0.048391,0.033002,0.038248
-0.063561,0.18935,0.038246,0.12085,0.011999,-0.0061149,0.02414,0.021132
-0.36012,-0.26232,-0.10966,0.15579,0.021148,0.025512,0.031353,-0.0048116
0.057665,0.14527,-0.014334,-0.019358,-0.0087557,-0.036298,-0.023292,-0.047765
0.043555,0.098361,-0.052778,0.026555,-0.0074957,-0.011779,-0.0069253,0.06401
-0.062441,-0.068299,-0.039279,-0.10403,-0.014254,-0.018105,-0.052444,-0.13817
0.080607,-0.097888,-0.076685,-0.082676,0.0020984,0.030597,0.027441,0.072477
0.18839,0.094921,0.10778,-0.073609,-0.0054047,0.0013596,0.013675,0.039951
