-0.029946,-0.04864,-0.38014,-0.33415,-0.039307,-0.011271,-0.004845,-0.022904
0.017997,0.052174,0.41653,-0.0033127,-0.029429,-0.010569,0.018863,0.017211
0.027072,0.098783,0.0036529,0.19411,0.058368,0.021721,0.019592,0.025847
-0.034102,-0.20616,0.13651,-0.014917,-0.0025787,-0.00044371,0.0051475,0.0029374
0.029629,0.13678,0.36874,0.1043,0.014232,-0.014726,-0.0011524,-0.043748
-0.031903,-0.16994,-0.88632,-0.088831,-0.031866,-0.0057003,-0.022958,0.0029696
0.038956,0.22457,0.23695,0.16313,0.03097,0.026431,0.0097817,0.025934
0.023339,0.046224,0.10225,0.070477,0.023034,0.011185,0.0030702,-0.0060367
-0.07099,-0.21329,0.023647,-0.35191,-0.086919,-0.04373,-0.019829,0.0087199
0.04508,0.15675,0.52297,0.10633,0.06835,0.025743,0.019153,-0.0078019
-0.0033031,-0.09355,-0.40438,0.10123,0.028002,0.0087762,0.010713,-0.0086029
-0.090917,-0.1355,-0.44497,-0.44514,-0.13751,-0.055355,-0.060579,-0.01701
0.055929,0.10996,0.31519,0.31148,0.064173,0.044577,0.039915,0.021745
0.0077643,0.065936,1.0172,0.059243,0.0081876,-0.019236,-2.323e-05,-0.0094942
0.085027,0.10883,-0.7424,0.29874,0.10869,0.042552,0.030772,0.045497
-0.016961,-0.1037,-0.66053,-0.22739,-0.063994,-0.027683,-0.023821,-0.024294
-0.071731,-0.078189,0.58593,0.0046537,-0.048966,-0.018948,-0.015364,-0.03148
0.029943,0.077036,-0.76947,0.089117,0.0052581,0.021782,0.024767,0.039448
-0.071453,-0.12168,0.30677,-0.64506,-0.034207,-0.0073064,-0.013018,-0.038166
0.045871,0.036891,0.84933,0.67837,0.066975,0.018427,0.01165,0.016872
0.038157,0.14624,-0.62397,-0.21245,0.0041166,-0.010807,-0.0030299,0.0014299
-0.063291,-0.2398,-0.17696,0.020047,-0.0039927,0.013974,-0.018162,-0.014149
0.10098,0.42414,0.26179,-0.13855,-0.027606,-0.0090836,0.013069,0.024871
-0.078336,-0.47334,-0.49245,-0.047313,0.019275,-0.0097965,-0.010842,-0.0064612
-0.0074762,0.20596,1.1041,0.1365,-0.050809,-0.011532,-0.0038018,0.016885
0.024447,0.10794,0.20811,0.24631,0.035573,-0.006216,0.0031449,-0.022274
-0.029567,-0.18379,-0.34545,-0.19053,-0.041958,-0.0247,-0.013239,-0.022401
0.080302,0.21178,-0.1027,0.36026,0.13834,0.074095,0.056558,0.032077
0.017909,-0.15167,-0.58907,-0.15302,0.0059689,-0.0062968,-0.013992,0.00046323
-0.15444,-0.20384,-0.51788,-0.73427,-0.18926,-0.054662,-0.045283,-0.039205
0.078759,0.43127,0.81985,0.66122,0.044688,0.030654,0.032823,0.045792
-0.0012937,-0.2913,-0.2425,-0.20068,0.074932,0.015173,0.00135,-0.010256
0.0039067,-0.14246,-0.64821,-0.14537,-0.020373,0.015818,0.00071153,0.01135
0.016396,0.20866,0.40247,0.31648,-0.045789,-0.02244,-0.016109,-0.0065638
-0.0026422,-0.0087224,0.64371,0.12882,0.092629,0.0016305,0.0055551,-0.0092048
-0.04508,0.027855,-0.095,-0.4592,-0.08144,-0.045006,-0.027921,-0.027604
0.1004,0.30431,0.42977,-0.034922,0.033832,0.032915,0.039979,0.047944
-0.057973,-0.18625,0.50844,0.21892,0.024663,-0.006651,-0.0013048,-0.032141
-0.011914,-0.19336,-0.6523,-0.07818,0.024151,0.016298,-0.010713,0.0060281
-0.042217,-0.20117,-0.1605,0.10443,-0.17054,-0.03845,-0.01126,-0.0090118
-4.9873e-05,0.20448,-0.6228,0.56799,0.15178,0.048274,0.013019,0.016782
0.091395,0.19544,-0.14139,-0.38854,-0.016503,-0.012268,-0.00018234,0.013197
-0.041317,-0.25203,-0.41412,0.056081,-0.0034402,0.0066376,-0.0039934,-0.019908
-6.778e-05,0.072154,0.67934,-0.38626,-0.043524,-0.020089,0.0013548,0.0030077
-0.066781,0.017957,0.38824,-0.40873,-0.11367,-0.045896,-0.031467,-0.028065
0.077849,0.059471,-0.27126,0.37555,0.23863,0.10837,0.068778,0.065761
0.096638,0.13094,-0.15941,0.27753,0.0047299,-0.0032871,0.0044638,0.017989
-0.22269,-0.3729,0.96185,-0.28051,-0.18355,-0.12378,-0.092357,-0.13313
0.12648,0.35679,0.51417,0.7893,0.11812,0.090001,0.06673,0.088318
0.14324,0.082715,-0.64655,-0.32268,0.073033,0.059469,0.051617,0.080441
-0.13368,-0.13416,-0.81443,-0.58962,-0.12391,-0.098355,-0.075299,-0.10205
-0.11805,-0.15284,-0.6583,-0.20336,-0.10545,-0.031749,-0.032514,-0.044694
0.042641,0.099412,0.88933,0.92534,0.12119,0.056639,0.024307,0.04232
-0.072005,-0.53718,-0.35151,-0.69289,-0.067993,-0.05123,-0.029012,-0.043183
0.0788,0.23969,0.13678,0.5847,0.062621,0.051714,0.03501,0.066988
0.1686,0.4121,0.41205,-0.060944,0.10021,0.038134,0.053153,0.045584
-0.10601,-0.20292,0.071137,-0.48875,-0.11046,-0.044482,-0.028657,-0.059921
0.04476,0.24092,0.022187,0.37122,0.017206,0.015159,0.00080624,0.031957
-0.12904,-0.12346,0.023253,-0.5836,-0.055656,-0.040697,-0.0304,-0.061738
0.12203,0.15476,-0.27849,0.77808,0.16291,0.076798,0.049214,0.072594
-0.085791,-0.35823,0.49771,-0.41287,-0.148,-0.062466,-0.050018,-0.050093
0.051007,0.4498,-0.57978,0.036708,0.018663,0.0097302,0.014958,0.022588
-0.062447,-0.54305,-0.46513,0.23404,0.0058018,-0.004024,0.0012999,-0.022534
0.13547,0.32381,0.47474,0.083513,0.093943,0.044259,0.041325,0.056248
-0.11355,-0.32627,-0.40719,-0.4473,-0.092422,-0.064464,-0.060539,-0.07722
-0.083007,0.053971,0.66456,0.20384,-0.069138,-0.0099897,-0.023029,-0.016619
0.063356,0.029149,-0.089356,-0.03248,0.038869,0.043697,0.036931,0.050875
0.044881,0.20405,0.097892,-0.17777,0.083486,0.026512,0.018223,0.024201
0.049762,0.082214,0.33597,0.35662,0.0027039,-0.014348,-0.00049125,0.0054966
0.016136,0.073054,-0.00048609,-0.3872,-0.023229,-0.023835,-0.0030707,-0.035943
-0.15711,-0.33682,-0.87294,0.24977,-0.025021,-0.040674,-0.051609,-0.052825
0.061486,0.095872,0.046616,0.12112,-0.056911,0.044772,0.049434,0.056638
0.078113,0.11326,-0.31936,-0.24104,0.045467,0.021709,0.026645,0.042449
-0.044985,-0.23093,0.38183,0.03008,0.047851,-0.0082932,-0.018581,-0.033112
-0.0035068,0.061715,0.61233,0.35482,-0.010785,0.0093255,-0.00843,0.0092529
0.03807,0.39567,0.48219,-0.073793,0.0098978,-0.011609,0.0020312,0.0049936
-0.092484,-0.31664,-1.0402,-0.43018,-0.046793,-0.040143,-0.02663,-0.054194
-0.012586,-0.18578,-0.35461,0.38495,0.006097,0.032791,-0.00096029,0.010964
0.058931,0.31897,0.82543,-0.48162,-0.042951,-0.011826,0.0085408,0.012692
-0.0028887,-0.31009,0.05939,0.17241,0.024259,0.0054907,0.0018013,0.0055663
0.067715,0.13864,-0.7341,0.0031198,0.090072,0.02213,0.025721,0.020879
-0.065016,0.072288,0.33263,0.30763,-0.0020854,-0.00098724,-0.0055431,-0.011507
0.0288,0.0072741,0.476,0.015985,-0.033592,-0.0090992,0.0097046,0.010235
-0.064704,-0.14198,-0.55545,-0.18412,-0.090274,-0.048924,-0.037754,-0.046388
0.014029,0.14769,-0.16062,0.19949,0.015727,0.043818,0.01631,0.029894
0.046401,0.13309,0.48123,-0.30992,0.097481,0.019366,0.0080004,0.012823
0.048136,-0.038939,-0.058369,0.12337,-0.016194,0.0029472,0.0077817,0.012011
-0.19951,-0.4485,-0.41824,-0.34456,-0.15274,-0.091211,-0.062356,-0.089591
0.13926,0.36329,0.13036,0.22373,0.14149,0.088522,0.047636,0.075218
-0.037403,-0.19912,0.95704,0.26568,-0.086367,-0.051657,-0.013846,-0.017123
0.098179,0.30053,-0.67783,-0.093766,0.16359,0.081825,0.049921,0.055015
-0.048309,-0.075726,-0.27156,0.020341,-0.030956,-0.04256,-0.034752,-0.044643
-0.032141,-0.13992,-0.23559,0.08468,-0.037839,-0.011072,-0.0025583,-0.019586
0.09152,0.38293,0.19028,-0.017434,-0.045288,0.0041112,0.021177,0.028295
-0.14631,-0.62184,0.16399,-0.36302,-0.046087,-0.020654,-0.026302,-0.018408
0.02789,0.1382,0.12356,0.018431,0.053205,0.023955,0.011138,-0.0035157
0.013039,0.10437,-0.13499,0.058895,0.0026519,-0.018186,-0.014872,-0.0050583
0.044297,0.092924,0.51883,0.23732,0.037059,0.040728,0.013123,0.031892
-0.010152,0.083612,-0.50416,-0.08495,-0.061618,-0.048869,-0.013813,-0.03295
0.0069793,-0.0073967,0.61294,-0.047588,0.035579,0.018212,-0.0013968,0.019537
-0.083093,-0.23405,-0.52313,-0.018212,-0.069003,-0.023174,-0.011596,-0.013436
0.032739,0.012291,-0.63999,-0.1238,0.047079,0.022657,0.018514,0.0089901
0.049992,0.10456,0.3335,0.18702,0.063745,-0.00035415,0.011034,-0.0068391
-0.0081414,0.18026,0.048287,0.51953,-0.019152,0.0093247,0.0050035,0.0093334
0.068638,-0.029923,0.3672,-0.41157,0.024464,0.035821,0.023587,0.033885
0.029424,-0.021962,-0.47988,0.17187,0.022018,-0.0072162,0.0038234,-0.0037573
-0.15801,-0.3539,0.86864,-0.69238,-0.15224,-0.042155,-0.047023,-0.049179
-0.010166,0.057635,-0.58676,-0.097154,0.032319,-0.014781,-0.012288,-0.0088443
-0.019833,0.14069,0.44156,0.39802,-0.010646,-0.019216,-0.017367,-0.007866
0.078318,-0.074196,-0.59616,0.1647,0.11718,0.061504,0.046902,0.05532
-0.036031,0.069197,0.31991,-0.12832,-0.13097,-0.06175,-0.038246,-0.037943
0.15293,0.48541,-0.21998,0.1323,0.12019,0.079826,0.071079,0.064048
-0.065446,-0.45757,0.078455,0.28476,0.081903,-0.0058292,-0.023318,-0.060451
-0.13621,-0.00086484,-0.12203,-0.56926,-0.27678,-0.076381,-0.055544,-0.036366
0.11272,-0.12752,0.26452,0.46669,0.16151,0.055797,0.037136,0.065969
-0.052917,-0.007794,-0.51088,-0.44704,-0.071944,-0.023271,-0.0029383,-0.011387
-0.0081065,0.032013,0.34224,0.052187,0.038323,0.0067687,-0.0038447,-0.0030343
0.028333,0.1501,0.028214,0.2567,0.070136,0.02874,0.02655,0.0048144
0.0563,0.21558,0.34439,-0.032358,0.015292,-0.0042203,0.002183,0.011899
0.052287,-0.035371,-0.20183,0.15197,0.0062414,0.0095026,0.016665,0.025868
-0.053978,-0.1871,0.27119,-0.017954,-0.050971,-0.031535,-0.047288,-0.047022
-0.16071,-0.41012,-0.62081,-0.48456,-0.13284,-0.056823,-0.041238,-0.050301
-0.0096693,0.14033,-0.29305,-0.086722,-0.012449,0.012009,0.01149,0.0008226
0.18878,0.35535,0.66819,0.079984,0.12333,0.058019,0.05642,0.075653
-0.064743,0.047202,0.13084,0.068277,0.025208,0.018873,0.0078713,-0.020545
0.0037103,-0.019658,-0.23916,0.21064,0.014145,-0.019465,-0.024538,-0.013862
-0.043093,-0.26142,-0.50147,0.23542,-0.073509,-0.010257,-0.017197,-0.0056038
0.076038,0.084591,0.4723,0.25073,0.13735,0.030588,0.029957,0.04327
0.0091474,0.030477,-0.0096342,-0.30219,-0.11911,-0.030115,-0.00031499,0.0074489
-0.033483,0.025704,0.75124,-0.093343,-0.0073826,-0.0052355,-0.022232,-0.019851
0.0098558,-0.065889,-1.2191,-0.31667,0.034498,0.0033765,0.018664,-0.0080372
-0.10378,0.018762,0.08084,0.030117,-0.064285,-0.027856,-0.041949,-0.043694
0.085947,0.23145,0.44857,0.14659,0.070891,0.041725,0.045681,0.03672
0.024064,-0.13068,0.50076,-0.030742,0.0023326,-0.022062,0.00010492,-0.0171
-0.0081552,-0.18279,-0.77184,-0.00033589,-0.051224,-0.00016478,-0.0069261,0.029166
-0.065054,-0.061709,0.26142,0.13975,0.01191,0.014008,-0.022316,-0.027414
0.041444,0.30029,-0.07403,-0.059006,0.020056,0.0051394,0.024313,0.032296
-0.0082847,-0.12979,-0.42177,-0.091908,-0.010978,-0.0031231,-0.0075191,-0.0021299
-0.041711,-0.11149,0.84011,0.060522,-0.018592,-0.026334,-0.031681,-0.036391
0.07446,0.047849,-0.54147,-0.11502,0.067511,0.021365,0.03015,0.0081397
0.0044936,-0.19536,0.063337,0.25691,0.012824,0.030384,0.014072,0.030273
-0.0017205,0.22992,0.18304,0.14372,-0.065667,-0.04646,-0.025146,-0.040117
-0.0070777,0.298,0.11223,0.019275,0.011534,0.017057,0.021857,0.031311
-0.027783,-0.13676,-0.37719,-0.3697,-0.021303,0.009695,-0.001273,0.0021161
0.044916,-0.081558,0.15954,-0.034074,0.0077329,-0.014064,0.014678,-0.0031353
-0.062948,-0.0055236,-0.089339,0.0083935,0.012898,0.00039954,-0.024215,-0.0084153
0.023311,0.28664,0.58918,0.084959,0.033579,-0.0015134,-0.016525,0.0013635
-0.040104,-0.42993,-0.36408,-0.093068,-0.10172,-0.02739,-0.0091899,0.017957
0.051705,-0.11172,-0.72614,-0.040088,0.099554,0.048088,0.044696,0.072383
-0.060225,-0.22755,-0.078478,0.16726,-0.088929,-0.040356,-0.034443,-0.18689
0.12461,0.56154,0.75476,0.037924,0.082901,0.035715,0.026994,0.06853
0.012971,0.050041,0.52622,0.22073,0.13835,0.026521,0.010436,0.0032011
-0.19944,-0.47407,-0.42734,-0.33949,-0.29786,-0.091283,-0.068343,-0.02294
0.081372,0.28503,-0.13052,0.35613,0.14887,0.065083,0.04856,0.099998
0.01171,0.043975,0.19517,-0.54524,-0.037455,-0.012327,0.0017869,-0.033884
0.099264,0.072204,-0.46957,0.46337,0.049143,0.035672,0.02566,0.036471
-0.0077741,0.34789,-0.25359,-0.2038,-0.0054891,-0.033285,-0.020539,-0.064047
-0.020627,-0.30133,0.5585,-0.037499,0.033168,0.0072544,0.019347,0.023669
-0.1114,-0.5573,-0.11378,-0.0037779,-0.061068,-0.022401,-0.042232,-0.036659
-0.0067655,0.19402,0.22054,-0.06004,-0.068881,-0.028393,-0.0099421,0.012472
0.051123,0.13653,-0.17285,-0.187,0.065063,0.036341,0.0069347,-0.016655
-0.0079332,0.17299,0.4495,0.18857,-0.025856,-0.015513,-0.0071028,0.00085818
0.066164,0.26908,-0.82408,0.21643,0.0493,0.027086,0.026163,0.080631
-0.09381,-0.35106,0.47839,0.028592,-0.053309,-0.015614,-0.010463,-0.058541
0.090021,-0.19689,-0.60033,0.083001,0.071998,0.035805,0.031303,-0.025993
0.046871,0.027606,0.38077,0.038944,0.088273,0.016813,0.018337,0.029827
-0.11452,-0.16209,0.080666,-0.42172,-0.1386,-0.065373,-0.049782,-0.0083591
0.019238,0.49224,-0.014898,0.17216,0.030658,0.0073787,-0.0016335,-9.7717e-05
0.064803,0.10856,0.49231,-0.058474,0.024621,0.031429,0.037407,0.05439
0.014106,0.055049,-0.32113,0.14224,0.022356,0.029916,-0.0031785,0.022077
-0.18742,-0.58109,-0.16842,-0.31111,-0.21049,-0.11436,-0.07648,-0.12061
0.062299,0.068843,0.41718,0.060832,0.10019,0.052015,0.03654,0.024773
0.029703,0.053581,-0.40905,0.004684,0.025934,-0.0094529,-0.0073714,-0.0025212
0.020455,0.16427,-0.10731,0.15059,0.036992,0.022284,0.018966,0.032246
0.098012,0.090561,-0.40966,0.16747,0.064571,0.046462,0.038052,0.035815
-0.025907,-0.22809,-0.14089,-0.0035057,-0.046318,-0.029937,-0.012092,-0.022527
-0.14767,-0.0558,0.78809,-0.12598,-0.068284,-0.050087,-0.05301,-0.071979
0.13136,0.45205,0.36337,-0.16075,0.053667,0.041043,0.040397,0.075316
-0.024833,-0.25128,-0.13453,0.054726,0.01466,0.0091652,0.017998,-0.01799
-0.085301,-0.14299,-0.037316,0.17407,-0.045275,-0.036507,-0.050225,-0.023865
0.035418,-0.044691,-0.37454,-0.016784,0.021451,0.020838,0.01496,0.033911
0.0086189,0.04956,-0.48203,-0.020746,-0.036105,0.0087987,0.0099191,-0.0014567
0.044609,0.16091,0.99157,0.019459,0.046803,0.020529,0.020115,0.017803
0.0099529,-0.21314,-0.66381,-0.31892,0.019492,-0.014857,-0.0016907,-0.010533
0.029115,0.46398,0.4924,0.363,-0.0090651,-0.019703,-0.016628,-0.0010559
-0.10922,-0.42698,-0.76019,-0.75351,-0.085831,-0.041184,-0.040317,-0.047787
0.024509,0.26891,0.93966,0.8494,0.055024,0.0456,0.021191,0.013394
0.0085489,-0.065699,-0.012112,0.0020926,-0.015774,0.0063622,0.011984,0.018823
0.015165,-0.11715,-0.50572,-0.25471,-0.032093,-0.002408,0.0027826,0.0082407
0.0058651,-0.17986,-0.35927,0.22023,0.10809,0.02743,0.017406,0.005919
-0.065594,-0.20359,-0.50774,-0.38616,-0.040212,-0.052211,-0.021991,-0.057629
0.012283,0.23722,0.85462,-0.013134,-0.03159,-0.0066353,-0.0059133,0.0057371
0.083607,0.40355,0.50696,0.21951,0.07917,0.047209,0.034335,0.032248
0.015639,-0.030685,0.34131,0.21497,-0.044115,0.0078961,-0.003017,0.037377
-0.043409,-0.11971,-0.77834,-0.20936,-0.026742,-0.022982,-0.032341,-0.034179
-0.023699,0.072863,0.11741,0.36622,-0.033028,-0.014243,0.008524,0.035334
0.01947,-0.12716,-0.082642,-0.56708,0.022819,0.010534,0.017719,0.033779
-0.047326,-0.25402,-0.14653,-0.024281,-0.023284,-0.019144,-0.028388,-0.094692
0.09574,0.18144,0.22152,-0.0032773,0.055306,0.021525,0.01858,0.16467
-0.0047201,0.16099,-0.094032,0.069489,0.024332,0.015166,-0.0053621,-0.25102
-0.18465,-0.41104,-0.40829,0.22895,-0.014535,-0.014948,-0.02191,0.0021784
0.079623,0.065673,0.25631,-0.052853,-0.053436,-0.01425,0.0082353,0.04217
0.085354,0.44992,0.43506,0.030959,0.040426,0.017195,0.030612,0.073176
-0.01858,-0.14907,-0.63169,-0.20649,-0.045521,-0.014367,-0.017115,0.088608
0.088532,0.2533,0.60183,0.32756,0.087065,0.031755,0.029186,-0.027596
-0.10084,-0.32673,-0.22531,-0.087965,-0.038458,-0.024,-0.02583,-0.040222
-0.047461,-0.19283,-0.030006,0.19239,-0.01587,-0.0017652,-0.0025803,-0.073806
-0.024737,-0.13256,0.042542,-0.56866,-0.063878,-0.026333,-0.010581,0.02016
0.10009,0.30125,0.079737,0.42366,0.10669,0.035314,0.020357,0.014834
-0.048085,0.13407,0.14408,-0.4721,-0.097741,-0.019777,-0.019207,0.034653
0.12431,0.19595,-0.14821,0.34622,0.14331,0.081936,0.042614,0.031987
-0.1407,-0.46469,-0.35329,-0.26023,-0.084075,-0.081402,-0.059714,-0.11121
-0.030763,-0.089084,-0.26965,0.16411,-0.11575,-0.041116,-0.013543,0.033894
0.14151,0.58864,0.51513,0.36386,0.16545,0.06982,0.056286,0.052487
-0.14735,-0.66635,-0.11798,-0.29187,-0.045256,-0.037889,-0.02197,-0.0012931
0.087058,0.34795,0.33667,0.13546,0.025414,0.049546,0.033,0.04416
0.008884,0.0049334,-0.1625,-0.080614,0.017916,0.011537,-0.0053927,-0.092334
-0.030217,0.029298,0.42088,-0.19857,-0.091297,-0.042758,-0.027875,-0.027548
0.016717,0.22394,-0.57174,0.11641,0.049344,0.011548,0.0044653,-0.034202
-0.037764,-0.33442,0.22551,0.13651,-0.013144,-0.005193,-0.0022763,0.068309
0.0094598,-0.13864,-0.3512,-0.27217,-0.044124,-0.038097,-0.0013487,0.07002
0.017697,-0.024497,0.30168,0.26461,0.01921,0.0069094,-0.00063391,0.042124
0.033701,0.26679,-0.45302,-0.066077,0.0443,0.020834,0.0076716,-0.10846
-0.03643,-0.021022,0.029475,-0.17061,0.0078052,0.01184,-0.0076421,-0.021977
0.057165,0.2154,0.65917,0.24002,-0.0279,0.019225,0.015994,-0.010872
-0.091846,-0.41296,-0.86643,-0.32652,0.022758,-0.0038217,0.00052902,0.041771
0.016549,0.024637,0.42898,-0.058165,0.026418,-0.0027267,-0.014916,-0.0052439
-0.023774,-0.041857,0.79247,0.8255,-0.025358,-0.024623,-0.014687,-0.019925
0.092086,0.44161,-0.13266,-0.34854,-0.015949,0.016096,0.024649,0.090497
-0.080911,-0.33113,-0.18062,-0.47215,-0.086358,-0.037139,-0.0063177,-0.010922
0.035629,0.13014,-0.46622,0.25838,0.068003,0.034184,0.025175,0.034317
0.066927,0.2296,-0.47699,-0.0010531,0.080169,0.026837,0.0018941,-0.14156
-0.11969,-0.29211,0.7247,0.078203,-0.057157,-0.051318,-0.052744,-0.015304
0.077386,-0.029229,-0.52941,0.09925,0.047391,0.026467,0.017534,0.01488
-0.08409,-0.19185,0.17317,-0.3808,-0.16784,-0.052033,-0.02158,-0.0035449
0.10667,0.31596,0.019474,0.21916,0.10267,0.057231,0.056576,0.14896
-0.061481,-0.27614,-0.023004,-0.24624,-0.0076378,-0.020495,-0.021335,-0.065856
-0.01853,0.035174,0.20604,0.33495,0.040658,0.011794,-0.013052,-0.045772
0.047703,0.033778,0.62122,0.011119,0.02876,0.029075,0.018948,0.045564
0.0040751,0.11143,-0.022719,-0.092673,-0.028149,-0.023516,-0.0035042,-0.0026527
-0.048156,-0.0061809,-0.44247,-0.032631,-0.052716,-0.029079,-0.025824,-0.026477
0.078276,0.33423,-0.098037,0.22736,0.094718,0.058923,0.037773,0.028493
-0.062072,-0.020311,-0.36274,-0.12134,-0.086841,-0.048884,-0.023826,-0.056857
-0.00045475,-0.0046611,0.24386,-0.32527,-0.043567,-0.01678,0.00014479,0.02181
-0.025818,-0.42816,-0.52133,0.1662,0.067698,0.022332,0.0079828,0.0064006
0.010486,-0.31728,0.25775,0.11554,-0.0032978,-0.0096313,-0.00039497,0.0061126
0.069652,0.3428,0.6711,0.35699,0.095116,0.043735,0.014064,0.013062
-0.05901,-0.10259,-0.37013,-0.58601,-0.12881,-0.036103,-0.034506,-0.019607
0.038754,0.19377,0.38853,0.25711,0.013114,0.0010797,0.01029,0.025386
-0.043185,0.056686,-0.17484,-0.30551,-0.040781,-0.016408,0.0002173,-0.023694
0.031169,0.19386,-0.13706,0.1135,0.038473,0.020921,0.013633,-0.0026184
0.027468,-0.14091,-0.64707,0.12072,0.071908,0.027151,0.0038905,0.018479
-0.038627,-0.27331,0.91835,0.033301,0.0053279,-0.0055784,-0.0053745,-0.022739
0.0048429,0.23508,-0.22458,0.089223,-0.0048138,0.0085801,0.0016018,0.0066745
-0.045101,-0.092818,0.10133,-0.053272,-0.11485,-0.055456,-0.014178,-0.0025738
-0.024205,0.05391,0.019145,0.027872,0.042083,0.0054038,-0.013668,-0.042648
0.083347,0.055894,-0.76109,-0.16106,0.028008,0.011507,0.026462,0.097356
-0.034806,-0.042219,0.69839,-0.068264,-0.048249,-0.02142,-0.018972,0.089248
0.090127,0.10934,-0.31998,0.21664,0.15654,0.055197,0.029466,-0.21548
-0.02629,-0.33418,-0.45522,0.056941,-0.10022,-0.016319,0.0074318,0.058154
-0.063884,0.04898,0.9269,-0.13677,-0.037491,0.0063258,-0.015025,-0.050776
-0.015001,0.056361,0.44424,0.046976,0.0087925,-0.0018116,-0.0068482,0.043741
-0.020392,0.017217,-0.54422,-0.041629,-0.047052,-0.032903,-0.014983,0.076151
0.10738,0.19833,-0.25859,-0.043297,0.13916,0.061475,0.030962,0.038677
-0.077001,-0.18077,-0.69315,-0.31639,-0.080497,-0.062456,-0.032856,-0.084338
0.035847,0.27853,0.52468,0.32828,-0.049302,-0.0062958,-0.0029865,-0.035185
-0.03067,-0.17428,0.46289,0.0019348,0.037722,0.018954,0.011545,0.014093
-0.05794,-0.18084,-0.044486,0.24514,-0.022534,-0.018063,-0.028036,-0.038277
0.047503,0.10911,-0.10008,-0.0037758,0.10557,0.038725,0.034666,0.06527
0.12117,0.038078,0.50729,-0.11966,-0.0082326,0.0093789,0.043353,0.011959
-0.032784,-0.090192,-0.61108,-0.20443,-0.028739,0.018598,-0.010027,0.012451
-0.039853,0.036284,-0.35756,0.069526,0.0042696,-0.027663,-0.0086626,-0.01162
-0.04882,0.050298,0.39065,-0.15748,-0.081585,-0.012427,-0.031087,-0.0057056
-0.012857,0.0069619,-0.80517,0.20064,0.026057,-0.021682,-0.01513,-0.047895
0.04493,0.05548,0.61606,0.18362,0.030612,0.022846,0.02343,0.041756
-0.015383,-0.060988,0.16687,-0.28557,-0.075056,-0.042551,-0.0169,-0.0096993
-0.028764,-0.19299,0.48195,0.099165,0.030285,0.032626,0.0047881,-0.029709
0.037094,0.18383,-0.2216,0.21419,0.081966,0.030178,0.002984,0.021555
-0.0043733,-0.078343,0.04343,-0.46284,-0.044248,-0.018153,0.0015918,0.0041822
-0.043191,-0.033909,-0.034997,0.060755,-0.012014,-0.010471,-0.0068119,-0.0031837
0.13951,0.54358,-0.38702,0.31591,0.069235,0.022074,0.032671,0.015275
-0.12076,-0.45567,-0.051517,-0.15961,-0.08226,-0.030048,-0.020609,-0.042215
0.01884,-0.16504,-0.56551,0.10857,0.017014,0.020274,0.012768,0.05811
0.10394,0.21182,1.1458,0.086338,0.092586,0.031864,0.030789,0.034064
-0.10118,-0.16917,-0.80888,-0.27624,-0.11435,-0.042775,-0.045207,-0.037334
0.019508,0.12157,0.53246,0.22132,0.028247,0.014531,-0.0047856,-0.00089792
0.027725,0.1388,-0.1948,0.038337,0.0043867,-0.015397,0.011077,-0.021507
-0.10798,-0.17982,0.70774,-0.26284,-0.076484,-0.015578,-0.03681,-0.037062
-0.012195,0.0095316,-0.32698,0.28029,0.059569,0.014034,0.01574,0.022851
0.12848,0.12867,-0.95215,-0.52453,0.038347,0.026848,0.036259,0.0025624
-0.13002,-0.20548,0.35848,0.17057,-0.061085,-0.046986,-0.045072,-0.05012
0.072978,0.15514,0.28704,0.00267,0.012171,0.027467,0.030101,0.069024
0.13703,0.13981,-0.17228,0.37382,0.18851,0.039831,0.043526,0.056346
-0.18711,-0.28293,0.88824,-0.049812,-0.26601,-0.079729,-0.074736,-0.079544
0.10868,0.28548,-0.75699,-0.0023899,0.12527,0.067555,0.034893,0.052401
-0.030388,-0.27144,0.10354,-0.055921,-0.051871,-0.041607,-0.018195,-0.032177
-0.0031859,0.055375,-0.34231,-0.026034,0.030294,0.038058,0.015845,0.010116
-0.021249,-0.021394,-0.35993,-0.033722,0.035309,-0.021776,0.011721,-0.032288
-0.01488,0.01584,0.72274,-0.10605,-0.053006,-0.018303,-0.023131,0.011717
0.015398,0.10636,0.45259,0.12929,0.038273,0.0481,0.020258,0.031976
