-0.1577,0.035507,0.079072,0.0032394,-0.0095796,0.013379,-0.087454,-0.1655
0.088384,-0.04101,-0.0079408,-0.0035854,-0.0094192,0.014773,0.27096,0.074963
0.10382,0.06342,-0.025339,-0.0018317,-0.0012407,-0.0064644,-0.18728,0.086615
0.16282,0.029274,0.01152,0.0083178,0.022754,-0.0037994,0.17836,-0.091458
0.071535,-0.088289,-0.037624,-0.028141,-0.0077959,-0.024535,-0.17173,0.0099319
-0.5508,-9.5925e-05,0.0073405,0.036824,0.016401,0.032466,0.050666,-0.07707
-0.037769,0.051429,0.053106,0.038733,0.0014802,-0.028446,-0.30387,-0.03868
0.11287,-0.051429,-0.017108,-0.030568,-0.013613,0.0034727,-0.18951,0.14221
0.60602,0.0031018,-0.038922,-0.038448,-0.0055286,-0.0046149,0.76766,-0.056449
0.028561,0.12044,0.011258,0.02294,0.0022661,0.0099224,-0.18348,-0.016444
-0.46332,-0.12994,-0.0072512,-0.057085,-0.013624,0.016077,-0.004949,-0.010858
-0.19872,-0.045663,-0.06352,-0.012476,-0.014033,-0.040544,0.044564,0.030176
0.0081323,0.11485,0.15435,0.10256,0.040237,0.051273,-0.082182,0.16792
0.34261,-0.06287,-0.088847,-0.055316,-0.014757,-0.036387,-0.4864,-0.07604
0.02119,0.045963,0.073077,0.037551,0.0085497,0.024702,0.40337,-0.016339
-0.036329,0.027286,0.014143,0.013943,-0.0070501,-0.031093,-0.39547,-0.069059
-0.034697,-0.071836,-0.094565,-0.032669,0.00083842,0.022689,0.48629,-0.19668
0.14234,0.0067792,0.012154,0.014454,0.024236,0.037454,0.23794,0.15469
-0.50532,-0.0176,-0.048453,-0.017063,-0.022977,-0.033822,-0.28783,-0.02274
0.22607,0.043158,-0.0023948,-0.018256,-0.00031507,-0.01936,0.096688,0.22493
0.056411,0.041309,0.073176,0.034116,-0.0093906,-0.012908,-0.62488,-0.093119
-0.14587,-0.061505,0.0076024,-0.023925,0.00456,-0.0065466,0.45994,-0.053272
0.19825,0.055692,0.028704,0.02675,0.018301,0.046791,-0.0025176,-0.052081
0.026479,-0.10653,-0.073361,-0.071059,-0.045998,-0.008917,0.46208,-0.025223
0.27578,0.038201,0.0225,0.050566,0.022932,-0.017214,-0.54663,0.16948
-0.30497,-0.033321,-0.050531,-0.045182,-0.0011807,0.04547,0.47025,-0.22468
0.017407,0.077352,0.059049,0.056254,0.014653,-0.055214,-0.58095,0.11309
-3.1351e-06,0.088743,0.046121,0.011305,0.00013461,0.016581,-0.19105,0.018517
-0.28662,-0.06207,0.019373,0.030713,0.025412,0.010659,0.38467,0.045391
0.57312,-0.070949,-0.029781,-0.026684,-0.019205,-0.034183,-0.30372,-0.073381
-0.41814,-0.024409,-0.13328,-0.028847,-0.016926,0.053637,0.37195,0.082293
-0.16338,-0.016723,0.044349,-0.0078722,0.0084198,-0.0073912,0.6486,0.096581
-0.22201,0.061053,0.041996,-0.011384,-0.013783,-0.014319,-0.79266,-0.21943
0.36887,0.036714,0.039455,0.053865,0.0022572,-0.021884,0.18897,0.11787
0.42182,0.019381,-0.0098586,-0.023237,0.017519,0.032515,-0.21997,-0.18843
-0.049815,-0.084901,-0.066549,-0.031578,-0.014654,-0.038383,-0.10728,0.034235
-0.058237,0.0049515,-0.028827,-0.025384,-0.0001674,0.015754,0.35264,0.044705
0.14088,0.12475,0.14236,0.066291,0.014505,-0.0078528,-0.52289,0.0080457
-0.52843,-0.16305,-0.108,-0.04496,-0.040582,-0.022991,0.79408,0.096622
0.31236,0.094668,0.078829,0.055451,0.037947,0.07202,-0.41872,-0.088362
-0.36973,-0.094167,-0.04805,-0.030629,-0.015463,-0.019775,-0.32094,0.014276
-0.088992,0.090929,0.072895,0.0171,0.0099889,-0.017409,0.68608,0.15246
0.23701,-0.021694,-0.051383,0.026475,0.035857,0.024008,-0.024494,-0.058961
-0.057181,0.021333,0.0082549,0.012642,0.014824,0.041513,-0.43719,0.16719
0.49672,-0.014133,-0.021718,-0.079632,-0.045762,-0.059029,0.4266,-0.083799
-0.21166,0.020544,-0.14089,-0.039894,-0.036904,-0.051255,-0.44429,-0.33418
-0.38815,-0.1323,0.065656,0.045596,-0.021312,-0.028874,-0.14475,0.14593
-0.069366,0.074287,0.10684,0.036107,0.040076,0.07089,-0.1589,-0.23206
0.65822,0.10908,0.061925,0.033311,0.030267,0.029725,0.80277,0.18653
-0.16189,-0.08264,-0.14624,-0.048437,0.012093,0.043437,-0.76846,-0.17818
0.1444,-0.024365,-0.0014048,-0.052477,-0.045296,-0.090661,0.53778,0.15493
-0.42961,0.026095,0.082661,0.045097,-0.00089528,-0.012907,-0.37202,0.24232
0.086053,0.076677,0.082527,0.041617,0.051854,0.050216,0.76384,0.097977
-0.071821,-0.075427,-0.033151,0.015603,-0.035296,-0.026439,-0.20291,-0.11134
-0.15658,-0.0078008,-0.10811,-0.095154,-0.020095,0.006777,0.030094,0.012854
0.40114,0.022472,0.053262,0.045449,0.011452,0.024374,-0.41514,0.19592
-0.2177,-0.077557,-0.15778,-6.0516e-05,0.027927,0.025814,-0.69666,-0.43004
-0.10381,-0.049403,0.056541,-0.020854,-0.025598,-0.03625,0.85849,0.011382
0.19214,0.10724,0.14243,0.045325,0.038109,0.0097683,0.27871,0.024955
0.26027,-0.037611,-0.12613,-0.036258,-0.046828,-0.062728,-0.16119,-0.1151
-0.3567,0.0072045,-0.046176,-0.00042654,-0.014982,0.0043242,-0.68265,-0.2795
0.14067,0.16965,0.013974,0.035147,0.039783,0.031729,0.47208,0.50724
0.058243,-0.021193,0.21621,0.0074987,0.00026048,0.027927,-0.27408,-0.067489
-0.18238,-0.0050412,0.08098,-0.021244,0.0071466,-0.022081,-0.10046,0.0033984
-0.51252,-0.20547,-0.15285,-0.035679,-0.040973,-0.047493,0.83468,0.18605
0.51818,0.19712,0.25395,0.042282,0.020161,0.061309,-0.54454,0.20177
0.64848,-0.12475,-0.48959,-0.052831,0.01889,0.062096,0.36946,-0.082381
-0.35168,-0.11441,-0.00091522,-0.00040284,-0.028962,-0.01419,-0.10059,-0.73915
-0.20392,0.074943,0.15908,0.082763,0.0095699,-0.089908,-0.31403,0.31356
-0.089339,-0.053169,-0.17039,-0.06076,0.0095657,-0.001544,0.36918,0.22765
-0.1011,-0.050266,0.1244,0.014653,-0.0055392,-0.015209,-0.018907,-0.17275
-0.17393,0.13255,0.2043,0.020143,0.011051,0.048445,0.017755,0.35934
0.63432,0.26902,-0.34862,-0.012955,0.0045119,0.048644,-0.86434,-0.23251
-0.52215,-0.14255,0.56978,0.0012991,-0.040943,-0.069251,0.43319,-0.50334
0.065438,0.035086,-0.17258,0.047253,0.030786,0.030912,0.074908,0.32112
0.010896,-0.077504,-0.36591,-0.078219,0.0086521,-0.025531,0.055571,0.14095
-0.027399,0.015159,0.088566,-0.039117,-0.013644,0.027443,-0.38783,0.059746
0.21544,-0.065521,0.054134,0.086559,0.018599,0.018348,0.49533,0.39985
0.71243,-0.11045,0.19047,-0.029176,-0.042998,-0.068129,0.3662,-0.38379
-0.38587,0.099472,-0.076933,-0.026864,-0.018683,-0.020883,0.053557,-0.10214
-0.30477,-0.15979,-0.087407,0.0074984,0.021259,0.050677,-0.16471,-0.2149
-0.48006,0.045617,0.0085188,0.034587,0.045523,0.036917,-0.20889,0.013194
-0.049001,0.13473,-0.039665,0.030487,0.0070783,-0.00012156,-0.17246,-0.065906
0.58779,-0.05179,-0.082404,0.010187,0.0072443,0.0092904,-0.14864,0.43023
-0.35091,0.12238,0.12501,-0.034812,-0.032375,-0.029177,-0.30726,-0.18722
0.027123,-0.067698,0.086088,-0.042583,-0.033871,-0.014384,0.47285,0.30603
0.075778,0.010219,-0.085897,0.049058,0.041736,0.01447,-0.50548,0.11808
0.34412,0.072338,-0.10597,-0.033266,-0.024186,-0.020504,1.062,-0.36325
0.10718,0.091297,-0.0023665,-0.070341,-0.028191,-0.032777,0.43353,-0.13208
0.10817,-0.038881,0.36746,0.12615,0.053653,0.0097587,-0.8821,0.045577
-0.12855,-0.12684,-0.36301,-0.083372,-0.028069,0.0064802,-0.21954,-0.16465
-0.35149,-0.23775,0.25101,0.028729,0.0084683,-0.002734,-0.22555,0.22501
-0.61281,-0.028819,-0.01069,0.041509,0.023104,0.076364,0.015899,0.094212
0.15363,0.055444,-0.27514,-0.028789,0.00048262,0.017264,0.85057,-0.098974
0.29582,0.24378,0.21331,0.021161,-0.0203,-0.055446,-0.71208,-0.39734
0.13014,0.093793,-0.2739,-0.019822,-0.0082079,0.0058717,-0.18691,0.27161
0.61995,-0.11033,0.18352,-0.019574,-0.002737,-0.010742,0.88654,0.2824
-0.26572,0.094787,0.045289,-0.010294,0.0033305,-0.028203,0.15499,0.22546
-0.16955,-0.1018,-0.10349,0.045962,0.03275,0.022923,-0.57178,-0.0065123
-0.18922,-0.027556,0.13501,-0.0081771,-0.016723,-0.0063699,-0.53902,-0.53
0.24856,-0.15922,0.15878,0.05288,0.026193,0.00090672,0.31301,0.3901
-0.095224,0.17433,-0.36062,-0.1153,-0.065485,-0.025396,0.2091,-0.29085
-0.47409,0.034491,0.17828,0.041653,0.020548,0.032368,0.17233,0.1195
0.24295,-0.040907,0.10382,0.016036,0.01091,0.010778,0.36017,-0.61297
0.15735,-0.021778,-0.10688,-0.035439,-0.0081697,-0.0035147,-0.56053,0.45245
-0.0030911,-0.096593,-0.30447,0.020766,0.018469,-0.0020146,-0.98425,-0.13977
0.021284,0.17927,0.16059,-0.033259,-0.017971,0.023676,0.96081,0.49174
-0.041264,-0.022702,0.10196,0.029846,0.0002972,-0.027552,-0.009856,-0.14706
-0.14294,-0.0072628,0.067418,0.03883,0.0035041,-0.0069397,0.39658,0.081222
0.30979,-0.15704,0.041885,0.0097093,0.015513,-0.015851,0.26856,-0.086457
0.31563,0.30957,0.11928,0.020764,0.028791,0.039556,-0.89283,-0.26675
-0.56496,-0.38827,-0.15361,-0.02957,-0.034662,-0.043852,0.48259,0.65641
0.16589,0.02315,-0.12839,-0.03978,-0.010791,0.022872,-0.59046,-0.66283
-0.19657,0.27821,-0.031432,-0.033308,-0.040339,0.0051271,0.58192,0.054337
-0.082616,-0.13909,-0.065328,-0.017874,0.032735,0.027566,-0.29881,-0.077096
0.21159,0.21578,0.020751,0.037935,0.03628,-0.043086,-0.56277,0.16773
-0.0073766,-0.15039,0.45422,0.040508,-0.014419,-0.0042569,0.64679,-0.0014522
0.036629,-0.027713,-0.42064,-0.033587,-0.0025598,0.034068,0.29519,-0.030832
-0.083027,-0.034066,-0.01799,0.018539,-0.014487,-0.038099,-0.17649,0.21941
0.10529,0.0023491,0.075272,0.040131,0.019725,0.075558,0.35205,-0.009399
-0.04455,0.035389,0.10734,0.0070207,-0.0018128,-0.062899,-0.0064465,-0.022915
0.32833,0.035344,0.075763,-0.0034902,-0.0011951,0.015014,-0.72391,-0.11108
-0.40827,-0.20657,0.1029,-0.03902,-0.033191,-0.057944,-0.38743,-0.086998
-0.074891,0.13235,-0.18852,-0.053178,-0.0039814,0.030895,0.98873,0.033583
0.077523,0.02303,-0.17479,0.0086133,0.03977,0.055345,-0.53707,-0.084869
-0.069762,-0.056518,0.089475,0.037278,0.020265,0.008143,0.017005,-0.082127
0.19997,0.12847,0.01995,-0.029052,-0.0074061,-0.039727,-0.17142,0.21478
-0.076575,0.014606,-0.18518,-0.0020649,-0.042809,-0.040652,0.62923,0.22884
0.12937,-0.10327,0.087015,0.048727,-0.0074027,0.021737,-0.069958,-0.046782
0.2765,0.12352,-0.10533,-0.024502,-0.0023985,0.0074967,0.13832,-0.11122
-0.41803,-0.18321,0.42784,0.059805,0.03494,0.042179,-0.34859,-0.033946
-0.18919,0.29401,0.27348,0.0047418,0.034391,-0.022295,-0.12706,-0.19684
0.25274,-0.12646,-0.61598,-0.057189,-0.03537,-0.037366,0.73712,-0.012869
-0.1451,-0.28893,0.01494,0.014166,-0.0026815,0.0046461,-0.87624,0.27688
-0.059748,0.096571,0.11597,-0.047306,-0.00067377,0.040865,-0.16456,-0.36583
0.11324,0.055728,-0.027635,-0.015424,-0.014078,0.016023,0.1681,0.19981
-0.014357,0.021325,0.072901,0.031481,0.0036462,-0.039348,0.31705,0.12143
0.43377,-0.081485,0.21992,0.02308,0.020985,-0.0088345,-0.43603,-0.024672
-0.19093,0.10162,-0.20454,0.014199,-0.0090978,0.0052648,1.0811,0.27445
-0.14787,0.22077,-0.20723,0.0050708,-0.00071142,0.033582,-0.51424,-0.19513
-0.48671,-0.17689,-0.058838,-0.019658,-0.024113,-0.08838,-0.050536,0.040661
0.33601,0.040399,-0.13037,0.018401,0.022391,0.076672,-0.37154,-0.24602
0.4497,-0.090385,0.48108,-0.068033,-0.009464,0.020962,0.46882,-0.12497
0.20325,-0.024944,-0.064163,0.04151,0.02112,-0.013046,-0.15235,-0.039041
-0.22494,0.16395,0.041487,0.0033479,0.0049109,-0.017045,0.11239,0.35173
-0.84997,-0.14267,-0.0054244,-0.034116,-0.018932,-0.013808,-0.70077,-0.20568
0.2446,-0.10186,0.028896,0.061787,-0.0034869,-0.033825,0.36664,0.082277
-0.12483,0.075812,-0.16244,0.025193,0.0043757,0.017403,-0.0090075,0.023432
0.42915,0.0088303,-0.067175,-0.066072,-0.010988,0.023305,-0.18489,-0.05316
0.23898,-0.058687,-0.017482,-0.0013751,0.012894,-0.015748,0.22827,0.13209
0.057803,0.15657,-0.14254,0.00028204,0.013503,0.048724,0.49847,-0.042112
0.01989,-0.093655,0.3272,0.032502,-0.001353,0.0054795,-0.0085065,0.25428
-0.45311,0.1448,0.044733,0.0015165,0.0074046,0.01017,0.32856,-0.20402
0.22324,0.044006,0.015632,-0.061317,-0.069569,-0.070794,-0.26773,0.2255
-0.078182,-0.15447,0.07489,0.031707,0.025566,-0.003839,-0.70522,-0.30497
-0.17203,-0.13159,-0.40185,-0.0082271,0.019368,0.022862,0.026828,-0.41406
-0.028792,0.087586,0.26748,0.061304,0.028964,0.024504,-0.77378,-0.076942
0.27215,0.1029,-0.14754,-0.040783,-0.00046535,-0.0068451,1.0168,0.26477
-0.25447,-0.13413,-0.16517,-0.0097287,-0.022242,-0.047564,0.26143,0.3895
0.14045,0.047069,0.13432,0.0059927,0.0024683,0.027779,-0.50313,-0.19774
0.19793,0.10651,0.029609,-0.017177,-0.020296,-0.022436,0.6739,0.42888
-0.15393,-0.11254,0.26683,0.053403,0.010882,0.01331,-0.7359,-0.21273
0.18449,0.014956,-0.19117,-0.016814,0.01784,0.04174,0.19577,-0.098617
0.039356,0.091096,-0.0089894,-0.040461,-0.022775,-0.014991,0.69689,0.043834
-0.028304,0.054467,0.07612,0.013663,0.014238,0.038487,-0.47034,-0.37281
-0.73781,-0.20273,0.051567,0.004973,-0.0036498,-0.0010845,-0.15691,-0.060978
0.1224,0.0089478,-0.17446,-0.011717,-0.029245,-0.094895,0.26828,0.15801
0.70256,0.043144,0.11862,0.0419,0.039307,0.030209,-0.59531,0.36973
-0.16655,-0.13729,-0.16026,-0.052734,-0.024346,-0.016646,0.0092923,-0.19897
0.065014,0.12527,0.17296,0.032666,0.022069,0.014368,0.91195,0.046305
-0.092003,0.12824,-0.12519,-0.0064943,-0.001188,0.029399,-0.90567,-0.14362
-0.29933,-0.035122,-0.0067589,0.017292,0.015083,-0.01067,0.51821,-0.1039
-0.26654,-0.0069301,0.054793,-0.013235,-0.015309,0.03476,0.39848,0.47856
0.33458,-0.023779,-0.14692,-0.0044615,-0.0066938,-0.02182,-0.83678,-0.3334
0.44817,0.11494,0.041668,0.020012,0.0016514,0.0071171,-0.50859,-0.094416
0.17353,-0.03839,0.055008,-0.033725,-0.029453,-0.042401,0.89728,0.19529
-0.31243,-0.32133,0.27163,-0.032993,0.0093702,-0.0061275,-0.82599,-0.14448
-0.20759,0.070168,-0.42394,0.05336,0.032289,0.061533,0.94721,-0.036358
-0.036852,0.13645,0.30391,0.037777,-0.015211,-0.042178,0.25249,0.27638
-0.096989,-0.097872,-0.046979,-0.064149,-0.015761,-0.027803,0.05951,-0.16074
0.059148,0.11885,0.13723,0.02883,0.030787,0.042519,0.11727,-0.044698
-0.1747,0.26488,0.055988,-0.019201,-0.023924,-0.018461,-0.41077,0.028931
0.056565,-0.25211,-0.40317,0.010567,0.038859,0.047149,-0.43645,-0.098019
0.037097,-0.1577,0.12525,0.032297,0.00032525,0.0048482,-0.85919,-0.005489
0.48703,0.13449,-0.11645,-0.031989,-0.045861,-0.059755,0.69243,0.25816
0.28078,-0.016175,-0.087376,-0.033665,-0.0060337,-0.0065358,0.46937,0.098307
-0.31842,0.093104,-0.011102,0.027478,0.018192,0.015459,-0.53272,-0.078791
-0.23593,-0.022582,0.29535,-0.004611,-0.012267,-0.017854,0.31466,-0.39697
0.079439,-0.066959,0.045538,0.026467,0.019772,0.08043,0.76255,0.13055
-0.59364,-0.1031,0.15471,0.0035877,0.0049205,-0.0026496,-0.91104,-0.0083648
0.032913,0.040352,-0.27622,-0.049857,-0.017809,-0.040769,0.80909,0.21393
0.52221,0.050438,0.1332,0.045666,0.021799,-0.0026324,-0.097657,-0.073316
-0.16301,0.090783,-0.11284,0.00084877,0.014239,-0.020705,-1.0613,-0.38996
0.27638,0.028161,-0.073105,-0.012731,-0.025006,-0.047501,0.99458,0.33654
0.24861,-0.075267,0.4596,-0.0031888,-0.010108,0.011489,-0.27461,0.11439
-0.42484,0.030353,-0.63461,-0.025472,-0.0036101,0.078894,-0.89098,0.17644
0.06868,-0.061054,-0.27884,0.013989,-0.013275,-0.047839,0.66558,-0.0039471
-0.41227,0.010485,0.53503,0.021369,0.039167,0.061237,0.34032,-0.15757
0.1698,-0.074326,0.16027,0.012335,0.013319,0.0075751,0.010819,-0.35915
0.2816,-0.0094949,-0.025446,-0.020776,-0.035851,-0.045201,-0.38909,0.15316
0.069291,0.10476,0.043657,0.023848,0.01695,0.027267,-0.41746,-0.13882
-0.078675,-0.082047,-0.035133,-0.048793,-0.031136,-0.041309,0.69488,0.32637
-0.22659,0.039932,-0.32861,-0.019615,-0.00022341,-0.0014394,-0.011301,-0.083732
0.093192,0.11882,0.096143,0.033555,0.047281,0.060723,-0.38027,-0.031704
0.16177,0.028473,-0.07857,0.0015393,-0.037098,-0.10469,1.0385,0.27366
-0.066785,-0.16266,-0.10897,0.0172,0.027719,-0.0050521,-0.58675,-0.43868
-0.30142,0.019751,0.32542,0.033551,0.0070744,0.055562,-0.025567,0.15388
-0.015794,-0.067124,0.1918,-0.027782,-0.021255,-0.0238,-0.33508,0.16266
0.62169,0.14529,-0.23181,0.02039,0.012692,0.069781,-0.32019,-0.19215
-0.31498,0.085795,0.33906,-0.04097,-0.024195,-0.030793,-0.11123,0.12941
-0.11925,-0.08135,-0.51491,-0.024547,-0.022734,0.010134,0.54664,0.041783
0.25082,-0.15948,0.045014,-0.0085053,0.032622,0.035713,0.55041,-0.18166
-0.49965,-0.083772,0.20242,-0.0083757,0.0012836,-0.0016953,0.02398,-0.12729
0.2552,0.054955,-0.12292,0.085383,0.023988,-0.048134,-0.83914,0.28226
0.17126,0.1659,-0.071516,-0.031764,-0.024112,-0.06505,-0.018917,-0.094632
-0.10473,-0.037614,0.18707,-0.016002,-0.017863,-0.021357,0.7603,0.13927
-0.16154,-0.04649,-0.10083,0.015409,0.019422,0.067539,-0.7517,-0.15016
0.45808,0.092322,-0.0080275,0.038836,0.001889,0.030294,0.21583,0.098305
-0.21865,0.096169,-0.036724,-0.03193,-0.00010952,0.01606,0.064235,-0.069549
0.077929,0.087668,-0.35381,-0.02527,0.0056242,-0.013486,0.068165,-0.35759
-0.17077,-0.22502,0.5521,0.0039778,-0.012155,-0.042085,0.63418,0.58549
-0.3024,-0.10222,0.096675,0.00115,0.0012701,0.016631,-0.52638,0.017774
0.19046,0.0247,0.045047,-0.0022776,0.030352,0.05348,-0.74013,-0.38023
0.0038512,-0.024535,-0.097236,-0.0059006,-0.041952,-0.048759,0.95738,0.21308
-0.017072,-0.022856,-0.19297,0.014232,-0.0045041,-0.024677,-0.50595,-0.091387
0.43391,-0.023703,-0.011541,-0.0038579,0.010119,0.055083,-0.16846,-0.24526
-0.14982,0.099393,-0.40796,0.0027596,0.0021353,-0.052039,0.042934,0.11188
-0.056646,0.13667,0.3651,0.010892,-0.0048687,-0.0026535,0.36666,0.11299
-0.11447,0.10425,0.071436,0.0049251,0.020382,0.031066,0.17433,0.061725
-0.081097,-0.052765,-0.05576,-0.023186,-0.00036424,0.025467,0.20439,0.049568
0.24676,-0.03047,0.17023,0.019875,0.0029267,-0.019562,-0.64935,0.065524
-0.35686,-0.25946,0.25657,0.0085494,-0.0091974,-0.025906,0.060658,0.239
0.16389,0.072154,-0.45355,-0.003056,0.017515,0.02996,-0.039248,-0.15146
0.21697,0.0034415,-0.15578,-0.046695,-0.034525,-0.031484,0.45785,-0.41165
-0.15654,0.04294,0.25928,0.017918,0.0062676,-0.0069023,-0.31502,-0.040457
-0.19684,-0.042441,0.097058,0.026595,-0.0008543,0.010167,-0.35011,0.067096
0.14456,0.006617,-0.12531,-0.036191,0.0066744,0.035509,0.36802,-0.17763
0.10293,0.082041,0.10237,0.05642,0.021281,-0.008928,-0.04368,0.074828
-0.079633,-0.042011,-0.09962,-0.038894,-0.034794,-0.013805,0.18812,0.32157
0.064506,0.13437,-0.1106,-0.016958,0.010748,0.028555,0.29804,0.073275
0.10366,0.063407,-0.075591,-0.010134,-0.021385,-0.046126,-0.33803,0.048764
0.058691,-0.1627,0.01593,0.036605,0.040972,0.02753,-0.38235,0.065574
-0.43248,-0.13953,0.19667,0.029671,-0.020806,-0.047603,0.44131,0.11101
0.034002,0.037468,0.14608,-0.015345,0.027585,0.048565,-0.27756,-0.18002
0.30795,0.093597,0.057403,0.0028965,-0.0094216,-0.012276,-0.35562,-0.42195
-0.088105,0.051732,-0.24483,-0.064401,-0.022844,-0.019321,0.2802,-0.06323
0.033262,-0.056673,0.12545,0.03234,0.02593,0.066408,0.24793,0.028406
-0.092954,-0.0041395,-0.11766,0.027082,-0.011954,-0.044168,-0.18098,0.058127
-0.23913,-0.062638,-0.12648,-0.0023894,-0.0039895,0.00056938,0.55077,0.38143
0.23655,0.050855,0.1981,-0.0094137,-0.0049975,0.028896,-0.15076,-0.18447
0.27267,0.017822,-0.081995,-0.017501,-0.022732,-0.060513,-0.076582,0.20851
-0.090942,0.027304,-0.13735,-0.010958,0.013353,-0.0095326,0.11504,-0.1164
-0.20545,-0.036836,0.089565,0.018208,0.033302,0.033733,-0.53711,-0.21297
-0.15665,-0.033562,-0.014586,0.0077471,-0.0093452,-0.0085429,-0.241,0.066033
0.36799,0.09154,0.1715,-0.010821,-0.012628,0.027906,0.71363,0.24102
-0.12354,-0.013987,0.049987,0.025255,0.015969,0.025964,-0.34942,0.04217
0.10356,-0.070259,-0.032559,0.014621,-0.017088,-0.014432,-0.61087,-0.19129
-0.13745,0.038291,-0.12141,-0.034742,-0.010141,-0.015313,0.75824,-0.0023805
-0.24397,0.05221,-0.091275,0.017936,0.021158,-0.023742,0.34474,-0.16717
0.121,-0.069004,-0.013348,-0.022522,0.0063754,-0.00081314,-0.32072,0.0087419
-0.010433,-0.12329,0.173,-0.0388,-0.023423,-0.040355,-0.069532,0.018408
0.19793,0.13092,-0.019167,0.047336,0.033114,0.060765,-0.10338,0.12195
0.20655,0.037254,0.086973,-0.021879,-0.019519,0.037008,0.23261,-0.052442
-0.10296,0.049161,-0.09735,0.011318,-0.017415,-0.041192,0.10702,0.10017
-0.099456,-0.098304,-0.058927,0.068626,0.00026828,-0.0018246,0.015906,0.16876
-0.15177,0.033314,0.036467,-0.045562,0.0022334,-0.0088397,-0.49711,-0.063141
-0.02672,-0.039255,0.023909,0.012127,0.027525,0.047215,0.53526,-0.29726
0.11131,-0.072697,-0.2763,-0.047758,-0.017626,-0.060196,-0.46417,0.1232
-0.11987,0.082415,0.23025,-0.0067979,0.0073589,-0.0029899,0.10154,0.088746
0.070276,0.028347,0.10712,0.017606,-0.0148,-0.0078504,-0.59122,-0.17475
0.24617,0.023211,-0.10547,0.0019452,0.017329,0.050004,0.14954,-0.090253
-0.21523,-0.058148,0.20289,0.040042,0.0020275,0.0061974,0.31878,0.12205
-0.27341,0.025898,-0.20137,-0.024169,0.0016543,0.0087844,0.79908,0.18703
0.29885,-0.014538,0.033934,-0.010739,-0.022945,-0.036387,0.19607,0.23571
0.22768,0.0071698,-0.051641,-0.020936,-0.0014621,-0.020286,-0.208,-0.085137
-0.23047,0.11379,0.05808,0.03928,0.027149,0.041251,-0.71058,-0.56585
0.04732,-0.046472,-0.15968,-0.017338,-0.015012,-0.0080344,-0.077477,0.066402
0.1916,-0.067008,0.092758,0.012524,0.013005,0.0039546,-0.5566,-0.047572
-0.362,-0.10311,0.13655,0.0039827,-0.029036,-0.023899,0.64678,0.41346
0.19015,-0.090866,-0.02749,-0.019486,-0.0001167,-0.028483,0.34703,0.1463
-0.12843,0.11186,-0.062805,-0.003225,0.0063491,0.022129,-0.31769,-0.12065
-0.19168,0.029728,-0.0081159,-0.0020097,0.014014,0.027,0.043109,0.091153
-0.10731,0.13203,0.0037372,0.046527,0.015113,-0.021233,0.11766,-0.68509
0.431,0.12932,-0.23081,-0.068721,-0.029556,0.026052,-0.25023,0.31797
0.11166,-0.073397,0.24052,0.027057,0.043764,0.035926,0.44534,0.16405
0.043787,-0.056154,0.057138,0.021163,-0.030972,-0.054504,-0.26138,-0.18555
-0.25853,-0.17261,0.20204,0.0071567,0.0035834,0.0041773,-0.56598,0.13556
0.05377,-0.08087,-0.20114,-0.015127,-0.0092431,0.015998,0.80145,0.17992
0.040395,0.022463,0.057552,-0.022366,-0.015084,-0.019652,0.045756,-0.14176
0.066249,0.19932,-0.34265,0.0010114,0.0015073,-0.032914,-0.24694,-0.02115
-0.033736,-0.0033085,-0.049961,0.0081447,0.017068,0.030659,0.36083,0.24838
-0.21972,0.094892,0.11605,0.0069232,0.00045175,-0.00081389,-0.52044,-0.29765
-0.090604,-0.1692,0.2579,0.036533,0.014355,0.013489,-0.56698,-0.083144
0.021787,-0.0054828,-0.0064261,-0.051314,-0.0034733,0.027039,1.1417,0.28267
0.12224,-0.1317,0.010874,0.0013547,-0.013702,-0.045676,-0.65841,-0.21335
-0.050461,0.17955,0.082965,0.030624,0.01518,0.022342,-0.37723,-0.16036
0.28007,0.14763,-0.29873,-0.033695,-0.018159,-0.018527,0.75642,0.16634
0.020863,-0.047351,0.10699,0.0037929,-0.0041562,-0.00395,-0.0094296,-0.14105
-0.056342,-0.14734,-0.17732,0.01031,-0.020814,-0.027564,-0.021335,0.20402
-0.16638,-0.081849,0.35564,0.032715,0.033467,0.051188,0.060031,-0.14675
