0.0039426,-0.032297,-0.0023681,0.0031698,-0.015026,-0.0031623,0.007778,-0.0015076
0.004173,0.021583,-0.038627,-0.026948,-0.0070749,-0.01111,-0.015547,-0.0012821
0.0048709,-0.018099,0.0021359,0.020464,0.0082847,-0.003552,0.0079489,-0.00099302
-0.0096934,-0.018616,-0.0050964,-0.010931,-0.0079132,-0.00386,0.00019803,0.007177
-0.008428,0.12929,-0.036638,-0.011717,-0.0086319,-0.0041106,-0.015308,-0.015817
-0.0071391,-0.043276,0.032926,0.010456,0.0063096,0.0036282,0.008346,-0.0074551
0.0018095,-0.059832,0.024351,0.0011419,0.021435,0.027258,0.016486,0.0088333
0.010456,-0.014137,0.023899,-0.00033019,0.0055707,0.0043061,-0.0065328,0.0095863
0.010877,0.0079872,0.023878,-0.0015387,-0.0022294,-0.018397,-0.0060806,0.010361
-0.0048028,-0.032294,0.0007336,0.013294,-0.0098612,-0.001899,0.0021314,0.011045
-0.013156,0.052807,-0.077078,0.0051517,-0.0018205,-0.0010289,-0.013249,-0.027558
0.0092964,0.013569,0.024445,0.0052245,-0.001657,-0.00030166,0.017988,-0.0040155
0.00015129,0.037679,-0.030967,-0.025687,-0.0094321,0.007994,-0.0058002,0.01127
-0.0091993,-0.054496,0.029933,0.0059971,-0.0016965,-0.015244,0.0012825,-0.0051595
0.0048574,-0.020861,0.004022,-0.0092569,0.0060092,0.00032371,0.0079998,0.0014406
0.0034466,0.060242,0.016503,0.014381,0.0060042,0.0079071,-0.0011934,-0.007862
-0.0054434,-0.061469,-0.018201,-0.0012508,-0.001574,-0.0001913,-0.010526,-0.00164
0.0017621,0.019957,-0.0058884,-0.0092446,-0.0010016,-0.00041879,-0.011984,0.0046711
0.0017029,0.0073814,-0.024238,-0.0095152,-0.0078814,-0.00050264,0.0024722,0.011236
-0.0056181,-0.013452,0.020858,0.021483,0.0089644,0.0074048,0.0018056,0.002539
0.010975,0.012034,0.035842,-0.002088,0.018124,-0.00015474,0.0096097,0.0098757
0.00447,-0.0021267,-0.026173,0.005774,0.0037518,0.00018942,0.018132,-0.013646
-0.0018772,0.0066059,0.045536,-0.0017886,-0.018757,-0.0072788,0.0038802,-0.013398
-0.008256,0.0227,-0.054088,-0.0091794,-0.010523,0.00079081,-0.0255,0.0027327
-0.0070206,-0.063095,0.018259,0.0069782,-0.0028825,0.00090411,-0.0077592,-0.0043911
0.0017121,0.007173,-0.04254,-0.015889,-0.0036151,0.00086475,0.002123,0.012046
0.0022634,0.053955,0.03662,0.0080899,0.010869,-0.0070965,0.011673,-0.0026914
0.0024543,-0.0007515,0.013378,0.0085567,0.0017437,0.0005425,0.012846,0.0060418
0.0023428,-0.024031,-0.026326,-0.0066964,0.0083463,0.0004476,-0.010132,-0.00086459
0.0020148,-0.00018134,0.011421,0.0013963,-0.00032083,0.00052409,-0.0026084,-0.0078435
-0.0062503,-0.022899,-0.021532,0.0016025,-0.0084495,0.0086389,-0.011379,0.00066163
0.0088763,0.017211,0.015781,-0.0060574,-0.0081476,0.0091648,-0.0050119,0.0089544
-0.015052,-0.028317,0.0065028,-0.0059488,0.0083608,-0.013586,0.008929,-0.0064651
0.007925,0.051364,0.0055795,0.0097296,0.0096811,0.010585,-0.00053507,0.0012405
0.0074924,-0.0095377,-0.0024702,0.0018789,0.011215,-0.020021,0.013712,0.0086348
-0.0007435,0.0074955,0.013621,0.0095055,-0.018547,0.0038354,0.004965,-0.007669
-0.0011764,-0.014997,-0.016553,-0.006513,-0.0017258,0.011735,-0.0032675,-0.00069459
-0.0016225,0.00084802,-0.0072274,0.0084706,-0.0088184,-0.0041914,-0.018827,-0.017176
-0.0098712,0.0079591,0.0023284,-0.0080396,0.0069549,-0.0048847,0.0050472,0.0055448
-0.0024339,-0.01718,-0.0037141,-0.016916,-0.0012757,-0.0059189,0.0056861,0.0051109
0.0051342,-0.012001,-0.0099046,-0.0024105,-0.0021674,0.00061127,-0.0014726,0.012868
0.0050894,0.015897,0.014872,0.0043891,0.0044311,0.014826,0.0068395,0.0054038
-0.002524,-0.011287,-0.0076059,-0.0041714,0.0030677,0.013419,-0.0085596,-0.0017113
0.0057306,0.0083969,0.031977,0.011079,0.009526,-0.019101,-0.00084321,-0.016408
-0.0014532,0.012828,0.00078231,0.018913,-0.015136,-0.0044838,0.0065839,0.0080325
-0.00074587,0.0023263,-0.030861,-0.0041863,0.015088,0.0026977,-0.0096075,0.0011452
0.0077116,0.016172,0.0074279,0.011929,-0.0091502,-0.0052734,0.0054341,-0.0059385
-0.015288,-0.031469,-0.032662,-0.018879,-0.0019216,0.0029176,-0.0027906,-0.0054664
0.0082664,2.853e-05,0.028739,-0.010853,-0.010123,-0.0039623,-0.0028585,0.0025655
0.00019478,0.0090115,0.019975,0.0046608,0.020913,0.0052908,0.0053487,0.010401
-0.00041632,-0.012487,0.011587,-0.0035714,-0.0182,0.0071196,-0.0015742,-0.013127
-0.0090874,-0.017795,-0.05091,-0.019791,0.0053474,0.001334,-0.00026071,0.0023742
0.0055998,0.024096,0.035754,0.018712,0.0056187,0.01113,0.0091185,0.0022611
-0.010844,0.042601,-0.040871,-0.0050211,-0.0095838,-0.02625,0.0028819,0.0099658
0.0042669,-0.048506,0.0082069,0.01074,0.0065836,0.0061476,0.0041942,0.001993
0.004182,0.00048941,0.018721,0.011364,-0.00062656,0.006597,-0.010628,0.0016891
0.012371,0.0096516,0.021589,0.0045762,0.0077608,-0.0015273,-0.002688,0.0011509
-0.0024908,0.0022421,0.00075848,0.0057869,-0.0074201,-0.002547,-0.018909,-0.015298
0.014116,0.017255,0.0026495,-0.0087291,0.0084188,-0.011924,0.003288,-0.0007595
-0.016157,-0.023373,-0.020009,-0.015821,-0.0072928,0.0096498,0.0094071,-0.0020018
0.00021616,-0.010069,-0.020588,-0.015694,0.0001153,-0.007852,0.0075189,-0.01103
-0.0072479,0.002791,0.024315,0.0072076,-0.00055687,0.013971,0.0057075,0.0036276
-0.023003,0.0077779,-0.03353,0.0060978,-0.009191,-0.0027882,-0.0036065,0.018737
0.015479,-0.010344,0.0094202,0.012457,0.0056323,0.01231,0.0031717,0.0031857
0.0067541,0.0034357,-0.0025348,-0.012456,-0.010586,-0.011023,-0.0051437,0.0038769
0.013502,0.0024359,0.024934,-0.0058028,0.012632,0.0052654,0.0026725,-0.0027191
-0.0031476,0.017934,-0.0014294,0.0092695,0.0050778,-0.0092805,-0.020349,-0.0089879
-0.0039628,0.026355,0.020263,0.0095028,0.0058259,-0.0079644,0.011592,0.00043144
0.0033638,-0.027251,-0.019257,0.01056,-0.00083613,0.0090323,0.012409,-0.0059885
-0.0045444,-0.0182,-0.0029041,-0.011102,-0.0072686,0.0024914,0.0054053,0.0027641
-0.0042455,0.0063502,0.0065545,-0.001017,-0.0058837,-0.0042637,-0.0095152,0.0030956
-0.003593,-0.000652,-0.014674,-0.014161,0.0030865,0.0043262,-0.016776,0.0027696
0.0051507,0.0076372,0.018988,0.0038515,0.0038239,-0.0030098,-0.0007507,-0.0059632
-0.00155,-0.046794,-0.02557,-0.0019333,-0.0037889,-0.0028182,0.007351,0.00049573
-0.00037018,0.023769,-0.0079133,-0.00046149,0.0036663,0.012755,0.0075857,-0.0010623
0.0085695,0.016438,0.0015686,0.008157,-0.0049789,-0.010925,0.0078153,-0.0025696
0.0017118,0.017336,0.034144,0.008274,-0.0061209,0.0043254,-0.0075625,0.0040241
-0.01324,0.0030872,-0.011679,-0.0078705,0.00045864,-0.011756,0.00050261,0.0032743
0.0026935,-0.010772,-0.0030076,-0.0011025,0.007175,0.011182,0.0085309,0.0030899
0.010401,-0.0088435,0.005518,-0.0025221,0.0064088,0.0028556,-0.014785,0.0034728
-0.0057405,-0.0070678,-0.017353,-0.0041499,-0.0095294,-0.0054707,0.00081494,-0.0034728
0.0011968,0.01766,0.022076,0.0019885,0.014081,0.0096506,-0.0072017,-0.0022662
6.7086e-05,0.010377,-0.0012819,0.0082189,-0.00094255,-0.0064573,0.0080389,-0.00089234
-0.016799,-0.0447,-0.025021,-0.016609,-0.0078532,0.00091156,-0.00030732,-0.0073317
0.0054454,0.0086716,0.021106,0.029124,0.00099233,-0.015089,0.014692,-0.0060982
0.0044536,0.0065687,-0.003539,-0.003003,-0.013642,0.00026152,-0.0093892,0.010524
0.0037805,-0.0038803,-0.0051371,-0.011436,0.002782,0.0079309,-0.0021561,0.0034175
0.019116,0.0167,0.0086474,-0.0040072,0.011101,0.015742,-0.0025918,0.0038119
-0.0042177,0.013936,0.0067829,-0.01198,0.0034541,0.00023841,-0.0028171,-0.0039153
-0.011574,-0.0040968,-0.033912,0.0037022,-0.0045285,-0.015194,-0.0027889,-0.0041223
-0.010835,-0.013773,0.0039958,0.0039724,-0.0049871,0.00061678,0.0053137,0.0032168
-0.0020766,-0.0071802,0.011314,0.004439,0.0021561,-0.0071079,0.0058302,0.0025114
-0.008812,8.0349e-05,-0.019703,0.005059,-0.006443,0.016235,-0.0013198,0.0016195
0.023578,0.023594,0.067111,0.021383,0.016187,0.00027235,0.0071836,-0.015025
0.009086,-0.030477,-0.033162,-0.016999,-0.00017965,-0.0081401,-0.0078589,0.0073395
-0.013305,0.0018079,0.0072624,-0.008625,-0.0085934,-0.0011598,0.00029823,0.0062981
-0.0046243,0.0031074,-0.015115,-0.0082583,-0.0011879,0.0056695,-0.0075025,0.0053794
0.0037738,0.0044971,0.0087651,-0.00030697,-0.0091797,-0.0031531,-4.8931e-05,-0.010955
0.0039771,0.013605,-0.022834,-0.00037812,0.0065045,-0.0040433,0.0070652,-0.0035704
-0.004092,0.030259,0.022931,0.015026,0.0067894,-0.0046718,0.0061271,-0.003676
0.0029697,-0.031608,-0.025574,-0.0087,0.0072623,-0.0049344,-0.010522,0.0043549
0.0017535,-0.02361,-0.0038708,0.0066477,5.2211e-05,0.018645,-0.0036368,0.012663
0.00017519,0.0074245,0.018229,-0.0013758,-0.014914,0.0035194,0.0035265,-0.0022838
-0.0015888,-0.0086676,-0.013493,0.0063123,-0.0064642,-0.0035632,-0.0045114,-0.0015532
-0.011118,0.0064603,0.010658,-0.0015503,0.0097019,0.0050213,0.011394,-0.00091394
-0.0047188,0.0061748,0.0048226,-0.0093717,0.0022705,-0.0021836,0.0043679,-0.00049382
-0.0055983,-0.0015136,0.015664,-0.0093761,0.0024427,-0.0097273,-0.0022351,-0.00037528
0.017649,0.014743,0.0036439,0.014038,-0.0054367,-0.0020805,-0.0085674,-0.0083867
0.010374,0.0080355,-0.00064507,0.0061866,0.0098756,-0.0026676,0.0086158,-0.0010326
0.0037257,0.0016374,0.017721,-0.0016505,0.0015276,0.0042626,-0.0055698,0.0061837
-0.0025207,-0.028146,-0.051226,-0.0094184,-0.0069853,-0.0045107,-0.0044144,-0.0022027
-0.0008608,0.004334,-0.0047047,-0.0092404,-0.0077576,0.0025224,0.0041634,0.005221
0.00056883,0.020701,0.0010209,-0.0010623,-0.00066841,-0.0056445,-0.003307,-0.0026674
-0.014125,-0.026076,-0.010279,0.007326,-0.0090248,0.010219,-0.0033495,-0.0023691
-0.013846,0.020235,0.032322,0.023711,0.014163,0.0111,0.00413,0.0060927
0.0013957,-0.027752,-0.0032106,-0.0066762,-0.0013469,-0.0030925,0.0036316,-0.00082821
0.0082941,-0.0057468,0.0010969,0.0019796,0.022579,-0.0013237,0.0030951,0.00012945
0.0070822,0.016216,-0.00098119,-0.020775,-0.0078711,-0.0073311,0.0026254,0.0087552
0.013666,0.014968,0.014387,0.0030586,-0.014691,0.0019988,-0.013338,-0.0064025
-0.0029388,-0.0014876,-0.023038,0.0030903,0.0019696,0.0029475,0.0020973,-0.014243
-0.0034648,0.029433,0.027111,0.0027433,0.0028952,-0.004665,0.0020293,0.0086096
-0.019055,-0.040746,-0.031021,-0.013554,-0.019852,-0.013067,0.0098357,-0.00030132
0.0049772,0.0065914,0.0049597,0.0089908,0.011772,0.0090971,0.0020048,-0.0017679
0.0060276,-0.0084277,0.0092553,0.0080131,0.011796,0.0073767,-0.0059055,0.0044323
0.0073489,-0.015682,0.0202,-0.0085416,-0.0041443,-0.010097,-0.013935,-0.012692
0.0087094,0.03155,0.021639,0.021934,0.0030588,0.0038953,0.0091678,0.0096054
-0.005751,0.00036896,-0.056975,-0.017682,0.0022273,0.002781,0.00094667,0.0011965
-0.012788,0.00014052,-0.012406,-0.0023714,-0.0065477,0.0023941,-0.0072709,0.0012324
-0.0047045,-0.0081321,-0.0082813,-0.010282,-0.0075359,0.0028108,0.00022992,0.0096881
0.010677,-0.016512,-0.0048596,0.013216,0.0071878,-0.0038496,0.0079018,-0.0048173
-0.013428,0.0064052,0.037701,0.0055471,-0.0013288,-0.0021605,0.007975,-0.0034287
0.0012794,0.0060812,0.034186,-0.0021198,-0.0017413,0.0075868,0.00044422,0.0058031
0.0081397,-0.0017536,-0.030508,-0.002047,-0.0017989,-0.006188,-0.0069327,-0.008591
0.01518,0.014184,9.5463e-05,-0.0099141,0.0063295,0.003082,-0.0064363,-0.0077048
-0.00086456,-0.0086592,0.016535,0.0055034,-0.00082637,0.0039167,0.0018213,0.000582
-0.0086459,0.0077162,-0.0049831,0.0051504,8.8592e-05,-0.011606,-0.005707,0.00067135
-0.0081511,0.016264,0.0053255,-0.00312,0.0089559,0.0034172,0.0099545,0.008292
-0.015078,-0.022245,-0.03905,-0.0036147,0.0022056,-0.013356,0.001882,0.00015495
0.0173,-0.014184,0.0020134,0.011566,-0.01247,0.00082482,-0.0064873,-0.00014751
0.01066,-0.0064701,0.0031783,-0.0043566,-0.01172,0.0071824,0.01615,-0.00030173
-0.0039703,-0.0068717,-0.0044369,-0.012228,-0.0033921,0.0059761,-0.008225,-0.00023451
0.012262,0.031599,0.041742,0.011466,0.012524,0.01301,-0.0091505,6.4589e-05
-0.01111,0.0075266,-0.014294,-0.0035402,0.012637,0.0049134,-0.0098907,0.0083608
-0.011651,-0.0086383,-0.00032229,-0.0025567,-0.0029938,-0.010548,0.0053467,-0.0066842
0.0028739,-0.0011721,-0.025339,-0.0012569,-0.003062,-0.010072,-0.0023766,-0.0061136
-0.0064352,-0.0090972,0.0047511,0.00025462,-0.01097,-0.0016527,0.013859,0.002161
-0.00026412,-0.0011811,0.0042552,0.0096363,0.0045428,-0.0010948,0.0071216,-0.0053723
0.0060554,0.014702,0.0045253,0.011077,0.0043989,-0.00072493,0.00068302,0.0024975
0.0049857,0.0072184,0.021125,-0.0034262,0.012005,0.0071943,0.0021082,0.010142
-0.0032759,-0.023715,-0.0086578,-0.01841,-0.019552,-0.00078023,-0.012326,-0.0058516
0.0047837,-0.0078483,0.00079354,-0.018351,0.0034483,-0.0011567,-0.0038233,0.0014381
0.013476,0.0079121,-0.013378,0.02017,-0.0049453,-0.001652,-0.0038238,0.00081635
-0.01645,0.00012935,0.003203,0.003474,0.0099672,0.0056601,0.003223,-0.0076588
0.0084803,0.023517,0.01909,0.01765,0.0013511,-0.0025475,0.00175,0.0073187
-0.0057858,-0.0078197,-0.036058,-0.0073994,0.00052347,0.0050654,-0.00025069,-0.0010738
0.0029864,0.015547,0.017593,-0.0089253,0.007572,-0.0026916,0.0053009,0.0062745
-0.012254,-0.046948,-0.022789,-0.017925,-0.02428,-0.010169,-0.012538,-0.0096537
-0.0046883,0.01569,-0.00058689,0.0048813,-0.0011872,0.0060598,0.0090232,0.0058706
0.0023157,0.0082,0.014234,0.0049526,0.014421,0.0068905,-9.8447e-05,-0.0096176
0.001114,-0.014706,0.021911,0.005766,-0.00086391,-0.015559,-0.00071114,-0.0014086
0.0075582,0.0094545,0.0068766,0.015047,0.0076122,0.0089343,0.015014,0.0070605
0.01407,0.018106,-0.0075795,0.001336,-0.0071253,0.0099565,0.00011546,0.00013365
-0.0025888,-0.01232,-0.013968,-0.012236,-0.0061743,-0.0047818,-0.014324,0.0089934
-0.011033,0.0039403,0.0029098,-0.010394,0.010266,-0.004119,-0.0050696,-0.0055248
0.0044244,0.0042095,0.0035643,0.0065344,0.002931,-0.0037424,-0.0035752,0.0033285
-0.0030991,0.011788,0.018925,0.014871,0.0029026,0.0041354,0.005614,-0.011453
-0.01023,-0.028065,-0.021452,-0.0089275,-0.0055361,-0.0039068,0.006752,0.0046999
-0.0014476,-0.005914,-0.031519,-0.017929,-0.014562,0.0034358,-0.0080421,-0.0029829
0.0074886,-0.0075192,-0.0031307,0.0037034,-0.0084294,0.0028085,0.0002702,0.004522
0.00080359,-0.0013671,0.0017157,-0.0062005,0.013081,-0.013505,0.0082597,-0.0040251
0.017406,0.044089,0.053897,0.023054,0.011185,0.017086,0.00033023,0.002682
-0.0053437,-0.019323,0.0133,-0.0097377,-0.0060158,-0.0069074,0.007775,0.0012979
-0.0050514,0.0038769,-0.033787,-0.0027522,0.00079089,0.0083068,-0.0084123,-0.00024898
-0.0052021,-0.019088,-0.032552,0.005056,0.00051963,-0.0075756,-0.0090973,-0.0018313
-0.0057718,0.0054213,0.024687,0.0058081,-0.0067743,-0.007703,-0.0020038,0.0044904
-0.0066623,0.022477,0.012566,0.0070902,0.017912,6.4759e-05,-0.0026554,0.0032087
0.0079074,0.0005104,0.0086818,0.00075305,-0.011516,0.015668,0.020302,-0.0055765
-0.00094182,-0.013938,-0.0031989,-0.0057642,0.0062783,-1.6194e-05,-0.011166,-0.0061649
0.0060251,0.0022943,-0.00021098,-0.012789,-0.0070815,-0.000159,0.0045636,-0.014139
0.01331,-0.0056382,-0.0062249,0.0029054,-0.0049575,-0.0082217,-0.0028028,0.02519
-0.002465,-0.014298,-0.021453,-0.01342,-0.0031654,-0.0242,-0.0098584,-0.0054102
-0.010064,0.0077237,-0.0067898,0.00084719,0.0059809,0.022246,0.01457,0.011158
-0.0095621,-0.0017923,0.0067951,0.0068861,-0.0010161,0.0061574,5.6751e-05,-0.0033576
0.0067434,-0.0034436,-0.011503,0.0050068,-0.00072227,0.0056952,0.0011562,-0.010035
0.0074826,0.018715,0.032573,0.01114,0.0068977,-0.010373,-0.0057017,-0.0011935
0.00036398,-0.0053989,0.0066645,0.0020876,-0.0015362,-0.002993,-0.012816,-0.00037192
-0.014683,0.010239,-0.010789,-0.01421,0.0052941,0.0043626,0.01099,0.00019113
0.0091846,0.010878,0.019401,0.016944,0.0040259,0.003831,0.0031892,0.00049724
-0.0061532,-0.019304,-0.0043896,-0.0061059,-0.01307,-0.0046384,0.0028637,0.008406
0.0018304,-0.010263,-0.019855,-0.0053908,-0.0068321,0.0023597,-0.005549,-0.0072568
0.0019181,0.0064696,0.0040015,-0.0045228,-0.00058586,-0.0064221,0.0014806,-0.0073458
0.0097569,0.0072367,-0.003367,-0.019278,0.0057939,0.0081281,-0.0071899,0.0082072
-0.0059021,-0.015888,-0.018672,0.012741,0.012432,-0.00076636,-0.00020381,0.00037674
0.0017966,0.0074257,0.012738,0.021181,-0.0039973,-0.0095283,0.014717,0.0082235
0.0015719,0.014817,-0.0028146,-0.0017638,-0.0043498,-0.0023695,-0.0092417,0.00046051
-0.0066027,-0.024736,0.012937,-0.0091717,0.0036052,0.0052456,0.0060733,-0.0073451
-0.0071073,-0.0094076,0.0054668,-0.0087934,-0.011385,0.0056329,-0.0018457,0.00037397
0.015712,0.021977,-0.0016607,-0.00056784,0.005314,0.014487,-0.0095951,-0.0076688
-0.0083891,-0.00074628,-0.0083907,0.0077362,-0.0088981,-0.022886,0.0062125,-0.00022378
0.006623,0.031824,0.01649,0.016134,0.016146,-0.0050164,-0.001351,0.0071241
-0.017266,-0.021047,-0.020891,-0.014453,0.002142,0.013241,0.006732,-0.0011776
-0.0018346,-0.011151,0.012085,-0.0059515,-0.0042263,0.0082237,-0.00081684,-0.0016027
0.013914,-0.0091041,-0.01762,0.0025041,0.0046731,-0.004701,-0.00838,0.0059322
-0.001273,-0.0074164,-0.00085981,-0.0047991,-0.010361,-0.010161,-0.00031956,-0.0097647
0.015034,0.024875,0.023105,0.011113,0.00529,0.0072555,-4.5502e-05,0.0060127
0.00020463,0.0016273,-0.00054752,-0.0045236,-0.0030452,-0.0151,0.0080995,0.0063633
-0.006857,-0.022561,-0.0093682,0.0029265,-0.019637,0.016464,-0.0071093,-0.00096726
0.0015112,0.046104,0.012321,0.010011,0.026002,0.0082335,0.0090236,-0.00044756
-0.021669,-0.034384,-0.00563,-0.014486,-0.006538,-0.016232,-0.0060175,-0.015617
-0.013928,-0.013728,-0.0239,0.0076463,0.00014455,-0.0020531,0.0024153,0.0081236
0.024777,0.0068909,-0.0030976,-0.025021,-0.0006524,-0.0036869,0.0030135,0.008212
0.00079589,-0.011184,0.0024341,0.012677,-0.0010173,0.0025378,-0.012103,-0.0075622
0.0079994,0.026161,0.024249,0.0037226,0.0068694,0.016822,0.0038736,-0.00012021
-0.00037994,0.017617,0.015675,0.010759,-0.00051505,0.0002397,0.0040145,-0.00066133
-0.0086493,-0.036721,-0.0075986,0.0026231,0.00010608,-0.0080872,-0.0039024,-0.0012983
0.0066474,0.0036771,-0.030036,-0.012861,-0.0070968,-0.00037065,0.011366,0.013679
0.0064244,0.013541,0.018452,0.0033041,0.0011053,-0.0079552,-0.0048439,-0.010333
-0.0093629,0.00027816,-0.0030753,-0.0037033,0.0089152,0.008078,0.0022133,0.0048586
-0.0016936,0.01811,0.0065913,-0.0028106,-0.0072056,-0.0071252,-0.0064378,-0.011016
-0.0096474,-0.011528,-0.015375,0.005791,-0.016015,0.0009594,-0.015065,0.0045541
0.0058549,0.0047954,0.024527,0.014118,0.021639,0.016571,0.0076917,-0.0031436
-0.0020154,-0.03461,-0.022266,-0.0091967,-0.0034385,-0.0072502,0.0072342,0.0048897
-0.0019487,0.0031645,0.00050921,-0.0016924,0.0027443,-0.00021437,0.007048,0.0051194
0.013917,-0.006577,-0.00074592,-0.01019,-0.00642,-0.001333,-0.00068856,-0.0025724
-0.0012723,0.0069238,0.0054824,-0.011108,-0.0072425,-0.018301,-0.00041703,-0.0026789
0.0071489,0.012903,0.0038985,0.011387,0.0004667,0.0037368,-5.9863e-05,0.01252
-0.0077545,0.019586,0.010466,0.01847,0.0089857,0.010277,0.00025606,-0.011701
-0.0070067,-0.027466,-0.037028,-0.013083,-0.0051587,-0.0063264,-0.0073944,0.0028185
0.0014856,0.035841,0.025664,0.010628,0.012552,0.016543,0.0003547,0.0015114
-0.005799,-0.0094332,-0.0045356,-0.027538,-0.00066609,0.00080316,-0.007762,-0.023244
0.0023279,-0.015211,0.0050765,0.020789,0.0017014,0.0011164,-0.00045424,0.0069082
0.0023926,0.010249,0.015189,0.0069931,0.0036548,0.001778,0.0067334,-0.0015603
0.0021939,-0.027241,-0.013613,-0.014501,-0.02638,-0.020751,0.0060856,0.0061981
0.001736,0.0047922,0.0042162,0.018507,0.0051362,0.0037514,0.0055041,0.022426
0.0088506,0.0046045,-0.017626,-0.011455,0.012204,-0.010715,-0.0027585,0.0079907
-0.0076758,0.003444,0.0065316,0.012593,-0.00507,0.0061338,0.0047707,-0.013848
0.0069037,0.0014773,-0.0015549,-0.018812,0.00043927,0.0074155,-0.0031469,0.0035381
-0.0098232,0.014625,0.020667,-0.011862,-0.0099752,0.00093075,-0.018701,-0.018224
-0.010866,-0.019245,-0.028151,0.0023844,0.010958,0.010079,-0.0028386,-0.0090168
-0.0039035,0.017437,0.016394,0.00078081,-0.0067048,0.0035338,0.0053671,-0.0001839
0.011191,-0.02343,-0.024982,0.014902,-0.0001846,-0.011004,0.0058938,0.0082882
0.0032629,0.0068389,-0.0034523,-0.0018377,0.015037,-0.010226,0.014327,0.00869
0.0035955,0.0068025,0.026596,0.013255,0.0077009,0.013564,-0.00064644,-0.0066422
0.012149,-0.0079305,0.026254,-0.0022588,-0.0067201,-0.010021,-4.2486e-05,0.001497
-0.0024401,0.017178,-0.020119,-0.0093945,-0.005042,0.0049396,-0.0073802,0.009762
-0.016896,0.0037471,-0.0033225,-0.0083418,-0.011003,0.0038173,-0.01491,0.0025407
-0.00014821,-0.0016629,0.01386,0.0084562,-0.0014552,-0.013265,0.00078004,-0.0046117
0.00076901,-0.02281,-0.015765,0.0016723,-6.4332e-05,0.00074,0.0084576,-0.0040163
0.0013715,0.010346,-0.014358,0.0023355,0.016468,0.006961,0.008183,-0.003647
0.0016166,-0.019567,-0.021179,-0.013128,-0.014401,0.0055796,4.4376e-05,-0.0036502
-0.0062828,0.020189,0.026182,0.0021254,0.001125,0.012363,-0.000237,0.011507
0.0090053,-0.0031746,-0.0050745,-0.0065204,0.0084651,-0.019477,-0.016015,-0.0050606
0.00072354,-0.0036145,0.0023156,0.0079605,-5.199e-05,-0.0039861,-0.00036004,0.009231
0.0080642,0.026834,0.056273,0.014512,-0.00084318,0.0041053,0.015487,-0.015763
-0.01573,-0.036661,-0.046218,-0.01792,-0.009406,-0.010925,0.0002389,-0.0095049
-0.00026093,0.024809,0.015258,0.004575,0.0056043,0.028914,0.00069035,0.0048087
-0.00017822,0.00043921,-0.032638,0.011787,0.012994,-0.0015262,-0.0067018,0.003948
0.00012347,-0.015917,0.0055175,0.0037529,-0.010652,-0.0086338,0.0092068,0.019294
0.0083783,0.014875,-0.0029677,-0.011735,-0.0028411,-0.015954,0.0014641,0.0039978
0.0010209,-0.016515,0.012346,-0.011297,-0.0026563,-0.00010666,-0.014329,-0.010771
0.0013333,-0.008505,0.0046922,0.0049877,0.0054983,0.0076559,-0.0068813,-0.0017404
0.0091636,0.031078,0.0132,0.013606,-0.0018455,0.0073821,0.0082808,-0.00036764
-0.014661,-0.022813,-0.024635,-0.016763,-0.0012832,-0.00084551,-0.0077709,-0.0068548
-0.007677,0.0094217,-0.0073378,-0.0002432,-0.00066665,-0.0091174,0.0075965,-0.0057316
0.0067362,0.010471,0.025859,0.0084165,-4.7289e-05,0.013908,0.0076002,0.0029182
-0.010333,-0.02763,-0.011223,-0.0064769,0.00050781,-0.0098227,7.4621e-05,0.0034588
0.011647,0.027774,0.006141,0.0096864,0.0087305,0.0056713,0.0083978,0.0037474
-0.0052015,-0.010958,-0.00044892,0.0099513,-0.0067136,-0.0020974,-0.0066222,-0.0039593
-0.0059736,0.012332,3.6365e-05,0.0020651,0.0087919,-0.0018945,0.001722,-0.0039745
0.0094734,-0.011751,-0.0081519,-0.0061855,0.00052371,-0.0015736,-0.013607,0.011543
0.0099205,-0.012828,0.014056,-0.014763,-0.015873,-0.009009,0.0019636,0.0035139
0.0030913,0.0092549,-0.026939,-0.015745,0.0065674,0.0069697,0.0015224,0.01095
0.0044205,-0.0077837,0.0097672,0.0066686,-0.0023138,-0.00060487,-0.0070648,-0.020904
-0.0097771,0.0066137,-0.00045565,0.0058099,-0.0032528,0.022859,0.0075849,-0.0061574
-0.016313,0.0057951,0.0052886,0.013122,-0.0038528,-0.0086627,-0.0012184,0.0083113
0.0080545,-0.0022739,0.0039162,0.013113,-0.0039432,-0.0092846,0.013601,-0.00087279
-0.014903,0.0058905,-0.0043283,-0.017619,0.012188,-0.0024452,-0.0024666,-0.0023342
0.0085651,-0.016663,-0.019356,-0.0010166,0.013264,-0.011514,-0.010236,-0.011529
0.0082411,0.015815,0.036871,0.0080732,-0.00086273,0.010524,-0.0096605,0.010783
0.015531,0.017118,0.023483,0.009439,0.0086287,0.0091769,0.0070332,0.0022492
-0.01626,-0.028671,-0.03644,-0.020574,-0.013235,-0.0075163,0.016286,0.0098253
-0.00103,0.011002,-0.018301,-0.004016,-0.0042186,-0.00027736,-0.013339,0.0022575
-0.0011604,-0.0046469,0.0072202,-0.0034884,-0.019193,-0.00019077,0.011681,-0.0049168
-0.00096874,0.010296,0.0086,0.0044343,0.004278,-0.0071777,-0.0026375,-0.0040353
0.0073464,-0.029978,-0.0143,0.0041968,0.0037609,0.0021672,-0.0096162,-0.0030867
0.0080873,0.023224,0.032276,0.019364,0.0028617,0.019882,-0.0015746,-0.0022338
-0.014489,-0.017264,-0.023417,-0.0045979,0.0096178,-0.0011609,-0.0019949,-0.0015918
-0.0058335,-0.010483,-0.017101,-0.020668,0.00081608,-0.006592,-0.0030181,0.0066052
0.010481,0.012565,0.012412,0.0025117,0.0078811,-0.0045566,0.011106,-0.0010551
0.010909,0.036359,0.034112,-0.0053195,-0.008156,-0.0031564,0.0014923,-0.0010501
-0.012423,-0.0016871,-0.014313,0.010503,-0.00041692,-0.0025852,-0.00040882,-0.0010726
-0.0048393,-0.015891,-0.0077445,0.0030099,-0.015852,0.0049046,-0.0022177,-0.0088127
-0.013176,-0.0066245,-0.0086332,0.0032953,0.0079084,-0.011863,-0.0037729,0.014885
0.017328,0.017902,0.022077,0.026801,0.0082144,0.0098099,0.010667,-0.00025449
0.00082034,-0.012951,-0.025032,-0.028204,0.00055193,0.0077097,-0.0057081,0.00042373
-0.00011731,-0.021233,-0.0093907,-0.01339,0.00044984,-0.0022126,-0.0060072,-0.01443
0.014576,-0.0069219,0.014251,0.00092462,6.5018e-05,-0.0040173,0.0019282,0.017534
-0.0097475,-0.0088683,-0.0010449,-0.0085929,-0.0083678,-0.013073,-0.0054045,0.0023988
0.0050629,0.043594,0.022786,0.012952,-0.0012885,0.017661,0.0031518,-0.0052951
-0.01909,0.0024412,-0.0080656,0.0033265,-0.0019557,0.0023008,0.019675,-0.0056364
