0.03388,0.042164,0.53436,0.17132,0.030984,0.029131,0.0086111,0.021837
-0.02087,-0.0022923,-0.033337,-0.00060522,-0.041765,-0.03358,-0.013089,-0.024384
0.034507,0.0403,-0.20847,0.52062,0.064283,0.044565,0.019535,0.02272
-0.065757,-0.12779,-0.0042818,-0.10727,-0.072551,-0.04899,-0.018698,-0.063399
0.014057,0.055099,0.26742,-0.23676,0.0012411,0.0060248,0.0049441,0.022066
0.031498,0.049247,0.043079,-0.24588,0.051803,0.022083,0.012374,0.037112
0.001929,-0.059732,0.015373,0.39211,-0.021868,0.0069778,0.0037328,0.005373
-0.012373,-0.037394,-0.38195,-0.34345,-0.0083296,-0.0080535,-0.020752,-0.010488
0.011882,0.093276,0.21397,0.40993,0.030279,0.0082293,0.0016891,-0.0025573
-0.019105,-0.018536,-0.24806,-0.46849,-0.015259,-0.022299,-0.014617,-0.0098717
-0.034963,-0.090685,-0.3735,-0.019739,-0.012197,-0.005874,0.00084692,-0.0090295
0.066023,0.13551,0.93606,0.5373,0.047,0.041909,0.048177,0.046764
-0.036248,-0.14401,0.030019,-0.31147,-0.072492,-0.042972,-0.013291,-0.053529
-0.0056164,0.016339,-0.27226,-0.19601,0.027214,0.012954,-0.0040455,-0.005333
0.033094,0.18665,0.11564,0.70759,0.04084,0.0065682,-0.010303,0.027183
-0.037211,-0.12597,-0.28854,-0.59703,-0.055616,-0.015299,-0.016766,-0.0029644
0.041261,0.0070581,-0.44209,-0.52876,0.0029871,0.0019258,0.015317,0.013496
-0.020676,-0.01713,0.18327,0.28122,-0.01028,0.011183,0.0075943,-0.0016583
0.011148,0.081429,0.27251,0.49678,0.060609,0.027857,0.0068452,-0.0016283
-0.019754,-0.081075,0.34608,0.5455,-0.01097,-0.026437,-0.010305,-0.017698
0.027035,0.065163,-0.01439,-0.34193,0.032907,0.027773,0.0032353,0.012657
-0.028303,-0.12819,-0.40111,-0.34173,-0.096533,-0.036192,-0.030322,-0.0042184
-0.021721,-0.043239,-0.1584,-0.33286,-0.016025,-0.02298,-0.0090195,-0.029106
0.03908,0.13371,0.43785,0.30732,0.056262,0.028558,0.028448,0.024125
-0.0097377,-0.025597,0.10268,0.070878,0.011604,-0.014025,0.0042151,0.0072302
0.019621,0.0506,-0.21499,0.014813,0.045951,0.029422,0.027743,0.014117
-0.013151,0.035361,0.19197,-0.62233,-0.043274,-0.020315,-0.010456,-0.009809
-0.021834,-0.086168,-0.49169,0.2582,-0.052559,-0.014411,-0.0091037,-0.0020349
0.017197,0.076904,0.07641,0.32491,0.049511,0.023915,0.015782,0.0061306
-0.028823,-0.1241,-0.025623,0.43204,-0.018419,0.00090585,-0.029954,-0.024491
0.0040468,-0.11957,-0.26574,-0.52978,-0.061435,-0.013374,-0.021642,-0.0081119
0.076445,0.22224,0.23981,0.20221,0.099455,0.043123,0.02491,0.031663
-0.030818,0.056262,0.86645,-0.017804,-0.021071,-0.017678,-0.0074997,-0.0068969
-0.02138,-0.079836,-0.28464,-0.21184,-0.010046,-0.024485,-0.001534,-0.014571
0.018329,0.0079672,-0.2066,0.33276,0.037712,0.0066147,0.027445,0.024136
-0.04487,-0.017209,0.36527,-0.013324,0.051059,0.0050784,-0.013993,-0.015856
0.0076206,-0.062008,-0.92057,-0.32167,-0.048487,-0.013397,-0.0083459,0.021689
0.050908,0.13169,0.24991,-0.050863,-0.026252,0.029704,0.029028,0.0040417
-0.08651,-0.24759,-0.33096,-0.32785,-0.14683,-0.083707,-0.042301,-0.05298
0.041276,0.15339,-0.18224,0.16831,0.068033,0.045637,0.027786,0.007175
0.083447,0.10235,0.87251,0.66585,0.12045,0.082652,0.036223,0.059895
-0.092018,-0.17192,-0.053847,-0.56084,-0.15146,-0.11256,-0.063853,-0.066273
0.078118,0.25447,0.54017,0.30709,0.20725,0.11672,0.040045,0.058753
-0.10088,-0.17945,-0.15104,-0.17281,-0.17736,-0.12787,-0.074003,-0.056932
-0.019324,-0.16827,-0.69304,0.31084,0.061992,0.036179,0.03141,0.000844
0.033713,0.084648,-0.53558,0.24551,0.064888,0.037822,0.020173,0.028834
0.026573,0.077968,0.31642,-0.36825,-0.069128,-0.030241,-0.0064375,0.01105
0.05221,0.067164,0.35845,-0.48421,0.055653,0.057311,0.044928,0.017222
0.023587,0.14285,0.29024,0.40506,0.014358,0.025797,0.0097218,-0.00024356
-0.021489,-0.081276,0.46153,-0.043199,0.022967,-0.039883,-0.018801,-0.026465
-0.037336,-0.069486,-0.53378,-0.43535,-0.069026,-0.030992,-0.017603,0.00041837
-0.10299,-0.26183,-0.52154,0.36646,-0.16108,-0.088269,-0.065018,-0.045015
0.023254,0.090395,-0.48968,-0.24037,0.028255,-0.0003331,0.0030652,0.0011673
0.091471,0.19052,0.59091,0.58795,0.13309,0.12435,0.06977,0.061022
0.03191,0.1731,0.88249,0.16461,0.061842,0.029194,0.010619,0.017816
-0.076347,-0.34951,-0.57071,-0.25146,-0.096967,-0.073587,-0.033119,-0.049676
-0.028994,-0.16258,-0.76564,-0.43204,-0.028258,-0.010952,-0.013919,-0.0078961
0.097044,0.38627,0.57124,0.54726,0.090445,0.046085,0.037522,0.042322
-0.064393,-0.10579,0.593,-0.30988,0.0027977,-0.0035743,-0.011234,-0.046856
-0.028241,-0.097333,-0.24551,-0.39695,-0.056197,-0.0427,-0.019412,-0.0094128
0.01824,0.076479,-0.0069863,0.60446,0.0070158,-0.0013226,0.0050863,0.021952
0.043561,0.024126,-0.46548,-0.82303,-0.0037509,0.026179,0.0072766,0.03143
0.070497,0.15724,0.2312,0.59925,0.12113,0.085892,0.041396,0.042016
-0.058148,-0.074527,-0.061985,0.046496,-0.11202,-0.088607,-0.041512,-0.048474
0.0316,0.16874,0.24806,0.097383,0.029832,0.025444,0.015859,0.017104
-0.11428,-0.29604,-0.030557,-0.039589,-0.15752,-0.095852,-0.044706,-0.074336
-0.051057,-0.33053,-0.86748,0.52117,0.012777,-0.023022,-0.012526,-0.01069
0.10389,0.31443,0.61366,-0.3519,0.18885,0.13455,0.065441,0.051639
-0.0086207,0.0067356,0.21152,-0.31393,-0.035588,-0.052707,-0.029485,-0.0044555
0.049365,0.060733,-0.54248,-0.46403,0.0036039,0.087192,0.038815,0.040023
-0.10439,-0.13828,0.3328,0.34324,-0.15445,-0.15664,-0.073164,-0.064594
0.085344,0.24033,0.40772,0.092062,0.13088,0.13764,0.048897,0.049208
-0.037285,-0.12172,0.099468,0.0035204,0.0079594,-0.053519,-0.024449,-0.032368
0.059197,0.097192,-0.014531,0.23796,0.078355,0.035463,0.035123,0.026794
0.038942,0.061702,-0.46048,0.35489,-0.064007,-0.0093838,0.0090289,0.031494
-0.05112,-0.11094,0.17318,-1.0553,0.042319,-0.00021021,-0.0010174,-0.018188
-0.007732,0.024458,-0.37131,0.49486,-0.10956,-0.037937,-0.018299,-0.020586
-0.13529,-0.25085,0.066719,0.16307,-0.17461,-0.10605,-0.0739,-0.069289
0.035408,0.024358,0.30937,-0.33266,0.082997,0.054245,0.027659,0.023418
0.067369,0.1318,-0.26939,0.55979,0.07079,0.02974,0.036496,0.054635
5.1267e-05,-0.076581,-0.049619,-0.21812,0.070765,0.070915,0.015123,-0.014543
0.013225,0.14915,0.074715,0.39186,0.08283,-0.0020072,0.0024581,0.0033917
0.044014,0.034664,-0.087854,-0.69209,0.027827,0.028993,0.0138,0.014491
-0.041268,-0.11722,0.0026279,-0.065933,-0.080447,-0.048309,-0.029455,-0.012914
-0.0095326,0.01889,0.1939,-0.28471,-0.072378,-0.032408,-0.018498,-0.0012835
0.043992,0.15071,0.39849,0.52814,0.034219,0.036001,0.0070545,0.0096596
0.055427,0.095466,0.42995,0.32085,0.050231,0.061866,0.054575,0.042749
-0.077753,-0.078767,-0.48005,-0.65304,-0.23594,-0.15082,-0.055862,-0.074311
-0.10585,-0.33369,-0.89046,0.54736,0.11369,0.0073907,-0.011738,-0.021343
0.010696,-0.043223,0.75004,-0.34089,0.014674,-0.0017074,-0.00026587,0.014344
0.038733,0.12368,-0.56672,0.47301,0.11774,0.081167,0.041575,0.017624
0.058153,0.09317,0.28043,0.27129,-0.0041817,1.4093e-05,-0.010533,0.036084
-0.038453,-0.036118,0.03445,-0.59398,-0.16114,-0.055853,-0.015226,-0.038845
0.00071109,-0.040919,-0.33903,-0.62233,0.00030054,0.047868,0.0047429,0.0045255
-0.034002,-0.019509,0.089082,0.038294,0.074871,-0.055099,-0.043847,-0.028549
0.20172,0.52956,0.74871,0.61481,0.21871,0.17451,0.11273,0.10442
-0.14393,-0.33962,-0.10286,0.036593,-0.22558,-0.14664,-0.080203,-0.08096
0.014025,-0.059184,-0.13992,0.10676,0.091533,0.035045,0.017688,0.024378
-0.052482,-0.10162,-0.19542,-0.38097,-0.16061,-0.039729,-0.016006,-0.025425
-0.01706,-0.064984,-0.39378,0.43591,0.038781,-0.0053595,-0.0023046,-0.012307
0.079539,0.14819,0.53708,-0.065409,0.11703,0.050768,0.050201,0.055203
-0.045321,-0.027883,-0.17892,0.24236,-0.083875,-0.075576,-0.038909,-0.042285
0.060593,0.17037,0.18933,-0.42635,0.044533,0.099349,0.042291,0.038507
-0.063957,-0.19517,0.091642,-0.22201,0.017881,-0.041755,-0.042461,-0.022969
0.042262,0.13412,-0.69368,-0.057913,-0.077011,-0.0063232,-0.01194,-0.00012997
-0.096502,-0.25387,0.32318,-0.032168,-0.058872,-0.067021,-0.037752,-0.048958
-0.025971,-0.075163,-0.25016,-0.014378,-0.050691,-0.01971,-0.010017,-0.0049375
0.1692,0.31382,0.46008,0.43905,0.26213,0.19138,0.12658,0.093416
-0.033242,0.00167,0.33598,0.25544,0.045495,-0.018702,-0.01013,-0.018986
-0.06209,-0.048748,0.072687,-0.4521,-0.30082,-0.16482,-0.083686,-0.037018
0.06753,0.15573,-0.27442,0.2945,0.15355,0.081597,0.039077,0.03178
-0.0036858,-0.025512,-0.13327,0.11957,-0.0054628,0.009753,0.0067363,-0.0078134
-0.10416,-0.37446,-0.9306,-0.36186,-0.020652,-0.068027,-0.063584,-0.038691
0.078035,0.14674,0.27484,-0.16034,0.06011,0.074405,0.062263,0.048314
-0.035912,-0.025774,0.26811,0.22957,-0.069032,-0.016651,-0.014498,-0.036147
0.014243,0.044203,0.38023,-0.53715,0.0048974,0.033177,0.018254,0.0044962
0.063862,0.29314,0.7764,0.57096,0.062371,0.012387,0.019546,0.02934
-0.04368,-0.16244,-0.38804,0.54771,-0.021923,-0.032531,-0.034304,-0.00088777
-0.011635,-0.10403,-0.28756,-0.94793,-0.0055885,-0.023584,-0.018398,-0.0081762
-0.089884,-0.14081,-0.44111,0.11071,-0.18483,-0.13251,-0.049859,-0.062848
0.089082,0.16531,0.25764,0.21111,0.074117,0.11762,0.05901,0.061746
0.025697,0.026107,-0.22445,0.24616,0.1941,0.086623,0.035045,0.0142
-0.037408,-0.065343,-0.16133,-0.049003,-0.097599,-0.068834,-0.027731,-0.033418
-0.013943,-0.0067736,-0.029177,-0.35525,-0.035149,-0.0047639,-0.019741,-0.018423
0.11972,0.1787,0.47716,-0.16823,0.060732,0.067895,0.07473,0.07496
-0.10515,-0.18879,-0.088168,-0.032707,0.001537,-0.03078,-0.049038,-0.04224
0.014422,0.14791,0.60858,0.31712,-0.0032453,-0.035564,-0.0083621,-0.0028019
-0.029641,-0.12477,-0.5147,0.73185,-0.0021062,0.014026,-0.014366,-0.0020608
-0.026722,-0.031522,0.10717,-0.11757,-0.12932,-0.085531,-0.036003,-0.024453
0.038473,0.035789,-0.15584,-0.58981,0.090678,0.056142,0.03591,0.0080575
0.11877,0.26372,0.26311,0.26431,0.23572,0.12649,0.08403,0.064115
-0.15327,-0.34041,-0.36309,-0.60939,-0.31866,-0.13215,-0.079254,-0.067329
0.058158,0.090736,-0.13287,-0.49458,0.030406,0.046147,0.038197,0.035494
-0.036037,-0.090514,0.015228,1.0482,-0.066743,-0.080373,-0.047961,-0.025938
0.025214,0.023433,-0.10464,-0.31218,0.017034,0.0278,0.013952,0.02177
0.10157,0.28587,0.025821,0.054942,0.29933,0.12107,0.044456,0.038
-0.14246,-0.15289,-0.099568,0.23972,-0.23411,-0.12062,-0.096813,-0.10219
-0.011058,-0.18175,0.45537,-0.17882,0.034393,0.013765,0.035726,0.015362
0.097882,0.25531,0.89601,0.53786,0.10431,0.11003,0.059462,0.078256
-0.088655,-0.24732,-0.60032,-0.54067,-0.064896,-0.097764,-0.033342,-0.030628
-0.047048,-0.049226,-0.18054,-0.16184,-0.1238,-0.078828,-0.039665,-0.053489
0.12879,0.27805,-0.34555,0.079764,0.21425,0.1038,0.063646,0.06425
-0.038289,-0.17394,-0.55002,0.32195,-0.19363,-0.04264,-0.020722,-0.021374
0.028907,0.052734,0.23678,-0.46974,0.088408,0.036059,0.0036031,0.0096726
0.1417,0.34533,1.0088,0.14788,0.23934,0.16767,0.081466,0.086792
-0.16982,-0.18213,-0.34664,0.29226,-0.40452,-0.21827,-0.12338,-0.12617
-0.086239,-0.27413,0.10791,0.068547,0.033258,-0.051305,-0.032892,-0.027731
0.056127,0.17789,-0.4531,-0.21895,-0.093517,0.012719,0.032839,0.038461
0.054419,-0.10636,-0.47022,-0.23076,0.29589,0.12287,0.043027,0.02581
-0.074829,-0.20225,0.27365,0.18069,-0.01481,0.014281,0.013933,0.012857
0.0057303,0.10529,0.47253,-0.60025,-0.12535,-0.10919,-0.045942,-0.031166
0.024323,0.078812,0.37462,0.67106,0.1214,0.04211,0.020272,0.019219
-0.017425,0.058739,0.21908,0.074511,0.01433,-0.023635,-0.005719,-0.007453
0.20993,0.47041,-0.45186,-0.0075685,0.067975,0.18587,0.095066,0.076625
-0.16778,-0.35618,-0.71497,0.014688,-0.12558,-0.16546,-0.10706,-0.10336
-0.056575,-0.27243,-0.46922,-0.0775,-0.13068,-0.031059,-0.018552,-0.016111
-0.0036739,0.071739,0.087448,-0.15523,-0.050539,-0.028506,0.0008502,0.010192
0.083854,0.095546,0.91098,-0.14751,0.16052,0.091787,0.060061,0.061289
0.072038,0.21749,0.75185,0.13173,0.087791,0.071642,0.025765,0.01968
-0.14982,-0.31598,-0.29743,0.5475,-0.15169,-0.16736,-0.094722,-0.091627
0.026313,0.046537,0.14433,-0.065661,0.067304,0.077693,0.049722,0.054983
-0.041356,-0.096027,-0.55568,-0.64455,-0.028211,-0.037104,-0.0099928,-0.017601
0.083747,0.20772,-0.71399,0.40851,0.1248,0.074095,0.030611,0.03386
0.057284,0.26955,0.58478,-0.25038,-0.035619,0.020619,-0.0082091,0.0058276
-0.081897,-0.38676,-0.035065,-0.45377,-0.20426,-0.1194,-0.048221,-0.062878
0.0648,0.083777,-0.42093,0.656,0.23657,0.10723,0.059267,0.062088
-0.19743,-0.44188,-0.40982,-0.66372,-0.16575,-0.10403,-0.083813,-0.095651
0.14782,0.4683,0.68421,0.52384,0.089295,0.08296,0.062028,0.058028
-0.015682,-0.019285,0.074675,0.55225,-0.013432,-0.019019,0.0050257,0.0001708
0.055258,0.17539,0.75026,0.12766,-0.051653,-0.01904,-0.0044645,0.012534
-0.0056335,-0.063624,0.20814,-0.33529,0.068632,0.036304,0.018171,0.017427
-0.096073,-0.2828,-0.54537,-0.31445,-0.082252,-0.08716,-0.044158,-0.031726
0.073447,0.10347,0.015271,-0.47603,0.12042,0.11064,0.058506,0.060524
-0.059441,0.00047301,-0.32767,-0.119,-0.058314,-0.065704,-0.072443,-0.080846
0.012881,-0.0071619,-0.24286,0.53644,-0.017756,0.016314,0.015855,0.020582
0.024296,0.13381,0.035378,0.40372,-0.040207,-0.042225,-0.0050607,-0.018225
0.05221,0.039257,-0.35422,0.15481,0.12323,0.078379,0.028499,0.021232
0.0020302,-0.080892,0.10753,-0.71762,-0.028434,0.033728,0.030226,0.029336
-0.072374,-0.21154,-0.032892,0.083958,-0.1209,-0.12205,-0.054885,-0.0488
0.11741,0.25668,0.98338,0.45073,0.2987,0.21227,0.13233,0.11482
-0.22587,-0.26956,-0.27318,-0.49202,-0.33971,-0.25238,-0.16597,-0.14392
0.1009,0.17918,0.46061,-0.32258,-0.035351,0.015627,0.003501,0.026612
-0.058251,-0.15424,-0.60225,0.75512,0.10356,0.024812,0.0082881,0.0015695
0.14094,0.2931,-0.017263,-0.26041,0.10182,0.07299,0.052018,0.046797
0.035023,-0.0022057,-0.20108,0.53495,0.11699,0.059576,0.025856,0.021918
-0.13324,-0.1108,0.1638,-0.25969,-0.17021,-0.10054,-0.06192,-0.072838
0.042863,0.029327,-0.23687,-0.84979,-0.087313,-0.01623,0.0077332,0.0048898
0.032423,-0.074361,0.16748,0.20041,-0.024876,0.0079407,0.016128,0.028632
-0.023739,0.070434,0.074616,0.3668,0.14167,0.081045,0.041213,0.014014
-0.00052574,-0.13707,0.051251,0.5251,0.083362,0.0071372,-0.0033116,1.7271e-05
-0.015103,0.046779,0.047728,0.01344,-0.0055601,-0.019297,-0.0085311,0.0099313
-0.083142,-0.12603,-0.75951,-0.31288,-0.079289,-0.061595,-0.076453,-0.065803
0.11553,0.2138,0.33545,-0.69883,-0.029274,0.028002,0.034777,0.03043
-0.075576,-0.16633,0.3013,-0.20119,-0.13715,-0.10246,-0.034371,-0.053127
0.10094,0.28924,0.44707,0.38872,0.11283,0.093835,0.075504,0.081775
-0.0038757,-0.052439,0.10995,0.39538,0.049345,0.023353,-0.018237,0.0052706
-0.054692,-0.24741,-0.09374,0.12521,-0.10803,-0.055691,-0.018468,-0.0015456
0.057303,0.15499,-0.2903,0.46742,0.19619,0.099334,0.036003,0.022159
-0.058919,0.065596,-0.73752,-0.37157,-0.16244,-0.081516,-0.057759,-0.079881
-0.020676,-0.25349,0.18456,-0.71902,0.011491,-0.0042782,0.012828,0.0049426
0.062861,0.33506,0.17745,0.61226,0.17076,0.073266,0.044596,0.034677
-0.13592,-0.17915,0.063033,-0.44821,-0.15414,-0.091192,-0.032919,-0.060656
0.079035,0.038397,0.13414,-0.1414,0.10613,0.064647,0.02225,0.055249
0.099137,-0.05921,-0.026464,0.80165,0.0053727,0.048401,0.03019,0.038961
-0.10618,-0.13466,0.061994,-0.76946,-0.19137,-0.093156,-0.056134,-0.054638
0.018166,0.14275,0.19154,0.47387,0.10956,-0.00060152,-0.0023865,0.032282
0.0034873,0.042071,0.17618,-0.020434,-0.16172,-0.079986,-0.050653,-0.028566
0.076016,0.074794,-0.12423,-0.037158,0.12067,0.1143,0.088353,0.035939
-0.030497,-0.14629,-0.39685,0.0072407,0.059351,-0.026813,-0.053835,-0.032423
-0.059021,-0.071708,0.0078803,-0.045282,0.030376,0.020306,0.015229,-0.015324
0.036555,0.096874,0.3348,-0.055845,0.065771,0.068186,0.045708,0.040002
-0.072469,0.015806,-0.94307,-0.37827,-0.052803,-0.031779,-0.0092537,-0.022929
0.066772,0.13704,0.74216,0.76538,-0.1847,-0.076774,-0.016969,-0.0088709
0.040336,0.059963,-0.19003,-0.5829,0.1229,0.050019,0.014527,0.035413
-0.049737,-0.11651,-0.16519,0.18733,-0.036755,-0.050167,-0.016574,-0.022613
-0.062067,-0.14498,0.42769,0.036124,-0.0080538,-0.025982,-0.040152,-0.01848
0.02767,-0.12117,0.39183,0.1328,0.067732,0.07563,0.029649,0.0092218
0.0093865,0.039851,0.10555,0.30959,0.033754,0.012552,-0.0024327,0.0062773
0.11811,0.28347,-0.28931,-0.085988,0.030159,0.0037052,0.027829,0.027776
-0.083328,-0.029897,-0.26871,-0.67467,-0.14648,-0.060063,-0.043404,-0.027573
0.022202,-0.08604,-0.47959,-0.091731,-0.050927,0.0011617,0.0028403,0.004398
-0.05791,-0.14081,-0.35577,0.11486,0.10601,0.039142,0.041714,-0.0013859
-0.0197,0.018523,0.7263,0.20298,-0.026895,-0.031915,-0.036111,-0.013914
0.049988,0.17443,0.6974,0.1577,0.08985,0.053704,0.058362,0.021134
-0.0060587,-0.07898,-0.72869,0.55002,0.019234,-0.024277,-0.026574,0.0017602
0.030028,0.023317,0.053248,-0.61987,-0.097636,-0.0080288,-0.0098343,-0.0099773
0.048207,0.15167,0.1873,-0.11813,0.03655,0.032159,0.0069062,0.040236
-0.076865,-0.11798,-0.034965,0.31181,-0.054419,-0.067724,-0.038858,-0.043158
-0.079504,-0.13961,-0.22968,-0.46454,-0.010947,0.0048983,-0.0063823,-0.025863
0.14232,0.24861,0.047874,0.26962,0.018532,0.046969,0.049855,0.053149
-0.12935,-0.27528,-0.0091979,-0.26888,-0.075658,-0.074329,-0.057422,-0.071527
0.028387,-0.016804,0.15814,0.50409,0.11207,0.031484,-0.0077634,0.03008
0.038411,0.094404,0.13945,-0.31921,0.10411,0.067193,0.097223,0.030095
-0.043757,-0.018967,-0.13194,0.54146,-0.014877,-0.030241,-0.031807,-0.016654
0.12612,0.15225,-0.081219,-0.47667,-0.074324,-0.0036884,-0.0047332,0.030431
0.0012503,0.062811,0.19621,-0.029074,0.01846,0.068019,0.013729,-0.00071816
-0.043692,-0.082446,-0.29907,0.23776,-0.026114,-0.034444,-0.00051747,0.00678
-0.056193,-0.078761,0.17034,-0.61832,-0.15318,-0.076993,-0.024546,-0.025534
-0.06827,-0.18247,-0.31221,0.094191,-0.057178,-0.059529,-0.019517,-0.043231
0.028673,0.10767,-0.24,0.26252,0.16959,0.034077,-0.016536,0.0239
0.015191,0.034795,0.55033,0.65645,0.083506,0.040592,-0.015096,-0.019358
0.12512,0.28697,0.29173,-0.33787,0.11591,0.093842,0.055902,0.061663
-0.016868,-0.11221,-0.058071,0.14111,-0.075615,-0.0082769,0.033308,-0.013855
-0.074932,-0.27238,-0.63753,-0.95261,-0.17766,-0.0852,-0.058575,-0.042282
0.029261,0.16526,0.66232,0.068012,0.0054974,-0.0034829,-0.0081489,0.031563
0.0071755,-0.089219,-0.45031,0.18566,0.028539,0.010641,0.036489,0.012774
-0.07785,-0.044713,0.32485,0.85064,0.10202,0.05094,0.012816,-0.020249
-0.052878,0.031905,-0.26753,-0.13606,-0.10286,-0.12505,-0.017023,-0.012712
0.13791,0.27989,-0.0063394,0.10432,0.09268,0.154,0.063572,0.050953
-0.059189,-0.11466,0.087853,-0.84601,-0.14054,-0.12043,-0.11326,-0.056018
0.0049165,-0.012363,-0.48888,0.15087,0.21981,0.11329,0.069072,0.033255
0.072558,-0.093784,1.1202,0.336,-0.15543,-0.075382,-0.030455,-0.017532
0.018318,0.062643,-0.52392,-0.587,0.060988,0.062797,-0.021332,0.0099957
-0.11967,-0.29269,-0.31973,0.4383,-0.08458,-0.10555,-0.036209,-0.032944
0.086994,0.16158,0.17888,-0.19524,0.017095,0.028686,0.058098,0.048682
-0.050612,0.1692,-0.29217,0.51428,0.092871,0.07493,0.012042,-0.026569
0.083375,0.10699,0.46425,-0.76047,-0.0049956,-0.0054981,0.044787,0.038083
-0.14487,-0.18737,-0.35472,0.84712,-0.095823,-0.063514,-0.046537,-0.054239
0.021902,-0.087425,0.47896,0.038439,-0.053476,-0.043624,0.019362,0.016863
0.075789,0.17341,0.14614,0.030035,0.13093,0.070623,-0.038946,0.017162
-0.053164,-0.14672,-0.48504,-0.56258,-0.041795,-0.0091469,-0.026523,-0.037537
-0.0049087,-0.07943,-0.069734,-0.51308,-0.063513,-0.024715,0.0092579,0.0013756
0.08859,0.22578,0.22175,0.61786,0.14366,0.04738,0.099089,0.071529
-0.02179,-0.068711,-0.077205,-0.22853,-0.030464,0.050504,-0.054436,-0.030139
-0.061807,-0.02757,-0.12807,0.24183,-0.11061,-0.094194,-0.037686,-0.04583
0.094208,0.12812,-0.18607,0.1356,0.18296,0.06549,0.047515,0.047815
-0.084484,-0.080378,0.10229,-0.55111,-0.073016,-0.010427,-0.07231,-0.030573
-0.050646,-0.084333,0.40947,0.33176,-0.059223,-0.064846,0.071791,0.00012455
0.039693,0.13901,0.17167,0.43133,0.028732,0.050332,-0.0041323,0.014793
0.092879,-0.081767,-0.41131,-0.24098,-0.089872,-0.039773,-0.010417,0.0055508
-0.07861,-0.065396,0.13199,0.2694,0.031597,-0.029901,-0.071371,-0.027605
0.071982,-0.2078,-0.087367,-0.46665,-0.011213,0.033984,0.071511,0.048216
0.0053951,0.43932,-0.052228,0.13802,0.13539,0.059203,0.020375,0.022246
-0.14581,-0.28519,-0.080478,0.09453,-0.15164,-0.062596,-0.044702,-0.097449
0.024296,0.050616,0.15239,-0.59855,0.082201,0.052181,0.017041,0.025376
0.007527,0.15096,0.059235,0.11535,0.0092942,-0.017939,-0.0054723,-0.015212
0.069015,-0.0078801,-0.045909,0.19406,0.066661,0.00044427,0.043625,0.031033
0.04408,0.0021275,0.083392,0.28465,-0.075251,0.013122,-0.01592,0.023598
-0.021123,-0.087347,-0.3666,-0.12965,-0.051408,-0.035384,-0.059754,-0.014157
-0.010144,0.048582,0.2451,-0.074514,0.041915,-0.0054462,0.013056,0.019053
-0.048605,-0.18697,0.16951,-0.015324,0.030366,-0.015296,-0.0011247,-0.010017
0.035018,0.21917,-0.56949,0.15021,0.021303,0.02006,0.084886,0.0075032
-0.0092278,0.070434,0.34722,0.52186,0.052588,0.12335,-0.0024258,-0.0069765
-0.048035,-0.28143,-0.05295,-0.70085,-0.2197,-0.11986,-0.098821,-0.061593
0.005441,0.016755,0.22292,0.22768,0.025645,-0.02204,-0.00858,0.03104
0.011761,0.11626,0.60981,-0.20442,0.071701,0.011019,0.026686,0.013232
0.0034388,-0.041839,-0.62422,-0.46884,-0.047867,-0.035497,-0.00018979,-0.0053246
0.036281,0.093027,-0.21297,0.53462,0.099216,0.097283,0.044208,0.0070728
0.009505,-0.0071524,-0.21922,-0.28769,-0.031606,-0.050431,0.03534,0.019667
-0.014064,-0.097962,0.021068,0.62785,0.084793,0.022413,-0.042166,-0.013963
0.01229,-0.037914,0.25881,-0.45158,-0.12885,-0.050573,-0.024217,0.0002785
0.04894,0.1958,0.1604,0.38178,0.13995,0.090416,0.042143,0.015724
-0.10026,-0.094156,-0.16083,-0.073973,-0.078288,-0.078058,-0.085592,-0.053513
-0.014348,0.12042,0.33991,-0.3179,-0.034799,0.0060801,0.014029,0.026849
0.040174,-0.0078309,0.13899,0.5884,0.097082,0.092051,0.074889,0.030026
-0.038948,-0.16994,-0.64457,-0.8072,-0.19972,-0.10241,-0.044177,-0.028676
0.036869,0.037368,0.2666,0.035582,0.01881,0.01532,0.015644,-0.0090172
-0.0060806,-0.25509,-0.3092,0.0007095,0.025026,-0.0011096,-0.027458,0.0026543
0.043057,0.092416,-0.052373,0.19826,0.1227,0.027137,0.029139,0.021566
0.043716,0.33787,0.26337,0.41703,0.068844,0.037021,0.028804,0.031754
