-0.001577,-0.0072715,0.026743,-0.0086524,-0.016105,-0.00093158,0.0062094,-0.0088592
0.004049,0.0067654,-0.025378,-0.00090799,0.0074973,0.0061723,-0.00030952,-0.010061
-0.0057689,-0.010352,-0.062877,-0.0091284,0.015493,0.013187,-0.0069524,0.0046034
0.00050593,-0.0036774,0.047281,-0.017359,-0.015528,-0.0031632,-0.013965,0.011827
-0.00030681,0.0035858,0.039586,0.021684,0.016024,-0.0036628,-0.0058862,0.0038837
-0.0080236,-0.019635,0.093692,0.0068157,-0.014835,-0.0038113,0.0016141,-0.011379
0.016488,0.036122,0.18602,0.024203,0.0012763,-0.0035301,0.00080041,-0.0027315
-0.012781,-0.024483,-0.43358,-0.019909,-0.0059683,-0.0027999,-0.00034028,-0.0093107
0.0055115,0.017143,0.055159,-0.0086159,0.0024572,0.0061446,0.0062291,0.0078245
0.0085105,-0.026783,-0.058545,0.010668,0.010863,-0.00024791,0.02073,0.017266
0.0035835,-0.0003907,-0.0087728,-0.033083,-0.0042813,0.0012892,-0.011354,-0.0046043
-0.0019279,0.02558,0.3142,0.039063,-0.0040225,0.010549,-0.0039896,-0.011093
-0.0084428,0.074159,-0.050269,0.14053,0.027155,0.0038851,0.011587,0.0054507
0.007186,-0.065897,-0.039542,-0.18997,-0.020203,-0.011064,-0.019369,-0.0019622
-0.033267,-0.09003,-0.075451,0.00072535,-0.013311,-0.0031468,-0.011025,-0.0099449
0.010946,0.11122,0.037357,-0.013437,0.0088196,-0.011423,0.0052412,0.012777
0.030793,-0.094636,-0.060311,-0.004994,-0.016179,-0.0045326,0.013672,0.0038011
-0.012263,0.058485,0.0069639,0.089707,0.021267,0.017723,0.0063358,-0.013276
0.038667,0.063309,-0.049227,-0.025023,-0.0036042,0.00090339,0.0065809,0.0086201
-0.089189,-0.19687,0.045327,-0.012262,-0.0046237,-0.0078686,-0.009079,-0.0084259
0.026631,0.11419,0.017873,-0.0042422,0.0027694,0.0072256,-0.017202,-0.0017233
0.019342,0.074704,0.032829,0.030344,0.010866,-0.00058678,0.013526,0.021057
-0.040622,0.12202,-0.034991,-0.0027424,-0.0037714,0.0077471,-0.010534,-0.0025183
0.10434,-0.15825,0.016708,-0.0028985,-0.010001,-0.0069532,-0.0033021,-0.017781
-0.061979,-0.086784,0.014603,-0.026075,-0.00021204,0.0019849,0.0041085,-0.0092154
-0.032614,-0.023301,0.050565,0.0045061,-0.0059262,-0.01256,0.0039829,0.0073623
0.050771,0.031972,-0.057102,0.032958,0.011618,0.011667,0.011975,0.0082683
-0.015977,0.024218,0.11172,0.011572,0.020882,0.0041578,0.012409,0.032299
0.024128,0.0080409,-0.17851,-0.052164,-0.017426,-0.019578,-0.026082,-0.022347
0.084716,0.12397,-0.013991,-0.032997,-0.0096839,0.018572,0.013535,0.0082403
-0.15443,0.0047198,-0.034669,-0.00046291,0.0050472,-0.0062989,-0.0095093,-0.032214
-0.012929,0.033032,0.073522,0.046601,0.0034708,-0.0080701,0.0062544,0.0048606
-0.0052399,-0.20507,-0.0075549,-0.015477,-0.021963,0.0056877,-0.0094984,-0.005254
-0.012695,-0.053032,0.1542,0.033305,0.0072132,0.0039849,-0.0098168,-0.0074863
0.059933,0.013155,-0.10303,0.0064028,0.0054168,-0.0051305,-0.0023697,0.022012
0.049733,0.05671,-0.027444,-0.0019288,0.0042002,0.0019495,0.0052021,0.0054634
-0.0271,0.078349,0.0070346,-0.03076,0.011564,0.0018657,0.013048,-0.0022348
0.040215,0.10984,0.0085215,-0.0024553,-0.0037049,0.0024049,0.013441,0.014565
0.0086449,-0.12987,0.039055,0.027434,0.005156,0.011258,0.014189,0.0088218
-0.0059758,0.077776,-0.066538,-0.028101,-0.0011511,-0.018641,-0.031672,-0.027597
-0.013028,-0.041152,0.041734,0.032972,-0.0073006,0.0062313,0.00071036,-0.0013468
-0.1546,-0.18266,-0.08326,0.022225,-0.013591,-0.00027604,-0.013824,-0.0144
0.07604,0.01969,0.033216,-0.021896,0.010992,-0.0070806,0.010526,0.003209
-0.016968,0.080799,0.10048,-0.11523,-0.011812,0.0013503,0.011181,0.020001
0.1211,0.20318,0.19546,0.070536,0.003912,0.0093856,-0.0040607,0.012448
-0.040465,-0.08239,-0.46375,-0.0031306,0.0035565,-0.0063381,-0.0039031,-0.027209
-0.039831,-0.096475,0.13844,0.05512,0.010705,0.0011883,-0.0038877,0.010577
-0.0087352,0.004675,-0.02868,0.019492,-0.0057214,0.00087684,-0.0039231,-0.0067457
0.0070229,-0.013015,0.028069,-0.062483,0.0013084,-0.0071195,0.0038708,-0.00074974
0.055245,-0.039596,0.29427,0.012759,0.00065666,-0.0070691,0.0038875,0.0054237
-0.011842,0.058491,-0.23671,-0.02805,-0.0076225,0.016685,0.011711,-0.0036069
-0.029826,-0.022677,-0.10292,0.049371,-9.419e-05,0.0015831,0.0038132,0.003564
-0.029944,-0.032511,0.14161,0.0025304,0.023196,0.0021711,0.0035166,0.0035471
0.02659,0.15425,-0.026253,-0.012752,-0.0081298,0.0026248,-0.012712,0.019723
0.006454,-0.10317,0.0028382,-0.043794,-0.023823,-0.005077,-0.021473,-0.026171
0.041814,0.06189,0.072349,0.073116,0.0073239,0.010152,0.0085316,0.0063032
-0.039886,0.023676,-0.15409,-0.013755,-0.0084492,-0.022071,-0.0085037,-0.0080435
-0.043936,-0.14828,0.065263,-0.054353,0.0069991,-0.0079377,0.0057409,-0.0068703
0.068301,0.13139,0.0347,0.0062795,0.022453,-0.0019523,0.020226,0.0097166
-0.00021647,-0.074964,-0.050721,0.0045007,-0.0011134,0.011793,-0.003934,0.0026071
-0.046236,-0.063902,0.012006,-0.020169,-0.00898,0.017999,0.0036753,0.0030536
0.03222,0.024714,-0.042746,0.034199,-0.01675,-0.01428,-0.0038155,-0.0045344
0.040472,0.12942,0.081957,0.011513,0.022466,0.0011121,-0.0030571,0.0033278
-0.1145,-0.16278,0.0033776,0.0054075,-0.031952,0.0017627,-0.0020215,-0.0045675
-0.0023661,0.12548,0.034064,0.10926,0.038737,0.011048,-0.0009053,0.010869
0.025703,-0.067963,-0.11503,-0.13059,-0.023308,-0.010297,9.4929e-05,-0.012857
-0.053785,-0.079292,0.0092184,-0.019411,-0.01502,-0.015712,-0.014811,-0.0054416
0.21952,0.28597,0.070872,-0.018593,0.02444,0.01787,0.0089517,0.0096579
-0.038273,-0.0046585,-0.039417,0.012269,-0.014432,-0.0036702,0.024459,0.016802
-0.023894,-0.14786,0.029984,0.073239,0.032277,0.013114,-0.015149,-0.015255
-0.027849,-0.082284,-0.0098842,-0.038472,0.016,-0.0022765,-0.00042071,0.0072721
-0.020023,-0.058608,-0.041699,-0.0098312,-0.032079,-0.018622,-0.0093514,-0.017107
-0.14157,-0.076869,0.0049886,-0.019899,-0.018166,-0.0045357,0.0051018,-0.0023446
0.068705,0.2307,0.028729,0.056932,-0.0045787,0.0090164,0.004064,-0.0030026
0.033664,0.06042,-0.0016681,-0.01323,0.0090002,-0.0088308,0.0033425,0.0044762
0.028306,-0.00053609,0.030973,-0.0035391,-0.00046124,0.0048356,-0.01254,0.027985
0.0075481,-0.052543,-0.014052,-0.038964,-0.0091078,0.0035019,-0.0044358,-0.010586
-0.04256,-0.094636,-0.004065,0.028707,0.022458,0.010843,0.0042131,0.0058948
0.0042173,-0.048087,-0.025157,0.0036996,0.0084625,0.0034877,0.0054907,-0.032076
0.062536,0.079453,-0.0071716,0.0025591,-0.0042842,0.0047542,0.030447,0.039388
0.054163,0.061094,-0.044009,-0.053587,-0.023903,-0.0247,-0.030564,-0.045536
-0.091927,-0.080531,0.03605,0.10795,0.03503,0.00067854,0.0018498,0.0098378
0.029415,0.059619,0.060951,-0.11503,-0.023434,0.017973,0.010234,0.025663
-0.028315,0.019162,0.030488,0.17548,0.034433,0.0033781,-0.013401,-0.0059774
-0.00050005,0.054463,-0.055546,-0.028439,-0.010646,-0.012103,-0.014415,0.0086337
-0.059629,-0.17158,0.0058259,-0.23438,-0.033979,-0.005115,0.022922,-0.0085769
0.067602,0.24667,-0.019793,0.050381,-0.0043282,-0.0068055,0.0051061,0.0050355
-0.024763,-0.19848,-0.015053,0.006241,-0.0073448,-0.0012837,-0.020635,-0.036235
-0.078356,-0.13892,-0.0030359,0.04799,0.012191,0.0040163,0.0085935,0.016345
0.055841,0.051909,-0.037928,0.082444,-0.007551,0.0095112,-0.016216,-0.00096852
0.050086,0.07125,0.060505,0.22709,0.020042,-0.0078612,0.006764,0.013671
0.060663,0.030386,-0.0041378,-0.27584,0.017395,0.014665,0.0073256,-0.0098493
0.0091009,0.16521,0.034055,-0.035829,0.023911,0.0068924,0.016634,0.022289
0.074485,0.023441,0.0345,0.040804,0.0084303,2.7275e-05,0.0188,0.00063907
-0.24383,-0.22292,-0.05769,-0.11619,-0.076061,-0.0061082,-0.010003,-0.012503
0.06936,0.050553,-0.024141,0.087202,-0.018933,-0.019591,-0.015522,0.0060074
-0.017245,-0.094679,0.0018826,-0.012742,0.038784,0.006155,-0.013768,-0.014471
-0.057922,0.058822,-0.003481,-0.0016803,0.0029066,-0.015088,-0.028436,-0.027379
0.05745,0.001865,0.021956,-0.0045965,0.021471,0.010194,0.018509,0.037342
0.0094266,0.061273,0.0077187,0.22814,0.023835,0.0037069,0.0021457,-0.00017604
0.025283,0.0015522,-0.038387,-0.11673,-0.044915,0.02785,0.032055,-0.022837
0.074096,0.0015274,0.040003,0.022264,-0.020819,0.0044671,0.014763,0.047472
0.061944,0.0059769,-0.0069245,-0.16065,0.018023,-0.019524,-0.026008,-0.015752
-0.26182,-0.11807,-0.022716,-0.04917,-0.022,-0.036195,-0.027509,-0.048327
0.16438,0.067154,0.024047,0.028077,0.039009,0.032764,0.018252,0.043668
0.16766,0.13259,0.016276,0.25076,0.021608,-0.007727,0.0019988,0.0026282
-0.25272,-0.17862,-0.046017,-0.24005,-0.058348,-0.016799,0.0096905,-0.0071568
-0.12056,-0.037208,0.016792,0.16583,0.080582,0.029195,0.002216,-0.024529
0.095561,0.065767,0.017082,-0.069603,-0.077097,-0.010238,-0.004897,0.0053891
0.029007,0.060955,0.0015951,-0.10148,-6.1926e-05,-0.0022692,-0.011772,0.028038
0.10246,0.011471,0.0014722,0.094685,0.0070146,0.013937,-0.0029093,-0.019037
0.019822,0.026867,-0.0067643,-0.011541,0.022223,0.01474,0.013763,0.028181
-0.093312,-0.12751,-0.038689,0.025654,0.022049,-0.0079257,-0.0087238,-0.025759
0.044552,0.047685,0.023026,-0.059244,-0.040483,-0.03087,-0.0079471,-0.0091857
-0.043238,0.059379,-0.0089135,0.18662,0.04546,0.00041628,0.0082175,0.0073453
0.0336,-0.085563,0.0063357,-0.16702,-0.040513,0.015554,0.024091,0.0079716
0.024606,0.11984,0.045513,-0.027241,-0.009377,-0.0088369,-0.0072428,0.015937
-0.070642,-0.16874,-0.031921,-0.059003,-0.0095491,-0.0022826,-0.0076783,-0.023558
-0.025835,0.025033,-0.0072454,0.22896,0.044971,0.0041928,-0.016261,0.0066653
0.04963,0.17785,0.010022,-0.21105,-0.02542,0.0030111,0.0061369,-0.0026578
0.03878,-0.18637,-0.011596,0.065565,-0.0097131,0.0021769,-0.010682,-0.0044377
-0.089249,0.089292,0.0057608,0.0036173,0.029626,0.01743,0.019374,-0.014012
0.064434,-0.025592,0.014963,0.18098,0.014454,0.0097328,0.0027296,0.0079937
-0.023209,0.00099143,0.00019218,-0.13664,-0.024039,-0.028775,0.0020519,0.014978
0.030881,-0.033482,-0.030839,0.019984,-4.7871e-06,-0.012253,-0.0059607,0.014938
-0.038892,0.03538,-0.023436,-0.12173,-0.015091,-0.0033106,-0.013411,-0.015509
0.04853,0.012263,0.038128,-0.052769,0.00094889,0.021389,0.018786,0.001678
0.0037248,0.021841,0.02121,0.087572,0.0090181,-0.0007369,-0.018794,-0.011836
-0.0096792,0.016661,-0.011492,0.019249,-0.014338,-0.015066,0.0065457,-0.0094731
0.023553,-0.043037,0.0027144,0.063363,0.0089897,0.0095894,0.0086906,0.039679
-0.14682,-0.017296,-0.014136,-0.053373,0.00084102,0.018471,0.010857,-0.013135
0.14321,-0.00035078,-0.0072457,0.066914,0.03147,-0.019752,-0.018445,-0.027544
-0.12966,-0.015841,6.0821e-06,0.008984,0.0070607,0.0042075,0.0064924,0.011931
0.034844,0.0066528,-0.00019191,0.013509,-0.025551,-0.0034753,-0.00045189,0.0037087
0.11353,0.03626,0.038983,-0.014737,0.0039814,0.02747,-0.0081423,0.01821
-0.034055,-0.012411,-0.0075664,-0.11586,-0.060446,-0.035756,-0.016605,-0.0381
0.0061755,-0.037217,-0.054038,0.022327,0.047056,0.0022413,0.02891,0.022572
-0.03152,0.063887,0.00098019,-0.029357,0.0065328,0.00098828,0.0035518,0.0052292
0.063611,-0.021314,0.024526,-0.058743,-0.0019408,0.0075626,0.0012803,0.0039206
-0.091405,-0.050607,0.04773,-0.025128,-0.017097,0.0065615,-0.0088991,-0.027998
0.0033785,0.061719,0.01584,0.21374,0.00031441,-0.0096266,-0.01109,0.018975
-0.042573,0.057432,-0.032059,0.12,0.034644,0.0060107,0.0027792,-0.0035947
0.028757,-0.040538,-0.095837,-0.21989,-0.039373,-0.024612,-0.021767,-0.0099003
0.037912,-0.092041,0.020048,0.13126,0.05121,0.031243,0.040405,0.031064
0.039734,0.082264,0.058075,-0.054066,-0.0067492,-0.0063041,-0.013803,0.0017893
-0.043913,-0.08028,0.018528,-0.18353,-0.026442,0.018718,0.018644,-0.027757
0.036766,-0.024967,-0.035892,0.061646,0.0071481,-0.026826,-0.018699,-0.011002
-0.0076612,0.092079,0.035489,0.13326,0.015488,0.0051976,0.0067133,0.044041
0.0098734,-0.03369,-0.056513,-0.0087131,-0.071858,0.0051925,-0.0069708,-0.026747
-0.098506,0.11343,0.070641,0.02595,0.034361,-0.0034899,0.010303,-0.004505
0.049807,-0.083777,-0.028724,-0.098556,0.006484,-0.012959,-0.019772,-0.021789
0.07985,0.077757,0.027839,-0.116,0.0092276,0.0082766,0.012105,0.03895
-0.16435,-0.12857,-0.033386,0.09173,0.027693,0.013707,-0.0034086,-0.017213
0.18486,0.086389,-0.04846,-0.0056465,-0.031194,-0.035301,-0.02713,-0.018061
-0.21575,-0.15209,0.0060978,0.16299,0.020591,0.010098,0.027041,0.020992
0.12645,0.00016639,-0.002345,-0.066001,-0.043212,0.017395,0.010828,0.02967
0.0085746,0.1218,0.043633,-0.067622,0.019637,0.0023475,0.0024656,-0.0078088
0.063368,0.056989,0.027043,0.11866,0.02145,-0.0038703,0.0019938,-0.02145
-0.045471,-0.022132,0.018286,-0.093722,0.01653,0.021904,-0.0062491,0.011762
-0.021644,-0.021836,-0.060805,-0.0022582,-0.050318,-0.022314,-0.022353,-0.017983
-0.014218,-0.075221,0.024002,-0.044851,0.031296,0.011434,0.00826,-0.009492
-0.015873,-0.010888,-0.016529,-0.10433,-0.012555,-0.0022866,0.0073747,0.013566
0.090406,0.069055,0.020616,0.1947,-0.018175,-0.016895,0.0062032,0.012079
-0.023243,0.10164,-0.020788,0.12648,0.029871,0.0065834,0.0047822,-0.0059995
-0.03579,-0.0071295,8.4603e-05,-0.14385,-0.0090403,-0.025467,-0.0045815,0.014335
-0.12584,-0.17909,-0.025778,-0.16983,-0.017549,-0.0033517,-0.021696,-0.020216
0.035966,-0.046701,0.019273,0.080856,0.0046417,0.026474,0.0083654,-0.015383
0.091346,0.039089,-0.012745,0.015183,0.0032059,0.0019282,-0.0079093,0.0059104
-0.021553,0.118,0.019126,0.10212,0.017562,0.0092566,-1.9733e-05,0.0050257
0.064411,-0.02821,0.036867,0.028748,0.024564,0.0095262,0.016493,0.021285
-0.026596,-0.00096523,-0.006569,-0.018505,-0.030285,0.0026607,0.025949,4.1157e-05
-0.030489,-0.027158,-0.041308,-0.18188,-0.01411,-0.011595,-0.010912,-0.012026
0.1992,0.15805,0.025766,0.10698,0.0027108,-0.010172,-0.024095,-0.015328
-0.11295,-0.15737,0.022071,0.15081,-0.011257,-0.016901,0.0016471,0.03644
-0.10917,0.056729,-0.029588,-0.18495,-0.017244,0.0069446,0.011252,0.0020158
-0.21996,0.026038,0.0031721,0.051638,0.039065,0.0064605,-0.011206,-0.033276
0.21885,-0.11697,-0.036034,-0.10085,0.0088275,0.0050216,0.004412,-0.015241
0.091096,-0.036062,0.024851,0.17817,0.08698,0.018344,0.0033983,0.024568
-0.023407,0.011881,-0.024655,-0.17283,-0.09392,-0.023661,-0.014112,0.0079458
-0.075786,0.090718,0.019187,0.019541,-0.026107,-0.01912,-0.00097873,-0.025901
-0.017249,0.0066333,0.0085689,0.14773,0.0093867,0.024509,0.019709,0.01711
0.09902,-0.012519,-0.0091327,-0.18484,-0.041648,0.021627,0.01708,0.012444
0.00044136,0.002808,0.021031,0.25787,0.024582,-0.04311,-0.031957,-0.0081196
-0.023791,0.068353,0.036541,-0.085266,0.0056673,0.025796,-0.0099449,-0.0049945
0.049233,-0.20712,-0.025374,-0.15861,0.027208,0.017481,0.012953,0.0066506
-0.023684,0.15956,-0.0010764,0.038424,-0.0042087,-0.036846,-0.0023136,-0.01972
-0.095347,0.010533,0.0074281,0.18574,0.10672,0.034555,0.022254,-0.013602
-0.018554,0.070735,-0.047072,-0.15423,-0.093468,-0.041966,0.0082894,0.064091
-0.013092,-0.012721,-0.024097,-0.044354,-0.050694,-0.016663,-0.028893,-0.036768
0.053127,-0.19365,-0.025148,0.014706,0.031218,0.055508,0.011949,0.0038808
0.2266,0.10619,0.082796,-0.14209,-0.012442,0.010238,-0.0022672,0.029463
-0.21147,-0.21381,-0.051577,0.3902,0.060057,0.0035865,-0.017023,-0.046298
-0.026433,0.15262,0.071919,-0.21814,-0.056154,-0.04267,-0.016738,-0.0049487
-0.0068154,0.043253,0.0080259,0.1562,0.0062215,0.012115,0.037728,-0.0029541
0.066869,0.084745,0.014479,0.011632,-0.049333,-0.042852,-0.0097032,0.014253
0.023601,-0.049934,-0.018228,-0.30146,0.058939,0.042683,0.013063,0.031019
-0.057637,-0.01675,-0.066733,0.14614,0.034694,-0.0044103,-0.010933,-0.015118
0.019205,0.089979,0.033126,-0.020254,-0.027886,0.0036662,0.0044405,-0.0068846
-0.096949,-0.098197,-0.05426,-0.088578,-0.011382,0.02026,-0.0031797,-0.0066704
0.14091,-0.10638,-0.00023347,0.12254,-0.025182,-0.017034,0.0053381,0.0012707
-0.095629,0.13407,0.023958,0.02125,0.071075,-0.0067025,-0.016884,0.0014335
0.075538,-0.018838,0.018867,-0.085996,-0.051187,0.0041891,-0.0074156,0.0017386
0.020558,0.12169,0.0082328,0.10674,0.0059134,-0.00027569,-0.0054502,-0.0055389
0.058533,-0.14743,0.054478,-0.0093895,-0.00034975,0.010812,0.043523,0.018722
-0.14763,-0.13006,0.0086735,0.0732,0.054615,-0.0019419,0.014301,0.0042345
-0.012838,0.034594,-0.051905,-0.06828,-0.032498,-0.0075542,-0.015187,-0.025577
0.04065,0.098222,-0.0033167,-0.091449,-0.058466,-0.021814,-0.037288,-0.00044989
0.036494,0.031137,-0.057586,-0.13068,0.0083311,0.0099207,-0.005216,-0.022041
0.022351,-0.0015408,-0.0047141,0.15629,-0.04247,0.0017773,0.002897,0.042326
-0.10214,0.031743,0.060885,0.018238,0.078843,0.032025,0.018362,0.0049691
-0.046508,-0.064848,-0.0095439,0.2591,0.068172,-0.031964,-0.0055962,-0.017133
0.057725,0.14499,0.002785,-0.19947,-0.050651,0.0053042,0.017062,0.0070552
0.12555,0.042479,0.059176,-0.24768,-0.035309,0.018978,0.023909,0.014857
-0.11611,-0.38173,-0.05066,0.2327,0.0046675,-0.022097,-0.039713,-0.032885
0.090263,0.17587,-0.052419,-0.18649,-0.0092377,-0.00069283,-0.0019315,0.012289
0.1188,0.011674,0.070529,0.27783,0.023996,-0.0027515,-0.0033884,-0.00571
-0.17231,-0.038173,-0.047961,-0.1694,0.0022244,0.04201,0.026225,0.014966
-0.065591,0.16001,-0.0084939,-0.042349,0.0030653,-0.038311,-0.030249,-0.019064
0.0004609,-0.17377,0.025608,0.15979,0.041816,0.0062895,0.014762,-0.013669
-0.0059765,0.055598,-0.015564,-0.12552,-0.084727,-0.0038176,0.012937,-0.0075967
0.086924,-0.0023071,-0.0070227,0.038299,0.0064517,0.0018021,-0.027767,0.014949
-0.0094845,0.043819,0.050783,-0.030163,-0.035766,-0.0079207,0.0099906,0.061759
0.072718,0.029994,0.063287,0.18249,0.070473,0.014104,0.016974,0.0076174
-0.12655,-0.0052468,-0.048673,-0.10732,0.0133,0.0055906,-0.01453,-0.03846
0.0028664,-0.10978,-0.020533,0.12969,-0.027072,-0.025483,0.0092699,-0.030013
-0.0072058,0.035455,-0.095353,-0.30295,-0.011267,-0.00091456,-0.013221,-0.0064654
0.085678,0.03083,0.023219,0.047806,0.029507,0.024567,0.0038285,0.0007142
0.039267,0.17237,0.061651,0.097155,0.040335,0.011726,-0.010074,0.007123
0.025124,-0.19646,0.020256,-0.11373,-0.049532,-0.016297,0.0073362,0.020736
-0.11344,0.026357,-0.022229,0.13659,-0.0062683,-0.0051942,0.024542,0.018424
-0.056493,-0.10339,-0.018181,-0.14137,-0.033557,0.0055641,0.0022208,-0.030683
0.016035,-0.076295,-0.04502,0.054545,0.00093903,0.0077903,-0.012966,-0.016839
0.049454,0.085875,0.014946,0.13171,0.018761,-0.030048,-0.028953,0.005548
0.043946,0.18134,0.099414,-0.027138,0.019737,0.016902,0.0089503,0.020988
-0.047092,-0.039304,-0.026127,-0.032642,0.01948,0.0002102,-0.00068761,-0.0018083
-0.043753,-0.052996,0.05198,0.41782,0.049373,0.0059661,0.02832,0.030705
0.046188,0.045144,-0.065233,-0.44374,-0.070006,-0.012434,-0.020889,-0.014602
0.011557,0.081139,-0.06574,-0.14284,-0.05704,-0.0077739,0.00047504,-0.02089
-0.077845,-0.041169,0.05021,-0.17306,-0.020671,0.035936,0.014611,0.0037332
0.30071,-0.12865,-0.022,0.11349,0.070789,-0.021597,-0.0173,0.0044187
-0.21291,-0.1203,-0.047602,0.26389,0.045827,0.015204,0.014248,-0.034453
0.013547,0.077167,0.0052685,0.1069,-0.017216,-0.033179,-0.023565,-0.018968
-0.10608,0.14404,0.090403,-0.0051992,-0.0089354,0.013003,0.0097412,0.0277
-0.024674,-0.066525,0.013029,-0.11089,-0.023245,0.020899,0.020154,0.06677
0.047506,0.017999,0.015602,0.063632,-0.044832,-0.017432,0.0073256,-0.026546
0.0489,0.040701,-0.019137,-0.20011,0.12122,0.030631,-0.0056815,-0.01779
0.035161,-0.1524,-0.060332,0.012217,-0.10362,-0.053889,-0.02703,-0.0085958
-0.063282,0.041981,-0.038305,-0.041178,0.03812,0.01003,-0.010113,0.00083051
0.074225,0.13254,0.061806,0.10117,-0.00065603,0.011248,0.0058509,-0.0054312
0.017889,-0.07607,-0.010769,0.057014,-0.055955,0.0042981,0.013024,0.026986
0.079742,0.032416,0.016733,-0.040317,0.098874,0.051597,0.027125,0.0040527
-0.13148,0.08142,0.073503,0.34857,0.0031239,-0.049981,-0.014154,-0.027538
-0.12416,-0.040342,-0.11415,-0.62777,-0.10068,-0.019092,-0.016799,-0.013145
0.031057,-0.11598,0.024111,0.25714,0.030028,0.0038201,0.0038679,0.00046042
0.092008,-0.045392,-0.027037,0.057734,0.028437,0.0033731,0.0012892,0.029137
-0.019088,-0.10289,-0.017047,-0.16383,-0.042676,0.0032631,-0.00079998,-0.012725
0.081124,0.29723,0.11729,0.30302,0.051196,0.011515,0.0056588,0.039303
-0.067721,-0.016549,-0.0060468,-0.04204,0.020931,0.0047976,-0.010423,-0.072242
0.0035552,-0.090399,-0.089429,-0.11331,-0.032155,-0.0091218,0.0056938,0.043549
-0.095525,-0.17345,0.01622,-0.20777,-0.014703,-0.0070164,-0.0085693,-0.019393
0.14265,0.20389,0.0066518,0.32301,0.025944,0.01857,0.032519,0.035869
-0.048119,0.24542,-0.016395,-0.41163,-0.027844,-0.02656,-0.043232,-0.032916
-0.03584,-0.41556,0.0016371,0.22092,0.018908,0.029017,0.029415,0.024082
0.045719,0.15875,0.021243,0.079471,-0.021461,0.02869,0.0078767,-0.043391
0.17227,-0.047104,0.026087,0.18651,-0.0082758,-0.043338,-0.022251,0.053435
-0.18015,0.021695,0.046546,-0.045173,0.050908,0.00052323,0.03257,-0.0060512
-0.0428,0.013707,-0.027635,-0.14032,-0.015352,-0.011222,-0.023008,-0.058055
-0.032264,-0.0084469,-0.05654,-0.10767,-0.019017,-0.015439,-0.016937,0.053462
-0.053663,0.010002,-0.0014764,0.1229,-0.029831,-0.0035279,-0.011364,-0.05446
0.12881,-0.024712,-0.042072,-0.072745,0.030834,0.017493,0.0020051,0.063416
-0.014682,0.059099,0.048723,0.080709,0.014897,0.0013779,0.0080484,-0.0069859
-0.030028,-0.1296,-0.017344,-0.19532,-0.015005,0.042196,0.02281,-0.0078048
0.075266,0.056979,0.018477,-0.101,0.026954,-0.0085759,-0.015976,-0.0014338
0.035054,0.0242,0.032031,0.31156,0.015423,-0.01081,0.040123,0.0044786
-0.03474,0.052315,-0.085509,-0.010711,-0.10483,-0.0043993,0.011176,-0.044543
0.051654,0.17162,0.10348,-0.012917,0.071801,-0.013793,-0.048555,-0.01545
-0.012232,-0.11076,0.0048948,0.15516,0.068106,0.03813,-0.006764,0.045115
-0.10279,-0.33413,-0.038228,-0.18882,-0.077393,-0.029123,0.0032603,0.059213
-0.017553,0.10346,0.035681,-0.0091413,-0.036914,0.0027478,-0.0032035,-0.035541
-0.092181,0.1092,-0.039901,0.19867,0.056638,-0.014708,0.020562,0.0030799
0.057254,0.020426,-0.031243,-0.31008,-0.030946,-0.034193,-0.019148,-0.059331
0.04182,0.026199,0.061441,0.33851,0.021032,0.030991,0.0028829,0.019332
0.08993,0.042029,-0.11313,-0.37839,-0.021288,-0.03697,-0.014581,-0.011051
0.062541,0.022132,0.039501,-0.11491,0.0066914,0.067528,0.022566,0.029056
-0.14095,-0.22042,0.012508,0.077347,0.019469,0.017061,0.0052619,0.0066522
0.049932,0.087825,-0.0056022,-0.095288,-0.053022,-0.0083157,0.035284,0.0074558
0.0095504,0.071293,0.087526,0.50242,0.078288,-0.016434,-0.027895,0.015616
-0.060242,0.088325,-0.020221,-0.011365,-0.024325,-0.0076482,-0.035855,-0.03156
-0.082954,-0.23747,-0.00082748,0.25323,0.02157,0.0018422,0.019124,-0.032616
0.22881,-0.048276,-0.057992,-0.31534,0.028055,0.0114,-0.011536,0.043726
-0.0013269,0.2481,0.033945,-0.28248,-0.083306,-0.026392,0.0048305,0.01016
-0.11792,0.10347,0.01614,-0.010306,-0.023531,0.013139,0.029023,-0.039213
-0.066365,-0.15485,-0.042036,0.046227,0.02791,-0.018486,-0.0015702,0.067952
-0.041303,0.027687,0.038441,0.011689,0.024649,0.011775,-0.024534,-0.1444
0.036661,-0.19981,-0.016135,0.18395,0.022073,-0.005023,-0.0086701,0.10543
0.083177,0.093828,-0.10405,-0.13804,-0.088457,-0.029309,-0.016504,-0.07292
0.0060356,-0.0033708,0.064278,-0.13923,-0.0016571,0.025296,0.084777,0.11743
-0.021726,-0.090642,-0.0026088,0.24525,0.079635,0.018414,-0.064182,-0.034759
0.07075,0.21693,0.11796,-0.092414,0.04592,0.05158,0.0054082,0.0089986
-0.060429,-0.10265,-0.057714,0.1842,-0.056473,-0.055198,0.0045456,-0.017662
