-0.23863,0.077866,-0.075639,0.085078,-0.0011885,0.0040303,0.012986,0.025043
0.05676,-0.1149,0.073673,0.22374,0.075316,0.069678,0.035414,0.16966
0.099286,0.25637,0.2751,-0.085855,0.0012275,-0.014786,-0.044498,-0.040661
-0.10973,-0.3479,-0.32786,-0.26008,-0.091427,-0.023284,0.0075519,0.1232
0.16573,0.2745,0.18153,-0.066163,-0.023251,-0.049675,-0.019274,-0.079615
-0.096031,-0.065042,-0.1308,0.1984,-0.012711,9.8626e-05,-0.0075002,-0.063118
-0.096635,0.007422,-0.31464,-0.36429,-0.08244,-0.037355,-0.0035626,-0.078454
0.063417,-0.040095,0.19942,0.41917,0.1359,0.026362,-0.0069503,0.028604
0.19704,0.089097,0.06875,0.011977,0.05761,0.13751,0.092189,0.23209
-0.2117,-0.33891,-0.16478,-0.13798,-0.058421,-0.09374,-0.072992,-0.30656
0.039334,-0.0027139,0.17451,0.065542,0.022882,-0.0027911,0.0054476,0.019603
0.011121,0.3804,0.16097,-0.10978,0.028322,0.027721,0.014894,0.11494
0.053433,0.093247,-0.24873,0.0093337,-0.089174,-0.025788,-0.0059203,0.1267
-0.030807,-0.30811,0.16666,0.048558,0.068316,0.023786,0.020648,-0.054861
-0.00084477,0.1538,0.048999,0.15625,-0.031123,-0.019395,-0.0074916,-0.093302
0.0018447,-0.23166,-0.22665,-0.19172,-0.075638,-0.0074216,0.0029447,-0.042042
-0.077547,0.16018,0.25294,0.081664,0.082727,-0.034482,-0.049912,-0.13358
0.0037849,-0.030974,-0.22441,-0.095181,0.0062275,0.047572,0.036976,0.19675
0.012687,0.021604,0.10567,0.073405,-0.039502,-0.073894,-0.056566,-0.025472
0.083534,0.12876,-0.062343,0.10206,0.05514,0.10892,0.060404,0.037409
-0.15709,-0.20336,-0.17406,-0.34584,-0.068856,-0.044551,-0.025765,0.034894
0.12021,0.30515,0.20048,0.18242,0.042035,0.051705,0.052518,0.16258
0.1193,-0.25274,0.054088,-0.032184,-0.025907,-0.055366,-0.024759,-0.11904
-0.11286,-0.0098511,0.020234,0.16638,0.055632,0.0014671,0.0081681,-0.33442
0.0013348,-0.19198,-0.18977,0.11372,-0.080555,-0.05121,-0.044057,0.077551
0.054657,0.27255,0.40823,-0.096828,0.11997,0.07567,0.013663,0.24807
-0.13374,-0.13811,-0.55394,-0.23139,-0.093239,-0.0085322,0.024736,-0.24643
-0.0024526,0.10867,0.15629,-0.063888,-0.0020421,-0.030421,-0.026875,0.1236
0.088306,-0.017606,0.028533,0.069361,0.017896,0.017744,0.022483,0.21594
-0.0025396,-0.103,0.098776,0.27747,-0.026249,-0.0047615,0.024032,0.13088
-0.095349,0.22649,0.14512,-0.135,0.044695,0.02695,-0.022434,-0.16354
0.16174,0.36769,0.11025,0.097584,0.042921,0.0033983,-0.015387,-0.56567
-0.15262,-0.64989,-0.030724,-0.13393,-0.031604,-0.012983,-0.017176,0.17553
0.079376,0.21152,-0.47278,-0.14938,-0.10829,-0.084701,-0.027493,0.45257
0.077083,-0.18128,0.20065,0.15361,0.094707,0.06956,0.039998,-0.18518
-0.26061,-0.10097,-0.40437,0.096543,-0.04677,-0.011006,0.0060134,-0.27418
0.21499,0.14953,0.37443,-0.0065672,0.062031,0.0644,0.074008,0.26601
0.0039492,0.11166,0.020014,-0.091467,-0.030996,-0.039959,-0.068315,0.31978
0.1374,-0.032595,0.084912,-0.062598,0.0031613,-0.003567,0.00097788,-0.47158
-0.28329,-0.070609,0.018169,-0.012086,-0.030191,-0.02935,-0.0072289,0.10261
0.054185,0.20133,-0.15573,0.0065318,0.0098223,-0.0077536,-0.0071214,0.17412
-0.045639,-0.17837,0.19415,0.087403,0.037099,0.030118,0.0089695,-0.33665
0.034331,0.54647,0.13366,0.026832,0.027637,0.014042,-0.0059609,0.52179
0.13775,-0.44668,0.04725,-0.051783,-0.035071,-0.0012856,0.010485,-0.50204
-0.0011448,-0.33186,-0.33739,0.013138,-0.04271,-0.015952,-0.012088,-0.096797
-0.21073,-0.032452,-0.22157,0.24201,0.058346,-0.0067064,0.019992,0.25239
0.13366,0.39628,0.21082,-0.1104,0.0015761,-0.0050716,-0.026187,0.060718
0.18794,0.040739,-0.010891,-0.17943,-0.03392,0.027682,0.013313,0.11709
-0.15749,0.12098,0.21539,-0.075995,0.014155,0.0052627,0.036779,0.32773
-0.12141,-0.49407,-0.32659,-0.058226,-0.080582,-0.04922,-0.049693,-0.96355
0.015225,-0.060533,-0.031548,0.15599,0.033912,0.07492,0.050656,0.18084
-0.028302,0.35249,0.26079,-0.017581,0.030149,-0.091192,-0.06065,0.41722
0.13936,0.073462,-0.016464,0.0090768,0.018136,0.061857,0.03834,-0.0044254
0.011113,0.31262,0.084257,0.0035075,0.0061681,-0.004774,-0.027164,-0.31866
-0.11561,-0.70507,0.024676,0.17805,0.033567,0.0061911,0.024409,0.40387
0.071911,0.20572,-0.0003963,-0.036857,-0.01681,0.017174,-0.017486,0.014395
0.17513,0.27716,-0.054767,0.2418,0.026829,-0.07276,-0.02746,-0.041894
-0.087653,-0.086151,-0.077406,-0.50945,-0.093417,-0.013001,0.033852,-0.44435
-0.25616,-0.080215,-0.31935,-0.087416,-0.033777,0.025055,0.010338,-0.027983
0.051667,-0.20449,0.37542,0.14896,0.049695,-0.013052,-0.035573,0.41182
-0.055553,-0.15261,-0.07058,0.30207,0.040162,0.099131,0.0599,-0.295
0.24183,0.18727,-0.26552,-0.33799,-0.069771,-0.021667,-0.0083639,0.4158
-0.041079,0.067864,0.26068,0.018746,0.032745,0.014435,0.009146,-0.51696
0.44705,0.51491,0.11051,0.028874,0.043165,0.01906,0.065142,0.9542
-0.49676,-0.47012,-0.18466,-0.097163,-0.062099,-0.13361,-0.19216,-0.88972
-0.17654,0.027322,0.28841,0.59229,0.075858,0.0089702,-0.004935,-0.19043
-0.028605,0.36615,0.20785,-0.17067,0.065699,0.063764,0.095842,0.58943
-0.15298,-0.70467,-0.42815,0.080046,-0.11684,-0.070631,-0.030052,-0.48195
0.53781,-0.10046,-0.20709,-0.54868,-0.019366,0.020322,0.047487,0.4213
0.04494,0.77139,0.12811,-0.21484,0.013857,0.11072,0.039689,0.39876
-0.060796,-0.49621,0.06994,0.27614,-0.01732,-0.05657,-0.029916,-0.089966
-0.014112,0.62751,-0.23194,0.034009,-0.026748,0.026866,0.02605,-0.90462
-0.10512,-0.42792,0.41957,0.47401,0.079828,-0.060446,-0.050495,0.080544
-0.30408,-0.41249,-0.090972,-0.17559,0.0061887,0.0019934,-0.048934,0.11725
0.14514,0.072208,-0.16088,0.016773,-0.028267,-0.0045939,-0.00078772,0.12959
0.18624,0.36168,0.04587,-0.18918,0.016013,0.036766,0.054721,0.52583
-0.19778,-0.42012,-0.057802,-0.35419,-0.087295,-0.0070898,0.016002,-0.1068
0.35144,0.57653,0.33059,0.31235,0.11488,0.011842,-0.0074889,-0.2681
0.028645,0.69297,0.044163,0.20224,0.012844,-0.031891,-0.02342,-0.068262
-0.24426,-0.92484,-0.29482,-0.2855,-0.06575,-0.0058924,-0.016015,-0.15716
-0.075923,0.14314,0.069569,0.20054,0.042645,0.034833,0.038279,0.65123
-0.1055,-0.75198,-0.15216,-0.075007,-0.045188,-0.01146,-0.047991,-0.4096
0.13782,0.23483,-0.028889,-0.043563,-0.040363,0.011452,0.10016,-0.066083
-0.054497,0.059721,0.13002,0.31608,0.080671,-0.060359,-0.072035,0.01901
0.14799,0.78154,-0.13203,-0.42027,-0.056689,0.046819,0.013488,-0.48799
0.13775,-0.24356,-0.052525,0.15173,0.0091112,0.005241,-0.0026751,0.2906
0.017426,0.2074,0.28662,0.3826,0.036594,-0.0049712,0.0045448,0.50557
-0.4629,-0.71383,-0.29964,-0.54,-0.028252,0.016622,-0.034991,-0.50586
0.38341,0.2291,0.54055,0.065031,0.041645,0.00010233,0.043037,0.84983
-0.34384,-0.16641,-0.18696,-0.12794,-0.034708,-0.046419,-0.065783,-0.57763
0.25914,0.1689,-0.11883,0.032498,-0.015163,-0.013402,-0.025305,0.29471
-0.021503,-0.27538,0.16193,0.20539,0.06089,0.075706,0.14108,-0.52888
-0.063819,0.66093,-0.16991,0.10349,-0.033673,-0.083994,-0.090228,-0.5283
0.28561,0.2465,-0.25888,-0.030664,-0.010504,0.053957,0.10851,0.47353
-0.061328,-0.86732,0.01779,-0.15935,-0.034428,0.012407,-0.036675,0.63132
-0.26199,0.96381,0.30832,0.29283,0.026644,0.025038,-0.041955,-0.14131
-0.019268,-0.9423,-0.38565,0.080152,0.031493,-0.010397,-0.056199,-0.14836
0.043478,-0.031279,0.61075,-0.27735,0.0031494,-0.024131,0.037582,0.36961
-0.18811,-0.26219,-0.31605,-0.18842,-0.035127,-0.03989,-0.033964,-0.8505
0.38326,0.40756,-0.053127,-0.099261,0.018298,0.0048682,0.010743,-0.10254
-0.16066,0.57592,0.0039288,0.061299,-0.02376,0.032393,0.062806,0.14782
-0.0042673,-0.53457,-0.018173,0.58471,0.05797,-0.081683,-0.049152,0.32489
0.1201,0.26604,0.14659,-0.76012,-0.08741,0.069653,0.073704,0.28918
0.010073,0.15816,0.12236,0.33482,0.048623,0.041827,-0.044961,0.21984
-0.053582,-0.0076527,-0.21772,0.044035,-0.041101,0.015101,0.055838,-0.56495
0.099536,-0.33515,0.10831,0.28286,0.073576,-0.025822,-0.10055,-0.091852
-0.31384,-0.56919,-0.31616,-0.26147,-0.07589,-0.041827,0.02477,0.25293
-0.077046,0.41281,0.20191,0.12039,0.072903,0.0059607,0.033213,0.38086
0.51911,0.46853,0.082642,-0.066227,0.0039417,-1.113e-05,-0.067523,-0.64662
-0.29215,-0.066691,-0.14387,-0.29267,-0.041187,-0.005519,0.034991,-0.35205
0.066902,0.15138,-0.079781,0.34523,0.038397,0.020194,-0.010865,0.38439
-0.083175,-0.86789,0.28259,-0.28632,-0.039178,-0.0092691,0.021379,-0.17575
0.00054121,0.51063,-0.025279,0.17232,-0.00089333,0.022899,0.053432,0.47135
-0.11075,0.070888,-0.10442,-0.0039351,-0.042185,-0.00074491,-0.02432,0.023949
-0.025749,-0.19243,0.19451,-0.078422,0.048086,-0.041232,-0.048095,0.16301
0.24003,-0.082299,-0.3224,-0.12671,-0.0030221,0.049962,0.036543,-0.22922
0.045312,0.0032802,0.22181,0.19717,0.031748,0.023107,0.010704,-0.31899
0.068407,0.52411,0.017155,0.0039504,-0.018706,-0.097932,-0.047454,0.53118
-0.075323,0.079173,-0.3163,0.34854,0.018203,0.023295,0.018549,-0.82267
0.10454,-0.09289,-0.041318,-0.11379,-0.067939,0.0044781,-0.048702,0.6089
-0.44787,-0.69111,0.18823,-0.4865,-0.034716,-0.03682,0.0090885,-0.12898
-0.10767,0.070544,0.19398,0.079536,0.055236,0.0636,0.04394,0.1351
0.46218,0.48735,-0.016357,0.18332,0.11546,0.08683,0.056176,-0.37159
-0.01734,-0.042074,-0.053814,-0.13838,-0.11268,-0.069136,-0.047836,0.14165
-0.097946,-0.25793,0.023915,0.14388,0.10416,0.032568,0.013052,0.23166
-0.18274,0.061885,0.017687,0.16953,-0.070968,-0.11654,-0.019241,0.38509
0.24665,-0.39892,-0.092061,-0.21819,-0.037283,0.045521,-0.035682,-0.94293
-0.081422,0.68384,0.027295,0.027797,0.0017052,0.01851,0.07281,0.21008
0.060105,0.086573,-0.13417,0.10371,-0.024198,-0.0021167,-0.061111,0.72776
0.021843,-0.28303,0.040084,-0.23894,0.041853,0.015406,0.031352,-0.94445
0.0046375,-0.019043,-0.14447,0.0018238,-0.025759,-0.029674,-0.024555,0.7006
-0.26041,-0.52187,-0.021959,0.078175,-0.054073,-0.066079,-0.056554,-0.3618
0.37921,0.7365,0.6989,0.24215,0.15321,0.0087006,0.0061283,0.29626
-0.19731,0.29129,-0.63607,-0.2937,-0.036015,0.18761,0.18734,-0.10071
0.01491,-0.54091,0.076068,0.24499,-0.0042994,-0.044539,-0.090759,-0.41416
-0.056153,-0.083221,0.093611,-0.25104,-0.025239,-0.070475,-0.031232,0.064927
-0.04353,-0.0088817,0.22087,0.1629,0.0022062,-0.023284,-0.032645,0.24908
0.2026,-0.18468,-0.12122,-0.11603,-0.032077,0.002742,0.021878,0.38733
-0.064957,0.25081,0.066331,0.043339,0.043009,0.014694,0.0068924,0.010678
-0.076686,0.55088,-0.23271,0.10026,-0.046635,-0.042929,-0.046881,-0.18482
-0.070409,-0.89784,-0.24475,0.05333,0.034497,0.02434,0.0553,-0.81454
0.15336,0.81453,0.20309,-0.098261,-0.0028011,0.082856,0.086305,0.74149
-0.49585,-0.97335,-0.10631,0.02049,0.021285,-0.024416,-0.11063,-0.86488
0.70245,0.27111,0.45385,-0.23018,-0.033535,-0.055981,0.018764,0.83059
-0.21284,0.55538,-0.24782,-0.098741,-0.065274,-0.00458,-0.025769,0.017884
0.1077,0.45573,-0.038812,0.026075,0.012393,0.043492,-0.0021344,0.39333
-0.042839,-0.49178,0.36172,0.65382,0.11375,-0.052508,0.011625,-0.53593
-0.16139,-0.54054,-0.48508,-0.26898,0.0044097,0.051319,0.023548,0.20452
0.012843,-0.20922,0.075032,-0.062288,-0.050269,-0.0039765,0.018341,-0.19302
0.16337,0.33601,0.18051,-0.070318,0.050855,0.0088543,-0.011405,-0.2864
-0.040336,0.53958,0.087345,-0.30988,-0.091099,-0.018652,-0.0027441,0.44526
-0.20025,-0.20765,-0.10395,0.34243,0.07826,-0.015111,-0.017697,-0.28869
-0.11943,-0.41241,-0.30742,0.174,-0.050453,-0.01845,0.014552,-0.035522
0.11945,0.30962,0.0484,-0.16823,-0.062838,0.003657,-0.053932,0.072507
0.098673,0.10838,0.18428,-0.25564,0.026126,0.020842,0.06638,0.67723
0.056763,-0.30406,0.048032,0.34875,0.053206,0.018034,-0.05383,-0.96211
-0.057661,-0.044334,-0.061032,-0.20655,-0.07454,0.010993,0.038771,0.32769
0.27285,0.16866,0.19489,0.055592,0.10441,-0.039664,-0.015199,0.38354
-0.26411,0.49043,-0.19888,-0.090514,-0.011285,0.0059548,0.01057,-0.28622
-0.076294,-0.43948,-0.086269,0.21546,0.023431,0.0765,0.045285,-0.17365
0.23208,-0.10647,0.1018,-0.24443,-0.042083,-0.055769,-0.052326,0.072629
-0.2171,-0.16735,-0.0039638,0.19437,-0.0056143,-0.0013603,0.02171,-0.10247
0.15922,0.050065,0.0079227,0.071078,0.0068561,-0.019005,-0.022331,0.48811
0.030884,0.92987,0.33011,-0.0050945,-0.028952,-0.046783,-0.005256,-0.1795
-0.25131,-0.71322,-0.43812,-0.19849,-0.0042065,0.024488,0.010189,-0.24627
-0.1087,-0.75138,-0.0013809,0.014086,-0.0049997,0.030915,-0.022829,-0.24363
0.18698,0.67768,-0.024179,-0.18769,-0.0076597,0.019817,0.013188,0.15653
-0.010415,-0.18934,0.017555,0.34489,0.027425,-0.016008,0.0015821,0.34503
0.20772,0.85183,0.32852,0.16702,0.085371,0.049108,0.075818,0.43946
-0.086488,-0.85555,-0.14379,-0.35345,-0.075219,-0.057628,-0.083735,-0.43439
-0.11087,0.63164,-0.0063209,0.13573,-0.023943,-0.04658,-0.054584,-0.39245
0.22821,-0.4792,-0.26469,-0.37274,-0.01027,0.098354,0.11687,0.035833
-0.12496,0.42492,0.035828,0.26975,0.028583,-0.020896,-0.022241,0.32922
-0.17978,-0.74604,0.16156,0.21137,0.030109,-0.0056468,0.012493,-0.64294
0.16358,0.40314,0.073012,-0.056464,-0.060669,-0.11361,-0.10728,0.38643
0.028659,-0.17629,0.12808,-0.066167,0.052599,0.05357,0.055494,0.37057
-0.10892,0.25757,-0.15214,-0.15497,-0.029203,0.026855,0.0079796,-0.24698
-0.0619,-0.028471,0.026549,0.67607,0.083844,0.063541,0.02285,0.037916
0.029482,0.14761,-0.080504,-0.78448,-0.093234,-0.0089523,0.052432,0.56385
0.14264,-0.039218,0.0093994,-0.0050663,0.032941,0.027326,-0.036809,-0.4405
-0.10419,-0.63244,-0.19642,-0.0080517,-0.053311,-0.07056,-0.050087,-0.21461
0.18842,0.44144,0.16225,0.17691,0.038915,-0.0062622,-0.011071,-0.30871
-0.14284,0.20844,-0.037609,0.13742,-0.025759,-0.0065203,0.017851,-0.012787
-0.0898,-0.09543,0.097427,0.13253,-0.0044274,-0.039852,-0.017572,0.37019
0.074148,0.01468,0.1251,-0.0091584,0.048935,0.034963,0.031778,0.33638
0.083122,-0.024372,-0.16271,-0.31934,-0.037008,-0.031253,-0.012993,-0.36666
-0.06329,-0.31573,-0.10765,0.099174,0.019231,0.082666,0.036372,-0.14718
-0.02178,0.28682,0.12733,0.0024223,0.04565,-0.021035,-0.022654,0.30472
-0.019265,0.030854,0.073445,-0.056858,-0.02854,0.017376,0.01341,-0.10089
0.076877,0.046865,-0.012619,0.20082,0.014694,0.0025551,-0.011602,-0.10429
-0.069303,-0.08101,-0.093865,-0.16333,-0.052025,-0.019017,0.011529,0.18495
-0.035803,-0.20537,-0.063613,0.084496,0.0049426,-0.016735,-0.026903,-0.047772
-0.033382,0.23615,0.090804,-0.00082235,0.021024,-0.0069533,-0.010123,-0.087209
0.22714,0.088089,-0.0006416,-0.11362,-0.043038,0.0096831,0.038023,0.32806
-0.098018,-0.39807,0.042506,0.052389,0.031653,0.017136,-0.015596,-0.35292
-0.040343,0.27954,0.17961,-0.071193,0.026789,0.0075026,0.039774,-0.023973
-0.045571,-0.095972,-0.37116,0.080054,-0.041361,-0.058029,-0.077143,0.0084122
0.049816,0.16427,8.0089e-05,-0.015751,0.0076116,0.016398,0.016584,-0.052788
-0.10631,-0.38448,0.06045,0.10324,0.025947,-0.010685,0.00085447,0.075065
0.25906,0.51518,0.085687,-0.094092,-0.0327,0.0099039,0.016534,0.41012
-0.041801,-0.13031,0.11762,-0.0067911,0.027302,0.039712,0.0091291,-0.81013
-0.14153,0.19268,0.081021,0.24683,0.034168,0.0087764,0.017791,0.48767
-0.00832,-0.47898,-0.20895,-0.037632,-0.012209,0.0030645,-0.012209,0.079446
-0.086516,0.0090985,-0.15636,-0.31441,-0.057384,-0.016769,0.012726,0.24017
0.11727,0.31994,0.083965,-0.021614,0.023335,0.019074,-0.032632,-0.38907
-0.067621,-0.19491,0.012539,-0.081184,-0.043792,-0.093164,-0.023518,-0.14481
0.14884,-0.073426,0.089725,0.17914,0.053462,0.05995,0.047688,0.018454
-0.014146,0.20192,0.12635,0.17395,0.01018,-0.0064887,-0.022254,0.29408
-0.033292,-0.11651,-0.10678,-0.080802,-0.025407,-0.011605,-0.0068104,-0.13265
-0.057822,-0.042017,-0.066078,0.047617,0.016806,0.020954,0.00030866,0.025119
0.059444,0.13816,0.049676,-0.12107,-0.019653,-0.0026199,0.014804,-0.078344
-0.050164,-0.15312,0.018627,0.16218,0.021228,0.019299,0.0055049,0.24297
0.17444,0.27938,-0.013012,-0.064551,-0.0092153,-0.014702,-0.0040888,-0.2852
-0.18189,0.020567,0.11787,-0.067616,0.045084,-0.0028426,0.017312,0.36839
-0.049377,-0.30634,-0.307,-0.15966,-0.065964,-0.0073509,-0.016195,-0.53771
-0.029493,-0.078481,-0.067034,0.097392,0.0014365,-0.0044735,-0.018617,-0.10363
0.097146,0.22546,0.19999,0.079737,0.036549,0.029578,0.041404,0.53177
0.0034297,-0.029012,0.036403,-0.078198,-0.046211,-0.029826,-0.046897,-0.04378
0.15146,0.1024,0.015653,0.11744,0.034871,0.012987,-0.0020368,0.007134
-0.16083,-0.091428,0.10891,-0.027321,-0.0087495,-0.021348,0.004365,-0.11919
-0.081077,-0.086425,-0.034005,-0.027357,0.003105,0.0080379,0.019413,0.022995
0.18022,-0.13909,-0.1941,-0.046749,-0.0072973,0.015337,-0.0036254,-0.11321
-0.095607,0.20544,0.11227,0.14811,-0.00065696,-0.0072692,0.013389,0.21407
0.075566,0.13649,0.032129,-0.1316,0.03089,0.049451,0.023443,-0.4019
-0.072315,-0.18032,-0.01436,0.081227,-0.022161,-0.064766,-0.044045,0.35088
-0.039754,-0.0017511,-0.075688,0.03504,0.011788,0.016921,0.0058776,-0.012458
0.047792,0.086626,0.042208,-0.12289,-0.00044181,-0.010553,-0.0068651,-0.039237
-0.028755,-0.017043,-0.067661,0.044407,-0.012363,0.0086983,0.011123,-0.073639
0.15233,-0.0010515,0.039786,-0.080065,-0.0087048,0.019676,-0.010738,0.079249
-0.21363,-0.022692,-0.041555,-0.050173,-0.021001,-0.032548,0.0055213,-0.034052
0.10009,-0.012628,0.016753,0.0884,0.01304,0.0081153,0.013002,0.008038
-0.078151,0.059767,0.082175,0.039991,-0.000481,-0.0068559,-0.011641,-0.060321
0.14254,0.030362,0.22513,0.063299,0.039883,0.031895,0.017725,0.1045
0.0045753,-0.14718,-0.2732,-0.067929,-0.02222,-0.016215,-0.039264,-0.12252
-0.10131,0.028147,0.063547,0.13816,0.06313,0.020787,0.028626,0.11808
-0.0032132,-0.16902,-0.2257,-0.1943,-0.063467,-0.021001,0.0029374,0.10776
-0.06846,-0.034608,0.085637,0.011691,-0.019127,-0.016356,-0.022332,-0.2469
0.13238,0.33793,0.22439,0.2082,0.016675,0.011576,0.015495,0.038908
0.0051778,0.15104,-0.10584,-0.042897,-0.018201,-0.0071822,-0.00068826,0.051621
0.041626,-0.065649,-0.060706,-0.2885,0.0017238,0.021477,-0.00058086,-0.098891
-0.14161,-0.1192,0.0010273,0.011105,0.014471,-0.019304,0.01572,0.12683
0.05654,-0.012163,-0.0060983,-0.033555,-0.010742,0.0035451,-0.0066241,0.21337
-0.028345,-0.21546,0.066606,0.1726,0.020151,0.019853,0.0025286,-0.30803
0.048871,0.10562,0.055036,0.20882,0.021303,-0.017263,-0.027286,-0.023537
-0.016442,-0.025541,-0.041142,-0.033648,-0.015258,-0.0064111,0.0053834,0.066461
0.049445,-0.0062476,-0.074071,-0.13297,-0.0039774,0.013024,0.0067252,0.0083364
-0.065472,0.16552,0.025835,-0.050719,-0.0078854,-0.021901,-0.023289,0.10625
-0.016806,-0.12497,-0.062513,-0.014441,0.0036916,0.028924,0.032508,-0.077798
-0.0069895,0.077782,0.042973,0.013849,-0.0010091,0.0087373,0.010014,0.026155
-0.0041372,0.017858,0.052628,0.025449,-0.0067204,-0.0047708,0.0029101,-0.058627
0.1016,-0.022359,0.059794,-0.01923,0.0098463,-0.0040653,0.0032871,0.058538
-0.017645,0.019939,-0.029434,0.028154,-0.029365,-0.036084,-0.051451,-0.16894
-0.041592,0.027143,-0.10553,-0.019606,0.00089706,0.016536,0.026134,0.1656
0.021703,-0.079799,0.08201,0.0021117,0.046303,0.013564,0.025114,-0.070181
-0.039106,-0.098923,-0.12226,-0.054469,-0.049019,-0.02102,-0.023171,0.038118
-0.036986,0.10144,0.079588,0.13937,0.035551,-0.0085,-0.0091703,0.014074
0.11356,0.0047089,-0.037888,-0.033185,0.02675,0.020394,-0.0029666,0.060704
-0.072159,0.00083066,0.12008,-0.095482,-0.04416,0.011316,-0.0043192,-0.064482
-0.00059431,-0.051213,-0.08639,-0.00086411,-0.00544,-0.0043893,0.010409,-0.0024868
0.02354,0.098433,0.069571,0.10177,0.0098598,0.012171,0.017894,0.019847
-0.023094,-0.026744,-0.06061,-0.02255,0.017092,0.021551,0.02595,-0.0053298
0.023756,-0.0046627,-0.047813,0.18812,0.016028,-0.015815,-0.012403,-0.10116
-0.015381,0.040014,0.083646,-0.33693,-0.0247,-0.030107,-0.034839,0.068915
0.031551,-0.056326,0.028043,0.0037526,-0.026929,0.0017497,-0.0024922,-0.0099306
-0.061922,-0.058768,-0.059386,0.030688,-0.0060845,-0.014144,-0.0014654,-0.02441
-0.0067845,0.02544,-0.023216,0.033391,-0.0087048,-0.015197,0.0072029,0.010363
0.056143,0.0014841,0.089169,0.23901,0.067174,0.030131,0.0078627,0.016286
0.024977,0.080602,-0.13643,-0.062808,-0.012437,0.01287,0.0083676,0.0083983
-0.022541,-0.065341,0.011131,-0.19971,-0.012872,0.003742,0.00098841,0.079301
0.0069945,-0.030493,0.016704,-0.015125,-0.027742,-0.004753,-0.014176,0.079046
0.027459,0.098427,0.044943,0.10832,0.028856,0.010973,0.017649,0.14673
-0.054826,0.031281,0.088609,-0.032476,0.0004727,-0.011613,-0.020668,-0.53912
-0.059799,-0.09249,0.030983,0.085862,0.027412,-0.0023938,-0.0041207,0.12259
-0.01806,-0.023945,-0.112,-0.03682,-0.039152,-0.00073316,0.0047375,-0.047502
0.071201,0.064362,-0.074524,-0.033531,-0.0042981,0.00084928,0.0057893,0.12356
0.052532,-0.054221,-0.036218,-0.037285,-0.016804,-0.021378,-0.0089509,0.10604
-0.057843,0.035,0.057581,0.014222,0.0090121,0.026137,0.038437,0.042124
0.060653,0.044317,0.089547,0.011429,0.033927,-0.01293,-0.0084953,-0.066908
-0.021804,-0.047754,-0.010907,0.032257,-0.0046312,0.01773,-0.0014457,-0.040601
-0.0088454,-0.043607,0.052692,-0.017298,-0.012908,-0.014526,-0.018566,0.058734
-0.010608,-0.12848,-0.1342,0.026509,-0.0064608,-0.015704,-0.036301,-0.089534
-0.012329,0.12912,0.052932,-0.063258,0.014831,0.022275,0.023733,0.02957
0.0086345,0.073881,-0.034673,0.025513,-0.026981,-0.017538,-0.0099769,-0.053497
-0.0029961,0.018043,0.1107,0.089369,0.055834,0.021273,0.027024,0.098014
-0.0084641,-0.039921,-0.088837,0.034373,-0.0098763,0.013773,0.017892,-0.00084128
-0.0077737,-0.016736,-0.070245,-0.2254,-0.051912,-0.01664,-0.013721,-0.069134
-0.00067092,0.052951,0.073538,0.013443,-0.0074366,-0.0075959,-0.0052653,-0.013168
0.021083,0.095289,-0.031546,0.11853,0.014479,0.0094693,0.011881,0.065664
0.018918,-0.095858,0.10759,-0.058015,-0.0015792,-0.020337,-0.025058,-0.019831
0.0011119,-0.030172,-0.0083882,0.070307,0.03039,-0.0034558,0.00072953,-0.011501
-0.024154,-0.12984,-0.15263,0.0039255,0.024336,0.020899,0.010711,-0.034078
0.0058602,-0.049783,0.041828,0.0087091,0.011223,0.013563,0.0045031,0.092245
0.0053295,0.072141,0.027368,-0.032469,-0.056224,-0.017698,-0.0025691,-0.031039
-0.010112,-0.065143,0.021504,0.0053225,0.0012454,-0.010381,-0.018498,-0.013544
0.029782,0.30775,0.09298,-0.042098,-0.0042464,0.012132,0.026995,0.0037519
-0.070411,-0.14975,-0.048922,-0.018582,0.0051749,0.0030615,-0.014411,-0.0029617
0.032913,0.1035,0.078746,0.036757,0.0059843,0.0016005,0.013796,-0.0027336
-0.035424,-0.041235,-0.095209,-0.040166,-0.009563,-0.0077203,-0.0052015,-0.026961
0.083739,0.10286,-0.25837,0.055298,0.0055876,-0.0012979,-0.024089,0.018151
0.0073428,-0.28632,0.22288,0.01835,-0.0030225,-0.010224,0.012272,0.0078346
