-0.092794,-0.0088463,0.021273,-0.011178,0.0054708,0.0033826,0.10589,-0.22192
0.053508,0.016452,0.021288,0.020054,0.020912,-0.018696,0.3368,0.079907
-0.051897,-0.0025092,-0.086745,-0.026472,-0.033636,-0.041468,-0.38663,-0.20524
0.097753,0.035431,0.079911,0.020872,0.029256,-0.065271,-0.12751,0.38158
-0.11536,0.012214,0.020866,0.013381,-0.0014718,0.081605,-0.081139,0.1906
-0.034992,-0.042162,-0.014521,-0.02574,-0.0087888,0.04762,0.089067,-0.52059
0.042632,-0.027592,-0.089483,-0.026317,-0.008487,-0.057648,-0.0064799,-0.25107
-0.053124,0.062305,0.18596,0.074145,0.038358,0.05521,0.094173,0.2745
0.038694,0.0076166,-0.032319,-0.0054556,-0.008945,-0.011786,0.25879,-0.12898
-0.0084568,-0.028261,-0.15835,-0.061697,-0.0097343,-0.031542,-0.22366,0.1344
0.080111,-0.029706,-0.090106,-0.023866,-0.041975,-0.019114,0.23978,0.54245
-0.069959,0.011813,0.12631,0.03815,0.019603,-0.020829,-0.46927,-0.56118
0.0021865,0.0039343,0.01522,0.015327,0.034706,0.088762,0.53869,0.32201
0.21766,-0.0124,-0.0085935,0.0094002,-0.051036,-0.12758,-0.37756,-0.013565
-0.073204,-0.074165,0.1411,-0.0031587,0.028212,0.14264,0.032285,-0.11757
-0.14519,0.10185,-0.14534,-0.030549,-0.016588,-0.085305,-0.1289,-0.27352
-0.101,-0.029746,0.10002,-0.010927,0.0018419,0.031679,-0.12469,0.033135
0.14461,0.05527,-0.0068318,0.10175,0.067415,0.023902,0.24253,0.11534
-0.27565,-0.041612,-0.13124,-0.044934,-0.023638,-0.00034309,0.013716,-0.048372
0.31823,0.061546,0.13981,-0.0063824,0.001411,0.043821,0.57255,0.24034
0.005022,0.011702,-0.084816,-0.0017308,-0.0064949,-0.14135,-0.7534,-0.030691
-0.011519,0.033652,-0.03928,-0.054358,-0.063358,0.053,0.10415,-0.24902
0.042521,-0.10087,0.011724,-0.023093,0.0026698,-0.052924,0.071706,0.063893
-0.07485,-0.13537,0.046281,0.053974,0.027893,-0.013477,0.082967,-0.091672
-0.30902,-0.00034291,-0.090045,0.0062061,0.036465,0.14861,0.36868,0.032602
0.48817,0.13211,0.073247,-0.016676,-0.040979,0.051538,-0.42542,0.58939
-0.15238,-0.011264,0.021857,0.0098578,-0.00028773,-0.076934,-0.277,-0.51223
-0.051259,0.046474,-0.0013904,-0.01505,-0.020218,-0.12611,0.16639,-0.051139
-0.099217,-0.0067827,-0.0044745,0.080679,0.10304,0.19443,0.26695,0.63191
0.07889,0.01676,0.16015,-0.015768,-0.067679,-0.29373,-0.34594,-0.35663
0.092865,0.12512,0.014517,0.030808,0.014448,0.20729,0.58284,-0.23563
-0.04098,-0.20492,-0.41167,-0.12434,-0.01038,0.01058,-0.64494,-0.53321
-0.079598,-0.012046,0.19272,-0.0057232,-0.064758,-0.26673,-0.4398,0.29581
0.032609,-0.014346,-0.063888,0.026325,0.10041,0.42925,0.7231,0.21269
0.29644,0.16409,0.31811,0.057001,-0.0080106,-0.27805,0.45186,0.46049
-0.68605,-0.2804,-0.37211,-0.078215,-0.062789,0.26544,-0.18704,-0.28918
0.36642,0.074981,0.037803,0.050189,-0.002112,-0.15363,-0.082106,-0.50782
0.070442,0.12133,0.26722,0.12198,0.12674,0.03274,-0.098965,0.46236
-0.020579,-0.008724,-0.15986,-0.14378,-0.11383,-0.036501,-0.04762,0.44732
0.32586,0.18383,0.13196,0.058061,0.057706,-0.11993,-0.056098,0.050914
-0.30652,-0.14643,-0.18534,-0.11568,-0.12378,-0.045366,-0.30403,-0.73473
-0.021499,0.10775,0.044319,-0.00034871,-0.0013583,-0.022492,-0.0070213,-0.090418
-0.13338,-0.21983,0.015888,0.13112,0.14438,0.35682,-0.16747,-0.14205
-0.12765,-0.14655,-0.052385,-0.088155,-0.10792,-0.28819,0.45525,0.47022
0.27666,0.1156,0.088956,0.044966,0.093541,-0.026101,-0.094348,0.13957
0.087848,0.17581,0.040978,0.10833,0.11588,0.3395,0.83546,0.19918
-0.25546,-0.074631,-0.18887,-0.15638,-0.19747,-0.19107,-0.54405,-0.54637
0.30297,0.12351,0.20398,0.093962,0.059322,0.038028,-0.040039,0.045975
0.085316,-0.087181,-0.038105,-0.070887,-0.075068,-0.044391,-0.11011,0.19183
-0.40638,-0.11066,-0.078653,-0.049693,-0.053973,-0.12678,-0.29073,-0.2899
0.25196,0.016394,0.052,0.11067,0.17733,0.094836,0.43699,0.65507
-0.17954,0.038402,-0.051194,-0.042544,-0.037125,0.065609,-0.26574,-0.39545
0.027885,0.019656,0.042791,-0.0086758,-0.032831,0.0047279,0.092672,-0.60666
-0.14731,-0.038729,-0.15699,-0.060316,-0.012381,-0.21182,-0.40022,0.11228
0.13206,-0.050571,-0.0090056,0.0065002,-0.029965,0.050043,0.21977,0.63882
0.39752,0.25687,0.29171,0.13774,0.078847,-0.02095,0.33937,0.3242
-0.19546,-0.071108,0.025976,-0.017854,-0.0060951,0.26349,-0.15506,-0.014186
-0.24256,-0.25549,-0.21362,-0.093169,-0.058314,-0.049666,0.11382,-0.47485
0.12068,0.26366,0.13374,0.051943,0.023425,-0.023665,0.12326,0.038299
-0.22616,-0.24275,-0.15257,-0.028585,-0.0035836,-0.12872,-0.40896,-0.65945
0.40119,0.24662,0.16011,0.078435,0.055342,0.078558,0.4213,0.56112
0.085925,-0.0977,-0.12471,-0.080942,-0.042609,0.018084,-0.2635,0.17491
-0.26758,0.11447,0.0002925,0.031736,0.030187,-0.13986,-0.1608,-0.3648
-0.22252,-0.27258,-0.14426,-0.07602,-0.015605,0.32263,0.19713,0.27948
0.17477,0.023762,0.090978,0.0098747,-0.031532,-0.21155,0.15451,0.03191
-0.089667,0.013251,0.19951,0.016269,-0.0798,-0.16324,-0.30237,0.074433
0.21314,0.096424,-0.090716,0.037344,0.0979,0.047505,-0.10019,-0.17721
0.093664,0.25952,0.1356,0.057919,-0.0135,0.032191,0.1315,0.23084
-0.17222,-0.21492,-0.10502,-0.015408,-0.030729,-0.066586,-0.29993,-0.54555
-0.16869,-0.20137,-0.28077,-0.11994,0.054254,0.24465,0.6067,0.15625
0.21441,0.21399,0.2648,0.13502,0.085126,-0.010398,-0.063553,0.26365
0.047121,0.045874,-0.0074912,-0.047442,-0.047827,0.06584,0.037867,0.21138
-0.054617,-0.12109,-0.12143,-0.057978,-0.032604,0.049741,0.36721,0.020132
-0.06935,0.063223,0.24275,0.079994,-0.041575,-0.31088,-0.73718,-0.64826
0.0084141,-0.17593,-0.29064,-0.10998,-0.051642,0.075676,0.079067,0.25975
0.20772,0.1371,0.074513,0.028549,0.023057,-0.10451,-0.031386,0.05699
-0.098073,0.22851,0.36094,0.15207,0.057722,0.023099,-0.2263,0.25315
-0.18316,-0.31553,-0.47097,-0.17667,0.021535,0.11526,0.27623,-0.29693
0.069947,0.07609,0.10974,0.058125,-0.022439,0.017023,0.056799,-0.19849
-0.14998,0.037387,0.43123,0.16904,0.074826,0.027017,0.22058,0.46686
0.10431,-0.25058,-0.73268,-0.28145,-0.12364,-0.11859,-0.072168,-0.50036
0.10061,0.19781,0.33739,0.12057,0.030993,0.058278,0.033878,0.23798
-0.049782,0.10213,0.048404,-0.00012895,-0.031358,0.066411,-0.23159,-0.028994
0.16224,0.025082,-0.044399,0.0045472,0.048701,0.023393,-0.053765,0.16526
0.034069,0.044313,0.059163,0.016989,0.060041,-0.0084177,0.10003,0.21492
-0.075083,-0.091203,0.046259,-0.033612,-0.099298,-0.12327,0.035128,-0.0027088
-0.14236,-0.15623,-0.1699,-0.014979,0.031061,0.0062846,-0.10012,-0.28225
0.026937,-0.0036287,0.042263,-0.005751,-0.01829,-0.026625,0.099857,-0.018576
-0.075396,0.1156,0.22829,0.11085,0.048852,0.12125,0.41522,0.21624
0.035032,-0.017804,-0.23011,-0.040389,0.013161,-0.058258,-0.55385,-0.37325
-0.086744,0.11186,0.27597,0.071898,-0.0085684,-0.0028847,0.011485,-0.024707
0.15349,-0.11978,-0.30774,-0.16117,-0.071153,-0.017565,0.078457,-0.51256
0.20136,0.085209,-0.05015,-0.012128,0.01307,0.014548,-0.23727,0.58489
-0.1542,-0.099975,0.10571,0.028023,0.010155,0.061701,0.29709,0.21964
-0.10136,-0.03336,-0.2046,-0.055047,-0.0011625,-0.11116,-0.31241,0.23171
-0.039785,0.020513,0.27933,0.11476,0.018846,0.18271,0.85435,-0.0112
0.052352,-0.086254,-0.15939,-0.063484,-0.022989,-0.12776,-0.28236,-0.3639
0.1811,0.12268,0.12821,0.082026,0.053402,0.058487,0.026574,0.51105
-0.061388,0.13845,0.25046,0.066099,-0.0018654,-0.04776,-0.2499,-0.63653
-0.082466,-0.025094,-0.28729,-0.073658,0.021999,0.0226,-0.52423,0.02129
-0.093427,-0.018537,0.10525,-0.010927,-0.094107,-0.18272,-0.31695,-0.014165
0.05472,0.0858,0.041606,0.018151,0.024363,0.09532,0.58645,0.050154
0.066554,-0.27591,-0.16876,-0.073686,0.017586,0.10026,0.54082,0.10423
0.0067452,0.052365,0.050628,0.0098724,-0.0054059,-0.065103,-0.022014,0.24428
-0.075289,-0.10795,-0.16728,-0.051145,0.002086,0.10791,0.18729,-0.18884
0.057297,0.29229,0.28104,0.19758,0.079141,-0.028803,-0.63752,-0.1653
-0.1717,-0.3533,-0.46046,-0.25777,-0.12561,-0.069215,-0.038495,-0.32692
0.16836,0.067717,0.057478,0.0066693,0.00536,-0.006163,-0.13633,0.10539
-0.14942,0.1827,0.38528,0.11768,0.027117,0.089158,0.71429,0.50247
0.22488,0.11777,-0.045073,0.045105,0.049393,-0.010679,-0.37138,0.42789
0.19476,0.052127,0.20441,0.093836,-0.029136,-0.071924,-0.041968,-0.3151
-0.22751,-0.24279,-0.2115,-0.072832,-0.013099,-0.079189,-0.10053,0.035773
0.0876,0.22212,0.14952,0.090439,0.081746,0.045833,-0.1923,-0.38302
-0.22949,-0.26762,-0.21628,-0.23859,-0.11208,0.045847,0.17122,-0.46595
0.023363,0.042613,-0.12499,-0.014915,0.014398,0.02309,0.048859,0.45614
-0.082755,0.18183,0.29587,0.18195,0.038915,-0.076505,0.22509,-0.28982
-0.022044,-0.30393,-0.41561,-0.093908,0.047085,0.23963,0.27185,0.3041
0.068332,0.062525,0.077269,-0.014113,-0.062821,-0.20819,-0.5456,0.34818
0.12186,0.017493,0.081322,-0.0072782,-0.056403,-0.037523,0.14549,-0.0080677
0.095016,0.079318,0.044792,-0.040515,0.011878,0.032163,-0.11956,-0.17788
0.052504,0.19627,0.32223,0.16149,0.064287,-0.023498,0.014157,-0.01246
-0.14557,-0.18369,-0.14649,-0.024488,0.038815,0.14609,0.17494,-0.39461
-0.039083,-0.027421,-0.25844,-0.097114,-0.0015223,0.040086,0.077758,0.26144
0.073033,-0.013719,0.088162,0.014633,-0.07189,-0.06855,-0.061082,0.42435
-0.18712,0.11511,0.33,0.1076,-0.046952,-0.17203,-0.21892,-0.68709
0.15384,-0.040371,-0.37819,-0.1002,0.034377,0.058288,-0.011992,0.29456
-0.016478,0.033814,0.1259,0.030551,-0.015499,-0.11883,-0.10192,-0.20857
-0.052038,-0.15647,-0.12039,-0.025271,0.0843,0.19627,0.2334,0.60054
0.053415,-0.042849,-0.14963,-0.042897,0.020649,0.036018,-0.26027,-0.5361
0.049321,0.16206,0.33422,0.12445,-0.0041276,0.010687,0.56077,0.091906
-0.056055,0.1055,0.16671,0.038002,-0.014305,-0.051195,-0.066986,0.27272
-0.07386,-0.17412,-0.38656,-0.15454,-0.073091,-0.016957,-0.24413,-0.38529
0.11515,0.049751,0.041815,0.015491,0.006583,-0.012223,0.037172,0.39828
-0.10373,-0.1364,-0.1338,-0.09196,-0.080036,-0.045751,0.026351,-0.24404
0.037693,0.096578,0.21191,0.055446,0.073597,0.10016,-0.081924,0.22739
0.010528,0.21881,0.48552,0.25601,0.09306,-0.051984,-0.092711,-0.23271
0.082244,-0.15098,-0.21103,-0.098085,0.041585,0.067482,-0.0059475,-0.11392
-0.10539,-0.13635,-0.55689,-0.14605,-0.11133,-0.049475,0.038115,-0.20207
0.20581,0.04516,0.11281,0.02734,-0.0056584,-0.035438,0.055463,0.38897
-0.22675,-0.097911,-0.12284,-0.085032,-0.070627,-0.10073,-0.11803,-0.21316
-0.19316,0.0048436,0.04964,0.017029,0.0064819,0.068004,0.43868,0.36787
0.29728,0.37626,0.63091,0.25503,0.14749,0.05756,-0.28399,-0.087047
0.016289,-0.063018,-0.081991,-0.035944,0.023956,0.087357,0.11764,0.021572
0.048094,-0.080184,-0.23796,-0.083668,-0.036479,0.001455,-0.18756,-0.0049071
0.12566,-0.012729,-0.1582,-0.069136,-0.081246,-0.11431,0.18034,0.17342
-0.36909,-0.19769,0.14067,-0.0013164,0.0063757,0.020876,-0.046459,-0.2282
-0.045745,-0.010432,-0.2172,-0.013799,-0.031696,-0.015538,-0.3378,-0.49356
0.13519,0.15111,0.25215,0.088443,0.046713,-0.0054993,0.18941,0.094888
-0.051949,-0.23536,-0.38878,-0.15532,-0.023798,0.066039,-0.025818,0.076134
0.10478,0.17536,0.19623,0.067975,-0.0084879,-0.082511,0.18307,0.38821
0.020176,0.1111,0.3435,0.11849,0.06179,0.033188,0.037826,0.023773
-0.039975,-0.0055583,-0.040434,-0.0029849,0.046719,0.077453,-0.044475,-0.040792
-0.0059096,-0.026218,-0.16639,-0.045786,-0.045744,-0.074227,-0.194,-0.1971
0.21496,0.13431,0.14536,0.0061878,-0.075011,-0.11656,0.01308,0.23296
0.043055,-0.087633,-0.27698,-0.042096,0.060284,0.099501,0.14824,0.2479
-0.39017,-0.11501,-0.26125,-0.088963,-0.03079,0.058763,-0.022596,-0.38729
0.047269,0.067168,0.4821,0.139,0.0029785,-0.012016,0.23456,-0.030956
0.05067,-0.15037,-0.13227,-0.022409,0.051869,0.051125,-0.1437,-0.14105
-0.02761,-0.10271,0.021111,-0.042197,-0.056295,-0.095918,-0.39295,-0.30647
-0.02993,0.094273,0.067395,0.048008,0.037635,0.061972,0.17307,0.35363
0.13904,0.090317,-0.10313,-0.033538,-0.018038,-0.077289,0.037518,0.071499
-0.10532,0.144,0.21963,0.048521,-0.012416,-0.021926,0.035164,-0.17224
0.11265,0.020764,-0.19995,-0.026742,0.023304,0.079399,0.21954,0.44405
0.097477,-0.15563,-0.23047,-0.088022,-0.051367,-0.05458,-0.090215,-0.042594
-0.089189,0.07364,0.22043,0.083007,0.013774,-0.017459,-0.22331,-0.0044979
0.15299,0.10452,0.1517,0.079907,0.070557,0.089467,0.3428,0.29327
-0.27861,-0.080862,0.047219,-0.019052,0.0099428,-0.03036,-0.24387,-0.52428
0.060901,-0.14007,-0.25687,-0.0649,-0.0035817,0.076511,0.0090206,-0.073118
0.0080523,0.028499,0.22482,-0.0098478,-0.016366,-0.011467,-0.12426,-0.060217
-0.068287,-0.089237,-0.29503,-0.10269,-0.14498,-0.19239,-0.0016674,0.10014
-0.11092,-0.013893,0.05302,0.079783,0.056533,0.041893,0.066105,0.028607
0.093909,0.015869,-0.13492,-0.039392,0.0028017,0.090149,0.54968,-0.15122
0.040786,0.18319,0.3228,0.10304,0.030089,-0.094267,-0.61179,-0.19704
0.21542,-0.02498,-0.11186,0.038439,0.15398,0.23871,0.16879,0.46919
-0.14023,-0.045014,0.021879,-0.046316,-0.079154,-0.10638,-0.2174,-0.0216
0.018797,0.16152,0.28504,0.035,-0.084267,-0.1534,0.22947,0.38041
0.071961,-0.063888,-0.28577,-0.023993,0.035874,0.097051,-0.061788,-0.22369
0.054115,-0.013685,0.025284,-0.021942,-0.0012805,0.019185,0.11047,0.068817
-0.31245,-0.12917,0.15304,-0.022836,-0.064116,-0.075339,-0.052576,-0.66964
0.15627,0.10188,-0.091782,0.027104,0.10427,0.10952,-0.037398,0.28097
0.059713,-0.0416,-0.30339,-0.05979,-0.012225,-0.028503,0.060285,0.25831
-0.1493,-0.083821,-0.13716,-0.056402,-0.046437,0.010077,-0.0032062,-0.11721
-0.070899,-0.039569,0.14318,0.038365,0.002086,-0.0093158,-0.04894,-0.012147
0.071185,0.062113,0.2352,0.069603,0.0013508,-0.047469,-0.13932,-0.23925
-0.039792,0.0054985,0.17987,0.030753,-0.047598,-0.056991,0.015646,0.16408
0.10753,-0.042198,-0.16242,-0.02261,0.051639,0.087944,0.097154,0.067955
0.18004,0.25756,0.30981,0.11301,0.081264,0.036795,0.18514,-0.10241
-0.062812,-0.085885,-0.10759,-0.12505,-0.12211,-0.11562,-0.2343,0.0074658
-0.019189,-0.11135,-0.51763,-0.042002,0.082471,0.10824,0.027723,0.040064
-0.10402,0.10204,0.20336,0.041135,0.0075031,-0.0096375,0.1439,0.37874
-0.037659,-0.056925,-0.19527,-0.055961,-0.042582,0.015593,0.059781,0.15566
0.11561,0.073584,0.27886,0.072582,0.025593,-0.026837,-0.27174,-0.61486
-0.059729,-0.047512,0.12674,0.043932,0.0085549,-0.0041987,0.055018,-0.035689
-0.033187,-0.12468,-0.16575,-0.094682,-0.070476,-0.065204,0.047174,-0.052764
-0.062492,-0.048949,-0.018816,-0.076991,-0.086535,-0.046192,-0.061548,0.084345
0.040698,0.11779,0.061104,0.11342,0.12456,0.1383,0.20493,0.16624
-0.042609,0.0097106,0.05143,0.024183,0.039572,0.034621,-0.13021,0.0077966
0.087429,-0.027664,-0.11798,-0.02384,-0.0053928,-0.021781,-0.03572,-0.11487
0.18191,0.04642,0.091409,0.024263,-0.018083,-0.054788,0.0042792,0.21476
-0.12586,0.0066127,0.037934,-0.011335,0.0014188,-0.025651,0.044895,-0.071866
-0.031421,0.017425,-0.092259,-0.0060918,-0.0095955,0.018605,0.0085152,-0.044321
-0.11383,-0.023105,-0.027104,-0.015359,-0.020162,-0.0079421,-0.073138,-0.070239
0.10988,0.079199,0.036949,0.022638,0.016297,0.012037,0.042423,-0.096541
0.052141,0.010244,0.12261,0.0056938,-0.033295,-0.054091,-0.11354,0.030394
-0.038617,-0.20822,-0.30162,-0.097908,0.026165,0.13755,0.19299,0.29153
-0.077686,0.062995,0.1785,0.039715,-0.047675,-0.10054,0.094122,-0.16068
0.035782,-0.028552,-0.13189,0.0044483,0.065347,0.067389,-0.12209,0.084024
0.012613,0.14972,0.30685,0.085431,0.04476,-0.015228,-0.15208,-0.18068
-0.045153,-0.12832,-0.090779,-0.045352,-0.031494,-0.028491,0.018675,0.07433
-0.019382,0.0054511,-0.10576,-0.028446,-0.062031,-0.043111,0.037746,0.12185
0.20055,0.075692,-0.042779,0.026782,0.038947,0.057804,0.037398,-0.19327
-0.13399,-0.0022486,0.066744,0.0030979,-0.025484,-0.014928,0.18937,0.18645
0.025154,0.038384,0.11316,0.017631,0.010385,-0.019023,-0.099764,-0.27391
-0.047513,-0.12191,-0.083475,-0.023374,0.03741,0.014574,-0.14174,0.071214
-0.038763,0.04074,-0.054553,-0.010438,0.0012842,0.062907,0.1115,-0.17176
0.082963,-0.083049,-0.2063,-0.068316,-0.050618,-0.060922,-0.21358,0.38393
-0.073123,0.16261,0.22708,0.06118,-0.0083565,-0.043767,0.032991,-0.25163
0.031406,0.011459,0.097448,0.026944,0.027073,0.021236,0.024421,0.2498
0.13769,0.072116,0.20986,0.055992,0.032715,0.06427,0.40219,0.28463
-0.10716,-0.24989,-0.45094,-0.12474,-0.0458,-0.031541,-0.30222,-0.30718
0.029803,0.060528,0.10765,0.039633,-0.0052607,-0.00048729,0.13731,-0.04598
0.00823,-0.0047526,0.018799,0.033489,0.05259,0.0088386,-0.053623,-0.1006
-0.18847,-0.078636,-0.11562,-0.049663,-0.044571,-0.035186,-0.25122,-0.32654
0.079824,0.10452,0.09515,0.024097,0.022906,-0.00028277,0.10583,0.062703
0.086541,0.091558,0.11197,0.027588,0.0042273,0.026983,-0.022523,0.39427
0.035245,0.02298,0.067274,-0.016438,-0.023282,0.014733,0.19125,0.15304
-0.081103,-0.054603,-0.11761,0.00076119,0.033457,-0.0063288,-0.081225,-0.042045
0.027533,-0.00084195,0.041078,0.047496,0.0099655,0.041551,0.2383,-0.024256
-0.01281,-0.018988,-0.043002,-0.048236,-0.054761,-0.12301,-0.42789,-0.28246
0.056671,-0.022918,0.012917,0.018512,0.027097,0.062606,-0.024511,-0.10985
-0.075672,-0.058926,-0.10325,-0.079744,-0.03285,-0.026211,0.17571,0.091032
-0.01076,-0.079212,-0.12511,-0.053023,-0.022745,0.048599,0.071887,-0.074974
-0.0060294,0.034506,0.034223,0.037189,0.0037221,-0.024814,0.18799,0.69144
0.024541,0.15822,0.19577,0.10583,0.078689,0.027607,-0.25688,-0.55388
0.080738,0.050365,0.1879,0.044064,0.0074543,-0.028019,-0.028198,0.079408
0.0058437,0.031324,-0.04451,0.0081894,-0.014446,-0.019528,-0.07907,-0.13704
0.0023361,-0.1338,-0.19784,-0.080348,0.0049879,0.068759,0.17637,0.1531
-0.16488,-0.063206,-0.015717,-0.02704,-0.028528,-0.021152,-0.066697,-0.09312
0.0034918,0.038708,0.10191,0.0030546,-0.037636,-0.047447,-0.042844,0.073154
0.0068447,-0.024677,-0.19771,-0.022293,0.031501,0.067494,0.2867,0.42135
0.079066,0.081476,0.11599,0.04457,-0.0016059,-0.090955,-0.32846,-0.54387
0.14169,0.020506,0.011749,0.023477,0.018645,0.023525,-0.068519,-0.058711
-0.00075707,-0.075018,-0.1193,-0.062263,-0.033176,-0.0036215,0.20653,0.197
-0.16851,0.021735,0.18472,0.021925,0.022431,0.085041,0.089779,-0.18924
0.037242,0.014629,0.081163,0.026501,0.005824,0.031475,-0.091301,0.38708
-0.12498,-0.079613,-0.20228,-0.047913,-0.028053,-0.11747,-0.1107,-0.35142
0.002027,0.099663,0.20259,0.088427,0.054031,0.029006,0.24998,0.052434
0.1615,-0.055669,-0.17212,-0.032589,-0.013014,-0.044304,-0.36091,0.14117
-0.059692,-0.052416,-0.11479,-0.074498,-0.033279,0.022543,0.15062,-0.22357
0.042128,0.10999,0.23442,0.04118,-0.029605,0.0036299,0.027208,0.11506
-0.0017225,-0.029335,-0.20241,0.0020935,0.045418,0.04799,0.035102,0.13241
0.027044,0.068155,0.11372,0.050368,0.0046939,-0.047078,-0.082888,0.23976
0.010355,-0.043788,0.16674,-0.017383,-0.0031265,0.031091,0.080024,-0.32446
-0.029451,-0.038221,-0.23168,-0.045339,0.0063129,0.063628,0.14925,0.17015
-0.038766,0.060223,0.050141,0.0050206,-0.029751,-0.082651,-0.20305,-0.20931
-0.080942,-0.14006,-0.051647,-0.015338,0.013198,-0.025467,-0.0078469,-0.16779
-0.015865,0.016584,0.063125,0.017994,0.0016992,0.023662,0.016435,0.0056578
0.054735,0.10029,0.19792,0.081052,0.06784,0.056407,0.057721,0.15655
0.052812,-0.052755,-0.17937,-0.060938,-0.070329,-0.068222,-0.10224,0.17858
0.056704,0.026753,-0.07681,-0.033192,-0.014933,-0.01446,-0.0098318,-0.42456
0.082283,0.050497,0.037264,0.031502,-0.00068968,-0.001034,0.069622,0.53031
-0.15144,-0.058827,-0.015699,-0.0071903,0.027031,0.065985,0.034552,-0.18073
0.0042813,0.027708,0.00039036,0.0075486,0.0059622,0.0071879,0.048595,-0.025047
-0.059462,-0.056361,0.0094541,-0.040668,-0.04777,-0.052103,-0.1391,-0.057344
0.04079,0.056761,0.060428,0.052245,0.03841,-0.0021923,0.13436,0.088355
-0.037871,-0.054342,-0.016818,-0.0017542,0.038758,0.0087809,-0.10106,-0.2306
0.14301,0.063727,0.1695,0.017032,-0.014635,0.098277,0.25505,0.48349
-0.095347,-0.049918,-0.25524,-0.062521,-0.050681,-0.12408,-0.33716,-0.34182
-0.017834,-0.075172,-0.12741,-0.052489,0.0093648,0.045088,0.020498,-0.075223
-0.014717,0.073413,0.12205,0.031508,-0.037239,-0.058074,0.00018203,-0.014286
0.046709,0.1607,0.3272,0.15775,0.05959,-0.019333,-0.061453,-0.11205
0.033013,-0.14239,-0.16271,-0.049714,0.049591,0.13013,0.22714,0.20245
-0.025641,-0.02444,-0.13129,-0.076546,-0.067836,-0.04727,0.16373,0.43789
0.041218,0.091679,0.16938,0.036691,-0.012336,-0.051791,-0.28228,-0.5144
-0.033546,-0.17766,-0.3403,-0.070849,0.050952,0.061445,-0.063687,-0.060358
0.045576,0.15924,0.3,0.08398,-0.004093,0.01845,0.19458,0.19041
-0.13647,-0.038364,-0.089161,0.015998,0.0090296,-0.025109,-0.077873,-0.16124
0.021419,-0.082702,-0.15518,-0.111,-0.074472,-0.046308,0.0094732,0.41498
-0.004081,0.018978,0.040972,0.015792,0.018499,0.0091929,-0.027713,-0.21469
0.07671,0.087763,0.18851,0.069057,-0.0088278,-0.038419,-0.064185,0.035117
-0.00087157,0.11672,0.30465,0.034377,0.055033,0.053162,0.056759,-0.24172
-0.032599,-0.1745,-0.4921,-0.071198,0.015689,0.057716,0.046632,0.026104
0.021637,-0.042869,-0.044543,-0.027458,-0.024115,-0.024241,-0.16432,-0.019006
-0.0013795,0.067042,0.31202,0.065345,-0.0083935,0.01886,0.28366,0.070559
0.039547,-0.05511,-0.18761,-0.033971,-0.045273,-0.085744,-0.15622,0.10182
-0.03499,0.098875,0.074049,0.011117,-0.024358,-0.048355,0.031376,-0.079595
-0.0062027,-0.0099505,0.026902,0.067898,0.078417,0.061211,-0.11513,0.21479
-0.01486,-0.06928,-0.26646,-0.10619,-0.041533,-0.014605,0.11425,-0.10108
-0.10028,-0.0093203,0.12353,0.034908,0.084049,0.12257,0.054389,-0.17686
0.14346,0.05975,0.17299,0.0057047,-0.030269,-0.027698,-0.084871,0.15727
-0.049649,-0.097447,-0.27518,-0.10136,-0.026594,-0.020815,-0.015377,-0.046576
0.085625,0.29147,0.57462,0.23585,0.030888,-0.068643,0.012258,0.091791
-0.091756,-0.21192,-0.41976,-0.10882,-0.023489,-0.00026065,-0.04125,-0.37526
0.097528,0.024605,0.068248,0.0044259,0.012152,0.027257,0.074286,0.36303
-0.11242,-0.045942,-0.0016723,-0.057559,-0.050354,-0.017908,-0.031199,-0.16305
-0.049852,-0.12623,-0.30206,-0.083655,-0.007842,0.059319,0.041573,0.07754
0.11341,0.18312,0.29996,0.12215,0.023244,-0.014385,0.035779,0.29628
-0.052103,-0.054113,0.00047274,-0.0015502,0.012971,-0.027649,-0.13352,-0.50566
0.078979,-0.00068131,-0.066403,0.0074889,0.002069,-0.034477,-0.067019,0.040509
-0.0085152,0.071052,0.085241,0.0099338,0.0078939,0.036276,0.1421,0.31171
