-0.13642,0.10773,-0.0076829,0.020229,0.031099,0.024463,-0.058363,-0.18663
-0.050293,0.057042,-0.045927,0.0055391,0.023855,0.073415,0.10108,0.74524
0.13354,-0.23219,-0.055045,0.025058,-0.012618,-0.047152,-0.11663,-0.70058
-0.19105,0.24093,0.26174,0.039155,0.069707,0.12309,0.35764,0.64806
0.37683,-0.28875,-0.26718,-0.10929,-0.10478,-0.08868,0.20127,-0.84825
-0.059969,0.30373,-0.031736,0.016209,-0.0055248,-0.06636,-0.43245,-0.062437
-0.13446,-0.083713,0.07073,-0.038439,-0.01597,-0.0062729,0.078543,0.086263
0.011075,0.31359,0.096253,0.069708,0.050877,0.012706,-0.11948,0.061308
-0.29033,-0.62285,-0.12564,-0.034903,-0.031874,-0.0019895,-0.23053,0.42678
0.24659,0.097597,-2.3057e-05,0.014633,0.040315,0.027781,0.066251,-0.16895
0.03947,-0.11269,-0.13558,-0.00046046,-0.013808,-0.0069989,0.21795,0.037739
0.47486,0.65077,0.35832,0.068437,0.040249,0.058338,0.0082775,0.34006
-0.53656,-0.34034,-0.15972,-0.1377,-0.062938,-0.017647,-0.09928,-0.2196
0.049972,0.15467,0.25415,0.15501,0.044087,0.015841,0.73328,0.081165
-0.27389,-0.14646,-0.27694,-0.091959,-0.021174,-0.067003,-0.74278,-0.42426
0.18056,-0.087657,-0.083141,-0.026515,-0.047452,-0.085855,-0.11297,-0.23602
0.10347,0.29291,0.0056553,0.062776,0.051501,0.092535,0.23959,0.12489
-0.0093264,-0.43243,-0.14467,-0.10495,-0.044394,-0.0004221,-0.20149,-0.055773
0.04144,-0.16706,0.21518,0.025207,0.016536,0.056972,0.32835,0.18828
-0.03753,0.10013,0.23356,0.10951,0.062376,0.029832,0.038972,0.42434
-0.024834,0.60652,-0.081204,-0.008499,-0.0086197,-0.090439,-0.39099,-0.10253
0.0027906,-0.20044,0.12351,0.084906,0.022034,-6.5161e-05,0.061018,-0.35309
0.068827,0.0941,-0.40075,-0.1419,-0.03342,0.065708,0.23023,0.52942
0.15652,-0.35428,-0.21454,-0.087643,-0.073568,-0.065639,-0.18071,-0.30352
-0.37668,-0.12562,0.14514,0.021037,0.018804,0.050928,0.46073,0.10322
0.31072,0.37108,0.37551,0.098334,0.0017257,-0.084446,-0.46265,-0.22451
-0.072427,0.11723,0.01695,0.011739,0.047424,0.036594,0.010298,0.19386
-0.27767,-0.34296,-0.19567,-0.074321,-0.03122,-0.03045,0.075383,-0.43984
0.10824,0.098082,0.080954,0.051393,0.0082719,-0.019051,-0.2433,-0.03051
0.11646,0.064705,-0.060705,-0.0016198,0.025372,0.10282,0.28154,0.24572
-0.049428,-0.34875,0.010394,0.0087274,0.012117,0.038779,0.16613,0.12796
-0.013716,0.21096,-0.020134,-0.0038296,-0.024062,-0.062651,-0.17506,-0.2541
0.23211,0.40249,0.088299,0.014912,0.033482,0.009174,-0.0075388,0.28269
-0.24108,-0.545,-0.32939,-0.10745,-0.097084,-0.074456,-0.089157,-0.017937
0.090472,0.24585,0.32027,0.14424,0.06813,0.084177,0.18153,0.27321
0.016085,0.011029,-0.095108,-0.066213,0.0054051,-0.039036,-0.14862,0.052597
0.098568,0.071507,0.097358,0.034646,0.011621,0.016362,0.061138,0.14591
-0.091232,-0.35436,-0.077578,-0.045068,-0.037918,-0.031058,-0.14978,-0.73761
-0.31032,0.40395,-0.12638,-0.078227,-0.048905,-0.04834,-0.038718,-0.34022
0.028226,0.11789,0.24893,0.08431,0.04187,0.097766,0.4729,-0.089681
0.27683,-0.53516,-0.18541,-0.0020832,0.0085577,0.0016449,-0.349,0.6502
-0.079743,0.2864,0.062769,-0.0009788,0.031413,-0.015687,0.026818,0.016065
0.090908,-0.028461,0.0083809,0.056525,0.0091592,-0.00046666,0.06873,0.2608
-0.11106,-0.12906,-0.084271,-0.064208,-0.058267,-0.092878,-0.28655,-0.37263
0.24953,0.42207,0.22838,0.050226,0.047468,0.082216,0.35828,0.34041
-0.041084,-0.17118,-0.11024,-0.030802,-0.010273,-0.014478,-0.052867,0.0359
-0.10292,-0.51687,0.038841,0.027601,0.0098489,0.0070443,-0.10743,-0.31611
-0.10221,0.26149,-0.21613,-0.033314,-0.025825,0.020835,0.083796,-0.25411
0.045982,0.0011159,0.13235,-0.0032442,0.022648,0.064807,0.16818,0.54353
-0.36108,0.17922,-0.1026,-0.030814,-0.048253,-0.080937,-0.40953,-0.27146
0.23299,0.18628,0.22113,0.063972,0.034866,-0.018876,-0.047686,-0.091288
0.16677,0.13078,-0.081825,-0.069691,-0.032373,0.023962,0.31698,0.07797
-0.0020688,-0.13694,-0.11056,0.014584,-0.0071821,-0.022595,-0.048536,-0.055717
0.12773,-0.36792,0.043581,0.028926,0.064336,0.045375,0.099781,-0.11014
-0.066595,-0.34369,-0.13305,-0.049005,-0.027939,-0.083255,-0.064049,0.15747
-0.044468,0.45988,0.31388,0.10973,0.044853,0.062016,0.040411,0.3256
-0.062843,0.052312,-0.052812,-0.056974,-0.060478,-0.087291,-0.24858,-0.5367
0.01147,0.11556,0.00059722,0.044617,0.0001534,0.048527,0.11018,0.16037
-0.16518,-0.16843,-0.24604,-0.10934,-0.015347,0.032977,-0.061306,-0.12964
0.16492,-0.27458,0.11947,0.082104,0.049149,0.022523,-0.051202,0.46516
-0.037589,0.42259,0.20456,0.087007,0.029281,0.024323,0.21063,-0.053471
-0.031172,0.18003,-0.047123,-0.11082,-0.020673,0.060393,0.043006,0.244
0.08144,-0.16076,-0.14453,-0.042987,-0.054296,-0.097756,0.13064,-0.34605
0.017186,-0.48581,-0.25221,-0.068976,-0.0095491,0.016559,-0.23347,-0.0026137
-0.1248,0.17,0.059599,0.022194,-0.011865,-0.11412,-0.28043,-0.69901
0.12916,0.25645,0.18976,0.066518,0.016479,-0.014518,0.1649,0.23534
0.29178,0.62277,0.27156,0.13422,0.082913,0.10386,0.20015,0.5758
-0.19413,-0.55214,-0.11664,-0.056298,-0.016044,0.053713,0.35388,-0.26692
-0.27543,-0.54057,-0.22489,-0.0056107,0.016183,-0.031326,-0.4295,-0.21664
-0.038261,-0.26143,-0.08469,-0.073785,-0.062775,-0.0093454,0.030892,0.58421
0.11233,0.71148,0.7334,0.1761,0.036157,-0.074169,-0.47255,-0.093644
-0.13368,-0.07025,-0.63775,-0.20934,-0.085201,0.010015,0.50278,-0.27791
0.15662,-0.086944,0.013357,-0.0033217,0.050221,0.049042,-0.24791,0.43938
0.35378,0.51539,-0.19501,-0.048878,-0.025642,-0.089212,-0.10908,-0.30884
-0.30494,-0.26302,0.02755,0.014419,0.00046312,0.18915,0.38534,-0.51593
-0.14574,-0.2601,0.14314,0.10959,0.0667,0.032196,-0.081689,0.050449
0.13685,0.15326,0.14444,0.034464,-0.013982,-0.11546,0.5142,0.42682
0.13621,-0.28537,0.03084,0.023902,0.016379,-0.004633,-0.2189,0.25881
-0.047363,0.23209,0.027198,-0.03151,-0.014249,-0.034442,-0.33082,0.090451
-0.040677,0.53053,0.3029,0.0083274,-0.020337,-0.11149,-0.33321,-0.19807
-0.15814,-0.46162,-0.11335,0.02542,0.021011,0.16268,0.16838,-0.49944
-0.081072,-0.31351,-0.40298,-0.082618,-0.054827,-0.12568,-0.048365,0.060021
0.33784,0.1737,-0.26932,-0.12107,-0.01394,0.055106,0.2401,0.37831
-0.058129,-0.36972,0.11742,0.058279,0.049625,0.07256,0.039087,-0.32558
-0.089218,0.47622,-0.028484,0.018103,0.01858,0.10642,0.27611,0.27715
-0.22368,-0.15049,0.39098,0.11824,0.018009,-0.11704,-0.41796,-0.27369
0.20322,0.31577,0.098752,-0.023526,-0.029968,0.0031966,0.05682,0.44434
-0.01101,-0.22658,-0.050456,0.03866,-0.015624,-0.09605,-0.066203,-0.04488
0.17311,-0.023142,-0.3522,-0.14013,-0.040114,0.076833,0.30661,-0.061159
-0.0020537,0.41958,0.27086,0.073059,0.053202,0.029356,0.074886,-0.0019242
-0.13805,-0.18811,-0.17623,-0.071847,-0.016626,0.0037994,-0.1415,-0.2012
0.15584,-0.19093,0.54454,0.12018,0.023981,-0.13997,-0.50245,0.015936
-0.15906,-0.010224,-0.43882,-0.030993,0.010904,0.020737,-0.20586,-0.2137
-0.19916,0.34199,0.0098726,-0.104,-0.05612,0.072801,0.67571,-0.10443
0.11484,-0.49366,-0.18304,0.064667,0.072483,0.11866,0.029981,0.51172
-0.075211,-0.067434,-0.12858,-0.0098748,-0.041301,-0.08327,0.079012,-0.1832
0.16129,-0.28515,0.23592,0.062587,0.00046794,-0.071877,-0.3325,0.17796
0.027592,0.35595,0.31846,0.023985,0.033347,0.0041101,-0.12029,-0.017079
0.0462,0.47618,-0.17496,-0.0085374,-0.028775,0.0033415,0.58656,-0.024004
0.15256,-0.25904,-0.28008,-0.14415,-0.037389,0.12791,-0.28019,-0.077095
-0.07029,-0.015843,0.27185,0.047266,0.023436,-0.053017,0.16378,-0.0052654
-0.17244,0.097606,-0.1339,-0.043047,-0.06458,-0.024852,-0.25122,0.10531
-0.12556,-0.46115,-0.22251,0.046516,0.08971,0.094519,0.27569,0.15479
-0.025392,0.50372,0.62344,0.15248,0.033636,-0.24198,-0.64739,-0.49268
0.19765,0.39665,-0.21403,-0.099774,-0.045017,0.059772,0.059178,-0.047368
0.067699,-0.1518,0.16989,0.03989,0.049126,0.086548,0.39132,0.23718
-0.10853,-0.41572,-0.29676,-0.092709,-0.066902,-0.09802,-0.38035,-0.13177
-0.13274,-0.23624,-0.31061,-0.036939,-0.034045,0.05409,0.28813,0.17507
0.233,-0.29412,0.0025662,0.12868,0.069164,0.19221,0.40036,0.22166
0.039185,-0.18806,0.35356,-0.057219,-0.023313,-0.11289,-0.22983,-0.23395
-0.20314,0.65796,-0.17929,-0.032502,0.024111,-0.072223,-0.01767,-0.35808
0.024108,0.37575,0.13084,-0.024039,-0.054428,-0.014443,-0.31812,0.32811
-0.11365,-0.20827,0.22932,0.069521,0.014413,-0.0576,-0.010906,0.15149
0.26657,0.33182,0.26434,0.10744,0.066626,0.2192,0.93814,0.19358
0.093413,-0.34631,-0.51441,-0.13685,-0.053844,-0.059935,-0.90448,0.010196
-0.22112,-0.024823,-0.13047,-0.022612,-0.018553,-0.098725,0.076781,-0.49214
-0.062552,-0.14358,-0.21616,-0.002702,0.024466,0.016725,0.21122,0.14058
0.25369,0.39643,0.36256,0.048262,0.028793,0.013298,-0.26274,0.10654
-0.13444,-0.35175,0.24032,0.044828,-0.020742,-0.022309,-0.10445,0.044222
-0.22902,-0.31006,-0.43237,-0.082785,-0.037803,0.012508,-0.04874,-0.58449
0.24217,-0.023794,0.25259,0.040927,0.032587,-0.03741,0.22376,0.22387
-0.025901,0.13468,0.069719,0.041368,-0.020389,0.031931,0.20221,0.075871
-0.079741,0.3399,-0.17632,-0.11249,-0.0015131,0.041265,-0.088412,-0.023405
0.050208,-0.21914,-0.18221,-0.014412,0.034195,0.045103,0.27926,0.54714
-0.025782,0.42575,0.40874,0.085287,-0.023198,-0.051086,-0.17717,-0.038826
-0.033605,-0.23627,-0.20408,0.060996,0.044339,-0.021992,0.018348,-0.21937
0.066036,0.21153,0.11576,-0.080329,-0.037416,-0.040955,-0.27614,-0.16109
0.25728,0.02844,0.17676,0.082193,0.058962,0.2188,0.39994,0.53085
-0.10888,-0.35429,-0.14128,-0.085212,-0.073259,-0.13427,-0.30268,-0.73301
-0.22835,-0.50397,-0.40213,-0.012967,0.003278,-0.061283,-0.27647,-0.10357
0.0001685,0.47545,0.28569,0.056388,-0.015865,-0.046022,0.1761,0.24649
0.12389,0.21729,0.026832,0.021424,0.026175,-0.071516,0.084148,0.13846
-0.12952,-0.24404,-0.11132,-0.1485,-0.025984,0.0906,-0.18501,-0.050318
0.046402,0.19035,-0.16976,-0.038316,-0.038578,0.035934,0.13489,0.05813
0.021003,-0.38758,0.24012,0.18127,0.090793,0.039397,-0.10518,-0.17398
-0.031665,0.16071,-0.15051,-0.0042215,0.018934,0.11735,0.47425,0.24753
0.14795,0.16772,0.33274,-0.0079578,-0.019614,-0.14443,-0.094598,0.17494
-0.087652,-0.012705,-0.013381,0.0065056,0.013972,0.042089,0.084093,-0.072089
0.042726,0.088225,0.097505,-0.0076279,-0.052752,-0.027842,-0.057539,-0.53444
-0.032322,0.27333,-0.15962,-0.04285,0.029455,0.057991,-0.088746,0.20718
-0.088192,-0.20247,-0.079581,-0.037245,-0.044885,-0.10832,-0.12544,0.1499
0.09917,-0.16222,-0.3165,-0.038427,0.0048141,0.0033369,-0.53973,0.11135
0.11305,0.10349,0.21097,0.14813,0.037491,-0.029284,0.37696,-0.10587
-0.12705,-0.52991,0.25789,-0.0017461,0.006116,0.067641,0.24224,-0.10458
-0.03688,0.018175,-0.10599,-0.059004,-0.018873,0.021696,-0.058225,0.0056266
-0.14064,0.18129,-0.18383,-0.063176,-0.029312,-0.079789,0.0034507,-0.0088064
0.1479,-0.19266,-0.097403,0.016709,0.01436,0.014626,-0.036446,0.22889
0.12686,0.64946,0.45443,0.16495,0.050188,0.071741,0.10019,-0.052221
-0.1861,0.31809,-0.57073,-0.2199,-0.077577,-0.024938,-0.051871,-0.17734
0.1177,-0.51637,0.3311,0.10464,0.068944,0.11533,-0.045358,-0.19818
-0.029508,0.31425,0.61586,0.11559,-0.002218,-0.17976,-0.15346,0.1301
0.015201,-0.37482,-0.93385,-0.21774,-0.017568,0.1281,0.30223,0.51259
-0.012051,-0.073219,0.39269,0.13653,0.015003,-0.024458,0.10842,-0.33871
-0.047776,0.042909,0.047066,-0.016294,-0.0062261,-0.036601,-0.16746,-0.095667
-0.091892,-0.41188,-0.44203,-0.12875,-0.065831,-0.057159,-0.028239,0.029889
0.081295,0.0068708,0.28166,0.080807,0.0078533,-0.08614,-0.43716,0.051992
0.16535,0.44814,0.27741,0.096934,0.058361,0.11894,0.32299,0.085861
-0.014026,0.22564,-0.14518,-0.064868,-0.016109,-0.011812,-0.06891,-0.15178
0.016961,0.051507,-0.11337,0.02467,0.041979,0.10002,0.25398,0.087229
-0.2522,-0.034431,-0.0033787,-0.088232,-0.07238,-0.10806,-0.083523,-0.12826
0.098138,-0.27402,-0.19029,0.040958,0.038927,0.051057,-0.12856,-0.2212
0.074395,-0.081076,0.28011,0.13023,0.031866,0.18603,0.43094,0.50299
-0.15197,0.37315,0.22245,-0.024152,0.015638,-0.18054,-0.14761,-0.04993
0.15399,-0.69117,-0.4386,-0.22719,-0.10351,-0.064996,-0.37991,-0.1303
-0.11572,0.47829,0.01096,0.013314,-0.028509,-0.045783,-0.015361,-0.10553
-0.013919,-0.22479,0.06615,0.16641,0.1004,0.017941,0.29912,0.047821
0.15676,0.11693,0.11192,-0.033,-0.020956,0.095713,-0.035568,0.28315
0.023231,0.029673,-0.092855,0.040657,-0.0014187,0.040323,-0.086601,-0.3676
-0.12391,-0.0004944,0.20945,-0.041781,0.01105,-0.11554,-0.13963,0.15141
0.052356,0.11249,-0.20912,-0.069005,-0.03792,-0.0033004,-0.082221,-0.11137
0.052637,0.070218,0.25073,0.11542,0.062724,0.15153,0.65808,0.22092
-0.14629,0.04948,0.25039,0.01153,-0.023049,-0.15052,-0.50396,-0.36547
0.064873,-0.17997,-0.75167,-0.099517,-0.022076,0.059195,0.016608,0.084216
-0.095442,-0.10621,-0.12448,-0.061587,-0.028494,0.022145,0.13899,0.4616
0.11445,-0.16194,0.23255,0.062714,0.035403,0.01054,-0.00018046,-0.37374
-0.0014485,0.52597,0.43655,0.14834,0.059868,-0.0083829,-0.030675,0.046242
0.079395,-0.48833,0.019329,-0.062489,-0.049096,-0.012724,0.15212,0.10284
-0.1441,0.014448,-0.24472,-0.10094,-0.018125,-0.066285,-0.323,-0.057592
-0.048149,-0.081695,-0.17488,-0.060639,-0.042408,0.095703,0.28361,-0.054525
0.19412,0.28699,0.21423,0.12886,0.050225,-0.058309,-0.13032,0.0083253
-0.13717,0.051054,-0.19375,-0.0011435,0.017989,-0.04369,-0.25106,-0.058232
0.13683,0.31231,0.30498,-0.036636,-0.060568,-0.05506,-0.044489,0.010409
-0.062386,-0.062182,-0.11714,0.045613,0.057085,0.096024,0.19643,0.042123
-0.0079925,-0.18188,-0.07686,-0.012548,0.0039413,0.098034,0.32745,0.27179
-0.074048,-0.1321,0.043448,-0.0005964,0.014353,0.037736,-0.0070903,-0.2682
0.006657,-0.21585,0.10358,0.096688,0.0021504,-0.068665,-0.10133,-0.060595
0.017406,-0.26627,-0.30236,-0.17413,-0.056505,-0.095845,-0.33666,0.013653
-0.10214,-0.20973,0.021175,-0.078848,-0.044934,-0.04369,0.21678,-0.05147
0.1499,0.80835,0.21471,0.077832,0.036322,0.040894,-0.12166,0.081403
-0.014271,0.27396,-0.19104,0.077227,0.061761,0.056221,0.060309,0.10836
0.085354,-0.00079248,0.47479,0.11475,0.0388,0.048969,0.15883,0.037186
-0.067538,-0.22942,-0.26578,-0.12203,-0.048399,-0.043615,0.03865,-0.17984
0.064505,0.16988,-0.00019917,0.0075954,-0.012313,-0.0030767,-0.1697,0.21363
-0.14577,-0.64357,-0.1516,-0.0040722,-0.032325,-0.017219,0.071038,-0.10443
-0.021188,-0.0019715,0.29495,0.061968,-0.0062986,-0.0081928,-0.23246,-0.12777
0.14686,0.44371,-0.55888,-0.17667,-0.027218,0.00035029,0.09131,0.06446
-0.049663,-0.2679,0.23309,0.069658,0.046369,0.00046545,0.058313,0.19077
-0.0023478,0.20073,0.0472,-0.057779,0.0042503,0.0077297,0.03664,-0.3888
-0.1487,-0.20204,-0.029186,0.035309,0.010952,0.0065473,0.02758,-0.00098443
0.20751,0.066528,0.45033,0.18513,0.074396,0.051704,0.21236,0.44201
-0.1039,-0.2481,-0.27942,-0.069373,-0.047871,-0.036325,-0.1651,-0.22195
-0.018238,0.44988,-0.10149,-0.07248,-0.05173,-0.030749,0.068943,-0.014713
0.052736,-0.042337,-0.2198,-0.051592,-0.023856,-0.04847,-0.34134,0.10374
0.0017308,0.31288,0.66153,0.26577,0.11313,0.12177,-0.089366,-0.17891
0.0021576,-0.080925,-0.42706,-0.21502,-0.071051,-0.058769,0.099734,0.12889
-0.046777,-0.39868,-0.087513,-0.080474,-0.037713,-0.035161,0.1484,-0.021065
0.026711,-0.13503,-0.14768,-0.057314,-0.021313,-0.010419,0.11056,-0.044573
0.026412,0.0058944,0.11987,0.096875,0.032994,0.0075632,0.0074368,0.017405
0.13049,0.20461,0.40386,0.21857,0.094289,0.10443,0.20265,0.24908
-0.14728,-0.16137,-0.38038,-0.13685,-0.032331,0.029711,-0.01119,-0.30396
0.035002,0.044332,0.010326,-0.031209,-0.010532,-0.060915,-0.12262,0.12321
-0.16797,0.23171,0.33426,-0.018615,-0.074364,-0.097673,-0.46282,-0.36011
0.024032,-0.15878,-0.15868,0.034122,0.065454,0.044048,0.13096,0.15272
0.13406,0.1712,-0.14097,-0.02126,-0.01286,-0.0030947,-0.11388,0.060757
0.021692,-0.099106,-0.090088,-0.036352,-0.051528,-0.020252,0.40692,0.30203
0.00010601,0.067083,0.18045,0.06676,0.074289,0.031934,-0.11515,0.0096838
-0.015622,-0.037015,0.052551,0.0064761,-0.026303,0.021054,0.011794,-0.10522
-0.086802,-0.11102,-0.021305,0.0011089,0.029177,0.041259,0.13547,-0.12847
0.022167,0.19255,-0.096177,-0.05917,-0.0096131,-0.07119,-0.23346,-0.051753
0.070236,-0.090379,-0.14874,0.012745,-0.010129,0.066732,0.29695,0.17291
-0.035402,-0.21138,0.30542,0.02909,-0.027183,-0.076118,-0.36728,-0.46834
-0.036282,-0.037505,-0.19467,0.013218,0.033053,0.015927,0.045725,0.22991
0.099147,0.096988,0.13206,0.043367,-0.001005,0.077267,0.3772,0.32471
-0.1292,0.13234,-0.2462,-0.1536,-0.05076,-0.11081,-0.22728,-0.23676
0.028184,-0.022039,0.13063,0.016492,0.0015387,0.022055,0.073337,0.077671
0.17986,0.18362,0.51925,0.12443,0.031432,-0.0084682,-0.23861,-0.091849
-0.20655,-0.17822,-0.50324,-0.079389,-0.0075633,-0.0070976,-0.078289,0.049648
-0.022963,-0.20014,4.8766e-05,0.061535,0.064381,0.080711,0.015083,-0.032246
0.041793,0.38367,0.029255,-0.038727,-0.034137,-0.010953,0.24529,0.16638
0.1818,-0.091429,-0.016049,0.0024114,0.0089586,0.014382,0.15252,0.14156
-0.080476,-0.14202,-0.047809,0.028276,-0.017881,1.9106e-05,-0.090021,-0.047396
-0.12836,-0.14408,-0.078802,-0.063224,-0.045015,-0.10911,-0.19204,-0.44131
0.1163,0.29238,0.20657,0.055519,0.028518,0.038336,0.027237,0.022447
-0.025495,-0.11405,-0.1733,-0.029947,0.0069887,0.020526,0.20153,0.080208
-0.068113,-0.12082,0.095962,0.023974,0.0074169,-0.021618,-0.28557,-0.11623
-0.0020318,0.22593,0.31182,0.053349,0.037717,0.14681,0.26971,0.10889
0.0027426,-0.21359,-0.33905,-0.10546,-0.065833,-0.16102,-0.2571,0.26687
0.033839,-0.063767,0.19601,0.0013265,-0.0058539,-0.022557,-0.029785,0.039588
-0.048203,0.41773,-0.17183,-0.047432,-0.0083487,0.0080859,-0.032841,-0.11155
0.11636,-0.18372,-0.047256,0.030173,0.0053033,0.048407,0.35031,0.046554
-0.0042655,-0.095934,0.074714,0.10171,0.074485,0.059318,0.063827,-0.082379
0.010403,-0.05515,-0.073641,-0.012525,-0.027294,0.0013654,-0.096969,0.108
0.049019,0.17863,0.10816,0.0073169,0.020097,-0.032394,-0.22755,-0.2912
-0.17964,-0.076464,-0.090854,-0.0036442,-0.018096,0.011878,0.17056,0.031006
0.11158,0.21679,0.41614,0.086418,-0.0017137,-0.0072655,-0.20058,0.16057
-0.14106,-0.51313,-0.75218,-0.23122,-0.048368,-0.11388,-0.10704,-0.11966
0.046452,0.18655,0.29651,0.042806,0.021358,0.07458,0.23256,-0.088124
0.11224,0.12102,-0.084722,-0.044809,-0.042585,-0.035568,-0.087469,0.22727
-0.01256,0.010359,0.44099,0.24057,0.10372,0.087327,0.23822,-0.092217
-0.16183,0.13779,-0.12618,-0.18634,-0.08626,-0.048341,-0.00070132,-0.10693
0.05729,-0.21305,-0.091449,0.05029,0.04414,0.042431,0.047807,0.28538
0.068749,0.030763,0.138,0.029475,0.0031352,-0.077322,-0.45181,-0.14284
-0.016531,-0.19069,-0.32155,-0.10743,-0.037105,0.069319,0.18837,0.19972
0.10695,0.21871,0.25601,0.14002,0.05637,-0.0018841,0.12522,-0.080958
-0.068621,0.21401,-0.19927,-0.040549,-0.021165,0.029322,0.031475,-0.035276
0.065439,-0.18001,-0.26439,0.022551,-0.012083,-0.095067,-0.23242,-0.22086
-0.15611,-0.13465,0.29676,-0.061736,-0.0026021,0.023147,0.1003,-0.084753
0.030955,0.029532,0.095425,0.01074,0.0069797,0.024384,-0.0084132,0.19312
0.031546,-0.071431,0.070622,0.075397,0.055476,0.056967,0.15303,-0.12831
-0.069558,0.03697,0.066854,-0.12597,-0.083823,-0.097858,-0.10275,0.20306
-0.031079,0.10964,-0.18951,-0.0076268,-0.02032,-0.01813,-0.010618,-0.021292
0.12283,0.080531,0.0035532,0.05539,0.019495,0.054078,0.12362,-0.017984
0.0009549,-0.022959,0.074001,0.008501,-0.011135,-0.013974,-0.18603,0.058121
-0.022289,0.21746,-0.089583,0.094066,0.098825,0.051108,0.074081,-0.034785
0.13066,-0.34935,-0.27826,-0.093981,-0.033415,-0.016503,-0.082507,0.05425
-0.21255,0.16597,0.35786,-0.0086077,-0.025112,-0.0062239,-0.12653,-0.16052
0.13525,-0.41574,0.09101,0.061257,0.022029,-0.051324,0.4247,0.037904
0.010018,0.29063,0.084581,-0.056154,-0.0015221,0.066486,-0.078396,0.054025
-0.23626,-0.21912,-0.47405,-0.079504,-0.049002,0.049966,0.082527,0.011491
0.16291,-0.15953,0.15766,0.061556,-0.026682,-0.1323,-0.45142,-0.090397
-0.03347,0.69207,-0.12117,0.0076098,0.026449,0.0041328,0.047783,0.029682
0.058816,-0.059921,0.33884,0.05537,0.032411,0.037734,0.11368,-0.025873
-0.0041564,-0.054768,0.023061,0.024867,0.030431,-0.0075301,0.085066,0.049087
-0.018057,0.20737,0.065318,0.0016748,-0.0027888,0.048664,0.066528,0.12362
-0.021048,-0.85295,-0.36929,-0.11613,-0.043722,-0.011806,-0.072031,-0.25337
0.17492,0.24677,0.032821,-0.0084876,-0.0063923,-0.024358,-0.00045212,0.27943
-0.093979,0.33279,0.06973,0.074551,0.015462,0.034792,0.17298,-0.1592
-0.14028,-0.033829,-0.015126,0.039429,0.02967,-0.045146,-0.42669,-0.044696
-0.050158,-0.056978,0.17789,-0.082171,-0.041851,-0.014215,0.097997,0.0062362
0.082229,-0.13519,-0.19401,-0.016204,0.0041069,0.072697,0.34675,0.048042
0.092186,-0.0024253,0.10414,0.027069,0.0035984,-0.026903,-0.16728,-0.0062054
-0.028978,0.20917,0.064593,0.048268,-0.0041911,-0.032123,-0.0093168,-0.02537
-0.024591,-0.24983,-0.13346,-0.03029,0.012083,-0.0058202,-0.12731,0.074277
0.072767,0.31613,-0.037946,-0.013118,-0.01005,0.020434,0.29696,0.13401
0.0039287,-0.093313,0.060575,0.037151,0.030904,-0.0083024,-0.26123,-0.028256
-0.013508,-0.096286,-0.011588,0.018529,-0.0058465,0.087479,0.14321,-0.36762
-0.058363,0.10258,0.22799,-0.054006,-0.026811,-0.10638,-0.33268,0.12249
-0.099433,-0.35793,-0.32409,-0.048409,-0.016675,-0.0039663,0.21115,0.12141
0.067093,0.18427,0.17438,0.073613,0.032051,0.019774,0.0033223,-0.0266
0.051934,0.35245,0.13644,0.014525,0.01753,0.027442,0.045917,0.062499
0.013124,-0.13588,-0.37577,-0.030814,-0.013551,0.026985,0.15309,-0.062741
-0.07087,-0.10143,0.11457,-0.015713,-0.029997,-0.036128,-0.16637,-0.095807
0.051611,-0.012249,-0.11048,0.075567,0.046411,-0.021115,0.025252,0.074375
-0.016797,-0.1945,0.24705,-0.092502,-0.041896,-0.0059438,0.047821,0.097611
-0.01804,0.27681,0.1102,0.027599,0.010128,0.048584,0.056753,0.084206
-0.0075135,-0.14121,-0.090336,-0.032098,-0.015846,-0.052742,-0.30826,-0.19972
-0.0024321,-0.11615,-0.16628,-0.028614,-0.010043,0.026067,0.069221,-0.043081
0.16685,0.18404,0.24229,0.18715,0.06691,0.034992,0.1497,0.18688
-0.033361,-0.12063,-0.3486,-0.15001,-0.034835,-0.065123,-0.066859,-0.2131
0.13695,0.21322,0.10827,0.038129,0.028446,0.069314,0.26358,0.24906
