0.008403,-0.43537,-0.049807,-0.027471,-0.01559,-0.0020788,-0.0040399,0.062468
0.023263,0.064073,-0.30217,0.012754,0.0084718,0.033722,0.09673,0.0085271
-0.026727,0.58094,0.63507,0.059794,0.0086422,-0.03191,-0.16917,0.11423
0.21869,-0.5468,-0.065394,-0.019422,-0.038607,-0.026759,-0.065879,-0.068161
-0.23928,0.088972,-0.16869,0.01723,0.054235,0.049465,0.11874,-0.37764
-0.34453,-0.47121,-0.33873,-0.12692,-0.072073,-0.04518,0.041519,0.56582
0.12321,0.76571,0.010252,0.056413,0.035847,0.033262,-0.047668,-0.39564
0.19655,-0.45018,-0.067673,-0.049241,-0.027924,-0.027547,0.32685,0.13655
0.18883,0.47412,0.55915,0.10379,0.049462,0.022485,-0.49265,-0.20266
0.49086,0.052645,0.23274,0.016237,0.018293,0.011463,0.25771,0.13742
-0.90575,-0.7012,-0.72883,-0.1161,-0.090028,-0.09987,0.10756,-0.3932
-0.12726,0.14741,0.28929,0.074072,0.052598,0.0083789,-0.37402,0.16303
0.41838,0.13463,0.058527,0.031756,0.039698,0.10116,0.28116,0.48875
-0.15361,0.14024,0.062114,0.0062358,-0.043196,-0.033374,-0.34865,-0.55627
0.24849,-0.30751,-0.1451,-0.073803,-0.024737,0.10374,0.096608,0.36915
-0.14282,0.29629,-0.24899,0.0014642,0.039817,0.04274,0.36792,0.11909
0.21009,-0.058647,-0.30131,-0.0033599,-0.021919,-0.20928,-0.0571,0.75699
-0.12326,0.42295,0.60017,0.17662,0.11002,0.089609,-0.068153,-0.74744
0.068255,-0.42316,0.37354,-0.17763,-0.1504,-0.19306,0.062087,-0.14909
-0.30006,-0.0013707,-0.2198,0.020085,0.048583,0.11553,-0.43916,-0.48847
-0.21814,-0.073042,-0.20846,-0.049775,-0.011288,0.094866,0.296,-0.23163
-0.050327,0.2982,-0.20829,-0.026655,-0.063666,-0.14415,-0.083215,-0.012752
0.72199,-0.60567,-0.235,0.11425,0.095396,0.1499,0.23667,0.94248
0.24192,0.14645,0.89734,0.014878,-0.0098928,0.0093207,0.25673,0.18199
-0.53588,-0.37457,-0.60319,-0.042562,0.011668,0.036289,-0.57671,-0.46708
-0.41572,0.50889,0.071896,-0.041992,-0.0037154,0.11378,0.0106,-0.024998
0.3595,0.22039,0.089797,0.086738,-0.0014325,-0.33649,-0.02021,0.045979
0.1398,0.6084,-0.085552,-0.039918,-0.013133,0.11478,-0.18552,0.62303
0.032586,-0.41293,0.48692,0.0065727,-0.062894,-0.21259,0.41102,-0.77928
0.30152,-0.19843,-0.13327,0.084248,0.098528,0.071359,0.086194,0.14106
-0.44558,0.067524,-0.34562,-0.06595,0.025074,0.20011,0.51489,-0.032349
-0.33458,-0.65809,-0.47717,-0.093354,-0.096359,-0.16346,-0.63636,-0.11999
0.1109,0.22499,0.30335,0.0094687,0.046361,0.73701,-0.20837,0.60029
-0.13235,-0.23385,-0.1166,-0.030728,-0.062468,-0.56868,0.5143,-0.44976
0.38122,0.72987,0.90877,0.15392,0.046106,-0.081658,-0.25031,-0.46899
0.20612,-0.099968,-0.43604,-0.076249,-0.025925,-0.22417,-0.45308,0.20673
0.24783,-0.1086,-0.31157,-0.017069,0.026678,0.051244,0.30945,0.29859
-0.041735,-0.40619,0.21375,0.0041933,0.032607,0.16806,-0.59643,0.16915
-0.30426,0.49127,0.21039,0.073997,0.031408,0.26919,0.49293,0.14089
-0.212,0.028223,-0.088577,0.036192,-0.03127,-0.15838,0.72458,-0.2551
-0.36577,0.0151,-0.099476,-0.10172,-0.077153,-0.16705,-0.16289,-0.40525
-0.045051,-0.45793,-0.25473,-0.059117,-0.028158,-0.013063,0.11312,0.39396
0.14298,0.25244,-0.23688,-0.0086791,0.052972,0.18675,-0.79258,-0.26717
0.52031,0.49126,0.63876,0.17376,0.079868,-0.26395,-0.1336,0.23745
0.20438,-0.4756,-0.23997,0.010946,-0.034002,-0.07856,0.70244,0.25032
0.27944,-0.31284,-0.024428,-0.16167,-0.031525,0.75494,-0.64878,-0.18387
-0.75018,0.26731,0.03237,0.015143,0.031903,-0.19736,0.58982,0.11296
0.18142,0.012825,0.0055916,0.0024834,-0.023998,-0.31451,0.11083,-0.15546
-0.55489,-0.25099,0.75219,0.042997,0.011358,-0.12296,-0.10212,-0.42248
0.47596,0.003343,-0.64314,-0.026734,-0.049529,-0.16297,-0.63361,0.6329
0.43847,0.61499,-0.26563,0.012756,0.043749,0.5587,0.30089,-0.14049
-0.13219,0.25086,-0.36211,-0.025339,-0.012684,-0.032712,0.088906,-0.52295
-0.13481,-0.28108,0.53411,0.14084,0.0088825,-0.58826,-0.38927,0.20737
-0.57473,-0.28067,0.21232,0.02746,0.031681,0.015474,0.71503,-0.20408
-0.010719,-0.15453,0.21317,-0.044676,0.01804,0.39404,0.0070084,0.29864
-0.2915,-0.0091572,-0.56317,-0.22351,-0.13238,0.23993,-0.246,0.55657
0.58241,-0.096267,-0.28814,0.0070598,0.02657,-0.19405,-0.1695,-0.45372
0.15178,0.022227,0.20004,-0.0089004,0.02639,-0.064064,0.35885,0.153
0.45826,-0.058617,-0.042385,0.041096,-0.070894,-0.38071,-0.54823,0.35124
-0.11959,-0.15123,0.58299,0.22681,0.1866,0.24138,-0.18557,-0.59821
0.44003,0.69452,-0.18176,0.047025,0.10948,0.81095,0.83878,0.080558
-0.51516,0.63535,0.60466,-0.1094,-0.17175,-0.47623,-0.3801,-0.17848
-0.29995,-0.74697,-0.7124,-0.057059,-0.026585,-0.40017,0.44101,0.13273
-0.30214,-0.25746,0.30621,0.069227,-0.035072,0.042324,-0.52252,-0.18373
0.02014,-0.2661,-0.72604,-0.17735,-0.049931,-0.12712,0.54745,0.6639
0.006555,0.80972,0.16025,0.0072036,0.077076,0.2724,-0.52828,-0.37165
-0.088973,-0.5944,0.088429,-0.033078,-0.020462,-0.028596,-0.17629,-0.44365
0.094648,0.085198,0.10141,0.15607,0.041853,0.014855,-0.34445,0.23358
0.16291,0.056825,-0.0032868,-0.087668,-0.093252,-0.098338,0.23132,-0.32064
0.37612,-0.14657,0.12943,0.18307,0.15461,0.16948,0.25232,0.36329
-0.080351,-0.12875,-0.36327,-0.1313,-0.04842,-0.043815,0.56672,0.40682
0.10505,0.44694,0.43584,0.0803,0.018057,0.1789,0.37974,0.17631
-0.11499,0.43431,-0.0041796,-0.10274,-0.074609,-0.19292,-0.53535,0.095884
0.17445,-0.79723,-0.093196,-0.0077478,0.025529,0.034483,-0.75847,-0.523
-0.35853,-0.15317,0.043803,0.029678,-0.0098876,-0.34542,0.57543,-0.13569
0.022317,-0.19804,0.11402,0.04073,0.060586,0.35806,0.011821,-0.25897
-0.016673,0.70313,-0.17026,-0.060946,-0.029786,-0.00078947,-0.19909,0.33556
-0.15825,-0.029533,-0.21525,-0.096401,-0.07919,0.073289,-0.31321,-0.16651
-0.22195,0.75491,0.2292,0.19896,0.10633,0.27195,-0.038451,0.58872
0.20349,-0.87314,-0.14781,-0.12145,-0.052618,-0.40677,0.67517,-0.75229
0.17391,0.31226,0.23575,0.042499,-0.0571,-0.40039,-0.67049,-0.33007
0.31841,-0.25874,0.097533,0.12682,0.092095,0.050837,0.72102,0.94941
0.057048,-0.70026,-0.53743,0.013003,0.089809,0.34867,0.12769,0.014612
-0.62688,0.095769,0.076796,-0.30778,-0.17346,0.05955,-0.27655,-0.49026
0.35921,0.29542,0.03895,0.070202,0.052505,0.17936,0.17295,0.19257
-0.38507,0.41883,0.088493,0.10013,-0.02085,-0.086106,-0.25743,0.458
0.37163,0.49509,0.45611,0.048223,0.029092,-0.14191,-0.24475,-0.32501
0.38275,-0.5328,-0.13704,0.024891,0.031314,-0.097763,0.32627,0.17249
-0.53706,-0.074648,-0.24531,-0.11701,-0.075834,-0.041242,-0.40957,-0.12597
-0.19162,-0.42501,0.13763,-0.0011473,0.028667,0.32989,-0.055973,-0.53666
0.41882,0.22093,-0.20193,-0.00912,0.017154,-0.15114,-0.18285,-0.0132
-0.17585,0.23612,0.053116,-0.0072388,-0.039904,0.068024,0.55477,-0.013619
-0.31394,0.015015,0.22798,0.16119,0.099528,-0.31886,0.01637,0.69411
0.40736,-0.19778,-0.34335,-0.0038463,0.013187,0.38312,0.51973,-0.18028
0.0070826,0.16198,0.11185,-0.057474,-0.06506,-0.29407,-0.41783,-0.49796
0.01913,0.26816,-0.046486,-0.078518,-0.0028793,0.01843,-0.142,0.25274
-0.030709,-0.26665,-0.11376,-0.067784,-0.089656,-0.052265,-0.063816,0.35375
0.024358,0.32069,0.1854,0.10679,0.072945,0.14429,0.10718,-0.072794
-0.030502,-0.66502,0.20438,0.0070943,-0.069654,0.023483,0.075296,0.20162
0.091857,-0.42411,0.061627,-7.3423e-05,0.068722,-0.047224,-0.61035,0.013102
-0.0063703,0.61076,-0.17986,0.0069568,0.082083,0.47035,0.64811,-0.3648
-0.38432,-0.17951,-0.23915,-0.034337,-0.037202,-0.3162,-0.33832,-0.30534
0.018443,0.62478,0.007804,-0.022257,-0.031265,-0.30751,0.016877,-0.12408
-0.19705,-0.018907,-0.010626,0.09817,0.0060952,0.049152,0.30955,0.59363
0.41428,-0.12382,0.43072,0.069558,0.035724,0.13541,-0.47297,-0.38257
0.14796,-0.32237,0.12754,-0.17003,-0.12211,-0.13467,0.71145,0.11015
0.047309,0.25939,-0.5381,-0.010535,0.11857,0.56042,-0.23606,0.2436
0.30895,0.1823,-0.12095,0.0018651,-0.046747,-0.51922,0.069254,0.072045
-0.73284,-0.62544,0.23119,-0.0072113,-0.039692,0.15267,-0.76997,-0.61758
0.16002,0.17139,0.27737,-0.013961,-0.063173,-0.72579,0.4496,0.41209
0.10686,-0.19275,-0.3402,0.25502,0.17978,0.59741,-0.10074,0.012566
0.07816,0.3061,-0.041885,-0.17732,-0.05317,0.23225,0.52304,0.49339
-0.22844,-0.23019,0.071846,-0.054141,-0.028029,0.029083,-0.28238,-0.50985
0.32357,0.14295,-0.029925,0.060818,0.090533,0.15689,0.39504,0.48127
-0.46334,0.29052,0.35539,-0.052512,-0.13566,-0.38057,-0.8684,-0.92947
0.082404,0.20108,0.20307,0.17508,0.12878,0.12344,0.17601,0.18353
0.36066,-0.19226,-0.5589,-0.0069934,0.0086019,0.071947,0.42622,0.14644
-0.33691,0.48157,-0.041506,-0.16116,-0.10537,-0.15349,-0.10164,0.19387
0.25845,-0.77173,0.011958,-0.13032,-0.11088,-0.3016,-0.16407,-0.19562
-0.17834,-0.060696,0.1559,0.063546,0.03218,0.10789,-0.11067,-0.32384
0.21459,-0.69359,0.078375,0.055048,0.067215,-0.19305,0.57646,0.90594
-0.0064218,0.61015,-0.46166,-0.0291,0.049963,0.33275,-0.78801,-0.55085
-0.020333,-0.2112,0.32622,0.21857,0.10604,0.33872,0.63365,0.78368
-0.67096,0.47554,0.036885,-0.15464,-0.14736,-0.33631,-0.36057,-0.89477
0.73637,0.57471,0.65531,0.18674,0.093819,0.26857,0.16711,0.19483
0.052241,0.010469,-1.0295,-0.10224,0.0003298,-0.037099,0.16145,-0.2526
-0.13062,-0.44541,0.52099,-0.10134,-0.10888,-0.36801,-0.17571,0.18459
0.09316,-0.29801,-0.022142,-0.030952,-0.00073137,0.44893,-0.11961,-0.0092489
-0.68325,-0.24211,-0.60483,-0.087682,-0.019956,-0.35061,-0.13326,-0.044944
0.34456,0.37838,0.54616,0.1731,0.082978,0.032912,0.38282,0.14773
0.0045671,0.15769,0.36092,0.0091882,-0.019962,0.057711,-0.29197,-0.24419
0.4763,-0.31618,-0.51116,0.077441,0.078081,0.083361,0.3331,0.6612
-0.25625,0.25785,-0.029607,-0.17583,-0.12192,-0.23861,-0.22717,-0.24657
0.048469,-0.29357,0.041492,-0.022931,-0.032909,-0.15283,0.31622,0.26611
-0.23529,-0.15764,-0.32782,-0.056615,0.0024226,0.31603,-0.27029,-0.58199
0.14191,0.40158,0.69119,0.13778,0.062947,-0.15368,-0.23504,-0.1646
0.062778,0.29257,-0.23778,0.10719,0.023955,-0.088084,-0.13822,-0.16677
-0.27682,-0.20883,-0.22565,0.1324,0.16649,0.76563,0.46796,0.3911
0.14781,-0.045552,0.59229,-0.20145,-0.17415,-0.52215,-0.13307,-0.027337
-0.075604,-0.22308,-0.52137,-0.028066,0.032442,0.24143,0.34903,-0.2959
0.19557,0.2376,0.43826,-0.11366,-0.050475,-0.057286,-0.67158,0.47481
-0.021259,-0.4421,-0.44505,0.049491,-0.079692,-0.3374,0.51477,0.46059
-0.11552,0.39702,0.085628,0.0009257,0.014965,-0.15054,-0.039578,-0.079035
0.0068303,0.11735,-0.5473,-0.016244,0.085323,0.20275,0.076493,0.0051958
-0.11591,-0.16892,0.44698,0.038128,-0.055583,-0.10786,-0.19463,-0.45692
0.32705,-0.24085,0.30526,0.094642,0.061612,0.16687,-0.27707,-0.60175
0.036425,0.08244,-0.14186,0.099064,0.070211,0.12102,0.21095,0.18807
-0.30295,0.019563,0.17786,-0.23002,-0.13113,-0.033518,-0.066118,0.27603
0.37691,0.41269,-0.23448,0.16132,0.15279,0.32165,0.47168,-0.025817
-0.60521,0.18083,0.43396,-0.10314,-0.16436,-0.67168,-0.68831,0.33834
0.40666,-0.73446,-0.57477,-0.040434,0.049664,0.31574,0.47323,-0.12286
-0.063029,0.42062,0.012514,0.012157,-0.0026394,-0.06664,-0.039823,-0.30144
-0.26211,-0.26375,-0.36672,-0.016682,-0.040531,-0.052136,-0.012988,0.48505
0.32008,0.15511,0.92844,0.20069,0.11537,0.23534,-0.14667,-0.52274
-0.22759,-0.035181,-0.16402,0.047211,-0.027151,-0.10931,-0.11128,0.33349
0.23782,-0.38965,-0.73737,-0.32011,-0.061583,-0.13184,-0.031888,0.22453
0.10817,0.092093,0.38821,-0.00159,0.028215,0.21566,0.32412,0.15559
-0.28079,-0.06587,0.063886,-0.050358,-0.085201,-0.37071,0.015839,-0.3519
-0.071261,0.94165,0.43709,0.18354,0.059817,0.14847,0.085487,-0.10972
0.41373,0.20869,-0.04833,0.17005,0.018541,0.20274,-0.089459,-0.21436
-0.13384,-0.6316,-0.55023,-0.14492,-0.029017,0.0023446,-0.19389,0.21161
0.024906,0.062393,0.32072,0.16823,0.15932,0.069552,-0.060183,-0.17599
-0.44866,-0.95723,-0.69399,-0.35209,-0.13555,-0.057945,-0.097187,-0.48341
0.08449,0.10979,0.47605,0.11341,0.0076851,-0.34235,0.077352,0.45026
0.25691,0.36147,0.40969,0.19644,0.06493,0.23894,0.73845,0.56617
0.046264,0.5832,-0.29045,-0.23671,-0.11279,-0.040875,-0.62604,-0.15858
-0.053013,0.012273,0.048429,0.079015,0.021111,-0.032984,0.035632,0.21714
0.016879,-0.4756,-0.3232,-0.051811,-0.0099105,0.021269,-0.34909,-0.24567
-0.013864,0.20355,0.11786,0.0038511,0.0053959,-0.0099183,-0.0092224,-0.12342
-0.10237,-0.18123,0.15188,0.09019,0.067519,0.24932,0.5204,-0.16763
0.22376,0.64528,0.082032,-0.050152,-0.073028,-0.40368,-0.16421,0.12658
-0.27456,-0.22951,0.20348,-0.018438,0.013821,0.24976,0.10084,0.077047
0.037689,-0.31092,0.20247,0.1385,0.086003,0.14652,0.2895,-0.37913
-0.06517,-0.47703,-0.86661,-0.048307,-0.036344,-0.15967,-0.42306,0.44049
0.12704,0.30324,0.30207,-0.0089454,0.013518,0.095756,0.14524,0.034578
0.28357,0.22006,-0.35928,-0.07198,-0.054099,-0.27559,-0.12798,0.046033
-0.35783,-0.30773,0.082531,-0.10494,-0.060177,-0.094544,-0.20748,-0.41048
-0.037538,0.28813,0.39671,0.063872,0.065015,0.23256,0.31915,-0.28091
0.073463,0.036373,2.0558e-05,0.020445,0.00078337,0.081008,-0.07075,0.44244
0.31193,0.026679,0.11995,0.23372,0.098579,0.013755,-0.09296,-0.061844
-0.10159,0.34641,0.27875,-0.10068,-0.047656,-0.070269,-0.3602,-0.00022288
-0.061719,-0.39609,-0.72992,-0.2246,-0.12494,-0.022237,0.37464,0.496
-0.10076,-0.5476,0.058217,0.02638,0.015873,0.017486,0.13147,0.10503
-0.036574,0.68453,0.64622,0.19949,0.094387,0.049059,0.092717,-0.43468
-0.089814,0.045986,-0.17293,-0.087724,-0.060423,-0.15394,-0.0065621,0.020539
0.20921,0.19754,-0.29201,0.10255,0.091222,0.23679,0.23851,0.15391
-0.34793,-0.46374,-0.72649,-0.16689,-0.059588,-0.2941,-0.58905,-0.42005
-0.11043,-0.17114,0.52608,0.072999,0.010737,0.15214,0.21016,-0.56897
0.015884,-0.25703,0.32925,-0.05256,-0.018282,-0.064765,-0.21125,0.23998
0.63729,0.38562,0.11778,-0.043414,-0.014272,0.047629,-0.067126,0.54861
0.32436,0.45839,0.25593,0.11607,0.061208,0.17695,0.24237,0.039359
-0.23961,-0.32206,-0.90864,0.011615,-0.034736,-0.12997,0.099589,0.65144
-0.21865,-0.35031,0.43893,-0.013455,0.0019044,-0.029512,0.028675,-0.34939
-0.32557,-0.15656,0.017944,-0.030106,-0.040375,-0.029651,0.25785,-0.23007
0.06275,0.76478,-0.047754,-0.062557,-0.01353,-0.028915,-0.60116,-0.46152
0.10248,0.33043,0.067424,0.15403,0.074433,0.035239,-0.03781,0.0401
0.015321,-0.24019,0.10225,0.0018027,0.059451,0.13172,0.27097,0.13278
-0.07504,0.014031,0.076463,-0.16027,-0.10519,-0.12985,0.19477,0.33181
-0.22913,-0.6634,-0.31798,-0.043213,-0.044204,-0.093054,-0.33513,-0.22938
0.080935,-0.4953,0.010091,0.025048,0.0083724,0.085886,-0.013541,-0.26847
0.31396,0.50171,-0.55807,0.10746,0.076323,0.062966,0.26805,0.32484
0.21789,0.056048,0.7504,0.11868,0.042754,0.032931,-0.1253,-0.089825
-0.17125,0.12452,0.14663,-0.096962,-0.029623,-0.083202,0.13137,-0.021034
0.087379,0.49266,0.30315,-0.077957,-0.046927,0.096362,0.096886,0.52961
-0.24667,-0.2656,-0.57601,0.027745,-0.0012674,-0.05436,-0.14635,0.15392
-0.04796,0.055106,-0.52897,-0.068495,-0.033216,-0.10641,-0.41361,-0.51668
-0.012265,-0.083623,0.27331,0.078975,0.060403,0.15085,0.37177,-0.27906
0.0078726,-0.28394,0.6285,0.095395,0.045264,-0.032337,-0.0010744,-0.09213
0.18307,0.27329,-0.39249,-0.15976,-0.10986,-0.084947,-0.17904,-0.053438
-0.26938,-0.27243,0.21849,0.039969,0.016855,-0.27155,0.098373,0.13922
-0.015276,-0.015359,-0.046209,0.022408,0.026833,0.36211,0.053257,0.085006
0.15422,0.091681,-0.43648,-0.10361,-0.017693,0.035708,0.079651,0.35824
0.29136,0.41692,0.57135,0.21585,0.11728,0.11698,0.21181,-0.19596
0.17474,-0.17102,-0.49876,-0.027883,-0.053058,-0.065889,-0.50116,0.14704
-0.4794,-0.35829,0.40085,-0.077858,-0.0291,-0.18508,0.043531,-0.28201
-0.14954,-0.42544,-0.31482,-0.098841,-0.076736,-0.11611,0.2211,0.82972
0.014919,0.44747,-0.12153,0.049395,0.030549,0.10929,-0.0082917,-0.90115
-0.032689,0.59465,0.30144,0.11686,0.082027,0.13144,-0.1384,-0.25549
0.36525,-0.025854,0.30538,-0.0053661,-0.031232,-0.010672,0.28962,0.68363
-0.015575,0.019915,-0.36862,-0.12115,-0.043005,-0.059045,-0.19526,-0.061598
-0.1802,-0.47433,-0.0896,-0.057521,-0.022966,-0.013334,-0.001327,-0.22268
-0.024158,-0.22125,-0.00050414,0.03822,0.021623,0.009676,-0.059806,-0.25398
0.20524,0.3658,0.26351,0.13582,0.075489,-0.20843,-0.098001,-0.13075
-0.16164,-0.28003,-0.080657,-0.0062586,0.021522,0.29344,0.17325,0.10999
-0.0060464,-0.058949,0.24738,-0.044085,-0.077976,0.038626,0.004826,0.29713
0.079085,0.12264,-0.28309,-0.0013944,0.010947,-0.043537,0.093445,0.19395
-0.25782,0.17111,-0.36536,-0.0038751,-0.001313,-0.031681,-0.043591,0.27033
0.13865,0.030616,0.066461,-0.013375,-0.02155,-0.14508,-0.24843,-0.50061
0.25128,0.3458,0.17274,0.00042227,0.0044882,0.022115,0.066051,0.44411
-0.17992,-0.60953,0.27785,0.028932,0.053111,0.15726,0.0019311,-0.24114
0.21755,-0.026568,-0.34162,-0.061142,-0.039783,-0.044234,0.16038,-0.2071
-0.16034,0.39963,0.46422,0.011306,-0.00059101,-0.19145,0.040093,-0.30621
-0.19066,-0.16979,-0.42244,0.0042558,0.006941,0.16128,0.27959,0.19785
-0.11705,-0.2631,0.34735,0.035269,-0.03242,-0.063876,-0.49085,-0.13468
0.16134,0.60671,-0.50396,-0.051456,0.022323,0.20347,0.1091,0.27552
0.13668,-0.30631,0.44068,0.010093,-0.0082576,0.072555,-0.27412,0.034142
0.028218,0.044247,-0.081094,0.02483,0.0087315,-0.4804,0.18647,0.10814
0.0086535,0.18617,0.23214,0.12561,0.07317,0.31762,0.19386,0.36382
0.047811,-0.42495,-0.45681,-0.10175,-0.041798,-0.080652,-0.00889,-0.44188
-0.11866,0.18044,0.11095,0.006682,-0.00062054,0.051124,0.03306,-0.37304
0.026357,-0.053848,-0.092503,-0.056995,-0.030234,0.0020152,0.025201,0.17684
-0.19513,-0.21147,-0.24206,-0.011448,-0.013717,-0.071466,-0.3735,-0.05463
-0.070428,-0.39827,-0.19197,-0.051743,-0.021484,0.12023,0.12875,0.043108
0.13646,0.23907,0.71819,0.025572,-0.014405,-0.18007,-0.098552,0.30496
0.15325,0.31475,0.3342,0.12702,0.093639,0.13769,0.078896,0.22007
0.11322,0.43598,-0.36021,-0.075449,-0.040884,-0.074327,0.31767,-0.19271
-0.1168,0.17077,0.069203,0.050753,0.019706,0.059255,-0.086323,-0.071335
0.01683,-0.16251,-0.1169,0.012939,0.025509,-0.0083628,0.15391,-0.061205
0.020423,0.24138,0.20889,0.060445,-1.2382e-05,0.089723,-0.19093,-0.1501
-0.27164,-0.40047,-0.73128,-0.15111,-0.064678,-0.15492,-0.23298,-0.25357
0.037805,-0.40889,0.33375,-0.020545,-0.020036,-0.016605,-0.052486,0.050777
0.23702,-0.26476,-0.14251,0.077164,0.063684,0.097383,0.21671,0.42126
-0.12738,-0.068329,0.42882,0.0096975,-0.024291,0.029769,-0.1673,-0.19395
-0.039629,-0.085934,-0.46314,-0.15175,-0.041553,-0.11095,0.28918,0.4267
0.055282,0.72528,0.28081,0.10171,0.05118,0.080904,0.19018,-0.14445
-0.10802,0.012136,0.23585,-0.010157,-0.01156,0.011453,-0.602,-0.10967
0.1814,0.14025,-0.23549,0.075857,0.035899,-0.0063908,0.13432,-0.46159
0.14971,-0.14372,-0.13254,0.024004,-0.009661,-0.01851,0.24531,0.31391
-0.13345,-0.017771,-0.16051,0.013596,0.02343,-0.023391,-0.14259,0.20671
-0.098615,0.27491,0.80879,-0.049989,-0.068229,-0.01916,0.048955,-0.26245
-0.074655,-0.41683,-0.65291,-0.0898,0.0041491,0.019582,0.08433,0.33342
-0.148,0.20872,0.25209,-0.052378,-0.048726,-0.15546,-0.10931,-0.17987
0.31404,0.1656,0.20504,0.18624,0.093322,0.081769,0.058249,-0.14762
0.022678,-0.3656,-0.52469,0.039465,0.055251,0.18455,0.036082,0.093665
-0.2012,-0.86533,0.33547,-0.18036,-0.10039,0.050393,-0.15635,-0.096076
0.19792,0.43069,-0.48501,0.058392,0.040593,-0.11949,0.086998,0.11292
0.11165,0.53801,0.76251,-0.048179,-0.060712,0.070779,0.092073,0.11377
-0.32603,0.073296,-0.85826,-0.014623,-0.021327,-0.092519,-0.17311,-0.1842
0.15177,0.12767,0.2409,0.12892,0.096357,0.044439,0.25321,0.27693
-0.18022,0.031154,-0.29026,0.039623,0.011099,-0.28563,-0.68928,-0.54665
0.077645,-0.21798,0.44521,-0.19606,-0.089721,0.17445,0.4558,0.26168
0.012183,-0.21052,0.37119,0.070335,0.059275,0.042294,0.27819,0.24276
0.0065827,0.203,-0.069854,-0.052312,-0.026607,-0.0011246,0.11769,-0.032207
0.33403,0.31223,0.55231,0.24762,0.074191,0.092914,-0.35817,-0.20388
-0.092284,-0.52176,-0.44437,0.07064,0.0020807,-0.0016581,-0.38879,0.086372
-0.24245,0.02525,-0.75835,-0.31078,-0.11014,0.045253,0.70744,0.2904
-0.032089,-0.22752,-0.24292,-0.045687,-0.0044333,-0.26469,-0.44356,-0.49172
-0.095566,0.33087,0.705,-0.016947,-0.00063297,0.14783,0.095627,-0.050593
0.14387,-0.046078,0.10664,0.17437,0.042521,-0.16182,-0.051129,0.073175
-0.0024226,-0.16667,-0.59073,-0.041142,0.039763,0.24395,0.20784,0.23739
0.042737,0.31648,0.40716,0.01731,-0.0083405,-0.025942,-0.036558,0.041894
0.13798,-0.16497,0.1778,-0.07898,-0.046763,0.0041336,-0.029807,-0.18708
-0.021883,0.38866,-0.036926,0.076881,0.041729,-0.018601,0.15444,0.025054
-0.061971,0.0061046,-0.36333,0.094433,0.0068881,-0.11888,-0.44768,0.47342
-0.1459,-0.43398,0.14827,-0.011011,0.0044808,-0.032218,0.10699,-0.41341
0.10247,0.055954,0.21839,-0.12293,-0.052049,0.24058,0.23924,-0.14332
0.044394,0.31574,0.049351,0.023465,0.024156,-0.011765,-0.097705,0.25376
-0.26301,-0.45356,-0.010067,-0.080434,-0.017474,-0.20322,0.16765,-0.25864
0.1829,0.35011,0.20047,0.088197,0.010133,-0.20831,-0.15793,-0.11444
-0.037445,-0.34041,-0.50229,-0.01007,-0.010482,0.3642,-0.087392,0.0025893
-0.14906,-0.60574,-0.058215,-0.086315,-0.0013164,-0.016341,0.0070625,0.11889
0.35619,0.65441,0.37577,0.11728,0.014177,-0.029329,-0.13773,0.30609
0.047619,0.49347,-0.92588,0.022651,0.01262,0.05954,-0.027938,-0.08519
0.0011706,0.47933,0.36702,0.043929,0.048806,-0.10175,0.64936,0.27771
-0.075072,-0.68916,0.31907,-0.068817,-0.025544,-0.021722,-0.25517,-0.32128
-0.19962,-0.67472,0.60328,-0.042029,-0.046139,0.12701,-0.34518,-0.21618
-0.070069,0.30311,-0.3277,0.046392,0.010774,-0.093614,0.39999,0.3454
0.046771,0.23394,0.18807,-0.20162,-0.080969,-0.082255,-0.18654,-0.24174
-0.036578,0.098142,-0.3604,0.12848,0.030644,0.020685,-0.11468,0.013663
0.23563,-0.23431,0.00026399,0.19351,0.11948,0.02834,0.27101,0.14514
