-0.11609,0.037876,0.013758,0.0054834,-0.0029905,-0.0094952,0.015308,-0.036485
-0.31463,0.083835,0.05807,0.012197,0.0036743,0.01908,0.00039348,-0.026472
0.41488,0.090011,0.039202,0.02621,0.017804,0.007944,0.032237,0.14616
-0.10734,-0.07647,-0.0029216,-0.022538,-0.022786,-0.019027,-0.037656,-0.21429
0.079573,0.020648,-0.036314,-0.00097792,-0.0084128,-0.022164,-0.0062329,0.048332
0.24903,0.019796,0.033249,-0.0026269,0.0064849,-0.016407,-0.01416,0.07493
-0.4737,-0.097375,-0.028451,-0.011676,-0.009197,-0.016744,-0.022356,-0.15721
-0.080157,-0.044559,0.0050056,0.011064,0.030496,0.03976,0.016144,0.024826
0.18858,0.011844,-0.015184,0.0031561,-0.0073601,-0.0030468,0.038986,0.11443
0.037005,0.062429,0.035502,0.019296,0.025452,0.042015,0.038526,-0.0044943
-0.14296,-0.041945,0.015955,0.012569,-0.027598,0.057025,-0.08665,-0.057784
0.024499,0.011368,-0.097662,-0.071788,-0.018354,-0.044982,0.03075,0.032868
0.023687,-0.026808,-0.00092658,0.008311,-0.025174,-0.038579,-0.031123,-0.06112
0.25191,0.071331,0.11853,0.057425,0.05336,0.004911,0.0089228,0.15139
0.16021,-0.083445,-0.12992,-0.057419,-0.024991,-0.094884,0.088241,0.01265
-0.19162,0.11956,0.1053,0.046395,0.013239,0.068054,-0.090265,-0.1587
0.045306,0.10334,0.035173,0.024884,0.027513,0.040836,0.035637,0.073252
-0.6154,-0.22498,-0.098081,-0.067517,-0.060186,-0.074348,-0.026511,-0.1443
0.11442,0.0024361,-0.013211,0.011144,0.023687,0.04368,0.019945,0.031706
0.071131,-0.026355,0.024166,0.010686,-0.017656,0.09116,-0.043874,0.0074174
0.56106,0.18132,0.13128,0.079467,0.058038,-0.040448,0.078907,0.33805
0.14924,-0.15531,-0.16051,-0.094957,-0.014807,-0.092711,-0.0021933,-0.20189
-0.55977,0.042348,0.039584,0.011056,0.0060576,0.067529,-0.052514,-0.063987
0.14032,0.21223,-0.0025563,-0.024034,-0.035526,-0.059676,-0.016972,0.019247
-0.48193,-0.4344,-0.099174,-0.012306,-0.030039,0.017643,-0.004492,-0.25485
0.14622,0.39166,0.17183,0.077918,0.038326,0.0099907,0.024413,0.14692
0.40922,-0.30189,-0.072222,-0.042068,-0.041175,0.049621,-0.00026149,0.16361
0.51864,0.07822,0.043661,0.042016,0.059734,0.14379,0.070041,0.19461
-0.52596,0.17952,-0.011894,-0.029155,-0.010455,-0.21574,-0.046035,-0.34592
-0.22596,-0.12429,0.018738,0.025571,0.021629,-0.029121,0.010567,0.09596
-0.20847,-0.0066788,-0.067739,-0.036191,-0.016077,0.055393,-0.088744,-0.15313
-0.046399,0.093163,0.025484,-0.003727,-0.030079,-0.078886,0.069575,0.13132
0.46043,0.11907,0.0016157,0.029029,0.049672,0.084374,0.00068376,0.072012
0.387,-0.30491,-0.037564,-0.031776,-0.027008,0.045906,0.055835,0.22146
-0.68399,0.11006,-0.044897,-0.045531,-0.025797,-0.076537,-0.054112,-0.43773
0.13507,-0.151,0.057976,0.073746,-0.001276,0.13917,-0.055521,0.10124
0.38857,0.21023,0.060186,-0.0020129,-0.0078891,-0.18211,0.020819,0.10381
-0.47186,-0.030895,-0.022807,-0.030602,0.056243,0.25601,0.066195,-0.24962
0.21777,-0.23171,0.042981,0.066049,-0.04295,-0.25035,-0.02803,0.24543
0.091826,0.31261,0.13984,0.037804,0.046294,0.055776,-0.042443,0.020378
-0.2606,-0.068873,-0.24837,-0.14678,-0.019753,-0.013924,-0.0078815,-0.063737
-0.27259,-0.16525,-0.059494,-0.0035738,-0.045969,-0.03044,0.020989,-0.075958
0.076579,0.16305,-0.012374,0.021883,0.021923,0.14637,-0.050034,-0.070374
0.56524,0.23449,0.049364,0.062163,0.042719,-0.085362,0.12969,0.18721
0.080144,-0.23443,0.12596,0.031109,0.0079262,-0.022637,0.051087,0.14907
-0.23576,-0.034891,0.030091,-0.0011448,-0.028442,-0.0092113,-0.0059602,0.06392
-0.40555,-0.10585,-0.035076,-0.019072,-0.027882,0.033147,-0.081674,-0.3117
0.46767,0.13817,-0.03847,-0.077329,0.0014484,-0.028152,-0.082954,0.044803
-0.36156,-0.14586,-0.011645,0.019603,0.020427,0.21351,-0.040983,-0.25732
0.094508,-0.010965,-0.0174,0.0064782,-0.017574,-0.21005,0.037246,0.21233
0.14331,0.10763,0.022267,0.0088137,0.036414,0.15509,0.067219,0.0019904
0.20952,-0.045578,0.052853,0.034993,-0.051227,-0.39316,-0.074348,0.074261
0.062316,0.25,-0.011018,-0.0082057,0.04852,0.21666,0.090733,0.039994
-0.59028,-0.24685,-0.20749,-0.089131,-0.046227,0.063824,-0.014478,-0.11552
0.086601,0.15912,0.10521,0.11275,0.087276,0.055407,0.071467,0.2563
0.12511,-0.01745,0.092337,0.10526,-0.0033748,-0.13639,-0.018848,-0.26708
-0.050121,-0.16882,0.020502,-0.2211,-0.12238,0.074027,-0.0050299,0.10218
0.19002,0.12507,-0.047193,0.047486,0.019524,0.05279,-0.052381,0.11263
-0.17305,-0.0045711,-0.0012947,0.027905,-0.0075181,-0.045468,-0.02941,-0.19802
0.32654,-0.08216,0.032728,0.008933,0.053765,-0.0039267,-0.01538,-0.049447
-0.1974,-0.0063337,-0.05544,-0.033149,0.046211,0.066153,-0.042312,-0.043589
0.2117,0.11414,0.053244,0.034187,0.0076937,-0.047643,0.069123,0.14778
-0.47516,-0.18829,-0.080137,-0.0081163,-0.0083961,-0.096077,0.037673,-0.014012
-0.22591,0.048826,0.035217,-0.0041611,-0.057909,-0.07121,-0.011429,-0.13016
0.4744,0.20186,-0.0081529,0.014414,0.03807,0.098282,-0.023163,0.18226
0.37359,-0.27515,-0.015855,-0.01528,-0.0018778,0.13288,0.10438,0.33706
-0.22719,0.18828,0.058415,0.039239,-0.083459,-0.098074,-0.081598,-0.39288
-0.59035,0.12281,0.026968,-0.0097115,0.02111,0.079488,-0.018264,-0.13324
0.54459,-0.011843,-0.031872,0.0019721,0.032278,-0.12161,-0.0020973,0.068669
0.15692,-0.13908,-0.0081671,-0.050391,-0.024667,-0.020431,0.029906,0.15035
-0.39833,-0.1119,-0.072916,-0.017764,0.0081275,-0.085351,-0.05445,-0.012531
0.07889,0.02971,0.0093509,0.0069138,0.045682,0.23771,-0.020113,-0.19214
0.06379,0.16831,0.075756,0.032352,-0.068245,-0.021571,0.031991,0.10549
-0.099391,-0.20341,-0.11477,-0.034377,-0.006606,-0.037353,0.055445,0.030721
0.021268,0.009357,0.13401,0.065124,0.0957,0.14084,-0.012089,-0.024025
0.085627,0.12043,0.064899,0.057663,0.071821,-0.14574,-0.061442,-0.07312
-0.14406,-0.11903,-0.071779,-0.095964,0.075019,-0.031783,0.14118,0.22765
0.063388,0.24484,-0.057222,-0.013415,-0.13946,-0.088436,-0.076976,-0.083133
0.18097,-0.084758,-0.00091726,0.038991,-0.11222,0.028375,-0.021637,-0.030263
-0.0926,-0.16302,-0.043682,-0.017635,-0.069933,-0.070586,-0.06885,-0.084564
-0.036297,0.27476,0.056458,0.0035145,0.0045236,0.085531,-0.00077165,-0.021925
0.030728,-0.077071,0.064883,0.055065,0.082768,0.11624,0.049139,0.084895
-0.047585,-0.0081986,-0.049975,-0.081983,0.035728,-0.070179,0.12743,0.11666
0.064192,-0.22956,-0.10108,-0.063877,0.031376,0.13705,0.0075815,0.11894
0.13079,-0.076343,0.043691,0.062698,-0.0050524,-0.0036804,-0.20845,-0.21327
-0.3176,0.1012,0.086554,0.048007,0.022394,-0.14098,0.02693,-0.41825
0.1086,0.17181,0.034207,0.009464,-0.018426,-0.11146,0.050646,0.34163
-0.50584,-0.027309,0.080774,0.017479,0.0043496,0.1934,0.020051,-0.10315
0.51744,0.043479,-0.22794,-0.084264,-0.02104,-0.023989,0.045584,0.21084
0.57511,-0.077214,0.021399,0.055601,0.0035622,-0.068683,-0.075019,0.3483
-0.49912,0.015381,0.10982,0.014954,0.011799,-0.1125,-0.028748,-0.50174
0.16716,0.076781,-0.17322,-0.034515,0.015601,0.23557,0.075096,0.25523
-0.50691,0.041825,0.18111,-0.014707,0.0042091,-0.070766,0.033019,-0.33396
0.05429,-0.16228,-0.10697,-0.026989,-0.086639,-0.28109,-0.022924,0.050307
-0.01837,-0.052915,0.050194,0.054067,0.00053958,0.26091,-0.062489,0.10219
0.50827,0.088039,0.029316,0.010314,0.0012305,0.07816,0.0069871,0.046776
0.016647,-0.0043683,-0.074406,-0.063818,0.011502,0.060185,0.028277,0.093337
-0.21927,-0.13293,0.021253,0.058861,0.026652,-0.013296,0.055358,-0.08012
0.044108,0.12702,0.066665,-0.019642,0.010995,-0.15174,-0.013669,0.07174
-0.58947,0.08336,-0.063434,-0.041363,-0.0089221,0.0028726,-0.14748,-0.30387
0.22651,-0.096801,-0.0026895,0.040377,0.016157,0.012333,0.052797,0.10478
0.33885,-0.01266,0.075785,0.021915,0.017266,-0.037285,0.056587,0.1256
0.18016,-0.022281,-0.048178,0.035273,-0.02884,-0.26221,-0.057245,0.0089245
0.18255,0.2572,0.006898,0.0092397,0.041015,0.33132,0.079116,0.14626
-0.6053,-0.16758,0.044678,0.013314,-0.0014629,0.073203,-0.010502,-0.21887
0.083233,-0.1582,-0.075999,-0.17962,-0.041307,0.090053,0.064624,-0.053501
-0.25944,0.095015,-0.089506,0.024008,-0.018332,-0.24202,-0.055019,0.0036346
0.30356,0.13596,0.028064,0.069719,0.026353,0.093034,-0.018129,0.071609
0.020681,-0.1396,0.019641,-0.049798,-0.033742,-0.16286,-0.059307,-0.019865
0.30347,0.14927,0.12818,0.10359,0.0037177,0.13785,0.0088782,0.011475
-0.3515,-0.091999,-0.044196,-0.024243,0.021478,0.001678,-0.0087359,0.0096106
-0.010799,-0.042674,-0.020744,-0.018852,-0.034603,-0.14319,0.075695,0.13796
0.19638,-0.11526,0.065519,0.049563,0.070815,0.2565,0.036055,-0.10492
-0.2493,0.1067,0.034415,0.0090195,-0.020498,-0.0034816,-0.15067,0.036745
0.18091,-0.014669,-0.18495,-0.070393,-0.034013,0.04512,0.093894,-0.079973
0.20517,-0.21908,0.00070528,-0.032633,-0.015754,-0.56616,0.019758,-0.066667
-0.28416,0.25299,0.10685,0.044096,0.026952,0.45286,-0.029636,-0.034541
-0.079627,0.31615,-0.022564,-0.019791,0.06295,0.064975,-0.00019455,0.069872
0.24731,0.024478,-0.043257,-0.028722,-0.0095545,-0.20406,0.060417,0.31639
-0.16222,-0.31889,-0.032625,0.041068,-0.003477,0.030894,-0.067405,-0.31819
-0.36189,0.04969,0.064757,0.01016,-0.044233,-0.048578,0.029652,0.042094
-0.023459,-0.40287,0.054132,0.0036462,-0.014865,0.074161,-0.00047128,-0.069965
0.18666,0.14243,-0.0017692,0.044801,-0.0090503,0.070811,-0.079787,0.074175
0.21559,0.16938,-0.0093527,-0.046483,-0.0029471,0.09617,0.010712,-0.0076786
0.76399,0.076475,-0.11756,-0.013005,-0.0037174,-0.17264,0.0607,-0.00090042
-0.36213,0.11417,0.10255,0.011745,0.036234,0.097057,0.016339,0.010374
-0.29712,-0.1388,0.017352,0.003733,0.00028859,-0.019983,-0.019862,-0.027283
0.19076,0.083758,-0.061354,-0.021785,-0.0019748,0.012483,0.0076718,0.24608
-0.59563,-0.18647,0.022237,0.044525,-0.025552,-0.13537,-0.033177,-0.27125
-0.24949,0.050846,0.01024,-0.02357,0.045883,0.059675,0.014247,-0.11136
0.19393,-0.00088784,-0.0032608,-0.030092,0.0078752,-0.033821,0.040628,0.23997
0.030686,-0.060169,-0.064442,-0.036641,0.030711,-0.061598,-0.094957,-0.15659
0.6297,0.17013,0.0073327,0.012435,-0.059031,0.0033195,0.052174,0.12658
0.072319,-0.036294,0.064657,0.078918,0.018727,0.23493,0.020203,-0.0063277
-0.067372,-0.05421,0.014714,-0.039761,-0.0099413,-0.082361,0.02685,0.060047
-0.29357,0.069733,-0.055893,0.039369,0.0037841,-0.17314,-0.0070327,-0.042818
-0.14218,-0.14864,0.040635,0.019185,-0.0091207,0.13494,-0.043247,-0.12805
0.12379,0.19711,0.022951,0.03974,-0.070064,0.028254,0.0035894,0.070158
-0.31382,-0.20542,0.031225,-0.11064,-0.0047467,0.15274,0.0083341,-0.11126
0.13254,-0.0046961,-0.075877,-0.042075,-0.045209,-0.15118,-0.083394,0.016805
0.39365,0.064679,-0.088261,0.010487,0.068098,0.019195,0.10412,0.17503
-0.10811,0.16628,0.024453,0.0076158,0.054627,-0.089101,-0.029671,-0.087822
-0.060328,-0.13814,0.081761,0.050723,0.10133,-0.063859,0.047633,0.042318
0.067791,0.18959,0.075138,0.046055,0.058054,0.086743,-0.030027,0.043014
0.056932,-0.17957,-0.081932,-0.029764,-0.03868,-0.065848,-0.011716,0.00058178
-0.26514,-0.10571,0.032017,-0.012613,-0.027551,0.097897,-0.03745,-0.1086
-0.070212,0.098263,-0.012909,-0.004037,-0.1218,-0.12214,-0.013284,-0.050781
0.001621,-0.16143,-0.15419,-0.066556,-0.16651,0.03484,0.083954,0.048189
0.099628,0.20923,0.13184,0.088852,-0.021148,0.04777,-0.027696,0.015484
0.044903,-0.062751,-0.03721,-0.037844,0.11222,0.04289,0.0022676,0.1002
0.36907,0.19497,0.073566,0.014307,0.13386,0.19983,0.078843,-0.026546
-0.48287,-0.25941,0.019442,0.034457,0.030206,-0.17797,-0.049206,-0.037193
0.066194,0.10563,0.051027,-0.039705,0.021752,0.032484,-0.085999,-0.18206
0.030278,-0.0456,-0.19826,-0.036003,-0.023224,-0.13192,0.014768,0.1794
0.41539,0.1466,0.037816,0.045966,-0.018498,0.0067615,0.01087,0.070754
-0.28785,-0.075019,0.072317,-0.0042637,-0.034785,-0.0054193,0.0043542,-0.062413
-0.27563,-0.11582,-0.086466,-0.037778,-0.018232,0.074026,-0.0038671,-0.079116
0.053684,0.11132,0.0852,0.047392,-0.0088385,-0.026995,0.096739,0.11476
0.20903,-0.11878,-0.014216,-0.014125,-0.030805,-0.01741,-0.13013,-0.097647
-0.20613,-0.12517,-0.0021947,-0.026973,0.0013983,-0.27792,0.090014,0.0026426
-0.25207,0.13989,0.019093,0.039895,0.017448,0.38833,-0.08585,0.0094807
0.54196,0.10615,-0.021514,-0.009264,0.025462,-0.12759,0.077003,0.032205
0.028792,0.054002,0.078155,0.051501,0.02591,0.095119,0.02383,0.062852
0.099308,0.13005,-0.057785,-0.059752,-0.0041928,0.19457,-0.027011,-0.015968
-0.20031,-0.066639,-0.054992,0.015686,-0.017683,-0.37975,-0.029263,-0.048157
-0.22302,-0.2888,-0.0075338,-0.035223,0.0089116,0.36034,0.024186,0.0053532
0.16239,0.09396,-0.040364,-0.0096928,0.012858,-0.06525,-0.015754,0.0041637
-0.029938,-0.084145,0.065623,-0.0015897,-0.021926,-0.21341,-0.094916,-0.082528
-0.33237,-0.019176,-0.0015377,0.020418,-0.017901,-0.15471,0.13791,-0.01196
0.26218,0.062514,0.071239,0.040937,-0.030357,-0.035731,-0.09094,-0.0023562
0.17503,0.2166,0.073542,0.036855,0.049576,0.1472,0.054337,0.07938
0.07748,-0.016353,-0.13483,-0.038319,0.026279,0.094194,0.018918,0.19407
-0.11724,-0.1893,-0.045705,-0.059164,-0.014339,0.052455,-0.064541,-0.1745
-0.20707,0.15268,0.067795,0.013839,0.045211,0.057494,0.1241,-0.042912
0.080256,-0.19963,-0.075234,0.024913,-0.052245,-0.20819,-0.055904,0.033032
0.19693,0.22414,0.080263,-0.017666,-0.047967,0.22512,-0.042057,0.0054389
0.041071,-0.098006,-0.02786,-0.019756,-0.042417,-0.11216,0.025237,0.076804
-0.13667,-0.063316,-0.00090544,0.042342,0.035801,0.051132,-0.017607,-0.10448
0.15,-0.061584,0.036203,0.020261,0.054711,0.024369,-0.060513,-0.022183
-0.36921,0.094985,-0.033904,-0.023654,0.045933,-0.00037475,0.0067067,-0.089211
-0.14335,-0.0080796,-0.063269,-0.035081,-0.053287,-0.22115,0.059801,0.094336
0.058507,-0.051691,0.087966,0.063565,-0.0016808,-0.13196,-0.010119,-0.048254
0.25575,0.17305,0.11412,-0.0095944,0.011763,0.24299,0.054825,0.21058
0.22407,0.030656,-0.14213,-0.028629,0.047703,0.05228,-0.034854,-0.14449
-0.13019,-0.13025,-0.049026,-0.048764,-0.052002,-0.0081237,-0.014393,0.018835
0.10472,0.14852,0.072311,0.054617,-0.015516,-0.13276,0.10726,0.1759
-0.099047,-0.064697,0.0026379,0.015711,0.054581,0.20233,-0.10856,-0.12026
0.12777,-0.26295,-0.047198,-0.017023,-0.052875,0.051877,0.016944,-0.12138
-0.39275,0.077688,-0.022204,-0.012122,-0.040389,-0.15483,-0.055715,-0.031944
-0.048735,-0.017602,0.031379,0.022957,-0.031594,0.065888,0.025219,0.092621
0.17957,-0.0071426,0.044101,-0.036329,-0.0090021,-0.16168,-0.020721,-0.036699
0.16559,0.20577,0.13413,0.076148,0.11534,0.12295,0.0029932,0.088684
-0.050933,0.1004,-0.16629,-0.060998,0.03855,-0.072369,0.035241,-0.04556
-0.20949,-0.14935,-0.067161,-0.025464,-0.02712,0.088887,-0.055559,-0.11761
0.14729,-0.065829,0.01041,0.026808,-0.018519,-0.079726,0.090771,0.1239
-0.038005,0.17925,0.027917,-0.0055895,0.0018347,-0.022177,0.0056702,-0.031015
0.11483,-0.2272,0.079363,0.03356,-0.02912,-0.018359,0.04805,0.11326
-0.27237,0.041899,-0.022842,-0.0043944,0.012722,0.12033,-0.095597,-0.06084
0.38196,0.079106,0.04119,-0.0026313,0.0013666,0.066431,-0.01252,-0.062057
-0.19365,-0.046382,-0.0026616,-0.0084742,-0.0015731,-0.00025837,0.022531,0.045871
-0.20983,-0.077631,-0.1005,-0.02237,-0.059242,-0.19728,0.0085389,0.058625
0.45724,0.078515,0.028169,0.033451,0.023317,0.2091,0.02314,0.02229
-0.13224,0.023273,0.023433,-0.013077,-0.0039976,-0.2428,-0.074136,-0.11013
-0.09052,-0.032588,-0.029034,0.0021224,0.061998,0.19642,0.014359,-0.080137
-0.0064628,0.1843,0.019248,-0.014483,-0.0051494,-0.14543,-0.038271,-0.058229
0.039309,-0.23234,-0.03456,-0.039084,-0.0022466,0.067569,0.058453,0.09021
-0.20501,0.045623,0.052147,0.061581,0.016002,-0.015939,-0.0066843,0.070085
-0.32646,-0.028692,0.014155,0.006679,-0.020813,0.04186,-0.0062707,-0.062619
0.51805,0.12285,-0.093571,-0.055063,-0.042517,-0.055674,0.059899,0.1613
0.21079,-0.07788,0.10402,0.087377,0.0054502,0.043031,0.011624,0.038151
-0.10835,-0.021573,-0.026067,-0.073969,-0.0019906,0.079861,-0.01942,-0.066316
-0.25295,-0.13025,-0.0076891,0.015214,0.0054509,-0.10204,-0.034761,-0.091618
0.27573,0.17398,0.025826,0.034084,0.0278,0.043362,0.010889,-0.024232
-0.070281,0.1408,-0.019762,-0.033565,0.0026123,-0.15668,0.014667,0.032556
-0.096165,-0.097259,-0.0041491,0.030499,0.039337,0.21115,-0.0085167,0.01526
0.057963,-0.0012611,-0.013305,-0.024055,-0.057234,-0.017589,-0.042999,-0.099649
-0.31714,-0.086637,-0.023488,0.0058356,-0.013508,0.024434,-0.05673,-0.014559
0.11723,-0.094953,-0.026272,-0.0045834,0.030122,-0.013597,0.037627,0.060899
0.14576,0.13109,0.096341,-0.02353,-0.0041515,-0.32568,0.062084,0.13605
-0.056214,-0.063421,-0.068877,-0.011218,-0.030006,0.26177,-0.03642,-0.08466
0.060999,-0.013062,0.0021862,-0.013745,-0.00016739,-0.069819,0.040175,0.024626
0.19432,0.18167,0.013,0.055486,0.0075791,-0.084701,-0.035781,0.034439
-0.18739,-0.24437,0.065044,0.025,0.016868,0.18648,0.0087945,-0.15719
-0.14024,0.13818,0.0093562,0.0042095,0.019878,-0.0067289,0.086838,0.17543
0.39568,0.13288,-0.092443,-0.046277,0.0085483,0.2248,-0.0064338,-0.046953
-0.30161,-0.14484,0.0085744,0.013537,-0.048833,-0.19937,-0.022848,-0.08324
0.0068043,0.068551,0.12385,0.065678,0.058061,-0.039734,-0.088991,-0.0045863
-0.064583,0.0054567,-0.099023,-0.085945,-0.0308,-0.095566,0.059774,0.04795
-0.087766,-0.12458,-0.098031,-0.020067,-0.019137,0.053383,-0.053278,-0.0037237
0.20245,0.060783,0.033021,-0.0026534,-0.01676,-0.17149,-0.10715,-0.05758
0.02566,-0.070709,0.060109,0.020947,-0.0082713,0.23061,0.063599,0.074676
0.22757,0.0059252,0.038576,0.011904,0.06102,0.01152,0.038795,0.042467
-0.2437,0.0037942,-0.015132,0.017499,-0.035243,-0.10742,0.13262,0.073399
-0.25993,-0.043534,0.017022,0.022575,0.031428,0.17347,0.041663,-0.19092
-0.0054154,0.092423,-0.04388,-0.034937,0.011499,-0.14328,-0.12402,-0.023129
0.36618,0.10803,0.01372,-0.01409,-0.039826,-0.10268,-0.06756,0.085135
-0.27649,-0.051482,-0.05193,-0.00063749,-0.020462,0.061698,0.046389,-0.030013
0.19148,0.12046,0.087528,0.052344,0.031005,0.12299,-0.0097339,0.029606
-0.11452,-0.28451,-0.099132,-0.03488,-0.010035,0.1032,0.0050757,-0.010175
0.29432,0.0044791,0.02071,-0.0045985,0.012917,-0.03896,0.042798,0.029183
-0.22702,0.21936,0.056037,-0.013157,-0.0094445,-0.032695,0.024387,-0.0021772
0.25437,-0.016613,0.0062931,0.040951,-0.022563,-0.28677,-0.027285,0.23023
-0.14036,-0.016602,0.09739,-0.021958,0.035733,0.13436,-0.096746,-0.36072
-0.24154,-0.10805,-0.21038,-0.061201,0.008705,0.049989,-0.02751,0.052456
0.099219,-0.14836,0.035562,0.040484,0.012967,0.046051,0.055946,0.047961
-0.38152,0.037273,0.10832,0.025337,-0.022358,-0.079614,0.076153,-0.037408
0.28897,0.084986,-0.046901,0.018348,-0.011788,0.1122,0.064996,0.10254
0.076461,0.083728,-0.062796,0.0038005,0.028795,0.092376,-0.055157,-0.045969
0.11057,-0.019159,-0.0015936,-0.0028385,-0.064698,-0.25407,-0.073065,-0.08263
-0.05066,0.073775,0.05891,-0.048627,-0.00302,-0.097107,0.027023,0.0096394
0.14107,0.025556,0.0018063,0.0069034,0.018831,0.20521,-0.051773,0.044074
-0.10399,-0.041261,0.02256,-0.00040182,0.0011783,-0.065409,0.042032,0.09861
0.23517,0.065281,0.043052,-0.00023882,0.053606,0.20774,0.0036353,-0.030996
-0.18862,-0.18184,-0.10089,0.0074528,-0.019194,0.046749,0.0047868,0.051848
-0.30071,-0.098241,0.043729,0.022769,0.0013145,-0.17536,0.060986,0.0090168
0.044645,0.10304,-0.023164,0.0067406,0.013196,-0.16391,-0.023189,-0.13029
0.15866,0.022814,-0.02024,-0.017138,0.00043106,0.10258,-0.06032,0.062169
-0.14595,0.013257,-0.0019306,-0.033232,-0.0059802,0.099269,-0.011385,-0.18757
-0.0082833,0.083984,-0.014704,0.0052918,0.0018272,-0.16659,-0.0013914,0.042843
0.32389,-0.14521,0.066931,0.051493,-0.046012,0.18812,0.032157,0.051624
-0.25648,0.16458,0.032522,0.003741,-0.070539,-0.062126,0.050158,0.067151
0.17426,-0.14007,-0.015973,0.018254,0.054349,-0.14233,-0.033441,0.091262
-0.10961,-0.0021924,-0.04706,-0.10806,0.009494,0.15237,-0.070407,-0.11681
0.14949,0.056136,-0.052874,0.015508,0.038038,-0.090494,0.09523,-0.0016874
-0.010564,-0.027346,0.028933,0.045371,0.031137,0.020856,0.025664,0.030235
-0.11499,0.019857,-0.0051274,-0.049567,-0.011237,0.10414,-0.029374,0.16554
-0.11111,0.0082422,0.13346,0.082364,0.03533,0.128,-0.085669,-0.21438
-0.071021,-0.010247,-0.10287,-0.0041239,-0.041116,-0.16601,-0.018228,-0.064265
-0.089806,-0.046435,0.019514,-0.01223,-0.015237,-0.052251,0.024662,0.044185
0.51155,0.43604,0.015573,0.0032231,-0.021026,0.015207,0.12141,0.10226
0.045557,-0.31465,-0.091733,-0.028217,-0.028154,-0.12064,-0.032322,0.078555
-0.29955,-0.1974,0.15054,-0.0050642,-0.013718,0.1335,-0.029892,-0.11224
0.032313,-0.10957,-0.13242,-0.028855,0.045592,-0.19136,-0.050624,-0.10158
-0.22254,-0.048642,-0.010423,0.025545,0.0093538,0.24845,-0.00043363,-0.059419
0.23505,0.41851,0.017286,-0.0057195,-0.0048486,0.11686,0.074089,0.11008
-0.18646,-0.071621,0.092191,0.049442,0.042488,-0.03166,-0.061198,0.11979
-0.079168,-0.14089,-0.066168,-0.019753,-0.020142,-0.25991,0.11732,-0.028924
0.28413,0.09546,-0.04316,-0.025758,-0.028435,-0.036937,-0.12464,0.00041053
0.090197,0.16129,0.14583,0.078222,0.056785,0.34028,0.017662,-0.089507
0.032248,-0.13207,-0.077444,-0.083006,-0.053511,-0.26867,-0.041791,0.012476
-0.17415,-0.060484,-0.010313,0.0059127,0.015704,0.17585,-0.01411,-0.023834
0.084594,0.1385,-0.01284,-0.014697,-0.047988,-0.17672,0.14727,0.056906
0.0084144,-0.24939,-0.038947,0.018936,0.0055793,-0.0047998,-0.0033817,0.1194
-0.15466,0.038603,0.066841,0.044061,0.075085,0.075813,-0.044701,-0.1275
0.087412,0.10198,0.014824,-0.017636,-0.026698,0.12888,-0.063107,0.072727
-0.13071,-0.099321,-0.07041,-0.049076,-0.049536,-0.11813,0.019158,-0.069224
-0.18823,0.044098,0.045373,0.043473,-0.0089281,-0.18053,0.037866,-0.068079
0.20076,0.19718,0.034199,0.017911,0.095086,0.35533,-0.038161,-0.085989
0.095701,-0.060495,-0.048829,-0.039636,-0.018969,-0.20698,0.010112,0.090536
-0.054325,-0.28189,-0.031214,-0.019514,-0.015554,-0.04115,-0.051288,-0.012393
0.27611,0.073724,-0.013784,0.00049749,-0.059246,0.10056,0.020223,0.11525
-0.28044,0.085856,0.058888,0.052019,0.03691,0.05948,0.045207,0.013813
0.17202,0.18508,0.054618,0.065096,0.038055,-0.065049,0.070549,0.034897
0.15284,-0.050145,-0.026171,-0.11622,-0.048332,-0.0481,-0.044636,-0.002341
-0.13193,-0.19809,-0.097375,-0.022971,0.027635,0.10179,-0.066452,-0.068757
-0.46819,0.16266,0.051842,0.032438,0.031718,-0.11495,0.035784,-0.11224
0.077987,-0.10124,-0.00072715,0.01089,-0.05913,0.0063774,0.027201,0.1069
0.41877,-0.013629,0.033478,0.013737,-0.017755,0.11681,0.024722,0.047682
-0.063046,0.034765,0.013259,0.048436,-0.046583,-0.22576,-0.049707,-0.017424
-0.45177,-0.049616,0.063071,0.012965,0.11289,0.021075,-0.12534,-0.21329
