0.0044843,-0.028487,-0.0098392,-0.0088399,0.00086503,-0.012988,-0.0025458,-0.0062087
-0.011966,-0.036075,-0.010311,-0.0018072,-0.023027,-0.021422,-0.0098499,0.0079591
0.011007,0.0025997,0.028122,0.012844,0.0389,0.016331,0.014103,0.022384
-0.012542,-0.014072,-0.011699,-0.011688,-0.0085692,-0.0011136,-0.0089558,-0.0019079
0.0033048,-0.007705,-0.012458,-0.0049588,-0.0090833,-0.0031693,0.0068082,0.0053923
-0.0039829,0.022195,0.018223,0.0019578,0.014005,0.010478,-0.0011477,-0.010487
0.012424,0.037162,0.018051,0.0092488,-0.0017423,-0.0067498,-0.0015508,0.012826
0.0055889,-0.016963,-0.020614,-0.014175,-0.017231,0.007878,-0.0021293,-0.02635
-0.0011219,-0.014862,-0.011736,0.0099067,0.0066061,-0.00020339,-0.010566,-0.0030828
-0.0077827,0.020028,0.0056183,0.0033757,-0.00056331,0.00025804,0.0045383,0.0045117
-0.0066473,-0.0063772,0.0079019,0.005199,0.00027557,0.0013375,0.012074,-0.011297
0.0022325,0.069358,0.026156,0.0073799,0.0012341,-0.0049771,0.0043271,0.019925
-0.012432,-0.11295,-0.033651,-0.013762,-0.0056061,-0.011121,-0.010849,-0.0032691
0.0040136,0.016168,-0.0077653,-0.0038002,0.010873,0.013904,0.0055778,-0.0026939
0.02028,0.034114,0.02539,-0.0020278,0.011463,-0.00043244,-0.0011751,0.013809
0.0050607,-0.012717,-0.020361,-0.0086139,-0.019599,-0.0074081,-0.0078143,0.0070528
0.0051627,0.047402,0.02671,0.015417,0.011332,0.0085314,0.001115,-0.0075317
-0.010736,-0.027515,-0.013123,0.0075619,-0.0051597,-0.0072868,0.0098168,0.0089008
-0.034879,-0.088516,-0.030411,-0.024304,-0.0065341,-8.5329e-05,-0.013105,-0.029768
0.010841,-0.017685,0.0062597,0.0058649,0.0073392,-0.00097027,0.010374,0.0013682
0.01708,0.09203,0.034616,0.020067,-0.018021,0.0058526,0.0020918,0.00077086
0.007357,0.038239,-0.015406,-0.012829,0.003574,-0.0028903,0.0011457,-0.00017329
0.0052399,0.032427,0.012676,0.0088425,0.0098771,-0.0036298,-0.00016803,0.0065655
-0.012541,-0.050098,-0.0059407,-0.00077111,0.008909,0.011527,-0.025114,-0.0022065
0.0010873,-0.013932,-0.0086059,-0.0025296,0.0086083,-0.0042718,0.012459,0.020597
-0.016164,-0.046637,0.0047872,-0.011975,-0.014439,0.0036326,0.0034035,-0.010829
0.021852,0.023535,-0.0047489,0.0022417,-0.0056207,-0.0038864,0.0026039,-0.0027111
-0.02531,-0.022292,-0.0059111,0.0011719,0.0036552,-0.0034693,0.010198,-0.0020059
0.014349,0.034528,0.0013366,0.0083737,0.013185,-0.0029988,-0.005013,0.0067469
0.0080494,-0.0014083,0.001387,-0.0072973,-0.016308,-0.0025227,-0.0040067,-9.7235e-05
0.0025924,0.026035,0.025483,0.0010994,-0.0068942,0.0057524,0.0052794,0.00069713
-0.010023,-0.039571,-0.020166,0.0023152,0.0022141,-0.001605,-0.0085907,-0.022275
0.0011641,0.028074,-0.0028242,-0.011541,0.010921,0.0066767,-0.0067722,0.0090311
0.012361,0.04113,0.0070776,0.014056,0.003562,-0.00062683,0.0027042,0.0086842
-0.015872,-0.094546,-0.021867,0.016375,-0.0042286,-5.9089e-05,0.011836,-0.0076099
0.0020597,0.011276,0.0039027,-0.012667,0.0032258,0.00057331,0.0048566,0.007155
0.011214,0.037932,0.029486,-0.0030246,-0.013053,-0.0065529,-0.0026814,-0.0015585
-0.011975,-0.0070255,-0.007838,-0.0096035,0.0095464,-0.013654,-0.010777,-0.0023639
0.010642,0.032521,0.0011069,-0.0012837,0.00083729,0.018285,-0.0037303,0.012651
0.0011186,-0.0074747,0.0014853,0.0062896,0.0078289,0.0032643,0.0029708,-0.0033394
-0.032431,-0.064339,-0.014576,-0.0024198,-0.016226,-0.0041054,-0.0061259,-0.019087
0.019745,0.049743,0.0076613,0.0040141,-0.00091065,0.0039113,0.016031,0.012238
-0.021656,-0.063255,-0.0332,-0.013246,-0.0086585,-0.0039993,-0.0085383,-0.003186
0.015555,0.0268,0.019355,0.00071881,0.015227,-0.0044313,-0.0016201,0.0048716
0.037823,0.054683,0.017208,0.030481,0.016002,0.010446,0.013366,0.0050888
-0.0016931,-0.026189,-0.0080643,-0.0019446,-0.014266,0.0016455,0.0051223,-0.0025803
-0.0093498,0.034329,0.014127,-0.010549,0.0023776,-0.015073,-0.010814,-0.0025179
-0.016606,-0.013752,-0.0019629,0.0046847,0.003249,-0.008286,-0.00329,-0.010312
-0.015889,-0.037707,-0.0093731,-0.02658,-0.0040031,-0.0012487,-0.0036262,0.0053615
0.016033,0.017034,-0.00031183,0.0049891,0.0039531,0.014004,-0.0040274,-0.0022739
-0.014713,-0.029312,-0.021768,-0.002226,-0.019781,0.0063067,0.0033642,-0.0018729
0.016854,0.010711,0.019819,0.0063924,-0.0048283,0.0069002,0.0030218,0.014443
-0.014194,-0.011335,-0.0007902,0.015127,0.0098817,5.4762e-05,-0.0049294,-0.0079982
0.017263,0.037376,0.0020763,0.0004187,0.0088946,0.0012178,0.010878,0.0088779
-0.0058333,0.008387,0.012527,0.0089968,0.015814,-0.013256,-0.0041687,-0.0053509
0.0025388,0.0031622,-0.00092679,-0.013976,-0.0082988,0.0033182,0.0046228,0.0038484
-0.0044848,-0.033175,-0.022837,-0.02175,-0.016509,-0.019498,-0.0096985,-0.018383
0.0042709,-0.0071465,0.017015,0.016862,-0.0010144,0.0041897,0.0074027,0.0059224
0.013032,0.026236,-0.014179,0.0081272,0.014676,0.0041096,0.0010317,0.02196
0.0059823,-0.011474,-0.0069427,0.0068498,-0.00079576,0.011611,-0.0056015,-0.017201
-0.024883,0.027893,0.015461,-0.01802,0.0071419,0.0033811,0.010732,-0.002172
-0.025028,-0.027693,-0.0014405,-0.011538,-0.0084807,0.0029674,-0.012615,-0.0031881
0.028907,0.017073,0.012883,0.0031241,-0.0086512,-0.0051812,0.010238,0.0033154
-0.011511,-0.02515,-0.019514,-0.0050688,-0.016802,-0.013228,-0.006594,-0.0059485
0.017864,-0.036863,0.0030484,0.018683,0.013996,0.017868,-0.0082669,0.0082273
0.015609,0.060475,0.010299,0.019664,0.005703,-0.013509,-0.010167,0.014706
-0.02591,-0.021746,-0.0056018,-0.010117,0.013096,0.0019492,0.011419,-0.0098821
0.0028735,0.021568,0.0099524,-0.00063706,0.0049936,0.0094924,0.017695,0.0047919
0.00058571,-0.0045955,0.0021694,0.0086977,-0.010753,-0.014362,0.0010537,-0.019418
-0.016979,-0.029773,-0.029051,-0.021487,-0.010704,0.00068252,-0.007144,0.0033846
0.028444,0.055411,0.0021589,-0.0054554,-0.0026888,0.007762,-0.014706,0.010659
-0.0036751,0.0086444,0.03327,0.0020613,0.0054487,0.0069176,0.0095215,0.0023846
-0.0039134,-0.053078,-0.029457,-0.014432,0.0058669,0.0060264,0.010686,0.0020062
-0.011338,-0.036216,0.0015168,0.0078338,-0.0014571,-0.018268,-0.0036018,-0.013872
0.0052467,0.019993,0.0090456,0.014511,-0.0087264,-0.011189,-0.010095,-0.0061186
0.0066815,0.037297,0.00096709,0.0059264,0.015299,0.011719,0.0066822,0.017532
0.00064747,0.039061,0.00071201,-0.0098771,-0.0075146,0.0036431,-0.0080367,-0.0053539
-0.0051978,-0.076316,0.00042688,-0.0015696,0.00094575,0.0036675,0.00042896,0.0033777
-0.01102,0.0036466,0.007861,0.015133,-0.014025,-0.003859,-0.00693,-0.018806
0.022079,0.075804,0.0073281,0.0087443,0.0022336,0.0044248,0.009033,0.0061119
-0.0076101,-0.078623,-0.02464,-0.013251,0.026251,0.004966,0.001522,0.015453
-0.0064573,0.01689,-0.0098944,-0.004312,-0.0045103,-0.01018,0.001828,0.0089888
0.0098328,0.026347,0.028217,-0.0037634,-0.0041459,0.0057379,0.0099343,0.0099168
-0.0056472,-0.01907,-0.011722,-0.0039178,-0.011738,-0.0098643,-0.0054836,-0.013207
-0.013817,-0.025696,-0.035791,-0.012548,-0.011664,-0.0023297,0.0023375,-0.021419
0.01664,0.029814,0.042105,0.0096005,0.011718,0.0049373,-0.0057798,-0.0068691
-0.00010801,0.014552,0.0033119,0.00031922,-0.0040709,0.0042135,-0.0064755,-0.00063071
-0.009239,-0.016873,-0.0037256,-0.001012,0.0034834,-0.0043722,0.00024317,-0.0024183
0.012837,0.013623,0.013085,0.013682,0.018746,0.010576,-0.0011683,0.019352
0.0037794,0.020128,-0.0089373,0.0054869,-0.0051926,-0.0054924,0.0050798,0.010298
-0.0050075,-0.059743,-0.023146,-0.0021605,0.0019303,-0.013403,0.003587,0.0018813
-0.013384,-0.007033,0.0014816,0.0062302,-0.0068011,0.01035,-0.013215,-0.0058236
0.0021976,0.037912,0.025702,0.0069961,-0.0079532,0.011098,0.0095797,0.002738
-0.012889,-0.01054,-0.020894,-0.031362,-0.0092829,-0.0033786,-0.0060097,-0.011683
0.019473,0.011947,0.01795,0.00032829,0.01277,-0.0019077,0.018182,0.0053465
-0.0023744,-0.011645,-0.021724,-0.0074164,-0.0041161,-0.015853,-0.011674,-0.001118
0.015134,0.01246,0.016516,0.023538,0.0027623,-0.0062956,-0.002018,-3.4915e-05
-0.0063869,-0.0096272,-0.015542,-0.016075,0.0023442,0.01098,0.0078179,-0.0071486
0.0030762,0.015551,0.007319,-0.0010879,0.0025737,0.012364,0.0097214,-0.0068511
-0.011447,-0.021772,-0.0084844,0.0061681,-0.0043204,0.013315,-0.012208,0.00093176
0.012332,0.049857,0.023059,0.0058088,-0.0027809,-0.01756,-0.011292,0.016334
-0.019426,-0.051179,-0.015276,0.013488,0.007018,0.0055875,0.0045697,0.00044493
-0.0051013,0.0030124,0.0091738,-0.0021109,0.0091935,-0.0031922,-0.01146,0.00027038
0.00081703,-0.021995,0.010246,-0.0020585,-0.0043685,-0.0047487,0.011077,0.00026524
0.0064453,0.038014,-0.004503,-0.002136,-0.010526,-0.022333,-0.0057307,-0.0073658
0.019947,0.01149,-0.0040432,-0.010277,-0.0017024,0.0068175,0.016474,0.00077338
-0.013034,-0.030808,-0.011946,-0.0030821,0.0063382,0.012684,-0.00023272,0.001162
-0.0063135,-0.018089,-0.020411,-0.019552,-0.009857,0.0033514,-0.0010257,0.0015109
-0.006643,0.011006,0.0019258,0.0029673,0.0045067,0.018079,-0.0014732,-0.0060879
0.025018,0.017705,0.024023,0.017808,0.0027634,-0.0055418,0.006221,0.0095473
0.0025791,0.041171,0.014886,0.017359,0.00081061,-0.0050352,-0.0092608,-0.006298
-0.0038979,-0.020256,-0.0096224,0.0017666,-0.0010623,-0.011773,-0.01676,0.0010827
-0.010328,0.02066,0.0053602,0.0023382,0.0052159,-0.0025061,0.0070727,-0.0073124
-0.01698,-0.094266,-0.026024,-0.020029,-0.0036038,-0.00088637,0.0074755,0.0076687
0.015008,0.033004,0.013388,-0.0029537,-0.011804,0.00068879,0.0078352,-0.00074959
-0.0082088,-0.0041441,0.01411,-0.0012908,0.019663,0.0098513,0.00030614,-0.0012285
0.0071334,0.012764,-0.0084069,0.0082179,-0.0030633,0.0030258,-0.0073224,0.006292
0.0064539,0.075751,-0.015298,-0.013655,-0.0020441,-0.0042518,-0.0072587,-0.0016061
-0.010081,-0.065221,0.0010658,0.011084,-0.00094033,0.0036051,0.00047301,-0.0093221
0.012405,0.011817,0.024922,0.012027,2.712e-05,-0.004642,0.0080298,0.0065193
-0.011857,-0.013229,-0.01411,-0.010878,-0.0071342,-0.013312,0.0075642,0.0067692
-0.004617,-0.046287,0.0011729,-0.0029653,0.00090245,0.0089386,-0.0087683,-0.0086652
0.026376,0.022399,-0.0072644,-0.0032864,-0.0071416,-0.00027184,0.0058905,0.0070125
0.0029975,0.060396,0.0076034,0.011633,0.01566,0.013875,-0.0031333,-0.00093304
-0.03574,-0.033559,-0.016547,-0.0050228,-0.00088956,-0.0031764,-0.004532,-0.016883
0.011644,-0.001488,0.0063841,0.0015137,-0.0019476,0.0033867,0.0018024,0.013887
-0.0033838,0.015978,-0.0016198,8.9273e-05,-0.0029701,-0.013197,0.00039804,-0.010118
0.0050239,-0.020404,0.01415,-0.0013732,-0.0037995,-0.0059547,-0.016378,0.0049355
0.0055413,-0.0093937,-0.0010706,-0.010569,0.011315,0.0017482,0.0063376,0.012248
0.0059262,0.017352,0.022874,0.0038669,-0.012235,-0.0056794,0.013996,-0.011567
-0.001664,0.012538,-0.0079613,0.010785,0.011514,0.010804,0.006667,0.0038186
-0.0016082,0.007059,-0.015628,0.0024499,-0.0034029,0.012048,-4.3178e-05,0.011513
-0.017323,-0.022749,-0.023661,-0.013285,-0.010188,0.0057127,-0.014054,-0.011959
-0.0018959,-0.022248,0.0070233,0.010462,0.014482,-0.0084077,0.0035194,0.0036798
0.0056562,0.0086949,0.0062573,-0.0044626,-0.015466,-0.0070996,-0.0022332,-0.0040909
0.0053687,0.015681,0.0055278,0.0043831,0.017013,-0.0061941,-0.00029016,-0.0040107
0.012882,-0.016535,-0.010522,-0.0099529,-0.005401,0.0019701,0.0013333,-0.011666
0.020377,0.021802,0.013024,0.0071265,-0.004687,-0.0061162,0.0024869,0.012057
-0.026853,-0.025262,0.0059738,-0.0069778,0.003464,0.0086267,0.003089,-0.0031091
-0.019445,0.014285,-0.0082625,0.0023166,-0.0044042,0.0072351,-0.0046808,0.013158
0.003557,0.023199,0.0091977,-0.0041631,-0.0048252,-0.010129,-0.0051386,0.0061319
0.003145,0.0090581,0.01118,0.012533,0.010084,0.011423,-0.0059878,-0.00083479
0.026288,-0.0050655,0.0051415,0.0054226,0.0013625,0.0017972,0.0085322,-0.0078607
-0.02065,-0.019577,-0.024873,-0.0021466,0.00037766,-0.015359,0.0073084,-0.0072554
-0.004746,-0.03483,-0.024409,-0.010229,-0.0083762,0.0070151,-0.0017299,-0.0069265
0.0037687,-0.0041753,0.0064491,-0.0032024,0.0064586,-0.0012472,0.00494,0.00089384
0.012733,0.056707,0.01309,-0.0044448,-0.001909,-0.0088079,-0.0038788,0.016222
-0.016954,-0.055189,-0.004278,0.0096014,-0.0099898,0.0077893,0.0030947,-0.0077455
0.016164,0.035396,0.017137,-0.0077709,0.013479,0.0094229,-0.013179,-0.00058251
0.0025571,0.039758,-0.00048104,0.013943,-0.0018425,-0.0040447,-0.0057996,0.0065912
-0.0032697,-0.01045,0.0056411,-0.0031953,-0.001333,-0.0093824,0.00183,-0.0017249
-0.0014911,-0.0367,0.012266,0.0034728,0.0071015,0.0087808,0.017558,-0.0098085
-0.023496,-0.038629,-0.042995,-0.012823,-0.015709,-0.0045139,-0.0054643,-0.0019804
0.01657,0.046547,0.019569,0.002644,0.0082594,0.01298,0.01089,0.013949
-0.014129,-0.015395,-0.018845,-0.0048451,0.0086131,-0.0014352,-0.019349,-0.0011326
0.0094324,-0.021344,-0.0021075,0.0036739,-0.01469,-0.016627,-0.010317,-0.00044315
0.02481,0.04411,0.038354,0.020237,0.0008545,-0.0091721,0.022251,0.00027374
-0.0069897,0.024315,-0.007051,-0.010025,0.0084225,0.0053863,-0.0077233,-0.0069162
-0.0077759,-0.0031468,-0.013561,-0.0013527,0.00029294,0.01159,0.016798,0.0091352
-0.0087375,0.023636,0.010786,-0.0085753,2.0087e-05,0.0096562,-0.0058861,-0.014137
-0.0020063,-0.075543,-0.0045016,0.015108,-0.0079002,-0.00017664,-0.0055655,0.0013751
0.0046578,0.0036641,0.0029788,-0.016233,-0.015555,-0.017685,-0.013532,0.0010068
-0.0043215,-0.043528,-0.013643,-0.0087567,0.023988,0.012006,0.0014915,0.0082511
0.0023466,0.025214,-0.023007,-0.0013822,-0.0064677,-0.012534,0.00053912,-0.0002601
0.0090649,0.030537,0.021956,0.0060517,0.010189,0.0025112,0.0071906,-0.0010216
0.0080344,0.043179,0.012111,0.021489,0.011316,0.0024546,0.0059811,-0.0017895
-0.0007421,0.0088734,0.0023885,-0.0096937,-0.018893,0.010667,-0.0029445,0.0052913
-0.017264,-0.025164,0.008616,0.014048,-0.0024976,-0.0042233,0.0039557,-0.0031822
-0.010276,-0.027451,-0.00031796,-0.0011314,-0.0021523,-0.0033127,-0.01233,0.004075
0.004619,-0.044739,-0.032159,-0.016305,-0.010138,-0.0023976,0.010694,-0.011955
0.011826,0.024563,0.01466,-0.00036037,0.012592,-0.0016332,0.0026726,-0.0043385
0.0035706,0.016356,-0.0083443,-0.015893,0.0035924,0.0066802,-0.0052064,0.019179
0.01895,0.078992,0.023751,0.0073797,0.0020448,0.0068681,-0.0051888,-0.011649
-0.027947,-0.061075,-0.021962,0.0070019,0.00029349,-0.0088575,0.0026915,-0.0030305
0.0035189,-0.0055112,0.018472,0.014323,-0.001487,-0.0091503,-0.0050022,0.0059744
-0.0038416,-0.020019,-0.011305,-0.0095934,-0.0031248,-0.0016713,0.0030151,-0.0081283
-0.018802,-0.0030704,-0.0098423,-0.0021254,-0.0044674,-0.0018684,0.0033634,0.0092277
0.013271,0.0062668,0.014944,-0.0022498,0.0024169,0.021673,0.0039164,0.018799
0.021975,0.0001741,0.00045314,-0.0021241,0.0019784,-0.0090586,-0.010908,-0.018695
0.0071832,0.017662,0.0012808,0.006029,0.0020532,0.0075334,0.0057699,-0.0019173
-2.9109e-06,-0.0039042,-0.013902,-0.0013254,0.0026101,-0.014549,0.0070307,-0.0013715
-0.015349,0.036808,0.0095305,0.0069196,-0.0042457,0.002668,-0.0072233,-0.0093681
-0.015517,-0.016757,0.0012329,-0.00064762,-0.0030138,0.012094,0.0019281,0.020939
-0.0083483,-0.047733,-0.007544,-0.016361,-0.001658,-0.0099564,-0.012558,-0.011937
0.0062149,0.013927,0.0066818,0.022182,0.015287,0.0065964,0.019462,0.0015503
0.028309,0.058722,0.012755,-0.010035,-0.014826,-0.00092341,0.0041018,-0.00085516
-0.0043727,-0.053905,-0.012614,-0.0035615,0.00945,-0.0091602,-0.011838,-0.0032452
0.0021355,-0.0033485,0.0010864,-0.005105,-0.0056999,0.0053564,0.0029029,0.0024725
-0.022275,0.0077614,-0.0084104,-0.0066182,0.0022175,-0.0041009,-0.0062528,0.00090829
-0.0071328,-0.027749,-0.017421,-2.5533e-05,-0.0058064,-0.0060414,-4.2733e-05,3.0585e-05
0.0085868,0.0158,0.021149,0.014915,-0.006229,-0.00017159,-0.0094541,0.0077076
0.01707,0.021828,0.0058902,0.014943,0.016713,0.013803,0.0048545,0.00045291
0.010412,0.037631,0.0071633,-0.00768,-0.014958,-0.0029382,-0.003754,0.0015649
-0.01156,-0.038197,-0.0063583,-0.0061113,0.016075,-0.0033707,0.011739,-0.012595
-0.017817,-0.010486,-0.0036261,0.0038904,0.00053192,0.012538,0.012285,-0.0031905
0.0070365,-0.020288,-0.008379,-0.016944,-0.014671,-0.0021681,0.0055719,0.0061266
0.0081222,0.0098679,0.002463,0.0014537,0.0095189,-0.0086,-0.0086359,-0.00043991
0.00094801,0.040136,0.020731,0.0041446,0.0027262,0.0086422,-0.0071927,0.0082529
0.0011208,0.0072143,-0.0085575,0.0065243,-0.011712,-0.013175,-0.0060034,0.00092091
0.0009119,0.035402,0.015977,0.0084039,0.0051394,-0.0039427,0.0025423,-0.0067739
-0.030761,-0.11798,-0.038513,-0.0059766,-0.0015483,-0.0028697,0.0027391,-0.014737
6.3093e-05,-0.015628,-0.0078475,-0.013252,-0.00066663,0.0055877,-0.020984,0.00059794
0.0076502,0.076925,0.0066555,0.010011,-0.00015805,0.013597,0.0096631,0.015929
0.031201,-0.019641,0.0053086,0.0013699,0.015497,0.0055594,0.0011585,0.0079328
0.016065,0.046776,0.01967,2.6664e-06,-0.00064625,-0.01065,0.008414,0.00011499
-0.022216,-0.059154,-0.0047172,-0.017373,-0.017355,-0.01151,0.0081536,-0.0075087
-0.013505,0.0068769,0.0025673,0.011921,-0.003338,0.010889,0.00043471,-0.007161
-0.0049045,0.018742,0.010244,0.0099371,0.010257,0.0019681,0.0086396,0.0010853
0.018995,0.023577,0.010359,0.00027599,-0.0076644,-0.0069111,-0.014253,0.0015125
-0.020085,-0.0097781,-0.028533,0.0065103,0.013402,-1.6084e-05,0.001882,0.0018375
0.018432,0.012378,-0.012867,-0.018133,-0.004466,0.0071221,-0.0056329,-0.0058369
-0.029453,-0.074143,-0.0052572,-0.011086,-0.014209,-0.016677,-0.0056618,0.0018626
0.016116,0.027386,0.0099033,0.004246,0.015569,0.022371,-0.0060426,0.0092747
0.022562,0.066845,0.032697,0.020048,0.0068272,-0.00074245,0.0011006,0.0085842
-0.025485,-0.08866,-0.038286,-0.0027827,-0.016978,-0.015758,0.00026968,-0.0079855
0.012826,0.02175,0.00024883,-0.0018241,-0.001205,0.0006659,0.015051,-0.016921
-0.018604,-0.00043211,0.0078193,-0.0084331,0.014983,0.0015247,0.014321,0.0053286
0.013086,0.00091695,0.023559,0.0085154,0.00020724,0.010107,-0.0096589,-0.003602
0.0062638,0.049026,0.0162,-0.0057928,0.0012052,0.0028231,-0.0021905,0.011113
-0.00017965,-0.012639,-0.029981,0.0032157,-0.013388,-0.0048314,-0.010195,-0.0050998
0.0091355,0.010917,-0.0057592,-0.0036105,-0.004587,0.0026795,-0.0025038,0.010326
-0.012935,-0.021197,-0.012856,-0.0028931,0.0041459,-0.013735,0.0051723,-0.0051053
-0.0041321,-0.015352,0.0032859,0.0053377,0.0050163,0.0006547,-0.0028627,-0.0045789
0.0041329,0.020735,0.026963,-0.0023638,0.0058846,-0.00091968,0.0046012,0.011794
-0.0038191,-0.037594,-0.012152,-0.002556,-0.0088217,0.012949,0.0041223,-0.0030015
-0.012303,-0.017918,-0.012465,0.0047692,-6.9117e-06,-0.012245,-0.012083,-0.010042
-0.005543,-0.044588,-0.0051617,0.0039943,0.0010723,0.0096146,0.010725,-0.0016276
0.024476,0.11737,0.025455,0.0029409,-0.0056395,0.00055371,0.0023021,-0.0012637
-0.00017163,0.015253,0.0091303,0.0016275,0.018819,0.0075586,-0.0060317,0.0066578
0.0066059,-0.014905,-0.0072262,-0.00772,-0.0038069,-0.00055404,-0.0064,-0.0012729
0.0058241,-0.020203,-0.0079804,-0.0094097,0.0044818,-0.0081328,0.0090594,-0.0015601
-0.025957,-0.040221,-0.040017,-0.011158,-0.011092,-0.015185,-0.0064996,0.0058668
0.0049432,0.025906,0.01383,0.010589,-0.0036724,0.0016887,0.0094289,-0.0023621
0.004672,0.021208,0.044165,0.0247,-0.0044429,0.0033539,0.0021395,0.01287
0.012186,0.02321,0.011912,-0.0077826,0.0023714,0.0053216,-0.0049684,-0.010901
-0.019468,-0.062186,-0.028231,-0.0008484,-0.0064631,0.0074302,-0.011948,-0.011155
-0.0043825,-0.016267,-0.0059104,-0.0091488,0.00051473,0.009475,0.0045734,-0.0035107
0.010592,0.020623,-0.022597,-0.009246,0.0078442,-0.0043969,0.0054647,0.0042132
0.009898,0.0021298,0.023403,0.0066432,0.0077849,-0.0031509,-0.0015338,0.011998
-0.0063676,0.014831,-0.0083796,0.0072174,0.015917,-0.0025718,0.0069454,0.012004
-0.014672,-0.010983,-0.00061589,0.00022359,-0.0069749,-0.010537,-0.00040943,-0.011427
0.00067997,0.0032437,-9.6523e-05,0.0012141,-0.014244,-0.0035566,-0.00020456,-0.0036346
0.0084607,0.018606,0.016608,-0.0055071,0.0016806,0.0029116,-0.0080814,-0.0036895
0.0086356,0.0037153,0.010317,0.0034358,-0.0062706,0.0013072,-0.00058439,-0.0037607
0.016743,0.028491,-0.011371,-0.0032523,0.00087035,-0.00027066,-0.0010977,-0.0038018
-0.014207,-0.048225,0.005961,-0.0021593,-0.00030146,0.0062531,-0.001728,0.0040653
-0.0061999,0.0074111,-0.016079,-0.0011044,-0.001816,0.0054394,0.0054316,0.012096
-0.0061787,0.0075212,0.0082454,0.0077298,0.0043908,0.005176,-0.0029659,0.0047185
-0.014143,-0.032389,-0.0070904,0.00091326,0.0029886,-0.002392,0.012214,-0.0024207
0.0090456,0.0050508,-0.015161,-0.013743,-0.0057452,-0.0017795,0.011954,-0.01715
0.0010207,-0.020338,-0.00017017,0.010618,0.0018302,-0.016622,-0.027162,-0.00045981
0.016627,0.024864,0.014696,0.003644,0.010178,0.015375,0.0042404,0.0085015
-0.0064954,-0.0071683,-0.0015501,-0.011289,-0.0041846,-0.0075193,-0.0032235,0.0096267
0.0098618,0.040286,0.013805,0.012623,0.0054471,0.00053616,-0.0026967,-0.0050135
-0.020232,-0.020067,-0.0016261,-0.0028139,-0.0080647,-0.0073445,0.0057943,-0.012093
0.0047109,0.030421,0.0068352,-0.0029583,0.001851,0.0079699,0.0065834,0.0039222
0.014236,0.027298,0.0078228,0.0043714,-0.0041565,-0.00026984,-0.00039036,0.011729
-0.007464,-0.069073,-0.030099,0.0035972,0.012756,0.0071493,0.00041599,0.00351
-0.005889,0.0062997,-0.013388,-0.012991,-0.017839,-0.0086956,0.0010944,-0.0050585
0.003178,-0.012766,0.018716,-0.013999,-0.0021863,-0.00083019,-0.006263,-0.013872
-0.0038017,-0.032916,-0.012036,0.00073392,-0.0026718,0.0073468,0.0017041,-0.0071594
0.012205,0.039401,0.027117,0.023537,0.012141,0.0079948,-0.0062968,-0.00038506
-0.019072,0.0010301,-0.0044361,0.0076194,0.0034004,0.0010248,0.0088002,0.014409
-0.0037846,0.008298,-0.0050721,-0.0079502,-0.013082,-0.029322,-0.0076405,0.013884
0.011318,0.02226,-0.013761,0.00018585,0.0096885,0.0027338,0.0069754,-0.0019285
0.0029209,-0.011658,0.00084981,-0.0071818,0.0092465,0.0032837,-0.0019169,-0.001815
0.0023701,0.000397,0.0076099,0.0010181,0.0089831,0.026876,-0.0029344,-0.0014887
0.017529,0.035115,0.022229,0.0089932,-0.0068265,0.0031005,0.0040462,-0.0088715
-0.014091,-0.047923,-0.0099125,-0.0068077,-0.014856,-0.013395,-0.004317,-0.0084375
-0.0065673,-0.0061956,-0.010637,-0.0073531,-0.007372,-0.006949,0.0032797,-0.00025244
0.0010207,0.004526,-0.0033386,-0.00039367,-2.067e-05,-0.0086902,0.0034045,3.3116e-05
-0.014765,-0.046427,-0.01142,-0.0014107,-0.00056716,-0.0027982,-0.0039845,0.0080502
0.00078621,0.01341,0.012016,0.013227,0.0067107,0.0031585,-0.0033427,0.0081927
0.0086506,0.0048079,-0.0033481,-0.018783,-0.0015101,0.0016176,0.0052267,0.00047288
0.024489,0.060777,0.0049434,0.012093,0.021739,0.016226,0.0059921,0.00050926
-0.029811,-0.014154,-0.002267,0.0043669,-0.0094347,0.00023466,-0.0011369,-0.0073488
0.0097811,0.052925,0.029569,0.0048917,0.0065134,0.00054209,-0.008406,0.0081137
0.0025661,-0.043485,-0.0090845,-0.0020769,-0.016427,0.0014424,-0.0080205,-0.015632
0.0031193,-0.023062,-0.024623,-0.0010993,-0.008049,-0.020662,-0.0077726,-0.00046831
0.0035027,-0.01947,-0.0015091,-0.00019413,0.015909,0.01215,0.023633,0.0067497
0.0036071,0.021405,0.013391,0.0082774,-0.0071481,-0.0018883,0.00031223,-0.0017418
-0.027881,-0.025612,-0.0032427,-0.014845,0.00084884,-0.0082632,0.00043037,0.0053751
0.010603,0.027241,0.0034951,-0.01487,0.00082364,0.0085304,-0.0072449,0.0047387
0.0019446,-0.014715,-0.012991,-0.007326,0.0084307,0.0015576,0.0007152,-0.0035798
-0.014666,-0.080315,-0.028982,0.0079468,-0.01533,-0.013563,0.00084394,-0.01171
0.03124,0.12819,0.033865,0.031117,0.015558,0.017887,0.00091578,0.011636
-0.016438,-0.04474,0.019394,-0.00019139,-0.0082003,-0.013413,-0.0069162,-0.0038366
-0.0013375,0.010615,-0.0021507,-0.015628,-0.0084182,0.0097802,0.00076465,-0.0034476
0.014093,0.028587,0.00026232,0.00037398,0.0071188,0.0093996,0.0083319,0.0049627
-0.009219,0.016563,0.002867,0.008612,-0.0084811,0.0011236,-0.0076336,-0.0020896
0.014601,0.0051183,-0.0025074,0.0089098,0.015034,-0.0071784,0.015402,0.014397
-0.016101,-0.068992,-0.0083489,-0.014517,0.01507,-0.023253,-0.016268,-0.015957
-0.0076721,0.0045427,-0.014827,-0.014883,-0.008473,-0.00015432,-0.0088509,-0.0072833
-0.0070686,-0.048085,-0.02976,1.2531e-05,-0.00098347,0.0074995,0.014251,0.0012919
0.0090939,0.015249,0.017313,0.0068565,-0.024981,0.015377,-0.0016307,0.0097152
0.017351,0.015057,0.0094415,0.0058615,-0.0022847,0.0078533,0.0060032,0.010134
-0.0057433,0.045442,0.024995,-0.0027186,0.012547,-0.0073146,0.0058861,-0.0052889
-0.0055019,-0.002612,0.0016416,-0.0030221,0.0040647,-0.0067968,-0.0098183,0.0025086
-0.0053627,-0.0038494,-0.0058976,0.0051126,-0.0041104,0.001454,-0.0020665,-0.013325
0.018108,0.080883,0.017897,0.0061063,0.0037874,0.0016707,-0.0021108,-0.005864
