0.018727,0.040279,0.017303,-0.0015002,0.0054579,0.0015667,0.033668,-0.052321
-0.037023,-0.033883,-0.017761,0.0053144,0.010955,-0.00019317,-0.046439,-0.0568
-0.0063517,0.0070896,-0.0049825,0.0047362,-0.0061762,-0.017159,0.023027,0.32242
0.056297,0.0073811,0.040594,-0.0030545,-0.0066232,-0.0021681,-0.015412,0.26522
-0.012931,-0.13371,-0.02909,-0.0023323,-0.013718,0.013696,-0.0053102,-0.46263
-0.042011,0.10851,0.012617,0.0068908,0.027157,0.038247,0.029912,-0.189
0.14881,0.03239,0.032657,0.024482,0.037636,0.040068,0.12131,0.44585
-0.25302,0.0066373,-0.04766,-0.035729,-0.052972,-0.098329,-0.24716,-0.76085
0.072614,-0.092495,0.013041,0.0056514,0.0048803,-0.0023105,0.041099,0.23007
0.070654,-0.068974,-0.04399,0.015521,-0.0079984,-0.0081652,0.040027,0.68376
-0.017289,0.069322,0.053774,-0.014162,0.025231,0.071344,0.092567,-0.072971
0.011153,0.18857,0.12592,0.033674,0.01063,0.0095319,0.15888,-0.58137
0.045752,-0.017888,-0.11702,-0.04407,-0.020539,-0.037309,-0.2304,0.30428
0.031012,-0.091916,-0.089063,-0.0050497,-0.029004,-0.045542,-0.15371,0.41724
-0.12738,-0.25557,-0.08662,-0.020889,-0.0065926,0.008585,0.053063,-0.54902
0.16418,0.15965,0.16461,0.02587,0.023685,0.023868,0.18727,0.50678
-0.14077,0.0023916,0.095402,0.041682,0.030965,0.039682,-0.023696,-0.67145
-0.15851,0.22387,-0.074366,-0.028071,-0.0392,-0.045355,-0.031869,-0.25185
0.02635,0.19093,-0.015604,-0.027246,-0.0071059,-0.012515,-0.046966,0.036439
0.11053,0.10833,-0.079227,0.090764,0.064511,0.067643,0.11972,0.65227
0.2046,-0.66859,-0.022827,-0.065033,-0.027924,-0.047511,-0.03075,0.40536
-0.081362,-0.32161,0.12991,0.020619,0.011896,0.024276,-0.12264,-0.4823
-0.067597,0.56236,0.14393,0.042768,0.034986,0.024622,-0.03855,-0.25996
-0.012415,-0.8381,-0.28648,-0.16272,-0.11529,-0.0938,-0.16176,0.35944
0.11455,0.8336,0.0093511,0.060555,0.03753,0.028164,0.272,-0.37864
-0.24238,-0.068995,0.038071,0.0098186,0.0093008,0.039033,-0.036364,0.12095
-0.084013,0.33507,0.22847,0.013667,-0.050991,-0.029532,0.3243,-0.36799
0.41734,0.57157,0.080109,0.10384,0.10743,0.080988,0.15555,0.74083
-0.10547,-0.20332,-0.40684,-0.078603,-0.077092,-0.15193,-0.69367,-0.14479
0.019912,-0.67757,0.026232,0.036971,0.060307,0.10086,0.18145,0.26815
-0.25263,-0.17028,0.013433,-0.041417,0.0045913,0.043427,0.14073,0.26826
-0.17232,-0.35652,0.025015,-0.024592,-0.025187,-0.17506,-0.36019,-0.95324
-0.0043565,0.11603,0.077921,-0.076591,-0.068121,0.11765,0.34712,-0.30265
0.46978,-0.28761,0.17289,0.12282,0.047302,0.015185,0.002598,-0.30027
0.13179,0.66488,-0.19019,-0.035948,0.0079284,-0.029937,-0.48963,0.56607
-0.19207,0.049131,-0.074809,-0.045479,0.0082014,0.16088,0.53916,0.19019
0.23814,0.68853,0.32987,0.16395,0.070587,-0.2263,-0.23664,0.78251
-0.53272,-0.35459,-0.14996,-0.072484,-0.063668,0.0022835,0.096707,-0.26449
0.064662,0.14313,-0.04719,-0.15403,-0.082825,0.11081,-0.057905,-0.30666
0.20262,-0.1436,0.11389,0.27014,0.12204,-0.0033821,0.67641,-0.15065
-0.39795,-0.78221,-0.393,-0.19892,-0.089769,0.042009,-0.10616,-0.41928
0.57125,0.62271,0.25388,0.040223,0.047731,-0.026279,-0.58485,1.1463
-0.39319,-0.99904,-0.27912,-0.0043091,-0.027252,-0.17608,-0.054479,-0.66216
-0.044712,0.56703,0.065228,-0.050505,-0.009072,0.047284,-0.61174,0.11518
0.15912,0.31938,0.33586,0.12149,0.087697,0.18484,0.9157,-0.032457
0.063635,0.054699,0.104,-0.088614,-0.071922,-0.16764,-0.030994,-0.24995
0.058792,0.23328,-0.27937,-0.054591,-0.057534,-0.00061775,-0.07856,-0.30902
0.15724,-0.24913,0.066458,0.11514,0.06086,0.022876,-0.38386,-0.37574
-0.083356,-0.46875,0.20871,0.022634,0.025289,0.059192,0.21636,0.62735
-0.27043,0.31474,-0.027861,-0.035298,0.038243,0.091781,0.75889,0.49461
0.06668,-0.13068,-0.23971,-0.012427,-0.034115,-0.076489,-0.97954,-0.0075847
-0.05351,0.46014,-0.28751,-0.034888,-0.028973,0.0051105,0.79076,-0.025461
-0.056039,-0.00061415,0.39184,-0.018204,-0.010098,-0.0096796,-0.74471,0.13186
0.38625,0.22776,-0.32415,0.082934,0.0449,0.025472,0.12091,-0.29557
-0.17065,-0.2055,0.5373,-0.0063414,-0.05992,-0.13288,0.18685,0.16346
-0.48908,-0.33485,-0.29249,0.0097886,0.042559,-0.0082926,0.095601,-0.59053
0.47472,-0.51035,-0.30117,-0.095717,-0.014308,0.10342,0.17759,0.47044
0.046492,-0.21046,0.15526,0.052374,-0.0028472,-0.11598,-0.46986,-0.074133
-0.073099,0.53469,0.62509,0.17379,0.078492,0.18777,0.54944,-0.14684
-0.16065,-0.23382,-0.50195,-0.30014,-0.15914,-0.09967,-0.66289,-0.66466
0.42012,0.91416,0.013074,0.070136,0.090677,0.024148,0.09864,0.85822
-0.30535,0.077135,0.071233,-0.041344,-0.07691,-0.12666,-0.021193,-0.47299
-0.047459,0.11474,0.0021894,0.086,0.057643,0.11242,0.35771,0.12633
0.2555,-0.74263,-0.020764,0.06266,0.080272,0.099933,-0.087826,0.89913
-0.49995,-0.087812,0.012523,-0.056572,-0.064581,-0.09581,-0.27591,-0.48608
0.16774,0.50881,-0.28442,-0.061758,-0.019194,0.030122,0.2093,0.25938
0.34107,-0.38929,0.58718,0.30294,0.16737,0.060408,0.52353,-0.56448
-0.038549,-0.14575,-0.050933,-0.074416,-0.10881,-0.086123,-0.62499,0.10484
-0.30327,-0.48015,-0.91365,-0.24337,-0.099862,-0.052362,0.17354,0.0081266
-0.011678,0.5007,0.41095,0.036066,0.044304,0.082533,0.015856,-0.29329
0.41873,0.34105,0.18714,-0.049852,-0.028461,-0.13413,-0.27425,0.03702
-0.11623,0.40697,-0.35234,0.030054,0.018201,0.088565,0.26129,0.6428
-0.3056,-0.33368,0.81303,0.17534,0.052815,0.0036265,0.2233,-0.45416
0.076914,-0.10907,0.045596,-0.14315,-0.047604,-0.080636,-0.42559,0.10704
-0.15516,-0.64891,-0.41926,-0.08687,-0.054159,0.011278,-0.14251,0.15105
0.42223,0.18236,0.37878,0.22186,0.14479,0.14954,0.35912,-0.10454
0.054342,0.34623,-0.61648,-0.10533,-0.050483,-0.0077526,-0.28215,-0.010948
-0.37238,0.27856,-0.38345,-0.03581,-0.060748,-0.10868,0.071435,-0.73141
-0.033827,0.35077,-0.080195,0.1417,0.11424,0.056534,0.15731,0.51556
0.12051,-0.67647,0.69769,-0.15956,-0.1121,0.071381,0.11647,0.52532
0.02349,-0.16815,-0.067584,-0.035162,-0.022429,-0.10653,-0.030211,-0.33121
0.27134,0.12814,0.57434,0.2155,0.13915,0.12856,0.29816,-0.12371
-0.056162,-0.44061,-0.30175,0.034953,0.0033255,-0.13289,-0.39721,0.48144
-0.30193,0.53637,0.0038255,-0.087144,-0.033416,-0.010533,-0.06844,-0.44232
0.1356,0.75252,0.03513,-0.11356,-0.066287,-0.013407,0.036624,0.091164
-0.17407,-0.77703,-0.9436,-0.11538,-0.056947,-0.024227,-0.14788,0.28658
-0.27953,-0.3952,0.30251,0.08747,0.02597,0.075513,-0.013026,-0.67401
0.37124,0.42335,-0.14606,0.0042467,0.019286,-0.047911,0.2328,0.049194
0.29802,0.11886,0.93305,0.12931,0.026001,0.084723,0.15714,0.38357
-0.12867,0.038295,-0.33905,-0.011467,0.00092107,-0.086463,-0.38185,-0.43742
0.40666,-0.16671,-0.1544,-0.025174,0.055014,0.12038,0.16195,0.1564
-0.52226,-0.14195,0.098245,-0.081949,-0.083928,-0.12147,-0.30672,0.3994
-0.16079,-0.04215,0.044066,0.16295,0.10042,0.14946,0.54478,0.33028
-0.049162,-0.35957,0.15038,-0.063748,-0.063716,-0.12185,-0.19555,-0.294
0.14975,0.74758,-0.45259,-0.098517,0.024837,0.087057,0.15128,-0.1464
-0.076255,0.17401,0.11491,-0.020588,-0.064374,-0.15492,-0.12105,-0.50122
-0.12052,-0.20241,-0.087415,0.13737,0.042727,0.049127,-0.0019384,-0.0070712
0.45254,0.066422,0.43067,-0.0089531,0.024929,0.1353,-0.020708,0.37589
0.20334,0.42203,-0.12048,-0.070271,-0.04818,-0.069356,-0.019019,0.02441
-0.27747,-0.96487,-0.13048,-0.00071999,-0.05206,-0.16708,-0.12651,0.34729
-0.42431,-0.0998,-0.25297,0.097573,0.1381,0.13093,-0.033602,-0.058656
0.060801,0.10115,0.266,-0.11922,-0.1339,-0.042388,0.071211,-0.26035
0.091028,-0.29903,-0.13132,-0.11167,-0.0085109,0.078965,0.079397,0.019126
0.34332,0.55256,0.13799,0.14435,0.11607,0.15959,0.094765,-0.57629
0.29796,0.015297,0.36708,0.13406,0.044745,-0.19831,-0.1374,0.21402
-0.4717,0.16422,-0.78527,-0.079198,-0.058241,-0.11903,-0.043411,0.50127
0.0062927,0.32012,0.44693,0.059998,0.057287,0.156,0.21579,0.082756
-0.20917,0.26831,-0.16505,-0.25252,-0.17876,-0.02868,-0.1307,0.1682
0.12988,-0.56846,-0.094694,0.07726,0.038605,0.03865,0.11417,-0.5968
-0.21117,-0.36259,0.21351,0.080596,0.022263,-0.031943,-0.095604,-0.29445
0.33154,0.050054,0.46992,-0.0084159,-0.024294,-0.075899,-0.17406,0.58613
0.080677,-0.14071,0.025251,0.083127,0.10231,0.07885,0.088996,0.38395
-0.42981,-0.023174,-0.51077,-0.11425,-0.05104,-0.091333,-0.10478,-0.75658
0.32579,0.18471,-0.32276,0.070513,0.062262,0.22541,0.25818,0.2633
-0.08083,0.18152,0.087954,-0.058627,-0.073949,-0.16732,-0.035599,-0.096669
0.26465,-0.20778,0.23958,0.060316,0.086503,-0.0052943,0.0033389,-0.18754
0.23658,0.52945,-0.18205,0.020922,0.01168,0.18647,0.083393,0.44588
-0.38498,0.24897,0.1989,-0.15315,-0.13487,-0.33573,-0.055142,-0.32591
-0.3355,-0.55398,-0.14696,-0.047297,-0.056491,0.22374,-0.077127,0.41517
0.056275,-0.17447,-0.030806,0.11268,0.06725,-0.010886,-0.06792,0.04059
-0.13924,-0.17446,0.84364,0.038489,-0.044516,-0.086631,-0.18179,-0.50811
0.30514,-0.14052,-0.84737,0.066643,0.16342,0.20797,0.092172,0.11615
0.1636,0.26903,0.44423,0.088059,0.066561,-0.024386,0.20288,-0.23286
0.014678,0.11308,-0.55689,-0.20198,-0.14722,-0.42269,-0.025952,0.22675
0.11591,0.33945,0.019893,-0.069402,-0.04022,0.069559,-0.02153,0.10316
-0.43212,-0.035142,0.38725,0.063483,0.012586,0.3369,-0.040621,0.096411
0.017556,-0.018049,0.022737,0.047759,0.042357,-0.080366,0.13494,0.23307
0.40877,-0.077012,0.036895,-0.031061,-0.029196,0.1699,0.042172,-0.14083
-0.10318,-0.14656,-0.02895,0.10015,0.0086749,-0.27969,-0.21258,-0.23373
0.013058,-0.025195,-0.67073,-0.082202,-0.00045625,0.070054,0.25802,0.11445
-0.49114,-0.40589,0.45385,-0.031225,0.029219,0.022672,-0.29105,-0.33234
0.1525,0.4911,0.43946,0.1283,0.066406,0.12397,0.091611,0.13018
0.017854,-0.37948,-0.46862,-0.18917,-0.099751,-0.11107,-0.0082784,0.076265
0.34302,0.40749,0.43742,0.1185,0.015344,-0.057412,-0.08161,0.24638
-0.17359,-0.27784,-1.0244,-0.01836,-0.04889,-0.18303,0.030363,-0.39142
-0.23342,0.088682,0.40898,-0.036637,-0.042025,0.1384,-0.15363,-0.22098
0.33513,0.097791,0.28105,0.017271,0.098839,-0.029097,0.24436,0.39563
-0.0093681,-0.15659,0.33649,0.034207,0.038016,0.25323,0.17177,0.31236
0.11957,0.58678,0.091303,-0.040626,-0.03699,-0.045346,-0.1753,-0.0029337
-0.15047,0.13248,-0.51082,0.011069,-0.0014703,-0.17532,0.03061,-0.22619
-0.067075,-0.083981,0.073898,0.10262,0.026834,0.15861,0.021905,-0.10613
-0.01758,-0.7675,0.123,-0.024692,0.0081398,-0.13981,-0.02446,0.07602
-0.1689,-0.23805,-0.36705,-0.16862,-0.12861,-0.003306,0.029285,0.070364
0.19701,-0.062196,0.030697,0.13105,0.12376,0.1744,-0.12387,-0.21536
-0.066797,0.54102,0.14266,-0.071373,-0.071064,-0.054603,0.030376,0.027325
-0.058577,0.1293,-0.10223,0.075675,0.052437,-0.0044549,-0.047139,-0.10907
0.28074,0.012579,0.27248,-0.0055572,0.0022827,-0.17546,-0.17575,0.17381
-0.29423,0.25951,0.41541,-0.056606,-0.057016,0.058549,0.13056,-0.089077
-0.23267,-0.41302,-0.83729,-0.10794,-0.046742,-0.073356,0.12357,0.31055
0.35089,0.046712,0.40517,0.10677,0.080594,0.11203,0.054608,-0.31691
0.41061,-0.045428,0.064842,0.14274,0.059892,0.14995,0.080471,0.37778
-0.10872,-0.13304,-0.55325,-0.046732,-0.0069215,-0.15104,0.028999,-0.37428
-0.044553,0.33873,0.72344,-0.039898,-0.025921,0.063808,0.10245,0.20359
-0.32835,0.03288,-0.15875,0.02225,-0.004897,-0.023774,-0.45019,-0.19163
-0.21138,-0.31822,-0.46409,-0.087313,-0.061112,-0.21001,0.0032679,-0.13015
0.07168,0.08758,0.043334,-0.064309,-0.046242,0.19176,-0.029358,0.21475
-0.0096679,-0.27587,0.19309,0.028503,0.031772,0.054311,0.12456,0.19205
0.39754,0.65911,0.37694,0.14418,0.11811,0.022829,0.099095,-0.029766
-0.29127,-0.21917,-0.0061037,-0.029689,-0.013961,0.062255,0.075309,-0.11056
0.018269,-0.24074,-0.39348,-0.047568,-0.052115,-0.14363,-0.14102,0.024559
0.3099,-0.039817,-0.14498,0.090829,0.058154,-0.08221,0.21623,-0.22043
0.097183,0.35135,0.2856,-0.090741,-0.058278,0.15105,-0.25161,0.075443
-0.16994,-0.12256,-0.165,-0.13102,-0.081124,-0.084635,-0.021944,0.20188
-0.081125,-0.18084,0.096328,0.1812,0.099085,-0.14716,0.15397,-0.26882
-0.35857,-0.23815,0.030075,-0.091398,-0.056516,0.19281,-0.037672,0.025673
0.1437,-0.014112,0.2611,0.10592,0.069496,-0.029905,0.26933,0.16678
0.096524,0.48238,-0.39788,-0.039476,-0.046115,-0.2101,-0.50352,-0.092453
0.19585,0.42994,0.56162,0.019019,0.042061,0.2802,0.22228,0.1877
0.076593,0.031299,-0.98435,-0.039274,-0.0019563,0.044305,-0.13803,0.078594
-0.27359,-0.52494,0.19209,-0.058474,-0.061163,-0.15981,0.073411,-0.24034
-0.014863,-0.17284,0.54536,0.14863,0.10635,0.22107,0.084884,-0.30185
0.044236,-0.031187,-0.056404,-0.14468,-0.077858,-0.10489,-0.063308,0.39938
-0.069476,0.072761,0.31675,0.077243,0.010949,-0.039721,-0.12866,0.055477
-0.025655,-0.61671,-0.84355,-0.068291,-0.041469,-0.18088,0.24729,-0.08704
0.090392,0.12831,0.43792,-0.0029724,0.0070191,0.046551,0.031153,-0.22692
0.28533,0.50141,-0.42679,0.062402,0.047088,0.10912,0.079244,0.37499
-0.084207,0.40973,0.72404,0.057531,0.024165,0.20125,-0.033732,-0.33828
-0.13147,-0.074079,-0.3229,-0.11149,-0.069428,-0.18434,-0.28736,0.12413
0.17839,0.2102,0.32099,0.12534,0.047668,-0.16302,0.027407,0.058881
-0.36932,-0.40991,-0.41593,-0.076111,0.00051766,0.10389,0.12904,0.084152
0.0041399,0.39144,0.020631,-0.036524,-0.031175,-0.12249,-0.13718,-0.11046
0.0088072,-0.12061,-0.38443,0.040756,0.038515,0.1845,0.036575,0.0093631
0.16896,-0.37896,0.44042,-0.070842,-0.040432,0.058808,0.029483,-0.029233
-0.036565,-0.44972,-0.081496,0.058602,0.0054236,-0.036914,-0.05243,-0.24574
0.075143,-0.42197,0.1525,0.0076549,0.019865,-0.00053341,0.036974,0.097895
0.12479,0.63815,0.13499,0.034705,0.0029656,0.0033372,0.22233,0.14514
-0.28283,0.39598,-0.20486,-0.054949,-0.029552,-0.011111,0.020428,0.3273
-0.035933,0.11993,-0.071402,-0.049826,-0.022894,-0.014587,-0.15517,-0.26166
0.2105,-0.54859,0.29955,0.11297,0.069909,-0.095133,-0.048567,0.14277
-0.12175,0.28472,-0.038315,-0.03511,-0.001078,-0.0046881,-0.053271,-0.43028
-0.15905,0.10895,-0.40519,-0.056607,-0.040509,0.028596,0.038386,0.27442
0.47892,0.67178,0.29432,0.11074,0.061001,-0.0042751,0.16075,-0.019093
-0.054675,-0.15235,-0.20219,-0.010019,-0.048114,0.11463,-0.39194,-0.055128
-0.0833,-0.59448,0.305,-0.13034,-0.063172,-0.052711,0.25341,-0.10076
-0.17203,-0.5119,-1.0309,0.014876,0.01581,0.048098,0.064466,0.14013
-0.23645,-0.20593,0.79398,0.042257,0.071592,-0.067336,0.2753,-0.15299
0.13728,0.70495,0.21151,0.052849,0.033746,0.077879,-0.52781,0.39507
-0.12013,-0.057588,0.057055,-0.13351,-0.1448,-0.15608,0.070002,-0.14507
0.48536,0.44334,0.24125,0.21716,0.16071,0.13063,0.1089,-0.21836
-0.25494,-0.57811,-0.67134,-0.082868,-0.065637,0.018154,-0.23026,-0.051035
0.12993,0.60289,0.60141,0.04456,0.043158,-0.0065394,0.64733,0.26345
0.12621,-0.50577,-0.18933,-0.13456,-0.091088,-0.081142,-0.28091,0.061383
-0.10058,-0.20023,-0.43128,0.028978,0.055211,-0.10119,-0.2643,-0.063066
-0.49458,0.097783,-0.20466,-0.080903,-0.087896,-0.072099,0.072733,-0.20309
0.53112,0.31653,0.35874,0.060536,0.050423,0.046514,0.18397,0.063827
-0.069458,-0.0088889,-0.2294,0.032669,0.033237,0.27011,-0.093848,-0.019549
-0.27223,-0.40896,0.61473,0.055173,-0.0061576,0.09678,0.052779,-0.031059
-0.022278,0.64513,-0.16515,0.003425,0.018444,-0.023852,-0.12509,-0.041307
-0.093615,-0.64868,-0.37606,-0.068179,-0.04143,-0.11206,-0.36093,-0.13731
0.41838,0.39786,0.27476,0.065974,0.04824,-0.26661,0.48632,0.5306
0.065585,0.38651,0.093331,-0.040877,-0.041304,0.17986,-0.021108,0.25687
0.17239,-0.24409,0.1254,0.023624,0.032881,0.067901,0.13122,0.015645
-0.1325,-0.17017,-0.48377,-0.039059,-0.026918,-0.017907,-0.11336,-0.75727
-0.5324,-0.24434,0.41758,-0.003697,0.012962,-0.084649,0.28955,-0.32
0.14228,-0.44854,-0.34733,-0.058577,-0.035438,-0.059383,-0.65469,0.32105
0.27409,0.22262,0.12345,0.085253,0.038719,-0.04745,0.036397,-0.1593
-0.025561,0.29173,0.2644,0.053369,0.016973,0.065214,0.54939,0.94596
-0.20572,0.24212,-0.44128,-0.035865,-0.037523,0.21278,-0.34197,-0.63261
0.020339,0.43027,0.35093,-0.063662,-0.0066516,-0.069991,0.059041,0.28012
-0.30256,-0.64202,-0.23145,-0.012619,-0.053418,-0.093639,-0.12031,-0.42324
0.29143,0.031335,-0.24719,-0.091995,0.026319,0.063909,-0.096161,0.19529
0.4927,0.29701,0.31565,0.14482,0.077111,0.049651,0.23547,0.34574
-0.34701,-0.26608,-0.1954,0.089141,0.03692,0.017199,0.095055,-0.27065
0.10544,0.053114,0.91763,0.061253,0.015179,0.0024244,-0.024538,-0.046902
-0.21774,-0.4007,-0.93782,-0.24426,-0.15249,-0.12272,0.11847,-0.21194
0.21563,0.52403,0.34728,0.10101,0.056746,-0.024577,-0.34441,0.083837
-0.10941,0.083557,0.037033,-0.037307,-0.029755,-0.18869,0.17096,-0.14537
0.066714,-0.071737,-0.18321,-0.0045391,0.04032,0.28342,-0.071616,0.63082
-0.11913,-0.74904,-0.18286,0.057352,0.0083971,-0.060347,-0.018843,-0.54902
-0.066081,0.41113,0.16131,-0.00097663,0.014463,-0.0074622,-0.069838,0.48674
-0.13876,-0.12095,-0.19083,-0.086147,-0.051331,0.014013,0.1896,-0.551
0.090133,0.67967,0.67449,0.036396,0.013863,0.013107,0.1588,0.23639
0.12011,0.063011,-0.16427,0.054821,0.045914,0.0059505,-0.39519,0.41196
-0.048625,-0.75478,-0.68292,-0.053284,-0.033156,0.078206,0.076103,-0.31229
0.24748,0.30624,0.29126,0.096104,0.058255,0.025846,0.11315,-0.30981
-0.11889,-0.36511,-0.20203,-0.21455,-0.14808,-0.097631,-0.11914,0.015107
-0.21522,0.41352,0.64206,0.16422,0.11411,0.034837,0.12135,-0.14021
0.2006,-0.021977,-0.28621,0.022178,-0.0060705,-0.022623,0.028837,0.42891
0.19599,0.45176,0.73104,0.015869,-0.039257,-0.15267,0.054345,0.17616
-0.093531,-0.37806,-0.72909,-0.08926,0.014968,-0.12009,-0.10179,-0.00866
-0.37756,-0.37923,-0.79238,-0.051627,-0.054198,0.076396,-0.067588,-0.60435
0.0010425,0.48158,0.7284,0.0575,0.065535,0.31308,0.28715,0.41692
0.25461,-0.032191,-0.049256,-0.028688,-0.009205,0.036172,-0.17204,-0.019126
0.14358,-0.64535,0.10193,0.19637,0.11138,-0.17601,-0.21884,0.083835
-0.069812,-0.0401,0.33893,-0.09658,-0.058009,0.035368,0.10121,0.2467
-0.18375,0.55693,-0.3066,-0.025535,-0.033837,-0.065197,-0.029349,-0.25772
-0.064544,-0.040807,-0.32705,-0.10644,-0.066617,0.075676,0.065214,-0.33403
0.071911,0.40145,0.29238,0.075028,0.054551,0.081915,0.1079,-0.16585
0.026963,-0.32092,-0.31685,-0.081867,-0.068289,-0.15631,-0.23334,-0.044659
0.24364,-0.2278,0.84372,0.080371,0.026727,-0.068302,0.20057,0.19939
-0.1862,0.064214,-0.55537,-0.038385,0.012653,-0.10602,0.074997,0.53205
0.10251,0.091983,0.25873,0.078847,0.015663,0.1385,-0.047984,0.034139
-0.29947,0.023103,-0.63526,0.026869,0.044491,-0.043897,-0.13134,-0.13038
0.072213,0.21146,0.63973,0.0015893,0.021496,0.20755,0.071698,-0.16748
0.062872,-0.14552,-0.22531,-0.028137,0.0091465,0.08873,0.088562,0.035087
0.10943,-0.22475,-0.35877,-0.086077,-0.078995,-0.15078,-0.045425,-0.0051101
-0.18935,-0.076839,0.32203,0.014618,-0.01721,-0.035732,-0.10672,-0.35615
0.15396,-0.18833,-0.39805,-0.015956,-0.0096283,-0.044571,-0.034646,0.087152
0.22697,0.57283,0.48259,0.071278,0.059948,0.086303,0.014137,0.40079
-0.11764,-0.31655,-0.19348,-0.0058408,-0.035873,-0.0041959,0.087474,-0.04002
0.059309,0.58951,0.63206,0.056546,0.085144,-0.012445,0.1171,-0.27984
-0.2077,-0.45062,-0.14124,-0.078184,-0.10072,-0.3059,-0.21464,0.12267
-0.17869,-0.74152,-0.27146,-0.027694,-0.0075212,0.24871,-0.20196,-0.33574
-0.048504,1.0992,-0.039854,0.02029,0.01342,-0.050787,0.26671,0.067946
0.16239,-0.35117,-0.19452,0.011132,0.0093857,0.19517,0.23166,0.53219
-0.15851,0.17225,-0.20692,0.038904,0.082428,-0.012449,-0.1585,-0.2463
0.21297,-0.057245,0.064773,-0.013028,-0.024767,-0.079288,0.12663,0.31794
0.12559,-0.038551,0.62545,-0.026752,-0.061731,-0.012958,-0.17229,-0.17558
0.14564,-0.19844,-0.50931,-0.024897,0.018826,-0.016704,-0.0022433,-0.12813
0.04088,0.31174,0.18531,0.040199,-0.0014838,0.088885,-0.059901,-0.058013
-0.11783,-0.27491,0.06209,-0.018305,-0.012988,-0.34489,-0.056912,-0.091875
-0.54987,-0.79479,-0.47329,-0.028122,0.0079656,0.29903,-0.032315,-0.057943
0.2826,0.68861,0.38024,0.018647,-0.016652,0.044151,0.061351,0.053085
0.30022,0.10195,0.068386,0.067032,0.014666,-0.015572,0.0452,0.079789
-0.20892,0.11079,0.040747,-0.063272,0.015758,-0.21578,0.16985,-0.24045
-0.28451,0.54079,0.21245,0.056575,0.048746,0.15476,-0.11924,0.42296
0.26048,0.14366,0.082643,-0.0040222,-0.03528,-0.013126,0.044703,0.039936
0.042541,-0.64391,-0.23256,0.011981,0.021017,0.015009,0.25457,0.14894
-0.20516,-0.41718,-0.28736,-0.044288,-0.06399,0.090662,-0.46718,-0.35391
0.47632,0.21415,-0.18769,-0.0087554,0.02201,-0.067575,0.11311,-0.089477
-0.14229,-0.12251,-0.24684,-0.17782,-0.088145,-0.14737,-0.08284,-0.015221
-0.19687,0.039638,0.42064,0.10558,0.058891,0.13245,-0.046697,-0.0025784
0.28621,0.17858,0.085539,0.13149,0.072827,0.10006,0.26955,0.21845
-0.22631,0.024821,0.36358,-0.028911,-0.038175,-0.19743,-0.031021,0.020832
-0.031914,0.067898,0.13592,0.1328,0.062104,0.044977,-0.087482,-0.048821
-0.33256,-0.32784,-0.38156,-0.1566,-0.071482,-0.086491,-0.046974,-0.035652
0.40587,0.70836,-0.42799,-0.022267,0.037681,0.095798,0.11474,0.048363
-0.16406,-0.83769,0.27111,0.0041218,-0.040127,0.060433,-0.024016,-0.049381
0.18109,0.36903,0.3477,-0.062417,-0.031549,0.095973,0.1301,-0.10405
-0.08554,0.48198,-0.31772,0.043065,-0.01482,-0.079609,-0.25974,-0.41436
-0.10119,-0.41667,-0.095625,-0.00042257,0.0099254,0.048434,-0.022871,0.27445
0.24541,0.31803,0.16658,0.072111,0.0972,-0.23157,0.10501,0.12889
0.14202,-0.18304,0.27796,0.017947,-0.0032048,0.12689,0.060163,0.57025
-0.18595,-0.76309,-0.3579,0.047677,-0.0024402,-0.024483,0.060318,-0.022475
-0.01403,0.19059,0.21063,-0.065317,0.0055943,-0.028777,0.018909,-0.49168
-0.1337,0.37119,-0.18057,-0.1254,-0.11974,0.044721,-0.15797,0.053075
0.015273,0.0043778,-0.47554,0.11819,0.098316,-0.0059478,-0.04809,0.025688
-0.24858,-0.090683,0.85929,-0.15378,-0.13675,0.015564,-0.080344,-0.30689
0.065619,0.043966,-0.60294,0.03654,0.034912,0.063057,0.19165,0.26245
0.31624,0.30082,0.22634,0.14344,0.1294,-0.066408,-0.012279,0.022238
