0.019993,0.073604,0.1313,-0.019246,0.0034666,0.017834,0.0638,0.39339
-0.015235,-0.074686,0.076114,0.0055006,0.012339,-0.0051856,0.037119,-0.086904
0.030584,-0.20438,-0.085954,-0.0081056,-0.0096686,0.019198,-0.010565,-0.049584
-0.092563,-0.37637,-0.097895,0.0020398,0.015316,0.020523,0.075662,-0.2965
0.17726,0.27822,0.17188,0.035463,0.0088619,-0.017089,-0.065373,-0.090665
-0.043737,0.63579,0.073557,0.013575,0.0097315,0.038869,0.25195,0.22623
-0.10044,-0.42016,-0.28474,-0.05617,-0.052607,-0.061877,-0.3801,0.069365
0.0061118,-0.046116,0.1821,-0.0098839,-0.0063622,0.00082193,0.029923,-0.022442
0.20493,0.4285,-0.33081,0.035306,0.031354,0.023841,0.0214,0.097451
-0.3401,-0.81104,0.15343,-0.0375,-0.0017361,-0.023897,-0.060602,0.050717
0.0589,0.10734,0.034001,0.0065338,0.0040661,-0.0092801,0.075065,-0.22182
0.14489,0.29747,0.11642,-0.011741,-0.021204,-0.0022823,0.14176,0.21233
-0.14366,0.20113,0.25291,0.040986,-0.0069354,-0.0026373,-0.061378,-0.010942
0.15508,0.010272,-0.33746,0.047886,0.054862,0.044437,-0.10303,-0.23119
0.1901,0.042322,0.032759,-0.01433,0.00014814,0.013807,0.22062,-0.036232
-0.28853,-0.63441,-0.12111,-0.083244,-0.038409,0.076994,-0.22362,0.089807
-0.14069,0.1433,0.14584,-0.018519,-0.014211,-0.12587,0.10973,0.13369
0.23426,0.26657,-0.057295,0.077848,0.009887,-0.0093464,-0.08622,-0.21291
-0.086838,-0.028378,0.035015,-0.029021,-0.0055344,-0.050383,-0.15005,0.1882
0.20717,0.1755,0.079237,0.058829,0.064243,0.094633,0.43122,0.38965
-0.18181,0.10867,-0.13505,-0.0027228,0.00033747,0.050869,0.085036,-0.83764
0.089178,-0.18533,0.22107,-0.041976,-0.048742,-0.048392,-0.5181,-0.036551
-0.10503,-0.7253,-0.35925,-0.058856,-0.043633,-0.03836,0.21532,0.52151
-0.15448,0.36812,0.12497,0.025088,0.016161,-0.011902,-0.22151,-0.34351
0.31717,0.56717,0.1121,-0.00055842,-0.0015534,0.00062563,0.11103,0.56881
-0.24287,-0.29008,-0.17077,0.013256,0.01321,-0.023467,0.020482,0.4883
0.15197,-0.054774,0.24522,0.043661,0.037483,0.09595,0.29116,-0.50452
-0.1055,0.41231,0.0081213,0.012933,0.024603,-0.016096,-0.23041,-0.89127
0.34581,-0.58711,0.046847,-0.0084667,-0.033356,-0.024089,0.051544,0.71509
-0.29775,0.48979,-0.23336,-0.036284,0.011613,0.11803,0.075559,-0.53065
-0.34081,-0.50999,-0.21636,-0.024014,-0.059922,-0.10643,-0.14278,0.26276
0.32498,-0.12217,0.11253,0.0043525,0.016837,-0.11268,-0.07324,-0.14478
0.010037,0.2509,0.33851,0.024722,0.030108,0.09041,-0.053625,-0.25084
0.25824,0.40312,-0.085885,0.012981,0.010398,-0.0057856,0.1402,0.93069
-0.035438,-0.058017,0.096771,0.0075788,-0.019391,-0.026787,0.16959,0.27512
-0.14002,-0.40647,-0.30124,-0.031018,-0.004827,0.027203,0.055314,-0.20301
-0.105,0.046195,-0.10027,-0.0093137,-0.016162,0.085974,-0.27513,-0.27898
0.0058301,0.154,0.19988,0.041468,0.017298,0.056163,0.29404,-0.18086
-0.088288,0.31147,0.16995,-0.034581,-0.013161,-0.17095,-0.58906,-0.50251
0.091451,-0.28103,0.021468,0.083512,0.057392,-0.0085077,0.20919,0.12514
-0.12314,-0.71164,-0.27607,-0.087688,-0.035691,0.028962,0.40147,0.18241
0.27241,0.41571,0.067194,0.0076319,-0.010187,-0.018269,-0.44739,-0.14622
-0.14711,0.41003,-0.15109,-0.02,0.0097458,0.10876,0.25872,0.50317
0.036003,-0.156,0.15561,-0.044597,-0.061238,-0.096873,-0.16578,-0.07728
-0.097933,0.28768,0.096945,-0.0030567,0.0036523,-0.033127,0.038008,0.24596
0.23269,-0.48067,-0.014735,0.10465,0.055767,0.057726,0.16708,0.22116
-0.028301,0.23659,0.062226,-0.0033549,0.016311,0.02657,0.39256,-0.60068
0.045712,0.10422,-0.26671,0.062293,0.040475,0.051894,-0.48998,0.15865
-0.20559,-0.22923,0.0758,0.057734,0.0097798,-0.0084633,-0.16159,-0.62241
-0.067869,-0.18487,0.50337,-0.050056,-0.038007,-0.070158,0.048579,0.22478
0.03296,0.31801,-0.10886,-0.19227,-0.041429,0.037343,-0.17243,0.18296
-0.0078016,-0.19186,-0.92408,-0.12766,-0.087006,-0.085216,0.066147,0.18953
0.30019,0.67685,0.29363,0.16702,0.075253,0.077661,0.53828,0.19864
-0.14501,-0.439,0.40547,0.082924,-0.022856,-0.1297,-0.27102,-0.17097
0.0092477,-0.18097,-0.063554,0.12894,0.064944,0.051646,0.013759,-0.24591
-0.25032,-0.57945,0.012338,-0.12322,-0.0039331,0.084077,0.33047,0.14675
-0.022013,-0.20358,-0.10951,-0.093947,-0.048671,-0.085682,-0.75816,-0.43021
0.30725,0.71188,0.26442,0.038391,0.072242,0.14503,0.59966,0.48354
-0.087078,0.58525,-0.11094,0.0013819,-0.039117,-0.043519,-0.76762,-0.097739
0.17295,0.40086,0.17508,0.076884,0.023601,-0.034137,0.3747,0.4726
-0.19985,-0.47848,-0.083773,-0.031837,0.010123,0.0086052,0.40186,-0.24459
-0.22053,-0.66997,-0.66315,-0.059484,-0.048842,-0.017703,-0.084623,-0.17199
-0.069569,-0.11282,-0.12634,0.0088348,-0.021162,-0.0046523,0.071144,0.066063
0.59482,0.44166,0.9962,0.031462,-0.0012705,-0.023438,-0.10802,-0.58261
0.090209,0.2757,-0.074612,0.022846,0.033681,-0.035646,-0.39626,0.51119
-0.37547,-0.059119,-0.12473,0.044336,0.036389,0.05213,0.02615,-0.34267
0.062377,-0.55379,-0.15065,0.016869,0.045681,0.0914,0.30725,0.21247
-0.21503,-0.32804,-0.75062,-0.20076,-0.14162,-0.11297,-0.14693,0.055337
-0.14546,0.79824,0.89038,0.078841,-0.0097605,-0.021604,0.28062,0.35912
0.18622,-0.24362,-0.36704,-0.058064,0.027416,0.029911,-0.17594,-0.3076
0.078933,-0.18709,0.23452,0.13924,0.11864,0.080954,-0.0091407,0.074019
0.14448,0.27853,0.27113,0.07791,0.037633,0.084889,0.077504,0.16129
-0.036867,0.1631,-0.11994,-0.17077,-0.16067,-0.23938,-0.10386,0.017015
-0.19032,-0.4655,0.14336,-0.035682,-0.022948,0.037939,-0.045623,-0.13116
0.21561,0.89417,-0.41901,0.10875,0.052487,0.010648,-0.036781,-0.23304
-0.17154,0.30353,0.12046,0.028394,0.034466,0.069427,0.024535,-0.33682
0.24805,-0.96554,-0.85575,-0.11277,0.0011482,0.034649,0.099782,0.012772
-0.16837,-0.59265,0.86481,0.13804,0.038468,-0.0076703,0.072427,0.65677
0.084983,0.1444,-0.050885,-0.13374,-0.10359,-0.073027,0.021329,-0.34316
-0.10268,0.62822,0.30684,0.21197,0.11404,0.041903,0.080095,0.51261
-0.38033,-0.44989,-0.44961,-0.23148,-0.11328,-0.068856,-0.53948,-0.51154
0.39305,0.73709,0.1973,0.0044171,0.027012,0.079392,0.38225,0.40932
-0.078316,-0.9591,0.13074,0.021216,-0.011844,-0.098994,-0.10697,-0.53535
0.14452,0.50811,-0.38483,-0.0090515,-0.011022,0.013347,-0.022133,0.23952
-0.10113,0.30832,0.29671,0.10134,0.08417,0.088236,0.08237,-0.41026
0.39663,0.38948,0.11007,0.0088546,0.023641,0.047206,0.2063,0.35342
-0.58835,-0.73331,-0.42381,-0.012978,-0.059976,-0.055683,-0.19018,0.75027
0.26407,-0.14154,0.41239,0.0046046,0.012788,0.013109,0.008899,-0.34376
0.00019345,-0.082792,0.27512,0.12405,0.077681,0.0183,0.075558,-0.32486
-0.29488,0.13964,-1.0757,-0.44375,-0.25603,-0.18936,-0.27283,-0.071144
0.25292,0.58965,0.40258,0.17616,0.089752,0.069206,0.15015,-0.3091
-0.10726,-0.74608,0.45693,0.15565,0.099451,0.098403,0.10165,0.066169
0.30361,0.13644,-0.60343,-0.028837,-0.008169,0.031074,-0.074741,0.20894
-0.046026,0.89201,0.42009,0.0052835,-0.014435,-0.085558,-0.10537,-0.10033
-0.030955,-0.5094,-0.43254,0.0076152,0.025765,0.030384,0.1118,0.23079
-0.23626,-0.25904,0.49283,-0.022338,0.018382,0.059451,0.053929,-0.10571
0.011448,-0.67856,0.31603,0.0086949,-0.013451,-0.036381,-0.012858,0.40717
-0.16865,0.31818,-0.11104,-0.0011663,-0.06212,-0.11535,-0.11164,-0.20909
0.29585,0.49727,-0.046894,-0.10664,-0.010423,0.034602,0.054626,0.17351
-0.03081,-0.017087,-0.2962,0.036342,-0.0065251,-0.015294,0.017188,-0.17809
-0.10094,0.013971,-0.3332,0.029967,0.020391,0.055857,0.057237,-0.043944
0.19447,-0.056843,-0.16768,0.054758,0.039721,0.076262,-0.11428,-0.46849
0.30687,0.45577,0.55387,-0.021229,0.020855,0.06108,0.3622,0.24054
-0.35236,0.1485,-0.0068013,-0.048821,-0.059144,-0.15473,-0.50505,-0.42506
-0.17707,-0.68033,0.025551,-0.019749,-0.035977,-0.033437,-0.066834,0.65397
0.024896,-0.38882,-0.23047,0.073888,0.090282,0.056291,0.27149,0.30173
-0.10836,-0.44362,0.67159,-0.01038,-0.016683,0.019323,0.042059,-0.39906
0.22638,0.48682,-0.91708,0.054989,0.03316,0.0030238,0.011121,0.15001
0.067934,0.79007,0.7272,-0.019803,-0.010859,-0.0088483,-0.047685,0.046763
0.12044,0.32343,-0.45615,-0.016719,-0.016514,0.007058,0.029405,-0.34618
-0.059269,-0.68795,-0.023096,-0.076902,-0.038854,-0.042583,-0.0083394,-0.10466
-0.31193,-0.11205,0.022166,-0.099012,-0.10137,-0.047567,-0.0056791,0.56944
0.13163,0.28548,0.34497,0.11235,0.069605,0.047843,-0.088702,-0.51895
-0.25632,-0.52557,-0.039167,0.049694,0.037005,0.0025181,-0.0083961,0.15278
0.24594,0.33203,0.20533,0.072799,0.082558,0.067315,0.0079066,-0.089139
0.069909,-0.43524,-0.28808,-0.083595,-0.043356,-0.022878,-0.0090609,0.07276
0.16892,0.61429,-0.17289,0.041671,0.026646,0.075811,0.22948,0.58805
-0.021017,-0.17129,-0.24823,-0.098248,-0.066832,-0.08995,-0.010954,-0.4533
-0.15918,0.21984,-0.09933,-0.0034953,-0.027102,-0.051813,-0.33189,-0.039143
-0.054229,-0.17798,0.32389,-0.010282,-0.018508,-0.0055182,0.055873,-0.22661
0.031793,-0.46439,0.30751,0.13887,0.1071,0.08769,0.12913,0.11613
0.11084,0.23624,0.075675,0.037379,-0.0020554,-0.053532,0.15382,0.26332
-0.2102,0.47029,-0.14782,-0.12746,-0.064818,0.024075,-0.11964,-0.29044
0.1069,0.21298,-0.0073272,-0.011935,0.0048022,-0.030738,-0.026644,0.20068
-0.0072851,-0.49833,-0.070233,-0.0064724,0.011686,0.00117,-0.011804,-0.28264
-0.1909,-0.44653,-0.26445,-0.095039,-0.09075,-0.036107,-0.19927,-0.18193
0.27058,0.40625,0.30147,0.2151,0.17437,0.15449,0.21658,0.6773
-0.017108,-0.22189,0.041609,-0.052085,-0.067673,-0.1068,0.088242,-0.055646
0.036026,0.2937,-0.48228,-0.091487,-0.051128,0.015644,-0.107,-0.32725
-0.097879,-0.086356,0.42359,0.057987,0.02866,-0.010003,-0.040633,0.093834
0.16936,0.15277,-0.43853,0.052436,0.038657,0.034311,0.037264,0.054897
-0.47396,0.040798,0.56865,-0.10858,-0.068398,-0.055265,-0.022358,-0.0034381
0.21355,-0.16677,0.081683,0.074275,0.050758,0.025335,-0.0018728,0.12567
0.15924,0.066216,0.27588,0.12371,0.075313,0.033501,0.050309,-0.24791
0.054814,-0.060269,-0.60277,-0.19533,-0.10452,-0.069987,0.069929,-0.085624
-0.0026076,-0.29906,-0.46338,-0.0082976,-0.012424,0.0040599,-0.069733,0.18467
-0.048825,0.050939,0.18512,-0.065354,-0.054651,0.0060195,0.012747,-0.13626
0.13886,0.6921,0.76566,0.17273,0.11278,0.061464,-0.050603,0.08965
-0.4107,0.14876,-0.35145,0.018918,-0.048762,-0.032041,-0.10352,-0.35855
0.30999,-0.52169,-0.14573,-0.018309,0.062859,0.03093,0.12828,0.41458
-0.19713,-0.45538,0.09179,-0.047527,-0.012667,0.0089204,0.060461,0.091697
-0.0999,-0.52146,-0.34375,-0.067903,-0.040357,-0.042711,-0.17207,-0.029813
0.15403,0.82551,0.40451,0.046336,-0.011859,-0.10777,0.1048,0.14165
0.14091,0.34143,0.16836,0.092688,0.04199,0.15789,0.025918,-0.24207
-0.087116,0.34307,-0.75402,-0.092541,-0.034817,-0.081509,-0.032271,0.078785
-0.19055,-0.60512,0.27654,-0.064012,-0.039132,-0.013645,-0.045709,-0.19108
0.12849,-0.035019,0.80279,0.068528,0.028816,0.017186,0.039953,-0.041588
0.094662,0.15976,-0.67369,-0.00037963,0.020086,0.064755,0.004704,0.14051
0.23448,-0.22083,0.51953,0.15004,0.097998,0.081,0.13563,-0.076289
-0.17768,0.044039,-0.12444,-0.1221,-0.097719,-0.10724,-0.03837,0.29295
-0.1107,-0.16889,-0.80596,0.0022808,0.017962,-0.024526,-0.13676,-0.30369
-0.017529,0.25949,0.91818,0.092593,0.038029,0.047133,0.049613,0.13053
0.11151,-0.15274,-0.84123,-0.18752,-0.092661,-0.07993,-0.073941,-0.14866
0.18735,0.26177,0.037609,0.013702,0.024273,0.024442,0.062956,0.036733
-0.43032,-0.25833,0.10061,0.0016701,-0.032696,-0.037151,-0.069922,0.20026
-0.050252,0.18326,0.45684,-0.03503,0.0027197,-0.0054999,0.060416,0.057426
-0.14246,0.38294,-0.23097,0.1313,0.053203,0.089607,-0.0048955,-0.51399
0.019891,-0.5014,0.24441,0.0093626,0.0023193,0.030631,0.06423,0.37723
0.42145,-0.012624,0.047965,-0.056672,-0.047847,-0.095788,-0.066689,-0.098803
0.36568,-0.081871,-0.11936,0.21434,0.14507,0.085407,0.040514,0.0071109
-0.33877,0.24446,0.51913,-0.20158,-0.11439,-0.051372,-0.059701,0.18157
0.035515,-0.30556,-0.73757,0.093279,0.087399,0.10216,0.14725,0.15252
-0.17762,-0.09003,-0.41058,-0.22985,-0.15631,-0.16627,-0.12928,-0.16444
-0.15433,0.23439,0.089634,0.04749,0.075925,0.12642,0.21048,-0.13369
0.21713,-0.14048,0.48729,0.097314,0.0026673,-0.059756,-0.25687,0.015353
-0.068719,0.21542,-0.13214,0.037401,-0.00095697,-0.022066,-0.06351,-0.42847
0.20239,0.39985,0.38083,-0.10012,-0.028257,0.013202,0.19673,0.38101
-0.15981,-0.055378,0.067302,0.084165,0.0073741,0.023492,-0.13159,0.088855
-0.030961,-0.19077,-0.65624,0.0051261,0.012942,-0.091457,0.10932,-0.010403
-0.15959,0.24227,0.236,-0.086731,-0.026506,0.029177,-0.10204,-0.11458
0.16841,-0.48994,-0.2384,0.17586,0.10821,0.08197,-0.013734,-0.047801
-0.097521,-0.2424,0.53903,-0.19185,-0.10627,-0.049478,0.00073521,0.12928
-0.054744,-0.24085,0.021829,0.082842,0.040696,0.041204,0.19208,0.0097367
0.23756,0.19909,-0.85301,-0.032297,-0.014051,0.0096711,-0.080552,0.13741
0.10924,0.17038,0.54601,0.055417,0.056733,0.0813,0.056676,0.26548
-0.04929,0.39125,0.49043,0.079383,-0.005725,-0.050116,0.047239,-0.15026
-0.0057522,0.12504,-0.65458,-0.17989,-0.077296,-0.089224,-0.21257,-0.25472
-0.33397,-0.19648,0.68739,-0.07437,-0.064869,-0.12316,-0.084186,-0.47998
0.10248,0.12782,-0.40632,0.19275,0.14842,0.19116,0.11832,0.11945
0.43239,-0.28293,-0.31813,-0.026718,-0.054597,-0.12285,0.0034003,0.21819
-0.35511,0.078224,-0.17135,-0.021381,-0.033,0.11505,0.086538,0.1334
-0.081858,-0.087644,-0.11958,-0.0016297,0.04183,-0.016095,0.024529,0.45657
0.16656,-0.46165,0.73073,-0.029431,-0.017034,-0.069876,-0.033068,-0.29139
-0.32647,0.52739,-0.17261,-0.034025,-0.013719,0.071919,-0.11599,-0.47373
0.24733,0.44657,0.28125,0.11774,0.083501,-0.027423,0.019662,0.083343
0.11884,0.031587,0.11604,0.066715,0.0093702,0.11692,0.047431,0.058971
-0.098266,-0.44577,-0.20793,-0.054076,-0.048339,-0.033995,0.039045,0.5518
-0.0098878,-0.36561,-0.59786,-0.1663,-0.081611,-0.20693,-0.1061,-0.20081
0.050078,-0.22227,0.56279,0.035,0.02689,0.089935,0.1358,-0.10325
-0.035335,-0.056104,-0.53065,-0.043659,-0.043076,-0.0032707,-0.055863,-0.12233
-0.041247,0.18441,-0.17437,0.097915,0.075632,0.059815,-0.0022982,0.1591
0.0055436,0.27285,0.4606,0.022195,0.015595,0.044335,-0.025165,-0.18337
0.13172,0.86692,0.24177,0.080401,0.065432,0.035844,0.061462,-0.29018
0.0041004,-0.13293,-0.3317,-0.05627,-0.041104,-0.090877,-0.0017635,0.5057
-0.06961,-0.0045042,1.0269,-0.013732,-0.062524,-0.046758,-0.059821,-0.1968
-0.0071758,-0.74063,-0.92827,-0.027327,0.023985,-0.050289,-0.019676,-0.055281
-0.17777,-0.15533,-0.49061,-0.058771,0.007096,-0.022869,0.0092213,-0.11786
0.27811,0.38518,1.1014,0.17281,0.027411,0.24705,0.12119,0.16001
-0.24665,-0.46436,-0.85821,-0.1293,-0.047495,-0.091452,-0.12797,0.29741
-0.02922,0.35633,0.098195,-0.11282,-0.091862,-0.030024,-0.064946,-0.17347
0.2482,0.15717,0.52646,0.16872,0.11405,-0.0057647,0.077401,0.20679
-0.26807,-0.19851,-0.73434,-0.13487,-0.053727,-0.049708,-0.0043322,-0.10434
0.2084,-0.20226,0.28914,0.12615,0.093134,0.0335,0.11256,-0.25192
0.095633,-0.0080011,0.23494,0.0074244,-0.023031,0.064051,-0.071709,-0.20918
-0.12765,-0.16946,-0.24357,-0.092244,-0.058497,-0.0677,0.13779,0.41867
0.038664,0.59919,0.31842,0.17844,0.11904,0.0050223,-0.22078,-0.12065
-0.0010151,0.46032,0.14971,-0.087646,-0.069427,-0.0073951,0.031078,-0.22645
-0.086103,-0.29808,-0.72584,-0.0011357,1.227e-05,0.0037333,0.032715,0.1484
-0.080556,-0.73087,0.40926,-0.063441,-0.07997,-0.032718,-0.10763,0.10627
0.14339,0.50025,0.044674,-0.057089,0.025677,0.054229,0.18733,-0.0083669
0.010546,0.35563,-0.12754,0.048248,0.03515,0.037111,-0.04384,-0.21106
0.024672,-0.45447,0.13146,0.056819,0.034222,0.055773,0.050362,0.43481
0.018982,0.11091,0.19377,0.054636,-0.015944,-0.069978,-0.13912,-0.13508
0.12529,-0.47293,-0.37229,-0.035885,0.010211,-0.0042858,0.13055,0.23315
-0.39771,0.39239,0.080815,-0.096669,-0.089648,-0.19984,-0.21003,-0.45504
0.062007,-0.056057,-0.50928,-0.01726,0.052577,0.13335,0.058861,-0.29504
0.055273,-0.25603,0.62385,0.10186,0.039334,0.090365,0.15683,0.49397
-0.17112,-0.25174,-0.37038,-0.066518,-0.050514,-0.10858,-0.14212,-0.19631
0.51221,0.56944,0.99301,0.11098,0.064755,0.15506,0.21687,0.28511
-0.1179,0.20899,-0.86421,0.0094777,-0.036597,-0.10208,-0.11024,-0.19086
-0.2472,-0.47566,0.088344,-0.090084,-0.034486,0.0032663,0.0087072,0.083272
0.038259,0.75928,0.052438,-0.094673,-0.023233,-0.083737,-0.21625,-0.20058
-0.044738,0.08339,-0.26236,0.057228,0.043203,0.12056,0.049872,-0.13236
0.21143,-0.20355,0.78381,0.083279,0.054466,-0.072506,0.18907,0.32182
0.27933,-0.44309,-0.33996,0.076226,0.04866,0.16383,0.03672,-0.094804
-0.41505,-0.40537,-0.20218,-0.097464,-0.092151,-0.04669,-0.016706,0.40611
0.11007,-0.31117,-0.12767,0.061955,0.014481,-0.048684,-0.10368,-0.4199
-0.10693,0.26222,-0.33861,-0.10142,-0.014104,-0.0064232,0.057897,0.32997
-0.26765,0.82583,0.23995,-0.10227,-0.13035,-0.19279,-0.26502,-0.52787
0.22523,0.16541,0.14307,0.045262,0.0653,0.010626,0.11665,-0.028383
-0.084214,-0.5505,0.33359,0.10849,0.089806,0.16799,0.10292,0.51298
0.26253,0.29862,0.3577,-0.012515,-0.00086422,0.046585,0.12468,-0.28063
-0.2299,-0.24667,-0.54582,-0.074402,-0.049509,-0.063232,-0.14563,-0.12856
0.22265,-0.3744,-0.29665,0.21236,0.1318,0.11253,0.13546,0.063511
-0.043424,0.18642,0.58286,-0.19167,-0.16807,-0.15298,-0.20494,0.32838
0.047847,0.43189,-0.60128,0.024814,0.057962,0.076584,0.081482,-0.19881
0.10142,0.1151,0.48185,0.10219,0.082166,0.065153,0.13339,0.1567
-0.22456,0.035901,-0.060918,-0.14134,-0.13587,-0.14235,-0.16054,-0.1565
-0.069332,-0.89586,-0.38541,0.057772,0.043203,0.077274,0.026268,-0.064717
0.28001,0.26217,-0.21492,0.12755,0.10275,-0.019449,0.0132,-0.15063
-0.345,-0.0852,0.63569,-0.22207,-0.14527,-0.089337,-0.067096,0.10403
-0.040547,0.33564,-0.18637,0.008764,0.01788,0.039713,0.035953,0.060212
0.34932,0.47155,0.14567,0.14883,0.053598,0.056128,0.026615,-0.094636
-0.50197,-0.38575,-0.3552,-0.17553,-0.099765,-0.1012,-0.13271,-0.089086
0.27565,-0.18584,0.33746,0.16246,0.12912,0.16302,0.25477,0.4088
0.37324,0.27865,0.060004,-0.069704,-0.079095,-0.095119,-0.08313,0.44027
-0.38521,-0.42498,-0.5412,-0.10473,-0.012735,-0.038704,-0.043969,-0.51672
0.20678,0.23181,0.63143,0.24609,0.102,0.098348,0.021124,0.023822
0.28496,-0.035096,0.041648,-0.00096385,0.054166,0.073765,0.065334,-0.36488
-0.52314,0.012856,0.0049432,-0.072382,-0.062814,-0.058261,-0.059967,-0.57629
-0.098086,0.12054,-0.58386,-0.13261,-0.10879,-0.14218,-0.15977,0.3266
-0.0081613,-0.26626,0.26579,0.059882,0.048613,0.094747,0.11717,1.111
0.14675,-0.20457,-0.51582,-0.1051,-0.075284,-0.074509,-0.057562,-0.20416
0.19583,0.30027,0.47995,0.16069,0.097575,0.068609,0.16732,-0.21637
-0.10296,0.39643,-0.22012,-0.018527,0.0048153,-0.014873,-0.020986,-0.41318
0.12429,0.042665,0.38704,0.098704,0.029484,0.0034274,-0.0056652,-0.17277
-0.35135,0.15036,-0.12649,-0.18356,-0.12507,-0.071538,-0.19341,0.26698
0.26346,-0.7194,0.49688,0.071641,0.095957,0.11972,0.11059,0.050368
0.089463,0.30216,-0.66696,-0.034504,-0.010638,-0.01668,0.030832,0.27381
-0.10436,-0.44311,0.33929,0.005625,0.0079993,0.0032138,-0.0034822,-0.029964
0.0061455,0.11807,0.089729,0.10613,0.042079,0.022531,0.046326,-0.22019
0.26972,0.22748,-0.30943,0.025092,0.028643,0.017163,0.031595,0.13178
-0.6352,0.098761,0.19528,-0.19789,-0.15768,-0.13062,-0.1258,-0.34334
-0.0049906,-0.86576,-0.45739,0.039448,0.045421,0.032086,-0.027159,-0.0077404
0.25622,0.62597,-0.20905,0.0035602,-0.018212,-0.018,0.0077324,0.25246
0.011034,0.26953,0.3285,0.046797,0.026742,0.016559,0.04209,0.06654
0.27886,0.62388,0.30952,0.044772,0.055779,0.050676,0.10015,0.17328
0.0086912,-0.23247,0.05918,-0.056892,-0.032113,0.015011,-0.043891,-0.13338
-0.12442,-0.36476,0.048975,0.10894,0.029174,-0.027027,-0.053506,0.043024
-0.21184,0.097714,-0.22901,-0.12219,-0.06472,-0.035696,-0.029897,-0.27477
0.083906,-0.77132,-0.01209,0.022512,0.053508,0.059644,0.081707,0.046841
-0.10373,0.38416,0.28041,-0.043646,-0.07718,-0.077017,-0.1017,-0.26344
-0.048472,-0.48479,-0.40494,0.13176,0.12886,0.085101,0.07567,-0.015084
0.2406,0.0032632,0.22989,0.024792,-0.00064975,0.037389,0.12879,0.49047
-0.1372,0.19796,-0.33636,-0.24762,-0.14588,-0.13523,-0.20095,0.029439
0.24464,1.1035,0.16607,0.064551,0.020826,0.034904,0.015306,0.25989
-0.070759,0.24517,0.09542,0.008424,0.006878,-0.031371,0.0033211,-0.47369
-0.071712,-0.51772,0.336,0.16246,0.093192,0.086977,0.035867,0.070749
0.066446,-0.43582,-0.27227,-0.019925,0.0060918,0.045655,0.05779,-0.23228
-0.22897,-0.023881,-0.30949,-0.14011,-0.090489,-0.1008,-0.024862,0.21843
0.10378,0.011583,-0.30785,0.067555,0.05346,0.03852,0.022417,0.0090274
0.0033128,-0.28089,0.48173,0.063935,0.00062967,-0.035608,-0.049857,0.13261
0.081957,-0.12861,0.25258,-0.026041,0.032682,0.037382,-0.0063889,-0.21405
-0.10895,0.19886,0.17269,-0.022644,-0.037246,0.0090034,0.036903,-0.19335
-0.040642,0.20031,-0.18609,-0.081887,-0.091143,-0.09566,-0.14506,-0.15563
0.050149,0.25763,-0.23093,-0.03925,-0.0031047,0.0061791,0.042962,0.49312
-0.097486,0.14895,-0.058533,0.090262,0.063641,0.042251,0.078731,0.10327
0.35565,-0.64099,-0.1108,0.10418,0.078429,0.05218,0.033237,0.17207
-0.10478,0.21853,0.052462,-0.05946,-0.028868,0.020145,0.015816,-0.10919
-0.24533,0.28663,0.31676,-0.10351,-0.063229,-0.062632,-0.068078,-0.15133
0.095131,-0.42194,-0.17396,0.03445,0.044916,0.020988,0.02231,-0.30241
0.1542,0.40056,0.43635,0.15864,0.091369,0.11277,0.10548,-0.18288
-0.11265,-0.017981,-0.12741,-0.16142,-0.14382,-0.15649,-0.15635,0.37741
0.10151,-0.0193,-0.57599,0.010735,0.017962,0.031872,0.094696,-0.42638
0.0028143,0.20639,-0.0010454,0.041234,0.021247,-0.010676,-0.056335,0.82101
-0.27925,-0.21366,-0.047552,-0.00055786,-0.032698,-0.057755,-0.11735,-0.24555
0.34771,-0.45882,0.43703,0.18942,0.1376,0.16472,0.20138,0.25927
-0.42028,-0.21838,-0.51232,-0.34997,-0.18592,-0.2013,-0.2552,-0.55254
0.059926,-0.1775,0.7709,0.084706,0.0055532,0.041216,0.13155,-0.022273
0.21401,0.2303,0.20133,0.041055,0.056865,0.073678,0.073822,0.1569
