-0.0015963,-0.10935,-0.39116,-0.18172,-0.039853,-0.0091387,0.0044682,-0.016648
-0.0070222,0.058275,0.17967,0.20533,0.060269,0.032131,0.019952,0.0015474
0.042449,0.14063,0.17966,0.083428,0.042454,0.002642,-0.0044461,0.035168
-0.017626,-0.058263,-0.032244,-0.10172,-0.061923,-0.019764,0.0015443,-0.017571
0.038985,0.11708,0.2935,0.072221,-0.01822,0.003827,-0.0010529,0.022848
0.0011315,0.017556,0.047174,-0.23802,-0.021372,-0.012496,-0.012005,-0.023353
-0.092178,-0.26341,-0.56028,0.11647,0.030612,-0.013848,-0.030946,-0.031163
0.0091795,0.024331,0.21386,0.30022,0.044381,-0.031151,-0.03399,0.0073474
0.039846,-0.01699,-0.17609,-0.14724,0.020233,0.060979,0.057429,0.014249
-0.070147,0.098059,0.24811,0.0089196,-0.018249,0.012884,-0.0063548,-0.0024146
0.13265,-0.012161,-0.24607,-0.48087,-0.11797,-0.026769,-0.037699,0.012258
-0.023423,0.10643,0.17096,0.071138,0.056817,0.051453,0.28362,0.042796
-0.053945,-0.16291,-0.04707,0.41489,0.06828,-0.072872,-0.26923,-0.059173
0.017517,0.054536,0.021155,-0.0048611,0.025391,0.029703,0.0064501,0.011025
0.018822,0.093731,0.68632,0.25608,-0.041018,-0.0083153,-0.069439,-0.0045045
0.0043201,0.10939,-0.51528,-0.39758,-0.045373,0.03153,0.10431,0.019129
-0.096626,-0.24399,-0.44617,-0.069114,-0.026993,-0.046284,-0.019405,-0.043189
0.067302,0.055453,0.031395,0.036882,0.014002,0.031596,0.028042,0.035013
-0.0040049,-0.0011047,0.43885,-0.010164,0.054172,-0.031653,0.043512,0.0036744
0.056683,0.0080468,-0.20887,0.21155,0.023279,0.014135,-0.11356,-0.0044145
-0.00043672,0.013362,0.28425,-0.16441,-0.04733,-0.018316,0.080379,0.010756
-0.089094,-0.13983,-0.28285,0.019713,-0.048205,-0.011606,0.031761,-0.036716
0.025507,0.081817,0.069482,-0.20294,0.020696,0.050029,-0.056057,0.0016602
-0.031191,0.0085721,-0.1473,0.17742,0.13595,0.018178,-0.11248,0.032189
0.045876,0.064071,0.031382,0.20149,-0.014888,0.01777,0.073715,0.0080424
0.014737,-0.063213,0.069448,-0.059377,-0.10358,-0.021633,0.12779,-0.0082513
-0.030874,0.15014,0.10932,-0.22993,-0.067367,-0.053254,-0.08291,-0.032311
0.033768,-0.070324,-0.05193,0.24399,0.039453,0.0088487,-0.027096,-0.0094614
0.020659,0.054919,0.021721,-0.28715,0.01422,-0.014879,0.037315,0.044642
-0.00051924,-0.062149,0.17886,0.34703,0.052682,-0.0070031,-0.046147,0.0049649
-0.030391,-0.056278,-0.36575,-0.097175,-0.0089531,0.032754,0.073792,0.004287
-0.053802,-0.17104,0.14142,-0.29298,-0.053496,-0.012592,-0.079734,-0.058968
0.046236,0.13204,-0.17067,0.047736,0.051556,0.02105,0.039889,0.033964
0.019858,0.21264,0.68743,0.29954,0.079064,0.047535,0.026232,0.025323
-0.069992,-0.27975,-0.6682,-0.04535,-0.0029484,-0.0038804,-0.042655,-0.037937
0.058609,0.22671,-0.18993,0.060428,-0.093624,-0.047838,-0.018314,0.00052451
-0.0076481,-0.11003,0.53876,-0.27297,-0.091921,-0.0068108,0.029028,0.0079712
-0.033709,-0.085333,-0.34551,-0.21645,0.017564,-0.021904,-0.041154,-0.015566
0.035571,0.083119,0.044468,0.43406,0.023991,0.00038703,0.029013,0.039252
0.0050115,0.036349,0.24416,-0.078443,0.068346,0.0054277,0.028581,-0.015178
0.030651,-0.015019,-0.12607,0.27,0.073018,0.056072,0.012157,0.016301
0.0026065,0.053054,-0.10371,-0.34852,-0.00049605,0.012302,0.13588,0.0085281
-0.025119,0.004801,-0.040707,0.058135,-0.01886,-0.039179,-0.24092,-0.030798
-0.0063512,-0.059734,0.17003,0.075696,-0.059752,-0.019438,0.045869,0.0076786
-0.051027,-0.0090491,0.3607,-0.31956,-0.24003,-0.068382,0.0042978,-0.040006
0.020226,-0.02365,-0.19968,-0.073273,0.12015,0.025413,-0.11528,-0.017401
-0.019177,-0.095883,-0.32781,0.66568,0.1926,0.090215,0.14064,0.036683
0.034128,0.071645,0.16075,-0.45481,-0.0074011,0.024194,0.092691,0.05998
0.024311,0.081557,-0.30553,0.39269,0.074217,-0.032688,-0.048068,-0.033306
0.0065522,0.028971,0.20389,-0.26124,-0.1258,-0.011059,-0.016093,0.006848
0.012576,-0.0065826,-0.050496,-0.12802,-0.053479,-0.013521,0.055561,0.00065202
-0.01192,-0.12549,0.19301,0.136,0.048527,0.052768,-0.11467,-0.020826
-0.058866,0.14957,0.04799,-0.046918,-0.01516,-0.00027446,-0.0036183,0.0047052
0.0046607,-0.18906,-0.34914,-0.027497,-0.14263,-0.17278,-0.080221,-0.024497
0.0067354,0.045689,0.25392,-0.32813,0.041765,0.059004,0.05386,0.008628
0.017458,0.032419,-0.032934,0.44275,0.077817,-0.023008,0.054797,-0.013184
0.013017,0.15239,0.25001,0.027824,0.067639,0.074162,0.024023,0.011574
0.02416,-0.064968,-0.079562,-0.018384,0.066107,0.093404,0.22696,0.04377
-0.035626,-0.027653,-0.056217,0.13143,0.0026747,-0.042974,-0.25851,-0.026085
0.05968,0.0677,-0.27689,-0.12554,-0.091954,0.0088696,0.0049901,0.03623
-0.041891,-0.084148,0.3108,-0.22025,-0.046546,-0.0012585,-0.060599,-0.019443
-0.028003,-0.060916,-0.3409,0.088627,-0.025632,-0.073692,-0.0095703,-0.036963
-0.023523,-0.11125,-0.067359,-0.089679,0.0019431,-0.0056,0.10407,-0.00070935
-0.020219,0.024731,0.20351,0.17521,0.059983,-0.0080207,-6.9288e-05,0.0035235
0.06066,0.10713,0.15373,0.095607,0.0086313,0.036395,-0.09461,0.015086
0.0088768,0.044239,0.027678,-0.24078,-0.11207,-0.012578,-0.030545,0.0031248
-0.042125,0.040453,-0.28263,-0.33224,-0.0043171,0.0096478,0.26257,-0.0084785
0.072155,0.025711,0.48082,0.53335,0.12158,-0.029247,-0.24688,-0.019315
0.008148,0.092982,-0.44861,0.15327,0.078241,0.019469,0.14336,0.041231
-0.038902,-0.14209,0.13024,0.019195,0.029299,0.062017,0.23684,-0.0063846
0.0010632,-0.072006,0.14462,-0.06546,-0.073031,-0.026995,-0.42076,0.0018685
-0.044175,0.051554,0.15483,-0.39925,-0.14398,-0.0060943,-0.0022776,-0.01233
-0.0187,-0.2022,-0.54368,-0.077582,-0.012864,0.030072,0.085459,-0.002416
0.053796,0.096122,-0.091774,0.0075904,0.038117,-0.067826,-0.095138,-0.00781
0.048165,0.21264,0.57414,0.41796,0.08651,0.012027,0.12032,0.025838
-0.043451,-0.046883,-0.27031,-0.17489,0.0071891,0.0036974,0.2793,-0.0032894
-0.033539,-0.1186,-0.083243,0.43232,0.066093,0.03234,-0.2503,-0.0093896
-0.039257,-0.063779,0.028783,-0.53335,-0.11108,-0.034242,-0.10054,-0.039343
0.080011,0.11838,0.028908,0.19457,-0.03119,-0.038826,0.11985,0.024141
0.011684,-0.087603,-0.0036301,-0.17188,0.0021905,0.035355,-0.080706,0.0015333
0.021224,0.27078,0.64974,-0.13924,-0.033328,-0.0059366,0.048273,0.025804
-0.040023,-0.15148,-0.692,0.12966,0.034945,0.002131,-0.00067654,-0.0045128
-0.031641,-0.043536,0.086222,0.22955,0.10584,0.02077,0.13979,-0.011294
0.01499,0.085115,0.12272,0.067109,-0.016058,0.034042,-0.31947,-0.0024485
0.021756,-0.17307,-0.35793,-0.2016,-0.026701,-0.037049,0.16022,0.029668
-0.0033473,0.017263,0.21335,-0.046162,-0.013033,0.079669,-0.14836,-0.016689
0.01814,0.19549,0.13301,0.19624,0.0081368,-0.085953,0.30859,-0.016657
-0.077418,-0.15281,-0.16898,-0.2414,-0.058036,0.027355,0.26444,0.014098
-0.031794,-0.10388,-0.13722,0.069357,0.053301,-0.0030545,-0.46915,-0.049348
0.092794,0.15696,0.36962,0.18242,0.021545,-0.013246,0.013561,0.05881
-0.0082939,-0.11822,-0.27304,-0.18366,-0.059304,-0.080786,-0.20922,-0.03619
0.024075,0.12676,0.41918,-0.012885,-0.094782,-0.040483,0.20694,-0.005996
0.025342,-0.091848,-0.35878,-0.22626,0.0098772,0.046594,0.091316,0.016724
-0.020749,0.2021,0.14262,0.37262,0.22451,0.10371,0.015586,0.03199
0.002417,-0.016152,0.087303,0.027004,-0.059341,0.061597,0.0044466,0.024065
-0.0070272,-0.060972,-0.23513,-0.082647,-0.02858,-0.040247,-0.027165,-0.015066
-0.048953,-0.020259,0.12204,-0.080989,-0.026772,-0.053584,-0.063303,-0.046555
-0.075862,-0.13773,-0.3312,0.10219,0.0083853,0.028647,-0.057363,-0.02366
0.014861,-0.046927,-0.13139,-0.049206,-0.040783,0.0022475,0.25548,0.045829
0.13074,0.21336,0.41119,-0.028007,-0.0030557,-0.10266,-0.32904,-0.0097547
-0.031685,-0.16822,0.032108,-0.13178,0.0036747,0.0724,0.43778,0.005271
-0.010618,0.16161,0.26224,0.28734,0.056872,-0.074677,-0.42964,-0.025823
-0.0011044,-0.14691,-0.16617,-0.20857,-0.0080802,0.07323,0.067825,0.0067738
-0.034861,0.095066,0.14178,0.15374,0.042791,0.063348,0.21098,0.0017934
0.066602,-0.10418,-0.34166,-0.14924,-0.07981,-0.033348,-0.22666,-0.0016542
-0.073496,0.07494,-0.13623,0.03096,-0.071255,-0.10667,0.13824,0.035237
0.19899,0.13052,0.19245,-0.07907,0.045096,0.062911,0.087817,0.057223
-0.1571,-0.057473,-0.27118,0.14561,0.12098,-0.031842,-0.29096,-0.069292
-0.073174,-0.023565,0.34044,0.15793,-0.046522,0.054624,0.16697,-0.024871
0.074701,0.15897,0.20914,-0.20641,-0.043156,0.072152,0.087315,0.017791
-0.057438,-0.10556,-0.24759,-0.06487,-0.032828,-0.1048,-0.24056,-0.051297
-0.047043,-0.28618,-0.13493,0.051222,-0.015408,0.046414,0.18312,0.017553
0.22451,0.42344,-0.19083,0.087386,0.18112,0.032705,0.021661,0.11501
-0.1236,-0.6061,0.49451,0.028602,-0.075872,-0.099818,0.18021,-0.10231
-0.042276,0.090753,-0.1938,-0.0069381,-0.0048093,0.085883,-0.31122,0.038158
0.025312,0.14389,-0.15357,-0.36168,-0.12087,-0.12117,-0.0083788,-0.056493
-0.020615,0.36209,0.27023,0.19236,0.021838,0.068489,0.17408,0.036557
0.047695,-0.017879,-0.081396,0.078268,-0.013572,-0.078763,-0.18568,-0.033364
0.035389,-0.058328,0.26432,0.14058,0.085916,0.15677,0.13186,0.062591
-0.042196,-0.042532,-0.2435,-0.05032,0.023695,-0.052083,-0.051669,-0.011059
0.009309,-0.083603,-0.076921,-0.088825,-0.0050229,0.0063576,-0.03146,0.0036322
-0.022431,-0.20958,0.027771,0.055012,-0.01636,-0.073721,0.030126,-0.034149
0.0016173,0.18444,-0.17946,-0.14394,-0.0033285,0.074928,0.064172,0.00013593
0.095567,0.13408,-0.11087,0.18756,0.056518,0.045759,-0.069131,0.05115
-0.093325,-0.049872,0.44768,-0.076991,-0.09559,-0.11491,0.075601,-0.053708
-0.1048,0.054824,-0.33599,-0.03234,0.0083753,0.076579,-0.0023189,0.020811
0.053207,-0.33072,0.30714,-0.030376,0.00088257,-0.075789,-0.085461,-0.0070974
0.10768,0.2505,-0.33176,0.038611,-0.039858,0.021138,0.058855,0.0028473
-0.034348,-0.37666,0.22417,-0.082319,0.011623,0.023216,-0.008624,-0.011955
0.0031194,-0.020577,0.16857,0.10021,0.077935,0.055307,0.195,0.042388
-0.044573,0.44633,0.16223,0.017096,0.027104,-0.023097,-0.3234,-0.060345
-0.012589,0.071161,-0.45522,0.028756,-0.038518,-0.04759,0.021876,0.031878
-0.0020551,-0.00010639,0.32791,-0.082896,-0.048,-0.072357,-0.073445,-0.031998
0.10424,0.22776,-0.3818,0.18239,0.014667,0.043784,0.20407,0.037534
0.001221,-0.25913,-0.077432,-0.19892,0.024597,0.098207,0.011858,0.029841
-0.11653,-0.060534,0.14849,-0.039697,-0.033971,-0.033756,0.0229,-0.062785
0.12506,-0.1731,-0.08376,0.12831,0.033915,-0.016076,-0.019764,0.032989
-0.064095,-0.27052,0.30032,-0.0079235,0.04022,0.057335,-0.029738,0.03562
-0.16927,0.33606,-0.19493,-0.11297,-0.086011,-0.056084,-0.022563,-0.063125
0.090039,-0.35692,-0.12854,-0.023248,-0.0564,-0.13027,-0.084378,-0.013717
0.1196,0.5475,0.60288,0.10449,0.097148,0.14676,0.15165,0.074029
0.051996,-0.029492,-0.72743,0.019736,0.12408,0.071408,-0.041434,-0.050227
-0.034553,-0.096905,0.32366,0.26105,-0.10881,-0.091006,-0.12491,-0.011674
-0.06151,0.061167,0.58846,-0.34386,-0.054784,-0.035933,0.15876,0.033422
-0.074982,-0.20893,-0.531,-0.052966,-0.026247,-0.036752,-0.096858,-0.0085322
0.012067,0.32712,-0.26511,0.071386,0.0084264,0.078638,-0.016909,0.0033926
0.021289,-0.31752,-0.053907,0.021961,0.041995,-0.0097351,0.13284,-0.024143
0.016607,0.055893,0.17227,0.088782,0.067328,0.089135,0.03193,0.034321
0.046196,0.12941,0.12569,-0.07068,-0.024272,-0.11658,-0.18697,-0.039514
-0.013964,0.022397,-0.026573,-0.041045,-0.07596,0.0062273,-0.00053328,0.020365
0.039761,0.058089,-0.046112,0.030463,0.053334,-0.011,0.2084,0.0111
-0.081718,-0.26699,-0.10061,0.011946,0.0045141,0.066204,-0.1929,-0.0046807
-0.074253,0.17054,0.18066,0.028875,0.01988,0.042509,0.077014,0.012055
0.2409,-0.58994,-0.11417,0.010869,-0.11154,-0.18376,-0.090929,-0.0091725
-0.067165,0.5863,0.10129,-0.14425,0.063206,0.1216,0.12395,0.0094851
-0.10128,-0.11815,0.30227,0.1796,0.028219,-0.033834,-0.0358,-0.057316
-0.10482,0.26089,-0.52184,-0.073698,-0.02938,0.037199,0.023919,0.00099102
0.093087,0.070035,0.3518,0.070848,0.061834,0.068879,-0.04038,0.05123
-0.00043842,-0.32147,-0.18232,-0.13043,-0.03456,-0.063903,-0.0019604,0.022769
0.14544,0.03276,-0.1589,0.00096672,-0.029969,-0.064249,-0.0013686,0.0013034
-0.016266,-0.093756,0.013346,0.17529,0.051768,0.04458,0.023866,-0.013293
-0.063482,0.032595,0.29415,-0.131,-0.12558,-0.11993,-0.082647,-0.052242
-0.0035143,-0.042716,-0.10546,-0.019003,0.062798,0.090993,0.046019,0.0096473
-0.109,0.14726,-0.19214,-0.050222,0.038737,0.076087,0.073563,0.0008361
0.011682,0.24903,0.40322,0.1126,0.052283,0.030802,0.015174,0.015494
0.023664,-0.20786,-0.46557,-0.09163,-0.029226,-0.029291,0.011032,-0.00065598
0.052849,-0.13081,0.10219,0.064946,-0.057101,-0.088806,-0.17361,-0.00043284
-0.0095899,0.25333,0.28805,0.059836,0.015898,0.03158,0.062596,0.0084707
0.086401,-0.49218,-0.24255,0.01073,-0.012878,-0.035732,0.0086493,0.010328
-0.026823,0.16563,0.51894,-0.019834,0.036822,0.044807,0.0084153,0.012644
0.017075,0.12763,-0.56002,-0.12596,-0.092229,-0.047438,0.030856,-0.024084
0.0061394,0.0057868,-0.073279,0.012031,0.11612,0.13261,0.060585,0.048112
-0.1543,0.15394,-0.16955,-0.0050653,-0.072145,-0.12616,-0.10532,-0.060214
-0.0039187,-0.34052,0.61176,0.11882,0.054052,0.012148,0.0098417,-0.028952
-0.019452,0.49154,-0.24539,0.039199,0.025822,0.094427,0.054562,0.0091041
0.14308,-0.42872,0.19608,-0.10394,-0.11036,-0.12917,-0.080523,-0.00051316
-0.023609,0.19395,-0.25958,-0.014158,0.10585,0.11507,0.088956,0.028484
0.035781,0.013647,-0.019008,0.0036109,0.0018694,-0.00055069,-0.038544,0.041788
-0.045383,-0.12024,0.12065,0.0040348,-0.079233,-0.10829,-0.025445,-0.038418
-0.047988,-0.17045,-0.090759,-0.012723,-0.020851,0.019036,0.058099,-0.016639
0.059343,0.32291,-0.090801,0.039571,0.043813,-0.024181,-0.092364,0.044658
0.0030951,-0.1715,0.081391,0.0050281,-0.010411,0.020396,0.078145,-0.0030447
0.040872,0.32377,0.12876,0.055904,0.12122,0.15309,-0.00038908,0.0041848
-0.085365,-0.20518,0.01969,-0.041807,-0.11572,-0.079195,-0.046477,-0.058766
-0.047636,-0.35761,0.027112,-0.10026,-0.0098719,-0.036063,0.0024995,-0.020065
0.091579,0.13449,-0.091727,0.0058661,0.0018058,0.016382,-0.0097729,0.010955
-0.019078,0.09347,-0.22791,0.081552,-0.017597,-0.086536,0.025811,0.042209
0.042636,0.22354,0.26681,0.056721,0.11217,0.099846,0.038472,0.034747
-0.058764,-0.045822,-0.044966,0.017464,-0.038123,0.02024,0.17605,0.0042585
-0.041585,-0.17719,-0.25656,-0.2393,-0.10883,-0.11492,-0.32772,-0.088335
0.016358,-0.0015853,0.35916,0.07542,0.025099,-0.0013086,0.050044,0.030299
0.076081,0.3758,-0.14254,0.17234,0.074382,0.1108,0.019903,0.031858
-0.011077,-0.2987,0.066891,-0.12858,-0.031738,-0.028727,0.04264,-0.013552
-0.01127,0.21415,0.057907,0.047246,0.088934,0.064435,0.048014,0.018884
0.02004,-0.36062,-0.20869,0.10561,-0.0017753,-0.054936,0.028486,0.011859
-0.058667,-0.10093,0.10266,-0.11792,-0.09352,-0.050669,-0.062387,-0.081521
0.048635,0.10454,-0.19607,-0.029805,-0.053864,-0.016121,-0.059979,0.012276
-0.049323,0.024598,0.12119,-0.098768,-0.015706,-0.013262,0.091046,0.012178
0.069026,0.13953,0.65565,0.042589,0.036789,0.060065,-0.077376,0.027777
-0.080601,0.10112,-0.68647,0.082099,0.080618,0.0091057,0.044774,0.028019
0.080401,-0.26805,0.017143,0.12166,0.046016,-0.001659,-0.049814,0.0052202
-0.15032,0.37648,-0.16229,-0.057242,-0.043031,0.027972,0.021932,-0.0484
0.095318,-0.30988,0.19839,-0.048266,-0.045434,-0.034852,0.08026,-0.0079002
0.068155,0.47546,0.23337,0.0079129,-0.0077322,-0.0028775,-0.078378,0.032837
-0.11405,-0.66079,-0.43124,-0.17011,-0.046929,-0.032732,-0.048471,-0.074806
0.080147,0.13825,0.18161,0.15183,0.063566,0.039237,0.22372,0.075215
-0.021394,0.35532,0.3684,-0.042172,-0.059198,-0.029501,-0.13777,-0.017312
0.041631,-0.19736,-0.23929,-0.06492,0.11575,0.10461,0.04591,0.038039
-0.012888,-0.11236,-0.10431,0.23948,0.033309,-0.050614,-0.14758,-0.0088899
0.1345,-0.17635,0.24772,0.034774,-0.056946,-0.080914,0.00045631,-0.0097512
-0.25903,0.012122,-0.44298,-0.12456,-0.053842,-0.040633,0.021647,-0.081728
0.0094098,0.29185,0.18164,-0.17599,-0.051381,0.062796,0.0651,0.040908
0.0025524,0.086533,-0.089779,0.021476,0.020675,0.018718,0.045658,0.014587
0.072581,-0.24422,0.39179,0.10916,0.068662,0.03812,-0.035991,0.027029
-0.014036,0.30576,-0.30971,-0.01363,-0.0010033,0.026991,0.023726,0.00032007
0.040423,-0.10273,0.17498,-0.033498,-0.031916,-0.03867,-0.056289,-0.018497
0.033496,0.010448,-0.1831,0.073647,-0.00058467,0.0044338,0.067597,0.0097546
0.028065,0.09421,-0.15524,-0.082576,0.030395,0.0070663,-0.034584,-0.0086045
0.04768,-0.2609,0.11946,0.21634,0.052983,-0.039228,-0.019402,0.028043
-0.17334,-0.25939,-0.022452,-0.14747,-0.042493,-0.048842,-0.0199,-0.059929
-0.010123,0.24027,0.68419,0.028147,-0.021917,0.032972,0.010722,0.0088141
-0.079921,0.17081,-0.5277,-0.07032,-0.057283,0.011342,-0.013376,0.0078008
0.085974,-0.11934,-0.035241,-0.17809,0.015569,0.0041702,0.017393,0.0074174
0.18281,-0.18735,-0.15318,0.35278,0.056343,0.0044816,0.017328,0.046743
-0.14118,0.20607,0.18696,-0.18093,-0.036006,0.020885,0.010018,-0.061794
-0.019217,0.1113,-0.19551,-0.013271,0.012575,-0.000687,-0.027982,0.0097595
-0.022272,-0.10316,0.44171,0.090761,0.038628,0.049516,0.051563,0.042401
0.13791,0.06928,-0.37677,-0.063335,-0.027662,-0.10183,-0.056405,-0.026665
-0.016024,-0.10153,0.14008,0.048741,-0.021918,0.029573,-0.0085953,-0.018025
0.023146,0.089961,-0.31788,-0.064422,0.0090901,0.02162,0.1555,0.068125
-0.11192,0.20008,0.22028,-0.011607,0.018379,-0.024388,-0.16598,-0.072963
-0.038001,-0.15986,0.14667,0.11377,0.021294,0.03193,0.019121,-0.0037017
-0.0041398,-0.18178,0.13347,0.030521,-0.0059999,-0.059617,-0.046789,-0.012934
-0.040247,-0.21156,-0.36717,-0.16784,-0.071766,0.013336,0.011766,0.0011978
0.0035141,0.29826,0.17375,-0.02086,0.011049,0.047561,0.086027,0.046791
0.073535,-0.055398,0.18287,0.041105,0.007665,-0.042988,-0.034323,-0.00095152
0.13898,0.092102,-0.46031,0.048488,0.027122,0.014981,0.01839,0.045534
-0.011499,-0.026311,0.58509,0.055108,0.061354,0.033773,-0.005574,-0.048198
0.027118,-0.12298,-0.18271,0.16954,0.0086462,0.020978,0.03441,0.0067475
-0.18442,0.11997,-0.38123,-0.24945,-0.084157,-0.04705,-0.065012,-0.047633
0.023909,-0.075246,0.045524,-0.061476,-0.013828,0.001426,0.047341,0.015079
0.049006,0.20641,0.14704,0.022661,-0.01452,-0.0055018,-0.050853,0.015148
-0.070869,-0.18516,-0.41704,-0.098063,-0.070321,-0.099002,-0.055334,-0.031749
0.062849,0.13667,0.7473,0.20213,0.10811,0.057019,0.11166,0.054212
-0.017524,-0.099407,-0.27916,-0.075931,0.060023,0.087727,-0.026702,-0.015863
-0.013301,0.23298,0.19255,0.20123,0.066719,-0.006768,-0.048746,0.015992
-0.062907,-0.20821,0.20168,-0.020655,-0.051543,0.00011061,0.061039,-0.021996
0.038921,-0.21682,-0.58859,-0.21023,-0.099532,-0.001075,0.013549,-0.0048045
-0.0030646,0.22789,0.211,0.069887,-0.022566,-0.041659,0.019777,-0.018432
0.14003,-0.17121,-0.3072,-0.18834,-0.062701,-0.0044817,-0.045101,0.046361
-0.00084069,-0.036922,0.25425,0.085107,0.09283,-0.04571,-0.047956,-0.037187
-0.044135,0.40841,-0.027012,0.19461,0.045912,0.022366,0.027269,0.035378
0.031539,-0.14218,0.083289,0.053916,0.038984,0.051602,-0.084559,0.0059995
-0.2059,-0.18262,-0.13359,-0.095069,-0.052889,-0.01239,0.054508,-0.063044
0.10062,-0.027526,0.079978,-0.11975,-0.026769,0.0024821,0.1557,0.023389
-0.019416,0.21052,0.18434,-0.0046023,0.0075238,0.025963,-0.10907,-0.0004303
0.12052,-0.051575,-0.071507,0.016096,-0.028774,-0.11395,0.049051,0.029541
0.012642,-0.25057,-0.040377,0.14572,0.082372,0.090251,-0.05788,0.019623
-0.11549,0.20576,-0.074988,-0.13098,-0.011248,0.044416,-0.078846,-0.030017
-0.019849,0.29821,0.12865,-0.0089156,0.0024383,-0.0096771,0.13407,-0.009738
-0.10434,-0.18929,-0.19501,0.051323,-0.048528,-0.0098202,0.0023738,-0.0051243
0.11789,-0.27833,-0.060639,0.073393,-0.015374,-0.073274,-0.10688,-0.0079483
0.024017,0.2049,0.033468,-0.083269,-0.0067381,-0.012338,0.048644,-0.0099726
0.16241,0.0054694,-0.027729,0.026569,0.025287,0.024996,0.00056248,0.036046
-0.060153,0.088895,0.63288,-0.011331,-0.058783,-0.023179,-0.024038,0.0053458
-0.15975,0.055648,-0.68622,-0.16593,0.038952,0.031214,0.0066315,-0.016078
0.034142,-0.60874,-0.10928,0.26571,0.10044,0.047939,0.014861,0.0028716
0.058623,0.18481,0.67587,-0.044664,-0.038175,-0.019801,0.032082,0.038413
-0.018234,0.23765,-0.34775,-0.10491,-0.0021736,0.054283,-0.012128,-0.074005
0.0045304,0.21889,-0.1354,0.045942,0.004583,-0.0038159,0.05372,0.047875
0.0392,-0.054191,0.13064,-0.12329,-0.050163,-0.062009,-0.052192,-0.0027326
-0.071648,0.062807,0.15875,0.2234,-0.011241,-0.042876,-0.057051,0.00029632
-0.00035348,-0.49024,-0.25624,-0.21867,-0.043671,-0.032877,0.015178,-0.021444
-0.12951,-0.0016276,0.10324,0.19103,0.11748,0.069302,0.0079287,-0.021175
0.16666,0.32477,-0.028584,-0.0087053,-0.043751,0.0059058,-0.00070744,0.0089988
-0.024793,0.096285,-0.15079,-0.036964,0.019504,0.058492,0.19265,0.030241
0.023933,0.27873,-0.14444,-0.15197,-0.10651,-0.077154,-0.27869,0.01944
0.079682,-0.40464,0.56302,0.044323,0.10995,0.037008,0.093739,-0.0074038
0.026388,-0.33976,-0.15109,0.16884,-0.025797,-0.051637,-0.056608,0.0047846
-0.088035,0.025551,-0.11279,-0.036343,0.018072,0.063561,0.044222,-0.021744
-0.075079,0.16621,0.28111,0.030484,0.031108,-0.031221,0.044893,-0.031963
-0.074378,0.29249,-0.39015,-0.13029,-0.11138,-0.046877,-0.023488,-0.025597
0.0087277,0.14674,-0.13385,-0.072738,0.012585,0.039878,0.08076,0.036589
0.010841,-0.074789,0.12031,0.032044,0.043535,0.041221,-0.025931,0.03744
0.18998,-0.60494,-0.042356,0.083272,0.04371,0.011413,0.03063,0.031513
-0.063657,0.42551,0.4629,0.011258,0.012764,-0.034362,-0.17987,-0.036157
0.10035,-0.19987,-0.076574,0.13665,0.0050514,0.020741,0.2017,0.037183
-0.12444,0.036867,-0.24091,-0.1265,-0.073387,-0.096874,-0.29317,-0.10041
-0.0057185,0.1611,-0.024252,-0.036338,-0.0038028,0.073814,0.16429,0.035108
0.048172,-0.068145,0.21248,0.055039,-0.028151,-0.013753,0.020335,-0.0095724
-0.1129,0.13064,-0.47683,-0.15768,-0.07571,-0.046597,-0.028814,0.031107
0.056892,-0.12616,0.35316,0.051447,0.13523,0.05393,0.056557,-0.022501
-0.020807,0.13631,-0.07801,0.15846,0.089411,0.053891,0.073506,0.032808
-0.048576,-0.12329,-0.19095,-0.16519,-0.095861,-0.06211,-0.079875,-0.06072
0.0685,-0.048037,0.48443,0.15044,0.0089243,-0.0050591,-0.0059485,0.0719
0.042879,-0.15578,-0.30865,-0.090228,-0.026376,0.0059518,-0.018268,-0.022559
0.0011449,0.19248,0.13342,0.018908,0.055414,0.017211,0.030554,0.030738
-0.016251,0.14431,-0.072326,0.087196,-0.027622,0.027986,0.0069182,-0.010562
-0.047359,-0.10495,0.034353,-0.11177,-0.041658,-0.056216,-0.10513,-0.060608
0.017752,-0.10131,-0.34439,-0.1167,-0.018262,0.014001,0.053975,0.013479
