0.0062259,0.016637,0.014143,0.020255,0.01494,0.011182,0.0071479,0.0013631
-0.0093671,-0.0044291,-0.0086667,0.0038924,-0.008845,0.0033206,-0.0087572,-0.006884
-0.001569,0.0057891,0.015959,-0.0045584,-0.001412,-0.004387,0.0069898,0.008513
0.0061695,0.00018861,-0.0058262,0.0027857,0.0060251,0.0036263,-0.00026135,0.0085764
-0.0017804,-0.005781,-0.011696,-0.0052947,0.0056553,0.0038318,0.00071401,0.0089647
-0.0097831,-0.004423,0.0059311,0.010254,-0.0025498,-0.011681,0.0020132,-0.0059727
0.005623,0.0042068,0.015549,-0.0052925,0.0048053,0.0038857,-0.012136,-0.0050636
0.0054077,0.0044812,-0.0065167,0.0027083,-0.0035614,-0.011999,0.0049571,-0.0040431
-0.0025845,0.0042545,-0.0057554,-0.012655,-0.012025,0.0031866,0.0062182,-0.010843
-0.0027056,-0.0042098,-0.0056848,0.003293,-0.0049165,0.0026386,0.0070929,0.0056792
0.0050522,0.0026278,-0.014084,-0.0041256,0.002224,0.0020804,-0.00035987,0.0063761
-0.0027568,-0.0063627,0.016064,0.0041794,0.0095023,0.0016114,-0.0083781,-0.00099747
0.0050964,0.00019815,0.0068585,0.0047972,-0.0064232,0.0091181,-0.0091045,0.0069628
-0.0026632,-0.00099993,-0.010185,0.005548,0.0013761,0.001194,-0.0023996,-0.0010051
-0.0026177,-0.0098463,0.0042488,-0.0092188,0.017263,-0.014365,-0.0036752,-0.0092675
-0.0025853,0.012799,0.0034831,0.0073089,-0.005722,0.0014459,0.010755,0.0056438
-0.002554,0.004468,0.0032512,0.000349,0.0025944,0.0016702,0.0098756,0.0047233
0.0053168,-0.0036105,-0.0042544,-0.0067712,-0.004826,0.0018469,0.0094884,-0.011943
-0.0023734,0.0041223,-0.0035023,0.0014675,-0.012502,0.0019055,-0.013762,0.002633
0.0056606,0.0041338,0.0053383,0.001547,0.0029182,0.0018071,-0.013028,0.0017119
0.0060041,0.0041391,0.0064318,-0.0065737,0.0023715,-0.0062591,0.0037488,0.0088751
-0.0091534,-0.019373,-0.0082468,0.0083607,0.0015718,0.0011887,0.0051047,-0.0069914
-0.0085855,-0.011745,-0.015438,-0.0082893,0.0006824,0.00079173,0.01422,-0.0067174
-0.00015439,0.0036012,0.0081801,-0.0017558,-0.0079057,-0.0073521,-0.0004157,0.0019435
0.0082548,0.011091,0.0078778,0.0046202,0.0072572,0.00028956,-0.015577,0.0033589
0.0087419,0.0029729,-0.00068597,0.0031244,-0.00055282,0.008161,-0.00014132,-0.0025557
0.0012172,0.010544,0.006024,0.0094715,-1.9782e-05,0.00066287,-0.00099125,0.0074747
0.0012317,0.0025715,-0.0030989,0.00030296,0.0088173,0.0090195,0.0054266,0.001973
-0.014691,-0.013147,-0.020074,-0.00087021,-0.0054334,-0.0059029,-0.004099,0.0041119
-0.0074792,0.0024173,0.0099563,-0.01741,0.0038826,0.0026725,0.0019804,-0.0098112
0.0073058,0.0023624,0.016833,-0.0023604,-0.0025539,-0.012229,-0.0072679,-0.0009571
-0.0014805,-0.0055026,-0.0071391,-0.0025164,-0.0015461,-0.0038099,-0.00031785,-0.00071932
0.005351,-0.0055194,0.00061333,-0.0021912,-0.0010803,0.004458,0.0073862,-0.009137
-0.0033316,-0.013249,-0.0067621,0.022072,-0.0012249,0.0047721,0.0080786,0.0051126
0.011618,0.010447,0.0019579,0.0077277,-0.0019248,0.0049929,0.0094737,0.010953
-0.0044578,0.010936,-0.00455,-0.0062784,-0.0030098,-0.010437,-0.012092,0.00081789
0.0031058,0.0038509,0.0048483,-0.0045031,-0.0042286,-0.0023906,0.0055729,-0.0015719
-0.0048223,0.012576,-0.0090649,-0.010603,-0.0053009,0.0057357,-0.015988,-0.011563
-0.0048957,-0.0098774,0.00039786,0.0064517,0.017459,0.0061315,0.0010624,-0.0054861
0.0027963,-0.0011582,0.017403,-0.0082102,0.009526,0.0065683,0.001841,0.0090013
-0.0052485,-0.016102,0.0026817,0.015608,-0.0056219,-0.0086551,0.0019027,0.00070091
0.002194,-0.0079458,-0.0048791,-0.0080626,0.0031771,-0.0083824,-0.0065065,0.016432
0.0017044,0.015448,0.002429,-0.001039,-0.011147,0.007299,0.0080311,-0.006457
0.0089655,0.0072263,-0.0066423,-0.002249,-0.0019768,-0.00073134,-0.0011193,0.0021365
0.00062726,-0.0090912,-0.0085244,-0.003691,0.006988,-0.0012353,0.0053711,-0.0048872
-0.015396,-0.0021295,-0.0029584,0.010473,-8.9577e-05,-0.0019852,0.0043117,-0.0042788
0.0078695,0.012627,0.0025988,0.0013853,0.00011014,-0.0028936,-0.011921,-0.011776
-0.0076237,-0.011568,-0.007084,-0.0073498,-0.0080388,0.0039705,-0.0041621,0.0038543
0.00066276,0.011324,0.0074104,0.0078139,-0.0087982,0.0031095,0.011969,-0.012008
0.0014648,-0.0045767,-0.00055468,4.2344e-05,0.0058452,-0.0053645,-0.010499,0.01889
0.018148,-0.004569,0.0081451,-0.0072538,0.0048832,0.0098745,0.0063789,0.01075
-0.0040963,-0.0043053,0.017746,0.0014658,0.0041698,-0.0058341,0.0076747,0.002753
-0.0029215,0.0039672,0.0044901,-0.0051765,0.003871,0.002172,-0.0068745,-0.005041
-0.0019176,0.012356,-0.00081141,0.0039167,0.0040563,-0.0052396,0.0015517,-0.012635
-0.016832,-0.010478,-0.029877,0.0051487,-0.010937,0.0030813,0.0015274,-0.0044625
0.01477,0.0056943,-0.012794,0.0061851,0.0056333,0.0035867,0.00079151,0.011569
-0.0086744,-0.017324,0.0033049,-0.0087163,-0.0011141,-0.0038239,-0.0084178,0.0041054
0.0066457,0.0063563,0.010537,-0.00056567,-0.00014253,-0.003599,-0.0024882,-0.003499
-0.0094823,0.014209,0.0090178,-0.00063221,-0.0072653,0.0042268,-0.0045838,0.0043354
0.005551,-0.009391,-0.0088031,-0.0088805,0.00082609,-0.003776,0.0012463,-0.01926
0.0049613,0.0058895,0.012115,0.013833,0.00064453,0.0036896,0.0075063,0.0038982
0.012238,-0.0024086,-0.0059782,-0.010507,3.379e-05,-0.0045508,0.0066294,0.0035928
-0.0038628,-0.01079,0.0075727,0.0041529,-0.0009082,0.0028423,-0.0012595,0.011186
-0.012116,0.012065,-0.001657,0.0032263,0.0057699,0.010332,0.0072543,-0.0044731
0.0030666,-0.0040814,-0.010069,0.0024089,-0.0032198,-0.01326,-0.014871,0.0035548
0.0026005,-0.004468,0.0058228,0.0017359,0.0035056,0.002425,0.010211,-0.011594
0.0021252,0.003151,-0.0087259,0.0012118,0.002605,0.002713,-0.0037762,0.004721
-0.021739,0.0031861,0.00082164,0.00082402,-0.0058703,-0.0046028,-0.0024775,-0.0022854
0.009224,0.0034542,0.010803,-0.015065,0.0015263,0.0038654,-0.0017839,0.0063162
0.0013661,-0.0038865,-0.010307,0.0004191,0.0013351,0.0046071,0.0059678,0.0069453
0.0094528,-0.0032722,0.0075083,0.00041917,0.0013309,-0.0024637,-0.0026653,-0.00052186
0.0022577,-0.0026008,0.0092757,0.0084014,0.0014765,-0.0018101,-0.011919,-0.0083498
-0.0046454,0.0058404,-0.013053,0.00095492,-0.013879,-0.0091353,0.0019028,-0.0087359
0.0042407,0.0063247,0.010684,-0.006287,0.0021273,0.0067516,6.2799e-05,-0.001617
-0.0025196,-0.0090508,-0.013303,0.0022778,0.010432,-0.0010583,0.014144,-0.0024935
-0.0016975,-0.0012914,0.0010097,0.010966,-0.0045957,0.0064922,-0.0024509,0.012231
0.0065197,-0.0016823,-0.00085577,-0.0037459,-0.0039145,0.0059895,-0.0026782,0.0036534
-0.0092405,0.0054051,-0.0029718,-0.0028961,0.0046127,-0.010326,-0.0021285,0.0031451
-0.0021288,0.0043897,0.0028265,0.005611,0.0052792,-0.0033115,0.0069072,-0.0048546
0.0045028,0.0031662,0.0090718,-0.017353,-0.0020196,0.0036974,0.00077589,0.0030885
-0.012596,-0.013777,-0.0073924,-0.0093161,0.0060455,-0.0048108,0.010445,-0.0043369
0.0015225,-0.007243,0.000477,0.014107,-0.0018596,0.0025236,-0.019066,-0.003793
0.01589,0.015095,0.0092681,0.0060782,-0.010142,0.0023502,-0.0098829,0.0046083
-0.00048625,-0.0013252,-0.0045803,0.0057136,0.0046753,-0.0052849,0.0065797,-0.0026705
-0.008365,-0.0017187,-0.0022604,0.0052541,-0.0041648,0.010861,-0.00098917,-0.0022628
0.0079508,0.006153,0.00025682,-0.010875,-0.013047,0.0038456,0.0065131,-0.0020156
-0.0062749,-0.0011483,0.0025887,-0.0035639,0.0016723,-0.010823,-0.0020443,0.0058836
0.011298,-0.0080499,0.0043768,0.0038025,0.008928,-0.0020461,0.0047547,-0.0019785
-0.0020713,0.00097613,-0.010281,-0.012156,0.0088416,0.0065748,0.0036517,0.0056833
-0.015418,0.0023622,0.0053378,0.0033108,0.017064,-0.0085442,0.0026245,-0.0023484
0.0022285,-0.0040403,-0.011271,0.0033803,-0.0055427,-0.00063424,-0.013818,-0.010428
0.0037552,0.0050544,0.0025359,0.003708,-0.012259,0.014633,0.0091078,0.012702
0.004625,0.006071,0.00014356,0.0042858,-0.0032761,0.0060343,-0.0066691,-0.0032779
-0.0030447,-0.0089099,0.0053253,0.0050601,-0.0022142,-0.018519,-0.0064442,0.0041219
0.0042094,0.006926,0.0028093,-0.0096908,-0.0092011,-0.0041734,0.0097626,-0.0041639
-0.0047491,-0.0011101,0.00072488,-0.00103,-0.00085265,0.0024054,0.0028348,0.0031304
0.0015109,-0.0017053,0.0071197,-0.00034093,0.0072265,0.0014365,-0.0038759,-0.0052034
-0.0080399,-0.010362,-0.0091299,7.1244e-05,0.0072973,0.00092037,-0.0026685,-0.013473
0.005887,-0.0034781,-0.0089538,0.00012486,0.0072677,-0.0068402,0.0063304,0.01747
-0.0033871,0.0035028,0.007545,-0.00021156,-0.00058692,0.01723,-0.00044397,-0.0060415
0.0033362,0.018556,0.0011118,0.0068987,-0.0083959,-0.005096,0.00033643,0.0019931
0.0026753,0.0027336,-0.0050663,-0.0097175,-0.00051451,0.011921,0.00078513,0.0025328
0.010227,-0.012672,0.012178,0.0047463,-0.00039743,0.0055244,0.00087747,0.0033598
-0.0053567,-0.0042594,-0.0020926,-0.004253,-0.00027765,-0.016732,-0.014982,-0.0034212
-0.0051537,-0.011204,-0.001193,0.0024963,-0.00803,-0.0081743,0.00016053,-0.0023076
0.0028798,0.021014,-0.0008466,0.00169,-0.00028409,-0.00014729,0.0073502,0.014373
-0.012617,0.0062591,-0.0088554,0.0012388,0.015087,-0.016063,-0.0011123,-0.01601
0.010804,-0.0087861,-0.0016643,0.0011932,0.014605,0.006715,0.0061144,0.00019586
-0.0049633,-0.00083713,-0.0025097,-0.0062624,-0.0095503,0.0137,0.0056428,-0.0073714
0.0026591,-0.0090373,0.0044757,0.010068,-0.018283,0.005104,-0.0025239,0.0081684
-0.013091,0.0056885,0.003898,-0.012413,-0.0036953,0.012349,0.0050166,-0.0078222
0.010398,0.0043902,0.003738,0.0042965,0.0030858,-0.0035355,-0.01085,0.0072346
0.002886,-0.012733,-0.0037488,-0.0024364,0.0022037,-0.0034774,-0.003294,0.014364
0.0034409,0.0014488,0.01264,0.014139,0.0015997,-0.010977,-0.0035809,-0.001978
0.0041797,0.0081456,-0.0019337,-0.0085772,0.0013538,-0.010514,0.0039343,-0.0026578
0.0049674,0.0075969,-0.0086248,-0.00032959,0.0092837,0.0056129,-0.0041352,-0.011054
-0.0021765,-3.189e-05,0.0079585,-0.00019236,0.0096871,0.0060538,0.0035241,-0.0036791
-0.0095965,-0.014681,-0.014879,-0.0081302,-0.005393,-0.0014496,0.01134,-0.0039254
-0.0095844,0.002649,0.00087485,-0.0006349,-0.012696,-0.0013149,-0.0041065,0.0038634
-0.0021622,-0.010724,-0.0072914,-0.0010579,-0.0045726,0.006439,-0.0037759,0.011884
0.0049243,0.023042,0.0075866,0.0063043,0.0032458,0.0061858,0.0044519,0.0044877
-0.0038114,0.0098504,-0.0012033,0.013689,0.01074,-0.0020605,-0.0029562,-0.010576
0.010869,-0.011592,0.013411,-0.0023288,-0.013262,-0.010459,0.005149,0.0056595
0.0022619,-0.0025315,-0.0030711,-0.0027108,-0.0061038,-0.003338,-0.0025625,-0.0016087
0.0095616,-0.0022359,-0.0036282,-0.0031241,0.0089814,0.0037386,-0.010504,-0.0012423
-0.006224,-0.010765,0.011821,-0.011419,-0.0068668,0.0030328,-0.0030333,-0.001139
0.0017859,-0.0045806,-0.011396,0.0036427,0.016817,0.0024338,0.012103,-0.0013386
-0.013332,0.0087447,-0.0030115,0.003025,0.001975,-0.0058038,-0.0040544,-0.0096381
-0.0047855,-0.0017015,-0.0099896,0.0024174,0.0032558,0.001803,-0.004516,0.013093
0.0038884,0.011324,0.0066155,-0.0059028,-0.010727,0.0018317,0.010816,-0.0033497
0.0047741,0.0012773,0.0076099,0.001595,-0.0011212,0.0020776,0.0029402,0.0036593
-0.0022284,-0.015981,0.00067164,0.0015459,-0.0072325,0.0024953,-0.012512,-0.0048213
0.0062246,0.014342,0.0012986,0.0096079,-0.0058592,-0.0047903,0.011292,0.0025529
0.0066116,0.0062754,0.0015706,-0.0054862,0.018433,0.0035931,-0.0038588,0.0023973
-0.0011344,-0.0012658,-0.0063995,-0.0047388,-0.0047853,-0.0036576,-0.0033837,-0.0052833
-0.0092395,-0.00068928,-0.0070155,0.011752,0.010393,-0.0031355,0.0047992,0.002907
-0.0098899,-0.02348,-0.00025088,-0.010812,-0.006282,-0.0026584,-0.010644,0.0034535
0.012588,0.016106,0.013979,0.0055999,-0.0077864,-0.0022119,0.0049292,-0.0037398
-0.0042089,0.00076974,0.012376,-0.0015768,-0.0095332,0.0060385,-0.0031717,0.004669
0.0023524,-0.0069986,-0.020505,-0.0089239,0.0043474,0.0064834,0.011969,-0.0026464
0.0011754,0.00070115,-0.014151,-0.0086094,-0.0049719,-0.0008784,-0.0042621,-0.010105
0.0002235,0.0083987,0.0081976,0.0072217,0.01738,0.0073697,-0.004894,0.0057255
-0.0081909,-0.022792,-0.00017432,0.0073615,0.0090028,-0.0078689,0.002364,-0.0020025
0.0072618,0.016653,0.0077024,0.0074537,-0.0066663,-0.0075668,-0.0058285,0.0058234
-0.00027136,0.0018045,0.01621,0.007482,0.0015324,0.00044043,0.0096695,-0.0019925
0.0082326,0.010756,-0.0059865,-0.0082267,-0.0056149,0.00052507,0.0020321,-0.0019693
-0.0063824,-0.0035054,-0.0043618,-0.0006701,-0.0048414,0.00051622,-0.00529,0.0059138
-0.0051849,0.0056739,-0.0025638,-0.0089556,-0.0041074,0.00044055,-0.004511,0.0060273
0.0038661,-0.0088344,-0.0086253,-0.0018359,0.004305,0.00032011,-0.0035097,-0.0094666
-0.0028045,-0.0081947,-0.0071167,-0.0026944,-0.0030694,0.00015775,0.0054242,-0.0015405
0.0059461,-0.00036218,0.0018161,0.0042021,-0.0027611,0.0077409,0.0065349,-0.0014767
-0.0011941,0.0068312,0.010275,-0.004442,0.0053003,-0.00041943,-0.00032393,-0.0014823
-0.008611,-0.0021248,0.010419,0.01058,0.0055686,-0.00095178,0.00032965,0.0062532
0.0071702,-0.019188,0.0022746,0.002503,-0.0018964,-0.0017277,-0.0072469,-0.0016944
-0.008466,0.0028134,-0.006279,-0.0051854,0.0063652,-0.0027756,0.0081279,-0.0018664
0.0070693,0.017309,-0.015137,0.0031146,-0.00091583,-0.004073,-0.00042177,-0.0020553
-0.00082762,0.01673,0.0070832,0.0038701,-0.00035327,0.0022753,-0.0093836,0.0055604
0.0069659,-0.006598,-0.0019676,-0.0030646,-0.0076378,0.00078143,-0.0029878,0.0053488
-0.00077582,-0.013606,0.0047378,-0.0022296,-0.0072047,-0.008382,-0.0044788,-0.010526
-0.0084419,-0.0044133,-0.0039175,-0.001588,-0.0069071,0.0062117,0.0097889,-0.0030348
-0.00045378,0.012952,0.0034101,-0.0090589,0.016677,0.0056471,0.00093698,0.012164
0.0074986,0.0069792,0.003321,-0.0012496,0.0088655,-0.0021764,0.008154,-0.0040099
-0.00027598,-0.0069655,-0.0042102,0.014049,-0.0068859,0.0061878,0.00023719,0.010954
-0.00039042,-0.013463,0.0041686,0.0056653,0.00069378,-0.00058113,0.00059037,-0.013206
-0.00067804,-0.012641,0.0048901,-0.002842,-0.0074402,0.00081827,-0.0065093,-0.006085
-0.016749,0.0032762,-0.01001,-0.011334,-0.0078391,-0.0054134,0.0022426,-0.0066198
0.02176,0.026516,-0.0016127,-0.0040514,0.015127,-0.0038324,-0.0045387,0.0087649
-0.017894,-0.0053319,-0.0012816,0.0034902,-0.0010434,-0.010224,-0.011339,0.0011261
0.012806,0.009411,0.01436,0.0035411,-0.0016613,0.0065435,0.0052088,0.0095954
-0.0032673,-0.015077,-0.0093752,0.011732,0.0054668,0.0073345,0.0060085,0.0029165
0.0042336,-0.00056601,-0.0099296,-0.0032387,-0.0030754,0.0077474,-0.0011334,-0.011189
0.0040541,0.006163,0.0128,-0.0024114,-0.0038087,-2.0374e-05,0.0072242,0.0061719
-0.003845,-0.0026194,-0.011372,-0.0093533,-0.0044828,-0.015931,-0.00016972,9.255e-05
-0.011714,-0.0034014,0.0036153,0.0070528,-0.0050204,-0.00086551,0.00011129,-0.014038
0.0038149,-0.011746,0.010984,-0.00017885,0.010279,0.013996,0.00023699,0.010443
0.011435,0.01145,0.0029753,-0.0076821,-0.0054047,-0.0025184,-0.0076184,0.010886
-0.0045083,0.003689,-0.0047837,0.00014401,0.0026275,-0.0034568,-1.295e-05,-0.012769
0.0028722,-0.0038253,0.0032888,0.0076941,0.010896,-0.0043683,-0.00035317,0.0020181
-0.0054324,-0.0033824,-0.019758,-0.00060484,-0.0041297,0.0026274,-0.00076721,-0.007116
-0.0058949,0.01268,-0.0037021,-0.0090589,-0.0035188,0.0019611,-0.0011754,-0.0087097
-0.0062194,0.0051235,0.020114,0.013653,0.012593,0.0092984,0.0063201,0.01311
0.0093211,-0.0027793,-0.0030772,0.0050915,-0.01059,-0.014401,-0.0016457,0.011708
-0.0060817,-0.0033281,0.012607,-0.011255,-0.010612,0.0011789,0.0062214,-0.01273
0.017894,-0.01217,-0.0031731,-0.0040989,0.0047473,0.001333,-0.0013231,0.0024002
0.003066,-0.0057768,-0.019153,0.0031543,-0.011275,0.0016514,-0.0086899,0.0024129
-0.0038064,0.00042423,-0.0040312,0.0027217,0.0118,0.002085,-0.00032564,0.010655
-0.0028693,0.0067086,0.01103,-0.0053688,0.0038381,0.002577,0.00023526,-0.012095
-0.0020753,-0.002249,-0.0051146,0.0023446,-0.0037649,0.003073,0.0085099,0.0042844
-0.0015216,0.012876,0.010139,0.0024382,0.004687,-0.0042802,0.00095834,-0.010701
-0.016865,0.0053768,0.0021833,0.0027219,-0.0020859,-0.0038744,-0.0068747,-0.0025012
-0.0011929,-0.0090855,-0.0055055,-0.0046418,0.0070342,-0.011323,0.00059299,0.013192
0.0065179,-0.0071808,0.0026905,-0.0040767,0.00058388,0.0046589,0.0077427,-0.010491
0.0063689,0.0030436,0.0032844,0.0043474,-0.0060635,0.012873,-0.016616,0.004648
0.021876,0.0056395,-0.011614,0.0049232,0.0024802,-0.0022593,0.013562,0.0040379
-0.009429,0.0080641,0.004779,0.0053809,-0.0052045,0.0061675,-0.0031461,-0.0043749
-0.0016342,-0.0056335,-0.0023074,-0.0099708,0.002071,-0.0087223,-0.011901,0.0029693
-0.0016786,-0.012255,0.0061225,-0.0021042,-0.00688,-0.0079012,0.010864,-0.0050929
-0.0096371,-0.0040984,-0.0090355,-0.0022619,-0.0084407,0.00075022,0.0027333,0.0027237
0.0056873,0.01106,0.0068905,0.0052339,0.00546,0.0093266,-0.0050305,0.010772
-0.0104,-0.0056671,-0.00078046,0.0048486,0.0038576,0.0099094,0.0031321,-0.01227
-0.0031665,0.0084958,-0.00077554,-0.011119,0.010443,-0.01323,0.0036455,-0.0040142
0.0040379,-0.0086273,0.0069375,-0.0034972,0.0097641,0.0023237,-0.0036766,0.011979
0.0035038,-0.0098539,-0.0088555,0.0043563,-0.0059297,-0.0059766,0.012219,-0.0034649
0.010946,0.01286,-0.0012451,0.012473,-0.013251,0.0009313,-0.01133,0.0042622
0.010792,0.012747,0.0063606,-0.0026147,0.0032796,-0.00033779,0.0037165,-0.0039269
-0.0047652,-0.0024107,-0.0016424,0.0058818,-0.0034132,0.005942,-0.0051203,-0.012372
-0.020137,-0.0093422,-0.0096187,-0.0090409,0.0055146,0.0042847,-0.014267,0.0024571
-0.0041355,0.0073194,0.013679,-0.0084616,-0.0013827,-0.0051485,-5.4327e-05,0.0016278
0.011923,0.00040682,-0.0098875,0.0074959,-0.00081135,0.0012459,0.0065483,0.0087206
0.0045463,0.0087234,0.013407,-0.000311,-0.00065824,-0.0076313,0.0058139,0.00042328
-0.010678,-0.022585,-0.0024003,-0.0084652,-0.00092462,-0.00041371,0.0057584,0.00025646
0.0052966,-0.0076194,-0.010458,0.014325,0.0062658,-0.00047524,0.014282,0.00043413
-0.0022249,-0.0087825,-0.0029626,-0.0099691,-0.010226,0.0078058,-0.0077244,-0.0068872
-0.0019966,0.01319,0.0044662,-0.0030959,0.0044197,0.00091614,-0.013559,0.0016528
0.013782,0.019493,0.0040396,0.011644,0.0034596,0.0021513,-0.0034859,0.010325
-0.0017888,0.00256,0.0036079,-0.0046941,-0.0051893,0.0035107,0.01438,-0.012226
-0.0096808,-0.0061735,-0.0045954,0.0026601,0.0097871,-0.0030215,-0.0071264,0.0042206
-0.002121,-0.0066191,-0.004897,-0.0053245,-0.0062807,-0.0020017,-0.005739,-0.0028915
0.0052308,0.009021,0.010561,0.0025812,0.0012724,-0.0091815,-0.0050403,-0.0023338
-0.0032709,-0.0062298,-0.0050615,0.0028733,0.0011488,-0.0089856,0.0027361,-0.0019096
0.0036242,-0.0056529,-0.0048653,0.0032666,0.0011084,0.014243,0.0098269,0.0062186
-0.0053085,-0.0050449,-0.0044702,-0.0041613,0.0011144,-0.0018939,0.0085484,-0.0013634
0.0090457,0.0032552,0.0039217,-0.0117,-0.014464,0.0052492,-0.00091246,-0.0012135
-0.0001106,0.019145,0.012462,0.0040115,0.0090936,0.0045812,-0.010521,0.0066467
-0.0014271,-0.012099,0.0054727,0.0038683,0.0015367,-0.0037554,-0.0044176,0.0065471
-0.0026004,0.0033055,-0.0092962,0.011308,-0.0058076,-0.0040317,-0.0058162,-0.0093787
-0.011321,-0.020483,-0.008468,0.0029325,-0.0050606,-0.0040082,0.0089081,-0.0021088
0.0037717,0.018237,-0.0077172,-0.021182,0.01162,0.0041221,0.00081821,0.0049165
0.0036992,-0.0053834,0.0085473,0.0015669,0.005146,-0.0031385,0.0012066,-0.0038761
0.0041232,-0.0052731,0.0012423,0.00098139,0.0066769,0.0053528,0.0022082,-0.0049387
0.012835,0.010837,0.0016019,0.0084223,-0.0073716,-0.0017934,0.003678,-0.0059276
-0.0093074,-0.0039206,0.0096058,0.00054007,-0.013746,0.0065207,-0.0024152,0.0011429
6.6713e-05,0.0050716,-0.0060261,0.00082089,-0.0048282,-0.0089081,-0.00070575,0.00079943
-0.013887,0.014238,-0.0062691,-0.0063598,0.011397,0.0065034,0.00073496,0.016571
0.0033562,-0.0078492,0.0010272,0.010199,0.003553,-0.0019776,-0.013935,0.0015885
0.0047778,-0.022303,0.0080287,-0.012093,0.0028301,-0.0030728,0.0098326,0.0026372
0.0058924,0.0019855,-0.00088245,0.0047682,0.009249,0.0033229,0.001682,-0.0038855
-0.0011781,0.010255,-0.0022207,-0.0018473,-0.016146,-0.0060581,0.00073547,-0.010375
-0.0086379,0.002504,-0.011519,-0.0008152,-0.0028533,-0.0075699,-0.0006706,-0.0092229
0.0069811,-0.013391,-0.0052112,0.0077604,-0.0053077,-0.0010028,-0.010136,0.0072204
-0.0011231,0.0095512,0.016855,0.00037172,0.00021518,0.013813,0.00383,0.0076145
0.0062171,0.0011356,0.0079537,-0.007385,0.0061817,0.0057245,0.0023946,-0.0080491
-0.0099387,0.00052499,-0.016167,-0.0076824,0.0050049,0.0059824,0.0091777,-0.00064148
-0.0025943,0.0077816,0.0070697,0.0073465,0.0046313,-0.008941,0.00085054,0.0065214
-0.0029007,-0.0005154,-0.00044594,0.0065356,0.005081,-0.00014267,-0.0069398,0.0057764
0.0048232,-0.0087645,0.00030248,-0.0022037,-0.0093661,-0.0068768,-0.0064415,-0.0027278
0.0049508,-0.0013887,0.0014004,-0.0031476,0.0001624,0.001925,0.010031,-0.011056
0.00523,-0.0018781,-0.0051078,0.0037883,-0.0056458,-0.0051236,0.0032505,-0.0035061
0.0055432,0.0053521,-0.0037625,-0.0047734,-0.0036205,0.0031575,-0.011334,0.012132
-0.0098805,-0.0031518,0.0052703,-0.0053658,0.005995,-0.0044821,-0.0026287,0.0045746
-0.0021174,0.0038704,0.014032,0.0020089,0.0073895,0.0032651,0.0058161,0.0049883
-0.0025116,-0.0047988,-0.016648,0.017321,0.00045577,0.010867,-0.0016824,-0.010178
0.0045431,-0.0056775,-0.0008889,-0.0063503,-0.0070137,-0.0050086,0.013942,-0.0097942
-0.00432,0.0090929,-0.0011884,0.0012579,-0.0071439,0.0026076,-0.0097523,0.0060319
-0.0055097,0.0083009,0.0059527,-0.014576,0.00019103,-0.0052731,-0.01016,-0.0018345
0.0011845,-0.00021324,0.012835,0.00082843,0.0073392,0.0026478,0.0050377,0.0056404
0.00036266,-0.0086175,-0.019454,0.0084358,-0.0089765,0.002959,0.0047251,-0.0027766
0.0078407,-0.0090803,-0.0048099,0.00048961,0.01387,-0.012142,-0.0031708,0.0042228
0.00029515,0.0062379,0.010056,-0.007314,0.0056371,0.012029,-0.0029531,0.003291
0.0089843,0.01394,0.0096542,0.00071518,-0.010235,-0.002669,0.0053925,-0.0054609
-0.01307,-0.0093583,-0.0059256,0.0011776,0.0052627,-0.017205,0.0061934,-0.0062894
0.0042472,-0.0010998,-0.0054043,0.0096908,-0.0026451,0.0074242,-0.00065115,0.00091712
0.0059951,-0.015925,-0.0044435,0.0027566,-0.0028024,0.0086262,0.00035045,0.0084354
-0.0080875,0.00086815,0.0046695,-0.011923,-0.0030919,0.0097103,-0.0065657,-0.0071212
0.00084317,0.017996,0.006159,-0.0032402,-0.0035417,-0.005103,-0.0058908,0.0011226
0.0014015,0.0041107,-0.0001575,0.0052162,0.0036816,0.0030904,0.0023025,0.0018595
-0.0064429,0.0059273,0.0089693,0.013319,-0.0047974,-0.0049017,-0.0054431,0.0027906
-0.0069913,-0.008006,-0.021312,-0.010255,0.01017,-0.0057078,0.0099645,0.0037627
-8.9159e-05,-0.0066469,0.010447,-0.0030063,0.0017953,0.00069726,0.0017145,-0.0032081
0.0066456,0.0020224,0.0026417,-0.003911,-0.0064118,-0.0089967,0.0011373,-0.0026578
0.013401,0.0022874,-0.013443,0.010633,0.0090299,0.0044907,-0.0073136,-0.0025186
-0.0031185,-0.0058348,0.0013574,-0.021654,0.0012611,0.002373,0.0076757,0.0049682
-0.0037811,-0.006591,0.00031816,0.0010233,-0.0062856,0.00056285,-0.00072598,-0.0036083
0.0035981,0.0080484,0.0070411,0.016365,-0.0058132,0.0071197,-0.0012439,-0.0047043
0.0033373,-0.0085306,0.013863,0.001056,-0.0051515,-0.0012314,-0.0016799,0.0018504
-0.0046414,-0.0013934,-0.010359,0.0097959,0.0034948,-0.0010029,-0.0020321,0.0006362
-0.0047765,0.0061964,-0.003068,-0.004393,0.0044781,-7.581e-05,-0.0023037,-0.00032993
-0.0049018,0.014295,-0.0033224,-0.0026478,0.0055724,0.0013787,-0.0025041,0.0069318
-0.012799,0.0072001,0.0044668,-0.008662,-0.0010997,0.0031211,0.005159,-0.0009153
0.010669,0.0003386,0.0046161,0.0085537,-0.0078214,-0.010737,-0.002787,0.0073963
0.010902,-0.022183,-0.010751,-0.013717,0.0009101,0.0064385,0.012668,-0.015074
0.0035973,0.0096763,-0.0026279,0.0025164,0.0093365,-0.00021776,-0.0032265,0.0018486
-0.0034142,-0.0058558,0.013321,0.0025305,0.0017119,-0.0073594,-0.0036559,0.0032964
-0.0023686,0.0014439,-0.009805,0.0020092,0.0013944,0.00064197,0.0035298,0.0046984
-0.0011956,-0.0074344,0.0061077,0.0010851,-0.0072526,0.00043478,-0.0051007,-0.0019359
0.0077506,-0.016681,-0.0014514,-6.7676e-05,-0.0085299,-2.6743e-05,0.0017669,-0.001114
-0.0069643,0.02085,-0.0090593,-0.0012681,-0.0022769,0.0072322,-0.0069942,-0.0085281
0.0013702,0.0038926,0.0066965,0.0054543,0.0039216,0.0067337,-0.0077791,-0.0007337
-0.0064175,0.0030088,0.0067192,0.0045879,0.0025091,-0.0092315,0.007405,0.014533
0.00089344,0.0027222,-0.0012163,-0.011619,-0.0062799,-0.0015588,-0.00035216,-0.0016589
0.0077384,0.0030509,0.0062994,-0.0040977,0.0089672,-0.0093329,0.008095,-0.010089
-0.0091789,-0.0039252,-0.0019862,0.011493,0.009241,0.014244,0.0092938,-0.002786
-0.0027852,0.0050309,-0.010412,0.003839,-0.0055296,0.0065585,-0.0046911,0.0047512
0.0037019,-0.0093839,-0.011087,-0.011513,0.0035351,-0.0090727,-0.0028247,-0.0030319
0.010485,-0.0083315,-0.0038987,-0.003391,0.0049293,-0.0014994,-0.0010028,0.012926
-0.0057243,0.0002136,0.011272,0.0046975,-0.0094329,0.0057901,-0.0073144,0.0056764
0.0020212,-0.00726,0.011084,-0.0029277,-0.0085328,-0.010625,0.0014468,-0.0092851
0.0024559,0.016138,0.0033936,0.012757,-0.0003239,0.0040331,0.0095118,-0.00086632
-0.012328,0.00017736,-0.0040123,-0.0029598,-0.00045496,-0.0047751,-0.014402,-0.0082797
0.012199,-0.0081467,0.0043976,-0.01102,-0.0010217,0.0021943,0.00010086,-0.00038448
