-0.043913,0.021147,-0.12272,0.34929,0.042447,0.011781,0.012366,0.026289
0.081637,0.085565,0.44143,0.21678,0.051579,0.027056,0.027653,0.050476
-0.027091,-0.031265,0.0048172,0.064403,-0.010293,-0.0050079,-0.0035771,-0.08257
-0.0028871,-0.063766,-0.78984,-0.81947,-0.088641,-0.037504,-0.018842,-0.0056852
-0.002022,0.027359,0.49072,0.38572,0.019619,-1.5941e-05,-0.010387,3.2215e-05
-0.0089532,-0.015228,-0.14153,-0.17047,0.0098955,0.013877,0.00608,-0.026042
0.015235,0.020043,0.50471,-0.009747,-0.00040296,0.0043851,0.0070305,0.072756
0.054727,0.055731,0.080462,0.42443,0.043713,0.010789,0.0080048,0.023417
-0.070355,-0.07942,-0.11643,-0.23363,-0.021487,-0.013595,-0.014506,-0.072141
0.069538,0.091617,-0.071012,0.087107,0.02306,0.025118,0.017571,0.036304
-0.088128,-0.055913,-0.29297,-0.06673,-0.0098914,-0.013625,-0.0051665,-0.018386
-0.027632,-0.029825,0.019851,0.12407,-0.065484,-0.020451,-0.020224,0.00586
0.048116,-0.010054,-0.088317,-0.20929,0.0126,0.0045742,0.01929,0.022855
0.02222,0.018547,0.22385,0.13463,0.028998,-0.0089883,-0.011594,-0.030234
0.0043521,0.016257,-0.13171,0.11557,0.0069697,0.0089952,-0.0034751,0.018122
0.010379,0.044799,0.19473,-0.25898,0.024352,0.019239,0.012412,-0.012068
0.017002,0.017438,-0.28284,0.066394,0.026092,0.021493,0.012619,0.0039941
-0.06169,-0.07433,0.61385,-0.031642,-0.042876,-0.023554,-0.010706,-0.0040831
-0.014836,0.011216,0.0010543,-0.43366,-0.034424,-0.022363,-0.010748,-0.020623
-0.014459,-0.046366,-0.55888,0.48759,-0.034662,-0.014132,-0.0032007,0.017032
0.095507,0.050053,0.17725,0.24935,0.065793,0.032356,0.011882,0.015358
0.018003,0.051096,-0.46788,-0.093126,0.032752,0.02343,0.018853,0.021476
-0.067428,-0.12827,0.4781,-0.048296,-0.063144,-0.048541,-0.02914,-0.034701
0.003205,0.067712,-0.10539,0.02283,0.036324,0.019824,0.0086041,-0.0045661
-0.027889,0.054127,0.37988,-0.10065,-0.027813,-0.0055587,-0.0084116,-0.0052106
-0.02779,-0.082228,-0.65616,-0.092688,-0.0052215,-0.0072228,-0.0019027,0.0024402
0.050528,0.049808,0.13246,-0.11104,0.04961,0.038491,0.01267,0.041755
0.03533,0.012871,0.49598,0.0077016,-0.0039197,-0.016728,0.0041921,-0.020217
0.0048073,-0.013641,-0.051775,-0.095696,-0.06441,-0.032245,-0.019451,-0.035217
-0.041076,-0.038211,-0.0064403,0.5092,0.031873,0.015265,0.012043,0.035626
0.038162,0.024143,-0.33334,0.034326,0.018853,0.016212,0.0048219,-0.003164
-0.070191,-0.015178,0.10377,-0.35528,-0.01022,0.0015547,-0.002232,-0.011063
0.01645,0.030237,0.098306,0.020897,0.014505,-0.005578,0.0062832,-0.003708
0.063529,-0.028021,-0.31255,-0.13337,-0.0088674,-0.0054557,-0.0011015,0.01899
-0.022789,0.11416,0.26182,0.64347,0.044543,0.040817,0.014515,0.010343
-0.0080882,-0.12145,-0.30193,-0.52293,-0.082926,-0.046462,-0.040673,-0.045012
-0.032822,0.14054,0.26465,-0.17864,0.0075853,-0.0093214,0.013093,0.025091
-0.042032,-0.30212,-0.074309,0.2241,-0.003597,-0.0036958,-0.0036795,-0.021269
0.042719,0.075243,0.12152,-0.10299,-0.01417,-0.02136,-0.012585,-0.004235
0.12796,0.18801,0.4633,0.40297,0.10155,0.078731,0.033551,0.037145
-0.14552,-0.12673,-0.73598,-0.34425,-0.093468,-0.054663,-0.021282,-0.0066818
0.019155,0.022304,0.12435,-0.42401,-0.028793,-0.0073414,-0.0050889,-0.0032746
0.067132,0.13514,0.15953,0.46613,0.092164,0.056542,0.035207,0.039037
-0.087849,-0.09361,-0.18773,0.51842,0.08124,0.019485,0.0056444,-0.052196
0.014734,0.014495,0.29855,-0.18462,-0.070294,-0.040858,-0.0081763,0.035005
0.093213,-0.0030776,-0.07944,-0.27105,-0.058737,-0.015636,-0.022268,-0.043462
-0.048056,-0.077593,0.02806,0.20249,-0.017746,-0.022494,-0.013543,0.0013618
-0.0029695,0.11003,-0.23927,-0.70953,0.013094,0.016404,0.017762,0.013408
-0.013616,-0.23772,-0.38146,-0.0054191,-0.028825,0.0072487,-0.014353,-0.030318
-0.048378,0.28558,0.39908,0.38066,0.059938,0.012718,0.023042,0.058315
-0.0051071,-0.061336,0.40822,0.13261,-0.0090233,-0.013685,-0.010396,-0.032481
-0.0081065,-0.097159,-0.063594,0.051423,-0.016102,-0.016769,-0.012716,0.010462
0.1386,0.070781,-0.14772,0.12465,0.070863,0.043066,0.024318,-0.0076412
-0.041072,-0.024105,0.094871,0.11176,-0.012926,-0.0055718,-0.0082851,0.030698
-0.039118,-0.13773,-0.36539,-0.37781,-0.08713,-0.037332,-0.024314,-0.038534
-0.043184,0.059293,-0.2609,-0.16563,0.0049155,0.0026397,0.031039,0.01102
0.063465,0.16104,0.3246,-0.12093,0.044621,0.036182,0.0092815,0.022707
0.030148,0.080811,0.25276,0.84002,0.078775,0.031815,0.003951,-0.027448
-0.042354,-0.14417,-0.029067,-0.54244,-0.11167,-0.057716,-0.016535,0.024037
-0.061044,-0.10249,0.34786,0.074395,-0.01157,-0.029753,-0.036942,-0.042127
0.043793,0.0075009,-0.41244,-0.20018,0.0035139,0.013654,0.012662,0.023633
0.021802,0.20631,-0.27082,-0.17004,0.057965,0.040819,0.030397,0.0023041
0.060422,0.15571,0.20157,0.72877,0.12776,0.06704,0.039496,0.0188
-0.090124,-0.39548,-0.72379,-0.2209,-0.15478,-0.079739,-0.053864,-0.028357
-0.062185,-0.08774,0.41075,-0.51784,-0.13378,-0.087032,-0.038677,-0.021755
0.0511,0.06482,0.80361,-0.15391,0.081162,0.060925,0.022738,0.01548
0.070684,0.20544,0.042675,0.54181,0.083704,0.044072,0.036891,0.044631
-0.049754,-0.18606,-0.19861,0.12181,-0.055863,-0.051354,-0.035,-0.027725
0.04172,0.19832,0.32431,0.80164,0.21718,0.10306,0.049498,0.033062
0.009312,0.11138,-0.71996,-0.77369,-0.1674,-0.070611,-0.029765,-0.04625
-0.084555,-0.24188,-0.71422,-0.41168,-0.092272,-0.033166,-0.022726,-0.007729
0.072371,0.0064314,0.28269,-0.3403,0.067828,0.05137,0.039329,0.023661
-0.074946,-0.12072,0.097891,0.0034328,-0.077335,-0.035768,-0.031216,-0.038061
0.059068,0.29701,0.80249,0.57475,0.074288,0.017883,0.023303,0.056976
-0.049344,-0.055145,0.15516,0.50962,0.054469,-0.0064607,-0.016009,-0.066437
0.037096,-0.21887,-0.80586,-0.53248,-0.034772,-0.0072428,-0.0008113,0.044548
0.083923,0.41271,0.41578,-0.0256,0.056887,0.070252,0.045445,0.061504
-0.096306,-0.34203,-0.53078,-0.20296,-0.11574,-0.086418,-0.049034,0.015408
-0.058073,-0.046603,0.36758,0.099198,-0.037108,-0.039673,-0.041887,-0.14078
0.089578,0.15847,0.94184,0.68397,0.12065,0.085561,0.059302,0.046047
0.0033018,0.13374,-0.54852,-0.35717,0.060258,0.023704,0.0047724,-0.0098674
-0.066495,-0.43133,-0.67987,-0.49513,-0.18751,-0.061187,-0.033414,-0.019141
0.013313,-0.050048,-0.61325,0.073545,0.10344,0.026139,0.03076,0.042054
0.11005,0.59212,1.0859,0.74765,0.13588,0.066822,0.033175,0.072509
-0.14357,-0.55828,-0.49754,-0.29872,-0.23104,-0.1346,-0.073251,-0.091625
-0.0057401,0.35818,0.23823,-0.40545,-0.012947,-0.0079571,0.00021655,-0.028459
0.13233,0.13718,-0.06535,-0.86465,0.10281,0.087194,0.057859,0.10556
0.012089,0.010884,1.03,0.74227,-0.0084884,0.010061,-0.010121,-0.033695
-0.0078312,-0.03895,-0.56129,0.81671,0.083108,0.026087,0.0068446,0.029908
-0.16239,-0.45215,-0.16699,-0.43012,-0.16908,-0.11491,-0.063377,-0.11029
0.13408,0.2933,-0.27091,0.38167,0.13344,0.079116,0.03693,0.076707
-0.048031,-0.19336,-0.5827,-0.25371,-0.032887,-0.0091322,0.010968,-0.026341
-0.12231,-0.12196,0.18106,-0.28919,-0.10577,-0.074971,-0.062898,-0.044251
0.13852,0.14224,0.82783,0.017426,0.21925,0.1317,0.08132,0.062401
0.0008919,0.17945,0.14955,0.48021,-0.097013,-0.068566,-0.01689,-0.01062
0.043605,0.21787,-0.63269,-0.82605,0.09396,0.074578,0.041339,0.01837
-0.076672,-0.24965,0.1154,0.30214,-0.28557,-0.16497,-0.10298,-0.030004
0.0073131,0.089035,0.64428,-0.0062983,0.061947,0.025803,0.011388,-0.007181
0.092171,-0.0016334,-0.62454,-0.057226,0.098293,0.11615,0.079947,0.071132
-0.13509,-0.19498,-0.48879,-0.28813,-0.14444,-0.12009,-0.084735,-0.076572
0.2703,0.46099,0.87866,0.83952,0.49842,0.27828,0.15791,0.13529
-0.32492,-0.62771,-0.89815,-0.63785,-0.48073,-0.30589,-0.16882,-0.18426
0.032224,0.11007,0.87523,0.67245,0.12093,0.06475,0.0364,0.050465
-0.02531,-0.2769,-0.64578,-0.42622,-0.12706,-0.039815,-0.031361,-0.020018
0.18261,0.58104,0.78008,0.49954,0.24291,0.13779,0.088581,0.07313
0.015987,0.11605,-0.23104,-0.0403,0.088937,0.042405,0.013195,0.025465
-0.087044,-0.23259,-0.35994,-1.0436,-0.19174,-0.060821,-0.031131,-0.061114
-0.0087986,0.043556,-0.029586,0.95425,0.0015236,-0.094149,-0.036695,0.0012492
-0.15532,-0.3688,0.12625,-1.041,-0.27704,-0.12037,-0.066056,-0.076224
0.12168,0.20789,-0.26827,0.47118,0.20691,0.12591,0.060449,0.058159
0.040372,0.051704,0.012626,-0.24126,-0.015053,0.011666,0.0068567,0.0215
0.19364,0.49493,1.0385,0.55145,0.24507,0.16166,0.07779,0.071301
-0.068009,-0.13774,-0.49608,0.11005,-0.020046,0.0052671,0.0075202,0.027379
-0.16738,-0.54414,-0.63055,0.38961,-0.10683,-0.12965,-0.079074,-0.11864
0.082456,0.29817,0.46344,-0.062229,0.031997,0.022391,0.02887,0.054618
-0.20135,-0.49288,-0.23642,-0.472,-0.15779,-0.11657,-0.067057,-0.093756
-0.080733,-0.18846,0.11594,-0.77726,-0.14436,-0.061674,-0.038563,-0.06377
0.35941,0.97243,0.54733,0.82722,0.2996,0.18009,0.12246,0.16829
-0.19218,-0.45227,-0.83657,-0.55565,-0.16887,-0.10122,-0.083617,-0.084612
0.19535,0.21967,0.038848,0.59162,0.2322,0.17351,0.10921,0.11561
-0.016215,0.18493,0.19292,-0.35426,-0.074839,-0.057422,-0.033104,-0.043022
0.032899,0.09987,0.33106,-0.0020359,0.097718,0.089301,0.052154,0.057127
-0.27452,-0.78635,-0.67942,0.26435,-0.26589,-0.22212,-0.15053,-0.16179
0.092378,0.42345,1.0341,0.12142,-0.002015,0.031562,0.030729,0.050356
-0.14053,-0.45942,-0.90065,0.55648,0.044906,-0.040789,-0.029201,-0.079945
0.15084,0.16578,0.38446,-0.35801,0.022415,0.052253,0.04443,0.087677
0.17632,0.42364,0.20177,-0.6038,0.17943,0.13784,0.087154,0.091823
0.036277,0.14217,-0.018862,-0.36409,-0.02428,0.027383,0.020308,0.025591
-0.34865,-0.58486,-0.35363,0.2976,-0.23048,-0.2099,-0.1411,-0.18991
0.23144,0.35195,0.15541,0.40635,0.20836,0.15949,0.094541,0.12427
-0.13036,-0.062953,-0.23334,-0.43244,-0.13786,-0.099353,-0.062252,-0.063719
0.050218,-0.063786,-0.0079312,0.31754,0.020141,0.0058176,0.0055802,0.019294
0.36752,0.55296,0.11203,0.67716,0.37862,0.21004,0.15765,0.18596
-0.57564,-1.0011,-0.6775,-0.83336,-0.55297,-0.3292,-0.23044,-0.2897
0.042827,0.17318,0.99112,0.2893,-0.045953,-0.032162,-0.017164,-0.00044758
0.060917,0.12355,-0.27393,-0.085745,0.14404,0.1185,0.07193,0.062738
0.18369,0.41285,0.88282,-0.3564,0.12039,0.09296,0.053408,0.072935
0.045401,-0.092054,-0.8034,0.14079,0.071597,0.0483,0.037298,-0.0079622
-0.032956,-0.040732,0.071905,0.25589,0.0053189,-0.023279,-0.023061,0.047108
-0.12973,-0.028794,0.028768,0.049256,0.0061826,-0.052286,-0.034186,-0.082228
0.17591,-0.066279,-0.62429,-0.37221,0.048493,0.10041,0.081357,0.095616
-0.17235,-0.085002,0.28095,0.55155,-0.19081,-0.16861,-0.10708,-0.084433
0.050171,0.054106,-0.0084553,0.35757,0.059036,0.052853,0.02448,0.0014122
0.036966,0.13945,0.23961,-0.9867,-0.16504,-0.033606,-0.01708,0.008214
-0.1353,-0.39896,-0.28937,-0.49733,-0.028356,-0.061778,-0.044925,-0.057181
0.087126,0.31511,0.6758,0.7713,0.27352,0.14769,0.09684,0.062423
-0.046151,-0.052483,-0.13325,0.085455,-0.11815,-0.076788,-0.052766,-0.047251
-0.019371,-0.21069,-0.87596,-0.13256,0.032298,0.015561,0.0064767,0.020204
0.29301,0.73297,0.99917,0.87485,0.1953,0.15242,0.1031,0.12463
-0.24095,-0.83721,-0.56491,-0.82307,-0.25229,-0.16491,-0.1061,-0.13172
0.075146,0.54082,0.7046,-0.13434,0.011656,0.0024078,0.020097,0.03319
-0.046495,-0.085198,-0.37005,-0.10004,0.020046,0.022837,0.013597,0.003033
-0.20605,-0.18309,-0.45577,0.41864,-0.17889,-0.11815,-0.10151,-0.096383
0.30883,0.1155,-0.021188,-0.24352,0.25958,0.15061,0.10508,0.12627
0.10101,0.33557,-0.040603,0.085248,0.25002,0.1968,0.11827,0.085587
-0.4691,-0.96637,-0.057895,0.062246,-0.52,-0.38567,-0.24904,-0.2572
0.12249,0.12538,0.31944,0.033504,0.16004,0.09046,0.058046,0.082318
0.32102,0.69766,0.37159,-0.20069,0.19566,0.16366,0.10979,0.13511
-0.19463,-0.40634,0.27298,0.2312,-0.22666,-0.1279,-0.062882,-0.091555
-0.019784,0.47494,-0.3146,0.091923,0.02471,-0.0040947,-0.0074228,-0.012532
0.14031,-0.19428,-0.77281,-0.59786,0.096948,0.12754,0.080025,0.082179
-0.16212,-0.16234,0.67747,0.47889,-0.19095,-0.19526,-0.12183,-0.11307
0.14088,0.22797,0.17299,-0.026131,0.22224,0.12001,0.073505,0.072718
-0.030713,-0.076613,-0.75888,-0.57255,0.038414,0.056714,0.016685,0.006115
-0.076373,0.044279,0.63726,0.83834,-0.07936,-0.057718,-0.027322,-0.039753
-0.035157,-0.29407,-0.32594,-0.39147,-0.022408,0.0030404,-0.0041357,-0.010132
-0.0466,-0.23092,-0.28578,-0.26123,-0.14256,-0.081065,-0.038651,-0.021792
0.15691,0.44914,0.63929,0.99314,0.2323,0.10477,0.064951,0.097831
-0.10963,-0.16111,0.20087,-0.42789,-0.21743,-0.14145,-0.075315,-0.080114
-0.007723,-0.124,-0.54266,-0.38605,0.11091,0.087844,0.033743,0.0076985
-0.035277,0.11495,-0.76605,0.14162,-0.031361,-0.018518,-0.028744,-0.036498
0.19179,-0.086791,0.63753,-0.59986,0.036768,0.063998,0.06618,0.084568
0.0096402,0.54749,0.69635,0.90438,0.058673,-0.015442,-0.024716,-0.011843
0.073764,0.33054,0.10972,0.0019612,0.12124,0.11846,0.089339,0.080285
-0.18766,-0.7791,-0.31441,-0.60363,-0.30611,-0.18283,-0.09967,-0.10824
-0.065516,-0.098195,-0.26844,0.63831,0.097404,0.025643,0.0093721,-0.02326
0.063471,0.17297,-0.07717,-0.53977,0.035187,0.0090453,0.0096658,0.030114
-0.1535,-0.4234,-0.39264,-0.4988,-0.15664,-0.084615,-0.060218,-0.057737
0.25957,0.43719,0.59507,0.66433,0.30328,0.18968,0.096277,0.11164
-0.0096646,0.088492,-0.15514,0.4822,-0.069428,-0.06664,-0.044364,-0.0318
-0.14799,0.08442,-0.21606,-0.46263,-0.11079,-0.041058,-0.021057,-0.05796
-0.084046,-0.33237,0.056545,0.3991,-0.063227,-0.077239,-0.044431,-0.036679
0.19893,0.33947,0.12425,-0.39997,0.096283,0.12177,0.081176,0.10275
-0.032519,-0.32001,0.187,-0.042691,-0.046988,-0.061274,-0.026786,-0.022297
0.003413,-0.043087,0.03448,-0.32444,-0.033065,0.037471,0.030188,0.017841
0.033399,0.24258,0.26552,0.29392,0.05865,0.0034914,-0.0058939,0.027574
0.033744,0.046513,-0.18703,0.27392,0.11726,0.047111,0.02081,-0.0091416
-0.066333,-0.020639,-0.17929,0.071638,-0.030695,-0.02765,-0.007434,-0.022434
-0.03292,0.0028793,-0.088608,-0.20426,0.043111,0.0052099,-0.013048,-0.07513
-0.12412,-0.19502,-0.24139,0.29479,-0.084009,-0.057722,-0.035491,0.004525
0.097514,0.01855,0.36137,-0.10756,-0.076087,-0.0054067,0.018853,0.036945
0.030611,0.065223,-0.25265,-0.886,-0.010228,-0.0013872,-0.021712,-0.0088465
-0.0042525,-0.17278,-0.0045903,0.75573,-0.064191,-0.013561,-0.0082905,0.039353
0.047801,0.30349,0.20262,-0.49999,-0.0088866,0.0059548,0.012865,0.0021154
0.046112,-0.14813,-0.73667,-0.24381,0.13487,0.058087,0.026761,0.027964
-0.095596,0.14221,0.85911,0.44648,-0.0057509,-0.0049841,0.0026189,-0.039488
-0.081082,-0.13256,0.011682,0.41709,0.023583,-0.05812,-0.035942,-0.05997
0.19038,0.24395,0.30077,0.10809,0.176,0.1561,0.098414,0.083201
-0.16491,-0.3006,-0.42481,0.1701,-0.26844,-0.16787,-0.10261,-0.071475
0.055396,0.037236,0.4775,-0.15192,0.078779,0.062587,0.039994,0.037997
0.2102,0.14787,-0.093155,-0.32862,0.1839,0.14321,0.095819,0.12222
-0.2396,-0.28029,-0.75242,-0.050726,-0.24449,-0.20031,-0.131,-0.13916
-0.035707,0.067149,0.34757,0.0010716,0.049814,0.023837,0.0077617,0.0041197
-0.036551,-0.065091,-0.75445,0.2138,-0.15254,-0.066921,-0.050223,-0.041048
0.087309,0.25537,-0.094786,-0.63559,0.055257,0.043873,0.039386,0.046557
0.15763,0.20283,0.79211,0.042062,0.096567,0.091848,0.066516,0.064865
-0.19928,-0.33811,0.23126,0.52994,-0.018755,-0.10128,-0.08507,-0.15699
0.11129,0.19608,0.82741,-0.46263,0.086375,0.08293,0.046384,0.11612
-0.043051,-0.23338,-0.98134,0.056273,-0.023895,0.020319,0.023868,0.017351
-0.037478,-0.048661,-0.26736,0.42059,-0.067461,-0.031042,-0.011951,-0.031602
0.017912,-0.047308,0.36384,0.24122,-0.0053628,-0.055898,-0.0068103,0.015438
0.14541,0.40262,0.32954,-0.47841,0.067625,0.10109,0.061915,0.063616
-0.070398,0.03458,-0.68659,0.44639,0.063839,-0.030122,-0.048994,-0.075887
-0.1543,-0.51159,-0.10847,-0.43788,-0.14379,-0.083749,-0.059325,-0.044992
0.13477,0.52911,0.54061,0.64616,0.14586,0.11079,0.076963,0.077145
-0.11015,-0.43745,-0.93256,-0.56425,-0.16251,-0.10371,-0.078103,-0.069442
-0.037772,-0.24742,0.49855,-0.29921,-0.085301,-0.024586,-0.016746,-0.023873
0.188,0.41153,0.18056,0.43339,0.1979,0.12167,0.081736,0.081505
0.083312,0.46881,0.31812,-0.44008,0.031815,0.04657,0.038368,0.044444
-0.22608,-0.47454,0.043548,0.0037162,-0.16009,-0.1786,-0.1069,-0.13393
0.10443,0.33855,0.50283,0.23897,0.022547,0.025482,0.029633,0.047538
-0.1196,-0.68655,-0.72172,-0.4608,-0.059014,0.027184,0.026822,0.01954
0.032236,0.003943,-0.65719,0.74899,0.13576,0.038432,-0.0055134,0.0093008
0.036947,0.43268,0.62372,0.46987,0.16235,0.067638,0.026468,0.024862
-0.13661,-0.3697,-0.85597,-0.54229,-0.2917,-0.16634,-0.10407,-0.10588
0.37846,0.90114,0.97584,0.27866,0.2651,0.17988,0.14139,0.16332
-0.11375,-0.34064,0.028967,-0.69849,-0.12156,-0.035116,-0.011347,-0.027787
-0.059256,-0.086465,-0.4499,-0.27826,-0.16399,-0.077925,-0.055205,-0.102
-0.23994,-0.75653,0.15319,0.32769,-0.050905,-0.10578,-0.084542,-0.044472
0.27363,0.53462,0.56871,0.43066,0.36531,0.26339,0.15032,0.15994
-0.12773,0.048161,-0.17708,0.029126,-0.10307,-0.11922,-0.084979,-0.08258
-0.052712,-0.19673,-0.16845,0.05875,-0.1041,-0.050401,-0.016636,-0.029508
0.17157,0.39666,-0.10789,-0.83425,0.035024,0.05633,0.059087,0.069812
-0.21162,-0.39667,-1.0817,0.42562,-0.2157,-0.14192,-0.083653,-0.11974
0.071958,0.0010049,0.65906,0.40564,0.15281,0.082363,0.03236,0.043231
0.046023,0.17304,0.56524,-0.52254,-0.10073,-0.051232,0.0013038,0.020195
0.13205,0.39617,0.56341,0.45017,0.2583,0.17651,0.08889,0.069108
0.055518,0.17257,-0.15507,-0.21066,0.088672,0.078043,0.044845,0.072483
-0.20073,-0.52688,-0.3679,0.023804,-0.23601,-0.1987,-0.13921,-0.13442
0.1507,0.1293,-0.43825,0.46484,0.32137,0.15007,0.090693,0.10376
-0.20411,-0.7518,-0.57984,-0.82469,-0.35059,-0.14226,-0.078639,-0.11229
-0.15668,0.041117,0.3856,0.22751,-0.18322,-0.17034,-0.11648,-0.12701
0.21469,0.41705,0.19994,-0.3439,0.19756,0.1824,0.12533,0.1296
0.035475,0.26315,0.5979,0.39497,0.11209,0.056343,0.021782,0.024752
0.017551,0.24831,0.22834,0.11232,-0.14184,-0.087458,-0.0050694,0.011928
0.0058736,-0.21687,-0.16623,-0.25108,0.077974,0.087318,0.03728,0.0057503
0.079809,0.089475,-0.60113,0.61128,0.13288,0.042182,0.00077156,0.014683
-0.1267,-0.45596,-0.13811,-0.1441,-0.16262,-0.081552,-0.036054,-0.015312
0.012302,0.1315,0.16194,0.18494,0.10729,0.037174,0.013185,0.0022953
-0.096209,0.05425,-0.08896,-0.59077,-0.12641,-0.14777,-0.11667,-0.10387
-0.0064233,-0.32985,0.026836,-0.41814,-0.097386,0.012754,0.059238,0.041564
0.1647,0.53196,0.31024,0.21722,0.14747,0.12863,0.072579,0.056024
0.034266,0.12977,0.08553,0.1427,0.1075,0.03607,0.0096036,0.017687
-0.062172,-0.18691,0.59823,0.48268,-0.015423,-0.046272,-0.043634,0.020164
-0.14093,-0.25571,-1.0555,-0.50592,-0.12921,-0.079799,-0.063825,-0.10094
0.00018127,-0.36691,-0.68704,0.1598,-0.055934,0.012801,0.034571,-0.017986
0.22728,0.60391,0.80521,0.80596,0.22621,0.13673,0.086856,0.10436
-0.13261,0.086519,0.32611,-0.33515,-0.16676,-0.131,-0.087459,-0.05485
0.10703,0.15191,0.7872,-0.76502,0.10053,0.12267,0.10452,0.089723
-0.1092,-0.21431,-0.90869,0.28184,-0.081172,-0.087339,-0.080142,-0.071768
-0.055048,-0.58083,-0.75754,-0.63834,-0.17202,-0.065942,-0.0091409,-0.031783
0.011828,0.21046,0.55732,0.67298,0.10263,0.062148,0.028338,-0.0090966
0.12332,0.40351,0.47047,-0.061163,0.15043,-0.0069602,-0.037706,0.035587
-0.11017,-0.21914,-0.098164,0.1637,-0.04295,-0.037719,-0.026862,-0.022281
0.070417,0.16334,-0.24333,0.64823,0.15625,0.096229,0.046261,0.083514
-0.044566,-0.035523,-0.54343,-0.62079,-0.1577,-0.07256,-0.035962,-0.083902
0.022533,0.010911,0.13428,-0.40831,-0.047197,0.066326,0.055612,0.015099
-0.047893,-0.082414,0.74263,-0.14511,-0.028084,-0.017774,0.024815,-0.001883
-0.10722,-0.23992,-0.16473,0.36921,-0.077342,-0.11388,-0.089039,-0.033072
0.33633,0.7548,0.011995,0.17745,0.22638,0.13688,0.080982,0.11683
-0.17908,-0.80309,-0.010711,0.071525,-0.1175,-0.039959,0.0029033,-0.044559
0.040558,0.11697,-0.3364,0.11644,-0.0080488,-0.0051214,-0.043083,-0.0176
0.056349,0.43732,0.831,-0.075442,0.12439,0.099258,0.05119,0.025424
-0.2345,-0.55932,-0.67137,-0.19521,-0.15054,-0.1345,-0.074799,-0.1112
0.1203,0.42618,-0.58981,-0.01796,0.11966,0.019058,-7.1053e-05,-0.029398
-0.012317,-0.04111,0.15987,-0.77749,-0.1124,-0.011046,0.024853,0.14555
-0.069589,-0.30254,0.26507,0.66945,0.012322,-0.053024,-0.054806,-0.07881
0.10545,0.19053,0.38235,0.44412,0.16563,0.20608,0.15971,0.20356
-0.056545,0.0092497,0.17509,-0.44879,-0.26165,-0.20938,-0.15127,-0.17158
0.078228,0.051782,-0.39866,0.26852,0.13725,0.061181,0.020904,-0.055896
0.073155,0.14502,0.20995,-0.14261,0.019323,0.050352,0.052164,0.066292
-0.00076584,0.068337,-0.594,0.3592,0.11211,-0.021832,-0.048803,-0.031327
-0.15086,-0.35997,0.63858,-0.61542,-0.20054,0.0254,0.078124,0.05796
-0.064324,-0.024362,0.065573,0.35588,-0.011332,-0.018109,-0.019624,-0.016771
0.11839,0.15241,-0.35174,0.1247,0.094613,0.019934,0.0098675,-0.036036
-0.087103,-0.10304,0.074138,-0.69185,-0.16347,-0.13387,-0.1145,-0.014754
-0.024827,-0.047727,-0.5314,0.35914,0.16753,0.090433,0.044712,0.024183
0.16399,0.14769,0.12994,0.11318,0.079197,0.012465,0.0028911,-0.01272
-0.045054,-0.20318,0.78746,-0.31359,-0.09364,-0.017221,0.001758,0.038473
0.16706,0.30644,0.054855,0.19413,0.085036,0.14078,0.13438,0.075664
-0.15423,0.14494,-0.53055,0.92251,-0.042575,-0.24921,-0.25637,-0.16765
-0.049288,-0.25141,-0.13257,-0.53052,-0.016821,0.21784,0.24258,0.18242
-0.14405,-0.048583,0.17306,-0.84851,-0.16655,-0.083998,-0.033821,-0.14868
0.045517,-0.084578,-0.24176,0.25419,-0.0073745,-0.061487,-0.078584,0.009993
0.27759,0.18584,0.95016,0.69728,0.18805,0.11355,0.084384,0.111
-0.11086,-0.058326,-0.53942,-0.22284,-0.0085922,-0.058248,-0.076176,-0.072273
-0.055761,0.15239,-0.4586,-0.17657,-0.0017996,-0.12264,-0.15351,-0.047185
0.015115,-7.4385e-05,0.17108,-0.090323,0.014891,0.14058,0.15019,-0.00031734
-0.115,-0.41834,-0.45453,-0.31895,-0.16013,-0.056136,0.031435,0.014837
0.086893,0.15996,0.4904,0.34566,0.09132,0.0072634,-0.047626,0.022949
