0.010587,-0.015243,-0.11486,-0.0298,0.013748,0.021034,0.11618,0.017385
0.018449,0.054589,0.00044322,-0.042759,0.07091,0.021927,-0.047215,0.016408
-0.036616,-0.079496,0.026609,-0.20524,-0.068273,-0.032985,-0.094904,-0.008153
-0.005969,0.012535,0.04906,0.15384,-0.021092,-0.010779,-0.11212,-0.0014407
0.032486,0.081062,-0.32225,-0.11435,0.040608,0.010708,0.027302,0.013261
0.00080564,-0.014223,0.39092,0.18551,-0.015814,0.00062617,0.12169,-0.018612
0.00066413,0.023751,-0.18394,0.0068914,-0.010372,-0.0015217,-0.49155,-0.04228
0.016461,-0.0080758,-0.18457,-0.11065,0.010449,0.012465,0.75895,0.059501
-0.022163,-0.039406,0.26663,0.091261,-0.015425,0.0037893,-0.1811,-0.010131
0.0097021,-0.015583,0.10109,-0.050985,0.021776,0.003796,-0.10909,0.014415
-0.028666,0.0087197,-0.10257,-0.19333,-0.010461,-0.011035,0.13774,-0.031009
-0.012346,-0.036729,-0.15789,0.14869,0.013017,-0.001873,-0.29408,-0.0059149
0.019546,0.051317,0.21396,0.20154,0.0062551,0.0075195,0.069907,0.01139
0.020096,0.0073291,0.079827,-0.058414,-0.015307,0.008986,0.094953,0.01288
-0.010747,-0.035895,-0.22047,-0.068862,-0.012925,-0.021201,0.0061819,-0.0016674
-0.0027427,0.030823,0.19215,0.053031,0.0051981,-0.012909,-0.13464,-0.0090174
0.028379,0.027386,-0.16955,-0.19239,0.054291,0.026014,0.15694,0.021932
-0.019056,-0.046803,-0.12748,-0.054434,-0.037851,-0.0058879,-0.032334,-0.0026232
-0.012327,0.018493,0.013564,0.045922,-0.029246,-0.030273,0.041167,-0.020113
0.017294,0.027284,0.13764,0.21108,0.0097444,0.039071,-0.011342,-0.0068978
-0.023871,-0.0053036,0.051708,-0.14444,-0.014521,-0.0085207,-0.39103,-0.025159
0.012799,-0.016956,-0.20238,0.0026134,0.031002,-0.00096201,0.45858,0.042673
-0.0052319,-0.054327,0.22195,0.080964,-0.0096409,0.0071701,-0.18779,-0.021774
-0.0073208,0.031665,0.18656,0.18276,0.020097,-0.0075668,0.19393,0.031796
-0.00096425,-0.0079868,-0.25972,-0.084571,0.0032662,0.017217,-0.076115,-0.01522
-0.0015529,-0.015845,0.10332,-0.097821,-0.020928,-0.012415,0.055888,0.0090238
0.03007,0.048324,-0.059257,-0.21756,0.010054,-0.0029335,-0.012997,0.010575
7.9573e-05,-0.0098525,-0.1842,0.20441,-0.036657,-0.048304,-0.45625,-0.042146
0.009803,0.0054653,-0.060118,-0.21392,0.034128,0.054417,0.39646,0.030155
-0.027042,-0.03852,0.039701,0.10724,-0.0043198,-0.015213,0.020418,0.0005461
0.021977,0.1155,0.23987,0.13095,0.027516,0.047422,0.10225,0.0015556
-0.038781,-0.064621,0.094034,-0.16416,-0.042389,-0.03894,-0.24122,-0.045083
-0.0063984,-0.048792,-0.048011,0.23124,0.012427,-0.016439,0.037002,0.03252
0.02532,0.052466,-0.040138,0.15384,-0.011196,0.013466,0.03128,-0.0076593
-0.0060244,-0.0039803,-0.048941,-0.26366,0.01177,-0.0037654,0.10199,0.022144
0.016971,-0.062451,-0.045484,-0.092326,0.026726,0.0023539,-0.023035,-0.0027598
-0.030424,-0.013689,-0.10178,0.11204,-0.052143,-0.014878,-0.092452,-0.027389
0.03955,0.10356,-0.062427,-0.081324,0.048733,0.038436,-0.25347,0.0031655
-0.015111,-0.045977,0.32267,0.092379,-0.053345,-0.017295,0.33855,0.026521
-0.014646,-0.016189,-0.27375,-0.13289,0.040126,0.0054635,0.027742,-0.0042018
0.0018229,-0.025046,0.063766,0.047511,0.0010277,-0.010494,0.11074,0.012448
-0.012761,-0.032927,0.32122,0.00094924,-0.0457,-0.026167,-0.3195,-0.025277
0.050708,0.10882,-0.28101,-0.0067241,0.071709,0.052116,0.16549,0.0074093
-0.0033876,0.071874,0.20382,0.15743,-0.021874,-0.025721,-0.037229,-0.01469
-0.019068,-0.042699,-0.10597,0.10275,0.017194,0.013708,0.031998,0.0098447
-0.0043161,-0.040289,-0.36584,-0.14742,-0.022064,0.0063245,-0.065255,-0.0050032
-0.037279,-0.077832,0.12763,-0.046223,-0.069291,-0.063476,0.014321,-0.0045657
0.022813,-0.015195,-0.047769,-0.11686,0.039707,0.038723,-0.049509,0.0033614
0.0043671,0.053678,0.28661,0.024039,0.00041052,0.0004547,0.0015799,0.018805
-0.014128,-0.019524,0.19933,-0.15392,0.023905,0.0092158,0.10588,-0.0050932
0.022381,0.031188,0.016325,0.3345,0.016497,0.010249,0.045513,0.0097946
0.02044,0.026608,-0.11609,-0.041284,0.0015546,0.003414,-0.022477,0.00096871
0.011472,0.029699,-0.19154,-0.0077053,0.0023182,-0.019299,-0.26938,-0.031548
-0.043547,-0.045129,-0.061781,0.028493,-0.043988,-0.019041,0.28954,0.0060631
0.019368,-0.033625,-0.42859,-0.21504,0.057669,0.058697,-0.025298,0.012374
-0.018687,0.0095606,0.43729,0.22896,-0.052284,-0.043993,0.020455,0.0031988
-0.009459,-0.0015757,0.16441,-0.023883,-0.022338,-0.0067724,-0.065494,-0.021238
0.023437,0.096927,-0.048435,0.11888,0.0069981,-0.0091674,-0.12699,0.0017778
-0.013899,-0.11687,0.19986,-0.17942,0.067246,0.035042,-0.015663,0.009897
0.0034146,0.068001,-0.46456,-0.30161,-0.028724,0.0012214,0.15126,0.003164
0.020599,-0.051424,0.2232,0.065409,-0.014892,-0.016493,0.11587,0.012735
-0.0092913,0.0095033,-0.020557,0.039825,-0.039362,-0.025567,-0.075196,-0.0006855
-0.00037447,0.0089326,0.32381,0.54453,0.062136,0.028924,-0.16455,-0.021814
-0.01519,-0.076272,-0.40431,-0.23225,-0.0072401,-0.0013722,-0.098119,0.027083
0.016553,0.097794,0.4785,-0.11056,0.0023587,0.016262,0.2718,-0.010612
-0.014517,-0.015831,-0.5463,0.14381,0.020314,-0.0043764,0.1085,-0.010166
0.0088119,0.035601,-0.089276,-0.13352,-0.03971,-0.0089933,-0.096394,-0.002935
-0.0071653,-0.0063662,0.25665,-0.19278,-0.014064,0.001956,0.016256,-0.0044597
0.0079216,0.0058946,-0.11529,0.13794,0.026593,-0.0032127,-0.20948,0.0089649
-0.00055157,-0.069061,0.087734,-0.20348,-0.0038942,-0.0013981,-0.077395,-0.0013167
0.0065417,0.0024868,-0.16925,0.11167,0.011601,0.00722,0.093615,0.0042302
0.005826,0.063948,0.40635,0.38079,-0.036205,-0.024231,0.1333,-0.0051951
-0.010452,-0.033053,-0.17536,-0.23175,-0.0064769,0.0059844,0.066564,0.0019956
-0.0188,-0.030228,0.070637,0.25056,0.038557,-0.0033958,-0.2072,-0.020916
-0.011362,-0.020518,0.0028042,-0.31326,-0.025829,0.002676,0.046553,0.043194
0.0040773,0.0048897,0.072143,-0.21277,0.058406,0.055796,0.1474,-0.024709
0.050952,0.06263,-0.34123,0.30158,-0.021077,-0.0547,-0.023294,0.01711
0.019859,0.04417,-0.028993,-0.34072,0.0092585,0.030718,0.095086,0.019672
-0.026744,-0.042139,0.19441,0.52444,-0.045837,-0.03948,-0.093051,-0.0019104
-0.026391,-0.0008155,0.1249,0.092729,-0.014437,0.023688,-0.12813,-0.040203
-0.041589,-0.066435,-0.27643,-0.35401,0.0097652,0.0013083,-0.26067,-0.032865
0.0058162,-0.012946,0.42902,-0.23695,0.019,0.010357,0.38471,0.028008
0.037743,0.11206,-0.56163,-0.0084908,-0.017984,-0.043141,-0.034523,-0.0057119
0.038596,-0.036005,0.1677,0.34747,0.054971,0.020293,-0.19639,-0.00076571
-0.030706,-0.036052,0.048548,-0.12212,-0.059211,-0.0026351,0.32266,0.043318
0.03289,0.079995,0.35563,0.3713,0.068848,0.036392,-0.15579,0.0019279
-0.036358,-0.071114,-0.13719,-0.17331,-0.037793,-0.011117,-0.17027,-0.023135
-0.012006,-0.028593,-0.29754,-0.10109,0.0033038,-0.020146,0.27894,0.015064
-0.01133,-0.0032427,0.052973,-0.23385,-0.019097,0.001589,-0.027921,-0.0085627
0.012522,0.036561,0.084386,0.0052649,-0.019209,-0.016054,-0.0063903,-0.016063
0.020532,0.04446,0.075818,0.19343,0.081122,0.052155,0.12329,0.023629
-0.010636,-0.064947,-0.23264,-0.20895,-0.13197,-0.074779,-0.26499,-0.014616
-0.0027346,0.029102,0.50881,0.21194,0.08404,0.048696,-0.13259,-0.0058361
0.0052877,0.030014,-0.48224,0.19046,-0.012678,-0.022557,-0.010393,-0.035916
-0.017746,-0.08557,0.10633,-0.02316,0.023529,0.039663,0.14945,0.012431
0.014119,0.049434,0.040618,-0.20958,-0.010234,-0.030313,-0.02681,0.029917
0.030525,0.11448,-0.1468,-0.00045714,0.018941,0.025171,0.35257,0.032173
-0.0076748,-0.078221,0.10071,0.051446,-0.021786,-0.012868,-0.13365,-0.0043531
-0.069331,-0.11484,0.20735,0.011343,-0.0075227,-0.019688,-0.11042,-0.025212
0.064223,0.012259,-0.38703,-0.17995,0.030363,0.035739,-0.1017,0.00052664
0.01795,0.11552,0.69464,0.082579,-0.02538,-0.026408,0.087023,0.010025
-0.051888,-0.07071,-0.63207,-0.15909,-0.026286,-0.01083,-0.11543,-0.04387
-0.0046107,0.039431,-0.13203,0.026342,-0.026909,-0.0033553,0.12625,0.010557
-0.004217,-0.038639,0.17899,0.30266,0.074515,0.01966,0.061774,0.017041
0.019631,-0.047508,-0.020456,-0.012373,-0.0030493,0.019405,-0.14465,-0.00084785
-0.0034378,0.059117,0.34576,0.26415,-0.017257,-0.035132,0.038733,0.019638
0.027976,0.10087,-0.021857,-0.19409,-0.0071245,0.020277,-0.0045219,-0.014928
0.058923,0.11621,0.26455,-0.28407,-0.0040026,-0.025258,0.023272,0.013003
-0.090585,-0.14516,-0.70357,0.41063,0.046554,0.039114,-0.033437,-0.029028
-0.0067488,-0.20648,0.22097,-0.53534,-0.043309,-0.013389,0.22422,0.031168
0.013428,-0.0044178,-0.18041,-0.19317,-0.00056748,-0.0033928,-0.23493,-0.040535
-0.0065426,0.040563,-0.22649,0.45464,0.010306,-0.0015671,-0.090881,0.006011
-0.0038449,0.13339,0.56183,-0.14251,-0.011029,-0.00042792,0.11667,0.014588
0.045497,0.072828,-0.10945,0.091166,0.021139,0.015414,0.18375,0.024159
0.017184,0.063628,-0.026924,0.2161,-0.026078,-0.024443,-0.18748,-0.0045624
-0.03333,-0.18217,0.27967,0.026466,0.011457,0.0050815,0.05682,-0.0015837
-0.11315,-0.023548,-0.18156,-0.20054,-0.0066672,-0.020768,-0.052686,-0.021966
0.036032,-0.12496,0.080733,0.1387,0.029244,0.031187,-0.070871,-0.050456
0.070647,0.18432,-0.34141,-0.64297,-0.044495,-0.010506,0.18225,0.11575
0.052954,-0.027187,-0.19228,0.5392,0.053749,0.0029903,0.027727,-0.078249
-0.017705,0.042976,0.25252,0.15157,-0.066305,-0.013961,-0.30677,0.015865
0.037375,0.1581,0.11611,-0.16054,0.033098,0.016913,0.12532,0.0074932
-0.11887,-0.051048,0.59238,0.029155,0.016164,0.01746,0.0048329,-0.0016604
0.090642,-0.11702,-0.63197,-0.055957,9.8563e-05,0.0031157,0.13727,0.019896
-0.10045,-0.094769,-0.08049,-0.20747,-0.015195,-0.026423,0.093251,-0.044714
0.010671,-0.10055,-0.20566,0.40116,0.016973,0.0066223,-0.17441,0.031403
0.064818,0.031649,0.29062,-0.19941,-0.0051911,-0.0074435,-0.057174,-0.048322
-0.14056,0.093422,0.027125,-0.40726,-0.05849,-0.021977,-0.11095,0.036645
0.15314,0.087288,-0.096157,0.22389,0.036553,0.025411,0.23323,0.028595
-0.0064118,0.077621,0.28916,0.60939,0.037591,0.0097284,0.099088,0.029046
-0.071722,-0.16137,-0.13661,-0.41357,-0.0085984,-0.01423,-0.084574,-0.087184
0.043425,0.018205,0.15785,0.14046,-0.00048111,0.016197,-0.068116,0.0077398
0.073331,0.12248,-0.33564,-0.24332,-0.047392,-0.031633,-0.023127,0.0087875
-0.029245,0.078713,-0.094112,0.0061236,0.030458,0.022109,-0.28466,0.017185
0.03988,0.095326,0.42896,0.10042,-0.008967,-0.017805,0.21886,0.056108
-0.22758,-0.39214,-0.19614,0.071569,0.022007,0.051777,0.14505,-0.038637
0.12904,-0.048617,-0.45349,-0.40781,0.0063558,-0.0035382,0.073089,-0.024808
-0.007444,-0.022119,0.54812,0.13947,-0.06361,-0.043157,-0.019945,-0.019336
-0.04302,0.032688,-0.050033,0.48719,0.062161,0.0032256,-0.19669,0.017279
0.13216,0.11806,0.1901,-0.13041,-0.03043,-0.004971,0.11243,-0.015974
-0.051698,0.18162,-0.15303,-0.057676,0.049114,-0.0051508,-0.05463,0.014268
-0.070655,0.0063271,-0.23565,-0.37376,-0.050968,0.010626,0.066544,-0.00094869
0.075637,-0.118,-0.11271,0.045035,0.012837,0.0034112,-0.15008,0.0010505
0.020181,0.1052,0.1292,0.048821,-0.017515,0.0045142,0.19331,0.035745
0.0051983,-0.14559,0.07506,0.65964,0.06093,0.021715,-0.17685,-0.01452
-0.055323,-0.020487,0.32513,-0.48311,-0.040959,0.00019739,0.12269,0.029233
-0.013082,-0.021219,-0.30174,-0.067798,0.01282,-0.0055589,0.053733,0.025566
-0.087002,0.069586,0.068118,-0.22765,-0.050972,-0.042671,-0.062259,-0.12001
0.097701,-0.069172,0.34794,0.46718,0.025788,0.013633,-0.34128,0.037316
0.048545,-0.00011863,-0.60279,-0.45137,-0.006538,-0.0086983,0.38173,0.01302
-0.00050925,0.11312,0.13128,0.46315,0.032074,0.038675,-0.080167,-0.012984
-0.018756,-0.080192,-0.16619,-0.16284,0.0090433,-0.00051268,0.16365,-0.0010918
-0.11621,-0.0010034,0.17202,0.031514,-0.0365,-0.032453,0.011066,-0.020888
0.10492,0.039042,-0.1478,-0.34299,0.0046908,0.028906,-0.24982,0.037743
0.19879,-0.045383,0.51739,0.41794,-0.00050908,-0.035031,0.11424,0.026959
-0.26455,0.13667,-0.44092,-0.16141,0.033397,0.018092,-0.1243,-0.0060343
0.035298,0.02278,0.21833,-0.11185,0.027796,0.024379,0.11982,0.024728
-0.033966,-0.19179,-0.039205,0.27756,-0.072429,-0.031647,-0.052021,-0.05287
-0.096477,-0.014873,0.14896,-0.1263,0.037131,0.022004,0.0088208,0.018572
0.23947,0.0536,-0.050732,0.074426,-0.042016,-0.01771,-0.11899,-0.019209
-0.048469,-0.056461,-0.14341,-0.33967,-0.012815,0.01332,0.29178,0.0052888
-0.053146,0.16305,-0.10944,0.54484,0.04699,-0.002085,-0.062891,-0.0097059
0.030665,-0.076665,0.033928,-0.54603,-0.033986,-0.02489,-0.10438,-0.0095231
0.038997,0.0057121,0.24855,0.18415,0.010368,-0.00047578,0.042642,0.021607
-0.083167,-0.050949,-0.39967,-0.038526,0.0398,0.02417,-0.16076,-0.0098281
-0.0005693,0.026271,0.21178,0.19162,0.015436,0.033269,0.2307,0.013594
0.012463,0.041244,-0.2233,-0.032425,-0.031495,-0.035861,-0.16596,-0.025159
-0.013766,-0.022662,0.13719,-0.094428,-0.0074368,-0.011528,0.031785,0.045806
0.16208,0.044457,0.17318,0.082737,-0.0064351,0.0045481,0.065771,0.0076235
-0.15591,0.0073648,0.20796,0.013883,0.0024525,0.0044644,0.029342,0.047584
0.071061,-0.087541,-0.070345,0.15179,0.0033586,0.019466,0.039307,-0.11579
-0.14909,0.017606,-0.053908,-0.39383,-0.019471,-0.020668,-0.10774,0.0017253
0.035639,-0.059351,-0.11307,0.089086,0.004272,-0.0063806,0.03341,0.025086
0.079055,0.089034,-0.32214,-0.046105,0.027804,6.7346e-05,-0.24031,-0.014359
-0.064999,-0.020049,0.07261,-0.039479,-0.03467,-0.016691,0.14164,-0.0070534
0.096267,-0.002114,0.13786,0.43126,0.051355,0.052943,0.13265,0.039389
0.063215,0.034936,0.23794,-0.35911,-0.042172,-0.017452,0.061054,0.039165
-0.10158,-0.079794,0.042711,0.058552,0.0050438,-0.024726,-0.033974,-0.046772
-0.031107,0.036755,-0.42561,-0.043082,-0.0024154,-0.00023331,0.011653,0.01585
0.0087085,0.048029,0.42617,0.67019,0.068093,0.040179,-0.16143,-0.01535
0.056602,-0.094322,-0.45667,-0.77272,-0.057055,-0.005351,0.024983,0.023487
-0.08298,-0.0096716,0.20748,0.078909,-0.026442,-0.043398,-0.17892,-0.039659
-0.0038918,0.19003,-0.0025751,0.090327,0.0036264,0.027316,0.24275,-0.017309
0.020451,0.11944,0.30471,0.065192,0.03322,0.0034843,0.07925,0.051602
0.060463,-0.22344,-0.16632,-0.098005,-0.031218,-0.013365,-0.10688,-0.020171
0.0068821,-0.097403,-0.18752,0.06273,0.06842,0.023779,0.10605,-0.021362
-0.04648,-0.002109,0.11033,-0.21647,-0.065961,-0.017598,-0.032374,0.0092827
0.033162,0.040703,0.19072,0.050746,-0.0043426,-0.012081,-0.21019,0.017299
-0.11369,-0.044269,-0.44347,0.31143,0.0035228,-0.021703,0.15801,-0.01288
0.098712,0.012032,-0.06279,-0.097384,0.020237,0.02427,-0.021935,0.051422
-0.0017381,0.04111,0.38209,0.043337,-0.0011623,0.016751,0.0076163,-0.016675
0.076938,-0.040307,-0.23242,0.069102,-0.014092,0.0026837,-0.026706,-0.022295
-0.10289,0.19892,0.19517,-0.16936,0.051298,0.005325,0.10197,-0.028404
-0.0021844,0.1807,0.28813,-0.00097919,0.0069455,-0.0069954,-0.16834,-0.0041478
-0.027055,-0.31506,-0.15999,-0.1215,-0.053955,-0.011432,0.20985,0.042417
0.0024406,-0.040617,-0.3801,-0.11667,-0.006837,0.014794,-0.16905,0.033127
0.031944,0.040389,0.24813,0.17832,-0.0081691,-0.0070374,-0.077893,-0.063081
0.03053,-0.051186,-0.021621,0.24896,0.01241,-0.0070274,0.26497,0.0041701
0.01407,0.026371,0.026531,-0.18491,0.023962,0.038122,-0.26529,0.0088318
0.099872,-0.17352,-0.16324,-0.06005,-0.04331,-0.082353,0.26871,-0.017294
-0.24333,0.25493,0.16765,0.18616,0.045593,0.014831,-0.14908,-0.011226
0.046828,0.15571,-0.24397,-0.37657,-0.029014,0.0413,-0.050503,0.01953
0.05605,-0.11107,0.10557,0.44577,0.03027,-0.0021676,0.12622,0.043785
-0.044092,-0.067803,0.0095436,-0.29388,0.0050465,-0.028909,-0.12738,0.022274
0.15231,-0.1665,0.50319,0.28534,-0.018605,0.047549,0.11008,0.0014531
-0.042592,-0.11711,-0.58221,-0.13864,-0.025131,-0.061608,-0.036617,-0.089526
-0.089996,0.26858,0.11459,-0.18428,0.024276,0.049783,0.018573,-0.0011845
-0.060324,0.061083,0.015895,0.069758,0.012042,0.029766,0.0026278,0.03171
0.16374,0.13514,0.058203,0.045611,0.00021105,-0.036344,-0.13853,0.0089748
-0.034598,-0.14269,-0.21372,-0.068286,-0.058557,0.0069836,-0.10737,-0.030281
-0.029661,0.00030751,0.64265,-0.004953,0.030635,-0.036233,0.2997,0.039195
-0.094036,-0.022217,-0.6725,0.088625,0.064342,0.021015,0.067139,-0.016583
0.030991,-0.08508,0.22114,0.32307,-0.020124,0.014442,-0.12573,0.013769
0.041501,-0.15609,0.41569,-0.26172,-0.043116,-0.024635,-0.021954,0.0056709
0.016067,0.039813,-0.87056,-0.24353,-0.020157,-0.025592,-0.14612,-0.032745
0.10311,0.27798,0.42548,0.14312,0.01772,0.012026,0.05523,0.0080676
-0.13542,-0.23668,-0.30418,-0.14142,-0.030773,-0.0050672,0.19834,-0.004711
-0.0052418,0.27816,0.39513,0.1754,0.069001,0.040658,0.09535,0.022482
0.039149,-0.17744,-0.10836,0.25659,-0.0030791,0.039959,0.035783,0.0033646
0.043141,0.051599,0.16981,-0.25829,0.003071,-0.0072705,-0.12735,0.015613
0.044452,0.041166,-0.013688,-0.1044,0.0015022,-0.023191,-0.71989,-0.042823
-0.082885,-0.11796,-0.01253,0.038362,-0.046909,-0.039412,0.1203,0.0072992
-0.10492,0.13355,0.045748,0.59253,0.068735,0.0062609,0.5208,0.040646
-0.0058321,-0.066468,-0.19256,-0.61208,-0.073399,-0.0034925,0.23329,-0.083583
0.043206,-0.032395,0.32631,-0.018149,-0.0044036,-0.0060775,0.054876,0.056485
0.16045,-0.20232,-0.65462,-0.23956,0.010357,0.030074,-0.23461,-0.03118
-0.074817,0.33086,0.11743,0.16453,0.018063,-0.003937,-0.067644,0.02869
-0.013123,0.0068257,0.31868,0.21228,-0.012273,-0.0060246,-0.16647,0.041107
-0.067824,-0.015031,-0.19415,-0.040613,0.013231,-0.053863,0.27024,-0.017043
0.034807,-0.45771,0.15407,0.10001,0.047634,0.087193,-0.11156,-0.067362
0.044637,0.11959,-0.12538,0.11517,-0.034342,-0.028154,-0.17228,0.0075205
0.039314,0.13328,0.062465,0.077798,0.0012295,0.021722,0.15114,0.020174
-0.091211,0.35761,0.23183,-0.32285,-0.025879,0.0097903,-0.061236,0.017416
0.02738,-0.098962,0.0038478,0.22778,0.016622,-0.025474,-0.31446,0.0068811
0.019594,-0.067111,-0.048951,-0.36836,-0.012297,-0.029962,0.65214,0.027375
-0.044405,-0.073858,-0.20622,-0.14442,0.012157,-0.0041144,-0.32322,-0.030748
0.030991,-0.0136,-0.12189,0.37706,-0.019371,0.028412,-0.0050099,-0.011428
-0.042543,0.18878,0.42698,0.043355,0.033984,0.0051631,0.48163,0.022803
0.064208,-0.34316,-0.18545,-0.26502,-0.061748,-0.011076,-0.4583,-0.060674
-0.0303,0.023956,-0.2148,0.1381,0.04549,-0.019851,0.079559,0.019807
-0.074848,-0.11355,-0.015586,0.2824,0.043685,0.026227,0.015173,0.03828
-0.0060123,0.21716,-0.0030923,-0.34278,-0.058959,-0.028637,-0.16066,-0.059276
0.13757,-0.049469,0.017053,-0.12533,0.011227,0.011148,-0.042209,0.048059
-0.050559,0.30192,0.058208,-0.018383,-0.0035425,0.044056,-0.34789,-0.02211
0.10067,-0.374,-0.048736,0.45185,-0.0097042,-0.00046475,0.70451,0.035028
-0.081923,0.22079,0.4062,0.14741,0.023618,-0.021319,-0.086988,0.016142
0.040788,-0.039888,-0.089624,-0.11015,-0.021272,-0.026924,0.028521,-0.032409
-0.079498,-0.034405,0.24484,-0.22598,0.042569,0.028979,-0.057903,0.013642
-0.076661,-0.049074,-0.40474,-0.025916,-0.0041134,-0.0025322,-0.21353,-0.041838
0.064377,-0.027328,-0.071111,-0.13034,0.010217,0.0032966,0.18618,0.034771
-0.047009,0.30628,0.074773,-0.16452,-0.047334,-0.031594,-0.015591,0.00071328
0.097413,-0.091932,0.11602,0.22575,-0.012479,0.018177,-0.31929,-0.034926
-0.056408,0.11923,0.054779,-0.2047,-0.017511,-0.018621,0.2983,0.029433
0.085894,-0.57578,-0.9379,0.15162,-0.022641,-0.024008,0.071599,0.014396
-0.045582,0.044629,0.40654,0.43326,0.09793,0.073124,-0.11637,-0.048304
0.0023978,0.040239,0.31937,-0.074006,-0.0066503,-0.046882,-0.070076,-0.025307
0.096838,0.026845,-0.11716,-0.24255,-0.015579,0.03043,-0.15667,0.029177
-0.11419,0.40157,0.49664,-0.017035,0.01664,0.039511,0.49083,0.084188
-0.10767,-0.056793,-0.16285,0.47655,-0.0038806,-0.058936,-0.32337,-0.063366
0.10049,0.10029,-0.0027365,-0.59976,-0.054114,0.0080466,0.30635,0.062855
0.057099,-0.26714,-0.2711,-0.17804,0.013781,0.0211,-0.20647,-0.060983
0.012362,0.073436,0.41297,0.06762,0.019435,-0.043835,0.028653,0.041232
-0.05668,-0.28034,-0.43881,0.22136,-0.0065709,0.02365,-0.17533,-0.060539
-0.063417,0.18199,-0.0099637,0.21155,-0.010126,-0.019006,0.02646,-0.00707
0.0085282,0.14233,0.02579,-0.048707,0.031787,-0.01575,-0.21593,-0.0091847
0.042662,0.12685,0.068482,-0.044513,0.0095632,0.048992,0.27895,-0.0040378
0.0082343,-0.19639,0.25675,-0.0029652,-0.022122,-0.051295,0.12976,0.04011
0.069526,-0.21222,-0.32898,-0.025977,-0.02401,0.066291,0.08727,0.053454
0.062389,0.10291,0.1141,-0.24651,0.0042745,0.0034119,-0.020537,-0.041724
-0.16975,0.032433,-0.60095,-0.15675,-0.038337,-0.044525,-0.17122,-0.0030108
-0.010172,0.15832,0.45689,0.4699,0.083063,0.078843,0.00078395,-0.0022683
0.048505,-0.10829,0.23337,-0.1401,-0.013849,-0.095069,-0.20174,-0.016234
0.037185,-0.035711,0.14843,0.37229,0.0072321,-0.019155,0.17247,0.048533
-0.036513,-0.056912,-0.029755,-0.32164,-0.040985,0.010007,-0.018775,-0.073962
-0.00080513,-0.012452,-0.26308,-0.2616,0.021225,0.023977,0.090509,0.022168
-0.074514,0.075561,-0.13363,0.083209,-0.032813,-0.0082397,-0.016065,0.05536
-0.039067,0.10481,0.50119,0.61131,0.077933,0.085364,-0.018528,-0.091805
0.15203,0.11169,-0.036755,-0.30929,-0.045253,-0.04681,0.083219,0.041466
0.05285,0.10774,-0.52618,-0.49733,-0.027653,-0.014338,-0.093066,0.017612
0.037632,-0.38045,-0.024867,0.065078,0.0054834,-0.0050395,-0.015052,0.0085176
-0.058399,-0.036859,0.20904,0.23198,0.0070909,-0.019271,0.061025,0.022085
-0.016881,0.14317,0.27958,0.0055709,0.031733,0.020776,-0.097225,-0.011824
-0.1345,-0.20116,-0.64461,0.12941,-0.0065908,0.013333,-0.065739,-0.04607
0.027142,0.19624,0.19992,0.041127,-0.029765,-0.033856,0.24351,-0.017799
-0.03037,-0.02978,0.42003,0.012928,0.032553,0.01991,-0.22253,0.0030795
0.023069,0.10827,-0.15241,0.29249,0.00073462,0.002934,-0.095866,0.024769
0.064442,-0.20656,0.0072877,-0.88879,-0.05483,-0.061115,0.25608,0.04756
-0.014121,0.020758,0.022491,0.30206,0.029997,0.10142,0.06628,-0.05343
0.077066,-0.059727,-0.28301,0.050032,-0.0025382,-0.017133,0.074544,-0.01268
-0.029665,0.15352,0.35799,0.12699,0.01165,-0.018283,-0.26118,0.083556
-0.0077618,0.18222,0.016639,0.16524,0.0022327,-0.050534,-0.029834,-0.046444
-0.039313,0.062359,0.06161,0.048252,0.047292,0.034402,0.28176,0.0030494
0.12292,0.1106,-0.097366,-0.46447,-0.048523,0.025394,-0.22617,0.020657
0.01544,-0.31701,-0.22729,0.23121,-0.0039528,0.047259,-0.10039,-0.040748
-0.12136,-0.24598,-0.41212,-0.064681,0.0014054,-0.064186,0.066885,-0.02491
-0.069347,-0.2781,0.22815,-0.13794,-0.063517,-0.08239,0.083021,0.013746
-0.046589,0.27585,0.1224,0.2409,0.051531,0.086512,-0.21274,-0.049341
-0.043411,0.30975,0.19225,0.0035196,0.026503,-0.0025605,0.19067,0.059748
0.083404,-0.086406,0.17081,0.049109,0.0022482,0.033515,0.13952,0.02107
0.11001,0.12263,0.24987,-0.021454,-0.0054878,-0.04712,-0.060202,0.045697
