-1.7505e-05,0.00013108,0.021282,0.00064879,-0.010346,0.0025139,0.001721,-2.6001e-05
0.0010017,0.0040074,0.033553,-0.0069975,-0.011158,-0.0053312,0.0088569,-0.0059242
0.0098056,-0.0011178,0.046077,0.0011663,0.004132,-0.0054405,0.008398,0.011623
0.018256,0.0086427,0.041527,0.0017227,0.0043325,0.0022625,0.00034838,0.0054722
-0.028595,0.026108,-0.091153,0.00244,0.0050656,-0.013389,-0.0075329,-0.024622
-0.021501,-0.12768,0.0060808,0.011031,0.0062548,0.010174,-0.0075216,0.014918
0.00051197,0.1652,-0.019045,0.019551,0.015565,0.0026691,-0.0075258,-0.0087908
0.014205,-0.10246,-0.13521,-0.042442,-0.01408,0.0031344,0.0001871,-0.0097704
0.0042702,-0.0084068,0.072497,-0.010983,-0.012587,0.011485,0.0077534,0.0043058
-0.0054921,0.06462,0.07427,0.020143,-0.0035916,-0.011475,-0.00047171,0.002391
0.00087125,-0.0008101,0.028128,-0.0037243,0.0049471,0.0044114,0.014581,0.015959
0.01577,0.013514,-0.0094738,0.0034354,-0.0026653,-0.0034961,-0.0017498,-0.0016608
0.008027,-0.018141,0.025444,0.010484,0.0048309,-0.0040351,-0.010358,0.0043747
-0.006813,-0.018452,-0.053612,-0.0059036,0.01189,-0.012839,-0.0033744,-0.0049005
-0.0055194,-0.027213,0.0038027,0.0012421,-0.012609,0.0092373,0.0036465,-0.013818
-0.019619,0.025334,-0.021155,-0.0070831,0.0017983,-0.00014697,-0.012655,0.0010667
0.013104,-0.025182,0.0037813,0.016017,0.00057904,0.013908,0.0103,0.0006772
0.0064829,0.01648,0.015247,-0.0075924,-0.00050646,-0.0030604,0.010074,0.0084322
-0.0083701,0.0020069,-0.0034146,-0.015449,-0.001356,-0.011792,-0.005481,-0.0069365
-0.0080462,0.0097616,0.032696,0.00020752,0.0059042,0.0034736,0.0027025,0.0014281
0.0075254,0.0087676,-0.010135,0.00024679,-0.0021449,-0.0040928,-0.004468,0.010067
0.0072356,0.030525,-0.023175,0.0080292,-0.0020853,0.012329,-0.0036148,0.0033272
-0.0087463,-0.04195,-0.0067182,0.01566,-0.0017781,-0.0099121,-0.002631,-0.018835
-0.0012032,0.010255,0.015872,-0.00037397,-0.0012892,0.0070802,0.0062065,-0.0017894
0.014345,-0.015834,-0.017489,-0.0010552,0.0071231,0.0083498,0.0071851,0.007511
0.0066815,0.012761,-0.020212,-0.017622,-4.324e-05,-0.0063659,0.00022927,0.001156
-0.016418,-0.044387,0.0084555,-0.0031071,-0.0072134,0.0017891,-0.014717,0.0024666
-0.0081721,0.01606,0.030136,0.011427,0.0090194,-0.014168,-0.0064354,0.0035026
0.01567,0.045863,0.0062431,-0.0050005,-0.0060442,0.00046409,0.017253,-0.0036708
-0.0075123,-0.0095245,0.0072612,-0.0051974,-0.005528,-0.0010499,0.0016721,0.0042887
0.008131,-0.017248,-0.0060319,-0.004478,-0.0050528,0.0049629,0.0015352,0.0039015
6.4669e-05,0.0069985,0.012801,0.013019,0.0031879,-0.0046496,-0.014374,-0.0048012
-0.016061,0.00053455,-0.01497,0.00051724,0.019169,0.009453,0.00085597,-0.013893
-0.0089144,0.0021655,-0.0040318,-0.0030109,0.003779,-0.0072017,0.008201,-0.0075637
0.013805,-0.011837,-0.033017,0.0021361,-0.011794,0.015812,0.0076995,0.006604
0.013155,0.012939,-0.00064836,0.015464,-0.0041731,0.0003649,-0.0084203,0.0053983
-0.010766,-0.017463,0.014925,0.012892,-0.0046422,-0.0067777,-0.001052,0.0046174
0.012412,0.0062201,0.029547,-0.029729,0.010245,0.0020165,-0.0013973,0.012154
-0.0032382,0.0058715,-0.026709,-0.058406,-0.014135,-0.0047063,-0.0015936,0.0045377
0.0047572,0.020677,-0.0049512,0.020038,0.00045268,-0.0115,0.0062158,-0.010556
-0.018333,-0.035084,0.0092933,0.080228,0.015087,0.0049545,-0.017004,-0.0098959
-0.0022382,0.0029293,0.0084967,-0.01855,-0.016961,-0.0022594,0.0068694,-0.0015234
0.0061406,-0.0056221,0.031828,0.14582,0.029431,0.0059512,0.015294,-0.0012595
-0.0088326,0.017629,-0.014538,-0.22292,-0.017538,0.0062291,0.00037397,0.014212
0.0075237,0.0025165,-0.029261,-0.092597,-0.0094141,-0.0013269,0.0010578,-0.0098177
0.0083161,0.0037442,-0.020453,0.09267,0.0068804,-0.0088198,-0.014028,-0.0029522
0.0013115,-0.010066,-0.0040398,0.021623,0.0078068,-0.00057873,0.009698,0.011544
-0.0057553,-0.00010646,0.058812,0.11724,-0.0067743,0.015577,-0.0059472,-0.012976
0.018264,0.025467,0.0039422,-0.018165,-0.0057687,-0.0072848,-0.0062721,0.0018552
-0.020486,-0.027467,-0.035762,-0.079615,0.010676,0.0010534,0.00098098,-0.0062584
0.0029126,-0.0029968,0.049331,0.010794,0.0033801,0.0014232,0.00030866,0.0096859
-0.0053243,0.020505,-0.060671,0.033646,-0.0042819,-0.0062646,-0.00033193,0.010647
-0.0061092,-0.050832,-0.021495,-0.074536,-0.0044983,0.0013816,0.007005,0.0043485
0.008454,0.033012,0.018941,0.036683,-0.012829,0.00093659,0.006785,-0.0015835
-0.0083848,0.014376,-0.063978,-0.016622,0.0099041,-0.015341,-0.00096485,-0.015203
0.013827,-0.0049235,0.089235,0.092717,0.0091602,0.015166,-0.00065969,0.0023004
0.01272,0.0066872,0.040831,-0.089114,-0.0071059,-0.0011612,-0.0080209,-0.011787
-0.011608,-0.012935,0.008927,-0.0077809,-0.0075354,-0.0095157,-0.0075529,0.0048895
-0.0044092,-0.024367,0.047283,0.04766,0.0079237,0.013614,0.0084223,0.013208
-0.0047225,0.058661,-0.13422,-0.039642,0.0080077,0.0057424,0.00072998,-0.01025
0.0030737,-0.029194,0.018157,0.14497,0.016082,-0.0019278,0.0005512,0.0049109
0.0033352,-0.014296,-0.11346,-0.2181,-0.0070204,0.0061373,0.0078753,0.0041216
0.0038483,-0.029365,0.12693,-0.13595,-0.030157,-0.0092318,-0.00068204,0.0031381
-0.018854,0.02712,0.14579,0.28261,-0.014343,-0.032502,-0.025007,-0.021354
0.028942,0.029972,-0.22035,0.069109,0.032585,0.030026,0.020997,0.024498
-0.024684,0.0022973,0.060651,0.075076,0.0012788,-0.0013394,0.0046983,-0.0076695
-0.00010942,0.013971,-0.033671,-0.24666,0.0011845,-0.0015541,-0.026857,-0.0084318
0.0088245,-0.044866,0.028834,-0.068382,0.0011442,-0.0017972,0.020201,0.0066114
-0.00581,-0.0027881,0.05351,0.070433,-0.022191,-0.0019899,-0.0025227,-0.0015936
0.018355,0.014871,-0.021836,0.060169,0.0093656,0.01356,-0.0013398,-0.0017992
0.0030686,0.0079526,-0.04101,-0.02108,0.0020867,-0.0019775,0.00014611,0.0059856
-0.0048869,-0.031313,0.058139,0.02219,0.018446,0.0061021,-0.0061279,-0.0095013
-0.013345,0.014495,0.079816,0.034097,-0.011938,-0.016894,0.034236,0.014227
0.0012045,0.020753,-0.054525,-0.03956,0.0124,-0.0084861,-0.011843,-0.016595
-0.0079352,-0.0042791,-0.1185,-0.0029398,-0.018015,4.1293e-05,0.035146,0.0073966
-0.0014402,-0.044545,0.052142,-0.0039909,-0.0095205,0.0086423,-0.012328,0.015874
0.0053651,0.048728,-0.12022,-0.18297,0.0065788,0.017255,-0.22444,-0.014617
-0.0028672,-0.028974,0.10728,0.17119,-0.016617,-0.021076,0.20376,-0.013784
0.0052995,0.042641,-0.022529,0.16776,0.030261,0.018557,0.0070047,0.0027161
0.014285,-0.017892,-0.056263,-0.13901,0.014402,0.011063,0.029357,0.0114
-0.0072829,-0.015626,0.1855,0.03929,-0.032956,-0.035816,-0.049282,0.0043881
0.018448,0.025558,0.17065,-0.071575,0.013166,0.010704,-0.056981,0.012844
-0.01046,-0.011961,-0.11769,-0.058304,0.0043009,0.0022138,0.092098,-0.025829
-0.016285,-0.019144,-0.20435,0.023787,-0.020509,-0.022144,-0.00069629,0.0054656
-0.007187,-0.0039768,0.057982,0.010225,0.024684,0.031505,0.01594,0.0051028
0.016613,0.01794,-0.21406,-0.01323,-0.01631,-0.0085713,-0.13948,-0.0034981
-0.0074378,-5.7928e-05,0.12027,0.23471,0.028501,0.014013,0.048503,0.0031402
-0.0010959,-0.002924,0.13201,-0.15977,-0.036018,-0.0021933,0.025132,0.0016794
-0.010974,0.0019637,0.12698,-0.063443,-0.0065173,-0.025871,0.040402,-0.015545
0.0023366,-0.0084027,-0.1124,0.078956,0.015677,0.0055044,-0.03066,0.0063284
0.0079404,-0.018055,-0.1164,-0.21623,-0.0082862,0.0059751,0.0072846,-0.0028389
0.021757,0.035703,-0.001629,0.21581,0.038922,0.014541,0.0058044,0.0039688
-0.0029065,0.020068,0.13822,0.03202,-0.030164,-0.0079609,0.019589,0.019024
-0.0035025,-0.018256,-0.064451,-0.12647,0.0031084,0.0008448,-0.0060152,0.003282
-0.019171,-0.032704,0.045853,0.037401,-0.017731,-0.029496,-0.047467,-0.012053
0.012423,0.038838,-0.00052841,0.02347,0.02418,0.025877,-0.0030047,-0.019259
-0.010492,-0.030564,-0.079399,-0.028136,0.0034598,0.0027773,-0.044211,-0.0028291
0.0056324,0.032247,0.074407,0.069355,0.0056649,0.010491,0.11051,0.01368
-0.0018578,-0.0072352,0.031257,0.23703,-0.0085854,0.0021072,0.0083495,0.014532
0.0060121,-0.03959,-0.044163,-0.39298,-0.023862,-0.02234,-0.045741,-0.015994
-0.0098336,0.0057078,-0.22108,-0.016353,0.030114,-0.00023944,-0.036028,0.00014699
0.013157,0.027421,0.025263,-0.039405,-0.02621,-0.0017235,0.045243,0.01602
-0.018671,-0.036586,0.17259,0.13967,-0.0050484,-0.010943,-0.099033,-0.023105
0.019797,0.079626,0.049716,0.052495,0.0080364,0.019205,0.14794,0.0077579
-0.011959,-0.069063,0.062842,-0.034955,-0.0099992,-0.0048532,0.0044316,0.0070579
0.0033227,0.0095547,-0.01543,0.24472,0.050556,0.018536,-0.037906,-0.0095311
0.0031733,0.034074,0.016591,-0.18653,-0.021015,-0.020026,0.028276,0.028392
0.0032049,-0.027049,-0.12401,-0.047393,-0.013698,0.019952,-0.29736,-0.02748
-0.0044422,0.021133,-0.11838,-0.025214,0.017764,-0.002362,0.28972,-0.0051059
0.0036068,0.0063961,0.10294,-0.041494,-0.0049062,-0.0090744,0.00046979,0.0097682
0.0038583,-0.016816,0.032089,-0.11131,0.011852,0.0074347,-0.0086806,-0.0061061
-0.019343,-0.017332,-0.041088,0.023725,-0.049325,-0.02325,-0.018694,-0.0056984
0.012132,-0.026296,-0.021453,0.23112,0.0067521,0.0082595,-0.060459,0.011076
-0.018865,-0.020012,0.014508,-0.028324,0.008145,-0.0072855,0.061742,0.0051383
0.020533,0.056546,0.14637,0.15093,0.009523,0.00062465,-0.011053,0.0076054
-0.010248,0.024012,-0.10158,-0.052636,0.018694,-0.0068646,-0.083164,-0.013017
0.013817,-0.00020162,-0.041885,-0.21863,0.004385,0.025084,0.064424,-0.0023662
-0.0010384,-0.00038408,-0.15222,-0.090591,-0.017835,0.0027573,-0.0056928,-0.0076778
0.015442,0.02342,0.15913,0.057109,0.0066332,0.019806,0.026685,0.033215
-0.022764,-0.061722,0.14725,0.021104,-0.01606,-0.025552,0.028417,-0.0049352
0.0014446,-0.0059401,0.16873,0.32536,-5.8179e-05,0.01483,0.053704,-0.012864
-0.013566,-0.012439,-0.091168,-0.099186,0.023351,-0.031214,-0.20269,-0.02958
-0.0053334,0.012522,-0.20366,-0.25853,-0.039561,-0.015464,0.12593,-0.00018381
0.02614,0.022118,-0.066249,0.16976,0.053479,0.046358,0.12522,0.028784
0.010568,0.016403,-0.082194,-0.37477,-0.041148,-0.041015,-0.40021,-0.020413
-0.028571,-0.028046,-0.035859,0.15635,-0.018597,0.01947,0.29986,0.032281
0.025953,0.03714,-0.054457,0.084124,0.050963,0.024953,-0.0163,-0.00035784
-0.028945,-0.0382,0.16423,0.48623,-0.019865,-0.032073,0.011235,-0.0088186
0.033325,0.066013,0.038106,-0.060872,0.018954,0.01274,0.039317,-0.00093113
-0.021593,-0.064549,0.29513,-0.48947,-0.020124,0.0033615,-0.11902,-0.015913
-0.021819,-0.055136,-0.042779,-0.099507,-0.035659,-0.028841,-0.10403,-0.0071423
0.0091971,0.062812,-0.042309,0.14513,0.03467,0.02551,0.18604,0.025086
0.024553,0.00012507,-0.08448,0.17188,0.026594,0.017872,0.016728,0.017989
0.016395,0.038037,0.10538,0.14365,0.0024252,-0.012874,0.0049048,-0.01302
-0.007505,0.0047504,-0.31447,-0.17379,-0.014526,-0.004444,-0.12341,-0.028986
-0.023733,-0.060506,-0.058842,-0.22431,-0.05553,-0.0039062,0.013898,-0.0064466
-0.0088327,-0.0090513,-0.027527,0.0493,0.059215,0.012059,0.095819,0.023495
0.0060154,0.01879,0.077535,0.056462,-0.03723,-0.019061,-0.034524,0.0063907
-0.0025068,-0.0079138,0.18921,0.16762,0.03049,0.0043967,0.020894,-0.010605
0.0048091,0.020505,-0.024178,-0.098842,-0.010662,-0.026756,-0.081799,-0.0037947
0.02029,0.049574,-0.089585,-0.13177,-0.011869,0.020512,0.071675,0.011385
-0.010656,-0.061224,0.12925,0.31936,0.011524,0.013574,-0.0025266,-0.0040537
-0.0020666,0.00059888,0.024992,-0.12123,-0.010672,0.0072066,-0.092699,0.012339
-0.00087632,-0.030704,0.082446,0.11497,0.030854,0.0091771,-0.049547,-0.0099142
-0.022852,0.032168,-0.15243,-0.27132,-0.028211,-0.027572,0.23708,-0.00856
0.041179,0.071796,0.099828,0.037754,0.061743,0.037297,-0.013555,0.023938
-0.012144,-0.052657,-0.25655,-0.13952,-0.051309,-0.038733,-0.30912,-0.029856
0.012264,0.018044,-0.12953,0.29719,-0.00062363,0.009661,0.27198,0.025195
-0.034217,-0.075506,0.40177,0.097561,-0.036551,-0.020856,-0.028749,-0.021911
-0.011066,-0.020716,-0.18632,-0.24561,0.036016,0.025888,0.022155,-0.0070578
0.027018,0.065411,-0.041736,-0.027907,-0.017343,-0.02192,0.064334,0.015226
0.0098108,0.0034067,0.070819,-0.19303,0.030014,0.031215,-0.28585,0.0061046
-1.7367e-05,0.035641,0.22272,0.19026,-0.0014412,-0.017578,0.13518,-0.010737
-0.0022359,0.0059528,-0.21012,0.1543,-0.064665,-0.0274,0.022709,0.0039798
-0.027834,-0.070065,-0.047382,0.15254,0.067037,0.048864,-0.0056587,0.0035245
0.0093868,0.018376,0.078326,0.020478,0.026547,-0.0073744,0.082109,0.0035696
0.015901,0.0054189,-0.090952,-0.25076,0.0013782,-0.0085451,-0.15832,-0.0037496
-0.0081317,-0.023279,0.045898,-0.17814,-0.031915,-0.0015438,0.031862,0.0048696
0.015486,0.033559,0.16012,0.19804,-0.034251,-0.002079,0.16909,0.0058051
-0.014836,0.019431,-0.084936,-0.30281,-0.021167,0.013178,-0.15239,-0.024574
-0.021096,-0.073668,-0.20555,0.2017,-0.00030557,-0.026177,0.036303,-0.00049329
0.03557,0.074477,0.1493,0.5006,0.091067,0.01262,0.016135,0.007629
0.014294,0.010765,-0.020766,-0.6637,0.0032046,0.012396,-0.033786,0.015384
-0.022675,-0.02246,0.0027652,0.25602,-0.044919,-0.018967,0.088895,0.0071843
-0.020873,-0.048349,0.14164,0.22885,-0.04534,-0.011053,-0.054131,-0.024693
-0.0039019,-0.0040152,-0.23701,-0.36205,0.0019885,-0.0028292,-0.080761,-0.017625
0.012516,-0.01404,0.09339,0.19462,0.07356,0.037008,0.047568,0.020696
0.02054,0.07038,0.14855,-0.32729,-0.010494,0.014688,-0.044384,0.0044282
-0.018869,-0.0083442,-0.11814,0.4086,-0.0082511,-0.038646,0.12777,-0.019512
0.019348,0.023247,-0.0030999,-0.19098,-0.0059576,0.017456,-0.029496,0.066052
-0.013163,-0.022539,0.080377,0.069741,-0.042972,-0.020348,-0.10178,-0.035805
0.00088526,-0.013256,-0.21045,0.034836,0.052347,0.019607,0.075382,-0.0048299
0.01474,0.0037694,0.00061726,-0.20176,-0.009195,0.0043438,-0.052301,0.0027059
-0.026141,-0.018773,0.16003,0.20371,-0.032313,-0.019347,0.17958,-0.036596
-0.012218,-0.0030744,-0.090683,-0.07707,-0.0091282,-0.035836,-0.0021658,-0.005442
0.025437,0.0273,0.13946,-0.028836,0.037041,0.040907,-0.56611,0.018191
0.0010556,0.0021339,-0.079521,0.090127,0.02039,0.023536,0.55029,0.026627
0.00071734,-0.0079531,-0.06111,-0.15039,-0.012094,-0.0018185,-0.12959,-0.011311
0.02451,0.052196,0.30253,0.18665,0.0021671,-0.0036978,0.16753,0.029341
-0.060364,-0.16063,-0.32638,0.10094,-0.03053,-0.052211,-0.050748,-0.023446
0.027281,0.088464,0.019131,-0.29822,0.014855,0.040331,-0.14399,0.0019553
-0.0017738,0.018568,0.079823,0.02066,0.0055672,0.0084632,-0.034139,-0.011933
-0.0071394,-0.01865,-0.082605,-0.020098,-0.0036106,-0.0227,-0.088299,-0.010694
0.026506,0.085978,0.047422,0.08009,-0.035982,-0.014045,0.13903,-0.010147
0.005077,-0.043038,0.0096592,0.0092496,0.057051,0.042207,0.062109,0.04432
-0.0014312,-0.00013146,0.21167,0.30675,0.010025,-0.01032,-0.0065003,0.0043248
-0.024509,-0.043848,-0.38392,-0.379,-0.059742,-0.015599,-0.0044402,-0.036205
0.013862,0.00488,0.24036,0.045399,0.019682,-0.0051779,0.036686,-0.0066862
-0.011254,0.0050552,-0.2342,-0.030025,-0.0095597,0.028416,-0.032032,0.022887
-0.013682,-0.0043094,0.09197,0.12057,-0.0070118,-0.0089006,-0.054785,-0.017494
0.0069573,-0.0073142,0.1646,0.059022,0.066093,0.023223,0.046297,0.02084
-0.01139,-0.011241,0.030167,-0.13704,-0.025016,-0.039439,-0.20532,-0.026067
0.033266,0.08614,0.070367,0.094717,0.0082866,-0.009402,0.22973,0.02143
-0.0071907,-0.066063,-0.18515,-0.25337,-0.029712,-0.01153,-0.10897,0.014702
0.00020085,-0.021997,-0.066231,0.13171,-0.022103,0.024758,0.091633,0.00032821
0.016334,0.023344,-0.097802,0.21945,0.046653,0.029505,0.066357,0.017034
-0.021506,0.023143,0.14884,-0.2627,-0.04987,-0.020351,-0.20022,-0.05266
0.019169,0.039707,0.024891,0.18615,0.024614,0.00053743,0.10431,0.0020081
-0.0026166,-0.036707,0.030604,-0.042528,0.020609,-0.0013138,0.065527,0.0091481
-0.024648,0.0043962,0.096395,0.083204,-0.030056,-0.010115,-0.11395,-0.023279
-0.0080227,-0.040505,-0.33138,-0.24861,0.013796,-0.0023757,0.096615,0.022184
0.00037665,-0.038861,0.1703,-0.04546,0.0041614,0.021853,-0.068786,-0.018208
0.0084902,0.0483,0.15727,0.25521,0.0037891,-6.7209e-05,0.038217,0.074584
0.0087122,0.010105,-0.12736,-0.1985,-0.018547,-0.021463,0.089798,-0.019552
-0.014372,-0.020479,0.059287,0.33479,0.0072671,0.0043036,-0.18683,-0.027103
0.025314,0.034832,-0.20432,-0.34152,0.03398,-0.0011374,-0.025153,-0.0027969
0.02623,0.066751,0.15214,0.16927,0.037667,0.016672,-0.19775,-0.040514
-0.066424,-0.16693,-0.035729,-0.10354,-0.13062,-0.028398,0.3819,0.031438
0.044009,0.099276,0.051726,0.088085,0.036499,0.035383,0.1123,0.025362
0.0057024,0.029234,0.085422,0.078423,0.030881,-0.010811,-0.093027,-0.0042398
-0.0018922,-0.033519,-0.27175,-0.05544,-0.01482,-0.010736,-0.11018,0.012803
-0.033601,-0.011003,0.18209,-0.11059,0.040014,0.012245,0.16108,-0.025157
-0.011292,-0.043857,0.00039982,-0.10974,-0.038869,-0.027661,-0.27266,-0.016576
0.010508,0.086808,-0.075581,0.15183,0.0065626,0.025998,0.064378,-0.0004759
0.0086459,-0.064024,0.21141,0.10606,0.035962,-0.0062351,0.031468,0.015409
0.014718,-0.0037717,-0.10736,-0.1586,-0.059747,-0.014762,-0.11302,-0.0079103
0.01343,0.033608,0.054725,-0.085022,0.024406,0.024031,0.17104,0.0077241
-0.026227,-0.029664,-0.30883,0.32872,-0.00040883,-0.0069481,-0.17761,0.0075837
-0.0104,0.017543,0.022476,-0.056803,-0.0090373,0.0016701,0.27965,0.0071776
0.021796,0.026775,0.019244,-0.32724,0.014196,-0.0049182,0.035742,0.021967
0.015471,0.044683,0.24551,0.17313,-0.0010796,-0.019114,-0.24508,-0.018515
-0.021869,-0.093187,0.077109,0.33373,0.03092,0.021302,0.13224,-0.012789
0.0031699,0.034566,-0.14232,-0.52673,-0.054083,0.0066491,-0.16104,-0.046746
-0.011312,-0.01783,0.070583,0.37137,0.064001,0.030406,0.2103,0.028255
0.0047425,-0.00073786,-0.035862,-0.13742,-0.036885,-0.040421,-0.26223,0.0016196
0.012144,0.015322,0.036463,-0.17902,-0.04434,-0.0027459,0.18655,0.04565
-0.028148,-0.071257,-0.29999,0.13691,0.0025774,-0.0048757,0.025146,-0.057968
0.032474,0.091183,0.21948,0.19346,0.033648,-0.015269,-0.043322,0.050505
-0.0088254,0.002836,-0.13173,-0.20397,0.033395,0.013358,-0.18279,-0.019328
-0.0032446,-0.015743,0.13946,-0.031019,-0.013649,0.011137,0.13815,-0.017415
-0.0050919,0.0044541,0.15182,0.0022287,-0.0057922,0.0018992,0.1071,0.05611
-0.014036,-0.022259,-0.23331,0.044754,-0.036705,-0.014098,-0.010325,-0.095929
0.0092093,-0.025329,0.02509,0.2763,0.034259,0.049153,0.067018,0.049472
0.010025,-0.020154,-0.094862,-0.41303,-0.0038723,-0.027227,-0.03598,0.054301
0.019555,0.14973,0.05608,0.15546,-0.018368,0.0064653,-0.49122,-0.10542
-0.017158,-0.10925,0.14185,-0.042994,0.01409,-0.029858,0.45926,0.069815
0.024494,0.01556,0.17697,0.35748,0.023039,0.011811,-0.020208,0.0092771
-0.027801,-0.0069831,-0.10606,-0.26136,-0.062003,-0.01735,0.023895,-0.013856
-0.018201,-0.067475,-0.26426,-0.15776,0.047851,0.015186,-0.017452,-0.023102
0.021746,0.091832,-0.034281,-0.089277,0.00087721,-0.0079364,-0.30027,-0.026159
-0.033107,-0.068317,0.13673,0.10135,-0.0077384,0.030433,0.29263,0.047592
0.036019,0.084566,0.028996,0.064118,0.014133,-0.010251,0.0032408,0.0032934
-0.0050668,-0.012455,0.29093,0.28517,-0.0037864,0.0030013,0.034295,0.005555
0.023626,0.054199,-0.36555,-0.28846,-0.030096,-0.01549,0.025983,0.00026009
-0.02597,-0.067463,0.014498,0.11018,0.013595,0.0049026,-0.076702,-0.082385
-0.012851,-0.03397,-0.20719,-0.05711,-0.012982,-0.013608,-0.23473,0.01583
-0.0069964,-0.064132,0.27655,-0.11819,-5.6164e-05,-0.00038123,0.28663,0.09982
0.023083,0.053153,-0.094749,0.12978,0.04493,0.021416,-0.15256,-0.010079
0.0071884,0.021335,0.22702,-0.0092956,-0.034003,-0.010544,0.097015,-0.017153
-0.0078363,0.012664,-0.023662,-0.20849,-0.010179,0.013155,-0.15915,-0.054521
0.0090988,0.035264,-0.16032,0.16347,0.0069551,-0.024774,-0.014353,0.018073
0.010864,0.011174,0.22919,0.35489,0.048392,0.031688,0.3047,0.028393
-0.026271,-0.028356,-0.16999,-0.29209,-0.058139,-0.028721,-0.085598,-0.055094
-0.0088325,-0.013138,-0.12579,-0.036609,0.046276,0.020203,0.063384,0.064319
0.016101,0.0019605,0.024064,-0.17626,-0.0059814,0.021883,-0.0077967,-0.019667
-0.014079,-0.06915,-0.09646,0.18743,-0.035536,-0.031722,-0.16003,-0.0023116
0.017807,0.039075,0.17656,0.0083761,0.043426,-6.8443e-05,-0.24587,0.022748
-0.013173,0.0063221,0.17967,-0.063515,-0.073696,-0.023698,0.2188,-0.15531
-0.013166,0.012327,-0.23436,0.11424,-0.011639,-0.0086366,0.11739,0.16672
0.017925,0.018084,0.27973,-0.042383,0.042459,0.021988,-0.025389,-0.0033668
0.025468,0.039248,-0.27644,-0.26614,0.026442,0.029429,-0.02035,-0.0016321
-0.021789,-0.064802,-0.13576,0.42838,0.018664,-0.0095122,0.071775,-0.00013844
0.016729,0.026257,0.070142,-0.24766,0.011356,0.014652,-0.10687,-0.053779
-0.0074805,-0.0078309,0.18566,0.056684,-0.026883,-0.0074921,-0.35216,0.0091724
-0.024147,-0.018474,-0.031405,0.13692,-0.05729,-0.03705,0.60965,0.016812
0.0058125,-0.044474,0.0041614,-0.21971,0.029147,0.027287,-0.26874,-0.038563
0.0043775,0.070766,-0.03709,0.3911,0.036785,0.0055536,0.26943,0.022965
-0.004835,-0.00050561,0.14005,-0.49322,-0.018961,-0.032192,-0.14451,0.021991
-0.0059744,-0.039225,-0.18482,0.0013139,-0.0053177,0.015423,-0.19956,-0.041228
0.0089962,0.0016549,0.041762,0.18701,-0.0080659,-0.00014857,-0.014142,0.052206
0.024625,0.036165,0.077144,0.24422,-0.011255,-0.00081347,0.09852,-0.025847
0.0019306,0.0093625,-0.1876,-0.33354,0.024615,0.029088,0.028937,0.036933
-0.020056,0.0067341,0.014489,0.017993,-0.024998,-0.019734,-0.027205,-0.02539
-0.033668,-0.034788,0.068183,-0.058775,-0.011268,-0.029972,-0.10831,-0.017864
0.031173,0.040467,-0.032173,-0.031111,0.02698,0.021967,0.14565,0.020139
0.0022953,-0.080481,0.098094,0.38311,0.066347,0.05814,0.03205,-0.020917
0.020014,0.047387,0.053839,0.13712,-0.010509,-0.038421,0.066698,0.015273
-0.001888,0.017747,-0.2352,-0.48847,-0.055447,-0.040906,0.015194,0.027437
-0.02455,-0.04428,0.25334,0.052042,-0.037577,-0.011547,-0.10691,-0.038616
-0.001188,-0.021264,-0.052896,-0.094393,0.01152,0.026474,-0.041712,-0.11196
0.0057333,0.016735,-0.0002866,0.35978,0.044719,0.026478,-0.077827,0.16738
-0.034888,0.022995,0.041308,-0.28988,-0.047493,-0.02707,-0.14414,-0.090773
0.0099828,0.013119,-0.10217,0.088401,0.039532,0.037653,0.19786,0.05908
0.04684,0.08846,-0.11944,-0.076406,0.0011396,-0.0061237,0.25383,0.069913
-0.010039,-0.071612,0.15353,0.29346,0.040526,-0.018116,-0.23346,-0.10561
0.027001,-0.0064539,-0.25087,-0.40358,-0.060973,-0.022185,0.024983,0.039639
-0.037262,-0.020855,0.27098,0.34844,-0.02202,0.0046611,-0.018501,-0.010707
0.000346,-0.013029,-0.051855,0.018999,0.05591,0.038585,-0.029456,-0.022926
-0.016388,-0.037061,-0.16229,-0.35164,-0.061476,-0.037896,0.083938,-0.020879
0.0063402,0.009546,0.4025,0.27719,0.063396,0.040694,0.1087,0.050001
-0.001709,-0.0049123,-0.14551,-0.20192,-0.0069123,-0.014688,-0.097526,-0.036671
-0.0092085,0.069064,-0.10304,0.18971,-0.022356,-0.024163,-0.14518,0.0007593
0.030762,0.036952,-0.025354,-0.36629,0.0092832,-0.01084,0.028135,-0.0090707
0.0088049,-0.014976,0.11776,0.42843,0.017705,0.03351,0.19681,0.051504
-0.036135,-0.063487,-0.20613,-0.13643,-0.051786,-0.023496,-0.27792,-0.035945
0.012918,-0.023373,0.1895,0.1028,0.019523,-0.017443,-0.06547,0.025555
0.0072425,0.049537,-0.06323,-0.31627,-0.057516,0.028445,0.32891,0.01712
0.040282,0.06793,-0.24584,0.48678,0.13102,0.067324,-0.076998,0.016577
-0.028856,-0.071144,0.36044,-0.36599,-0.032275,-0.041584,-0.016243,-0.031108
-0.044084,-0.001683,-0.04108,0.2239,-0.016371,-0.04075,-0.019846,-0.032447
