0.018198,-0.0052997,-0.12849,-0.15536,0.0072222,-0.016081,-0.0085944,0.011141
0.011301,-0.02571,0.056396,-0.0083558,0.029559,0.021826,0.014404,-0.0025816
0.030306,0.063349,0.032907,0.1028,0.004188,-0.010549,-0.016908,-0.024496
-0.020474,-0.0042868,0.065932,0.020682,-0.021816,-0.011465,-0.0008704,0.015613
-0.065139,-0.0025227,0.037156,0.032584,0.014319,0.042672,0.023468,0.0083249
0.11295,-0.001988,-0.039165,0.3396,0.04259,-0.05115,-0.053346,-0.054159
0.051299,0.012848,0.023087,-0.57578,-0.038249,0.027435,0.041961,0.054789
-0.20391,-0.051604,-0.22254,0.019456,-0.056026,-0.026282,-0.011159,-0.016299
0.12117,-0.015254,0.090445,0.077964,0.052008,-0.0014635,-0.0020453,0.0061222
-0.16731,0.028707,0.040061,0.068998,-0.0343,0.023582,0.029955,0.0049561
0.026714,-0.012885,0.079894,0.072062,0.0053918,0.0017168,-0.016969,0.003703
0.07311,-0.045817,-0.031303,-0.043695,0.022503,-0.012688,-0.0258,-0.021048
0.013467,0.062924,-0.042282,-0.14333,0.032343,0.019101,0.0034097,-0.0068029
0.044936,0.07884,-0.0063742,0.040697,0.011017,0.01087,0.016057,0.022969
0.019837,0.048391,-0.062942,0.15814,-0.034171,-0.014098,0.0045543,-0.0098989
-0.038857,-0.075877,0.062449,0.045492,0.021329,-0.016708,-0.015127,-0.0038818
0.046986,-0.075751,0.089155,0.022846,-0.041499,0.0032955,0.012137,0.0019477
0.025097,-0.053097,0.017347,-0.1841,-0.011721,-0.0083032,0.0086995,0.046693
-0.013209,0.10934,-0.067269,-0.037508,-0.021857,0.019436,0.014091,-0.010157
-0.0074587,-0.048916,-0.087093,0.047269,0.01456,-0.06906,-0.072851,-0.066837
-0.19317,-0.027156,0.05876,0.0066164,0.051307,0.047109,0.029389,0.017556
0.023421,-0.035535,0.01022,-0.11338,0.0030791,0.024557,0.008396,0.0011566
-0.0050275,0.012479,-0.014577,0.42122,-0.043722,-0.019488,-0.0031631,-0.01418
0.067145,0.093659,-0.0083132,-0.34283,0.020475,0.070909,0.04902,0.034232
0.11714,0.29369,0.036446,-0.19452,0.0080642,-0.048623,-0.023138,0.0057723
-0.0015424,-0.24746,-0.0056006,0.30388,0.028037,0.058614,0.021843,0.033035
-0.09239,-0.093143,-0.087847,0.035386,0.0017007,-0.10819,-0.058948,-0.032847
0.008826,-0.041052,0.094131,0.17992,-0.001257,0.02842,0.030745,-0.012767
-0.019128,-0.14644,-0.0067967,-0.36387,-0.098583,-0.063173,-0.037609,-0.01673
0.10317,0.19983,0.054488,-0.064449,0.014011,0.054467,0.024919,0.032829
0.10773,-0.017825,0.012316,0.070748,0.00038633,-0.0012454,-0.015899,-0.012915
-0.2344,0.13046,-0.078422,0.081286,0.040206,0.043539,0.035644,0.01778
0.04358,-0.10515,0.040615,0.27244,0.078881,0.02524,0.0082336,5.8784e-05
0.010952,0.11921,-0.082859,-0.2536,-0.039686,-0.047884,-0.042813,-0.089112
-0.097848,-0.024546,-0.16657,-0.074388,-0.026256,-0.0036248,0.023732,0.063352
0.054285,-0.10663,0.12642,-0.080072,-0.0056501,-0.029288,-0.010399,0.020608
0.024055,-0.017398,0.070207,0.19835,-0.024544,0.015801,-0.035532,-0.037063
-0.014208,-0.092289,0.11803,-0.11416,-0.012399,-0.0012344,0.057785,0.039197
-0.011239,0.083455,0.01933,-0.080564,0.031041,0.052278,0.027222,-0.0082563
0.14421,0.018401,0.03084,0.4233,0.02792,-0.011322,-0.010355,0.039236
-0.054646,0.064721,-0.19253,-0.19751,0.0097468,-0.0046512,-0.055372,-0.029574
0.0016135,0.035194,0.090212,-0.04587,-0.02326,-0.0058532,0.032354,-0.011995
-0.086319,-0.06253,-0.12937,-0.13081,0.0071833,-0.038257,-0.036614,-0.033475
0.10187,0.020942,0.062911,-8.6174e-05,-0.047283,-0.031326,0.0030961,0.015
-0.076342,-0.0043957,-0.13673,0.017789,-0.046062,-0.023846,0.0029336,-0.015224
0.0099423,-0.069321,-0.01592,0.19638,0.081007,0.11723,0.033222,0.047678
-0.05492,0.020442,0.16126,-0.1044,0.013318,-0.014266,-0.015309,0.00066794
0.079597,0.05316,0.13821,-0.21966,0.047335,0.011236,0.037192,-0.062326
0.006858,-0.13566,0.0091923,0.27338,-0.03617,-0.017539,0.011245,0.077653
-0.13224,0.14145,-0.17923,-0.23376,-0.050141,-0.022954,-0.053847,-0.047955
0.10063,0.072394,0.15779,0.50189,0.083246,0.04135,-0.017187,0.053174
0.073898,-0.16244,-0.11413,-0.050172,-0.065765,-0.03598,-0.011301,-0.040765
-0.039087,0.047282,-0.020054,-0.13917,-0.11416,-0.036396,0.0031383,-0.056327
0.052277,-0.039584,-0.10044,-0.50645,0.11036,0.0011022,-0.0049284,0.084569
-0.13494,-0.070475,0.042332,-0.14345,-0.0088336,0.014329,0.10519,-0.016586
0.056725,0.23668,0.048694,0.21589,0.0053323,-0.0040419,-0.033758,-0.00050677
-0.11412,-0.055104,0.1222,0.3916,0.082898,0.079345,0.046766,0.0077255
0.024654,-0.062827,-0.11907,0.29643,-0.026043,-0.063161,-0.083191,-0.054456
0.11325,-0.0053923,0.021344,0.092143,-0.0326,0.045317,-0.095771,-0.0074082
0.025513,-0.07072,0.083721,-0.48981,-0.08558,-0.063871,0.071312,0.070723
0.033066,0.068704,-0.17302,0.024328,0.11925,0.023226,0.050726,0.00024593
-0.030404,0.044977,0.041037,-0.20326,-0.027907,-0.013991,-0.079507,-7.1295e-05
-0.057867,0.0057772,0.038912,-0.18077,-0.011676,0.027212,0.0477,-0.047371
-0.03572,-0.1512,0.11761,0.28843,-0.043042,0.029239,0.088472,0.030305
0.065976,0.049911,-0.14499,0.027347,0.026609,-0.016061,-0.04327,-0.0091033
0.07502,0.28039,0.10992,0.10977,-0.036759,-0.046385,0.066433,-0.0013762
-0.19533,-0.30399,-0.087188,0.085999,0.079761,0.024196,-0.14491,-0.032301
-0.11833,0.030837,-0.12781,-0.1195,-0.021919,-0.046328,-0.083379,-0.023661
0.11311,-0.043374,0.13562,-0.27107,-0.083792,0.00017214,0.048245,0.063586
0.11107,-0.12026,-0.0085883,0.21691,0.15193,0.070313,0.1176,0.026151
0.26866,0.5662,0.24368,0.17084,-0.088434,0.00035304,0.015729,0.035607
-0.099636,0.0010754,-0.27198,0.18168,0.085347,0.017044,-0.022684,-0.033425
-0.30513,-0.5177,0.014706,-0.46471,-0.069357,-0.051475,-0.03664,-0.040681
-0.081823,0.026912,-0.10692,0.22881,-0.060716,-0.010057,-0.026339,-0.033273
0.13232,-0.30097,0.10589,-0.43501,0.040778,0.0081736,0.039022,0.0043766
0.070465,0.39865,0.091356,0.49641,0.00080451,0.010629,-0.020863,-0.005691
0.14488,0.4082,-0.055953,-0.15571,0.014943,0.012513,-0.081684,0.046225
-0.029457,-0.32664,0.07877,-0.29553,-0.041403,-0.0099873,0.19967,-0.0035429
-0.072069,-0.19702,-0.12107,0.43137,0.066565,-0.010265,-0.028798,0.048497
-0.1179,0.20967,0.016808,-0.22995,-0.020191,0.042822,0.084332,-0.063026
0.00328,0.25069,-0.015233,0.058782,-0.0046434,-0.038145,-0.46068,0.0057423
0.064009,-0.43567,0.079653,0.13477,-0.01967,-0.026325,0.30558,0.020393
-0.053001,0.04687,-0.097199,-0.033229,0.020392,0.016224,0.0090702,-0.019204
0.082605,0.017023,0.0084962,-0.071411,0.076069,0.011926,-0.13038,0.019609
0.026796,-0.17445,0.068081,0.010364,-0.11871,0.00041843,0.27882,-0.0039131
0.085927,0.43342,0.065336,0.47534,0.060676,0.013461,-0.22358,0.0039533
-0.20694,-0.033584,0.054372,-0.75678,-0.010951,0.012357,0.1517,-0.03484
-0.014165,-0.10538,-0.28559,0.0077933,-0.083547,-0.049602,-0.1034,-0.042008
0.0093535,-0.21782,0.052974,0.088722,0.069732,0.0072137,-0.059848,0.068565
0.051918,0.12301,0.023071,-0.013864,0.01184,0.018467,0.070462,-0.023318
0.066773,-0.096994,0.0075405,0.3804,0.0089292,0.046204,0.091156,0.026067
0.10803,0.12324,0.21741,0.17864,-0.0010268,-0.035148,-0.17065,0.029013
-0.13016,0.081036,-0.073799,-0.35263,-0.056773,-0.023075,0.11238,-0.022669
-0.032044,0.080864,-0.10819,-0.040771,-0.0097868,-0.050958,-0.02896,-0.0044516
0.018127,0.028199,-0.034079,-0.096036,0.09289,0.076063,-0.055629,0.012904
-0.027569,-0.19522,0.031557,-0.072404,-0.022566,-0.0016733,0.10309,-0.0099691
0.1195,-0.1061,-0.0046515,0.24183,0.065214,0.020443,0.033951,-0.0028157
-0.12631,0.091648,0.10785,0.042782,-0.034889,0.0097392,-0.10572,-0.03573
-0.14689,-0.12581,-0.036475,0.089024,-0.1201,-0.080308,-0.14285,-0.12389
0.15286,0.10868,-0.077514,-0.36884,0.028254,0.016455,0.072114,0.13171
-0.061664,0.060935,-0.053654,0.12267,-0.027153,-0.027462,0.16497,0.051896
0.10899,0.10615,0.074592,0.0010042,0.034398,0.046394,-0.012414,0.035432
0.08703,-0.060291,-0.059946,0.14852,0.064964,0.019813,0.016304,0.0042552
-0.0342,-0.032198,0.096911,0.095544,0.025914,0.010321,0.0081974,-0.041827
0.0098428,0.065307,0.044111,-0.32336,-0.0043723,0.002372,-0.069049,-0.056297
-0.17291,-0.10371,-0.024517,0.085474,-0.057131,-0.035464,-0.22442,-0.07861
0.22865,-0.031177,-0.0012585,0.023392,-0.031025,-0.02546,0.20508,0.11748
-0.13799,-0.17742,0.13583,0.027801,0.011042,0.031854,0.031154,-0.015051
-0.077747,0.36471,-0.21578,0.37865,-0.04081,0.018723,0.081497,0.00035166
-0.082252,-0.18505,-0.017195,-0.53415,0.14885,-0.018479,-0.15178,0.015395
0.052802,-0.083648,-0.16615,0.18783,-0.014164,-0.017605,0.0034594,-0.016573
0.13356,0.27095,0.12788,-0.20463,-0.09259,0.029017,-0.046028,-0.017179
-0.010536,-0.082242,0.093305,0.0555,0.054181,0.0042957,0.13012,0.029426
-0.0037411,-0.17514,0.091343,0.095017,-0.08142,0.0023097,0.056053,-0.0015891
0.052372,0.21768,0.0062263,-0.021745,-0.053608,-0.062371,-0.10347,0.014865
-0.046116,-0.045854,-0.044113,0.28491,0.083523,0.0061626,0.011486,0.00066918
0.06664,-0.10003,-0.028419,-0.069827,0.088377,0.020984,-0.098697,-0.11457
0.084443,-0.094532,-0.05668,-0.0071794,-0.046405,0.05283,0.050504,0.083039
-0.25175,0.17301,0.026361,-0.51905,-0.00027825,-0.030939,-0.009789,-0.023941
-0.05972,0.10085,-0.08508,0.1368,-0.0076292,-0.0038919,0.14187,0.079788
0.027986,-0.248,0.17054,0.53061,0.071957,-0.0070852,-0.10457,-0.020193
-0.026645,0.16659,-0.058966,-0.20499,-0.12904,0.044755,0.062532,0.02735
0.30143,-0.075749,-0.023848,-0.078132,-0.048493,-0.036648,0.0095273,-0.043417
-0.14224,-0.02801,-0.075525,-0.4332,0.024172,-0.025482,-0.045477,-0.084069
0.018916,0.053563,0.067669,0.25227,0.080803,0.038602,-0.02462,0.061872
-0.042175,-0.14241,0.015637,0.29716,0.082017,0.0068521,-0.052697,-0.0035902
-0.036112,0.16572,0.034457,0.2778,-0.097484,-0.066034,-0.0040525,0.0013658
0.036668,-0.038169,-0.11785,-0.48741,0.018617,0.015587,-0.096476,-0.039883
-0.028095,0.072641,0.089829,0.24988,0.023948,0.017925,0.21014,0.029329
0.10387,0.0195,0.039792,-0.25344,-0.073603,0.012027,0.088547,0.091968
-0.10842,-0.028107,0.074992,-0.083162,0.015356,0.029899,-0.046636,-0.023989
0.036225,-0.0098548,-0.18831,0.1215,0.072661,0.0018935,4.1955e-05,0.016983
0.020621,-0.013117,0.0068683,-0.12138,-0.12747,-0.063699,-0.15446,-0.098183
0.1641,0.032124,0.10529,-0.011879,0.0017452,0.013052,-0.12003,-0.0185
-0.29135,-0.27156,-0.088471,0.24988,0.086028,0.013387,0.1183,0.021203
-0.063861,0.03897,0.043197,0.20531,0.016443,-0.016069,0.11448,0.044131
0.1057,0.029147,0.024614,-0.44909,-0.03511,0.049246,0.0084095,0.026857
0.18003,0.23331,-0.11173,0.13811,0.0090577,-0.025597,0.14319,-0.04601
-0.17497,0.052491,0.096517,0.30928,0.077806,0.024453,-0.23941,-0.025644
0.057879,-0.24614,0.017883,-0.25818,-0.072113,-0.012028,-0.037951,0.0024773
0.012384,0.29081,-0.065311,-0.0748,-0.019899,-0.018161,0.083768,0.054416
-0.037763,-0.15015,-0.011827,-0.14321,0.0070297,-0.025264,-0.17048,-0.010112
0.11791,0.014906,0.076834,-0.051524,0.00040551,0.0058923,0.19238,0.0043987
-0.052869,-0.1384,0.028313,0.45663,-0.063172,-0.033715,0.040508,0.0042324
0.011116,-0.07361,-0.048949,-0.1116,0.043371,0.059467,-0.039338,-0.065401
-0.14448,0.12894,0.10166,0.079849,0.063089,0.0045751,-0.0076105,0.060927
0.073267,0.10048,-0.19296,-0.2417,-0.02643,0.020595,-0.083016,-0.0076533
0.093817,0.035526,0.042677,-0.23907,-0.091412,0.0059972,0.030903,-0.037017
-0.019881,-0.13621,0.018752,0.16733,0.079779,-0.008135,0.020833,0.027295
-0.21992,-0.085872,-0.038562,0.15079,0.0030479,-0.084607,0.09665,-0.033667
0.041951,0.19563,-0.019958,0.064005,0.0063347,0.057481,-0.039629,0.037747
0.095239,-0.22761,0.16067,0.22021,0.04997,-0.0040473,-0.05298,-0.0085876
0.15973,0.18507,0.019258,-0.22397,-0.015359,0.035325,0.017027,0.085069
-0.0454,-0.0024642,-0.037581,-0.1043,0.0047244,-0.011902,0.0063828,-0.079714
-0.028328,-0.015866,-0.09538,-0.19397,-0.13273,-0.083053,-0.08427,-0.018446
-0.12606,-0.026673,-0.020904,0.28877,0.071862,0.064369,0.08994,0.0034862
0.026962,-0.050742,-0.055914,-0.24129,-0.04555,-0.030202,-0.28994,-0.021383
-0.016441,0.11435,0.10465,0.13856,-0.0079978,0.047642,0.3086,0.001094
0.14817,-0.063613,-0.023313,0.030503,0.091428,0.0012544,0.066105,0.032219
0.019348,0.086231,0.099326,0.0206,0.026891,-0.013063,-0.032819,0.025348
-0.16153,0.024011,0.01933,-0.016742,-0.091633,-0.018895,-0.043342,-0.0038664
0.050799,-0.23508,-0.091679,0.20619,0.040879,-0.0009352,0.064721,0.0068663
-0.077267,0.027715,0.0082101,-0.24221,0.041629,0.040385,-0.10845,-0.013186
-0.013025,-0.069996,-0.07179,-0.059412,0.011892,-0.0047645,-0.18926,-0.088018
0.081367,0.23806,0.10588,0.40106,-0.11915,-0.019576,0.23527,0.086465
0.059502,0.046304,-0.091275,-0.57306,0.038559,-0.027715,-0.030764,0.009749
0.048209,0.011507,0.024769,0.17408,-0.01553,0.0098612,0.08296,0.033061
-0.11522,-0.13169,0.0014843,0.26808,0.093215,0.0074115,-0.04794,-0.023366
-0.0081996,-0.0082874,0.019053,-0.32859,-0.049403,-0.00344,-0.047368,-0.11245
-0.036959,-0.14188,-0.016062,-0.020052,0.017698,0.032475,-0.077994,0.055353
0.11037,0.12352,0.013141,0.43821,0.0058661,-0.032787,-0.060269,-0.050552
0.010773,0.15486,0.035723,-0.31892,-0.10771,0.012131,0.16322,0.15649
-0.13408,-0.13395,0.0038325,-0.024382,0.044877,-0.027815,0.046256,-0.11195
0.072716,0.17112,0.10383,-0.013554,-0.0044235,0.042764,-0.051829,0.058604
0.090742,-0.31257,-0.16535,0.088151,0.041759,0.0049945,0.094803,0.01988
0.036209,0.19654,0.031527,0.33416,0.058602,-0.00078781,-0.061979,-0.032931
-0.22415,-0.13701,-0.079177,-0.40235,-0.040033,-0.021851,-0.0080457,-0.022036
0.028526,0.023169,-0.028329,0.22037,0.0031065,-0.0039268,-0.065089,-0.049459
-0.072382,0.13836,0.16148,-0.26819,-0.039347,-0.0098798,-0.030937,0.071793
0.16927,0.013286,-0.14146,-0.048896,-0.012031,-0.016529,-0.0074798,-0.033756
-0.034775,-0.094561,0.02484,-0.10663,0.037386,0.04632,0.1228,0.055371
0.15198,-0.014037,0.09865,0.48066,0.022427,-0.00099862,-0.18613,-0.067376
-0.1766,-0.019631,0.11934,-0.13795,-0.049279,0.013527,0.18408,0.043128
0.033872,0.020242,-0.030419,0.054056,-0.036909,-0.058323,0.023609,0.0039993
0.056207,0.15907,-0.19489,-0.19239,0.060079,0.025897,-0.16665,0.01059
-0.094664,-0.041599,-0.0075207,0.1392,-0.015359,-0.0070004,0.066848,-0.085391
0.15888,-0.050997,0.031114,-0.11452,0.011056,0.015063,0.13028,0.044419
-0.15199,-0.079958,-0.0012157,-0.30458,-0.031797,0.014086,-0.015926,0.056576
-0.011151,-0.23714,0.051654,0.68651,0.028473,-0.025529,-0.10695,-0.017327
-0.050371,0.22864,0.049247,-0.31306,0.02018,0.021157,-0.088934,-0.028506
0.075552,0.076621,-0.12533,-0.053471,-0.0021451,-0.010041,0.1468,-0.062583
-0.022448,0.01129,0.11421,-0.019517,0.00010943,0.0057337,-0.056372,0.076003
0.07882,0.20558,-0.0052496,-0.024257,-0.0049353,-0.017577,0.043775,0.0045886
-0.065203,-0.12892,-0.030352,0.15823,0.0055037,-0.0019071,-0.036762,0.020077
0.037634,-0.25759,-0.039068,-0.089866,-0.039416,0.021513,-0.07081,-0.041688
0.019274,0.0069901,-7.483e-05,-0.097203,0.016261,0.013715,-0.01082,-0.055908
0.042199,0.070802,0.0085078,0.15933,-0.022792,-0.04078,0.15938,0.08653
0.12003,0.058431,0.041325,0.046892,-8.3641e-05,-0.03245,-0.036492,0.033787
-0.32739,0.094348,-0.003264,0.09705,-0.0011576,0.023176,-0.0047367,-0.026861
0.0028967,-0.040817,0.0074551,-0.33792,0.005657,0.040158,0.027745,-0.079909
0.24262,-0.019612,0.0030676,-0.10858,0.075363,0.033994,-0.033285,0.062156
-0.21011,0.024505,-0.03996,0.10652,-0.010671,-0.0033656,0.014841,-0.030215
0.10603,-0.13555,-0.090471,0.16775,-0.041606,-0.040961,-0.07033,-0.044306
-0.042395,-0.0078905,0.13267,0.20065,-0.025535,-0.024373,-0.054402,0.043526
-0.036953,0.079293,-0.026978,-0.13861,0.076244,0.014984,-0.085534,0.061506
0.15486,0.12619,-0.054065,-0.21796,-0.095977,-0.024469,0.29763,-0.0060586
-0.012755,-0.10121,0.13694,0.070728,0.051356,-0.0019793,-0.15454,-0.050061
-0.078115,-0.039922,-0.14974,0.14784,0.018246,0.043622,0.081542,0.046263
0.092018,-0.04098,0.17136,0.0042054,-0.085712,-0.012409,0.005719,-0.045706
-0.135,0.075781,-0.079775,-0.017313,0.060194,0.0020129,-0.054358,0.025146
-0.024764,0.0060431,0.018645,-0.1747,-0.004478,0.016687,-0.036861,-0.014909
0.17271,0.12501,-0.13469,-0.068902,0.002014,0.015988,0.073132,-0.017489
-0.20661,-0.27045,-0.015749,0.20765,0.05662,-0.023601,-0.084298,-0.0058168
0.071721,-0.00085154,-0.014347,-0.15587,-0.090455,-0.03188,0.068749,0.0049407
0.078102,0.24592,0.20634,0.068778,0.045152,0.037948,-0.037858,0.023229
0.0079198,0.016217,-0.056042,0.046873,-0.01335,-0.05631,0.026166,0.065381
0.064314,-0.057731,0.089629,0.12263,-0.031984,0.021365,0.027374,-0.04761
-0.22934,-0.25773,-0.12208,0.014416,0.10593,0.02112,-0.16595,-0.10425
0.11119,0.13451,0.043117,-0.193,-0.029793,0.013434,0.041015,0.083295
-0.031484,-0.05319,-0.055678,0.35812,-0.056793,-0.0015565,0.14124,-0.01613
0.0063886,0.21807,-0.13759,-0.58397,0.0012016,-0.023792,0.010101,0.034766
0.12287,0.15141,0.14852,0.10417,-0.043437,0.017001,0.014605,0.040187
-0.010634,-0.41705,-0.072868,0.093257,0.012439,-0.0043191,-0.088099,-0.039628
-0.22276,0.036482,0.088272,0.28883,0.083,-0.02548,-0.033426,-0.064873
0.1266,0.082888,0.068695,-0.28601,-0.019136,0.023548,-0.01008,0.018322
0.083854,0.18388,0.055077,0.032689,0.0029783,0.033093,0.12141,0.053014
-0.093503,-0.12839,-0.15648,0.026266,0.032162,-0.043988,-0.085171,-0.015961
0.10221,-0.024805,0.050671,0.1403,-0.080054,-0.028208,-0.028774,0.02215
-0.086722,-0.12168,-0.11266,0.03938,0.017882,0.064719,0.07961,-0.035649
-0.027107,-0.090231,-0.021081,-0.2599,-0.0020805,-0.022982,-0.07993,-0.09518
0.07852,0.47609,0.13102,0.3299,0.032139,0.013556,0.14183,0.16453
-0.11287,-0.24322,-0.022225,-0.43911,-0.019737,-0.020673,-0.19158,-0.060391
-0.0068114,-0.014475,-0.018368,0.076218,-0.0009997,-0.0080779,0.061581,-0.019133
0.053465,-0.01846,0.058117,-0.05115,-0.020524,-0.010711,0.066354,0.039029
0.029089,-0.053401,-0.041583,0.18105,-0.038802,-0.012529,-0.08283,-0.096336
0.060471,0.066827,-0.10579,-0.077364,0.061643,0.057089,0.10645,0.090617
0.076712,0.20824,0.18601,0.39249,0.046493,0.0029655,-0.12389,-0.0017749
-0.071428,-0.13778,-0.072781,-0.10595,-0.021964,-0.018731,0.10038,0.040145
-0.13474,-0.25277,-0.0079742,-0.37196,-0.011369,-0.016108,0.043798,-0.081138
-0.043449,0.035262,0.043347,0.20855,-0.016073,0.010363,-0.10739,0.024241
0.030424,-0.0075784,-0.091986,-0.14103,-0.013264,-0.010199,0.067557,-0.035095
0.048136,0.04896,0.014461,0.29539,0.012171,0.023194,0.0053795,0.060552
0.19007,0.47097,-0.013368,-0.21047,0.044319,0.00068063,-0.059778,0.021744
-0.1444,-0.11628,0.16753,-0.0028664,-0.041824,-0.015548,-0.12754,-0.081289
-0.13399,-0.25172,-0.18541,-0.31563,-0.035045,0.0056815,0.1702,0.0016744
0.15178,-0.099247,0.044989,0.20412,-0.0051757,-0.013576,-0.016871,0.021109
-0.11467,-0.10376,-0.00033944,0.2298,-0.037599,-0.04166,-0.1484,0.016716
0.12147,0.15735,0.077586,-0.096691,0.12598,0.070442,0.2298,-0.010826
0.016123,0.060159,-0.12683,0.1784,-0.021984,-0.020379,0.0089377,0.0093919
-0.048555,-0.003558,0.058943,-0.077878,0.026304,0.0067886,-0.17821,-0.00034129
0.035901,0.076609,0.010416,-0.061574,-0.04196,-0.019472,0.081834,-0.024231
0.018544,-0.034621,-0.022103,0.10137,0.022724,0.0026517,0.045848,0.062641
-0.13268,-0.0715,0.078631,-0.37879,-0.077079,0.057552,0.017336,-0.021262
-0.051107,0.0045661,-0.046929,0.083806,0.017532,-0.058096,-0.075075,-0.026354
0.067795,-0.11212,0.030575,0.23208,0.017232,0.022535,-0.0054896,0.0078636
0.20075,0.20203,-0.072054,-0.026279,0.039221,-0.0056822,0.007246,0.0028896
-0.15183,-0.085849,-0.02703,-0.18942,-0.025587,-0.033803,-0.036353,-0.01809
-0.044107,0.077361,0.016997,0.15073,-0.012619,0.015946,-0.033713,-0.086438
0.11823,0.13577,0.059982,-0.0044786,0.00062871,0.049595,0.00081316,0.13379
-0.16436,-0.27841,-0.069824,-0.36553,-0.039915,-0.042304,0.068446,-0.013605
0.14753,0.038181,0.19036,0.7779,0.030284,-0.04094,0.076312,0.018343
-0.094416,-0.046206,-0.14341,-0.48212,0.016124,0.046033,-0.014321,-0.020316
0.00038103,-0.014196,0.030943,0.4535,0.065934,0.023503,0.077523,-0.051432
0.10356,0.097239,-0.12972,-0.71487,-0.047276,-0.0067799,-0.10988,0.026575
0.019486,-0.014621,0.062685,0.27592,0.019586,-0.029063,-0.13231,0.010613
0.029033,0.081296,0.0227,0.18195,-0.062365,-0.012062,0.040291,0.0023058
-0.21966,-0.036446,-0.022889,-0.34893,0.034293,0.02853,0.039686,0.0017507
-0.062752,-0.10289,0.089855,0.19949,-0.058138,-0.0090127,-0.0099301,-0.053438
0.093394,0.13805,-0.030219,0.02412,0.035111,0.031337,0.11753,0.01653
0.12367,0.051095,0.022274,0.0022957,0.0016054,-0.0069102,6.4745e-05,0.071093
0.067,-0.093059,-0.066225,-0.050888,0.044803,-0.022387,-0.073042,-0.02256
-0.037772,-0.015645,0.13294,0.085763,-0.061336,-0.0073805,0.047204,-0.022309
-0.08148,0.039467,-0.091929,-0.062388,0.058812,-0.016548,-0.13836,-0.0063958
0.099857,-0.037603,-0.10053,0.091755,0.015259,0.044029,-0.011527,0.025051
-0.18106,-0.18352,-0.048902,-0.27184,-0.050793,-0.020689,0.084975,-0.014012
0.021669,0.095932,0.087094,0.25254,-0.076392,-0.038501,-0.051143,-0.0377
0.052747,0.061457,0.12879,0.038673,0.094993,0.045588,0.15871,0.039936
-0.047555,0.020918,-0.063315,-0.1338,-0.02876,-0.0025683,-0.066759,-0.0076004
0.073545,0.14126,0.019562,0.26472,0.052189,0.028073,0.045393,-0.008336
-0.020482,-0.20043,-0.1141,-0.49371,-0.014097,-0.0031344,-0.013512,0.0222
0.09271,0.043644,0.074996,0.34009,-0.025026,-0.018189,-0.17415,0.01376
-0.10268,0.084062,0.071053,0.023807,0.010981,-0.017263,0.14071,-0.025826
0.0018484,-0.096337,-0.06398,-0.38736,-0.0082177,-0.008336,-0.038232,-0.03409
0.0064121,0.093753,-0.073077,0.27163,0.034109,0.00065726,0.038884,0.051389
0.026359,-0.028297,0.05069,0.0019046,-0.10449,-0.005974,-0.080764,-0.042927
0.0050693,-0.17639,0.04868,0.24192,0.083727,0.034247,0.017524,0.026611
-0.043531,0.068822,0.037434,-0.3047,-0.080784,-0.019318,-0.032643,0.056808
0.13721,0.22906,-0.07718,0.088477,0.097548,0.036429,0.074174,-0.038273
-0.078058,0.0068384,-0.084309,-0.0089827,0.033109,-0.001699,0.11194,-0.024161
-0.095047,-0.23009,0.016219,-0.10615,-0.070648,-0.055668,-0.13008,-0.056898
-0.03732,-0.050325,0.045064,0.16262,0.020947,0.015052,0.066725,0.066939
-0.019976,-0.052877,0.096374,0.037918,-0.035612,0.015073,-0.032416,-0.042937
0.076553,0.093353,-0.032624,-0.19253,-0.0057589,0.022496,-0.13114,0.074713
0.098237,0.047454,0.033313,0.11108,0.040333,-0.017323,0.16848,-0.0096133
0.0076549,0.1788,-0.080674,0.081471,-0.0066364,-0.026143,-0.079225,-0.030281
-0.0069364,-0.058338,-0.046373,-0.13222,0.0095823,0.035273,-0.046334,-0.018731
-0.10202,-0.015539,0.073815,0.026198,-0.028286,-0.036,0.11869,0.0012215
0.049365,-0.12358,-0.063705,-0.11307,-0.034487,-0.013215,-0.076251,0.036875
0.046972,0.076642,0.041282,0.0070273,0.076652,0.017805,0.0096197,0.01735
-0.095717,-0.065519,0.045277,0.24808,-0.031137,0.033625,0.0092539,-0.0031915
