0.11116,0.0066033,-0.010142,-0.0062266,0.020846,0.061322,0.026124,0.071296
-0.042399,0.053645,0.0048995,0.040978,0.020071,0.0020745,0.09647,0.0054637
-0.053009,-0.073713,0.043135,0.04133,-0.019765,-0.056715,-0.042376,-0.060015
-0.10696,-0.0083159,0.049715,-0.052014,-0.020398,-0.33394,0.03113,-0.069959
0.038642,0.00036268,-0.053548,0.0030998,0.0026734,0.37333,-0.050848,0.10104
0.29771,0.039374,0.046041,0.073775,0.018299,0.10391,0.13274,0.10168
-0.14344,0.024381,-0.088452,-0.12134,0.010914,-0.18942,-0.17675,-0.083581
-0.22454,-0.13651,-0.081079,-0.027684,-0.027294,0.086601,-0.081558,-0.17364
0.19974,0.019395,0.030275,0.049922,-0.018272,-0.3967,0.027249,0.057672
-0.17884,0.032408,-0.057977,-0.037178,0.030017,0.44604,0.1495,0.055005
0.42543,-0.11277,0.07667,0.03101,0.00015958,0.036226,0.027455,0.13777
-0.01337,0.15329,-0.0035079,0.097822,0.0012463,0.053301,-0.1121,-0.11697
-0.3242,-0.030958,-0.034182,-0.05592,-0.0060837,-0.19788,0.11404,0.00064869
-0.083829,0.050034,0.11514,0.092961,-0.0064584,-0.27136,-0.082636,0.028853
0.19595,0.50975,0.61338,0.03679,0.0703,0.20121,0.056406,0.15479
0.22434,-0.20209,-0.34709,-0.12212,0.028932,0.14319,-0.0069437,0.042873
-0.74108,-0.57994,-0.59653,-0.093239,-0.16935,-0.17041,-0.20905,-0.48545
0.026318,-0.10083,-0.080917,-0.11668,0.022822,0.097578,0.17786,-0.13931
0.33012,-0.067897,0.0055153,0.036448,-0.042381,-0.028758,-0.11854,0.185
0.71342,0.52211,0.89197,0.15724,0.12783,0.12227,0.17595,0.66133
-0.87825,-0.021906,-0.7305,-0.12038,-0.013011,0.034035,-0.079076,-0.46679
0.32447,-0.16451,-0.0067708,0.11728,0.0039455,-0.10766,0.022134,0.16818
0.055647,0.15219,-0.1217,0.079126,-0.024712,-0.28139,0.087762,-0.34858
-0.33637,-0.015559,0.50392,0.074106,0.07228,0.37027,-0.12616,0.26258
1.0425,0.027295,0.47094,0.15247,0.020692,0.002052,0.10483,0.24958
-0.59221,0.067928,-0.19939,-0.096435,-0.10993,-0.12892,-0.26047,-0.41307
-0.62362,-0.21684,-0.48656,-0.30092,-0.031039,0.032296,0.25268,0.1325
0.59357,0.11531,-0.33075,-0.079554,-0.0084187,-0.1302,0.018025,-0.22369
-0.28979,0.069884,0.2352,-0.04079,0.036331,0.096644,-0.15245,0.12025
-0.66436,-0.27589,-0.15595,-0.1503,0.056951,0.027914,0.022833,0.032678
0.61448,0.0085049,0.39568,0.41672,-0.078581,-0.15409,-0.07224,-0.055106
0.11511,0.34743,-0.27934,-0.35053,0.036753,-0.025386,0.26715,0.19445
0.42088,-0.48985,0.4545,0.73949,-0.010556,0.36054,-0.042889,0.095065
-0.36435,0.11785,-0.20524,-0.31077,0.11566,-0.011901,-0.22681,-0.13399
-0.16485,0.40828,-0.030695,-0.024261,-0.037875,-0.10479,-0.024947,-0.11791
0.42566,-0.48389,0.09543,0.097733,-0.07314,-0.060787,0.095204,-0.013843
-0.41833,0.4488,-0.30439,-0.50195,-0.061045,-0.21059,-0.029965,-0.1278
0.39546,-0.062038,0.46338,0.50974,0.12281,0.16197,0.26311,0.41365
0.30853,-0.28706,-0.41593,-0.34629,-0.0064151,0.13279,-0.066016,-0.070649
-0.86291,0.30624,-0.2102,-0.11859,-0.11305,-0.14339,-0.16001,-0.28503
0.027157,-0.10174,0.2895,0.23909,0.068486,0.098343,0.15073,0.20732
0.10446,0.11537,0.40964,0.10204,-0.0085494,-0.071578,-0.081157,-0.078016
-0.25126,-0.17208,-0.46027,-0.23976,-0.015838,-0.17576,-0.35707,-0.117
0.6876,-0.28642,0.10888,0.21471,-0.0079085,0.27149,0.34595,0.16968
-0.35554,0.054685,0.10934,0.044397,0.077771,-0.095502,0.036268,-0.16957
0.83761,0.4413,-0.17691,-0.10191,-0.0089151,0.099749,-0.081552,0.28876
-0.5834,-0.034035,0.0093051,0.0099949,0.098999,0.0772,0.27585,0.038369
-1.0858,-0.39438,-0.13479,0.0045208,-0.12215,-0.24047,-0.38128,-0.31808
0.59653,0.15788,0.38521,0.044973,-0.070886,-0.07952,0.074478,-0.029987
0.22008,0.20078,-0.25655,-0.17401,-0.036164,0.02081,-0.183,-0.050519
0.42103,-0.30687,-0.01903,-0.043427,0.021443,0.17704,0.25377,0.37747
0.18366,-0.057599,0.067984,0.17118,0.094668,0.091268,0.22882,-0.059718
-0.40175,0.22133,0.067734,0.087562,0.074748,-0.011164,-0.32123,-0.082388
-0.28659,0.010168,0.050495,0.019181,-0.069008,-0.15479,0.14868,0.034474
0.59191,0.55974,-0.039184,-0.11865,0.023183,0.23007,-0.028041,0.23499
-0.93006,-0.46676,-0.21047,-0.16834,-0.093777,-0.26272,0.10677,-0.62197
0.65663,-0.093798,0.042713,-0.011551,0.017616,-0.061796,-0.30098,0.2295
-0.33226,-0.078713,0.023113,0.0086673,-0.017828,0.030031,-0.10475,-0.16272
0.21814,0.19899,0.28348,0.42356,0.08077,0.030767,0.42103,0.28867
-0.075293,-0.13654,-0.20141,-0.1193,-0.038685,-0.0963,-0.16113,-0.0088674
-0.25816,-0.481,-0.15178,-0.27784,-0.0018471,0.26774,0.024691,-0.046855
0.44515,0.20246,0.2204,0.23478,0.042128,0.014085,0.066051,0.29952
-0.25967,0.061406,-0.077498,-0.076042,-0.016822,-0.022154,-0.24595,-0.36139
0.87216,0.48531,0.20471,0.14697,0.023873,-0.077561,0.098641,0.39855
-0.80521,-0.26324,-0.4712,-0.43349,-0.093914,-0.10067,-0.29673,-0.46135
0.093775,0.17708,0.23208,0.26032,0.043876,0.20952,0.86621,0.042112
-0.40424,0.070774,0.019444,-0.13031,-0.046802,-0.064475,-0.5368,-0.091433
0.61072,-0.085606,0.064665,0.16185,0.087803,-0.026791,0.12711,0.23241
-0.59946,0.17214,-0.075755,-0.071873,-0.067106,-0.31146,-0.25192,-0.016076
0.77379,-0.17565,0.13876,0.18668,0.13001,0.40998,0.255,0.33715
-1.1572,-0.49832,-0.095384,-0.067777,-0.13247,-0.25127,-0.39216,-0.68995
0.31175,-0.029664,0.019311,0.010729,0.013328,0.12184,0.20403,0.060911
0.88255,0.046161,-0.095121,-0.162,0.02098,0.017246,0.081642,0.34886
-0.12844,0.25007,-0.087392,-0.07703,-0.031294,-0.038017,0.37254,-0.068023
0.3118,-0.076141,-0.036308,-0.11684,0.012477,-0.087822,-0.39293,0.18438
-0.4914,0.47866,0.56489,0.43679,0.057897,0.19011,-0.27805,0.07297
-0.498,-0.043887,-0.37891,-0.034758,0.018086,-0.031643,0.49006,-0.25628
0.27123,-0.10521,-0.025558,0.028756,-0.022126,0.019759,-0.34664,-0.063656
0.11073,-0.45105,-0.1345,-0.29737,-0.063846,-0.032339,0.17296,-0.10119
-0.72902,0.060962,0.12085,0.20258,-0.029871,-0.10434,0.041644,-0.16693
0.62991,0.57969,0.075145,-0.1773,0.079222,0.043409,0.033805,0.29353
0.29342,-0.066349,-0.045909,0.013985,0.036741,0.11954,-0.06805,0.22604
-0.33556,-0.29726,0.30421,0.39246,-0.086648,-0.17453,-0.2,-0.12612
0.62155,-0.27286,-0.52269,-0.52632,0.0067224,-0.034988,-0.032525,0.15247
-0.66143,0.1236,0.26334,0.35246,0.044542,0.24122,0.3496,-0.31173
-0.15301,-0.034785,-0.15656,-0.28173,-0.057832,-0.29838,-0.19356,-0.20485
0.93477,0.29651,0.14134,0.22999,0.060243,0.23794,0.25998,0.38056
-0.68875,-0.09417,0.11217,-0.054877,-0.05332,-0.062629,-0.13407,-0.18742
0.076715,-0.050924,-0.2735,-0.18842,0.047421,-0.027082,-0.16589,0.31828
0.09043,-0.20008,-0.061231,0.073485,-0.1218,-0.053082,-0.14166,-0.26637
-0.61493,0.44713,0.34325,0.30996,0.2042,0.1175,0.37438,0.034739
0.75258,-0.076476,-0.16201,-0.16655,0.0010386,0.093906,-0.14301,-0.013643
-0.57672,-0.2412,0.070191,0.017909,-0.13878,-0.053995,-0.047115,-0.13146
0.32264,-0.028,0.17859,0.064756,0.088069,-0.092389,0.090204,0.57055
-0.44546,0.15038,-0.28422,-0.31707,-0.11651,-0.18581,-0.099486,-0.72932
0.81436,0.18485,0.12525,0.30024,0.020039,0.1733,-0.054518,0.35047
-0.24435,0.20103,-0.16449,-0.28007,0.098879,0.047473,0.26389,-0.073887
-0.26747,-0.46289,-0.083347,0.066138,-0.1299,-0.1334,-0.22979,-0.23741
0.90215,-0.13788,0.033456,-0.028572,0.1233,0.30281,0.40318,0.67226
-0.93782,-0.13586,0.15613,0.3423,-0.023492,-0.27652,-0.46007,-0.3444
0.92592,0.41429,0.16936,-0.086238,-0.030222,0.12079,0.1991,0.19035
-0.86042,-0.035397,-0.15939,-0.031996,-0.028716,-0.14611,-0.27195,-0.28403
-0.92781,-0.27348,0.038618,-0.10316,-0.010335,0.039538,-0.11156,-0.55396
0.65156,0.27099,-0.17315,-0.29832,0.095802,0.23975,0.41029,0.6492
0.6522,-0.066765,0.33062,0.7122,0.086822,-0.022455,0.045997,0.17213
-0.49393,-0.18852,-0.52075,-0.70294,-0.20921,-0.29413,-0.29734,-0.60011
0.7691,0.36772,0.2639,0.27773,0.074561,0.23744,0.33242,0.66945
-0.42764,0.16194,0.034514,-0.18128,-0.078004,-0.27865,-0.075309,-0.23846
-0.58234,-0.30369,-0.10155,0.013287,0.027773,0.064901,-0.024598,-0.10716
0.79413,-0.029098,0.50193,0.63326,0.16466,0.28494,0.0032736,0.42718
-0.48535,-0.05392,-0.50863,-0.55829,-0.13673,-0.27361,-0.23843,-0.56921
0.43574,0.42678,0.38879,0.61526,0.09965,0.19475,0.25448,-0.014582
0.40466,-0.41273,-0.39997,-0.37246,-0.12652,-0.13785,-0.27021,0.31394
-0.77754,-0.090475,-0.10065,-0.50787,0.036267,0.032867,0.054165,-0.21916
-0.25254,-0.16812,0.24194,0.41934,0.041352,0.19029,0.22863,0.087839
0.068686,0.068953,-0.23646,-0.45702,-0.11078,-0.2764,0.044502,0.10206
0.46752,0.22789,0.24089,0.34977,0.10394,0.099956,-0.36249,0.13725
-0.46527,0.19768,0.012841,0.19442,-0.048173,0.005403,-0.0049242,-0.45265
0.56796,-0.078678,0.096969,0.033156,0.050652,0.056107,0.41671,0.39026
-1.0157,-0.38645,-0.24836,-0.31133,-0.028911,0.0095067,-0.23635,-0.42406
0.8576,0.50253,0.31181,0.45896,0.025724,-0.071531,0.14623,0.17844
0.26844,0.18921,-0.31853,-0.45317,-0.090323,-0.17814,0.13487,0.32615
0.39652,-0.48497,0.20905,0.19286,0.16162,0.13653,-0.27863,-0.095496
-0.6519,0.047086,-0.18688,-0.23829,-0.047042,0.022597,-0.071419,-0.18645
-0.93029,-0.069347,0.2565,0.18804,-0.01356,0.012775,0.31075,0.053736
0.37946,0.0071023,0.17031,0.38339,-0.027168,0.068903,-0.64013,-0.16475
-0.071724,0.017515,-0.50813,-0.35699,-0.087747,-0.05106,0.28686,2.7384e-05
0.86439,0.13402,-0.027455,0.021346,0.023829,0.21476,-0.0022233,0.24842
-0.07988,-0.27484,-0.11158,-0.26151,-0.066928,-0.2989,0.28883,-0.063605
0.55371,0.24607,0.21929,0.015976,0.17168,0.062671,0.19767,0.13057
-0.33807,0.097189,0.14,0.1075,0.075789,0.1027,-0.18407,0.17905
-0.84791,-0.063685,-0.011611,-0.10026,-0.09698,-0.42995,-0.24176,-0.5068
-0.29871,-0.1109,0.42882,0.60677,-0.011281,0.45624,0.061269,-0.076903
0.44453,-0.083924,-0.59481,-0.77757,-0.035195,-0.090379,0.059237,0.36717
-0.30711,0.11743,0.36787,0.51211,0.041205,0.032115,-0.17809,-0.32942
0.59622,0.1004,-0.084998,0.4346,0.013881,0.019761,0.17825,0.25773
-0.20277,0.19067,-0.51919,-0.60746,-0.078735,-0.14995,-0.21338,-0.12613
0.15596,-0.28591,0.35193,-0.28253,0.028756,0.00052044,0.25942,0.1001
0.2403,-0.088788,-0.1525,0.13165,-0.046249,-0.0045233,-0.11868,0.032554
-0.12783,0.070431,0.37397,0.45185,0.071832,0.10899,0.030507,-0.0070873
0.23704,-0.4094,-0.61414,-0.79288,0.016645,0.052297,0.13911,0.075212
-0.26333,0.55121,0.72911,0.90458,0.015692,-0.010575,-0.42435,-0.18997
-0.40777,0.079166,-0.2499,-0.36895,-0.08638,-0.13464,0.46517,0.063253
0.68976,-0.15156,0.11561,0.021612,0.062741,0.14059,0.40816,0.22402
-0.70769,-0.27976,-0.18743,-0.12352,-0.0051585,-0.13069,-1.0661,-0.34176
-0.19385,0.28967,0.046355,0.2231,0.030535,0.035592,0.32914,-0.017707
0.10854,0.12782,-0.275,-0.12968,-0.056669,-0.063839,0.18525,0.13348
0.26548,-0.04629,-0.072282,-0.45161,-0.032521,-0.0070625,0.047208,-0.059827
0.24125,-0.1155,0.54532,0.46308,0.032369,0.26857,0.29661,0.035682
0.03767,-0.18935,-0.39977,-0.064295,-0.0030631,-0.15086,-0.32471,0.068827
0.091778,0.13827,0.30896,0.23099,0.0247,-0.17938,-0.55066,-0.10099
-0.45088,-0.35147,-0.19122,-0.25541,0.036921,0.11261,0.088624,-0.013266
1.0457,0.41157,0.20509,0.25354,0.025166,0.12325,0.76649,0.41709
-0.71263,0.27859,0.14239,0.073305,-0.10486,-0.015028,-0.031276,-0.060891
-0.49583,-0.18073,-0.20266,-0.034891,-0.017621,-0.044842,-0.31926,-0.39322
-0.16552,-0.20944,-0.20647,-0.31622,0.013257,-0.091538,-0.21415,-0.10345
0.42696,0.23846,-0.13403,-0.20906,0.073753,0.047856,0.44807,0.090352
-0.051811,-0.079926,0.095426,0.2021,0.007881,0.037502,-0.37217,-0.044788
0.22244,-0.32114,-0.099934,-0.29819,-0.019857,-0.059748,0.29314,0.3054
-0.097679,0.053979,0.12826,0.23963,-0.087026,-0.087105,-0.36946,-0.13086
-0.2355,0.061406,0.16688,0.2493,0.025729,0.17479,-0.032838,-0.15718
0.65412,0.13894,0.15132,0.061746,0.061181,0.039023,0.075369,0.23446
-0.046702,0.12245,-0.0272,0.10759,0.01201,-0.087723,0.75879,0.1917
-0.3874,-0.13704,0.15338,0.27648,0.034822,0.16983,-0.62411,-0.09164
-0.066865,0.42196,-0.2238,-0.5902,-0.096759,-0.32102,0.30111,-0.2424
0.028507,-0.52199,-0.37311,-0.19058,-0.015539,0.056881,-0.35606,-0.066922
-0.072556,0.14748,0.10858,-0.042723,-0.018564,0.092402,-0.18842,-0.019353
0.30118,-0.29628,0.023753,0.21924,0.050065,0.035187,0.063666,-0.0061498
0.34668,0.41327,0.22307,0.12657,0.1039,-0.13876,0.43385,0.40298
-1.0884,-0.37044,-0.14471,-0.13986,-0.084278,0.16355,-0.45031,-0.3845
0.24391,0.034768,0.15604,0.085933,-0.015175,0.019354,0.053891,0.054736
0.38913,0.22521,-0.19325,0.071607,0.0058317,0.091832,0.80702,0.28459
-0.01364,0.038879,0.066954,-0.024973,0.0016209,-0.23689,-0.9019,-0.20168
0.11854,-0.062278,0.070836,-0.13271,-0.012517,-0.060853,0.40248,-0.012838
-0.29003,-0.039519,-0.048022,0.029421,0.018049,0.13578,-0.14917,-0.086254
0.53368,0.17581,0.23396,0.35081,-0.00019264,-0.036891,0.10458,0.24966
-0.27301,-0.090873,-0.13826,-0.43616,-0.0042544,0.062898,-0.34666,-0.20099
-0.62985,-0.24909,-0.25907,0.064519,-0.03254,-0.12605,0.37782,-0.0092641
0.60428,0.16667,0.12867,0.17853,0.032847,0.13186,0.15174,0.06623
0.21046,0.060053,-0.11625,-0.26809,0.0050414,-0.099974,-0.5565,0.048139
-0.37359,-0.03144,0.20889,0.19201,-0.029589,0.14759,0.23804,-0.11117
-0.21676,0.0013713,-0.10716,-0.082326,-0.0083982,-0.039684,0.091271,-0.076475
0.45003,0.019069,0.099321,0.21405,0.068436,0.032869,-0.19059,0.27649
-0.13295,-0.0071652,0.14825,-0.050255,0.012951,-0.13575,0.18298,-0.20144
0.081855,-0.28502,-0.2343,-0.19332,-0.066119,-0.10135,-0.044774,0.098406
-0.32426,0.032748,-0.0097486,0.061112,0.057125,0.19754,0.071941,-0.051116
0.13045,0.38671,0.016902,-0.24491,-0.0084534,0.041408,0.30651,0.052762
0.085302,-0.072644,-0.029386,0.039764,-0.067744,-0.046697,-0.28676,-0.019619
0.055063,0.030275,0.20331,0.41706,-0.026806,-0.090142,-0.54418,0.013518
-0.29751,-0.13366,-0.1592,0.012803,0.052448,0.099072,0.62789,-0.042061
0.43126,-0.0043749,0.056158,-0.13438,-0.00097234,-0.15007,-0.278,-0.13791
-0.24744,-0.069701,-0.016303,-0.065062,0.040514,0.13225,0.028009,0.1341
0.058237,-0.0053724,-0.14063,0.038912,-0.056515,-0.05288,0.24228,-0.036606
0.097375,0.19282,-0.02636,-0.059119,0.036769,0.014154,-0.040412,0.085961
0.023555,-0.024684,0.18678,0.092089,0.0081755,-0.0099111,-0.31937,0.010627
-0.27644,0.020636,-0.071352,-0.2664,-0.033069,0.02334,0.1243,-0.15303
0.11497,0.04826,0.042262,-0.056711,0.045254,0.089933,0.11031,0.11775
0.2953,-0.12656,0.28388,0.47166,-0.039055,-0.084512,0.067024,0.079368
-0.5824,-0.37427,-0.30174,-0.44597,-0.03715,0.014484,-0.02311,-0.04351
0.56579,0.2639,0.017497,0.33198,0.15136,0.057692,-0.084172,0.090877
-0.79206,-0.22964,-0.16662,-0.10004,-0.10734,-0.16665,0.053624,-0.29258
1.0164,0.39211,0.29309,0.36753,-0.0092163,0.075466,-0.025304,0.1879
-0.23394,-0.024346,-0.23648,-0.56251,0.015822,-0.075231,-0.055914,-0.030376
-0.79141,0.16164,-0.075017,-0.062781,-0.1023,-0.086955,0.22798,-0.22807
0.37697,-0.076224,0.20852,0.34234,0.082361,0.2989,-0.5235,0.095975
0.22551,-0.032248,-0.032589,-0.098103,0.00034284,-0.0027037,0.21563,0.16968
-0.042224,-0.16616,0.062704,0.029182,0.050997,-0.053452,0.065501,-0.0057469
0.73753,0.52317,-0.012142,-0.0028212,0.024174,-0.02451,0.075815,0.25013
-0.62353,-0.61035,-0.068984,0.11054,-0.071765,-0.12625,0.26438,-0.25778
-0.43088,-0.2263,-0.0063154,-0.20845,0.013434,-0.0223,-0.17228,-0.11563
0.065093,0.24492,0.026761,0.017618,-0.0093042,0.061059,-0.25745,0.019811
0.17725,-0.13249,-0.10363,-0.15548,0.00042056,0.03014,-0.046674,-0.0004112
-0.24963,0.30117,0.35915,0.21091,0.034453,0.064405,0.63034,0.010783
0.52018,0.12049,-0.289,-0.015066,-0.056022,-0.0085938,-0.79882,0.10004
0.06604,-0.01417,0.11549,0.38592,0.041153,-0.049135,0.33539,0.025106
-0.54108,0.048877,-0.29443,-0.51575,-0.064912,0.09008,-0.063159,-0.18272
0.53455,-0.3368,0.15391,0.20147,0.10217,-0.060912,0.11264,0.25789
-0.37218,0.11861,-0.038224,-0.29118,-0.043612,-0.096974,0.14205,-0.24677
0.23702,0.31328,0.22435,0.37282,-0.017925,0.066975,-0.19523,0.084547
0.047678,-0.45684,-0.10401,0.060098,-0.016079,-0.046145,0.029594,0.048602
-0.67638,-0.028946,-0.1476,-0.38588,0.00097795,-0.077126,0.066517,-0.081338
0.76671,0.17382,0.12475,0.011493,0.087889,0.25541,0.10408,0.21013
-0.20939,-0.052845,0.032516,0.17442,-0.067935,-0.1419,-0.45718,-0.27256
-0.22913,0.1182,0.11326,0.15032,-0.0056807,0.1221,0.30761,0.048523
0.20113,0.18617,0.11512,0.18979,0.055768,-0.0065405,-0.027744,0.056045
0.01329,-0.13065,-0.5106,-0.6754,-0.063377,-0.19876,-0.23323,0.023403
0.21,-0.15266,0.031579,0.13321,-0.035022,0.06221,0.13139,0.12254
-0.44042,-0.02785,0.23309,0.10785,0.062775,-0.034857,0.13794,-0.13853
0.033093,0.018213,-0.023199,0.36537,0.019255,0.097295,0.26289,-0.0642
0.10078,0.11981,0.12288,-0.15739,0.0065754,-0.048008,-0.24538,-0.029091
-0.29181,-0.15886,-0.077257,-0.086313,-0.013951,0.076854,0.094674,-0.0172
0.56506,0.051024,-0.051504,-0.078543,-0.034079,-0.067025,0.17027,0.15926
0.36409,0.21157,0.10055,0.16997,-0.045563,-0.058325,-0.77967,0.094126
-0.60933,-0.2315,-0.16612,-0.16914,0.03009,0.070442,0.20327,-0.14239
-0.046738,0.057231,-0.076616,-0.10345,0.013402,0.051799,0.16451,0.01194
-0.10023,-0.056555,0.010438,0.016017,0.029356,-0.030499,0.33029,-0.068234
0.071414,0.049883,0.024514,-0.075816,0.030799,0.024512,-0.29099,0.07777
0.24854,0.21763,0.30027,0.26195,0.025038,0.14479,0.45032,-0.011049
-0.083614,0.061319,0.054209,0.18531,-0.066693,-0.25653,-0.57706,-0.014195
-0.39135,-0.35844,0.0022716,0.24818,-0.018461,0.0081689,-0.13723,-0.14218
0.32108,0.16071,-0.24117,-0.48802,-0.018245,-0.052093,0.3962,0.23836
0.44057,-0.060276,-0.14703,-0.20399,0.027486,0.01009,-0.17889,-0.090766
-0.57597,-0.41793,-0.083456,-0.11119,0.0094433,0.017589,0.59903,0.0036679
-0.092861,0.28584,0.1375,0.20457,-0.017329,0.11353,-0.69173,-0.079797
0.15688,-0.00074945,0.1895,0.27543,0.0023939,0.081063,0.19088,0.049202
-0.2569,0.31055,-0.16688,-0.17067,0.014515,-0.024145,-0.042445,0.038463
0.65565,0.17393,0.22772,0.28198,-0.035142,-0.18659,-0.03255,0.066746
0.16414,-0.21569,-0.076888,-0.26346,0.064689,0.23328,0.06422,0.008003
-0.20474,-0.14129,-0.28165,-0.21969,0.017221,-0.078738,0.22448,-0.076208
-0.34592,-0.22262,0.083274,0.13296,-0.060504,-0.11675,-0.34071,-0.053686
-0.18434,0.29536,0.18961,0.11526,0.034319,0.18009,0.13443,-0.026108
-0.29133,-0.15997,0.067266,-0.03856,-0.050266,-0.30649,-0.17824,-0.039921
0.67811,0.44124,-0.0047384,0.045832,-0.0021219,0.15753,0.17419,0.046395
0.00071462,-0.55748,0.0022023,0.25014,0.061328,0.010012,0.12092,0.17932
0.20456,0.024437,-0.26597,-0.44258,0.007217,0.0095864,-0.034098,-0.0071075
-0.61152,0.11061,0.056098,0.067876,-0.039314,-0.0068279,0.16929,-0.18374
0.11947,0.14062,-0.032412,-0.016464,-0.038905,0.0084465,-0.41023,0.071964
-0.3103,-0.047646,0.11721,0.10834,-0.030244,-0.045776,-0.10893,-0.11477
0.58459,-0.046645,-0.0016483,0.059132,0.049506,0.28348,0.3233,0.11516
0.42791,0.08152,-0.012242,-0.054649,0.04428,-0.24659,-0.073909,0.018836
-0.47101,-0.13243,-0.12368,0.0017365,0.032153,0.12097,0.23155,0.032707
0.41465,0.53685,0.27484,0.22105,-0.034054,-0.23966,-0.30626,0.11653
-0.77129,-0.57613,-0.19875,-0.5054,0.0014012,0.061651,-0.22559,-0.23078
0.14709,0.058716,-0.021196,-0.028589,0.020739,0.26713,0.52866,0.14632
-0.33236,0.089421,0.25181,0.53471,-0.13283,-0.41167,-0.28574,-0.3227
0.43851,-0.28811,-0.1704,-0.34668,0.08721,0.22947,0.07288,0.175
0.03132,0.22458,0.046331,0.2566,0.016682,0.0044217,0.17404,0.046463
-0.090689,0.20007,0.17393,0.258,-0.070831,-0.077618,0.0091374,0.07395
0.54375,-0.37473,-0.50723,-0.67129,0.082832,0.19539,-0.070695,0.078778
-0.79764,0.27584,0.13567,0.17912,-0.037494,-0.13688,-0.35427,-0.19608
0.58952,0.11423,0.080085,0.0043731,0.037413,0.066216,-0.020242,0.054501
-0.052266,-0.21065,0.1244,0.14067,-0.020178,-0.14124,0.26119,0.072773
-0.38752,0.073979,-0.073364,-0.1457,-0.030322,0.013021,-0.13305,-0.14155
0.16092,-0.10391,0.043099,0.0289,0.022705,0.074325,0.43146,0.04381
-0.41589,-0.21556,0.060851,0.19652,0.045101,0.048694,0.010186,-0.0046998
0.77949,0.48608,-0.074345,-0.017297,-0.080482,-0.15159,-0.85047,0.063686
-0.22234,-0.056682,-0.081475,-0.25299,0.044172,0.27664,0.19917,-0.04868
0.078531,-0.1511,0.046484,0.043907,0.028214,-0.11294,0.695,0.14195
-0.16116,0.31822,0.074048,0.17756,-0.066031,-0.031574,-0.21855,-0.05227
-0.17472,-0.47759,0.031318,-0.024611,-0.0042872,-0.17403,0.59498,-0.092289
-0.27319,-0.27257,-0.21545,-0.11799,0.02594,-0.015563,-0.78187,-0.079277
0.45115,0.14544,0.26291,0.17817,0.048165,0.11758,-0.43687,-0.020335
-0.28194,0.34056,-0.23672,-0.14406,-0.039035,0.063426,0.24751,0.038539
0.34015,0.25963,-0.0029635,-0.045312,-0.001102,-0.0042477,0.070703,0.090351
0.7696,-0.12756,0.12123,0.0063788,0.0059157,-0.06844,0.13861,0.30753
-0.96425,-0.22686,-0.097632,-0.073942,-0.017778,0.309,0.32369,-0.4035
-0.3638,-0.061774,0.17712,0.1991,-0.04075,-0.41888,-0.079727,0.035158
0.24836,0.34413,-0.085371,-0.15812,0.093394,0.2785,-0.60643,0.0058036
0.6832,-0.15737,0.17737,0.40938,0.048799,-0.052961,0.31657,0.14844
-0.33299,-0.12786,-0.30072,-0.35648,-0.17453,-0.27365,0.23691,-0.084352
-0.1897,-0.13595,0.13589,-0.026802,0.079545,0.16247,0.43471,0.041472
-0.25942,-0.35911,-0.21682,-0.13403,-0.009481,0.059557,-0.75679,-0.20849
0.086265,0.44713,0.23403,0.25016,0.011184,0.05797,-0.04444,0.09569
0.5073,0.50317,0.15952,0.2885,0.0004716,-0.084548,0.01289,0.08724
-0.32912,-0.26854,-0.33154,-0.53569,0.012534,-0.063341,-0.14357,-0.053749
-0.24153,-0.25942,0.010489,0.12073,0.015558,0.027708,0.54509,-0.022359
0.29342,0.43479,0.24028,0.14832,0.016853,0.01639,-0.072332,0.056353
0.062686,-0.32924,-0.0090507,-0.038299,-0.015165,0.12872,0.43225,0.11172
0.47651,0.023855,-0.080572,-0.063115,-0.072749,-0.13601,-0.58979,-0.067745
-0.21986,-0.023737,-0.16859,-0.15134,0.039677,0.15123,-0.35572,-0.013811
