-0.073232,-0.0066522,-0.0068995,0.005468,-0.0015113,-0.0068812,0.0038941,-0.0089192
-0.0024341,0.0024527,-0.0098672,0.011434,-0.0011492,-0.014551,-0.010551,0.022101
0.090496,0.010935,0.018969,0.0017561,0.022153,0.055367,0.13,0.012566
-0.11484,-0.036036,-0.036841,-0.030681,-0.00972,-0.031553,-0.090106,-0.05311
0.022328,0.033432,0.026504,0.00079299,0.004904,0.021584,0.53218,0.020681
-0.060158,-0.038307,-0.032731,-0.020404,-0.019709,-0.042925,-0.6282,-0.07021
0.0054148,0.022457,0.027712,-0.00021149,-0.020786,0.0095186,0.022545,0.057742
0.22747,0.020716,0.012119,0.014355,0.009782,-0.00045261,0.14088,0.061564
-0.16685,-0.027637,0.021153,0.030437,0.02538,0.036923,-0.085221,-0.0346
-0.044252,-0.0052485,-0.016794,-2.3615e-05,-0.012897,-0.06547,0.16526,-0.050567
0.01743,0.041042,0.037396,0.062056,0.019961,0.020799,-0.060002,-0.025222
0.010443,0.033014,0.11197,0.13691,0.014412,0.014614,-0.080559,0.049049
0.043998,-0.052964,-0.29418,-0.35498,-0.045492,-0.037239,-0.13025,0.007607
0.031796,-0.045245,0.0997,0.15589,0.011691,0.091458,0.18176,0.10739
-0.034458,0.0090877,0.028219,-0.10391,0.0058018,-0.013919,-0.07439,-0.058862
-0.0068214,0.023963,-0.062345,0.03842,0.006726,0.0053153,0.78055,0.015701
0.012733,0.022789,0.10302,0.13149,-0.009277,-0.054654,-0.7696,-0.12274
-0.04635,0.029098,0.03406,-0.025515,0.0358,0.0087449,-0.19399,-0.044776
-0.082571,-0.027208,-0.040649,-0.047276,-0.068879,-0.054795,0.061947,0.038829
0.036947,-0.012988,-0.088069,-0.095564,0.028569,0.012521,0.076502,0.081768
0.14042,-0.037198,0.033728,0.018797,0.0083319,0.039075,0.092132,0.014532
0.032503,0.025617,-0.057459,-0.031587,-0.035233,0.0097047,0.069832,-0.021398
-0.16982,0.011804,0.075686,0.12007,0.046935,0.026554,0.087291,0.021601
-0.16229,-0.039312,0.17437,0.26132,-0.0024403,-0.0035017,-0.15342,-0.074672
0.40605,-0.010528,-0.036461,-0.039927,-0.0032974,0.021725,0.39299,0.16667
-0.14507,0.043166,-0.22291,-0.3803,-0.017982,-0.037785,-0.58773,-0.082338
0.32458,0.14457,0.15198,0.018653,0.015926,0.021662,0.29351,-0.024813
-0.38808,-0.1369,-0.15585,0.045261,0.027814,-0.096315,-0.19853,-0.12176
-0.36838,-0.013231,0.10998,0.19029,-0.021854,0.03049,0.0065333,-0.060853
0.31458,-0.024465,-0.03576,-0.23423,-0.078979,-0.26976,0.1989,0.13409
-0.048523,-0.054175,-0.1715,0.037799,0.043295,0.41663,-0.16628,-0.006343
0.28623,0.1707,0.18729,0.14034,0.016215,-0.0049753,0.10898,0.21221
-0.21871,-0.091913,0.11144,-0.10467,0.050165,0.16727,0.26194,-0.063025
0.46114,0.057014,0.054944,0.33589,0.011928,-0.24003,-0.53281,0.026151
-0.50177,0.0013517,0.12059,-0.090739,0.010697,-0.21266,0.33624,-0.099256
0.40051,-0.10127,-0.25242,-0.492,-0.14874,0.053087,-0.43439,-0.11135
-0.59777,0.0084721,-0.28845,0.11826,0.057478,0.11162,0.46004,-0.11108
-0.12966,-0.097732,0.1167,0.18692,-0.026206,0.065048,-0.30975,-0.073631
0.71847,0.09671,-0.1124,0.051054,0.077661,0.070888,0.82425,0.42477
-0.07754,0.13117,0.3312,0.12525,0.0028238,-0.095594,-0.40662,-0.020112
-0.65181,-0.01045,0.019116,-0.32506,-0.054591,-0.19795,-0.63849,-0.21135
0.50922,-0.0090577,0.0058879,0.17571,0.023158,0.00015434,0.37565,0.0081717
0.37141,0.071092,0.21948,0.12587,0.040955,0.23457,-0.11648,0.08369
-0.68606,-0.19382,-0.67139,-0.53148,-0.087333,0.013817,0.0010439,0.029772
0.4109,-0.1024,0.22765,0.34175,0.1143,-0.04519,0.29045,0.055522
-0.77913,0.04725,0.51384,0.31338,-0.065902,0.15791,0.072686,-0.17726
0.90469,0.25468,-0.13696,0.053146,-0.0039088,-0.34757,-0.23683,0.032294
-0.24259,-0.14383,-0.35238,-0.40134,-0.028798,0.10791,0.24662,-0.036371
0.7324,0.12626,-0.18809,-0.2693,0.061751,0.11579,-0.40433,0.2642
-0.45662,-0.11309,0.067564,0.17641,0.0015731,0.057029,0.30499,0.027815
-0.75729,-0.14899,0.2137,0.11701,-0.068919,-0.13986,-0.4746,-0.44751
-0.59145,-0.16703,-0.07466,0.015633,-0.0011561,-0.14705,0.20409,-0.097236
0.79222,0.34988,0.51837,0.60907,0.041244,0.020399,0.13112,0.10459
0.24639,0.12129,-0.62923,-0.80354,0.051144,0.19181,0.22034,0.43391
0.50461,-0.0091634,0.10184,-0.056284,-0.025334,0.064081,-0.045337,0.048913
-0.22643,-0.089315,0.27515,0.28954,-0.023306,-0.11118,-0.082426,-0.22122
-0.53324,-0.1754,-0.18728,-0.062409,-0.12954,-0.035697,0.28587,-0.040524
0.74362,0.17611,0.24527,0.30961,0.1721,0.07274,-0.53681,-0.050518
-0.91147,-0.22389,-0.34991,0.014306,-0.07907,-0.097873,-0.036564,-0.041752
0.57791,0.21725,0.11236,-0.42587,0.10125,0.17126,0.16125,0.14809
-0.00089824,-0.032148,-0.29031,-0.04331,-0.045126,-0.20612,-0.21582,-0.045153
-0.14809,-0.14371,0.45747,0.26238,0.043696,0.19137,0.34993,-0.036897
-0.10323,0.063062,-0.51158,-0.56471,-0.16424,-0.19154,0.040771,-0.062392
-0.0008943,0.050223,0.38818,0.70843,0.13508,0.11339,-0.047101,0.14362
-0.18308,0.11582,0.25764,0.025507,-0.082307,0.0042487,-0.16968,-0.082811
0.050138,-0.067312,-0.38094,-0.381,0.042663,-0.073865,0.252,0.086926
0.30677,-0.13138,0.16619,0.31508,-0.013507,0.02743,-0.19633,-0.072983
-0.26555,-0.04499,-0.15726,-0.067553,0.038416,0.011282,-0.047085,-0.046042
0.81613,0.25406,0.31934,-0.02969,-0.019958,0.088668,0.1433,0.12175
-0.48236,-0.070799,-0.18564,-0.00050956,0.014999,-0.19353,0.0056257,-0.10009
-0.32219,-0.028219,-0.13245,-0.22793,0.026691,0.1959,0.022454,0.046814
-0.14001,-0.03309,-0.10521,-0.091178,-0.10925,-0.016528,-0.10438,-0.015348
0.13346,-0.10169,-0.27322,0.070673,0.092165,-0.057408,-0.0785,-0.044378
0.36285,0.15629,0.41318,0.26263,-0.032616,-0.012595,0.076974,0.045389
-0.21324,-0.15754,0.27651,-0.034293,-0.014507,-0.053742,-0.043169,0.050322
0.46366,0.23848,-0.29155,-0.074881,-0.040945,0.022631,0.070347,0.016649
-0.36039,-0.13934,0.46638,0.25125,0.075296,-0.0018,-0.10441,-0.025045
-0.25889,0.030097,-0.49064,-0.34622,-0.010177,0.06085,0.097828,-0.075315
0.016056,-0.11181,0.0064504,0.23869,0.061037,0.031124,0.21672,0.0061176
-0.3333,0.013627,0.25143,-0.10843,-0.024748,-0.051927,-0.20872,-0.10897
0.52916,0.14881,-0.25048,-0.24511,-0.10469,-0.063586,0.02395,0.14984
0.3309,-0.15178,-0.21174,0.10389,0.085802,0.14407,-0.13317,0.064043
-0.30971,0.13469,0.16439,0.26153,0.014834,-0.054593,0.27974,-0.014508
0.24913,0.17134,0.62919,0.5446,0.0026238,-0.027423,-0.2929,-0.062127
-0.47583,-0.25377,-0.88532,-0.77473,-0.090936,-0.024939,0.062449,0.007319
0.055481,-0.055576,0.1472,-0.20287,-0.0069562,-0.0083789,0.033194,-0.0091548
-0.093404,0.054487,0.2765,0.060948,0.045097,0.0065966,-0.0757,-0.064564
0.43792,-0.0095151,0.14545,0.11632,-0.042543,0.012383,0.095601,0.1068
-0.20114,-0.028346,-0.18227,-0.030037,0.10657,0.032807,0.031934,-0.06532
-0.20517,0.061331,0.027694,0.22979,-0.084679,-0.017593,0.11643,-0.010622
0.3402,0.04955,-0.054004,-0.091711,0.032542,0.049172,-0.10393,0.13018
-0.2684,-0.047178,-0.093496,0.085748,0.059514,-0.0399,-0.058858,-0.10405
-0.11782,0.0061363,0.18796,0.06611,0.011004,0.0046094,-0.021881,-0.018256
0.27481,0.04569,-0.10271,0.041338,-0.020457,-0.08267,0.0069707,-0.019006
-0.022088,-0.014553,0.24346,0.14693,-0.0049145,0.057782,-0.11284,0.041847
0.6146,0.05941,-0.18095,-0.28693,-0.091896,0.019731,0.22825,0.14848
-0.50404,-0.20952,-0.46994,-0.33569,-0.039909,0.0061731,-0.04763,-0.074121
-0.47216,0.021804,0.34585,0.082996,0.010177,-0.022243,-0.041859,-0.16483
-0.14047,0.026248,-0.10742,-0.055868,-0.0040159,-0.034698,-0.02778,-0.01383
0.3447,0.092337,0.43724,0.27162,0.066256,0.05422,0.018001,0.059196
0.18948,0.086783,-0.065816,0.098746,0.11973,0.056469,0.13439,0.10965
0.13928,-0.022048,0.14215,0.15502,0.00028787,-0.036215,-0.12416,0.036611
-0.10774,-0.1172,-0.55545,-0.30638,-0.018634,-0.060023,-0.08598,-0.11257
0.12996,0.082576,0.20899,0.2409,0.0081847,0.078823,0.13941,0.07635
-0.31882,-0.18807,-0.18143,-0.34151,-0.20052,-0.12716,-0.10428,-0.13113
-0.1266,0.071413,-0.031138,-0.10684,-0.050824,0.010098,0.026734,-0.016704
0.23608,0.072679,0.58964,0.50796,0.067039,0.030349,0.032552,0.12987
-0.18657,-0.050721,-0.78022,-0.59897,-0.0026655,-0.011106,-0.00078943,-0.075133
0.2585,0.037737,0.66344,0.54005,0.22494,0.073614,-0.0029069,0.070446
0.14611,0.064933,0.036942,-0.045273,0.015823,0.11267,0.15124,0.17508
0.1062,0.054322,-0.12159,0.088635,-0.043923,-0.066102,-0.17891,-0.24627
-0.4413,-0.10368,-0.40661,-0.37219,-0.11055,-0.11167,-0.032344,-0.037572
-0.14541,-0.057793,0.1427,0.10265,-0.098126,-0.024606,-0.041698,0.0045782
0.15888,0.012081,0.21448,0.06007,0.06373,0.054024,0.090128,-0.0096596
0.028559,0.066874,-0.025756,-0.33497,-0.054438,0.014667,0.058683,0.11618
-0.017547,-0.15101,-0.34949,0.2706,0.094583,-0.056615,-0.026482,-0.030689
0.063017,0.11662,0.081291,0.073786,0.097061,0.074937,0.030011,0.02748
0.24186,-0.012656,0.28384,0.10722,-0.046818,-0.043275,-0.021905,0.010269
-0.2918,0.031722,-0.14737,-0.30812,-0.11838,-0.0044729,-0.088671,-0.081976
-0.037691,-0.015916,0.3028,0.46813,0.10075,0.04329,-0.014319,-0.022881
0.11233,0.062778,0.14828,-0.19797,-0.069827,0.014219,0.068001,0.069687
0.077764,-0.092296,-0.82458,-0.29256,0.033036,-0.044954,0.064172,-0.00062429
0.22281,0.096051,0.49818,0.10423,0.041098,0.029423,-0.033983,0.13217
-0.049175,-0.076278,-0.0038669,0.24057,0.015832,0.0023799,0.031022,-0.040871
-0.51374,-0.039795,-0.47416,-0.28334,-0.059227,-0.064256,-0.11606,-0.21591
-0.070203,0.048721,0.69462,0.29749,-0.004903,0.032015,0.0090367,0.0050681
-0.061798,-0.084323,-0.65483,-0.48558,-0.063453,-0.0061516,0.031326,-0.01848
0.45066,0.084735,0.39155,0.16515,0.078036,0.047581,0.044724,0.16704
0.41488,0.072056,0.77246,0.61824,0.11574,0.037026,0.041697,0.10921
-0.44787,-0.059116,-0.8847,-0.31207,-0.1288,-0.092137,-0.071146,-0.1443
-0.08069,-0.081382,-0.20135,-0.25673,-0.076055,-0.042403,-0.03559,0.00094424
0.033626,0.076387,0.10054,-0.37023,0.04884,0.069853,0.047212,-0.0092139
-0.026004,0.016458,0.096329,0.49726,0.036147,-0.0044989,-0.025495,-0.026014
-0.040858,-0.057519,0.056493,0.018421,0.019465,-0.0068793,0.0043875,0.013169
0.058558,0.057881,-0.046525,0.060427,0.0068323,0.00073068,0.012007,0.030156
-0.041787,-0.035714,0.093681,0.16929,0.005674,0.0028583,0.02078,-0.029951
0.038836,-0.018155,-0.039362,-0.45347,-0.039648,0.022675,-0.024175,-0.01123
0.4621,0.039897,0.22268,0.38546,0.049196,-0.0029743,0.033049,0.14841
-0.50875,0.020767,-0.040127,-0.33942,-0.049649,-0.012532,-0.01891,-0.12175
-0.047559,-0.052667,-0.061629,-0.01264,-0.0095293,0.039823,-0.0086092,-0.040862
0.18035,0.069026,-0.21654,0.20055,0.043392,-0.0031314,0.0011012,0.047046
-0.16132,-0.13031,0.10592,-0.18477,-0.0087509,-0.063965,-0.013428,-0.061338
-0.064219,0.091064,0.4016,0.12046,-0.048868,-0.010153,-0.020992,0.040145
0.10572,-0.095347,-0.78369,0.08541,0.040707,-0.036834,0.017581,-0.00010179
0.0064579,0.083625,0.27884,0.085783,-0.043767,0.059701,0.016568,0.044473
0.21014,0.12,0.13349,-0.36194,-0.066675,0.045942,0.015289,0.0098123
0.19516,-0.064391,-0.19682,0.35263,0.20767,-0.0068253,0.03742,0.11472
-0.1774,-0.047523,0.33509,-0.042805,-0.055524,-0.027387,-0.073113,-0.1875
-0.4215,-0.071213,-0.27887,-0.11725,-0.035108,0.00056836,-0.011527,-0.052765
0.073854,-0.002035,-0.033103,-0.20523,-0.12132,-0.016332,-0.0043778,0.058512
-0.049241,0.051441,0.28605,0.19462,0.1311,0.0157,0.09671,-0.040516
0.16342,-0.0036502,-0.048588,-0.10409,0.04978,0.018256,-0.075564,0.080488
0.31372,0.028819,0.19357,0.11796,-0.13168,-0.024826,0.017729,0.00014449
-0.39592,0.02445,-0.30623,0.11058,0.13268,0.010768,-0.014152,-8.9573e-05
0.27479,-0.055523,0.092857,0.13059,-0.056482,0.014945,0.0084162,0.048397
-0.03644,0.062301,-0.061998,-0.40184,-0.051429,-0.01292,0.022949,-0.011088
-0.067509,-0.036457,-0.15976,0.14399,-0.040045,-0.042009,-0.032943,-0.030726
-0.12661,0.046154,0.12396,0.078481,0.13391,0.075949,0.036256,0.012303
0.44748,-0.010718,0.24935,0.1734,-0.021432,-0.018313,-0.05044,-0.054325
-0.22183,-0.090378,-0.23434,-0.25182,-0.075804,-0.074447,0.011934,-0.027667
-0.51737,-0.083852,-0.17369,-0.17372,0.026133,0.0096026,-0.010769,0.0064205
0.015456,0.063205,0.047409,-0.09923,-0.1057,-2.4133e-05,0.022181,-0.037761
0.26204,0.045745,0.06906,0.36371,0.12272,0.076763,0.024778,0.090014
0.084798,0.082061,-0.20374,-0.1584,0.023744,-0.0020376,-0.011059,0.006966
0.42404,0.13252,0.85869,0.18717,0.026502,0.021317,0.00016679,0.087834
-0.27283,-0.17847,-0.71038,0.080564,0.020708,-0.040967,-0.0045918,-0.097617
-0.12185,-0.054519,-0.068087,-0.048794,0.020958,-0.025248,-0.018072,0.035851
0.45557,0.17612,0.85239,0.11855,-0.12207,0.03681,0.06866,0.15949
-0.87644,-0.33777,-0.80579,-0.45754,-0.065114,-0.097263,-0.11181,-0.35199
0.37439,0.18591,0.2482,-0.15305,0.0044312,0.072467,0.049924,0.087525
-0.12758,-0.087546,-0.37413,0.21895,0.087259,0.022739,0.022941,-0.029029
-0.069395,0.093251,0.10412,0.29901,-0.018579,-0.019498,-0.059396,0.072933
0.52584,0.065474,0.071098,0.0015556,0.063341,-0.0068484,0.037974,0.050984
-0.29522,0.05651,0.65922,0.13988,-0.032766,0.014362,0.0032526,-0.023379
-0.17425,-0.12088,-0.70026,-0.61302,-0.11046,-0.05696,-0.014538,-0.016565
0.37889,0.048606,-0.019947,0.29115,0.12001,0.029484,0.039657,0.079441
-0.0058899,-0.053001,0.04001,0.072823,0.057247,0.062815,0.025303,0.076739
-0.15227,0.034179,-0.031989,0.0072298,0.029068,0.011589,-0.057795,-0.21306
0.10052,-0.042534,0.1503,-0.20857,-0.16829,-0.10118,-0.030387,0.03697
-0.53137,-0.096638,0.36259,0.10656,0.042489,0.059881,0.020979,-0.02597
0.25524,0.18361,-0.13653,0.055084,-0.026855,-0.021472,0.0096842,-0.01236
0.48372,-0.030381,-0.32431,0.090305,-0.017569,-0.0020427,0.052252,0.15512
-0.2665,0.019015,-0.10104,0.024044,0.12462,0.063075,-0.023738,0.03074
-0.32885,-0.19157,0.077548,-0.082715,-0.045853,-0.10757,-0.038943,-0.20582
0.17498,0.17404,0.39619,-0.19315,-0.036943,0.025086,0.014363,0.078633
0.053322,-0.063441,-0.42102,-0.020985,-0.044128,0.00031516,-0.019866,-0.044876
0.15339,0.11988,0.40543,0.21971,0.057326,0.052827,0.015092,0.057387
-0.38917,-0.041081,-0.36734,0.08821,0.063865,0.026779,0.018358,-0.0042044
0.69321,-0.014517,0.23769,-0.027958,-0.10323,-0.069593,-0.0014644,0.091601
-0.35637,-0.15139,-0.40292,-0.2877,0.063152,0.021924,-0.0045259,-0.052873
-0.12385,0.048894,0.48662,0.24457,0.054555,-0.0030053,-0.03704,-0.077748
-0.17248,0.10246,-0.075424,0.12264,0.0033563,0.012161,0.018615,-0.029701
0.019896,-0.068503,-0.50867,-0.40316,-0.082667,-0.0026811,-0.0093083,0.020836
0.45947,0.12978,-0.16344,0.098511,-0.08584,-0.055249,0.10555,0.14374
-0.45717,-0.14675,0.84271,0.25555,0.033936,-0.012795,-0.027957,-0.099198
0.1743,0.0074572,0.015436,-0.11557,0.028133,0.03848,-0.1684,-0.037009
0.35984,0.068044,-0.26614,0.16954,0.07032,0.043405,0.15989,0.14964
-0.17558,0.073012,0.40755,-0.22007,-0.048819,0.0091187,-0.12994,-0.11045
-0.042423,0.060432,-0.33482,-0.24843,-0.00771,0.091096,0.24256,0.088318
-0.52248,-0.39231,-0.31617,0.19775,0.022442,-0.086396,-0.15289,-0.2075
0.17334,0.19101,-0.013112,-0.089993,-0.0052844,-0.17232,-0.14473,0.049051
-0.15777,0.037053,0.21783,0.33422,0.088038,0.13784,0.11077,0.045891
0.42981,-0.025547,-0.33666,0.078185,-0.050497,-0.069777,0.074834,0.018028
0.35013,0.12122,0.20546,-0.15862,-0.086658,0.096051,0.060481,0.098973
0.22787,-0.0529,-0.093976,-0.27206,-0.053491,-0.020101,-0.20503,-0.070015
-0.3358,0.0078194,0.4426,0.2005,0.18021,0.0045522,0.1775,0.066247
-0.70025,-0.11752,-0.3146,0.10458,-0.07424,-0.001046,-0.15831,-0.13253
0.29162,0.11096,0.345,-0.18986,-0.020563,-0.13787,0.077291,0.060447
-0.4912,-0.18898,-0.11349,0.29827,0.075698,0.21935,-0.0057847,-0.089085
0.41473,0.14696,0.38206,-0.15071,-0.065944,-0.062268,-0.024422,0.020487
0.47293,-0.014174,-0.73012,-0.46498,-0.076955,-0.037749,0.068279,0.068794
-0.033404,0.10052,0.1919,0.34357,0.13035,0.050202,-0.016986,0.00095721
-0.095686,0.091771,0.065296,0.01459,-0.035885,-0.025529,0.039648,0.035386
-0.058215,-0.17419,-0.46351,0.069605,-0.13644,-0.046648,0.0032535,0.015363
-0.039794,-0.073254,0.059306,-0.064055,0.12681,-0.060312,-0.1814,-0.075262
0.074621,0.011168,0.12092,0.031728,0.020055,0.034945,0.063398,-0.041657
-0.11547,0.10228,0.6393,-0.047322,0.011763,0.082916,0.12018,0.068966
-0.44751,-0.21387,-0.28798,0.034341,0.0071026,-0.017863,-0.05023,-0.048215
0.33559,0.22712,-0.0018902,0.19601,0.035623,0.037375,-0.080647,-0.0024839
0.21812,-0.050955,-0.31365,-0.18366,-0.092174,-0.016975,0.044581,0.10487
-0.11994,0.045815,0.40927,0.17172,0.0046051,-0.032493,0.020773,-0.085131
-0.10805,-0.068642,-0.35796,0.023298,0.090121,-0.0091911,0.051019,-0.05644
0.22248,0.058338,0.73435,-0.23361,-0.1645,-0.03295,0.057136,0.074138
0.15244,-0.042674,-0.81538,-0.21737,0.022095,0.052644,-0.10933,0.072505
-0.068845,0.049486,-0.13292,0.010492,0.064829,-0.0021454,0.020475,-0.029943
0.04245,0.053065,0.53989,0.23388,-0.011435,-0.0094999,-0.1313,-0.022254
-0.65441,-0.16484,-0.43626,-0.19211,-0.025367,-0.031636,0.021706,-0.1389
-0.041672,0.02123,0.12787,0.11085,0.032341,0.017535,0.081569,0.049641
0.3506,-0.02055,-0.047461,0.13706,-0.024781,-0.026124,0.072176,0.097794
0.50051,0.054948,0.20238,0.1524,0.1005,0.047974,-0.029643,0.013075
-0.24661,-0.00078921,0.15002,0.21767,0.0093895,0.043897,-0.020757,-0.032974
-0.022326,0.055691,0.51205,-0.28751,-0.09596,0.015538,0.020455,0.076529
-0.052446,-0.14988,-0.69123,-0.038797,0.072187,-0.022295,0.015431,-0.064877
-0.4539,0.062149,-0.28344,-0.50049,-0.12817,-0.062437,-0.098829,-0.14474
0.48405,0.12064,0.076502,0.31754,0.059666,-0.073937,0.02099,0.094909
-0.082909,0.11003,0.11383,-0.045837,0.041329,0.099616,0.015225,-0.001864
-0.061873,-0.16688,-0.014916,0.13755,-0.019122,0.0057287,-0.0068531,0.049735
0.13203,-0.016585,0.29375,0.12078,-0.11328,-0.042089,0.032935,0.015739
-0.12736,-0.057563,-0.16013,-0.29539,0.048982,0.035498,-0.029318,-0.072295
0.27602,0.10818,0.17423,0.40858,0.13302,-0.010321,0.040947,0.1139
-0.40873,-0.1672,-0.46471,-0.27176,-0.078605,-0.02235,0.0095221,-0.097552
0.14597,-0.038466,0.11425,-0.15444,-0.045781,-0.031311,-0.02191,0.011946
-0.06772,0.17621,0.21866,0.30843,0.09935,0.072184,-0.014209,-0.026555
0.47411,0.041607,-0.040451,0.015042,-0.010199,0.076706,0.0092412,0.075802
-0.57136,-0.088726,0.087245,0.050017,-0.03092,0.012628,-0.029638,-0.071763
0.08617,0.020816,0.0070716,-0.36208,-0.049338,-0.027358,-0.01362,0.015035
-0.020762,-0.027955,-0.032878,0.15145,0.0040533,-0.23957,0.010441,0.023673
0.12458,0.045446,-0.22258,-0.16166,-0.0044384,0.093987,0.042521,-0.014579
0.19476,0.13786,0.13846,0.36068,0.11967,0.043238,0.035661,0.017498
-0.20851,-0.073104,-0.28813,-0.24411,-0.10089,0.022208,-0.041524,-0.067578
0.24251,-0.019227,0.47996,0.13212,0.020903,0.077993,0.021757,0.1208
-0.2889,-0.19437,-0.30111,-0.19127,-0.023038,-0.078123,-0.0089831,-0.089293
-0.16302,0.017688,0.039245,-0.019614,-0.014003,-0.023928,-0.07908,0.044276
0.27557,0.015284,0.47659,0.53735,-0.029964,-0.016991,-0.0087699,-0.033215
0.24503,0.15059,-0.7008,-0.37977,0.13251,0.16937,0.053666,0.10014
-0.58304,0.026224,0.37372,0.002932,0.0050595,-0.18359,0.014652,-0.17275
0.22885,-0.15352,-0.23768,0.10052,-0.021207,0.095977,0.038382,0.023294
0.0011122,0.026339,0.32432,-0.21825,-0.062984,0.00023943,0.062392,0.094747
0.25728,0.25378,-0.072852,-0.084203,-0.088536,-0.080112,-0.16339,-0.0050877
-0.096489,-0.31503,-0.38964,-0.14377,-0.027157,-0.0042918,0.024964,-0.041749
-0.25583,0.12405,0.28098,0.33123,0.10573,-0.022082,0.01007,-0.03093
-0.002521,0.015524,0.033733,0.17755,0.12256,0.077657,0.049572,0.081817
0.42844,0.085097,0.26824,0.19966,-0.047413,0.037211,-0.028538,-0.0085759
-0.11972,-0.066252,-0.38912,-0.27551,-0.014248,-0.010674,0.041305,0.0099333
-0.43633,-0.20427,0.19599,-0.195,-0.060034,-0.058421,-0.061192,-0.10527
0.47098,0.14025,-0.4044,0.18949,0.080088,0.049878,0.023457,0.10644
-0.32676,-0.22705,0.17091,-0.17003,-0.063105,0.0091989,0.014194,-0.034687
0.21071,0.49203,0.63457,-0.16433,-0.083386,-0.00097031,-0.026226,0.041829
-0.079162,-0.20896,-0.49633,0.27778,0.043161,-0.050896,0.0040378,-0.13234
-0.17916,0.038374,-0.11151,-0.076414,0.059625,-0.077744,-0.035391,0.02932
0.10739,-0.1949,-0.29682,-0.037478,-0.025043,0.067511,0.043157,0.043047
0.37503,0.052312,0.056192,0.060277,-0.084723,-0.020664,0.036606,0.034331
-0.17299,-0.040799,0.69548,0.13172,0.13144,0.10372,-0.00044439,0.026859
-0.13894,0.14177,-0.061662,-0.081305,-0.001129,-0.027607,0.0021111,-0.0028691
-0.17262,0.21546,0.1874,0.044716,0.025254,-0.0082691,-0.057579,-0.031777
-0.057215,-0.31399,-0.59987,0.0073639,0.0068799,0.01305,-0.047022,-0.08388
0.50193,0.11388,0.2849,0.045964,-0.088412,-0.097062,0.049089,0.12921
-0.15364,-0.088538,-0.69835,-0.42816,-0.058515,0.043351,-0.0039102,-0.11188
-0.13521,-0.062806,0.27936,0.29383,0.087846,0.058315,0.043724,0.028315
0.087282,0.12861,0.52514,0.17186,-0.032796,-0.0062339,-0.0035281,0.049594
0.20112,0.080523,-0.54353,-0.33293,-0.022321,-0.041685,0.072958,0.03016
-0.48016,-0.21291,0.31117,0.15594,0.1271,0.0061838,-0.054934,-0.029602
0.11598,0.10249,0.24818,0.17999,-0.10769,-0.042415,-0.097953,-0.074368
0.070859,-0.025138,-0.40314,-0.14044,0.047177,0.039372,-0.0010164,0.021674
-0.10405,-0.015055,0.24744,-0.12232,-0.11875,0.002181,0.0020582,-0.037508
0.43062,0.033077,0.11208,-0.16108,0.051204,0.03441,0.044713,0.116
-0.50226,-0.15334,-0.62453,0.2064,0.17449,0.012095,0.080647,-0.072047
0.1218,0.31587,0.64392,0.090409,-0.12378,-0.063723,-0.05381,-0.015657
0.27865,0.017181,-0.085106,0.11544,0.023545,0.018793,0.03211,0.12072
-0.25297,-0.15361,-0.28951,0.021787,-0.055509,-0.067856,0.017971,-0.046474
0.31207,-0.082414,-0.031588,-0.021579,0.029608,0.012492,-0.13563,-0.049497
-0.31993,0.1809,0.22171,-0.19767,0.005483,0.10333,0.055205,0.0090625
0.21369,-0.20971,-0.34686,-0.079922,-0.0027314,-0.014831,-0.06631,0.0033628
-0.17648,0.072706,0.32115,-0.10818,-0.10416,0.00058416,0.10087,-0.051441
0.10947,0.0048866,-0.24718,0.028778,-0.0016804,0.038799,0.048477,0.086856
0.11899,-0.052323,0.41973,0.42459,0.14864,-0.12815,0.018395,0.05941
-0.68418,0.059818,0.034297,-0.20106,0.057749,0.068954,-0.067628,-0.19532
0.51702,-0.038452,-0.091104,0.28634,-0.024536,0.027961,-0.029791,0.073882
-0.29545,0.085633,-0.22374,-0.3844,-0.028206,-0.016637,-0.063047,-0.061439
0.19606,-0.096594,-0.4524,-0.19519,-0.10203,-0.12651,0.005027,0.024696
