0.011793,0.1685,0.10937,-0.080352,-0.042147,-0.034158,0.0022855,0.010635
-0.0182,0.0059133,-0.12262,0.10833,0.0089988,-0.0026716,0.0014794,-0.0054959
0.038704,0.079969,0.60684,-0.060643,0.025841,-0.010795,0.024307,0.024856
0.033656,0.17045,0.45163,0.029576,-0.015248,0.011844,-0.023018,0.0079348
-0.080809,-0.35748,-0.9613,-0.50252,-0.1684,-0.0048716,-0.0077228,-0.040597
-0.00065535,0.017514,0.20996,0.07222,-0.018396,-0.029425,-0.015771,-0.026901
0.054785,0.30167,0.68682,0.18665,0.13931,0.071253,0.023146,0.041351
-0.063316,-0.38062,-0.53818,0.36698,0.087314,-0.015152,0.015298,-0.0075435
0.035538,-0.013111,-0.39533,0.013289,0.060909,0.016116,-0.015851,0.02191
-0.023488,0.10912,0.49029,0.047495,0.0057243,0.00095677,2.7262e-05,-0.010754
0.010029,-0.042535,-0.73913,-0.14904,-0.14102,-0.037295,-0.015204,-0.011676
0.01951,0.26142,1.0767,-0.047486,0.026223,0.010622,0.008715,0.01138
-0.025593,-0.077914,-0.055281,-0.19726,-0.040275,-0.058498,-0.022062,-0.027549
-0.01522,-0.20715,-0.88354,0.15753,0.018106,0.06782,0.079835,0.027699
0.06684,-0.13346,-0.27149,-0.12447,-0.080365,-0.04792,-0.03729,0.0051042
-0.021177,0.36905,0.86407,-0.2458,8.4339e-05,0.023963,0.024898,-0.025198
0.064715,0.18913,0.02868,0.28731,0.15798,0.041209,-0.061754,0.038167
-0.066065,-0.050872,0.61819,0.21128,-0.043988,-0.066661,-0.0081131,-0.0080931
-0.14022,-0.4242,-0.44107,-0.29243,-0.058775,0.16885,0.0062967,-0.062539
0.091915,0.097821,-1.0754,0.12872,0.074598,-0.20567,-0.049558,0.038835
-0.018629,-0.15066,0.89731,0.31834,0.043535,0.082949,0.11359,0.0069874
0.10552,0.11867,-0.88913,-0.18565,-0.019316,0.018961,0.034958,0.04514
-0.013162,0.14831,0.76814,0.1072,-0.067215,-0.061647,-0.058851,-0.03404
-0.031963,0.0018523,-0.16404,-0.42983,-0.15485,-0.010182,-0.027242,-0.035015
0.063744,0.12621,1.0138,-0.024429,0.077347,0.025346,0.012522,-0.012212
-0.00019327,-0.031542,-0.56288,0.18261,0.18441,0.084529,0.0056911,0.08151
-0.03651,-0.10252,-0.59554,0.15306,-0.059803,-0.082097,-0.024313,-0.027063
-0.24795,-0.35098,-0.29363,-0.36149,-0.061125,0.0181,-0.022771,-0.095615
0.18681,0.18485,0.15751,0.22669,0.016651,-0.028677,0.041617,0.094589
0.097363,0.020722,0.863,0.083173,-0.037329,0.027611,-0.034268,-0.011333
-0.092725,0.11684,-0.63257,-0.36946,-0.035695,-0.047628,0.038539,-0.023141
0.032144,0.18259,1.0146,0.81383,0.22436,0.10453,0.064499,0.066437
-0.16759,0.28616,-0.5754,-0.21185,-0.10917,-0.00090336,-0.058299,-0.040095
0.19904,-0.62154,-1.0144,-0.26845,-0.060175,-0.075566,0.0056767,0.0082306
0.061261,0.18432,0.90065,-0.22475,0.050622,0.020518,-0.025199,2.9571e-05
-0.050887,-0.2188,-0.88326,-0.15992,-0.19109,-0.049083,-0.033981,-0.057076
-0.0062592,-0.11148,0.76838,0.56648,0.12084,0.03568,0.018351,0.016729
-0.025351,0.23486,0.027861,-0.34963,0.048936,0.0013774,0.038236,0.0031426
-0.0079898,0.27633,0.10368,0.069519,0.046438,-0.0111,0.0026397,0.051309
0.045152,-0.16337,0.10672,0.16119,0.058788,0.10029,0.013684,-0.0019766
-0.17037,-0.16704,-0.35636,-0.12825,-0.10916,-0.085679,-0.06081,-0.08553
-0.012802,0.12705,0.38758,0.045417,-0.058738,0.0098488,0.0063375,0.043584
-0.027266,-0.10813,-0.53795,0.12732,-0.039585,-0.057675,-0.018749,-0.0047511
0.23351,0.15053,-0.11228,-0.11761,0.14412,0.064027,0.075172,0.050911
0.099329,0.065333,0.74812,0.28625,0.078937,0.047408,0.014712,0.054183
-0.24914,-0.13223,-0.2385,-0.38059,-0.20319,-0.1228,-0.051907,-0.11255
-0.0071868,-0.10204,-0.24133,-0.12619,-0.06103,0.0144,-0.0079508,-0.012435
0.18362,0.31617,0.48837,0.065391,0.099509,0.068087,0.0053407,0.041309
-0.10818,-0.17784,-0.89816,0.069974,0.028384,0.021984,0.018534,-0.0067274
0.037074,-0.30529,-0.19154,-0.025581,0.14691,0.023568,-0.00027078,-0.0009168
-0.015637,0.23729,0.58543,0.2012,-0.13191,-0.092378,-0.035977,-0.027668
-0.018048,0.1142,0.36373,-0.023252,-0.004875,0.01671,0.036077,0.061159
0.044605,-0.0010356,-0.059538,-0.098395,-0.051745,-0.0095825,-0.010787,-0.031428
0.0085131,0.050667,-0.24905,-0.010444,0.10095,0.062399,-0.0045809,0.030567
-0.1562,-0.039479,0.51642,0.32426,-0.047879,-0.033253,-0.01531,-0.057332
-0.017583,-0.20487,-0.35768,-0.16676,0.024757,-0.0072587,0.035601,0.048978
-0.11983,-0.25409,-0.64839,-0.40687,-0.08701,-0.054229,-0.038827,-0.040678
0.28179,0.32374,-0.080057,0.56456,0.14144,0.10818,0.043172,0.057021
0.11096,-0.063487,0.78615,-0.65775,-0.20994,-0.11247,-0.014835,-0.071489
-0.10819,0.29491,0.72514,0.092398,0.064157,0.074221,-0.0015946,0.0038973
0.11591,0.1155,-0.52601,0.30216,0.067447,-0.05716,0.0049229,0.041257
-0.19502,0.19912,-0.39219,-0.06478,-0.1515,-0.013681,-0.081236,-0.053109
0.050304,-0.71682,-0.72536,0.11868,0.28325,0.11895,0.12256,0.11124
-0.057046,-0.15283,0.023568,0.24419,-0.065841,-0.018958,-0.063679,-0.067649
-0.042887,0.043184,0.46812,-0.23525,-0.012224,0.0093324,0.031528,0.011249
0.036425,0.46217,0.90238,0.069968,0.020599,-0.031594,0.0015379,-0.0041722
0.094231,0.11857,-0.55966,-0.31029,-0.063046,-0.025613,-0.013344,0.0028455
-0.033251,0.005128,0.038502,-0.11169,-0.13995,-0.036083,-0.013288,-0.030385
-0.0089058,-0.40734,0.20634,0.055651,0.10109,0.014643,0.0017322,0.021265
0.083165,0.048573,-0.50912,0.22289,-0.035844,-0.02191,-0.0071125,-0.0058083
-0.22362,-0.052738,0.40691,0.29684,0.10564,0.08898,0.0074501,0.0063017
0.080661,0.050799,-0.72641,0.036343,-0.051881,-0.058353,-0.016604,-0.011868
0.036743,0.15979,0.30874,-0.69798,-0.085471,-0.041423,-0.00071072,-0.043895
0.067379,0.13615,0.42599,0.22007,0.08408,0.054266,0.031981,0.027961
-0.093188,-0.402,-0.34342,-0.099247,0.012322,0.025689,0.011201,0.047588
-0.00083777,0.1382,0.047618,0.19594,0.059081,-0.01027,-0.039851,-0.047886
0.10016,0.26206,-0.057025,0.34734,0.036849,0.039479,0.042388,0.076608
0.011905,-0.15118,0.092404,-0.39633,-0.12508,-0.013424,0.0072489,-0.033291
0.14591,0.30084,0.37797,0.33025,-0.067942,-0.013563,-0.0053441,0.074182
-0.13254,-0.15077,-0.22493,-0.11559,0.14516,-0.0083664,-0.027222,-0.039653
-0.097612,-0.42979,-0.31929,-0.094956,-0.025236,-0.060414,-0.011832,-0.016127
-0.27979,-0.17686,0.031024,-0.24163,-0.063575,-0.005149,-0.029468,-0.16777
0.14348,0.24271,0.32488,-0.016579,0.02263,0.033447,0.021801,0.021743
0.097411,0.24631,-0.33697,0.057572,-0.039458,-0.068261,0.025439,0.061512
0.10142,0.095758,0.36516,0.31797,-0.0069133,0.11304,0.013499,0.046879
0.049616,-0.2521,-0.88971,-0.32808,0.058436,0.00041385,-0.021036,0.073126
0.038274,0.28356,1.1161,0.36195,0.094487,0.0086438,0.00058971,-0.014868
-0.18936,-0.41336,-0.83764,-0.37829,-0.18785,-0.080969,-0.022842,-0.052545
-0.0010532,0.2581,0.23125,0.27757,0.17966,0.082517,0.033657,-0.024509
0.054227,0.19418,1.1097,0.53024,-0.069558,-0.017715,0.005649,0.029296
0.074744,-0.030253,-0.90714,-0.60716,0.032037,-0.00040078,0.025276,0.013777
0.040884,-0.20019,0.54021,-0.14423,-0.10278,0.023464,-0.017685,0.013329
-0.19989,-0.43641,-0.9912,-0.23773,0.001447,-0.11159,-0.053784,-0.075059
-0.088698,0.15654,0.46476,-0.02717,-0.031015,-0.00027032,-0.0056073,-0.002487
0.38743,0.49848,-0.84212,0.84158,0.22931,0.16179,0.095173,0.13674
-0.21032,-0.083538,0.69846,-0.54973,-0.084371,-0.093817,-0.040542,-0.11042
-0.061475,0.051005,-0.10095,0.10756,-0.14298,-0.078637,-0.060825,-0.063569
0.0074859,-0.20653,-0.18862,0.090609,0.078394,0.099372,0.042859,0.067553
-0.070878,-0.27652,0.27141,-0.1836,-0.090368,-0.050336,-0.056654,-0.051498
0.2306,0.21812,0.82043,0.24766,0.14944,0.059783,0.094793,0.15893
-0.037141,0.17052,-0.028799,-0.16187,-0.013103,0.009161,-0.025321,-0.096741
-0.088927,-0.08064,0.045942,0.11851,-0.18632,-0.15455,-0.033552,-0.0051391
-0.046519,-0.032633,-0.81292,-0.43607,0.083166,0.092217,0.015626,0.019983
-0.056178,0.18435,-0.030047,0.53166,0.12287,0.084793,0.012584,-0.052906
0.13294,-0.067938,-0.39133,-0.51196,-0.013986,-0.013974,0.011316,0.041001
0.10618,-0.013945,0.44979,0.56337,0.068954,-0.002612,0.0029783,-0.0042051
-0.14618,-0.45666,-0.36383,-0.20562,-0.060303,-0.062605,-0.029242,0.013179
0.24011,0.11284,-0.15266,0.14791,0.018057,0.093496,0.085393,0.13863
-0.26187,0.32766,0.71056,-0.3071,-0.14266,-0.12919,-0.11493,-0.19929
-0.0072064,-0.047389,0.078575,-0.19636,-0.050658,0.018885,0.041202,0.0065483
0.0167,0.3294,0.11228,0.30029,0.08376,-0.0245,-0.024272,0.013848
-0.0517,-0.33418,-0.36226,-0.22316,-0.08948,0.022824,-0.029565,-0.020702
0.15367,0.020383,-0.0032527,0.43681,-0.052817,-0.033124,0.018425,0.02095
-0.039122,-0.24396,-0.22628,-0.32881,0.27377,0.10598,0.034851,0.061763
-0.066688,0.32196,1.0006,0.68345,0.13391,0.058634,0.020766,-0.045639
-0.029043,-0.33974,-0.35636,-0.41658,-0.12012,-0.025795,0.00043258,0.0042636
0.16168,0.18295,-0.33047,-0.25306,-0.097727,-0.068699,0.0055629,0.086945
-0.1722,0.12366,-0.40507,-0.29338,-0.080781,-0.093489,-0.049718,-0.086575
0.13526,0.13143,0.59071,0.034676,-0.08583,0.040109,0.037419,0.030339
-0.0003597,-0.22162,-0.54808,0.35044,0.10492,0.018987,-0.038263,-0.015865
0.023662,-0.11229,0.17592,0.35893,0.17038,0.15491,0.058513,0.0087319
-0.065371,0.19736,0.015546,-0.2981,-0.061812,-0.060645,-0.0010052,-0.013406
-0.095217,-0.30442,-0.72649,0.0043714,-0.11526,-0.089204,-0.08448,-0.074626
0.0044424,0.13598,0.82283,-0.039559,-0.021088,-0.02484,0.0031453,0.0047928
0.030122,0.13074,0.28363,0.044396,0.1038,0.038671,0.043101,0.09219
0.12949,0.025122,0.22415,-0.043654,-0.052722,0.007838,0.012117,0.03148
-0.073674,0.014366,0.042815,-0.45547,-0.037251,-0.015325,-0.0035917,-0.060082
0.020567,-0.051647,-0.59376,0.38387,0.11908,-0.02251,-0.0037329,0.012706
-0.11319,0.058419,0.60264,0.31546,0.0099351,0.056978,0.0041103,-0.00045926
0.10892,-0.1906,-0.34635,0.20475,-0.005597,0.027967,-0.0033832,-0.021911
0.044323,0.025284,-0.77696,-0.59714,-0.08413,-0.00033403,-0.0027869,0.010322
0.0040652,0.038265,-0.045444,0.012411,-0.085374,-0.098691,-0.017658,0.0020032
0.057787,0.43938,0.94151,0.12203,0.15454,0.1385,0.069002,0.077796
-0.15353,-0.53046,-0.89838,-0.22519,-0.020622,-0.078504,-0.071128,-0.0827
-0.16749,-0.027067,0.92593,-0.047817,-0.11846,-0.031518,0.0071028,-0.033961
0.096464,0.068797,-0.022807,0.35436,0.08013,0.0057228,0.0067434,-0.025475
0.047665,0.0027199,-0.53359,-0.0067277,0.013095,0.025454,-0.0096858,0.060693
0.13462,0.20077,0.64987,0.23093,0.063662,0.004637,0.020428,0.045723
-0.093023,-0.24679,-0.93736,-0.28348,-0.010012,-0.032608,-0.0042969,-0.02266
0.046292,0.36693,0.73694,-0.16055,-0.035813,0.023937,0.017911,-0.010948
0.045401,-0.30691,0.038256,0.22966,-0.037047,0.026672,0.0091254,0.01099
-0.096358,0.18602,-0.43572,-0.33567,-0.11525,-0.086226,-0.069561,-0.073914
-0.16208,-0.35776,0.5364,0.33412,0.1201,0.052811,0.0084884,0.031002
0.20492,0.052054,-0.90255,-0.085863,-0.018717,0.029728,0.024501,0.036154
0.10311,0.34205,0.88295,0.0020112,0.053851,0.00041178,0.025221,0.034532
0.084226,0.26623,-0.49384,0.21221,0.14201,0.05796,0.041678,0.033063
-0.33058,-0.50746,-0.074346,-0.22201,-0.12974,-0.071849,-0.067023,-0.13319
0.091891,0.18963,0.75798,-0.010867,-0.019561,-0.014753,0.019179,0.050682
-0.13258,-0.26948,-1.0428,-0.097186,-0.050985,-0.029077,-0.01238,-0.025135
0.11468,0.060267,0.90047,-0.32078,-0.16906,-0.0056237,-0.036723,0.0064437
0.16426,0.18041,-0.41724,0.64343,0.28306,0.055782,0.063474,0.083157
-0.2699,-0.12482,-0.23521,-0.10594,-0.068868,-0.03971,-0.04746,-0.091352
0.072898,-0.11719,-0.16051,-0.049153,-0.044402,-0.0024313,-0.01763,-0.00077004
0.054219,0.10559,0.72217,-0.07402,0.013206,0.02758,0.036089,0.027517
0.073557,0.054356,-0.25137,-0.062319,0.041551,0.019486,0.027969,0.0097947
0.10719,0.16034,0.39399,0.039804,0.040256,0.035932,-0.010687,0.001229
-0.096437,-0.11583,-0.48472,0.15946,0.031967,-0.04042,0.029381,0.041121
-0.024194,0.14559,0.25063,0.081772,-0.10155,-0.03808,-0.02394,-0.026797
-0.093082,-0.17611,-0.17536,-0.58864,-0.1192,0.019,-0.038136,-0.038706
-0.040313,0.024229,-0.34938,0.7058,0.16565,0.052181,0.0021488,-0.010648
0.006847,-0.12467,-0.091092,-0.61745,-0.036582,-0.10299,-0.01265,-0.0056534
0.10171,0.10836,0.41385,0.50857,0.094421,0.076739,0.034576,0.030376
0.079865,0.018399,-0.23049,0.066467,-0.06585,-0.017961,-0.0045949,0.018717
-0.16742,-0.30869,0.22061,-0.50628,-0.15711,-0.089959,-0.020718,-0.0099463
0.11915,0.48022,0.76913,-0.043814,-0.029766,0.10332,0.017536,0.022044
-0.18333,-0.33848,-0.47426,0.35559,0.23139,0.023255,0.047723,0.020631
0.24004,0.35618,-0.29792,-0.10846,-0.09929,-0.032905,-0.039508,-0.084571
-0.061465,-0.25984,-0.34978,0.084298,0.16616,0.028861,0.013665,0.034772
-0.15598,-0.089021,0.42537,-0.0071652,-0.1051,-0.056957,-0.034913,-0.011463
0.13785,0.012154,-0.58124,-0.15298,-0.0073235,-0.0013293,0.010164,-0.0194
-0.061747,0.10782,0.24789,0.039419,-0.017887,0.015894,-0.0071783,0.019679
0.1049,0.049688,0.70134,0.32817,-0.098641,-0.021171,0.0070603,0.028576
0.020211,0.27391,-0.40245,-0.43634,0.03863,0.059036,0.021916,0.015915
-0.16062,-0.32362,-0.20763,0.18874,0.072956,0.0061898,-0.032662,-0.056797
0.014024,-0.050851,0.39798,0.17669,-0.011719,-0.039368,-0.00025183,0.037252
-0.020198,0.026301,-0.11487,-0.28856,-0.035933,0.0081087,0.0097897,-0.022357
0.17228,-0.0013784,-0.048594,0.18026,-0.038815,-0.023319,0.020734,0.0061291
-0.058827,0.020263,0.4522,-0.16954,0.12031,-0.032013,-0.0068262,0.012642
-0.074459,-0.042579,-0.68409,-0.16785,0.035329,0.029099,0.028193,0.035403
0.077416,0.15399,0.0056528,0.2237,-0.090345,0.050909,-0.015355,-0.035821
-0.033371,-0.17799,0.31618,0.23973,0.009361,0.0024547,-0.044177,-0.045527
0.062144,0.080461,-1.119,-0.17334,-0.0086315,0.016801,0.050808,0.068263
-0.088276,-0.021674,0.81909,-0.021593,-0.088749,-0.12462,-0.050771,-0.077507
-0.11603,0.072337,0.22571,-0.013729,0.051284,0.062673,0.018466,0.064085
0.035259,-0.049901,0.2169,-0.10031,0.037489,0.016179,-0.03796,-0.061363
0.15627,-0.02797,0.029997,0.13543,-0.0043046,0.0092486,0.022644,0.054397
-0.0017892,0.13843,0.24173,-0.13192,-0.050204,-0.020787,0.036711,0.0055995
-0.11029,-0.2777,-1.1141,0.06879,0.10288,0.011778,-0.0032026,-0.019822
0.096057,0.18349,0.70428,0.20047,0.032515,0.0051318,0.020259,0.025328
-0.032276,0.12989,-0.25771,-0.35276,-0.10602,-0.0096965,-0.025768,-0.022841
0.14368,0.00515,0.33466,0.33147,0.16263,0.060904,0.030361,0.031025
-0.13572,-0.24696,-0.31489,0.018447,-0.21745,-0.095587,-0.053871,-0.055321
-0.051775,-0.15104,9.5319e-05,-0.35555,-0.020708,-0.0024958,0.0024578,0.022697
-0.089835,0.22979,-0.31546,-0.16756,0.025634,-0.0033562,-0.0040279,-0.0084819
0.17185,0.090823,0.76362,0.62649,0.16351,0.050531,0.020294,0.054157
0.023152,0.12792,-0.53974,-0.58621,-0.099176,0.018774,-0.026142,-0.10198
-0.1593,-0.22818,0.014668,0.51867,-0.019865,-0.082869,0.020809,0.030854
-0.037402,-0.08542,0.15204,-0.054828,0.01913,0.089353,-0.0027962,0.0072576
0.23489,0.27662,0.41768,0.15105,0.096467,0.066565,0.059394,0.13966
-0.19977,-0.36694,-0.16749,-0.186,-0.084234,-0.12799,-0.066001,-0.11888
0.11316,0.14168,-0.47452,-0.30067,-0.053814,0.0055152,0.019459,-0.0027611
0.010192,-0.048037,-0.016635,-0.18355,0.023969,-0.040839,-0.020193,-0.035335
0.10036,0.21274,-0.097766,0.067106,0.000869,0.084542,0.033764,0.03358
-0.062718,0.095542,0.65631,0.47131,0.11915,-0.0088106,-0.0061718,0.032399
-0.066566,-0.05693,0.094985,-0.052316,-0.035284,0.0074546,-0.030581,-0.046348
-0.13167,-0.38681,-0.39432,-0.046889,-0.087604,-0.053941,-0.015938,-0.038287
-0.0096312,0.2527,0.098572,-0.0024388,-0.13966,-0.020998,-0.0090131,0.0020816
0.22019,0.07108,-0.53197,-0.56732,0.065938,0.020293,0.060597,0.11381
-0.04454,-0.19826,0.1789,0.66267,0.23956,0.046219,0.036683,0.0075848
0.08653,0.37404,0.33707,0.35563,0.060256,0.12662,-0.010468,0.034525
-0.19113,-0.43826,-0.18543,-0.44637,-0.22264,-0.12975,-0.080936,-0.16531
-0.002026,0.18595,0.78093,-0.34974,-0.078388,-0.043771,-0.010765,0.0012773
0.029527,-0.1038,-0.84361,0.22766,0.14126,0.016927,0.043693,0.041651
0.052683,-0.0096824,-0.098804,-0.02079,-0.063493,0.0053456,0.01987,0.010246
-0.017916,0.093815,0.23448,0.28823,0.011173,0.0076567,-0.0041309,0.024206
0.013359,0.29242,0.3766,-0.1469,0.0069552,-0.045876,0.010785,0.0055621
0.052758,-0.25863,-0.61506,-0.25065,-0.0045122,0.056509,-0.021238,0.024946
0.014058,0.024869,0.24747,-0.016414,0.0015663,-0.0045817,-0.029767,-0.042196
-0.07195,-0.21857,-0.28963,0.13301,0.010737,0.021702,0.00095717,-0.0078301
-0.14325,0.055814,-0.03492,-0.34336,-0.015272,-0.035882,0.0085512,-0.027635
0.1592,0.41668,0.88996,0.44884,0.06444,0.018288,0.039949,0.023929
0.030598,-0.25393,-0.059346,0.51044,-0.078536,0.0044713,-0.014252,-0.016766
-0.060091,-0.1041,-0.45944,-0.44217,0.062822,-0.030863,0.0098943,0.022397
0.043898,0.024119,-0.028389,0.10152,0.081095,0.060044,0.026265,0.055468
-0.03167,-0.01484,-0.62563,-0.38882,-0.17351,-0.036154,-0.059098,-0.050653
-0.074946,0.032809,0.18563,-0.17059,-0.06173,-0.054704,-0.02762,-0.007436
0.032171,0.0071475,0.65394,0.42143,0.11059,0.019253,0.026842,-0.0030745
0.12637,-0.033298,-0.074509,0.27307,0.12386,0.11487,0.033964,0.06326
-0.080986,-0.085689,-0.17469,-0.44605,-0.13178,-0.041501,-0.029617,-0.051258
0.035084,0.35121,0.77952,0.045802,0.031124,-0.035638,0.039363,0.0045117
-0.22909,-0.40302,-0.70755,-0.27964,-0.058963,-0.077961,-0.04017,-0.058616
0.27385,0.20354,-0.38852,0.31681,0.059567,0.027644,0.01322,0.048615
0.073631,0.15852,0.56361,0.16886,-0.018626,0.039919,0.012209,0.014176
-0.26907,-0.12184,-0.58497,-0.29629,-0.011274,-0.040267,-0.019615,-0.036293
0.04855,-0.057524,0.011567,-0.027794,0.043558,0.068954,-0.0040112,0.022889
0.087304,0.057268,0.47314,0.24975,-0.11891,0.00061215,-0.0034118,-0.010825
0.01008,0.055039,-0.4635,-0.17491,0.080025,-0.0033334,0.013448,0.011377
0.074294,-0.22147,0.19486,0.77406,0.20317,0.072118,0.054337,0.081788
-0.0085242,0.15135,0.60349,-0.64121,-0.18696,-0.094219,-0.060532,-0.080994
-0.14295,-0.2206,-0.029561,0.059973,-0.035897,-0.018892,-0.018812,-0.0085721
-0.11537,-0.08102,0.025984,-0.25797,-0.078385,-0.062053,-0.01601,0.0017272
0.14008,0.35077,-0.41354,-0.39297,0.021073,0.064866,0.05702,0.019769
-0.10735,-0.066674,-0.42084,0.64805,0.19169,0.025781,-0.0030966,-0.040738
0.098655,0.015987,0.40291,-0.21824,-0.07481,-0.030688,0.0065108,0.01531
0.072798,0.070728,-0.4308,0.19143,0.064862,0.083393,0.0074943,0.03161
-0.043578,-0.21459,0.4753,0.23218,-0.077186,-0.045446,-0.031548,-0.0073844
0.147,0.13407,-0.33911,-0.54648,-0.14189,-0.049377,-0.016906,-0.015569
-0.15491,-0.060194,0.14241,-0.1045,0.058064,0.0018861,0.004641,-0.023995
0.00014127,0.25848,0.52053,0.60397,0.10849,0.061951,0.025514,0.030017
0.061053,-0.2062,-0.61504,0.076019,-0.045348,-0.071999,-0.016447,0.0059695
0.062938,0.1798,0.54783,-0.21615,0.010571,0.053264,-0.0036585,0.021109
-0.028458,-0.19788,-0.60484,-0.24622,0.026221,0.007958,0.048645,0.012942
-0.23031,-0.38866,0.46566,0.11408,0.09537,0.034005,-0.031082,-0.041988
-0.026885,0.31068,0.35059,0.17402,-0.14122,-0.056463,-0.031684,-0.042127
0.036532,0.019857,-0.74969,-0.33334,-0.011367,-0.013848,0.023481,0.035986
0.040676,0.024415,0.54654,0.26472,-0.069249,-0.057271,-0.0062879,-0.0029133
0.19163,0.19669,-0.34444,-0.47446,0.06077,0.078588,0.019411,-0.018152
0.0076425,-0.10675,0.13863,0.10141,-0.042563,-0.012749,-0.0013321,0.060587
-0.16577,-0.29588,-0.87607,0.54334,0.18368,0.059174,0.0091836,-0.032396
0.17984,0.3584,0.18062,-0.074906,-0.096374,-0.026072,-0.027608,0.015234
-0.096546,-0.06493,0.44222,-0.22777,-0.10187,-0.073246,0.005091,-0.0076879
0.050778,0.1052,0.37797,-0.03977,0.14292,0.042638,-0.0023707,0.0079711
-0.012447,-0.15667,0.20509,0.27713,0.06657,0.040385,0.020203,0.0073362
-0.26404,-0.18914,-0.16716,0.09595,-0.027373,-0.040797,-0.013064,-0.040913
0.24846,0.30199,-0.23136,-0.24179,-0.10857,0.0024521,-0.0081868,-0.0038827
-0.084239,-0.083863,-0.25628,-0.26904,-0.068044,0.014193,-0.019483,-0.014153
-0.011315,-0.051,0.93321,0.0057915,-0.085257,-0.10678,0.031624,0.037988
0.046667,0.048938,-0.78447,0.059964,0.20784,0.15553,0.012782,0.020095
-0.08073,-0.24405,-0.3576,0.33283,0.023523,-0.065758,-0.020912,-0.012826
-0.032964,0.0091642,0.15838,-0.38401,-0.089788,0.04209,0.0089604,-0.029322
0.25303,0.32609,-0.51637,0.27924,0.056898,-0.020809,0.0087957,0.040967
-0.0042204,-0.065082,0.90229,0.035597,-0.019613,-0.035704,-0.029238,-0.0051842
-0.0010055,0.19602,0.3239,0.058104,0.025137,-0.010517,0.0040548,0.0038781
-0.192,-0.25762,-0.14736,-0.25474,-0.03525,0.0076719,-0.0010221,-0.025881
-0.047757,-0.11419,-0.41652,0.088244,-0.044899,0.026384,0.02542,-0.0088143
0.015948,0.039028,0.32856,0.046196,0.050053,0.021825,-0.0030304,-0.031103
0.060264,0.0049522,-0.17936,-0.16445,-0.017165,0.0092275,-0.00089846,0.047712
0.053134,0.055124,-0.38785,0.28975,0.11934,-0.050853,-0.0076225,0.0010005
0.11938,0.27375,0.53678,-0.37484,-0.17453,0.020957,0.02345,0.094421
-0.17022,-0.25451,-0.078922,-0.0040552,0.084547,-0.017716,-0.048324,-0.10938
0.005708,-0.02243,-0.3372,0.37702,-0.033856,-0.010641,0.003821,-0.024236
0.047158,-0.021914,0.074778,0.0017118,0.040279,0.065782,0.024038,0.037695
-0.075226,-0.017408,0.10338,-0.14601,0.033673,-0.045934,-0.018387,-0.032598
0.078048,0.055528,0.031268,0.082644,-0.10781,-0.0016029,0.0099409,0.038659
-0.18653,-0.01946,0.17228,-0.061163,-0.0083319,-0.011694,0.0079755,-0.021753
0.20268,0.0022443,0.011639,-0.34123,0.0048895,-0.036731,-0.00048605,0.0049324
-0.089719,-0.11955,0.31517,0.3072,0.073289,0.056361,-0.01531,0.016924
0.11563,0.33508,-0.87863,-0.34805,0.033321,0.025445,0.018073,0.029373
-0.010657,-0.29785,-0.19607,0.27279,-0.013334,-0.0046651,-0.0022442,-0.028681
-0.072106,0.12123,0.50142,0.30315,-0.082587,0.0047074,0.0013562,-0.001687
0.069547,0.1528,0.37522,-0.15598,0.090596,-0.040679,0.036122,0.016006
0.029173,-0.10413,0.14865,0.31559,0.013313,0.038392,-0.01564,0.031865
-0.085709,-0.12095,-0.25205,-0.21409,-0.010372,-0.00058583,-0.044899,-0.071284
-0.08085,0.045501,-0.49406,-0.49725,-0.12143,-0.048311,-0.028334,-0.04304
-0.050129,0.034583,0.47505,0.19898,0.031772,-0.057706,0.010737,-0.0076841
0.14782,0.010183,-0.75953,-0.31335,-0.026878,0.11229,0.025744,0.059098
-0.032503,-0.25338,0.42831,0.63053,0.10963,-0.053375,0.040515,0.025315
-0.066082,0.19084,1.0182,-0.10846,-0.050046,-0.030742,-0.022713,-0.03036
0.056331,-0.12397,-1.0472,-0.012739,-0.04425,0.094617,-0.0074419,0.017202
0.16381,0.29608,0.73867,-0.23674,0.041456,-0.036585,0.0082773,0.058283
