0.0015119,0.35697,-0.28955,0.07109,0.0015496,-0.0093661,0.003001,-0.0069512
0.01283,-0.0025937,0.40779,-0.042884,-0.013472,-0.0007694,0.010675,-0.0064041
-0.037671,-0.062907,0.23912,0.068752,0.034121,0.00020946,0.0027813,-0.020542
0.068239,0.2311,-0.45728,-0.12586,-0.011915,-0.0066091,0.010552,0.059803
-0.11531,-1.0574,-0.20936,-0.080295,-0.026639,-0.021378,-0.036372,-0.054743
0.098687,0.47881,-0.55216,0.15843,0.044526,0.033924,0.033826,0.041702
-0.063548,-0.2604,0.77627,-0.026616,-0.025126,0.0030006,-0.028908,-0.02623
-0.00058767,0.7418,-0.61927,-0.11923,-0.0091742,-0.020394,0.0019596,-0.01666
0.053285,-0.1156,0.41107,0.053306,0.014149,0.010655,0.0092376,0.023333
-0.034452,-0.16909,0.70985,0.015312,-0.017707,-0.01317,0.00076034,-0.0078825
0.002261,-0.12369,-0.4455,0.056613,0.012467,0.0097481,0.0078168,0.006943
-0.015767,0.17386,0.71283,0.02145,0.0032068,-0.0064923,-0.0086082,-0.025763
0.029123,0.094896,-0.71172,-0.043137,-0.0062657,0.01625,0.0062238,0.034882
-0.058012,-0.12199,-0.10634,0.065857,-0.00011773,-0.0001502,-0.010133,-0.029582
0.10585,0.098512,-0.14419,-0.042484,0.029695,0.014623,0.020509,0.046754
-0.0027275,-0.40914,-0.43206,-0.071598,-0.025971,-0.017526,-0.011156,-0.017122
-0.10265,0.32395,-0.1279,-0.052956,-0.010662,-0.026209,-0.01911,-0.041348
0.040138,-0.33338,0.46384,0.060237,-0.0023585,0.0043243,0.004537,0.028851
0.0033502,0.0043041,0.14785,-0.028876,-0.016631,0.011733,0.012969,0.0059793
0.020906,0.37897,0.5699,0.14847,0.040203,-0.0038269,-0.0094242,-0.016301
-0.0092072,0.22268,-0.37869,-0.05628,0.011692,0.012431,0.015431,0.02434
-0.063965,-0.65863,-0.10087,-0.096583,-0.032185,-0.017618,-0.014158,-0.0364
0.020355,0.50057,0.23792,0.011357,0.0097066,0.015278,-0.0046488,0.01213
0.079458,-0.2073,-0.069695,0.17303,0.035346,0.032746,0.03589,0.036817
0.027325,0.53614,0.44817,-0.010826,-0.033799,-0.020227,-0.0099988,-0.009483
-0.018731,-0.35692,-0.7655,-0.13466,0.012933,-0.003355,-0.0097259,-0.0019633
-0.089576,-0.39524,-0.41146,-0.073888,-0.051109,-0.026294,-0.018109,-0.034447
-0.012667,-0.047103,0.1828,0.0074042,0.016394,-0.0032554,-0.0038976,-0.0053011
0.041036,-0.16983,0.77418,0.14088,0.012637,0.0032733,0.017426,0.015377
-0.0055212,0.59923,-0.71906,-0.024241,0.016198,0.016908,-0.0085647,0.012287
0.012775,0.42019,-0.34448,-0.026007,-0.011488,-0.0011086,-0.0034117,0.0014375
0.018641,-0.53152,0.52238,0.0038605,0.015974,0.012094,0.0097898,0.0066395
-0.096856,-0.76906,0.40963,0.0038723,-0.018263,-0.021244,0.0078915,-0.026489
0.095884,0.84902,0.22336,-0.056423,-0.012447,-0.0070708,-0.0011037,0.011618
0.010267,0.16541,-0.44112,0.050037,0.04126,0.023548,0.0063104,0.0038266
0.012337,-0.28355,0.19288,0.065605,0.0099424,0.015977,-0.0011629,0.012558
0.030329,0.47479,-0.29835,-0.064564,-0.036275,-0.022055,-0.023658,-0.0092496
0.0080742,-0.38406,-0.31053,-0.028391,-0.019476,-0.012608,0.0089589,0.0084666
-0.063466,0.1598,0.5877,0.032905,0.028911,0.012817,0.018377,0.018573
-0.13815,-0.51296,-0.42889,0.0092868,-0.03186,-0.00073606,-0.02681,-0.072903
0.02611,-0.35591,0.14569,-0.029574,0.009086,0.0011788,-0.0017148,0.015133
0.06259,0.10072,0.56407,-0.0060988,0.026722,-0.005065,0.0076571,0.016971
0.065949,0.60874,-0.43162,0.016795,-0.01023,-0.011776,0.0090816,0.010703
0.029464,0.33388,-0.60203,0.015391,0.0075424,0.0044296,0.010349,0.02757
0.0010453,0.011412,0.226,0.0051475,0.0096127,0.020115,-0.0041901,-0.0027492
-0.081013,-0.038491,0.23603,-0.014021,-0.011992,-0.0037431,-0.011132,-0.041216
-0.020946,-0.51204,0.026221,-0.073416,-0.026205,-0.0045799,-0.010521,-0.0019207
0.056344,0.089723,0.37285,0.14722,0.029301,0.0098729,0.013222,0.021366
0.010027,-0.29619,-1.0059,-0.20376,-0.0096608,-0.0071636,0.005369,0.013025
-0.050929,-0.059943,0.6584,0.19383,-0.025952,-0.03214,-0.01848,-0.034709
0.083916,0.5187,0.80102,0.04299,0.058599,0.036632,0.027616,0.034506
-0.085904,0.074726,-0.40466,-0.21883,-0.052738,-0.027273,-0.020371,-0.037012
0.040824,0.024539,-0.34283,0.16625,0.038713,0.026274,0.0095109,0.024331
-0.020457,-0.24713,-0.15642,0.073561,0.020764,0.025517,0.0080056,0.0077521
-0.035385,-0.30181,-0.38597,-0.28541,-0.074986,-0.045081,-0.024731,-0.024118
0.082076,0.52428,0.60996,0.19953,0.033059,0.01766,0.013042,0.022549
-0.15232,-0.59094,-0.30548,-0.2051,-0.053264,-0.044062,-0.019126,-0.047559
0.15211,0.32595,-0.35995,0.095299,0.056815,0.035337,0.019534,0.062356
-0.082798,0.50511,0.78371,0.24191,0.027323,0.0057591,-0.0037173,-0.046298
0.10371,0.012177,-0.3249,-0.20265,-0.016978,-0.0001373,-0.0029553,0.032529
0.11767,-0.60242,0.66147,0.089351,0.0094413,0.0096395,0.0139,0.033014
-0.13478,-0.021336,-0.40185,-0.15638,0.020141,0.027072,0.023226,-0.013725
-0.083201,0.22333,-0.40144,0.13713,-0.040052,-0.041759,-0.014257,-0.029578
-0.086496,-0.57772,0.19066,-0.078166,-0.023052,-0.017259,-0.020634,-0.045661
0.051423,0.93119,0.74694,0.34522,0.031937,0.014645,-0.01949,0.00079333
0.011171,-0.41578,-1.2889,-0.44476,-0.070289,-0.031873,-0.010889,0.0085603
0.11388,-0.21305,0.28545,-0.065159,0.0534,0.038674,0.028622,0.048259
-0.069737,-0.0080842,0.023566,0.086278,-0.0028044,-0.0079092,0.013178,0.00287
0.085147,0.55699,0.46246,0.25288,0.050611,0.023812,0.013179,0.0286
-0.094197,-0.27105,-0.050816,-0.09534,-0.036005,-0.014581,-0.018187,-0.046702
0.14866,0.057028,0.12421,-0.019769,0.0031374,-0.0060024,-0.0027695,0.010885
-0.0473,-0.11509,-1.1965,-0.27757,-0.050755,0.0024745,-0.010898,-0.0023025
0.082041,0.22586,0.7129,0.27972,0.098959,0.049672,0.043325,0.038242
-0.33154,-0.73693,1.0279,0.13589,-0.063707,-0.067748,-0.051081,-0.086566
0.055388,0.70944,-0.023102,0.0085963,0.015541,0.0094764,0.0027421,-0.0018332
0.040152,-0.25443,-0.53981,-0.14253,0.016056,0.0079416,0.017311,0.042581
0.0066246,-0.23761,-0.2989,-0.14679,-0.038913,-0.017475,0.0083079,0.00014024
0.2218,0.67415,-0.1115,0.28416,0.061568,0.042914,0.0070649,0.027545
-0.17239,-0.40124,-0.54074,-0.49822,-0.15107,-0.083966,-0.048829,-0.070069
0.12975,0.22556,0.17631,0.29562,0.096896,0.063143,0.028196,0.067024
-0.090037,-0.14482,0.25238,0.02589,0.0089206,4.8044e-05,0.0037937,-0.014115
-0.089551,-0.30304,0.29315,-0.05651,-0.024146,-0.015458,-0.012688,-0.024427
0.052736,0.21322,0.14645,0.095904,0.036826,0.024202,0.025548,0.02812
0.078521,-0.12279,0.5252,0.16296,0.058904,0.040493,0.016832,0.018291
-0.067255,0.14162,0.20944,-0.097866,-0.059716,-0.045185,-0.031115,-0.046312
0.17789,0.75837,-0.92277,0.023795,0.063526,0.032383,0.030125,0.068607
-0.20899,-1.2222,-0.8948,-0.23038,-0.087109,-0.055131,-0.041539,-0.066499
0.023189,0.62572,0.43965,0.037946,-0.034927,-0.018576,-0.0036871,-0.0059323
-0.022498,-0.17925,0.18648,-0.053543,-0.013882,0.0018218,-0.0044048,0.0087116
-0.086563,-0.44101,0.84931,0.12908,-0.0077041,-0.01674,-0.0042285,-0.068762
-0.026985,0.087502,-0.20125,-0.0064255,0.031191,0.012401,0.0050082,0.035682
0.18031,0.31258,0.32765,0.088409,0.087754,0.066439,0.039129,0.080181
0.10509,0.47103,-1.0516,0.024192,0.0763,0.059815,0.019966,0.041204
-0.090472,0.27885,-0.35642,-0.33137,-0.19085,-0.11683,-0.052803,-0.097464
-0.011094,-0.6847,0.76419,0.1228,0.043483,0.020511,0.0077444,0.022518
-0.020148,0.0014602,0.05321,0.12731,0.0048931,-0.021018,0.0055462,-0.014247
0.089131,0.0012066,0.066742,0.085794,0.059418,0.046797,0.02575,0.033026
0.031935,0.059673,-0.60012,0.073074,-0.0049874,0.012166,0.0051751,0.045944
-0.022068,-0.3385,0.8423,-0.054974,0.068645,0.061906,0.021517,0.015929
-0.28414,0.44606,-0.35655,-0.2467,-0.22791,-0.17154,-0.1128,-0.18998
-0.0025511,-0.269,-0.36244,-0.089967,0.066398,0.030593,0.0087676,0.014658
0.021563,0.24568,0.16577,0.047708,-0.024385,-0.010983,0.0040458,0.037199
0.17576,-0.87063,0.88159,0.61317,0.15697,0.10285,0.076986,0.082227
-0.089602,0.36636,-0.38892,-0.52305,-0.15403,-0.10367,-0.060618,-0.059659
0.12839,0.68971,-0.16184,0.10479,0.10619,0.065518,0.060696,0.06599
0.34846,-0.045957,-0.32617,0.080409,0.18844,0.15783,0.097618,0.17881
-0.55313,-0.061187,-1.0344,-0.77031,-0.38341,-0.2562,-0.20755,-0.33026
0.032309,0.066573,0.92185,0.42431,0.09376,0.065538,0.059044,0.054175
0.016444,-0.28399,0.17283,0.33855,0.049267,0.0054731,0.0063356,-0.012365
0.083118,0.066959,0.62096,0.058011,0.099613,0.063042,0.039986,0.12531
0.29839,0.1489,0.18163,0.22782,0.0095722,-0.0045827,0.010942,0.067572
0.095612,-0.23562,-1.1079,0.014013,0.036093,0.03638,0.020235,-0.0070562
-0.74727,-0.95508,0.30228,-0.63767,-0.33717,-0.20514,-0.15125,-0.25572
0.13496,0.647,0.31976,-0.15661,0.13154,0.090965,0.051027,0.047637
0.26547,0.14292,-0.14051,0.48216,0.1296,0.073141,0.088083,0.15301
-0.065365,0.71615,-0.11535,0.24353,-0.0068685,-0.0083742,-0.032006,-0.048543
0.24667,0.58331,0.1346,-0.54519,-0.035242,-0.0047617,0.0036471,0.037545
-0.33406,-0.95069,-0.30386,0.063674,-0.1112,-0.11088,-0.085777,-0.16584
0.17266,-0.093663,0.48818,0.090797,0.28932,0.20498,0.14544,0.20171
-0.29242,-0.99537,-0.55131,-0.074181,-0.23929,-0.16615,-0.11486,-0.13231
0.28094,0.51807,-0.38841,0.28703,0.084816,0.072948,0.06324,0.098386
0.11278,0.41988,0.49561,-0.62368,-0.050331,-0.014984,-0.0076488,0.0035487
0.0078439,0.54355,0.31323,0.51083,-0.034949,-0.007933,-0.015012,-0.026127
-0.1755,-0.76289,0.015764,0.020706,-0.025071,-0.069935,-0.037051,-0.08458
-0.017169,-0.20933,0.018838,0.3583,0.065187,0.087982,0.035459,0.046553
0.19939,0.54416,0.62389,0.29394,0.15731,0.074976,0.061686,0.10112
-0.33273,-0.41058,-1.2625,-0.8332,-0.18692,-0.15616,-0.12269,-0.18712
-0.27184,0.48106,0.55997,-0.44992,0.00024566,-0.0042664,-0.010173,-0.061078
0.66938,0.5421,-0.49888,0.31442,0.28799,0.2255,0.18797,0.35348
-0.20589,-0.61854,-0.33402,-0.33254,-0.39507,-0.21731,-0.13799,-0.20989
0.03865,0.34961,0.66872,0.81805,0.10652,0.041954,0.019449,0.068359
0.12079,-0.72446,0.54007,-0.024022,0.034552,0.034323,0.035062,-0.0077035
-0.26466,-0.16377,0.52516,0.08612,-0.064037,-0.083995,-0.075597,-0.1259
0.26519,-0.067048,-0.59534,0.070553,0.23317,0.17153,0.10947,0.19041
-0.40603,0.09769,-0.55949,-0.36664,-0.19793,-0.13628,-0.12034,-0.22228
0.23111,0.73448,-0.55389,0.0499,0.089146,0.071172,0.071405,0.14478
-0.094564,-0.48376,-0.58201,-0.72372,-0.11531,-0.064963,-0.041257,-0.066549
-0.15392,0.37518,0.76038,0.31632,-0.13047,-0.10666,-0.074934,-0.105
0.3524,-0.045745,0.75141,0.30695,0.26333,0.15743,0.11926,0.17114
0.035795,0.05134,0.26721,0.31432,0.050981,0.05568,0.057157,0.090684
0.06152,0.07174,0.70227,0.41904,-0.040851,-0.021244,-0.019105,-0.0024471
-0.36699,-1.1438,-1.0699,-0.65926,-0.012442,-0.042254,-0.070769,-0.20234
0.070041,0.7043,0.35903,-0.52304,-0.1534,-0.054509,-0.0045466,0.052775
0.17614,0.16419,-0.87064,0.71587,0.066849,0.058849,0.030616,0.082273
-0.14399,0.50132,-0.52518,-0.79,-0.094593,-0.093098,-0.067285,-0.09917
0.14706,-0.40254,0.32571,0.71258,0.095953,0.059731,0.060817,0.085788
-0.17101,-0.27548,0.49716,0.077963,0.10654,0.056224,-0.0071034,-0.058681
0.19738,0.32612,0.6266,-0.15194,-0.040109,-0.017841,0.017999,0.053153
-0.41279,-0.89621,-0.19387,-0.036084,-0.13384,-0.13141,-0.090373,-0.17239
0.26349,0.42309,-0.29303,0.016366,0.051148,0.082439,0.074118,0.14778
0.35872,0.6572,-0.28812,0.1295,0.22511,0.19369,0.097479,0.11557
-0.45532,-0.54774,0.17279,-0.29672,-0.24519,-0.22768,-0.13745,-0.1749
0.21212,0.3757,0.17637,0.14796,0.085479,0.099295,0.064661,0.11259
-0.084007,0.22891,-0.010582,-0.085054,0.022252,-0.0051537,-0.0071048,-0.037389
-0.1636,0.1024,-0.52717,-0.52751,-0.16831,-0.10336,-0.063599,-0.10128
0.26288,-0.56892,0.26123,0.62477,0.10107,0.094189,0.06721,0.1397
-0.069795,-0.4585,0.72376,0.19798,0.05069,-0.05245,-0.03634,-0.08009
-0.35667,-0.34032,-0.59077,-0.53112,-0.20866,-0.10501,-0.077154,-0.13575
0.3866,0.80906,-0.25093,0.25778,0.081822,0.069992,0.077733,0.17565
0.12845,-0.14355,0.39325,0.56126,0.19587,0.15264,0.068962,0.072546
-0.022286,0.089302,-0.61797,-0.26743,0.093941,0.025748,0.013575,-0.0079367
-0.19896,0.73095,0.8179,-0.26717,-0.15479,-0.10013,-0.073089,-0.097412
0.082556,0.058099,-0.040534,0.14831,0.0028586,-0.006876,0.01175,0.014831
-0.20869,-0.52763,-0.61434,-0.61271,-0.090783,-0.046767,-0.036889,-0.061801
0.17049,-0.15428,0.36333,0.41561,0.016473,0.060928,0.038677,0.071499
-0.0048075,-0.0013187,0.27722,0.24158,0.082292,0.011361,0.0041765,0.0091857
-0.18565,-0.90785,0.18503,-0.11542,-0.1973,-0.12488,-0.069735,-0.099362
0.044106,0.82274,-0.80764,-0.6571,0.0072613,-0.0033701,0.012786,-0.0031263
0.36583,-0.16421,0.31178,0.4519,0.18212,0.1346,0.0961,0.18941
-0.17272,0.2468,-0.76458,0.24969,-0.07729,-0.077261,-0.069234,-0.13057
0.014274,-0.15019,0.29469,0.18674,0.12077,0.080445,0.032788,0.068329
-0.11337,0.19317,0.67759,-0.15626,-0.043772,-0.032704,-0.0196,-0.034595
-0.096691,0.24954,-0.30685,-0.17039,-0.056033,-0.018597,-0.015663,-0.06516
0.17899,-0.14737,0.91163,0.039625,0.035484,0.043823,0.03629,0.077055
-0.085866,-0.36509,-0.3819,0.10923,-0.076107,-0.065353,-0.036329,-0.046732
0.12198,-0.0021946,-0.41259,-0.37404,0.13812,0.090113,0.054731,0.062266
0.019539,0.62947,-0.49169,0.22431,-0.019142,-0.045562,-0.019416,-0.010955
0.012318,0.030856,0.91569,0.23505,-0.049077,-0.012127,0.0062912,-0.0012694
-0.10237,-0.17692,-0.58076,-0.22806,-0.0065034,0.010617,-0.0012024,-0.018009
-0.15882,-0.29735,-0.17003,0.1149,-0.085703,-0.078391,-0.065197,-0.060575
-0.19354,-0.72134,0.17625,-0.40714,-0.19092,-0.10626,-0.068003,-0.10447
0.57777,0.72889,0.31257,0.27094,0.36795,0.27206,0.17083,0.28129
-0.35761,-0.77187,-0.62887,0.059227,-0.19555,-0.15308,-0.097856,-0.17539
0.11961,0.49249,0.41595,-0.46768,0.10506,0.064612,0.048586,0.042138
0.049332,0.49519,0.49511,0.87387,0.10678,0.027129,0.0090858,0.012566
0.14185,-0.0049644,-0.29913,-0.045897,0.020451,0.054593,0.041592,0.095231
-0.24548,0.19861,-0.6525,-0.48295,-0.20992,-0.15846,-0.096328,-0.148
0.071846,0.0097455,0.43086,0.12581,0.069741,0.066501,0.024459,0.031774
0.16861,-0.25083,0.21386,-0.35284,0.013119,0.017215,0.028212,0.062894
-0.31756,-0.3748,-0.72631,0.205,-0.030689,-0.041855,-0.023328,-0.071605
0.1582,0.3457,0.88581,0.21974,0.045826,0.029138,0.033283,0.07253
0.14994,0.058136,0.73696,0.40078,0.11675,0.089348,0.041456,0.049415
-0.46648,-0.64069,-0.88475,-0.80007,-0.34899,-0.20458,-0.14723,-0.22685
0.22517,0.45259,-0.25892,0.42093,0.18111,0.062349,0.045704,0.08815
-0.0065714,-0.20382,0.19923,-0.11635,-0.033138,0.0086224,-0.0040919,0.0033496
0.083541,0.14095,-0.6612,-0.37284,0.018452,0.026251,0.024445,0.035751
0.013575,0.12213,-0.32038,0.37828,0.041218,0.014852,0.030441,0.014794
-0.012042,-0.75871,0.63762,-0.10494,0.021149,0.0063923,-0.024716,-0.042921
0.10814,0.59066,0.84281,0.35709,0.037071,0.0087815,0.038764,0.097414
-0.041373,0.3515,-0.75409,-0.10338,0.010549,0.021481,-0.005949,-0.048762
0.013576,0.15293,0.41256,-0.20614,-0.075252,-0.0034354,0.0046394,0.017814
-0.11255,0.27574,-0.088026,0.18819,-0.034631,-0.075114,-0.047379,-0.047714
0.070019,-0.6582,-0.21527,-0.195,0.14605,0.102,0.04824,0.065944
-0.057396,0.16045,-0.4493,-0.07523,-0.10528,-0.066876,-0.044941,-0.056325
-0.15132,-0.057788,0.90539,-0.093299,-0.063246,-0.035392,-0.022423,-0.047995
-0.046678,-0.56615,-0.14545,0.43875,-0.087639,-0.069108,-0.024672,-0.049842
0.25854,0.56782,0.060121,-0.48595,0.1891,0.13728,0.089399,0.15725
-0.022167,-0.63963,-0.33725,0.57922,-0.075778,-0.071466,-0.04675,-0.066555
0.059085,-0.15282,-0.38823,-0.11433,0.080086,0.04801,0.028512,0.014147
0.10594,0.61181,0.5803,-0.42456,0.087878,0.098353,0.065774,0.080112
-0.35691,-0.35036,-0.17537,0.032665,-0.30108,-0.20871,-0.14552,-0.19588
0.10052,0.62302,0.042457,0.49293,0.1407,0.08812,0.04317,0.07739
0.055688,0.80488,-1.1448,-0.42555,0.077698,0.082504,0.061363,0.095395
-0.024132,-0.45245,0.82067,0.31711,0.03321,-0.022927,-0.013231,-0.03277
0.16376,-0.45795,-0.20199,-0.36443,-0.094933,-0.049243,-0.024934,-0.04216
-0.031231,-0.30412,0.85143,0.069133,0.059519,0.018327,0.033445,0.058456
-0.095444,0.15959,0.90591,0.1724,-0.16857,-0.094437,-0.057405,-0.060107
0.0087808,0.1577,-0.58009,0.08547,0.17289,0.10408,0.030235,0.046483
-0.0395,-0.51737,-0.76857,-0.13011,-0.0028427,-0.011438,-0.016329,-0.052202
-0.35729,-0.16888,0.18632,-0.18661,-0.19629,-0.10509,-0.048637,-0.067499
0.54845,0.18608,-0.28812,0.27369,0.23299,0.15139,0.10539,0.13338
-0.11016,0.16628,-0.27456,-0.47754,-0.16022,-0.1011,-0.061728,-0.07428
-0.16005,0.55534,-0.30223,0.75324,0.093181,0.059614,0.020671,0.005381
0.17305,0.3386,0.4569,-0.074555,0.09524,0.071267,0.040429,0.07614
0.11606,-0.46225,-0.017281,-0.22762,-0.083155,-0.08157,-0.025614,0.0058649
-0.27653,-0.46938,0.029045,-0.56583,-0.1836,-0.10188,-0.075699,-0.11888
0.018129,0.59842,0.9645,0.18438,0.13037,0.10421,0.069991,0.069611
0.20243,-0.40143,-0.01072,0.50801,0.031075,0.013406,0.0052714,0.017068
-0.1852,-0.22954,0.040725,-0.15659,0.018793,-0.030371,-0.043272,-0.073106
0.12058,-0.10742,-0.91699,-0.042937,-0.0079384,0.0043438,0.033721,0.057048
-0.051927,0.70503,0.14775,0.30282,0.083638,0.047484,0.0096451,0.0091026
-0.13176,-0.69975,-0.66407,-0.4937,-0.15976,-0.088189,-0.045247,-0.060823
0.030533,0.40426,0.55386,0.57595,-0.035185,-0.0039861,0.017413,0.026706
-0.095148,0.11083,-0.095057,-0.81551,0.082246,0.058116,0.017872,0.013524
0.47659,0.50632,0.35416,0.57527,0.098765,0.051383,0.042027,0.10237
-0.26923,-0.81472,0.12653,-0.5003,-0.087094,-0.047577,-0.050747,-0.089934
0.011333,0.17241,-0.082121,0.26387,0.0092257,-0.0044502,0.0052256,0.0066772
-0.033572,0.024076,0.21503,0.54853,-0.041761,-0.053784,-0.032146,-0.068825
-0.029576,-0.30465,-0.58704,-0.66937,-0.052416,-0.0083686,-0.0064968,-0.003869
0.014696,-0.22609,0.34602,0.3518,0.016287,0.0063854,-0.003687,-0.024834
-0.057839,0.60445,-0.14197,-0.48322,0.10155,0.09932,0.062199,0.10284
0.048959,-0.17289,-0.05756,0.4561,0.062156,0.011992,0.003488,0.012043
0.029827,0.21307,-0.02423,0.0108,-0.10277,-0.060946,-0.023907,-0.0082696
0.064067,0.59441,-0.15861,-0.10297,-0.019209,-0.026335,0.010802,0.025981
0.01086,-0.33062,-0.11099,0.27699,0.11662,0.045115,0.01336,-0.002801
-0.075112,-0.43406,0.4959,-0.27959,-0.047412,-0.010754,-0.016658,-0.048129
-0.14681,-0.45404,0.14409,-0.076302,-0.058243,-0.021805,-0.0091792,-0.047732
0.092945,0.0059551,-0.40789,-0.46971,-0.094993,-0.042111,-0.042303,-0.009401
-0.0039424,0.18821,0.28982,0.66148,0.062211,0.022948,0.0092813,-0.0031506
0.11755,0.32889,0.54406,-0.045241,-0.0070219,0.018094,0.021118,0.073087
-0.011065,0.18853,-0.48691,-0.27322,-0.035534,-0.040162,-0.013934,-0.014469
0.21976,0.26224,0.0058754,0.081738,0.30604,0.19255,0.11573,0.14879
-0.47888,-0.377,-0.83616,-0.011371,-0.27072,-0.17415,-0.13625,-0.21801
0.057263,-0.31291,0.46985,0.17155,-0.039328,-0.023258,0.003848,0.0024538
0.086257,0.03457,-0.50173,0.086442,0.11658,0.043079,0.036009,0.036642
0.23344,0.60493,0.77319,0.4376,0.18781,0.13341,0.092747,0.1342
-0.18832,-0.55275,0.016438,-0.38355,-0.17886,-0.10478,-0.076459,-0.096005
-0.053747,-0.084485,-0.19074,-0.50779,-0.15688,-0.094208,-0.050363,-0.045213
0.11393,0.090231,0.16042,0.34292,0.072869,0.039511,0.029793,0.035999
-0.01339,0.17631,0.32485,-0.088993,0.041086,0.069554,0.0072848,0.014365
-0.045186,-0.53669,-0.61892,-0.26852,0.02134,-0.003951,0.014678,-0.0088029
0.065143,0.7702,-0.44832,-0.032907,-0.040302,-0.039902,0.012937,0.013364
-0.073442,-0.58633,1.0871,0.0944,0.052655,0.0014895,-0.044527,-0.028282
-0.12558,0.65367,0.18911,0.59735,-0.042193,-0.0352,-0.024418,-0.063024
0.14237,0.045569,-0.61963,-0.29997,-0.01892,0.022671,0.019153,0.073687
0.12792,-0.097656,0.33425,0.14677,0.037434,0.035033,0.016418,0.0073032
-0.22471,-0.30561,-0.5608,0.1003,0.017902,0.025558,0.038086,0.011583
0.059892,-0.41786,-0.45826,-0.56881,-0.06201,-0.06056,-0.048493,-0.053973
0.30098,0.43251,0.90715,0.65656,0.17994,0.088757,0.092524,0.13088
-0.34593,-0.21223,-1.0476,-0.38663,-0.10862,-0.042712,-0.078231,-0.10592
0.18929,-0.18198,0.66593,0.0068758,0.040205,0.028801,0.024751,0.055709
-0.19435,-0.039531,0.13609,0.013381,-0.18666,-0.12683,-0.067711,-0.095293
0.067021,0.89442,0.86937,-0.16438,0.085607,0.037093,0.026862,0.019247
-0.0010978,-0.077455,-0.63308,0.062118,0.021362,0.020737,0.027061,0.048021
-0.04467,-0.42852,-0.3993,-0.15385,-0.019341,0.019828,-0.0045829,-0.047621
-0.1003,0.15388,-0.41547,-0.071995,-0.0043904,-0.019767,-0.013189,-0.017214
0.1934,-0.41874,0.97732,0.34448,0.0045127,-0.0037642,0.0015416,0.038056
0.025075,0.39604,-0.1881,0.22448,0.070367,0.068203,0.0086872,0.01679
0.17613,-0.0086828,0.11467,-0.071222,0.013534,-0.030328,0.016344,0.059479
-0.018369,-0.044156,0.15008,0.38581,0.052332,0.012949,0.0090698,0.00163
-0.34906,-0.15156,-0.76513,-0.65005,-0.14219,-0.060219,-0.067776,-0.12617
0.049292,0.23002,-0.18306,0.035242,0.038323,0.038636,0.051338,0.065947
0.049771,-0.35163,-0.41561,-0.19595,-0.03998,0.012018,-0.0088044,-0.024294
-0.052357,-0.033801,0.7921,-0.16796,-0.010748,-0.031231,-0.0063196,-0.0067924
0.11675,0.4389,0.79067,0.60882,0.078609,0.025722,0.058456,0.032253
0.025144,0.15122,-0.60115,-0.030605,-0.029916,-0.036011,-0.049167,0.0069444
-0.085285,-0.41329,0.19027,-0.14815,-0.03153,-0.036675,-0.040365,-0.043343
0.082361,-0.068693,-0.96125,0.039208,0.0037832,0.04738,0.014419,0.014725
-0.018496,-0.23231,0.53945,-0.1691,0.029603,0.013311,-0.0098242,-0.0057092
0.23769,0.41816,0.80602,0.05008,0.085491,0.048884,0.074502,0.0757
-0.36703,0.11594,-0.12214,0.14474,-0.054622,-0.009757,-0.021489,-0.052963
-0.050432,-0.40123,-0.090797,-0.28143,-0.10901,-0.076537,-0.016317,-0.0397
0.016668,0.82797,-0.93847,0.351,0.13372,0.059585,0.0043347,0.037598
0.10862,-0.61994,0.083223,-0.035742,-0.068166,-0.0075248,-0.0061465,0.014882
0.061875,0.15901,0.0058206,-0.074996,-0.034534,-0.066758,-0.047512,-0.061184
-0.061101,0.054078,-0.34794,-0.056973,-0.0071952,-0.0084961,0.013259,0.01212
0.19996,-0.34001,0.58864,-0.014361,0.084418,0.10506,0.0513,0.078001
-0.031055,-0.22198,1.2741,-0.026642,-0.040877,-0.046112,-0.011474,-0.028192
-0.036667,0.41643,-0.45702,0.35833,0.12456,0.061698,0.05925,0.083636
-0.17723,0.23551,-0.63632,-0.49271,-0.22434,-0.15729,-0.096046,-0.14936
