-0.05333,0.18659,0.42165,-0.046305,-0.016827,-0.014642,0.0043275,0.12641
-0.017175,-0.093774,0.32198,0.074797,0.014188,0.0077275,-0.0043015,0.34875
0.087268,0.10853,-0.29882,-0.054147,-0.025281,-0.017097,-0.0046391,-0.065493
-0.12212,-0.089678,-0.011372,-0.0040577,-0.010274,-0.010986,0.0035873,0.13633
0.090105,0.20239,0.15897,0.037114,0.020169,0.018343,0.0049496,-0.34681
0.037723,-0.16293,0.31061,0.022254,0.011439,0.00076422,-0.031774,-0.34693
-0.051482,0.034489,-0.34146,-0.033004,-0.0050884,-0.00094837,0.01039,-0.15759
-0.028115,-0.22706,-0.40245,-0.058106,-0.021446,-0.0099121,0.037208,0.80898
0.022402,-0.12547,0.046597,0.041131,0.0093975,0.0054412,0.016723,0.11498
0.076618,0.22345,0.24605,0.030878,0.025083,0.0063045,0.026246,0.21869
-0.053521,0.1874,0.078054,0.0054473,-0.013351,-0.015004,-0.020897,-0.20471
0.068484,0.24226,0.058536,-0.026872,-0.012109,0.011781,-0.039212,-0.56694
-0.17585,-0.38727,-0.061529,-0.011084,-0.0024644,-0.0073435,0.0025783,0.0018242
0.094873,0.21786,0.047325,-0.017421,-0.015766,-0.041592,0.011325,0.11502
0.027773,-0.35182,-0.24623,0.032076,0.025935,0.033408,0.050668,0.16943
-0.05793,0.017951,-0.034419,0.027641,0.0052051,0.0607,-0.3154,-0.053057
0.094841,0.36417,0.75455,0.054661,0.038944,0.17245,0.12562,-0.096797
-0.045482,-0.16542,-0.90125,-0.12185,-0.05283,-0.30368,0.24215,-0.16912
-0.080355,-0.15596,0.35125,0.013187,-0.0047404,-0.00059528,-0.043312,0.046228
0.021963,0.035402,0.091727,0.053138,0.018995,0.019467,0.050277,0.46629
0.027892,0.083796,-0.061114,-0.056824,-0.03634,0.014966,-0.087459,-0.15727
0.1181,-0.061769,-0.29347,0.01155,0.024668,0.10396,-0.090932,0.37892
-0.10478,-0.038489,0.20019,0.02424,0.014736,-0.017315,0.069252,-0.2853
-0.0069082,0.06238,0.27939,0.028634,-0.0033427,-0.019968,0.016376,0.028659
-0.048309,-0.015919,-0.72076,-0.060632,-0.0058118,-0.028524,-0.071117,-0.6642
0.099882,0.23384,0.72131,0.038217,-0.0079985,0.019616,0.04841,0.18335
-0.069645,-0.0029446,-0.24874,-0.06506,-0.0018552,-0.024267,-0.0076442,0.088301
0.083963,-0.09655,0.45955,0.059399,0.012762,0.026721,-0.011846,0.12294
-0.11124,-0.11288,-0.24293,0.036529,0.0046454,-0.023547,-0.064458,0.10149
-0.030608,-0.0079941,-0.37418,-0.040204,-0.01064,0.027165,0.062491,-0.061298
0.1143,0.01316,0.0258,0.031889,0.013645,0.021809,-0.098568,0.12577
0.041443,-0.11231,0.21556,-0.036737,-0.024245,0.030132,0.25774,-0.027619
0.039043,0.015055,-0.48229,0.0034993,0.016123,-0.14339,-0.079453,0.41182
-0.15146,0.13168,0.20894,-0.027348,0.0095859,0.07173,0.022127,-0.4826
0.024112,-0.18183,0.11292,0.019118,-0.012716,0.0041948,-0.13375,-0.26204
-0.020351,0.11585,0.19325,-0.028807,-0.011766,-0.056096,0.08472,0.33636
0.012189,0.3856,0.52937,0.047964,-0.0031783,0.048058,-0.0029146,-0.18008
-0.034105,-0.23932,-0.49603,-0.0079738,0.0052806,0.028472,-0.10006,-0.1219
0.10688,-0.048518,0.1157,0.038144,0.0058447,0.01078,0.020144,0.34311
-0.11918,-0.051098,-0.59832,-0.071216,0.014156,0.026517,-0.024278,-0.36556
0.061216,-0.068908,0.078675,0.023434,-0.0010682,-0.088476,0.033435,0.11716
0.069634,0.021704,-0.050239,0.0095118,0.014781,0.063799,0.038174,0.38987
-0.024256,-0.076957,0.19346,-0.02731,-0.032152,-0.048587,0.029842,-0.35675
0.0053035,0.049042,0.25423,0.045376,-0.0013406,-0.027998,0.01656,0.050135
0.063872,0.3768,0.38133,0.016158,0.0055978,0.046645,0.021459,0.48428
-0.11446,-0.46761,-0.2775,-0.052911,-0.011323,0.018413,-0.050059,-0.50259
-0.0058825,0.25155,-0.48846,0.0097145,0.026111,0.043076,-0.011684,0.31995
-0.015539,0.21535,0.24831,0.032035,-0.0069418,-0.098328,-0.036551,-0.42713
-0.071369,-0.57504,-0.17607,-0.02489,-0.00090534,0.0083431,0.022714,-0.05966
-0.030674,-0.17367,0.052184,-0.020068,-0.010256,0.058768,-0.014242,0.10767
0.13974,0.62245,0.38039,-0.023268,-0.003559,-0.048011,0.0086601,-0.043298
0.011507,-0.2424,-0.54835,-0.010438,-0.0041287,0.0012533,-0.03327,0.30773
0.014615,0.33141,0.6123,0.06584,0.011509,0.0042153,0.11064,-0.36216
0.0075293,0.23203,-0.1118,0.026224,0.027666,0.00061651,-0.15248,0.33048
0.11321,-0.53529,-0.49223,-0.027661,-0.01049,0.045613,0.10012,0.17523
-0.10867,-0.06632,0.18308,0.028947,0.006213,-0.040306,0.033233,0.10219
-0.083064,-0.19796,-0.046636,-0.07787,-0.039622,-0.0072785,-0.032368,-0.43498
-0.00018755,0.32785,0.685,0.096595,0.015896,0.02708,0.012876,-0.24004
-0.0024916,-0.25321,-0.95196,-0.10451,-0.022647,-0.0238,0.0048275,0.14165
0.065709,0.18573,0.66487,0.013669,0.0087923,0.042488,-0.025514,-0.13951
0.025545,-0.16605,-0.38952,0.044646,0.039955,0.029968,-0.015986,0.16863
-0.074051,0.58328,0.43635,0.0040795,-0.014994,-0.085279,-0.060703,0.37253
-0.0035947,0.059072,-0.2354,-0.014001,0.015944,-0.014395,-0.10534,-0.0033938
-0.20517,-0.48902,-0.32876,-0.056006,-0.046794,-0.046346,0.27163,-0.37327
0.21475,0.086839,0.20985,0.050491,0.023462,0.077037,0.015159,0.1759
0.047218,-0.088621,-0.018035,-0.0064741,-0.0075822,0.08284,0.023353,0.040845
0.058507,-0.13204,0.41039,0.054762,0.0085517,-0.090878,-0.13369,-0.061574
0.02906,0.27844,-0.37819,-0.054635,-0.0062693,0.03292,-0.17475,-0.054805
-0.027567,-0.081329,-0.10829,0.016907,0.018204,-0.014208,0.18949,-0.096004
-0.090773,-0.32584,-0.13716,-0.027678,-0.027519,-0.052481,-0.024838,-0.021237
0.070874,0.20343,0.70897,0.03783,0.012652,0.058605,0.050161,0.41998
0.072178,0.39035,-0.25599,0.0098787,0.021348,0.006249,-0.13946,-0.45136
-0.43974,-0.50015,-0.4374,-0.065096,-0.032854,-0.022467,0.11785,-0.26771
0.26165,0.24019,0.31356,0.015646,0.021791,0.05795,-0.013508,0.43135
-0.072523,0.48201,-0.096818,0.03306,0.01335,-0.018511,0.13053,0.05814
0.012759,-0.39708,0.13603,-0.028659,-0.034702,-0.072404,-0.036346,0.24255
0.16019,0.066626,0.26986,0.025734,0.0027688,-0.025664,-0.42103,0.20745
-0.011359,-0.3336,-0.47639,-0.022474,-0.01465,0.01245,0.46783,-0.73825
0.092739,0.057215,-0.00066871,0.053409,0.022667,0.089058,-0.042511,0.4108
-0.14478,0.021866,0.13524,-0.012033,0.013392,0.032578,-0.31223,-0.25977
0.017351,-0.083899,0.017942,-0.054459,-0.018872,-0.094222,0.34555,-0.16938
0.054308,0.13662,-0.32108,-0.0032363,0.019686,0.029164,-0.23359,0.11688
-0.1369,-0.18483,0.078449,-0.0064724,-0.011618,-0.042473,0.17687,-0.10453
0.036487,0.22349,0.40217,0.029868,0.0042446,0.0659,0.01477,0.41702
0.17577,0.35024,0.25638,0.0591,0.012367,0.026143,-0.10198,0.080213
-0.29653,-0.44353,-0.44884,-0.051534,-0.010916,-0.052388,-0.08637,-0.54621
0.042889,0.27851,-0.069146,-0.036495,-0.034529,-0.044695,0.055055,-0.052695
0.16468,-0.049702,0.275,0.064956,0.027379,-0.0054499,0.011119,0.49794
-0.17919,-0.15996,0.043086,-0.028687,-0.012668,0.041918,0.040741,0.00016512
0.090923,0.074785,-0.14659,0.02609,0.025145,-0.035445,-0.0038576,0.36106
0.069456,0.086718,-0.4308,-0.013045,0.00040083,0.15296,-0.16954,-0.40474
0.006044,-0.60473,-0.037771,-0.083598,-0.039779,-0.15089,0.43363,-0.03287
0.19618,0.48251,0.032083,0.10364,0.061096,0.052718,-0.25041,-0.015489
-0.23725,0.050976,0.28589,-0.052606,-0.040528,0.10728,0.0030887,-0.74856
-0.085695,-0.31261,0.26799,-0.036398,-0.024225,-0.22955,-0.19848,0.39054
0.16431,0.55738,-0.027186,0.058805,0.03189,0.089149,0.088376,0.41783
-0.18401,-0.43881,0.078677,0.037852,0.026148,0.040172,0.19822,0.046593
-0.014016,0.051947,0.02625,-0.036782,-0.041667,-0.071355,-0.08052,-0.29026
0.057544,0.31196,-0.12102,0.045615,0.039085,0.067609,0.12736,0.035356
0.094379,-0.32221,-0.19886,-0.082541,-0.028805,0.051345,-0.21606,0.041309
-0.026834,0.41543,-0.11244,0.0079401,0.0043389,-0.11193,0.039645,0.20536
0.10194,-0.54492,-0.32739,0.019658,-0.0023675,-0.015797,-0.032594,0.66078
-0.15056,0.36801,0.4356,-0.00098579,-0.025643,0.04275,-0.18778,-0.95137
-0.017579,-0.22693,0.23979,0.01596,0.051672,0.02423,0.14693,-0.020462
0.071776,-0.085214,-0.32598,-0.0469,-0.03595,0.13111,0.0044936,-0.30155
-0.0074424,-0.040081,0.40659,0.099471,0.03202,-0.051429,0.34635,0.36613
0.049087,-0.073271,-0.51109,-0.044754,-0.0097362,-0.18036,-0.047074,0.16034
-0.032685,0.55162,0.35462,-0.018277,-0.02805,0.025056,-0.06835,-0.19369
0.090336,-0.11752,-0.60292,-0.078393,0.00088334,0.033369,-0.11075,0.15358
-0.17613,0.18483,0.76592,0.048958,0.0070752,0.040016,-0.052017,0.15923
-0.07459,-0.39395,0.14831,0.036289,0.014201,0.021949,-0.65232,-0.30852
-0.034836,-0.011709,-0.42601,0.032602,0.022374,-0.012477,0.79769,-0.17404
0.19312,-0.029456,0.16594,-0.00075145,-0.015306,-0.015829,0.0081602,0.55655
0.085788,0.15303,-0.39019,-0.032301,-0.020869,-0.042334,-0.0052976,-0.39166
0.056985,-0.20737,0.13882,-0.01516,0.013234,0.095793,0.13289,0.32147
-0.14373,-0.22073,-0.38003,-0.051068,-0.022695,-0.007624,-0.4591,0.019826
-0.0013183,0.44021,0.45237,0.054945,0.019436,-0.055838,0.07156,0.01274
-0.11015,0.38332,0.26209,0.028965,0.014303,-0.08819,-0.0003237,-0.18449
-0.064514,-0.64388,-0.27016,-0.059265,-0.030555,-0.034731,0.16244,-0.31799
0.15866,0.05814,0.32492,0.094321,0.04092,0.44013,-0.040785,-0.074217
-0.11272,0.03956,-0.52318,-0.06557,-0.029181,-0.34353,0.062358,0.19341
0.37908,0.20951,0.31746,0.0074234,0.0013371,0.10648,-0.035991,0.19025
-0.13932,0.2587,-0.25615,-0.015162,-0.0080417,-0.12364,0.26527,0.46806
-0.22239,-0.41781,0.11365,0.030634,-0.0024384,-0.095782,-0.4408,-0.7253
0.11466,0.21774,0.37831,0.012164,0.026206,0.20646,-0.0063925,-0.11183
-0.18224,-0.3098,-0.39328,-0.062342,3.4022e-05,-0.1536,0.09933,0.27904
-0.018596,-0.18353,-0.28807,-0.020405,-0.018199,0.1059,0.181,0.038738
0.10634,0.095753,0.060593,0.013663,-0.012654,-0.030483,-0.097063,0.0039424
0.34942,0.25564,0.68394,0.09519,0.032454,0.093143,-0.085908,0.34249
-0.10154,0.14932,-0.51917,-0.064407,-0.023403,0.038429,-0.042794,-0.2583
0.034792,-0.46452,0.45221,0.0038637,0.015125,0.069824,0.095233,0.3161
-0.49175,0.499,-0.1661,0.057803,0.023034,-0.33733,0.10964,-0.4688
-0.056434,-0.049969,-0.12985,-0.012181,-0.030953,0.10506,-0.015299,-0.19301
0.2779,-0.087367,-0.37391,-0.065789,-0.014062,0.029305,-0.1315,0.37897
0.081139,-0.3814,0.010826,0.0060241,-0.0044517,0.029216,-0.036378,-0.4743
0.34499,0.37509,-0.035474,0.02333,0.036897,0.011578,0.11328,0.67837
-0.20446,-0.2002,0.4812,-0.053046,-0.046334,-0.18685,0.12178,-0.17352
-0.17693,0.45479,0.43633,0.097214,0.034801,0.16134,0.028073,-0.59285
-0.13485,-0.33993,-0.70239,-0.15082,-0.016754,0.033373,-0.79266,-0.11058
0.10202,0.080578,0.66422,0.14039,0.06438,0.25768,0.82406,0.68646
-0.16834,-0.13226,-0.86532,-0.044829,-0.050204,-0.34546,-0.14471,0.091524
0.22731,0.035021,0.4327,0.058973,0.0064089,0.12212,-0.073619,0.20664
-0.022192,-0.26063,-0.0061345,0.014003,-0.015989,-0.12895,-0.11107,-0.3153
0.12317,0.23405,-0.50256,-0.07851,-0.015934,-0.044171,0.078481,-0.14488
-0.1176,0.071192,0.42115,-0.046971,-0.0090177,0.071824,0.27555,0.053433
0.09095,0.014924,0.0095787,0.014736,0.020548,0.00056904,-0.20831,0.099593
-0.088279,0.37643,0.39851,0.12231,0.057398,0.16439,0.14951,0.19816
0.21819,-0.48693,-0.77654,-0.10677,-0.030961,-0.10028,-0.45616,-0.54476
-0.30371,-0.25042,-0.092108,0.031096,0.0058086,0.1211,-0.0094933,-0.25365
-0.045908,0.40873,0.67822,-0.0025803,-0.0351,-0.23365,0.42011,0.25537
0.11572,0.0063854,-0.124,-0.019722,-0.012799,-0.054988,0.24835,0.42678
-0.25676,-0.53774,0.09092,-0.0042384,-0.013053,0.14916,-0.29613,-0.43408
0.31306,0.52976,0.13809,0.012873,0.018866,0.034609,-0.12511,0.39991
0.067281,-0.039412,-0.2456,0.047213,0.07503,-0.040092,-0.47097,0.052942
0.18545,0.5524,-0.072042,-0.018719,-0.024524,-0.013674,0.13623,0.10775
-0.31708,-0.45159,0.0085574,-0.013611,-0.014569,-0.098619,0.50108,-0.22288
0.03598,-0.033214,-0.080735,0.038396,-0.020555,0.30496,0.1297,-0.51801
-0.25549,-0.328,-0.68737,-0.1056,-0.011644,0.047119,0.096947,0.21123
0.26967,-0.046417,0.75746,0.092881,0.004065,-0.37319,-0.093704,0.15494
0.057394,0.40877,0.56557,0.078815,0.034285,0.01254,-0.1968,0.30673
-0.07093,-0.83954,-0.91285,-0.21815,-0.05369,0.025312,-0.27854,-0.12938
0.050151,0.12921,-0.017251,0.03819,0.060744,0.19023,-0.044073,0.19155
-0.33559,1.0942,0.44096,0.074857,-0.028235,-0.029333,0.43649,-0.68921
0.33593,-0.24579,0.34221,0.0095927,-0.023274,-0.0524,-0.80332,0.10733
0.042739,0.47735,-0.20958,-0.016485,0.013573,-0.18864,0.79507,0.38422
0.059427,-0.83207,0.15324,0.07507,0.0045099,0.040853,-0.045031,0.13448
-0.16007,0.0097319,-0.39727,-0.075025,0.019997,0.23126,0.071315,-0.20128
-0.029424,-0.079744,-0.078261,0.025304,0.013095,0.085992,-0.14945,0.046078
-0.13462,-0.15117,-0.16658,-0.046074,-0.03208,-0.099056,-0.19766,-0.21086
-0.0074824,0.050911,0.072217,-0.0082032,-0.0065646,-0.20873,0.11442,-0.36384
0.16329,0.46341,0.22754,0.068373,0.034477,0.1292,0.10595,0.093188
0.12583,-0.14689,-0.27274,-0.050819,-0.042223,-0.033573,0.1888,0.58643
-0.044244,-0.16817,0.14099,0.040544,0.05205,0.27677,-0.4522,0.19595
0.048562,0.074696,0.49893,-0.0088654,-0.065693,-0.40275,0.46158,-0.063437
-0.09875,-0.12575,-0.57667,-0.034639,0.026447,0.14558,-0.43921,-0.44487
-0.059086,0.47598,0.20569,-0.059848,0.0083718,-0.015617,-0.18723,0.2423
-0.021673,0.085845,0.13468,0.056412,-0.0023659,-0.033615,0.3653,-0.3429
-0.018282,-0.58304,0.097988,0.025162,-0.013135,-0.070501,-0.016029,0.36559
0.069093,-0.47455,-0.01835,0.018109,0.015572,0.46987,-0.049577,-0.27546
0.047204,0.56816,-0.5945,0.019208,-0.0096252,-0.60543,0.7184,0.069336
-0.080932,0.19316,0.63058,0.11382,0.03651,0.2212,-0.5394,-0.051712
-0.053977,0.024125,-0.82287,-0.22209,-0.017821,0.27136,-0.57198,-0.22171
0.1941,0.1916,0.6923,0.026719,-0.047707,-0.34514,0.50477,0.37522
-0.18521,-0.30724,-0.25305,-0.0070489,0.048195,0.11349,-0.49522,0.031175
0.060252,0.134,0.2962,0.036278,0.0039469,0.23992,0.60133,0.17775
0.13468,-0.48733,-0.39933,0.016704,-0.024545,-0.42047,-0.017056,-0.33314
-0.14174,0.37367,0.41326,0.028822,0.032712,0.17757,-0.053129,0.13801
-0.027959,-0.11242,-0.28707,-0.074934,-0.035471,0.14983,-0.17924,-0.1298
0.13823,-0.51682,0.25112,0.026452,-0.018303,-0.28595,0.27525,0.31386
0.12029,0.5267,-0.12816,-0.010397,0.029492,0.21348,-0.16024,-0.21302
-0.20882,0.37608,-0.3945,0.033213,0.014226,-0.094026,-0.31581,0.053753
0.063408,0.1385,0.71594,0.05522,-0.0092796,-0.051817,0.47078,-0.3
-0.4389,-0.43876,-0.49448,-0.007735,-0.0017982,0.0047723,-0.14547,-0.038819
0.21372,0.016617,0.17493,-0.039522,-0.0022307,0.20911,-0.047853,0.24532
0.24019,-0.090971,0.11273,-0.017752,-0.010452,-0.2744,0.10778,-0.37558
0.031453,-0.050805,-0.010451,-0.044838,-0.0029575,0.31985,-0.23984,0.32577
0.056352,-0.017195,-0.46042,-0.058782,0.0046232,-0.2116,-0.018597,0.27814
-0.02908,0.13904,0.23255,0.10437,0.0044078,0.083835,0.46108,0.12723
-0.1941,0.24421,0.50799,0.077695,0.05097,-0.036598,-0.72078,-0.1936
0.013792,-0.70248,-0.72526,-0.044496,-0.019871,-0.049826,0.53091,0.23294
0.094116,0.45424,-0.019164,-0.034896,-0.028502,-0.018363,-0.080209,-0.51095
-0.19549,-0.20981,0.34724,-0.041115,-0.037411,-0.1371,0.18771,-0.31752
0.020219,0.18337,0.05491,0.047033,0.02383,0.48539,0.12268,0.44737
0.10905,0.29774,0.11178,-0.027557,-0.01645,-0.43884,-0.48767,-0.032135
0.33759,-0.53419,0.23568,0.079396,0.045118,0.1539,-0.035317,-0.038032
-0.2696,0.5096,-0.35616,-0.014629,0.013441,-0.05555,-0.13063,0.10224
-0.031553,0.077716,-0.32147,-0.12993,-0.033219,0.13681,0.51501,-0.21231
-0.1267,-0.22802,0.15136,0.061357,0.022334,-0.041954,-0.027999,-0.10787
0.02422,-0.10081,-0.054786,0.043051,-0.023148,-0.1231,-0.40769,0.22371
0.0079225,0.32411,0.23302,0.0018945,-0.0058415,0.0022093,0.31397,0.10997
0.066776,-0.77974,-0.26482,-0.00050384,-0.0041797,-0.22176,-0.23759,0.22588
-0.18268,0.14017,0.14874,0.034972,0.028391,0.32071,0.67221,0.086771
0.29706,-0.0014577,0.08427,-0.04865,0.021288,0.5811,-0.65195,0.057658
0.18332,-0.054534,0.28414,0.060726,0.021225,-0.32496,0.016245,-0.41819
-0.089182,0.051599,-0.2449,-0.11345,-0.081183,-0.6329,0.090471,-0.37193
-0.046498,0.81397,-0.24727,-0.02385,-0.027975,0.016323,-0.24225,0.45017
-0.25297,-0.079688,0.37545,0.025639,0.0092513,0.11542,0.44723,-0.51416
-0.21698,-0.15738,-0.86473,-0.018686,0.046453,0.33744,-0.18543,0.051836
0.15606,0.26784,0.87231,0.13317,0.0057995,-0.042711,0.35922,0.48329
0.063507,-0.58778,0.1772,-0.010287,0.012463,-0.12526,-0.11448,-0.25868
0.30499,-0.20306,-0.5695,-0.034702,0.027394,0.25475,-0.48941,0.40336
-0.077705,0.00010569,0.16251,-0.010497,-0.019857,-0.027358,-0.148,-0.080596
-0.19183,-0.22476,0.12392,-0.0084272,-0.027945,-0.25298,0.35583,-0.18576
-0.044197,0.30939,-0.0031985,0.0099433,-0.020514,-0.055375,-0.023838,-0.0079008
0.02122,0.668,-0.12892,0.012731,0.010133,0.018061,0.40143,-0.0048673
0.26086,-0.44061,-0.14651,-0.07087,-0.0062921,-0.025295,-0.078595,0.37193
0.11015,-0.48688,-0.23786,0.024505,0.0085024,0.38456,-0.28375,-0.016226
-0.28469,0.65995,0.485,-0.013662,0.0078973,-0.11975,0.020651,-0.43904
-0.11284,-0.36285,-0.23986,0.002295,0.0077869,-0.36655,-0.24316,-0.2804
0.18762,0.43173,0.62817,0.088252,-0.015068,0.089254,0.45658,0.43873
-0.14024,-0.23674,-0.68529,-0.099314,0.0018956,0.3333,-0.49666,-0.057118
-0.0082558,-0.14234,0.23835,0.080346,0.02732,-0.11919,0.38221,-0.33027
-0.09289,0.3308,0.47232,0.049107,0.014067,0.0047699,-0.1172,0.26845
0.0077882,-0.092004,-0.35602,-0.068126,-0.030421,-0.2249,0.24748,0.035294
0.1639,-0.31749,-0.26713,-0.060543,-0.012789,0.12906,0.085301,-0.11163
0.20519,-0.14194,0.15762,-0.0063634,-0.003691,0.21513,-0.72181,0.085187
-0.1732,0.2096,-0.48916,-0.014981,-0.0033429,-0.31005,0.44969,0.47232
0.026646,-0.042218,0.16059,0.093349,0.0038292,-0.0083073,-0.43339,0.025064
-0.10511,0.080652,0.23423,0.014039,0.049191,0.32442,0.5173,-0.15878
0.38021,-0.10908,0.13302,-0.0028055,-0.054499,-0.46706,0.50243,-0.43488
-0.32649,0.26201,0.18742,-0.066481,0.021229,0.54012,-0.75365,-0.070964
-0.095909,0.27641,0.093975,0.018368,-0.020122,-0.3876,0.20841,0.3489
-0.12537,0.19497,-0.42873,-0.0060556,0.0014785,-0.069965,0.059966,-0.28541
0.061468,-0.57332,-0.085081,-0.022562,0.023786,0.5245,-0.58089,0.18706
0.18474,-0.087298,0.18566,0.086042,0.0078706,-0.50268,0.63188,-0.2088
-0.081146,-0.27099,0.061674,-0.047407,0.00060785,0.52014,-0.28274,-0.40603
0.024596,-0.17862,0.1127,0.022465,-0.013745,-0.73548,-0.28183,0.70999
0.082861,0.53668,0.050503,0.022322,0.011485,0.52697,0.43506,0.12739
-0.021486,0.13786,-0.71634,-0.1102,-0.056757,-0.39606,0.51896,-0.12999
0.13453,0.18589,0.042249,0.015667,0.039093,0.3855,-0.81803,0.11333
-0.097301,-0.00032415,0.47865,0.0093755,-0.0058861,-0.26198,0.51738,-0.19089
-0.21738,-0.45424,-0.01303,0.034941,-0.0044034,0.20717,-0.41422,-0.064113
0.17215,0.16421,0.061422,0.037442,0.027738,0.0023493,0.10299,-0.11703
-0.0072124,-0.72102,-0.063686,-0.006985,0.0044623,-0.19071,-0.059435,0.55356
-0.013177,0.72566,0.28115,0.041731,0.011627,0.3763,0.032622,-0.64918
-0.13413,0.28257,-0.22091,-0.027909,-0.021072,-0.29,0.26693,0.077832
0.13888,-0.46199,-0.17697,-0.091311,-0.038825,0.083403,-0.13186,0.095129
-0.12252,0.17203,-0.17871,-0.015773,-0.017949,-0.21373,-0.10974,0.024554
0.082784,0.40271,0.41747,0.10522,0.049719,-0.038973,0.12306,0.46831
-0.0024704,-0.0047685,-0.28999,-0.071441,0.00052275,0.063547,0.16231,-0.045957
0.14485,-0.73677,0.15128,0.033272,0.037995,0.48772,-0.77798,-0.89394
0.054754,0.28876,0.53993,-0.0093196,-0.04065,-0.47413,0.29798,-0.012032
-0.14199,-0.24109,-0.72143,0.012628,-0.00081577,0.29005,0.29997,0.35125
-0.13545,-0.22951,-0.31436,-0.0018404,0.0013133,-0.41341,-0.050487,0.18061
0.11855,0.54033,0.26796,-0.06819,-0.073438,-0.02956,0.64663,0.45823
-0.085605,0.13069,-0.18672,0.063215,0.071511,0.15908,-0.74131,-0.37621
-0.054546,-0.067717,0.66257,0.055576,0.029445,0.47798,0.12057,0.058696
0.39796,0.1084,0.38881,-0.0063938,0.01853,0.064129,-0.5509,0.10215
-0.39271,-0.1794,-0.25812,0.086879,-0.00092681,-0.38333,0.64037,-0.30713
-0.051385,-0.44363,-0.8278,-0.18146,-0.068562,-0.13353,0.14512,-0.051571
0.37576,0.55876,0.44854,-0.030998,-0.059789,-0.37625,-0.18721,-0.27096
-0.28197,0.35008,-0.37232,0.037991,0.10334,0.48942,-0.56929,0.27123
0.10973,-0.56459,0.33653,0.033659,-0.0087438,-0.082289,0.29453,0.23529
-0.025532,-0.29839,0.27292,0.0037349,0.010566,-0.010804,0.69258,0.010159
-0.021825,-0.29323,-0.37203,-0.019366,-0.010024,0.4337,-0.66442,0.041484
0.0056681,0.95419,0.17252,0.0046404,-0.046383,-0.44856,0.70047,-0.24672
0.11371,-0.17761,-0.0083066,-0.0013418,-0.011875,-0.29542,-0.75859,0.063277
-0.0080928,0.60462,0.39129,0.1196,0.023776,0.44167,0.38198,-0.15661
-0.19365,-0.58436,-0.7039,-0.069838,0.076565,0.13803,-0.7584,0.30985
-0.0036819,-0.64379,-0.19577,-0.030797,-0.04873,-0.24647,0.65076,-0.22741
-0.15561,0.64621,0.40525,-0.0059895,-0.0085606,0.075,-0.27138,-0.091988
0.4449,-0.6177,0.11996,-0.050766,-0.0064964,-0.017592,0.2886,0.10212
-0.11658,0.12325,0.17145,0.084233,0.058445,0.13699,-0.17767,0.090732
0.01007,0.60773,0.24209,0.046954,-0.033073,-0.11961,0.71834,0.17808
-0.068204,-0.3718,-1.066,-0.15506,-0.023699,-0.061692,-0.45631,0.018229
-0.16706,0.45968,0.24532,0.025036,-0.0074258,0.21765,-0.22088,-0.40788
0.25686,-0.14068,0.36758,0.087383,-0.023303,-0.70919,0.21851,0.52083
0.067381,-0.4101,0.4828,-0.038083,-0.016411,0.22326,-0.20219,-0.44928
-0.23051,-0.15754,-0.21986,0.0082618,0.029235,0.29942,-0.44346,0.054069
-0.084004,0.90916,-0.33205,0.046914,0.074945,0.17799,0.43454,-0.072116
0.099882,-0.24509,0.10305,-0.031421,-0.0040072,0.094464,-0.080097,0.054824
0.11842,-0.68463,-0.49413,-0.070506,-0.035632,-0.10017,-0.0067166,0.060638
0.027692,0.91968,0.57344,0.062404,-0.019971,-0.23612,0.46285,-0.069244
-0.27175,-0.86551,-0.13458,0.062564,0.035009,-0.035278,-0.24745,-0.099721
0.10537,0.083786,0.10026,-0.1169,-0.050561,-0.016677,0.11268,0.20349
-0.0025146,-0.12265,-0.47093,0.024086,0.027866,0.36359,-0.12215,0.29246
0.19584,-0.10195,0.23879,0.024769,-0.018821,-0.42766,0.13157,0.14979
0.084959,0.31555,0.21314,0.0025556,0.00474,0.19502,-0.53514,-0.14041
-0.068328,0.70961,0.088985,0.035776,-0.0028947,-0.2674,0.75819,-0.81365
-0.35704,-0.74322,-0.46173,-0.1489,-0.0025298,0.54671,-0.93515,0.13041
