0.071479,0.018229,0.019281,0.016056,0.010339,0.0025812,0.020016,0.040632
-0.054983,0.041687,0.23548,0.014807,0.018194,0.016424,-0.036486,-0.1283
-0.065034,-0.02865,-0.48899,-0.0096485,-0.0050977,-0.00074606,-0.014634,-0.33542
0.018331,-0.0052937,-0.029444,0.0052086,-0.020469,-0.0097163,0.031164,0.1089
0.00027676,0.0023282,0.059953,0.0046536,0.0032998,0.0052084,0.0073499,0.12848
0.060918,0.033205,-0.11798,0.0042417,0.011474,0.0049594,-0.0078865,0.068333
-0.010399,-0.029905,0.0008257,0.0039093,-0.0038064,-0.010527,0.016629,0.12398
-0.0026541,-0.0073197,0.62868,-0.01199,-0.011321,0.0055264,-0.013055,0.036608
-0.040984,-0.023976,-0.22584,-0.0356,0.012361,-0.0094826,0.012155,-0.13342
0.046165,0.021814,0.054466,0.011303,-0.018683,-0.00095793,-0.025229,-0.060856
-0.038522,-0.010423,-0.24982,-0.011782,0.012754,0.0075927,-0.008276,-0.069109
0.016992,0.012263,-0.18658,0.035863,0.0051265,-0.0073192,0.015978,0.065682
0.02482,0.011822,0.063542,0.013619,-0.002514,0.0011415,0.00062065,0.091701
-0.015261,0.011684,0.19527,-0.00049979,-0.0023944,0.017312,0.0082416,-0.030726
-0.025129,0.019577,0.1773,0.0089083,0.0054182,0.0020872,-0.0078412,-0.089971
0.018893,0.019753,-0.34148,-0.013137,0.013034,-0.013325,0.0073164,-0.11544
-0.031188,-0.11289,-0.032091,-0.027865,-0.010864,-0.0055248,-0.01633,0.19238
-0.018541,0.0044049,0.1534,-0.019868,-0.011616,-0.0057821,-0.016058,-0.2104
0.041811,0.012307,0.19254,0.042022,-0.012635,0.0093454,0.031693,0.49931
0.025381,0.06716,-0.21864,-0.0061861,0.0095946,0.00082801,-0.0059043,-0.3248
0.026241,0.012833,-0.056426,0.0076006,0.016129,0.0077882,0.0037952,-0.056532
0.0054085,-0.033396,0.038307,-0.017861,-0.0085247,-0.00094201,0.029236,0.22609
-0.076354,-0.016809,0.017954,-0.019713,-0.0095676,-0.0096393,-0.047166,-0.30596
-0.024135,-0.023389,0.14703,0.033623,0.013069,0.0052419,0.00073981,-0.14664
-0.018203,0.0405,-0.0054539,0.0095718,0.004709,-0.0030643,0.039795,0.5455
0.057924,-0.004987,-0.2454,-0.02145,0.0043788,-0.0032097,-0.039576,-0.17732
0.062856,0.019667,0.12941,0.018644,0.0042024,0.0048788,0.020439,-0.03612
-0.035401,-0.01849,0.079573,-0.0031224,-0.019315,-0.01783,-0.014309,0.061315
0.043791,0.0054711,-0.16805,0.0067582,-0.0036934,0.02239,-0.010568,0.028549
-0.090548,-0.025613,0.2781,-0.014476,0.0042257,0.016081,0.024441,-0.21959
0.053788,-0.0022406,-0.41656,-0.004552,-0.018911,-0.021272,-0.017991,-0.14992
-0.04618,0.02892,0.10104,-0.018317,0.020754,0.0039025,0.0112,-0.017518
0.016673,-0.033457,0.12901,-0.0011671,-0.001691,-0.010151,0.010937,0.32895
-0.092411,0.013949,-0.074196,-0.0078168,-0.00028175,-0.0089258,-0.026348,-0.1004
0.065343,-0.00064136,0.17865,0.03985,0.0092877,0.023062,-0.0069547,0.039207
-0.024576,0.032085,0.18323,0.04806,0.011221,-0.00021312,0.0375,0.15347
0.13855,0.010334,-0.08586,-0.037927,-0.010359,-0.0084624,-0.003009,-0.064425
0.023604,-0.050641,-0.57634,-0.038492,-0.001051,-0.0016422,-0.0043277,0.085446
-0.073007,0.0049549,0.49845,0.022871,-0.0079881,-0.0030838,0.017002,0.10737
-0.11324,0.028238,-0.51976,-0.033527,-0.007903,0.010809,-0.017982,-0.6032
-0.035972,0.026675,0.46919,0.026761,0.006979,0.0089831,0.030734,0.38948
0.1417,-0.078023,0.058431,0.016391,0.0055178,-0.023978,-0.10275,-0.6569
0.035661,0.0032754,-0.079967,-0.0097287,0.0035808,0.0058769,0.042622,0.34497
0.10596,0.036499,0.0081801,-0.012281,-0.029751,-0.0028558,0.014185,0.56947
-0.17107,0.0065315,0.027947,0.0089794,0.015251,-0.003207,-0.015447,-0.19133
-0.052715,-5.2746e-05,-0.10376,-0.0082459,0.0060802,0.012642,0.048339,0.18266
-0.045538,0.001792,-0.10208,-0.0013349,0.0054334,0.0055388,0.0032614,-0.26708
0.039763,-0.03421,0.068393,0.0063018,0.0055434,-0.0012517,-0.040611,-0.20292
-0.029205,-0.021689,0.036878,0.014598,-0.0015118,-0.00014419,0.010925,-0.18652
0.061775,0.055167,0.025823,0.054665,0.015284,0.0086276,0.001795,0.094587
0.040298,-0.038106,-0.37629,-0.10804,-0.014679,-0.014188,0.017842,0.28782
0.14861,0.010645,0.47979,0.034127,-0.021376,-0.014002,-0.0037567,0.5162
-0.090818,0.044643,-0.06341,-0.0033212,0.01061,0.0013845,-0.047855,-0.67623
-0.031377,0.21958,0.27212,0.021735,0.0030697,0.0086555,0.033428,-0.15998
-0.089416,-0.28527,-0.33882,-0.039165,-0.028324,-0.01543,-0.018271,0.21785
0.068727,-0.063815,-0.058221,0.017091,0.033775,0.030912,0.046576,0.33733
0.035007,0.040404,0.12389,0.026403,-0.013546,-0.016191,-0.030181,-0.076538
-0.14468,-0.081521,-0.14868,-0.019132,0.0017939,0.0074364,0.032559,-0.14088
0.029652,0.13347,0.23845,0.036591,0.025248,0.0080547,-0.038585,-0.4241
-0.050474,0.037326,0.065966,-0.0097316,-0.013457,-0.0066139,-0.0089727,0.077413
0.16339,0.012871,-0.6332,-0.033272,0.0027954,0.0023284,0.020265,0.27471
-0.0065119,-0.018506,0.27727,-0.018519,-0.012092,-0.012191,-0.028472,0.087106
0.027662,0.075089,-0.12775,0.026697,0.0041773,-0.0034818,0.001586,0.050596
-0.076226,0.12846,0.35946,-0.014716,0.0045314,0.0048867,0.01709,-0.081387
-0.028004,-0.39072,0.25041,0.044944,-0.0033582,0.012858,0.01823,-0.30733
0.032216,0.15748,-0.17154,-0.051852,-0.019544,-0.02642,0.0049294,0.48147
-0.036267,-0.2193,-0.25774,0.01553,0.010712,0.012142,0.00029236,-0.26465
0.10189,0.26051,0.34185,0.083351,0.032864,0.019299,0.019419,0.16078
-0.062098,0.027298,-0.55531,-0.11372,-0.046638,-0.020436,-0.032043,-0.2009
-0.037254,-0.051044,-0.054258,0.02609,0.014618,0.0024293,-0.029636,-0.066454
0.057974,-0.21622,0.63837,-0.0049009,0.02151,0.025464,0.041896,0.44167
-0.10569,0.32867,0.082183,0.019864,-0.018027,-0.03726,-0.059751,-0.48522
0.19743,-0.065281,-0.38086,-0.0091422,-0.010223,0.0016995,0.024938,0.1116
-0.13481,-0.02391,-0.13397,-0.0062833,-0.0020493,0.0094163,0.038506,0.5679
0.038064,0.10036,0.066151,0.043636,0.029735,0.0091718,-0.018582,-0.52852
-0.096234,-0.14607,0.050043,-0.00051,0.0067407,0.0086104,0.010384,-0.46326
0.040947,-0.020678,-0.18684,-0.037651,-0.0009962,-0.00022323,-0.077382,-0.091353
0.020648,0.13422,0.10116,0.0099558,-0.017131,0.013844,0.054198,0.82595
0.070221,0.008692,0.35455,0.01712,-0.01051,-0.042916,0.053471,0.089
0.065376,-0.44856,-0.14338,-0.062971,-0.027942,-0.014116,-0.0095349,-0.10488
-0.22772,0.18797,0.19404,0.043438,0.04018,0.0067328,0.021046,-0.099079
0.074047,-0.20362,-0.13367,-0.0068724,-0.0089068,0.012114,-0.058249,-0.2149
-0.052694,0.51118,-0.47952,-0.010132,-0.0029007,0.010137,-0.0053836,-0.12588
0.22002,-0.1445,0.0059782,0.010865,0.0039124,0.016669,0.015731,0.86175
0.0012579,0.53003,0.48461,0.017577,0.0040168,0.016236,-0.049117,-0.6356
-0.21719,-0.5007,-0.3349,-0.013133,0.0053555,-0.022355,-0.0117,-0.51604
0.017415,0.21132,0.42841,0.043766,0.015677,0.010265,0.058491,0.057681
-0.05301,-0.32313,0.015454,-0.046341,-0.019953,-0.010937,-0.0097282,0.1733
0.17294,-0.24042,-0.37105,-0.033917,-0.015989,-0.039113,-0.028515,0.55889
-0.031328,0.18453,0.46487,0.057007,0.011478,0.0038362,0.04884,-0.019348
0.13898,-0.071031,-0.66255,0.022674,0.015104,-0.014962,0.010669,0.17218
-0.2378,0.19853,-0.17253,-0.067164,-0.02114,-0.0019188,0.012004,-0.71221
0.096452,0.32482,0.35203,0.03708,0.01965,0.089515,0.098221,0.6141
-0.17818,-0.45439,0.070079,-0.055436,-0.026716,-0.03806,-0.16967,-0.50724
0.14184,-0.12888,0.32703,0.05372,0.019482,0.052168,-0.0037741,0.31356
0.088143,0.16915,-0.064521,-0.033717,-0.013452,-0.0077384,-0.084361,-0.16473
-0.065587,0.00075964,-0.01242,0.041927,0.0075779,-0.10125,0.17465,-0.072087
0.11039,0.45641,-0.16807,0.015384,0.0126,0.060275,-0.0071215,-0.33406
-0.15753,0.19571,-0.12893,-0.0583,-0.029297,-0.02317,0.098335,0.21789
-0.0572,-0.25459,-0.3128,0.0086889,0.022799,0.016009,-0.43689,0.17321
0.03589,-0.76499,0.64446,0.044718,0.0050274,-0.079189,0.13899,-0.30266
0.1055,-0.047463,-0.032506,0.0030777,-0.0043861,-0.0029965,0.39774,0.7732
0.03381,0.36068,-0.43799,-0.077075,-0.021062,0.06607,-0.13632,0.40433
-0.023574,0.24514,0.17104,0.023043,0.033062,0.1994,-0.13495,-0.64207
-0.1453,0.065522,-0.031571,0.029989,-0.0061716,-0.14905,-0.07533,-0.27902
0.16829,0.1651,0.23048,0.014042,-0.0060287,-0.13503,0.025704,0.15191
-0.18447,-0.72261,0.046444,0.014227,-0.0056005,0.10881,0.29159,-0.53998
0.038766,0.1812,-0.36149,-0.094477,-0.036096,-0.081765,-0.21675,-0.073558
0.15089,-0.073768,0.40054,0.102,0.05884,0.097471,0.12435,0.92102
0.043097,0.37153,-0.29754,-0.029098,-0.017527,-0.010441,-0.19368,-0.35661
-0.26829,0.42766,0.2181,-0.03457,-0.022887,-0.0079584,-0.27254,-0.87852
0.17057,-0.11464,-0.45002,0.015345,0.019369,-0.03672,0.48206,0.92868
-0.061498,-0.5443,0.16644,-0.035591,-0.023655,0.019425,-0.1789,-0.090635
0.098597,0.31053,-0.23131,-0.015621,0.019669,0.09702,0.23801,0.9677
-0.01278,-0.36923,0.90005,0.090582,0.031743,-0.078137,-0.27383,-0.17385
-0.16105,-0.42381,-0.37408,-0.0065417,-0.019223,-0.076847,0.15374,-0.56674
0.044361,0.44214,0.14374,0.036113,0.0068141,-0.016447,-0.10375,-0.91732
-0.0062685,0.43299,-0.49744,-0.094637,-0.031287,0.064197,-0.1868,0.5554
0.27241,0.13814,0.19012,0.085016,0.061451,0.13435,0.30263,0.24551
-0.20631,-0.23429,-0.27251,-0.050204,-0.058777,-0.094275,0.0043647,-0.81677
0.0099139,-0.20199,0.31034,-0.015789,-0.0010755,-0.066011,-0.12175,0.3694
0.029835,-0.0014327,0.62955,-0.00646,-0.014856,0.12649,0.11838,0.26553
-0.092149,-0.65892,-0.87137,-0.075922,-0.013364,-0.1875,-0.12786,0.22136
0.18317,0.74309,0.0733,0.066097,0.027749,0.055572,-0.0096159,0.26223
-0.29206,0.29974,-0.37943,0.037981,0.039006,0.090943,0.18393,0.34642
0.084587,-0.44312,-0.010898,0.012547,0.013208,0.020673,-0.24982,-1.0562
0.087438,0.76114,0.73891,0.029337,-0.033743,-0.10835,0.26837,0.78769
0.0061842,-0.92866,0.55925,0.017956,0.0074301,-0.070081,-0.38499,-0.084144
-0.026289,0.43434,-0.68509,-0.1238,-0.035595,0.15783,0.15102,-0.55366
-0.065305,-0.38275,0.14806,0.0092406,-0.015099,-0.12925,0.19012,-0.70239
0.23156,-0.13535,-0.47385,0.025083,0.060239,0.33259,-0.52504,0.3219
-0.0046854,0.20395,0.22784,0.12544,0.048913,-0.067673,0.95039,0.70298
-0.17437,0.3287,-0.30373,-0.16751,-0.088892,-0.23749,-0.72875,-0.076482
-0.0055869,0.11453,0.35314,0.090629,0.021319,-0.052364,0.39634,0.028821
0.10253,0.33011,0.42026,-0.014606,-0.019064,-0.090042,-0.0047661,0.00024092
-0.19336,-0.73002,-0.4626,-0.061171,-0.022361,0.1897,-0.38707,-0.1287
0.10053,-0.24587,0.043824,0.092313,0.043173,0.10889,0.20946,0.50087
-0.075706,-0.013296,-0.27999,-0.060724,-0.017064,-0.11968,0.011846,-0.5982
0.085826,-0.031153,-0.025765,-0.049973,0.00084603,-0.088158,-0.087502,0.43725
0.041507,0.45033,0.24737,0.04809,0.019514,0.048275,-0.11701,-0.30307
0.090945,0.20927,-0.082601,0.031821,0.031696,0.50091,-0.20631,-0.20492
-0.21728,-0.019317,0.063318,-0.019571,-0.032593,-0.48837,0.45989,-0.003962
0.093704,-0.39557,0.40126,0.066304,0.014215,0.12655,-0.038627,-0.21541
-0.071035,0.064692,-0.41162,-0.085675,-0.062417,-0.31155,0.37634,0.11536
0.051505,0.10057,-0.042764,0.031576,0.018416,0.0010943,-0.14832,0.38846
0.31698,0.70019,0.36801,0.018422,0.037509,0.4309,-0.42786,0.089195
-0.39611,-0.49085,-0.16514,-0.040672,-0.0056339,-0.21017,0.010967,0.1078
0.12675,0.027911,0.12135,0.055916,0.021328,0.17126,0.10253,0.22383
0.046098,-0.67563,-0.14848,-0.083752,-0.053869,-0.30008,-0.030452,-0.78379
-0.13245,-0.50469,-0.6059,0.047203,0.02633,0.13345,0.079691,0.40324
-0.00317,0.76745,0.62903,0.010849,-0.0037999,0.088939,0.15192,-0.25465
0.099289,0.50357,-0.26332,-0.020846,-0.0035748,-0.082057,-0.38278,0.1349
-0.11126,-0.26854,0.20505,-0.023872,-0.011863,-0.035707,0.29016,-0.080092
0.064502,-0.053855,-0.10875,0.0026902,0.026305,0.11099,-0.16286,-0.20571
-0.08763,-0.33757,-0.28459,0.0052366,-0.037198,-0.19638,0.1275,0.062443
0.046048,0.14803,0.48748,0.062947,0.047909,0.081584,0.069075,0.19252
0.17996,0.82172,0.078024,-0.02646,0.00057966,0.031149,0.037655,0.041461
-0.050902,-0.19906,0.19119,-0.012477,-0.022836,0.15263,-0.13089,0.2131
-0.099068,-0.24499,-0.76031,-0.027809,0.0010901,-0.022448,-0.38271,-0.34105
0.011111,-0.045893,0.53297,0.02102,-0.0058668,-0.11103,0.25744,-0.10303
0.21497,-0.61144,-0.034427,0.055307,0.0030006,-0.19102,0.5693,0.53574
-0.30298,0.020451,-0.27079,-0.066324,-0.019387,0.073703,-0.26874,-0.13038
0.0086389,0.23753,0.071469,0.045979,0.043949,0.05043,-0.085474,0.44309
0.084152,-0.037646,0.05429,-0.061547,-0.025927,0.082831,-0.10725,-0.65832
-0.079091,0.36239,0.27286,0.056025,0.020849,0.17842,-0.30161,-0.25962
0.15765,0.051849,-0.52749,-0.023245,-0.0032762,-0.17888,-0.057242,-0.20502
0.074661,0.21548,0.10268,-0.025667,-0.012326,0.15884,0.14365,-0.19408
-0.16405,-0.35324,-0.3638,-0.036683,-0.013973,-0.33221,0.36527,0.67804
-0.10451,-0.41659,0.30261,0.0068198,-0.015806,0.10572,0.2723,0.075036
0.090775,0.54334,0.681,0.12886,0.029317,-0.081745,-0.28443,0.33167
-0.0058009,-0.31573,0.082517,-0.037351,0.0044635,0.035633,-0.080332,-0.34458
0.13151,0.44484,-0.37903,-0.03071,0.011383,0.12252,0.069428,0.17272
-0.088771,-0.22062,0.010628,-0.023213,-0.035788,0.038657,-0.13465,-0.30526
0.0071777,-0.24014,-0.39345,0.00043493,0.026951,-0.13787,-0.085066,0.36677
0.061429,0.060371,-0.12541,0.024153,-0.0037069,0.076763,0.053421,-0.33048
-0.12835,0.035133,0.65784,0.063111,0.028226,0.22071,-0.19519,0.068875
-0.015224,0.14782,-0.86222,-0.11741,-0.025969,-0.066428,-0.063804,-0.2175
0.0016664,-0.07591,0.42752,0.021486,-0.018084,-0.2464,0.34004,-0.18847
-0.016608,-0.23658,-0.022918,0.011135,0.0048871,-0.10076,0.42411,0.28407
0.25604,0.04013,0.45505,-0.0075498,-0.0039072,0.12084,-0.48269,0.29812
-0.15153,0.41553,-0.3463,0.036193,0.0025754,-0.088484,0.1039,-0.70453
0.055118,-0.44324,0.34771,0.0022623,0.0011726,0.1631,-0.11386,0.47466
0.038046,0.83266,-0.26858,0.016167,0.039084,0.079883,0.14416,0.44636
-0.14924,-0.47439,-0.40109,-0.085743,-0.070881,-0.10299,0.064506,-0.35273
-0.061456,-0.089044,0.39156,0.056168,0.046505,0.04435,-0.35311,0.44195
-0.00206,0.05507,0.19117,0.012286,0.016356,0.21683,0.10274,-0.41532
0.046922,-0.4728,0.033419,-0.037826,-0.02854,-0.26602,-0.19962,-0.42794
0.17451,0.18102,-0.27103,0.038337,0.028859,-0.11604,0.16311,0.058058
-0.11604,-0.048963,-0.018943,-0.0018687,-0.02262,0.095768,0.11391,0.4951
-0.079724,0.13279,-0.41142,-0.018364,-0.019191,-0.037165,0.07499,-0.49098
0.01961,0.17044,0.24244,0.0039017,0.0076168,0.11028,0.23317,-0.21877
-0.083345,0.0068372,0.016713,-0.013729,0.0028675,0.015143,-0.16315,0.3446
0.15693,-0.22233,0.086245,-0.017004,-0.0023862,-0.20476,-0.10815,0.23097
0.13597,0.56871,0.26472,0.048467,0.030777,0.13865,0.12298,0.25954
0.037217,-0.24028,0.19161,0.041926,0.0085218,0.061358,-0.32994,0.021273
-0.12034,-0.17012,-0.042704,-0.11471,-0.061366,0.00088631,0.13523,-0.0033159
-0.0047316,0.22615,-0.099268,0.07094,0.047706,0.19915,-0.33113,-0.24765
-0.079557,-0.64321,-0.47529,-0.01797,-0.00011614,-0.21932,0.26604,-0.23753
-0.087709,0.3581,0.13776,-0.052895,-0.056266,-0.19252,0.13296,-0.34791
-0.082434,-0.084616,-0.082306,0.068178,0.027844,-0.017718,0.20174,-0.076046
0.11146,0.12257,0.39641,0.048788,0.033615,0.046975,-0.5032,0.52836
-0.0015097,0.18504,-0.20436,-0.079489,-0.015394,0.13417,0.30643,-0.05197
-0.026,-0.39352,-0.48161,-0.027395,-0.017539,0.079587,0.36253,0.41541
0.088815,0.17257,0.17123,0.02544,0.019406,0.26581,-0.12761,-0.15893
0.2203,0.26269,0.66461,0.10238,0.032959,-0.24482,-0.35537,-0.17162
-0.15465,-0.36938,-0.26469,-0.11707,-0.047168,-0.29599,0.027594,0.0013751
0.0014175,0.13854,0.063049,0.015299,-0.0099806,0.2925,-0.19135,-0.37008
0.060371,0.092953,0.11439,0.053936,0.011819,-0.32994,0.089594,0.41951
-0.036298,0.08077,-0.4347,-0.071652,-0.012864,0.15052,0.45068,0.12165
-0.034408,0.43061,0.58352,0.060326,0.017707,0.00087499,-0.56553,-0.035354
-0.19442,-0.49781,-0.18586,0.012403,0.0021157,0.10494,0.33406,0.029742
-0.064399,-0.9151,-0.77561,-0.066838,0.010747,0.033306,-0.40156,-0.27925
0.090448,0.29604,0.26033,-0.028734,-0.026753,-0.019396,0.3785,-0.29011
0.084366,0.23664,-0.059505,0.033207,0.014451,0.023413,0.40151,0.46896
0.1543,0.52982,0.4255,0.041051,0.016893,0.269,-0.4118,-0.1062
0.060885,0.26569,0.36079,0.057383,-0.011968,-0.32384,0.084332,-0.32965
-0.21683,0.14983,-0.37445,-0.05848,0.0056326,-0.24116,0.18329,0.46867
0.04957,-0.72257,0.050674,-0.01766,0.006886,0.2663,-0.93095,-0.37871
-0.068633,-0.16235,-0.33952,-0.062617,-0.055273,-0.29331,0.87951,0.52069
0.084938,0.29462,-0.0069866,0.071979,0.03787,0.2063,-0.3712,-0.22488
0.017457,0.013556,0.59246,0.010867,-0.010435,0.13416,0.31684,0.075994
-0.076995,-0.42621,-0.32623,0.011679,0.0031981,-0.01557,-0.35997,0.089425
0.081214,0.088847,-0.095488,0.0040382,0.040052,0.00088886,-0.12637,0.27007
-0.15036,0.033689,-0.00063044,-0.074503,-0.032321,0.0047963,0.25398,-0.54362
0.062385,0.25119,0.29887,0.018401,-0.033913,-0.11303,0.20449,-0.58122
-0.0010029,0.083512,-0.23796,-0.021723,0.019872,0.068799,0.085291,0.64947
0.15804,0.05848,-0.22871,0.039711,0.027552,-0.10689,-0.041207,-0.1375
-0.039646,0.076441,0.25732,0.030969,-0.0031282,0.22597,-0.26162,0.16493
-0.024248,-0.13657,-0.059155,0.014586,0.005758,-0.14458,-0.17054,0.055715
-0.092507,-0.043838,-0.28515,0.0061177,-0.00076119,-0.063076,0.34092,-0.067952
-0.079546,0.14042,0.2767,-0.057069,-0.022988,-0.029912,-0.062941,-0.19321
0.086375,-0.59478,0.13539,-0.034468,-0.0064858,0.056412,-0.076358,0.088698
-0.0069416,0.13881,-0.06053,0.011377,0.017351,0.10232,-0.30687,0.19907
0.064419,0.29315,0.59439,0.1118,-0.0061778,-0.079409,0.40397,0.22025
0.06019,-0.09279,-0.26825,-0.10017,-0.02227,-0.0041872,0.019193,-0.40059
-0.072779,0.059788,-0.67273,0.00077328,0.016151,0.070283,-0.01448,0.25899
-0.036645,0.10331,-0.14238,-0.022543,0.0077581,-0.0044292,-0.079543,-0.011245
-0.034221,-0.11007,0.48045,0.048899,0.023072,-0.0095757,-0.19264,-0.20139
0.11384,0.13841,-0.18458,0.012088,-0.0080851,0.0159,0.11267,-0.44754
-0.069956,-0.36288,-0.19712,0.0075534,-0.0075488,-0.091707,0.31741,0.35932
-0.024439,0.4317,0.34362,-0.050967,-0.030067,-0.058316,-0.058818,0.065407
0.13943,-0.15127,0.30589,0.04695,0.017972,0.10131,0.050688,0.097235
-0.11901,-0.41011,0.18116,0.011624,0.011376,-0.11971,-0.34894,0.22632
0.058174,0.701,-0.44703,-0.048168,0.0046255,0.18559,-0.10256,-0.22094
-0.10353,-0.34953,0.066299,0.038986,-0.010285,-0.084056,0.2671,-0.52831
0.059291,0.11065,-0.24349,-0.024002,-0.010066,-0.053975,-0.057776,0.37837
-0.047319,-0.47185,0.019081,-0.03392,0.0051978,0.24361,-0.27662,0.37602
0.029937,0.61569,0.079036,0.025238,0.012066,-0.23185,0.43505,0.050556
-0.0053895,-0.68728,-0.063472,0.0056415,0.010613,0.22883,-0.34098,-0.13096
0.097254,0.33171,0.20265,-0.013874,-0.038077,-0.21194,0.29619,-0.3354
-0.020929,0.2593,-0.33855,-0.0013915,0.006814,-0.024073,-0.14492,0.0042121
-0.015629,-0.045514,0.39427,0.051385,0.02831,0.057628,0.19399,-0.34198
-0.011299,0.1581,-0.16624,-0.027214,-0.028081,-0.091396,0.23239,0.43559
-0.07769,-0.092736,0.09925,-0.026367,0.0018526,0.076973,-0.087369,0.186
-0.073573,-0.12797,0.10588,0.06134,0.016627,-0.044812,-0.41636,-0.014639
0.18919,-0.042387,-0.068267,-0.014677,0.016249,0.26409,-0.091984,0.12901
-0.1169,-0.57793,-0.22104,-0.036304,-0.030589,-0.3537,0.042042,-0.30589
0.1806,0.31394,-0.15091,0.019366,0.040089,0.33,-0.20818,0.024198
0.0040387,0.87818,0.46057,0.050468,-0.013988,-0.15257,0.19855,0.10437
-0.29471,-0.9913,-0.37288,-0.13832,-0.05225,-0.17617,-0.017127,-0.39963
0.16733,0.37263,0.20636,0.047048,0.011228,0.12579,0.65347,0.17089
-0.078574,0.11275,-0.076628,-0.025765,-0.011049,0.0019299,0.014343,0.021945
0.04549,-0.23889,0.019244,0.042234,0.029352,-0.034204,-0.24906,0.13292
0.20316,0.61389,0.45429,0.10307,0.030807,0.1008,-0.037984,0.50619
-0.10621,-0.47163,-0.51371,-0.069557,0.0088073,0.21681,-0.23784,-0.46599
-0.21942,-0.44384,0.0064565,0.00089876,-0.013405,-0.19633,-0.52982,-0.11091
0.12039,0.36555,-0.1559,-0.029553,-0.0047906,0.039542,0.39085,0.0089906
0.052866,-0.015768,0.12581,0.041819,-0.028015,-0.4041,-0.075759,-0.20057
0.030233,0.21391,-0.013943,-0.074475,-0.020637,0.37208,0.55743,0.056174
0.02055,0.068198,0.16062,0.02747,0.0096077,-0.25481,-0.12061,0.066679
-0.062517,0.10118,0.29877,0.027157,0.016043,0.085313,0.072453,0.2351
-0.023682,-0.2096,-0.13053,0.0027231,0.014569,0.15336,-0.072537,0.2934
-0.042279,-0.42401,-0.080715,0.024679,0.013285,-0.079179,-0.50018,0.020494
0.054248,0.078973,-0.53678,-0.094145,-0.018828,0.29579,0.14074,-0.65572
-0.053551,-0.30571,0.22721,0.013817,-0.011332,-0.1976,0.46622,0.0062411
-0.0054321,0.9257,0.20288,0.012962,-0.003286,-0.15352,-0.28342,0.33514
0.089914,-0.54505,0.069476,0.067549,0.02863,-0.010844,-0.1417,-0.3624
0.076608,0.18014,-0.071908,0.021337,0.0060889,0.09565,0.18587,0.24444
0.0015542,0.34045,-0.10466,-0.055544,-0.032091,-0.0237,0.0017874,-0.06041
-0.12768,0.094751,0.32208,0.0084669,-0.0002018,0.07441,0.15587,-0.38469
-0.08487,-0.49288,-0.29245,-0.029174,0.0078438,0.075914,-0.12631,0.49802
0.18438,0.24363,-0.081664,0.0031156,0.015419,-0.23106,-0.21197,0.24166
-0.11688,-0.55119,0.20417,0.019249,-0.024301,-0.0029619,0.24362,0.092018
0.042843,0.08272,0.12787,-0.011992,0.013837,0.16691,-0.51547,0.012585
0.015601,0.45264,-0.16113,-0.0044712,0.0050601,-0.048591,0.45856,-0.14999
-0.065123,-0.17006,-0.13778,-0.020386,-0.034757,-0.085714,0.16059,-0.52381
0.0044733,-0.24622,-0.096891,0.018709,0.011792,-0.013529,-0.094427,-0.16366
0.021766,0.099985,0.14327,0.027124,0.0042176,0.15332,0.039115,0.55105
0.018168,0.087209,-0.087594,0.0049586,0.044101,0.032595,-0.38306,-0.54507
0.079352,0.080154,-0.031108,-0.0087935,-0.0092838,-0.11782,0.18604,0.2049
0.040562,-0.13804,0.67918,0.016897,-0.0076943,0.029885,0.042521,0.26294
-0.27109,0.53226,-0.27908,-0.027649,-0.02949,-0.0092084,-0.057356,0.33965
0.26827,-0.22684,-0.49487,-0.025548,0.0032437,0.076841,0.13428,-0.20075
-0.11586,-0.048134,0.38003,0.062042,0.020057,-0.071714,0.31817,0.14316
-0.049236,-0.073171,0.18641,-0.038402,-0.025964,-0.10338,-0.47674,-0.32601
0.061542,-0.29443,-0.67134,-0.069006,-0.0097697,-0.0023052,0.029012,-0.43354
-0.041247,0.2038,0.4392,0.040706,0.0062419,-0.010228,0.16251,0.63384
0.049113,-0.26939,0.034826,0.056563,0.029982,0.18579,-0.51391,-0.1475
-0.080749,-0.019259,-0.70242,-0.02128,0.014627,0.039155,0.35973,-0.16055
-0.039482,0.40923,0.63665,0.010355,-0.0085949,-0.090825,-0.012336,-0.14671
