0.085461,-0.47794,0.081592,0.10029,0.0093801,0.011558,0.0094652,0.038927
-0.028119,0.025009,-0.25615,-0.028407,-0.013313,0.006388,0.0038165,-0.021771
-0.062715,-0.19166,-0.0031034,-0.19752,0.018611,-0.0068814,0.0061019,0.035245
-0.14253,-0.13517,0.022512,0.069992,-0.012149,-0.012926,-0.007368,-0.040358
0.061156,0.39167,-0.29262,-0.21702,-0.019789,-0.019768,-0.013427,-0.03804
0.040709,-0.25745,-0.16235,0.083374,0.0033738,-0.0040664,-0.0045204,-0.0050682
0.12389,0.65328,0.66034,0.26131,0.0025496,0.026381,0.019141,0.066023
-0.01058,-0.30572,-0.18808,-0.15938,0.0089269,-0.0064563,-0.028527,-0.028151
-0.082965,0.26266,0.16128,0.06283,0.0068726,-0.00087543,0.00084586,-0.022117
0.17841,-0.018728,0.38747,0.24652,0.051128,0.066714,0.076023,0.13097
-0.14998,-0.10513,-0.51993,-0.32961,-0.092562,-0.061346,-0.084143,-0.13125
-0.12393,-0.91948,-0.1351,0.33946,0.0056789,-0.0099013,0.03617,-0.011631
0.20948,0.61709,0.022244,-0.17829,0.041409,0.010285,0.015386,0.068412
-0.15669,0.23378,-0.020019,-0.34501,-0.031974,-0.024027,-0.036717,-0.054603
0.20914,-0.28403,0.02514,0.26934,0.043608,0.028009,0.036601,0.026212
-0.31544,-0.11926,0.032248,-0.23175,-0.020693,0.018178,-0.029742,-0.008852
-0.2355,-0.22113,-0.13844,0.069006,-0.037251,-0.053332,-0.063344,-0.081217
0.42001,0.41243,0.39765,0.20666,0.048636,0.040156,0.076848,0.11401
-0.11333,0.75765,-0.36528,-0.1589,-0.0053156,-0.006033,0.0082544,0.045483
0.35957,-0.016328,0.18389,0.24848,-0.011798,-0.01232,-0.0035416,-0.045008
0.12614,-0.51534,0.11659,0.055183,0.036753,0.036702,-0.0057683,0.0059821
-0.31622,-0.6189,-0.11361,-0.15296,-0.070859,-0.046766,-0.069387,-0.099133
0.099992,0.40402,0.22754,-0.017899,0.063588,0.080699,0.10943,0.092117
-0.36179,-0.041295,-0.33679,-0.041728,-0.036607,-0.065572,0.045357,-0.05354
-0.15561,-0.46862,-0.30665,-0.093936,-0.035544,-0.048288,-0.10621,0.026215
0.17226,0.63435,0.61532,0.27655,0.090266,0.062148,0.07601,0.12057
0.1159,0.078546,-0.14789,-0.39274,-0.080931,-0.031105,-0.16603,-0.25444
0.18569,0.26927,-0.11023,0.045656,0.052571,0.031459,0.019419,0.11267
-0.17842,-0.50608,-0.23857,0.020858,-0.0090968,0.015652,0.10169,-0.0040599
0.095514,-0.11818,0.10153,0.055852,-0.03929,-0.047079,-0.012144,0.020865
-0.023426,-0.01078,0.27816,0.68917,0.03232,0.023125,0.030361,0.07051
0.23713,0.09566,0.14261,-0.41583,0.080679,0.054511,0.026884,0.05109
-0.21879,0.11789,-0.31453,-0.37704,-0.11307,-0.070041,-0.076689,-0.15489
-0.065963,0.36804,-0.033649,0.070704,0.013432,-0.00677,0.0011763,0.045805
-0.16675,-0.43764,0.13776,0.052484,-0.016527,0.0020927,0.0026284,-0.073993
0.085747,0.31479,-0.085617,0.17847,0.023469,-0.0044922,-0.049232,-0.0070902
0.18209,0.15425,0.42539,-0.13577,0.070782,0.05925,0.11063,0.14439
-0.12046,-0.64551,-0.49584,-0.075691,-0.07784,-0.04909,-0.10448,-0.13564
0.092731,0.23226,0.14973,0.29845,-0.00063103,0.013983,0.08588,0.05874
0.073155,-0.3129,-0.23859,-0.31593,0.0054644,0.021659,0.032536,0.14145
-0.22382,-0.0097711,-0.1036,-0.018839,0.034192,0.0050134,0.016266,-0.059265
0.142,0.30703,0.27713,0.26861,0.038775,0.026517,-0.0020779,-0.019502
-0.13909,0.24239,0.1264,-0.1413,-0.058687,-0.093357,-0.20961,-0.15248
-0.033317,-0.41116,-0.083465,0.13313,-0.046886,-0.018301,-0.019555,-0.10547
0.19565,0.6295,0.11872,-0.18336,0.019986,0.025648,0.10044,0.23226
0.033241,-0.18359,0.054116,0.29768,0.0096822,0.039078,0.081232,-0.013058
-0.098594,-0.83976,-0.37963,-0.16794,0.039933,0.014694,0.048707,0.011009
0.057027,0.39413,0.10434,-0.27704,-0.021655,-0.03156,-0.02796,1.7193e-06
-0.13443,0.24746,0.15138,0.13375,-0.01083,0.017537,-0.062996,-0.06223
0.082638,0.25136,-0.12474,0.15055,0.0098099,0.021087,-0.010238,0.041823
-0.012856,-0.16616,0.030739,-0.28045,-0.022646,-0.029256,0.043293,0.04478
0.24888,0.41526,0.40481,0.42015,0.078618,0.061134,0.15889,0.17125
-0.4696,-0.80864,-0.45625,-0.32453,-0.09352,-0.091253,-0.31295,-0.40083
0.22154,0.46295,0.15966,0.11921,0.077194,0.020826,0.095823,0.16327
0.087986,-0.26943,-0.18207,0.032904,0.027412,0.022032,0.0099778,0.027192
-0.33825,-0.49298,-0.44595,-0.052539,-0.16537,-0.07988,-0.06243,-0.097632
0.13941,-0.043,0.45879,0.30735,0.068852,0.059045,0.12139,0.086952
0.65529,0.47346,0.3726,-0.37284,0.073879,0.056388,0.015348,0.059333
-0.62505,0.25354,-0.24814,0.14035,-0.087398,-0.087369,-0.043826,-0.15502
-0.18474,0.44496,-0.089564,-0.28635,0.054429,0.065741,0.038279,0.078531
0.57083,-0.27727,0.55062,0.33943,0.070486,0.055151,0.035558,0.1207
-0.6783,-0.32851,-0.68202,-0.37215,-0.17901,-0.15797,-0.17675,-0.24671
0.4661,-0.12807,0.083166,0.42387,0.080136,0.059245,0.11235,0.28853
-0.15302,0.14415,0.098814,-0.075855,0.0047294,0.0036101,-0.073812,-0.21214
0.29117,0.19001,-0.12467,-0.22173,0.032577,0.034322,0.045772,0.11683
-0.32013,-0.42085,-0.045002,0.11196,0.030899,0.02616,0.064509,0.00016145
0.36303,0.72706,0.49062,-0.012121,-0.0083195,0.010178,-0.002407,0.029889
-0.30901,-0.72105,-0.34001,0.17126,-0.085426,-0.091852,-0.077316,-0.14676
-0.14146,0.28981,0.0098826,-0.088668,0.041379,-0.0064546,0.034658,-0.014645
0.20199,-0.13516,0.1749,0.31664,0.012395,0.016556,0.0050517,0.059419
-0.19921,0.049075,-0.12266,-0.4494,-0.047587,0.016531,0.036819,0.060897
0.34448,-0.79904,-0.20595,-0.32448,0.017598,0.0015897,-0.10439,-0.13364
-0.10208,0.9438,-0.14732,0.4104,0.012637,0.018832,0.019132,0.063451
-0.23193,-0.17956,0.20741,-0.16609,-0.062462,-0.017617,0.024926,-0.0026385
0.050403,0.28455,-0.043179,0.040252,0.11256,0.032727,0.0071507,0.0518
0.26915,0.513,0.65873,0.32635,0.021926,0.021104,0.028692,0.10975
-0.16193,-0.41358,-0.44377,0.019744,-0.05337,-0.045107,0.011729,-0.079321
0.18546,0.092441,-0.016103,0.0099114,0.034821,0.021147,0.089269,0.092887
-0.18313,-0.59121,-0.038202,0.13914,-0.12781,-0.092997,-0.22296,-0.32807
-0.012663,-0.17004,0.10237,-0.73457,0.083633,0.057565,0.082878,0.15654
-0.048117,-0.34615,-0.44356,0.036229,-0.010483,0.0040409,-0.016662,0.0067045
0.15341,0.69713,0.16229,-0.095838,0.0041352,0.012153,0.01741,0.010945
-0.19101,-0.67486,-0.077211,0.36904,-0.044049,-0.027304,0.0052543,-0.010517
-0.027441,0.8173,0.45895,0.2198,0.017196,0.034287,0.032545,0.044136
0.25371,0.31058,0.25247,0.128,0.070966,0.04081,0.07546,0.042564
-0.073003,0.071791,-0.29921,0.21829,-0.023215,-0.070154,-0.15554,-0.10844
0.12705,-0.26824,-0.06233,-0.25942,0.070587,0.068618,0.07341,0.060369
-0.31568,-0.22949,-0.49472,-0.37469,-0.10088,-0.07409,0.0040531,-0.036579
0.046642,0.14368,-0.036662,-0.4302,-0.061233,-0.021651,-0.067049,-0.031912
0.10704,-0.1298,0.51357,0.30387,0.087782,0.054175,0.063114,0.12906
-0.070029,-0.65385,-0.22775,-0.11365,-0.052401,-0.041764,-0.042858,-0.10852
0.0009622,0.14231,0.18315,0.5948,0.041575,0.050076,0.037215,0.051993
0.17956,0.85565,0.28228,0.096393,-0.044399,-0.013915,-0.00088525,-0.0068545
-0.19916,-0.69616,-0.33408,-0.060633,0.072445,0.0007182,0.0074792,-0.035217
0.2927,0.71154,0.34202,-0.20525,0.063924,0.070543,0.039495,0.099734
-0.23781,-0.21277,-0.52747,-0.34042,-0.10909,-0.10919,-0.10736,-0.13301
-0.019667,-0.14508,-0.0089411,0.013616,-0.0091313,0.0082822,0.020579,0.0091789
-0.0079759,-0.56844,-0.0059128,0.28105,-0.050264,-0.022486,-0.0060044,-0.02779
0.26489,0.85949,0.29627,0.1048,0.095713,0.063982,0.047448,0.13951
-0.19325,-0.69341,-0.029943,0.26152,-0.032007,0.0019028,0.016814,-0.06653
-0.14688,0.84482,0.29155,0.10783,0.074552,0.033307,0.01899,0.034067
-0.20331,-0.37699,-0.43088,-0.78628,-0.17039,-0.076323,-0.0089986,-0.074316
0.17899,-0.13215,-0.074893,-0.1293,0.163,0.032286,-0.059902,0.061165
0.38514,0.18984,0.12425,0.24767,-0.02673,-0.0159,0.029796,0.02593
-0.11455,-0.56409,-0.019958,-0.00054631,-0.044185,-0.025515,-0.091898,-0.094733
0.047515,0.61208,0.20613,0.156,0.032607,0.050463,0.074749,0.042271
-0.35602,-0.28032,-0.51369,-0.14469,-0.077487,-0.029929,0.053091,0.022333
0.27457,0.059938,0.55991,0.34217,0.10224,0.077342,-0.00055006,0.032623
-0.12568,-0.27449,0.01812,0.30349,-0.084294,-0.072728,-0.070361,-0.067552
-0.090583,0.26364,-0.36068,-0.46759,0.019295,-0.01109,0.062658,-0.020179
0.30746,0.23752,0.3573,0.24166,0.092765,0.043758,-0.030915,0.050145
0.10631,-0.24346,-0.65327,-0.35693,-0.11394,-0.095529,-0.10086,-0.10609
-0.32684,0.092528,0.39784,0.027196,0.023941,0.063239,0.11075,0.12875
-0.17825,0.34324,0.16616,-0.047798,0.021628,0.043314,-0.013306,-0.026363
-0.094151,-0.53677,-0.28839,-0.16934,-0.074599,-0.069762,-0.012274,-0.071467
0.060943,-0.29872,0.35809,0.78137,0.11736,0.090631,0.090066,0.15714
0.54728,0.28016,0.18626,-0.66781,0.049877,0.00039852,-0.0035619,0.010442
-0.032043,0.1234,-0.38757,0.19251,-0.058918,-0.036397,-0.098196,-0.07472
-0.32522,-0.0035576,-0.16521,-0.63852,-0.092218,-0.051456,-0.022143,-0.14575
0.033788,0.46044,0.22486,0.5641,0.043725,0.001925,0.0059198,0.086159
0.01147,-0.33754,-0.33603,0.46102,-0.056905,-0.024524,0.017586,-0.019458
0.15973,0.10241,0.11373,-0.49297,0.075478,0.057175,0.029041,0.13169
0.061911,-0.24839,0.38923,0.88061,0.027928,0.060221,0.056578,-0.014258
-0.31501,0.44456,-0.27893,-0.86729,-0.096779,-0.084913,-0.13355,-0.18287
0.18479,-0.43306,0.31709,-0.24202,0.13214,0.059998,0.15444,0.13456
-0.36734,-0.88219,-0.4742,0.38336,-0.13609,-0.1139,-0.18865,-0.11597
0.077808,0.54433,0.11691,-0.39492,-0.0026934,0.026452,0.10268,0.065729
0.22637,0.73202,0.4293,0.31751,0.16496,0.11374,0.059241,0.14031
-0.035828,-0.57562,-0.74659,0.198,-0.040033,-0.024338,-0.030594,-0.041463
0.11378,0.43958,0.503,-0.18367,-0.056213,0.0021547,0.012063,-0.058893
0.16838,-0.28398,0.097918,0.09551,0.0058444,-0.026314,-0.040106,0.032046
-0.27083,-0.11766,-0.29339,-0.0088282,-0.019094,-0.047964,-0.023584,-0.082276
0.036756,0.80526,0.18406,-0.094766,-0.046029,-0.0086047,-0.0010869,0.011494
0.29198,-0.0022822,0.033338,-0.28336,0.057277,0.060339,0.027543,0.031976
-0.69503,-0.58941,-0.46861,0.022985,-0.014023,-0.044081,-0.030944,-0.067221
0.28471,0.45872,0.79997,0.42123,0.021556,0.030178,0.03512,0.066461
0.050366,-0.74265,-0.35777,0.22598,0.00049951,-0.028702,-0.031274,-0.034426
0.10951,-0.49431,-0.332,-0.46818,0.03294,0.045644,0.02059,0.053338
0.12676,-0.17,0.4423,0.62734,-0.028716,-0.0039329,0.058387,0.041822
-0.12336,0.18761,-0.63221,-1.0046,-0.058646,-0.04415,-0.050517,-0.083889
-0.28022,0.74683,0.41063,0.079041,0.029787,0.050192,0.029672,0.035754
-0.10837,0.65731,-0.0097539,0.46945,-0.044171,-0.056944,-0.092084,-0.10745
0.29113,0.087071,0.12675,0.062307,0.13378,0.05595,0.091444,0.11063
0.26181,0.096934,-0.10671,-0.18408,-0.077007,-0.017946,-0.0063143,0.087239
0.18552,-0.25692,0.23586,0.43113,0.057585,0.0097687,-0.065605,-0.10081
-0.49391,-1.0224,0.059201,-0.40625,-0.025332,-0.0021597,0.053806,0.05314
0.050156,-0.65365,-0.58535,-0.29073,-0.005859,0.00048563,-0.015427,-0.10014
-0.15984,0.66263,0.15703,0.39524,-0.12651,-0.045012,-0.015395,-0.045288
0.27446,0.28964,0.086045,-0.18276,0.057829,0.04112,0.038595,0.085226
0.018176,0.24192,0.63461,0.30591,0.1487,0.0092532,0.0064028,0.057875
-0.30942,0.36437,-0.49771,-0.21371,-0.15072,-0.077536,-0.080171,-0.11834
0.12252,-0.4188,-0.24267,-0.17581,0.042457,0.047026,0.045007,0.073476
-0.081694,-0.14411,-0.35076,-0.22598,-0.037419,-0.014935,-0.023956,-0.045272
0.12697,-0.059344,0.10085,0.69238,0.054781,0.018157,0.02555,-0.020784
0.24169,0.50103,0.80152,-0.16239,0.021806,0.060355,0.060531,0.15487
-0.011456,-0.040389,0.019146,0.091523,0.05843,0.025351,0.0023966,-0.034433
-0.095352,-0.84763,-0.2988,-0.15756,-0.085969,-0.079713,-0.087025,-0.050607
-0.3724,0.094389,-0.42391,-0.56132,-0.083848,-0.044738,0.033696,-0.059023
0.50541,0.31587,0.62196,0.92361,0.033115,0.027883,-0.042391,0.056138
-0.33249,0.33881,-0.19098,-0.3466,0.10068,0.051557,0.067018,-0.010986
-0.013706,0.31001,-0.26748,-0.43672,-0.076357,-0.044376,-0.036737,-0.042425
0.3432,-0.23295,-0.012148,0.58977,0.018033,0.029187,0.013642,0.047501
-0.29296,-0.40806,-0.19678,-0.32914,0.017309,-0.032001,-0.023602,-0.014343
-0.069157,-0.0039765,0.38309,0.15217,0.00042644,-0.00058567,0.00066558,-0.000581
-0.053114,-0.33915,0.29074,0.31793,-0.00043586,0.046338,0.063869,0.12124
0.28965,0.042818,-0.16923,-0.84395,-0.0077886,-0.046363,-0.059646,-0.16307
-0.10005,0.94292,0.080414,0.13875,-0.083313,-0.035474,-0.025307,-0.016125
0.13225,-0.41584,-0.36032,0.22188,0.054843,0.032888,0.019066,0.0086453
-0.058293,-0.29559,0.1864,0.53184,0.071023,0.057513,0.065986,0.099611
-0.23319,-0.13173,-0.39059,-0.25188,-0.089561,-0.055482,-0.06426,-0.063214
0.099602,0.66195,0.34468,0.18926,0.080407,0.052662,0.049838,0.066765
0.10304,-0.033289,0.17227,-0.35858,0.025401,0.021572,0.0091948,0.066825
0.18149,-0.45496,-0.16657,-0.17222,-0.075948,-0.071834,-0.10109,-0.12679
-0.3392,0.2443,0.13205,-0.15337,0.0096149,0.021238,0.069664,0.0079042
-0.00051033,-0.1667,-0.43266,0.12496,-0.062666,-0.028329,-0.018444,-0.069528
0.10168,-0.5831,0.044683,0.12967,0.06583,-0.0024025,0.024557,0.092937
0.1532,0.85056,0.48506,0.21129,0.035324,0.028542,0.010751,0.010251
-0.22193,0.0453,0.0049157,0.23687,-0.021392,-0.021147,-0.052182,-0.052152
0.0072589,-0.25083,-0.06793,-0.37094,-0.041479,-0.0023838,-0.0078469,-0.008073
0.19276,0.35207,0.1733,0.34292,0.030379,0.038819,0.042579,0.072795
-0.16444,-0.62188,-0.62911,-0.39958,-0.078446,-0.037254,-0.0019129,-0.043081
0.1011,0.22783,0.082407,-0.10172,0.093844,0.020193,0.0077575,-0.011035
-0.18879,-0.31415,-0.41491,-0.22679,-0.0066533,-0.0070328,-0.029331,0.02135
0.021969,0.35037,0.5627,0.027764,0.0034863,0.014131,-0.0032358,-0.03118
0.18757,0.35138,0.33126,0.40895,0.030895,0.028939,0.023983,0.058382
-0.027388,-0.20453,0.18979,0.083687,-0.057089,-0.025425,0.068234,0.024602
0.03333,0.077832,-0.36141,-0.026071,0.028555,-0.024431,-0.096929,-0.077873
-0.12296,-0.80575,-0.33175,0.09227,-0.079541,-0.023277,-0.026233,-0.030508
0.026432,0.29542,0.24438,-0.059258,0.055859,0.032285,0.045768,0.064816
0.082295,0.40536,-0.23862,-0.058557,-0.049927,0.0013435,-0.029659,-0.026634
0.06756,0.2259,0.37909,0.14878,0.11839,0.024432,0.051781,0.030738
-0.14287,-0.5116,0.086021,-0.36632,-0.048915,-0.015527,0.024019,0.02571
-0.28301,0.20411,-0.22986,-0.077867,0.002512,-0.016694,0.019419,-0.0888
0.10871,0.35243,-0.24166,-0.1291,-0.008879,-0.0099333,-0.11084,0.023025
0.25169,0.10058,0.25393,0.073723,-0.036442,-0.010461,0.023627,0.056463
-0.0021739,-0.75809,-0.19477,0.39219,0.013439,0.021124,0.0086752,-0.043154
-0.10621,-0.53001,-0.11678,-0.076281,-0.062403,-0.0087438,0.016292,-0.025776
0.25128,0.53499,0.43564,0.57114,0.13451,0.071783,0.015481,0.069578
-0.040305,0.23551,0.14432,-0.58287,0.0027124,-0.018787,-0.0012312,-0.0070828
-0.16973,0.37106,-0.1455,-0.12771,-0.082676,-0.054306,-0.064756,-0.07611
-0.22383,0.41323,-0.19866,-0.3094,0.026919,-0.011839,0.0283,0.0030341
0.141,-0.85422,-0.022777,0.31297,0.0035125,0.06126,0.082767,0.12085
0.097364,-0.085709,0.21018,0.28893,-0.051208,-0.030685,-0.049799,-0.050898
0.076527,0.047949,-0.20311,-0.27837,0.011282,-0.0065971,-0.010164,-0.020118
-0.21629,-0.59369,-0.25492,-0.16206,0.058183,-0.014874,0.0061272,-0.028999
0.12734,1.012,0.27343,0.71489,-0.082467,-0.016218,-0.04806,-0.022754
-0.10174,-0.25394,-0.10259,-0.81401,0.089137,0.036619,0.037992,0.03007
0.18334,0.48846,0.64792,0.84935,0.02586,0.034689,0.076651,0.082879
-0.12702,-0.28757,-0.28037,-0.70527,-0.014737,-0.029419,-0.13522,-0.082764
0.0047792,-0.10884,-0.29457,-0.044339,-0.024974,0.00084943,0.03529,-0.0056265
0.091792,-0.57963,-0.24715,0.28185,-0.075084,-0.022774,0.041523,0.033271
0.044808,0.11106,0.13458,-0.17448,0.038409,0.0091115,0.0087484,-0.012811
0.11042,0.38504,0.46728,0.70257,-0.0042127,0.041708,0.007568,0.067089
-0.24551,0.23566,-0.42892,-0.93075,-0.014715,-0.05801,-0.05551,-0.11774
-0.016987,-0.18668,0.37575,0.12201,-0.0080167,0.022181,-0.016242,0.034069
-0.21999,-0.075082,-0.18868,0.38643,0.047625,-0.0070802,0.00044142,-0.024644
0.23256,-0.45115,-0.16069,-0.45502,0.027341,0.010181,0.072595,0.065138
0.15559,0.029912,0.30424,0.5695,0.11052,0.058118,0.028135,0.076454
-0.15089,0.89165,-0.32428,0.19752,-0.16447,-0.089968,-0.078567,-0.1161
-0.12108,-0.093187,0.024854,-0.53675,-0.017359,0.003379,0.064619,-0.012861
0.15407,-0.15991,-0.061912,-0.14628,-0.027341,-0.0055459,-0.097341,-0.028136
-0.0032354,-0.26202,0.10293,0.042993,0.046787,0.0083713,0.021237,0.041113
0.29061,0.23433,0.43284,-0.076818,0.11836,0.1156,0.084294,0.14809
-0.081824,-0.34754,-0.29205,0.35422,-0.062984,-0.082131,-0.10346,-0.12886
-0.26218,-0.11987,-0.073106,0.022995,-0.059659,-0.029951,0.012788,-0.078425
-0.18933,-0.18583,0.47133,0.091714,0.0038468,0.02232,0.050431,0.049847
0.11975,0.15603,-0.77638,-0.20817,-0.012211,-0.026699,0.0096756,0.014243
0.085825,0.089754,0.098359,-0.13803,-0.059854,-0.020583,-0.0077313,0.0026909
0.10652,0.44458,0.22212,0.6344,0.12769,0.072059,0.0061679,0.070195
0.040696,0.4831,-0.20748,-0.72218,0.020146,0.016939,-0.003199,-0.0096391
-0.18231,-0.87217,0.21039,-0.085086,-0.0068032,-0.029684,-0.051353,-0.064913
0.17949,0.29832,-0.17086,-0.049325,-0.054454,-0.036635,-0.021001,-0.017594
-0.13183,0.31143,0.42289,0.5332,-0.037014,-0.011875,0.025457,0.0071608
0.11033,-0.56164,-0.16537,-0.048157,0.068459,0.044391,0.080282,0.048223
-0.086058,0.13337,0.08567,-0.10525,-0.059089,-0.016522,-0.036201,-0.027421
-0.2363,-0.081972,0.071419,0.089237,0.079485,0.031693,-0.02718,-0.032477
0.14436,-0.36834,-0.46916,0.10653,-0.024471,-0.0065141,0.021262,0.040644
0.22036,-0.014654,-0.015347,-0.48973,-0.066971,-0.045385,-0.031705,0.019829
0.0075774,0.12263,0.19687,0.39585,0.045258,0.047807,0.040251,0.022019
-0.095422,0.33597,-0.05151,-0.12518,-0.00048023,-0.023771,-0.0209,-0.054576
0.11449,0.32208,0.19374,-0.15166,0.038091,-0.0021364,-0.020018,-0.0070128
-0.35491,0.16443,0.091058,-0.039982,-0.057438,-0.0041866,0.011545,-0.030703
0.10574,-0.69899,-0.14575,0.40019,0.02595,0.0016899,0.050324,0.061851
0.027719,0.19625,-0.25584,-0.329,-0.0080308,0.0080521,-0.059875,-0.0026969
-0.0030384,-0.079749,0.13852,0.16404,-0.033828,-0.0004164,0.032628,0.010201
0.21649,0.0021446,-0.16389,-0.0040931,-0.051045,-0.046973,-0.062622,-0.071102
-0.001423,0.54161,0.27521,-0.24189,0.14361,0.071519,0.068628,0.073972
-0.14932,-0.19521,0.080232,0.2438,-0.0046474,0.0033286,0.012504,-0.03086
0.02247,-0.070877,0.3275,0.1435,0.027311,0.013777,-0.035517,0.036562
-0.07996,-0.68509,-0.3841,-0.055722,-0.049993,-0.038135,-0.028441,-0.043802
0.090384,0.42211,-0.27627,0.16498,-0.057243,-0.012133,0.033799,0.032982
-0.091072,-0.55129,0.031187,-0.36952,-0.033693,-0.01003,0.018403,-0.068827
0.0091153,0.15666,-0.057274,-0.44954,0.036341,-0.00067797,-0.0043571,0.04151
-0.0068525,0.24407,0.32485,0.33215,0.028159,0.00033631,-0.011126,-0.0032065
0.041122,0.32699,0.10769,0.72862,-0.065611,-0.014667,-0.05671,-0.0078309
0.020207,0.1564,-0.15268,-0.80241,0.099217,0.048216,0.046252,0.042928
0.031422,0.39904,0.061448,0.18967,-0.0083254,0.0093964,0.0085422,-0.015464
0.18316,0.013592,-0.16936,-0.0088047,-0.028839,0.0016926,0.056569,0.066452
-0.10391,-0.42659,-0.11618,0.2547,0.029595,-0.014047,-0.05199,-0.086834
-0.13554,-0.23035,0.066639,-0.079852,0.025833,0.016724,-0.020355,0.039932
-0.1389,-0.42178,-0.15119,0.034891,-0.095469,-0.05456,-0.02043,-0.11591
0.073549,-0.12887,0.44101,-0.34788,0.024402,-0.0013856,0.010328,0.055105
-0.020833,-0.067444,-0.064593,0.081084,0.0021053,0.012256,0.03296,-0.0092503
0.048052,0.074942,0.11843,0.098564,-0.0063997,0.0099966,-0.014883,0.0039146
0.42248,0.5977,0.041653,0.16045,0.077018,0.031187,0.046654,0.14968
-0.44278,0.26109,-0.22742,0.2619,-0.044205,-0.017592,-0.024448,-0.048174
0.00053515,0.018157,-0.3311,-0.33525,-0.010115,-0.018844,-0.017093,-0.081606
0.18303,0.31007,0.35561,0.12477,-0.0074491,0.019849,-0.0092629,0.026119
-0.23085,-0.74678,-0.36083,-0.3657,-0.097879,-0.049844,-0.032094,-0.060792
0.1493,-0.14139,0.1165,-0.24181,0.10997,0.045471,0.023843,0.017179
-0.060147,0.040959,0.10388,-0.10105,0.0072591,0.0087147,-0.021175,0.017981
0.18639,0.034306,0.07345,0.82713,0.055132,0.027049,0.098314,0.058893
-0.10499,0.25288,0.16011,-0.16351,-0.066884,-0.056203,-0.024227,-0.055417
-0.022169,-0.14528,0.035973,0.36812,0.0079065,0.00070341,-0.014181,0.026433
-0.21556,0.14867,-0.12884,-0.60732,0.013149,0.033319,-0.028208,-0.039675
-0.015159,-0.37403,-0.087681,0.12132,-0.067601,-0.044549,-0.027597,-0.0042779
0.45248,0.21805,0.061523,0.17784,0.046138,0.040456,0.018687,0.085106
-0.15751,0.49151,-0.19314,-0.52578,-0.013416,-0.016237,0.0090503,-0.022169
0.09192,-0.47747,0.50459,0.52369,0.042459,0.043487,0.053036,0.024943
-0.17388,-0.31479,-0.60457,-0.62132,-0.059734,-0.092435,-0.067765,-0.086322
-0.16456,-0.10714,0.07366,0.21706,0.039593,0.037445,0.0064791,-0.019953
0.1377,0.69088,0.13542,0.63918,-0.018509,0.0039245,0.010654,0.021363
-0.045442,0.30284,0.053319,-0.0038827,0.016533,-0.0051236,0.0077444,-0.0007028
-0.0076129,-0.58108,0.081912,-0.20396,-0.010912,0.033922,-0.0018648,0.024122
0.090163,-0.030869,-0.19622,-0.31915,0.016926,0.0038293,0.0054973,0.010787
-0.015409,-0.47045,-0.089996,-0.52701,-0.047928,-0.0097221,0.0064417,-0.0087451
0.14562,0.62729,0.4808,0.40947,0.044805,0.01629,-0.022609,0.067506
-0.075325,0.12381,-0.2257,0.36793,-0.05637,-0.067048,-0.019462,-0.065073
-0.1719,-0.25314,-0.10937,-0.21224,0.11715,0.052328,0.054522,0.01515
0.087753,0.23977,0.14718,0.40388,-0.036514,-0.016516,-0.01208,-0.05168
0.091084,0.12017,-0.10835,-0.10504,-0.041231,-0.031525,-0.032241,0.0072724
-0.008946,-0.366,-0.098946,-0.37434,-0.038077,0.022975,0.024899,0.05077
0.089453,0.084269,0.21041,0.33465,0.074104,0.037807,0.065336,0.054848
-0.40484,-0.42665,-0.36333,-0.27092,-0.08,-0.049255,-0.15319,-0.16837
0.18692,-0.098989,0.22428,-0.16313,0.038469,0.019886,0.08035,0.076235
0.18533,0.43853,0.21419,0.25728,0.023146,0.026702,-0.015034,0.069888
-0.18949,-0.028729,-0.26085,0.067494,-0.032272,-0.052132,-0.0093214,-0.10917
0.033407,0.13511,0.38622,-0.036755,0.090955,0.041182,0.058776,0.10176
-0.010538,0.22055,-0.56104,0.11018,-0.052464,-0.013799,-0.021382,-0.070528
0.095399,0.31337,0.34597,-0.35659,-0.071828,0.0092778,0.023851,0.0069627
