-0.66522,-0.016093,0.003405,-0.0057088,-0.017538,-0.033605,-0.05466,-0.47257
-0.49314,0.0089928,0.0065926,0.010144,0.021825,0.026438,0.098188,0.15115
-0.1087,0.033781,-0.013843,-0.01311,-0.032886,-0.030833,-0.081868,0.096798
0.57972,0.011122,0.0041855,0.018168,0.0057763,0.021613,0.069947,0.12504
0.80305,-0.08247,0.021346,0.017998,0.036302,0.067043,0.31931,0.31628
-0.82751,-0.098356,-0.056199,-0.037024,-0.042734,-0.081714,-0.48291,-0.57815
0.38202,0.14355,0.052907,0.032887,0.050109,0.067644,0.13071,0.15291
0.028941,0.0031025,-0.010442,-0.0064908,-0.01309,0.0071871,0.31469,0.14138
-0.13514,0.019781,-0.019302,-0.029983,-0.036841,-0.068104,-0.37028,-0.16922
0.3675,0.037539,0.011107,0.0016366,0.025852,0.052245,0.12117,0.24996
-0.92953,-0.20154,-0.028248,-0.0052783,-0.0046584,-0.015079,0.006844,-0.18186
0.025469,0.098978,-0.0043638,0.0039592,-0.026868,-0.059576,-0.12751,-0.037548
-0.025138,0.086805,0.059299,0.04484,0.037191,0.035637,0.031191,-0.19424
0.45321,-0.012392,-0.0015735,0.0077219,0.0075894,0.028242,0.13255,0.21373
0.65373,0.011448,0.015701,-0.014004,0.0090352,0.0042194,-0.079716,0.3262
-0.6509,0.017049,-0.0066041,-0.012903,-0.013446,-0.020611,0.028776,-0.28648
0.17137,-0.14425,-0.022126,-0.0049021,-0.013203,0.008741,-0.032827,0.040622
-1.0454,-0.058051,-0.10154,-0.044839,-0.029404,-0.032363,0.072318,-0.22991
0.65548,0.15934,0.051929,0.023587,0.0083019,0.0048809,0.00086003,0.091721
0.228,-0.0063733,0.11031,0.028752,0.029783,0.066106,0.057405,0.2817
0.6853,0.032278,-0.058777,0.0023101,0.0197,-0.012517,-0.11005,-0.21966
-0.71235,-0.11389,-0.032863,-0.024011,-0.037232,-0.074627,-0.033434,-0.04268
0.32463,-0.068826,0.016854,0.028373,0.031184,0.082873,0.052108,0.19715
-0.2742,0.035087,-0.073065,-0.051118,-0.079489,-0.14957,-0.33083,-0.49966
-0.19559,0.2444,0.096281,0.03458,0.037127,0.07929,0.2153,0.27996
-0.28827,-0.04351,0.017302,0.012021,0.052895,0.089328,0.25983,0.056884
0.1331,-0.0020709,-0.020998,0.013817,0.022352,0.036308,0.22364,0.24124
0.7255,0.023225,0.035757,0.00055821,-0.031304,-0.064596,-0.36288,0.29704
-0.8751,-0.40664,-0.086353,-0.043798,-0.038022,-0.041802,0.015438,-0.21795
0.49236,0.23081,-0.0050565,-0.0024668,-0.013636,-0.043783,-0.25057,-0.70584
0.65366,0.099396,0.052604,0.014873,-0.0051133,-0.031203,0.074504,0.35501
-1.0343,-0.15194,0.0081834,0.01588,0.065714,0.11368,0.21124,-0.19108
0.5424,0.095006,0.010017,0.00057007,-0.019738,-0.022443,-0.056792,0.25251
-0.37862,0.060288,-0.051152,-0.015259,-0.019048,0.03775,0.061852,0.12
0.25899,0.026398,0.020285,-0.0078911,-0.033549,-0.095716,-0.25903,-0.25527
-0.70119,-0.15416,-0.10342,-0.023883,0.03066,0.054102,0.12998,-0.04822
0.68402,0.0425,0.046825,0.022978,0.025154,0.0263,0.26767,-0.1306
0.043501,-0.016514,0.15087,0.046914,0.027897,0.00022838,-0.25388,0.74091
0.012489,0.097888,-0.049159,-0.022385,-0.039557,-0.048217,-0.046956,-0.34884
0.41309,0.064424,-0.014551,0.0024123,-0.0057634,0.020685,0.20501,0.46453
-0.58059,-0.0946,-0.058338,-0.027429,-0.027428,-0.051882,-0.18944,-0.40059
0.32439,-0.075553,0.053255,0.028358,0.059123,0.10031,0.43809,-0.079961
-0.71696,-0.04325,-0.039664,-0.018062,-0.02759,-0.031305,-0.43803,-0.31709
0.39884,0.087946,-0.0014578,0.0049626,0.001477,-0.017473,-0.068196,-0.28292
-0.6201,0.029185,-0.011815,-0.012004,-0.0097073,0.016803,0.12745,0.40835
0.94428,0.054578,0.031132,0.017103,0.0017872,-0.021769,0.074527,-0.020213
0.10771,0.0010753,0.0029355,-0.0089817,0.0052832,0.086436,-0.14361,0.15445
-1.1149,-0.26298,-0.0097789,-0.027353,-0.045482,-0.24335,-0.060154,0.10725
0.86724,0.099428,-0.053196,-0.0063302,0.014085,0.052654,-0.1619,0.21401
0.22761,0.15159,0.076369,0.07007,0.067139,0.15525,0.36752,0.15259
-0.65293,-0.11397,-0.027008,-0.047944,-0.042491,-0.051978,-0.0094787,-0.69833
0.57202,0.1775,0.058596,0.045894,0.060001,0.14215,0.22147,0.07748
0.067016,-0.013774,-0.010783,-0.023591,-0.024231,-0.075128,-0.23254,-0.1745
-0.47281,-0.16543,-0.071487,-0.0067147,-0.045703,-0.10295,0.060372,0.39192
0.47672,0.080734,0.055686,0.025845,0.034163,0.049974,0.14868,0.48392
-0.76884,-0.11221,-0.05941,-0.051236,-0.034963,-1.6052e-05,-0.03558,-0.80628
-0.047072,0.0051,0.012563,0.011841,-0.010996,-0.011358,-0.43349,0.491
0.49519,0.10433,-0.0020322,0.0041062,-0.0031805,-0.085906,-0.24917,-0.45697
0.010629,-0.056467,0.013928,-0.0039948,0.027848,0.05762,0.31581,-0.16107
-0.34656,0.0076286,-0.0020158,-0.012206,-0.042541,-0.072728,-0.14124,0.016864
0.4452,0.15674,0.083044,0.050088,0.098468,0.21083,0.49346,0.30811
0.12518,-0.17865,-0.058898,-0.027779,0.0057255,0.0022323,-0.018115,0.21569
-0.5146,-0.013417,-0.060517,-0.019082,-0.10205,-0.19074,-0.11059,0.076239
0.80777,0.19215,0.10178,0.068384,0.095226,0.21764,0.26402,0.52098
-1.1358,-0.25681,-0.10304,-0.070216,-0.082484,-0.22612,-0.3012,-0.77359
0.63591,0.15562,0.090874,0.033589,0.020663,0.047901,-0.16764,0.071711
-0.068484,-0.078333,-0.097453,-0.042441,-0.033205,-0.023103,-0.11927,-0.49291
0.47384,0.0098607,0.043168,0.052868,0.10721,0.17791,0.23959,0.40623
-0.50535,0.036928,0.036354,-0.0011322,-0.05039,-0.075579,0.17234,-0.36316
0.13375,0.06469,-0.024096,-0.032791,-0.045004,-0.080168,-0.088,-0.12723
-0.74822,-0.040468,0.0023201,0.012512,0.029849,0.016153,-0.080808,0.78071
0.43792,-0.06058,0.0059248,-0.013546,-0.01296,-0.0047921,-0.17261,0.050459
0.25136,0.10532,-0.029363,-0.0013035,-0.00892,-0.025198,0.01307,-0.035371
0.65795,-0.0039592,-0.0025237,0.010602,0.026814,0.072691,0.2126,0.023403
-1.26,-0.2398,0.039035,0.0070494,0.04779,0.13307,0.15476,-0.50046
0.39853,0.18747,0.0011565,0.0041837,-0.070659,-0.21095,-0.18953,0.21245
0.42308,0.044412,0.20399,0.049346,0.077938,0.13452,0.13484,0.0054049
-0.46167,-0.22259,-0.32885,-0.091481,-0.092255,-0.11175,-0.026668,-0.050891
0.4591,0.19207,0.012511,0.0037728,-0.010939,-0.059177,-0.28202,-0.17386
-0.077677,-0.00012494,0.01012,0.014797,0.056133,0.12021,-0.012998,-0.16632
0.18804,-0.017909,0.01642,0.011679,-0.00066534,0.012088,0.093337,0.44997
-0.77208,0.052204,0.10247,0.0017817,-0.048907,-0.087086,-0.018102,-0.17583
0.5465,-0.0017873,0.08114,0.046957,0.074951,0.095483,0.15897,0.29911
-0.49806,-0.087475,-0.1102,-0.048881,-0.043784,-0.081687,0.05928,-0.15147
-0.0612,-0.010892,-0.011246,0.018166,-0.015173,0.013182,-0.071102,0.2024
0.42967,0.062831,0.080091,0.020866,0.097628,0.15243,0.091295,0.21486
0.36812,-0.070013,-0.11079,-0.056826,-0.080905,-0.1415,-0.16136,-0.65032
-0.31351,0.035911,0.071351,0.011573,-0.019801,-0.017742,0.11232,-0.26386
-0.12129,0.014041,-0.030387,-0.00020086,0.054423,0.12504,0.058396,0.63856
0.039021,-0.0016901,-0.048898,-0.029009,-0.076574,-0.16588,-0.37022,-0.30893
-0.45832,-0.017673,0.016313,0.04321,0.048892,0.040214,0.16454,-0.040157
0.97112,-0.0089832,0.0099745,0.022099,0.049002,0.12771,0.16691,0.3877
-0.54926,0.010058,0.003646,-0.02897,-0.1064,-0.20618,-0.25588,-0.73045
0.46406,-0.029957,-0.040493,-0.02343,0.021206,0.040474,-0.16028,0.54031
-0.37111,0.082267,0.10508,0.031188,0.034144,0.056785,0.25592,0.13324
-0.15362,0.018361,-0.051364,-0.021484,-0.035976,-0.0078534,0.074372,-0.15351
0.36342,0.043157,0.052556,0.068063,0.11541,0.14354,0.19458,0.5461
-1.0795,-0.21955,-0.036964,-0.036879,-0.059175,-0.12263,-0.095958,-0.82577
0.42239,0.096033,0.046194,0.014352,0.0018056,0.067081,0.22243,0.34366
0.02994,0.043177,-0.058557,-0.036914,0.00033015,-0.023715,-0.32399,-0.29396
0.43992,-0.027763,-0.008553,0.011804,0.013417,0.0013503,0.017589,-0.12532
0.65721,0.077649,-0.0076549,-0.019499,-0.076984,-0.078209,-0.1864,0.83161
-0.6381,-0.16449,-0.063927,-0.044834,-0.021352,-0.060366,0.0074414,-0.42356
0.41818,0.066127,0.05725,0.053372,0.016199,-0.015742,-0.15054,-0.2329
-0.25638,0.043329,-0.010662,-0.0055181,0.028184,0.095179,0.24041,0.2196
-0.18033,0.017882,0.084785,0.044823,0.054256,0.078141,0.082279,-0.32691
-0.30584,-0.0091739,-0.0070367,0.0019225,0.03263,0.036116,0.11332,0.14837
-0.18097,0.041499,-0.011867,-0.024344,-0.051601,-0.076258,-0.014767,0.32968
0.68367,-0.078824,-0.046291,-0.010249,-0.010298,-0.023209,-0.10466,-0.037877
-1.0375,-0.14237,-0.016236,-0.010411,-0.014815,-0.045809,-0.070018,-0.64135
0.57537,0.1409,-0.015416,-0.0093326,-0.056961,-0.080845,-0.11513,0.43867
-0.026211,0.052857,0.073126,0.031762,0.082238,0.19223,0.48413,-0.037517
0.11462,-0.062659,-0.040132,-0.028144,-0.042487,-0.054981,-0.46289,0.32095
0.48894,0.082952,0.042627,0.029254,0.029655,-0.018542,0.11866,0.20074
0.22245,-0.011298,-0.015233,-0.0074234,0.024885,0.11295,0.093225,-0.2265
0.067764,-0.073327,-0.0034422,0.017694,0.013017,-0.036777,-0.001836,-0.0055697
-0.97693,-0.003052,-0.031908,-0.020656,-0.061224,-0.15641,-0.049644,-0.568
0.5375,0.15132,0.0084336,-0.013202,0.012519,0.081292,-0.10371,0.16722
-0.52552,-0.072077,0.070672,0.024509,0.038462,0.027445,-0.044376,0.074757
-0.2846,-0.15798,-0.10277,-0.0479,-0.061796,-0.12255,0.037938,-0.4594
0.48109,0.018874,-0.019253,0.019947,0.024209,0.10843,0.10772,0.51475
-0.36309,-0.056371,0.040542,0.0097383,-0.00018847,0.041579,0.0040202,-0.20993
0.83288,0.20331,0.030307,0.015644,-0.009584,-0.064228,-0.075805,0.55474
-0.083035,0.017793,0.036434,0.0067493,0.027795,0.049828,0.14233,0.17975
-0.13622,-0.002595,0.012323,0.0066981,-0.028139,-0.091992,-0.13147,-0.39891
0.094142,0.0021391,-0.0028864,-7.5381e-05,0.057449,0.17489,0.49137,0.01561
-0.16612,-0.12399,-0.12647,-0.052711,-0.035455,-0.1259,-0.39041,0.23406
-0.48827,-0.0060238,0.024192,-0.010774,-0.048949,-0.072693,-0.35007,-0.38725
0.41509,0.03548,0.050408,0.023898,0.024644,0.052775,0.14105,-0.022539
-0.59974,-0.02328,-0.032467,0.02753,0.052172,0.062245,0.065477,-0.093632
0.71206,0.090715,0.079972,0.023194,-0.013733,0.0016704,0.13314,-0.12842
-0.30595,-0.091715,-0.034431,-0.020723,-0.0095765,-0.020551,-0.11719,0.10645
0.61647,0.13995,0.0068704,-0.0029701,-0.0062135,0.0024889,0.25221,0.39398
0.027947,-0.058435,-0.02291,-0.017503,-0.0040662,0.015404,-0.031543,-0.43422
-0.43108,-0.14032,-0.030176,-0.017515,-0.018985,-0.052503,-0.11621,0.086735
0.058853,0.042474,0.016263,0.012707,-0.0040871,-0.060615,-0.32913,0.47598
-0.31484,0.060047,-0.00074951,-0.0047425,0.048672,0.13205,0.26018,0.0094306
0.2623,0.091938,0.051707,0.024188,-0.032184,-0.091073,0.10573,-0.13955
-0.47056,-0.072906,-0.037154,0.0060676,-0.003989,0.036443,0.013051,0.084663
0.15058,-0.020501,-0.0015481,-0.011959,0.00089739,0.10912,0.13929,-0.42625
0.31578,-0.032128,0.0024147,-0.0062831,-0.0093793,-0.20834,-0.4209,-0.44401
0.091992,-0.053059,-0.0095355,-0.00029065,0.027822,0.07661,0.16936,0.43234
0.34413,0.10433,-0.037333,-0.017487,-0.012577,0.010884,-0.10466,0.026186
-0.070361,0.0027471,0.083123,0.043535,0.03322,0.070788,0.17975,0.66079
-0.31761,0.064398,0.00031014,0.0028952,0.016399,0.052726,0.15596,-0.59936
-0.85344,-0.085272,-0.0044382,-0.0067566,-0.024343,-0.098523,-0.32425,-0.082099
0.31843,0.046518,-0.016886,-0.016744,-0.018919,-0.0083693,0.098209,-0.14077
0.44271,-0.13325,-0.083612,-0.042629,-0.061068,-0.075374,-0.077486,0.19732
0.16834,-0.0065647,0.061421,0.03299,0.044808,0.099145,0.23328,0.66115
0.16551,0.1305,-0.0031768,0.0073189,-0.01327,-0.1014,-0.18215,-0.19282
0.078907,-0.049536,0.019932,0.013562,0.023152,0.058185,0.080553,-0.29183
-0.21363,0.03178,-0.056422,-0.033857,0.014062,0.024064,0.12888,-0.076771
-0.44385,-0.031894,0.049109,0.005932,-0.024484,-0.031237,-0.24963,-0.25901
0.33717,0.032339,0.02383,0.02362,0.024832,0.087879,0.116,0.14095
-0.26356,0.0047994,0.054755,0.034686,0.052422,0.029672,-0.00091198,-0.011654
-0.0039917,0.056184,-0.077582,-0.039336,-0.075062,-0.14398,-0.21681,-0.19366
0.0083377,-0.056926,-0.022437,-0.0036151,0.016621,0.050351,0.11042,-0.0069324
-0.1532,-0.16374,-0.038417,-0.022754,-0.024939,-0.013429,0.17024,0.22597
0.38967,0.14901,0.069146,0.035559,0.041656,0.077702,0.058615,0.27285
0.59258,0.02152,0.026404,0.006873,-0.018563,-0.08331,-0.12079,0.41301
-0.83248,-0.10094,-0.073042,-0.054335,-0.041853,-0.028158,-0.077138,-0.48422
0.59046,0.086556,0.013093,0.023791,0.042102,0.047828,-0.082609,0.36996
-0.70314,-0.017137,0.01948,0.014853,-0.016394,-0.011213,0.22279,-0.20471
0.11978,0.018168,0.032479,0.012907,0.041021,0.037625,-0.11413,-0.39446
0.13423,0.036722,-0.0021192,-0.012909,-0.011508,0.023397,0.030837,-0.11628
0.064146,-0.031331,-0.052597,-0.015315,-0.040405,-0.091961,-0.031188,-0.35317
0.15787,-0.076205,0.0064562,-0.0095737,-0.0058867,-0.0028371,0.041677,-0.013827
-0.21775,0.035283,0.034732,0.035831,0.069197,0.088364,-0.018294,0.69868
0.14153,-0.02465,-0.053505,-0.027402,-0.049147,-0.052314,0.18528,0.10516
0.097592,0.11149,0.093389,0.050726,0.02984,0.043934,-0.21648,0.1732
-0.56477,-0.063872,-0.032435,-0.0346,-0.03772,-0.045084,-0.06845,-0.25003
0.0021882,-0.050566,-0.087365,-0.025789,-0.0021995,-0.0075154,0.1056,-0.16507
0.3959,0.065525,0.053388,0.022204,0.034275,0.02294,-0.10796,0.064458
-0.084233,-0.035978,0.0067533,-0.015887,-0.0071061,0.01403,0.17478,0.22855
0.14068,0.0041161,0.0068434,0.023781,0.0057612,-0.019591,-0.099344,-0.071358
0.23341,0.052701,0.061242,0.016067,0.0097447,0.038473,-0.014593,-0.49098
-0.13725,-0.046839,-0.041133,-0.007821,-0.0034268,-0.015387,0.11806,0.71465
-0.25681,-0.013644,-0.058112,-0.040006,-0.04178,-0.03282,-0.075206,-0.5734
0.15936,0.042556,0.0026303,-0.002203,-0.019317,-0.052552,-0.078061,-0.056389
-0.158,-0.0035041,0.039816,0.027687,0.033024,0.07456,0.39095,-0.088647
-0.16411,-0.066013,-0.047737,-0.0047744,-0.001453,-0.041154,-0.48092,0.37598
0.047135,0.03475,0.029429,0.0021973,0.0028252,0.015404,0.0088676,-0.31898
0.31338,0.033349,0.029446,0.025322,0.05422,0.057672,0.172,0.41888
-0.19821,0.00041886,0.022788,-0.0056454,-0.026516,-0.030859,-0.031538,-0.039187
0.14115,-0.08707,-0.053078,-0.03604,-0.035973,0.00013795,0.31133,0.088929
0.18671,0.13851,0.035996,0.019976,0.041591,0.025605,-0.36283,0.050941
-0.63678,-0.072444,-0.046301,-0.025252,-0.051669,-0.087677,-0.14858,-0.16574
0.22696,-0.047739,-0.0035467,0.015595,0.0044019,0.034617,0.15665,0.15153
0.23881,0.02528,0.054431,0.025139,0.01424,0.008855,0.15413,-0.69091
0.16286,0.045001,-0.013381,-0.0046092,0.0087797,0.029504,0.086125,0.18473
-0.073959,-0.027918,-0.043186,-0.019108,0.026732,0.056765,-0.031271,0.040885
-0.20932,-0.022118,-0.0038562,-0.0028295,-0.026004,-0.10519,-0.35345,0.61872
0.19118,0.038263,0.049952,0.0051317,-0.016921,-0.026888,0.066103,-0.29169
-0.53085,0.011802,0.0012194,0.012626,0.045956,0.073056,0.15853,0.11696
0.47541,0.022737,-0.009153,0.0041337,-0.017131,-0.023657,0.050296,-0.45633
-0.24229,-0.031071,-0.019881,-0.035812,-0.049843,-0.027281,-0.038659,0.00035295
0.26356,-0.0014346,-0.0071542,0.017975,0.034011,0.039539,-0.14672,-0.0013636
-0.44934,-0.075694,-0.0096779,-0.0061978,-0.015195,-0.025571,0.1011,0.28362
0.4815,0.043611,0.043153,0.024624,0.01391,0.020148,0.071175,0.47406
-0.19141,-0.0019805,-0.0047221,-0.014486,-0.0032651,-0.010515,-0.03485,-0.46909
-0.068338,0.015175,-0.0048029,0.0092774,0.035146,0.069908,0.23421,-0.26594
0.57708,-0.0054636,-0.0040358,-0.013556,-0.026967,-0.059231,-0.42837,0.28438
-0.62404,-0.039711,-0.010423,-0.0050212,-0.0099645,-0.0078629,0.20219,0.10896
0.10666,0.084616,-0.01643,0.019059,0.0077952,-0.01103,-0.078409,-0.31014
-0.22652,0.023561,0.024492,0.0037992,0.010314,0.032176,-0.028361,-0.12294
0.48222,-0.051673,0.0026431,-0.0040841,0.0049512,0.0040268,0.29029,0.51372
-0.043475,0.029802,0.011491,-0.020307,-0.024374,-0.080217,-0.32442,-0.20451
-0.11004,0.0090972,0.027408,-0.0058142,7.348e-05,0.029278,-0.12093,-0.41713
-0.061425,-0.075644,-0.059042,0.00040872,0.0077202,0.051266,0.28519,0.60389
-0.33365,-0.006228,-0.0055866,0.014127,-0.0093409,-0.021926,-0.034403,-0.56186
0.1935,-0.032735,-0.0073206,0.019894,0.019291,0.0052426,-0.032009,0.39139
0.51628,0.063985,-0.0014333,-0.0055417,0.0079438,0.039311,0.12071,0.15165
-0.6186,0.019079,0.059285,0.0083096,-0.0039085,-0.020931,0.12665,0.12515
0.18368,-0.010223,-0.012381,-0.032144,-0.031375,-0.050058,-0.33489,-0.49311
0.19195,0.016126,-0.020941,-0.001766,0.01985,0.054011,0.25938,0.1325
0.0094853,-0.010423,0.03365,0.013617,-0.0059615,-0.0050047,-0.18387,-0.091682
-0.33248,-0.034648,-0.044009,-0.017171,-0.030278,-0.1093,-0.26509,0.038014
0.12522,0.06083,0.011527,0.023082,0.033053,0.054171,0.13459,0.16318
0.098144,-0.005402,0.0047169,0.0015155,0.019937,0.024817,0.2045,-0.47294
0.26966,-0.069743,-0.0021611,-0.0038708,0.0082076,0.021409,0.071139,0.40376
-0.34903,-6.6989e-05,-0.03272,-0.016716,-0.033902,-0.0033031,-0.17901,0.043136
0.28493,0.054371,0.069192,0.040846,0.041384,0.051468,0.14863,0.19397
-0.43307,0.0067886,-0.024561,-0.026781,-0.024442,-0.010667,-0.057535,-0.10698
-0.20002,0.004844,-0.024843,-0.016739,-0.03667,-0.065908,-0.058792,-0.34719
0.64001,-0.022397,0.037238,0.023882,0.035539,0.0096342,-0.0001133,0.35279
-0.59179,-0.036265,-0.056897,-0.022237,-0.026714,-0.019225,0.16862,-0.30692
0.55923,0.041245,0.013219,0.024561,0.018876,0.019024,-0.12697,0.10909
-0.288,-0.031894,-0.0023302,-0.0075351,-0.014844,-0.023916,0.0087028,-0.048365
0.18841,0.018161,0.021423,-0.0090022,0.02106,0.055685,0.12142,0.14337
-0.088431,0.027937,0.045248,0.0047352,-0.0056831,-0.045907,-0.41286,0.04593
0.43718,-0.040947,-0.032701,-0.012977,-0.0086462,0.00055798,0.1901,-0.079341
-0.64778,0.015323,0.0059901,0.016191,0.0047118,0.0165,0.05989,0.053185
0.056495,0.017671,0.012595,0.014277,0.02675,0.018457,0.022372,-0.20025
-0.010617,-0.033427,-0.067717,-0.018616,-0.012861,0.014831,0.17694,-0.13219
-0.034255,0.026396,0.022944,0.0034902,-0.0049192,-0.017613,-0.27624,0.5028
0.23814,0.02539,0.0036584,0.0024623,0.00343,-0.01656,-0.083814,-0.48126
0.12921,-0.020865,0.023408,0.017328,-0.011546,0.0096755,0.15393,-0.022547
-0.21104,-0.057861,-0.034328,-0.03789,-0.018852,-0.041194,0.14696,0.46966
-0.094671,0.015679,0.018613,0.0086573,-0.0030315,0.017516,-0.092167,-0.017539
-0.038216,0.027529,-0.020383,0.0007142,0.03585,0.052208,0.14286,0.02512
0.22167,0.031993,0.012994,0.00078657,-0.003736,-0.0080626,-0.14549,-0.088555
0.25191,-0.0025585,0.032711,0.0088791,-0.0044859,-0.0074298,0.1002,0.089242
-0.36559,-0.029584,0.0070785,0.0093546,0.025957,-0.00065204,-0.061351,-0.51474
0.13073,0.020986,0.013504,0.0021753,-0.037209,-0.049971,-0.17884,0.47471
0.049849,0.00058692,-0.034814,-0.01272,0.0015265,-0.0064089,-0.056435,-0.64996
-0.4622,-0.075161,-0.021535,-0.0041519,-0.013914,-0.0098743,-0.027414,0.062529
0.10129,0.0047591,-0.0020234,-0.003438,0.010327,0.03412,0.084273,0.26785
0.23269,0.021692,-0.00011166,0.0049996,0.0039524,0.032419,0.041183,0.14484
-0.0043451,0.061607,0.0075692,0.0055145,0.021545,0.040035,0.28511,0.58154
0.17319,-0.016211,-0.041251,-0.0097036,-0.0074339,-0.036791,-0.055941,-0.36484
-0.1859,0.014576,0.049186,-0.0015747,0.0026354,-0.010879,-0.043244,-0.29638
0.0061974,-0.010391,0.021623,0.0064853,0.0045185,-0.023385,-0.15399,0.10412
-0.006555,0.0023755,0.009429,0.0066811,-0.0099244,0.018833,0.047145,-0.19948
0.30099,0.013727,0.020907,0.02246,0.0059589,0.0058581,-0.10707,0.084158
-0.32718,-0.054262,-0.060746,-0.032109,-0.033834,-0.0158,0.16109,0.29371
-0.037551,-0.029176,-0.024316,-0.008576,-0.012004,-0.038469,-0.065693,-0.13707
-0.20303,-0.0039324,-0.010256,-0.0006693,0.024843,-0.0073788,-0.094656,-0.022605
0.20176,0.0537,0.075257,0.022895,0.030203,0.062084,0.15084,-0.32373
-0.017032,-0.066295,-0.049059,-0.015974,-0.0033416,0.021791,0.037628,0.070742
0.31296,0.058588,0.022895,0.015559,-0.01294,-0.010775,-0.13666,0.093419
-0.2231,0.045701,-0.013837,-0.015327,-0.013975,-0.011959,-0.073548,0.13035
0.107,-0.011589,0.020064,0.00069783,0.0014693,-0.012889,0.21348,0.16085
-0.27822,0.049908,-0.00082873,0.0010447,0.0020931,-0.013528,-0.18738,-0.11023
0.59369,-0.0053652,0.024634,0.024657,0.034589,0.040788,0.13209,0.33317
-0.71123,-0.13176,-0.044495,-0.022344,-0.026326,-0.053114,-0.053332,-0.57216
0.37361,0.0447,0.0025621,0.00056324,-0.016914,-0.0062241,-0.040034,-0.0073571
-0.24032,-0.078113,-0.021643,-0.00041865,0.015638,0.032972,0.054417,0.064905
0.10217,0.093492,0.023785,0.013818,0.0085967,0.017562,0.16642,0.033705
0.37047,0.0052749,0.0064786,-0.0034488,0.00091312,0.010025,-0.09613,0.28081
-0.33936,0.017418,0.020733,-0.0050835,0.00044032,0.010366,0.10908,0.10273
-0.10964,-0.040978,-0.034477,-0.014186,-0.0082559,-0.036045,-0.28139,-0.64085
-0.084395,0.0028949,-0.010287,-0.022585,-0.032679,-0.027531,0.013558,0.11352
0.014366,0.0013052,-0.015861,0.0090904,-0.0021533,-0.018608,-0.067874,0.19528
0.32343,-0.0063277,0.050306,0.026325,0.021156,0.0065386,-0.15711,0.090272
0.35338,0.081521,0.031611,0.036907,0.037468,0.079309,0.53658,0.31545
-0.55863,-0.032417,-0.025668,-0.021912,-5.6294e-05,-0.0033758,-0.01661,-0.35477
0.0244,-0.0050288,0.01053,-0.0099577,-0.013462,-0.022873,-0.12839,-0.037072
-0.27453,-0.040166,-0.055871,-0.021565,-0.034352,-0.057586,-0.22072,-0.294
0.46332,-0.0056712,0.024493,0.012962,0.014927,0.024871,0.15847,0.22536
-0.093912,-0.011385,-0.014392,0.014961,0.032329,0.028664,-0.15665,-0.18346
0.16724,0.020603,0.03053,-0.0081126,-0.0059794,0.0079451,0.26135,0.40721
-0.23287,-0.01906,-0.043613,-0.017306,-0.014273,0.0013271,-0.003852,0.080764
0.27423,0.041696,0.021517,0.010986,-0.015954,0.016358,-0.079084,-0.032688
-0.25696,-0.015604,0.0078697,-0.00094166,0.012705,0.0061665,0.19091,0.049017
-0.37958,0.0046323,0.0099461,-0.013417,-0.052798,-0.1305,-0.44373,-0.47979
0.61254,0.079199,0.012806,0.013319,0.038143,0.083529,0.073023,0.5146
-0.71425,-0.065165,-0.037721,-0.0060055,-0.0029565,-0.046284,-0.061208,-0.45688
0.41725,-0.045503,-0.0085365,-0.00055884,0.019628,0.027756,0.17207,-0.14694
0.080053,0.01333,0.045703,0.02213,0.027921,0.02507,0.15848,0.17737
0.36879,-0.029125,-0.03146,-0.0082527,-0.0094822,0.039775,0.0018283,0.17092
-0.2412,0.061684,0.040836,0.0095802,0.008562,0.0015448,-0.093544,-0.15342
0.012533,-0.018775,-0.019146,-0.0029918,-0.0279,-0.019697,0.044336,0.25358
-0.26499,-0.012609,-0.00096306,-0.0075214,0.0055314,-0.0011754,-0.046413,-0.14837
0.2185,0.048908,-0.030024,-0.0046259,-0.040062,-0.060855,-0.13313,-0.090889
-0.095454,-0.0062399,0.010588,0.013001,0.038183,0.073981,0.18048,0.68334
-0.14652,-0.037663,-0.012049,-0.025266,-0.033178,-0.089383,-0.19377,-0.4844
0.33084,0.0090525,-0.019787,-0.01013,0.0038926,0.034739,-0.031437,0.12199
-0.59894,-0.0069657,0.042165,0.0038638,0.0091399,0.001061,0.1266,-0.25619
0.36448,0.023498,0.017676,0.0013983,0.006409,0.0051505,0.099201,-0.25691
0.2175,0.022292,0.024026,0.02974,0.035104,0.055215,0.12762,0.1896
