0.025156,0.0061989,-0.016137,-0.010601,0.0046878,-0.031172,-0.067131,-0.10189
0.0080554,-0.016262,0.00055282,0.013031,0.0046141,0.025431,0.010213,-0.085862
-0.010754,0.039018,0.017079,0.0055906,-0.0025785,-0.040757,-0.055022,0.11878
-0.00044062,-0.046545,-0.013502,-0.0095345,0.0066103,-0.0037556,0.00082878,-0.13844
0.054588,-0.0071267,0.010371,-0.0089474,0.008657,0.08881,0.11291,0.20248
-0.087521,0.032452,0.010632,-0.0004872,-0.0123,-0.068544,0.013221,-0.0094574
-0.019905,0.001977,-0.028247,0.0080187,0.0058851,-0.015621,-0.08149,0.22359
-0.0074505,0.010808,0.011028,0.00093269,0.015924,-0.034277,0.030532,-0.40431
0.059913,-0.0036928,-0.004274,0.0016679,-0.021635,0.054743,-0.11222,-0.049384
0.034237,0.028558,0.003999,-0.0054484,0.017921,0.048075,-0.040771,-0.24146
0.032892,-0.072397,0.012365,-0.0048676,-0.045216,-0.062144,-0.0042983,0.49092
0.047929,0.021323,-0.010543,0.018936,0.023409,0.067964,0.13117,0.33101
-0.19447,-0.010758,-0.0023966,0.0033542,0.013129,-0.045688,0.1871,-0.85018
0.047414,0.011002,0.052241,-0.0048273,-0.013142,-0.043294,-0.015261,0.41175
0.015324,0.032,-0.049906,-0.021281,-0.0080543,-0.018075,-0.31913,-0.021256
0.037132,0.013377,0.0035897,0.0086956,-0.0024144,0.03054,0.033487,-0.030704
0.026877,-0.036756,-0.045044,-0.0085594,0.011911,0.056214,0.12844,0.37551
-0.085529,-0.016476,0.023094,-0.0025845,0.011618,-0.018736,-0.073517,-0.2414
0.028449,-0.01916,0.020738,0.018997,0.020069,0.01693,0.1853,-0.078876
-0.021305,0.018021,-0.0049724,0.0016985,-0.0020624,0.022744,0.10812,-0.10811
7.4182e-05,0.048422,0.039954,0.016017,-0.023905,-0.087193,-0.42184,0.13739
0.10076,-0.013806,-0.016178,-0.0082114,-0.0068013,0.0073797,0.11179,-0.10971
-0.047206,-0.0046773,-0.032643,-0.03182,-0.0057718,0.025095,0.022472,-0.092617
-0.045459,-0.0025367,0.021841,0.007744,0.0024295,-0.073297,-0.063883,-0.053919
0.035435,-0.023332,-0.0089955,-0.014528,0.0021592,0.063485,0.056399,0.35015
0.054479,0.0028896,-0.015829,0.026291,0.0013707,0.052231,0.023807,0.33856
-0.051218,0.028921,0.0012711,0.012867,-0.0075001,-0.02945,0.14985,-0.35413
-0.078853,-0.015796,0.0031477,-0.0081429,-0.00073228,0.044427,-0.098511,-0.16527
0.065108,0.017049,0.020928,0.0020612,0.021919,-0.046994,0.29988,-0.21207
-0.088192,-0.036602,-0.00023558,-0.0036704,0.0059162,0.070906,-0.39937,-0.17439
0.086196,0.0030601,0.017595,-0.0021365,0.013793,-0.18791,0.19284,0.32228
-0.013351,-0.020022,-0.058585,-0.024736,-0.04046,0.028366,-0.33004,0.4021
0.14431,0.034987,0.091372,0.045689,0.02271,0.11874,0.19726,0.33733
-0.073802,0.058886,-0.063881,-0.02513,-0.0077757,-0.056606,-0.027282,-0.49042
-0.027199,-0.041986,-0.024352,-0.010409,0.00079556,0.073511,0.039025,-0.55855
-0.12999,-0.033261,-0.0087114,0.0042107,-0.02192,-0.068259,-0.05308,0.32057
0.047625,-0.016601,0.022243,-0.012218,-0.0055752,-0.028279,-0.18321,0.13267
0.068482,0.039078,0.029595,0.010859,0.010832,0.045147,0.29877,0.17735
0.0033712,0.00076888,0.0056372,0.018865,0.011723,0.0032906,-0.021591,-0.080693
-0.014349,-0.0067192,-0.018357,-0.011693,-0.010739,-0.068607,-0.060976,-0.27795
0.054881,0.032093,0.0044344,0.02053,0.037077,0.10971,0.34796,-0.46545
-0.14798,-0.031298,0.027034,0.021444,0.037777,0.076159,-0.050378,0.23408
0.049047,-0.017169,-0.036589,-0.032759,-0.071381,-0.14686,-0.22243,0.69574
0.091088,0.012128,0.024479,-0.017394,0.0062726,0.041488,-0.039563,0.22965
-0.0066656,-0.021288,-0.063114,-0.018565,-0.026227,-0.10906,-0.16773,0.057745
0.028608,0.02351,0.0055231,0.0028194,0.01088,0.073678,-0.12951,-0.21654
-0.045954,0.02964,0.027549,0.023551,0.016276,-0.026647,0.062954,-0.75546
-0.1372,-0.018266,0.034516,0.02839,0.029405,0.067712,0.2899,-0.57937
0.059155,-0.049734,-0.043645,-0.036889,-0.058669,-0.032564,-0.091247,0.93416
0.074206,0.083713,0.074434,0.023484,0.025906,0.0018111,-0.067511,-0.16018
-0.0060001,-0.039889,-0.040973,-0.016693,0.0021703,0.015373,0.12233,0.55407
0.029804,-0.014497,-0.038505,-0.016595,0.010853,0.00056182,0.31523,0.175
-0.091336,-0.0044726,-0.012244,0.0081537,-0.010667,-0.019523,-0.18553,-0.5807
0.11552,-0.01017,0.029574,0.033901,0.015402,-0.0066889,0.015148,0.19983
-0.09903,0.053978,0.00055241,-0.017874,-0.012992,0.045625,-0.36056,-0.32032
0.078026,0.023572,0.056503,0.024184,0.044216,0.050083,0.19072,-0.23638
-0.19666,-0.078207,-0.037302,-0.027979,-0.047863,-0.07272,-0.29557,0.22987
0.10052,0.0063219,-0.031065,-0.010785,-0.023976,-0.097127,0.22524,-0.10692
0.11012,0.019376,0.028343,0.012941,0.021975,0.16403,0.080676,0.29072
-0.0041631,-0.0075917,-0.030718,-0.011587,-0.019289,-0.16394,0.17792,-0.17689
0.014902,0.035158,0.034398,0.017341,0.040051,0.11524,-0.06685,0.47232
0.018188,-0.015948,-0.041307,-0.017093,-0.018278,-0.02829,-0.28354,0.17822
-0.22932,-0.035357,0.00068301,-0.012799,-0.014047,-0.069461,0.085761,-0.21419
0.092256,0.039981,0.036025,0.022995,0.029816,0.094838,0.051982,-0.13191
0.021813,-0.039475,-0.012908,-0.0029278,0.012139,0.0048652,-0.03851,-0.075835
0.020411,-0.015625,0.0025667,-0.0042467,-0.051235,-0.10438,0.38642,-0.079612
0.088376,0.064703,0.035522,0.019202,0.027211,0.1186,-0.438,-0.15385
-0.15669,-0.017475,-0.039383,-0.01079,0.0051176,0.024653,-0.090061,-0.020913
0.05904,0.042023,0.04291,0.030474,0.01498,-0.028099,0.24166,-0.87469
0.087378,-0.085655,-0.077659,-0.037152,-0.02173,0.021325,0.2585,0.72565
-0.12629,0.059587,0.035721,0.012379,0.003953,-0.10202,-0.36994,0.1176
0.0898,-0.038702,-0.00034022,-0.024533,-0.025511,-0.040012,-0.22418,0.71938
-0.053674,0.017238,0.02471,0.015831,0.038079,0.065949,0.4982,-0.026992
0.036707,0.023875,-0.014272,-0.0073151,-0.016304,0.012469,-0.33752,0.054637
-0.022172,-0.018852,-0.023432,-0.00018801,-0.0089218,-0.0049232,0.2908,-0.077315
-0.027379,-0.055935,-0.025891,-0.0094592,-0.017727,-0.048153,-0.18774,-0.3904
-0.017971,0.046108,0.04132,0.027693,0.027837,0.13356,0.26608,0.22531
0.068803,0.0069667,0.022486,0.0022679,0.010853,-0.013612,-0.45617,-0.85985
-0.0087196,0.0074135,-0.0037484,-0.0072407,0.0096939,-0.098233,0.037669,-0.23148
0.13307,-0.029596,0.002121,0.0072909,0.001123,0.060111,0.21827,0.78849
-0.16106,0.045306,-0.037714,-0.024225,-0.038159,-0.10828,-0.11549,-0.06965
-0.077463,-0.056291,0.025358,0.0077065,0.0091158,0.10802,0.22564,0.029575
0.017793,0.040889,0.011674,0.017161,0.0023432,0.084353,0.024188,0.047936
0.078681,-0.014858,-0.055451,-0.019398,-0.011637,-0.20253,-0.031674,0.33681
-0.13666,0.0024692,-0.0044106,-0.016233,0.0061361,0.098919,-0.09816,-0.60679
0.14477,0.029451,0.031575,0.01073,0.016427,-0.10532,-0.52738,0.19479
0.11701,-0.083527,0.036354,0.022056,-0.0044473,0.090461,0.41397,0.6296
-0.17515,0.09193,0.024957,0.025135,0.021339,0.10731,0.10709,-0.034226
0.20318,-0.00010962,-0.01883,-0.027324,-0.008092,-0.048023,0.04994,-0.76407
-0.0084818,-0.02474,-0.056428,-0.018485,-0.022707,-0.10326,0.13863,0.34052
-0.06239,0.0017313,0.021265,0.012358,0.01637,0.065524,-0.019748,-0.13029
-0.34273,-0.077191,-0.035743,-0.012975,-0.023732,0.11377,-0.036394,-0.48164
0.15025,0.06683,0.038474,0.015024,-0.0022948,-0.1854,-0.42783,0.17199
-0.098173,-0.057787,-0.0055214,-0.020516,-0.0050344,-0.058323,-0.037497,0.20298
0.15596,0.010784,-0.010759,0.0058589,0.023048,0.1599,0.41736,0.60979
0.28989,0.10169,0.023518,0.016549,0.011984,-0.099753,-0.30306,-0.47674
-0.11591,-0.0028212,-0.019208,-0.0035406,-0.0066535,0.054876,0.10868,-0.052457
-0.075014,-0.0049618,0.041222,0.031989,0.037714,0.12533,0.25662,-0.061095
-0.093544,-0.083682,-0.037165,-0.040581,-0.050033,-0.184,-0.029395,0.28529
0.0016133,0.035024,0.011203,-0.017931,-0.019776,-0.020741,-0.16277,0.04579
-0.054319,-0.046886,0.0063493,0.014029,0.0035404,0.099678,0.020221,-0.042094
0.028205,0.0067335,0.010321,0.016102,0.019908,0.012742,0.12,0.20437
0.23369,0.0083858,-0.032094,0.0036344,0.013632,0.037734,-0.12277,-0.58561
-0.18031,0.090648,0.0035965,-0.0003242,-0.015423,-0.10804,-0.20174,-0.3745
-0.0035095,-0.036021,0.015407,0.011589,0.041924,0.13632,0.13978,0.67458
-0.14323,-0.051999,-0.05946,-0.047015,-0.064568,-0.2307,-0.059692,-0.21655
0.15691,0.073142,0.052267,0.026589,0.039841,0.33665,0.40302,-0.05124
0.22329,-0.020812,0.061474,0.013358,0.0033373,-0.2638,-0.15118,0.50338
-0.21158,-0.029904,-0.078687,-0.024375,-0.049295,-0.10235,-0.26821,-0.36128
-0.047931,-0.056217,-0.024388,-0.0085091,0.0067745,0.094988,-0.017263,0.15389
-0.060713,0.0093814,0.036968,0.021994,0.038622,0.079126,-0.037898,0.2052
0.12408,0.10443,0.035182,0.0048341,-0.0084992,-0.00042929,0.18625,-0.5298
0.037384,-0.052038,-0.0061804,0.0027803,0.02947,0.2167,0.44449,-0.13331
-0.070409,0.0248,-0.0088368,0.00050649,-0.0271,-0.25304,-0.54477,0.39703
0.059621,0.030789,-0.0038313,-0.0094998,-0.014016,-0.080954,0.06139,-0.030859
-0.086488,-0.13511,-0.053405,-0.019155,0.0064337,0.20209,0.066507,0.1786
-0.030179,0.035344,0.014608,0.0030064,-0.012343,-0.22401,-0.15559,0.12198
0.043071,0.050217,0.0051705,0.018054,0.00029565,0.17212,0.24572,-0.39915
-0.12283,-0.027969,0.0044108,-0.013045,-0.0022003,-0.023564,-0.058248,-0.10418
0.12949,0.050553,0.035805,0.026813,0.011683,-0.06114,-0.15348,0.095049
0.18316,0.0119,0.0054537,-0.010991,0.01866,0.051359,0.038561,0.078513
0.0064838,0.027387,0.038034,0.013914,0.0031118,-0.022372,0.049855,0.01739
-0.1751,-0.067576,-0.077822,-0.031558,-0.011659,-0.025033,-0.0015193,-0.39252
-0.0036415,0.0079156,0.03245,0.032044,0.028794,0.20683,0.26025,0.53672
-0.019588,-0.12118,-0.053355,-0.045437,-0.086761,-0.27273,-0.64867,0.21832
-0.067731,0.06105,0.0083701,0.009388,0.055462,0.15292,0.50625,-0.28846
-0.062663,0.070824,0.014584,0.016892,0.0021281,-0.094719,-0.072133,-0.18535
0.16747,0.049525,0.035888,0.00065564,-0.0046839,0.054544,0.27182,-0.51359
0.052723,-0.041123,-0.005412,-7.3299e-05,0.019404,0.014914,-0.4783,0.31485
0.046763,-0.067644,-0.0072675,-0.00073981,-0.0427,-0.049167,0.15337,0.67409
-0.060794,0.017262,-0.031737,-0.001208,-0.0033422,-0.019983,-0.052351,0.25661
-0.12891,-0.012852,-0.016014,-0.0092233,0.012639,-0.021976,0.084223,-0.24547
0.084816,0.06055,0.032195,0.029895,0.036614,0.10939,0.063558,-0.17758
-0.099352,-0.0052374,0.019003,-0.016736,-0.001692,0.10096,-0.19164,-0.59276
0.068288,0.023429,0.029985,-0.00078519,-0.024213,-0.19561,0.077488,-0.0080866
0.032515,-0.026144,-0.013522,-0.00048855,0.00015602,0.086709,0.036012,0.08796
0.034813,-0.0062666,-0.02618,-0.015936,-0.014722,-0.16171,-0.17464,0.29747
0.027556,-0.034673,-0.016352,0.0075102,0.032511,0.1916,0.70377,0.23354
0.041381,-0.01786,-0.023477,-0.016096,-0.014554,-0.095859,-0.66468,-0.37241
-0.08025,-0.0026376,0.030439,0.030456,0.0080746,0.022543,0.0086482,-0.047777
-0.15745,0.034766,-0.0029006,0.0065858,-0.0089376,0.15606,0.17614,0.20056
0.021443,0.040156,0.033143,-0.0017209,-0.010743,-0.17186,-0.077297,0.31456
0.0904,-0.0015529,-0.0014908,-0.010035,-0.012707,-0.054784,-0.18265,-0.40926
-0.0586,-0.050821,-0.051468,-0.018292,-0.0067039,-0.023698,-0.0086035,0.63352
0.091321,0.05677,0.0088366,0.020459,0.062272,0.13265,0.48225,-0.69057
0.025403,0.0011162,0.02367,-0.0030626,-0.0086397,-0.015166,-0.18824,-0.25918
0.056437,-0.069273,0.0011308,-0.0028177,-0.00051981,0.064229,0.24442,0.5576
-0.011195,0.033061,0.0037356,-0.0099712,-0.030504,0.034855,-0.29813,-0.13225
-0.068914,-0.074829,0.0077743,-0.0010443,-0.036168,-0.2363,0.36491,0.31334
-0.11778,0.091212,-0.02635,0.00049089,0.021359,0.047324,-0.68562,-0.20193
-0.049505,-0.0081835,-0.029051,0.010127,0.024587,0.1432,-0.29722,-0.48903
0.13501,-0.014014,0.053544,0.012004,0.012195,-0.12869,0.20675,-0.05829
0.052387,0.065495,0.040969,0.013626,0.022821,0.12982,0.54162,0.31708
0.28838,-0.01223,-0.020506,0.0068477,0.0013746,-0.018922,-0.071008,0.47455
-0.44582,-0.091217,-0.060891,-0.055492,-0.07589,-0.098365,0.13488,-0.74877
-0.040238,-0.0074923,-0.0020169,0.021753,0.02526,0.01664,0.016267,0.49016
0.084107,0.051594,-0.0075206,-0.019219,-0.0076087,0.068609,0.076135,0.20322
0.045315,-0.015122,0.0092856,0.0092956,0.0054699,-0.082605,-0.30118,-0.21069
0.01599,0.074217,0.064985,0.029549,0.04151,0.07139,-0.18461,-0.40306
0.12146,-0.039022,-0.011287,-0.0048373,-0.016126,0.054628,0.17843,0.3936
-0.029106,-0.033755,-0.031139,-0.023013,-0.026254,-0.1558,-0.23857,0.32767
0.0010512,-0.034298,-0.048624,-0.0088669,-0.0040341,0.057639,0.41555,-0.71099
-0.22672,-0.0011126,0.0459,0.014515,0.011766,-0.015908,-0.31804,0.15233
0.067471,0.026892,0.0022874,0.00040071,-0.0022342,-0.0095156,-0.036914,0.03603
0.12453,0.072907,0.062183,0.026814,0.031888,0.068375,0.013788,-0.11108
-0.040926,-0.012164,-0.040895,-0.031595,-0.019119,0.10744,0.16684,0.41255
0.054999,-0.049632,-0.018906,0.012121,0.0003854,-0.1747,0.10543,0.045739
-0.001579,0.053062,0.0021369,0.0088535,0.019424,0.064572,0.19072,-0.2307
-0.061292,-0.0099377,-0.0098344,0.0047999,-0.0016568,0.066556,-0.2414,0.11353
0.033768,-0.020816,0.038449,0.015025,-0.0085623,-0.15358,0.11233,-0.0063858
-0.1673,-0.050411,-0.048387,-0.046749,-0.04046,0.021459,-0.13308,-0.61154
0.072342,-0.028438,-0.035618,-0.024322,-0.019013,-0.048322,-0.12814,0.30035
0.059695,0.029929,0.069626,0.027861,0.025012,-0.0024846,-0.2648,0.05039
-0.10984,0.02393,-0.036476,0.0009131,0.014136,0.1993,0.28478,-0.24647
0.1815,0.063914,0.029758,0.020462,0.05059,0.11293,0.14634,0.62206
0.026756,-0.02886,-0.020036,-0.022226,-0.060404,-0.36217,-0.084958,0.36345
-0.12302,-0.027079,0.0098538,0.0061882,0.0017595,0.063642,0.11593,-0.60841
0.11185,0.022843,0.041337,0.020088,0.026129,0.054554,-0.29656,0.29663
0.047976,-0.027391,-0.019645,0.0039213,0.012398,0.079007,0.51415,-0.17666
-0.1386,0.025207,0.029473,0.02002,0.022533,0.050398,-0.10057,-0.51744
-0.075816,-0.046258,-0.093224,-0.05696,-0.061291,-0.032161,-0.61049,0.037498
-0.023205,0.039038,0.025703,0.0069251,0.0025058,-0.16179,0.21704,0.38798
0.15187,0.015062,0.026436,0.015944,0.0025296,0.027884,0.24698,0.51652
-0.064826,-0.0091115,-0.013085,-0.0067919,-0.0067477,0.044104,0.10188,-0.38661
0.11067,-0.025797,-0.0068361,-0.0067786,0.013791,-0.01965,-0.22847,-0.6115
-0.20085,-0.0036776,-0.0013701,0.00033319,0.001946,0.055395,0.089865,-0.11723
0.012288,0.01842,0.027215,0.022468,0.012888,0.04295,0.05566,0.64625
0.011441,-0.03729,-0.029954,-0.026107,-0.023123,0.091919,-0.089038,0.049024
0.14299,0.040471,0.022862,0.011102,0.019478,-0.27365,-0.05402,0.14683
0.0020018,-0.052751,-0.040629,-0.0062996,-0.015089,0.079747,0.10847,-0.40587
0.072756,0.058085,0.068706,0.023424,-0.0015136,-0.019047,-0.32466,0.47963
-0.044596,0.060286,0.0069864,-0.0011895,0.021259,0.063412,0.24443,-0.15786
-0.19612,-0.077803,-0.054186,-0.017608,-0.01716,0.046327,0.077567,-0.25841
0.1858,0.0261,0.041104,0.013215,0.031428,-0.0076164,-0.15008,0.10372
-0.081061,-0.019151,-0.051197,-0.018122,-0.036441,-0.12979,0.032228,-0.27123
-0.11578,-0.010807,0.012469,0.028995,0.052299,0.32003,0.45298,-0.18438
0.15874,0.019764,-0.017948,-0.040721,-0.077686,-0.39316,-0.56888,0.4855
-0.070058,0.010257,0.04514,0.022784,0.026478,0.097114,0.26072,0.2976
-0.051473,-0.085725,-0.055909,-0.038246,-0.025984,0.024485,-0.13236,-0.1729
0.082876,0.013731,0.038454,0.018392,0.02267,0.18519,0.15396,-0.50697
0.076473,0.028067,0.00021102,0.028573,0.023983,-0.11657,-0.14208,0.33951
-0.20245,0.075017,0.024663,0.01556,0.0091916,-0.037299,-0.039262,-0.44089
0.20757,-0.017037,0.049171,0.010327,-0.0061062,-0.045732,-0.039621,0.58687
-0.029504,-0.02164,-0.1218,-0.049963,-0.014136,-0.047861,-0.089174,0.49122
-0.062785,-0.025185,0.042734,0.014047,0.016333,0.19116,0.39083,-0.65054
0.075426,0.018486,-0.0042892,-0.0088261,-0.024036,-0.06243,0.21474,0.060767
-0.053492,0.038238,0.010479,-0.0093086,-0.010114,-0.050211,-0.50518,-0.17686
-0.044151,-0.060442,0.0089773,0.020491,0.011458,-0.021637,-0.046492,0.016231
0.064059,0.042206,0.014852,0.018326,0.017559,0.10962,0.18869,-0.35385
-0.095691,-0.099375,-0.073141,-0.04667,-0.053963,-0.11718,-0.31116,0.24294
0.14169,0.061785,0.05005,0.021262,0.039395,0.094838,0.41841,0.20303
-0.2457,-0.0208,-0.037121,-0.027455,0.00096394,-0.012299,-0.32343,0.022332
0.16569,0.044087,0.04838,0.04187,0.041728,-0.024795,0.32323,0.3812
-0.028933,0.030559,0.0019225,-0.0049915,-0.041575,-0.0054575,-0.27588,-0.49645
0.061852,-0.029474,0.034321,0.027222,0.016376,-0.040521,0.25856,0.29009
-0.077692,-0.0026315,-0.050007,-0.017974,-0.027027,0.0025722,-0.2035,0.03818
0.12159,0.017778,-0.0092241,-0.03157,-0.008186,-0.0013898,0.25393,0.044905
-0.045483,-0.046064,0.0078879,0.0094582,0.017777,0.080221,0.20331,-0.36794
0.098128,-0.022115,-0.022362,0.01098,0.027088,0.067548,-0.23485,0.045784
-0.12997,0.050584,0.040542,-0.0038373,-0.027314,-0.18799,-0.59413,-0.60535
-0.036671,-0.070298,0.0013368,0.0039497,0.0029994,0.24321,0.42254,-0.069273
0.095562,0.044594,-0.046037,-0.020298,-0.014618,-0.27949,-0.30715,1.0878
-0.092516,0.074428,-0.0075558,0.0017377,0.0060952,0.025253,0.19006,-0.0039125
0.033448,-0.0049027,0.062377,0.02348,0.018692,0.032618,0.26321,-0.15208
-0.22692,-0.037891,-0.039144,-0.0094214,-0.015418,0.070918,-0.090601,-0.1181
0.25487,-0.0096073,0.055169,0.012727,0.013576,0.17937,0.08529,0.27315
-0.095682,-0.061202,-0.068799,-0.019207,-0.034611,-0.21226,0.16747,-0.593
0.18547,0.025813,0.026267,0.0042881,0.027699,-0.01801,-0.42265,0.20752
-0.040275,0.048355,0.011964,-0.0027156,-0.018251,-0.019133,0.062783,-0.08103
-0.069177,-0.032314,0.012995,0.014364,0.038286,0.081285,0.14412,-0.22237
0.004139,0.057777,0.013499,0.016265,0.025095,0.056789,-0.025584,0.058249
-0.049074,-0.11824,-0.0882,-0.05195,-0.066055,-0.16275,-0.050359,0.25307
0.033699,0.080899,0.012637,0.028203,0.030049,0.086959,0.16247,0.41494
-0.063552,-0.00055012,0.066214,0.022117,0.00058479,0.0092331,0.14477,-0.52272
0.24959,0.012763,-0.052155,-0.046944,-0.04525,-0.044273,-0.58558,0.2932
-0.11541,0.019426,0.025056,0.016231,-0.0059047,-0.058022,-0.26749,-0.12162
-0.042789,-0.0040282,0.009063,0.00067677,0.03281,0.08486,0.03221,-0.072215
-0.0012599,-0.065572,-0.014061,0.015799,0.032038,0.20417,0.58953,0.12954
-0.2706,-0.017007,-0.0053058,-0.0086486,-0.015813,-0.18512,0.53806,-0.24774
0.12059,0.016393,0.0038361,0.0055421,-0.0090069,-0.099233,-0.30334,0.30242
0.10526,0.026517,0.036404,-0.0040457,0.021297,0.078594,0.069743,0.056289
0.069454,0.028672,-0.017447,-0.013898,-0.034266,0.1139,-0.31594,-0.19008
-0.015513,-0.024349,-0.0097215,0.0073043,0.011747,-0.21175,-0.45694,-0.27789
0.17206,0.062434,0.012402,0.020567,0.0029994,0.094501,0.47175,-0.054267
-0.1725,-0.047192,-0.021467,-0.0052842,-0.013717,-0.099292,-0.38254,-0.25723
-0.097312,-0.048711,-0.048646,-0.031099,0.00060783,0.051509,0.028101,0.17735
-0.026492,-0.012436,0.040672,0.013545,0.014723,0.11789,0.19075,0.59797
0.14659,0.046198,0.028337,0.0194,0.020872,0.0064139,0.36682,0.39408
-0.0026785,0.033813,-0.014681,-0.013399,-0.019898,0.08417,-0.1667,-0.082159
-0.023472,-0.0022137,0.0059462,0.0012191,-0.0058675,-0.15707,0.046051,-0.49122
-0.057867,-0.076951,-0.02658,-0.006952,-0.022801,-0.038205,-0.27465,-0.12098
-0.0047013,0.013238,0.020667,0.0090232,0.0075918,-0.0050714,0.11359,0.18648
0.11329,0.01092,-0.00093373,-0.013361,0.007296,0.020104,0.13959,0.19408
-0.17099,0.025636,0.0097237,0.0039338,0.0075848,-0.056541,-0.26848,-0.29846
0.058818,0.072926,0.020748,-0.0017623,0.0083715,0.077573,0.23918,-0.43794
0.008334,-0.097532,0.023625,0.047433,0.05634,0.14135,0.051648,0.19744
-0.007728,0.037208,-0.060394,-0.028452,-0.059705,-0.15415,-0.19937,-0.55208
-0.0035013,-0.031215,-0.059854,-0.02658,-0.035348,-0.090227,-0.31916,0.53812
0.013673,-0.014221,0.001671,-0.0018735,0.012008,0.12198,0.23117,0.5114
0.22284,0.11133,0.12434,0.029897,0.011928,0.16182,0.053123,0.070968
-0.21351,-0.13116,-0.066418,-0.01723,-0.0043323,-0.22893,0.09184,-0.062454
0.085241,0.016372,0.015924,0.0052928,0.033659,0.027591,0.57348,0.0914
0.085628,0.038784,-0.010772,0.011756,0.0011222,0.095359,-0.41654,0.30485
-0.30006,0.0070272,0.018206,-0.013145,-0.015726,-0.1035,-0.1754,-0.87887
0.10699,-0.023565,0.0018394,0.0090821,-0.008768,0.033139,-0.33562,-0.049031
-0.021195,-0.036873,-0.05951,-0.030582,-0.040225,-0.11892,0.080611,0.27816
-0.03501,0.05325,0.037412,0.01658,0.046355,0.12869,0.47388,-0.51837
0.020469,-0.034622,-0.035656,-0.021167,-0.030202,-0.02019,-0.16864,0.79688
-0.0090261,0.050494,0.056809,0.035821,0.034696,0.075467,-0.14872,-0.6846
0.22973,0.034243,-0.013977,-0.00020284,-0.0014196,-0.08441,-0.14373,0.03782
-0.020099,0.0092739,0.055847,0.026593,0.017268,0.085582,0.30062,0.59842
-0.055289,-0.087981,-0.07053,-0.02494,-0.011321,-0.0013907,0.090172,-0.16664
-0.071874,0.022929,0.020179,0.00092672,0.0060699,-0.080762,0.089995,0.22431
-0.086803,-0.033343,0.038387,0.0022261,-0.0090308,-0.0050777,-0.26596,-0.32906
0.10925,0.0090412,-0.078572,-0.021232,-0.0098508,0.021842,0.041312,-0.37636
-0.11814,0.025829,-0.017967,-0.030311,-0.027446,0.0075438,-0.070874,0.51402
0.042219,-0.059956,0.0020401,0.0065654,-0.014467,-0.079022,0.057647,0.51413
0.12066,0.049891,0.044768,0.027406,0.014125,0.036174,0.15868,0.061707
-0.062895,0.0050583,0.0017155,0.0093446,0.01998,0.080523,-0.42485,-0.71615
0.038611,0.025232,0.045506,0.015395,0.019323,-0.077916,0.20656,-0.83753
0.12901,0.032737,-0.026511,-0.00097251,0.035944,0.13971,0.50097,0.30832
-0.28268,-0.081903,-0.034524,-0.03183,-0.047325,-0.14114,-0.6314,0.39024
-0.030835,0.032262,0.029046,0.01645,0.0035789,0.02493,0.024893,0.14954
0.12063,-0.0085651,-0.02382,0.0029178,0.00056924,0.012685,-0.057131,0.65609
0.032687,0.028831,0.024937,0.0052519,-0.0024095,-0.037785,0.086693,-0.49809
-0.082561,-0.0050955,-0.028529,-0.0082767,-0.0061218,0.091553,0.32515,-0.39545
0.11133,-0.033075,0.01049,-0.02246,-0.011222,0.0092975,0.16575,0.25344
0.0046922,0.0069466,0.032249,0.017107,0.020909,-0.13682,-0.36234,0.21928
0.026206,-0.017813,-0.0023586,0.00095125,-0.019269,-0.027,-0.051396,-0.25307
0.041529,0.049378,-0.038336,0.0151,0.04024,0.28382,0.54818,0.25173
-0.060413,-0.087549,-0.01255,-0.018319,-0.042369,-0.29807,-0.73053,-0.077662
-0.14049,0.0020454,-0.025709,-0.020818,-0.00089551,0.12615,0.025083,-0.62975
-0.074696,0.045595,0.040303,0.0080002,0.0090857,0.033611,0.18254,0.61516
0.10538,0.059328,0.0066133,0.013801,-0.0039418,-0.13741,-0.15464,-0.29739
0.087531,0.035639,0.037816,0.028079,0.030901,0.12169,0.24314,0.17297
0.0053643,-0.072554,-0.045646,-0.011571,-0.018812,-0.03208,-0.074028,-0.087279
0.0005491,-0.0079816,0.021537,-0.0036436,0.011144,0.019057,-0.0099384,0.43529
0.0038614,-0.021358,0.027721,-0.0030058,-0.0042944,0.033272,0.0066583,0.12263
-0.085305,0.027235,-0.020252,-0.017718,-0.010692,-0.059653,-0.05648,-0.64264
0.093144,0.0044566,-0.014055,-0.0011604,-0.0084333,-0.056766,0.36029,-0.31403
