0.008476,0.00017203,0.048384,-0.010664,-0.018948,-0.021689,-0.086009,-0.12892
0.0088244,0.081604,0.079638,0.028693,0.0028261,-0.03123,-0.017594,-0.17088
0.0020418,-0.060228,0.054811,0.0065015,0.040639,0.045301,0.02624,0.10043
-0.027398,-0.027393,-0.10566,-0.053762,-0.022413,-0.010627,-0.00095625,-0.095187
0.014233,0.03073,-0.0055743,0.027471,0.0091409,0.0042911,0.041968,0.15052
0.0095797,0.073826,-0.13199,-0.0078872,-0.0053292,0.012037,-0.0085238,0.066757
0.052089,0.045837,0.19208,0.0507,0.012141,-0.010813,-0.0035582,-0.093635
-0.014877,-0.093556,0.19878,0.046533,0.022209,0.0059762,-0.013165,0.023482
-0.012031,-0.056221,-0.035167,-0.052048,-0.030146,-0.0080655,0.0018186,0.013802
-0.08032,-0.1395,-0.65069,-0.11251,-0.043682,-0.014082,-0.013368,-0.066935
0.014454,0.10979,0.2202,0.036951,0.020418,0.018948,0.042618,-0.015556
0.030096,0.10617,0.35268,0.037074,0.0057663,-0.034195,-0.033668,0.15139
0.021445,0.045717,-0.20415,0.0053275,0.045152,0.045047,-0.023844,-0.075636
0.027823,0.03868,0.25503,0.043614,-0.0019739,0.0065308,0.02485,-0.034833
-0.044219,-0.18749,-0.3306,-0.050885,-0.057341,-0.024826,0.010537,0.044803
0.016546,0.039871,0.11013,0.011089,0.012045,-0.0021591,0.026737,0.059459
-0.031836,-0.036341,-0.032311,-0.012607,0.0032402,-0.0035224,-0.036036,-0.21135
-0.001707,0.029737,0.15516,0.026372,0.010142,-0.0053349,0.0097402,0.1142
0.091375,0.19162,0.42884,0.073152,0.048467,0.047292,0.00015543,0.10624
-0.096355,-0.26145,-0.71288,-0.12248,-0.061449,-0.064159,-0.064531,-0.25803
0.020957,0.14707,0.017846,0.0096426,0.016294,0.027726,0.034745,0.13977
-0.0021351,-0.15343,0.081459,-0.0071212,-0.015261,-0.0049917,0.024847,0.059025
0.013895,0.10996,-0.10765,0.0069634,0.015661,0.017494,0.031,0.0013322
-0.017058,0.030239,0.24058,0.012957,-0.0082137,-0.006344,-0.017002,-0.047526
0.029856,-0.0028734,-0.013119,0.057894,0.014621,0.001574,-0.0097963,0.069726
-0.0095282,-0.021567,0.0075499,-0.037764,-0.0017736,0.009894,0.013454,-0.07604
0.013192,0.028021,0.092631,0.022979,0.0051606,-0.012764,-0.017691,-0.00034568
-0.0034893,0.012537,-0.14019,-0.017596,-0.01914,-0.011834,-0.017387,-0.00035429
-0.028169,-0.060327,0.17635,-0.010968,0.011437,0.0047864,-0.0012776,-0.021949
-0.021557,-0.026145,-0.11426,0.0038951,0.0033414,0.0058072,0.0072627,0.059139
-0.0459,-0.15754,-0.29362,-0.12135,-0.074498,-0.047839,-0.0072793,0.093707
0.10214,0.29658,0.05976,0.11336,0.067092,0.054792,-0.013549,-0.21581
0.0085969,-0.12352,0.18767,0.020514,0.021855,0.0011939,0.043177,0.091007
0.0093643,0.083165,0.019345,0.021848,0.00058491,0.025705,0.030011,0.0060537
0.010494,0.034466,0.18696,0.054597,0.026446,0.0032609,-0.014181,0.044912
-0.1055,-0.26947,-0.2556,-0.16285,-0.088415,-0.089645,-0.034992,-0.081299
0.043888,0.14755,-0.0592,0.041022,0.046263,0.059438,0.014153,0.057463
-0.010362,0.081586,0.22857,0.033088,-0.022936,-0.041678,-0.038876,-0.038349
0.020666,0.0628,-0.033213,0.024149,0.024142,0.052366,0.016711,-0.0088877
0.011963,-0.074017,0.046412,-0.016983,5.3435e-06,-0.0099039,0.0090207,0.083762
-0.0051002,-0.064198,-0.34394,-0.035343,-0.017045,-0.0096343,0.008464,-0.049165
0.0087644,0.013577,0.078817,0.01639,0.012358,0.014197,0.0074103,0.022164
-0.063348,-0.2001,-0.042463,-0.04874,-0.044222,-0.071183,-0.032989,-0.077276
0.052288,0.25621,0.271,0.058856,0.047955,0.070134,0.035902,0.058574
0.019977,0.023986,-0.018219,0.027077,0.015736,0.01617,0.0032953,-0.02376
-0.019511,-0.091017,-0.13608,-0.02671,-0.015741,-0.0066785,0.0098965,-0.0044492
-0.058339,-0.095624,0.010456,-0.032284,-0.030882,-0.045488,-0.077094,-0.032509
0.067442,0.1984,0.16931,0.056882,0.040434,0.040176,0.023533,0.047704
-0.0095782,-0.083617,-0.10018,-0.001935,-0.013041,-0.038875,0.0617,0.22784
0.022806,0.073884,0.073227,0.0015891,0.027083,0.02983,-0.025176,-0.29714
0.031489,0.029836,-0.11886,-0.0034185,-0.0035867,0.019825,0.028463,0.1212
-0.085313,-0.28674,-0.17163,-0.11892,-0.08965,-0.068678,-0.05865,-0.07927
0.016061,0.24059,0.31164,0.084624,0.050064,0.038065,-0.0052216,-0.093069
-0.015888,-0.11545,0.22149,0.060411,0.032824,0.012273,0.016982,0.14336
-0.032533,-0.011732,-0.76071,-0.12096,-0.039595,-0.0051033,0.00029528,-0.087615
0.044491,0.12942,0.43849,0.1112,0.03622,0.0017984,0.007363,0.058643
0.027879,-0.075138,-0.16893,-0.070842,-0.028492,-0.021608,0.007032,0.051312
-0.011984,0.030693,0.062061,-0.0027207,0.00089597,0.002733,-0.0084968,-0.00042114
0.034198,0.025072,0.18224,0.073538,-0.00044843,-0.026982,-0.015865,-0.042662
0.033418,0.02548,-0.11819,0.01734,0.069105,0.11543,0.070713,0.0014832
-0.045785,-0.09248,0.18525,-0.030745,-0.040459,-0.039247,-0.030188,0.16971
-0.039455,-0.023174,-0.18932,-0.055148,-0.047947,-0.069566,-0.014017,-0.062549
-0.025606,0.039321,0.084152,0.0066603,0.030958,0.039783,-0.04488,-0.25839
0.003937,-0.03641,0.073037,0.029841,0.0087345,0.007447,0.017932,0.074539
0.0028744,0.032225,0.039853,-0.055628,-0.044281,-0.041417,-0.0050765,-0.078476
0.042177,0.011879,-0.18991,0.024044,0.028212,0.018595,0.019161,0.16682
-0.0025888,-0.0032365,-0.30548,0.011345,0.015316,-0.0072485,0.020562,0.038611
-0.0061316,-0.013412,0.22368,0.039214,0.0029456,0.0066946,-0.00074628,0.038262
-0.0076268,-0.0041322,-0.24295,-0.033121,-0.016839,0.0062977,-0.029174,-0.12253
0.031419,0.13213,0.47472,0.020435,0.010397,0.015347,0.013183,0.017111
-0.022784,-0.12261,0.1035,-0.011803,-0.017274,-0.028615,0.0087612,-0.028122
0.016028,-0.013047,-0.2397,-0.013576,0.0012668,0.0069273,0.003964,0.021389
0.021576,0.13043,0.1084,0.068859,0.049944,0.066689,0.0061331,0.11675
-0.0072089,-0.10003,0.18583,-0.030897,-0.020056,-0.021996,0.022712,0.25597
-0.00063686,-0.009692,-0.34408,-0.055468,-0.013634,-0.033397,-0.079295,-0.46869
-0.029042,0.081635,0.21413,0.042039,0.022349,0.016154,0.028288,0.020282
-0.091802,-0.23072,-0.41161,-0.081636,-0.083708,-0.076911,-0.029261,-0.034501
-0.00026136,-0.030381,-0.093693,0.0040798,0.0046373,0.01543,0.006308,-0.030051
0.051732,0.091498,0.28072,0.065926,0.053664,0.051224,0.049556,0.21541
0.050013,0.11379,-0.14419,0.0034615,-0.0062543,-0.023711,-0.0084469,-0.014576
0.042615,0.053678,0.33749,0.012922,0.020784,0.025649,0.01229,0.00068465
-0.0088831,0.075787,0.04742,0.0089358,0.017983,0.020295,0.0025141,-0.042265
0.012755,0.039075,0.078907,0.0072774,-0.014515,-0.0079322,0.0090614,0.10687
-0.0023112,-0.13567,0.054845,-0.0079137,-0.0064918,-0.011714,-0.038522,-0.075953
-0.086119,-0.10598,-0.31705,-0.029336,-0.036357,-0.037658,-0.0075866,-0.021721
-0.0051645,-0.068173,-0.34503,-0.042009,-0.0029384,0.0080789,-0.015429,-0.036746
0.028879,0.0711,0.25679,0.031556,0.030841,0.039503,0.031677,0.018026
-0.031326,-0.11758,-0.052953,-0.0044862,-0.0057225,-0.013876,0.0087921,0.17266
0.0093827,0.10876,0.20112,-0.0020768,-0.0035719,-0.035141,-0.044923,-0.33125
0.041738,0.11822,-0.035846,0.030753,0.013629,0.045692,0.026853,0.19384
-0.043383,-0.026018,0.13526,0.00016759,-0.016743,-0.021731,-0.0024608,-0.14993
0.082414,0.098084,-0.16713,0.0077521,0.030283,0.027875,0.054487,0.13828
-0.033812,-0.09591,0.011695,-0.016704,-0.032725,-0.03235,-0.036961,-0.011024
-0.024832,-0.062179,0.017308,-0.010528,-0.002502,0.008315,-0.0037345,-0.034847
0.06239,0.033846,0.10947,0.026512,0.019591,0.0091286,0.020972,0.23088
-0.10045,-0.059195,-0.26453,-0.053738,-0.020903,-0.037731,-0.033451,-0.14403
0.041131,0.10298,0.17841,0.030282,0.024685,0.039703,-0.0030801,-0.12137
0.0026156,-0.058252,-0.13826,-0.0023786,-0.0075081,-0.0084006,-0.012847,0.016617
0.0026919,0.0041566,0.036432,0.0204,-0.0001519,0.013486,0.023456,0.1051
-0.021094,-0.044984,0.093313,-0.034051,-0.031304,-0.050657,-0.034375,-0.043757
0.025145,-0.063897,-0.062175,0.037403,0.047455,0.057196,0.056338,0.046899
0.00097384,0.097126,0.10718,-0.023184,-0.02178,-0.014341,-0.0086307,-0.075098
0.00034717,0.071971,0.020533,0.033923,0.01083,-0.0073244,-0.0023647,-0.017599
-0.015624,-0.068437,-0.1926,-0.049443,-0.01116,0.0080137,-0.0028003,-0.185
0.023483,0.05872,0.15198,0.023203,0.013614,-0.0073544,-0.0099312,0.34642
-0.015115,-0.0080974,0.14525,0.0093112,-0.0087696,-0.006562,-0.00048298,-0.054671
0.0013341,0.02694,-0.066006,-0.0054622,-0.0081171,-0.0052857,-0.006,-0.07498
-0.044499,-0.09521,-0.33355,-0.036896,-0.039168,-0.042688,-0.026855,-0.066162
0.06593,0.030591,0.01592,0.040002,0.062154,0.099829,0.084996,0.13484
-0.0035501,-0.072941,0.047695,-0.0011917,-0.00096263,-0.023248,-0.014548,-0.059707
-0.0031641,0.031526,0.077959,-0.01178,-0.0096626,-0.029337,-0.060118,0.058873
-0.0033869,0.063182,0.25121,0.0085819,0.012746,0.034463,0.010667,0.019457
-0.027709,-0.016072,-0.19483,-0.025666,-0.042966,-0.03514,0.018157,-0.062823
0.0020825,-0.0096085,-0.0078818,0.018652,0.018672,-0.027286,-0.029662,-0.1034
0.0002856,-0.017545,0.12543,0.009025,0.0025047,0.034633,0.031548,0.022248
0.029756,0.023952,-0.10791,0.015971,0.010234,0.010147,0.0067844,0.06462
-0.01065,-0.024735,-0.0064882,-0.022913,-0.012727,-0.014562,-0.025547,0.017201
-0.042395,-0.0068305,-0.0024724,0.0017304,0.0039752,-0.00015064,0.02069,-0.086943
0.036412,0.054189,-0.07519,-0.035209,-0.017822,-0.0088525,-0.010674,0.066641
0.015009,0.01711,0.17121,0.04577,0.031137,0.029849,0.020952,-0.020341
-0.0050489,-0.048788,-0.17936,0.002245,0.010032,-0.0089382,0.0060617,-0.049851
0.015095,0.050504,0.14533,-0.017604,-0.026691,-0.00021725,-0.032088,0.24419
-0.026493,-0.06918,0.074637,0.017213,0.0066494,-0.022219,7.0122e-05,-0.036873
-0.0052958,0.0050213,-0.35968,-0.034164,-0.0073635,0.01862,-0.0069827,-0.12816
0.0078384,0.061286,0.32001,0.031186,0.017044,0.012692,0.0091746,-0.069687
-0.0032379,-0.072758,-0.33027,-0.013456,-0.021771,-0.024618,0.0016545,-0.042043
-0.0468,-0.11598,0.096915,-0.027584,-0.022234,-0.015403,0.017372,0.086985
0.040847,0.11928,0.29759,0.019968,0.031362,0.032357,-0.013915,0.035939
0.03289,0.07083,0.029685,0.027589,0.0063424,-0.0064361,0.0016202,0.00028915
0.038603,0.051529,0.042735,0.018704,0.020054,0.01663,0.024986,-0.019563
-0.059131,0.007007,-0.21089,-0.022266,-0.021086,-0.023391,-0.045325,0.0080953
-0.002227,-0.14057,-0.11466,-0.0092513,0.015906,0.0064364,0.03291,0.0054801
-0.0402,-0.015867,-0.051636,-0.020146,-0.040674,-0.026519,-0.037166,-0.082033
0.015121,-0.0012983,-0.044879,-0.015551,0.0046586,0.034205,0.02569,0.03431
0.016089,0.02866,0.14873,0.012748,0.003631,-0.022111,-0.020744,0.017878
0.010378,0.043354,0.13979,0.010475,0.0032498,0.015654,0.034408,0.094245
-0.0013322,0.0043121,-0.078306,0.024842,0.019211,-0.00080596,0.011374,0.14513
0.012655,-0.002035,0.073405,0.0013509,-0.00319,0.022316,-0.011808,-0.15856
-0.017849,-0.037882,-0.045396,-0.0053131,0.014055,-0.00093615,-0.01958,-0.26266
-0.0071352,-0.0094137,-0.0052847,-0.010984,-0.023015,-0.047208,-0.019776,0.12192
0.020801,0.012869,-0.11167,-0.031675,-0.0053047,0.00054691,0.026704,-0.027557
-0.028594,-0.018315,0.040686,0.018044,-0.026876,-0.03754,-0.020676,0.10261
0.054694,0.11524,-0.080538,0.012623,0.036967,0.088313,0.017891,0.099864
-0.0036568,0.030171,0.18773,0.053123,0.021907,0.026313,0.0018933,-0.010819
-0.016834,-0.14116,0.01659,-0.032698,-0.0019114,-0.028448,0.01735,-0.048431
-0.016446,-0.047406,-0.14128,-0.034057,-0.018914,-0.029249,-0.0060264,-0.019844
-0.041515,0.022451,-0.082866,-0.02117,-0.029013,-0.0073814,0.0020466,-0.1121
0.0099566,0.014055,0.28588,0.021938,0.014892,-0.0096091,-0.02882,0.01847
0.0058866,0.06071,-0.096919,0.0020576,-0.0040482,0.011214,-0.012794,0.035295
-0.0059794,-0.0089689,-0.19125,-0.025489,0.00050893,-0.022645,-0.0046789,0.023143
0.061119,-0.061825,0.12119,0.057091,0.036783,0.037696,0.050103,0.066339
0.0046656,0.097556,-0.049057,-0.0075575,-0.012064,0.01296,0.02646,0.077075
-0.010985,0.031516,0.0021736,-0.00044511,-0.012978,-0.0028115,-0.0053476,0.045696
-0.0015071,-0.010303,0.22097,0.00029427,0.0029022,-0.0095014,-0.07656,-0.29489
-0.0063023,-0.11428,-0.009425,-0.0055652,0.0042976,-0.0071889,0.031659,0.18733
-0.033703,-0.038646,-0.35306,-0.010584,-0.016757,-0.011764,-0.024282,-0.21067
-0.0061636,0.044444,0.17413,0.0004333,0.0019841,-0.0080155,0.013638,0.0042971
0.028911,0.041083,0.087122,0.0036445,0.0055073,0.026992,0.020618,0.083935
-0.030452,-0.0097291,0.017879,-0.024704,0.016886,0.014609,0.004612,0.17095
0.03424,0.032588,-0.15966,0.0011211,-0.011121,-0.0065712,0.0047189,-0.02945
-0.011499,-0.03519,-0.079506,0.018525,-0.00071812,-0.021267,-0.010395,-0.070237
0.019845,0.052379,0.21013,0.02749,0.01659,0.025055,0.021586,0.065351
0.011189,-0.017454,-0.12028,-0.026645,-0.029661,-0.031599,-0.024577,-0.10662
-0.060737,-0.041808,0.15449,-0.018841,-0.0066852,-0.011252,-0.0084911,-0.070776
0.030844,-0.005208,0.18959,0.050946,0.0074858,0.008436,-0.00063855,-0.015499
0.020544,0.037688,-0.125,0.0030821,0.028677,0.012404,-0.02453,0.1672
-0.0054466,0.0012087,-0.38296,-0.037349,-0.013148,0.01684,0.044867,-0.008761
-0.015632,-0.036012,0.0025417,-0.023344,-0.0083049,-0.0012337,0.012362,0.048514
-0.0097933,0.0048519,0.16597,0.0062162,-0.0033577,-0.018094,-0.035936,0.040462
-0.0033859,-0.031657,0.047018,0.012484,0.017594,0.013199,0.032973,-0.096691
0.0036774,0.050522,0.077686,0.011301,-0.015546,-0.0090717,-0.054195,-0.262
0.019192,0.025389,0.1038,0.018462,-0.0010814,-0.0071189,0.0073465,0.13059
0.0039623,-0.020865,0.040937,-0.0050078,0.014162,0.026415,0.030117,0.0038014
-0.0031791,-0.080547,-0.39918,-0.035692,-0.016733,-0.01052,0.029692,0.1637
-0.0025205,0.072413,0.064726,0.012218,0.0076792,-0.0011647,-0.0018349,0.12755
0.021285,0.093481,0.1429,0.021319,0.0090943,-0.008308,-0.017678,-0.16546
-0.01008,-0.018282,-0.11126,-0.0086586,0.0029277,0.0070154,-0.017868,-0.041903
-0.018536,-0.076286,0.2458,0.00013581,-0.011032,-0.01758,-0.017964,-0.070866
-0.011764,-0.04218,-0.014487,0.00058991,-0.0017177,0.0041465,-0.0021735,0.029746
-0.028538,-0.025732,-0.11289,-0.02308,-0.016138,-0.013317,-0.017142,-0.0053538
0.001835,-0.050428,-0.19177,-0.00061394,0.015948,0.024241,0.02328,0.042315
0.040656,0.11054,0.044538,0.021173,0.00077689,3.2126e-05,0.033267,-0.0078683
0.025667,0.082588,0.28306,0.011199,0.00088385,0.00024732,0.0049433,-0.0012234
0.019405,0.045889,0.18818,0.024405,0.02415,0.024945,0.023995,0.15396
-0.033004,-0.12408,-0.58274,-0.056086,-0.030898,-0.019768,-0.011545,0.0023248
-0.014747,-0.012804,0.011025,-0.019011,-9.8974e-05,-0.009203,-0.024024,-0.020613
-0.020044,-0.049491,0.065222,0.010934,-0.00053876,-0.014079,-0.060744,-0.26778
0.067846,0.078881,0.10522,0.041789,0.0069442,0.019867,0.034252,0.10415
-0.056079,0.021332,0.36692,-0.0044539,0.0068151,0.0063395,-0.00476,-0.083838
0.014325,-0.026227,-0.023741,0.012818,0.0069623,0.0076133,0.025435,0.099541
-0.033313,-0.039831,-0.37116,-0.015907,-0.015995,-0.031057,0.0157,0.10183
-0.011164,-0.058204,-0.058363,-0.020546,-0.0073368,-0.007993,-0.018017,-0.058942
0.042159,0.05149,0.1954,0.014252,0.0016931,0.0067528,-0.0050666,-0.036943
0.025547,0.093552,-0.23543,-0.0055306,0.011066,0.021337,0.0079713,0.036409
-0.021589,0.020287,0.18764,-0.0098145,-0.0027228,-0.0029472,-0.0021186,0.0053205
-0.0053373,-0.060118,-0.020276,0.0012219,0.0070933,-0.0033116,0.0038641,-0.0057335
0.019548,0.015013,0.054335,0.0040115,0.0013072,0.0047859,0.0025436,0.040941
-0.033147,-0.044743,0.02802,0.014083,-0.02025,-0.0098915,-0.013888,-0.051885
0.039278,0.056395,0.11879,0.023545,0.02037,0.015018,0.017041,0.10435
-0.029291,-0.088468,-0.33041,-0.037987,-0.0098042,0.0089432,-0.029716,-0.17185
0.010696,0.020561,0.062434,0.0012999,-0.0093377,-0.036255,0.0020363,0.14957
-0.028584,-0.10831,-0.03148,-0.014885,0.013881,0.019714,0.018479,-0.13484
0.032421,0.13505,0.21545,0.046269,0.0051497,0.0046952,-0.011727,-0.079277
-0.0093268,0.04844,-0.0096045,-0.01049,-0.0042345,-0.018999,0.044112,0.036249
-0.020727,0.0077672,-0.073899,-0.020975,-0.014163,-0.0045604,-0.048526,0.096198
0.022106,0.013769,0.046185,0.015013,0.014586,0.016814,0.014894,0.063219
0.0025191,-0.050217,-0.14108,-0.027272,-0.011547,-0.001593,0.015487,0.063769
-0.0086417,-0.07449,-0.056847,0.0086996,0.0092,0.010766,-0.031204,-0.08084
0.004701,-0.011982,0.026321,-0.017442,-0.0089246,-0.00051417,0.031071,-0.041997
0.011598,0.059291,0.17967,0.027299,0.0045356,0.0039349,-0.01634,-0.0071742
-0.011287,0.014396,0.099383,0.025804,0.010605,-0.0068355,-0.0091881,-0.031365
-0.0093814,0.048673,-0.034168,0.001453,0.0014955,-0.024739,0.0058955,0.04115
-0.014259,-0.087892,-0.23609,-0.022485,-0.02283,-0.026123,-0.017714,-0.087202
0.020464,0.010889,-0.037285,-0.014989,0.015676,0.043827,-0.0095115,0.020221
0.016069,0.016789,0.054622,0.0080943,0.0075431,0.021056,0.038388,0.026429
0.026638,0.023434,0.11779,0.0075506,-0.008257,-0.0086231,0.01653,0.086408
-0.018656,0.022899,0.058299,-0.0010317,-0.0005344,0.017047,0.0028074,-0.012197
-0.042012,-0.047388,-0.1008,-0.0097468,-0.016183,-0.03507,-0.01874,0.026078
0.034637,-0.0077366,0.10862,-0.0027675,0.015132,0.0065583,0.037468,0.23133
-0.069728,0.0091216,-0.27516,-0.034521,-0.015911,-0.022431,-0.094481,-0.45955
0.036009,-0.066986,0.19227,0.05149,0.031376,0.034006,0.054024,0.10204
0.02438,0.10784,0.14284,0.021054,-0.0070215,-0.011721,-0.040413,-0.10632
-0.017985,-0.083519,-0.35394,-0.039866,-0.021715,-0.034587,0.0052284,0.065546
0.050139,0.069846,0.17005,0.024847,0.010703,0.043638,0.035002,0.16667
-0.028669,0.036474,0.050391,-0.011642,0.012033,0.0043521,0.0023504,0.011705
-0.019913,-0.027742,0.068251,0.0065605,-0.010017,-0.011677,0.016894,-0.077311
-0.0018785,-0.092015,-0.018243,-0.0068525,-0.00088047,-0.012163,-0.022813,0.041282
0.025037,0.022858,-0.052111,-0.0053057,0.0080868,0.010749,0.023837,0.00050559
-0.0022195,0.043016,-0.16502,-0.012403,-0.014437,-0.0054582,-0.038602,-0.067387
0.009504,0.015052,0.019515,0.018735,0.0096544,0.017287,0.016247,0.063028
0.0049889,0.071689,0.15158,0.0023481,0.010093,0.024242,-0.0071126,-0.086257
-0.047381,-0.16194,-0.0016157,-0.014371,-0.028648,-0.047109,0.00056994,0.10048
0.031939,0.10356,0.092399,0.0080348,0.018568,0.014224,0.0001908,-0.057679
-0.046029,-0.1157,-0.22978,-0.023793,-0.01218,-0.041627,-0.0082075,-0.022498
-0.015396,0.024554,0.039589,0.015453,0.0042152,0.02772,-0.0010865,-0.067755
0.046059,0.024755,0.079367,0.016548,-0.010328,-0.019712,0.0060476,0.1973
0.029283,0.096054,0.044287,0.0107,0.037894,0.058433,0.01329,-0.10964
0.028232,0.058679,0.041709,-0.0023252,-0.007508,-0.011212,0.012871,0.004301
-0.03517,-0.13463,-0.07124,0.00052167,-0.0061148,-0.0099534,-0.010853,-0.038223
0.0030405,-0.03138,-0.02329,-0.0046608,0.002777,0.022967,0.020181,0.021259
-0.0292,0.023962,-0.027185,-0.041766,-0.012294,-0.045534,-0.058165,0.066012
-0.030528,-0.031803,-0.17011,0.0060236,-0.028033,-0.028266,0.0040552,-0.020972
0.022354,0.019543,0.094209,0.013477,0.018009,0.051043,0.042771,-0.036645
0.043474,0.11523,0.25016,0.035212,0.024312,0.020291,-0.027909,0.11248
-0.013959,-0.049361,-0.13921,-0.03025,-0.024634,-0.034712,0.010853,-0.097393
-0.0013211,0.02621,0.23957,0.012621,0.019761,0.011018,0.010725,-0.049392
-0.043359,-0.11817,-0.47154,-0.015542,-0.014218,-0.014293,-0.028196,-0.064054
0.016458,0.0030036,0.15879,0.01065,0.0063828,0.0067429,0.026965,0.077278
0.029952,0.00045575,0.085577,0.0056884,0.019182,0.0040854,-0.011286,0.038678
0.0051379,0.047394,0.13904,0.0012579,-0.0069709,0.0014736,-0.0023749,0.10929
0.012452,0.02774,-0.24904,-0.010045,-0.0094715,-0.016432,0.022339,0.070478
-0.049628,-0.026587,0.032685,-0.027872,-0.019447,0.0052848,-0.038855,-0.3276
0.014181,0.0016906,-0.037639,0.018338,0.0023157,0.019887,0.017004,0.040266
0.0006701,0.033915,0.056602,0.011514,0.0091121,0.0039752,0.010076,0.15871
0.01909,0.084641,0.26872,0.045363,0.016727,0.0043674,0.0027497,-0.097007
-0.024468,-0.13663,-0.39418,-0.067829,-0.013789,-0.0024989,0.034037,0.054592
-0.028637,-0.045526,0.14437,-0.00030859,-0.019912,-0.06366,-0.099162,-0.011425
0.053217,0.059623,-0.039884,0.028682,0.021701,0.039469,0.04075,-0.021758
0.0020573,0.029219,0.1986,0.0029536,0.024896,0.017669,0.016421,0.077919
-0.034002,-0.098413,-0.049396,-0.0077479,-0.026278,-0.035447,-0.0079262,-0.0098198
0.046278,0.10613,-0.044343,0.019516,0.031853,0.059682,0.030345,-0.051251
-0.0073765,-0.036692,-0.10063,-0.024993,-0.035476,-0.025187,-0.024935,-0.023573
-0.031069,0.012698,-0.039423,-0.024261,-0.025467,-0.040163,-0.0096953,-0.013238
0.014262,0.059783,0.12394,0.037378,0.038232,0.045924,0.021325,0.041943
-0.019629,-0.058514,-0.1483,-0.011702,-0.0085047,-0.0013457,0.0055343,0.0090809
-0.0073648,-0.012983,-0.0026064,-0.0070201,-0.0015252,-0.017889,-0.018098,-0.033546
0.020317,-0.052541,0.10226,0.012878,0.0046972,-0.0036132,-0.0027614,0.0081566
0.0014788,0.034714,0.03544,-0.0061577,-0.0051655,0.018215,-0.010974,0.040934
-0.0086778,-0.00050317,0.063883,-0.016786,-0.0073484,-0.022483,0.0041744,0.04195
0.029275,0.053103,0.1335,0.020382,0.0062647,0.0073769,0.019318,0.027499
-0.025142,-0.038919,-0.23234,-0.003893,0.012473,0.0064949,-0.020151,-0.21266
-0.0079729,0.043228,0.14557,0.019693,0.0036047,-0.017107,0.010825,0.056509
0.025751,-0.021634,-0.38176,0.0049543,-0.012485,0.0069962,0.010702,-0.10976
-0.018241,-0.00018836,0.13844,-0.017229,0.011031,0.0241,0.0107,0.25759
0.031328,0.044033,0.18269,-0.0081998,-0.019701,0.0028059,-0.012679,0.049219
0.0020253,-0.038195,-0.092461,-0.0073801,0.012376,-0.018083,-0.012624,-0.055481
-0.0049825,-0.036308,0.032167,0.0006136,-0.010053,0.0079843,0.0030175,0.0054576
-0.060153,-0.036112,-0.044601,0.015695,0.0066571,-0.013074,-0.0048055,-0.21394
-0.0070891,-0.037018,-0.017931,-0.032379,-0.015698,-0.011223,-0.0047788,0.059122
0.045245,0.12593,0.11979,0.036277,0.024385,0.021168,0.0031961,-0.011889
-0.0041271,0.016203,0.26645,0.010993,0.0018564,0.0059099,0.011406,0.064709
0.001672,-0.099821,-0.57096,-0.045451,-0.02084,-0.033508,-0.011337,0.022803
-0.014958,0.020386,0.19259,0.015618,0.0031024,0.012427,0.0052751,0.01032
0.024408,0.032853,-0.068768,0.014657,0.011107,0.0032799,0.022095,0.073609
0.010406,0.03054,0.12865,0.014209,0.010912,0.017369,0.015536,0.16535
-0.010377,0.0044152,0.10472,-0.0092219,-0.0053446,0.00017476,-0.045832,-0.42563
0.024047,0.054639,-0.1954,-0.0088838,-0.0064119,0.0065096,0.0097014,0.089912
-0.01976,-0.062232,0.26747,-0.0083634,-0.015657,-0.018231,-0.013282,0.032907
-0.0095766,-0.042292,-0.21716,0.02346,0.013943,-0.0036752,0.0023836,0.013788
-0.02396,-0.065294,-0.093884,-0.038493,-0.011148,-0.012272,0.0020735,0.026075
0.015035,0.033564,-0.010221,0.0010695,0.0030731,0.026353,0.032788,0.0008232
-0.017496,0.013539,0.073906,0.0093609,0.0099709,-0.012732,-0.030325,0.079819
-0.0040399,0.0093294,0.16725,0.0098606,-0.01371,-0.0044623,0.00037144,-0.087742
0.0089963,-0.039626,0.044002,0.010408,-0.005389,-0.011299,-3.6429e-05,0.05309
0.045539,0.08702,-0.13133,0.026623,0.042705,0.029249,0.015353,-0.036982
0.0044296,0.023003,-0.077317,-0.019662,0.0054137,0.007729,0.015259,0.032027
-0.028146,-0.020674,-0.067448,-0.034748,-0.031569,-0.013502,-0.0081972,-0.076727
0.010383,-0.0057368,0.12462,0.0047629,-0.0060166,-0.0033956,-0.0082108,-0.0048865
-0.028497,-0.043016,0.021983,-0.0026866,-0.019744,-0.016868,-0.031698,0.090297
0.026916,0.084435,-0.11798,0.021085,0.013004,0.0083551,0.0072801,-0.057689
