0.29483,0.0777,0.0093203,0.023401,0.015316,0.0029996,-0.02254,0.031533
0.026134,0.020175,0.14499,-0.025401,-0.0015174,0.0010768,0.050952,0.070602
-0.06808,-0.044083,-0.14198,0.09824,0.020605,0.015142,0.029328,0.022997
0.17638,0.0024066,-0.069777,-0.10542,-0.0197,-0.017056,-0.047049,-0.040748
-0.092604,-0.0043499,0.018616,-0.011224,-0.01287,0.013945,0.065125,-0.042205
-0.21987,-0.017635,0.022539,0.068333,0.0021955,-0.0091062,0.085321,-0.020118
0.12128,0.095014,0.14596,0.0080586,-0.0056465,-0.0082597,-0.1581,0.033597
0.10908,-0.065311,-0.17305,-0.0049379,0.033943,0.0084347,0.053381,0.048798
0.23454,-0.014742,-0.090589,0.0053684,0.011527,0.0016724,-0.007321,0.056782
-0.44043,-0.019363,0.17418,0.0071386,-0.0027157,0.025941,0.041944,-0.028454
-0.040736,0.029859,0.018743,-0.13296,-0.048025,-0.090765,-0.049428,-0.1133
-0.081191,-0.039144,0.16049,0.15508,0.0004241,0.049943,-0.063098,-0.057278
0.41614,0.054836,-0.0036117,0.058718,0.056563,0.026211,-0.046098,0.1004
0.062281,-0.00061153,-0.29514,-0.12486,-0.035927,-0.0056444,0.22821,0.12524
-0.3677,0.0056422,-0.097639,-0.12162,-0.027049,0.016966,-0.13839,-0.17816
0.10411,-0.027699,0.041982,0.084846,0.0051161,-0.038673,0.03406,0.088549
0.22856,0.032495,0.15562,0.034405,0.037181,0.015031,0.019227,0.019046
-0.30652,-0.086866,0.088143,0.055797,-0.0089541,-0.01715,-0.073407,-0.035166
0.11581,0.09113,-0.10447,-0.0382,0.022933,0.013296,0.045192,-0.027235
0.22137,-0.050391,0.039853,0.08041,-0.015678,-0.018579,0.023315,-0.019633
-0.70974,0.043492,0.021893,-0.04981,-0.038971,0.012247,-0.03769,-0.04354
0.53976,-0.0099295,-0.0018099,0.023545,0.038871,0.027634,0.072895,0.10427
0.27297,-0.07009,-0.03924,-0.10652,-0.016607,-0.0037094,-0.074764,0.11142
-0.10543,0.034641,-0.083124,0.035994,0.028965,-0.0037129,-0.027566,-0.045399
-0.44832,0.030406,0.022025,-0.1195,-0.035262,-0.019286,0.066178,-0.16288
0.21218,0.026031,0.0097538,0.12237,-0.0059871,0.012083,-0.097963,0.0091715
-0.046086,0.013113,0.13712,0.19949,0.031091,-0.018915,0.074086,0.025672
-0.058786,0.014577,0.0051134,-0.30168,-0.033149,0.020643,0.027955,0.0039724
0.34668,-0.11051,-0.089637,0.0882,-0.010998,-0.041007,0.13886,0.076907
-0.52406,0.0050381,-0.053278,0.18994,0.074222,-0.024126,-0.31188,-0.076047
0.40808,0.0021783,-0.002518,-0.30865,-0.058755,0.063407,0.074022,0.075893
0.06575,0.061228,-0.061588,0.030016,0.019605,0.026062,0.038396,0.047682
-0.31604,-0.067008,0.10635,0.26042,-0.019077,0.027546,0.041642,-0.067663
0.35697,0.10266,0.056796,-0.14131,0.059281,-0.034124,0.083114,0.018317
0.13225,-0.061896,-0.022198,0.035202,-0.01119,-0.0030702,0.0059435,-0.030601
-0.81752,-0.036867,-0.060174,-0.0075345,-0.011855,-0.043547,-0.049655,-0.10489
0.70406,0.10747,0.05977,-0.019995,-0.052015,0.0085837,-0.052458,0.077288
-0.73149,-0.090155,0.12607,-0.0024267,-0.045467,-0.041621,-0.095751,-0.084716
0.31437,0.14305,-0.34649,-0.29074,0.031629,-0.037311,-0.014532,0.035101
0.4437,-0.19376,0.12567,0.24035,0.062517,0.14721,0.13775,0.18758
0.007645,-0.01559,0.27625,0.5053,0.031904,-0.0030446,-0.082962,-0.0096183
-0.22176,0.07512,-0.19975,-0.49548,-0.028833,-0.057984,-0.0038863,-0.1268
0.15172,0.046385,-0.091394,-0.23047,-0.041707,0.0059282,0.17995,0.069977
-0.56985,-0.016331,-0.062402,-0.004344,-0.0071003,-0.02249,0.014924,-0.084051
0.4548,0.12123,0.051807,0.27635,0.066622,0.020298,-0.26584,-0.019365
0.20042,-0.032825,0.15021,0.28291,0.022611,0.047655,0.21089,0.083672
-0.2948,-0.11056,-0.055849,-0.13384,-0.045896,-0.027078,-0.056803,-0.03317
-0.35098,-0.17335,0.23065,0.16611,-0.053269,-0.0013635,0.023187,-0.03405
-0.10761,-0.040226,-0.21693,-0.56744,-0.038606,-0.023968,0.12177,0.034364
0.93702,0.11812,-0.086271,0.10345,0.021762,-0.024578,-0.33137,0.008435
-0.45737,0.20865,0.005259,-0.16383,0.11264,-0.010683,0.047567,0.021489
0.30475,0.10643,0.026369,0.28074,-0.0076417,0.03389,0.057317,-0.043199
-0.32984,0.02172,0.03186,0.048112,-0.065164,-0.10117,-0.026348,-0.13066
-0.047427,-0.27326,-0.14212,-0.18876,-0.012698,0.16279,0.14264,0.18102
-0.018865,-0.045519,0.1765,0.51564,0.040551,0.052651,0.073912,0.079113
0.13176,-0.014986,0.05811,-0.097259,-0.053873,-0.095621,-0.13785,-0.10867
-0.38384,0.083336,-0.044252,-0.47428,0.071047,0.030257,0.038485,0.1407
0.58331,0.046376,0.048929,0.44533,0.040058,-0.062267,-0.023192,-0.15743
-0.52137,-0.12517,-0.1781,-0.43361,-0.084578,0.0014305,-0.059124,-0.096704
0.42661,0.15576,0.28258,0.51329,0.025124,-0.021128,0.053449,0.042087
0.20742,-0.13298,-0.27955,-0.6979,-0.013625,0.0027261,0.062349,-0.021506
-0.53211,0.12693,-0.13713,0.25456,-0.036567,0.026105,0.16118,0.14311
0.23742,-0.024707,0.15613,-0.0023161,-0.019956,0.017823,-0.36973,-0.096142
-0.0014022,-0.0094926,0.13236,0.35381,-0.010361,0.024827,0.071225,0.026652
-0.17976,0.00045375,-0.11425,-0.11318,0.12521,-0.023162,-0.14003,0.089283
-0.017519,0.020129,0.017534,-0.24676,-0.035183,0.022286,0.23247,-0.057661
0.13301,-0.068486,0.026527,0.29576,0.070626,0.0049091,0.042187,-0.017215
-0.39286,0.030648,0.05915,-0.29262,-0.1048,-0.03618,0.017428,0.15426
0.66988,-0.050317,0.26134,0.39897,0.016035,-0.014879,-0.08269,-0.21663
-0.2655,0.024175,-0.29909,-0.27355,0.034118,0.006613,-0.007502,0.033208
0.4565,0.10563,-0.14748,-0.063192,-0.043051,-0.11193,0.12583,0.04419
-0.2896,-0.086999,-0.081573,0.12181,-0.012338,0.12991,-0.10503,-0.07363
-0.3785,-0.053315,0.28193,0.17164,-0.09216,0.060564,0.072612,0.024946
-0.043166,-0.0038295,-0.063001,-0.50617,0.061786,-0.062042,-0.27172,-0.087833
0.24248,0.077414,0.05827,0.41936,0.090721,0.058822,0.18164,0.12132
-0.44762,0.065532,-0.15573,-0.39161,-0.020515,-0.1163,0.025934,0.029122
0.67966,-0.086506,-0.32701,-0.12232,0.0095228,0.021391,-0.028241,0.074141
0.19834,0.050571,0.51538,0.65289,0.016658,0.072815,-0.020286,-0.079323
-0.88892,-0.078521,0.11454,-0.16495,-0.061966,-0.064201,-0.060009,0.0056393
0.70012,0.002132,0.0011815,0.26884,0.07007,0.023939,0.12543,-0.055021
-0.60574,0.0029124,-0.084307,-0.22616,-0.025108,0.016676,0.15247,0.0027222
1.0032,0.19693,-0.33202,-0.51142,-0.066392,-0.039102,-0.19835,0.060049
-0.79757,-0.25178,0.2084,0.33199,-0.014551,0.036561,0.20526,-0.071916
0.19762,0.071174,0.1128,0.12126,-0.056637,-0.037108,-0.26956,0.12154
-0.32912,-0.060123,-0.29988,-0.1777,0.12045,0.006117,-0.098799,-0.149
0.55481,0.10518,0.001352,0.1049,0.0094543,-0.020657,0.078092,-0.063066
-0.58403,-0.049209,0.18919,0.0069016,-0.014285,0.023696,0.075203,0.067364
0.5959,0.047819,0.015191,0.0046938,0.017966,0.030097,0.042645,0.11016
-0.28073,-0.025097,-0.057747,-0.13534,0.0042584,0.029835,-0.041648,-0.0434
-0.43103,-0.056875,0.23793,0.20557,-0.0013814,-0.039799,0.11994,0.083684
0.94543,0.014734,-0.12742,0.15459,-0.023147,0.00049484,-0.042944,-0.086477
-0.36483,0.11102,-0.07455,-0.30141,0.063329,0.0018117,-0.078006,0.032146
0.16819,0.10619,-0.22014,-0.26157,-0.07821,-0.04409,0.0915,0.072463
-1.1514,-0.26618,0.068505,0.041707,-0.080468,-0.0046967,-0.082924,-0.23871
0.71495,0.032339,0.28282,0.5861,-0.013238,0.041742,-0.016837,0.044437
0.31224,0.02486,-0.20357,-0.47222,0.11647,0.017157,0.077771,0.063238
-0.18364,-0.015114,0.20901,0.35757,-0.0029932,-0.078256,-0.13545,-0.048708
0.033012,0.0065677,-0.036342,0.15887,0.0040585,0.12297,0.10944,0.17018
-0.1417,0.090534,-0.24655,-0.63404,0.00511,-0.058553,-0.069492,-0.14698
0.099167,-0.059384,0.10774,0.061429,-5.9819e-06,-0.005373,-0.038124,-0.023861
0.25533,0.096522,0.17371,0.53156,0.050607,-0.029802,0.16588,0.14817
0.41894,-0.050644,-0.21299,-0.18625,-0.10957,-0.030196,-0.1125,0.13356
-0.77084,-0.1022,0.15936,-0.24852,0.041927,0.087152,0.10413,-0.22532
-0.44666,-0.034723,-0.30899,-0.19304,0.012091,-0.037294,-0.051078,-0.14852
0.26944,0.1046,0.28306,0.15453,0.0035743,0.049336,-0.031411,0.15209
0.016629,-0.052022,0.040197,0.2974,-0.030509,0.018632,0.1079,-0.011364
1.0469,0.088308,-0.23753,0.090461,-0.019392,-0.067153,-0.13393,0.095736
-0.77532,0.024556,-0.00055346,-0.401,-0.11069,-0.051894,-0.023347,-0.096127
0.19761,0.02911,0.33109,0.32483,0.22005,0.056632,0.07947,0.054841
-0.97936,-0.12546,-0.19507,-0.3408,-0.065274,-0.046062,-0.1699,-0.19225
0.76408,0.075983,-0.040628,0.21867,0.018446,0.062213,0.13421,0.1794
-0.097027,-0.1712,-0.12148,-0.10773,-0.02845,0.0067977,0.022579,-0.056026
-0.058945,0.055464,0.37215,0.43559,-0.026364,-0.016711,0.19794,0.10168
0.63671,0.053897,0.054263,-0.24746,0.086733,0.0074611,0.050657,0.058363
-0.43449,-0.010544,-0.41412,-0.36979,-0.080518,-0.030076,-0.45835,-0.17912
0.16781,0.089983,0.08177,0.18459,0.033553,-0.0045039,0.030557,-0.010458
0.41412,-0.026308,0.079583,0.21225,-0.024935,0.091688,0.041418,0.1959
-0.56053,-0.046297,-0.18652,-0.53626,-0.037775,-0.085614,0.20785,-0.1704
-0.85364,-0.0088831,0.26087,0.51045,0.05729,0.033559,0.093228,0.085481
0.93215,0.0935,0.071812,-0.076142,0.041583,-0.019806,-0.20799,-0.059692
-0.8734,-0.12249,-0.494,-0.0061286,-0.10018,-0.081777,0.015597,-0.15981
0.84266,0.084674,0.22132,0.095706,0.02315,0.097658,-0.040606,0.16138
0.14709,-0.066913,0.15626,-0.38831,-0.0019229,0.018636,0.029446,-0.016619
0.12151,0.0003304,0.24057,0.43143,0.020411,0.001692,0.25658,0.15114
-0.70909,-0.010876,-0.20622,-0.032237,0.027971,-0.054466,-0.25815,-0.18619
0.13077,0.01637,0.0020338,0.08689,0.04429,0.022315,0.0708,0.010511
0.3874,0.019342,0.098315,-0.22713,-0.032311,-0.017714,-0.17085,0.17031
-0.11675,0.0056248,-0.39487,-0.25492,-0.0067799,0.020962,0.13415,0.010829
0.61962,0.06871,0.092713,-0.018386,-0.11381,-0.017778,-0.068592,-0.16463
-0.75311,-0.11197,-0.055201,0.17994,0.029139,0.006728,0.049426,-0.068307
-0.051186,0.14309,0.18653,0.053228,0.078099,0.06317,0.12136,0.17389
-0.24387,-0.15047,-0.055024,0.11099,0.0095171,-0.067356,-0.047963,-0.13366
0.44548,0.070171,0.11272,0.31484,-0.028232,0.0055459,-0.052399,0.079725
-0.10935,-0.0068331,0.12084,-0.37475,0.011696,-0.077778,-0.032955,-0.10689
-0.19638,-0.036772,-0.17856,-0.09994,-0.019168,0.12768,0.048852,0.10474
-0.19673,-0.14353,0.1205,0.31684,0.011949,-0.026804,-0.12797,0.012969
0.41349,0.095835,-0.29544,-0.65786,-0.0043843,0.044454,0.12341,-0.02932
0.52252,0.15862,0.26754,0.70076,-0.029165,-0.088398,0.13058,0.088182
-0.6338,-0.040884,-0.098287,-0.23334,4.6948e-05,-0.011347,0.0025882,-0.095098
-0.011362,0.012554,-0.23811,-0.28841,0.028523,0.0022522,-0.3309,-0.095055
0.73495,-0.025765,0.22185,0.2471,0.025014,0.069799,0.083541,0.079613
-0.67709,-0.071223,0.061865,-0.07884,0.036478,-0.034964,0.0042854,-0.0021637
0.36812,0.09352,-0.054752,0.12565,-0.007191,0.024251,0.29927,0.18917
-0.49699,-0.056183,0.074698,0.064771,-0.10563,-0.041274,-0.22601,-0.13717
-0.059165,-0.067995,0.036144,-0.26077,-0.031749,-0.0125,0.030747,0.025137
0.32808,-0.012478,0.27549,0.68838,0.011953,0.048268,0.031097,-0.05138
-0.61485,0.0247,-0.73719,-0.64242,0.16673,-0.03076,-0.13071,-0.12472
0.7338,0.13014,0.3674,-0.057945,-0.12942,0.047255,0.24884,0.19637
-0.30713,-0.13276,-0.056483,0.16056,0.06122,-0.030318,-0.15806,-0.21182
-0.05125,0.19,-0.25598,-0.55711,-0.034904,-0.021495,-0.11677,-0.0038305
0.79638,-0.11954,0.4432,0.96102,0.027024,0.018816,0.068166,0.22833
-0.82254,-0.045189,-0.20767,-0.2304,-0.02725,-0.0033421,0.060809,-0.013871
0.26603,0.014918,0.056741,-0.26451,0.0043686,0.021245,-0.0062994,0.059552
0.13279,-0.095404,0.0076961,0.076756,-0.019845,-0.024713,0.14749,0.042658
-0.3248,0.11586,0.18046,0.050328,0.039732,-0.078768,-0.22877,-0.33043
0.54004,0.085854,-0.046978,-0.079085,0.010481,0.11687,0.043345,0.080231
-0.87606,-0.068738,0.35169,0.52376,0.024858,0.0075165,0.0092573,-0.054389
0.19868,0.042177,-0.55724,-0.76642,-0.049842,-0.00060626,0.042491,0.17874
0.20799,-0.11311,-0.33067,0.09748,-0.080227,-0.063768,0.12611,0.044187
-0.068623,0.0041722,0.28928,0.10832,0.04404,-0.010116,-0.20176,-0.084044
0.39777,0.026796,-0.2732,-0.18617,-0.066482,-0.03497,0.042865,-0.0036868
-0.36475,0.033075,0.48586,0.38669,0.14409,0.13513,-0.0069392,0.026836
0.18671,-0.039122,0.11025,0.33518,0.0048599,-0.015387,0.048216,0.0072819
-0.16321,-0.0018514,-0.043931,-0.29376,-0.0069626,-0.048917,0.030185,-0.085575
0.41732,0.098414,-0.21531,-0.36749,0.046339,0.0034432,-0.12159,0.11614
-0.28552,-0.058369,-0.05803,0.027903,-0.10102,-0.061235,-0.11601,-0.1443
0.071287,-0.073692,0.34257,0.49409,-0.074481,-0.0083588,0.15819,-0.013999
-0.25241,0.060119,-0.1627,-0.3746,0.062857,0.091958,0.13206,0.016171
0.045181,-0.02444,0.010445,-0.092834,0.029084,0.021088,0.087595,0.19727
-0.56767,0.062834,-0.35106,-0.16731,-0.043638,-0.064706,-0.108,-0.15762
0.28486,-0.0066063,0.063135,0.1685,0.039408,0.021976,-0.3147,-0.017248
0.71279,0.071625,0.42298,0.42269,0.027712,-0.00029941,0.22431,0.24288
-0.027092,-0.1791,-0.24959,0.0087435,0.03028,0.0088931,1.1335e-06,-0.15154
-0.43087,0.038315,0.23183,0.06587,0.031319,0.025975,0.050229,0.056408
0.33001,-0.0021624,-0.28965,-0.46262,-0.11751,-0.042828,-0.0088802,-0.20424
-0.14591,-0.010755,0.013768,-0.16479,-0.025214,-0.041145,-0.10001,0.019416
0.13544,0.15391,0.017074,0.059038,-0.042716,0.023443,0.073203,0.13392
-0.49003,-0.20292,0.19699,0.30917,0.041659,-0.075359,0.010558,-0.157
-0.27328,0.09088,-0.21186,-0.07123,0.033273,0.10014,-0.14725,-0.079203
0.49573,0.027248,0.11109,0.22258,0.11223,0.049938,0.20162,0.19581
0.27797,0.058613,-0.083951,-0.39473,-0.033959,0.023811,-0.0049171,0.23038
0.075153,-0.042654,-0.038962,0.14031,-0.085385,-0.072449,-0.0085678,-0.11696
-0.28053,-0.06686,0.48069,0.24305,0.06658,0.010573,-0.13699,-0.12887
0.27261,0.070768,-0.57926,-0.44443,-0.024276,-0.040198,0.039868,0.075831
-0.92692,-0.083746,0.14908,0.25907,-0.038462,0.0013675,-0.0012197,-0.066836
0.97848,0.063005,0.11988,-0.0043605,0.039113,-0.013362,-0.088454,-0.14372
-0.22866,-0.027798,-0.11867,-0.085071,0.005225,0.032872,0.23868,0.23569
-0.38862,-0.019422,-0.11977,0.088105,-0.061624,-0.00025516,-0.13777,-0.25598
0.080937,-0.051289,0.18047,-0.10168,-0.043465,-0.0029335,0.070205,0.15615
-0.090131,0.096735,-0.091995,-0.12341,0.084149,0.040927,0.1427,-0.018324
0.1066,0.074384,0.078809,0.27214,-0.0059024,-0.040154,-0.14782,0.1052
0.26913,-0.16425,0.16117,0.4353,0.023077,-0.011552,-0.13003,-0.057804
-0.12675,0.061006,-0.11174,-0.75248,-0.016084,-0.021627,-0.13982,-0.11593
0.72569,0.054719,0.00046953,0.24658,0.048308,0.085788,0.1282,0.26684
-0.45687,-0.089996,-0.17608,-0.19343,-0.034396,-0.017623,0.27685,-0.05062
-0.3038,0.13364,0.15358,0.05991,-0.0073462,-0.027392,-0.16106,-0.22551
0.13338,-0.0021276,-0.15267,0.24109,0.019041,0.0016414,0.073938,0.11607
-0.5621,-0.099969,0.20896,0.038081,-0.034228,0.030406,-0.063578,-0.05814
0.79013,0.026847,-0.12897,-0.37663,0.051114,-0.097177,-0.080307,0.016664
-0.79713,-0.16883,0.04475,0.11468,-0.09209,0.017663,-0.053762,-0.019439
0.39622,0.15697,-0.17546,0.28575,0.028889,0.0081571,-0.054232,-0.088662
0.31243,-0.018505,0.039347,-0.26964,-0.08502,0.077817,0.24581,0.27754
-0.17448,0.032177,0.54936,0.39364,0.090707,-0.02312,0.040503,-0.022554
0.10694,0.028661,-0.39472,-0.27932,0.0023518,-0.0055866,-0.0076494,0.018801
-0.8133,-0.036176,-0.01894,-0.093293,0.064581,-0.02609,-0.095625,-0.30928
0.88969,0.072404,-0.32287,-0.30588,0.011862,0.032086,0.017359,0.29038
-0.32108,-0.17686,0.38916,0.52095,-0.054681,0.012101,-0.075765,-0.23631
0.76484,0.098518,0.10963,0.059755,0.090674,-0.0085014,-0.10939,0.0647
-0.49558,0.05422,-0.3878,-0.54819,-0.12341,-0.037979,0.15943,0.069545
-0.10563,-0.02915,0.18597,0.50991,-0.0025902,-0.01405,-0.1273,-0.048726
-0.4042,-0.058439,0.010535,-0.4615,-0.14912,-0.014798,0.078867,0.046846
0.63052,0.067498,0.13245,0.47422,0.21795,0.01474,0.037132,0.028846
-0.69649,-0.065566,-0.13619,-0.0046038,-0.0028678,0.067172,0.11552,0.1007
0.29649,-0.0043837,0.13393,-0.16513,-0.014265,0.010152,-0.014003,-0.089256
-0.26245,0.024842,-0.11982,0.35857,-0.018726,-0.030916,-0.13333,-0.15868
0.41091,0.046061,-0.11598,-0.49654,0.00011755,-0.11045,0.022017,0.047946
-0.19741,-0.033933,0.16954,-0.065871,-0.050758,0.10759,0.0053803,-0.071894
0.31833,-0.074061,-0.12163,0.21463,0.071449,0.029386,0.22968,0.12131
0.033269,0.1447,-0.02741,-0.7153,-0.10159,-0.024946,-0.42293,0.055995
0.41125,-0.033856,-0.10154,0.64663,0.10216,0.022456,0.15693,0.06682
0.040323,-0.063059,0.21114,0.13014,-0.012706,-0.070845,-0.0066988,0.097932
-0.91259,0.033264,0.42599,0.65752,0.03785,0.03091,-0.084674,-0.17962
-0.33316,-0.011024,-0.62207,-0.74095,-0.043567,-0.062979,0.13501,-0.21925
-0.19002,-0.040219,0.2919,0.12805,-0.038806,0.038138,0.051579,0.10444
0.99645,-0.00012761,-0.14653,-0.2691,0.004681,0.029647,0.024607,0.058087
-0.34661,0.1167,-0.071999,-0.0047033,0.00048341,0.01318,-0.040112,-0.083449
0.85733,0.028837,0.16257,-0.017308,0.065469,0.035634,0.11421,0.19697
-1.128,-0.16208,0.1815,0.27915,-0.05833,-0.043649,-0.34189,-0.12286
0.67071,0.036484,-0.57764,-0.21574,-0.0037409,0.009644,0.26218,0.090611
-0.056454,8.8884e-05,0.19056,-0.10967,-0.012858,-0.1014,-0.074478,0.056212
-0.42617,-0.020528,0.080989,0.13028,0.08635,0.076374,-0.11775,-0.13275
0.22424,0.069143,-0.0066472,-0.14331,-0.088733,0.074357,0.24222,0.11674
0.23574,0.0041185,0.7335,1.015,0.079301,-0.052524,-0.09492,0.030481
-0.86409,-0.11366,-0.51791,-0.69253,-0.01085,-0.1477,-0.28374,-0.41543
0.72543,0.13771,-0.33045,0.053034,-0.015122,0.14073,0.34171,0.23991
0.47709,-0.031174,-0.23473,-0.5701,-0.034695,0.086501,0.056588,0.15315
-1.0184,0.011861,0.25416,0.085472,-0.15507,-0.10705,-0.27857,-0.25314
0.95582,0.023809,0.23031,0.1992,0.24918,0.021069,0.086591,0.22487
-0.93661,-0.12896,0.11562,0.38888,-0.040327,-0.044867,0.010831,-0.09983
0.70393,0.068527,0.21436,0.062036,-0.023378,0.022989,0.12539,0.15562
-0.62772,0.022165,-0.47433,-0.16248,0.026598,-0.033611,0.021718,-0.19673
0.36896,-0.010241,0.040624,-0.40797,-0.1328,0.058195,-0.20131,0.084384
0.2917,-0.12212,-0.25764,-0.14957,0.091786,0.0086844,0.22723,-0.0022412
-0.92638,0.12458,0.16878,0.25406,0.066985,0.043748,-0.022674,-0.020355
0.95897,0.019585,0.16267,0.18547,-0.028133,-0.024687,-0.053327,0.154
-0.84129,-0.038043,0.30925,0.43231,-0.12387,-0.11104,-0.3329,-0.33916
1.0455,0.12406,-0.25905,-0.39851,0.099555,0.058073,0.11703,0.30478
-0.79936,-0.15004,-0.13596,0.025813,-0.045761,-0.0092252,0.12741,-0.27305
0.64929,0.0069077,-0.016243,-0.32909,0.049336,0.054891,0.045188,0.14704
-0.26372,-0.069233,0.14028,0.40153,0.048875,-0.045573,0.05299,0.019375
-0.052108,0.16035,-0.30542,-0.33821,-0.078239,0.0028607,-0.026775,0.032636
-0.2041,-0.07033,0.21096,0.18644,0.0042512,-0.0098371,-0.02133,-0.03876
-0.32994,0.019537,0.12079,-0.28045,-0.039146,-0.067365,0.022065,-0.045754
0.72915,0.0076197,-0.27788,0.20165,-0.0048042,0.15091,0.047226,0.13688
-0.30242,-0.043997,0.26533,0.22233,0.037448,-0.0035412,-0.20588,-0.045635
0.0051893,0.07532,-0.093845,-0.23034,0.10362,-0.046825,0.12746,-0.046721
-0.39376,-0.079883,0.22144,0.24525,-0.071661,0.012485,0.076286,-0.038568
0.38422,-0.025182,0.14703,0.1124,0.011698,-0.021802,-0.040663,0.0098521
0.0019183,0.052141,-0.52176,-0.58843,-0.021318,-0.048946,-0.14595,0.028169
0.22072,0.003995,0.010928,0.23694,-0.077048,-0.007072,0.0028381,-0.069476
0.26721,0.033897,-0.028484,0.095831,-0.022794,0.040977,-0.038616,0.021718
-0.58857,-0.092167,0.063839,-0.23182,0.14132,0.032657,0.23893,0.10646
-0.016779,0.087005,0.16419,0.26756,-0.030138,-0.023999,-0.14739,-0.081053
0.48272,0.0090336,0.13333,0.26314,0.048623,0.019863,0.092693,0.099353
-0.63707,-0.060493,-0.43395,-0.55293,-0.060021,-0.0070895,0.022366,-0.13424
0.28087,-0.012386,0.25946,-0.12154,-0.043673,0.036365,0.055793,0.24866
0.028234,-0.018828,0.34572,0.9603,0.035119,-0.067938,-0.20588,-0.23706
-0.077478,0.07605,-0.43445,-0.92741,-0.0502,-0.038244,-0.036819,-0.029356
-0.036552,-0.0015887,0.28421,0.51803,0.067597,0.032047,0.23399,-0.050281
0.34835,0.076043,-0.41426,-0.49331,-0.10365,0.0024304,-0.22236,0.22378
-0.55954,-0.17563,0.20314,0.24211,0.17042,0.044613,0.093575,-0.1833
0.26827,0.079364,0.042152,0.24168,-0.094692,-0.021553,-0.0060275,0.064939
0.4155,-0.025897,0.056422,-0.061949,0.093046,0.084479,0.064715,0.078373
-0.59678,0.040366,-0.39321,-0.25868,-0.047794,-0.013109,-0.05341,-0.080165
0.8456,-0.018028,0.36723,0.093329,-0.072011,-0.10415,0.10867,0.3004
-1.1444,-0.12221,-0.11307,-0.16574,-0.026465,-0.0016768,-0.19862,-0.44403
0.09954,0.20502,0.15232,0.0692,-0.020373,-0.026215,-0.013886,0.03797
0.85102,-0.043753,-0.053904,0.26132,0.1184,0.041165,0.13985,0.14464
-0.89158,-0.12631,-0.11398,-0.19047,-0.00046235,0.044719,0.075405,-0.061709
0.68841,0.14449,0.049949,-0.10794,-0.0017117,-0.01485,-0.097714,0.090635
0.11699,-0.099264,0.29629,0.51357,-0.010183,-0.027416,-0.14517,-0.0078349
0.0051415,0.11803,-0.43882,-0.1193,-0.0102,0.0076694,0.065663,-0.036858
-0.30189,0.0062389,0.36665,-0.12832,-0.01743,0.036161,0.33136,0.10523
-0.4267,-0.16995,-0.32752,-0.048689,-0.086662,0.011366,-0.27806,-0.096893
0.064446,0.034082,-0.11583,-0.29705,0.10228,-0.051154,0.041889,-0.10357
0.060561,0.071199,0.14978,-0.1398,0.025801,0.020229,-0.22444,0.023512
0.52316,-0.034997,0.10979,0.27551,-0.011564,0.022043,0.18092,0.035277
-0.045213,0.059828,-0.032868,-0.049063,-0.041214,-0.085124,0.10987,0.08882
0.20337,-0.041862,0.29958,0.37333,0.038299,0.065628,-0.21068,-0.096575
-0.66326,-0.096799,-0.27632,0.013577,-0.0074618,-0.010262,0.2977,-0.0052549
-0.15467,0.14613,-0.19885,-0.38479,-0.053483,-0.016004,-0.20079,-0.0049737
0.52442,0.023833,0.50786,0.63959,0.040943,0.056195,-0.018715,0.25471
0.17667,-0.15045,-0.63316,-0.67133,-0.013118,-0.067098,-0.0079357,0.030127
-0.8261,0.068994,0.22202,-0.013336,-0.0045945,-0.010904,0.010768,-0.45371
0.5502,0.033723,0.44135,0.50394,-0.01933,0.052823,0.060256,0.13003
-0.13921,-0.037884,-0.49731,-0.4239,0.13801,0.030186,0.14775,0.12436
0.4553,0.04878,0.095171,-0.11631,-0.087346,-0.016506,-0.21161,0.029257
-0.28769,-0.058796,-0.045196,0.052876,-0.062711,-0.056192,-0.0024835,-0.099924
-0.053778,-0.049181,-0.29997,-0.048071,0.0086182,0.020389,-0.037336,-0.058831
0.095717,0.1625,0.48769,0.16726,0.063988,0.025753,0.11386,0.060318
