-0.035303,-0.14228,0.10096,0.16072,-0.0098638,0.0034968,-0.0093078,0.013334
0.010319,-0.021388,-0.19762,-0.11471,-0.0027217,0.028432,0.0097804,0.0069127
-0.0056109,0.12335,0.304,0.03376,-0.0028974,-0.0003476,-0.016503,-0.014426
-0.083595,-0.058191,-0.37804,0.33276,0.083354,0.010529,0.013015,0.0036646
-0.013333,-0.025721,-0.14852,-0.11643,-0.0096675,-0.0019798,0.011755,-0.025133
0.079571,0.0731,0.19001,-0.11119,-0.03989,0.11778,0.21329,0.047276
-0.024051,-0.12099,0.11647,-0.19902,-0.085553,-0.27135,-0.35978,-0.044984
0.027241,0.00073279,0.25005,0.11956,-0.013937,0.049015,0.026215,-0.0051539
-0.0085158,-0.0084473,-0.54089,-0.01519,0.088948,0.016244,0.011395,0.0027219
-0.076086,0.16978,0.25923,0.13096,0.043339,0.075735,0.2362,0.010024
0.028451,0.072209,-0.0071211,-0.020183,0.028821,0.29028,0.060143,0.040392
-0.076819,0.11075,0.32958,-0.21087,-0.087554,-0.35529,-0.27413,-0.030953
0.21832,-0.10673,0.016367,0.27747,-0.0090564,-0.024456,-0.00025463,0.0071322
-0.10896,-0.54171,-0.77003,-0.14926,-0.0092406,0.017812,-0.0079397,-0.017066
-0.011477,0.10328,0.52269,0.17253,0.044658,-0.024707,0.078783,-0.0096932
0.018467,-0.013929,-0.47404,-0.09352,0.004243,0.16102,0.06543,0.029292
0.15229,0.24944,0.4975,-0.12739,-0.044419,-0.026285,-0.03186,-0.0095039
-0.3608,0.50496,-0.046015,0.078812,0.0082387,-0.086658,-0.09583,0.0066624
0.1735,-0.19868,0.3428,0.080248,0.037436,0.088886,0.076227,-0.023888
0.0040246,-0.27433,-0.70838,-0.059691,-0.0035002,-0.00031897,0.061602,0.015885
-0.050174,-0.065096,0.18623,-0.27736,-0.028483,-0.058215,-0.00016678,0.00081645
0.1581,-0.055094,0.20127,0.32683,0.0016191,0.0081549,-0.094548,-0.0067599
-0.012877,-0.064573,-0.11414,-0.089999,0.008664,-0.036193,-0.0036309,0.0008248
-0.032626,0.1408,-0.086777,0.027181,-0.0074431,0.019371,0.0066081,0.0078474
-0.01857,0.099943,-0.0055141,0.029603,0.015655,0.049893,0.092704,0.037719
-0.024917,0.023449,0.23024,0.033507,0.023124,-0.022378,-0.033463,-0.03449
-0.050393,0.051369,0.19666,0.14693,-0.00075558,-0.032758,-0.1204,-0.044542
-0.0070648,-0.012399,-0.44468,-0.17054,-0.0091044,0.011674,0.021178,0.023465
-0.04871,-0.098463,0.42878,-0.060517,-0.033042,0.041304,-0.021031,0.0058127
0.14755,-0.1609,-0.090962,-0.1327,-0.025452,-0.044922,0.15275,0.043481
-0.072362,0.096261,-0.57486,0.011797,-0.048547,-0.067112,-0.05064,-0.035106
-0.04298,-0.18729,0.12615,-0.032194,0.046342,0.076133,-0.07687,-0.050082
0.10318,0.1671,0.0058746,0.26014,0.079599,0.05617,0.041473,0.029815
0.044945,0.25198,0.31638,0.0072463,0.035436,0.020674,0.16165,0.04035
0.092944,0.0034352,-0.214,-0.04787,-0.0084073,0.16413,0.015514,0.059319
-0.05218,-0.056471,0.50149,0.024664,-0.052455,-0.3657,-0.079047,-0.062144
-0.23677,-0.17874,-0.1625,0.02913,0.0043449,0.048044,-0.12388,-0.0041596
0.091675,0.0036243,-0.15275,-0.035265,-0.041472,-0.0242,-0.15895,-0.056144
-0.029189,0.015081,-0.0025748,-0.19286,-0.033721,0.050891,0.026863,-0.015185
0.017373,0.13144,-0.057689,0.03995,0.0043843,0.11,0.20029,0.048345
-0.0025994,-0.081174,0.079131,0.0064239,0.018585,-0.010194,-0.019763,0.0016862
-0.017791,-0.14179,-0.32654,0.08915,0.024986,-0.012274,-0.02988,0.016814
-0.042616,-0.20219,-0.04697,0.069311,0.03958,-0.044481,0.17155,6.5275e-05
0.28335,0.19443,0.49802,-0.24065,0.015624,0.080533,-0.031543,0.068678
-0.18771,0.15168,-0.22044,0.26848,-0.0079578,-0.067334,-0.044856,-0.08201
0.14592,0.067854,0.0027329,0.0026925,-0.0080632,0.0035906,-0.18079,-0.014437
-0.083196,0.30766,0.1139,-0.0070628,-0.00071073,-0.035259,0.029202,0.029363
-0.086342,-0.2114,-0.18408,0.012522,-0.033056,0.011208,0.045776,-0.028438
0.019089,-0.065019,0.28699,-0.23523,-0.034817,0.072756,0.21238,0.031343
-0.047981,-0.11784,0.17307,-0.077808,-0.021347,-0.03775,-0.25252,-0.048587
0.0021164,-0.32708,-0.50527,0.16548,0.046943,-0.093181,-0.083643,0.029141
-0.048429,0.12538,-0.063158,0.066116,-0.001184,0.063319,0.17946,-0.024197
0.12172,0.13014,0.028776,-0.10141,-0.024544,-0.0052918,0.036036,0.025827
0.091506,0.087415,0.45725,0.12442,0.039659,-0.002006,-0.10093,-0.00079248
-0.13095,0.00017403,-0.61329,-0.022047,0.058527,0.01037,0.095378,0.03587
-0.053817,-0.018888,0.43574,0.091273,0.031585,0.07796,-0.11858,-0.03706
0.10316,0.1347,0.020466,-0.052469,-0.065368,-0.026868,0.099847,0.037114
0.065036,-0.16209,-0.012944,-0.079706,-0.030076,0.11661,0.40648,0.14021
0.15043,0.044609,-0.091828,-0.046406,-0.027359,-0.094074,-0.16686,-0.13465
-0.2828,0.12163,-0.12047,0.023181,-0.0030008,-0.096833,-0.79814,-0.1625
-0.087181,-0.19006,-0.17571,-0.050794,-0.019595,-0.14139,0.14046,-0.0052628
-0.051966,-0.024896,0.23501,0.068119,0.063756,0.015369,0.19149,0.041314
0.12816,0.17804,0.20483,0.052841,-0.018033,0.117,0.33493,0.088026
0.142,0.034807,0.021215,-0.095286,-0.0064914,0.12591,0.19838,0.097196
0.06936,-0.40041,-0.091538,0.16416,0.059943,0.019829,-0.24039,-0.039501
-0.25207,0.23199,-0.15153,-0.12084,-0.01356,-0.052144,-0.22404,-0.040304
0.12448,-0.028188,-0.02025,-0.019897,-0.015776,0.0037543,0.18289,0.00095648
-0.11253,0.0075898,0.26986,0.045268,-0.0091087,-0.031751,0.0085468,-0.0022361
0.037182,0.16061,-0.17172,-0.12884,-0.024856,-0.026699,-0.094368,-0.0038934
0.1357,-0.021554,-0.25757,0.26166,-0.0006468,-0.028888,0.28489,-0.0049854
-0.13835,-0.12456,0.085296,-0.042174,0.0086675,-0.015649,-0.56713,-0.068862
0.16662,0.10936,0.51647,-0.08842,0.026354,0.020341,0.23096,0.053881
0.025455,0.10971,-0.86699,-0.096927,-0.025887,0.024203,-0.008554,0.0035823
-0.23535,-0.22516,0.53119,-0.1232,-0.038875,0.011596,0.15257,0.014601
-0.10922,-0.21535,0.0871,0.27761,0.10436,0.0060939,0.098468,0.0089851
0.17663,0.2413,-0.074863,0.011692,-0.041759,-0.015623,-0.24749,-0.020837
0.075298,0.051956,0.30863,0.032428,-0.00092148,0.016772,-0.016868,-0.027789
0.048323,-0.063615,-0.38314,-0.15967,-0.023366,-0.02183,-0.013646,-0.019603
-0.012581,0.1142,0.14272,-0.056102,0.0079345,0.14963,0.3404,0.12083
-0.17629,-0.10163,-0.17993,-0.023297,-0.00081178,-0.1956,0.037004,0.041754
-0.02713,0.085662,-0.056745,0.22074,-0.018259,0.0049072,-0.40897,-0.17117
0.10836,-0.090273,-0.051208,0.036028,0.041763,0.055928,0.079859,0.044329
-0.026261,-0.052608,0.35293,-0.084777,-9.3561e-05,-0.05785,-0.035937,-0.038362
0.19502,0.13442,-0.3502,-0.071083,-0.01062,0.093745,0.11889,0.080918
-0.078829,0.054758,0.037394,-0.21187,-0.075362,-0.043392,-0.017187,0.0041554
-0.13687,-0.30142,0.40914,0.18806,0.032564,-0.0077553,0.33095,-0.010184
-0.02645,0.12654,-0.31082,0.1831,0.07116,0.0057981,-0.56891,-0.055046
0.048404,0.18878,-0.043026,-0.024077,0.0092068,0.020964,0.18405,0.003217
-0.069795,-0.076516,0.24399,-0.012123,0.010633,0.0065113,0.037267,0.0247
0.16434,-0.060095,-0.22402,-0.14094,-0.08107,-0.029976,-0.20307,-0.029203
0.10077,0.090279,0.29364,-0.17658,-0.031851,-0.010811,0.29939,0.052521
-0.18395,-0.084835,-0.36102,0.20105,0.0095215,-0.0068908,-0.096879,-0.019565
-0.0036238,-0.19262,0.29489,0.10906,0.089627,0.05145,0.18399,0.034992
0.094044,0.20705,-0.41136,-0.030618,-0.010517,0.015158,0.16997,0.027584
-0.1021,-0.086242,0.25464,-0.17103,-0.056698,-0.069384,-0.55678,-0.019573
-0.036879,0.18767,0.028093,0.055073,0.021316,0.031912,0.30491,-0.060718
0.032963,-0.16493,-0.12076,0.18674,0.012592,0.0065213,-0.028823,-0.010699
-0.00045643,0.012819,0.083268,-0.065105,0.0031675,-0.028118,-0.17635,0.028605
0.036346,0.13449,-0.084807,-0.12231,-0.045826,-0.040255,-0.1294,-0.083241
0.019795,-0.059191,0.27454,0.077808,0.053396,0.080166,0.21548,0.060645
-0.010058,0.062453,-0.10398,-0.019076,0.01212,0.068278,0.25186,0.086178
0.0018918,-0.12797,-0.048956,-0.053018,-0.020843,-0.12207,-0.36068,-0.068137
0.071117,0.062645,-0.15534,0.015716,-0.068589,-0.013757,0.30284,0.043918
-0.0686,-0.11735,0.036091,-0.031006,-0.0058787,-0.028338,-0.2787,-0.045744
0.0038032,0.057733,0.14056,0.025935,0.050159,0.09979,0.16934,-0.00083908
-0.0093263,-0.0059205,-0.093841,0.061478,0.060291,0.026496,-0.095302,-0.001038
-0.046026,-0.073345,0.18284,0.051616,0.00066832,-0.077051,0.06682,0.015888
-0.012729,0.0127,-0.1085,0.010928,-0.019928,0.061657,0.099003,0.018217
0.01261,0.16737,0.18038,-0.069732,-0.025598,0.019772,-0.047994,-0.010243
-0.024293,0.13383,-0.52792,-0.058895,-0.0091094,0.015214,0.053318,-0.015351
0.080143,-0.14181,0.15101,0.065846,-0.0098742,-0.15564,-0.29392,-0.0053451
-0.0018757,-0.12768,0.10223,-0.016269,0.0033338,0.02277,0.16749,-0.003904
0.12035,0.10654,0.21113,-0.023693,-0.00040526,-0.0038614,-0.14795,0.028001
-0.14715,-0.024304,0.12083,-0.0022631,0.010787,0.046432,0.003195,-0.065738
0.078008,-0.16769,-0.34635,-0.12224,-0.032597,0.041715,0.18515,0.035446
-0.15786,0.099329,-0.04851,0.23548,0.026512,0.0062645,0.048067,0.0036997
0.027542,-0.011354,-0.00091391,-0.12263,0.032534,0.0032244,0.030752,0.026737
0.086904,0.032017,0.15515,-0.062391,-0.014142,-0.0061034,-0.11614,0.034342
-0.011312,-0.0051657,-0.058548,0.19805,0.011519,0.0018074,0.044823,-0.036009
-0.032913,0.18844,0.050815,-0.13846,-0.03924,-0.02004,0.052075,0.0030727
-0.056149,-0.13925,0.19893,0.098832,0.028292,-0.048452,-0.21258,-0.067296
0.14543,0.0090265,-0.22673,-0.029329,0.010225,-0.02122,-0.062777,0.026231
-0.014201,0.10685,0.13041,0.037518,0.0073387,0.069162,0.28165,0.049274
-0.011673,-0.17659,-0.090922,-0.1088,-0.043529,-0.012015,-0.12553,-0.029328
-0.073477,0.016206,-0.50862,0.038096,-0.0021847,-0.022959,0.03524,0.0015253
0.019411,0.02047,0.41697,-0.069373,-0.017223,0.012409,0.099344,0.017017
0.033159,-0.061614,0.25796,-0.048272,-0.0025929,0.02321,-0.23831,-0.053023
-0.062664,-0.032913,0.03259,0.16474,0.065457,0.079174,0.0689,0.010194
0.037642,-0.0079482,-0.33422,-0.12434,-0.015772,0.093879,0.23964,0.050304
-0.00079108,0.2038,-0.089446,0.023471,-0.011462,-0.34699,-0.38223,-0.042343
-0.083282,-0.012005,0.1133,0.18764,0.024091,0.10824,0.25831,0.044341
0.10327,-0.020338,0.41656,-0.037086,-0.010371,-0.0086819,-0.072466,0.0052073
0.035531,-0.062077,-0.45212,-0.087659,-0.036509,0.060883,0.20456,0.066418
-0.075992,-0.14473,0.022859,-0.15145,0.023944,0.083603,-0.010754,-0.11598
0.064623,0.192,0.051403,0.12293,-0.00079772,-0.06447,-0.30258,-0.057536
0.042017,-0.053217,0.13165,0.094451,-0.0013054,-0.030884,-0.20016,0.031227
0.02665,0.28194,-0.16072,-0.049839,-0.03225,-0.033806,0.11874,0.002549
-0.24837,-0.359,0.20285,0.056769,0.039151,0.059773,0.22595,0.060371
0.059791,0.03806,0.1182,-0.32056,0.0018641,0.023081,0.28614,0.033606
0.036654,-0.17636,-0.72143,0.14585,0.0041567,0.011806,-0.18549,-0.038092
0.10416,0.20823,0.51075,0.11172,-0.024529,-0.084238,-0.14365,-0.013824
-0.049708,0.043472,0.23621,0.0061923,-0.0063661,0.038719,-0.06737,-0.0030505
-0.01015,0.1111,-0.32579,0.22707,0.042705,0.036055,0.10292,0.0016041
-0.018492,-0.12723,-0.27555,-0.21055,0.013031,-0.022605,0.036155,0.015056
0.0042426,0.0011953,0.39651,-0.11164,-0.040894,-0.07517,-0.10604,-0.033881
0.066623,-0.0027646,0.0361,0.062994,-0.0019441,0.034519,-0.012784,0.010142
-0.049471,-0.1305,-0.10499,-0.10008,-0.026286,0.041041,0.05753,0.021325
0.054889,0.17337,-0.03317,-0.10764,-0.019958,0.030773,0.011677,-0.00089805
-0.1043,-0.098514,-0.028825,0.11965,0.040774,-0.081647,0.023066,0.060427
0.020082,-0.078797,0.29118,0.25479,0.070285,0.06377,0.21905,-0.060161
0.014096,0.162,-0.44829,0.040687,-0.0249,-0.024607,-0.32721,-0.049602
-0.059828,0.1233,0.21332,-0.12399,-0.018024,-0.018222,-0.050224,-0.016388
0.016753,-0.20357,0.40836,-0.13796,-0.033983,0.0050542,-0.056698,-0.014145
0.14169,0.10227,-0.79324,-0.087832,-0.033696,0.021832,0.14742,0.083157
0.0016574,-0.030339,0.38959,0.080249,0.021838,-0.014914,0.070579,0.010681
0.0097011,0.015216,0.0037095,0.11544,0.038737,0.042928,0.079156,-0.004636
-0.22581,-0.18307,-0.021136,0.0013851,0.04024,-0.055087,-0.032227,0.013653
0.1224,0.031344,-0.11468,-0.035853,-0.052017,0.010855,0.037777,0.010288
-0.024315,0.026173,0.16025,0.0034762,0.019527,0.005901,-0.066204,-0.039057
-0.025426,0.044168,0.30299,-0.11497,-0.01877,-2.363e-05,0.042952,-0.0025686
0.1272,0.11691,-0.48433,0.18725,0.012664,0.00064451,-0.082529,-0.0061344
0.02019,0.080279,0.16427,0.0122,-0.018974,1.335e-05,-0.076347,-0.019103
-0.16581,-0.019288,-0.29927,-0.4051,-0.05887,-0.0096337,-0.24232,-0.010428
-0.0078629,-0.28404,0.45226,0.26409,0.033809,0.018833,0.29697,0.035715
0.081014,0.15254,0.15278,0.1843,0.063981,0.0076664,0.037105,0.0026653
0.01572,-0.06937,-0.55688,-0.113,0.016216,-0.050499,-0.11203,-0.015119
0.0077054,0.02677,0.30075,0.075248,-0.015625,0.032294,0.21984,0.014337
0.041457,0.08982,-0.14778,-0.11059,-0.031512,-0.0091821,-0.035655,-0.0021347
-0.086449,-0.19194,-0.048897,-0.08496,-0.015858,0.020668,-0.049892,-0.0095305
-0.017291,0.12776,0.16982,0.034576,-0.02342,0.0047823,-0.10506,-4.2953e-05
0.029292,-0.012634,-0.013259,0.060227,0.039469,0.00561,0.14835,0.049448
0.036683,0.1454,0.04359,-0.05508,-0.0069608,-0.055189,-0.057944,0.013393
0.0039334,-0.08522,-0.26111,0.040077,0.0012592,0.025167,-0.07821,-0.054179
-0.069728,-0.032543,0.28252,0.025251,0.017143,0.019696,0.069751,-0.052326
0.049585,-0.032683,-0.077575,0.0018481,0.0015003,-0.017342,-0.07626,0.041943
-0.028886,0.0077801,0.022997,0.040019,0.0010849,0.023063,0.014864,0.001872
0.046661,0.0025184,0.14376,-0.024398,0.0001911,5.8069e-05,0.023762,-0.00056629
-0.0044423,-0.033241,0.039962,-0.035098,-0.0089914,0.0073563,0.1085,0.050611
-0.071981,-0.092085,-0.36811,-0.030857,-0.018536,-0.025164,-0.1583,-0.047173
0.055951,0.14587,0.052128,0.043545,-0.0047783,-0.026782,0.0069174,-0.0042102
-0.041585,0.16456,-0.25276,-0.17056,-0.045535,-0.012557,0.027873,0.00044158
-0.027915,-0.12241,0.46969,0.054141,0.078271,0.018129,-0.047578,-0.024896
0.11297,0.15181,-0.1446,0.28072,0.023154,0.042365,0.20229,0.029447
-0.017412,-0.3957,-0.022182,-0.20933,-0.023242,0.0057642,0.041785,0.085369
-0.052376,0.063362,0.03478,0.083792,-0.0062484,-0.060457,-0.28922,-0.13083
0.03066,0.084142,0.28557,-0.01239,-0.027604,0.030797,0.018888,0.036578
0.043149,-0.035862,-0.31638,-0.022224,0.0061411,0.044411,0.25221,0.040051
-0.00030898,0.14143,0.064159,-0.071717,0.016496,-0.036196,0.056778,0.0038716
-0.10831,0.069486,0.097744,0.0101,0.01091,0.014545,-0.17814,-0.0022642
0.015639,-0.071999,0.032879,0.08198,0.0047057,0.00049371,-0.26497,-0.049058
-0.026797,-0.08804,-0.44419,-0.020382,0.0055103,0.10868,0.27443,0.0431
0.04619,0.052076,0.21261,-0.04682,-0.064847,-0.25462,-0.22891,-0.10834
0.071426,-0.12097,-0.036142,-0.020251,-0.01096,0.051752,0.20528,0.075289
0.0030824,0.18927,-0.010919,0.036647,0.034554,0.0053047,-0.083216,0.016589
-0.08752,-0.048594,0.31143,-0.0080791,0.040692,0.060338,0.18231,0.013174
-0.0042748,-0.10786,-0.085446,0.1042,0.015504,0.077368,-0.10539,-0.020284
0.018884,-0.050628,-0.14031,-0.05556,-0.01738,-0.020859,0.11681,0.025948
-0.033656,0.022068,-0.0033154,-0.018188,-0.02658,-0.022955,-0.12855,-0.043395
0.1658,0.14979,0.394,-0.080404,-0.019823,-0.04613,0.039157,0.03705
-0.15699,0.075056,-0.4655,0.070188,0.018578,0.02637,-0.070603,-0.022282
0.012551,0.0089579,0.18309,-0.082368,0.01055,-0.0014773,-0.015821,-0.0032778
0.11086,-0.11102,-0.34731,0.12547,-0.0047979,0.025765,0.14578,0.054362
0.02767,-0.11305,0.40586,0.044621,-0.011815,-0.033279,0.20873,-0.0061262
-0.19062,-0.020563,-0.15635,-0.083416,-0.010519,-0.046358,-0.68768,-0.099093
0.034158,-0.013081,-0.11665,0.061057,0.022449,0.048735,0.25309,0.017634
-0.0083606,0.18308,-0.13598,-0.13177,0.032241,0.00979,0.13312,0.031798
-0.035922,-0.064635,0.48349,-0.060539,-0.036052,-0.037984,-0.10901,-0.0092953
0.16362,0.13456,0.039989,0.11076,0.020436,0.054207,0.23108,0.035483
-0.033607,-0.10217,-0.028947,0.10896,-0.0016654,-0.0022924,0.029573,0.010351
-0.033015,-0.079686,-0.39642,-0.088964,-0.040036,-0.019602,0.076487,0.0015836
-0.053023,0.021967,0.15418,0.040868,0.022434,-0.04431,-0.3539,-0.06878
0.10926,-0.047643,-0.098473,-0.063615,-0.0095267,0.064369,0.17681,0.057059
-0.062536,0.10943,0.31185,-0.050495,-0.010776,0.0095911,-0.06466,0.035196
0.0007472,-0.046378,-0.17159,0.064865,0.026704,-0.052474,-0.14725,-0.10336
-0.038165,0.023493,-0.096974,0.024801,-0.0062393,-0.0047956,-0.1632,0.0082869
0.038171,0.037339,-0.027256,0.032477,0.023399,0.058694,0.50604,0.065192
0.095899,-0.020826,0.14733,-0.021547,0.0063822,-0.010609,-0.083961,-0.0031904
-0.084337,-0.065278,0.029412,-0.10617,-0.033769,-0.033126,-0.065906,-0.0017193
-0.049463,0.028968,0.042387,-0.0028328,-0.011079,-0.0010826,0.13754,-0.032063
-0.017718,-0.019142,-0.2808,0.1398,0.019782,-0.023822,-0.25649,-0.00050813
0.043121,0.040771,0.18648,-0.030044,-0.0036768,0.023725,0.038871,0.0070349
-0.08445,-0.064239,0.00023831,0.073371,-0.011138,0.024441,-0.064732,-0.0015397
0.10083,-0.013342,-0.073025,-0.19073,0.020823,0.009598,0.3679,0.052014
0.02969,0.17829,0.27953,-0.017748,-0.048465,-0.028659,-0.3526,-0.043098
0.06995,0.003179,-0.33288,0.12352,0.046524,0.026749,0.0069307,-0.0054758
-0.11415,-0.28068,0.15162,-0.040379,0.016574,0.0038059,0.20387,-0.0068501
0.06311,0.17053,0.013401,0.11554,0.017743,-0.042933,-0.27712,-0.0080406
-0.062812,0.059908,0.017024,-0.057194,-0.028295,0.019269,0.23677,0.037901
-0.031513,-0.14385,-0.35424,-0.16799,-0.051385,-0.036142,-0.13593,-0.04089
0.039384,0.098259,0.23443,0.22066,0.042142,0.040924,0.18447,0.068025
-0.014428,0.020553,0.11789,-0.08648,-0.036761,-0.015008,-0.16769,-0.057357
-0.060178,0.013635,0.09974,-0.018897,0.016699,0.014985,0.012094,-0.0031441
0.058481,-0.24282,-0.2116,0.0018464,0.038619,-0.0017593,0.099924,-0.011692
0.060429,0.20432,0.13628,-0.0082306,-0.017703,0.01299,-0.12213,0.11219
0.00042434,0.073747,-0.067867,0.021589,0.019762,-0.011025,-0.11446,-0.10025
0.058099,-0.048676,-0.034662,-0.041184,-0.01293,0.035582,0.63112,0.046412
-0.20423,-0.092783,0.025973,-0.040151,-0.037574,-0.073757,-0.44765,-0.07254
0.08817,0.074048,-0.087419,0.18866,0.02401,0.0046964,-0.23338,0.0042284
-0.0024938,-0.1109,-0.26335,-0.042559,0.02343,0.01312,0.039679,0.034971
0.046973,0.11776,0.53945,-0.031197,-0.047088,0.0061788,0.11366,-0.011182
0.0098609,-0.013644,-0.30208,-0.05125,0.015611,0.038501,0.12099,0.022218
-0.012284,0.0024692,0.3306,-0.04852,0.016227,-0.022836,0.04512,-0.013336
-0.089655,-0.013818,-0.12443,0.039172,0.017238,0.0016903,-0.037303,0.030219
0.043603,-0.062714,-0.11266,-0.038268,-0.028297,-0.020927,-0.11262,-0.027443
-0.018477,0.1056,0.076037,0.16458,-0.0032997,0.010683,0.19203,0.031631
0.044679,-0.079304,-0.4267,-0.13326,-0.0094797,0.01826,-0.086235,0.019151
0.037918,0.054368,0.33868,0.084164,0.023306,-0.006055,-0.11278,-0.065485
-0.023132,-0.0715,0.050438,-0.081262,0.016765,-0.023125,0.12769,0.027463
-0.029259,0.050996,0.34781,-0.027711,-0.0058013,0.0063035,-0.17659,-0.022147
0.027051,0.00018227,-0.62982,0.06529,-0.021033,-0.0034226,0.069872,-0.041847
-0.081131,0.018587,0.3118,0.033715,-0.013298,-0.0051072,-0.091531,0.031767
0.052093,0.012979,-0.25776,0.041554,0.017498,0.009353,-0.0334,-0.011229
0.051464,0.030957,0.24704,-0.16916,-0.014409,-0.0067233,0.16021,0.0097445
-0.020605,-0.07498,0.2403,0.088875,0.016198,0.024837,0.052699,0.040547
0.015699,-0.13968,-0.39476,-0.090767,-0.0076527,0.0258,0.34691,0.042183
-0.065824,0.16613,0.045757,0.15897,0.023584,-0.027512,-0.52879,-0.056096
-0.0067945,-0.062812,-0.14025,0.01771,0.00061721,-0.010407,0.21275,0.041753
0.013797,0.080396,0.25931,-0.13169,-0.02188,0.014319,0.25715,0.030021
-0.0033553,-0.0056929,0.011125,-0.007853,-0.044026,-0.062922,-0.70146,-0.12349
-0.010833,-0.055982,-0.0011402,0.053524,0.043358,0.031228,0.24311,0.018059
0.085365,0.061168,-0.17542,0.037099,0.060338,0.039015,0.16233,0.056061
-0.027394,-0.03875,0.16031,-0.049031,-0.024581,-0.03939,-0.26196,-0.12637
-0.0058832,0.001647,0.029328,-0.071847,-0.039721,0.03843,0.24622,0.080861
0.031865,0.086621,-0.14685,0.10152,-0.016435,-0.016355,0.040721,0.0067804
-0.063609,-0.058943,0.15477,0.0099891,-0.0094024,-0.023887,-0.064581,0.027271
0.034793,-0.037708,-0.11311,-0.057735,0.0049293,0.015912,-0.0071648,0.010148
-0.11911,-0.076584,-0.19309,0.093136,0.065805,0.0092479,0.1334,0.025958
0.083485,0.074855,0.062852,-0.069244,-0.021886,-0.012789,-0.13777,-0.034863
0.017352,-0.043234,0.16206,0.04052,-0.0079693,0.019868,0.011835,-0.024415
0.096713,0.023795,0.53363,-0.03886,-0.025138,-0.0024451,0.094406,0.025317
-0.14667,0.019794,-0.67468,-0.12776,0.028235,-0.0018655,0.021289,-0.027035
0.17083,0.11817,0.020868,0.20379,0.027168,0.013618,-0.060427,0.036702
-0.19192,-0.031459,-0.044229,-0.028024,-0.028338,-0.041973,-0.2363,-0.049388
-0.046243,-0.06894,0.20022,-0.088036,-0.03672,-0.0044611,-0.027665,-0.027456
0.077753,0.076381,0.12168,0.0011564,-0.044849,-0.014218,0.12361,0.016894
0.05604,-0.25957,-0.3105,-0.072211,0.064464,0.046278,0.057534,0.045124
0.037695,0.016693,0.092063,0.18453,0.056822,0.021123,0.043543,0.034376
-0.00048915,0.30312,0.010015,0.037137,0.010295,-0.034715,-0.048412,-0.085159
0.019433,-0.041544,0.061465,-0.030278,-0.036138,0.011736,0.14218,0.077477
-0.098367,-0.10393,0.036252,-0.19798,-0.051315,0.012056,0.16152,0.030215
0.012568,0.076152,0.099019,0.064495,-0.019676,-0.041686,-0.35986,-0.12547
-0.062659,-0.18164,-0.19513,0.10788,0.035321,0.02998,0.098128,0.03988
0.042271,-0.0028322,0.0056741,-0.045108,0.019937,0.0080335,0.0083925,0.0103
-0.032898,0.12,-0.079556,0.011254,-0.011113,-0.02967,-0.13232,0.0041971
0.078109,0.077263,0.20563,0.011129,0.020305,0.026022,0.29094,0.044697
0.030598,0.009501,-0.11526,-0.060998,0.020419,-0.012535,-0.39457,-0.040306
0.034583,-0.091072,-0.23772,-0.06409,-0.034256,-0.020389,0.1164,-0.039992
0.042397,-0.0055833,0.39233,0.17436,-0.010959,0.018125,0.099052,0.045644
-0.21988,-0.20259,-0.27303,-0.12616,-0.011281,0.0093677,0.17311,-0.0020232
0.068074,0.21658,0.3741,0.027205,-0.0039495,0.0003735,-0.27582,0.0047266
0.055283,0.025572,0.097677,0.064669,0.050177,0.014756,0.1532,0.019295
-0.1008,0.037017,-0.5179,-0.068211,-0.012838,-0.033249,-0.10057,-0.075221
0.093699,0.047858,0.15133,0.097276,-0.0053376,0.0049503,-0.044211,0.0026639
-0.015528,-0.17625,-0.12143,-0.11886,-0.028729,0.012288,0.18122,0.06559
-0.0047005,-0.033643,0.22698,0.064161,0.00305,0.0044712,0.02736,0.027623
-0.051943,0.093063,-0.16918,-0.010473,0.011936,-0.034098,-0.23466,-0.05669
0.015574,-0.030126,0.098199,-0.038597,0.029154,0.021547,0.14253,-0.023552
0.088665,0.027007,-0.1331,-0.02844,-0.0079187,0.0072501,0.14862,0.032949
0.033901,0.054148,0.20082,0.13694,-0.01356,0.016606,-0.0072163,0.073407
-0.040642,-0.026196,0.030258,-0.089407,-0.027111,-0.013077,-0.24756,-0.097762
