0.0042542,-0.00091615,-0.01017,0.0014518,0.0057807,0.009622,0.013963,-0.0031068
-0.0029835,-0.010206,0.021327,0.0092651,-0.0087745,-0.0057712,-0.0025507,-0.0018781
0.0058547,0.01128,0.014101,0.009151,2.5337e-05,0.0027572,0.0047818,-0.0085231
0.0072893,-0.014456,-0.00065474,0.0089298,0.0086447,-0.0038884,-0.010893,0.00032816
0.0011891,-0.0012606,0.00035145,-0.014829,-0.006428,0.013252,-0.0027648,0.0012055
0.010784,-0.0035496,-0.01433,-0.015244,-0.0061754,-0.00067444,0.0056039,0.0019113
-0.011049,-0.005415,-0.0058422,0.007701,0.0015742,0.0010038,-0.009371,0.010254
-0.0098629,0.016815,-0.0055971,0.0071569,0.0090203,-0.013176,0.0068634,-0.0050261
-0.0014658,0.00077298,0.0019534,0.0066032,0.0005739,-0.0043357,-0.008291,0.0029222
-0.001567,0.0089528,0.0090216,-0.0095309,0.007544,0.011776,0.0076157,0.0028219
-0.0023229,0.017771,0.00010435,-0.0021206,-0.0090507,-0.0039439,-0.0079215,0.0024691
0.019844,-0.019902,0.0066467,0.0054599,-0.010045,0.0032383,0.0076239,-0.013747
-0.012974,-0.026256,-0.0023692,-0.0023595,0.0046788,-0.0056115,-0.00039476,-0.006705
-0.0067709,0.014038,-0.01109,-0.0021042,-0.0038178,0.00094475,-0.00068978,0.0080776
-0.00037107,0.0070045,-0.0037041,-0.0015778,0.0036362,-0.00031321,0.0067633,-0.00050546
0.006406,-0.0084033,0.004274,-0.00080623,0.0036752,0.0064514,-0.001463,-0.0010493
0.021464,0.014713,0.01286,0.0079595,-0.0036863,-0.0020268,-0.001929,0.0065793
-0.0020822,-0.025065,0.0063411,0.0089977,0.0049357,-0.010018,-0.0024394,-0.00097832
-0.017452,0.0053029,-0.0076443,-0.0056215,0.005984,0.013747,-0.0029695,-0.00028308
-0.0013619,0.020143,-0.0058953,-0.012581,-0.0007077,-0.0089261,-0.0034703,0.00076816
-0.0086703,-0.011551,-0.0042938,0.0036401,-0.007509,0.0077534,0.0039414,0.0020141
0.0073441,0.011962,-0.0030761,-0.003904,0.008858,0.0010842,0.0037205,-0.0045708
0.0075096,-0.010803,0.005391,0.0038204,-0.006396,-0.0057157,-0.0040626,0.0042231
-0.0082251,-0.009567,0.005385,-0.0044225,-0.01423,0.010593,-0.0037444,0.0047572
0.0070219,0.01553,0.012527,0.018294,0.0010414,-0.012628,0.0046653,-0.010917
0.0064321,0.0017716,-0.027783,-0.0060718,0.00048389,0.0026912,0.0054746,0.004033
-0.0099039,-0.0042245,0.0096186,0.00070716,0.0076932,-0.013718,0.0063779,-0.012834
-0.0028177,0.0051051,-5.2079e-05,-0.0081274,0.015006,0.0085861,-0.0084003,0.0011337
-0.0034588,-0.0094997,-0.0018732,-0.0090183,-0.00091001,-0.00052172,5.0678e-05,0.014901
-0.0039401,-0.009088,0.0043723,0.0059571,-0.0087676,0.0060412,0.00036218,-0.002544
0.019209,0.0063319,0.003226,0.005634,-0.0085973,0.0050242,0.00029154,-0.0041113
-0.004343,0.0056021,-0.0052192,0.0056804,0.0073277,0.0043729,-0.0079479,0.0025431
0.0034671,-0.0032952,0.0024845,-0.0095406,-0.00017056,-0.0036639,-0.0008132,0.0018672
-0.0043281,0.0032889,0.010646,-0.001038,4.1678e-05,-0.011287,-0.0093907,0.0016572
0.0034286,-0.0056842,-0.012106,0.0076269,6.1551e-05,-0.0029456,0.01338,0.0018191
-0.0045766,0.001207,0.012208,0.008484,-0.00015595,0.0056153,0.0051594,-0.005605
-0.0049162,0.0084406,-0.018112,-0.0064424,-0.0084138,0.0064447,0.0051112,0.0026597
-0.0053492,0.00041164,-0.0016054,0.0017735,0.0065995,-0.00059341,-0.0023769,-0.0047823
0.0020456,0.0004977,0.0069852,-0.021639,-0.00189,1.2102e-05,-0.0017556,-0.0045936
0.0017805,-0.0070467,-0.00015833,0.0092476,0.0052999,-0.0074391,-0.0087959,0.0031865
0.0017953,-0.0067471,0.00042892,0.00074269,-0.0029653,0.0004628,0.0075721,0.002956
-0.0056449,0.0090632,-0.0068399,-0.00016209,0.0046537,0.0081148,0.00030168,0.0026019
0.018521,0.0090263,0.009311,0.01449,-0.0030462,-0.0078566,0.0083339,-0.0055823
0.003889,-0.0069046,0.0020043,-0.017661,-0.0026317,-0.00048451,-0.015249,0.0097679
-0.0028312,-0.015266,0.0024554,0.012868,-0.0019718,-0.00091992,-0.0078973,-0.013746
-0.0096577,0.015286,0.010608,-0.003237,-0.0011689,0.0065472,-0.00073437,0.0098842
-0.0011622,-0.016669,-0.0048451,0.0043438,0.0074548,-0.0014678,0.006417,0.002566
-0.0087357,0.0062108,-0.028311,-0.0034865,0.00031382,-0.0015181,0.0059257,-0.0044605
-0.0011794,0.013748,0.010531,-0.0033482,0.00070842,0.014174,0.0057454,0.0043831
0.0059328,-0.0096037,-0.0054478,0.0046987,0.00072528,-0.01696,-0.0018695,-0.01004
0.0049315,0.0064693,0.0097807,-0.010639,0.00032379,-0.0012558,0.0064973,-0.00094662
0.0038347,0.015016,0.0016294,0.0053109,-0.0082735,0.006518,-0.00050358,0.0081264
-0.004942,-0.015351,0.0014273,-0.002129,-0.001516,0.0063062,-0.0073964,-0.0063578
0.0022471,-0.0066726,0.0092075,-0.0016823,0.005147,-0.0097193,-0.0065297,0.010195
-0.013509,0.0018262,-0.0063034,0.0066748,-0.019327,-0.0024661,-0.0058524,-0.0047979
0.010356,-0.0056033,-0.0061159,-0.00049167,0.011197,-0.0031136,0.0023608,-0.0045234
0.0035045,-0.0055935,0.0018558,0.00022582,0.010924,0.0040609,0.002455,0.0031692
0.012692,0.0096565,0.0096992,0.00094783,0.011159,0.0035361,0.010076,0.0026538
-0.016955,0.0089334,-0.013903,0.0015787,-0.0037681,0.0032133,-0.0059726,0.0017838
0.0080902,0.00012013,0.0091646,0.0020126,-0.0027433,0.010962,0.0090659,0.00064592
-0.013954,0.0067435,-0.0069803,0.0021573,-0.0093955,-0.020079,-0.0072403,-0.0084425
0.0026719,-0.017972,-0.0075348,-0.013667,-0.00049055,0.003815,-0.00014257,-0.0018813
0.0031731,-0.0036112,-0.00016217,-0.0064006,0.00036414,-0.0033548,-0.00083877,-0.002932
0.0031494,0.010872,0.0074712,0.0083875,-0.0069356,0.0052036,0.006343,0.012005
0.0026579,0.002147,0.007655,-0.00045046,0.0088358,-0.0018514,-0.0098024,-0.0038271
-0.0059893,-0.0062461,-0.0073987,0.014091,-0.0069608,0.006645,-0.0023572,-0.0035043
0.00081281,0.0014063,0.0013035,-0.010354,0.00046162,0.015003,0.005277,-0.0026895
-0.008005,0.0017296,0.010168,0.004454,0.015598,-0.023685,-0.0025052,0.014118
0.0067827,-0.0052512,0.011169,-0.0039037,-0.0083163,-0.015666,-0.002274,0.0076601
0.0062313,0.0038768,-0.011539,-0.0041395,-0.00088879,0.015664,0.005927,-0.014481
0.0060211,-0.0022181,-0.011261,0.0037417,0.0066704,0.0078653,0.0063926,0.0021578
-0.017298,-0.00023806,-0.011526,0.0040729,-0.0012604,-0.0077453,0.0068275,-0.0050953
0.014325,0.0018161,-0.012318,-0.0032151,-0.0012643,0.0079443,-0.0085094,-0.0050753
-0.00078335,0.003728,0.025541,-0.0025805,-0.0089955,0.00026556,-0.0084681,0.0022366
-0.0080644,0.013096,0.0084852,-0.0019195,-0.0088537,0.00045168,-0.0087343,0.0091443
0.00017754,-0.0015013,-0.0085947,0.014321,0.0069585,-0.007169,0.0063103,-0.015415
0.00041758,-0.016723,0.0057305,-0.0085963,0.014996,0.0085911,0.005465,0.0068985
-0.015205,-0.0091246,-0.0031072,-0.0081937,-0.0081873,-0.0070157,0.0044493,-0.0018416
0.015801,-0.0020282,0.0040014,0.0077206,0.0077054,-0.0071566,-0.0044284,0.013191
-0.00029506,0.0047677,0.0035987,-0.0077035,-0.007667,0.00034298,0.0023947,0.0051755
0.022486,-0.0041165,-0.00438,0.0002548,0.00034347,0.015501,0.0015916,-0.0024829
-0.017366,0.018429,-0.012203,0.0081862,-0.0073702,-0.00070052,-0.0067571,-0.0098887
-0.010413,0.010078,-0.0043181,0.0004776,0.0004009,-0.016951,-0.0069828,-0.0015606
0.0043492,-0.0056558,0.0036045,0.0083699,0.015815,0.0058786,0.016544,-0.0010818
-0.0042523,-0.0053625,0.011548,-0.007226,-0.0080113,0.0053451,0.0012931,-0.0085678
0.0029191,-0.0047843,-0.0039192,0.00053108,0.0070641,0.0049287,0.001896,0.0071669
0.0024884,-0.0040929,0.0040955,-0.0074482,-0.0092239,-0.0031615,-0.012968,0.0070528
0.0023049,-0.0034744,0.00436,-0.015549,-0.0021129,-0.0032984,-0.012126,0.0067596
-0.0054446,0.012534,-0.0031136,0.015304,-0.010571,-0.0033078,0.01216,-0.0092547
0.010448,-0.010867,-0.010508,0.014827,0.012371,0.0046004,-0.0026838,-0.0018245
-0.004785,0.0044025,-0.0022004,-0.0091281,-0.0035195,-0.003037,0.013581,-0.0020952
0.0034437,0.0036779,0.0061781,-0.0018337,0.012107,-0.0028076,-0.001618,-0.009979
-0.0040295,0.0026672,-0.0010097,0.0054948,-0.0032626,0.0052652,-0.0014759,0.021454
-0.0038434,-0.0063127,0.007467,-0.010553,-0.002817,-0.0022768,-0.0016684,-0.0015368
0.0039712,0.0081443,0.00033166,0.0047312,0.005529,0.0057993,-0.0022131,-0.00086278
-0.0039975,-0.0084879,0.00098854,-0.0033262,-0.0017774,0.0060452,-0.0030793,-0.0078552
-0.0042305,-0.0091918,-0.014035,0.0043462,-0.0013991,-0.0093528,0.0036324,0.00081095
0.0033964,0.013945,0.0021026,-0.0034999,-0.016836,-0.00132,-0.0053777,-0.0062414
0.011213,-0.0093542,0.0025014,0.0043793,0.006591,-0.016707,-0.0065011,0.0099259
-0.0040849,-0.0010065,0.010583,-0.0032809,-0.0013919,0.01483,0.0082493,-0.0054794
-0.011155,0.023241,-0.0049072,0.0047485,0.013979,-0.00042994,-4.4131e-05,0.0099723
0.0056578,-0.014924,-0.0049003,-0.0028053,-0.001895,0.015651,0.007766,0.0015692
-0.00056907,0.0092747,0.0028102,0.0052886,-0.0020612,-0.007248,0.00043582,-0.0072216
0.0012866,-0.0059427,0.0026298,-0.0022286,-0.0020945,-0.0066597,0.0013283,-0.0085013
0.0032161,-0.0060529,-0.0054011,-0.0097286,-0.0019821,0.001742,-0.0053208,0.0056779
0.012793,-0.0067531,0.0022014,-0.0015726,0.006066,-0.0055354,-0.0040612,-0.003578
-0.009288,0.015436,-0.0057679,-0.0011829,-0.0014376,0.002709,0.0049327,0.0029687
-0.008545,-0.0096443,0.0019761,0.0070713,-0.0089312,0.003003,-0.0019176,0.0020322
0.0070821,-0.0036278,0.0098254,0.015362,0.0069616,0.0031432,-0.0090714,0.0015242
-0.017117,-0.005297,-0.0056633,-0.0076022,-0.00067905,-0.012494,0.0068906,0.0014707
0.004881,0.0012345,0.0023565,-0.0071963,0.0071913,0.010796,-0.00086452,-0.0059948
0.0029478,0.016151,0.0025899,0.0008843,-0.0084758,0.0027241,-0.0010019,0.010252
0.0085781,0.00045617,-0.0050138,0.00095558,-0.00076044,-0.0054329,0.0065814,-0.0046485
-0.0014012,0.00095421,0.0029386,0.00080116,-0.00084503,0.001974,-0.0092681,0.003804
0.0045017,0.0018303,-0.012644,0.00043479,-0.00084166,-0.0062881,0.014022,-0.0036135
-0.0047783,0.0028201,0.002917,-0.0078971,-0.00068585,0.0010387,-0.0016369,-0.0035653
0.0021164,-0.004163,0.010566,-0.00066155,-0.00034293,0.00051469,-0.0015508,-0.0038842
-0.013852,-0.0037107,-0.0053071,0.0066293,0.015803,0.007755,-0.0013635,-0.0045051
0.0019509,-0.019367,0.0021881,-0.0015437,-0.0069919,-0.0006907,-0.0089169,0.0025208
0.018163,0.0035805,0.0018083,0.0061433,0.0014882,0.0064214,-0.0086174,0.0017468
0.0033861,-0.012846,0.0013636,-0.0015364,-0.013562,-0.00996,0.0073183,0.016793
-0.01129,0.025323,-0.0069652,-0.0089925,0.010247,-0.010734,0.015423,-0.006874
-0.010382,0.0089473,0.0080692,0.0071247,0.0025203,0.004166,-0.0077759,0.0011547
0.0060043,0.00071274,-0.0082089,0.00763,-0.00552,0.011397,0.00017845,-0.0059647
-0.0090661,0.0007119,0.0067347,0.00020467,0.0017854,-0.0045628,0.0079886,-0.0048294
0.0068925,-0.014508,-0.0017287,-0.0074479,-0.0067186,-0.0045581,-0.0078247,0.0044714
0.0070236,0.0096291,-0.010084,-0.015388,0.00035698,0.0036589,-0.00040781,-0.001628
0.0069894,-0.0051713,0.0051914,0.00764,-0.00026925,-0.0033407,-0.00099909,0.00016026
-0.0087916,0.0034069,-0.0027086,0.014835,0.0071681,-0.0021735,-0.009547,0.0018688
0.0065984,-0.011664,0.0053149,-0.0092974,-0.00067527,0.014857,0.0052868,0.0033537
-0.009298,0.012029,0.0058094,-0.0020979,0.0074738,0.00071068,0.0045515,0.0044961
-0.0017478,-0.011462,-0.0091085,0.0053421,-0.0075022,-0.0057352,0.0039867,-0.01041
-0.0019504,-0.0039495,0.0073172,-0.018104,0.0011461,0.003157,-0.0041252,-0.0023368
0.0057741,0.01124,0.0080674,0.013561,-0.005818,-0.019618,0.0037094,0.0052941
0.0058523,-0.012641,0.00081851,0.014383,0.0026653,0.0040061,-0.0037542,-0.0030804
-0.017303,0.018263,-0.014523,-0.0079247,0.0029872,0.0037354,-0.0031275,0.0038876
0.0066328,0.010269,0.0010839,0.0011674,0.0028424,0.0031019,-0.0023198,-0.0049332
0.015139,-0.0053578,-0.014805,0.0024101,0.0021919,0.010066,0.0063506,0.0096418
-0.0074666,-0.0052008,0.00043215,-0.0043713,-0.0067222,0.0013663,0.0071148,-0.0069655
0.0012289,-0.012735,7.6062e-05,-0.011489,-0.0081295,-0.015012,-0.0001592,1.6191e-05
-0.0057535,-0.0045485,0.023329,-0.0033708,-0.0018136,0.00013849,5.8811e-05,-0.00061228
-0.0050792,0.011545,-3.9298e-05,0.0043875,0.0046639,3.6527e-05,-0.015705,0.0067893
0.01098,-0.0034844,0.01591,0.0040644,0.0037295,0.00033383,-0.00054563,-0.0012339
-0.0045016,0.012914,-0.014844,0.0035983,0.0033744,0.0087953,-0.0012418,-0.0091007
-0.012472,-0.017335,-0.014314,0.0031149,0.0036799,-0.0059471,0.005782,-0.0012465
0.026165,-0.00046199,0.0017152,0.0027098,-0.0032018,0.010623,0.0050529,0.0066364
-0.013523,0.0010013,-0.013766,-0.0053824,-0.0017923,0.0036233,0.0045164,-0.0011397
0.0013713,0.018208,0.017287,0.0022717,0.0076775,-0.011501,0.0042601,0.01444
-0.0071705,0.0041217,0.0089233,0.0021888,-0.0063119,-0.0036285,-0.0034998,-0.0091483
1.3083e-05,-0.010208,-0.015368,-0.013513,0.0028583,-0.0040555,-0.010982,-0.0015808
0.0073718,-0.0093659,-0.00079661,0.0019671,-0.011881,0.0028878,-0.0026389,-0.0096889
-0.0084977,0.0064772,0.013705,0.0016949,0.011875,0.0017033,-0.0020192,-0.0021522
0.0070766,-0.0096481,-0.0029762,0.0090723,-0.011797,-0.0074303,0.014194,-0.0023305
0.0071559,0.012582,0.0039713,0.00065642,-0.0046571,0.0069264,-0.00098858,0.0054616
-0.00054549,-0.0048317,-0.0044164,-9.0194e-05,0.0022312,-0.0019455,0.0070327,0.013428
-0.00050953,0.00083933,-0.01245,-0.0087414,0.0090763,0.0051064,-0.0086651,-0.0019096
-0.00063373,-0.0091698,-0.0044782,-0.0017905,0.0082521,0.020279,-0.0090161,0.006224
-0.0087647,0.0045228,0.019485,-0.0025995,-0.00011529,-0.0033643,-0.0017758,-0.0091802
-0.001431,-0.0046721,-0.0031153,-0.0032891,-0.00035324,-0.019053,0.0053462,0.0064322
-0.0097822,0.01032,0.0057586,0.019623,-0.0081151,-0.0034567,0.0046673,-0.0095279
0.0053891,-0.0051146,-0.0086927,0.003649,0.0077654,-0.0035227,-0.003681,0.0054286
0.0051728,0.011456,0.00028797,-0.0043521,-0.01532,-0.0036427,0.0038465,-0.018929
0.00531,0.01296,0.0013458,-0.0044185,0.0084618,0.011848,-0.0039368,-0.0043108
0.0058453,-0.0087055,0.0022186,-0.012218,-0.0069005,-0.0038482,0.0042276,0.0026166
0.0067336,-0.022615,-0.0049403,0.0034648,0.0010572,0.0040372,0.0048589,0.017679
-0.0077796,-0.0056281,-0.0044997,-0.0042596,0.0088992,0.0043088,0.0056879,0.0097646
-0.0066312,0.018601,0.0035765,0.011485,0.0010291,-0.010843,-0.016822,0.0023458
-0.0056505,0.003092,-0.011915,-0.0039769,-0.006888,0.021029,-0.00026744,0.0031559
0.010608,-0.013077,0.01156,0.0040518,0.00081018,-0.0017373,-0.007222,-0.019232
-0.020479,-0.0063486,0.011509,0.0043236,0.00070998,-0.0011333,0.0091407,-0.010363
0.010418,0.015655,0.011338,0.0046437,0.0084427,-0.016323,0.0019204,0.006087
0.0095786,0.0062801,-0.020257,-0.010625,-0.0072512,-0.016116,0.0023549,0.0064898
0.00053545,0.0048006,0.0025991,-0.0024287,0.00048488,0.0072984,0.0026213,0.0063627
-0.00094731,-0.019865,-0.0060639,-0.0098307,0.00038254,0.014905,0.0027053,-0.0021091
-0.010333,0.0026985,0.00064499,-0.0015736,0.00024456,-0.001032,-0.005223,-0.0031954
0.011602,0.0022109,0.0071814,0.02235,-0.0077382,0.0064439,-0.0055514,-0.0045126
-0.0053094,-0.0057425,-0.025378,-0.0083742,-0.00011256,0.0061434,0.0017228,-0.0058067
0.0015476,0.0099905,0.020331,0.0077919,0.0075189,-0.0097158,0.001002,-0.0068117
-0.0068169,0.010213,0.0038622,-0.0073235,-0.00826,-0.0020701,0.00015582,0.016136
0.0008719,-0.005219,0.0034822,0.0009008,0.022877,-0.0099992,0.0070819,0.008488
0.0011518,0.002636,-0.0041713,-0.0066712,-0.008442,0.0055381,-0.0093651,0.0015159
0.0095774,-0.020982,-0.0034844,0.0011448,-0.00065732,0.0054654,-0.0021994,-0.0048852
0.0026062,0.0020468,0.0054443,0.0086806,-0.016273,-0.0024053,0.0052408,-0.010929
-0.0042588,-0.0063449,-0.0088066,-0.0075114,-0.00060223,-0.002436,-0.0025991,0.0065418
-0.0033228,0.016449,0.0082343,-0.00052678,-0.0005151,0.0053964,0.0055564,0.00035616
-0.0024914,-0.0075705,-0.0061587,0.0062661,0.015242,-0.0023184,-0.0015703,0.0093242
-0.0096318,0.015457,0.0025046,0.0051581,0.0076025,0.0056953,-0.00062263,-0.013591
0.0064915,0.0074846,0.0028399,-0.011537,-0.0078255,-0.0096052,0.0004625,0.0018855
-0.0087906,-0.0080185,0.010427,-0.0046217,0.00017898,0.0064776,0.0015365,0.0011573
0.022682,0.00019252,-0.013739,0.0025869,-0.015293,-0.0085593,-0.0053612,-0.015571
-0.00061785,-0.0226,-0.0070049,0.0023632,0.0082291,-4.7872e-05,0.003086,0.0066621
-0.00053873,-0.0061242,-0.0082063,0.0025521,0.0082317,0.0085366,0.011182,0.0056423
-0.00050402,0.010511,0.0063518,0.0031201,0.00034704,0.0015121,-0.012327,0.0050428
-0.016131,0.011627,0.0056555,0.0039687,-0.0075826,0.0022439,-0.004879,0.0049981
-0.00053544,0.012784,0.0054925,-0.0028634,0.00011578,-0.012785,-0.0054158,0.0055144
0.0072342,-0.0095366,0.013728,0.0058898,-0.007752,0.0032235,0.0096519,-0.009154
-0.00061668,-0.00073566,-0.0087713,-0.016807,0.00011415,0.01115,-0.006403,-0.0079752
-0.00063654,4.5666e-05,0.0081316,-0.00075686,0.015932,-0.0046582,0.0090272,0.0087859
0.007176,-0.0072407,-0.021743,0.014928,0.00063895,-0.0051316,0.0091056,0.0018136
-0.0084459,0.00084297,0.0029144,-0.016602,0.0010768,-0.0058478,-0.0062122,-0.0056413
0.014965,0.00091336,-0.0040479,0.0063078,-0.0062503,0.001085,-0.0057953,-0.0058472
-0.0085687,-0.014743,0.0041127,0.0056705,-0.0057859,0.00014173,0.0023771,0.0012363
0.0068609,0.0086807,0.011738,-0.01055,0.0024088,0.022677,0.010318,0.00013612
-0.0090629,0.00097865,-0.0045434,0.0046571,-0.0051429,-0.017153,-0.0055471,-0.0011067
-0.0094318,0.016901,-0.013339,0.012323,0.0027988,0.0057277,-0.0062179,-0.0022376
-0.0019883,0.0017567,0.0011608,0.0046756,0.010626,-0.0023835,-0.0072844,0.0047814
0.0055481,0.0023504,0.0078954,-0.018302,-0.0050605,-0.010214,-0.0086154,0.004473
0.0054576,-0.020504,-0.00079638,0.0058332,-0.012968,0.0056693,0.0056169,0.012504
0.005617,-0.0044516,0.014235,-0.0011288,0.010379,-0.0094517,0.012207,-0.0024412
0.0060404,-0.0043157,-0.0095006,-0.0080276,0.010317,0.014678,0.011368,-0.0014541
-0.016755,0.026684,-0.0017504,0.00067968,-0.0053359,0.0076608,-0.004565,-0.015982
0.007446,-0.01305,0.0061301,0.0093009,-0.0053437,-0.0071678,-0.0042828,-0.007159
0.00038585,0.0015155,-0.0094143,0.0021606,0.0024563,-0.0064817,-0.0034494,0.009237
0.00099197,0.00798,-0.001604,0.0026605,-0.013214,0.0018047,-0.0021879,0.0018696
0.0013428,-0.016939,-0.0017354,-0.012659,0.01012,0.0019922,-0.0006814,0.0019749
-0.0064311,0.0050712,0.0058319,0.0030654,0.0099442,0.0018607,-0.0069542,0.0017876
-0.0066963,-0.0039177,-0.0022668,0.0029629,-0.0059304,0.0014273,0.017846,-0.0064185
0.00062037,0.0031395,0.0053308,0.0026755,0.0015716,-0.014869,-0.0045862,0.0008942
0.01564,0.010733,-0.010315,0.002236,-0.0065851,-5.3581e-05,-0.0040692,0.0081919
-0.016183,-0.012351,-0.0022267,-0.0061204,-0.0069234,0.014738,0.0037067,-8.2915e-05
0.0068404,0.011962,0.014021,0.0011036,0.008415,-0.0016388,-0.012503,-0.00045385
-0.0011399,-0.0023994,-0.00065156,-0.015089,0.00041201,-0.0022297,0.0098768,-0.0007193
0.0067756,-0.00093804,0.0005379,0.015677,0.0081645,0.0051898,0.00066086,-0.00087992
0.0071094,0.00050494,-0.0060011,-0.00030015,0.00043995,-0.002823,-0.00092392,-0.008753
-0.0080427,-0.0060844,0.010794,0.0073183,-0.0071395,-0.0028691,-0.002516,-0.00090335
0.008077,0.0025795,-0.011762,-0.0005294,-0.014597,0.0049957,-0.0039557,0.0070435
-0.014955,-0.0048322,0.0043106,-0.0082396,0.0092765,-0.010533,0.0026941,-0.0083556
-0.0069054,-0.004878,-0.0035665,-0.00022249,0.0097375,0.005193,0.0096972,0.0075667
0.00094842,0.0025206,-0.0041375,-0.0077665,-0.005467,-0.0025266,0.0014544,0.0078929
0.0008137,0.017497,-0.0051295,0.015969,0.01047,0.0053811,0.0013858,0.00037213
0.0083698,-0.0066612,0.0014144,-0.014978,-0.0050129,-0.0023064,-0.006178,0.00055543
0.0080589,0.00051872,0.015667,0.0087481,-0.012893,-0.002121,-0.013478,-0.0072478
-5.9203e-05,-0.0077011,-0.0012686,0.0011947,0.0024439,-0.0096681,0.0028736,0.00036388
-0.00031767,2.312e-05,0.0054269,-0.0064042,0.0097733,0.014111,0.0037753,-0.0078496
-0.00050561,0.00029209,-0.011041,0.0093703,-0.0064704,0.0066869,-0.0029958,-0.00057836
-0.016235,0.00089436,0.0040398,0.0016234,0.00067194,-0.0007454,0.013768,-0.0011609
0.0071963,0.0017441,-0.01185,-0.006223,4.4335e-05,-0.00043518,-0.00067854,0.013955
-0.00050502,-0.0051103,-0.0040788,-0.0063616,-0.00045364,-0.0080585,-0.0073547,-0.0098186
-0.00025098,0.011406,0.019467,0.009031,-0.00075769,-0.0080113,0.0014556,0.0057003
0.00016678,0.012048,-0.0037919,-0.0068915,0.0069752,-0.00027331,0.002217,0.0058192
0.00075127,-0.011155,0.004196,0.00060103,-0.00069958,0.0074023,0.0026632,-0.0095306
0.0014754,-0.019244,-0.0034995,0.0081194,-0.00038536,-0.0083378,0.0027555,0.0064079
0.010088,0.0112,-0.011283,-0.0077309,4.1452e-05,0.015093,-0.013115,0.0066202
-0.0047549,-0.013504,-0.0035313,-4.826e-05,-0.0073048,-0.00036609,-0.0058142,-0.0090178
-0.0041051,0.0083547,0.011967,-7.995e-05,0.00094446,4.0081e-07,0.0013395,-0.0093303
0.0041153,0.014478,-0.0038116,-3.6687e-05,-0.0065168,0.00055026,0.0084838,0.0056836
-0.011427,-0.0027317,0.0038636,0.015663,0.0093349,-0.0065849,0.00011939,0.0048584
0.0039145,-0.004018,0.0037788,9.3616e-05,0.0094141,-0.0058616,0.0075785,-0.011649
-0.0045329,-0.0048655,0.0037714,-0.015536,-0.0062891,0.0026292,-0.00037053,0.011047
0.01017,0.0026071,-0.0039576,1.0173e-05,-0.0065236,0.0031777,-0.0081525,-0.012791
0.0012534,-0.0050462,-0.011588,-0.0079334,0.0009098,0.0035293,0.0075662,0.0029283
9.4728e-05,0.018971,-0.0034897,0.007564,0.0082213,0.0036428,-0.00021983,0.0114
-0.0087999,-0.01922,0.0047202,-0.00029866,-0.007992,-0.0043058,-0.0081952,0.0047749
0.0059355,0.013035,0.005234,-0.00020317,-0.0008097,-0.0046726,-0.00081574,0.0063509
-0.010301,-0.0016011,0.013675,7.4602e-05,0.0063843,-0.0052244,0.0062775,-0.00753
0.0050331,-0.0085646,-0.0090336,0.016146,-0.0019786,0.0097286,-0.010295,-0.0058743
0.012875,-0.00011508,-0.0082307,-0.0067427,-0.0024089,-0.0066164,0.012088,-0.012361
0.0053695,0.00029248,0.00041943,0.0016089,-0.0026796,0.0083074,-0.012346,0.0040774
-0.009745,-0.0073111,-0.006568,-0.0058024,-0.0027716,-0.00013647,0.0025113,0.0042875
-0.01693,0.00057175,0.0098189,-0.013467,0.012934,-0.00066966,0.0021143,-0.0039115
0.0071666,0.024006,0.010468,0.0097918,-0.002473,-0.0010987,0.0099807,0.010826
-0.0078363,-0.0072707,0.0031499,0.0014637,-0.0021729,-0.0092477,0.0026727,0.0017842
0.023949,-0.0073038,-0.019978,0.00066904,-0.0018604,0.013925,-0.012081,-0.007406
0.00092992,0.0004567,-0.0042372,0.0075267,-0.001603,-0.0097279,0.0046332,-0.00092508
-0.014406,0.00034998,0.0035076,-0.0090529,0.0063611,0.0057179,-0.0020614,0.0057707
0.0013775,0.0079582,0.0111,-0.0020205,-0.0014279,-0.0022399,0.0067108,-0.0028223
-0.0063973,-0.015815,0.0029606,-0.0024703,-0.0093323,-0.0023396,-0.008263,-0.011019
0.0091579,-0.00066842,-0.0052364,-0.0024853,-0.0016814,-0.0023705,-0.00019194,0.012423
0.0011814,0.006537,0.0021836,0.0057739,0.0059689,0.013322,-0.00032913,-0.0028786
-0.0068812,-0.0019711,-0.0059865,0.0066174,0.0058843,-0.0099199,-0.00078625,0.0054533
0.00059458,0.012927,-0.0062767,0.007704,-0.0018647,-0.0017646,-0.0014275,-0.0017942
0.0079756,-0.0033911,0.0091449,0.0010037,-0.001603,-0.0012707,-0.0020887,0.006478
-0.0003736,-0.0039847,-0.0065945,-0.013724,0.0066912,0.007168,0.0051975,-0.0089133
0.0067937,-0.012234,0.0089899,0.0023708,-0.0082393,7.0539e-05,0.0049169,-0.0089694
-0.0095701,0.010967,0.0089918,-0.0055355,0.00044775,-0.007005,0.0049252,0.0063176
-0.010361,-0.0046694,-0.006629,0.0015916,-0.0063618,0.0014833,-0.010435,-0.0020347
0.0044913,0.0033535,-0.0066613,0.00040493,0.0025171,0.0098232,0.0056158,0.0051719
-0.0039876,0.0037531,-0.014569,-0.0089043,0.011386,-0.0054984,-0.0017464,-0.0031496
0.011168,-0.0035333,0.016515,0.0051667,-0.0032702,0.0023468,0.0064013,-0.0034072
-0.0046583,0.0048442,0.00848,0.0038172,-0.0024692,0.0021052,-0.0091137,0.0045117
0.0032498,-0.0024643,-0.015209,0.0028886,-0.0097241,-0.013989,-0.0092827,0.0050269
0.0036218,-0.0021178,0.0079806,0.0025104,0.0061482,0.0010329,-0.0019033,0.0059164
0.0042004,-0.0020046,-0.00786,0.010517,0.013847,0.0004197,0.013104,-0.0085535
-0.010742,-0.0021651,0.0075947,-0.0044244,-0.017907,-7.5109e-05,0.0046152,0.00051696
0.01337,0.0052166,-0.00034868,-0.0034085,0.004638,0.0074634,-0.0037893,-0.0061218
-0.025121,-0.0032468,-0.00046431,-0.010067,0.0033929,0.0074605,0.0036481,0.0026026
0.014357,0.011599,0.0072127,-0.0089609,0.0096848,-9.9548e-05,-0.01204,0.0031143
-0.0010152,-0.012624,-0.0086015,0.0075726,-0.0076189,-0.0074843,-0.0039383,-0.0046648
-0.0086978,-0.0054638,-0.0010512,0.0003776,-0.0093037,0.00080515,0.012305,0.0026956
0.0070032,0.017591,-0.0013792,0.0084775,-0.010821,-0.0066245,0.0053554,0.0018196
-0.00071233,-0.013658,0.0060779,-0.0071861,0.011438,0.0013487,-0.0014794,0.00063955
0.0072747,0.0024278,-0.0098635,0.0081062,0.010742,0.016828,-0.00053992,-0.008498
-0.00026469,0.0033656,0.0055668,-0.00028425,-0.0050094,-0.022709,-0.0075958,0.0058316
8.6185e-05,-0.0030771,-0.0022373,-0.0010469,0.011073,0.0077849,0.00068361,0.0047321
-0.0073542,0.0064273,0.0058475,0.013706,-0.011391,-0.00095721,0.00081481,-0.0038483
0.016401,-0.0073485,-0.0014057,-0.018433,-0.0022258,-0.0019114,-0.0071778,-0.0041972
-0.022473,0.010084,-0.00058262,-0.0035957,-0.0006813,0.0050847,0.008045,0.011528
0.00097242,-0.011797,0.0082468,-0.011967,0.0086589,0.004552,-0.00025718,-0.01139
0.0085954,0.012764,-0.014086,0.0034507,-0.013468,-0.0034074,-0.00068315,0.0050896
0.0004187,-0.0023022,0.002605,0.011497,0.0030856,-0.010941,-0.00090951,-0.0016585
