0.027159,-0.016834,0.078033,0.018582,0.013982,0.015591,0.0035034,0.0061921
-0.024806,-0.099337,0.039346,-0.001727,0.0073119,-0.030652,0.018151,-0.0096119
0.023793,-0.023562,0.10235,-0.014745,-0.023281,-0.015534,-0.0067127,0.013439
-0.052807,0.016703,-0.01596,0.010289,0.0080162,0.0063339,-0.0084812,-0.0026934
-0.0035427,0.046099,-0.15323,0.026136,0.0074083,0.019582,-0.0026123,-0.0031829
-0.022561,-0.028581,0.040941,-0.022038,-0.025055,-0.022281,-0.012324,-0.0034891
-0.061944,0.12823,-0.043109,-0.0091148,0.0045265,0.013998,0.0016932,-0.0034541
0.089911,0.12453,-0.084274,0.0027989,0.018253,0.027269,0.0084306,0.0048482
0.089318,-0.30757,0.059832,-0.032551,-0.022675,-0.029029,0.00026218,0.0058311
-0.048741,0.024372,-0.030283,-0.0050466,0.0069917,0.0093295,0.00071482,-0.00056199
0.018173,0.10955,0.0072205,0.015714,0.013684,-0.0060927,0.0097506,0.0011417
0.053906,-0.046878,0.10399,0.0068223,-0.018147,-0.012949,-0.0040519,-0.0049106
0.0096734,0.23294,0.096945,0.038804,0.036457,0.043181,0.005899,0.027892
-0.22558,-0.25477,-0.2642,0.01774,-0.0023421,-0.0099009,-0.00762,-0.033513
0.034523,-0.032691,0.29251,-0.0022098,-0.0097588,-0.024075,0.0019165,0.0060009
-0.015084,-0.028412,-0.016525,-0.053069,-0.032896,-0.015224,-0.0048386,-0.0098957
0.13381,0.081567,-0.022092,0.036188,-0.0016262,0.00086604,0.0032007,0.012591
0.013489,-0.058363,0.039117,-0.024237,0.021445,0.016332,-0.013039,-0.012313
-0.007363,0.0086404,-0.56868,-0.047304,0.0050584,0.015598,0.0090863,0.017204
-0.013016,0.074665,0.34183,0.029398,-0.0038277,-0.0012094,-0.016092,-0.015756
-0.087781,0.016539,-0.017352,0.018667,0.0027499,-0.010481,0.021141,0.0062725
0.074412,0.12369,0.090155,-0.00075641,-0.0062681,0.011417,-0.0038708,0.013192
-0.017627,-0.11276,0.18239,0.026627,0.0083821,-0.021253,-0.0049115,-0.010505
0.01161,0.023761,-0.16027,-0.031148,1.1674e-05,0.0010753,0.010373,0.013316
-0.025392,-0.00073225,-0.068989,-0.017101,-0.0077906,0.0082555,-0.0048613,-0.024818
0.0036567,-0.1421,-0.082191,-0.0088851,0.00070054,0.00041628,0.019597,0.015544
0.074365,0.089659,0.20595,0.040504,0.0098972,0.016695,-0.0023817,0.0091857
-0.064515,-0.1583,-0.10442,0.013632,-0.034924,-0.03665,-0.024158,-0.012861
-0.015912,0.082483,0.12519,0.0036601,0.030184,0.020002,0.00092531,-0.011719
0.054818,0.20322,0.025221,-0.005857,0.0019008,-0.00099249,-0.0054195,0.012483
-0.017426,-0.099618,-0.14866,0.0076124,0.0049624,0.0095273,0.0035984,0.0049928
-0.022344,-0.12939,0.21151,-0.034879,-6.4844e-06,-0.0033912,-0.0111,-0.026385
-0.006974,-0.080286,-0.33214,-0.016738,-0.013332,-0.0087881,0.013008,0.01213
-0.049128,0.19678,-0.16945,-0.047617,-0.011872,0.00086908,0.021261,0.011211
0.047215,0.14711,0.15444,0.052227,0.0041486,-0.013714,-0.0097796,0.0021594
0.025204,0.074833,0.26675,0.040948,0.026804,0.033251,0.0057872,0.024089
0.010887,-0.21632,0.044751,0.028453,0.0014304,0.0011074,0.0054024,-0.0010618
0.013045,-0.078901,-0.087927,-0.047132,-0.024919,-0.016297,-0.018797,-0.04976
-0.014432,-0.13081,0.025975,-0.0054993,0.0027675,-0.010914,-0.012129,0.01095
-0.024189,0.033906,0.0038105,0.013274,0.02244,0.0019805,0.017659,0.0015739
-0.039502,0.17323,-0.30341,-0.045075,-0.020065,0.0071859,-0.015226,-0.0073626
0.017595,-0.056148,0.18922,0.0072174,-0.030472,-0.018307,-0.0012091,-4.37e-05
0.013849,0.065002,-0.082077,0.021795,-0.0083421,-0.019452,-0.0025689,0.0080193
0.034528,0.060466,0.21735,0.014174,0.054402,0.066465,0.035571,0.040258
0.016325,-0.0071342,0.062941,0.023139,0.017153,-0.0027265,-0.019487,-0.0050317
0.0052962,-0.044082,-0.22581,-0.014199,-0.018781,-0.016276,0.0041386,-0.010915
-0.022688,0.012098,-0.047806,0.0032943,0.0085963,0.0098259,0.0047884,-0.016769
-0.052442,-0.15092,-0.059364,-0.034123,-0.042014,-0.049901,-0.017723,-0.0072755
-0.013748,0.037664,0.22413,-0.025119,0.016161,0.014978,0.014501,-0.021733
0.023339,-0.054136,0.014047,0.053689,0.041849,0.039954,-0.00032912,0.025667
0.012493,0.01999,0.02963,-0.016329,-0.027898,-0.02997,-0.0077002,0.0020966
0.0013027,0.1985,-0.26777,-0.024004,-0.013553,0.016013,-0.0077024,-0.0064213
0.021732,0.075782,0.075223,-0.0081386,-0.016523,-0.0095249,-0.00032661,0.039324
0.0040419,-0.19174,-0.019433,-0.01542,-0.020736,-0.0282,0.0067168,-0.01674
-0.020196,-0.16698,0.41693,0.087007,0.029144,0.022892,0.005785,-0.025994
0.034986,0.26627,-0.022111,0.064634,0.032275,0.011425,0.0048907,0.011728
-0.041588,-0.08869,-0.657,-0.074999,-0.018497,-0.02305,-0.019212,-0.020626
-0.015975,-0.092859,0.16848,-0.066593,0.010121,0.029256,0.01956,0.025479
0.03318,0.1037,0.22007,0.01927,0.0168,0.012374,0.004097,0.0094712
0.019451,0.12465,-0.0098379,-0.020653,-0.021926,-0.018897,-0.018732,-0.013961
-0.010635,-0.030823,0.049255,0.009029,-0.020368,-0.041189,-0.0099562,-0.0058019
-0.025966,-0.18305,0.014661,0.069518,0.028892,0.023386,0.014635,0.010423
-0.010812,0.12975,-0.058894,-0.018486,-0.015227,0.026018,0.0079469,-0.0044616
0.0038901,-0.21573,-0.030763,-0.027996,-0.0047185,-0.010314,0.00098421,0.011921
-0.0048506,0.19685,0.060111,-0.036777,-0.025871,-0.0079694,-0.0064847,-0.02648
-0.020955,-0.14569,-0.10628,0.041327,0.030458,0.0091734,0.00098981,0.0052406
0.080912,0.071202,0.040889,0.026641,0.031344,0.032977,0.031143,0.028893
-0.042891,-0.049738,-0.036825,0.036146,-0.015399,-0.053893,-0.0566,-0.03368
0.02153,0.16324,-0.081046,-0.11026,-0.039376,0.0064446,0.011386,0.012828
0.047185,0.060162,0.31473,0.063427,0.029864,-0.0044753,0.016656,0.027812
-0.075902,0.028884,-0.34975,-0.060602,-0.034078,-0.015882,-0.032602,-0.051188
-0.012444,-0.18409,0.010533,0.0092633,0.034577,0.050903,0.035866,0.02588
-0.028623,-0.027622,0.37064,0.092913,0.0015866,-0.06139,-0.027635,-0.022172
0.10178,0.20643,-0.021313,0.018311,0.023303,0.069549,0.050508,0.046908
-0.05098,-0.20997,-0.081201,-0.042466,-0.033004,-0.056033,-0.026573,-0.016806
0.005541,-0.034338,-0.0055987,-0.010676,0.0046304,0.054076,0.014406,0.0055146
-0.02499,-0.10842,-0.34944,0.0053252,0.026946,0.024694,0.0012857,-0.018849
0.030055,0.30559,0.18515,-0.16504,-0.051838,-0.042944,-0.050659,-0.011667
-0.023786,-0.13188,0.061314,-0.082912,-0.020605,-0.0086046,0.022278,0.0037255
-0.037258,-0.11978,-0.28051,0.28405,0.034871,-0.060157,0.016665,-0.011654
0.044986,-0.076659,0.42834,0.014521,-0.010324,0.0052346,-0.044283,0.012533
0.051469,0.41348,-0.36448,-0.032345,0.0078247,0.046757,0.04244,0.037178
-0.00991,0.10868,0.19361,0.033075,0.05786,0.064319,0.034633,0.01528
-0.0065449,-0.18772,0.1098,0.0060461,-0.0011939,-0.035843,-0.036371,-0.03771
-0.024811,-0.10325,0.10841,-0.099681,-0.021326,0.011944,0.0014831,0.0030257
-0.010589,-0.015865,0.36584,0.089171,-0.0029361,-0.018769,-0.0078014,-0.0032732
-0.02698,-0.10806,-0.40267,-0.12391,-0.06348,-0.073123,-0.04048,-0.041033
-0.004242,-0.0069083,-0.62185,-0.067505,-0.015532,0.013161,0.020953,-0.00083651
0.010244,-0.026055,0.081813,-0.05379,0.031663,0.044991,0.043961,0.047111
0.047276,0.084221,0.31001,0.19941,0.031502,0.022532,0.0052858,0.0091838
0.02051,0.19142,-0.19355,0.037082,0.007748,-0.015103,-0.024713,0.0026595
-0.062605,-0.26641,0.59685,0.015131,0.015356,-0.0055207,-0.014892,-0.027137
0.047649,0.35968,-0.17586,-0.037372,-0.031473,0.011954,-0.004558,0.0056529
0.0073819,-0.094013,-0.30682,-0.080817,5.2929e-05,-0.0099289,0.029374,0.01494
-0.019261,-0.18972,0.2673,0.11932,0.039463,0.0065416,0.00055952,-0.0072836
-0.024093,0.13541,-0.016072,-0.10897,-0.061912,-0.040555,-0.060148,-0.053395
0.017007,-0.055449,-0.024736,-0.039408,0.023828,0.043883,0.089116,0.079592
-0.035636,-0.11277,-0.12662,0.085531,0.03092,0.025486,-0.00496,-0.014628
-0.0090535,-0.074166,0.14664,0.062534,-0.025008,-0.048617,-0.045498,-0.031314
0.019683,0.1869,-0.15783,-0.17878,-0.034423,0.0095582,-0.0088521,0.021886
-0.04238,-0.19554,-0.17969,0.033496,-0.0048468,-0.05715,-0.0039961,-0.034462
0.078545,0.23995,0.035598,0.090057,0.025011,0.033207,-0.0069633,0.0030738
0.038493,-0.054134,0.05199,-0.032508,0.00078884,0.015607,0.02968,0.048859
0.039802,0.12355,0.54232,0.079801,0.032068,0.031047,0.0048395,-0.0062423
-0.10626,0.043673,-0.25118,0.075258,0.017313,-0.00637,-0.018714,-0.044919
0.012924,-0.19549,-0.22011,-0.17918,-0.020207,0.012404,0.021519,0.01093
-0.033748,0.066994,-0.0070136,-0.074375,-0.041767,-0.014835,0.0080632,0.020497
0.049507,-0.093013,0.17476,-0.032426,-0.00092767,-0.026431,0.010702,0.022529
-0.058228,-0.012355,0.16656,0.10273,0.015918,0.023607,-0.018105,-0.014628
0.033641,-0.073118,-0.42402,0.18246,0.016189,-0.02173,-0.024342,-0.036707
0.052185,0.28165,0.074063,-0.090331,-0.00037552,0.016756,0.014892,0.018424
-0.10325,-0.30404,0.0049779,-0.028348,-0.010425,-0.017317,-0.0022538,0.025526
0.037213,0.056462,0.38586,0.016684,0.033027,0.016927,0.0023601,-0.0076591
-0.040976,-0.00049287,-0.40602,-0.064621,-0.033774,-0.036172,-0.041255,-0.057573
0.061478,0.0823,-0.21977,-0.11582,-0.046301,0.011711,0.031533,0.024511
0.087239,0.21991,0.12625,0.10565,0.042878,0.036501,0.026127,0.043693
0.020745,-0.096171,0.23452,0.014357,-0.0078675,-0.023433,-0.017675,-0.030811
-0.13048,-0.071236,0.28415,0.017056,0.0050467,0.01228,0.010137,0.020193
-0.0075424,0.010313,-0.062781,0.082886,0.019402,-0.012211,-0.014994,-0.013873
-0.017197,-0.042437,-0.15306,-0.0066836,0.027446,0.020363,0.00087609,-0.031215
0.05113,-0.060557,-0.1228,-0.071903,-0.025661,0.00040532,0.010808,0.046377
0.0098105,0.00093455,0.15813,-0.026859,0.00039771,-0.0022297,0.022325,0.023536
-0.047285,-0.10848,-0.30383,0.003425,-0.011945,-0.011573,-0.027529,-0.037401
0.067666,0.24491,-0.18018,-0.035702,-0.008361,0.018625,0.0091371,0.011773
-0.082414,-0.15559,0.23423,0.051177,-0.028183,-0.076262,-0.05573,-0.079198
0.057569,0.16156,0.091031,-0.06395,0.02218,0.047069,0.035179,0.06444
0.0035172,-0.019386,0.10479,0.11114,0.017664,0.021118,0.015831,0.028403
-0.02575,-0.24259,-0.096162,-0.056468,-0.041748,-0.037121,0.0031202,-0.031251
0.047718,0.15019,0.11562,0.065719,0.054852,0.028493,0.0046875,0.025939
-0.02647,0.18335,0.50713,0.016301,0.0026958,-0.00084104,-0.018578,-0.034534
-0.037916,-0.21358,-0.64787,-0.080257,0.0047691,0.023303,-0.0040964,-0.0096422
0.044047,0.051887,-0.27168,0.0021269,0.014029,0.022845,0.03271,0.045879
0.039223,0.11827,0.0020285,-0.018107,-0.032164,-0.017716,-0.0015835,-0.00077376
-0.029282,-0.079582,0.16426,-0.00041516,-0.032295,-0.059087,-0.020621,-0.0088999
-0.091249,-0.21633,0.37762,0.01628,-0.017542,-0.06187,-0.055179,-0.056489
0.025351,0.15081,-0.15662,-0.02243,0.020098,0.083708,0.035827,0.028515
0.00055389,-0.003607,-0.12048,0.0087456,-0.0050628,-0.012596,0.0027686,0.0041147
0.053559,0.20206,-0.016692,-0.0071952,0.024397,0.040109,0.033344,0.026728
0.0051116,-0.24024,0.20656,0.10162,0.046124,-0.0080994,-0.0052777,-0.012913
0.050855,0.18585,0.12481,-0.0087624,-0.0023651,0.030139,0.0038491,0.010218
-0.019967,-0.01797,-0.31065,0.020732,0.011652,0.021696,0.044685,0.033577
-0.11356,-0.34925,-0.069187,-0.12268,-0.099471,-0.12758,-0.094201,-0.099178
0.066897,0.1324,0.0062966,0.045286,0.046963,0.07415,0.024236,0.04154
-0.002131,0.19552,0.004003,-0.068948,-0.025631,-0.029594,0.0090513,0.025961
-0.0082563,-0.094941,-0.033649,0.011658,0.010977,0.014307,0.0007515,0.0024851
-0.037535,-0.065593,0.26441,-0.032536,0.00075061,-0.020505,-0.031821,-0.028882
0.066141,0.24483,-0.12933,0.072616,0.014276,0.022588,0.020967,0.010022
-0.017727,-0.10213,0.085,0.19486,0.036191,-0.020033,-0.028041,-0.044825
-0.02376,-0.10854,-0.13764,-0.23583,-0.066132,0.016119,0.040241,0.025345
0.071196,0.050934,7.7736e-05,0.085181,0.05894,0.053239,0.054189,0.064249
0.0012342,0.22486,0.17704,-0.045584,-0.018334,-0.017881,-0.017319,0.0014899
-0.069788,-0.34728,0.14923,0.074482,-0.0090541,-0.033168,-0.033646,-0.038047
0.0065053,0.027917,-0.45292,-0.078625,0.0006139,0.0072641,-0.018282,-0.023216
0.0036766,0.12297,-0.0069065,-0.075703,-0.036459,-0.037404,-0.018168,0.0068748
-0.031085,-0.20255,0.1335,0.098543,0.035739,0.027914,0.02917,0.0053982
0.019858,0.16182,0.13075,0.0064553,-0.001742,-0.023577,-0.024685,-0.027503
0.0085601,0.09284,0.062068,-0.016042,0.015018,0.050083,0.039069,0.033378
0.029208,-0.055927,-0.27581,0.015505,-0.0078139,-0.0013276,-0.0060931,0.00076551
0.011783,0.02999,0.24268,0.015276,-0.0077531,-0.01396,-0.019568,-0.015791
-0.012356,-0.07741,-0.18605,-0.079102,-0.023814,-0.019264,0.021965,0.022855
0.011419,0.045033,0.18167,0.1075,0.045678,0.013845,-0.014526,0.015118
-0.03426,-0.015903,-0.19166,-0.018535,-0.01005,0.022762,0.019102,-0.0078695
-0.0089916,-0.0019926,-0.039024,-0.074203,-0.026734,-0.031605,0.020962,0.0006022
-0.014547,-0.10072,0.1014,0.034478,0.019279,-0.0085683,-0.040474,-0.045562
0.034857,0.17976,0.28442,0.010918,-0.01244,0.021707,0.0064998,0.025411
-0.048385,-0.20033,-0.18606,0.035093,0.011066,-0.01088,-0.025624,-0.028683
0.05596,0.062664,-0.3977,-0.16621,-0.019521,0.011104,0.019571,0.02659
0.004043,0.17832,0.045398,0.07113,0.012933,-0.0058545,-0.0060414,0.019454
-0.0011529,-0.097136,0.45273,0.075078,0.014512,0.00093414,0.0073059,-0.010931
0.0011151,-0.030974,0.19627,0.071758,0.008388,-0.015293,-0.0024978,-0.0098356
0.0028061,0.07057,0.17206,-0.017622,0.002054,0.031419,0.019537,0.014888
-0.019744,-0.074972,-0.73042,-0.037589,-0.004801,0.015993,0.011059,0.0084216
-0.08235,-0.2183,-0.25272,-0.11387,-0.043666,-0.061723,-0.051398,-0.045063
0.064862,0.22645,0.36553,0.026472,0.010343,0.016816,0.027278,0.018252
0.023406,0.15052,0.073822,0.047326,0.0088193,0.017022,0.012392,0.02626
0.082379,0.031743,-0.21653,0.011393,0.014429,0.024641,0.028579,0.017851
-0.086216,-0.26086,0.069684,-0.049564,-0.011628,-0.046393,-0.049482,-0.038287
0.0022358,-0.053189,0.29557,0.037038,0.0012711,0.0070004,-0.0032403,-0.017072
-0.058147,-0.061614,-0.27926,-0.024913,0.014361,0.020821,0.0032262,0.003608
0.053442,0.24735,0.85266,0.085583,0.012269,0.010865,0.0013475,0.024119
0.025086,0.13327,-0.4359,0.0253,-0.02045,-0.03041,-0.016342,-0.025408
-0.048863,-0.19976,-0.60144,-0.14294,-0.013377,0.0067108,0.02873,0.027351
0.019621,-0.025154,0.24309,0.049759,0.010093,-0.025848,-0.0036094,-0.012546
-0.019117,0.038885,-0.1865,-0.029431,-0.012551,0.020679,-0.0036151,0.0035669
-0.0087477,-0.20488,0.23301,0.072517,0.028018,0.013709,0.021112,0.0054165
0.073935,0.28782,0.016705,0.0038776,0.0067204,0.01582,-0.015355,0.00065818
0.017455,0.15463,-0.15527,-0.063664,-0.03749,-0.0043408,0.0039838,0.012399
-0.069582,-0.17768,0.41337,-0.020947,-0.0031889,-0.04706,-0.022796,-0.030126
0.0072597,-0.094388,-0.20608,0.053668,0.023513,0.043474,0.028831,0.013204
0.012768,0.012287,0.0026436,0.01929,-0.0044659,-0.014523,-0.013533,0.0012805
-0.03808,-0.21758,-0.1557,0.0084279,0.022007,-0.0028663,-0.017575,-0.019423
0.0028033,0.0056099,0.18562,-0.13551,-0.030142,0.0076181,0.016288,0.0055084
0.065104,0.39425,-0.083556,0.16527,0.018518,0.0087219,0.017454,0.029081
-0.014897,0.05199,0.059345,-0.019258,-0.0041037,-0.015397,-0.014204,-0.011171
-0.080332,-0.17495,-0.011281,-0.025262,-0.012212,-0.002241,-0.016144,-0.021316
0.025831,-0.026148,-0.061134,-0.071612,-0.0058395,-0.014086,0.011841,0.014566
0.038775,-0.030298,0.058845,0.021417,0.030732,0.035436,0.015416,0.0031019
0.006066,0.080627,-0.10313,-0.0037963,-0.035086,-0.017153,-0.012776,-0.00060058
0.0062785,-0.21477,0.17356,0.095259,0.031418,-0.0071173,-0.0097204,-0.0039391
-0.022953,-0.032237,-0.45276,-0.048202,-0.0037105,0.027151,0.025095,0.0090785
-0.0037084,0.13657,0.40257,-0.019689,-0.015015,-0.038765,-0.032882,-0.02377
-0.014617,0.11132,-0.21243,-0.021922,-0.03331,-0.024766,-0.011448,0.0070447
0.052971,0.054136,0.53045,0.062627,0.051137,0.069325,0.042677,0.015591
-0.0048953,-0.03035,-0.43238,-0.03142,-0.019267,-0.0065747,-0.011168,-0.0060935
-0.079642,-0.091499,0.26412,-0.014875,0.013332,-0.010617,0.0064722,-0.0036123
0.085894,0.0069593,-0.30479,-0.028377,0.0003491,0.001977,0.0014664,0.0070114
-0.032125,0.042314,0.045342,0.037291,-0.0038465,-0.00068498,0.0045991,0.0018946
-0.019727,0.0038661,0.12426,0.05683,0.0081171,-0.011428,-0.0080258,0.019679
-0.0094935,-0.07841,-0.28883,-0.056114,-0.011122,-0.0073417,-0.013335,-0.025896
0.045965,-0.032041,0.33623,0.026099,0.016107,0.019047,0.011904,0.005637
-0.03232,0.020392,-0.17252,-0.032957,-0.02773,-0.01831,-0.026075,-0.026314
0.029908,0.0046029,-0.15016,-0.022778,0.005607,-0.00212,-0.0099387,-0.0043403
-0.016545,-0.051376,0.38147,0.02507,-0.024539,-0.025865,-0.0019348,0.0094187
-0.014741,-0.025825,0.11988,0.024478,0.022558,0.043614,0.05289,0.023193
0.0045556,0.05366,-0.51825,-0.063627,-0.0091637,-0.0042907,-0.0015183,-0.0016967
0.0025112,0.095468,0.40742,0.12028,0.052375,0.025972,0.014593,0.013142
0.049399,0.25616,-0.15485,-0.040712,-0.027029,-0.021751,-0.047295,-0.02594
-0.058186,-0.26255,-0.32733,-0.085248,-0.0050806,-0.0068741,0.0079301,0.0059828
0.015239,0.0053823,0.27497,0.041847,0.0088842,0.0079552,0.023762,0.022752
0.042573,0.048915,-0.15924,-0.026086,-0.047637,-0.024325,-0.0391,-0.030628
-0.047014,-0.048978,0.026151,0.00052312,0.036281,0.02894,0.037944,0.017401
0.01169,-0.22,0.4935,0.13772,0.041903,-0.0041983,-0.010746,0.0025227
-0.023754,0.26172,-0.11971,-0.05951,-0.046327,-0.0064984,-0.02878,-0.012901
-0.036243,-0.3141,0.14328,-0.11447,-0.025157,-0.016844,0.01536,-0.021051
0.036767,0.022869,-0.62042,0.07438,0.011842,-0.019332,-0.010788,0.0016449
0.023506,0.29022,0.16335,0.0068847,0.010173,0.033231,0.010322,0.0085322
0.033429,-0.010445,-0.055024,-0.0047473,0.024688,0.016131,0.016483,0.015476
-0.027206,0.03567,0.01236,-0.015607,-0.014843,-0.00013178,0.0078639,0.022672
0.021195,0.0375,0.061311,-0.065259,-0.030323,-0.015514,0.0079163,0.0067857
-0.071528,-0.13929,0.35935,0.12698,0.056224,0.016744,-0.022552,-0.040001
0.014755,-0.028173,-0.22347,-0.01761,-0.052328,-0.059864,-0.036901,-0.031851
0.03772,0.12632,-0.22284,-0.046422,0.034345,0.051196,0.042707,0.054508
0.020774,-0.068297,0.23181,0.087052,0.034713,0.044874,0.020681,0.015774
-0.051602,-0.16759,-0.098624,-0.023534,-0.027969,-0.040072,-0.048509,-0.046642
0.0396,0.13349,0.022691,-0.1045,-0.036534,-0.008511,0.014697,0.015607
-0.064614,-0.022864,-0.090059,-0.022444,-0.022058,-0.047959,-0.0006636,-0.0084239
-0.012231,-0.17323,0.24364,-0.0030709,0.0079957,0.0058013,0.0070352,-0.001471
0.064371,0.26341,0.047242,0.13428,0.030645,0.020241,-0.016767,0.005357
0.032714,0.024114,-0.25029,-0.039201,0.022914,0.058208,0.037456,0.027863
-0.021106,-0.11571,-0.16587,-0.015102,-0.022658,-0.020594,-0.02547,-0.019708
-0.058082,-0.037998,0.18938,0.019255,0.003459,-0.012791,-0.0023221,-0.020021
0.046523,0.26471,0.1259,-0.014535,-0.00038656,-0.012008,-0.010247,0.0035845
0.0032194,-0.19344,-0.25709,0.023464,0.020165,0.013005,0.052301,0.035508
-0.040076,-0.055297,0.24104,-0.0083305,-0.0057112,-0.023804,-0.033489,-0.010237
0.048925,0.1297,0.1178,-0.0015932,-0.0083113,0.033613,-0.002075,-0.0087645
-0.011472,-0.1408,-0.22279,-0.074463,-0.027302,-0.033753,-0.017604,-0.022743
-0.0028122,0.12364,0.069141,0.045797,-0.00069087,0.00036361,-0.0020152,0.010126
-0.026753,-0.085602,0.10216,0.069766,0.039921,0.034087,0.029025,0.011502
-0.0050584,-0.17457,-0.24849,-0.08068,-0.038442,-0.026646,-0.010439,-0.0031996
6.2971e-05,0.24068,-0.2159,-0.077106,-0.02483,-0.0024374,0.0045914,0.012711
0.012462,-0.017739,0.38959,0.041937,0.049669,0.0049096,0.0038108,-0.0034042
0.048224,0.028872,0.16432,0.15986,0.052512,0.049931,-0.012764,-0.0047338
0.0062226,0.07008,-0.53758,-0.011818,-0.031576,-0.015831,0.001773,0.00094016
-0.058501,-0.20495,0.16093,-0.11323,-0.038128,-0.035976,0.016226,-0.017494
-0.020709,-0.0921,0.26104,0.0044796,-0.021379,-0.017976,-0.0083835,0.010517
0.025947,0.20561,0.36457,-0.0099192,0.011336,-0.00037633,-0.017254,-0.0084543
0.050173,-0.0079611,-0.45869,0.0079422,0.029248,0.017458,-0.0024354,0.011887
-0.07322,-0.06265,-0.17057,0.050532,0.0015405,0.012753,0.012773,0.0093836
0.022633,0.10168,0.064057,-0.030341,-0.0011341,-0.0060961,0.0050524,-0.023503
-0.014256,0.076148,0.018307,-0.031369,-0.02545,0.00037218,-0.0020888,-0.0006709
0.050007,0.045856,-0.010573,-0.014975,0.00675,0.016678,0.022606,0.038846
-0.0037905,-0.2721,0.11127,0.081284,0.025011,-0.0041847,-0.030302,-0.014428
0.019317,-0.042297,0.21341,0.015011,-0.010027,-0.015719,-0.020312,-0.012261
-0.021436,-0.021725,-0.52295,-0.042258,0.0027891,0.020587,0.036784,0.0060196
-0.039967,0.11197,0.32517,0.018428,0.01612,-0.0052595,0.00017963,-0.0067291
0.011053,0.17416,-0.18723,-0.076819,-0.02517,0.0077259,0.010333,0.0039538
-0.047353,-0.18352,0.048476,0.030957,-0.0042768,-0.026836,-0.018822,-0.0011456
0.027843,0.065159,0.13973,-0.010163,-0.030856,-0.03107,-0.017041,-0.014284
-0.0047605,-0.038822,0.31797,0.041728,0.027728,0.041844,0.015667,0.019223
0.050686,-0.06521,-0.32653,-0.0089018,-0.0083144,-0.026744,-0.022225,-0.01779
-0.016628,-0.014946,-0.06285,0.017472,0.032832,0.013343,-0.005671,-0.023754
0.058571,0.25804,0.082893,0.034801,0.0026708,0.013839,0.0341,0.048154
0.0020558,0.015993,-0.16412,-0.027266,0.018324,0.037339,0.026743,0.018117
-0.062252,-0.10428,-0.10055,-0.114,-0.053084,-0.025534,-0.01221,-0.0046852
-0.018317,-0.051521,0.0097037,-0.0065269,-0.0006377,-0.002992,-0.01257,-0.01265
-0.0077527,-0.0077164,0.38041,0.16255,0.035096,0.0032952,-0.0057017,-0.013752
0.039123,0.065606,-0.28197,-0.059654,-0.031643,-0.037981,-0.022904,-0.015846
-0.049722,-0.3302,0.24444,0.038056,0.018202,0.013857,0.014004,0.01244
0.030736,0.26891,-0.23327,-0.051882,-0.0024492,0.0027615,-0.0041804,-0.014538
-0.015616,-0.27343,0.0049516,-0.055779,-0.022787,-0.00062162,0.016562,0.0052073
0.015396,0.016123,0.33426,0.089133,0.0045718,-0.019307,-0.040638,-0.0059678
0.07807,0.4618,-0.33208,0.0081385,0.041011,0.056516,0.058898,0.046135
-0.060855,0.14423,0.33267,-0.040648,-0.014716,-0.014975,-0.004907,-0.0022147
-0.03328,-0.26404,-0.24331,-0.041321,-0.021853,-0.014803,-0.013183,-0.01805
-0.018311,-0.12358,-0.31127,0.0063229,-0.0039185,-0.021053,-0.020627,-0.024848
0.023286,-0.077711,0.073423,-0.014846,0.0075414,0.01298,0.011682,0.024042
-0.010326,-0.083135,0.27001,0.11377,0.035491,0.0010001,-0.010245,-0.020181
0.083277,0.30169,0.028788,-0.014472,-0.014408,0.028437,0.022658,0.021731
-0.025074,-0.020348,0.14712,-0.056436,-0.0021546,0.0087719,0.0085066,0.008704
-0.0084875,-0.05949,-0.062081,0.018386,0.0013791,-0.0038745,-0.0061163,-0.0049603
0.022435,0.01116,-0.4736,-0.001691,-0.043287,-0.041205,-0.021423,-0.0038974
-0.073941,-0.19895,0.16243,-8.0651e-05,0.01207,-0.025357,-0.0062589,-0.019452
-0.016989,0.014539,0.025265,-0.039613,0.011207,0.020206,0.00034634,-0.012476
0.029099,0.10679,0.6376,0.098483,0.024644,0.025377,0.02199,0.017275
0.017808,0.025517,-0.55616,-0.11667,-0.02538,0.0061764,-0.0035716,0.015464
0.012404,0.1245,-0.11936,-0.012519,0.017837,0.0021823,0.0099135,0.0059196
-0.0095382,0.030417,0.34583,0.028939,0.0063335,0.006136,0.00027067,-0.011002
-0.039139,-0.23242,-0.27785,0.055403,-0.028202,-0.05176,-0.032209,-0.019421
0.026096,0.046959,0.15069,0.028462,0.008334,0.03203,0.0064408,0.019839
0.038371,0.094423,-0.39877,-0.028077,-0.0010131,0.0077584,0.0069491,0.0051694
