0.12725,-0.1965,0.097312,0.029768,0.01078,0.021096,0.045176,0.01319
0.015752,-0.16741,-0.055458,-0.015201,-0.027601,-0.034321,-0.25736,-0.097281
-0.22233,0.088727,-0.26075,-0.030167,0.01128,0.011537,-0.02248,0.01726
0.11685,0.11217,0.18551,-0.007381,0.002581,0.010399,0.032844,0.060324
0.12808,0.053474,0.12859,0.0064399,0.0012662,-0.014144,-0.026635,-0.029977
-0.21886,-0.17856,-0.1641,0.019437,0.023294,0.031768,0.12952,-0.002957
0.27216,0.098142,0.16865,0.024224,-0.0013286,-0.00025545,0.010933,0.016984
-0.078213,0.010304,-0.0043317,-0.025637,-0.025481,-0.02431,-0.014407,0.05366
-0.074913,0.027335,-0.13488,0.01085,-0.0021586,-0.040498,-0.10336,-0.05691
0.054686,-0.023159,0.21545,-0.014503,0.013951,0.052585,0.22634,0.083508
-0.0031494,0.099466,-0.22617,-0.0078401,-0.00071714,-0.0030565,-0.04433,-0.025495
0.00016317,-0.020995,-0.12352,-0.00044698,0.00048889,0.0033421,-0.044547,-0.12659
-0.24921,0.019578,0.38282,0.030973,0.0094836,0.0091702,-0.14571,0.0063729
0.28679,0.024416,-0.34027,0.039346,0.010378,0.0066207,0.19561,0.091878
0.10775,-0.24108,0.034666,-0.045831,-0.020459,-0.027575,-0.1162,0.0048845
0.21389,0.060306,0.21743,-0.037189,0.0028318,0.016316,0.20815,0.065875
-0.67508,-0.037462,-0.13735,-0.028518,-0.029068,-0.025245,-0.07877,-0.14669
0.028273,-0.03855,0.19488,0.050546,0.00121,-0.026635,-0.27698,-0.0074116
0.036618,-0.0251,-0.1943,0.012601,0.015791,-0.010696,-0.1772,-0.03151
-0.054763,0.16216,-0.049191,-0.025083,-0.016321,0.03861,-0.046305,0.10941
0.92689,0.10279,0.097347,0.031253,0.045684,0.058867,0.45738,0.18104
-0.84656,-0.063255,0.2054,0.033069,0.037811,0.049715,0.18914,-0.24645
0.67084,0.11432,-0.34986,-0.051094,-0.047815,-0.1928,-0.10792,0.10006
-0.36615,-0.02524,0.057804,-0.00276,-0.023856,0.041025,0.17345,-0.10015
-0.52931,-0.081018,0.024325,-0.033144,-0.023337,-0.015927,-0.44801,-0.081859
0.42254,0.035671,0.083771,0.045051,0.0082278,0.21297,0.21667,0.17026
0.004937,-0.0070416,-0.089022,0.10675,0.094132,0.070227,0.035794,0.07792
0.10935,-0.28893,-0.13992,-0.14483,-0.062554,-0.21823,-0.32461,-0.069849
-0.27823,-0.027975,0.23744,-0.021943,-0.032104,-0.13658,0.17832,-0.03077
0.1019,0.14597,-0.042426,-0.016422,0.0059112,0.019448,-0.23838,-0.19533
-0.31107,-0.0048194,0.17589,0.02836,0.0047819,0.12688,0.34779,0.053764
0.79634,0.25125,0.070101,0.097072,0.034992,0.071191,0.033066,0.18522
-0.44312,-0.065643,-0.35457,0.017974,0.018552,-0.090091,-0.32736,0.06599
0.65696,-0.092865,-0.0070134,-0.037107,-0.036647,-0.10443,0.16883,0.015928
-0.99124,0.030443,0.12629,-0.04493,-0.021223,0.10807,0.040627,-0.23896
-0.11652,-0.0086044,0.0051729,0.0098756,0.041338,0.071479,0.063736,0.074287
0.63062,0.069263,-0.073438,-0.013526,-0.028732,-0.043001,0.098453,-0.044503
-0.0012972,-0.012419,-0.13966,-0.037106,-0.012774,-0.0028924,-0.097729,0.18624
0.065332,-0.014854,0.19122,0.0095018,0.018825,0.18895,-0.0025189,-0.084114
-0.583,-0.097392,0.35103,0.07178,0.034774,-0.31458,0.0076932,-0.025923
0.53191,-0.098267,-0.61922,0.03277,-0.003983,0.22538,-0.18533,-0.04347
0.16269,0.067225,0.18794,-0.05263,-0.019265,-0.15486,0.066583,-0.0018203
-0.85156,0.00045132,0.11644,-0.059299,-0.050039,-0.19934,-0.032825,-0.10222
0.17215,0.045761,0.079444,0.0049264,0.0053675,0.24744,-0.16187,-0.16381
0.79125,-0.0067573,-0.2375,0.022664,0.037656,-0.025096,0.31394,0.56353
-0.66446,0.086182,0.13175,0.040426,-0.015683,0.054654,-0.14301,-0.093302
0.73478,0.036453,0.42668,0.018666,0.024908,0.058994,0.24145,-0.14454
-0.35645,0.086971,-0.37054,0.027189,0.02636,0.045056,-0.032969,0.1018
-0.6525,-0.074126,-0.25323,-0.020348,0.0039523,-0.19542,-0.10823,-0.045406
0.099576,-0.11015,-0.01013,-0.077234,-0.0035974,0.19179,0.036987,-0.081596
0.76891,-0.043498,0.040249,-0.026109,-0.082477,-0.47057,-0.20922,-0.02472
-0.88515,-0.33379,0.041478,0.01637,0.0094328,0.21782,0.072635,-0.39925
0.88931,0.22351,0.25487,0.043197,0.02229,0.14857,0.11503,0.28726
0.45495,0.26238,0.011867,-0.0072059,-0.0044746,-0.037826,-0.036202,0.24716
-0.72167,0.0098698,-0.20843,-0.016822,0.031212,0.1494,0.032892,0.099743
-0.05352,0.067108,0.048381,-0.00073314,0.0049072,-0.10482,-0.075299,0.19128
-0.21554,0.01864,-0.045914,0.033365,-0.0047664,0.071192,0.023621,-0.48342
-0.87159,-0.3564,0.31201,0.11638,-0.013078,0.041128,-0.012042,-0.2343
0.47271,0.10362,-0.19264,-0.096178,0.0035652,-0.2527,-0.047298,0.40978
0.54622,-0.0097696,-0.18764,-0.034966,-0.025218,0.039328,0.060409,-0.21327
0.17738,0.051803,0.10545,-0.06037,-0.005967,-0.098897,-0.054746,-0.039556
0.23006,0.021996,-0.19864,-0.040428,0.021785,0.075787,0.20158,0.16583
0.53262,0.065181,0.22634,0.22742,0.057441,0.29994,-0.10054,0.2774
-0.64503,0.057642,-0.14419,-0.15547,-0.0090054,-0.39226,0.014537,-0.1438
-0.26184,-0.26418,0.46274,0.021973,-0.076555,0.15063,-0.087336,-0.17034
-0.50376,0.078795,0.031799,0.057043,0.049709,-0.068799,0.11586,-0.15639
-0.063269,-0.067181,-0.7251,-0.12777,-0.044419,0.076176,-0.18171,0.067347
0.76787,0.12802,0.29527,0.069786,0.024007,0.32841,0.14428,0.60041
-0.65127,-0.037676,0.040439,0.064465,-0.010242,0.093843,-0.085924,-0.74593
0.57912,0.013594,-0.065205,-0.0025225,0.0096651,-0.72226,-0.02815,0.39529
-0.55466,0.05365,0.1527,-0.076048,0.01407,0.32412,0.03706,-0.31121
0.83142,0.095345,-0.022541,0.031667,-0.012046,-0.31515,-0.045851,-0.012542
0.049412,0.15088,0.0041679,-0.023008,0.0098936,0.17919,0.16881,0.33975
-0.72349,-0.3769,-0.040207,0.0098943,-0.013652,0.2438,0.048079,-0.20611
0.18804,0.21252,0.12503,0.013012,0.011006,-0.004829,-0.19784,0.053735
-0.09649,-0.43373,-0.22028,-0.029592,-0.03364,-0.059557,-0.046754,-0.14645
0.17516,0.13783,0.1093,0.045696,0.086266,0.19617,0.28113,0.52838
0.55318,0.29625,-0.16987,-0.042938,-0.036137,-0.30844,-0.19212,-0.016891
-0.4335,-0.064846,0.15063,-0.014881,-0.03425,-0.16732,0.0091534,-0.42428
-0.17495,-0.15289,0.10763,0.051097,0.013363,0.27599,0.16608,-0.13215
-0.69872,-0.081759,0.019684,0.15445,-0.018502,-0.016877,-0.24394,-0.11706
0.7906,0.31518,-0.012573,-0.14267,0.026482,-0.076191,-0.086338,0.23914
-0.40216,0.0081305,-0.20784,-0.16844,-0.038842,0.02884,0.086699,-0.04625
0.55135,0.012949,-0.0024721,0.093076,0.036064,-0.099272,0.14518,0.63035
-0.1392,-0.10865,0.074399,0.040909,-0.013801,0.22754,-0.041061,-0.55734
-0.36847,-0.05342,0.088079,0.027418,-0.00035205,0.032772,-0.048131,-0.17833
0.731,-0.14339,-0.1381,0.0065525,0.037783,-0.28564,0.14061,0.52571
-0.32822,-0.059875,-0.15617,-0.067875,-0.039819,0.16985,-0.15469,-0.56269
0.38572,0.32077,0.28568,0.046751,0.024593,-0.00025268,0.088151,0.34446
-0.39969,-0.24472,0.0083159,0.0067929,-0.034911,0.14841,0.0076368,0.04242
-0.71447,0.14906,0.15939,0.11677,0.070245,-0.22065,-0.047289,-0.48636
0.95986,0.28265,-0.059936,-0.11589,-0.051132,0.17387,0.084759,0.84991
-0.85573,-0.41488,-0.17576,-0.097845,-0.0011474,-0.52676,-0.21575,-0.7473
0.38585,0.22013,-0.12837,0.022067,0.0010298,0.36608,0.049464,0.35375
0.63248,-0.0234,0.1502,0.063913,0.0020465,0.072445,0.12943,0.23089
-1.018,-0.37181,-0.060248,0.058842,-0.013738,-0.070673,-0.10109,-0.6387
0.7674,0.30834,-0.017964,-0.11813,-0.038338,0.26537,0.061421,0.34788
0.039845,-0.013319,-0.019297,0.079946,0.045733,-0.30245,-0.14007,-0.38564
-0.78305,-0.085759,0.17914,0.082824,0.059134,0.092121,0.25639,0.3345
0.59001,0.19351,-0.069606,-0.13293,-0.021253,-0.067979,-0.068431,-0.13086
0.2694,-0.010744,0.0093344,-0.0596,-0.023308,0.27817,0.097512,0.75028
-0.48697,-0.14346,-0.090783,-0.048968,-0.064074,-0.46455,-0.17437,-0.60031
0.60188,0.21734,0.10719,0.20332,0.067439,0.32028,-0.05485,0.38696
-0.21414,-0.36599,0.040833,0.14216,0.0040221,-0.1486,-0.074132,-0.42169
-1.0283,-0.08898,-0.040115,-0.16253,-0.035648,0.114,-0.059465,-0.72239
0.64459,0.50121,-0.11266,-0.054763,0.057704,-0.2185,0.28654,0.60164
-0.23338,-0.1269,0.02592,-0.12832,-0.036336,0.11367,0.096681,0.31603
0.10366,-0.1297,0.1723,0.031142,-0.036603,0.22976,-0.16874,0.0070236
0.78734,0.20378,-0.2125,0.18201,0.056843,-0.51686,-0.010886,0.13592
-0.31843,-0.15745,-0.026626,-0.073433,-0.060715,0.85943,0.15474,-0.25788
-0.10172,-0.18166,-0.035297,-0.031318,0.024784,-0.59399,-0.29041,-0.25218
0.21984,0.10828,0.23057,0.05114,0.06336,0.12261,0.1918,0.3331
-0.86072,-0.17772,0.044506,0.010246,0.00037106,-0.36682,-0.023842,-0.25934
0.52564,0.3511,-0.054605,0.088293,-0.046916,0.12349,-0.10857,-0.036707
0.53921,-0.094691,-0.051584,-0.17577,-0.047128,0.33341,0.095262,0.11867
-0.53953,0.19484,-0.032924,0.053733,0.015522,-0.044466,-0.1761,0.07417
-0.48161,-0.23491,-0.053812,-0.051671,0.024019,-0.059844,0.10273,0.11071
0.25724,0.22385,-0.036422,-0.039256,0.033184,0.10508,0.11297,0.032088
0.090219,-0.14891,0.10514,0.051468,-0.081942,0.24551,-0.058681,-0.084941
0.0090594,0.013468,0.0038801,0.1028,0.092607,-0.70144,0.087491,-0.18728
0.32472,-0.43703,-0.066428,0.0047875,-0.044971,0.14043,-0.0045059,-0.034225
-0.28686,0.024335,0.11335,-0.016547,0.051845,0.062947,-0.047718,0.18559
0.51153,0.36036,0.043576,0.022766,-0.015775,-0.10188,0.033478,-0.0049761
-0.30493,0.088556,-0.025446,-0.018005,-0.013797,0.40029,-0.083653,-0.066835
-0.25507,0.24944,-0.10128,-0.15418,-0.059613,0.081219,-0.10415,-0.046325
0.50884,-0.20316,-0.019674,0.044661,0.034253,-0.57975,0.072443,0.19027
-0.57096,-0.2146,-0.1321,-0.07673,-0.044546,0.13718,-0.061903,-0.15284
0.31673,-0.027681,0.084792,0.029573,0.024564,0.66861,0.21217,-0.051183
0.15735,0.17702,0.11497,0.11434,0.04655,-0.69133,-0.041631,0.089841
-0.90529,-0.25763,0.059236,0.12316,0.0138,0.17042,-0.071751,0.13798
-0.069953,-0.00424,0.21339,0.00096747,0.020134,0.13194,-0.06405,-0.38309
0.60498,0.20221,-0.39253,-0.057799,-0.059508,0.048066,0.11582,0.65944
-0.0032323,0.119,0.16231,0.016038,0.055994,-0.17056,-0.0073933,-0.51578
0.44051,-0.082568,-0.14611,-0.32543,-0.094409,0.02126,-0.026427,0.0051941
0.61933,0.026584,-0.06766,0.20623,0.036153,0.0067872,0.075083,0.081802
-0.80996,-0.030704,0.13293,0.056306,0.025954,-0.13337,-0.069568,-0.066999
-0.10609,-0.11426,0.10563,-0.079358,-0.046574,-0.18423,-0.092938,0.012226
-0.034979,-0.11491,-0.06953,0.01112,0.022098,0.17142,0.0049967,0.26505
-0.64132,-0.055923,-0.093769,-0.0071434,-0.0019957,0.078633,-0.0025913,-0.45687
0.29182,0.50069,0.034451,0.062032,0.02207,-0.060931,0.071178,0.18998
0.46997,-0.084903,-0.012127,0.023766,-0.0071702,0.9026,0.092466,0.54107
0.34456,-0.14759,0.20399,0.057624,-0.0039446,-0.6484,0.12237,-0.23243
-0.88047,-0.10801,-0.15403,-0.11829,-0.0077425,-0.059565,-0.30951,-0.59995
0.13245,-0.12892,-0.13475,-0.012801,0.035496,-0.45856,-0.017331,0.016111
0.5247,0.34563,0.29097,0.14641,0.039115,0.065997,0.1928,0.65449
-0.76788,-0.52713,-0.12908,-0.18847,-0.099109,0.81667,-0.015964,-0.53649
0.83559,0.65169,0.25171,0.099176,0.042228,-0.81726,-0.010997,0.38058
-0.087776,-0.2276,-0.48179,-0.13913,-0.052669,0.015112,-0.10422,-0.34446
0.54361,0.060426,0.029639,0.050216,0.03825,0.27451,0.041603,0.25683
-0.83939,-0.13457,-0.02568,0.13685,0.0029686,0.10921,-0.032623,0.38718
-0.25215,-0.17439,0.23661,0.020334,0.0062519,0.3158,-0.05142,-0.46149
-0.37356,0.14932,0.16215,-0.15758,-0.060494,-0.074934,-0.028534,-0.28134
0.54091,0.35768,-0.1378,-0.013122,0.069068,-0.53213,0.28738,0.34226
0.55831,-0.16812,-0.11489,0.13402,0.04389,-0.048018,-0.064028,-0.21458
-0.22069,-0.15517,0.091192,0.026259,-0.04204,0.253,0.034141,0.17461
0.13485,-0.087066,-0.027063,-0.078837,-0.016908,0.012853,-0.044124,0.14418
-0.86415,-0.10234,-0.071496,-0.080344,0.0095818,-0.094761,-0.34721,-0.45312
0.62267,0.29433,0.066525,-0.033918,-0.03341,-0.036577,0.20913,0.18796
0.076999,-0.096522,-0.17657,-0.00323,-0.044953,0.25947,0.045161,0.30928
-0.31644,-0.13077,0.35426,0.46363,0.13837,-0.14302,0.1518,0.3316
0.0011533,-0.071405,-0.076554,-0.25157,-0.06214,0.13899,-0.13582,-0.66862
-0.053711,0.45785,-0.11061,-0.20421,0.032794,-0.19989,-0.013283,-0.076003
0.60506,0.08162,-0.053171,0.066485,-0.014525,0.057656,0.043154,0.22515
-0.65769,-0.43635,0.017561,-0.13432,-0.071218,0.15197,-0.12975,-0.13323
0.23152,0.22909,-0.022981,0.13971,0.011478,-0.22347,0.12548,0.090873
0.493,-0.027048,0.13073,0.11648,0.030967,0.093954,-0.072599,0.11665
-0.70025,-0.34855,-0.14525,-0.069752,0.011322,-0.21681,-0.12892,-0.3207
0.50538,0.23876,0.095404,0.043163,-0.031212,0.45372,0.20751,0.27194
-0.26066,-0.063242,-0.021589,-0.083056,0.021043,-0.26071,0.054373,0.26257
0.20492,0.042244,0.011852,0.012753,0.051175,-0.069466,-0.025884,-0.31696
-0.08576,0.095217,0.047017,0.056807,0.0045353,0.17775,0.13814,0.23694
-0.67909,0.050455,-0.088742,-0.092356,-0.056549,-0.52516,-0.30583,-0.58315
0.41268,-0.043129,0.064396,0.0093919,-0.023018,0.3698,0.079076,0.32485
0.02216,-0.081862,0.028643,0.12634,0.026631,0.22999,-0.059111,0.17249
-0.44902,-0.17319,-0.15801,-0.094342,-0.032959,0.023188,-0.056377,-0.25048
0.63933,0.37976,0.2694,0.026034,0.032287,-0.049417,0.13437,0.12687
0.1094,-0.35169,-0.22045,0.033803,0.011207,-0.0059838,0.013468,-0.062288
0.11292,0.23444,-0.1114,-0.11789,-0.033854,-0.34121,-0.036049,-0.036725
0.30344,0.012956,0.23831,0.10281,0.084506,0.028951,0.20456,0.40621
-0.71673,-0.18098,-0.16984,-0.17022,-0.055632,0.48652,-0.069681,-0.14841
0.24672,0.19833,0.017279,0.079981,-0.016754,-0.53835,-0.16395,-0.46734
0.053436,-0.077057,0.23069,0.12041,0.0059098,0.096559,-0.0163,0.26071
-0.18289,-0.0085244,-0.1303,-0.0009555,0.0046929,-0.036103,0.068121,0.034599
-0.13157,0.043334,0.0049026,-0.072516,-0.012388,0.13648,-0.12192,-0.029523
-0.080058,-0.25835,0.0031197,-0.00041842,0.033021,0.15549,0.10879,0.012778
-0.79392,-0.062626,-0.19124,-0.0038551,-0.054175,0.18633,0.0024164,-0.0033034
1.122,0.48172,0.12366,0.017863,0.023059,-0.37219,0.12933,0.023203
0.61966,-0.0082265,0.13385,0.016738,0.046049,0.034154,-0.018273,0.33412
-0.85014,-0.11835,0.0097393,-0.00057497,0.014775,-0.025337,-0.010673,-0.17997
-0.65228,-0.17647,-0.1405,-0.058487,-0.078679,0.22939,-0.21502,-0.52645
0.73398,-0.0023858,0.010452,0.092381,0.015535,-0.40588,-0.037447,0.1471
0.88631,0.16251,-0.045465,-0.0247,0.023824,0.013429,0.14721,0.20915
-0.48191,-0.26677,0.035812,-0.15944,-0.022686,0.40876,0.050064,0.090822
-0.074628,0.077905,0.13791,0.10286,0.040002,-0.29037,0.069686,0.13726
-0.34681,0.15817,-0.19114,-0.072896,-0.038114,0.15036,-0.090777,-0.24417
0.044812,0.068073,0.018676,0.17345,0.0086475,0.035511,0.10768,0.22074
-0.56888,0.034003,0.11226,-0.0012646,-0.014941,-0.072595,-0.18661,-0.31916
0.13927,-0.030543,-0.08922,-0.11242,0.00057996,-0.041433,-0.036189,-0.012205
0.53158,-0.13411,0.18029,0.18366,0.039641,0.0036968,0.066797,0.047703
-0.42532,-0.3164,-0.12612,-0.1602,-0.0071295,-0.14057,-0.0025138,0.0085935
0.88467,0.43012,-0.12601,-0.058461,-0.0069683,0.20535,0.1389,0.36979
-0.8372,-0.058455,0.15654,0.043243,0.0087901,-0.075631,-0.10248,-0.43992
0.35809,0.085687,-0.021331,-0.042765,-0.038069,0.39963,0.078275,0.39873
0.17436,-0.15212,0.058567,0.081952,0.00083148,-0.52452,-0.10761,-0.31835
-0.39859,-0.11453,-0.10409,0.026903,0.0082945,0.098097,-0.019171,0.0097175
0.33756,0.1682,-0.017115,0.026662,0.062499,-0.21583,0.10184,0.12494
0.27527,-0.014252,-0.024017,-0.098262,-0.047383,0.26139,0.021583,0.027716
-1.0131,-0.18528,-0.085313,0.035089,-0.055578,0.21048,-0.18126,-0.27317
0.40595,0.29508,0.25253,0.05178,0.077133,-0.20373,-0.021823,-0.07327
0.81235,0.073902,-0.033661,-0.13416,-0.024117,0.034747,0.19548,0.52727
-0.67469,-0.36625,0.0092185,0.00058062,-0.023321,0.19934,-0.013812,-0.32197
-0.55792,0.30077,-0.12692,0.1042,0.040439,-0.28062,-0.072086,-0.042218
0.61528,0.1358,0.1981,0.12168,0.010788,-0.2573,0.097823,0.45242
-0.59243,-0.50277,-0.25064,-0.15046,-0.073434,0.29965,-0.075695,-0.39344
0.15397,0.16628,-0.051726,-0.064116,0.037475,-0.2125,-0.023777,-0.096644
0.74919,0.10484,0.18514,0.083639,0.061943,0.29848,0.03345,0.036601
-0.18947,-0.18531,-0.11836,0.0037296,-0.05501,0.1745,0.079283,0.067196
0.39636,0.094874,0.17837,-0.0067445,-0.016709,-0.023895,-0.18377,0.056163
-0.39158,0.04119,0.22382,-0.0098508,0.020546,-0.25942,0.048924,0.11949
-0.015974,0.10041,-0.44277,-0.090961,0.010004,0.02145,0.0043741,-0.12642
0.005924,0.038713,0.007008,0.078631,-0.02459,-0.14238,0.035028,-0.03342
-0.34112,-0.1678,-0.043661,0.022819,-0.012477,0.1563,0.087338,0.039397
-0.71742,0.19054,0.08532,-0.00036264,0.015613,-0.20551,-0.12653,-0.22749
1.0095,-0.020848,0.30837,0.032442,0.021121,0.032647,0.17583,0.26867
-0.5794,-0.27251,-0.14772,-0.043199,-0.018997,0.31102,-0.19208,-0.15043
0.65367,0.074745,-0.0016096,0.037772,0.0048451,-0.12589,-0.049799,0.055583
-0.020187,-0.081444,-0.13612,0.0091001,-0.0011257,0.18433,0.20474,0.2237
0.27889,0.21194,-0.0044298,-0.075059,0.033151,-0.26565,-0.084489,-0.15325
-0.71123,-0.021173,-0.10656,-0.097836,-0.041206,0.21908,-0.034739,-0.13753
0.62083,0.0091745,0.15904,0.18291,0.040872,-0.096888,0.064571,0.19264
-0.47399,-0.0084713,0.06573,-0.021677,-0.025879,-0.13669,-0.11531,-0.23337
0.22357,-0.096553,-0.035084,-0.12528,-0.03883,-0.081241,0.018491,0.17778
-0.27783,-0.07459,0.059464,0.036595,0.0016724,0.021583,0.082135,-0.14459
0.10933,0.42512,0.06784,0.13621,0.072044,-0.0087037,0.11356,0.16644
-0.026507,-0.33938,-0.21326,-0.021464,-0.02297,0.26471,-0.11485,0.040431
-0.072907,-0.02437,-0.088457,-0.037868,-0.056566,-0.010427,-0.04924,-0.19443
-0.011182,0.01056,0.19262,-0.0067045,0.018513,0.11831,-0.057271,0.13402
0.16878,0.030714,0.0056189,-0.013901,0.062105,-0.068424,0.1267,0.0027942
0.40535,0.082598,-0.2346,-0.090682,-0.011238,-0.33653,-0.059333,0.021931
-0.67747,-0.021629,0.26173,0.028622,-0.029184,0.1267,-0.0050496,-0.23755
0.80023,0.022481,-0.098727,0.015905,-0.046046,-0.24041,-0.029554,0.068704
-0.68952,-0.019505,0.074575,0.058589,0.032176,0.33681,0.087204,0.15194
0.019523,0.040101,0.054448,0.133,0.025885,-0.038639,0.057337,-0.066195
0.069776,-0.22793,-0.16022,-0.12847,0.0052991,0.056394,-0.13391,0.030645
-0.37267,0.13797,0.093203,-0.054459,-0.029864,0.036804,-0.025167,-0.051231
0.76534,-0.056791,-0.038331,-0.012689,0.037139,-0.19871,0.047528,0.32683
-0.1214,0.10237,-0.079545,-0.03483,-0.052059,0.25581,-0.025818,-0.36857
0.043261,-0.095329,0.13278,0.23048,0.037892,0.0091323,0.097476,0.04035
-0.18593,0.16227,-0.05785,-0.11513,0.033025,-0.18167,0.087927,0.060088
-0.46304,-0.039754,0.028672,-0.11037,-0.059234,-0.23907,-0.14963,-0.16135
0.55983,-0.061991,-0.028481,0.026598,0.018752,0.047468,-0.0070103,0.3219
-0.25236,0.18021,0.030043,-0.00041809,-0.029824,0.29493,0.038491,-0.33251
-0.23719,-0.18916,-0.075202,0.11394,0.014089,-0.035918,-0.10697,0.064912
0.21261,-0.045514,-0.029933,-0.051705,0.010347,0.046805,-0.028753,-0.053954
-0.015963,-0.068199,0.10479,-0.05185,0.0063956,-0.058983,0.14147,0.086306
0.39155,0.11109,-0.045202,-0.0038293,-0.012825,-0.20555,-0.008859,0.22151
0.49712,0.0018153,-0.0033608,0.17784,0.023459,0.28605,0.068722,0.329
-0.75663,0.098005,0.049756,-0.093445,-0.017273,0.16531,-0.069677,-0.54421
-0.35027,-0.098781,0.081277,0.0097505,0.021318,-0.3413,-0.063643,-0.26559
0.086921,-0.064226,-0.090556,-0.20064,-0.0093111,-0.18637,-0.029863,0.16435
0.42648,-0.032816,-0.0069028,0.11885,-0.0078624,0.0062194,0.070613,0.10443
0.22118,0.21299,0.23682,0.061993,-0.029389,0.34739,0.049548,0.093091
-0.51337,0.030353,-0.42273,-0.019329,0.035081,-0.083064,-0.047467,-0.018828
-0.21287,-0.021083,0.053681,-0.023028,-0.025769,0.028844,0.020077,0.0099711
0.19603,-0.13962,0.026628,-0.018827,0.02994,0.05129,-0.046527,0.0065643
0.38086,0.055048,-0.0019794,0.10318,0.014509,-0.038789,0.086958,-0.030137
-0.7258,0.0067769,0.18099,-0.078503,-0.025248,-0.14008,-0.010424,0.0083238
0.70562,-0.11259,0.030616,-0.0090424,0.020122,0.051288,0.012301,0.074557
0.010461,0.081268,-0.17835,-0.063518,-0.052292,-0.051838,-0.12587,-0.27666
-0.13422,-0.10417,-0.023611,0.085905,0.023445,-0.060378,0.013656,0.21325
-0.091977,0.10814,0.28338,0.10287,-0.025763,0.10986,-0.09082,-0.15746
0.59331,-0.0046927,-0.055473,0.0025269,0.026949,0.19143,0.19561,0.2302
-0.82478,-0.15845,-0.11207,-0.20769,0.0098952,-0.19239,-0.10162,-0.20786
-0.044171,0.10941,-0.13797,-0.028011,0.016859,0.24609,0.065908,0.0065004
0.30995,-0.029426,-0.048412,0.10405,0.0086546,-0.2126,-0.04327,0.1321
-0.32255,0.34489,0.13258,0.10275,0.024115,-0.15427,0.14097,0.10664
0.0004545,0.080456,0.04566,-0.078473,-0.054197,0.14881,-0.054283,-0.093908
0.55845,-0.26434,-0.011764,-0.032998,-0.038956,-0.14505,-0.03686,-0.095822
0.17818,-0.1308,0.04708,0.020765,0.030745,-0.0018875,0.11336,0.13044
-0.58762,-0.13078,-0.019064,0.059633,-0.032455,0.23741,-0.28482,-0.20599
0.1404,0.1024,0.0094097,-0.025628,0.045151,0.059766,0.033288,0.010431
-0.28387,0.031409,-0.062146,-0.063125,-0.0017305,-0.29086,0.051868,0.15343
0.50671,-0.051062,0.024481,0.017354,0.01469,0.13938,0.12298,0.034739
-0.5451,0.19575,-0.11344,-0.01097,0.016455,0.13914,-0.06489,-0.15841
0.60282,-0.19189,0.023842,1.4492e-05,-0.035506,-0.097644,0.075416,0.089827
-0.57169,-0.022397,0.084143,-0.0048017,-0.032017,-0.13556,-0.13468,0.037857
0.90821,-0.066897,0.019678,0.08348,0.026559,0.13239,0.09463,-0.00092386
-0.7384,0.42453,0.09499,0.1394,0.038191,-0.038312,-0.11145,-0.18171
0.25549,-0.050628,0.24656,-0.16548,0.018001,-0.15736,0.09823,0.18409
-0.020719,0.0031021,-0.54195,-0.089067,-0.0579,0.26619,0.074224,-0.06661
-0.61555,-0.10739,0.03402,-0.092099,-0.025775,-0.072906,-0.075529,-0.026847
0.48002,-0.23141,-0.032808,0.044652,0.020482,-0.026029,-0.071414,0.061557
-0.15994,0.2595,0.12587,0.14995,-0.0050155,-0.13152,0.092843,-0.082692
0.2045,-0.28532,0.21465,0.10723,0.054217,0.049191,-0.029215,0.079053
0.47814,0.11094,-0.14005,-0.083018,-0.020196,-0.021766,-0.047474,0.21018
-0.89532,-0.064678,0.0081558,-0.053332,-0.016863,0.13325,0.077406,-0.40098
0.77687,-0.026462,-0.051242,-0.045865,-0.0056145,0.20259,-0.020673,0.37779
-0.59529,0.19966,-0.12324,0.0095611,0.013996,-0.11003,-0.035223,-0.1803
-0.28322,0.087545,0.22082,-0.02011,-0.0045446,-0.19481,-0.1046,-0.34068
0.67437,-0.23383,0.010638,0.044511,0.0015005,-0.14508,0.12518,0.32691
