-0.065141,-0.0090357,-0.45294,-0.025494,-0.021418,-0.014539,-0.0062682,-0.12035
0.024961,0.094722,0.10668,0.055418,0.0017095,-0.024977,-0.04632,0.041078
0.40843,0.12646,0.36514,-0.018337,0.0098038,0.034966,0.084502,0.035905
-0.27037,0.23286,0.057703,-0.091099,0.00276,-0.0063636,-0.074523,-0.20556
0.2787,-0.31396,-0.16592,0.22688,0.042855,0.0074529,0.039421,0.27082
-0.41347,-0.52235,-0.038457,-0.11227,-0.010836,0.0062027,0.043896,0.099064
-0.15982,0.28782,-0.769,-0.28138,-0.088306,-0.025708,-0.060726,-0.2586
0.44684,0.25076,0.84742,0.42986,0.068018,0.036701,0.014936,0.07396
-0.30883,0.048308,0.1014,-0.13503,-0.010713,-0.040996,-0.049206,-0.18367
0.21254,0.21426,-0.013875,-0.11637,0.027138,0.0224,0.028192,0.17198
-0.19801,-0.33482,0.095652,0.24442,-0.021304,0.0081013,0.059586,0.046881
-0.066952,-0.39377,-0.70324,-0.47341,-0.03847,-0.037033,-0.025515,-0.091144
0.057609,0.23394,0.18222,0.082838,-0.03955,0.011991,0.014808,0.20953
0.018786,0.22028,0.3287,0.28904,0.077402,0.014527,-0.022861,-0.060757
0.010515,-0.029703,-0.20299,-0.10451,-0.0076957,-0.021674,-0.037199,-0.1304
0.31078,0.090931,0.24939,0.21425,0.048915,0.036073,0.049797,0.23354
-0.55507,0.1804,0.12163,0.18175,0.020441,0.015698,-0.01966,-0.41496
0.87302,-0.25712,-0.20484,-0.57846,-0.070102,-0.043992,-0.065723,0.033645
-0.44733,-0.037327,-0.22304,0.12758,-0.027907,0.020793,0.091532,0.15069
-0.17723,-0.20913,-0.22998,0.009998,-0.017518,-0.016762,-0.024229,0.078417
0.2093,0.18801,0.39985,0.084497,0.070097,-0.02403,-0.014441,0.092092
-0.23762,0.038245,0.0033785,0.094337,-0.0073924,0.030148,0.042732,-0.14258
-0.31789,-0.28845,-0.066641,-0.25539,-0.023348,0.03642,-0.056073,-0.11666
0.51431,0.17253,0.30035,0.030059,-0.016563,-0.067579,0.0012324,0.053068
0.15047,0.22962,0.042871,0.469,0.068057,0.054326,0.096955,0.15531
-0.74309,-0.075006,-0.29911,-0.67843,-0.081531,-0.02723,-0.05845,-0.092166
0.76635,0.034056,-0.28727,0.30018,0.0038467,0.00063615,0.011262,0.27025
-0.48228,-0.22388,0.071357,0.037921,0.082309,0.036775,0.040435,-0.17281
0.19303,0.32234,0.082083,-0.16164,-0.064764,-0.066847,-0.15811,-0.39104
0.23895,0.04612,0.16709,0.58969,0.054743,0.033864,0.025677,0.31845
0.054253,-0.23424,0.19332,-0.35212,-0.020367,-0.012424,0.05361,-0.020434
-0.29891,-0.18471,-0.051041,-0.15498,-0.079559,0.0052903,-0.01089,-0.18
0.053921,-0.15834,0.010643,0.1071,0.06419,0.016554,0.043838,0.2162
-0.051484,0.19547,-0.45157,-0.28759,-0.0036535,-0.002431,0.014997,-0.033612
0.12755,0.25892,0.20109,0.33094,0.083711,-0.0053509,0.003978,0.16527
-0.36095,0.17214,-0.095481,-0.32709,-0.080209,-0.00071553,-0.052395,-0.33535
-0.10932,-0.47947,0.087289,0.1215,-0.065773,0.010735,0.03232,0.30783
-0.12439,0.33461,0.10821,0.099703,0.0099843,0.0048981,0.014701,-0.062572
0.57023,0.13708,0.66264,0.66391,0.11614,0.012547,-0.01267,-0.033979
0.69141,-0.40858,-0.75661,-0.69942,-0.043728,-0.052443,-0.027223,-0.076738
-0.63943,0.0099739,-0.64832,-0.20657,-0.0629,-0.010236,-0.052794,-0.13757
0.29166,0.10405,0.83282,0.52812,0.043426,0.038091,0.051394,0.13402
-0.48122,-0.25831,-0.10052,-0.47651,0.0099254,-0.03171,-0.018688,-0.051629
-0.55586,0.29897,-0.16557,0.27511,-0.0070186,0.039081,0.058319,0.26621
0.39371,0.066003,0.1621,-0.49504,0.0081688,-0.0064302,-0.021041,-0.092003
0.24273,-0.17528,0.47654,0.83276,0.047463,0.035677,-0.036815,-0.1805
0.079695,0.16129,-0.56635,-0.89643,-0.13165,-0.076236,-0.011461,0.024888
0.12777,0.24743,-0.20168,0.84054,0.10327,0.040868,0.11031,0.32202
-0.58404,-0.2765,0.28854,-0.29431,-0.052841,-0.042828,-0.077614,-0.35819
0.47361,-0.14488,-0.0023329,-0.038972,0.02473,0.031576,-0.005216,-0.014341
0.28281,0.049133,0.26188,0.27382,0.038914,0.060211,0.06901,0.2378
-0.76911,-0.083781,-0.20688,-0.30613,-0.080667,-0.051581,-0.15272,-0.43643
0.54743,0.012938,-0.094523,0.099654,0.056687,0.046851,0.15675,0.4951
-0.30548,-0.096159,-0.71945,-0.21503,-0.033198,-0.074938,-0.034685,-0.14699
-0.33652,0.30154,0.5606,-0.24385,0.009371,0.012281,-0.016666,-0.066174
0.56851,0.04277,0.26993,0.20083,0.028549,-0.0040562,-0.02378,0.21316
0.21727,-0.044783,0.51751,0.2923,0.0013655,0.017019,-0.016776,-0.21663
-0.10739,0.037211,-0.2921,-0.0062442,-0.040438,-0.0019307,-0.010739,0.0023444
-0.052916,-0.11232,-0.28661,0.21398,0.05987,-0.020951,0.034156,0.12656
-0.52417,-0.0042605,0.10904,-0.13824,-0.041048,0.031191,0.040588,-0.11829
0.24719,-0.079016,-0.55322,-0.25586,-0.061658,-0.07131,-0.10016,-0.20905
0.26602,0.036229,-0.13468,-0.39459,0.013738,0.078227,0.073214,0.33116
-0.29613,-0.011184,0.41055,0.61149,0.0052389,0.034504,0.076288,0.026589
0.62551,0.091366,0.32453,-0.22836,0.068548,-0.015402,-0.083549,-0.15296
-0.95661,-0.029905,0.26388,0.16489,0.069989,-0.025389,-0.016397,-0.11267
0.34656,-0.099566,-0.15353,-0.1148,-0.046214,-0.012049,0.050316,0.18736
0.041925,-0.04499,-0.34088,0.041368,-0.015571,0.01583,0.014216,0.044393
0.30007,0.12816,0.03895,0.44458,-0.057809,-0.0050393,-0.070601,-0.13541
-0.18646,0.11673,-0.074986,-0.8445,-0.040735,-0.075124,-0.071567,0.069199
-0.14144,-0.04733,-0.64962,0.33611,0.0042535,0.071126,0.097385,0.15721
0.060186,0.0028817,0.68403,0.054686,0.038442,-0.042547,-0.071096,-0.44291
-0.27177,-0.15558,0.31016,0.16111,0.062586,0.061029,0.15024,0.3848
0.82643,0.061662,0.096536,-0.15044,-0.016049,0.031091,-0.034728,-0.11847
-0.003222,0.098238,-0.1681,0.017996,-0.0010527,-0.045566,-0.023705,0.21855
-0.58001,0.015257,-0.15667,-0.21613,-0.071095,-0.027511,-0.042676,-0.44803
-0.19108,-0.14121,-0.17517,0.4059,0.040257,-0.015658,-0.083459,0.0071043
0.23766,-0.011871,0.23621,-0.36453,0.052274,0.052911,0.15094,0.42836
-0.56879,-0.080433,-0.40745,0.036674,-0.058294,-0.040422,-0.066194,-0.24591
0.70309,0.076169,0.081487,0.056316,0.0053015,0.047923,0.038175,0.063275
0.49395,0.16249,0.44582,0.33614,0.016091,-0.049703,-0.020943,0.0050938
-0.73838,-0.01543,-0.50119,-0.38112,-0.034346,0.056638,0.029163,-0.044897
-0.17599,-0.097258,0.73316,0.091884,0.032962,-0.016678,0.015904,0.093395
0.54587,0.01902,-0.33552,0.051319,0.014163,-0.012642,-0.076907,-0.040638
-0.48992,0.059874,0.034293,-0.16802,-0.013253,0.0055892,0.039498,-0.071656
0.53274,-0.053365,-0.51798,0.56536,0.028381,0.022002,-0.033263,-0.038312
-0.1496,-0.063701,0.12326,-0.78882,-0.056463,-0.065015,0.017709,0.020804
-0.23156,0.074825,0.33906,0.3857,-0.048993,0.010469,-0.033466,-0.026661
0.18453,-0.068318,-0.19254,-0.39595,0.066693,-0.0087694,0.040609,0.17901
-0.059561,0.076514,0.51932,0.62402,0.0097916,0.034271,0.053269,0.044154
-0.59179,-0.14736,0.075572,-0.07742,0.0073833,-0.031532,-0.10418,-0.34549
0.84201,0.19736,-0.47656,0.13332,0.028715,0.075673,0.092096,0.38456
-0.27777,-0.0064747,-0.87773,-0.83649,-0.058629,-0.026591,-0.021882,-0.20397
0.47463,-0.055496,0.7341,0.38152,0.0034073,0.0054485,-0.0088869,0.028609
-0.31042,0.0038418,0.11231,0.27287,-0.027296,-0.031601,-0.049163,-0.15311
-0.21342,-0.070083,0.2995,-0.16155,0.060092,0.010225,0.044035,0.13267
-0.3994,-0.018815,-0.15453,0.070896,-0.023753,-0.0024475,-0.011385,-0.013461
0.42893,0.0020129,-0.17757,-0.06895,0.025486,-0.015464,0.041584,0.14199
-0.023656,0.10225,0.34808,0.26987,-0.0035516,0.017646,-0.0086527,-0.081368
-0.059524,0.016479,-0.54709,-0.38235,-0.00189,-0.004898,-0.029704,0.058239
0.12058,-0.052261,0.42408,0.24677,-0.040151,0.0028305,-0.02951,-0.19702
0.33891,0.083144,-0.53014,-0.28902,-0.032567,-0.0058762,0.023348,0.11426
-0.28616,-0.070063,0.35266,0.27526,0.044288,0.0083348,-0.003522,-0.069415
0.23019,-0.0046817,-0.18871,-0.33407,0.073363,-0.024512,0.015457,0.097134
-0.47147,-0.080603,0.40492,0.1877,-0.054473,0.0052645,-0.02847,-0.071903
-0.18827,0.0065382,-0.048998,0.13768,-0.057666,0.027559,0.029305,-0.012331
0.47018,0.014456,0.072555,0.078713,0.056296,-0.0044273,0.025115,0.074139
-0.035255,0.1073,-0.19978,-0.11386,-0.032594,0.042067,0.021667,-0.03035
-0.024953,0.043094,0.064801,0.099439,0.097799,-0.044033,-0.043502,0.002525
-0.16314,-0.12322,-0.36513,-0.2809,-0.075748,-0.0050679,-0.037649,-0.054345
-0.075303,0.02271,-0.29758,-0.24645,-0.0061982,-0.013014,0.031307,0.18846
0.14398,-0.018852,0.45246,0.3675,0.0018852,0.0024447,0.014854,-0.059774
0.42327,-0.021069,0.56983,0.22555,0.026708,-0.013264,-0.040139,-0.14461
-0.3401,0.078816,-0.71491,-0.33609,-0.056705,0.010365,0.007009,0.088573
0.36894,0.0075927,0.48311,0.40904,0.017201,0.026665,0.015757,-0.07234
-0.41012,-0.054885,-0.29729,-0.43797,0.013854,-0.018915,0.0017841,0.028382
-0.17539,-0.077298,0.31651,0.098708,-0.0046032,0.022064,0.027556,0.054999
-0.1267,0.065287,0.0081047,0.19016,0.055063,-0.030257,-0.016463,-0.061955
0.48245,0.067962,-0.38332,-0.21117,-0.003089,0.026913,-0.021195,0.10072
-0.82789,-0.022775,0.098828,0.16774,-0.023458,-0.0021819,-0.041736,-0.18199
0.67222,-0.027722,-0.25203,-0.37641,-0.037848,0.0069953,0.093327,0.15396
0.22625,0.036989,0.21036,0.19549,0.0080928,-0.024054,-0.014876,-0.06209
0.020115,0.022513,-0.17125,0.032005,-0.0028575,0.045114,0.016152,0.037816
-0.20067,-0.086973,0.44678,0.35194,0.0077308,-0.051044,-0.040254,-0.038343
0.40082,0.044553,-0.47431,-0.31348,0.0092192,-0.0074762,0.0035653,0.20901
-0.69112,-0.012225,0.76118,0.18407,0.010254,-0.018901,-0.070716,-0.26011
0.00033075,-0.11612,-0.47141,-0.4132,-0.035105,0.0091475,0.034401,-0.040693
0.56326,-0.0087124,0.20329,0.35594,0.038095,0.030476,0.00711,0.20966
-0.52844,0.13855,-0.20619,-0.10943,-0.019426,-0.0091149,-0.019178,-0.16659
0.17139,0.10703,-0.47193,-0.058318,0.011517,0.046797,0.11214,0.1108
-0.059456,-0.0019587,0.4238,-0.14583,-0.040871,-0.020737,-0.036405,-0.05255
-0.01073,-0.048378,-0.11777,0.027448,0.034062,0.0064977,0.011432,0.030702
0.013766,-0.09542,0.42205,0.29796,0.048195,-0.020696,-0.018332,0.079644
0.022853,-0.08117,-0.18041,0.056104,-0.022765,0.021862,-0.024765,-0.11585
-0.038518,0.064407,-0.32139,-0.08196,-0.015719,-0.046225,-0.063092,-0.12493
0.61575,0.036762,0.21117,-0.19602,-0.033144,0.016782,0.077317,0.17878
-0.62227,0.01611,-0.07509,0.14948,-0.01327,-0.031415,-0.05667,-0.094022
-0.41882,-0.028007,0.38089,0.10119,0.051279,0.012544,0.035228,0.057723
0.65043,0.030281,-0.35304,-0.29522,0.004153,0.01636,0.0097492,0.033022
0.31217,-0.027017,-0.061142,-0.0010423,-0.029415,0.0041486,0.008092,0.066224
-0.30155,0.050581,0.24581,0.0077559,-0.0098533,0.03912,0.0073453,-0.13235
0.32475,-0.080558,0.057752,0.2013,0.024464,-0.010916,-0.031183,0.053418
-0.64281,0.079292,0.20176,0.034586,0.0039825,-0.020507,0.017652,-0.026226
-0.42545,-0.0095351,-0.74359,-0.14663,-0.023715,-0.036291,-0.018131,-0.060066
0.35312,-0.0041055,0.082978,0.1282,0.012245,0.02768,0.017389,0.10715
0.58829,-0.0303,0.074852,0.032226,0.034077,-0.0084796,0.029967,0.13897
-0.32995,-0.042033,-0.21044,-0.4027,-0.028445,0.011107,-0.035651,-0.25357
-0.19816,0.046057,0.51808,0.19043,-0.011413,-0.0078094,-0.00032036,-0.038556
0.21767,0.06181,0.35439,0.38879,0.0066973,0.067025,0.0027254,0.082017
-0.37403,-0.11975,-0.18769,-0.59833,0.0097829,-0.038372,0.0044965,-0.031162
0.50544,0.064172,0.075734,0.47697,0.0051361,-0.043203,-0.018478,0.07621
0.050043,0.0046973,-0.28179,0.073373,8.7554e-05,-0.01808,-0.034799,-0.024825
0.31772,0.0071082,-0.81948,-0.1939,-0.021365,0.052506,0.033933,-0.0060717
-0.42483,-0.02175,0.76384,-0.32616,-0.012576,-0.026695,0.023974,0.11621
-0.1382,-0.01106,-0.025733,0.30902,0.018564,0.0023336,0.013742,0.036141
-0.36035,-0.015155,0.22617,-0.17048,-0.021632,0.022687,0.0034515,-0.08365
0.57591,0.059892,0.16244,0.1354,0.038864,0.0034266,0.024491,-0.010081
-0.53448,0.03441,-0.93966,0.1977,-0.0028712,0.015161,-0.08712,-0.18144
0.44215,-0.0057518,0.534,-0.35607,0.0018074,-0.027785,0.035878,0.050628
-0.24883,-0.068529,0.37741,0.25767,-0.0015936,-0.00017729,-0.059547,-0.039776
0.18626,-0.060257,-0.67069,-0.24841,-0.0050861,-0.011183,0.072032,0.20478
0.064972,-0.0043839,0.2209,0.10308,-0.016318,-0.013735,-0.0067694,-0.081504
0.024695,0.091333,0.16285,0.16351,0.011746,0.039203,-0.0068219,0.016656
-0.0014687,0.031665,0.037386,-0.0058137,-0.030116,-0.024129,-0.0062764,0.0078394
-0.13659,-0.0036451,0.060931,-0.30536,-0.0011447,-0.0083849,0.0025339,0.048462
0.080682,-0.014609,0.034755,0.3796,0.044062,0.016059,0.0037233,-0.010332
-0.2099,-0.048189,-0.1542,-0.10962,0.011787,0.033407,0.028207,-0.091253
0.28672,0.043895,-0.016808,-0.24373,0.011378,-0.011283,0.028772,0.085947
-0.3459,-0.090131,-0.070338,0.38246,-0.050981,-0.024561,-0.080773,-0.12807
0.25684,0.049466,-0.21314,-0.42636,-0.011298,0.0011079,0.0041702,0.10206
0.4128,0.040477,0.45497,0.2528,0.052264,0.0030172,0.018094,0.033963
-0.8879,-0.031574,-0.65698,-0.093717,-0.0087205,0.0045144,-0.046491,-0.28524
0.43129,0.0046916,0.24298,-0.1432,-0.084814,-0.04124,0.045264,0.24651
-0.0055614,0.031547,0.42249,0.23946,0.058436,0.045582,0.043882,0.075109
-0.0816,-0.037451,-0.040006,0.032532,-0.00080362,-0.023886,-0.050173,-0.13495
0.18782,0.062958,-0.013432,-0.15388,0.0030473,0.023989,0.029021,0.077441
0.061355,0.0358,0.31892,0.22673,0.069819,0.009653,-0.046602,-0.022293
-0.0064822,-0.1421,-0.92266,0.15744,-0.050782,-0.019979,-0.011628,-0.020572
-0.24811,-0.0091276,0.45238,-0.6215,-0.046634,0.0053343,0.070981,0.050704
0.11234,0.045088,0.2295,0.43474,0.042802,-0.0083196,-0.018176,-0.090346
0.015069,-0.048558,-0.045914,-0.050561,-0.0015618,-0.0064746,0.0014217,0.063675
-0.5373,0.086105,-0.099286,-0.2972,-0.00025225,0.041887,0.082227,0.12989
0.42599,-0.034398,-0.32528,0.28051,-0.023635,-0.019681,-0.13561,-0.25853
0.12459,0.035674,-0.35879,-0.24666,-0.024724,-0.042863,-0.035089,-0.030542
0.1673,0.077429,0.22082,0.17692,0.020162,0.027003,0.055837,0.10384
0.044279,-0.097324,0.61474,0.099217,0.056656,0.0024863,-0.0030011,0.0049296
-0.13046,-0.0053089,0.045656,0.044658,-0.024276,-0.014706,-0.0078197,0.040567
-0.032369,-0.038438,0.077082,0.0452,-0.0035721,0.0303,0.073341,0.12506
-0.023988,0.028632,-0.011768,-0.2503,0.025271,0.012694,-0.0010798,0.016008
-0.30268,0.054355,-0.36608,0.02554,-0.054745,-0.043917,-0.058757,-0.22468
-0.048683,-0.00078118,-0.40591,-0.04905,-0.009127,0.016851,0.017728,0.050698
0.16853,-0.027287,0.41727,0.14317,-0.0018871,0.015403,-0.0059756,-0.010083
-0.14929,-0.063568,0.15299,-0.22589,0.076319,-0.016949,0.034063,0.030076
0.51545,0.024274,-0.28797,0.18742,-0.063691,-0.0020422,-0.049882,-0.02419
-0.038922,0.0031481,0.29652,0.17198,0.0075534,0.0054545,-0.00026441,-0.0085607
-0.14781,-0.024173,-0.10007,-0.061652,0.024134,-0.017894,0.0029642,0.061792
0.00082685,0.013462,-0.23237,-0.037327,0.040402,0.037264,0.01424,-0.09391
-0.062893,0.085044,0.14621,-0.28667,-0.068964,-0.03225,0.0020718,0.06373
-0.082431,-0.044266,-0.35014,0.22135,0.00048118,2.8408e-05,0.0052825,0.06604
0.42579,0.046295,0.39229,-0.036649,0.014259,0.0089576,-0.015433,-0.0090501
-0.7959,0.034883,0.42358,-0.10731,-0.019753,0.025611,0.064696,0.088062
0.58196,-0.072293,-0.12177,0.28316,0.023687,-0.028328,-0.06702,-0.26028
-0.34448,0.012554,-0.26696,-0.13831,0.012153,0.02666,-0.0044384,0.086172
0.13103,-0.02367,-0.15354,-0.01993,0.016435,0.002967,0.041511,0.056915
0.19139,-0.086929,-0.1034,-0.11163,-0.080152,-0.060359,-0.061846,-0.11363
0.050233,0.034887,0.15514,0.38337,0.050962,0.024277,0.029503,0.074747
-0.16584,-0.086071,0.12039,-0.31642,-0.01959,0.01488,0.034648,0.059813
-0.12858,0.13045,-0.2326,-0.00036113,0.052071,-0.010173,-0.061676,-0.095747
0.090281,0.09263,0.024455,-0.051613,-0.038836,0.0040578,0.029905,0.10807
0.01125,-0.07318,0.32765,-0.10333,-0.019197,-0.012545,0.01272,-0.00082803
0.20062,0.0084634,0.089683,0.36755,0.0089137,0.026048,-0.0037959,-0.079068
-0.018068,-0.022346,-0.018827,-0.10809,0.044872,0.018241,0.034958,0.099472
-0.18836,0.012686,-0.23314,0.2585,0.0021111,-0.028292,-0.05872,-0.09838
0.029816,0.025664,-0.2723,-0.33748,0.012928,0.01125,0.0039742,-0.10246
-0.13145,0.084777,-0.11251,-0.16149,-0.040154,0.0038573,0.050923,0.17329
0.16323,-0.20247,0.26282,0.083902,-0.047751,-0.027162,-0.027409,-0.059765
0.18856,0.0063997,0.19862,0.040182,-0.0095597,-0.0037041,-0.059176,-0.035364
-0.43543,-0.0077879,0.086594,0.013011,0.012449,0.0040172,0.0573,0.083215
0.099777,0.15384,0.18523,0.14383,0.050129,-0.011626,0.017568,0.093651
0.071755,-0.10129,-0.50531,-0.14506,-0.028815,0.035517,-0.021813,-0.15177
-0.054899,0.0097541,-0.032116,0.16968,0.033702,-0.010638,-0.021476,-0.043132
0.19107,0.06692,0.33879,-0.037523,0.034505,-0.0094081,-0.035894,-0.056722
0.068391,-0.084402,-0.40071,0.021514,0.012294,0.031303,0.067803,0.10425
-0.0095707,0.033494,0.45244,0.14279,-0.088194,-0.029363,0.00040652,0.064313
-0.18546,-0.055532,-0.43748,-0.72124,0.02929,0.027003,0.03501,-0.0055462
0.061445,0.030931,0.26593,0.24168,-0.018568,-0.01091,-0.0085652,0.081005
0.17383,0.057314,0.24292,0.39096,0.033629,-0.010618,-0.044916,-0.107
-0.34235,0.045258,-0.61538,-0.17154,-0.040568,-0.02701,-0.027635,-0.062868
0.074876,0.031745,0.097575,0.054436,-0.021958,0.025821,0.02736,-0.013918
0.11392,-0.032056,0.63955,0.27218,0.035469,0.023036,-0.01281,0.10215
-0.22302,-0.19445,-0.77887,-0.4167,0.0075021,-0.035042,0.023902,-0.042381
-0.12054,0.098676,0.96676,0.15193,-0.0035739,-0.0073611,-0.041838,-0.095063
0.49462,-0.019486,-0.61628,-0.052975,0.0027425,0.0049736,0.056051,0.093746
0.0075266,-0.032028,-0.36413,-0.11692,0.042267,0.0258,-0.010089,0.0018468
-0.16677,0.031677,0.42668,-0.023653,-0.010139,0.00071077,-0.013299,-0.057245
-0.075609,-0.013801,0.17897,0.11812,-0.00645,0.00013436,0.015455,0.096746
-0.056809,0.067733,-0.12922,0.082272,-0.0097477,0.024026,0.037268,0.13577
0.08992,0.097816,-0.20723,-0.029653,-0.090965,-0.044974,-0.064999,-0.22182
0.095761,-0.024678,-0.32728,0.031762,0.061849,-0.0039897,-0.00231,0.085772
0.35633,-0.12821,0.018709,0.11697,0.018605,-0.001716,-0.001295,-0.082907
-0.49735,0.075369,0.5952,-0.13483,0.036889,0.031937,0.016075,-0.0020039
0.096941,-0.040137,0.12599,-0.10789,-0.047417,-0.020377,-0.012821,0.038953
-0.49227,-0.069617,0.19301,0.0013579,-0.031106,-0.010311,0.013415,-0.038321
0.17513,0.13456,-0.051915,-0.10457,0.078195,0.030851,0.055512,0.094416
0.00077656,-0.0060196,-0.31553,0.19937,-0.039584,-0.037522,-0.058664,-0.070347
0.44844,-0.12394,-0.73228,0.01537,-0.024804,0.018943,-0.0012647,0.014639
0.23069,0.015858,0.34742,-0.014837,0.029042,0.020539,0.024319,0.052845
-0.1525,-0.046686,0.14632,0.1024,0.012801,-0.0093392,-0.044621,-0.072673
-0.023208,0.032995,-0.20442,-0.053138,-0.010857,-0.008252,0.018354,0.044452
-0.68912,0.16163,0.34906,-0.21407,-0.010573,0.0081204,0.033543,0.021408
0.5415,0.042312,0.30531,0.38689,-0.0097428,-0.014936,-0.053649,-0.07157
-0.17849,-0.052083,-0.29226,-0.61607,0.022849,0.00072409,0.04603,-0.00021749
0.11704,-0.13033,0.065628,0.16066,-0.037911,0.0004897,-0.0030935,0.024426
-0.19059,0.03299,-0.067998,0.25611,0.034347,0.00010477,0.02585,0.11948
0.37492,-0.055313,-0.28346,-0.041792,-0.010637,-0.00029326,-0.069949,-0.13698
0.017594,0.09626,0.3661,0.22573,0.01433,0.015043,-0.0089589,-0.034043
-0.50296,-0.035956,0.27998,0.05572,0.03863,-0.024126,-0.0097354,-0.12647
0.20627,-0.076722,-0.66544,-0.35188,-0.023919,0.02283,0.084036,0.26529
-0.055293,0.099571,0.61103,0.047104,-0.064069,-0.00041162,-0.0089889,0.070689
0.17567,0.040621,-0.9164,-0.15516,0.027591,0.015389,0.031254,-0.03868
0.15105,-0.065209,0.56514,0.31478,-0.022174,-0.047122,-0.076837,-0.15683
0.028318,0.064071,0.34752,-0.26797,0.044792,0.022827,0.0022981,-0.041705
-0.30125,-0.047602,-0.84591,0.091825,0.0414,0.014183,0.02616,0.017735
-0.24374,-0.11098,0.43547,-0.27395,-0.11008,-0.034038,-0.0054184,0.053086
0.40395,0.092538,0.056011,0.21651,0.028175,0.034462,-0.022111,0.072707
0.079237,-0.039069,0.12098,0.41753,0.073504,-0.014553,0.0075295,-0.024321
0.024349,0.15758,0.11659,-0.27903,-0.013154,-0.0089906,-0.0099141,-0.081134
-0.33089,-0.013605,-0.035348,-0.02218,0.0024312,0.035789,0.058769,0.13711
-0.056661,-0.076734,-0.0083797,-0.048551,-0.051855,-0.044,-0.043857,-0.16621
-0.0045964,0.022494,-0.20354,0.099363,-0.0043976,0.0018827,-0.012824,0.032311
0.15286,-0.090873,-0.40486,-0.019831,0.019584,0.0095342,0.01918,0.083943
0.32066,-0.072568,0.40083,0.23874,0.012141,0.0024338,0.036472,0.081898
-0.23765,0.031426,0.0086614,-0.61969,-0.034584,0.035172,-0.039303,-0.23234
0.32675,0.10497,0.0034306,0.075638,0.0435,-0.017485,0.010236,0.15606
-0.66877,0.016175,-0.31868,0.18446,-0.042606,-0.030873,-0.026295,-0.019278
0.2966,0.031241,0.61995,0.11472,0.027477,0.0024305,-0.024358,-0.14959
0.080529,0.017424,-0.032738,-0.037315,0.042852,0.027366,0.093764,0.21782
-0.012624,-0.11163,-0.31621,0.28592,-0.02772,0.012391,-0.04722,-0.0969
-0.028502,0.080811,0.3241,-0.50658,-0.05143,-0.034832,0.0056847,-0.023318
-0.19092,0.062611,-0.2519,0.5406,0.065473,0.010718,-0.013082,0.071759
0.22279,-0.20607,-0.44908,-0.70371,-0.075414,-0.0070056,0.02175,0.024892
-0.30636,-0.014775,0.34426,0.27701,0.041607,-0.001708,-0.053433,-0.15529
0.38219,0.11293,0.27175,0.35785,0.041645,0.011436,0.03538,0.10242
-0.30976,-0.041499,-0.28834,-0.47747,-0.051744,-0.029612,-0.031511,-0.15424
0.40871,0.037941,-0.0049863,0.30095,-0.0040862,0.00052767,0.019877,0.16136
-0.14212,0.10167,0.27226,0.058458,0.012792,0.047386,0.057123,0.088648
-0.26879,-0.084366,-0.20587,-0.21486,-0.024574,-0.0062148,-0.052418,-0.17705
0.33,0.065911,0.044299,-0.091378,0.063389,0.019215,0.02712,0.14516
-0.14691,-0.11161,0.20051,0.45844,0.0030571,-0.032937,-0.024855,-0.10161
0.20229,-0.070258,-0.052548,-0.39467,-0.03392,0.00095291,0.033427,0.081937
-0.27462,0.0021292,-0.053962,0.020778,-0.0008825,0.0032765,0.0061923,-0.00014748
0.0057243,0.1442,-0.22075,0.095786,-0.0073637,-0.034092,-0.099169,-0.1842
0.042403,0.058647,-0.36778,-0.13739,-0.053434,0.013692,0.029524,0.10002
-0.28888,-0.067455,0.44081,0.088286,0.048425,0.013827,0.040513,-0.022281
0.3655,-0.0078134,0.055656,0.063413,0.032672,-0.025728,-0.0037823,0.035206
0.094341,-0.059335,0.16391,-0.11689,-0.038084,0.035879,0.021638,0.030692
-0.32588,0.043905,0.4141,0.30623,0.062821,0.011393,0.0074431,0.034741
0.43561,-0.049006,-0.49793,-0.15883,-0.039537,-0.013036,-0.030677,0.00047779
-0.50218,-0.032459,-0.20396,0.019423,0.0064633,0.017443,-0.030152,-0.15049
0.45532,-0.022602,-0.3509,-0.22156,-0.049124,-0.022063,0.024719,0.15165
-0.16077,0.098697,0.44595,0.086769,0.051577,-0.014303,-0.014426,-0.070249
