0.0040115,0.018697,0.0040391,0.013489,0.0083652,-0.01057,0.010304,0.0099524
0.0059751,0.0027424,-0.011355,-0.010285,-0.0064032,0.011757,-0.0061406,0.0092006
0.007952,0.0026488,-0.0029524,0.012928,-0.0053488,-0.012995,-0.0078335,-0.007435
-0.013797,0.010583,0.005723,0.012875,0.003621,-0.0065422,-0.0022648,-0.0085762
-0.0048672,-0.012583,0.006698,-0.010452,-0.003042,0.0078775,0.010965,0.013714
-0.0045197,-0.012246,0.0075857,0.0053811,0.0057963,-0.00078068,0.001007,-0.018583
-0.0050132,0.019333,-0.015248,-0.017849,-0.0090369,-0.0010993,0.0072554,0.0039759
0.0015412,-0.011629,-0.0072666,-0.0021172,0.0070505,0.0070116,-0.0013315,0.0032934
0.007542,-0.011368,0.00020541,0.0056247,-0.00070009,0.0079131,-0.0012572,0.0027842
-0.0023322,0.0045452,0.0071876,-0.0024675,0.006737,-0.00633,-0.00042113,0.010195
0.0035056,-0.0028845,-0.0018358,0.0048723,-0.0018809,0.0031319,-0.006839,-0.0058186
0.0019242,0.013266,0.0045634,0.012077,-0.0030572,-0.0030279,0.0026542,0.001523
-0.014669,-0.0095057,-0.012464,-0.012015,-0.0044908,-0.0016367,0.0043325,0.00090094
0.016324,0.014666,0.0097949,0.0030102,-0.0060196,-0.0007227,-0.0020578,-0.0076988
0.0089316,0.015338,0.016829,-0.0052486,0.0081756,-0.00041294,-0.0088853,-0.0085968
0.0020661,0.00016236,-0.014684,-0.0054584,-0.0085802,-0.016353,0.0072001,-0.0016736
-0.0044966,-0.023191,0.0012366,0.010246,0.014199,-0.0015852,-0.0084812,-0.0023938
-0.018816,-0.0079177,-0.013568,0.0028164,-0.0014947,0.020611,-0.0011548,0.012843
-0.0020493,-0.016489,0.003298,-0.0043417,-0.00093827,0.0035567,0.013693,0.012912
-0.0012248,0.013732,0.0048006,0.004323,-0.0076237,0.0021377,-0.0028424,-0.0021365
-0.00079205,0.0048357,0.0063656,-0.01036,0.001746,0.0008953,0.0040763,-0.0089027
0.014873,0.0039327,0.0077774,-0.001643,0.011339,-0.015675,0.0033215,0.0003046
0.0067611,0.011219,-0.0067935,0.014722,0.0052904,0.0071845,-0.0050185,-0.0059441
-0.0016105,-0.012266,-0.0062612,-0.00043177,-0.01664,-0.00080987,-0.0052635,0.011212
-0.0023397,0.011583,0.0014655,-0.00029401,-0.0077746,-0.0084145,-0.0051992,-0.0030985
-0.0031517,-0.0033069,-0.0070607,-0.00049646,0.0083208,0.0077748,-0.0048236,-0.0099474
-0.0039651,0.013161,-0.00050908,-0.016609,0.00035669,-0.0069857,0.0036518,0.0062274
-0.0047049,-0.001749,0.0056555,-0.0016463,0.0074475,0.009726,0.01236,-0.0014366
0.0025083,-0.024795,0.011648,0.0054708,-0.0015246,0.0031244,-0.0022243,-0.0094258
-0.0057107,-0.0092046,-0.013546,-0.0029279,-0.0029304,-0.003466,0.0066576,0.0058122
0.017542,-0.0018442,0.00060683,0.012327,-0.0043608,-0.0023509,-0.00018771,0.013151
-0.0058612,-0.0026017,0.0074074,0.012221,-0.0055971,-0.0014519,-0.0072581,-0.010744
0.0021664,0.02776,-0.0086648,-0.0032679,0.0091687,-0.0008538,-0.0068294,0.012316
-0.0053192,0.0034872,-0.00071222,-0.0029664,0.00099176,0.0072099,0.0010653,-0.0035869
0.0028445,0.010666,0.01558,-0.0026012,0.0011551,-0.00069642,-0.0069791,-0.0037838
0.0031313,-0.0053067,-0.0067948,-0.010078,0.0017892,-0.0088959,0.016004,-0.0039358
-0.0045294,-0.013165,-0.0055118,-0.017638,-0.0050553,-0.0016686,-0.00016523,-0.0040781
-0.0045503,-0.0051297,0.0036112,0.013776,0.0038691,0.0054832,-0.008471,0.0035853
-0.0047406,-0.01251,-0.0030392,-0.0017404,0.004918,0.0048754,-0.00098103,0.003439
0.010568,0.0036935,0.0056548,0.013992,-0.0020917,-0.011195,-0.0010652,-0.0044827
0.0023854,0.012171,-0.0094399,0.014142,-0.0016578,0.004217,0.0068983,0.0033065
0.0020512,0.0050552,-0.0014522,-0.0090935,-0.017258,0.0042489,-0.00060689,0.0034174
-0.013786,-0.0020834,0.0062357,-0.01668,-0.0019683,0.0044823,0.0075274,-0.0041184
0.0018172,0.0063191,-0.0019043,0.0069464,0.013079,0.0048259,-0.00012363,-0.0036739
0.0098364,-0.008863,-0.0023204,-0.0086082,0.0046065,-0.0026483,0.0075247,0.0047153
0.0024605,0.0070003,0.012909,0.014703,0.0040228,-0.018051,-0.016514,0.0053505
-0.0047206,-0.016442,-0.0030059,-0.0013013,-0.0041724,0.0054135,-0.0097615,-0.0096843
-0.0039596,-0.0010736,-0.003138,-0.0097704,0.0035241,-0.0025918,-0.0033836,0.0063667
0.0046603,0.01407,-0.0030949,0.0049415,-0.0041385,0.012655,0.0027978,0.0065141
-0.0023867,-0.0021986,-0.002889,0.0038365,-0.0037828,-0.0034469,0.0090201,-0.0093304
-0.0017436,0.0048959,-0.0025548,-0.0051695,-0.0033221,-0.0038991,0.0077157,-0.0021472
-0.0012873,-0.0036055,0.005671,0.0014911,0.0049387,0.0036183,-0.00091567,-0.0031728
-0.001062,-0.0041616,0.0061055,0.00051979,0.005266,-0.0042167,-0.0011353,0.0032892
0.0067214,-0.012309,-0.0013127,-0.0079559,0.0053941,-0.0038941,-0.00074827,0.0017342
-0.0013804,0.0032598,-0.0088302,0.0074093,-0.010335,0.0045964,0.0079634,-0.007686
0.0058927,0.01131,-0.00087377,-0.00021452,-0.01065,0.0055685,-0.014235,0.014253
-0.010498,0.011808,0.006894,0.0082203,0.0045131,-0.001108,0.0027572,0.0052031
0.004173,0.0046789,0.0066425,-0.0064249,0.0040041,0.0078236,0.0040408,-0.0034576
-0.0047307,-0.0023658,-0.0016224,0.0025976,0.0035539,-0.0069013,-0.010559,-0.011636
0.0019173,-0.025056,-0.010057,-0.0039358,0.0032518,-0.0064072,0.0057154,-0.0036511
0.0085657,-0.0087931,-0.0029805,-0.010571,-0.0046618,-0.0064544,-0.0018713,0.004882
-0.0081443,-0.00051414,0.0040522,0.0059705,0.0032562,0.0085259,-0.0020557,-0.0016981
-0.001259,0.015365,-0.012322,0.014315,-0.0042829,0.0073208,0.013036,-4.3981e-05
-0.0019559,0.0075609,0.018271,-0.0012356,0.011712,-0.0021292,-0.0033815,0.0097003
0.013264,0.0072865,0.0021208,-0.0094459,-0.01134,-0.011811,-0.012144,-0.011718
-0.0024303,0.0066848,0.0095527,-0.0024529,-0.0032024,0.0019557,0.010285,0.02142
-0.0099496,-0.0099064,0.0014965,-0.0035861,0.0048296,0.00035297,0.0014965,-0.00047482
-0.0014786,-0.0034282,-0.022061,0.0029305,-0.010693,-0.00078811,0.00063695,-0.007263
-0.0004769,-0.012884,-0.0064382,0.0016424,0.0049394,0.0064767,0.0077831,-0.014667
0.0086308,0.00092829,0.0015006,0.0083377,0.012713,0.014371,-0.016053,-0.0070602
0.0023287,-0.00083729,-0.0060383,-0.008103,-0.0029408,-0.0084199,-0.0083016,0.007847
-0.0038629,0.0055219,0.017832,0.0070875,-0.0029061,0.0004605,-0.00015617,0.0067966
-0.0022552,-0.0031677,0.010593,-0.00075701,-0.0027725,-0.01387,0.00059881,-0.0099959
-0.00079154,0.0045477,-0.0043744,-0.0082327,-0.0025301,0.0030706,0.017383,0.0045459
0.0082176,-0.0024925,-0.0037336,0.0080216,-0.0021976,-0.0035828,0.01887,0.011503
-0.0065777,0.0069021,-0.0032319,-0.0067834,0.0059902,0.012918,-0.010697,0.010934
0.001634,0.0012685,0.0048293,0.0019321,-0.0014752,-0.0099868,-0.016802,-0.0050006
-0.0062305,0.011521,-0.0030578,0.0028206,0.0065729,0.0058317,-0.015258,-0.012953
0.001102,-0.0018004,-0.0034535,-0.0041927,0.0066166,-0.0020668,0.017202,0.0025907
0.00025441,-0.0078222,-0.011895,-0.0035278,-0.017026,0.0054778,-0.0054942,-0.0053384
-0.00087472,0.0009935,0.018657,0.012613,0.005942,-0.0026696,0.010324,0.0022837
0.013438,-0.014525,-0.013146,-0.002632,0.0052494,-0.010772,0.002132,-0.0057655
-0.003583,-0.015233,-0.005526,-0.0023555,-0.011195,0.0046966,-0.0065968,-0.0059644
0.0028441,-0.00087616,0.010433,-0.0099526,-0.012,0.004727,0.0076623,0.001798
-0.01407,0.013281,0.0035547,0.0058664,0.010803,0.0049512,-0.0096427,0.01762
-0.007372,0.011997,0.0050403,-0.0017499,0.010476,-0.0024806,0.0041616,0.0024886
0.015193,0.011208,0.014721,0.0062577,-0.0050829,-0.002016,-0.0054153,0.0032545
-0.0010079,0.0032739,-0.014539,-0.0092093,0.011009,-0.001558,0.00088982,-0.0036168
-0.0012515,-0.0039878,-0.0049172,0.014284,-0.0038212,-0.0011935,-0.00018207,-0.010464
0.0066616,-0.0029134,-0.0035688,0.0063446,-0.0028424,0.0068262,-0.00068899,-0.0018337
-0.0085322,-0.0093802,-0.0028861,-0.0096617,-0.0018594,-0.0087743,0.0072383,-0.0013169
4.7329e-06,-0.0080514,-0.00296,-0.0025211,-0.0088636,0.0067107,-0.0076809,-0.0012056
0.0087786,0.0086281,-0.0037588,-0.0034609,0.0072551,-0.0091624,0.0091229,0.014089
-0.005717,-0.014208,0.0026684,-0.0045769,-0.00045062,-0.001627,0.002772,-0.010082
-0.0044956,0.0093014,0.01653,-0.0057175,-0.00072241,0.0059589,-0.0035265,0.0045069
-0.011074,-0.0067631,-0.0010006,0.0089268,0.0065253,-0.0019741,0.0056222,-0.0044963
0.013531,0.008003,0.0049874,0.00046847,-0.0098136,0.0058374,-0.009032,-0.0056732
0.0067377,0.01467,-0.012196,0.00027955,-0.010505,0.0059192,-0.0085381,0.008952
0.0075356,0.0055717,0.002268,0.00058138,0.012425,-0.0018071,-0.0085397,0.0004511
-0.0075744,-0.0035257,0.0015862,0.016931,0.0044101,-0.0018146,0.01447,0.00016358
-0.007378,-0.01249,-0.0063964,-0.0055193,0.012375,0.0058093,0.0059365,0.0081276
-0.0074988,-0.0212,-0.0060636,0.0033311,-0.010582,-0.018044,-0.010543,0.00089616
0.0077318,0.0095186,0.0025359,-0.01142,-0.0020578,-0.0030473,0.012057,-0.013765
-0.00066601,0.0094422,0.011501,-0.0030609,-0.001255,0.0040033,-0.0042827,-0.0046782
-0.0013342,0.002059,-0.010548,-0.010722,-0.00051529,0.0032333,0.010804,-0.0031814
-0.0019718,0.002985,0.01435,-0.0031146,-0.0077856,0.0025955,-0.0051862,0.0062477
0.0053313,-0.0034874,7.3069e-05,0.012083,0.0080943,0.0022064,-0.005421,5.1786e-05
0.012829,0.005921,-0.0066862,-0.0040006,0.0002173,-0.0056874,-0.013399,0.0093422
-0.0028886,-0.0080718,0.0017341,0.01914,-0.00013973,0.010147,0.0020711,0.0027163
-0.010579,0.008971,0.001807,-0.0042856,-0.00071395,0.002741,0.0096981,0.011275
-0.0024633,-0.013505,-0.022101,-0.0038972,-0.001399,-0.0046128,0.0094642,-0.011977
-0.0020266,0.010247,0.016027,-0.0031608,-0.0020791,0.0035495,-0.014249,-0.0045951
-0.0093221,0.0020044,-0.00084344,-0.010001,0.0051625,0.0036595,0.0088975,-0.013423
0.014657,0.00084672,-0.0022003,0.014475,0.0047763,-0.019971,0.000826,-0.0070842
0.0073503,-0.016521,0.0043527,0.0075851,-0.011015,-0.0048128,-0.0071513,0.014629
-5.4181e-05,0.0048418,0.0033686,0.0004218,0.012472,0.0023726,0.0084794,0.0050901
0.00019212,-0.0050535,-0.0050375,-0.022731,-0.010744,0.0017595,-0.0068855,-0.0042068
-0.015403,0.0010116,0.0026041,0.00062398,0.0052082,0.0091608,0.0015225,0.0025499
0.0078113,0.0077119,0.0028019,0.00025783,-0.0022482,0.0091038,-0.013111,0.0098309
-0.00048079,0.0074351,-0.012384,0.0075723,-0.0019361,0.0016663,0.003923,0.0020033
-0.0011859,0.008057,0.011559,-0.00069207,-0.0017242,-0.0053542,0.0057064,-0.0054082
0.0057619,-0.0061322,0.0041345,-0.00094111,0.0061676,-0.0042457,0.0077467,-0.0047514
-0.010796,-0.0040982,0.0042487,-0.00089593,0.0061096,0.0048332,0.0020382,-0.004018
-0.0038829,-0.017397,-0.011628,0.015067,-0.0096892,-0.009544,0.0039571,-0.0033645
0.018787,0.0083152,-0.0044383,-2.7313e-05,-0.0099364,0.0071556,-0.0023876,-0.0028964
-0.005208,0.010214,-0.01316,-0.0072916,0.013235,-0.0076702,-0.0094157,0.0051578
0.0023061,0.0036656,0.0092418,0.00087479,-0.0026191,0.0006295,-0.0016496,0.0051922
0.0022859,-0.003675,0.0004631,-0.006974,0.0050478,-0.0069835,0.0052613,0.0050834
-0.013089,-0.011847,0.0075686,0.00028096,-0.0027987,0.00080445,-0.0041952,-0.0028934
0.0030257,-0.0051462,0.022887,-0.00083005,-0.0027155,0.016255,-0.014159,-0.0030215
-0.011913,0.00097588,-0.02383,-0.010228,-0.002531,0.00036054,-0.00087938,-0.0030349
0.020162,0.014568,0.015839,0.01133,0.0055345,1.6927e-05,0.012537,0.0049334
-0.0023801,0.012444,-0.014439,0.0094024,0.0058149,-0.00041894,0.0029335,-0.0025309
-0.0014964,-0.02079,-0.013229,-0.01574,-0.0095428,-0.00098913,0.01736,-0.0020024
-0.00071324,0.00097411,0.0037036,0.014277,0.0063037,-0.0095489,0.0011745,-0.0013417
-0.00011977,0.0075229,0.01279,-0.0019269,-0.016978,-0.0026792,-0.0066434,-0.00063045
0.00020594,-0.008936,-0.0017068,-0.0017569,0.0065416,0.0040195,-0.014079,0.0078358
0.00020954,0.006239,-0.0086231,-0.0086604,0.0065508,0.002808,0.0020948,0.00049686
-0.0079416,0.0060829,0.0076017,0.0085031,0.0064898,0.0016137,-0.005193,0.00067138
0.0070226,-0.0016969,4.8869e-05,-0.0051454,-0.0014534,0.00057435,-0.0048316,0.00045336
-0.0017125,-0.0015647,0.0077576,0.0048358,-0.0016557,-0.0079875,0.0031147,-0.0080157
0.0050104,-0.0013818,-0.00052037,0.006931,-0.0019301,0.0072835,0.0030282,-0.0012804
-0.0039405,-0.0089552,-0.016939,-0.0069205,-0.010083,-0.008248,0.010593,0.0051227
0.0028125,-0.0086049,0.0054485,-0.0056649,0.0051512,0.007902,0.002458,-0.0042805
-0.00586,0.0075651,0.0042538,0.0027675,-0.0030771,0.00095957,0.0021492,0.0019523
-0.0064233,0.00057056,0.0030599,-0.0050868,0.0043237,0.0098416,-0.0058803,-0.0072272
0.008994,0.017322,-0.005781,0.0098983,0.0039426,-0.0046939,-0.0059455,0.0074188
0.0091517,-0.0047134,0.0013303,-0.0068274,0.0036112,-0.0037645,-0.005818,-0.00086935
-0.0059934,0.0046637,-0.0067245,-0.00039398,0.011154,-0.010953,-0.0054784,0.0070047
-0.0052817,-0.0094102,-0.0064321,-0.001857,-0.020296,-0.0029068,0.010693,0.0075499
0.0033509,-0.0002673,0.017832,0.0045824,-0.0047878,0.004741,0.011409,-0.007174
-0.0036685,-0.007162,0.0034803,0.0034271,-0.0048035,0.0042401,-0.011214,-0.013903
0.0047876,0.0088366,0.0050382,0.010371,0.01093,0.011334,0.0052228,0.010617
0.013007,0.016443,-0.001147,-0.013635,0.0033706,-0.0050795,0.0059116,0.0037326
-0.010293,-0.02333,-0.0074902,0.00169,0.0037716,-0.0057832,-0.0092646,-0.011216
-0.018213,-0.016552,-0.022002,0.0016074,0.0043032,-0.0062676,0.0064797,-0.0030065
0.0049517,0.013591,0.0098725,-0.006121,-0.010701,0.0091903,-0.0015841,0.0049645
-0.0031877,-0.0029437,0.002145,0.0019078,-0.0022377,-0.0062366,-0.025625,0.0049753
0.012168,0.012196,0.0095372,-0.0055699,0.00619,0.0099441,0.0047464,0.0049523
0.0042247,0.0044527,0.00090108,-0.0051165,-0.0089164,-0.0048287,0.019335,-0.010623
0.0042548,-0.0027369,-0.00017999,0.01108,0.0070847,0.0040265,0.010464,-0.0026181
-0.0034071,0.013929,-0.0091677,0.011752,-0.00052004,-0.010499,-0.0061125,0.0055496
-0.0032292,-0.0161,0.0053447,-0.0031441,-0.00048534,0.0061392,0.00095995,0.0060271
0.0046724,0.016262,0.0044266,-0.0024297,0.0072025,0.0069374,-0.015122,0.006537
-0.0032426,-0.022066,-0.0040153,-0.0096278,-0.016492,-0.0082038,0.00036664,-0.008664
-0.0035909,-0.021896,-0.0043076,0.0064301,0.006589,-0.00027799,0.00055797,-0.00063129
-0.011983,0.024518,-0.0042627,-0.0011872,0.0061666,-0.0083566,0.0088676,-0.00070109
0.0029181,5.637e-05,0.0038858,-0.0090574,-0.0021062,0.0066577,-0.0060031,-0.0089053
0.002187,0.014278,0.012239,0.0062887,-0.0025843,0.0057704,0.010559,-0.0017746
0.009416,-0.01068,-0.0027558,0.0058627,0.0047471,-0.0031176,-0.0040419,-0.002658
0.0012982,-0.012034,-0.0021605,-0.0024206,-0.0035353,0.0035276,-0.010853,0.012007
-0.0064698,-0.0051572,-0.0017156,-0.0028266,0.0038398,0.0023643,0.0056361,0.011104
0.0095419,0.01793,-0.0093193,-0.0030731,-0.0043429,0.0012966,-0.0015521,0.002564
0.0023724,0.0025922,0.0062373,-0.0031009,0.0032183,-0.0074019,0.0065645,-0.013529
-0.0046846,0.01125,-0.001913,0.012724,-0.004662,-0.008027,0.0065059,0.0019296
-0.003984,-0.010974,-0.0024676,-0.0025174,-0.0044792,-0.00051258,-0.0017217,-0.013556
-0.00349,-0.0096609,0.01247,0.0057689,-0.0039939,0.0073705,-0.018057,0.0024795
-0.0033041,0.0070908,-0.0038771,-0.0016007,0.012435,8.1789e-07,0.012301,0.010906
0.0043556,-0.0078433,-0.012351,-0.016938,-0.0021029,0.00076907,-0.012059,-0.0040003
-0.0039031,0.015687,0.018376,0.014347,-0.00082983,0.009575,0.0027766,0.0045157
0.0032785,-0.016113,-0.0053924,-0.0015499,0.016105,-0.0049762,-0.0055501,0.005072
0.010424,-0.001604,-0.0055085,-0.0099328,-0.0061644,0.0038236,0.017736,-0.0024545
-0.0057428,-0.010918,-0.0054142,0.0048861,-0.0053117,-0.0032458,0.0023318,-0.0025284
-0.0060176,0.018688,0.010487,-0.0038645,-0.0049036,-0.010675,0.010664,0.0048184
0.0097027,0.0015302,-0.0047288,-0.0048132,-0.0049951,0.0049266,-0.012093,-0.011622
-0.013223,0.0081377,0.0035667,0.017777,-0.0055529,-0.0032854,-0.011426,-0.012667
0.011127,-0.0082252,-0.0037545,0.0093012,0.0013478,-0.0039576,-0.0031236,0.0096729
-0.0032659,-0.00063784,0.0044959,-0.0067602,0.0080586,0.0030614,0.0048877,0.0087308
-0.0018482,-0.00039442,-0.0029803,-0.014777,0.0069434,0.010124,0.004754,0.00032502
-0.00041945,0.00020466,-0.0027721,0.00085419,0.0059642,0.00175,-0.0034825,0.00021945
0.00082791,0.0010102,0.012936,-0.0067748,-0.010409,-0.006344,0.0037314,0.00065605
0.0017083,0.0018711,-0.01051,0.01699,0.0047268,0.0014937,-0.0046886,0.0015923
0.0098833,-0.0051494,-0.0027348,0.001808,-0.0033457,0.0017849,0.0026909,0.0028962
-0.0059873,-0.012318,-0.0027193,-0.013279,-0.0034465,-0.005564,0.0025973,-0.011254
-0.0068503,0.011583,0.0052432,0.0029612,0.012154,0.0027611,-0.0048552,-0.0020212
-0.00043647,0.0040591,-0.0022232,0.0036326,-0.019116,0.0031985,-0.0040037,0.0069435
-0.010017,-0.011429,-0.0094724,-0.0034803,-0.0035503,-0.0043501,0.012914,0.0076623
0.0037028,0.0042042,0.014712,0.0050223,0.011968,0.0035021,-0.0011156,-0.0077657
0.017544,0.0119,0.0077419,0.0056559,0.0040216,-0.0044872,-0.0072354,-0.00027493
0.00050619,0.0038338,0.0085526,-0.009443,0.0039002,-0.0048153,0.0021222,-0.0088346
-0.0081521,0.011237,-0.0064286,0.0065538,-0.0039776,0.0026267,0.01109,0.0057837
-0.0083166,-0.028394,-0.01387,-0.0088885,-0.011763,0.0023431,-0.01178,-0.0030888
2.6329e-05,0.002167,-0.0060037,-0.0011,0.0040001,0.0022676,0.0037054,0.0038162
0.0089737,-0.0063659,-0.014046,-0.00133,0.0042497,0.0024859,-0.012779,0.0032246
0.010531,0.00083568,0.0089799,-0.0017508,0.0045902,-0.0047826,0.0013594,-0.004776
-0.0033625,0.0083129,0.016336,0.021099,0.0049874,0.0038689,0.007246,0.01106
-0.017357,0.00059313,0.0003393,-0.010878,-0.0024103,0.0049162,0.0051284,-0.0040503
0.0073486,-0.014417,-0.0076856,0.0039167,-0.017637,-0.0095789,-0.0047264,0.0044225
0.00023726,0.025783,0.015695,-0.0047865,0.0061593,0.0071184,0.0013613,-0.0027702
0.00025604,-0.0039169,-0.0077303,0.0021371,0.0064713,-0.0076192,-0.0076778,-0.0023578
0.0073985,0.0056527,0.0078326,-0.0064793,-0.016702,0.00080339,0.0073141,-0.010074
-0.0094794,-0.0082749,-0.008086,-0.0070982,0.014761,0.0010939,0.0072773,-0.0025051
0.0045148,0.008719,-0.00091747,0.00038367,0.0070946,-0.0067371,-5.5001e-05,0.0047836
-0.0050312,-0.013887,-0.0019483,0.0082388,-0.00067183,0.0086177,0.00080572,0.0041082
-0.0065642,-0.0058801,-0.018922,0.00088548,-0.00077047,0.00037263,-0.0059255,-0.0043715
0.0080107,-0.0062883,0.0030165,0.0095573,-0.0010565,-0.00011901,-0.0047739,0.0029314
-0.00015744,0.0006715,0.0094136,0.0029236,-0.001552,0.0072433,-0.011481,0.010494
0.0080941,0.0074276,0.0005132,-0.0035259,-0.010055,-0.0087069,-0.0026821,-0.0050916
-0.0063319,-0.0013847,0.015574,-0.0021458,-0.0030699,-0.0010376,0.013772,0.0030038
0.0032697,-0.002114,9.627e-06,-0.024357,0.0038718,-0.008787,0.014428,-0.0043899
-0.0024451,0.028793,-0.0071338,3.6573e-06,-0.0047436,0.0070954,-0.0007325,-0.0039749
0.0074265,-0.0024196,0.0018288,0.016135,0.018062,0.0074988,-0.0082963,0.0041134
0.0012801,-0.0099255,-0.004559,0.0083424,0.0098596,0.00015415,-0.00048518,0.004153
-0.0055584,0.01391,0.0047154,0.0078497,-0.0137,0.00058154,-0.00076855,-0.011704
-0.01328,-0.024849,0.0059962,-0.00095066,-0.0057622,-0.0069575,-0.0091604,-0.004358
0.0015047,-0.032592,-0.032125,-0.017996,-0.0054461,0.00087107,0.0056068,0.00285
-0.00016799,0.021867,-0.00035175,-0.0041146,0.010613,0.00055527,-0.003285,0.010057
0.0053671,0.013544,0.015381,0.0017833,0.0032795,-0.00012349,0.003322,0.0017812
0.01061,-0.010619,0.015138,0.0076934,-0.011877,-0.0011451,0.017742,-0.0062337
-0.0075365,0.019781,0.0068269,-0.0018169,0.0041715,-0.0024389,-0.014569,0.0017054
-0.009693,0.011065,-0.0094452,-0.0031355,0.0045411,0.0039209,0.0002884,0.0021664
0.012196,-0.0054755,-0.010146,0.01168,-0.010762,0.002451,-0.0078676,0.0029045
0.0035825,-0.014203,0.0048025,-0.0041803,0.0051488,0.0011171,0.00012268,-0.0039985
0.0035583,0.00051093,-0.011419,-0.0038514,0.0054043,6.5722e-05,-0.0069507,-0.0030506
-0.0035774,-0.016001,0.0037243,-0.0030401,-0.0021924,-0.0083926,0.017752,-0.002198
-0.010167,0.0066253,0.0033703,0.0059266,0.0057702,0.0070761,0.0037981,0.0062612
-0.00079014,0.0059758,0.0031317,-0.00056283,-0.0019942,-0.0081843,-0.0021383,-0.0011792
-0.0069168,0.0055955,0.0029746,0.00074872,-0.0020829,0.00048307,-0.00031627,-0.0010984
0.010303,0.0055895,0.010664,0.0018914,-0.0023267,0.0017315,-0.0066396,-0.0012731
-0.0040022,-0.0095915,-0.0050982,-0.0050567,-0.0027164,0.0032155,0.0020779,-0.0016232
0.012525,-0.0086739,-0.013088,0.0032976,-0.0032113,0.012545,0.0022227,-0.0020401
0.0051111,0.0083005,-0.0054876,-0.012083,0.0040667,0.0060656,-0.00627,0.0054053
-0.0028277,0.0021604,0.0021271,0.0035736,-0.004245,-0.016418,0.00010246,-0.0026207
-0.0034221,0.011805,0.0098364,0.0035174,0.0031679,-0.0081653,-0.0019078,0.013019
-0.012162,-0.0020234,-0.0057037,0.01132,0.010715,-0.00046808,0.0036109,-0.0023314
-0.0054084,-0.0082676,0.0024588,-0.011969,-0.0050443,-0.0010805,-0.0064422,-0.017432
-0.0063638,-0.014901,0.0031062,0.0040313,0.0027213,0.0057704,0.0073257,0.0067253
0.0086329,0.0014154,-0.003795,-0.0031715,-0.0051168,-0.010961,-0.0016924,-0.008073
0.00067748,0.0094031,-0.0027259,0.005431,0.010435,0.019255,-0.0020859,0.0083697
0.016695,0.01692,0.013957,0.0062971,-0.013169,0.00285,0.013987,0.0090475
0.017548,-0.022808,-0.0086363,-0.0085193,-0.0056228,-0.0053728,-0.00045091,0.0016412
-0.0047637,-0.00026786,0.0074199,-0.0079036,0.0018646,-0.0053826,0.0012705,-0.0061492
-0.019241,0.014378,-0.00052045,0.00022071,0.0015598,0.0027719,-0.012364,0.0012284
-0.0026919,-0.0021685,-0.0012616,0.0079775,0.0013712,0.011171,-0.0025611,-0.0074897
-0.0021681,0.0048935,-0.0025529,0.015364,0.0091966,-0.011568,-0.00079943,-0.00099751
-0.0099164,-0.019048,-0.035465,-0.01662,-0.0061661,-0.0030715,0.00058254,-0.0026091
-0.0024316,0.011975,0.0096405,-0.009732,0.0021521,-0.0024934,0.0015218,0.0034754
0.0048297,-0.011425,0.015872,-0.002876,0.0028374,-0.0020637,0.0020346,0.0018301
0.0042691,0.0044462,0.01474,0.011929,-0.00422,-0.0017778,-0.0056215,0.00045884
0.003893,0.0048078,0.0064066,0.0035819,0.0042849,0.014027,0.002083,0.0073286
0.019443,0.020794,0.0065344,0.0034313,-0.0030237,-0.0014747,0.0096052,0.0069127
-0.0037601,-0.01803,-0.01622,-0.0041192,-0.0027986,-0.0013689,0.0091839,-0.0085672
0.0045026,-0.010205,-0.015172,-0.0034929,-0.0028863,-0.0012656,-0.014792,-0.0078866
-0.010618,0.01296,0.0094397,0.0051945,0.004556,-0.0011799,0.00016223,-0.0067445
-0.018045,-0.011037,-0.0051151,-0.0094683,-0.003822,0.0066611,-0.00066844,0.0025614
0.0055313,0.0038049,0.0034852,0.014842,-0.00446,-0.0090447,0.0061375,0.012084
-0.0024351,-0.012706,-0.003922,-0.0079694,0.0027709,-0.0014709,-0.010658,-0.0017652
-0.0028319,0.025523,0.0038979,0.00010889,0.0023488,0.0059144,0.003684,0.0077309
0.0044683,-0.021972,-0.0042465,-0.007843,0.0099516,-0.0025145,-0.0054417,-0.014271
0.0040077,0.016821,0.010818,-0.00054656,0.0021342,-0.0032872,0.0011312,-0.0054127
0.0037584,0.009182,0.002353,-0.0013439,-0.0055401,0.011475,0.0078794,0.010755
0.011645,-0.013608,0.0017511,0.021159,0.0024604,-0.0050139,-0.00074351,0.0029118
0.0042695,-0.0047045,-0.0064847,-0.010995,-0.0052068,-0.0057764,0.0065523,0.0022879
-0.018405,-0.011068,-0.01444,-0.0038928,-0.0051656,-0.0063423,-0.0014867,-0.0066986
-0.0017892,0.014044,0.0092035,0.0035378,-0.0052373,0.0011724,-0.0092753,-0.00050318
-0.016334,0.0079714,0.0019685,-0.0042391,0.0024385,0.0089867,0.0065626,-0.002397
0.015938,-0.013839,-0.004921,0.0040571,0.0023284,0.0092708,-0.00091173,0.0034563
0.0089503,0.01094,0.0040811,-0.0028557,0.0023537,0.0019603,-0.0083118,-0.0061487
0.0016558,0.0040353,0.0054109,-0.0016327,0.010422,-0.0052294,-4.2454e-05,0.00025946
0.0017975,0.0044093,0.014536,0.0075831,-0.0046622,-0.004593,0.00044825,0.0072325
-0.014082,-0.027036,-0.015579,-0.0066358,-0.0038378,-0.011848,0.00097285,-0.00075258
0.0009255,0.0034882,0.00086687,0.010209,0.005025,0.004196,0.0015296,0.0075611
3.0546e-05,0.010154,-0.0065151,-0.0045591,-0.0016136,-0.0033592,0.01773,-0.014794
-0.0010165,-0.014687,-0.01429,-0.012013,-0.0082532,-0.0032563,-0.0051383,0.0023124
0.0057447,0.030717,0.0088676,0.01121,0.00060774,0.02015,-0.0046094,0.011765
0.0048367,-0.0018834,0.016214,0.0026069,0.0092436,0.004375,-0.01196,-0.0023263
-0.0036155,-0.018583,-0.0077156,-0.014312,-0.0058459,-0.0037011,0.0040514,0.0066742
-0.0039031,-0.003649,-0.00027097,0.0074645,0.0021951,-0.0040856,-0.011249,-0.016097
0.0040047,0.0039015,-0.00040592,0.0056188,-0.0056738,-0.012409,0.012482,-0.0082199
-0.011168,-0.0037619,-0.00026175,-0.011839,0.0018507,0.010402,0.0049689,0.0068977
0.012998,0.020158,0.015764,0.017776,0.0014002,-0.005925,-0.0025161,0.0059474
-0.0017445,-0.0025858,-0.014911,-0.014765,0.00085595,0.00118,-0.0021649,-0.0030579
-0.0086703,-0.0096436,-0.0064726,-4.5965e-06,0.00027228,-0.0072522,0.0059862,0.0035487
0.015505,0.0066492,0.0018806,0.0073855,0.0074935,0.00012618,0.00625,-0.0052711
0.00033875,-0.01633,0.010024,-0.00046232,-0.0087213,0.023397,-0.0092577,0.0018862
-0.007379,0.0072778,-0.0055708,-0.00022057,0.006309,-0.0077048,-0.0093475,0.0016516
-0.0076684,-0.00067793,0.0019291,0.0079693,-0.0021128,0.00057513,0.0059504,0.009626
-0.00047933,-0.001113,-0.0065284,-0.0072862,-0.01055,-0.014303,0.0053981,0.0022675
-0.0013263,0.0060276,0.0081783,-0.0070403,0.0044518,0.010089,-0.01095,-0.012765
0.0055628,-0.010436,-0.0085419,0.00082885,0.0038685,-0.0044672,0.0038695,0.011242
