-0.18694,0.075856,0.78869,0.1127,-0.020875,-0.025026,-0.027083,0.10599
0.040107,-0.34951,-0.79924,-0.13139,-0.049298,-0.031087,-0.024021,0.14868
0.041975,0.13151,-0.28561,0.021451,0.0078771,0.0098322,0.018069,-0.59928
-0.26983,0.54034,0.3276,0.015637,0.0096513,0.019347,0.059502,0.5295
0.25178,-0.045681,0.43009,0.10834,0.088521,0.067484,0.029388,0.21803
0.06792,-0.46941,-0.46203,-0.11474,-0.060414,-0.049153,-0.064879,-0.49981
-0.014991,0.11569,0.247,0.041999,-0.0075258,-0.026073,-0.035948,0.47121
-0.46251,-0.66082,-0.9395,-0.10808,0.020748,0.027283,0.014807,-0.54072
0.55776,0.59739,0.4279,-0.016763,-0.03776,-0.037417,0.009796,0.65836
-0.03521,-0.017859,0.50184,0.098861,-0.0028449,-0.0011359,-0.050172,-0.41063
-0.19755,0.26392,0.43424,0.09986,0.032385,0.050624,0.07804,-0.04
-0.18302,-0.1014,-0.39774,-0.1139,-0.064221,-0.061314,-0.04215,-0.17847
-0.028068,-0.30918,-0.68101,-0.10406,0.036016,0.022909,0.019655,0.63966
0.25223,0.29382,-0.13531,-0.0032915,0.036543,0.038034,0.060701,-0.19724
0.41392,0.39737,0.97933,0.19548,-0.023571,-0.03922,-0.044052,-0.13563
-0.47679,-0.24783,0.47256,0.16266,0.097527,0.056685,0.0018275,-0.49581
-0.27736,-0.58675,-0.97888,-0.2288,-0.14767,-0.09646,-0.12275,0.012323
0.91161,0.35065,-0.33055,-0.090492,0.075981,0.08676,0.15933,0.78888
-0.75243,-0.18244,0.080136,0.099021,-0.005809,-0.019278,-0.035821,-0.34399
0.37381,-0.086538,0.50275,-0.14608,-0.065618,-0.032361,-0.060764,0.068518
-0.16536,0.67017,0.11739,0.18136,0.091415,0.054857,0.083703,0.12144
0.091661,-0.33911,-0.49701,-0.074652,-0.058264,-0.046912,-0.040373,0.13611
-0.07769,-0.38319,0.19154,-0.069356,-0.014421,0.013966,0.074788,-0.41772
-0.47927,0.29357,-0.19956,0.12073,0.035978,-0.019949,-0.12508,-0.038787
-0.081674,-0.021703,0.74337,0.013157,-0.0157,-0.015232,0.009292,-0.42858
0.13038,0.43429,-0.16813,-0.046404,0.011042,0.0054127,-0.013166,0.54758
0.57605,-0.23228,-0.12262,0.06873,0.031013,0.042688,0.074382,0.47732
0.045657,-0.22889,-0.53492,-0.085529,-0.048985,-0.020079,-0.0082419,-0.6149
0.37198,-0.037776,-0.12373,-0.13357,0.0056931,-0.0029969,-0.057197,-0.065133
-0.45204,0.045013,0.39318,0.15891,-0.015952,1.4273e-05,-0.0097868,0.23449
-0.20924,-0.28578,0.15052,-0.060429,0.034133,0.043116,0.1258,-0.093899
0.45025,0.60848,0.13508,0.14455,0.022487,0.00052533,0.043992,0.53178
-0.4261,-0.19742,-0.12715,0.045522,0.018619,0.0041693,-0.045487,-0.041161
-0.13044,-0.043911,-0.13386,-0.10159,-0.032967,-0.056129,-0.12829,-0.78539
-0.10606,0.18096,0.12457,-0.032799,-0.015744,-0.024674,-0.033619,0.085295
-0.025755,-0.22347,0.0086315,-0.030469,-0.047284,-0.0032318,0.050379,0.17108
-0.043249,-0.097907,-0.54386,-0.14185,0.028631,0.016184,0.05328,0.034658
-0.10014,0.4214,0.48992,0.12562,0.0091925,0.057499,0.084885,0.24002
0.75906,-0.20622,0.092777,0.02292,-0.01126,-0.050476,-0.12738,-0.27304
0.040873,-0.18345,-0.28474,-0.011127,0.046143,0.036751,-0.035502,0.18548
-0.28448,-0.39074,0.20558,0.13423,-0.013157,-0.0082722,0.025772,-0.085284
-0.041176,0.33192,0.16153,-0.024198,-0.0088268,-0.01316,0.041887,-0.0054948
0.1063,0.35611,-0.014254,0.0066682,-0.0029217,0.014585,0.044862,0.15252
0.1628,-0.15776,-0.11361,-0.10073,0.020386,0.0047676,0.027263,-0.13406
0.078398,0.16853,-0.22379,-0.11951,-0.017067,0.012035,-0.034378,0.13517
-0.46022,0.00089031,0.022926,0.098872,-0.0061572,-0.034064,-0.077935,-0.34399
-0.17637,-0.32425,-0.10548,-0.0080811,-0.025417,-0.024345,-0.010277,0.20262
-0.16349,0.20023,0.17604,0.098539,0.018391,-0.021524,-0.0040223,0.096415
-0.065147,-0.2396,0.21571,0.10593,0.030959,0.044477,0.057244,-0.22381
0.11882,-0.06743,-0.31043,-0.22077,0.0039255,0.048385,0.039985,-0.13181
0.4678,0.19929,-0.063453,-0.077518,-0.055391,-0.041371,-0.040787,0.23257
0.20849,0.18391,0.45778,0.14423,0.040121,0.024849,0.017606,0.10377
0.15083,0.049155,-0.37273,-0.095514,-0.030095,-0.018942,0.027444,0.21531
-0.18008,-0.2215,0.35616,0.28037,0.030769,-0.0089853,-0.073724,-0.1142
-0.21564,-0.17534,-0.047277,-0.10405,0.058778,0.046732,-0.0043197,-0.30886
-0.36626,0.14088,0.076477,-0.11673,-0.102,-0.070535,0.0096546,0.14464
0.28466,0.22775,-0.47173,-0.05497,-0.0057694,-0.0090235,-0.015479,-0.16187
0.12272,-0.10914,0.21213,0.13589,0.066821,0.044133,0.038157,-0.042147
-0.28555,-0.46253,-0.77832,-0.28589,-0.11016,-0.074671,-0.032029,0.24562
0.13602,0.51216,0.92613,0.31329,0.12011,0.095945,0.063274,0.09244
-0.097068,-0.13777,0.36043,0.090713,-0.0075577,0.0016328,-0.01196,-0.11008
-0.10854,-0.3343,-0.69738,-0.33533,-0.055449,-0.029323,-0.0081336,-0.09499
0.29117,0.86728,0.20273,0.19245,0.054565,0.042107,0.089763,0.084435
0.018224,-0.30726,-0.48211,-0.036002,-0.037076,-0.065519,-0.14863,-0.10962
0.22272,-0.046031,0.56336,0.13628,0.020885,0.022517,-0.01292,-0.074742
0.061843,-0.18492,0.65279,0.0067294,0.056232,0.024679,0.059059,0.26751
-0.40164,-0.27757,-0.80022,-0.11955,-0.071953,-0.035816,-0.026473,0.080863
-0.097555,0.021809,-0.2897,-0.31262,-0.051383,0.0049746,0.035404,-0.23719
-0.018445,0.059567,-0.060714,0.13069,-0.038447,-0.048283,-0.067405,-0.070899
-0.36784,0.13509,0.53954,0.085044,0.013602,0.0075687,0.056183,0.078072
0.6584,0.44527,0.015245,0.34648,0.14362,0.12568,0.12531,0.036198
0.19229,0.021413,0.26925,-0.16447,-0.0081101,-0.092437,-0.10978,0.29433
-0.13457,-0.66951,-0.59194,-0.058898,0.026677,0.024963,-0.12559,-0.37486
-0.0033317,0.16595,-0.23439,0.083287,-0.06506,-0.0067134,0.10897,-0.12763
-0.39209,0.093578,0.26278,-0.1612,-0.02596,-0.00019447,-9.3816e-05,0.17744
0.16672,0.17891,0.43092,0.01164,0.0031558,0.04436,0.015598,0.081021
0.063259,0.14442,0.052355,-0.14012,-0.01661,-0.021493,0.085399,-0.00060645
0.024478,-0.074979,-0.34765,0.10343,-0.030018,-0.064739,-0.072177,0.14608
-0.33115,-0.26872,-0.43869,0.01749,0.010645,-0.030282,-0.097801,-0.34348
0.42021,-0.30204,0.023746,-0.099157,-0.034301,0.012108,0.079029,0.11903
-0.0082083,-0.15535,0.65884,0.28632,0.085963,0.055179,-0.056915,0.011866
-0.22356,0.29362,0.06944,-0.067415,0.028191,0.036871,0.0027005,-0.22671
0.018149,0.214,-0.26749,-0.058833,0.050271,-0.01917,-0.0072504,0.26217
0.19463,0.36744,0.053886,0.34248,0.03468,0.066678,0.10106,0.11731
-0.084391,-0.15042,-0.18612,-0.54451,-0.17544,-0.096512,0.03081,-0.17998
0.17286,-0.089716,-0.24629,0.0053473,-0.018292,-0.0091807,-0.022945,0.37427
-0.26902,-0.22558,0.55251,0.10028,0.028993,0.023541,-0.060697,-0.1068
-0.25521,0.26798,-0.15662,0.12255,0.0051502,-0.037739,-0.059604,-0.54073
0.37679,0.35049,0.26822,0.064476,0.074221,0.05684,0.057923,0.2968
-0.022964,-0.46214,-0.35823,-0.057542,-0.036986,-0.020786,0.10405,-0.0010366
0.27089,-0.54255,-0.079965,-0.03908,0.023518,0.0030456,-0.12441,-0.16744
-0.28926,-0.16009,-0.54257,-0.081705,-0.040647,-0.058875,-0.080336,0.20645
-0.1098,0.025708,0.41219,-0.074523,-0.010281,0.059327,0.10392,0.10071
0.20038,0.54941,0.12826,0.15547,0.044616,-0.0016249,-0.024213,-0.051337
-0.33427,0.70044,0.69714,0.01495,-0.024279,-0.015294,0.027971,-0.28566
-0.024984,-0.78278,-0.61249,-0.16066,-0.021767,0.041395,0.065512,0.055909
0.27774,0.94337,0.70045,0.21309,0.028391,0.027273,0.041674,0.37222
0.13694,-0.57749,-0.61361,0.14173,0.071032,-0.027012,-0.12173,-0.12693
-0.072692,-0.083995,0.016939,-0.080531,-0.042811,-0.059457,0.0048094,0.11858
0.038359,-0.12577,-0.38858,-0.1437,-0.055803,2.816e-05,-0.032077,-0.11306
-0.17217,-0.24075,-0.30746,-0.057328,-0.046391,-0.028068,-0.091975,-0.32484
0.067512,-0.1957,0.49752,-0.064157,0.086888,0.13814,0.13743,0.16861
0.18603,-0.017044,0.14935,0.047587,0.00042483,-0.023727,0.046601,0.15561
-0.12125,0.71161,0.27286,-0.04031,-0.031997,-0.027921,0.080669,0.1215
-0.14979,0.16799,-0.30366,0.25323,0.076041,-0.060474,-0.1668,-0.26705
-0.045406,-0.32835,0.067398,-0.16229,-0.089009,-0.088847,0.077487,-0.13906
-0.3516,-0.84207,0.1097,0.11446,0.020178,0.012747,-0.10844,0.0097587
0.28637,0.13655,-0.35421,-0.19571,-0.025802,0.048973,0.041077,0.089492
0.13621,0.56483,-0.37974,-0.013855,-0.04722,0.05786,-0.01291,-0.10051
-0.02852,0.68283,0.88905,0.37823,0.15881,0.17798,-0.035856,0.44016
0.68071,0.013776,-0.1003,-0.34937,-0.0019814,0.00025709,0.15989,0.045439
-0.13073,-0.25152,0.24692,0.25377,-0.038077,-0.07997,0.019723,-0.093454
-0.30368,0.0057723,-0.80276,-0.12017,-0.0127,-0.09668,-0.12043,-0.10701
-0.24109,-0.69579,0.096371,-0.091379,-0.098319,-0.059408,0.012811,-0.071298
-0.22704,-0.099431,0.4016,-0.060642,0.0094297,-0.062159,-0.041571,-0.20216
-0.066566,-0.17737,-0.24727,0.18946,0.13088,0.060481,-0.0023617,-0.11205
0.10193,-0.099447,0.0035127,-0.16935,-0.077356,-0.016879,0.075767,0.41703
0.063796,0.40636,0.3073,0.059192,0.01035,0.029658,-0.010262,-0.23045
0.25356,0.6613,-0.21189,0.080025,-0.034921,0.0085071,-0.033848,0.23043
0.30045,0.39303,-0.68706,-0.19829,0.029776,0.11813,-0.026258,0.023424
-0.29291,-0.86775,0.72482,0.36729,0.033177,-0.0066802,0.059283,-0.19751
0.012977,0.12571,-0.27561,-0.37735,-0.063417,-0.060693,-0.011782,0.025914
-0.10388,-0.32803,0.37675,0.2804,0.076001,0.072355,-0.0053079,-0.2007
0.30645,0.46553,0.56411,0.01341,0.013734,-0.0080483,0.09413,0.12489
-0.43959,-0.15231,-0.6233,-0.19357,-0.039662,-0.070271,-0.057306,0.21372
0.060697,-0.32543,-0.51929,-0.082936,-0.0065107,-0.039031,-0.092323,0.0089886
0.20327,0.67727,0.42424,0.086877,-0.074704,-0.0652,-0.049656,0.13174
-0.28628,-0.41263,0.40413,0.18993,0.068012,0.044876,0.055584,-0.10279
0.0067405,-0.60509,-0.60797,-0.063939,-0.0081142,0.095163,0.12243,-0.33268
0.34204,0.79351,-0.15406,-0.13681,0.017327,-0.054775,-0.1064,0.17202
-0.24652,-0.09346,0.27277,0.13432,0.019532,0.033487,0.1663,0.22882
-0.092266,-0.4243,-0.29546,-0.13426,-0.10285,-0.052715,-0.29378,-0.50674
0.35371,0.45441,0.60399,0.025535,0.079995,0.055392,0.19276,0.2167
-0.024792,-0.070275,0.18412,0.035131,0.09153,0.039014,0.07074,-0.051036
-0.37645,0.0133,-0.79541,-0.12917,-0.16995,-0.11623,-0.16833,-0.15768
0.32084,0.43606,0.74494,0.31379,0.084349,0.051425,0.1155,0.58024
-0.20057,-0.19441,-0.30308,-0.15159,0.0025283,-0.0045096,-0.086059,-0.09991
0.40871,-0.18183,0.061688,0.10773,0.068625,0.067461,0.062703,-0.10267
-0.06399,-0.2091,0.20027,-0.13439,-0.10043,-0.022156,-0.00055572,-0.13088
-0.5647,-0.65864,-0.91632,-0.15067,-0.090689,-0.09436,-0.064387,-0.013511
0.1884,0.37899,0.45687,0.083242,0.090062,0.029735,-0.026453,0.021296
-0.02938,0.57215,-0.16187,0.14651,0.06698,0.044639,0.03599,0.19839
0.11285,-0.46668,-0.13016,-0.24902,-0.073777,0.0043423,0.014321,-0.077372
0.1338,0.62935,1.0129,0.2253,0.082073,0.0020618,0.057414,-0.22081
0.067358,-0.50466,-0.19593,0.069387,-0.027804,-0.032856,0.0089875,-0.10699
-0.32709,0.018225,-0.44113,-0.20188,-0.083012,-0.030256,-0.10025,0.03802
0.091132,0.18873,-0.19008,0.1523,0.057068,0.0098425,0.080253,0.28517
0.14078,0.61852,0.38614,-0.10427,-0.021712,0.025004,-0.013278,0.03335
0.14701,-0.058856,0.078234,0.13589,0.032057,0.030938,0.0084317,0.016843
-0.065917,-0.47412,0.085464,-0.066329,-0.031823,-0.0035401,-0.035453,-0.093163
-0.025451,-0.63667,-0.63171,-0.11032,0.044246,-0.00026109,0.034025,0.09281
-0.50062,0.23921,0.38326,0.027262,-0.021171,-0.029471,-0.1036,-0.32495
0.46743,-0.069715,-0.34695,0.073883,0.029634,0.041798,0.091195,0.25412
-0.23108,-0.2652,0.07797,-0.062475,-0.10019,-0.075199,-0.068068,-0.11568
0.26472,0.59532,-0.2298,-0.09826,0.09739,0.05756,0.076271,-0.0042823
0.06726,-0.27123,0.18471,0.11743,0.013391,-0.020131,-0.013277,0.13637
-0.35045,0.4907,0.56275,0.024288,-0.070355,-0.002712,0.0085227,-0.11386
0.071012,0.27941,0.69632,0.077013,0.018722,0.0091504,0.010024,-0.18269
-0.046655,-0.3011,-0.92378,0.01069,-0.038986,-0.022852,-0.086227,0.32228
0.30005,0.020024,-0.29492,0.0048155,0.030544,-0.020162,0.032342,-0.15243
-0.17605,0.2911,-0.0029957,-0.27753,-0.02236,-0.060956,-0.033254,0.18255
0.032704,-0.79301,-0.025688,0.099592,0.060076,0.16664,0.2159,-0.032792
-0.1541,-0.22493,0.40174,0.10309,0.011777,0.012999,-0.15915,-0.2063
0.3141,0.36356,0.1,0.051394,0.050667,-6.8285e-05,0.050957,0.13631
-0.18531,-0.039907,-0.70977,-0.033715,-0.07432,-0.069662,-0.084883,-0.046638
0.35743,-0.039321,0.25828,-0.18473,-0.10649,-0.072407,-0.067658,0.0078695
-0.32087,0.55187,0.40167,0.24612,0.18755,0.12339,0.22726,-0.20239
-0.30232,-0.83696,-0.21602,-0.15527,-0.15378,-0.084202,-0.12166,0.36011
0.090799,0.70778,0.47053,0.10391,0.072446,0.039711,-0.0040719,-0.14898
0.24948,0.36486,-0.29232,0.0091669,0.0070708,-0.089479,-0.13727,0.1771
-0.34712,-0.34351,-0.62437,-0.21143,-0.11493,0.0067098,0.10539,-0.23022
0.65694,-0.28548,0.23006,0.045278,0.097909,0.049184,0.053567,0.038229
-0.11561,0.20317,-0.11409,0.030686,0.0058348,0.024295,0.036479,-0.052684
-0.50258,-0.62564,0.53545,0.13636,0.0315,-0.0040391,-0.039173,0.0015965
0.16567,0.068007,0.19759,0.13606,-0.019862,-0.0039687,-0.01741,0.14319
-0.0751,0.51648,-0.22007,-0.19709,-0.0073437,0.063262,0.022722,-0.38955
0.035684,0.14853,-0.25729,-0.020155,0.014408,0.048117,0.064244,0.3748
0.16267,-0.15397,-0.47915,-0.021687,-0.017218,-0.066639,-0.058405,-0.047366
0.24155,-0.39302,0.88376,0.12545,-0.0086418,-0.048378,-0.073134,0.069077
-0.24731,0.35697,-0.35311,-0.14977,-0.0068801,-0.062667,-0.0043263,0.040859
-0.067377,-0.059211,0.28953,0.058618,-0.012018,0.045762,-0.0086566,-0.16076
0.071739,-0.35443,-0.31015,-0.14775,-0.09442,-0.067179,0.031157,0.075126
-0.00029129,0.82604,0.055245,0.11426,0.15989,0.09095,0.03748,0.11723
-0.23386,-0.29011,-0.40537,0.001185,-0.046173,-0.026079,0.011014,-0.21949
0.35232,-0.04651,0.40155,0.075626,0.021376,0.035632,0.0071616,-0.087047
-0.16425,-0.11465,0.32137,0.18889,0.041653,0.034541,0.018696,0.10698
-0.031562,-0.25836,-0.12702,-0.29242,-0.087584,-0.068077,-0.11807,0.090248
-0.096876,-0.1688,-0.43904,0.029404,0.054886,0.071505,0.073593,-0.0090428
0.24738,0.33275,0.28906,0.33341,0.077973,0.046724,0.10933,0.087262
-0.27326,0.52141,-0.1404,-0.54476,-0.22158,-0.15066,-0.1515,-0.5061
-0.14444,-0.27088,-0.22261,0.035707,0.00023117,0.018069,0.0020339,-0.065312
0.5063,-0.31248,0.29588,0.19268,0.16595,0.099743,0.062273,0.67131
-0.013139,-0.24637,0.072753,0.12255,-0.043821,-0.04591,-0.040826,0.088644
-0.11616,-0.028702,0.23214,-0.095374,0.028227,-0.011885,0.036862,0.085201
-0.17185,0.35944,-0.16655,0.079081,-0.046634,-0.14872,-0.11835,-0.36415
0.081328,0.48182,-0.19056,-0.10327,-0.041129,0.10716,0.10318,-0.20751
-0.057513,0.0095044,0.20142,-0.056068,0.052889,-0.016919,-0.0016531,-0.12769
0.13986,-0.29429,0.011871,0.20505,0.0087526,0.057399,0.019958,0.41165
0.31612,-0.065373,-0.52901,-0.28908,0.036869,0.10302,0.089243,-0.14599
-0.45509,-0.009406,0.35773,0.14044,-0.0042572,-0.045387,-0.12285,-0.027954
-0.03574,-0.61188,0.33597,-0.015256,-0.10788,-0.038106,-0.070507,0.086218
-0.051253,0.35445,-0.57683,0.086315,0.09213,0.0291,0.081167,-0.1933
-0.13284,0.02466,0.37265,-0.0092741,-0.045768,-0.056444,-0.035849,0.17365
0.40223,-0.027842,-0.28032,0.079609,0.048161,0.032375,0.10139,0.26624
-0.13766,0.19981,-0.30533,-0.35102,-0.063752,-0.095044,-0.030601,-0.29753
0.079045,0.25621,0.85514,0.30787,0.032825,0.054654,-0.025125,0.12345
-0.093617,0.055401,-0.11797,-0.060611,-0.0051868,-0.063238,-0.08438,-0.27527
0.040792,-0.22467,-0.022036,-0.064874,-0.02838,0.022818,0.042968,0.07674
0.2555,0.006785,-0.15597,0.14043,0.097192,0.057896,0.092878,0.21081
-0.028761,-0.32392,-0.29622,-0.19268,-0.072646,-0.057167,-0.08145,-0.12292
-0.22752,0.25692,-0.016373,0.094256,0.017774,0.08529,0.044875,-0.033523
-0.16213,-0.12746,0.24318,-0.10613,-0.06836,-0.03027,-0.097418,0.13564
-0.059237,-0.00084674,0.16013,-0.0032952,0.012992,0.016736,-0.031324,-0.099291
0.26197,0.098547,-0.13361,0.24712,0.13666,0.10666,0.1882,-0.065834
0.11621,-0.46841,-0.16897,-0.027206,-0.033922,-0.0058457,0.021114,0.23661
-0.36087,0.33094,0.24288,-0.1403,-0.10132,-0.15216,-0.088853,-0.29304
0.021027,0.22387,-0.18497,-0.0399,-0.0043104,-0.014665,-0.042074,-0.029526
0.15449,0.35841,0.073451,0.10692,0.076075,0.061272,0.050081,0.29259
0.23539,0.092511,0.090965,0.062658,0.0057731,-0.073044,-0.040679,-0.1243
-0.096853,-0.56011,-0.099183,-0.1442,0.010378,-0.018077,0.012567,-0.14092
0.061084,-0.069894,0.050957,0.085905,0.0034096,-0.021673,-0.017258,0.44391
-0.48256,-0.41415,-0.62284,-0.27134,-0.16361,0.020435,-0.051823,-0.55188
0.44702,-0.0064118,0.72947,0.44069,0.072307,0.095292,0.089405,0.25979
-0.014228,0.80349,0.1442,-0.22954,0.079245,0.087809,-0.068829,0.07188
-0.14335,-0.41171,-0.28842,-0.076334,-0.032231,0.046037,0.13908,-0.21113
0.25306,0.52234,0.42814,0.11449,0.036031,-0.12363,-0.050916,0.2927
-0.34041,-0.36115,-0.28678,-0.11461,-0.03511,-0.015711,-0.028065,0.021237
-0.11682,-0.37359,-0.050972,0.16911,-0.0025576,-0.053453,0.036835,-0.23484
-0.087877,0.18056,-0.62039,-0.20393,-0.076718,-0.074428,-0.16026,-0.2149
0.16525,0.36339,0.15775,0.14238,0.086262,0.09167,0.037073,-0.024692
0.24103,0.49458,0.69589,0.051656,0.04857,0.06857,0.081572,0.36309
0.36201,-0.57473,-0.78825,0.022542,-0.0029501,0.0038678,0.042666,0.069023
-0.25853,-0.83664,0.38313,0.084009,-0.069168,-0.048132,-0.0028362,-0.19369
-0.35432,0.32668,0.52614,-0.20418,0.0052474,-0.040511,0.037251,-0.080579
0.081695,0.10354,-0.65572,-0.13379,-0.030511,0.011493,-0.05738,0.22775
0.02426,0.35362,0.58437,0.11332,0.03393,0.038179,-0.037987,0.064937
0.080447,-0.080217,-0.31449,0.082648,0.02645,0.0011903,-0.022465,-0.033026
0.060396,0.40111,0.069195,0.047216,-0.013805,-0.0050449,0.051682,0.047976
-0.22546,-0.20638,-0.39813,-0.19564,-0.0083328,-0.011224,-0.12734,-0.45214
0.12756,-0.11842,0.52616,0.17553,-0.011241,0.022091,0.12923,0.27042
-0.15498,-0.19882,-0.2486,-0.087733,0.0015789,-0.022098,-0.059836,-0.21327
0.27806,0.31527,0.049828,0.00055521,-0.0082992,-0.0031347,0.03356,0.19277
0.12209,0.1035,-0.41193,-0.011345,0.014298,0.063291,0.066904,-0.008334
-0.16141,-0.74497,0.2158,0.13532,0.01493,-0.096356,-0.029413,-0.055497
-0.18085,-0.044195,0.027074,-0.1216,0.032626,0.041295,0.002508,0.12416
0.088436,0.47978,0.20266,0.18645,0.004587,0.054369,0.021558,0.10997
-0.2272,-0.015863,-0.015085,-0.23809,-0.093123,-0.13519,-0.090354,-0.19237
0.12345,-0.21917,-0.16741,0.017853,0.012329,0.074294,0.017221,0.089827
0.21928,0.25679,-0.087949,6.4784e-05,0.031281,-0.035831,-0.0083911,-0.10964
0.029154,0.18522,0.26881,0.035662,0.033545,0.10477,0.042816,0.12661
0.013434,0.053598,0.28099,0.1473,-0.0046428,-0.058673,-0.025111,0.12226
-0.024343,-0.021589,-0.19121,-0.07951,-0.044326,0.012677,0.0062906,-0.21223
0.015988,-0.050988,0.33648,0.027084,0.039619,0.02946,0.043327,-0.019514
-0.36685,-0.006202,-0.80722,-0.1653,-0.088413,-0.086769,-0.046448,-0.034065
0.03725,-0.30197,-0.17445,0.023838,0.072056,0.04654,0.026631,-0.01958
-0.053235,-0.0053888,0.15415,-0.045064,-0.025303,-0.055124,-0.096058,0.027532
0.54947,-0.15527,0.49133,0.16034,0.026276,0.053574,0.094102,0.13529
-0.075844,-0.004489,-0.44958,0.015948,0.047525,0.013438,0.0041148,-0.12129
-0.17055,0.11962,0.41312,-0.016778,-0.039407,0.0044638,0.0096024,-0.10548
-0.33536,0.10252,-0.23723,-0.086226,-0.0078302,-0.004212,-0.0061971,0.021084
0.27418,0.36864,0.38353,0.12753,-0.0061788,-0.019994,-0.011839,0.30573
-0.16954,-0.2377,-0.16815,-0.079302,-0.042356,-0.042522,-0.069873,0.051681
0.51341,-0.062977,-0.016589,0.034694,0.039726,0.030011,0.014716,0.084084
-0.34102,0.050305,-0.15391,-0.11706,-0.049218,-0.013266,0.022642,-0.25699
0.18103,0.38092,0.23251,0.058818,0.073329,0.014985,0.039095,-0.099978
-0.24107,-0.34222,-0.34877,-0.00019296,0.024187,0.098747,0.047549,0.0058638
-0.021717,-0.5952,0.20555,0.026507,-0.033005,-0.051617,-0.023264,-0.1903
-0.020719,0.37174,-0.14092,0.053455,0.034119,0.0085387,0.036723,-0.15651
-0.28555,0.26182,-0.44757,-0.13761,-0.10297,-0.080791,-0.16376,0.37461
0.46411,-0.15029,0.35874,0.086417,0.047597,-0.023217,-3.6161e-05,0.030155
0.1097,0.10701,0.2719,-0.18074,-0.006546,0.024747,0.059216,0.35861
0.32139,0.093206,0.88557,0.31827,-0.023253,0.016191,0.030019,-0.27223
-0.52756,-0.32556,-1.0679,-0.21431,0.021003,0.037216,0.014576,-0.15198
0.12408,-0.24996,0.11854,0.24383,0.079546,0.025631,0.013654,0.25694
-0.51305,0.35386,-0.52868,-0.089688,0.0042363,0.0052719,-0.0032087,-0.40678
0.50736,0.53677,0.63369,0.018707,-0.024848,-0.0077702,0.027225,0.3395
-0.24207,-0.22734,0.04629,-0.22027,-0.093158,-0.067666,-0.08971,-0.14589
0.13254,-0.26856,-0.41946,-0.024873,-0.012642,-0.0019947,-0.0097378,-0.2302
-0.13862,-0.25252,0.57806,0.059161,0.014131,-0.02898,0.017511,0.18134
0.19772,-0.032456,-0.71169,-0.1542,0.057923,0.062731,-0.031244,0.028025
0.18296,-0.11861,0.63415,0.27395,-0.052921,-0.093853,0.015766,0.20274
-0.095958,0.67271,-0.27274,0.086676,0.119,0.18083,0.12689,-0.12822
-0.06911,-0.42995,-0.10883,-0.03615,-0.051767,-0.098071,-0.057891,-0.12711
-0.23028,0.6903,0.27025,0.25648,0.035627,0.068645,0.069998,-0.058378
0.074362,-0.0080141,-0.1474,-0.37239,-0.018096,0.015954,-0.099569,0.36744
0.12334,-0.62262,-0.28036,-0.17379,-0.11994,-0.13207,-0.035861,-0.2562
0.12496,-0.1895,0.44419,0.18758,0.073395,0.053592,0.0031866,0.18712
-0.094714,-0.1587,-0.30827,-0.12419,0.022804,-0.028834,-0.0055217,-0.10052
-0.14636,0.30153,0.32198,0.10259,-0.044696,0.011601,0.0090815,-0.28419
0.086838,0.39873,0.099974,0.017627,0.043647,0.027309,0.071441,0.26024
-0.043046,0.07547,0.016742,0.13806,-0.023509,-0.019535,-0.08304,-0.15542
0.0041947,-0.36577,-0.81184,-0.13632,-0.010559,-0.033764,-0.016057,0.10883
0.026874,-0.044029,0.60532,-0.015567,0.013244,0.087524,0.17901,-0.057118
-0.12995,-0.20307,-0.10745,0.14115,-0.0061315,-0.060913,-0.12302,0.21291
0.1908,0.023068,-0.30987,-0.20577,-0.029545,-0.0020343,0.014601,-0.1371
-0.02641,0.46959,0.55253,0.14557,0.043978,-0.017259,-0.057805,0.078878
0.10843,0.3788,-0.29411,-0.22066,0.017899,0.080095,0.0097889,-0.015545
0.02391,-0.5291,0.2665,0.25599,0.046774,0.015239,0.075149,0.10219
0.039154,0.10851,-0.45456,-0.020263,0.074026,0.036509,0.050909,-0.27106
-0.11224,-0.22645,0.61901,0.042626,-0.17552,-0.13122,-0.040506,0.10012
