-0.030821,-0.12093,0.13273,0.038949,-0.0062815,0.00067303,0.0097996,0.1367
-0.0026156,0.029793,-0.15709,0.0021552,-0.013142,-0.0069534,0.032428,-0.0040838
0.032893,-0.062762,0.074765,0.050825,-0.0047061,0.001162,-0.014326,-0.042505
-0.0022539,0.0085359,-0.18015,-0.21367,-0.020109,0.0015264,0.0023696,-0.14291
-0.045286,0.11189,0.015583,0.1149,0.00316,0.001892,0.012058,0.077373
0.06821,0.076384,0.31097,0.11483,0.057378,0.033459,-0.0011551,0.024649
0.033937,-0.042561,-0.21474,0.16146,0.0020635,-0.028799,-0.01416,0.042873
-0.12428,-0.28364,-0.31014,-0.49477,-0.07668,-0.044258,0.0039862,0.0073222
0.070426,0.22807,0.096446,0.084069,0.032243,0.033981,-0.040692,-0.050528
-0.077051,-0.0079355,0.49807,0.031079,-0.014799,-0.012805,0.0079412,-0.052491
-0.019826,-0.015974,-0.46454,0.072806,0.0088149,0.034148,0.032694,0.0403
0.22627,0.1247,0.364,0.44325,0.087444,0.026384,-0.0054282,0.024225
-0.07354,-0.094893,0.1461,-0.061382,-0.052429,-0.028339,0.018663,7.1159e-05
-0.068269,-0.0038874,-0.50315,-0.5122,-0.059366,-0.067601,-0.035595,0.060632
-0.024164,-0.056031,0.35947,0.066709,0.027437,0.072578,0.027122,0.0096243
-0.027736,-0.024891,-0.48631,-0.10621,-0.026519,-0.02974,-0.019801,-0.075589
0.029954,0.035217,0.099441,0.12539,0.044298,0.016047,0.011048,-0.031289
0.070532,4.1979e-05,0.28111,0.22289,0.044509,0.030281,0.033644,0.26775
-0.10138,-0.098259,-0.22141,-0.12565,-0.080612,-0.049456,-0.030182,-0.52141
0.068993,0.17864,0.34366,0.17405,0.036099,0.003528,-0.024137,0.079073
0.019358,0.018768,-0.091963,-0.072965,0.011832,0.017511,0.020678,0.25034
-0.039056,0.0082377,-0.080903,-0.19458,-0.044014,-0.038606,-0.036124,-0.014112
0.019111,-0.10312,-0.23845,-0.065668,-0.0063896,-0.00065589,0.0088664,0.19282
0.022404,0.09844,0.49169,0.32175,0.054467,0.061085,0.023103,-0.17551
-0.059947,-0.098294,-0.63929,-0.24304,-0.0097869,0.0059404,0.014575,-0.1039
-0.032116,0.0097923,0.47866,0.12303,0.0040862,-0.017769,-0.016672,-0.09325
0.082962,0.024602,-0.27166,-0.12665,-0.0053475,0.013253,0.077708,0.26939
-0.026796,-0.068844,0.13249,0.10182,-0.037947,-0.041725,-0.061857,-0.071707
-0.0095794,-0.12135,0.14273,-0.058816,0.00018141,-0.026476,-0.037157,-9.3423e-05
-0.021644,0.062955,-0.0477,0.16456,0.0075957,0.020019,0.0188,-0.02382
-0.00079728,0.19509,0.0040428,-0.1349,0.031243,-0.027078,-0.058155,-0.17384
0.075788,0.032241,-0.14198,-0.012692,0.0086174,0.066805,0.075722,0.16776
0.019761,0.06523,0.012173,-0.00096589,0.0021248,0.020583,0.01425,-0.16212
-0.076088,-0.22344,0.19172,0.07916,-0.035285,-0.017219,-0.023727,0.17335
0.045154,0.078314,-0.32261,0.016182,0.0055362,-0.023183,0.00092138,0.0027992
-0.078103,-0.062384,-0.038319,-0.072898,-0.024088,-0.059918,-0.044616,0.029304
0.053883,0.02554,0.26422,-0.078451,0.047506,0.083335,0.073953,0.01003
0.074143,0.11581,0.0080344,0.070518,0.032667,0.031374,0.02834,0.03762
-0.11822,-0.28237,-0.13389,-0.093738,-0.084305,-0.067567,-0.095724,-0.12359
-0.10816,-0.041693,0.065885,0.1018,-0.0065237,-0.065232,-0.0015806,0.0096578
0.066344,0.20775,0.34237,0.15823,0.047345,0.046036,0.029347,-0.14924
0.093746,0.070127,-0.47574,-0.12669,0.007125,0.031723,0.0047776,0.14968
0.05274,-0.01511,0.31546,0.013221,0.021412,0.087015,0.057534,0.039876
0.044962,-0.0080112,-0.10307,-0.15623,-0.05026,-0.030373,-0.015374,0.014703
-0.10188,-0.026066,-0.034048,0.028861,-0.035882,-0.13298,-0.11213,-0.010313
0.025541,0.069976,-0.49062,0.1774,0.08809,0.099556,0.095749,-0.12744
-0.034576,-0.050116,0.3033,-0.078534,-0.045464,-0.066949,-0.063205,-0.038621
-0.071996,-0.052775,-0.025134,0.11171,0.079114,0.086555,0.059837,0.15527
-0.016795,-0.018283,0.56411,-0.20604,-0.1163,-0.095806,-0.042655,0.1027
0.1154,-0.026327,-0.52349,-0.024993,0.01669,0.050397,0.012228,-0.087607
-0.026643,0.016091,0.2875,0.099163,0.0014524,-0.044885,-0.010034,-0.026189
-0.020525,0.054374,0.039621,-0.021909,0.040986,0.1028,0.10111,-0.011341
0.0014881,-0.035692,-0.20994,0.22054,-0.021143,-0.10045,-0.10021,0.064959
0.00073681,-0.018499,0.12727,-0.25976,0.0023407,0.063763,0.025979,-0.15765
0.047697,0.083907,-0.0077025,0.10761,0.064331,0.087125,0.049442,0.00010118
-0.0061662,-0.024068,-0.37508,-0.051785,-0.038459,-0.10896,-0.069225,0.14001
0.057607,0.072627,0.15003,0.021009,0.0064567,0.0064329,-0.001903,-0.034022
-0.050404,-0.031655,0.1401,0.015126,-0.011656,-0.012033,0.0017714,-0.10679
-0.049228,-0.12577,0.020935,-0.044011,-0.084551,-0.078121,-0.049708,0.12606
-0.063967,0.0010938,-0.054192,-0.021523,0.0071312,0.035321,0.039844,-0.02194
-0.0085762,0.028185,-0.39308,-0.017181,0.037479,0.063402,0.068176,-0.073639
0.070304,0.01735,0.46881,-0.02986,0.014813,-0.0088164,-0.042151,0.11162
0.001022,0.084941,0.30669,0.08118,0.025257,-0.0012013,-0.0095539,0.017646
0.096132,0.042511,-0.34071,-0.0054707,0.021678,0.0081946,-0.006009,-0.11445
-0.043025,-0.12652,0.02437,0.16103,0.0033563,0.050283,0.0617,0.096784
-0.096647,-0.15739,-0.24222,-0.047521,-0.054223,-0.055304,-0.049486,-0.1079
0.12988,0.29306,0.4807,0.013748,0.050842,0.010883,0.018768,0.1531
-0.020387,-0.072284,0.065073,-0.11157,-0.026299,-0.017624,-0.015792,-0.15225
0.0067615,-0.073517,-0.59992,-0.15234,-0.0050928,-0.00082101,0.017946,-0.04756
-0.10904,0.11819,0.072396,0.17192,0.012809,-0.032713,-0.044435,0.092581
-0.015739,-0.12881,-0.21196,-0.020627,-0.057906,0.027501,0.062825,0.15198
0.068912,-0.016151,0.48906,0.11646,-0.07532,-0.093042,-0.097164,-0.18825
-0.10372,-0.018752,-0.17874,-0.41287,0.21234,0.090894,-0.0078065,0.073511
0.10066,0.13052,0.23463,0.21627,-0.12268,0.15842,0.050781,-0.12358
0.034876,-0.12974,-0.13494,0.14885,0.015108,-0.061389,0.056224,0.0031105
-0.0033963,0.036874,-0.26334,-0.088354,-0.052802,-0.14592,-0.02196,0.21235
0.0016368,0.075347,0.3162,0.092299,-0.021408,-0.10255,-0.027206,-0.065825
0.033858,0.062766,0.075846,-0.1141,0.014858,0.092142,0.048106,-0.08958
-0.056213,0.060059,0.064263,0.14191,0.25748,0.10954,-0.031062,0.022925
-0.027769,-0.090783,0.26716,0.14586,0.024441,0.05022,-0.0078887,-0.034481
0.0083436,-0.19601,-0.85238,-0.20811,-0.10872,0.0065341,0.022746,0.095814
-0.0038884,0.055812,0.25668,-0.14296,-0.081829,-0.10125,-0.041786,0.068273
-0.026414,0.015886,0.046487,-0.099643,-0.31049,-0.040284,0.008634,-0.11082
-0.0051545,-0.19051,-0.26233,0.14631,0.12663,0.063241,0.017301,-0.13
0.075327,0.45298,0.35008,0.18811,0.1051,-0.025621,-0.039264,0.096277
0.035527,-0.10739,0.12368,-0.16085,0.14191,-0.056705,-0.0044723,0.076148
0.047805,-0.081728,-0.3498,0.0077794,0.01237,0.064641,0.036372,-0.1035
-0.19965,0.022693,0.37975,-0.037622,-0.039414,-0.058516,0.013763,0.1994
0.028314,-0.051783,-0.0050326,0.13557,-0.074253,0.10694,0.037926,-0.28696
-0.06442,-0.24291,-0.52698,-0.087231,0.12785,0.0082669,0.0002804,0.18907
0.14774,0.28465,0.52311,0.030235,-0.21362,-0.12627,-0.090706,-0.10556
0.071369,0.0925,0.055706,-0.17519,-0.0047201,0.017042,-0.023625,0.087766
-0.035696,-0.031274,-0.074533,0.24165,0.098031,0.087209,0.053328,-0.058937
-0.064312,-0.032891,-0.099003,0.053111,-0.046697,-0.064399,-0.00047686,0.00062383
-0.030456,-0.069191,-0.092042,-0.070693,0.18507,0.069139,0.025634,0.06211
0.23746,0.078485,-0.16553,-0.038063,0.042133,0.064504,0.029597,0.15514
-0.33096,-0.31593,-0.077936,-0.10093,-0.23451,-0.095674,-0.020508,-0.21423
0.030153,0.16262,0.26558,-0.0029331,-0.0052102,-0.038148,-0.0082396,0.022807
0.024448,0.10919,-0.22635,0.012944,0.04195,-0.04565,-0.059296,0.013729
0.03541,-0.037415,0.67594,0.0013184,-0.061908,0.052702,0.021092,-0.17139
0.2043,0.20039,-0.23527,0.048656,0.1054,0.014318,-0.0095768,0.24923
-0.23413,-0.23937,0.19145,0.10121,-0.025814,0.034697,0.067393,-0.24672
0.14203,0.096469,-0.79919,0.019516,0.014009,-0.0026653,-0.013433,0.14688
-0.16763,-0.081536,0.044836,-0.038977,0.13195,-0.057677,-0.056346,0.07994
0.17213,0.1323,0.36567,-0.15124,-0.093104,0.050549,0.056369,0.061442
-0.034897,-0.19224,0.10952,-0.066219,-0.17615,-0.051792,-0.026251,-0.25164
-0.10201,0.1087,0.30003,0.10757,0.062989,-0.019917,-0.045807,0.20344
0.10308,0.089995,-0.45402,0.12077,0.077744,0.076619,0.060716,-0.057839
-0.021255,-0.23989,0.13501,0.044067,0.032314,0.081988,0.059324,0.011068
-0.0057831,0.15131,-0.50543,-0.10687,0.0047723,-0.11309,-0.12008,0.019215
-0.083869,-0.09458,-0.034639,-0.058869,0.0027103,0.014643,0.069415,-0.088225
0.042728,0.16418,0.70768,-0.039015,-0.09141,-0.019548,-0.020772,-0.18613
-0.02299,-0.032622,0.053137,0.030029,0.026667,-0.0051864,-0.023749,0.25709
0.056077,-0.059838,-0.33867,0.084752,-0.018537,-0.044339,0.013177,0.085579
-0.032036,-0.066541,0.34085,-0.063547,0.03809,0.081203,0.019162,-0.15353
-0.053324,-0.030734,-0.52018,-0.05682,-0.093068,-0.05885,0.0092373,-0.022836
0.076765,0.17824,0.72652,0.37704,0.13425,0.019197,-0.025017,-0.015089
0.090305,0.0030449,-0.74442,-0.29436,0.031905,0.072401,0.0095914,0.04833
-0.054647,-0.074713,-0.091151,-0.017091,-0.080441,-0.0093857,-0.012378,0.17378
0.24835,0.2394,0.21044,-0.10381,0.031067,0.062236,0.065071,0.062774
-0.28433,-0.12655,-0.001567,0.12568,-0.0088549,-0.15064,-0.086198,-0.37204
0.017958,-0.32928,-0.037717,0.055326,-0.043889,0.01606,0.034074,0.39965
-0.19608,0.10081,0.18005,-0.12579,0.059248,0.0081367,0.012343,-0.54418
-0.11998,-0.02954,0.10112,-0.040939,-0.15172,-0.048436,-0.064726,0.20334
0.22579,0.079334,-0.18931,0.18637,0.097734,0.11328,0.069325,0.026287
0.21189,0.19597,-0.056504,-0.028811,-0.0037386,-0.067759,-0.04562,0.12937
-0.11934,-0.060028,0.51246,-0.084693,0.029216,-0.035565,-0.010455,-0.07187
-0.038975,-0.24981,-0.46491,0.010329,0.033162,0.085806,0.050228,0.087609
0.071214,0.22048,0.25429,0.020586,0.039525,0.062372,0.066197,-0.11062
-0.015714,0.045035,0.023581,0.053719,-0.084777,-0.098274,-0.079982,0.1612
0.22213,0.16725,-0.26085,0.029823,0.0034035,-0.05316,-0.029453,0.12098
-0.30343,-0.094693,0.17768,0.18971,0.053308,0.14185,0.053051,-0.41979
0.061586,-0.10179,-0.17449,-0.28752,-0.084232,-0.030212,-0.020674,0.16307
-0.169,-0.33116,-0.51985,-0.27639,-0.026961,-0.062788,-0.016857,-0.044923
0.07422,0.069489,0.54594,0.16993,0.03731,-0.0036914,0.0015747,-0.12963
0.049127,0.1412,0.00062342,0.069335,0.022574,-0.03308,-0.028076,0.22193
-0.087121,-0.097757,-0.52939,0.0103,-0.032009,0.02097,0.05828,-0.25523
0.19812,0.25371,0.61092,0.21377,0.084669,0.04178,0.010857,0.53323
0.046932,0.06468,0.048086,-0.18608,-0.033487,0.0067378,-0.0059385,-0.13107
-0.11765,-0.047047,0.26141,0.2094,0.019863,-0.028524,-0.03076,-0.1308
-0.045063,-0.019845,0.18433,-0.24137,-0.059946,-0.039699,-0.039767,-0.12217
-0.047932,-0.17623,-0.55242,-0.016885,0.016135,0.083221,0.045503,-0.1442
0.052626,0.043174,-0.056281,0.11479,0.013726,0.028034,0.014331,0.17831
0.11466,0.049031,-0.27194,0.018331,-0.035879,-0.04907,0.0073993,0.08011
0.0037457,0.11169,0.43531,-0.15215,-0.007574,-0.054706,-0.045715,0.030382
-0.016057,-0.021044,-0.030795,0.18009,0.075362,0.026186,0.034416,-0.14236
-0.17254,-0.26419,-0.11334,-0.16505,-0.036884,0.052342,0.028688,0.17147
0.057138,-0.046955,-0.12517,-0.069866,0.0074286,0.030993,0.0070391,-0.17665
0.032484,0.31213,0.12572,0.14669,-0.041558,-0.13985,-0.077726,0.1254
-0.019037,-0.059114,-0.040006,0.1115,0.02718,0.016144,-0.022684,-0.1027
0.0056352,0.13176,-0.24501,-0.048378,0.041791,0.084919,0.070549,-0.0023921
-0.0010293,-0.26802,0.37244,-0.14354,-0.068064,-0.050544,-0.032321,0.11293
0.048798,-0.01322,-0.30421,-0.031924,0.049111,0.063161,0.028258,0.062796
0.055206,-0.015655,0.50379,0.029415,-0.028628,-0.042392,-0.0053129,-0.14556
-0.11342,0.2258,0.40741,0.19673,-0.0044515,-0.023137,-0.0078302,0.073566
0.066946,0.070413,-0.85306,-0.038497,0.066959,0.043085,0.028687,-0.27183
-0.067772,-0.14717,0.085021,0.13499,-0.040889,0.015903,-0.012816,0.20941
-0.018199,-0.007303,0.41902,-0.26086,-0.030997,-0.0028792,-0.0072235,-0.052229
0.073927,-0.12212,-0.25502,-0.14152,-0.051656,-0.059885,-0.0090929,0.2957
0.10558,0.23987,-0.12862,0.11691,0.053495,0.0013956,0.012984,-0.21474
-0.20616,-0.29107,-0.31301,0.0059744,-0.0046058,-0.045354,-0.065811,-0.012587
0.019879,0.24402,0.067247,0.11142,0.086381,0.11254,0.067191,-0.1209
0.047799,-0.10916,0.084645,0.081863,-0.0098237,-0.040499,-0.041031,-0.031746
0.024847,-0.0072299,0.32034,-0.14479,-0.059334,0.011006,0.01575,0.28599
0.14557,-0.027959,0.1991,-0.028952,-0.015821,-0.006721,0.042038,0.011633
-0.19969,0.14204,0.23861,0.10186,0.010844,0.023,0.014058,-0.16786
-0.018448,-0.12104,-0.45867,0.0060698,0.067195,0.052703,0.04856,-0.026545
-0.03651,0.020069,-0.19756,-0.14386,-0.12814,-0.16037,-0.15177,-0.041603
0.036378,-0.089643,-0.30698,-0.081772,0.026524,0.070813,0.037705,0.028612
0.10791,0.33998,0.5323,0.29427,0.054932,-0.019637,-0.0081746,0.035242
0.14839,-0.11984,0.16301,-0.031213,0.027837,0.052581,0.030935,0.11864
-0.20006,-0.13241,-0.67359,-0.24585,-0.054287,-0.040547,-0.024438,0.036505
-0.061122,-0.18929,0.31065,0.048353,-0.0035099,0.0059094,0.044797,-0.02354
0.0037614,0.17095,0.34912,0.17096,0.063321,0.043816,0.0046439,-0.26426
0.003093,0.050152,-0.3172,0.10545,-0.0020063,-0.0046372,-0.011735,0.041503
0.069904,0.057634,0.52128,0.046195,-0.050936,-0.006358,0.019369,0.066381
-0.08521,-0.12747,-0.39463,-0.50758,-0.020947,-0.0705,-0.05813,0.037668
0.23213,0.13432,-0.3395,0.084301,-0.013666,0.014017,0.01363,0.049613
-0.1905,-0.23677,-0.11089,0.1733,-0.021432,0.059746,-0.0076127,0.024181
0.051293,0.21813,0.36142,0.056577,0.018003,-0.073984,-0.02831,-0.05466
-0.0054186,0.098446,0.47634,0.32061,0.19806,0.10487,0.084026,-0.0080845
-0.01089,-0.082016,-0.20269,-0.3698,-0.0050895,-0.0054526,0.032087,0.069003
-0.052412,-0.11338,-0.66653,-0.22475,-0.21676,-0.04581,-0.075244,-0.090232
0.20529,0.090341,0.33639,0.084753,0.00034415,-0.032002,-0.0040794,0.099134
-0.20638,0.022744,0.39374,0.3955,-0.0021771,0.074956,0.049875,-0.13696
-0.11465,-0.29005,-0.38333,-0.20581,0.057179,-0.1702,-0.11674,-0.095498
0.10701,0.046227,0.10837,-0.062375,0.0069687,0.08424,0.042936,-0.018322
0.02292,0.14494,-0.07509,-0.033232,0.10551,0.12756,0.13066,0.37655
0.17394,0.14252,-0.20628,0.076987,-0.092054,-0.094723,-0.12661,-0.11306
-0.063449,-0.060147,0.34006,-0.0053798,0.00056619,0.089423,0.060746,-0.0095659
-0.11801,-0.11853,-0.014663,0.055109,-0.053969,-0.1168,-0.041013,-0.04637
-0.028496,-0.057294,-0.013799,-0.10947,0.09587,0.013163,-0.009356,-0.19133
0.16577,0.15171,-0.0809,-0.085997,-0.13609,-0.052003,5.6517e-05,0.040648
-0.20779,0.10552,0.32121,0.1167,0.01538,0.062582,0.011106,0.1266
0.17799,0.07238,-0.37949,0.11479,0.12787,0.0052101,-0.015035,-0.1599
0.0018132,0.055215,0.11265,0.11058,0.10705,0.11949,0.11694,0.46212
-0.073078,-0.38709,-0.36699,-0.21672,-0.11788,-0.10248,-0.10102,-0.25797
-0.054983,-0.092063,0.2598,0.00017504,-0.094071,-0.01222,0.002556,-0.1648
0.18883,0.089463,-0.014321,-0.23027,-0.048056,-0.015736,0.020951,0.13139
-0.26323,-0.073991,0.28771,0.26503,0.090862,0.012431,0.0084076,0.044003
0.065961,0.22663,-0.10735,-0.028048,-0.0047763,-0.036453,-0.058836,-0.14593
0.020728,-0.042871,-0.1373,-0.022134,-0.021693,-0.021051,0.022186,0.20248
-0.0079247,0.012434,0.1893,-0.020914,0.048608,0.020185,-0.0063406,-0.40226
0.12843,0.059477,-0.11294,0.038361,-0.035671,0.071958,0.011946,0.23607
0.030871,0.044509,-0.091749,-0.016844,0.037931,-0.0064452,0.0068785,0.11057
0.042308,-0.080372,-0.20846,0.10885,-0.0045128,0.04223,0.017625,-0.0047587
-0.11169,0.049441,0.3421,0.14776,0.078339,-0.025166,0.020757,0.007373
-0.080384,0.11807,-0.21981,-0.25381,-0.050456,-0.084834,-0.054143,-0.033163
-0.075105,-0.11213,0.81163,-0.0038322,-0.032434,0.072949,0.05054,-0.033489
0.076215,-0.15129,-0.58323,0.053129,-0.032239,-0.045009,-0.048247,-0.06502
-0.031925,-0.133,-0.22005,-0.22321,-0.057777,-0.0018167,0.016458,0.1446
0.054716,0.05298,-0.21889,0.067065,0.00074551,-0.024171,-0.044571,-0.26484
0.15764,0.073002,0.08874,0.17629,0.12854,0.091382,0.096719,0.30777
-0.16748,0.15664,0.088523,-0.088184,-0.079629,-0.16229,-0.11435,-0.12974
0.072088,-0.083829,0.19471,0.10421,0.072541,0.15318,0.08013,0.016837
-0.037708,-0.021388,0.11498,0.005151,-0.047072,-0.03168,-0.022861,-0.14236
-0.075486,-0.014879,-0.13416,-0.21293,0.014921,-0.0052765,0.014305,0.15924
0.09852,0.18456,0.2186,0.23837,0.039558,0.037433,0.012054,0.071005
0.077048,0.043076,0.26326,-0.095838,-0.05972,-0.067601,-0.013886,-0.039114
-0.12518,-0.19283,-0.081636,0.047575,0.020895,0.015284,-0.016539,-0.28007
0.030336,0.035774,-0.35585,0.0096345,-0.024222,-0.011241,-0.027037,0.26224
0.035754,0.10114,-0.5321,-0.040158,0.030709,0.055474,0.0407,-0.21728
-0.069303,-0.14638,0.23501,0.12327,0.052422,0.074483,0.038404,0.45251
-0.0025007,-0.14356,-0.078499,-0.32065,-0.13878,-0.094862,-0.072812,-0.033969
-0.12183,0.14345,0.36719,0.12141,0.035664,-0.10063,0.0040901,-0.37292
0.12095,-0.21888,-0.1013,-0.056085,0.021898,0.081353,0.058287,0.052265
0.023671,0.023939,0.092574,0.10304,-0.0071612,-0.055711,-0.042992,0.022644
0.055373,0.21962,0.0072542,0.023803,0.027674,-0.026412,-0.026365,-0.10216
-0.0032631,0.21444,-0.092185,-0.072441,-0.028975,0.029432,-0.0091755,0.037742
0.03391,-0.077025,0.28838,0.081443,0.057792,0.16684,0.12553,0.27102
0.047832,0.054548,-0.049789,0.09493,0.038066,-0.012928,-0.028761,-0.13636
-0.11974,-0.12854,0.01047,-0.056751,-0.065049,-0.0029372,-0.0035313,0.12029
-0.048578,-0.052431,0.16942,0.092645,-0.002229,-0.10139,-0.087967,-0.053113
-0.0052821,-0.23704,-0.63916,-0.2882,-0.094676,-0.044146,-0.032045,-0.086737
-0.13058,0.2048,0.10549,0.07866,0.031647,-0.027847,-0.0074807,-0.0904
0.12313,0.028806,-0.057677,0.065395,0.094579,0.06375,0.056274,0.052897
0.12432,-0.17953,0.030859,-0.072118,-0.00038164,0.089622,0.12037,0.022995
-0.04737,0.29173,0.53419,0.18877,0.035321,-0.043814,-0.041653,-0.17182
-0.023341,-0.039643,-0.13927,-0.049945,-0.056321,-0.085897,-0.07828,0.23473
0.033351,-0.28037,-0.35224,-0.26337,-0.064217,0.042489,0.025916,0.094891
0.0060214,0.087803,-0.34899,0.027269,-0.026949,-0.040355,-0.034034,-0.043891
-0.011562,0.19978,0.80611,0.28544,0.079648,0.08064,0.061894,-0.12653
0.011516,0.064546,-0.24896,-0.15835,-0.032664,-0.070384,-0.061526,0.050338
-0.081491,-0.10681,0.11458,0.11181,0.04311,0.092787,0.040909,-0.036559
0.044876,-0.088485,-0.14029,-0.06713,-0.012851,0.0074723,-0.021405,-0.15274
-0.070662,0.032196,0.12744,0.062763,0.026139,0.0090629,0.025104,0.20968
-0.0063968,0.042729,-0.2941,-0.16328,-0.058943,-0.043813,-0.03029,0.027232
0.12825,-0.073841,0.13248,0.17532,0.075044,-0.034704,0.023577,-0.098735
-0.080805,0.0020562,-0.18849,-0.17303,-0.025818,-0.057908,-0.024053,0.011011
0.046042,0.10641,0.21013,0.079191,-0.01856,-0.058984,-0.040284,0.043232
0.016398,-0.095834,0.25706,0.016712,0.041576,0.18088,0.10765,-0.0030467
0.0018322,-0.048403,-0.13376,0.10764,-0.064317,-0.0098768,-0.010098,-0.089881
0.025454,0.00070528,-0.12559,-0.10891,-0.023406,-0.0058297,-0.018773,0.12538
-0.077037,0.14729,-0.24812,-0.077485,0.04793,-0.03308,-0.051422,0.040299
-0.071303,-0.18505,0.2272,0.039183,0.0024034,0.057212,0.071489,-0.14247
0.027243,0.12973,-0.47113,-0.093169,-0.072781,-0.10965,-0.071911,-0.016582
0.054992,0.052764,0.54883,0.10525,0.0031792,-0.033459,-0.043934,0.12968
0.020364,0.0052664,0.19351,-0.028315,0.059109,0.11398,0.093264,0.0086374
0.13494,-0.0063347,-0.030427,0.20991,0.071678,-0.0033008,-0.011446,-0.11223
-0.24134,-0.030712,0.22629,-0.12555,0.032527,0.036444,0.017365,-0.21528
0.055944,0.024008,-0.39092,0.16753,0.018681,-0.048243,-0.023099,0.22477
-0.059058,-0.37509,-0.54136,-0.42798,-0.26036,-0.14042,-0.070172,-0.0095617
0.10875,0.18477,0.20207,0.1018,0.1236,0.15812,0.1183,0.2618
0.082316,0.31212,0.25949,0.21609,0.08339,-0.066863,-0.059455,-0.13362
-0.076583,-0.16546,-0.20601,-0.031805,-0.13181,0.098594,0.036851,-0.15046
0.014087,-0.084197,0.63336,0.021303,0.087127,0.04515,0.047472,0.076345
-0.021348,0.18855,-0.40207,-0.14046,-0.072016,-0.18013,-0.14509,-0.072685
-0.019232,-0.12854,0.18803,-0.087071,-0.030388,0.040276,0.052761,0.20509
-0.073347,0.034917,-0.025427,0.10418,0.19739,0.027174,0.0082336,-0.2714
0.035393,-0.12551,-0.33823,0.059395,-0.04383,0.015466,0.041845,0.10669
0.0029046,0.10943,0.0012568,-0.017185,-0.13581,-0.080329,-0.072657,-0.027411
0.033,-0.048603,0.042138,0.039441,0.031712,0.013456,-0.0068319,0.022821
0.016874,0.018508,0.03698,0.097063,0.099972,0.08576,0.052025,0.063791
0.048563,0.085217,0.22272,-0.20346,-0.11039,0.026667,0.017979,-0.097952
0.0030035,0.0040762,0.085848,0.1378,0.056888,0.014931,0.015781,-0.01547
-0.081129,-0.26314,-0.46606,-0.25445,0.023366,-0.0053266,0.021513,0.14043
-0.0091074,0.14352,0.247,0.11937,-0.14906,-0.14474,-0.1139,-0.13774
0.093454,0.154,0.01336,0.13383,0.11686,0.040925,0.038544,0.32923
-0.016114,-0.044345,0.25331,0.030719,0.023206,0.019665,0.0016791,-0.35821
-0.16618,-0.061315,-0.21498,-0.080916,0.029793,0.025573,0.0094499,0.064054
0.057365,-0.022579,-0.26879,-0.068462,0.073058,0.0041449,0.046043,0.016285
0.029752,0.039862,0.19923,0.060224,-0.19159,0.010654,-0.021285,0.075252
-0.014292,-0.077809,-0.11706,-0.1713,-0.053691,-0.094665,-0.090659,-0.15836
0.11306,0.022325,0.32074,0.21377,0.049217,0.040728,0.025912,0.080825
-0.00984,0.011854,-0.18255,-0.10454,0.047244,0.027157,0.039966,0.097897
0.039033,0.031383,-0.12603,0.10849,0.13652,0.060744,0.038068,-0.082729
-0.099551,0.049904,0.35903,0.07976,-0.017765,0.0014788,0.012997,-0.037797
0.051238,0.060093,-0.452,-0.081003,-0.078375,-0.0017593,-0.0034643,0.031122
-0.078434,-0.12484,0.443,-0.20154,-0.15331,-0.081455,-0.049906,-0.00732
-0.14413,-0.082131,-0.47749,0.070131,0.086839,-0.010756,-0.01652,0.11361
0.050221,-0.060844,0.24889,-0.015539,-0.013104,-0.0081174,-0.012285,-0.26962
0.11462,0.18988,-0.017894,0.088686,0.039707,-0.057631,-0.044687,0.10059
0.080523,-0.040327,0.081041,0.25797,0.13602,0.20027,0.12865,0.059241
0.056966,0.076793,-0.11223,-0.30468,-0.091793,-0.15626,-0.086047,0.15163
-0.12107,-0.11544,-0.15515,-0.084109,0.011526,0.083433,0.068724,0.039951
0.11533,0.1164,0.72222,0.1298,-0.031921,0.043796,0.045489,0.050539
-0.22761,-0.088457,-0.64002,-0.046843,-0.051738,-0.065063,-0.094097,-0.32563
0.15343,0.018416,0.075243,0.087812,0.067886,0.021501,0.0083595,-0.14356
-0.047191,0.068292,0.20979,0.0012245,-0.064754,-0.017817,0.031567,0.26154
-0.17352,-0.22134,-0.26007,-0.026479,-0.012825,-0.11355,-0.087808,-0.43691
