0.17426,-0.10718,-0.02054,0.00071259,0.011739,0.083746,-0.42073,-0.019772
-0.5662,0.018628,-0.1029,-0.0013803,0.015898,0.056467,-0.42464,-0.63005
0.071474,-0.14681,0.18821,-0.0098692,0.012902,0.068708,-0.20455,0.45756
-0.068047,-0.027849,-0.0032845,0.0063936,-0.067133,-0.24496,0.35079,-0.37515
0.10139,0.10099,0.037542,0.070699,0.088631,0.18735,0.5881,0.20668
-0.20991,-0.4551,-0.61509,-0.22338,-0.14462,-0.21141,-0.36572,-0.096353
0.25442,-0.014698,0.56525,0.19424,0.11591,0.1998,0.20674,0.38232
0.46103,0.5808,0.15799,0.010794,0.034036,0.076791,-0.21617,0.17309
-0.63938,-0.11187,-0.025273,-0.047487,-0.078247,-0.21456,-0.33321,0.41241
0.47442,-0.076033,-0.08924,0.026836,0.028383,-0.0043964,0.73023,-0.81252
-0.67551,0.094126,-0.046689,-0.047853,0.0015785,0.23603,0.0017922,-0.43114
0.48881,0.11554,0.15117,0.025015,0.028076,-0.034893,0.16447,0.53402
-0.35152,0.10269,-0.18884,0.010882,0.021331,0.086958,-0.19851,-0.32031
0.65785,-0.2441,0.15551,-0.059026,-0.097115,-0.24346,-0.18722,0.97274
-0.76058,-0.41115,0.096231,0.073247,0.0086908,-0.065347,-0.26298,-0.50726
0.10026,0.093288,-0.57698,-0.076385,-0.020248,-0.14325,-0.62313,-0.92001
-0.13139,0.1222,0.037526,0.023704,0.027691,0.032778,-0.2179,0.33464
0.30398,0.43658,0.22599,0.09266,0.098706,0.54359,0.59857,0.26378
0.85909,-0.068536,-0.21694,-0.048852,0.0062453,-0.24074,0.89291,0.67841
-1.1093,-0.39608,0.4479,-0.04902,-0.11599,0.033846,-0.71786,-0.73748
0.69112,-0.018152,-0.042245,-0.009299,-0.0094897,-0.052697,0.93143,0.69734
-0.28392,-0.080074,0.13316,0.031199,0.03713,-0.16349,-0.18866,-0.36991
-0.24264,0.40357,0.253,0.025386,0.00053268,-0.087589,-0.19944,-0.059837
-0.08723,-0.31096,-0.51514,0.019777,0.021071,0.21318,-0.42073,-0.16605
-0.084894,0.092498,-0.15294,-0.10328,-0.034705,-0.13784,-0.00024745,-0.052453
0.40584,0.52171,0.13961,0.077589,0.051006,0.34143,0.27736,0.01177
-0.088457,-0.10884,-0.062593,0.077544,0.042697,0.10938,-0.2413,0.39967
0.51526,0.053183,-0.1279,-0.15062,-0.08422,-0.55524,-0.09273,-0.49832
-0.55837,-0.60683,0.2806,0.10391,0.036467,0.36906,-0.087662,0.25657
-0.32684,-0.098894,-0.006208,-0.096223,-0.04899,-0.40791,-0.68021,-0.067836
0.0039403,-0.21846,-0.32038,-0.055329,-0.02824,0.23875,0.22434,-0.24262
0.10125,0.59394,0.56111,0.18815,0.036583,-0.072855,0.68787,0.43722
0.37197,-0.26396,-0.092171,-0.044725,0.021311,-0.075443,0.56449,0.25376
0.47796,0.51271,-0.034899,0.074992,0.12243,0.72528,0.47534,-0.434
-0.14033,-0.31877,-0.44474,-0.1785,-0.15873,-0.46535,-0.058804,0.30989
-0.55214,-0.2141,0.038471,-0.038934,-0.055246,-0.31722,-0.91285,-0.26687
0.12568,0.82913,0.40649,0.079988,0.058914,0.03841,-1.0111,-0.6123
-0.67632,-0.72098,0.017152,-0.0013914,-0.042226,-0.092877,0.84718,0.73184
0.4426,0.085418,-0.19453,0.075902,0.11791,0.74214,-0.025329,-0.27601
0.43998,-0.20995,-0.15357,0.0063503,0.054329,-0.47294,-0.41423,0.096421
0.064688,0.29325,0.43346,0.015344,-0.038776,-0.060015,0.46077,0.4569
-0.51035,0.058146,-0.56962,-0.07033,-0.030049,0.18191,0.32772,-0.48451
0.26474,0.25229,0.50618,-0.017565,-0.07723,-0.069815,-0.52176,0.37396
-0.30847,-0.45473,-0.27868,-0.014823,0.021563,0.034264,0.8756,-0.075392
0.51822,-0.25807,0.27019,0.031164,-0.023496,-0.16361,-0.57276,-0.3448
0.12685,0.13382,-0.15153,-0.0045186,0.013977,-0.062545,-0.0077121,-0.27294
-0.11557,0.42058,-0.17501,-0.06656,0.025013,0.033039,-0.47764,0.052727
-0.70141,-0.22841,0.24943,0.088276,0.072988,0.34296,0.99192,0.43575
-0.10813,0.098256,-0.50745,-0.023093,-0.075304,-0.099885,-0.62435,0.31171
0.23188,-0.37666,0.37065,0.077244,0.011096,-0.22326,0.4773,-0.65914
0.39124,0.2707,0.043474,-0.046983,0.028677,0.13876,-0.53065,0.10261
0.0013946,0.20387,0.35743,-0.058857,-0.11539,-0.50446,-0.69287,0.36072
0.25221,-0.14267,-0.45161,0.057891,0.1029,0.70746,0.99419,-0.2568
-0.23258,0.24948,0.34317,-0.04023,-0.0038472,-0.11575,-0.59037,0.45397
0.27771,-0.21175,-0.61846,-0.040863,-0.0062619,0.07254,0.53389,0.016203
-0.19004,-0.21991,0.36493,0.11013,0.087139,0.16227,0.92444,-0.57002
-0.16229,0.22803,-0.11516,-0.088176,-0.11524,-0.73018,-0.90956,-0.27175
-0.34998,0.067043,0.38404,0.089541,0.018324,0.19909,-0.42141,0.36056
-0.24113,-0.44482,-0.49168,-0.12379,-0.11478,-0.238,-0.12029,-0.48628
0.3446,0.070416,0.19263,0.098468,0.1408,0.69239,0.36656,0.96325
0.27876,0.22734,0.036155,-0.010679,-0.012452,-0.065064,0.036421,-0.052271
0.09944,0.14957,0.22438,0.063385,0.011084,-0.52688,-0.16056,-0.53511
-0.26353,-0.23452,-0.48644,0.054555,0.10986,0.55576,0.26481,0.23958
0.51013,0.36951,0.090267,-0.21668,-0.13763,0.17377,0.38798,-0.10514
-0.14311,-0.55067,0.42306,-0.015088,-0.051004,-0.56454,-0.17577,0.16233
-0.26475,0.036757,-0.38583,-0.12054,-0.098067,-0.11279,-0.54423,-0.087181
-0.58526,0.28577,0.37617,0.23428,0.15191,0.14653,0.29151,-0.39882
0.36671,0.22275,-0.2649,0.0041195,-0.026662,-0.066613,-0.49377,0.094123
0.7802,-0.22143,-0.32902,0.15903,0.20287,0.57002,1.0027,0.44346
-0.69572,0.28187,0.78949,0.0044549,-0.096623,-0.3006,-0.97199,0.23783
0.35297,-0.14889,-0.92858,-0.28753,-0.14391,-0.20734,-0.17144,-0.68577
-0.089967,-0.43236,0.72369,0.064059,0.0059915,-0.31225,0.29726,0.50896
-0.53349,-0.070296,-0.57923,-0.10545,0.063492,0.67508,0.26151,-0.14577
0.16906,0.14182,0.20242,0.093796,-0.034507,-0.19803,0.61571,-0.10796
0.34318,-0.034082,0.0045573,0.18443,0.14894,-0.049288,0.3452,0.5973
-0.15551,0.38453,0.68251,-0.037481,-0.1288,0.16687,-0.55042,-0.92614
-0.12891,-0.21292,-0.71508,-0.14293,0.014848,0.089229,-0.43023,0.46079
0.21362,0.10149,0.24998,-0.069941,-0.11551,-0.51856,-0.15839,-0.47476
0.25582,0.12928,0.18016,0.16554,0.10519,0.10741,-0.80583,-0.28453
0.22539,-0.11906,0.038984,0.0087916,0.04429,0.10653,0.54536,0.29134
-0.633,0.06811,-0.43369,-0.047778,-0.032422,-0.092152,0.87924,0.21262
0.20913,-0.30243,-0.27562,0.011933,0.086087,0.58931,-0.39636,0.58242
-0.25543,-0.022037,0.26032,-0.12391,-0.16267,-0.72393,-0.092546,0.021431
-0.35056,0.046848,-0.36506,0.10792,0.13533,0.42158,0.31344,0.27789
0.43896,0.47119,0.68531,0.051881,-0.066875,-0.1145,-0.51837,-0.45017
0.044442,-0.61946,-0.11146,-0.12747,-0.066243,-0.26943,0.86519,-0.20743
-0.079007,0.36582,-0.077416,-0.00026216,0.035618,0.20688,-0.18763,-0.4502
0.06154,-0.075136,0.055599,0.113,0.035561,0.11128,-0.83862,-0.2472
0.32356,0.30644,0.20796,0.071126,0.050779,0.060923,0.57772,0.50286
0.10798,-0.50528,-0.36768,-0.048575,0.065665,0.19646,-0.061614,-0.0070699
-0.59404,0.17812,0.20371,-0.082947,-0.15411,-0.38025,-0.3468,0.17028
0.033813,0.092875,0.27271,-0.032771,-0.038171,-0.35606,0.32157,-0.047006
0.42307,-0.45387,-0.14529,0.031156,0.022953,0.12154,-0.40052,-0.38182
0.0045107,0.44671,-0.45447,-0.024077,0.029341,0.25677,-0.066723,0.26074
-0.079739,-0.047045,-0.1807,0.043993,0.074771,0.32399,0.86346,0.82322
-0.4285,0.13624,0.1694,0.0015343,0.026364,-0.066913,-0.10122,-0.34214
-0.63114,-0.43348,0.045482,-0.010179,-0.11605,-0.17378,-0.57803,-0.26967
0.60735,0.24976,0.32886,0.017243,0.061345,-0.13782,0.463,0.081916
0.7706,0.096907,0.018629,-0.040828,-0.074523,-0.15526,-0.29271,-0.4344
-0.055635,0.20577,-0.0040421,0.042262,0.030839,0.014953,-0.25365,0.31632
-0.44945,-0.12259,-0.062887,0.039781,0.049246,0.25446,0.57085,-0.60737
0.22225,0.070231,-0.26516,-0.0017364,0.035516,0.46844,0.21989,0.2613
-0.30534,-0.34144,0.27182,0.01111,-0.033439,-0.4221,-0.069924,0.46107
-0.038163,-0.44973,-0.18051,-0.13281,-0.11799,-0.33177,-0.82527,-0.15598
0.20675,0.50697,0.57781,0.066584,0.056002,-0.1201,-0.39893,-0.26909
-0.26108,0.15118,-0.51931,-0.038713,0.020577,0.49441,0.41199,0.91841
0.017542,-0.28475,0.13421,0.07543,0.018615,-0.21421,0.36467,-0.36801
0.26023,0.37602,-0.88609,-0.097986,0.034972,0.65328,0.72996,-0.32535
0.043691,-0.15252,0.49617,0.027694,-0.070827,-0.75376,-0.64632,-0.25998
-0.14257,-0.36217,0.67829,0.038813,-0.017762,-0.19219,-0.062528,0.030195
-0.10812,0.43993,-0.32493,0.021242,0.092006,0.56555,0.73443,0.43592
-0.048236,0.08485,0.18885,0.068147,-0.00020436,-0.28416,-0.87947,-0.48657
0.18234,0.27717,-0.29678,-0.055864,0.017112,0.54881,0.13515,0.59371
-0.32899,-0.18489,-0.040227,-0.00047161,-0.075734,-0.47353,-0.07219,0.11037
0.58076,-0.43155,0.45074,-0.048123,-0.076339,-0.37361,-0.43618,-0.63529
0.42475,-0.37969,-0.36188,0.065934,0.10865,0.41187,0.62631,0.22834
-0.57288,0.17394,-0.19456,-0.12741,-0.075482,-0.022969,-0.36213,-0.49033
-0.24867,0.47445,-0.23917,0.051765,0.09808,0.0012376,0.71621,0.32048
0.16564,-0.17647,0.38337,-0.044268,-0.057714,0.030168,-0.36413,0.49725
-0.40909,0.19547,0.16925,0.038612,0.020119,-0.16488,-0.43029,-0.094353
0.046002,-0.25639,-0.13629,0.027951,-0.019597,0.42881,0.82287,0.0032152
-0.18108,-0.044474,0.0071771,-0.0052412,-0.020415,-0.23111,-0.47988,-0.13655
0.48887,0.29305,0.18485,0.10333,0.056707,-0.046141,-0.45638,-0.29196
0.36992,0.028199,-0.27797,-0.037255,0.031881,0.04403,0.67387,0.24386
0.11116,0.12647,0.18461,-0.029233,0.029834,-0.023842,-0.13619,0.43726
0.21133,-0.056827,0.083017,-0.0062709,-0.074644,-0.10809,-0.0028703,-1.0713
-0.76287,-0.34578,-0.15024,-0.086299,-0.078434,-0.13562,0.37325,0.28252
-0.29394,-0.13343,0.098292,0.15218,0.073423,0.36649,-0.15965,0.65066
-0.39783,0.095401,-0.22004,-0.16573,-0.079471,-0.40951,-0.86092,-0.55672
0.50894,-0.063961,-0.15153,-0.0081418,0.065139,0.3533,0.32378,0.37464
0.1796,0.094731,0.24412,0.047788,-0.031139,-0.32631,-0.13714,-0.46776
0.69354,0.17679,-0.17715,-0.012471,0.014947,0.21684,-0.011108,0.032377
0.097323,0.16212,-0.050927,0.14014,0.13315,0.16112,0.70481,0.85589
-0.67238,-0.30661,0.54931,-0.040731,-0.067547,0.073299,-0.099984,-0.47944
-0.060928,0.24735,-0.13875,0.023079,0.021496,0.12006,0.61573,0.37901
-0.38642,-0.41994,-0.31677,-0.16891,-0.13974,-0.43873,-1.009,-0.53599
0.48176,0.53974,0.56939,0.17152,0.11969,0.087127,0.63922,0.18532
-0.43902,-0.10447,-0.77157,-0.058173,-0.036839,-0.14175,-0.84188,-0.53628
0.55197,-0.28651,0.21173,-0.038604,-0.01584,0.18609,-0.07921,0.51273
-0.060417,0.021468,0.33598,0.018642,-0.02024,-0.30287,0.97581,-0.47419
-0.23522,-0.096261,0.082355,-0.042952,-0.057218,0.090261,-0.46756,-0.0046079
-0.11127,0.2436,-0.49656,0.034566,0.13196,0.26099,-0.44559,0.17214
0.077265,0.10635,0.24697,0.025111,-0.029811,-0.090268,0.0091679,0.18026
0.46057,0.12962,-0.22527,0.038734,0.05994,0.2127,0.53837,0.45361
-0.33462,-0.5866,-0.067516,-0.1348,-0.14504,-0.30384,-0.29367,-0.15562
0.096124,0.16754,0.29328,0.083185,0.066427,0.27517,0.76407,0.092229
0.31838,-0.37531,0.094217,-0.017957,0.014467,-0.23078,-0.53148,0.052046
-0.57289,0.40628,0.017056,0.022654,0.003224,0.082367,-0.39469,-0.42153
0.37617,0.17784,-0.3825,0.0484,0.024091,0.047623,0.75434,-0.14431
-0.10633,0.1563,0.49691,0.058709,-0.0019275,-0.1114,-0.58485,-0.46081
-0.18113,0.36017,-0.11939,-0.095459,-0.01309,0.048267,0.12463,0.099682
-0.39732,-0.4911,-0.30365,-0.055165,-0.025508,0.033186,0.028036,0.46297
0.38558,-0.20224,0.16857,-0.062722,-0.062729,-0.11762,-0.26121,0.039797
0.14536,0.024468,0.27192,0.15555,0.078638,-0.02027,0.38577,0.26321
-0.33511,0.10618,-0.56527,-0.14982,-0.085223,-0.12617,-0.28504,0.056006
0.6796,-0.36505,0.023386,0.068738,0.071358,0.28524,0.38647,-0.16213
-0.10756,0.14335,0.17035,0.061816,0.025531,-0.14414,-0.36921,-0.068252
-0.33874,-0.15411,0.094183,-0.014006,-0.019257,0.19529,0.15518,-0.19302
0.10076,0.16127,0.013357,-0.0025524,0.022882,-0.04118,-0.12951,-0.14597
0.052035,0.68752,0.53677,0.041,-0.0047286,0.027214,0.28994,0.37826
-0.11179,-0.41633,-0.54704,-0.056031,0.022208,0.069716,-0.087533,0.35909
0.35907,0.092553,-0.08991,-0.013339,-0.037743,-0.072476,0.37935,-0.37709
-0.43961,-0.27943,0.017999,0.08228,0.025649,-0.20584,-0.40822,-0.46901
-0.44893,0.050714,-0.10466,-0.176,-0.084919,-0.073077,-0.38295,0.018338
0.12614,0.22794,0.20091,0.071043,-0.0022963,0.006404,0.14127,0.084957
0.62047,-0.21169,-0.11652,0.050267,0.016076,-0.035567,-0.64888,0.29434
0.18878,0.11303,-0.029677,0.012383,0.095896,0.42105,0.97943,0.31861
-0.38293,-0.26633,0.30881,-0.018189,-0.058836,-0.16773,0.1397,-0.46156
0.032756,-0.089638,-0.20765,-0.016928,0.0058879,-0.041744,-0.35466,0.041871
0.068378,0.31886,0.08646,-0.068778,-0.037336,-0.066846,0.55621,-0.0011926
-0.044511,-0.14559,-0.17625,0.061361,0.061937,0.22594,-0.15681,0.1613
-0.013946,0.013592,0.12728,0.069129,-0.00087269,-0.03137,-0.28247,0.18491
-0.50251,0.09639,-0.13925,-0.076861,-0.038489,-0.13708,0.077878,-0.0025115
0.38906,0.17429,0.48038,0.075938,-0.0045293,-0.20223,-0.46463,-0.073872
0.060189,-0.26158,-0.51141,-0.012446,0.069104,0.26389,0.024271,-0.41033
0.41122,0.22321,-0.041992,-0.046198,-0.060462,-0.091245,0.18526,0.33761
-0.24165,0.069558,0.2978,-0.01852,-0.026632,-0.049228,0.068351,-0.58516
-0.14223,-0.35234,-0.11294,-0.039568,0.045189,0.24959,0.22572,0.26595
0.41406,0.2581,0.19248,0.085551,-0.032654,-0.24876,-0.11768,0.1668
-0.6306,-0.12514,-0.16878,-0.0025446,0.068061,0.11291,-0.21382,-0.027418
-0.35466,-0.28376,-0.23367,-0.037851,-0.066419,-0.12547,0.29318,-0.18909
0.086998,0.15894,0.14253,-0.035314,-0.04502,-0.018028,-0.1336,0.2829
0.078663,0.089254,0.22335,0.11529,0.085866,0.25562,0.23986,0.32899
0.64357,-0.082143,-0.047057,-0.06953,-0.024898,-0.11753,-0.28434,-0.49039
0.37989,0.20391,-0.20098,-0.018711,0.029217,-0.0057074,-0.26515,0.40417
-0.15731,0.22444,-0.10744,0.096401,0.060807,0.19912,0.71427,0.17495
-0.72943,-0.43259,0.042523,-0.18492,-0.1646,-0.43413,-0.51502,-0.47002
0.39127,0.20951,0.14925,0.0981,0.063699,0.29648,0.58224,-0.055949
-0.52225,-0.43701,0.032179,0.046545,0.01097,-0.21129,-0.67565,-0.33951
0.70922,0.39008,0.00022201,-0.0044093,0.012773,0.050226,-0.35104,0.37991
-0.55403,0.03008,0.75863,0.11622,0.037501,0.21426,0.69106,-0.044178
0.074096,0.25171,-0.69936,-0.13147,-0.047943,-0.18707,-0.27995,-0.13721
0.11544,-0.30075,-0.38032,-0.13094,-0.017166,0.11295,0.54523,0.53108
0.11817,0.026218,0.13248,0.039401,-0.010828,-0.071949,-0.57886,-0.23318
0.023628,-0.30715,0.00018049,0.043706,-0.021014,-0.092181,0.17963,-0.48418
-0.029709,0.27108,-0.074452,0.038681,0.046239,0.061072,-0.31753,0.16667
0.12885,0.24123,0.51205,0.1891,0.12874,0.34174,0.89143,0.38548
-0.72062,-0.86022,-0.37746,-0.21511,-0.11689,-0.33552,-0.49879,-0.14237
0.36503,0.58961,-0.043473,-0.040261,-0.026166,-0.024971,-0.02122,0.10835
-0.126,-0.0059055,0.26024,0.034781,-0.0048664,-0.015443,-0.20167,0.44916
0.61236,-0.049897,0.16194,0.026286,-0.005663,0.01342,0.051076,-0.31731
0.49285,0.4738,-0.0081156,0.044013,0.018703,-0.0089272,-0.0075489,-0.16876
-0.81641,-0.42923,-0.5146,-0.11513,-0.033119,0.16692,0.065714,-0.25202
-0.5007,-0.021369,0.11898,0.040696,0.018511,-0.13191,0.026895,-0.28817
0.68344,0.44923,0.18077,0.096662,0.071654,0.19476,-0.25061,-0.017586
-0.63793,-0.43762,-0.15103,-0.0029886,0.00062482,-0.2531,0.54424,0.15867
0.44295,0.063144,0.30911,0.013939,0.054509,0.35888,0.35552,0.45084
-0.35281,-0.41064,-0.73019,-0.18189,-0.1583,-0.41587,-0.91122,-0.032182
0.39232,0.2582,0.65816,0.041347,0.0019881,-0.015521,0.14262,0.22348
0.69886,0.28329,0.34652,0.20654,0.097314,0.25527,0.19024,-0.020416
-0.38731,-0.11957,-0.45655,-0.17071,-0.083384,-0.094922,-0.11737,0.11281
-0.33349,-0.26463,0.020613,0.042908,0.046147,0.06021,0.04362,-0.45502
-0.21348,0.11984,-0.33993,-0.096921,-0.021216,-0.13705,-0.22131,-0.34989
-0.11375,0.23423,0.11081,0.028271,-0.0032881,0.07278,0.22418,0.27074
-0.1105,-0.13707,0.37469,0.052657,-0.0084447,-0.090123,-0.10195,-0.43004
0.46354,0.11603,0.025022,0.10242,0.073575,0.15641,0.31638,0.4767
-0.20117,0.054335,-0.28605,-0.13413,-0.030045,0.10956,-0.038163,0.39636
0.22443,-0.33367,-0.2578,0.046406,0.0090827,-0.035684,-0.1225,-0.18016
0.54257,0.53301,0.31627,0.026564,-0.043543,-0.21765,-0.012202,0.049911
-0.93318,-0.5384,0.086897,-0.092865,-0.016526,-0.054661,-0.0021559,0.060731
0.46573,0.18962,-0.10917,0.069816,0.019076,0.045789,-0.36324,-0.54868
0.12278,-0.075379,0.24282,0.028969,0.046743,0.1294,0.72125,0.23517
-0.5969,-0.28043,-0.37512,-0.083782,-0.0047321,0.0077069,-0.13257,-0.24532
0.4596,0.59006,0.40075,0.082231,-0.0032854,0.18006,-0.28993,0.15809
-0.015547,-0.41563,-0.11297,0.0031323,0.0037441,-0.20532,0.058845,0.68071
-0.48483,0.29859,-0.20863,-0.094402,-0.054037,-0.015351,-0.32103,-0.28487
0.59192,0.016757,0.2758,0.055916,0.011204,-0.17896,-0.30376,-0.52495
0.2191,-0.31309,-0.45695,-0.060446,-0.034208,0.039379,0.53295,-0.052008
-0.61875,0.13951,0.18822,0.050016,0.037223,0.2816,0.55457,0.46516
-0.19947,0.071573,0.081192,-0.080183,-0.023522,-0.26365,-0.77544,-0.50225
0.31888,0.0075002,0.022182,0.065516,0.057833,0.11528,0.33015,0.34389
-0.36873,-0.021167,-0.49358,0.018758,-0.0072402,0.13724,0.38095,0.53459
0.55014,0.024364,0.45764,0.076179,0.031411,-0.081123,-0.022869,-0.81482
0.37931,-0.29405,0.071165,0.033863,-0.021731,-0.064214,-0.21214,0.51917
-0.39149,0.28059,0.43099,0.023496,0.043813,0.20249,-0.4466,-0.037425
0.17876,0.33342,0.11171,-0.15138,-0.053758,-0.094345,0.34494,0.15263
-0.38467,-0.58939,-0.65654,-0.069723,-0.072748,-0.25187,-0.37929,-0.69428
-0.10467,0.011624,-0.29946,-0.091265,-0.05255,-0.066522,0.24995,0.022605
0.20592,0.19073,-0.08506,0.13575,0.10825,0.22054,0.074927,0.35881
-0.18044,0.1194,0.38472,0.065048,0.011177,-0.076862,-0.37954,-0.082023
-0.085721,-0.34346,0.2835,0.0098601,-0.0078444,0.050259,-0.025181,-0.31293
0.17509,0.44219,-0.26032,-0.013562,0.03546,0.1572,0.48292,0.3871
0.55938,0.17098,-0.17985,0.026338,0.031487,0.048452,0.38511,0.54274
-0.46093,-0.7514,0.44346,0.0044792,-0.051353,-0.089537,-0.64484,-0.40082
-0.0085013,0.51855,0.0041553,-0.0092357,-0.025928,-0.14905,0.57813,0.070579
-0.28438,-0.24542,-0.35442,-0.10133,-0.025344,-0.022626,-0.48324,-0.54535
0.45628,0.067017,-0.068543,0.032314,-0.010668,0.022397,0.10823,-0.048057
0.38169,0.19964,0.080133,0.086638,0.088503,0.21924,0.39101,0.38834
-0.65793,-0.25182,0.11313,-0.11811,-0.063462,-0.17462,-0.52461,0.15294
-0.035969,-0.1134,0.37104,0.074576,0.0261,-0.010185,-0.37701,-0.16105
-0.052525,0.22597,-0.39221,-0.076934,-0.017238,-0.012627,0.32546,0.0015076
0.073001,-0.13118,-0.032253,0.068688,0.025852,-0.039354,-0.062867,-0.17044
-0.18975,0.23687,0.025448,0.043399,0.023064,0.11496,0.18967,0.48164
0.25399,0.024083,0.036114,-0.011615,-0.017428,0.069504,0.18288,-0.44561
0.10702,-0.31105,-0.064007,-0.088254,-0.087645,-0.22894,-0.35904,0.13695
0.44448,0.19706,0.014302,0.032174,0.031103,0.024914,0.24725,-0.32224
-0.32601,0.25607,-0.16508,-0.010125,0.049462,0.20567,0.22937,0.085613
-0.26139,-0.30094,0.19693,0.018487,0.013796,0.069828,-0.25024,0.54178
-0.40629,-0.13988,0.2435,0.062378,-0.0062421,-0.19715,-0.015683,-0.47689
0.56722,-0.026882,-0.12451,0.050247,0.035514,0.043024,-0.11097,0.30198
0.16542,0.03891,-0.46769,-0.12812,-0.064684,-0.024349,0.21684,-0.029977
0.058544,0.1298,0.4261,0.026792,0.020887,0.067833,0.38603,0.30574
-0.26172,0.20158,0.29945,0.022784,-0.0047264,-0.079674,-0.78443,-0.47482
-0.3092,-0.30549,-0.65256,-0.14744,-0.078749,-0.16988,-0.0041806,-0.24098
0.41314,0.21258,0.28025,0.13426,0.041583,0.095011,-0.03515,-0.13461
-0.21926,-0.21129,0.20629,-0.068432,-0.0023565,0.0054809,0.13578,0.22667
0.055063,-0.13102,-0.60978,0.019072,0.04018,0.26622,-0.048272,0.42885
-0.5702,0.57834,0.68288,0.077315,0.04477,-0.051085,0.44076,-0.25458
0.83452,-0.068285,-0.23644,0.0050998,-0.019544,-0.070463,0.20701,0.19951
-0.082146,-0.32969,-0.0082897,0.0053688,-0.035607,-0.16639,-0.46045,-0.045549
-0.15658,-0.41772,-0.14784,-0.0084654,0.011896,0.12223,0.30328,0.15773
0.24213,0.62024,-0.099629,-0.045127,-0.010325,-0.032785,-0.16968,-0.30069
0.11037,-0.036132,0.32477,0.02729,0.006606,0.024731,-0.21944,0.024602
-0.48699,-0.066082,-0.13158,0.028448,0.023228,0.060377,0.080338,-0.47453
-0.221,-0.12516,0.321,-0.15125,-0.077845,-0.21481,-0.27985,0.087043
0.15773,-0.22052,-0.48909,0.004054,0.054977,0.29312,0.71597,0.88427
0.24891,0.14031,0.32079,0.041838,-0.046832,-0.25155,-0.74246,-0.5875
0.11199,0.5742,-0.39833,0.087849,0.038931,0.080969,0.1061,0.057048
-0.16345,-0.22453,0.32919,0.0099241,9.1811e-05,0.03276,0.32778,-0.12612
0.042488,-0.23397,-0.1697,-0.035345,0.00091757,-0.02943,-0.19173,-0.012334
-0.35396,-0.15899,0.16615,0.014464,0.033611,0.0733,0.32214,0.42774
0.66501,0.49882,0.06197,0.049494,0.027667,0.12894,-0.037838,0.19876
-0.085164,-0.33194,0.047918,-0.071639,-0.079776,-0.28558,-0.079479,-0.4686
-0.21726,-0.096998,-0.048428,-0.037276,-0.015722,-0.015165,-0.33099,-0.23402
-0.29509,-0.069586,-0.36747,0.0034295,0.03191,0.17371,0.25678,-0.029592
0.44803,-0.030443,0.16223,0.050058,0.047198,0.10875,0.27229,0.30012
-0.50015,0.24744,-0.30901,-0.061484,-0.06372,-0.20209,-0.061969,0.36542
0.16227,0.092197,0.84623,0.10666,0.019568,-0.0081214,-0.55277,-0.51877
-0.043373,0.0032783,-0.24462,-0.085438,-0.046391,-0.15974,-0.20767,-0.55218
-0.04156,0.21412,-0.53264,-0.011923,0.059153,0.28198,0.78051,0.65166
0.46037,-0.10426,0.31146,0.023405,0.00076399,0.0060108,-0.24809,0.31461
0.0027533,-0.29566,-0.15755,-0.002166,-0.0023295,-0.072299,-0.10085,-0.16283
0.10775,-0.17912,0.27005,0.02116,0.0033797,0.055763,0.27423,0.19659
-0.46234,0.13114,0.021554,-0.00033634,-0.052187,-0.1328,-0.36069,-0.35768
0.23323,0.10055,0.039032,0.042347,0.065411,0.1276,0.24742,-0.077032
-0.2476,-0.16398,-0.11864,-0.046802,-0.042367,-0.10878,0.06093,-0.010087
0.052525,0.26474,0.14672,0.06727,0.053929,0.055746,0.032909,0.19305
0.022433,-0.23419,-0.37841,-0.10853,-0.03666,0.065566,-0.072305,-0.054943
-0.33754,0.29434,-0.15633,-0.051492,-0.041071,-0.13503,-0.24895,-0.10684
0.63118,-0.15041,0.45346,0.1129,0.040327,-0.031411,-0.15568,-0.39362
