-0.019553,0.055659,0.063911,0.029457,0.015322,-0.0079285,0.1523,0.010743
-0.070726,-0.11464,-0.1224,-0.039367,-0.013674,-0.022346,-0.12957,-0.09186
0.037711,0.027682,0.13968,0.031216,-0.0041286,0.0095289,0.11836,0.046755
0.078074,-0.033427,-0.048715,-0.11039,0.012454,0.025186,0.01392,0.12262
0.056567,-0.056254,-0.030866,0.17664,0.012469,0.032543,0.050182,0.17558
0.072949,0.075779,-0.15707,-0.1073,-0.019742,-0.038518,-0.0062585,-0.16868
-0.10096,0.3307,0.2463,0.16334,0.033129,-0.015876,-0.13894,-0.13643
-0.16154,-0.10469,-0.22515,-0.30777,-0.07865,-0.047724,-0.1208,-0.0090304
-0.085637,-0.1996,0.031731,0.081422,0.012479,0.037992,0.11065,-0.013699
0.064809,-0.024281,0.20538,0.081206,-0.0055791,0.014769,0.054768,0.17658
0.13478,-0.11707,0.21785,0.050963,0.047207,0.085635,0.36657,0.24791
0.016498,-0.0078622,-0.25167,0.099777,0.038236,-0.069968,-0.22903,-0.29334
0.016196,0.07854,-0.079127,-0.11662,-0.0012064,0.0085573,-0.13225,0.043923
-0.01336,0.22981,0.031356,-0.005075,-0.016557,-0.022882,-0.10231,-0.10784
-0.048078,-0.16216,-0.21786,-0.10516,-0.054923,-0.047342,-0.046185,-0.1074
0.076171,0.074963,0.047899,0.0047338,-0.030629,0.044495,0.20822,0.093803
-0.016024,0.073435,0.3131,0.1059,0.071731,0.073115,0.1465,0.2327
-0.10662,-0.19164,-0.22658,-0.051368,-0.013601,-0.054835,-0.13559,-0.12515
-0.094858,-0.027035,0.062055,-0.01347,0.0024039,-0.049724,-0.26055,-0.21109
0.17482,0.14306,0.10109,0.071612,-0.0052061,-0.0046715,0.11784,0.15696
0.1941,0.17597,0.0076578,-0.030176,-0.0050818,0.026201,0.032847,-0.035347
-0.27945,-0.34374,-0.10919,0.0015651,0.010702,0.0041887,-0.061369,0.024234
0.02761,0.044499,0.0079384,0.018237,0.034428,0.069953,0.22563,0.0056786
-0.087709,0.052367,-0.047602,0.066362,-0.05886,-0.019041,0.47831,0.49154
-0.062731,-0.13869,0.14591,-0.19043,-0.019175,-0.083813,-0.75111,-0.70225
0.14169,0.13006,-0.15356,0.091223,0.036209,0.093411,0.018745,0.38836
0.52549,0.087999,-0.086158,-0.0029686,-0.0022265,-0.074388,0.034984,-0.037731
-0.41153,0.011242,0.1066,0.019184,0.045025,0.021168,0.12351,-0.36636
-0.23986,0.06605,0.12079,0.032932,-0.0018936,0.035608,-0.044922,0.018296
0.20455,-0.082074,-0.011712,-0.015951,-0.018086,-0.015731,-0.009161,0.22611
-0.10143,-0.2607,-0.032651,-0.072181,-0.034782,0.047082,0.39643,0.0093069
-0.055649,0.1626,0.026882,-0.017967,-0.012746,-0.087673,-0.30192,0.59023
0.084764,-0.11034,-0.22382,0.045606,-0.0063513,-0.051577,-0.11616,-0.84699
-0.078111,0.2543,0.23839,0.032812,0.0082244,-0.030633,-0.34696,-0.055396
0.096378,0.035016,-0.18067,-0.025252,0.0079001,0.13291,0.29065,0.48505
0.15446,-0.029157,0.28408,0.11307,0.047582,-0.020653,0.18995,-0.47215
0.024528,-0.13668,-0.32118,-0.10777,0.0022703,0.095364,0.00027225,0.42658
-0.052934,-0.024638,-0.020698,-0.0012834,-0.018897,-0.034527,0.39219,0.064235
-0.18893,0.023782,0.28615,0.025329,0.007087,-0.09047,-0.95031,-0.52968
0.12332,-0.015719,-0.089165,0.0026155,-0.014049,0.035984,0.67834,0.48512
0.0010332,0.029013,-0.038258,-0.038439,-0.0046621,-0.054802,-0.09547,0.21341
-0.038877,-0.067262,0.016208,-0.019466,-0.004137,0.11247,-0.036015,-0.21693
-0.2283,0.28352,0.25356,-0.025673,-0.067241,-0.24463,-0.078378,-0.34932
0.068812,-0.27544,-0.27128,0.10027,0.1109,0.33392,-0.08522,-0.12425
0.11357,0.094447,-0.29956,-0.038826,-0.02398,-0.19161,0.46648,0.49631
0.15855,-0.018514,0.1937,0.0034984,-0.018205,0.014373,-0.41265,0.021246
-0.22482,-0.26102,0.022888,-0.029706,-0.066507,-0.13414,-0.18553,-0.3278
0.21272,0.031933,0.24453,0.041653,0.073774,0.22241,0.19509,-0.031048
0.054456,0.50104,-0.14781,-0.0091178,-0.003354,0.1548,-0.30062,-0.14647
-0.26628,0.044147,-0.08316,0.02047,0.053652,-0.055052,0.5783,0.39244
0.30812,-0.066166,0.17265,0.012193,-0.028956,-0.30467,-0.38023,0.16648
-0.17227,-0.1508,-0.029735,-0.019568,-0.0486,-0.13985,-0.0011679,-0.22976
0.25796,-0.31897,0.24588,-0.021371,0.017473,0.24517,-0.035617,0.37447
-0.58209,-0.12417,-0.38465,-0.033309,-0.026748,-0.055003,0.58127,-0.60175
0.13698,0.076233,-0.27391,-0.016988,0.036896,0.16315,0.20768,0.35337
0.075096,0.07364,0.21822,0.082061,0.036146,0.2119,-0.91735,-0.58462
0.042401,0.61207,-0.072309,-0.032805,-0.029112,-0.27677,0.76563,0.66644
-0.0096333,-0.56572,0.39386,-0.017213,-0.072756,-0.077577,-0.41601,-0.59161
-0.083164,0.18754,0.023361,0.05943,0.077547,0.1206,-0.27153,0.67877
0.46642,0.54857,0.097733,0.0028858,-0.038469,-0.24589,-0.24585,0.032222
-0.60944,-0.58075,-0.58602,-0.060739,0.033108,0.33013,0.69758,-0.38911
0.41437,-0.088305,0.12054,0.033639,0.027431,-0.0028945,-0.76811,-0.05882
-0.17732,-0.37754,-0.040409,-0.088173,-0.093904,-0.40058,0.20401,-0.47277
0.35921,0.24264,-0.037605,-0.019433,0.021095,0.12253,0.86687,0.68636
-0.33488,0.32388,0.79311,0.20089,0.060062,0.20053,-0.48983,0.056277
0.26477,0.16929,-0.26678,-0.052555,-0.0084327,0.029925,0.537,0.42251
-0.36271,-0.19,-0.48243,-0.046127,0.010461,0.033436,-0.62272,-0.82118
-0.40744,-0.18232,-0.001547,-0.062107,-0.055786,-0.22601,-0.48865,-0.22789
0.73277,0.15609,0.13779,0.078043,0.073361,0.45475,0.53336,0.36625
-0.032086,-0.13941,-0.36808,-0.033005,-0.055852,-0.5417,0.33231,0.2014
-0.45347,0.13165,0.67684,0.096109,0.048342,0.19837,-0.070406,0.23485
0.30467,-0.16552,-0.42276,-0.16006,-0.10637,-0.26292,-0.52719,-0.22583
-0.21808,0.24055,0.33999,0.081322,0.050512,0.050643,0.62005,-0.14717
0.30604,-0.35589,-0.04457,-0.085553,-0.04309,0.25579,-0.41224,-0.30806
-0.23468,0.35364,-0.024219,0.11355,0.089956,0.30509,0.12778,0.38847
0.29535,-0.43386,-0.16389,-0.046959,0.028336,0.041669,-0.24654,0.39247
0.30205,0.16361,0.19874,0.01985,-0.071271,-0.68344,-0.33173,-0.47693
-0.78819,0.19734,-0.12423,-0.02115,-0.013344,0.082654,0.24067,-0.47672
0.136,0.52109,-0.014358,0.072734,0.1005,0.3089,0.46304,0.95814
0.30915,-0.33298,0.078009,-0.05775,-0.081606,-0.12127,-0.3939,-0.82489
-0.44924,-0.37189,-0.88246,-0.092562,-0.075802,-0.089817,0.60057,0.49084
0.35984,-0.085709,0.51422,0.077051,0.062565,-0.15857,-0.15839,-0.66912
0.087705,0.13173,0.3644,0.036156,0.043713,0.35229,-0.20882,0.48682
-0.092419,0.32731,0.22333,0.072849,0.038825,-0.1126,0.58917,0.63154
-0.067352,-0.33156,-0.035873,-0.10283,-0.054223,0.59362,-0.49128,0.20206
0.30274,0.23935,0.27808,0.10224,0.037678,-0.65634,-0.22909,-0.53741
-0.10421,-0.90545,-0.58999,-0.17939,-0.068291,0.02567,0.18693,-0.50251
-0.21888,0.5386,0.019051,-0.033442,-0.05927,-0.1047,-0.93511,-0.42091
-0.1326,0.35878,-0.11688,0.056336,0.018569,-0.17372,-0.064316,0.19153
-0.059395,0.12835,0.18893,0.15334,0.16619,0.99831,0.79349,0.38211
0.060801,-0.075412,-0.624,-0.12428,-0.14657,-0.91534,0.5779,0.39361
-0.22908,0.13338,-0.0045343,0.068073,0.096958,0.2834,0.78112,0.46831
0.20405,-0.4171,0.88864,-0.026853,-0.04765,0.12169,-0.86598,-0.55853
0.24576,-0.048722,-0.025293,-0.010405,-0.048563,-0.44309,-1.082,-0.22745
0.66618,0.38546,0.40574,0.15635,0.070996,0.022811,0.66044,-0.32946
-0.47338,-0.48153,-0.83255,-0.24573,-0.079795,0.20226,-0.75494,0.071059
-0.08452,0.13468,-0.49923,-0.045374,0.037514,0.17508,0.81901,0.082052
-0.12733,-0.0013531,0.41001,0.13173,0.062565,0.4802,0.77077,1.0153
0.47051,0.34736,0.57749,-0.0042151,-0.013712,-0.39212,-0.58109,-0.53529
-0.57432,-0.48529,-0.11202,0.13979,-0.02083,-0.28899,0.2166,-0.59224
-0.46944,0.086811,0.36728,-0.11659,-0.092946,-0.5427,-0.68461,-0.21635
-0.080716,0.29138,-0.70722,-0.047344,0.12039,0.444,0.12868,0.75075
0.20744,-0.24575,-0.39156,-0.027728,-0.053381,0.31574,-0.54307,-0.50893
0.31044,0.31853,0.23002,0.051685,0.07308,0.68685,0.51846,0.5614
0.68325,-0.38601,0.26379,0.08978,-0.023194,-0.7801,0.66693,0.18228
-0.4084,0.2597,-0.033298,-0.10791,-0.15362,-0.72555,-0.74308,-0.42609
-0.092745,-0.26109,0.51089,0.10042,0.14432,0.99307,0.74372,0.37046
0.20912,0.52445,-0.81454,-0.12757,-0.0024511,-0.034714,-0.95879,-0.7312
-0.26318,-0.42066,0.23888,-0.040421,-0.10759,-0.74953,0.38801,-0.088538
0.055973,0.1234,0.26073,0.027202,0.018148,0.3224,-0.03574,0.33177
0.15355,0.18886,-0.33461,0.18552,0.24314,0.52918,0.56357,0.57053
-0.8184,-0.41778,0.11371,-0.15122,-0.27592,-0.853,-0.20307,-0.34812
0.35677,-0.19325,0.41958,0.055462,0.085531,0.68406,-0.13278,-0.48783
0.3906,0.2425,-0.44917,-0.086435,0.02148,0.036488,-0.24189,0.0072008
0.10664,0.29467,0.044536,0.061678,-0.040437,-0.22239,-0.13972,-0.11144
-0.14612,-0.090979,0.618,0.12239,0.076955,-0.091308,-0.12135,0.8977
-0.51757,-0.23318,-0.82975,-0.14111,0.011683,0.36795,0.12978,0.32173
0.47516,0.3627,0.4474,0.17543,0.034925,-0.0071428,0.70596,0.065391
-0.53783,-0.050224,-0.61297,-0.29638,-0.14389,-0.43941,-0.54057,-0.7999
0.50881,-0.069784,0.5167,0.16995,0.03731,0.070246,0.69741,-0.13552
0.36509,-0.28542,-0.49223,-0.049467,0.032431,0.15731,-0.81043,-0.16401
-0.065836,0.30762,0.23658,-0.061775,-0.14096,-0.59417,-0.1994,-0.32838
-0.2897,-0.16076,0.28273,0.073524,0.098039,0.53486,0.73199,0.21435
-0.15002,-0.28755,-0.17414,-0.046533,-0.013014,0.03759,-0.46288,-0.026814
-0.23318,0.087067,0.34753,0.065443,-0.0023952,-0.34389,0.034556,0.44795
0.26545,0.48845,-0.13499,0.044477,0.1087,0.57525,0.033733,0.32908
0.11279,-0.28672,0.064145,-0.092785,-0.13177,-0.37535,-0.4081,-0.20005
-0.078445,0.14194,-0.051418,0.036101,0.096257,0.13788,0.44311,0.28598
0.080347,0.37949,-0.57322,0.046614,0.10373,0.8046,0.63074,-0.013228
-0.003936,-0.17326,0.28977,0.029734,-0.05718,-0.70324,-0.75007,-0.35596
0.19546,-0.44375,-0.022237,-0.080402,-0.10041,-0.54225,0.68286,0.01367
-0.3235,-0.24141,0.24491,0.064387,0.018002,0.24154,-0.68897,0.35363
0.21262,0.37578,0.18302,0.031589,-0.032395,0.14353,0.16525,-0.84653
-0.33556,-0.6329,-0.30967,-0.11809,-0.049849,-0.40036,-0.09625,0.17523
0.064689,0.73221,-0.30227,-0.1508,0.020032,0.52517,-0.26499,-0.10887
-0.50808,0.22158,-0.05035,0.059262,0.068566,0.11106,0.48072,-0.40825
0.72546,0.062486,0.73003,0.14673,-0.051267,-0.66147,-0.36984,0.75853
0.25222,-0.42415,-0.28664,-0.042196,0.10763,0.814,0.316,0.37327
0.070803,0.26997,0.47208,0.15911,0.015815,-0.26299,-0.21824,-0.14719
-0.0036262,-0.7296,-0.93776,-0.21587,-0.10642,-0.014291,0.31031,0.047035
-0.85408,0.80458,0.19528,0.068816,-0.039219,-0.3677,-0.19151,-0.39478
0.23646,-0.2433,-0.082219,0.092102,0.15557,0.73223,0.29059,0.14056
0.25071,-0.3479,0.28332,-0.036573,-0.053081,-0.58952,-0.02072,0.66138
0.24323,0.00076308,0.41518,-0.028653,0.0066171,0.072743,-0.50725,-0.419
-0.0099669,0.52363,-0.17309,-0.049042,-0.056211,-0.10215,-0.4678,-0.23317
-0.57322,0.03496,-0.26479,-0.051817,-0.069997,-0.044979,0.92099,-0.85632
0.14113,-0.19074,-0.41619,-0.069121,-0.042863,0.031877,-0.26995,0.30405
0.24728,0.096703,0.48142,0.22642,0.23581,0.78275,0.38789,0.45336
-0.33377,-0.61905,0.25661,-0.025159,-0.085905,-0.81047,0.33777,0.54181
-0.00052767,0.074509,-0.4328,-0.027439,-0.0085008,0.10083,-0.65626,-0.17456
0.25401,0.59701,-0.20156,-0.054185,-0.040408,0.24794,-0.36753,-0.74473
0.37237,0.27387,0.76569,0.12097,0.052023,-0.067277,0.44914,0.28076
-0.21355,-0.35873,-1.0518,-0.11923,0.02585,0.051629,-0.55132,0.39602
-0.19993,-0.17841,0.90283,-0.087182,-0.14304,-0.40384,0.49257,0.53038
0.097178,-0.28085,0.0054004,0.1314,0.15427,0.48131,-0.023641,-0.71683
-0.16358,-0.17479,-0.47102,-0.064738,-0.098028,-0.58718,0.12548,-0.21606
0.074199,0.61662,0.16716,0.051274,0.061238,0.48076,-0.27166,-0.4629
0.23457,0.30578,-0.17655,0.081264,0.070184,0.44023,0.28368,0.91483
-0.13187,-0.13593,0.45549,-0.037077,-0.16396,-1.0549,-0.40662,-0.40502
-0.32384,-0.30642,-0.15869,-0.022375,0.024088,0.43797,0.65273,0.022025
0.42503,0.17385,0.13463,-0.085469,0.0028075,-0.038449,-0.052787,0.46153
-0.069648,-0.72128,-0.48622,-0.02314,0.007699,0.11145,-0.1721,-0.36735
-0.63111,0.25551,-0.11484,0.024083,0.031687,0.13711,-0.55055,0.074932
0.42596,0.35082,0.35979,0.10313,0.028067,-0.034755,0.18473,-0.047239
-0.09628,0.1534,0.16706,0.034308,0.043245,0.075214,-0.22631,-0.523
0.22786,-0.17217,-0.095787,-0.13564,-0.095697,-0.32052,0.36268,0.27207
0.7048,0.16884,-0.30022,0.10088,0.11763,0.41998,0.6374,1.0478
-0.51758,-0.24231,0.25988,-0.02201,-0.068289,-0.27138,-0.45805,-0.74391
-0.22295,0.087772,0.10999,-0.020135,-0.02194,-0.031192,0.59943,-0.22951
-0.071122,0.050045,0.0087811,0.051718,0.0058587,-0.11862,-0.99385,0.4965
-0.38624,-0.073629,-0.19251,-0.20483,-0.13353,-0.16537,-0.19619,-0.72976
0.34388,0.078191,-0.12808,0.11664,0.075949,0.19898,0.30908,0.3196
0.10093,-0.23223,0.020278,0.055453,0.025795,0.1977,0.066279,-0.22017
0.17989,0.12749,0.55467,0.057108,0.084292,0.10133,0.1588,0.28692
0.079513,0.12859,-0.3948,-0.058021,-0.020966,-0.038866,0.075145,0.68014
-0.28692,-0.25522,-0.401,-0.13382,-0.078301,-0.36027,-0.34691,-0.64693
-0.0058129,-0.064382,0.48703,0.14186,0.10792,0.42794,0.27421,-0.27041
-0.20232,-0.003113,-0.2871,-0.036147,-0.08741,-0.27559,0.21521,-0.11146
-0.095018,0.11393,0.58806,0.191,0.10869,0.14525,-0.039228,0.20408
0.84799,0.31369,-0.35666,-0.28652,-0.14818,-0.17098,-0.22511,0.26763
0.2218,-0.028191,0.21493,0.10915,0.024131,-0.054997,-0.39941,0.13019
-0.85414,0.15633,-0.63383,-0.028196,0.07043,0.18573,0.70991,0.068661
-0.1187,-0.4187,0.19206,-0.02636,-0.064251,-0.0060615,-0.31808,0.016318
-0.19253,0.20153,-0.11854,-0.0019641,0.010713,-0.038723,-0.064966,-0.50643
0.14797,-0.6222,0.287,0.030051,-0.0091096,0.055125,0.17305,0.022915
0.548,0.4327,0.21385,0.054726,0.02516,-0.068722,-0.50538,-0.097128
-0.39531,0.15151,0.27122,0.04916,0.059384,0.14499,0.75995,0.16887
0.40525,0.3765,-0.025879,0.021515,0.00038555,-0.1459,-0.066427,-0.024642
-0.15311,-0.87572,-0.7561,-0.1921,-0.07317,-0.063959,-0.52657,0.32909
-0.0038224,0.49193,-0.013103,0.025549,-0.012391,0.018785,-0.030296,-0.15444
-0.20716,-0.16377,0.18081,-0.0052839,-0.051333,-0.16809,-0.42739,-0.29135
0.23818,0.062003,0.16381,0.082489,0.052333,0.15919,0.5297,0.036879
-0.25994,0.027506,-0.1939,0.085586,0.10321,0.19744,0.32526,0.211
0.41086,-0.39403,0.24376,-0.12901,-0.047477,0.13434,0.42225,0.21792
-0.2129,0.65352,0.29998,0.05561,-0.0018569,-0.27351,0.28657,-0.004838
-0.32638,-0.093019,-0.1561,-0.024927,-0.049733,0.018426,-0.65008,0.13538
0.026262,-0.11793,-0.5848,-0.081922,-0.020046,-0.016288,-0.44069,-0.46361
0.08404,0.084391,0.28653,0.040476,0.03955,-0.068197,-0.44055,-0.073693
0.047771,-0.64633,-0.23185,0.029331,0.01904,0.20392,0.56997,0.21639
0.047602,0.66904,0.25503,0.0091878,-0.0038556,-0.23276,0.24585,-0.17022
0.36065,-0.045437,0.56323,0.10462,0.048877,0.27758,0.021123,0.25598
-0.37876,0.072135,0.14148,-0.01281,-0.10379,-0.48312,-0.76727,-0.7939
0.33628,-0.45901,-0.97496,-0.12443,0.030858,0.26012,0.017049,0.3065
0.010707,0.36633,0.44594,0.020021,0.023953,0.040475,0.75293,0.72194
-0.53153,0.18025,-0.53369,-0.086652,-0.037609,0.13329,0.68461,0.060033
0.033214,-0.43018,0.18939,0.033045,-0.043479,-0.16316,-0.49392,-0.74709
0.32606,0.021982,0.063819,0.091123,0.10873,0.17525,-0.78823,0.58017
0.070904,-0.2803,0.39053,0.01044,0.0054742,-0.046902,0.23721,-0.30717
-0.38962,0.16607,-0.29543,-0.13022,-0.1031,-0.27562,-0.071643,0.23943
0.11671,0.24588,0.28193,0.20056,0.14211,0.3943,0.45666,0.32083
-0.057037,0.47504,-0.29851,-0.13042,-0.095451,-0.30378,-0.054599,-0.75022
-0.17436,-0.24956,0.25111,0.055624,-0.0041474,0.0043766,-0.13834,-0.14294
0.78259,-0.087029,0.060752,0.10125,0.047909,0.16226,0.27555,0.27371
-0.153,0.19378,-0.46716,-0.20574,-0.026055,-0.072083,-0.24011,0.28276
-0.17492,-0.50327,0.28847,0.016415,-0.062583,-0.18233,-0.2574,-0.60319
-0.11794,-0.13968,-0.22241,0.040525,0.047416,0.30126,-0.086709,0.44286
-0.48101,-0.065228,0.24854,0.0071329,0.054002,0.0047285,0.29328,-0.079728
0.36193,0.37255,0.19378,0.01827,-0.05807,-0.20379,0.21907,0.53066
0.18548,-0.17239,-0.001507,0.0045468,0.0086957,0.090454,-0.57307,-0.72164
-0.17329,0.32931,-0.84089,-0.040646,-0.026203,-0.13568,0.22322,0.30579
0.34124,0.031213,0.78272,0.063649,0.025488,0.10992,0.084552,0.17461
-0.0047,-0.094494,-0.6951,-0.087703,0.047217,0.33466,0.75039,-0.50881
-0.27341,-0.077922,0.45737,-0.0017501,-0.077777,-0.41527,-0.82445,0.48549
0.073934,0.13437,0.1341,0.13428,0.1194,0.21872,0.24115,0.36354
-0.38527,-0.29696,0.10926,-0.10177,-0.14264,-0.36568,-0.23719,-0.80879
-0.0038303,-0.29877,-0.088099,-0.015412,0.010677,0.1043,-0.20382,-0.47229
0.31788,0.8964,0.13095,0.13433,0.078724,0.1984,0.34098,0.86342
0.053784,-0.57699,-0.2871,-0.060206,-0.017377,0.017721,-0.064206,-0.30982
0.59136,0.20507,-0.021431,-0.076984,0.034102,0.022798,0.50273,0.4541
-0.26015,-0.10565,-0.2506,0.012569,-0.033128,-0.06012,-0.4798,-0.23401
-0.47207,0.19132,0.3407,-0.0031567,-0.032015,0.034466,0.26587,-0.16926
-0.01436,-0.14666,0.49991,0.039772,0.0060453,-0.13078,-0.76098,0.3142
-0.034709,0.046408,-0.81965,-0.069173,-0.051578,-0.14909,0.22322,-0.43806
-0.24908,-0.24884,-0.013604,0.077125,0.076847,0.36322,0.56728,0.49768
0.31567,-0.24547,0.35263,0.026719,0.0091981,-0.25685,0.12993,0.084381
0.2584,0.31302,-0.0039442,-0.031568,-0.011555,0.12462,-0.18989,-0.37893
-0.087984,0.026689,-0.34276,-0.072992,-0.02373,-0.046238,-0.87606,-0.76515
0.1628,0.79144,0.46648,0.15359,0.035765,0.066918,0.23476,0.71641
-0.1909,-0.45936,-0.27578,-0.16348,-0.043651,-0.043909,0.54579,0.019528
-0.18898,-0.17701,0.25227,0.030949,-0.0040949,-0.051369,-0.058592,0.12767
0.056189,-0.0958,0.16719,0.033756,0.044837,0.12922,0.34151,0.13976
0.039914,-0.561,-0.0097893,0.008533,-0.03015,-0.089616,-0.056084,0.27818
0.084596,0.26816,-0.39117,0.016868,0.020279,0.071876,-0.20439,-0.33702
0.36404,0.46539,-0.21457,0.034073,0.070379,0.12033,-0.1278,-0.015199
-0.44718,-0.24859,-0.02973,-0.074084,-0.12273,-0.39018,-0.72527,-0.24396
-0.2198,0.39263,-0.034121,0.026949,0.041993,0.1733,0.56696,-0.42278
0.41214,0.029845,0.63787,0.0079187,-0.01383,-0.0087053,0.57311,0.56692
-0.22194,-0.17233,0.15696,-0.030296,-0.024518,-0.036403,-0.30136,-0.56057
0.061468,-0.16475,-0.55593,-0.064379,0.025906,0.16214,0.14114,0.61323
0.36192,0.081263,0.24067,0.14833,0.059895,-0.028734,-0.64916,0.20979
-0.72772,0.090551,-0.11761,-0.039592,-0.039034,-0.076591,-0.024855,-0.30672
-0.020835,-0.47495,-0.067956,-0.04083,0.011087,0.081713,0.78733,0.17469
0.32427,0.15207,0.27368,-0.0022776,-0.039125,-0.030323,-0.63498,0.10723
0.10802,-0.2508,-0.25464,-0.16469,-0.087684,-0.21784,-0.074963,-0.34594
0.36237,0.23519,-0.41571,0.21519,0.16244,0.37772,0.67416,0.25947
-0.14144,0.44905,0.41855,-0.0028062,-0.038878,-0.18991,0.082137,-0.10812
-0.0016687,-0.16446,-0.038194,0.017041,0.026684,-0.007543,-0.18065,-0.049319
-0.39598,0.068869,0.34866,-0.023041,-0.03992,0.0023469,-0.5004,-0.71032
0.16207,0.067845,0.18115,0.031824,0.018434,0.097396,0.43873,0.48216
-0.089909,-0.40203,-0.67454,-0.015229,-0.017623,-0.19087,-0.56326,-0.008205
-0.13115,0.3353,0.12316,-0.048398,-0.023515,0.028808,0.30184,0.37457
0.029941,-0.38948,-0.084946,-0.045167,0.0084235,0.18692,-0.14931,0.27
-0.027375,0.50484,0.44801,0.0019922,0.00019545,-0.21585,0.36152,-0.30235
0.17558,-0.32767,-0.31193,-0.094054,-0.055669,-0.046404,-0.12134,-0.13796
0.21139,0.37274,0.47716,0.21443,0.091266,0.18709,0.11862,-0.033789
-0.019766,-0.34786,-0.62282,-0.094883,-0.035166,-0.0086449,0.024809,-0.0056018
0.10798,-0.21957,-0.15022,0.018108,0.026215,0.1694,-0.24007,0.28392
-0.21779,-0.33546,0.12338,-0.00053537,-0.0058062,-0.13233,0.11265,0.11254
-0.044355,0.55769,0.36457,0.06825,0.040491,-0.04844,0.044883,-0.49596
-0.25486,-0.10694,0.31039,0.044651,0.0086016,-0.048784,0.098399,-0.38098
0.04919,-0.29655,-0.56044,-0.13428,-0.062641,-0.00048961,-0.25354,0.34807
0.29818,0.68189,-0.28574,-0.039441,-0.040503,0.019726,0.041974,-0.080262
-0.24883,0.31359,0.68919,0.10991,0.02047,0.0067224,-0.23472,0.4221
0.15188,-0.076995,-0.52743,-0.092784,-0.0043611,-0.12191,0.14187,-0.24602
0.26749,-0.059247,0.31223,-0.053799,-0.044201,-0.089024,-0.31504,0.014018
-0.24447,-0.34442,0.22111,0.14114,0.12797,0.3351,0.70225,0.56227
0.10118,-0.66636,-0.1081,0.015807,-0.050058,-0.12113,-0.0017161,-0.30784
-0.33596,0.079483,-0.0054023,-0.093509,-0.031446,-0.074859,0.1635,-0.079601
-0.079698,0.071106,-0.6589,0.016539,0.066257,0.19856,-0.48771,-0.10523
0.19702,0.30971,0.32294,0.010036,-0.0076019,0.031471,0.32644,-0.080723
0.53154,0.12651,0.043937,0.089914,0.050868,0.067724,-0.33876,-0.012978
-0.45344,0.17369,0.20251,-0.11137,-0.13408,-0.2052,0.19849,-0.085854
0.090908,0.43115,-0.026316,0.093257,0.062037,-0.095848,-0.28387,0.2153
-0.31479,-0.27052,0.1255,-0.046558,-0.064034,-0.075175,-0.44263,-0.17779
0.030024,-0.39852,-0.55981,-0.077877,0.011436,0.02073,0.19271,-0.16712
0.69367,-0.037666,0.38575,0.069677,0.06254,0.18594,0.85972,0.70587
-0.35623,-0.40564,0.10024,-0.025466,-0.042656,-0.16984,-0.42251,-0.44408
-0.58853,0.092611,-0.092103,-0.026896,0.024874,0.2077,0.52857,0.19978
0.40391,0.61471,0.312,0.034649,-0.015395,-0.1538,-0.52758,-0.49291
-0.017766,0.05234,-0.41037,-0.0123,0.024431,0.0068451,-0.27022,0.55624
0.18009,-0.30519,0.20678,0.090251,0.0037068,0.14458,0.22989,-0.40455
0.093935,-0.029164,-0.18864,-0.0015521,0.031383,-0.099911,-0.059287,0.23856
-0.0078575,0.26096,0.077398,-0.10057,-0.057344,0.11543,0.28357,0.10647
-0.5524,-0.32887,-0.48255,0.011404,0.0022514,-0.056151,-0.11638,0.42194
0.486,0.13465,0.52873,0.075999,0.029601,0.15516,0.062181,-0.74723
-0.17998,0.20191,-0.29552,-0.05569,-0.054113,-0.28538,-0.50704,-0.042065
-0.11956,-0.2481,0.027849,-0.0011011,0.094472,0.20553,0.49069,0.2426
0.1519,-0.093127,0.58155,-0.041473,-0.12623,-0.389,-0.7005,-0.52183
0.071276,0.2672,-0.36711,-0.020293,0.010644,0.064066,0.48281,0.35763
-0.0035996,-0.041611,0.24279,0.070685,0.029094,0.13656,-0.17891,-0.04324
