-0.23459,0.10375,0.066536,-0.16969,-0.0045665,-0.090168,0.046343,-0.033147
0.050177,0.078497,0.24122,0.057675,0.029242,0.11703,0.1423,0.12068
0.19223,0.040364,-0.16273,0.11179,-0.0068895,-0.099034,-0.1995,-0.020882
-0.16717,-0.23607,0.5788,0.13595,-0.018499,-0.050203,-0.0027797,0.10529
-0.2634,-0.20226,0.087843,0.023293,0.057469,0.10034,0.16979,0.093209
0.81484,0.33137,-0.028659,-0.1462,-0.020872,-0.060545,-0.1115,-0.2291
-0.65552,-0.26581,-0.69332,-0.074809,-0.066038,-0.00079172,0.044159,-0.041719
-0.03119,-0.28086,-0.38077,-0.036337,0.023208,0.0066525,-0.0034423,-0.032733
0.9954,0.67831,0.59364,0.55368,0.1213,0.086861,0.035358,0.11754
-0.38385,0.23744,-0.30947,-0.4008,-0.0068251,0.044161,-0.3856,0.19758
-0.26343,-0.0096747,0.41873,-0.043092,-0.096211,-0.028404,0.57811,-0.19153
-0.75789,-0.70405,-0.23691,0.038289,-0.014544,-0.11609,-0.34647,-0.15173
-0.20495,0.020963,-0.15334,-0.29148,-0.090193,-0.016617,0.090764,0.058948
0.40387,0.22745,0.74939,0.38053,0.10656,-0.011911,-0.055921,0.10444
0.79663,-0.3974,-0.71934,0.054151,0.029062,0.092958,0.0015891,0.070649
0.45036,0.57564,0.42461,-0.27767,-0.0020408,-0.061493,0.27751,0.21539
-0.87946,-0.52633,0.12244,0.066244,-0.025525,0.087342,-0.12826,-0.49255
-0.51937,0.12292,-0.31948,0.11129,0.013461,-0.046244,0.0092181,0.064106
0.41864,1.1064,0.55405,-0.16383,0.0055612,-0.02448,-0.47542,-0.028658
0.90473,-0.50116,-0.35353,0.27424,0.044429,0.098212,0.35461,0.11193
-0.58575,-0.28143,-0.48534,0.34139,0.051818,-0.029484,0.038397,0.23568
-0.070715,-0.33065,0.026396,-0.97654,-0.18327,-0.11045,0.10792,-0.18125
-0.39563,-0.36842,-0.11621,0.21984,0.0033034,0.05868,-0.013557,0.18878
-0.14601,0.80945,0.37208,0.47772,0.072655,0.017227,-0.1445,-0.20154
0.95525,-0.27865,-0.1348,-0.58615,-0.10779,-0.08616,0.084392,0.12419
-0.84233,-0.43374,-0.044206,0.76917,0.063657,-0.001362,-0.2701,-0.61504
0.26903,0.56654,0.39783,-0.49742,0.094758,0.13878,0.098478,0.28459
0.51403,0.068607,-0.0049234,0.27552,0.047684,0.013756,-0.12128,0.38659
-0.58396,0.41741,-0.13442,-0.031927,0.039098,0.029491,0.49267,0.090563
-0.17296,-0.10611,0.0902,-0.13318,-0.10344,-0.11124,0.0020437,-0.047678
0.56689,-0.48763,0.27633,-0.29563,-0.059992,-0.041519,-0.11041,-0.11309
-1.0858,-0.51782,-0.30722,0.23772,-0.072755,-0.019225,-0.065452,-0.54242
0.76187,0.2944,-0.11838,-0.11117,-0.047524,-0.028589,-0.39624,0.11799
0.63203,0.23013,-0.10505,-0.0055562,0.14936,0.11821,0.27094,0.36823
-0.042055,0.50901,-0.20328,0.34484,0.07364,0.062169,0.1935,0.14546
-0.16503,-0.53901,0.10111,-0.33207,-0.086196,-0.055766,-0.12019,-0.082524
0.061238,0.26024,0.21781,0.91038,-0.056013,-0.16513,-0.40325,-0.043662
-0.64972,-0.57527,-0.13493,-0.8326,0.22692,0.29655,0.26777,0.26046
-0.95676,0.12821,0.22441,-0.15302,-0.2064,-0.22565,0.26151,-0.6794
0.88279,0.29358,0.063832,0.052869,0.018328,0.049223,0.071113,0.19058
-0.041935,-0.20425,-0.18582,-0.056162,0.11111,0.06614,-0.16252,-0.075103
0.89888,0.57107,0.11469,0.6084,-0.061865,-0.034499,0.075914,0.46946
0.51509,0.59423,-0.1645,-0.72481,-0.048301,0.012863,-0.14398,0.020731
-1.1185,-1.004,-0.078827,0.077939,-0.036262,-0.049465,-0.088591,-0.20887
-0.053678,-0.45945,0.28928,0.17995,-0.041609,-0.11965,-0.14136,-0.40535
-0.36724,-0.16353,-0.098464,0.66453,0.14664,0.14636,0.11916,0.29962
0.018257,-0.19434,0.17895,-0.42579,-0.041611,-0.055878,0.13795,-0.030878
0.10805,0.97944,-0.090467,-0.11981,0.026731,0.093977,0.15677,0.19665
0.65557,0.63068,-0.17213,-0.25105,-0.046508,0.025404,-0.23918,0.074849
0.39719,-0.32052,-0.21166,-0.026956,0.090468,0.050514,0.26931,-0.077831
-0.14229,-0.91625,0.20355,0.6752,0.031672,-0.065495,-0.29565,-0.18549
-0.88287,0.67575,0.24789,-0.15979,-0.13659,-0.15101,-0.013565,-0.023714
0.42907,0.10057,-0.13483,-0.37241,0.062813,0.11433,0.20045,0.27317
-0.75469,-0.60465,-0.0055463,-0.66801,-0.26002,-0.1987,-0.20093,-0.42817
0.24748,0.71669,0.092194,0.96039,0.19264,0.19192,0.45454,0.40423
0.76087,-0.84664,-0.40069,-0.65219,0.085607,0.013662,-0.64433,-0.0088951
-0.42599,-0.11774,-0.0060671,0.93705,0.13811,0.072019,0.30148,-0.10211
0.093622,0.17505,-0.18714,-0.82427,-0.26703,-0.17945,-0.017818,-0.34067
0.17937,0.31868,0.12652,0.63278,0.018071,0.056031,-0.052534,0.1616
0.0098725,0.15294,0.42087,-0.0094053,0.062616,-0.0034722,-0.019041,-0.077134
-0.33222,0.20229,0.3555,-0.53223,0.005683,0.1799,-0.048765,0.53019
-0.39983,0.097552,0.39799,0.77375,0.0095556,-0.12977,0.17077,-0.42337
0.33701,-0.087473,-0.42323,-0.28767,0.11156,-0.0043586,0.11455,0.61433
0.71001,-0.20178,-0.13243,-0.48835,-0.11938,-0.0076908,-0.0016924,-0.36844
-0.85796,-0.4452,-0.1937,0.22414,0.0034654,-0.085862,-0.11937,-0.47783
1.0152,0.6175,-0.62541,-0.3978,-0.12141,0.050101,0.17925,0.26616
-0.57815,-0.72397,-0.10862,0.94949,0.17095,0.057075,-0.50781,0.18833
-0.25601,-0.16924,-0.23031,-0.95833,-0.16468,-0.071532,0.20783,-0.064622
-0.66584,0.075971,0.38096,-0.35217,0.0066035,-0.029449,0.0053168,-0.21137
1.0631,1.0326,0.7776,0.70021,0.12445,0.099039,0.042201,0.23427
0.17179,-0.67092,0.15752,0.4796,0.018819,0.018504,0.13394,-0.13088
-0.50219,0.78626,-0.037695,0.035835,0.019051,0.011212,0.089401,-0.045248
-0.25931,-0.53676,-0.11677,0.17954,-0.022882,-0.039559,-0.1022,0.16671
0.18768,-0.39673,-0.20913,-0.63437,-0.083929,-0.11047,-0.43601,-0.17955
0.1974,0.40043,-0.044611,-0.07861,0.10833,0.14945,0.31097,0.14422
-0.03542,-0.021986,0.033645,0.15775,-0.033464,-0.081061,-0.10827,0.091368
0.83968,0.27321,0.048844,-0.34764,-0.096745,0.079688,0.32318,0.1685
-0.96071,-0.32046,-0.23152,0.086849,0.057753,-0.072575,0.065612,-0.12662
-0.44021,0.040306,-0.15282,-0.2604,-0.12568,-0.046655,-0.31322,-0.51545
-0.0026039,-0.59313,0.077849,0.74352,0.13362,0.047355,0.11229,0.16348
0.40728,0.48346,0.032339,0.29638,0.11675,0.021604,-0.13937,0.18946
0.54565,-0.47575,0.036999,-0.63683,-0.066627,0.063664,0.1376,0.12401
0.32305,0.6438,0.21004,-0.153,-0.025252,0.080283,0.22776,0.1548
-0.60145,-0.09932,-0.14984,0.40088,-0.13317,-0.24796,-0.45031,-0.19341
-0.11629,0.26417,0.05182,-0.83083,0.1264,0.048874,0.22673,-0.24644
-0.71902,-0.59805,0.078842,0.71673,-0.042164,-0.082609,-0.44418,-0.14975
0.61734,0.16402,0.082341,0.020889,0.041976,0.11658,0.44483,0.26391
-0.21154,0.69266,0.171,0.49488,0.067173,0.10816,0.076292,0.091101
0.88696,-0.029138,-0.48678,-0.36325,-0.2084,-0.099879,0.07873,0.16964
-0.36026,-0.097513,0.04909,-0.18869,-0.019422,-0.000288,-0.11441,-0.27341
-0.46735,-0.48239,0.21036,-0.33502,0.10183,-0.016164,-0.24173,0.026607
0.20082,-0.60382,-0.11748,-0.19386,0.14584,0.13205,0.17637,0.19233
0.56108,-0.13581,0.22597,0.91473,0.18855,0.044107,-0.060947,0.064227
-0.88378,0.79811,-0.6204,-0.74229,-0.27232,-0.16436,-0.014907,-0.43168
-0.37368,-0.13406,0.18731,0.2979,-0.09025,-0.13491,-0.16196,0.16995
0.77232,0.53323,0.18989,-0.15038,-0.024161,0.10114,0.40303,-0.016347
0.10094,-0.50112,0.077433,0.51557,0.035321,0.028992,0.0059165,0.10946
0.063615,0.28775,0.1653,0.10065,0.097201,0.072069,-0.036139,0.047071
0.61069,0.50802,0.065461,-0.37251,-0.12538,-0.1114,-0.28144,-0.24953
-0.93278,-0.86707,-0.33725,-0.21793,0.096954,-0.011605,0.063321,0.057357
0.016989,-0.31854,-0.22886,-0.43749,-0.186,0.0058877,-0.28613,-0.053353
0.37382,0.82909,0.68851,1.0294,0.3017,0.18422,0.55878,0.62402
-1.1412,-0.75501,-0.63908,-0.88925,-0.11018,-0.070205,0.026909,-0.51747
0.82072,0.67888,0.20293,0.42224,0.086718,0.070119,-0.15463,0.0086242
0.094397,0.38342,-0.042981,0.51751,-0.053464,-0.13035,-0.069831,-0.0071259
0.50752,-0.99534,-0.040989,-0.3072,-0.040012,0.030121,-0.082759,-0.14201
-1.1913,-0.15305,0.12231,0.049716,-0.062485,-0.12169,-0.1426,0.0024414
0.6815,0.1842,0.047142,-0.5515,-0.052824,-0.032145,0.075097,0.41763
-0.13124,0.57853,0.090871,-0.038799,0.11969,0.11844,0.089541,-0.2965
0.29676,-0.98076,0.15729,0.15273,0.12528,0.11104,-0.10478,0.16254
0.30221,0.88237,-0.44361,0.049168,-0.22461,-0.093436,0.45357,0.13606
-0.29661,0.75046,0.12195,0.88718,0.11649,0.06761,-0.057241,-0.1672
-0.63589,-0.65741,-0.24108,-0.96458,-0.19494,-0.21042,-0.17168,-0.17061
0.48437,0.19533,0.49825,0.66607,0.23239,0.20531,0.10595,-0.015212
-0.077786,-0.85084,-0.31554,-0.76079,-0.045828,-0.068075,-0.47099,-0.19249
-0.21911,-0.25888,-0.11049,-0.11421,-0.012902,0.01619,0.14839,0.1898
0.19076,0.32379,0.36557,0.80636,-0.011562,0.020521,0.30544,0.20411
0.082909,0.89456,-0.22885,-0.68169,-0.048778,-0.062866,-0.2193,0.30571
0.28264,-0.28694,0.17857,0.97343,0.18076,0.11782,0.059537,-0.30839
-0.20993,0.19138,-0.15294,-0.56663,-0.11944,-0.16351,-0.035357,-0.23089
-0.36928,-0.91176,-0.089897,-0.31908,-0.1054,-0.046776,-0.21171,-0.22714
0.12793,-0.31287,0.016018,-0.12032,0.066673,0.17985,0.50265,0.65557
0.12026,0.34122,0.27339,0.085075,0.0060574,0.017271,-0.27209,-0.23211
0.13212,0.19797,0.13413,0.79893,0.087522,-0.14307,0.036499,0.04604
-0.60395,0.29143,-0.41874,-0.92925,-0.10339,0.089993,0.015296,-0.13638
0.35198,0.71345,-0.081626,0.83332,0.0109,-0.072407,-0.11723,-0.14007
0.4828,0.27062,0.15268,-0.43346,0.062515,0.064819,0.12979,0.23701
0.17419,-0.73269,0.26078,0.28941,0.011638,0.0088674,0.043363,-0.13874
0.043716,-0.45273,-0.24885,-0.83853,-0.095582,-0.045878,-0.11318,0.075961
-0.81556,-0.058572,-0.13293,0.39659,0.037141,0.079177,0.13458,0.28715
-0.38817,-0.69144,0.10973,0.58305,0.11259,-0.0076677,-0.12894,-0.36451
0.49937,0.33249,-0.05117,-0.63722,-0.13486,0.013026,-0.076313,0.10557
-0.070644,0.27091,0.17383,0.32943,-0.009568,-0.15615,-0.012026,-0.37252
0.79143,0.46877,0.17504,-0.46423,-0.026477,-0.023126,0.0024055,0.27982
-0.77249,-0.30833,-0.19701,0.32176,0.026236,0.076378,0.17157,0.39133
-0.10323,0.57676,-0.076644,-0.18545,0.016737,0.010008,-0.049839,-0.32638
0.66232,0.20976,-0.02017,0.68687,0.2272,0.20015,0.12861,0.3932
-0.58919,-0.57037,0.049194,-0.060975,-0.22441,-0.1965,-0.15151,-0.58159
0.4346,0.18132,0.09166,-0.67021,-0.032835,-0.023438,-0.053845,0.10232
-0.1936,-0.83389,-0.2677,0.07294,0.075731,0.078876,0.070028,-0.1783
-0.26943,0.46077,0.24539,0.42434,0.015531,0.0089947,0.016647,0.25017
0.050991,0.011444,-0.016071,0.0029249,-0.088434,-0.021921,-0.06604,-0.17344
0.93866,-0.060585,-0.15196,-0.68578,-0.0098002,0.080333,0.12616,0.50442
-1.0065,-0.083598,-0.10609,0.10127,-0.061502,-0.081943,-0.055595,-0.26388
0.53397,0.7424,0.55999,0.71047,0.31826,-0.085899,-0.11939,0.18367
-1.0281,-0.82694,-0.70836,-0.92578,-0.19179,-0.1727,-0.096683,-0.42946
0.61012,0.70777,0.40826,0.248,0.00092857,0.15064,0.26228,0.15083
0.29075,-0.24735,0.10338,0.34625,-0.042291,0.032777,-0.15226,0.1161
0.48924,-0.97428,0.13253,0.6741,0.11495,0.23096,0.11217,0.072516
-0.40427,0.87631,-0.27216,-0.74931,-0.1219,0.087528,0.24227,-0.38059
-0.59252,-0.18451,0.012711,0.067836,0.012439,-0.21203,-0.37221,0.084031
0.49628,0.56252,-0.13838,0.63855,0.15097,0.080092,0.25246,0.49818
-0.60411,-0.1973,-0.13088,-1.0165,-0.19782,-0.24102,-0.36044,-0.519
0.45339,0.39873,0.084045,0.00051618,0.037457,-0.059127,0.055174,0.28565
0.062899,-0.89752,-0.037852,0.27042,-0.0091352,0.11814,0.34422,0.041114
0.21178,-0.20188,0.4983,0.29269,0.062025,0.042012,-0.24162,-0.3498
-0.51228,-0.16116,-0.31321,-0.82737,-0.14662,-0.0042828,0.033913,0.062396
0.06263,0.26613,0.15375,0.67523,0.26375,-0.073234,-0.25714,0.093622
0.59089,1.0679,0.03205,0.51276,0.011773,0.13391,0.10515,-0.14468
-0.44664,-0.19639,-0.21817,-0.85238,-0.11406,0.079189,0.44145,0.42597
0.33607,-0.22337,-0.19189,-0.20936,-0.091077,-0.03422,0.079308,-0.19594
-0.42514,-0.31708,0.54716,0.81359,0.24407,-0.14482,-0.21701,0.11148
0.14063,-0.20095,-0.42373,-0.75176,-0.29653,-0.020104,-0.4103,-0.054345
-0.094098,-0.29902,-0.10484,0.3017,0.03709,0.16572,0.21623,-0.033718
0.096841,0.59179,0.12903,0.3335,-0.051588,-0.12877,-0.15954,-0.12724
0.43407,0.08972,0.098675,0.71637,0.047303,0.094545,0.20308,0.053334
-1.0864,-0.58564,0.062321,-0.37267,0.12321,-0.11063,-0.19706,-0.26609
0.56395,0.79917,0.0043778,-0.66099,0.051162,0.15432,0.15475,0.048399
0.0076746,-0.15815,-0.16162,-0.60647,-0.013031,0.039326,0.59386,0.46018
0.038423,-0.87151,0.21169,0.33022,0.015751,-0.20296,-0.27053,-0.25407
0.44041,0.71004,-0.07248,-0.0019917,-0.019685,-0.069078,-0.07064,0.22146
-0.73866,0.2435,-0.093801,0.14018,-0.057539,-0.18817,-0.68771,-0.35258
0.56243,0.43072,0.1152,0.26726,-0.058873,0.32573,0.28712,0.21318
0.36424,-0.32366,-0.23524,0.26409,-0.046484,0.013593,-0.11147,-0.096165
-0.7196,-0.47279,0.065842,-0.24492,-0.026807,0.15681,0.40134,0.031407
-0.15331,-0.63854,0.24579,0.55613,0.025452,-0.12139,-0.25742,-0.061915
0.045369,0.022181,-0.20962,-0.52863,0.01845,-0.011927,0.33577,0.13713
0.55559,1.0204,0.091967,-0.042194,0.29742,0.29335,0.37614,0.18822
-0.40287,-0.20004,-0.17581,-0.30314,-0.26193,-0.40518,-0.69269,-0.5521
0.18767,0.212,0.1682,-0.22458,0.14479,0.084478,0.30607,0.37462
-0.67062,-0.65824,-0.1329,0.41364,-0.077392,-0.12204,-0.18561,-0.19746
0.093836,-0.13397,0.28045,0.67674,-0.05536,0.061792,-0.06135,0.19951
0.94917,0.65361,-0.12348,-0.42286,0.068075,-0.12716,0.036029,0.018743
-0.52945,0.022636,0.021442,-0.44879,-0.15445,-0.14602,-0.20714,-0.15281
0.76207,-0.048285,-0.10638,0.037243,0.080176,0.28277,-0.072444,-0.21188
-0.4174,-0.06742,-0.039456,0.20169,0.08364,0.147,0.23707,0.375
-0.37161,-0.11422,0.096313,0.19625,0.043463,0.15176,0.42456,0.11794
-0.043597,0.30325,-0.16043,-0.68657,-0.17232,0.00021723,0.16947,-0.37933
-0.24865,0.10178,0.21384,0.82169,0.094036,-0.15307,-0.35684,0.11139
-0.079844,-0.78975,-0.16315,-0.12879,-0.15556,-0.24071,-0.34225,-0.041717
0.50606,-0.21109,0.12342,-0.092204,0.19804,0.10105,0.12749,-0.14318
0.5318,0.77574,0.035296,0.17302,-0.030994,-0.060676,0.053546,0.79075
-0.60305,-0.65412,-0.0049589,0.024997,-0.036918,-0.11114,-0.29622,-0.68653
-0.31862,0.45639,-0.2235,-0.99073,-0.053879,0.15915,0.29996,-0.03766
0.20655,-0.093587,0.27039,0.45302,0.058071,0.13248,0.16566,0.18092
0.3703,0.48363,-0.28137,0.52782,0.07869,-0.026766,-0.37603,-0.07133
-0.11958,-0.22439,0.21436,0.03877,0.013732,0.01818,0.34841,0.21245
-0.42554,0.21649,-0.055718,-0.45851,-0.084358,-0.098652,-0.11406,-0.25705
0.28678,-0.11522,0.0090428,-0.15802,0.032428,0.053905,0.2819,0.098794
0.552,-0.33875,0.20473,0.84008,-0.020056,-0.092772,-0.56036,-0.10955
-0.90225,-0.16747,-0.21129,-0.68938,-0.10156,0.056959,0.37895,0.10378
0.61124,0.22586,-0.067028,-0.18275,-0.023918,-0.0026587,-0.052212,-0.095611
-0.16605,0.046542,0.13827,0.65765,0.17544,0.097702,0.26841,0.26231
-0.085866,-0.043117,-0.16436,-0.3319,-0.10278,-0.093003,-0.37915,-0.14988
-0.35022,0.17001,-0.059134,0.12964,0.057967,-0.088575,-0.13489,-0.16034
0.075008,-0.50387,-0.0052905,-0.45072,-0.051049,-0.0048911,-0.12916,0.1598
0.27279,0.4586,0.16246,0.44907,-0.029857,0.0023387,0.0089422,-0.15973
0.36719,-0.27782,0.13203,-0.32919,0.028344,0.073298,0.35393,0.3557
0.14048,0.27119,0.16061,0.64969,0.13863,0.097099,0.13607,-0.10057
-0.47471,0.041003,-0.034582,-0.40589,0.033825,0.16501,0.23281,0.001129
-0.51264,-0.012507,-0.46353,0.23603,-0.10083,-0.17923,-0.37072,0.0037813
0.20504,-0.3665,-0.15986,-0.88747,-0.13505,-0.12646,-0.20669,-0.57668
0.52198,0.6159,0.31953,0.44099,0.10068,0.015642,0.13672,0.51898
0.040219,-0.38397,0.090103,0.65833,-0.035996,-0.07546,0.062718,-0.17577
-0.48217,0.055983,0.1117,-0.58677,-0.038123,0.060032,-0.21323,0.0056941
0.18047,-0.10321,-0.076966,-0.0042643,0.11005,0.17991,0.48553,0.12033
-0.20127,-0.11044,0.032331,0.43879,-0.043564,-0.17579,-0.48411,0.14615
0.26556,0.52183,-0.19982,-0.32554,0.010597,0.010242,0.0010227,-0.10398
0.16624,-0.22402,0.072269,-0.20056,0.009061,0.068168,0.064793,0.11134
-0.39357,-0.58146,-0.14892,0.38737,-0.12408,-0.046818,0.13631,-0.24072
0.72822,0.54682,0.022125,-0.23797,0.18346,0.12803,0.27015,0.40038
-1.0704,0.064732,0.22072,-0.19064,-0.12943,-0.093427,-0.20529,-0.63903
0.67027,-0.31034,0.0034508,0.016039,0.078562,0.00058494,-0.11743,0.10854
0.16021,-0.048746,-0.034988,0.36746,-0.028634,-0.16774,-0.17598,0.080011
-0.2641,-0.059667,-0.019696,-0.058814,0.094975,0.3624,0.33956,0.14266
-0.11534,0.097143,-0.045494,-0.022716,-0.11456,-0.29227,-0.20137,0.32825
-0.26259,0.85948,-0.15319,0.19121,-0.057408,-0.015253,-0.14776,-0.43286
0.46722,0.10829,0.55365,0.040128,0.18657,0.20047,0.36234,0.15679
-0.35949,-1.0346,-0.37991,-0.41683,-0.1184,-0.099018,-0.24697,-0.33988
0.53666,0.16181,-0.064476,0.1775,0.042429,0.062105,0.22115,0.29607
-0.063931,-0.14857,-0.023925,-0.404,-0.042051,-0.13706,-0.045172,0.0099288
-0.98242,-0.41183,-0.031327,0.23815,-0.035426,0.068717,-0.15577,0.2313
0.76375,0.77921,-0.0389,-0.12048,-0.030443,0.0073285,0.036381,-0.19614
0.35075,0.3641,0.087192,0.24128,-0.057088,-0.04002,-0.10379,-0.16289
-0.26612,-0.7721,0.20698,0.35633,0.23741,-0.041985,0.014715,-0.23891
0.38195,-0.15925,-0.10928,-0.46265,-0.013264,0.32195,0.53747,0.3967
-1.0271,0.54605,0.051548,-0.037688,-0.10566,-0.35415,-0.38957,-0.11484
0.4332,-0.057151,0.039412,-0.090956,-0.00097215,0.12546,0.27882,0.21127
0.2045,0.15935,0.071177,1.1309,0.10476,0.11291,-0.37181,-0.14056
0.16561,0.12708,-0.26883,-0.56427,-0.039472,-0.16454,-0.29356,-0.22547
-0.57791,-0.074188,0.018543,-0.44537,-0.083095,-0.096737,0.070483,0.25251
0.087737,-0.47282,-0.12894,-0.53719,0.012189,0.1217,0.051402,0.026606
0.38629,0.34283,0.094772,0.25536,-0.058674,-0.055668,0.56619,0.14262
-0.18447,-0.2435,0.12151,0.32672,0.0090701,0.089934,-0.031403,0.09994
0.26467,-0.35256,0.00057594,0.52624,0.11428,0.034511,-0.17015,-0.63257
-0.0090162,-0.18845,-0.10183,-0.29599,-0.0080278,0.0035125,-0.33493,0.047651
-0.23148,0.55371,0.10463,-0.41532,-0.036862,0.018855,0.25379,0.1345
-0.19776,0.56112,-0.1533,-0.061623,-0.026307,-0.12423,-0.14085,-0.049667
-0.12361,-0.15286,0.34996,0.5176,0.11783,0.12757,0.33006,0.37973
0.38547,0.078548,0.034448,0.1976,-0.03383,-0.10154,-0.32793,-0.013795
0.1774,-0.5653,-0.25824,-0.53127,-0.10612,-0.01459,0.032295,-0.089723
-0.494,-0.19657,-0.084681,0.20261,0.041699,0.06131,0.1997,-0.036771
0.21,0.76634,0.046224,-0.02681,-0.012157,-0.02045,-0.082337,-0.10701
0.27512,-0.18137,-0.1077,-0.051848,-0.025474,-0.15601,-0.11617,-0.052895
-0.5334,-0.83305,-0.076603,-0.22766,-0.037404,0.047529,0.093392,0.17791
0.29822,0.59718,0.28195,0.11505,0.12365,-0.017459,-0.56002,-0.13512
0.56393,-0.14244,-0.10814,0.052944,0.0040226,0.30602,0.52744,0.053955
-0.25511,0.2289,0.10635,0.21052,-0.014221,-0.068442,0.1926,-0.036116
-0.37254,0.3759,0.10598,0.15051,0.1149,0.0059061,-0.057665,0.119
-0.44611,-0.5048,-0.1953,-0.4311,-0.18759,-0.075032,0.047359,-0.20572
0.21947,-0.27865,0.099915,-0.17409,-0.06294,-0.14224,-0.058883,0.14789
0.50057,0.61867,0.060335,0.50051,0.10582,0.067352,-0.21685,0.033302
-0.42879,-0.58454,-0.20646,-0.29715,-0.017007,0.012952,0.085131,-0.063487
0.28512,0.65213,-0.06143,0.29297,0.053661,0.037781,0.22747,-0.024203
0.18282,-0.44387,0.025644,-0.25971,-0.032695,0.0019755,-0.29786,0.018774
-0.56361,-0.32544,0.038747,0.061232,-0.0561,-0.092566,0.12075,-0.02852
0.84944,0.72567,0.19689,0.31163,0.070585,-0.05568,-0.37965,0.22381
-0.53324,-0.10422,-0.053848,-0.069408,0.028043,0.13898,0.22985,-0.0064807
-0.065686,-0.28559,-0.016991,-0.90009,-0.12841,-0.13099,-0.42029,-0.43916
0.14844,-0.45327,0.043202,0.65007,0.15609,0.28464,0.8069,0.29222
-0.25914,0.92201,-0.19214,-0.11199,-0.12661,-0.17596,-0.1257,-0.054815
0.32119,-0.1378,-0.12788,0.12784,0.069609,0.080487,0.328,0.043352
-0.15579,-0.14111,0.23706,0.3779,0.0092499,0.0056139,-0.23368,0.11856
-0.22659,0.11578,0.004876,-0.53454,0.011358,-0.019845,-0.29987,-0.28153
-0.060308,-0.49021,-0.050983,0.56809,-0.058114,-0.14654,-0.11785,-0.031222
0.15768,-0.18271,0.18598,-0.5439,0.057645,0.076778,0.21453,0.088617
0.30307,0.0027019,0.05041,0.27438,-0.016979,0.00041048,-0.12527,0.32001
0.16373,0.66288,-0.28749,-0.48836,-0.079009,-0.07144,-0.020007,0.13096
-0.29452,-0.20804,-0.12637,-0.11632,-0.057827,0.0098593,-0.092613,-0.5501
0.37737,0.56982,0.18067,0.62274,0.14097,0.018399,-0.058435,0.15031
-0.6763,-0.41923,-0.039315,0.53225,0.018236,0.087806,0.305,-0.22241
0.58835,-0.17821,0.20538,-0.77871,-0.02674,0.023476,-0.014848,0.34617
-0.35302,0.00027719,0.05558,0.12804,0.069273,0.068043,0.29623,0.16006
0.032577,-0.4416,-0.11283,-0.44122,-0.14634,-0.043955,-0.050706,-0.29648
-0.45391,0.72859,-0.19685,0.18778,0.022006,-0.11722,-0.041274,0.19575
-0.37724,-0.177,-0.2025,0.4398,0.05874,-0.042389,-0.51346,-0.48732
0.78383,-0.12583,0.3408,0.013122,-0.0049915,0.040017,0.20245,0.25708
0.47876,-0.24041,-0.049918,-0.29273,-0.0053179,-0.049384,-0.3172,-0.038587
0.256,0.3729,-0.0068532,-0.26487,0.018485,0.18204,0.38741,0.32983
-0.52651,-0.32236,0.2039,0.58212,0.011551,-0.10117,0.15167,0.12079
-0.34934,0.11272,-0.012958,-0.28301,-0.073112,0.0075189,-0.22774,-0.3685
0.15699,-0.06442,-0.23012,0.037235,-0.071511,-0.14812,0.038127,-0.028533
0.3932,0.56577,0.073178,-0.12294,0.063158,0.13468,0.097547,0.015884
-0.62933,0.10099,0.058613,0.12487,0.033879,0.12083,0.42695,0.023028
0.12647,-0.26007,0.013788,0.12202,0.090394,0.08286,-0.38758,-0.037552
-0.04977,-0.068139,0.1417,0.18667,0.029206,-0.13634,-0.28287,0.16333
-0.124,-0.60649,-0.54069,-0.75316,-0.13446,-0.11543,0.023785,-0.14666
0.65016,-0.10113,0.062956,0.33282,0.099087,0.020636,-0.19984,0.0020756
-0.48064,0.53716,0.034093,-0.094643,-0.15302,-0.11026,0.33003,-0.015156
0.041992,-0.076793,0.46197,0.23056,0.03134,0.12595,0.2329,0.19959
