-0.0017416,0.033809,0.31093,-0.027601,-0.016368,-0.003713,0.0085943,-0.041601
-0.015912,0.039923,-0.056969,-0.016975,-0.015723,-0.018957,-0.008248,0.16801
0.017352,-0.069496,-0.23324,0.017436,0.031683,0.036001,0.023152,-0.021586
-0.042679,0.071883,-0.006846,0.028367,-0.014762,-0.01842,-0.053172,-0.19613
-0.047736,-0.16206,-0.30665,-0.047126,-0.0066143,-0.0024368,-0.010638,-0.23025
0.095686,0.12587,0.69696,0.048335,0.0092357,0.0058661,0.025452,0.2047
-0.011163,0.0048257,-0.51768,-0.0059009,0.017126,0.0064616,0.08574,0.24209
0.13138,0.13798,0.26211,0.079068,0.017012,0.030506,0.13033,0.2964
-0.086387,-0.20167,-0.087399,-0.13416,-0.030194,-0.03151,-0.25573,-0.35864
-0.18029,0.087582,0.30152,0.050086,0.016155,-3.3225e-05,0.028345,-0.38697
0.099628,-0.14194,-0.54015,-0.086317,-0.046974,-0.023592,-0.056988,0.14891
0.034722,0.064149,0.33191,-0.019204,-0.00068119,0.014985,0.081938,0.31918
-0.038831,-0.019154,0.13492,0.095848,-0.001044,-0.0092409,0.062626,-0.14993
0.019856,-0.12472,-0.34375,0.024891,0.030197,0.013236,-0.083036,-0.071602
-0.015586,0.33454,0.25374,0.03358,0.030574,0.012266,0.067649,-0.0015926
0.05022,-0.14867,-0.24564,-0.026932,-0.015646,-0.011995,-0.10947,0.011729
0.076593,0.089541,0.063815,0.030079,0.0084706,0.010883,0.10511,0.20879
-0.069369,-0.014083,0.064998,-0.077602,0.001006,0.0028375,0.00097237,0.033185
0.034214,-0.077765,-0.12426,-0.030579,-0.061855,-0.020508,-0.0075683,-0.094468
-0.034295,-0.0086975,0.38773,0.037697,-0.0085482,-0.01233,-0.045531,-0.16667
-0.15717,0.036376,-0.31949,-0.037023,0.059209,0.019467,-0.003801,0.18475
0.041371,-0.020499,-0.041216,0.12842,0.039913,0.020091,0.078115,-0.2253
-0.00028604,-0.12379,0.54465,0.034856,0.019812,0.020686,-0.11284,0.044294
0.10918,-0.15503,-0.61475,-0.30087,-0.13336,-0.088204,0.016481,-0.13506
-0.0206,0.29337,0.20115,0.091362,-0.0047818,0.04493,0.090465,0.021885
0.031885,-0.058909,-0.24053,-0.0059564,0.00011946,-0.033054,-0.14144,0.16642
0.093758,0.21012,-0.38425,0.19713,0.13214,0.076295,0.25781,0.2213
-0.10987,-0.22071,0.75414,0.0525,-0.0065715,-0.009804,-0.15738,-0.21335
0.099089,0.41252,0.28243,-0.07294,-0.040761,-0.033492,-0.019888,0.23379
-0.12442,-0.4627,-0.21642,-0.0081481,-0.017489,0.013093,-0.024819,-0.12996
0.031409,0.15145,-0.16836,-0.19963,-0.093668,-0.049686,-0.062353,0.080397
-0.26146,-0.23103,-0.23414,-0.070597,0.0030178,0.020392,0.047838,-0.053967
0.10721,0.02973,0.12119,0.14327,0.091379,-0.01105,0.064297,-0.12955
0.1857,0.1215,-0.066263,0.26115,0.13844,0.090309,0.23774,-0.12292
-0.1026,-0.040554,0.49914,-0.1241,-0.091908,-0.066268,-0.43121,-0.36723
0.095201,0.13897,-0.43191,-0.091206,-0.007309,0.034699,0.31575,0.47069
0.037696,-0.072519,-0.12255,-0.13256,-0.038227,-0.013178,-0.15381,-0.19681
0.13136,0.20942,-0.18624,0.2442,0.026409,-0.014653,-0.09749,0.26106
-0.15533,-0.16243,0.21722,-0.061851,-0.054429,-0.016558,0.078542,0.45785
-0.2291,-0.22646,0.61516,-0.034127,-0.059869,0.028159,0.14757,-0.48756
0.1986,0.048732,-0.71616,-0.437,-0.23712,-0.13021,-0.25801,0.080026
-0.21632,0.14715,0.31824,0.23093,0.21374,0.12586,0.13447,0.12589
0.088491,0.005427,0.28046,0.76799,0.44391,0.0076526,0.1052,-0.54251
0.21446,0.16917,-0.081159,0.15221,0.10395,0.085736,-0.073633,0.30354
-0.11991,-0.30845,-0.2534,-0.54461,-0.31283,0.047774,0.15142,0.31511
0.030126,0.063111,-0.61374,-0.83669,-0.4548,-0.20773,-0.056564,-0.24615
-0.055065,0.0011602,0.44522,-0.34008,-0.36991,-0.14176,-0.29962,-0.33558
0.1312,0.16869,0.23467,0.57835,0.54908,0.065874,-0.030728,0.10894
-0.013783,-0.13007,-0.23027,0.83157,0.61934,0.19615,0.19619,0.34645
-0.10806,0.097411,0.58963,0.51047,-0.077085,0.11581,0.062028,-0.23007
0.035568,-0.085165,-0.2893,-0.53789,-0.13025,-0.066359,0.052546,0.054137
-0.16056,-0.13671,-0.31888,-0.2095,-0.24694,-0.10881,-0.080953,-0.079323
0.14852,0.14859,0.29179,-0.41555,-0.30454,-0.10589,0.12349,0.247
-0.066603,-0.062234,-0.30643,-0.034258,0.087047,-0.018879,-0.32568,0.11315
0.055544,0.014908,0.20175,0.1448,0.12462,0.17558,0.39994,-0.010631
0.087265,0.21035,-0.024597,-0.15723,-0.071402,-0.022286,-0.44194,-0.49804
-0.23559,-0.44353,-0.24093,0.12695,0.17513,-0.0026105,0.31242,0.1054
0.22043,0.32642,0.24154,0.27694,0.071781,-0.077283,-0.14225,0.10589
0.087821,-0.012831,-0.046258,-0.021411,-0.057386,0.043397,0.13081,-0.12008
-0.15029,-0.066068,0.14351,0.10401,0.086936,0.055298,-0.11923,-0.016676
-0.058387,0.23277,-0.075949,0.023225,-0.080381,-0.025557,0.075499,0.45551
-0.045101,-0.27727,0.40727,-0.48999,-0.15387,-0.073976,0.057959,-0.38405
0.12938,-0.030313,-0.4282,0.093599,0.067544,0.0037681,-0.24276,0.14217
0.072484,0.095211,-0.27503,0.30917,0.10445,0.066824,0.27465,0.08552
-0.021691,0.33972,0.62888,0.2065,-0.014978,-0.033617,0.079088,-0.13618
-0.012715,-0.37464,-0.53009,-0.33658,-0.027836,0.13169,-0.3054,0.16051
-0.22,-0.22511,-0.094044,-0.074212,-0.014209,-0.078279,-0.010645,-0.11364
0.030196,0.26913,0.55058,0.030165,-0.06092,-0.062234,0.089532,0.039543
0.029516,-0.33177,-0.69951,-0.055139,-0.042704,-0.015551,-0.058477,-0.20021
0.17918,0.43885,0.66254,0.077761,0.049522,-0.14121,-0.024323,-0.02624
-0.14332,-0.20313,-0.3725,-0.1772,0.053659,0.19389,0.18416,-0.1304
0.13405,0.065914,-0.034276,0.30141,0.018804,0.021313,-0.0041572,0.24933
0.05104,0.27052,0.24962,-0.091496,-0.0061271,0.09127,0.33112,0.070066
-0.19753,-0.19203,-0.27958,-0.32123,-0.07433,-0.072749,-0.33524,-0.071558
0.082173,0.089284,0.63209,0.55166,0.088343,-0.15054,-0.26273,0.21625
-0.018317,-0.038151,-0.13074,-0.043037,0.020829,0.084229,0.086645,0.15933
-0.040572,-0.17244,0.01094,-0.052261,-0.0042929,-0.0014832,-0.076378,-0.37744
0.21614,-0.051633,-0.83203,-0.19773,-0.082121,0.037459,0.20986,-0.076973
-0.23445,-0.053148,0.6328,-0.092408,0.02801,0.0056935,0.11089,0.12771
0.067467,0.1971,-0.41648,0.064902,0.0044163,-0.057622,-0.066767,-0.023842
-0.081458,-0.14426,0.53728,0.18558,0.0102,0.019615,-0.18841,-0.19708
-0.055615,-0.060386,-0.49384,-0.036484,-0.0019062,0.02678,0.20066,0.19401
0.25563,0.43456,0.29303,-0.054378,-0.055142,-0.043612,-0.070403,0.18217
-0.14613,-0.25205,-0.39259,-0.16355,-0.047274,-0.050684,0.014444,-0.31605
0.021961,-0.10413,0.29845,0.091593,0.10856,0.18535,-0.045041,0.28047
-0.098129,0.11239,0.30687,0.042143,-0.055457,-0.21843,-0.023072,-0.41607
0.1898,0.33417,0.070488,-0.16846,0.055063,0.14389,0.13388,0.30745
0.042391,-0.27573,-0.46802,0.18057,0.026278,0.045293,-0.052052,0.045808
-0.11849,-0.20234,0.28012,0.058802,-0.0014539,-0.046011,-0.082147,-0.15439
-0.0040275,0.054406,0.23831,0.22349,0.049338,-0.044509,0.081639,0.45532
-0.052015,-0.067006,-0.49031,0.016634,0.013742,0.080846,0.0011604,-0.4244
0.01081,-0.033548,-0.11379,-0.47054,-0.25748,-0.19329,-0.089429,0.13327
-0.057758,0.15698,0.013589,-0.068792,0.071053,0.047531,-0.10403,-0.2494
0.12517,0.10045,0.38394,0.19621,0.061646,0.069469,0.21559,0.15204
-0.13569,-0.029747,-0.26592,0.13556,0.034756,0.021484,0.057433,-0.12453
0.057881,0.048281,0.013646,-0.11049,0.022014,0.021056,-0.093673,-0.06375
0.0569,0.03731,-0.076662,-0.057051,-0.13237,-0.13502,-0.12809,0.28026
0.24327,-0.18099,0.48422,0.086215,0.15795,0.19339,0.11831,0.1352
-0.095052,-0.061298,-0.39281,0.0084866,-0.044238,-0.080488,-0.003049,0.0025727
-0.40447,-0.058316,0.18611,-0.05405,0.026841,0.073649,0.10138,-0.24092
0.22833,0.44398,-0.0040378,0.072171,-0.0036741,-0.071547,-0.084171,-0.28094
-0.032798,-0.29708,-0.46344,0.068256,0.012891,0.03048,0.0028333,0.43128
0.10948,5.0539e-05,0.59536,-0.056898,-0.063624,-0.1121,-0.16851,-0.28212
-0.054744,0.023918,-0.25996,-0.013472,-0.044974,0.0018127,0.19933,0.22888
-0.17247,-0.27864,0.32682,-0.097891,-0.039572,-0.016687,-0.17397,0.11388
0.22659,0.17993,-0.57715,-0.028774,0.039515,0.021925,0.079742,-0.23602
-0.059369,0.1665,-0.013696,-0.087633,0.036787,0.088296,0.25039,-0.16491
0.072087,0.025303,0.42139,0.19351,0.030588,-0.019369,-0.2787,0.24002
-0.089766,0.091697,-0.069991,0.063273,0.028201,-0.06629,-0.038775,-0.046803
-0.1782,-0.26875,0.10553,-0.003767,0.02047,0.1656,0.11804,-0.059492
0.32916,-0.027245,-0.19228,0.04465,-0.025877,-0.04419,-0.0046613,0.33148
0.079344,0.19613,-0.19679,-0.17681,-0.050735,-0.080936,0.021322,-0.0099372
-0.17132,-0.19522,0.093414,0.095308,0.060752,0.091643,0.069333,-0.2739
-0.15845,0.23392,0.55497,0.13312,0.0020969,-0.10713,-0.07309,-0.12601
-0.054666,-0.12717,-0.86528,-0.27441,-0.079126,-0.015039,-0.071094,0.082088
0.10084,0.072962,0.99794,0.069278,0.098647,0.10935,0.059302,-0.023121
0.14446,-0.24263,-0.98755,-0.028637,-0.14276,-0.092904,-0.040851,0.037715
0.061442,0.10808,0.076611,-0.14297,-0.050856,-0.049909,0.0046515,0.19009
-0.20966,0.034523,0.92392,0.16729,0.033602,0.0063246,-0.060228,-0.20281
-0.058471,-0.022324,-0.95508,-0.016785,0.058853,0.047236,0.055567,0.11239
0.15642,0.018913,0.55462,0.21289,0.050588,-0.026273,-0.028975,-0.096281
0.083879,0.066987,-0.26811,-0.073071,0.017728,0.029729,0.031119,0.031667
-0.07291,0.0061231,0.5981,0.10071,0.077213,0.10657,0.095608,0.25382
-0.017322,0.13337,-0.69946,-0.17437,-0.0068311,0.047579,0.062405,-0.1578
0.09394,-0.10695,0.31589,0.012788,0.013226,0.0076469,-0.030712,-0.13513
-0.21623,-0.099569,-0.057284,-0.012527,-0.076213,-0.09326,-0.037027,0.014545
-0.096841,-0.2845,-0.73001,-0.11968,-0.1525,-0.13992,-0.23954,-0.047248
-0.01721,0.054195,0.42658,-0.044219,-0.045307,-0.03237,0.04784,0.099301
0.3033,0.46843,0.57258,0.073154,0.080774,-0.037153,0.15245,0.093436
0.15313,-0.059884,-0.53124,0.10822,0.11684,0.22834,0.10543,-0.12794
-0.0073689,0.16268,0.7337,0.07006,-0.053112,-0.047977,-0.21772,0.11503
-0.16286,-0.29449,-0.6331,-0.11024,-0.03695,0.001852,0.051105,-0.21596
-0.094389,-0.19678,-0.071283,-0.048727,0.041736,0.0037189,-0.047981,0.16153
-0.2073,-0.003577,0.54873,0.13039,0.12146,0.020924,0.079731,-0.06364
-0.12502,-0.024703,-0.30778,0.1306,0.030812,0.038443,0.12239,0.2035
0.44347,0.28229,-0.20622,-0.16513,-0.1834,-0.16992,-0.029128,-0.44243
0.070407,0.045863,0.10948,-0.1161,-0.013803,0.028816,-0.13278,0.28798
-0.1256,-0.2233,-0.32194,-0.034598,0.031201,0.064356,0.014168,0.097652
0.020005,0.17184,0.25819,0.15787,-0.0098625,0.022565,0.059657,0.017108
-0.079268,-0.19033,0.11704,-0.22569,-0.020142,-0.049804,-0.16078,-0.071839
-0.096845,0.20462,-0.4157,0.11982,0.062796,0.042445,0.26673,-0.029549
0.22284,0.12773,0.74689,0.21792,0.0047779,-0.013255,-0.1968,-0.19263
0.18198,-0.064743,0.089312,-0.21299,0.0015528,0.017502,-0.0041577,0.11849
-0.21387,-0.24315,-0.32657,0.26374,0.084982,0.025502,0.13426,0.099637
-0.27881,-0.05077,0.13111,-0.071853,-0.072338,-0.059277,-0.077793,-0.029347
-0.013467,-0.090891,-0.73364,-0.20542,-0.094666,-0.06459,-0.0069306,-0.071716
0.16063,0.29997,0.16518,0.018234,-0.036046,-0.05259,-0.027728,0.16933
0.11966,-0.057402,0.42229,-0.034273,0.025769,0.14878,0.070911,-0.29718
-0.0097245,0.057071,-0.13256,0.051113,0.10634,0.039382,0.0075678,0.06064
0.024248,0.074922,-0.11473,-0.092301,-0.076248,-0.053175,-0.062016,0.20362
0.035699,-0.25958,0.055307,0.11441,-0.05451,-0.028235,0.017605,-0.11133
-0.13032,0.071261,0.08896,0.12527,0.16979,-0.027567,-0.035831,0.31734
0.097459,0.13181,0.17311,0.026993,0.46192,0.30706,0.0031652,-0.23878
-0.25688,0.11107,0.46246,0.078008,-0.49229,-0.17366,0.09457,-0.11735
0.22113,-0.43524,-0.70122,-0.41653,-0.084433,-0.1966,0.17522,0.016468
-0.030845,0.1261,-0.10097,0.39531,-0.33007,-0.034833,-0.24724,0.0062635
0.018368,0.12294,-0.034661,-0.56428,-0.032848,0.078256,-0.047417,0.024804
0.048078,0.11673,-0.11944,0.14243,0.4965,-0.12939,-0.10713,-0.035519
-0.30183,-0.27715,0.10656,0.26538,-0.24792,0.18738,0.082832,-0.078722
0.2253,0.24362,0.37909,0.18699,0.57922,0.20146,0.086498,0.092661
0.11234,0.020101,-0.13661,0.133,-0.12277,-0.047678,0.053587,0.17545
0.013727,0.073185,0.25529,-0.37427,-0.11153,-0.029091,0.04731,-0.15807
-0.056786,-0.23973,-0.28934,-0.10157,-0.33272,-0.14206,-0.11208,-0.025982
-0.14779,-0.021227,-0.0295,-0.057596,-0.075867,-0.067395,0.1449,0.17116
-0.049597,-0.091457,0.14259,0.14785,-0.067891,-0.040562,-0.23791,-0.0071669
0.22158,0.14463,0.10044,-0.0085796,0.1442,0.031355,-0.0044894,-0.12679
-0.16998,-0.045168,-0.73503,0.18456,0.41192,0.19477,0.24184,-0.034464
0.3002,0.12299,0.58923,-0.38141,-0.18674,0.043373,-0.14093,0.080264
-0.32711,-0.012425,-0.23845,0.30983,-0.08964,-0.18038,0.16677,-0.10356
0.044029,-0.05098,0.45536,0.15724,0.14795,0.02408,-0.24117,0.12596
-0.013709,0.016364,-0.25708,-0.18263,-0.060574,0.079398,-0.012207,-0.20528
0.072171,0.11964,-0.15505,-0.14716,-0.090691,-0.052587,0.019453,-0.023389
0.076775,-0.10096,0.38807,0.07615,-0.075331,-0.12878,0.043466,0.37888
-0.061514,-0.091723,-0.68921,-0.05959,-0.076643,0.085979,0.077639,-0.23667
0.0010147,-0.0023254,0.25395,-0.023152,0.054533,0.060937,-0.016868,0.078466
-0.080325,0.12695,0.34973,0.13073,0.16281,-0.039748,-0.028086,-0.05664
0.17719,-0.048646,0.24532,0.050373,0.014504,0.05699,-0.01842,-0.23546
-0.080042,-0.22507,-0.64681,-0.061287,-0.11667,0.022238,0.073773,0.20468
-0.049392,0.35521,0.8751,0.19397,0.28464,0.0033754,-0.08906,0.3937
0.087799,-0.14363,-0.96312,-0.28558,-0.26671,-0.10227,0.11605,-0.30507
-0.1069,0.060068,0.10444,0.047006,-0.006133,0.0090938,0.022995,-0.036494
0.046188,-0.072096,-0.25692,-0.081435,-0.0049853,-0.0067942,-0.072925,0.07059
-0.022326,0.10138,0.35305,0.017109,0.056329,-0.0014805,-0.14127,-0.24441
-0.052959,-0.074786,0.47513,0.046363,0.11512,0.080243,0.091517,0.048483
0.0032358,-0.12305,-0.54603,0.092778,-0.22664,-0.073211,-0.12353,0.035589
0.0076487,-0.073873,0.4298,0.10975,0.016387,0.039266,0.1527,0.17967
0.078975,0.22155,-0.15391,-0.074644,-0.021676,-0.096887,-0.046752,-0.29768
-0.0087001,-0.11199,0.074892,0.00019945,0.10583,0.07382,-0.02508,0.27863
0.025497,0.15898,-0.19975,-0.27561,0.079645,0.012687,0.10133,-0.22115
0.13337,0.24383,0.13619,0.050475,-0.13093,0.047695,0.058978,0.37728
0.016092,-0.18749,-0.34129,0.142,0.19276,0.092292,0.065704,-0.25268
-0.32069,-0.34796,0.24993,0.13916,-0.098429,-0.15132,-0.12995,0.26459
0.11331,0.12785,-0.12835,-0.044298,-0.021199,-0.012282,-0.029574,-0.21953
-0.14411,-0.12067,-0.12243,-0.04136,-0.022074,0.00071278,0.013975,-0.1901
0.05496,0.093293,0.2471,-0.15675,-0.070874,-0.034791,-0.17966,-0.12481
0.1404,0.1836,0.07694,-0.030996,-0.058965,-0.0018326,0.045826,0.021821
0.10509,0.18941,0.11958,0.14861,0.083619,0.021548,0.0035989,0.42774
-0.15946,-0.32645,-0.037323,0.062008,0.036567,-0.0034395,0.038378,0.028346
-0.011773,0.0036976,-0.15849,-0.17344,0.12825,0.10322,0.15109,-0.2178
0.025391,0.18061,-0.0014789,0.26268,-0.015925,0.05275,0.27203,0.20256
0.061853,-0.22419,-0.23831,-0.12182,-0.098631,-0.013985,-0.31736,0.02968
0.13697,0.32227,0.201,-0.061369,-0.0099724,-0.11238,-0.085972,-0.28432
-0.25679,-0.373,0.073872,-0.055995,-0.14002,-0.1093,0.020602,-0.043843
-0.056552,0.036525,-0.20614,0.058433,0.082105,-0.004331,-0.13847,-0.036256
0.17578,0.1397,0.3446,0.024273,0.11003,0.1093,0.15558,-0.15718
-0.12152,-0.068636,-0.31399,-0.15042,-0.071491,0.060245,-0.003305,0.33895
0.075848,0.0071343,0.082311,0.25336,0.1627,0.0051387,-0.0054009,0.11157
-0.075128,-0.13234,0.39909,0.079576,-0.078097,0.045711,0.12618,-0.18862
0.1135,0.28549,-0.22466,-0.31229,-0.14569,-0.1697,0.0088162,0.35331
-0.022322,-0.030823,-0.41529,0.077813,0.029838,0.06949,-0.091812,-0.48204
0.0090722,0.15724,0.22483,0.023278,0.00274,-0.0028559,-0.097696,0.3268
-0.027636,-0.264,0.07065,0.078718,0.085075,0.0032841,0.0065652,-0.38694
0.077279,-0.048785,0.021288,-0.0059836,0.0030023,0.0013721,0.064425,0.57708
0.025704,0.096437,-0.046919,-0.3091,-0.040689,-0.040371,-0.11197,-0.22861
-0.20681,0.13077,0.14122,0.45826,0.047511,0.088583,0.17229,-0.24245
-0.019324,-0.51608,-0.31081,-0.21188,-0.052807,-0.057329,0.080861,-0.0029958
0.048954,0.36083,0.083157,0.063165,0.00218,0.045257,-0.042832,-0.1099
0.15452,-0.039942,0.36368,0.041166,0.0096003,-0.025423,-0.011415,0.20534
-0.030247,0.2543,-0.054181,-0.13716,0.032351,-0.0034681,-0.13719,-0.0072348
-0.036073,-0.3073,-0.20122,-0.034115,-0.11661,-0.060363,-0.11491,0.49724
-0.096951,-0.042141,-0.30415,-0.16509,0.016218,0.038688,0.071909,-0.74064
0.029395,0.01978,0.15967,0.34501,0.063842,-0.0028437,0.12731,0.29475
0.092697,-0.067614,0.016952,-0.097692,0.0026947,-0.036364,-0.073007,-0.046679
0.092361,0.57565,0.17186,0.092215,0.090115,0.086462,0.12741,0.12268
-0.14429,-0.34398,0.20775,-0.05484,-0.049647,0.013703,-0.029707,0.056768
-0.11028,0.11345,-0.057786,0.0383,-0.019013,0.018251,-0.045482,-0.099945
0.11564,-0.033682,0.11502,0.011433,0.0094118,-0.04108,0.086345,0.243
0.15044,-0.054654,-0.50186,-0.22958,-0.074112,-0.0083924,-0.089,-0.39286
-0.075852,-0.21634,-0.080382,0.18272,0.074335,0.0069846,-0.057224,-0.23419
-0.17944,0.029738,0.09193,-0.07101,-0.11481,-0.05688,0.22009,0.087958
0.044363,-0.36673,0.049287,-0.35639,-0.02313,-0.019226,-0.29586,0.40499
0.066272,0.54591,0.26431,0.51591,0.1321,-0.011455,0.13829,-0.10708
-0.041346,0.0014292,0.022323,0.063229,0.00074751,-0.016486,-0.20212,0.0090622
-0.011089,-0.024794,-0.024723,-0.14284,-0.017693,0.091831,0.099147,0.10855
0.072252,-0.043494,-0.48381,-0.086111,-0.00086704,0.017145,0.13782,-0.27499
-0.080128,-0.044562,0.54439,0.014447,0.051007,0.056035,-0.10044,0.023439
0.17168,-0.0051338,-0.19862,-0.045236,-0.11294,-0.042617,0.19717,0.22207
-0.0098306,0.39195,0.074081,0.038025,0.13873,0.039752,0.12364,-0.079296
0.09196,-0.13167,-0.24227,0.082718,-0.12525,-0.089513,-0.26786,-0.15676
-0.29865,-0.12848,0.30171,-0.045848,0.070133,0.028639,-0.026108,0.32252
-0.019564,-0.29889,-0.14137,0.11943,-0.026345,-0.05247,0.042458,-0.30072
0.060663,0.166,0.4802,-0.10231,-0.0013134,-0.013104,-0.14145,0.10372
-0.035129,-0.047912,-0.6947,-0.14127,-0.050161,-0.0092304,0.078026,-0.23946
0.16193,-0.088658,0.036724,0.010568,0.022942,0.022683,-0.064344,0.17653
-0.10529,-0.024642,-0.019716,0.0025035,-0.070088,-0.033033,-0.028597,0.0077224
0.12513,0.11547,0.1772,0.070216,0.14855,0.11435,0.29571,0.34055
0.065264,0.34185,0.012871,0.26991,0.0004261,0.013206,0.042311,-0.29272
-0.13536,0.077793,0.34902,-0.24069,-0.075852,-0.030708,-0.20233,0.05465
-0.13983,-0.2078,-0.64098,0.031904,0.15489,0.053475,0.015043,-0.21724
0.068302,-0.21913,0.25414,-0.0050642,-0.15063,-0.093582,-0.0010614,-0.10662
0.036483,-0.075346,0.37728,-0.10092,-0.078263,-0.065999,-0.047808,0.42722
0.061862,0.16661,-0.085717,-0.091273,0.012428,0.049652,0.054267,-0.27065
-0.074405,0.12969,-0.19928,0.16443,0.10534,0.026037,-0.030824,0.34743
0.13501,-0.093765,-0.0743,0.071959,0.020078,-0.028272,-0.060756,-0.33554
-0.1623,-0.16835,-0.12544,0.036635,0.068295,0.1047,0.11314,0.00032773
0.20449,0.23449,-0.21927,-0.091257,-0.13375,-0.10699,-0.094905,0.30729
-0.21108,-0.18869,0.52877,-0.016341,-0.0088244,0.039212,0.0182,-0.22824
-0.081896,-0.037603,-0.011704,-0.052628,-0.010773,-0.027439,-0.0010238,-0.19328
0.20071,0.17427,-0.18967,0.10326,0.039603,0.067827,0.27644,0.34882
0.073931,0.089704,-0.14363,-0.20586,-0.021957,-0.089065,-0.20493,-0.32119
-0.15735,-0.18779,0.51041,0.1446,0.054643,0.041164,0.17122,0.19501
0.11693,0.046618,-0.54778,0.092266,-0.027108,-0.017611,-0.44718,0.26485
-0.1568,0.37255,0.80575,0.16128,0.092761,0.078989,0.15862,-0.34552
-0.078712,-0.37264,-0.82925,-0.30339,-0.084973,-0.05109,0.082911,-0.27609
0.18859,5.6771e-06,0.11532,-0.19856,-0.11411,-0.078913,-0.10296,0.48156
-0.12708,-0.29716,0.11387,0.29793,0.10783,0.090021,0.24289,-0.26744
0.19382,-0.098888,0.18036,-0.015237,-0.058997,-0.082767,-0.097051,0.32082
0.026477,0.60318,-0.006516,-0.01156,0.050025,0.05146,-0.028102,0.11333
-0.10615,0.19914,-0.31419,-0.041716,0.044425,0.047321,-0.018549,-0.66381
-0.080136,-0.60983,-0.13289,0.035002,-0.013594,-0.0018919,0.048717,0.27781
-0.053183,0.29003,0.49913,0.053735,0.00023138,-0.065737,-0.28002,0.023405
0.0043329,-0.23876,-0.11254,0.020707,-0.0089209,0.08913,0.48641,0.18956
0.25494,0.2203,-0.21714,-0.31624,-0.050086,-0.069627,-0.28602,0.010204
-0.044762,0.21662,0.17791,0.36862,0.055271,0.027361,0.24516,-0.0070223
-0.012638,-0.00415,-0.0054484,0.018373,0.0094047,-0.0346,-0.38204,-0.42449
-0.047125,-0.37433,0.17011,-0.13426,-0.047482,-0.013528,0.034797,0.21917
-0.24908,0.0041853,0.11854,0.12089,-0.0059012,0.036138,0.37044,-0.044205
0.05469,-0.15564,-0.7772,-0.419,0.009784,-0.0099526,-0.39834,0.12976
0.022043,0.11118,0.28044,0.075501,-0.046251,-0.072758,0.11182,0.077465
0.092049,-0.088541,0.042591,0.23932,0.077274,0.098738,0.018863,-0.028992
0.32835,0.274,0.26849,0.074939,-0.0011734,0.036717,0.24545,0.036963
-0.081052,0.39075,0.49861,-0.02465,0.00071883,-0.047179,-0.098318,-0.11533
-0.39418,-0.62622,-1.016,-0.073202,-0.041388,-0.0041273,-0.12905,-0.03261
0.23198,0.47377,0.076467,0.03975,-0.0023332,-0.060647,-0.072868,0.13718
-0.062973,-0.31831,0.095723,-0.20121,0.047214,0.079871,-0.21071,-0.065974
-0.053488,0.18248,0.45402,0.24237,0.036147,-0.012755,0.44197,-0.25024
0.0018034,-0.19101,-0.29683,-0.13084,-0.036614,0.020231,0.12734,0.046514
0.0086521,-0.17604,0.22234,0.075871,-0.055047,-0.087427,-0.31099,0.012542
0.11532,0.35817,0.34363,0.063693,0.05794,0.062172,0.04857,0.23365
-0.014018,-0.26887,-0.76437,-0.24731,-0.081183,-0.0078925,-0.18489,0.18511
0.097522,0.24801,0.34174,0.20393,0.081987,0.022564,0.21496,-0.072974
-0.22926,-0.37873,-0.45523,-0.060062,-0.0070439,-0.010407,0.14643,-0.035981
0.037481,0.20471,0.29222,0.07769,-0.050784,-0.0596,-0.17169,-0.22288
-0.039124,0.21178,-0.11502,-0.14019,0.037628,0.031725,-0.17675,-0.12868
0.080584,-0.027006,0.28149,-0.040809,-0.045441,0.021944,0.21737,0.17463
0.092381,0.18571,0.14365,0.19756,0.021312,0.013156,-0.12977,0.077491
-0.07379,-0.35161,-0.32806,-0.16568,0.043321,-0.0098441,-0.085342,-0.20785
0.035214,-0.20041,0.073336,0.16787,0.013143,-0.0077666,0.69423,0.23523
-0.010501,0.11641,0.092119,-0.16775,-0.069295,-0.043118,-0.69773,0.00383
-0.13318,0.067436,0.04084,0.17984,0.13927,0.1026,0.1601,-0.23443
