0.015187,-0.056733,-0.06252,0.12515,0.044463,0.050095,0.030121,0.020416
-0.066115,-0.15516,-0.75494,-0.078591,-0.067972,-0.030896,-0.034329,-0.02851
0.07899,0.15738,0.0052734,0.025528,0.069894,0.013598,0.034057,0.039553
-0.048749,-0.1182,0.36384,0.17149,-0.049142,-0.042526,-0.037822,-0.032736
0.020127,0.088444,-0.21336,-0.001097,0.052012,0.019861,0.01595,0.012892
-0.02638,0.065255,0.66059,0.0063759,-0.0013135,-0.0099713,-0.015403,-0.01855
0.015007,-0.04939,-0.68347,-0.1357,-0.037198,0.024192,0.00872,0.013661
0.034637,0.022618,-0.24457,-0.037895,-0.055907,0.020478,0.017766,0.031217
-0.0072547,0.082438,0.82016,-0.35706,0.043582,-0.052926,0.034745,-0.0053929
0.052383,0.079962,0.11737,0.50064,0.25275,0.12356,0.020066,0.028202
-0.053202,-0.18231,-0.84927,0.30162,-0.15566,-0.06017,-0.065828,-0.024916
0.018745,-0.064279,-0.17092,-0.77319,-0.049383,-0.026586,-0.004498,-0.0012088
0.025425,0.068403,0.49042,0.81672,-0.12394,-0.0025207,0.032181,0.013158
-0.12697,-0.28075,0.17586,-0.95076,-0.03544,-0.026905,-0.02573,-0.075394
-0.00038649,0.36205,0.36455,0.52687,0.02898,-0.044536,-0.036894,-0.024112
0.015629,-0.13817,-0.83041,-0.086079,0.14005,0.015677,-0.03164,0.011612
0.070889,-0.034035,0.53391,0.20205,0.040177,-0.0095044,0.053459,0.063975
-0.067602,-0.18133,-0.47228,-0.17251,0.0026279,0.091493,-0.0074596,-0.014658
0.12467,0.14762,0.26281,0.36663,0.034645,0.053296,0.10619,0.088669
-0.039256,0.40413,0.43158,0.083302,-0.036495,0.016313,-0.012112,-0.055756
-0.028212,0.083642,-0.84972,-0.73474,-0.19603,-0.13728,-0.074081,-0.026568
0.032124,-0.27349,0.10665,-0.041125,0.11017,0.036935,-0.010572,-0.0043509
-0.023409,0.044316,0.019606,0.14111,0.038342,-0.0088131,-0.0025897,0.009793
-0.0085789,-0.10205,0.72389,0.18029,0.10478,0.0060581,0.12054,0.0069677
-0.057368,-0.37292,-0.14362,0.070013,-0.16572,0.081301,-0.11079,-0.021494
0.087199,0.32453,-0.887,0.24118,-0.15417,-0.10314,-0.025041,0.041137
-0.012732,0.10201,0.65464,-0.18046,0.17267,-0.05435,0.018655,-0.031678
-0.01324,-0.16038,0.1387,0.18025,0.011796,0.02559,-0.018041,-0.020688
-0.054328,-0.38577,-0.54569,-0.3253,0.004878,0.0049868,-0.063789,-0.026574
-0.041346,0.065121,1.0206,-0.1583,0.03482,0.017582,0.069978,0.022061
0.01883,0.38459,-0.42238,-0.18595,0.085059,0.1342,0.079426,0.0090908
0.1113,0.38701,-0.4449,0.95927,-0.010286,0.050141,0.0040687,0.044717
0.025441,0.016218,0.05858,-1.0345,-0.11293,-0.18824,0.015781,0.0043627
0.03452,0.10371,0.22961,0.95838,0.07944,0.082248,-0.018606,-0.010463
-0.11988,-0.63791,-0.14488,-0.64753,-0.20074,-0.155,-0.02148,-0.0080646
0.014522,-0.066316,-0.50855,-0.1179,0.10793,0.10695,-0.071378,0.0029488
-0.024075,0.25942,0.15012,0.13241,-0.057164,0.031548,0.011283,-0.017394
0.060601,0.056656,0.50642,0.49247,0.093892,-0.053356,-0.031014,0.023848
-0.059754,-0.42247,-0.29813,-0.64928,0.0080021,-0.046159,-0.025737,-0.03792
-0.0098154,-0.29773,0.7643,0.6266,-0.039429,0.092462,0.082647,-0.030974
0.070569,0.65683,-0.67419,0.39618,0.07855,0.019112,0.060546,0.076184
-0.059717,-0.012204,0.46682,-0.72432,-0.081803,-0.0080624,-0.021244,-0.075258
-0.047992,0.03726,-0.27465,-0.72645,-0.066456,-0.12164,0.024771,0.015428
0.091018,0.37114,0.38042,0.56411,0.054364,0.11601,-0.10666,0.036448
-0.095377,-0.59654,-0.85804,-0.15331,0.1471,0.017411,0.098992,-0.0038786
0.13483,0.3338,0.81707,0.47764,-0.047522,-0.073639,-0.16446,0.043067
-0.016056,-0.41447,-1.0325,0.30531,0.031125,0.1477,0.038773,-0.049469
0.013167,0.26785,0.42553,-0.31527,-0.22832,-0.091652,0.20697,0.038314
0.056926,0.12253,0.1288,-0.49185,0.14901,-0.080146,0.065219,0.032255
-0.089253,-0.10754,-0.69411,0.40786,-0.080242,0.026778,-0.28594,-0.1231
0.03472,0.080652,0.79409,0.17802,0.10695,-0.035651,0.028125,0.055989
-0.27439,-0.58021,-0.072431,-0.65463,-0.13282,-0.16522,-0.14068,-0.11058
0.062202,0.45062,0.567,0.2947,0.068689,0.11481,0.12277,0.041154
0.1864,0.076412,-0.49478,0.33216,0.18957,0.35863,0.015515,0.15206
0.076316,0.015301,0.28053,0.24078,-0.26834,-0.044302,0.56318,0.14457
-0.13378,-0.22426,0.21775,-0.51545,0.024974,-0.10347,-0.47384,-0.19925
-0.067853,-0.024489,-0.13948,0.38895,0.17281,-0.13309,-0.13175,-0.13616
0.14166,0.30131,-0.91664,-0.75688,-0.096852,0.14677,0.24085,-0.0087647
0.13514,-0.23457,0.031196,0.29211,-0.040874,-0.10812,-0.34536,0.019969
-0.056919,0.14242,-0.020505,-0.25569,-0.025993,-0.49884,-0.091215,0.05238
-0.22454,-0.46872,-0.025573,0.41889,0.15084,0.6088,0.027893,0.057456
0.029804,0.62904,0.83899,-0.10695,-0.065607,-0.47089,0.54274,0.35506
-0.013216,0.0051452,0.35817,0.71165,-0.035622,0.66221,-0.58821,-0.79032
0.036829,0.040214,-1.239,-0.73085,0.14589,0.13415,0.86497,0.6353
0.17228,0.091922,0.74213,0.012211,-0.28017,-0.60973,-0.0097659,0.22391
-0.27839,-0.87819,-0.15658,-0.20087,-0.010387,0.22636,-0.49211,-0.76821
0.083574,0.79063,0.23518,0.50973,0.19621,-0.46121,-0.21254,0.36894
0.20363,-0.16579,0.037044,-0.031971,0.11979,0.33266,-0.026248,-0.13819
-0.027728,-0.14737,-0.063604,0.48228,-0.092161,0.17533,-0.55946,-0.203
-0.056154,-0.55009,-0.98977,-1.0526,-0.041897,0.2673,0.82194,0.38666
-0.13208,0.37277,1.0704,-0.14633,-0.16734,-0.25257,0.027494,-0.12557
0.033228,-0.11665,-0.61649,0.27095,0.14861,0.099856,0.40553,0.42567
0.07255,0.24891,0.41379,0.43481,-0.070401,-0.50193,-0.38267,-0.23992
0.033099,0.76326,-0.25484,-0.0042628,0.090177,0.023796,-0.22289,-0.30153
-0.12348,-0.42614,0.46382,-0.46596,0.076275,0.18226,-0.1109,0.045618
0.033454,-0.029004,-0.3344,0.73892,-0.080182,-0.082994,0.12069,-0.058101
0.028317,-0.20475,-0.76343,-0.63105,-0.17542,0.12445,0.23192,0.15241
-0.044401,-0.052524,1.0947,0.38488,0.18179,-0.050334,-0.14347,0.02795
0.026483,0.055252,0.11109,-0.08922,0.11697,0.30114,0.29096,0.43473
-0.0094711,-0.18104,-0.39001,0.062518,-0.28342,0.20979,-0.63073,-0.55019
0.14343,0.36504,0.10284,-0.77055,0.31711,-0.25684,0.10387,-0.099706
-0.13381,-0.3,0.10099,0.66063,-0.19023,-0.33768,-0.033068,0.074448
0.1254,-0.12558,-0.85299,-0.03504,-0.10942,0.11022,0.95333,0.38592
-0.057603,0.0054212,0.38484,0.048585,0.13056,-0.23894,-0.68443,-0.33712
-0.10631,-0.021815,0.372,0.1304,-0.0712,0.34438,0.16616,0.023038
0.10358,0.061201,-0.2569,-0.46908,0.090385,0.18457,0.033191,0.14707
-0.044683,0.63094,0.34202,0.16438,-0.033125,-0.41629,-0.053033,0.067566
-0.033881,-0.24362,-0.43464,0.21833,0.003057,0.087158,-0.49711,-0.13579
-0.16615,-0.020503,0.26855,0.036563,0.018169,-0.063594,-0.27159,-0.30521
0.17096,-0.012807,0.13347,-0.099555,0.080989,0.35015,0.41036,0.24808
0.050821,-0.32554,-0.15118,0.060344,-0.083724,-0.0070597,0.41405,-0.014334
0.069685,-0.11237,0.040858,-0.39705,-0.063703,-0.095099,-0.34149,-0.10046
-0.14593,-0.035477,-0.0067799,0.1466,0.10048,-0.099631,0.4749,0.28541
0.1543,0.71991,0.093216,0.62241,-0.14684,0.1228,0.3561,0.11782
0.0086136,-0.24905,-0.76137,-0.92135,0.12376,-0.087918,-0.59772,0.17558
-0.10815,-0.32016,0.80655,0.12565,-0.040392,-0.25805,-0.33448,-0.56699
0.11426,0.2947,-0.026901,0.55262,0.088413,0.17267,0.37735,0.23236
-0.27962,-0.48962,-0.51411,-0.03205,-0.09756,-0.040275,-0.65191,-0.54383
0.012778,0.12587,-0.23577,-0.34143,-0.033907,-0.13458,0.045381,0.06636
0.11479,0.49557,0.64772,0.19172,0.046862,0.3611,0.71136,0.40859
0.048668,-0.51829,-0.55003,-0.061054,-0.017778,0.21244,0.2919,0.29758
0.016841,0.23502,1.091,0.13146,-0.086257,-0.50518,-0.82175,-0.27258
0.17526,0.15526,0.37097,0.017161,0.21662,0.19516,0.06587,-0.11337
-0.061925,0.37558,-0.76253,0.040919,0.038684,0.12678,0.66511,0.3143
-0.35832,-0.57319,-0.25987,-0.57697,-0.11348,-0.030418,-0.34575,-0.25611
0.22442,0.24576,-0.62362,0.096594,-0.1087,-0.017748,-0.29681,-0.021342
-0.14068,-0.73068,0.39737,0.51163,0.06699,0.081618,-0.11216,-0.13135
0.078971,0.044081,0.058289,-0.49088,0.091927,-0.49246,0.6359,0.20961
0.16597,0.53095,0.14099,0.14803,-0.081535,0.26073,-0.0071119,0.18852
-0.050398,0.183,-0.18047,0.055889,0.046551,-0.18667,-0.40097,-0.35842
-0.11613,-0.023592,0.040887,0.24059,-0.19505,-0.14196,-0.31833,-0.18813
0.14898,-0.13654,0.18714,0.19973,0.10887,0.54901,0.47713,0.29439
0.010817,0.31174,0.62092,-0.094479,-0.016893,-0.04633,-0.089809,-0.011191
-0.21809,-0.76589,-0.17438,-0.56919,-0.086763,-0.38582,-0.14066,0.099129
0.095028,0.48919,-0.14896,0.66132,0.29849,0.65634,0.40636,0.00066972
-0.057788,-0.14963,-0.49794,-0.52346,0.15473,0.21162,0.21087,0.44321
-0.0049019,0.037186,-0.26149,-0.29638,-0.29957,-0.74614,-0.88844,-0.72224
0.12826,-0.1209,-0.096945,0.47699,0.020961,0.14722,0.53221,0.16002
0.012877,-0.26303,0.66752,0.066003,-0.20454,-0.23558,-0.41697,-0.23838
0.046407,0.67442,-0.10717,-0.53228,0.11738,-0.074968,0.49797,0.29363
-0.23329,-0.41769,0.31686,0.54635,0.025812,0.051941,-0.39663,-0.14971
0.26623,0.3739,0.085786,-0.13984,0.036726,0.40543,0.2008,0.24463
-0.20617,0.0083768,-0.21442,0.13718,-0.044763,0.035644,0.40314,0.094198
0.036155,-0.071068,-0.58139,0.11088,0.031635,-0.24951,-0.32587,-0.25732
0.055368,-0.18657,0.39573,-0.010872,0.054937,0.28681,-0.296,-0.060478
-0.11704,-0.1983,-0.30008,0.18942,-0.0065719,-0.45584,0.61334,0.26972
0.2385,0.41011,0.11973,-0.79288,0.10409,0.29553,-0.65555,-0.095964
-0.16576,-0.46063,-0.056439,0.022813,-0.14535,-0.32825,0.1306,-0.09606
0.070268,0.0054371,0.63807,0.54841,0.056661,0.52109,0.48055,0.28437
-0.16108,-0.016053,-0.12928,-0.020971,-0.13431,-0.074643,-0.57939,-0.47832
-0.030171,0.17334,-0.68605,-0.54305,-0.11697,-0.29944,0.048828,-0.016674
0.01092,0.26274,0.6218,0.32106,0.05417,0.12412,-0.082965,0.021441
0.32189,0.46278,-0.13978,0.36392,0.30925,-0.048879,0.6629,0.46479
-0.019595,-0.30683,0.1487,-0.38779,-0.16363,0.14134,-0.30331,0.04036
-0.10846,-0.11189,-0.041689,-0.17392,0.26118,-0.070249,0.23204,-0.072026
-0.11819,-0.83881,0.034669,0.46748,-0.27513,-0.37674,-0.79235,-0.49753
0.058901,0.50175,-0.9216,0.30169,-0.053268,0.52216,0.88887,0.41202
-0.11765,-0.2168,0.29226,-0.9306,-0.072699,-0.51016,-0.81952,-0.43728
0.085693,0.40386,0.38082,0.54191,0.1202,0.56137,0.91608,0.68906
0.004733,0.35707,0.31539,0.045159,-0.044519,-0.057182,-1.0245,-0.55227
0.085316,-0.26929,0.18474,-0.46163,0.011397,-0.38769,0.1838,0.073828
-0.038671,-0.14489,-0.73536,0.27073,0.21738,0.36667,0.95954,0.30261
-0.053317,-0.064587,-0.091878,0.40649,-0.13818,-0.46755,-1.0049,-0.44321
-0.12116,-0.38639,0.65477,-0.7329,-0.017209,0.70849,0.99144,0.57922
0.26702,0.42915,0.19977,0.11996,0.0010355,-0.44443,-0.70122,-0.49698
0.12798,-0.12662,-0.29317,0.42024,-0.006321,0.23466,-0.028015,0.12494
-0.30321,0.31927,-0.52726,-0.16617,-0.032076,-0.18612,0.15338,-0.03992
-0.041991,0.56082,-0.19734,0.16673,0.048741,0.13626,-0.14603,0.34349
-0.081003,-0.64719,0.22887,-0.12737,-0.075748,-0.50037,-0.37521,-0.44468
-0.015099,-0.11953,0.47142,0.029473,0.095654,0.12524,0.44691,0.18822
0.2477,-0.46624,0.10176,-0.33235,-0.1386,0.12597,0.55082,0.32724
0.18163,0.58762,0.13605,0.035768,0.082497,0.18521,-0.73269,-0.59061
0.073195,-0.37623,-0.98847,0.085221,-0.099033,0.056062,0.45663,0.22382
-0.12684,0.48334,0.85228,0.66561,0.20826,0.17789,-0.16345,0.14615
-0.32634,-0.085766,-0.046141,-0.72506,-0.018995,-0.20678,-0.13462,-0.080396
-0.041383,-0.0082373,-0.29437,0.34112,0.031016,-0.17716,0.047159,-0.19685
-0.099226,-0.73413,0.14574,-0.066898,-0.13524,-0.055765,-0.29429,-0.092887
0.1662,0.70546,-0.69491,-0.24671,0.019552,0.053028,0.28212,0.20841
0.12472,-0.25517,0.72284,-0.13585,-0.029854,0.029106,0.58533,0.30035
0.23215,0.44002,-0.21789,0.28971,-0.042885,0.026087,-0.51211,0.048873
-0.1812,0.25101,0.3737,-0.00036147,0.033959,0.1279,-0.62841,-0.42283
0.042238,0.074499,-0.11987,-0.05973,0.08285,0.17716,0.79944,0.29745
0.059195,-0.43381,-0.33227,0.3,0.13499,-0.052814,-0.05466,-0.026031
-0.22431,-0.30265,0.32114,0.31395,-0.16065,-0.61581,-0.42193,-0.41708
-0.0042106,-0.32209,-0.012719,-0.6969,-0.099944,0.23215,0.28741,0.1173
-0.125,-0.23068,-0.13206,-0.39586,-0.0018337,-0.10043,-0.17275,-0.0069354
0.1548,0.54143,-0.29556,0.25712,0.088327,0.24022,0.16194,-0.037325
0.084574,0.19104,0.36376,0.74756,-0.054587,0.24008,0.28612,0.27077
0.030896,0.14904,-0.036392,-0.41555,0.14085,0.016917,-0.21307,0.302
-0.038121,-0.038765,0.11443,-0.18437,-0.027862,0.015531,-0.023286,-0.24754
0.079958,0.24786,-0.30736,-0.050486,-0.084136,-0.58582,-0.46621,-0.17501
-0.13119,-0.28116,0.34031,0.65031,0.041841,0.45316,0.20572,-0.090981
-0.023731,0.10404,-0.58978,-0.66821,0.013239,-0.15846,0.49706,0.33098
-0.051208,-0.56416,0.60627,0.48552,0.04774,-0.00021377,-0.45528,-0.41871
-0.034108,0.097708,-0.055744,-0.47529,-0.1838,-0.10402,0.19646,0.21312
0.19952,0.50562,-0.099573,-0.075059,0.060058,0.092697,0.30826,-0.040201
0.032798,0.29702,0.30222,0.021061,0.1383,0.17662,-0.24727,0.10991
0.083413,-0.44947,-0.5855,0.4603,-0.089659,-0.12453,0.068065,0.16343
-0.29639,-0.47952,-0.08365,0.030441,-0.01401,0.15153,-0.84637,-0.49642
0.027037,0.019253,0.69035,-0.22286,-0.0012544,-0.31422,0.57465,0.18566
-0.023534,-0.076269,-0.71651,0.35579,-0.097475,0.088674,0.06184,0.054199
0.13868,0.6109,0.52429,-0.53844,0.15897,0.14999,0.50283,0.64126
-0.063832,-0.27862,-0.12585,0.11091,0.049787,-0.10651,-0.86332,-0.79455
-0.021502,0.087365,-0.18216,-0.35839,-0.14369,0.045676,0.43595,-0.010271
0.22629,0.47368,0.43368,0.35311,0.15635,0.14519,0.16858,0.13539
-0.25878,-0.23472,-0.16111,-0.0096356,-0.20703,-0.23045,-0.21951,-0.083646
0.10803,0.03072,-0.20885,0.3603,0.030876,0.04308,0.13001,0.15312
0.1301,-0.24167,-0.16285,-0.29374,0.087797,-0.1286,-0.20713,0.24384
-0.24058,-0.14935,-0.21081,-0.17519,0.04874,0.089996,-0.14045,-0.32782
0.073484,-0.068671,0.74864,0.53448,-0.024449,0.29234,0.33431,0.10892
0.0019771,0.56554,-0.026808,-0.37859,0.0008358,-0.11535,0.38572,0.19353
0.029978,-0.28599,-0.044897,-0.097598,-0.023471,-0.23449,-0.76229,-0.25461
-0.020939,-0.15764,-0.070766,0.27251,-0.088576,0.17745,0.068261,0.021897
-0.11019,-0.43935,-0.40016,-0.41152,0.010147,-0.31655,0.11889,-0.19548
-0.017613,0.27006,0.14848,0.57546,-0.06926,0.24491,-0.071173,0.0472
0.13264,-0.1441,0.11667,-0.39153,0.16715,0.20589,0.31135,0.19634
-0.01098,0.64629,-0.38364,-0.26423,-0.0058365,0.082071,0.048724,-0.0048681
0.13648,0.23074,0.46199,0.24102,-0.04851,-0.7519,-0.24864,-0.055902
0.010687,-0.19687,-0.4943,0.27556,-0.00017925,0.30481,-0.032948,-0.027298
0.11713,0.12296,0.87889,-0.25939,0.20053,0.64184,0.39978,0.3612
-0.54647,-0.7723,-0.27358,0.43529,-0.2607,-0.57005,-0.64493,-0.39974
0.26826,0.63796,-0.12122,-0.54537,0.12177,0.38698,0.59166,0.39132
0.037326,-0.24964,-0.10022,-0.021346,-0.029186,-0.3469,-0.63164,-0.55599
-0.097929,-0.16835,-0.29513,0.51464,-0.098096,-0.060523,0.20959,0.11716
0.13789,-0.2535,0.6952,-0.15726,0.10154,-0.09662,0.38175,0.1065
-0.10391,0.58294,-0.2726,-0.29618,-0.07888,-0.031673,-0.29447,0.03845
0.047139,-0.17626,-0.034137,-0.0049053,0.11911,0.5816,0.18868,0.032306
-0.069943,0.079538,-0.2578,0.15326,-0.13131,-0.2393,-0.020927,-0.057965
-0.077812,-0.52213,-0.31242,-0.14229,-0.031627,-0.18824,-0.080341,-0.011393
0.29812,0.59881,0.06762,0.46023,0.15425,0.25893,-0.045096,-0.045122
0.010684,-0.19076,0.55442,-0.23381,0.068381,-0.23377,0.029485,0.25558
-0.2621,-0.035265,0.022002,-0.17656,-0.15545,-0.15149,-0.20064,-0.32066
0.16449,0.36214,0.24055,0.05489,0.053445,0.39502,0.1474,0.14655
0.029264,-0.40871,-0.23342,-0.22609,-0.078602,-0.041251,-0.035534,0.0064751
-0.10083,0.5437,0.45092,0.33246,0.010188,-0.24338,0.18048,0.061061
-0.048891,-0.27343,-0.93555,-0.043241,0.16251,0.10725,0.045486,0.12794
-0.011959,-0.16527,-0.076002,-0.24505,-0.10718,-0.014102,-0.16734,-0.3028
0.064214,0.15851,-0.013133,0.74842,0.043778,0.11048,-0.052245,-0.044775
0.01644,-0.47767,0.46851,-0.56543,-0.088518,-0.1208,0.45267,0.33182
-0.036117,-0.129,0.045721,0.099824,-0.14505,-0.14512,-0.67653,-0.37479
0.073308,0.30848,0.020648,-0.15635,0.31962,0.27266,0.23177,0.15017
-0.11328,-0.14536,-0.038763,-0.030337,-0.10017,-0.15543,-0.0020584,-0.11401
0.070863,0.75652,0.068444,0.12662,-0.051947,0.25932,0.18482,0.11649
-0.059813,-0.067548,0.14511,0.058369,-0.034633,-0.20065,-0.22278,0.070105
0.081511,-0.31775,-0.40384,-0.021348,0.038774,-0.15931,0.11148,0.099181
-0.11491,-0.15676,-0.30559,-0.29664,-0.018375,0.1966,0.0081379,0.00018191
0.17749,0.056129,0.041476,0.22806,0.0053456,-0.1403,0.092202,-0.07985
-0.0047376,-0.03907,0.3801,-0.21016,0.078718,0.079977,-0.1677,0.021201
0.038556,0.40069,0.35171,0.75748,0.021632,0.18515,0.38458,-0.12049
-0.11737,-0.40611,0.12898,-0.50944,-0.057322,-0.13025,-0.40711,-0.029851
-0.099671,-0.47474,-0.80291,0.17549,-0.065371,0.085921,-0.089241,-0.13726
0.082839,0.53169,0.35382,-0.43198,0.11371,-0.2455,0.081122,0.14331
0.016519,0.23932,-0.26672,0.21249,-0.12241,0.02304,-0.067005,0.086034
-0.054652,-0.17125,0.68108,-0.002975,0.014884,-0.038743,0.29526,0.10597
0.012786,-0.027991,-0.58935,0.13054,0.056736,0.33451,-0.19115,-0.13966
-0.14501,-0.33957,-0.23134,-0.12264,-0.082604,-0.18523,0.16089,0.0060202
0.16269,0.71237,0.19556,-0.16137,0.050343,0.082109,-0.0091046,0.11358
0.12585,-0.3672,0.17821,0.421,0.073148,-0.042479,-0.077792,-0.15301
-0.035479,-0.11285,0.44466,-0.16343,-0.021708,-0.12842,0.031061,0.18254
0.077048,0.20652,-0.60655,0.0088697,-0.038774,-0.041893,-0.043599,-0.16126
-0.13952,-0.075832,0.17953,-0.33366,-0.0093111,0.038386,-0.0059637,-0.020357
-0.093787,-0.22718,-0.019945,0.21702,0.074389,0.050679,-0.14529,-0.074217
0.078552,0.15048,0.15893,0.068464,-0.069034,0.261,0.13295,0.052605
-0.10197,-0.22327,-0.037241,-0.17726,-0.0099263,-0.19009,-0.029062,0.055891
0.15122,0.27836,-0.60357,0.041866,-0.037255,-0.037466,0.027015,0.10778
0.094119,0.28284,0.7861,0.68528,-0.010169,0.022784,0.014319,-0.14339
-0.21168,-0.2774,-0.36893,-0.75705,0.079471,-0.15084,0.020738,0.075245
0.038522,0.084779,0.041231,0.41556,0.099211,0.058092,-0.053873,-0.010718
0.0018025,-0.16719,0.018193,-0.2209,-0.10685,0.2975,0.61153,0.2929
-0.070371,-0.35154,-0.19362,-0.37858,-0.015003,-0.25313,-0.92834,-0.37433
0.073832,0.28323,0.25971,0.30966,-0.046894,-0.17958,-0.10377,-0.13024
0.25664,0.68315,0.098904,0.19657,0.078861,0.40914,0.81847,0.15004
-0.2155,-0.62068,-0.44835,-0.020437,-0.075191,-0.29116,-0.56165,-0.087749
0.049461,-0.15273,0.532,-0.37007,0.022139,-0.022187,0.4024,0.19632
-0.15062,0.3117,-0.44554,0.1344,0.097233,0.16166,-0.24457,-0.027981
-0.096525,-0.30799,0.38256,-0.2007,-0.037708,-0.067728,0.050083,-0.0019198
0.21167,0.23539,0.013725,0.94548,0.0075533,-0.023117,0.27686,0.1111
-0.093889,0.25155,-0.23427,-0.56832,-0.072093,0.23255,-0.47942,-0.18862
0.19655,-0.34788,0.042917,-0.087455,-0.034862,-0.09022,0.069985,-0.072958
-0.043589,-0.017678,-0.42897,0.034482,0.025164,-0.077519,-0.027537,0.12973
0.0042943,0.32755,1.0303,0.17843,0.15461,-0.049362,0.041768,-0.065246
-0.0050519,-0.23331,-0.97612,-0.36771,-0.11541,-0.067433,0.39689,0.27152
-0.18978,-0.057598,0.49981,-0.033789,0.011902,-0.052426,-0.24909,-0.31327
0.10613,-0.37667,-0.72655,0.10292,-0.010329,0.04371,0.40293,0.28199
-0.20267,0.19578,0.73013,0.2002,-0.057061,-0.0049135,-0.94954,-0.47378
0.072491,0.50684,-0.0036135,-0.16996,0.020195,0.090456,0.38295,0.14624
0.18307,-0.026934,0.2599,0.064086,0.041779,0.1251,-0.0043511,0.11098
0.075695,-0.22459,-0.76177,0.082603,0.077987,0.19777,0.49092,0.27977
-0.1472,0.0075028,0.87452,0.057135,-0.058724,-0.39053,-0.45951,-0.26185
0.16305,0.027329,-0.60719,0.10379,-0.016823,0.24709,0.057126,0.032307
-0.10329,-0.27676,0.14251,-0.14608,0.031875,0.037403,0.12439,0.14573
-0.1345,0.25655,-0.22906,-0.11567,-0.060857,-0.36464,-0.39386,-0.35211
0.076315,-0.031811,0.067311,-0.24329,-0.060249,0.010566,0.47506,0.12418
-0.0028692,-0.15222,0.087739,0.15071,0.04206,-0.052641,0.14914,0.14477
0.10406,0.33075,0.20164,0.16077,0.067017,0.02089,-0.39838,-0.14157
-0.14982,-0.068739,-0.36207,-0.11049,0.0074123,0.29159,-0.028931,0.0080838
0.040534,-0.36707,0.070225,0.16617,0.066847,0.030668,0.49155,0.30561
-0.05868,0.4357,-0.1416,-0.19604,-0.13722,-0.14813,-0.71799,-0.56052
0.045364,-0.4957,0.47795,0.35768,0.012452,-0.070526,0.27586,0.20728
0.048474,0.23062,0.012299,-0.02471,-0.070278,0.09943,-0.13099,0.062502
0.075892,0.46804,0.28622,-0.25038,0.1845,0.085998,0.46597,0.48156
-0.091166,-0.51548,-0.43787,-0.11729,-0.11441,0.02565,-0.68522,-0.59076
0.25023,0.29074,-0.44312,-0.071728,0.032309,-0.086829,0.50612,0.11819
-0.18915,0.11658,0.88794,0.17466,0.045802,-0.03019,0.16778,0.19365
-0.16708,-0.47953,-1.0277,-0.026998,-0.012087,0.0036086,-0.19198,-0.31789
-0.081659,-0.0016087,0.54964,0.30743,-0.040301,-0.12891,-0.22356,0.091459
-0.026074,0.022411,-0.8502,-0.22063,-0.023508,0.016743,0.30348,-0.0073639
0.14089,-0.1163,0.67738,-0.02524,-0.12583,0.11367,-0.3349,-0.043061
0.40392,0.41045,0.011482,0.026519,0.19191,-0.0071091,0.59776,0.29018
-0.26844,-0.22798,0.56686,-0.057141,-0.10911,-0.16198,-0.083581,-0.061375
-0.095694,0.47873,0.41062,-0.087945,0.14325,0.05945,-0.95351,-0.34714
0.13966,-0.45354,-0.64361,0.56813,0.043039,0.082611,0.2274,0.22977
-0.15753,0.6305,-0.253,-0.86855,-0.089106,0.26145,0.48139,0.098484
0.0115,-0.49627,-0.30927,0.41636,-0.0027072,-0.13755,-0.16012,-0.17956
0.1304,0.042635,0.32102,0.080923,-0.13456,-0.20092,0.64784,0.37864
-0.050888,0.0099931,-0.20999,-0.25617,0.1569,0.14765,-0.44434,-0.25182
-0.25046,-0.73346,0.19109,0.062157,-0.095923,-0.03179,-0.41853,-0.50973
0.22819,0.41147,0.035221,0.77807,-0.016936,-0.16371,0.43141,0.59617
-0.0041203,0.031348,-0.46083,-0.83594,-0.058443,0.17939,-0.031723,-0.13771
-0.10231,0.08904,0.85865,-0.00043111,0.084479,-0.13681,-0.25737,0.12454
