-0.021172,-0.084266,-1.0307,-0.035732,0.053844,0.045377,0.0084695,0.016212
0.062345,0.13225,0.66017,-0.27988,0.030816,-0.004915,0.022554,0.042079
-0.0012123,-0.069471,0.39365,0.044807,0.073922,0.0013221,-0.0084033,-0.0090215
-0.015258,-0.030099,-0.18119,0.46985,0.043082,-0.0059904,-0.0063318,-0.0036709
-0.0024705,0.088085,0.56103,-0.068592,-0.069784,0.035505,-0.0028844,-0.011905
0.037262,0.1055,-1.0122,-0.026478,-0.039152,0.00030991,0.032498,0.028682
-0.084117,-0.15912,0.38098,0.32686,0.016191,-0.010764,0.044284,-0.038582
0.05416,0.033554,-0.94616,-0.59819,0.078797,0.017064,-0.054283,0.027827
0.091282,0.39092,0.71053,-0.0074327,0.068883,-0.041961,0.0018217,0.00059041
-0.067964,-0.44192,0.27348,0.19197,-0.21782,-0.016471,-0.022011,0.011818
0.0049366,0.071753,0.10944,-0.491,-0.039494,-0.00037542,-0.055269,-0.032751
0.051569,0.017143,-0.041372,0.97004,0.0027497,0.014341,0.043257,0.022903
-0.217,-0.3703,0.051833,-0.90534,0.26165,0.028167,-0.053738,-0.063327
-0.018684,0.091756,-0.67832,-0.31638,-0.34709,-0.1067,0.013952,-0.041102
0.14791,0.31311,0.56742,0.77859,0.35012,0.11818,0.08288,0.1057
0.049982,0.00041232,0.17464,-0.026157,-0.15306,-0.023313,0.1064,0.041644
-0.0063679,-0.1953,-0.39945,0.73629,-0.019771,0.01588,-0.11098,-0.060989
-0.074955,0.26601,-0.10172,-0.1409,0.015854,0.0090994,0.0083143,-0.0066906
0.063089,0.25053,0.15483,-0.98247,0.18774,0.073216,0.088617,0.056085
-0.0069895,-0.47104,0.13173,0.27821,-0.27078,-0.096861,-0.22224,-0.029107
-0.013122,-0.051156,-0.10247,0.014515,-0.12674,-0.16555,0.044171,-0.012554
0.019488,0.005717,0.022239,-0.45985,0.32145,0.17164,0.0050391,-0.05861
0.10468,0.40644,0.27946,0.67932,0.01773,0.031907,-0.042444,0.027821
-0.14958,-0.28944,-0.91745,-0.82788,-0.031092,-0.084572,0.14438,0.0044567
-0.040864,-0.059803,0.38965,0.51676,-0.1145,0.017783,0.065975,0.066637
0.10289,0.16621,0.20263,0.63202,0.080264,0.13609,-0.06645,0.026993
-0.2251,-0.57008,-0.22253,-0.29254,-0.43815,-0.25297,-0.080982,-0.13771
0.14092,0.46925,0.82745,-0.43006,0.40184,0.18646,0.045617,0.049305
0.015379,0.17121,0.14135,0.36343,-6.5904e-06,-0.045935,-0.046387,-0.013311
0.08751,-0.014737,-0.12587,0.12807,0.10736,-0.0053306,0.041031,0.049576
-0.047761,-0.11636,-0.76351,0.11408,-0.15837,0.010805,-0.012804,-0.019804
0.023984,0.032788,-0.30017,-0.16968,0.06978,0.072235,0.010634,0.012854
0.060069,-0.011554,-0.065096,-0.80582,0.072274,-0.0010781,0.040998,0.022385
-0.050067,-0.53876,0.0071807,-0.0066108,-0.15208,-0.16227,-0.038721,-0.030489
-0.089252,0.61362,0.36801,0.86275,0.020467,0.018741,-0.017218,-0.013161
-0.066916,-0.33048,0.48569,-0.44303,-0.0048322,0.011498,-0.018989,-0.035153
0.12499,0.57867,-0.32831,0.13705,-0.025339,0.035804,-0.0044338,0.044106
0.032539,0.18907,0.98539,0.33613,0.13878,0.10059,0.050337,0.02153
-0.024111,-0.97908,-1.0011,-0.097905,-0.035148,-0.074423,-0.0028717,-0.0012223
-0.052311,0.27508,-0.16399,-0.39544,-0.32715,-0.027693,-0.0235,-0.063113
-0.012048,-0.049379,-0.43627,0.38292,0.27205,0.0065339,0.034917,0.023405
-0.066166,0.17313,0.62267,-0.44261,0.068508,-0.011202,-0.054902,-0.030791
0.052186,-0.055463,0.25008,0.18092,-0.038273,0.019786,0.04987,0.063172
0.20337,0.40054,0.22306,0.31327,0.15538,0.090468,0.082657,0.10187
-0.065181,-0.17428,-0.46877,-0.15797,-0.13958,-0.042708,-0.11356,-0.11815
-0.12055,-0.31573,0.23659,0.66304,-0.24398,-0.060705,-0.0079423,-0.0034148
0.021293,-0.05241,-0.55758,-1.0223,0.17723,0.066764,0.032458,0.0007227
-0.023066,-0.23424,-0.32436,-0.28513,-0.025494,-0.17641,-0.10885,-0.058621
0.058164,0.51407,0.19049,-0.19562,-0.017471,-0.016714,0.084981,0.09258
0.069048,0.55077,0.4829,0.68377,0.19227,0.2027,0.068656,0.025522
-0.084578,-0.43902,0.46888,0.20387,0.024526,0.053178,-0.0076868,-0.079052
-0.1138,-0.23968,-0.21941,0.57353,-0.060489,0.036023,-0.056563,-0.024793
-0.0029095,-0.065325,0.28187,-0.038873,-0.25053,-0.12078,-0.084661,-0.014038
0.029589,-0.12163,-0.84513,-0.76258,0.095347,-0.11897,-0.0055755,-0.03084
0.2574,0.23843,-0.11432,-0.038975,-0.068851,-0.2465,0.32879,0.21355
-0.02241,0.1945,0.2815,0.12969,0.17222,0.3801,-0.35619,-0.055301
-0.1457,-0.29135,0.82356,-0.11576,-0.047198,-0.04385,-0.031227,-0.081179
-0.081265,-0.01399,-0.76946,-0.35834,0.063303,0.18401,0.40274,0.12615
-0.040127,0.11479,-0.36131,0.18828,0.098489,0.02318,-0.36162,-0.14621
0.071334,0.08917,0.39056,0.35054,-0.18325,-0.34855,0.50143,0.029801
0.08889,-0.10529,-0.16118,0.23584,-0.016173,0.18412,-0.38475,0.028241
0.043557,0.039267,0.040082,-0.24523,-0.041215,0.025969,-0.24729,-0.14317
-0.088438,-0.07212,0.3627,0.065648,0.076891,-0.0033833,0.14104,0.14918
-0.026288,0.19885,-0.44452,0.0119,0.1028,-0.17711,0.24286,0.055258
-0.07519,-0.45557,0.33247,0.11474,-0.14437,-0.22847,-0.54104,-0.23544
0.053413,0.22707,0.44274,-0.33222,-0.017533,0.31295,0.24489,0.076061
0.20288,0.56451,-0.681,0.23805,0.083488,0.21449,0.50879,0.24163
-0.1191,-0.24128,0.078445,-0.41123,-0.014457,-0.14756,-0.42014,-0.26867
0.017404,0.044929,0.070949,-0.038862,0.12516,0.094545,0.5598,0.36608
-0.019635,-0.69854,-0.02571,0.34784,-0.076226,-0.28613,-0.51284,-0.48707
-0.20545,0.026082,0.38153,-0.069775,-0.032426,0.16241,0.33002,0.24143
0.18834,0.10876,-0.20567,0.19494,0.023266,0.22762,-0.65411,0.15979
-0.05498,0.26785,-0.54054,-0.34019,-0.14948,-0.34214,-0.043072,-0.31147
-0.011595,-0.013943,-0.42798,0.35768,-0.024824,0.14723,0.07804,0.18582
0.093353,0.21987,0.82178,0.25795,-0.17832,-0.039146,0.13209,-0.20079
-0.21615,-0.17956,0.040684,-0.7101,0.47821,-0.24455,0.94,0.37987
0.32494,0.048962,0.8035,-0.094712,0.016526,0.30584,-0.84226,-0.36115
-0.019471,0.24902,-0.74487,0.46129,0.030765,0.012493,0.26057,0.24084
-0.20518,-0.3474,-0.022599,0.0098518,-0.19857,0.010584,-0.29275,-0.19605
0.084897,0.12396,-0.69076,-0.20991,-0.20443,-0.11177,0.22171,0.016737
0.034984,-0.041614,0.68274,0.26771,0.12024,-0.087388,-0.15955,0.059738
0.0017385,-0.045866,-0.75183,-0.20059,0.061965,-0.22826,-0.12601,-0.019769
-0.008724,-0.18022,0.88192,0.34427,0.1105,0.45704,-0.053821,-0.05018
-0.090509,0.080844,0.86618,-0.45783,-0.13459,-0.049203,0.40842,0.092496
-0.039442,-0.29569,-1.1422,-0.051562,0.067507,0.46083,-0.25414,0.28163
-0.087641,0.5741,0.03698,0.1432,-0.049408,-0.43056,0.12417,-0.46908
0.15073,-0.22143,-0.33021,-0.089138,-0.016347,-0.56269,0.45194,0.6511
0.11641,0.093153,-0.27462,0.68493,0.089592,0.4605,-0.82248,-0.71831
-0.070564,-0.13833,0.26623,-0.89786,-0.12056,0.16165,0.7498,0.14916
0.060559,0.15929,0.89302,0.30656,0.050587,-0.090981,-0.8507,0.028018
-0.051814,-0.036096,-0.10734,0.31623,-0.074494,-0.13836,0.11428,-0.22031
-0.0251,0.12497,-0.41796,-0.64132,0.11555,0.062595,0.18705,0.21145
-0.048002,0.02829,0.37092,0.26921,-0.049645,-0.53829,0.24452,0.30235
0.080733,-0.33266,-0.36224,0.47531,0.079195,0.55523,0.052312,-0.039459
-0.10201,0.26955,-0.32403,-0.36237,0.041253,0.22878,-0.040278,-0.26628
0.13603,-0.12446,0.12428,-0.052454,-0.093707,0.13952,-0.11572,0.15285
-0.089726,-0.35534,-0.15785,0.5576,-0.029867,-0.40901,-0.30491,-0.28338
0.039874,0.48044,0.65963,-0.69885,-0.065457,-0.068131,0.91694,0.46212
0.016533,-0.43038,-0.50592,0.0055394,-0.014429,0.11906,-0.96401,-0.29254
-0.15173,0.31147,0.72453,0.19553,0.13747,-0.031397,0.14158,-0.049322
0.043642,-0.042169,-1.0668,-0.37563,0.084409,0.20338,0.88789,0.096631
0.010032,0.14384,0.90478,0.66379,0.028654,-0.16337,-0.5681,0.18383
0.12368,0.16097,-0.56107,-0.82193,-0.22557,-0.32761,-0.95738,-0.44366
0.12796,-0.12129,0.79502,0.71041,-0.18612,0.21955,0.41288,0.26992
-0.11678,-0.099057,-0.94842,0.24765,0.35826,0.21503,0.25196,-0.14264
-0.21134,-0.22307,-0.19843,-0.42879,-0.1309,-0.21275,0.36236,0.062496
0.11827,0.15763,0.379,-0.28211,0.17528,0.1819,0.49803,0.36324
-0.072928,-0.29824,0.73396,0.3083,-0.066199,-0.48873,-0.87071,-0.48957
0.090228,0.19255,-0.51236,0.039672,-0.2375,0.56612,0.7241,0.35575
0.068609,-0.2519,-0.37979,-0.094425,0.10718,-0.0049477,-0.50142,-0.20283
-0.036539,0.94589,0.85435,0.40785,0.17125,-0.023569,-0.55867,0.13845
-0.053911,-0.36503,-0.50803,-0.34085,-0.10769,-0.078161,0.20489,-0.16841
0.0079037,-0.25135,0.23528,-0.35844,-0.10469,-0.17176,0.4111,0.016141
0.038638,0.055057,-0.51598,0.16011,0.16448,0.036447,-0.30963,-0.13689
0.0061552,-0.068539,-0.14108,-0.20405,-0.042477,0.013026,0.57238,0.20008
-0.03561,-0.064379,-0.017705,0.67151,0.094733,0.069407,-0.27969,0.1362
-0.016848,0.33014,0.59416,0.035728,-0.1034,0.018302,-0.17864,-0.023753
0.023198,-0.19813,-0.3631,-0.2447,-0.19119,-0.1936,0.0398,-0.25597
-0.02468,-0.36589,0.59003,-0.43624,0.089667,0.19371,0.26698,0.22142
0.027498,0.44866,-0.33517,0.27146,0.052157,0.1047,-0.44895,-0.18448
0.086687,0.29901,0.13242,0.014786,0.071533,-0.52067,0.40937,0.12103
-0.14319,-0.46332,0.066536,-0.2289,0.022672,0.66325,-0.28874,-0.072015
-0.036371,-0.33061,-0.67102,0.20214,-0.0012507,-0.20972,-0.087837,-0.13788
0.087369,-0.046471,0.688,0.38843,-0.048068,-0.27239,0.24084,0.10348
-0.045181,0.41637,-0.57906,-0.52156,0.084198,0.31801,0.11322,0.21446
0.19862,0.4411,0.46343,0.67414,-0.097712,0.091032,0.19461,0.38979
-0.13489,-0.14762,-0.074843,0.2249,-0.071105,-0.23666,-0.87381,-0.84017
0.00035568,-0.263,-0.7854,-0.57855,0.07002,-0.20626,0.62649,0.28148
-0.10746,-0.078417,0.88983,-0.66827,-0.095933,0.14917,0.077377,0.1056
0.056528,0.10696,-0.18612,0.59857,-0.044828,0.01585,-0.2883,-0.20404
0.1716,0.11226,-0.21346,-0.96692,0.20081,0.23689,0.21495,-0.022338
-0.090336,0.14232,0.090719,0.5352,0.079401,0.19515,-0.21978,0.31512
-0.095914,-0.23452,0.59377,0.69311,-0.04116,-0.60084,-0.25879,-0.36316
-0.078513,-0.10141,0.23226,-0.12533,-0.090092,0.061132,0.64289,0.21642
0.080321,-0.56061,-0.60444,-0.016725,-0.01249,0.042128,-0.25038,0.014615
0.10843,0.49959,-0.33109,0.14427,-0.019242,0.25024,0.87366,0.35903
-0.063479,-0.33941,-0.3378,0.072142,-0.14947,0.085568,-1.0464,-0.4619
-0.09901,0.22113,-0.013358,-0.53002,0.22169,-0.2944,-0.48456,-0.042411
0.25163,0.62472,0.76987,-0.14856,-0.054426,-0.12351,0.71914,0.35186
-0.12185,-0.096384,-0.32944,0.19111,0.045243,0.14486,-0.58731,-0.50501
0.021278,0.27225,0.096081,0.44194,0.059268,0.4628,0.31861,0.23972
-0.14105,-0.72333,0.31889,-0.27586,-0.083251,-0.52289,0.36877,-0.22493
0.12381,0.35899,0.18726,0.029012,0.031156,0.29523,0.13324,0.22739
-0.076123,-0.069844,-0.12423,-0.52316,-0.082386,-0.076998,-0.093925,0.050548
0.10214,-0.13542,-0.43392,0.24588,-0.072653,-0.52398,0.06507,0.12718
-0.0054497,-0.22469,-0.044005,0.16493,-0.057,0.35168,-0.45052,-0.067293
-0.11682,-0.12582,-0.55186,-0.33515,0.28486,0.16676,0.41609,0.41059
-0.003916,0.0026778,0.6819,0.65982,0.0076653,0.077796,-0.07342,-0.61305
0.053991,0.013356,0.11171,-0.1648,-0.099406,-0.078422,-0.78746,-0.077329
0.051195,0.56469,-0.0010963,0.2406,0.081027,-0.07389,0.41637,-0.053298
-0.11978,-0.091993,0.11421,-0.20225,-0.25538,0.030854,0.12839,0.1859
0.081517,-0.0049316,-0.18484,-0.10513,0.095028,-0.14458,0.15134,-0.02261
-0.047421,0.047424,-0.14221,-0.33124,0.062713,0.082198,-0.14943,0.072805
0.2276,-0.029645,-0.18991,-0.15045,0.078278,-0.028277,-0.12077,0.14566
-0.01623,0.1817,0.52008,0.69881,-0.11514,-0.02056,0.50533,0.17373
-0.21002,-0.3166,-0.35351,-0.25574,-0.063575,-0.0025243,-0.16996,-0.33455
-0.097609,-0.39811,0.43968,-0.15775,0.030381,-0.051978,-0.39181,-0.19172
0.038141,0.087762,-0.85238,-0.51778,0.12,0.36908,0.85845,0.41428
0.14119,0.22271,0.57068,0.95834,0.064342,-0.022979,-0.80733,-0.43916
0.077701,-0.0036709,0.36671,0.07254,-0.082613,-0.19246,0.3797,0.36439
-0.18427,0.071637,-0.542,-0.24812,-0.056225,-0.010353,-0.1379,-0.1367
0.081407,0.33156,0.14163,0.049074,0.025248,-0.15999,-0.33696,0.033565
-0.016101,-0.13699,0.37191,-0.020928,-0.12043,-0.066155,-0.38716,-0.17211
-0.086239,-0.50429,-0.56663,-0.2928,0.091922,0.18341,0.62952,0.1991
0.18356,0.51301,0.56671,-0.12243,0.036793,0.15846,0.32707,0.0063593
0.051296,-0.13716,-0.53075,-0.23091,0.010799,0.062767,0.10015,0.24959
-0.26388,-0.24085,-0.033313,0.18534,-0.017389,-0.21921,-0.54887,-0.4852
0.19179,0.1895,-0.30805,0.50027,-0.094616,-0.27887,-0.13547,0.10691
0.0051163,0.094425,0.28693,0.15701,0.21671,0.50365,0.54139,0.041967
-0.25245,-0.58618,0.41644,0.034071,-0.07549,-0.28314,-0.053416,-0.015496
0.045327,0.47707,-0.25687,-0.43795,-0.20544,0.050339,0.14574,0.028707
0.094939,0.018275,0.17634,-0.41701,0.13953,-0.033805,-0.50619,-0.012686
0.20981,0.22305,0.51226,0.55396,0.045564,-0.12922,0.14395,0.18059
-0.023604,-0.075978,-0.23754,0.14926,0.0050789,0.5912,0.087357,0.076971
-0.15211,-0.062546,-1.0404,-0.47313,-0.067603,-0.44473,-0.40114,-0.34746
-0.066695,0.21253,0.86181,0.19639,-0.0472,0.065389,0.049109,0.0084028
-0.049256,-0.39427,-0.81911,-0.019281,0.11348,0.19757,0.34133,0.1521
0.12593,-0.20442,0.63782,0.2511,0.047637,-0.19013,-0.050679,-0.0648
0.043909,-0.13114,0.16667,-0.088049,-0.041152,-0.22284,0.47894,0.068968
-0.061829,0.4062,0.11802,0.080862,-0.10545,0.30383,-0.46555,-0.086684
0.01887,0.020428,-0.12396,-0.15359,-0.027416,-0.45153,-0.33659,-0.046753
0.066641,-0.027232,-0.82931,-0.63841,0.029546,0.0061634,0.098913,0.009652
-0.090763,0.23442,0.61619,0.50715,0.11291,0.55459,0.78335,0.41889
-0.023731,-0.15467,-0.094371,0.023443,-0.011317,-0.18739,-0.42775,-0.21726
-0.0054532,-0.02348,0.45852,0.01716,0.00072493,0.20231,-0.29622,-0.26597
0.081799,0.00067442,-0.5253,0.14008,-0.13248,-0.09017,0.12774,0.0070089
-0.011217,0.094348,0.43368,0.34638,0.088468,-0.051809,-0.017243,-0.0079469
-0.025827,-0.12845,-0.42129,-0.20105,0.045472,0.048621,0.10446,0.25909
-0.094014,-0.2327,0.22139,-0.35665,-0.035986,-0.40116,-0.060485,-0.059592
0.10521,0.2101,-0.070601,0.30557,-0.047665,0.026584,-0.2672,-0.12872
0.025365,0.036204,0.14407,-0.53047,0.032838,0.32345,0.43301,0.2307
-0.020934,-0.15887,-0.35034,-0.039365,0.009422,0.013758,-0.28464,0.033738
0.052045,0.22932,0.26927,0.62111,0.037911,-0.06448,0.090244,-0.25102
-0.084251,-0.11604,-0.25964,-0.3462,-0.022305,-0.072533,0.29336,0.087755
-0.070989,-0.01956,0.68412,0.56716,0.0089247,-0.15596,-0.30048,-0.28488
0.17723,0.28741,-0.38632,-0.66109,-0.078483,0.046917,0.19777,0.21068
-0.058781,-0.33366,-0.50301,-0.12351,-0.033437,0.3576,-0.066016,0.13081
-0.10742,0.047833,0.59287,0.68074,0.020175,-0.10701,-0.087035,-0.16367
0.070249,-0.091962,-0.072484,-0.38102,0.012917,-0.35652,-0.27438,0.093656
-0.049233,0.042131,-0.45588,-0.2704,0.11709,0.46547,0.42446,0.12925
0.041935,0.21294,0.55694,0.32357,0.043448,-0.019649,-0.35113,-0.13612
0.078042,0.21378,-0.14627,0.031565,-0.044678,-0.041844,0.30489,-0.0012492
-0.042685,-0.4279,-0.67854,0.4216,-0.12502,-0.18947,-0.098909,0.047072
-0.023706,0.042191,0.89263,-0.27389,0.043278,-0.080524,0.22796,0.053325
0.017408,-0.050484,-0.002088,-0.45432,0.021535,-0.11237,-0.44699,-0.14846
-0.021229,0.10519,-0.23065,-0.10367,0.012094,0.11622,0.15164,-0.028049
0.10244,0.10303,-0.13904,0.32682,-0.02431,0.11693,0.41627,0.23492
-0.13488,-0.11796,0.69947,0.11366,-0.04038,-0.074837,-0.72217,-0.44436
-0.021793,-0.062968,-1.0775,-0.059756,-0.027329,0.16937,0.33839,0.20941
0.0049081,-0.025609,0.73896,-0.23682,0.063061,-0.070248,0.11311,0.12815
0.024155,0.028694,-0.48512,-0.0087154,0.099446,0.034658,-0.25883,-0.12358
0.021042,0.079278,-0.10893,0.57095,-0.080897,0.045039,0.63438,0.29942
0.0038251,0.049731,0.30593,-0.22494,-0.031662,-0.081108,-0.48349,-0.25068
0.042864,0.026351,0.010365,0.0078682,-0.017973,0.043231,-0.16207,-0.032013
0.051863,-0.038753,-0.39381,-0.061549,0.069491,0.0083452,0.35428,0.18096
0.037984,-0.0070975,0.70964,-0.021965,-0.035475,-0.11018,-0.31047,-0.20691
-0.10889,0.0091507,0.24044,-0.016098,0.048942,-0.11034,0.2113,0.19364
-0.16282,0.022754,-0.17152,-0.31822,-0.037883,-0.022849,0.13258,-0.079305
0.055558,-0.26553,-0.31021,0.04876,-0.00036103,0.17766,-0.41813,-0.12761
0.038457,0.11161,0.018135,0.15678,0.0041511,-0.091895,0.11058,-0.044626
0.12213,0.13831,-0.95164,0.11729,-0.02509,0.21065,0.24697,0.22534
-0.021058,0.026444,0.65817,0.16643,0.052279,-0.20113,-0.31711,-0.20707
-0.070323,-0.089163,0.40683,-0.26525,-0.052558,0.20568,0.22604,0.12023
-0.033107,-0.01827,-0.17678,-0.13913,-0.057661,-0.13888,-0.33353,-0.073352
0.10641,-0.0077915,-0.17346,0.70716,0.0066996,-0.048301,0.17469,-0.014479
0.043554,0.17962,0.62363,-0.5883,0.1494,0.16283,0.8095,0.46783
-0.10455,-0.39895,-0.6277,0.002936,-0.10516,-0.13326,-0.83298,-0.40134
0.013561,0.22667,0.079525,0.21295,0.11866,-0.017665,0.4598,0.19666
-0.094349,0.064397,0.047081,-0.068772,-0.13978,0.04609,-0.060075,-0.067635
0.056106,0.17543,0.38007,-0.22463,0.01004,0.017182,-0.80297,-0.38234
0.019644,-0.20071,-0.090204,0.036403,0.10678,0.11376,0.43256,0.041956
-0.016265,-0.16151,-0.22703,-0.10278,-0.06108,-0.13225,-0.00092524,0.10489
0.073199,0.030931,-0.33746,0.049083,-0.041056,-0.20333,0.048316,0.21439
-0.017013,0.22396,0.55465,0.56583,-0.013375,0.1142,0.038159,-0.080982
0.040705,0.11722,-0.65085,-0.53431,0.052862,-0.012495,-0.049741,0.079318
-0.01984,-0.15078,-0.099938,0.32015,-0.0065214,0.028857,0.12491,0.047249
-0.097553,-0.13493,0.33482,-0.08991,0.1211,0.33413,0.1665,-0.13073
0.018274,-0.098905,0.27964,-0.078635,-0.22019,-0.18162,0.029036,0.10686
-0.0081861,0.28947,0.21809,0.1171,0.0012931,-0.17486,-0.49937,-0.045919
0.073518,-0.073531,0.29555,-0.19298,0.13753,0.18122,0.14144,-0.26202
0.021916,-0.19707,-0.14894,-0.23014,-0.014286,-0.029428,0.44061,0.28603
-0.20122,-0.29377,-0.80025,0.37863,-0.024411,-0.098136,-0.36267,-0.37059
0.092373,0.37542,0.27482,0.10079,-0.0024445,-0.0035662,-0.020645,0.25288
0.13761,-0.054526,-0.83993,-0.43936,-0.042662,-0.01299,0.23116,0.1727
-0.0419,0.53271,1.0358,0.14847,0.08856,0.013155,-0.50559,-0.20431
0.084916,0.01604,0.022793,0.090673,0.023176,-0.089716,0.02022,0.27848
-0.17775,-0.25918,0.11104,0.2855,-0.12243,0.092326,0.34924,-0.24609
-0.080559,-0.23774,0.23737,-0.017258,0.11989,0.2156,-0.11078,-0.0204
0.20396,-0.098392,-1.1456,-0.22396,-0.17982,-0.086932,0.25039,0.15058
-0.027819,-0.065062,-0.0078386,-0.16253,0.1426,-0.026034,0.14366,-0.077079
-0.033993,0.22685,0.74901,-0.17606,-0.0061456,-0.12485,-0.15826,-0.1174
-0.064577,0.027609,0.36923,0.38507,-0.062832,-0.01566,-0.30487,-0.095093
-0.025625,-0.17561,-0.42928,-0.079114,-0.01882,0.10709,0.14839,0.20907
0.059736,0.15299,0.39674,-0.0043614,-0.037379,-0.09129,-0.032757,0.069014
0.051186,-0.098505,-1.0489,0.032835,0.20244,0.054823,-0.13622,-0.077457
0.027046,-0.03451,0.51627,0.041602,-0.064556,-0.023162,0.10577,0.10561
-0.059529,0.45032,0.66454,0.015035,0.14628,0.059249,-0.0072581,-0.13209
0.010096,-0.14971,-0.30375,0.078678,-0.19611,0.037857,-0.10564,-0.064618
0.032617,-0.21712,-0.20283,-0.27497,0.0023156,0.0073917,0.054322,-0.020871
0.0079006,0.16094,-0.75815,0.0089896,-0.219,-0.18802,0.33979,0.19366
-0.056229,-0.28345,0.6511,0.14949,0.14822,0.099746,-0.0010658,0.015768
-0.10489,0.11102,-0.4466,-0.12677,0.034026,-0.083529,-0.17485,-0.10967
0.010708,0.09938,0.18031,-0.0073576,0.04002,0.057199,-0.037643,-0.042145
0.087816,-0.19574,0.37118,0.038572,0.079792,-0.043058,-0.086299,-0.015763
0.087654,0.23166,0.73609,0.30699,0.12886,0.40966,0.089367,-0.061162
-0.013163,-0.033676,-0.65699,-0.13323,-0.15018,-0.20483,0.20587,0.22876
-0.035171,-0.10169,0.10117,-0.15114,-0.14961,-0.27973,-0.40096,-0.035652
0.028993,0.14479,0.098305,-0.061335,0.058833,0.15979,0.067936,-0.11133
-0.11029,-0.23124,-0.51495,-0.15495,-0.0023319,-0.027399,-0.18809,-0.052225
0.054291,0.17748,-0.39862,0.30064,0.033897,0.065882,0.31273,0.11868
-0.016656,0.14581,0.66489,0.12454,0.01966,-0.026889,0.28673,0.20624
-0.057577,-0.097791,-0.69798,-0.035238,-0.051635,-0.18533,-0.41775,-0.35216
0.095774,0.034803,0.35978,-0.25632,-0.10026,-0.14802,0.077233,0.075932
-0.0093464,-0.20405,0.62327,0.54875,0.21141,0.48689,-0.28223,-0.22103
0.025988,-0.46063,-0.48242,-0.8363,0.017607,0.042292,0.86959,0.47493
-0.047719,0.31348,0.38037,0.25571,-0.14165,-0.050723,-0.51758,-0.25901
-0.0034639,0.33751,-0.02265,-0.031311,0.023033,-0.17491,0.067172,0.27926
0.034084,0.29805,0.36989,-0.1399,0.042585,-0.21425,-0.28749,-0.26274
0.026053,0.12253,-0.5762,0.75186,0.048983,0.23546,0.14821,-0.10448
-0.09783,-0.50473,-0.65839,-0.19196,-0.044886,0.16389,0.12876,0.16776
-0.0017412,-0.34499,0.27262,-0.15269,-0.044997,-0.17369,-0.12862,-0.094317
0.032808,-0.0027558,-0.14006,-0.35987,0.0084169,-0.099801,-0.20172,0.055198
0.052299,0.42639,0.79475,0.58914,-0.018338,0.14967,0.40377,0.031335
-0.0062583,-0.011145,-0.26276,-0.44971,-0.03201,-0.082222,-0.176,0.022793
0.098809,-0.0019753,0.21415,0.31791,0.06886,0.0094009,0.16456,-0.039484
-0.17201,-0.26297,-0.58509,-0.53875,0.011076,0.066133,-0.38305,-0.044985
-0.022143,0.091116,0.76162,0.5043,0.02952,0.034835,0.13761,0.014973
0.040523,0.094006,-0.19245,-0.27757,-0.039177,-0.34046,0.04902,0.062744
-0.022929,0.044648,-0.67642,-0.13934,0.0011148,0.36398,0.10192,-0.15167
0.10814,0.11629,0.369,0.39073,0.049726,0.024696,0.23312,0.12121
0.05916,-0.057663,0.2843,-0.10683,-0.056482,-0.068192,-0.043614,0.099191
-0.146,-0.15703,-0.55847,0.056717,-0.058821,-0.086174,-0.16824,-0.039361
-0.077299,-0.065248,0.26793,0.092165,-0.081567,-0.178,-0.52611,-0.20215
0.09359,0.052734,0.10532,-0.36134,0.094466,0.22568,0.41977,0.21103
-0.0083362,0.15689,-0.071226,0.20165,0.1568,0.014005,-0.19136,-0.074321
0.14014,0.035331,0.44032,0.46601,0.042443,0.13047,0.37419,0.019365
-0.18015,-0.47693,-0.61858,-0.42197,-0.17143,-0.059584,0.045958,-0.1407
0.085,0.22072,-0.23253,-0.42434,-0.056456,-0.14366,-0.23844,0.19605
0.052317,0.16627,0.66914,0.49039,0.049891,0.041318,0.028984,-0.14904
0.0028146,0.29612,0.32981,-0.58245,-0.017954,-0.1377,-0.050129,0.11436
