-0.0067418,-0.048324,0.21242,0.0025899,0.026257,0.025065,0.054613,0.032277
-0.052054,0.007481,-0.18756,0.0090129,0.014544,-0.0086631,0.036141,-0.15448
0.019405,0.071682,0.091893,-0.30454,-0.12256,-0.043467,-0.004982,0.0095805
-0.011122,-0.083185,-0.32602,-0.31996,-0.079436,-0.01635,-0.10882,-0.029981
0.028306,0.15107,0.41664,0.22166,0.074626,0.026531,0.46576,0.1022
-0.010654,-0.062837,-0.35271,0.30561,0.090461,0.023502,-0.33669,0.26586
0.083024,-0.062096,-0.063491,-0.020956,0.023162,0.022198,-0.15706,-0.13247
-0.12031,0.074227,0.34801,0.014736,-0.010287,-0.062783,-0.21375,-0.20986
-0.0035216,-0.044854,-0.069398,-0.03436,-0.041998,0.01091,0.16608,-0.16957
0.050444,-0.028329,-0.21191,-0.1552,-0.049948,-0.0070024,0.17116,-0.10576
-0.052389,-0.023453,-0.10096,0.15707,0.0579,0.015566,0.16206,0.40268
0.023647,-0.036142,0.1241,0.0013761,0.061136,0.054112,0.092694,0.4094
0.14551,0.10005,0.20568,0.055739,0.099168,0.15429,-0.20858,-0.25864
-0.069694,0.043927,0.18963,-0.00027433,-0.12532,-0.23189,-0.21873,-0.16485
0.011056,-0.045869,-0.16823,-0.25874,-0.15867,0.0041738,0.08484,-0.082896
0.036785,0.020034,-0.057875,-0.19286,-0.077488,-0.02834,0.013433,-0.18385
-0.26498,-0.015089,-0.059723,-0.079405,0.05016,-0.032148,-0.10616,0.27642
0.028837,-0.1277,-0.00335,0.65668,0.20336,0.14995,0.36536,-0.0038963
-0.018123,0.11092,-0.084258,-0.16025,0.017177,-0.11361,-0.057583,-0.2638
0.016715,-0.10598,-0.24663,0.21445,0.00090413,0.045661,-0.18832,-0.016177
0.21921,0.015478,0.27727,-0.547,-0.14978,-0.011864,0.0041274,-0.0017103
0.14302,0.2295,-0.18977,0.037949,0.017432,0.050267,0.23117,0.45116
0.059736,0.13386,0.58868,0.3797,0.17256,0.036663,-0.31053,0.23859
0.013932,0.029884,0.012147,0.25475,0.14127,0.087325,0.33431,0.16927
-0.61372,-0.55353,-0.6462,-0.27936,-0.28217,-0.18156,-0.52695,-0.69103
0.16752,0.054658,0.22928,-0.42995,-0.099932,-0.075804,-0.055586,-0.18237
-0.20525,-0.18379,-0.012267,0.0034151,-0.047797,0.059811,0.60223,-0.034095
0.37023,0.51478,0.50926,0.21524,0.11601,0.037044,-0.14603,-0.14551
0.15329,0.028864,-0.39586,0.097202,0.056057,0.003969,-0.13652,0.27351
-0.11192,-0.10627,-0.056903,-0.23889,0.0078979,0.038727,0.1759,0.49894
0.021914,-0.050744,-0.2391,0.34295,0.058995,-0.077075,0.14765,0.15912
0.048698,0.050326,0.49701,-0.06812,-4.5702e-05,0.15719,-0.41241,-0.58628
-0.16309,-0.089759,-0.75945,0.085266,-0.035082,-0.10921,0.23438,0.10169
-0.10485,-0.14171,0.253,-0.28103,-0.13106,-0.062826,-0.11001,-0.095053
0.075269,0.15998,0.21729,0.099472,0.095444,0.03952,-0.24378,-0.49559
-0.1386,-0.13921,0.15889,0.00020079,0.027549,-0.0043752,0.33334,0.66586
0.39344,0.39578,0.68747,0.27214,0.048107,0.0093476,-0.095627,0.32585
-0.072025,-0.042895,-0.8156,-0.28869,-0.053952,0.073295,0.065985,-0.34557
-0.0052402,-0.044566,0.24078,0.0043129,-0.060124,-0.054711,-0.20182,0.1414
-0.23593,-0.32321,-0.59972,-0.25581,-0.1973,-0.16418,0.073023,-0.23129
0.14077,-0.13886,-0.19163,0.047584,0.22161,0.21275,0.315,-0.34053
0.038,0.46837,1.033,0.56254,0.243,0.074872,-0.20097,0.54706
-0.13829,-0.17324,-0.51318,-0.086321,-0.10246,-0.0010499,0.033063,-0.34973
0.026319,-0.10937,-0.43283,-0.2666,-0.15907,-0.20382,-0.085588,0.2356
-0.053268,0.0056586,0.32024,-0.049037,-0.036689,-0.02663,-0.05906,-0.0081159
0.13189,0.1506,0.19059,-0.012149,-0.0090436,0.068993,0.047381,-0.48589
0.06727,0.34323,0.95872,0.11725,0.040978,-0.018592,0.10579,0.35757
-0.074384,-0.35995,-0.61805,-0.02031,0.082235,0.10943,-0.074021,0.37351
-0.081669,-0.12162,-0.75813,-0.073198,-0.05695,-0.030614,0.044966,0.099627
0.29547,-0.089365,-0.053583,0.083745,0.037676,0.023145,-0.014914,-0.44273
-0.33387,0.1043,0.10046,-0.0024068,-0.04004,-0.095493,0.090096,-0.068346
0.09238,0.14663,0.47434,0.051363,0.10832,0.090991,-0.25607,-0.021184
-0.020014,0.052409,0.22978,0.089007,-0.064216,-0.064998,0.018924,0.13555
-0.05425,-0.10165,-0.6827,-0.25644,-0.12027,-0.0628,0.027068,0.066662
0.12222,-0.11424,0.16274,-0.031588,0.080729,0.12144,0.075737,-0.053761
-0.061059,0.19227,0.017899,0.021672,-0.039266,-0.098049,0.10472,-0.15983
0.15362,0.06592,0.66322,0.21612,0.11373,0.13016,0.0296,0.018086
-0.20256,-0.19797,-0.53757,-0.018326,0.0010612,-0.038035,-0.063179,0.054132
0.12028,0.0012339,0.22242,0.052792,-0.0095623,0.053101,-0.041261,0.16217
-0.096715,-0.00066916,-0.53245,-0.15649,-0.081603,-0.081375,0.023796,-0.14081
0.021277,-0.078065,0.11262,-0.14631,-0.12074,-0.12167,-0.14318,0.13676
0.03658,0.082743,0.85467,0.012791,0.060922,0.041142,0.049674,-0.070149
-0.0041025,-0.12612,-0.87296,0.21892,0.10412,0.047348,0.038061,0.10151
0.039717,0.38283,0.11567,0.034189,0.055404,0.060688,0.047074,-0.17359
-0.027322,0.024981,-0.16257,-0.065314,0.031214,0.026132,0.060061,0.076162
-0.033239,-0.1595,0.5774,0.14653,-0.00079539,0.029242,-0.06411,-0.0047873
0.0066507,-0.23226,-0.31488,-0.30715,-0.17466,-0.11784,-0.10664,0.12827
0.022581,-0.05974,0.03455,0.050126,0.016359,-0.001312,0.097125,-0.086984
0.01532,0.24932,-0.59426,0.015458,0.04811,0.058517,0.024799,-0.20261
-0.061081,-0.054543,0.39781,-0.012241,0.0063739,-0.023981,-0.040967,-0.049808
-0.025973,0.15398,0.74049,0.20203,0.040004,0.04092,-0.051738,-0.044413
0.012118,-0.39079,-0.38601,-0.17707,-0.12353,-0.14427,0.0018037,0.10103
0.085021,0.30282,-0.061996,0.022827,0.032605,0.054362,0.097455,0.18854
0.09135,0.1635,0.020677,0.19258,0.095631,-0.0028012,-0.12339,0.12746
-0.18014,-0.1539,-0.54991,-0.16779,-0.034905,0.075597,0.17542,0.11345
0.051039,-0.20571,-0.10784,-0.24593,0.0011224,0.055438,0.032543,-0.30115
-0.028816,0.13143,0.89626,0.37196,0.06338,-0.016699,-0.17793,-0.019365
-0.030561,0.035737,0.10707,-0.040933,-0.059248,-0.071322,0.0036743,-0.054882
0.083233,-0.079843,-0.71147,-0.14886,-0.10952,-0.062759,-0.072515,0.18002
0.092199,0.18239,0.84768,0.12619,0.13048,0.023252,0.12335,-0.16353
-0.10665,-0.11544,-0.95441,-0.036074,0.04261,0.13073,0.11352,0.30959
-0.20966,-0.3406,-0.51879,-0.15907,-0.1553,-0.06945,-0.079435,-0.39389
0.25139,0.26478,0.76237,-0.00062625,0.020317,0.008131,-0.073097,-0.10085
0.13602,0.2946,0.14513,0.06406,0.053248,-0.0036728,0.085777,0.13713
-0.062768,0.053759,0.20432,0.18298,0.036892,-0.10425,-0.13342,0.19926
-0.3513,-0.31676,-0.21431,0.066403,0.018044,-0.0034574,0.0047862,-0.16791
0.13178,-0.089678,0.41172,0.018238,0.043786,0.11254,0.056456,-0.023361
-0.017523,-0.12315,-0.8587,-0.20432,-0.15102,-0.028365,0.038672,0.26771
0.093629,0.35035,0.86747,-0.093655,-0.018743,0.012427,0.030864,-0.14618
0.24833,0.044265,-0.55632,-0.28222,-0.019386,0.0089999,-0.005051,0.3661
-0.16936,-0.061825,-0.072717,0.21532,0.098071,0.00053729,-0.037276,-0.58121
0.028639,0.082158,0.38528,0.63469,0.14708,0.049173,0.0045869,0.44595
-0.15777,-0.66143,-0.73785,-0.55384,-0.12943,-0.0020618,-0.012619,-0.53984
0.028622,0.45967,0.74701,0.25268,-0.035686,-0.10717,-0.019292,0.31884
-0.12415,-0.061359,-0.15652,-0.19472,-0.048165,-0.040424,-0.086752,-0.30658
0.11698,0.26691,-0.41254,-0.20798,-0.01089,0.025631,0.065009,0.38974
0.031716,-0.15982,0.28034,0.2207,0.083325,0.067136,0.067403,0.019701
0.18087,-0.12739,-0.24647,-0.049917,0.061679,0.037018,0.12993,0.10228
-0.062258,0.39727,0.48478,0.13521,-0.092581,-0.15849,-0.20187,-0.65576
-0.011646,-0.20946,0.30103,0.063464,0.095921,0.22288,0.063212,0.4988
-0.074589,0.054425,-0.23069,-0.087385,-0.053555,-0.076502,0.026329,-0.34585
-0.14211,-0.033881,-0.42739,0.03241,-0.065186,-0.025117,0.00031821,0.36583
-0.049812,-0.12424,0.24551,-0.055055,0.099821,0.064918,0.017603,0.32057
0.062621,-0.16816,0.22228,-0.17066,-0.12859,-0.17307,-0.31834,-0.68697
0.18871,-0.05964,-0.67774,0.11562,0.015939,0.019369,0.23708,0.51183
0.056417,0.16871,0.3283,0.0080888,0.089161,0.11163,-0.071473,-0.26632
-0.051835,-0.069672,-0.14636,-0.038426,-0.079648,-0.059811,0.18776,0.21759
-0.18213,0.13791,-0.21367,-0.19398,-0.028562,-0.025962,-0.054259,-0.42135
0.11903,0.061507,0.37378,0.32418,0.13365,0.080191,-0.031747,0.15217
0.015745,0.21051,0.32303,0.25905,0.024278,-0.023245,0.066824,0.14218
0.031325,0.0053757,-0.23157,-0.21742,-0.0054974,0.092363,-0.11205,-0.44922
-0.0062385,-0.09688,0.47438,-0.019959,-0.018923,0.011668,0.17125,0.74788
-0.20633,-0.078157,-0.41441,-0.29021,-0.19657,-0.23533,-0.28909,-0.63114
0.11088,-0.13925,-0.27042,0.080086,0.14045,0.17854,0.13735,0.0013926
-0.015294,-0.18303,-0.060299,0.0041156,-0.031793,-0.12992,0.21451,0.58343
0.10286,-0.047974,-0.023238,0.18448,0.075641,0.12081,-0.27705,-0.026579
-0.019034,0.27334,0.45498,0.12107,-0.02134,-0.060522,-0.055794,-0.057255
-0.092286,0.055952,0.20977,-0.2328,-0.13463,-0.047468,0.090438,-0.47208
0.10107,0.052824,-0.43649,-0.16572,0.10375,0.052307,-0.15684,0.25789
-0.033902,0.025382,-0.33891,0.38539,0.10868,0.045158,0.54821,-0.26716
0.18891,0.070881,0.094154,-0.078836,-0.080057,-0.044152,-0.38619,0.4293
-0.37253,-0.47978,0.063991,-0.23751,-0.032325,0.027305,0.049342,-0.2607
0.24157,0.17185,0.20059,0.18323,-0.044867,0.0017368,-0.050466,0.13409
-0.11791,0.096239,0.084929,-0.19922,-0.047611,-0.066883,-0.013391,-0.1255
0.072403,0.018597,0.28727,0.068163,0.12291,0.085741,0.04313,-0.24758
-0.038477,0.18628,-0.2579,0.19591,0.090812,0.036011,0.15742,0.28529
0.12088,0.041108,-0.13415,0.13645,-0.012144,-0.069459,-0.20284,0.12962
-0.12775,-0.022214,-0.098262,-0.071975,-0.038552,0.064596,0.039231,-0.013037
-0.21249,-0.45224,0.2415,-0.35982,-0.20799,-0.16451,-0.055074,0.018194
0.14143,0.084836,0.11425,-0.1495,0.049409,0.05525,0.11475,0.21917
0.22402,-0.013209,-0.3031,0.33222,0.12425,0.060056,-0.030194,-0.05487
0.066854,0.12953,-0.22113,0.12451,-0.02995,-0.094565,-0.052844,-0.26787
-0.048983,0.23403,-0.0036189,0.071501,0.11098,0.1395,0.13268,-0.4834
-0.15526,0.014389,0.26149,-0.16223,-0.11614,-0.10355,-0.21549,0.16702
-0.0025579,-0.12736,0.18288,-0.14643,-0.022897,0.083789,0.31734,0.53839
-0.22405,-0.14081,-0.14643,-0.005522,-0.022552,-0.055384,-0.307,-0.48171
0.22711,-0.23387,-0.04094,0.065742,0.01048,-0.020607,0.021888,0.3149
0.023102,0.017437,-0.059635,0.091293,0.053069,0.070906,0.05498,-0.067625
-0.062167,0.43427,0.079509,0.11063,0.050551,-0.031276,0.0040104,0.044964
0.081094,0.047383,0.077653,0.046016,0.065225,0.062794,0.20538,0.1294
0.007738,0.15189,0.51658,-0.094335,-0.020406,0.016455,-0.12209,0.043146
0.092582,-0.23917,-0.60132,-0.3022,-0.29256,-0.23337,-0.15841,-0.1
-0.1024,-0.14423,-0.25821,-0.26471,0.11578,0.13336,0.12707,0.20382
-0.023261,-0.050064,0.25213,0.50267,0.10306,0.015147,-0.039853,-0.5567
-0.1396,-0.28642,0.10622,0.16372,-0.065026,-0.017334,0.043164,-0.13393
0.071254,0.16945,-0.41599,-0.071507,0.02562,0.0051936,-0.030816,0.13542
0.10863,0.32536,0.17018,0.014193,-0.00014673,-0.033946,-0.066995,0.22067
-0.067065,-0.22465,-0.040104,-0.22179,0.052571,0.09996,0.12964,0.076507
0.028138,0.44145,0.33001,0.062225,0.011219,-0.038353,0.043365,0.41569
0.026731,-0.23118,0.49321,0.13011,0.015574,0.027402,-0.24759,-0.38522
0.022261,-0.078996,-0.43976,-0.10511,-0.06021,-0.039263,0.12421,-0.37216
-0.032184,-0.016608,-0.022636,-0.17479,-0.068341,0.01094,0.080964,0.36904
-0.066076,-0.052114,-0.72338,-0.0077606,0.0065179,-0.057101,-0.048828,-0.31069
-0.024195,-0.1227,0.068166,0.17883,0.0082689,-0.025259,0.063328,0.36867
0.047475,0.046142,0.36849,0.14484,0.054671,0.090427,-0.090031,-0.2273
0.15016,0.089003,0.70972,-0.076353,-0.025259,-0.030497,-0.071089,0.24348
-0.15999,0.22691,0.0066925,-0.10003,0.042977,0.033991,0.11262,0.15465
0.017037,-0.13925,-0.81031,0.12216,0.08077,0.057765,-0.015224,-0.32258
0.018682,0.0084238,0.12632,-0.11197,-0.10623,-0.075675,-0.10291,-0.25827
-0.044504,-0.18767,-0.48007,-0.067638,-0.13447,-0.11544,0.25589,0.13795
-0.16408,-0.17188,0.29239,-0.065259,0.059015,0.064454,-0.095099,0.14946
0.30829,0.44639,0.66986,0.21493,0.17747,0.089961,-0.17941,-0.010209
-0.10496,-0.21688,0.12017,0.12357,-0.052776,-0.053785,0.057484,0.036435
0.039685,0.015689,-0.65493,-0.23895,-0.10102,-0.085115,-0.017453,-0.075966
0.12261,0.2972,0.25701,0.071378,0.039755,0.16002,0.12677,0.036159
-0.14793,-0.039972,-0.20018,-0.04821,0.024873,-0.061033,-0.017969,0.051993
-0.063444,-0.2882,0.066312,0.10441,0.025313,0.039971,0.11056,-0.20983
-0.016316,-0.012453,-0.16248,-0.22924,-0.053413,0.016706,-0.17533,0.31071
0.18802,0.14555,-0.065676,0.13019,0.014801,-0.077115,-0.024099,0.05623
-0.28595,-0.17311,0.61562,0.057691,-0.035786,0.0077872,0.080096,0.016684
0.18827,0.0881,-0.54699,-0.032513,0.045045,-0.03359,-0.073254,-0.22308
-0.16045,-0.075846,0.68975,0.12548,-3.3932e-05,0.0098298,-0.046117,-0.22508
0.1549,-0.13074,-0.70487,-0.11648,-0.084472,-0.064573,0.0057163,-0.088792
0.011795,0.27734,-0.035757,-0.07846,0.034504,0.048581,0.11369,0.12658
-0.0019816,0.02451,-0.093135,-0.19776,0.029166,0.10775,0.051043,0.1279
-0.0026914,0.11815,0.45689,0.49448,0.12618,0.0039238,0.067122,0.28562
0.0095233,-0.068674,-0.16969,-0.048553,-0.0497,-0.020716,-0.081234,-0.070243
-0.052409,0.03148,0.39129,-0.33462,-0.13961,-0.052557,-0.020117,-0.072485
0.036188,-0.014121,0.16065,0.20667,0.06668,-0.04551,-0.2505,-0.14498
-0.0082151,-0.28594,-0.30825,-0.01829,-0.025289,0.061949,0.1723,-0.096098
-0.13321,-0.12083,-0.54594,-0.34516,0.013575,-0.020219,-0.064446,0.22572
0.26872,0.34925,-0.041482,0.42956,0.050115,-0.011563,0.14883,0.065618
-0.23329,-0.26379,-0.016026,0.0015664,-0.0016296,0.064007,0.0939,0.1851
0.13399,0.30948,0.20133,-0.042769,0.0071142,-0.012291,-0.23633,-0.50436
0.066679,-0.26258,0.76605,0.046943,-0.071417,-0.044698,0.13557,0.027935
-0.19131,0.22719,-0.6051,-0.3305,-0.025343,-0.016675,0.09341,0.025797
-0.0047422,-0.06191,-0.041466,0.059555,-0.0020185,-0.005062,-0.19767,0.08647
-0.11308,-0.034502,0.18395,0.16258,0.093364,0.046332,0.060373,-0.0041162
0.22839,0.12194,-0.15806,0.064449,0.0038483,-0.0016102,-0.045409,-0.10819
0.021535,-0.094018,0.26317,-0.055538,0.011194,0.0086522,-0.076575,0.34887
-0.037503,-0.052028,-0.12957,-0.0027494,-0.079841,-0.031398,0.10021,-0.18471
0.058708,0.18244,-0.17957,-0.098409,-0.050887,-0.08243,-0.046443,0.12032
-0.089758,-0.081016,0.39563,0.2034,0.13635,0.1364,0.131,0.052282
0.1945,-0.094743,-0.22125,0.026915,-0.00356,-0.00096735,0.060542,-0.2348
-0.21611,-0.28999,-0.48574,-0.13606,-0.026446,-0.0039291,-0.010085,-0.025365
0.027592,0.2075,0.11785,-0.23848,-0.0037011,0.0084495,-0.18487,-0.096382
-0.12303,0.16315,-0.0021157,0.071889,-0.09241,-0.059451,0.38566,0.13483
0.096797,-0.063636,0.58737,0.061708,0.050709,0.025201,-0.53419,0.15793
0.030896,0.1911,0.085233,0.25552,0.019354,-0.027599,0.039756,0.041716
-0.069913,-0.23717,-0.49758,-0.1739,0.016993,0.031971,0.15534,-0.073563
0.076875,0.29923,0.25516,0.18793,-0.0026043,-0.076718,-0.0058176,-0.2106
0.10539,-0.2944,-0.21797,-0.13561,0.023882,0.10075,0.066528,-0.063071
-0.17864,-0.026671,0.051997,-0.22319,-0.12145,-0.12138,-0.039245,0.13681
0.14724,0.17237,0.43974,0.21338,0.09337,0.024316,-0.039958,0.0005824
-0.14356,-0.32202,-0.82084,-0.045605,0.043842,0.13319,0.1592,0.061198
-0.04375,0.13163,-0.026906,0.022325,-0.11361,-0.10622,-0.12924,-0.063346
0.27393,0.15967,0.56382,-0.091454,0.050521,0.072038,0.10165,0.19705
0.058516,0.14649,0.38159,0.0812,0.067026,-0.012125,-0.040346,0.23976
-0.41728,-0.36732,-0.10381,0.016489,-0.010078,0.030899,-0.11178,-0.4602
0.16657,0.12733,-0.84397,0.073704,-0.017441,-0.019005,0.049669,0.08013
-0.033371,0.092271,0.24106,-0.090679,-0.057219,-0.046049,0.044264,-0.11658
-0.0083519,-0.089196,0.090717,-0.046411,-0.028173,-0.066992,-0.066102,-0.0345
0.21175,0.20029,0.16749,0.10584,0.077537,0.058145,-0.01569,0.14008
-0.19183,-0.17991,-0.16074,-0.078064,0.0024769,0.016789,0.03999,-0.23936
-0.077006,-0.096983,0.027314,-0.042104,-0.057387,-0.010915,0.008331,0.40743
0.080701,0.097608,0.15141,-0.050604,0.0080974,-0.031954,0.0077828,-0.23808
0.1177,-0.072411,0.059659,0.13185,-0.034719,-0.029738,-0.11679,0.05168
0.041629,0.0027555,0.19312,-0.11918,0.049045,0.1138,0.24475,0.39389
0.0080456,0.222,0.21944,0.29783,0.087689,0.0086338,-0.071333,-0.30612
-0.030947,-0.015918,-0.79431,-0.16466,-0.0049085,0.022214,0.036459,0.059515
-0.33422,-0.30465,-0.42784,-0.023414,-0.04172,-0.040851,-0.16657,-0.33903
0.2458,0.2696,0.48334,0.079562,8.5353e-05,-0.040235,0.076994,0.10611
-0.064874,-0.15322,0.10549,-0.16955,-0.067559,-0.04662,-0.061275,-0.082758
-0.016505,-0.050793,0.2622,-0.013946,-0.049711,-0.0056309,-0.019011,0.077986
0.22675,0.10661,-0.042962,-0.0010663,0.076963,0.066935,0.078817,0.32216
-0.29616,-0.050053,0.24772,0.064305,-0.031135,-0.032074,-0.0098869,-0.13983
0.11762,0.078835,-0.62936,0.088691,0.07162,0.056797,0.019601,-0.035211
0.22543,0.21808,0.13132,0.049157,0.010586,0.013347,0.018704,-0.0052958
0.018873,0.1087,0.47483,-0.069335,0.020419,-0.021716,0.026123,0.2228
-0.36982,-0.53858,-0.63891,-0.070901,-0.086247,-0.09527,-0.11497,-0.33546
0.082417,-0.019643,0.3746,-0.0019369,0.018666,0.073822,0.0088081,-0.21086
-0.038466,-0.035459,-0.43932,-0.041791,-0.024435,0.016576,0.12332,0.3868
0.10387,0.20599,0.38673,-0.080938,-0.036224,-0.064233,0.009255,-0.025135
0.080462,0.0047378,0.53145,0.31024,0.13128,0.073145,-0.13836,-0.2572
-0.021831,0.11338,-0.54464,-0.071691,-0.014629,0.0063599,-0.0070142,0.13778
-0.10054,0.025529,-0.31014,0.054067,-0.052538,-0.038466,-0.033885,-0.026293
-0.014317,-0.13394,0.25126,-0.22707,0.0015635,0.03991,0.10189,0.37625
0.088866,0.08642,-0.35163,-0.056153,0.0068812,-0.016446,0.072841,-0.19371
-0.025244,-0.074114,0.32744,0.090016,-0.028691,-0.090225,-0.1204,-0.049305
0.0885,-0.0018327,0.20305,0.078655,-0.026683,0.022067,0.007055,0.082029
-0.085888,0.27654,-0.0062238,0.074112,0.068163,0.070983,0.13526,-0.3395
0.044926,-0.1085,0.30032,0.084706,0.037822,-0.020957,0.037886,-0.18143
-0.0037652,-0.25933,-0.1989,-0.22484,-0.054432,0.012494,-0.21457,0.71262
-0.20868,-0.19061,-0.48169,-0.14289,0.0030498,0.039022,0.034274,-0.3835
0.039595,-0.048244,-0.36915,0.04997,-0.078254,-0.09731,-0.13733,-0.063031
0.15527,0.42909,0.54486,0.057257,-0.009,0.0098455,0.10657,0.22113
0.021307,0.049723,0.26872,0.17589,0.1639,0.094771,0.086072,-0.21098
0.036196,-0.081841,-0.16534,0.20234,-0.0052209,-0.061527,0.011616,0.13979
-0.10485,-0.29215,0.024985,-0.3251,-0.040431,0.017189,0.3824,0.13927
-0.011405,0.32501,-0.07342,0.037967,-0.059686,-0.060046,-0.63065,-0.081323
0.27727,0.46347,0.21203,0.0016291,0.014378,0.042415,0.27624,-0.17188
-0.3092,-0.34007,-0.040002,-0.21586,0.0014721,0.04312,-0.03031,0.35888
-0.17692,-0.42403,-0.53218,0.18234,-0.020619,-0.065834,-0.20663,-0.49688
0.18225,-0.079355,0.40005,-0.076852,-0.036307,-0.034435,0.052438,0.10545
-0.0047403,0.18538,-0.063169,0.23378,0.14214,0.1296,0.23218,0.1597
0.18428,-0.10597,-0.24182,-0.12726,-0.047329,-0.057957,-0.017793,-0.34783
-0.047532,0.4776,0.51253,0.13745,-0.033882,-0.011012,-0.03225,0.26418
-0.083319,-0.17945,-0.11309,-0.37806,-0.074801,-0.034111,-0.14615,0.082489
-0.079941,-0.23201,-0.26028,0.17774,0.056908,-0.041229,-0.054191,-0.10421
0.28999,0.023508,0.28833,0.12487,0.056832,0.10046,0.3454,0.71034
-0.15387,0.35989,0.09378,0.13476,0.057869,0.054948,-0.15851,-0.45273
-0.17749,-0.38878,-0.50927,-0.06646,-0.018186,-0.01384,-0.0039545,-0.40058
0.023896,0.25912,-0.0059634,-0.28374,-0.14029,-0.12952,-0.15261,-0.017832
0.021134,0.073955,0.6973,-0.040523,-0.035301,-0.0031924,0.12908,-0.062945
0.16662,-0.13448,-0.52401,-0.0084322,0.046478,0.044689,-0.12843,0.43361
-0.038692,0.054125,-0.14551,0.23477,0.065641,0.021858,0.19135,0.059821
-0.054927,-0.12573,0.091681,0.064378,0.045269,0.02203,-0.060571,-0.42368
-0.10814,0.0076793,0.047839,0.082,0.039696,0.0374,0.091974,-0.13111
0.23145,-0.25282,0.52815,-0.13449,-0.052941,-0.033541,-0.23403,0.61974
0.018194,0.097539,-0.24861,-0.13246,-0.068749,-0.057869,0.29738,-0.11494
-0.19389,-0.077105,-0.3531,0.0093824,-0.015508,0.034904,-0.21198,0.079213
0.00060766,0.27376,0.17523,-0.021959,-0.057023,-0.090935,-0.13669,-0.31432
0.04613,0.0032523,0.17223,0.070099,0.072775,0.057029,0.086299,-0.23487
-0.089299,0.42292,-0.45542,0.12929,0.069721,0.049269,0.12938,0.33867
0.26571,-0.10335,0.50429,0.023071,0.012417,0.042072,0.14138,0.20858
-0.19371,-0.26016,-0.35336,-0.209,-0.051948,-0.019371,-0.09619,-0.14286
0.079447,-0.22466,-0.17525,-0.027184,-0.013902,-0.057197,-0.12231,-0.18593
0.0075142,-0.14192,0.13354,0.014552,0.0014323,-0.0092457,0.016203,0.070775
-0.12758,0.14167,0.53414,0.11999,0.017205,0.030395,0.046001,-0.13847
-0.051611,0.21179,-0.20882,0.10987,0.0017977,-0.040093,-0.18898,-0.18827
0.079896,0.023588,-0.26166,-0.1172,0.0017359,0.013547,0.1318,0.53923
0.0095941,-0.20036,0.17713,-0.1161,0.0089576,0.10542,0.11792,-0.11938
0.10474,-0.15058,-0.15373,-0.0044653,-0.093814,-0.11583,-0.027453,0.44586
0.068077,0.37307,0.29743,0.15459,0.052887,0.0063834,-0.10922,-0.54569
-0.038596,0.1089,0.044411,0.15732,0.066498,0.027151,0.0362,-0.10105
-0.04424,-0.32352,-0.084828,-0.2233,-0.036998,-0.021846,0.072162,0.14042
-0.23079,0.13096,-0.92453,-0.088991,-0.015022,0.039451,0.060367,-0.35081
0.12801,-0.16194,0.62228,0.037002,-2.6754e-05,-0.015277,-0.17961,0.30229
0.055776,0.22438,-0.080979,0.030192,0.023861,-0.0062769,0.093917,0.1094
-0.095317,0.21546,0.41491,0.11,-0.0057733,-0.011813,-0.19738,-0.15484
0.17562,-0.41973,-0.0044508,-0.22297,-0.12811,0.0068372,0.18102,0.07218
-0.075794,0.05695,-0.009858,-0.023128,0.086183,-0.0055182,0.02645,0.172
0.010502,0.025234,-0.16465,0.29525,0.089706,0.020837,-0.07452,0.040534
-0.14333,-0.14155,0.083416,0.075182,0.03805,0.022812,0.10539,-0.059965
0.15777,0.15014,-0.18306,-0.051673,-0.014733,-0.007878,-0.026881,-0.29714
-0.055682,0.057661,0.11061,-0.086556,-0.084725,-0.0011634,-0.08787,0.044682
0.090151,-0.15134,-0.40556,-0.3586,-0.10956,-0.035097,0.071423,0.057314
0.093964,0.29132,0.74343,0.26454,0.082919,0.00010574,-0.025073,0.13096
-0.22511,-0.096124,-0.44257,0.14245,0.0011431,-0.066727,-0.072267,-0.10034
0.022786,-0.061285,-0.11077,-0.24749,-0.033725,0.054337,0.078561,0.19421
