0.00093534,-0.06078,-0.55572,-0.32287,-0.022094,-0.023704,0.0037742,-0.014109
-0.016155,0.017374,0.26006,0.13434,-0.014486,0.015323,0.021995,0.0095974
0.021357,0.1016,0.028855,-0.41856,0.078254,0.045748,0.0088834,0.049787
0.026894,0.028061,0.37873,0.22922,-0.0093325,-0.010571,-0.0047537,-0.010936
-0.031355,-0.085545,-0.078351,0.18588,-0.058213,-0.044118,-0.042675,-0.016651
0.025881,0.027065,0.12797,0.11318,0.033513,0.0078882,0.019988,-0.022423
-0.036004,-0.016219,-0.2129,0.35952,0.0005325,0.0052061,0.003626,-0.0051598
0.064229,0.011791,-0.16432,-0.82086,-0.0084847,0.010752,-0.013363,0.0036403
-0.048198,0.025611,0.06095,0.60792,0.053441,0.0092734,0.016292,0.019488
-0.021283,-0.029226,-0.039406,-0.50464,-0.063721,-0.014599,-0.039792,0.0033474
0.020586,0.011294,0.29777,0.16144,0.046128,0.025158,0.053122,-0.01339
-0.0078232,-0.0093807,-0.17195,-0.20477,-0.031301,-0.019995,-0.0094479,0.0085515
0.019189,-0.00582,-0.22378,0.16567,-0.022821,-0.017529,0.022508,-0.016531
-0.022787,-0.017718,0.27397,-0.082185,0.0010358,0.00089358,-0.023075,-0.018121
0.0072563,0.04021,0.00058986,0.25171,0.047931,0.034795,0.0019083,0.05079
0.046937,0.17522,0.0032372,0.54657,0.086562,0.052468,0.018935,0.026186
-0.044532,-0.2849,-0.14688,-1.0774,-0.19551,-0.10269,-0.042674,-0.068532
0.029313,0.058222,0.12972,0.34212,0.076855,0.0379,-0.019111,0.032174
-0.021168,-0.029546,-0.40759,0.20315,-0.017983,-0.041349,0.011404,-0.023358
-0.0013104,0.046053,0.39907,-0.26201,0.00459,0.0035632,0.03332,0.022624
0.025774,0.074739,0.074572,0.23226,0.08228,0.055853,0.023418,-0.0095617
-0.081028,-0.067813,-0.16114,-0.083936,-0.066035,-0.040256,-0.0023563,-0.026078
-0.017338,0.05647,0.27106,0.26937,0.028432,0.012553,-0.051449,0.035733
0.14642,0.041736,0.28619,0.1008,0.029702,0.042737,-0.0063173,0.0041963
-0.05844,-0.14308,-0.59906,-0.61572,-0.077934,-0.043287,0.0083282,-0.018924
0.0402,0.072326,-0.50848,-0.084378,0.017935,0.027911,0.047346,0.0055905
0.0051855,0.047132,0.28559,0.10168,-0.010896,-0.009456,-0.022063,-0.015941
-0.20213,-0.21903,0.27583,0.23342,-0.055135,-0.069725,-0.020372,-0.0054432
0.028018,0.10923,-0.046407,0.11034,0.072599,0.042085,0.0052219,0.052531
0.13345,0.054616,0.22243,-0.085259,0.059607,0.020938,0.023033,-0.029816
0.036159,0.17093,0.11666,0.070514,0.014976,0.022765,0.016963,0.012764
0.0017188,-0.21465,-0.37785,0.024106,-0.077276,-0.015195,-0.021215,-0.02325
-0.0013321,0.045417,0.38823,0.10388,-0.030004,-0.038417,-0.021449,0.018053
0.026774,0.098984,0.19014,-0.56558,0.023713,0.03118,0.016228,-0.0041688
-0.093748,-0.077518,-0.12418,0.35101,0.02909,-0.0016177,0.013925,0.035041
-0.097117,-0.069578,-0.65626,0.22025,0.017499,0.0040455,-0.012262,-0.09855
0.024933,-0.071505,-0.26138,-0.32526,-0.073219,-0.029615,-0.092955,0.032861
0.054307,-0.027225,0.27125,0.074073,-0.0081623,-0.0084506,0.053745,0.0077893
0.015129,0.088172,-0.27517,-0.37807,0.041415,0.021052,0.022108,0.014129
0.04069,0.22121,0.67164,0.49864,0.052692,0.035762,0.062386,0.059994
0.05296,-0.18212,0.15829,-0.10002,-0.067567,-0.042278,-0.036443,-0.073218
-0.18282,0.034418,0.055641,0.162,0.040341,0.029116,0.03771,0.036339
0.22314,0.010792,0.019061,0.065671,-0.037535,-0.015858,-0.0048489,-0.017763
-0.0036815,0.23032,0.14508,-0.19419,0.073697,0.03343,-0.031999,0.03764
-0.13785,-0.32375,-0.66779,0.11643,-0.04812,-0.042153,-0.013072,-0.078993
-0.024037,-0.082009,-0.053009,-0.56494,-0.075266,-0.024241,-0.16717,0.022716
-0.11586,0.087925,0.57608,0.56705,0.13241,0.079024,0.17751,0.014478
0.16478,-0.048238,-0.94091,-0.23648,-0.13651,-0.099776,-0.025759,-0.010027
0.044859,0.11154,0.81769,-0.036689,0.05499,0.064239,0.035784,0.027332
-0.09212,-0.041507,-0.12098,-0.18414,-0.0044971,-0.030511,0.010841,-0.060888
0.082794,0.11815,-0.070352,0.43856,0.083044,0.03791,-0.0066681,0.084768
7.0273e-05,0.0047914,-0.45926,0.19761,0.01257,0.011798,-0.016689,0.011276
0.058791,-0.022298,0.43971,-0.38571,-0.067722,-0.014959,-0.003632,-0.031238
-0.15465,-0.018133,0.024062,0.41993,-0.040713,-0.042207,0.0090154,-0.034789
0.0084306,-0.16277,-0.046424,-0.49817,-0.10157,-0.022903,-0.072489,-0.038203
-0.04566,0.082654,0.29003,-0.1116,0.12509,0.058758,0.033227,0.021308
0.13605,0.015127,-0.49516,0.19516,0.09295,0.031104,0.068606,0.073737
-0.032721,0.16638,0.8704,0.33616,0.11524,0.050612,-0.020681,-0.029088
0.017813,-0.24404,-0.88219,-0.69454,-0.32284,-0.14027,-0.046725,-0.021374
-0.064539,-0.082378,0.079432,0.27859,-0.017326,-0.033419,-0.056028,-0.035908
0.17272,0.28508,0.73794,0.75277,0.2279,0.12928,0.092296,0.11468
-0.16151,-0.10977,-0.2875,-0.42232,-0.14117,-0.081568,0.0077003,-0.062077
-0.0049159,0.084816,-0.20869,-0.44377,0.079018,0.029549,-0.0052624,-0.01966
0.087987,-0.14709,-0.71656,-0.20469,0.044833,0.056435,0.037455,0.022785
-0.22599,0.060895,-0.036664,-0.037294,-0.09551,-0.063544,-0.044291,-0.067905
0.23366,0.12948,0.31125,0.77058,0.055871,0.036473,0.02245,0.10645
-0.00089755,-0.06766,0.042022,-0.0017203,-0.017475,0.012247,-0.10649,-0.032393
-0.35077,-0.29741,0.85269,-0.31248,-0.15249,-0.13682,0.006082,-0.031299
0.38756,0.3611,0.58471,0.21313,0.22789,0.1355,0.078778,-0.015124
0.049917,-0.084936,-0.88621,0.20609,0.028856,0.023924,0.033438,0.039793
-0.051846,-0.16696,-0.51683,-0.46851,-0.23488,-0.12833,-0.067403,-0.038168
-0.12973,0.10745,0.5611,0.18087,0.10003,0.076798,0.065379,0.032472
-0.020956,0.14508,-0.84027,-0.31247,0.048768,0.029753,-0.0056534,0.025304
-0.0079869,-0.10019,-0.12736,-0.20858,-0.10757,-0.066303,-0.061677,-0.0049199
0.048853,-0.096271,1.0838,0.45479,0.18589,0.070155,-0.0010322,-0.0035427
0.086541,0.12639,0.24927,-0.41183,0.070232,0.056818,0.027988,-0.025347
-0.11371,0.02158,-0.53977,0.92431,-0.23505,-0.13688,0.01776,-0.015778
0.050065,-0.29306,-0.56537,-0.82689,-0.21342,-0.11952,-0.054934,-0.03749
-0.11667,0.15136,-0.0064666,0.61434,0.17515,0.078388,0.028872,0.01872
0.13707,0.13591,0.33398,-0.77821,0.11117,0.11366,0.019355,0.051091
0.015478,0.0742,0.32534,0.88954,0.22806,0.11937,0.041616,0.11409
-0.050764,0.012485,0.5246,-0.56798,-0.16923,-0.10769,-0.10746,-0.14408
-0.0061045,-0.27638,-0.56596,0.29538,-0.049455,-0.044474,0.072061,-0.01263
0.11888,0.31666,0.087462,0.050297,0.095063,0.081893,-0.021549,0.094312
-0.089413,-0.21619,-0.25419,-0.15433,-0.33738,-0.17448,0.025575,-0.08876
-0.15415,-0.36672,-0.75887,-0.41913,0.020344,-0.032785,-0.06023,-0.092807
0.080966,0.27186,0.64044,0.19475,0.25414,0.14731,0.056754,0.16853
0.029782,0.035892,-0.3329,0.11051,-0.18298,-0.079622,-0.045535,-0.069923
-0.10508,-0.051253,0.55934,-0.56196,0.075791,0.0051458,-0.031293,-0.057758
0.43341,0.81447,0.64768,0.87153,0.49075,0.32351,0.2088,0.22872
-0.33232,-0.44618,-0.23914,-0.26428,-0.36862,-0.22604,-0.14553,-0.12448
0.096699,-0.4437,-0.64899,0.29834,-0.16721,-0.12775,-0.047235,-0.070545
-0.10856,0.21187,0.25216,0.075479,0.10238,0.056139,-0.0038491,0.062244
-0.089233,-0.19007,-0.11593,-0.20615,-0.17689,-0.072374,-0.030626,-0.054395
0.19371,0.18789,-0.012747,-0.02938,0.12086,0.096659,0.075959,0.040384
-0.14988,-0.19866,-0.66601,-0.13174,0.098615,0.05605,0.13658,-0.028419
0.076169,0.067259,0.3061,-0.4574,-0.20282,-0.11554,-0.17663,-0.0029149
0.013542,0.1055,0.41763,0.66344,0.22601,0.090031,0.058331,0.054504
0.09295,0.31617,0.29069,-0.81432,0.019092,0.047788,-0.0022661,0.018912
-0.036399,-0.089607,0.4831,0.69136,0.036239,-0.0081702,-0.077251,-0.047207
-0.24916,-0.56652,-0.89413,-0.27681,-0.29326,-0.18775,0.051987,-0.089311
0.22793,0.51514,0.19892,-0.17897,0.26378,0.21928,0.088387,0.16574
-0.074632,-0.17692,-0.36142,0.34007,-0.1929,-0.18627,-0.11672,-0.11844
-0.048684,-0.069119,-0.24386,0.035473,-0.0014127,-0.037961,-0.032386,-0.012698
0.23389,0.397,0.72171,0.72651,0.20323,0.21045,0.036342,0.11519
-0.041028,-0.17975,0.34182,-0.25674,0.05974,0.019395,0.10465,0.030317
-0.093573,-0.2142,-0.4874,-0.047299,-0.1988,-0.10359,-0.023257,-0.10358
0.059859,0.2093,-0.38216,-0.51152,-0.0025123,-0.01791,-0.01969,0.010325
-0.17441,-0.30388,0.26235,-0.11309,0.09446,0.057971,-0.017781,-0.0026341
-0.01412,-0.13886,-0.46391,-0.30921,-0.17986,-0.078485,-0.017629,-0.040196
0.026878,0.18705,0.23107,0.46588,0.098502,0.01886,-0.026874,0.007994
0.052365,0.18716,0.62852,-0.39505,-0.15406,-0.055329,-0.0060206,0.018016
-0.029244,-0.22869,-0.24476,-0.12753,0.025406,-0.042425,-0.048214,-0.032608
0.088375,0.24499,-0.14074,0.56575,0.23191,0.15183,0.10499,0.075497
0.085665,0.27774,0.11318,0.23059,0.1844,0.089994,0.055687,0.053413
-0.068876,-0.12764,0.38087,0.27595,-0.21172,-0.087714,-0.070847,-0.05236
0.17049,0.17062,-0.28843,-0.24635,0.23725,0.11793,0.092602,0.046428
-0.2526,-0.35771,-0.02496,0.51443,-0.43933,-0.23933,-0.11823,-0.10441
-0.027456,-0.34305,-0.39392,-1.0569,-0.016497,0.035004,0.0072423,0.0096496
-0.03837,0.071088,0.18445,-0.51629,0.028254,-0.043974,-0.0157,-0.026349
0.080915,0.0020767,-0.45478,0.19567,0.13237,0.10956,0.023588,0.060474
-0.052686,0.1717,0.4741,0.81034,-0.015947,-0.02754,-0.015693,-0.0034586
0.014235,0.053762,0.30801,-0.033367,-0.079574,-0.040662,-0.00079248,-0.030386
0.13388,0.083877,-0.53528,0.58704,0.23183,0.11774,0.07612,0.042769
0.05703,0.29105,0.87051,-0.3793,-0.057225,-0.036077,-0.027083,0.0058427
-0.14527,-0.53921,-0.73709,-0.58105,-0.094536,-0.056328,-0.060326,-0.093465
0.090109,0.27509,-0.17833,-0.31929,0.13572,0.10415,0.10148,0.11278
-0.11915,-0.06272,0.44085,-0.032495,-0.10879,-0.070147,-0.072812,-0.038908
0.024248,-0.11688,-0.49855,0.0068896,-0.070587,-0.024548,0.018508,0.0064506
-0.057477,-0.01567,0.49623,0.76875,-0.054731,-0.071633,-0.10095,-0.040179
-0.0046749,0.088292,-0.39929,0.36188,0.11036,0.061909,0.076824,0.016265
0.16719,0.089025,0.5106,-0.61583,-0.0051988,0.039968,0.028555,0.026881
0.01278,0.24821,0.57689,0.60939,0.082781,0.057627,0.059033,0.037946
-0.10874,-0.31201,-0.41004,-1.1375,-0.1259,-0.10415,-0.081725,-0.076158
-0.072773,-0.21792,-0.076896,0.26281,0.01694,0.015231,-0.018788,-0.0034647
0.13577,0.070001,-0.66032,0.87401,0.20629,0.11079,0.060226,0.068176
-0.06182,0.061626,-0.04473,-0.40366,-0.09722,-0.075526,-0.032315,-0.048835
-0.017629,-0.060139,-0.56736,-0.28499,-0.18282,-0.082826,-0.030885,-0.01058
0.096074,0.25528,0.77661,0.33869,0.043249,0.01871,0.0019628,0.011471
-0.080276,-0.10583,0.21347,-0.71735,0.050013,0.049717,0.042788,-0.0055584
-0.0075682,0.023216,-0.039542,-0.033287,-0.021435,-0.020602,-0.025569,-0.01419
0.12697,0.2532,0.42507,0.73439,0.25918,0.13635,0.093794,0.087657
-0.22308,-0.44707,-0.23522,-0.65668,-0.31071,-0.17434,-0.12256,-0.11376
0.036505,0.022852,-0.14562,0.4322,-0.074473,-0.014969,0.0050258,0.037833
-0.02356,-0.065637,-0.28408,0.37874,0.10863,0.028476,-0.0079383,0.018739
0.2375,0.38651,0.8016,0.072312,0.19149,0.11191,0.08057,0.054973
-0.024229,0.0095441,-0.40974,-0.19525,0.017285,0.0081729,0.0046983,-0.010438
-0.090511,-0.018993,-0.17496,-0.1272,-0.12574,-0.07258,-0.032692,-0.061068
-0.055827,-0.2864,-0.13171,-0.70164,-0.066596,-0.021811,-0.031858,-0.019448
0.016526,-0.12115,0.19657,0.47853,-0.0013644,-0.0043339,0.02263,0.020245
0.039936,0.18056,-0.30058,-0.25049,-0.086824,0.0027543,-0.0021364,0.01101
-0.087566,-0.13762,0.094265,0.75481,0.09086,-0.016412,-0.012375,-0.039171
0.055845,0.23858,0.29317,-0.05419,0.062989,0.016374,0.0076997,0.018548
0.040792,0.084239,-0.012579,-0.082155,0.064192,0.046804,-0.011965,0.04409
-0.061788,-0.16211,-0.39361,-0.46512,-0.092636,-0.041675,0.014893,-0.024462
0.13177,0.14826,0.025972,-0.46966,0.12426,0.11896,0.057369,0.079053
-0.17445,-0.2273,-0.043201,0.18575,-0.25322,-0.15783,-0.0717,-0.10586
0.075214,0.22594,0.60625,0.25121,0.13512,0.074362,0.026429,0.030529
0.053526,0.022672,0.32558,0.90509,0.14182,-0.0037016,0.0082682,0.019721
-0.066948,-0.095457,-0.5156,0.12812,-0.21634,-0.078507,-0.04003,-0.052151
-0.090472,-0.19081,0.018035,-0.88281,-0.10225,-0.071136,-0.040195,-0.020899
0.16274,0.081272,-0.41522,0.12168,0.22726,0.19071,0.093772,0.058831
-0.05759,-0.24652,-0.22957,-0.25116,-0.039668,-0.011804,-0.013185,0.015088
-0.017678,0.15548,0.90215,-0.04319,-0.02021,-0.054327,-0.025306,-0.035153
0.11753,0.39777,-0.45819,-0.21045,0.066194,0.09319,0.041491,0.063994
-0.19205,-0.27733,-0.22412,0.24423,-0.25063,-0.21149,-0.086608,-0.10201
0.17753,0.34012,0.29414,0.45871,0.36323,0.23296,0.12125,0.091283
-0.094923,-0.32234,0.38997,0.33645,-0.10237,-0.11423,-0.077498,-0.028527
-0.0022291,0.0059312,-0.32853,-0.35969,0.11594,0.081517,0.035625,-0.00094285
-0.044696,-0.021722,0.29582,-0.13997,-0.33519,-0.14934,-0.094231,-0.045001
-0.058249,-0.14201,-0.84342,-0.52955,-0.0036062,-0.049082,-0.013985,-0.043611
0.23863,0.48759,-0.062113,0.43185,0.27482,0.21884,0.14359,0.14394
-0.13802,-0.50777,0.356,-0.4193,-0.25667,-0.1569,-0.066722,-0.083653
0.062291,0.15478,0.43185,0.56699,0.2163,0.12214,0.10517,0.078641
-0.09747,-0.092298,0.4044,-0.013315,-0.16336,-0.098641,-0.1297,-0.087513
0.078428,0.059123,-0.63713,0.092211,0.012921,0.0025894,0.017849,0.0042376
0.02002,0.24535,0.0044359,0.1593,0.1845,0.10665,-0.014564,0.049576
-0.10054,-0.18699,-0.045402,-0.84917,-0.10845,-0.07492,0.038853,-0.052788
-0.0018264,-0.079904,-0.35756,0.70114,-0.061041,-0.065586,-0.056103,-0.013666
0.034993,0.14497,0.089902,-0.3216,0.099437,0.055909,0.052269,0.034071
0.041093,-0.099612,0.48997,-0.018632,0.012156,0.054076,-0.03441,0.019848
-0.015009,0.035218,-0.13698,-0.015443,-0.020051,-0.0021793,0.043173,0.013541
-0.04776,0.16303,0.16633,-0.079142,-0.04593,0.010693,0.027021,-0.0010192
0.11425,-0.087306,-0.16663,0.053397,0.011149,-0.010081,-0.044079,-0.016562
0.025238,0.13223,0.20402,0.91014,0.095674,-0.0027284,0.063956,0.029
-0.15884,-0.34494,-0.67812,-0.69211,-0.30799,-0.17046,-0.12566,-0.083257
0.022884,0.01143,0.48174,0.25154,0.19935,0.088856,0.043247,0.013985
-0.069944,-0.14955,-0.4655,-0.70556,-0.13878,-0.067426,-0.054221,-0.04604
0.14919,0.29932,0.67638,0.41409,0.19484,0.15895,0.12128,0.08887
0.0092045,0.22073,-0.0668,0.27807,0.1861,0.058404,-0.00012772,0.036632
-0.012425,-0.084592,-0.24617,-0.77189,-0.17948,-0.071119,-0.042974,-0.022387
-0.11798,-0.26124,0.32234,-0.14281,-0.17467,-0.080591,-0.03803,-0.056422
-0.0099306,-0.14967,-0.4815,0.75031,-0.0024903,-0.0090181,-0.0083401,-0.0026921
0.10113,0.36187,-0.25475,-0.071796,0.12579,0.072855,0.0072777,0.029448
0.13706,0.071483,0.47497,0.35377,0.20166,0.10175,0.10263,0.078852
-0.1369,-0.1693,-0.16534,-0.099935,-0.080405,-0.071703,-0.034943,-0.042354
-0.01047,0.091458,0.4414,-0.4701,-0.25251,-0.096833,-0.022973,-0.053384
-0.093889,-0.36716,-0.41821,-0.086241,-0.018523,-0.052449,-0.072896,-0.064084
0.057238,0.23325,0.30603,0.095142,0.081954,0.061051,0.033462,0.050114
0.090459,0.21762,-0.047927,0.28123,0.19695,0.11855,0.092392,0.085714
-0.12002,-0.19853,-0.071943,0.3212,-0.18166,-0.14551,-0.091947,-0.082604
0.06579,0.013192,0.12763,-0.37809,0.031696,0.050283,0.019095,0.029251
-0.0010289,-0.055683,-0.15484,0.024216,0.0085138,0.0028958,-0.012241,0.01479
0.15584,0.39824,0.26864,-0.35256,0.20151,0.15766,0.087417,0.084783
-0.17453,-0.49242,-1.036,-0.12623,-0.18649,-0.13394,-0.07241,-0.11238
-0.030892,0.038845,-0.0082749,0.073959,0.024146,0.026447,0.0086274,-0.0062599
-0.02985,0.048507,0.8271,0.46516,-0.17404,-0.11898,-0.051751,-0.041844
0.016895,-0.070467,-0.15686,-0.32853,0.079096,0.062784,0.043978,0.02355
0.071165,0.10622,0.54329,0.51878,0.081618,-0.013826,-0.0081926,0.042078
0.00097167,0.06502,-0.32219,-0.31852,-0.016632,0.0033138,-0.0045281,-0.0091163
0.10382,0.26826,0.32181,0.20481,0.12171,0.099205,0.063232,0.065743
-0.13554,-0.27563,-0.30354,-0.44874,-0.17401,-0.069313,-0.03125,-0.053386
-0.021676,-0.066623,-0.30617,0.15541,0.01109,-0.033042,-0.045799,-0.030513
0.046924,-0.026898,-0.16839,0.11215,-0.017992,0.020765,0.042807,0.024861
0.070137,0.18707,0.059127,0.15423,0.19163,0.10777,0.038902,0.034369
-0.11619,-0.19804,0.008103,-0.45588,-0.22796,-0.13936,-0.081348,-0.049133
0.027034,0.013737,0.12558,0.41899,0.19088,0.083818,0.033256,0.016319
-6.73e-05,0.11253,0.53289,-0.19251,-0.060937,-0.051092,-0.0081743,-0.011596
0.068342,0.060516,-0.014206,-0.16611,0.085695,0.05723,0.02859,0.0077163
-0.21288,-0.45378,-0.50135,0.023474,-0.29988,-0.18515,-0.12212,-0.089779
0.17969,0.24964,-0.48467,0.27172,0.15675,0.1435,0.1178,0.11781
0.011398,0.17781,0.54901,0.22729,0.033507,0.035188,-0.0016666,-0.0023703
-0.030942,-0.038538,-0.20138,-0.32523,-0.075747,-0.049436,0.0037081,-0.02865
0.067274,0.19888,0.3905,0.19051,0.094858,0.045443,0.0086714,0.046453
-0.062413,-0.13745,0.35477,-0.49079,-0.016972,-0.063592,-0.049647,-0.04313
0.094303,0.12803,-0.3041,-0.20362,0.07316,0.10711,0.054883,0.045882
-0.19809,-0.52372,-0.38793,0.43618,-0.12715,-0.11508,-0.068784,-0.093169
0.0049816,0.10848,0.30854,0.18632,0.0066556,0.0035775,0.00089639,-0.0074169
0.11736,0.25896,-0.25936,-0.018463,0.059978,0.04857,0.044996,0.053071
0.061291,0.054633,-0.331,0.10463,0.17294,0.082279,0.047903,0.04936
-0.04516,-0.13376,0.316,-0.31378,-0.21725,-0.10601,-0.044855,-0.010445
-0.16948,-0.23139,0.4281,0.11913,-0.21994,-0.16415,-0.10788,-0.11814
0.056957,0.094486,-0.54484,0.15306,0.21214,0.15868,0.078135,0.062651
0.0027453,-0.10539,0.31586,-0.22913,-0.060893,-0.019338,-0.0096319,-0.014534
0.23155,0.56196,0.11636,0.096206,0.27443,0.18561,0.10603,0.13504
-0.083964,-0.1608,-0.075903,-0.0505,0.0082867,-0.045849,-0.019583,-0.043034
-0.10747,-0.017249,0.065337,0.24746,-0.20192,-0.13479,-0.073441,-0.1032
0.020446,-0.033503,0.23539,-0.50415,-0.15192,-0.088372,-0.047293,0.0094376
0.041783,-0.025245,-0.53184,-0.10111,0.11246,0.12519,0.051377,0.037298
-0.051557,-0.10458,-0.18378,0.11676,0.037436,-0.0015836,-0.0038096,-0.01939
-0.080175,-0.17149,0.60845,0.16323,-0.079586,-0.085745,-0.040974,-0.0198
0.072849,0.14913,-0.80089,0.90484,0.21459,0.12253,0.088098,0.043999
0.047873,-0.11767,-0.33839,-0.85394,-0.13524,-0.041353,0.00013375,0.01573
-0.022618,-0.00046364,0.83347,0.2537,0.033873,-0.00012305,-0.039914,-0.018873
0.11094,0.36307,0.61925,-0.47622,0.032861,0.073205,0.060904,0.057002
-0.18484,-0.29029,-0.28408,0.47806,-0.085413,-0.08825,-0.088847,-0.1009
0.058159,0.15776,-0.074891,-0.87076,0.013218,0.014327,0.017962,0.02247
0.018954,-0.043223,-0.09611,0.49612,0.038262,-0.018413,-0.0019281,0.0047072
0.064165,0.12036,-0.56014,0.15755,0.14513,0.10992,0.0701,0.048487
-0.025342,0.051623,0.89069,0.10357,-0.27569,-0.1397,-0.062644,-0.026177
-0.16375,-0.33895,-0.46241,0.055449,-0.075158,-0.094895,-0.079398,-0.078785
0.18036,0.45325,-0.12411,0.41141,0.21661,0.15146,0.090754,0.10164
-0.070722,-0.48019,-0.02506,-0.67443,-0.039582,0.0066271,0.010936,-0.015981
-0.049226,-0.12435,-0.43619,-0.28294,-0.045512,-0.028457,-0.013669,-0.032931
0.01107,0.14648,0.15505,0.65423,0.1295,0.03904,0.0015792,-0.011402
0.17314,0.31069,0.44147,-0.3862,0.063985,0.099979,0.072287,0.095775
-0.17219,-0.30136,0.044349,0.07546,-0.23446,-0.1974,-0.10652,-0.1096
0.045309,0.14828,0.46523,-0.17288,0.12405,0.05262,0.019373,0.021036
-0.0029188,0.020177,-0.031774,0.35543,-0.080317,-0.033538,-0.003724,0.0033342
0.057483,0.13474,-0.56801,-0.35776,0.14351,0.13709,0.065866,0.055943
-0.078904,-0.087038,-0.016324,0.42948,-0.18975,-0.13146,-0.06909,-0.0557
0.11072,0.15802,-0.18699,0.077551,0.18511,0.10577,0.044413,0.066616
-0.10056,-0.28002,0.45503,-0.54502,-0.075521,-0.049651,-0.054411,-0.053865
-0.079885,-0.26138,-0.33381,0.20306,-0.13491,-0.089461,-0.021399,-0.034417
0.22018,0.6048,0.0029317,-0.17131,0.18016,0.10436,0.08156,0.085978
-0.2228,-0.56273,0.21992,0.21146,-0.13642,-0.092061,-0.049506,-0.090839
0.05349,0.07461,-0.11359,0.0015829,0.081212,0.08032,0.039243,0.037151
0.12086,0.32483,-0.2868,0.27596,0.061219,0.052361,0.020297,0.025215
-0.11299,-0.12908,0.36367,-0.31307,-0.09369,-0.065651,-0.051216,-0.055728
0.032735,-0.034472,-0.25834,0.3457,0.023215,-0.046642,-0.018819,0.021408
-0.0038536,0.071039,0.33429,-0.059494,-0.025835,0.0078498,0.015927,0.022589
-0.019632,-0.14074,0.12574,-0.87954,0.00033918,0.042659,0.013746,-0.01304
0.086333,0.20363,-0.089872,1.0277,0.17826,0.056855,0.028928,0.047138
0.086317,0.21075,0.36283,-0.69393,-0.0096884,0.056994,0.037506,0.038614
-0.20088,-0.34157,-0.23947,-0.13345,-0.31558,-0.20834,-0.12519,-0.12517
0.019967,0.027558,-0.6659,0.74705,0.12588,0.040724,0.03242,0.0082214
-0.04955,-0.33325,0.011546,-0.10687,0.055373,0.068648,0.01756,0.00061292
0.09712,0.33966,0.41818,-0.16255,0.011001,-0.031648,-0.0062077,0.023301
0.045053,-0.017077,-1.0773,0.004171,0.015807,0.036283,0.062269,0.052401
-0.042102,0.12022,0.9639,0.099399,-0.070698,-0.071337,-0.050745,-0.037388
-0.0080662,-0.059883,0.15107,-0.31865,0.00988,0.05207,0.013954,0.019413
-0.00085073,-0.063597,0.82513,-0.22262,0.11003,0.078982,0.014153,-0.01156
-0.043151,0.0092935,-0.36328,0.4384,-0.10504,-0.13044,-0.06564,-0.036385
0.037851,-0.058329,-0.54679,0.11359,0.076909,0.034061,0.024859,0.01557
0.016593,0.0003563,-0.077284,0.50163,0.00094819,0.026456,0.036061,0.027557
-0.066953,-0.0016158,-0.29742,-0.87148,-0.18323,-0.066576,-0.03936,-0.038978
0.084771,0.20113,0.28914,-0.074556,0.11922,0.075825,0.033468,0.035224
-0.051319,-0.0017854,-0.02812,0.24411,0.0028184,-0.014796,-0.026258,-0.038456
0.032582,-0.21356,0.3649,-0.42476,-0.063309,-0.041534,0.00055563,0.021536
-0.015429,-0.053301,-0.49991,0.57951,0.13949,0.073536,0.028181,0.0043942
0.069703,0.21928,0.25555,-0.17023,0.0872,0.056626,0.033256,0.04287
-0.056423,-0.061302,-0.11477,0.32692,-0.17422,-0.13172,-0.06239,-0.035136
0.027505,0.29177,0.3531,0.1258,0.096294,0.055036,0.0067473,0.0044182
-0.17103,-0.72899,-0.74657,-0.085392,-0.28205,-0.13329,-0.040752,-0.0654
0.1214,0.33095,0.3096,-0.20232,0.13513,0.061095,0.029304,0.044137
0.03792,0.17706,0.70157,-0.33591,0.12066,0.07578,0.044859,0.028101
0.086912,0.26548,0.40201,0.27445,0.143,0.11404,0.052613,0.042625
-0.23874,-0.65054,-1.073,-0.52033,-0.25089,-0.21462,-0.15072,-0.12321
0.061652,0.0882,-0.26427,0.20434,-0.052826,0.027336,0.028487,0.022905
0.066707,0.069859,-0.049185,0.062111,0.15969,0.11331,0.066702,0.043701
