0.00091233,0.010709,0.019776,-0.0053486,-0.011532,0.023847,0.00024253,-0.0047095
0.00035583,0.016749,-0.020598,0.0095407,0.01202,0.0011424,-0.00095037,-0.0051027
0.00018616,-0.0076771,0.017905,-0.006608,0.0047145,0.0098296,-0.0097782,0.010299
-0.01515,-0.015535,-0.005191,-0.014538,0.0055075,-0.012713,0.0050843,0.0024152
-0.0065463,0.0088254,-0.011767,0.017159,-0.0091877,-0.01194,-0.011006,-0.0053262
0.0025632,-0.0050252,0.021446,-0.0051785,-0.008269,-0.0036041,0.012273,-0.0051072
0.012125,0.0051763,-0.01524,0.0043746,0.00034535,0.0043964,0.0045851,0.0030886
0.0063941,0.0078585,0.002771,0.0066331,-0.006822,0.0042244,-0.0028775,-0.0041563
0.00081087,0.010481,0.020365,0.0091884,-0.0063067,-0.0040844,0.005431,-0.0033935
0.0029589,-0.010716,-0.0097024,-0.011682,0.0097746,0.010804,-0.0018269,0.013178
0.004789,0.0065329,0.0060817,0.0062228,0.01025,-0.0056872,-0.0091053,-0.0013605
-0.017335,-0.03944,-0.049525,-0.023291,-0.0048359,0.0012483,-0.0086476,-0.00020961
-0.0010303,0.0076535,0.018934,-0.006643,0.003565,0.00046511,0.015145,0.00090691
-0.0088086,-0.00046373,0.00083758,0.024864,0.011934,-0.00014497,-0.0080383,0.0018874
-0.009324,0.014568,0.0059902,-0.0068296,-0.0032962,-0.0005361,-5.5138e-05,-0.0051609
0.028849,0.037368,0.027036,0.015632,-0.0032022,-0.00069813,0.0078647,0.0031634
-0.019078,-0.041245,-0.005937,-0.016894,-0.011326,-0.0084679,0.00010567,-0.0043696
0.011146,0.0053976,-0.014527,-0.010399,-0.012074,-0.00046256,9.7406e-05,-0.012061
0.018087,0.0054207,-0.014245,0.0041003,0.0024305,0.0076149,-0.0078072,0.0036339
-0.0060276,0.021238,0.026105,0.011151,0.0088981,0.015675,0.015429,0.0037593
-0.0065527,-0.025415,0.0047568,0.010833,-0.00027886,-0.007617,-0.00833,0.0040073
-0.0070291,-0.0018735,-0.016096,-0.0046891,0.0063648,0.0001792,-0.00094173,0.004373
-0.007581,-0.017628,-0.013374,-0.019906,0.0055706,-0.0078268,-0.0092231,-0.010859
-0.00050137,0.013201,0.0047563,0.019688,-0.0025544,-0.0081573,0.013797,0.020648
0.021967,0.0046869,0.0067474,-0.0033011,-0.0023676,-0.00071974,-0.0098894,0.0049485
-0.010478,0.019396,0.023645,0.0046891,-0.0017508,-0.0010143,-0.017671,0.01219
-0.0040059,-0.005067,0.00067188,-0.018971,-0.00084051,0.0067067,0.013957,-0.035824
-0.0053588,-0.021706,-0.046511,-0.004016,-0.015435,-0.00091197,-0.00094884,0.025042
0.0090633,0.0086527,0.0072424,0.010535,0.024599,0.015202,0.015639,-0.023735
0.00035814,-0.0076574,0.021534,0.0013666,-0.0058888,0.00028752,0.0010409,-0.13494
-0.015724,0.0075278,-0.0033743,0.0077173,0.010187,0.0010691,0.09566,0.15275
-5.5635e-05,-0.0083071,-0.0047411,-0.001466,-0.020963,-0.0060806,-0.15384,-0.0041378
0.055168,0.022894,-0.0058321,0.005253,-0.013376,-0.013534,0.025863,0.06641
-0.037632,0.015083,0.016856,-0.011041,0.0095841,0.0020121,-0.0058812,-0.05758
-0.0051424,-0.039678,0.00077626,-0.011197,0.0089599,0.0014492,0.0010453,-0.0092129
0.0040537,0.0069372,0.0082812,0.0047957,0.023921,0.00045373,0.054658,-0.015454
-0.0258,0.0064306,-0.015517,0.0056189,-0.0079421,-0.00083313,-0.0010576,0.017041
0.0302,-0.009941,-0.00050087,-0.0010648,-0.016253,0.0056021,-0.033085,-0.021397
0.00012666,0.0047783,-0.0093026,0.0079677,-0.0087891,-0.0034574,-0.0022361,-0.013701
-0.022286,0.011668,0.028371,0.016844,0.014467,0.0034366,0.021205,0.001139
0.017656,-0.012535,-0.02799,-0.013734,-0.016795,0.0029881,-0.0097058,-0.015719
0.0027716,0.0026526,0.0015369,0.0019973,0.022414,0.0030725,0.022085,0.06883
-0.012258,-0.012952,-0.023359,-0.014156,-0.016368,-0.011956,-0.032021,-0.010559
0.019414,0.018832,0.030459,-0.015258,0.0074411,0.004684,-0.00029549,0.0041226
-0.011635,0.0042159,-0.00081487,-0.0089405,2.8552e-05,0.0059702,0.0077911,-0.035478
0.0039198,-0.010055,0.0079394,0.012875,0.0081881,-0.00045587,2.3268e-05,0.042497
-0.0042681,0.014878,0.017603,0.034851,-0.0072319,-0.014762,-0.0079369,-0.019844
0.010678,0.00065269,-0.018933,0.0025495,0.00056178,0.0097868,0.015243,-0.035098
-0.021504,-0.02952,-0.0082919,-0.013557,0.00026165,-0.0050335,-0.0084631,-0.011149
-0.0069632,0.010132,-0.0056037,-0.013422,-0.0081498,0.0032271,-0.00084927,0.036341
0.015374,0.010159,0.0043303,0.0028941,-0.0012037,0.0033138,-0.0087498,-0.0020123
0.0065915,-0.0059699,0.021183,-0.0038198,0.005555,-0.0047401,0.030323,0.014408
-0.0019293,0.00093864,-0.0020841,0.0053021,0.012247,0.010377,-0.00087997,-0.0081796
0.0055236,-0.0079786,-0.026373,0.0066142,-0.012231,-0.0059431,-0.016508,0.016092
-0.0022687,-0.0012464,-0.012387,-0.0078812,0.0025853,0.0010795,-0.0010197,-0.030071
-0.0018964,0.013526,0.024638,0.0085554,0.0021484,0.00029018,-0.0013421,0.0016501
-0.016874,-0.0104,-0.024205,-0.0066456,-0.0056235,-0.0082196,-0.017473,0.0095822
0.015189,0.02077,0.02904,-0.0066092,-0.0050512,-0.0087482,0.013146,0.001468
-0.0073975,-0.018019,-0.0027813,-0.0069002,-0.0039595,0.006567,0.0046756,0.00073353
0.0011809,0.0059081,-0.0023163,0.0082073,0.01319,0.0064878,0.0041027,-0.016003
0.017379,0.037687,0.022572,0.023205,0.014988,0.022234,0.0037127,0.0060631
-0.005756,-0.055666,-0.029931,-0.016488,-0.014401,-0.0087609,0.0035668,0.012411
-0.0057578,0.0069814,0.01946,-0.0014177,0.0029119,-0.0084578,-0.0041331,0.0032285
-0.0060509,-0.0087785,-0.0094032,-0.0018519,-0.003603,-0.0081884,-0.011604,-0.013488
-0.014388,0.0064832,0.00805,0.0056543,0.0049596,-0.0080098,-0.0032844,-0.0063358
0.024013,0.013826,-0.022239,-0.0023568,-0.010529,-0.00013084,0.0051195,0.0091541
-0.00011361,0.0055899,0.0089714,-0.010299,-0.01097,-0.0001666,-0.0021044,0.0017545
-0.0085465,-0.010276,-0.023259,-0.0025913,0.0037724,0.015348,0.014026,-0.0051547
-0.0012213,0.0053807,0.0062956,0.020723,0.010457,0.0073773,0.006574,0.011733
0.0062525,0.013516,0.043274,0.0049271,0.0093056,0.0071884,-0.0088706,0.013169
-0.0017852,-0.024984,-0.02916,-0.010922,0.00051311,-0.0086493,-0.016682,-0.032303
0.013654,0.0069583,-0.0075885,-0.0033643,-0.015785,-0.0088765,0.0066137,0.0079333
-0.01002,-0.0079869,0.014419,-0.0035957,0.0073396,-0.0012787,-0.0014151,0.0087319
-0.0025713,0.00034379,0.013464,-0.011538,0.0073531,-0.017052,-0.0016258,-0.0065437
-0.0030944,0.016198,-0.010544,0.0041424,-0.0080378,0.0063786,0.0060528,-0.0066353
0.0040653,0.023871,0.020344,0.020075,7.6856e-05,0.006591,0.0060356,0.008541
-0.012246,-0.039153,-0.026881,-0.010591,-0.0075327,0.0070726,0.0061304,6.061e-05
0.0028056,-0.0087517,-0.011742,0.0058601,0.0080483,0.015632,-0.0093379,-0.00066486
0.0025099,0.013643,0.003214,0.0068332,0.0076587,-0.0068678,-0.0013877,-0.0012968
0.0026337,0.0047782,0.018063,2.5524e-06,-0.00091749,-0.013692,-0.0013571,-0.0017253
0.011069,-0.01171,-0.029515,-0.014786,-0.0098153,-0.0050271,-0.0015004,-0.0019023
-0.0034456,0.0034165,0.0091575,0.0013915,-0.0032809,0.011115,0.013786,0.013776
-0.0019575,0.019014,0.017118,-0.0062456,0.0032468,0.0033109,-0.010147,-0.0016485
-0.00028787,-0.019592,-0.0054923,0.0013299,-0.0056469,-0.0051195,-0.010705,-0.001419
-0.0064993,0.012506,0.0038265,0.00070373,0.0014802,-0.014211,0.0044372,-0.0012831
0.002585,-0.0020609,-0.0019635,0.0075693,0.0013225,0.015156,-0.0036387,-0.0091424
0.011115,0.014598,0.023703,0.0063958,0.0095443,0.0050027,-0.0035674,0.0062256
-0.012307,-0.015877,-0.02114,-0.0027143,0.018268,-0.013202,0.012513,-0.0098182
0.0025878,-0.0077299,-0.0040928,-0.0040358,-0.019542,0.0076809,0.013314,0.0053442
-0.014442,-0.0079187,0.0041947,0.0025265,0.0052748,-0.0023814,0.0065252,-0.0028122
0.014904,0.014845,-0.012083,0.0092542,-0.009072,0.003744,-0.0080361,0.0049441
-0.0028714,-0.0017817,0.0017828,-0.015006,-0.0080802,-0.0049881,-0.0071241,0.0053086
0.0028347,-0.002862,-0.00084684,-0.015468,0.00033055,-0.0050153,-0.014326,-0.0094715
0.0010539,-0.0037299,0.0038774,0.0079573,0.0083363,0.0036893,0.0015431,0.007444
-0.00016885,0.011516,0.00085102,0.00064391,0.00038955,0.013237,-0.0063557,0.001237
-0.00068218,-0.011606,-0.0015769,0.017293,-0.0077448,-0.007792,0.0089758,0.0029512
-0.00043347,0.01293,0.004862,0.010977,0.015348,0.010671,0.0008322,0.0045323
-0.0072844,0.0069515,0.0048338,-0.0027963,-0.0083098,-0.0097815,0.0084365,-0.0020611
0.0098752,-0.021919,-0.02503,-0.032013,-0.0083051,-0.022558,-0.0071754,-0.016996
0.0039637,0.0041408,0.024473,0.016874,0.015392,0.018964,0.0086844,-0.0012772
-0.0018237,0.0066343,0.012332,-0.020395,0.0002394,-0.0025939,0.0012233,0.0060734
-0.0077291,0.0086191,0.00050853,0.0357,0.0086373,0.014215,0.0015045,-0.010429
0.0016643,0.0097721,-0.0037746,-0.010266,-0.014234,-0.00095799,0.0093093,0.011917
-0.012854,-0.029176,-0.024488,-0.017715,-0.013819,-0.016818,-0.01461,0.0030135
0.018953,0.016729,0.02393,0.021192,0.0097779,-0.0020058,-0.0078432,0.0021043
-0.0044719,-0.024258,-0.038356,-0.018452,0.0018116,0.0045759,-0.0094027,0.0093004
0.0028784,-0.0034155,0.0074992,0.019748,-0.006476,0.0031118,0.004349,-0.0066194
-0.0057492,0.0093393,-0.0022546,-0.01247,0.0083865,0.0094117,0.010299,-0.037886
0.0010467,0.014433,0.026584,-0.0055523,-0.0004144,0.00020009,-0.006788,0.04823
-1.3593e-05,0.012247,-0.0070565,-0.0062269,-0.0015547,-0.016589,0.0081529,0.009459
-0.00097551,-0.012572,0.014448,0.0090328,0.020667,0.0059932,0.00071704,-0.013609
-0.0017315,0.0025903,-0.0023519,0.016799,-0.011796,0.0054685,-0.0055366,0.0025095
-0.002221,-0.012621,-0.010455,-0.0064425,-0.012929,-0.0025602,-0.0028744,-0.027994
0.021003,0.011923,-0.0021021,0.0016613,-0.013897,-0.0025258,0.0084221,0.020068
-0.010218,-0.0021796,-0.0087507,0.0018603,0.01664,0.0054912,0.027904,-0.12657
-0.0022009,-0.00055699,0.0083532,-0.013842,0.00064139,-0.009847,-0.015285,0.071201
-0.0097083,-0.0069397,-0.0058292,-0.006518,0.0163,0.006066,-0.035757,0.10544
0.0062547,0.0097003,0.026497,0.0081564,-0.0066601,0.0062951,0.0050917,-0.0086165
-0.0012331,-0.013254,-0.012108,0.0067955,-0.013556,-0.0013762,0.052289,0.087803
-0.00094258,0.010136,-0.020211,-0.0026368,-0.0044382,-0.0013155,-0.042664,-0.16068
-0.00068701,-0.0059591,0.010017,0.003526,0.0049713,-0.0012929,-0.01397,-0.028123
-0.00045793,-0.0066668,0.00061921,-0.01351,0.0067274,-0.024679,-0.0018831,0.047617
0.0075624,0.023858,0.014385,0.0012018,0.0084866,0.014534,0.009728,-0.035014
-7.0215e-05,-0.031365,-0.03426,-0.0068229,-0.0055348,0.014837,0.02141,0.036896
0.0078733,0.023124,0.019116,0.017205,0.011403,-0.00032461,0.010224,-0.0015318
-0.0076989,-0.00011309,-0.004874,0.01076,-0.018912,0.00025183,-2.4612e-05,0.0068898
-0.0077525,-0.007368,-0.0044972,-0.002875,-0.0027519,-0.0069761,-0.040385,-0.046266
-0.0079284,0.016854,0.035866,-0.00052058,-0.0025677,-0.0065277,0.029782,0.081974
0.007401,-0.0057651,-0.016789,-0.013746,-0.010446,0.0092556,-0.0084224,-0.0063414
0.0070067,-0.012936,-0.006557,0.004003,0.012801,0.0089972,0.00098015,-0.045465
-0.0012633,-0.004843,0.019246,0.0055807,0.012593,-0.0073664,-0.012668,0.019051
0.0060712,-0.0050436,-0.033577,-0.032632,0.0046152,-0.0085585,0.01277,0.030429
-0.0021938,0.017683,0.014302,0.014292,-0.0033261,0.0055486,0.01447,-0.051097
-0.010387,0.016528,0.014244,0.013564,0.0043317,-0.011702,-0.015631,0.00029684
0.004978,-0.023977,-0.02593,0.0043544,-0.011568,0.0024634,-0.0073584,0.027708
0.0048846,-0.0020511,0.0033771,0.010266,0.003578,0.0092639,0.00020904,-0.0083967
-0.0028116,-0.0033807,-0.0068102,-0.0075636,-0.012773,-0.014512,0.014986,-0.022319
-0.010269,0.011337,0.022136,-0.0020351,0.0019037,0.017191,-0.0097061,-0.0062542
-0.001859,-0.012396,-0.018655,-0.011972,-0.0069874,-0.0050307,-0.011115,0.032171
0.0067582,0.011456,0.0040372,-0.005883,0.0075664,0.012392,0.011021,-0.0082972
0.0076881,0.0047539,-0.003324,0.00083562,0.014464,0.0066504,0.0022349,-0.0023056
0.0086153,-0.0013813,0.021733,0.0083668,-0.0096097,-0.0070062,0.0095465,0.019226
-0.0062435,0.00063684,0.00080167,0.0011902,0.005721,-0.013324,-0.013877,-0.0059436
0.0020127,0.018338,0.019337,0.0027379,0.013575,-0.0047754,0.0022169,-0.0073321
-0.01362,-0.034503,-0.032629,0.0050642,-0.01737,-0.0049399,0.010807,-0.00047929
0.0014806,-0.0018786,-0.0072407,-0.015525,-0.009103,0.0096546,-0.0039244,-0.0088005
0.00046357,0.0066785,0.016933,0.018744,0.0069981,0.0079601,0.0046984,0.022376
-0.00093364,0.0067398,0.0084325,0.0059159,-0.00042878,-0.0096947,-0.018169,-0.055424
-0.0025241,0.0061656,-0.040478,0.00030608,0.0076045,-0.0038593,0.0055152,0.039004
0.0037332,-0.018354,-0.0044456,-0.021806,-0.0079906,-0.0054134,-0.0023659,0.00090999
0.0024437,0.0036688,0.0077103,-0.013688,-0.00813,0.009359,-0.010472,0.0099004
0.0094251,0.025547,0.027885,0.0090541,0.0072451,0.017154,0.020405,0.011181
-0.0064466,-0.015048,0.0019878,-0.00028104,0.0069649,0.0023106,-0.0033212,-0.026622
0.00956,-0.00079684,-0.014873,0.01328,0.006739,-0.0041095,-0.0033907,-0.0098858
-0.012906,-0.0019277,0.0087113,0.0031992,-0.0011704,-0.0024014,0.0046497,0.014406
-0.011451,-0.010592,-0.0055188,-0.006761,-0.0088962,-0.016335,-0.0026351,0.014932
0.0059538,0.012267,0.020167,0.0070934,-0.01641,0.00067087,0.013748,-0.016135
0.0078699,0.004113,-0.00073414,-0.0097697,0.0075359,0.0015413,-0.0010116,-0.00063214
0.0019139,-0.0038613,0.017109,0.0051938,0.0082163,0.0018327,-0.031429,-0.0087812
0.0035277,-0.0039054,-0.043999,0.012868,0.0011823,0.0094203,0.016117,0.014228
-0.0030634,-0.0038869,-0.012476,-0.010305,0.001954,-0.014591,0.0087295,-0.001789
-0.0023308,0.011783,0.010109,-0.0097878,0.01041,0.00033436,-0.014556,-0.0020375
-0.0021165,0.0040317,-0.0072122,0.0064643,0.0030013,0.0075439,0.0087912,-0.0098977
-0.002378,-0.019306,0.0063718,-0.016347,-0.012534,-0.00060871,0.00072179,0.0058716
-0.0030088,0.01213,0.0124,0.0076475,-0.012768,0.0071973,-0.0074147,0.021756
-0.0038584,-0.0031567,-0.0041941,0.0081017,-0.013262,-0.00032785,0.0079171,-0.0092498
0.010862,-0.0025988,0.0038517,0.00062931,0.0095505,0.00011616,-8.4402e-05,-0.0091751
0.0022371,-0.0017768,0.021035,0.008661,0.0089555,0.0005205,-0.0079481,0.0062194
0.0016151,-0.00069039,-0.015319,0.00093473,0.016356,0.00068542,0.015565,-0.0022045
0.0012215,0.0084113,0.019355,-0.006943,0.00060507,-0.0073455,9.2394e-05,-0.0031818
-0.0067819,-0.0058527,-0.023988,-0.014989,-0.01483,-0.00017432,-0.0075626,-0.004407
0.00096652,0.011014,0.0024358,0.0080408,0.0012515,-0.0011496,0.00033789,0.0021389
0.00092577,0.0040993,-0.011318,-0.00033577,0.0018633,-0.010061,-0.023138,-0.014538
-0.007008,-0.019001,-0.0031187,0.0067982,0.0024894,0.0046326,0.015731,0.00050092
0.0083365,0.019679,0.019124,0.0060712,0.0029969,-0.0036379,0.015388,0.024
4.9456e-05,-0.0049149,-0.022521,-0.010247,-0.0045174,0.0044327,-0.00069289,0.0013364
-0.00059895,-0.014577,0.028644,-0.010817,-0.012267,0.0055158,-0.0090212,0.0027485
-0.0013472,-0.0012719,-0.022071,0.012255,-0.0045834,0.0073539,-0.0017205,0.004593
-0.0020788,-0.011535,-0.0099158,-0.0034666,0.010821,0.009693,-0.017792,-0.0090471
-0.002657,0.0097231,-0.00458,0.012367,0.0028228,0.0043226,0.020938,-0.0072347
-0.0029546,0.023833,0.041259,-0.0027457,0.010605,-0.0092204,0.0051246,-0.0058586
-0.0028864,-0.015775,-0.0050239,-0.0097771,-0.0048126,-0.015739,0.0050836,0.0027348
0.013188,0.0082389,-0.010727,-0.00098279,-0.0043459,9.5384e-05,-0.0026398,-0.0049174
0.0061366,-0.013532,0.0081365,0.0079199,0.0041513,-0.00087064,-0.018079,0.0025372
-0.0085673,-0.0031859,-0.011525,-0.014428,-0.010669,-0.0028749,-0.0022118,-0.0059571
0.015743,0.031092,0.031164,0.017795,0.0057431,-0.0055768,-0.001954,0.008893
-0.014907,0.0029058,-0.036329,-0.012719,-0.0014506,-0.00069181,0.013906,0.00042004
-0.0069523,-0.017891,-0.027013,-0.0045154,-0.0011448,0.0044688,0.0062696,0.023448
0.0082517,-0.00041945,0.043209,0.026692,0.0065455,0.018141,0.01417,-0.0079207
-0.0083458,-0.023015,-0.005359,-0.0050852,-0.0018852,0.0015228,-0.017101,-0.0078002
0.0058889,-0.0075742,-0.016219,-0.0060928,-0.0030078,0.0015347,-0.017229,-0.0075577
-0.011308,0.0070052,-0.0045453,-0.0075087,0.0032357,0.0023901,0.0060023,-0.0073345
0.0028578,0.013207,0.0146,-0.0091892,0.0013439,-0.0040445,-0.0020394,0.00055733
0.0018075,0.011388,-0.0050827,-0.0031187,-0.00069201,-0.0025398,0.013408,0.016041
0.0092134,0.017513,0.015024,0.010936,-0.01047,-0.0090969,-0.002268,3.9783e-05
0.0095763,0.00059706,-0.0028632,0.0019457,-0.0043326,-0.0083655,-0.0021346,-0.016149
-0.0049277,-0.031389,0.011721,0.0013301,0.0101,-0.0082814,-0.0017937,-0.0011793
-0.0031955,-0.0002729,0.0040581,0.0091718,0.0017081,0.014629,0.0065481,0.0060043
-0.008921,-0.0076658,-0.033842,0.0020188,0.0017811,-0.0019702,-0.0084185,0.021146
0.0010147,0.0088113,-0.00069401,-0.0046061,0.01026,-0.0031583,0.0079049,-0.0025348
0.0028476,0.017738,0.017246,0.004762,-0.0042537,0.011299,0.00073059,-0.010293
0.00411,-0.020145,-0.035031,-0.016932,-0.010722,0.010332,-0.0065954,-0.025557
-0.0031999,0.0043354,0.021873,-0.0073504,0.0062475,0.0018435,0.0014885,0.0063204
0.0042864,0.028495,0.03146,0.0021315,-0.00043053,0.001463,0.0015214,0.022749
-0.0046196,-0.01812,-0.01427,0.0036214,-0.0074698,-0.014304,-0.0064773,-0.0076516
-0.0062985,-0.010586,0.0095719,0.0048851,0.00068456,-0.0064682,-0.0068288,0.008708
-0.00047806,-0.0035858,-0.0064064,0.013705,-0.0072038,0.0014802,0.0083511,0.0091654
0.0053447,-0.0048511,-0.030857,-0.0012002,0.00019799,-0.013899,0.0078813,-0.014224
-0.0041512,0.0013893,0.0067476,-0.008613,0.023015,0.009941,0.0074359,0.00097166
0.0025216,0.015315,0.0051655,-0.00075145,-0.001116,0.0027623,-0.016403,-0.015536
0.0098665,0.0058529,0.011652,0.0067496,-0.0017612,0.011507,0.01448,-0.0011253
-0.005556,-0.0034132,0.010965,-0.0095193,-0.010082,-0.0028662,-0.0093139,-0.0024711
0.0030009,-0.004577,-0.027835,-0.0026063,-0.018218,-0.001343,-0.0096854,0.011917
0.011876,-0.0054119,-0.010822,-0.0036381,0.0129,0.0081388,0.0055431,0.011017
-0.01045,0.0096997,0.022932,0.003163,0.012929,-0.013669,0.0051366,0.0028039
-0.0095461,-0.0061545,0.01852,0.010137,0.005248,0.0033322,0.004762,-0.01266
-0.001229,0.0016635,-0.0088423,-0.013848,-0.0024016,0.004258,0.0044809,0.0036378
-0.0090275,-0.01377,-0.012827,0.0015707,-0.017899,-0.0032192,-0.02689,-0.0031448
0.0061402,0.010003,0.021592,0.0173,0.013397,-0.0035247,0.0044502,0.0058334
0.013139,0.0026348,0.00012711,0.0019773,-0.010084,0.0033963,0.0047681,0.0068909
-0.0034788,-0.0046594,-0.015097,0.002307,-0.010188,-0.013553,0.0052766,-0.015813
-0.0044519,0.011517,-0.016396,-0.013148,0.020958,0.0083539,0.013692,7.7356e-05
0.0104,0.0042423,-0.0036192,-0.0054808,-0.010321,0.0068719,0.0064353,0.0076429
-0.0056654,-0.018724,-0.015414,-0.0060265,0.013234,-0.0099503,-0.0088427,-0.016491
0.0021084,0.005071,0.034761,0.0086647,-0.0020788,0.012745,-0.0088406,0.0059574
-0.0053375,0.0052843,0.006965,-0.0003612,-0.009366,-0.010907,-0.0092534,0.0048905
-0.0046199,-0.0024658,-0.0044073,-0.0094856,-0.00083267,0.012805,-0.0022435,0.011792
0.0041653,-0.0025319,0.0089502,0.012755,0.0078499,0.0056183,0.0045023,-0.004379
0.0052731,-0.0026773,-0.023006,0.0040611,-0.0068218,-0.017043,-0.0044371,-0.012224
-0.0014213,-0.0028343,0.0012983,-0.0041747,0.0019523,0.0071008,0.01024,0.011766
-0.00040541,0.0048835,0.026946,0.0037318,0.0028496,-0.0002601,-0.005932,0.0050751
0.00042281,0.028355,-0.0011741,0.0043084,0.0036208,-0.00017071,0.017514,-0.0011376
-0.0067982,-0.033933,-0.028909,-0.018188,-0.011404,-0.0082596,0.0025094,-0.02265
0.0013604,0.005541,0.0056847,0.0063771,0.0046246,-0.00098847,0.0036921,0.0028412
0.0014896,-0.0094799,0.00055181,0.0074918,-0.0029894,-0.0016148,-0.025955,-0.0030064
0.0014584,-0.00090676,0.0022116,0.00059416,-0.0029908,-0.0021134,-0.0085107,0.014272
0.0091514,0.023387,0.010488,0.0011702,0.012446,0.0055169,0.0011099,0.023222
-0.0066078,0.0086357,0.0019626,-0.0064719,0.0042761,0.0057628,0.026127,-0.0075663
-0.006694,0.0016366,-0.015356,-0.014504,0.0037726,0.0064357,0.011675,-0.0078616
-0.006691,-0.036735,-0.0098811,-0.0072081,-0.020284,0.0074163,-0.026737,-0.0088902
0.0090393,0.0028666,-0.0046402,0.03119,-0.0053545,0.00068025,0.0045967,-0.010506
0.0092294,0.00326,0.016409,0.0071159,0.0017376,-0.0062124,-0.0036602,-0.0046372
0.0016481,0.0035433,0.014556,-0.0089463,0.0088588,-0.021302,-0.0045241,0.0012381
0.0018608,0.011573,0.036914,-0.001234,0.0082461,-0.0056713,0.0021658,0.0074672
-0.01363,-0.0038722,-0.049237,-0.02435,0.0077488,0.017221,0.0087791,0.014337
-0.0058076,0.0040799,-0.025197,0.0076597,-0.00042489,0.0006086,-0.00013997,0.0063845
0.0018708,-0.0036729,0.0073011,0.00098614,-0.024081,-0.00060438,-0.0010285,-0.0085814
0.0094116,0.0040543,0.0089319,0.010182,-0.0085372,-0.001764,-0.001638,-0.0072943
-0.01441,-0.0040555,0.02626,0.011609,0.007134,-0.0025886,0.0058341,0.0099393
0.016373,0.018832,0.027717,0.012841,0.022914,0.004959,-0.0099337,0.0036792
0.0080353,-0.036648,-0.049474,-0.017608,-0.0080999,-0.0024401,0.0056346,-0.0030087
-0.0081634,0.0014471,-0.018005,-0.017425,0.0078093,-0.0013642,-0.0022697,-0.010413
-0.00097676,0.0082384,0.020488,0.0054802,0.00029385,0.0080337,0.013131,-0.010869
-0.0094769,-0.00050589,0.011379,-0.011374,-0.015047,0.0098651,-0.010709,0.0034554
-0.0024199,0.0065929,-0.013901,0.0024533,-0.0069711,-0.0040056,0.0043633,0.0093013
0.0045758,-0.0016383,-0.00039127,0.0081107,-0.0067154,-0.0026459,-0.019676,-0.0086636
0.011534,0.013865,0.0053411,0.021471,0.016996,-0.0019252,-0.0045414,0.004591
-0.0049413,-0.0016587,-0.0042287,-0.01973,0.0095024,-0.025401,0.018701,0.0025115
0.002086,-0.0014605,0.010176,0.0096967,0.0020608,0.0050774,0.0033377,0.0087748
-0.0063709,-0.0013021,-0.013839,-0.0073193,-0.020973,-0.0040784,-0.0036612,6.4682e-05
0.0010249,-0.016909,0.0096441,0.0073971,0.010663,0.017697,0.0055091,0.015441
0.0009264,0.014194,0.02581,0.0069686,-0.0046656,0.016,-0.00052324,-0.015513
-0.006585,-0.0094899,-0.012414,-0.0086358,0.018904,-0.0089114,-0.0063567,-0.01483
0.0019844,-0.025318,-0.019308,-0.016016,-0.012437,0.0056437,0.0033444,0.0016953
0.011024,0.029391,0.0049499,-0.0073933,-0.0049613,-0.01056,0.0048396,0.0026781
-0.01076,-0.0092634,-0.017865,0.0015749,-0.0055146,-0.0028447,-0.0021288,-0.0041548
-0.00097464,0.015057,0.0059922,0.018651,0.0094213,-0.0025439,-0.0020957,-0.0032155
0.008963,0.0085725,0.0062853,0.0125,-0.006908,-0.0019799,-0.002899,0.0054865
0.0032165,0.0023816,-0.0012407,-0.0092005,0.00032109,-0.0013088,-0.012231,0.006318
0.0049961,0.0040461,0.030405,0.0080579,-2.1717e-05,0.007129,0.0014075,0.014876
-0.0093429,-0.025792,-0.023711,-0.014047,0.0077606,0.015391,0.0070961,-0.0001453
-0.0087032,-0.0092795,0.00046652,0.010244,0.00023279,-0.0078624,0.0051851,-0.0075658
-0.00096817,0.0065167,-0.0065308,-0.020748,0.00075738,-0.0079822,-0.004024,-0.0074476
-0.0017404,0.013715,0.017638,0.017955,0.009194,-0.00057484,0.0031019,-0.0076291
0.0047147,-0.018873,-0.0053483,-0.014188,-0.02151,-0.016819,0.010994,-0.0080822
0.0029473,0.0026798,-0.013181,-0.007621,0.017843,0.013704,-0.0038739,0.0069002
0.0087938,0.031751,0.0018098,0.0066487,-0.0056959,0.0051791,-0.0026433,0.0061862
-0.0087782,-0.032937,-0.0073127,0.013253,-0.021877,-0.003227,-0.0012122,0.0055229
0.012931,0.019823,0.029813,0.0046005,0.016203,0.011993,0.0001395,-0.0028093
-0.011849,0.0027558,-0.0038315,-0.00354,0.0070963,0.0039906,-0.0066308,0.0046667
0.0029473,-0.013675,0.0014087,0.0045012,-0.0021353,-0.011624,-0.006038,0.0044922
-0.0050963,-0.005958,-0.032223,-0.018207,-0.0034556,-0.0036343,0.0018845,-0.011215
-0.012505,0.018086,-0.0027562,0.0063206,-0.004455,0.004487,-0.0062384,0.0043276
0.011955,-0.011937,0.0042566,0.0075772,0.0028594,-0.010715,0.0087837,0.0041678
-0.0021078,-0.010233,0.0047253,-0.014653,-0.0048459,0.0054543,0.015853,-0.0039153
0.0076599,0.01519,0.022204,0.017552,0.0036837,-0.0094858,-0.00051619,-0.0042643
0.0019849,-0.0062082,0.0019077,-0.013162,0.012723,-0.00083103,-0.0089751,-0.020219
0.0040468,0.019087,0.013831,-0.0053414,0.0064558,0.015784,0.0061542,0.010863
-0.0020519,-0.010702,-0.020647,0.0097263,-0.015367,0.016872,-0.0098023,0.011005
-0.00093109,-0.0019903,-0.023997,0.0086392,0.0016817,-0.0054726,0.0056466,0.0037576
-0.0083893,0.0060811,0.018815,-0.00068096,-0.0051174,-0.012307,-0.017826,0.0047812
-0.0010567,-0.017714,-0.0020671,-0.010245,-0.0046526,-0.0037466,0.0057066,-0.0016098
-0.010129,-0.0029295,0.014638,0.011429,0.010857,-0.0033134,0.00593,-0.0077571
0.0036256,0.011594,-0.001411,-0.013519,-0.0053856,-0.0032229,0.014091,0.0017424
0.0092111,-0.012931,-0.018724,-0.0066931,-0.0063419,0.0043704,-0.0010735,0.0032035
0.0069247,0.033147,-0.013395,-0.0069251,0.00038894,-0.0038894,-0.016155,-0.0035986
0.0048716,-0.021822,0.0073816,0.017185,0.0072091,-0.0044614,-0.0077687,-0.0031975
-0.0045139,0.001973,0.020815,0.018788,0.0064768,0.026187,0.016201,-0.0034671
-0.0054352,-0.01266,-0.042864,-0.025675,-0.0017141,-0.0056302,-0.0068315,0.003452
-0.013438,0.012262,0.027598,0.0085265,0.0060772,0.0016676,0.016792,0.0020814
