0.027743,0.0049921,-0.072387,0.16314,0.030911,0.020477,-0.14351,0.0083647
0.0041482,0.04703,-0.056182,-0.071871,-0.018414,-0.013445,-0.073005,-0.077611
-0.0037749,-0.082986,0.031489,-0.26182,-0.0057806,-0.00040199,0.045999,0.047208
0.0039583,-0.0026508,0.20686,0.40785,0.037802,0.044222,-0.097532,-0.02341
-0.011711,0.045607,-0.35742,-0.2015,-0.027977,-0.066795,0.14602,0.030982
-0.01951,-0.047624,0.19102,0.075777,-0.062132,-0.020672,-0.16025,-0.039397
0.019666,0.045931,-0.10033,-0.28285,0.021638,0.042192,0.20994,0.039132
-0.0035161,-0.03282,-0.028088,0.22266,0.036126,-0.0030958,0.013227,-0.014492
0.012535,0.021156,0.18083,-0.049252,-0.0028888,0.030904,0.0054392,-0.0049017
-0.0024979,0.0050557,0.033251,0.32937,0.060818,0.011127,-0.089281,-0.0025348
-0.0017841,0.02068,0.137,-0.24534,-0.046406,-0.0316,-0.015508,0.00010045
-0.0088453,-0.056857,-0.33009,-0.041381,-0.020227,-0.01187,0.076487,0.041585
0.015271,0.045863,0.29417,0.25962,0.052999,0.022894,0.045204,0.02761
-0.0076778,-0.022862,-0.53075,-0.40589,-0.069304,-0.0059002,-0.21063,-0.026724
-0.015291,0.0023771,0.21766,0.0012913,-0.043672,-0.036063,-0.17402,-0.11397
0.0079943,0.019765,0.046924,-0.0019087,0.043806,0.010427,-0.13193,0.054837
0.015291,-0.017809,0.090144,0.071047,0.052488,0.0086784,0.59763,0.058024
-0.0089757,0.0066628,0.17612,0.15236,-0.017543,0.013671,0.094738,-0.010151
0.0056137,-0.039729,-0.030148,0.0021349,0.013534,0.018016,-0.092539,-0.016149
-0.0032809,0.030514,-0.22289,0.090694,-0.0025655,0.0065806,-0.2139,-0.091954
-0.01984,0.022161,-0.033691,-0.23762,-0.05788,-0.043576,-0.058846,0.083532
0.010827,-0.0099528,0.038724,0.19644,0.043035,-0.0070098,0.012353,0.034347
0.018589,-0.003141,-0.043443,0.0088191,0.003412,0.022862,0.11592,-0.012637
-0.012055,-0.004083,0.0099442,-0.34132,-0.03606,-0.016286,-0.0067543,0.028488
-0.018574,-0.020412,0.16832,0.1363,-0.020686,-0.007287,-0.31708,-0.0692
0.0067661,-0.0051153,-0.10723,-0.044474,0.049462,0.026189,0.26287,0.014006
0.024707,0.049694,0.13598,0.29471,0.041428,0.021218,0.014269,0.011743
-0.0041089,-0.012239,-0.12645,-0.1438,-0.029358,0.00068498,0.10109,0.0013913
-0.0019109,-0.026933,0.10428,0.17117,0.0087904,-0.0047409,-0.094073,-0.0098621
0.0075082,0.03671,0.069167,-0.13469,0.0073294,-0.0033585,0.053428,0.024433
-0.015203,-0.040253,-0.27952,-0.14591,-0.057136,-0.034508,0.027614,-0.020898
-0.0077075,0.03104,-0.082782,-0.21213,-0.0046933,-0.0044321,-0.117,-0.036401
-0.0090675,-0.038658,-0.012367,0.12193,-0.038075,-0.0065782,-0.098986,0.040709
0.012137,0.03958,0.20564,0.15503,0.061948,-0.0013437,0.11356,-0.023524
0.0015288,-0.015574,0.14995,0.029033,0.045829,0.035367,0.060756,0.03698
-0.0014356,-0.0010048,0.11011,0.35356,-0.023627,-0.0051908,-0.099866,-0.011745
0.0036507,-0.0025983,-0.24174,-0.1846,-0.013538,0.018064,-0.10146,-0.0053429
0.009326,-0.012433,-0.014893,-0.094665,0.029015,0.011563,0.14274,0.017276
-0.0076071,0.055583,-0.045288,-0.034545,-0.052678,-0.048265,-0.023343,0.024886
-0.00017358,-0.056167,-0.036013,-0.31042,-0.0092591,-0.0056007,0.20435,-0.0060216
0.008147,0.027538,-0.049459,-0.18118,0.056985,0.06078,-0.066169,-0.13806
-0.0062439,-0.028995,0.070742,0.41504,-0.026508,-0.037372,-0.10238,0.10519
0.0032889,0.032294,-0.011343,0.001217,0.0053483,-0.011712,0.023443,-0.018572
-0.010401,0.016328,0.36033,0.25655,0.0038235,0.020024,-0.14342,0.060829
-0.00069441,-0.029828,-0.095934,0.055328,0.00018776,0.002878,0.10704,-0.039573
-0.0068655,-0.051383,-0.25571,-0.21261,-0.020828,0.0072293,-0.05332,-0.030895
0.0021913,0.021952,-0.033618,0.030309,0.0039414,-0.052441,0.063854,0.03197
0.018588,0.025917,0.023155,-0.16896,-0.010555,0.01208,0.0069909,0.0082027
0.003252,0.022627,-0.030718,-0.19999,0.030417,0.022001,-0.0032325,0.022656
-0.0047104,0.011528,0.21911,0.24395,-0.03629,-0.021754,-0.066456,-0.065344
-0.0052086,0.015398,-0.15657,-0.38124,-0.014673,0.022227,-0.0014377,0.0021009
-0.013742,-0.052342,0.061475,0.77112,0.05653,0.0060077,0.16147,0.053358
0.0088989,0.034373,-0.0013915,-0.47621,-0.018102,-0.0077926,-0.077648,-0.012748
0.00036447,-0.060622,-0.087218,0.11254,0.034323,0.019602,-0.063258,-0.02385
-0.007966,0.014341,0.18671,0.1936,-0.0058273,0.0016142,0.078279,-0.018484
0.015243,-0.029364,-0.070486,-0.2032,0.016642,-0.0079338,0.032743,0.019445
-0.00029684,0.058949,0.062737,0.18517,-0.039914,0.013469,-0.10003,0.0043229
5.9534e-05,-0.040238,-0.22638,-0.37104,-0.020031,-0.028739,0.0067247,-0.024696
-0.0072249,0.056632,-0.02391,0.17956,-0.025677,-0.010103,0.055386,0.06502
0.016779,-0.0092587,0.060782,-0.087701,-0.0021447,-0.016764,-0.078993,-0.023845
-0.014002,-0.018886,0.10589,0.23932,0.0040884,-0.017322,0.1591,0.059634
-0.0059214,0.027723,0.088031,-0.31675,0.048352,0.035533,-0.23674,-0.0837
0.0019076,-0.041598,-0.1022,0.22098,0.006362,0.033016,-0.16325,-0.017012
0.001689,0.046124,0.16012,0.072631,0.0037459,0.0069942,0.45927,0.040457
0.0013095,-0.053385,-0.25006,-0.14239,0.025309,-0.010762,-0.21188,-0.091224
-0.0069326,0.042213,0.081423,0.11772,-0.022505,-0.019904,0.16734,0.095783
0.0083273,-0.050239,-0.040388,-0.30038,-0.045964,0.0031568,-0.036462,0.00016513
-0.015325,-0.018415,-0.068038,0.13723,0.02508,0.0037004,-0.12148,-0.010484
0.031515,0.07518,0.046055,0.10451,-0.043982,-0.026263,-0.034766,-0.0060056
-0.015247,-0.011512,0.04473,-0.0068003,0.027861,0.014558,0.1438,0.029693
0.0083608,-0.043907,0.13151,0.0064199,0.076335,0.024284,-0.0090495,-0.020171
-0.0071558,0.03293,-0.13111,-0.083543,-0.11748,-0.028652,-0.24402,-0.053726
0.0084037,0.086428,0.10803,0.23684,0.040035,0.011717,0.27494,0.046407
-0.0075296,-0.10194,-0.018994,-0.17571,0.048771,0.012364,-0.060653,-0.00095187
-0.023707,-0.047617,-0.19276,-0.12864,0.0023976,0.012221,-0.44465,0.015083
-0.00099763,0.022981,0.17186,0.28192,-0.03664,-0.05124,0.50744,-0.030652
0.021657,0.03961,-0.035108,-0.23467,0.017579,0.0095496,0.078411,0.049094
-0.010296,-0.013382,-0.11865,0.031896,-0.069293,0.015058,-0.22288,-0.058482
0.028257,0.059179,0.022778,-0.14459,-0.0081259,-0.011068,0.16647,0.044745
-0.011066,-0.032017,0.014315,0.05732,0.068357,0.03297,-0.089758,-0.032138
-0.0032703,-0.037284,0.067072,0.10795,0.05087,-0.001034,-0.17989,-0.031545
0.0047094,0.058689,0.2124,0.3918,0.0019933,-0.019119,0.066783,0.054191
-0.010646,-0.041218,-0.16685,-0.35526,-0.070382,0.0023343,0.17246,-0.0015423
0.013091,-0.024619,0.030906,0.0085889,0.00572,0.0087893,-0.11395,0.020063
-0.033488,-0.024291,-0.19416,-0.093917,-0.058625,-0.038703,0.10522,0.017616
0.021511,0.061499,-0.021296,-0.29504,0.033637,0.023982,-0.10784,-0.078908
-0.017169,-0.0091873,0.17523,0.60084,0.056126,-0.029736,0.10648,0.012125
0.022418,0.03735,-0.041111,-0.15624,-0.022264,0.034398,-0.32142,-0.0057264
-0.008113,-0.05649,-0.036503,-0.1837,0.0016452,0.028649,0.32046,-0.03049
0.016238,0.021905,0.057087,0.12734,0.018416,-0.023888,-0.076017,0.11781
-0.0061592,-0.000896,-0.041119,-0.036365,-0.026815,0.017011,-0.19729,-0.076369
-0.0051213,0.015633,0.098539,-0.0038815,-0.0014858,-0.013106,0.30893,-0.011648
0.003556,-0.045865,-0.024497,0.04406,0.02381,0.0026623,-0.072815,0.077163
-0.011552,0.009717,-0.15343,0.0048586,-0.060554,-0.037366,-0.046059,-0.037118
0.0041043,0.041555,0.14014,-0.013034,0.018678,-0.0080952,0.21646,-0.0036121
0.019204,-0.0051909,-0.05142,-0.19001,0.081736,0.036084,-0.26293,0.020836
-0.036544,-0.029036,0.13006,0.15321,-0.066677,-0.013757,-0.2119,-0.050071
0.016661,0.032539,-0.16002,0.079081,-0.012391,0.022577,0.34529,0.0023862
0.0071344,-0.054722,0.085756,0.22854,0.026007,0.012741,-0.099617,-0.0011491
-0.010197,-0.0093689,-0.15592,-0.44461,-0.037238,-0.058549,0.047128,-0.020985
0.0039784,0.067277,0.006112,-0.0018606,0.024586,0.035414,-0.018771,0.021803
0.018628,-0.0042357,0.072612,0.089238,0.00062384,0.013305,-0.038833,0.01082
-0.012973,-0.0206,0.14592,0.017429,0.015858,-0.023593,-0.12163,0.03262
-0.020453,-0.012974,-0.062459,0.1666,0.038931,0.041471,0.24142,-0.0062433
0.019578,0.026441,-0.12255,-0.032846,-0.0084489,-0.026384,0.0040993,0.0035388
-0.025848,-0.050904,0.16095,-0.096254,-0.079577,-0.016708,-0.083187,-0.024385
0.030528,0.043864,-0.016832,0.023054,-0.010509,0.0076291,-0.067173,-0.020366
0.016532,0.029269,-0.046708,-0.16769,0.050285,-0.00043483,-0.041749,0.030448
-0.0056407,-0.01678,-0.0068006,0.30722,-0.029939,-0.025246,0.094244,0.017961
-0.0049894,-0.024127,-0.14683,-0.22505,0.053653,0.066244,-0.050456,-0.019291
-0.03634,-0.039708,0.010333,0.00015858,-0.0034279,-0.053693,0.078027,-0.034662
0.02532,0.053719,0.059113,0.15389,0.017794,0.013862,0.041308,0.042262
-0.0073388,0.006303,0.14857,-0.061361,-0.046512,-0.027485,-0.036417,-0.03812
-0.024646,-0.041128,-0.041289,-0.067797,-0.016429,0.02578,0.016196,-0.040836
0.012818,-0.0024431,-0.033973,0.040824,0.0066902,0.02545,0.011576,0.02695
0.027262,0.044355,0.068462,0.15545,0.0073782,0.0028088,-0.21384,0.072034
0.011107,0.0055162,-0.062868,-0.22329,-0.022111,-0.034491,0.091027,0.0087977
-0.01994,-0.04097,0.032167,-0.071161,0.043156,0.022612,0.029218,-0.0064731
0.019971,0.068703,-0.14705,0.058032,0.03108,-0.013775,0.063293,-0.020875
-0.041264,-0.048595,0.047646,0.063483,-0.074334,-0.011232,-0.13347,-0.058231
0.022607,-0.041609,0.053921,0.29727,0.070202,0.029925,0.1351,0.06854
0.023768,0.042567,-0.033966,-0.1623,0.0032764,-0.023304,0.095652,-0.015888
-0.03022,0.00074315,-0.0043759,-0.21376,-0.056745,0.016549,-0.2682,-0.022599
-0.0066714,0.02054,-0.0050662,-0.13872,-0.00069747,-0.053538,0.33896,-0.068727
0.00068086,-0.022732,0.1363,0.23424,-0.00045011,0.047885,-0.22546,0.095943
-0.0001976,-0.011421,-0.041082,0.18589,-0.047976,-0.030517,-0.049396,0.0029366
-0.0012533,0.00033963,-0.1234,-0.096745,0.06021,0.023949,0.12321,-0.081897
0.0055873,-0.0025268,0.021646,-0.20778,0.02764,0.039519,0.095919,0.10713
-0.0029034,-0.035206,0.1512,0.063441,0.010921,0.0083852,-0.47537,-0.039498
0.020252,0.043161,-0.032193,0.17773,0.0024734,-0.046091,0.35514,0.016922
0.02034,0.076286,0.033581,-0.14622,-0.052311,-0.030276,0.049529,0.018103
-0.034031,-0.068964,-0.37028,-0.064637,-0.028501,0.0010361,-0.039049,-0.036433
0.020997,-0.0025111,0.20962,0.23496,0.058103,0.039973,0.012991,0.017039
-0.0022759,0.024975,0.0080998,-0.43504,0.0041373,-0.0072111,-0.23813,-0.04031
-0.041481,-0.018413,-0.005677,0.33921,-0.042211,-0.015464,0.28681,-0.036376
-0.010703,-0.031619,0.16067,0.21363,0.0204,0.015296,-0.20853,0.013726
0.019835,0.00071679,-0.01644,-0.17932,0.019937,0.0070211,0.2601,0.024746
0.011234,0.023931,-0.068761,-0.10544,-0.028046,-0.024611,-0.15173,0.036461
0.02618,0.014877,0.065549,-0.072429,0.048358,0.029789,0.062735,0.010398
-0.013307,-0.025962,-0.043791,0.13119,-0.024155,-0.0016728,-0.058607,0.0094122
-0.0055929,-0.0042733,-0.10801,-0.22026,-0.089114,-0.040915,-0.094869,-0.036735
0.01024,0.017965,-0.18163,0.21028,0.072504,0.037019,0.13306,-0.011039
-0.020585,-0.021381,0.25935,-0.037105,0.015667,-0.0022773,-0.0076857,0.023635
0.018999,0.026262,-0.05765,-0.11016,0.0062373,-0.010362,-0.016606,0.027772
-0.019556,0.020146,0.047898,0.29591,-0.0025062,-0.0028224,-0.15064,-0.13189
-0.0035032,-0.024456,0.17036,0.0087712,-0.018319,0.0047888,0.099043,0.067673
0.012467,0.0091534,-0.16659,-0.19911,-0.0099846,-0.010878,0.053605,0.07146
0.012788,0.034525,-0.010007,-0.047647,0.030213,-0.0028631,-0.23967,-0.11299
-0.033692,-0.042492,-0.079139,0.055909,-0.0072278,0.044516,0.44555,0.076609
-0.0018745,-0.042406,0.086341,-0.014012,-0.028685,-0.03279,-0.12593,-0.00057101
0.037994,0.011409,0.017147,0.16453,0.028228,0.0073705,0.068047,0.069393
-0.015649,-0.044815,0.080177,-0.22808,-0.070964,-0.014776,-0.14575,-0.065113
0.016803,0.10186,-0.13857,-0.13596,0.064263,0.0022134,-0.15898,-0.021183
-0.013239,-0.0012223,-0.091803,0.22348,0.027543,0.01914,0.12173,-0.10322
-0.004403,-0.03338,0.10399,-0.0079805,-0.017204,-0.011006,0.0014629,0.14236
0.0040603,0.029024,0.043345,0.23275,0.015807,0.0054116,-0.25307,-0.041656
-0.011428,-0.017142,-0.062157,-0.26543,-0.045429,-0.025437,0.33616,-0.014032
0.0037583,0.0076279,0.092463,-0.066011,0.017767,0.021414,-0.018489,0.038249
0.0027806,-0.02196,-0.1102,0.16529,0.0022938,0.020982,-0.042604,-0.048575
-0.006423,0.0031413,0.1416,0.035864,-0.029223,-0.050102,0.092198,0.053642
0.0075888,-0.0032924,-0.043963,0.051551,0.024985,0.058274,0.026013,0.0086828
-0.0096505,-0.025837,-0.035532,-0.23448,-0.04579,-0.052179,-0.23453,-0.012099
0.012383,0.02916,0.0092351,-0.041777,0.039895,0.0093274,-0.0034753,-0.048422
0.019168,0.036695,0.011125,0.090699,0.047763,0.032019,0.27234,0.070935
-0.012628,-0.034418,-0.10852,-0.031435,-0.0065928,-0.015217,-0.17385,-0.037348
-0.020477,-0.012201,0.10355,0.09338,-0.021761,-0.015107,0.08716,-0.01415
-0.0044197,0.017525,-0.039349,0.092014,-0.0057811,0.0011152,-0.20209,-0.023486
0.0041904,-0.0076179,-0.074951,-0.1743,-0.052645,-0.0056818,0.20172,-0.010337
0.020829,0.0062392,0.053067,0.022566,0.0093268,0.011221,-0.10589,0.088325
0.014065,0.051408,0.20575,0.23061,0.070655,0.043781,-0.13075,-0.12534
-0.031915,-0.0751,-0.17793,-0.25269,-0.032726,-0.041089,0.058652,0.13827
-9.2108e-05,-0.029389,0.051518,-0.044425,0.0039693,-0.0014735,0.22129,-0.050189
0.015659,0.063693,-0.035022,0.097296,-0.014395,-0.017271,-0.21291,0.012513
-0.0081547,-0.014475,-0.046915,0.039057,-0.0016473,0.028608,0.28649,-0.0096915
-0.0011924,-0.0060023,-0.055003,0.014455,0.0034128,0.011213,-0.016562,-0.0077411
0.021031,0.050041,0.041253,0.03828,0.040117,0.016692,-0.13202,0.0023438
-0.035057,-0.049575,0.15449,-0.2262,-0.016283,-0.087423,0.024037,-0.011061
-0.0051745,-0.015998,-0.084156,0.14221,-0.048388,-0.0038326,-0.14357,0.022089
0.017145,-0.005769,0.14392,0.057049,0.022074,0.056944,-0.15872,-0.07801
0.016454,0.05108,-0.19399,-0.17738,-0.023584,0.0092854,0.15103,0.063673
-0.0071498,-0.0098618,0.026168,0.24332,0.064588,0.0095722,0.11519,0.048838
0.0010235,0.029861,0.062003,-0.16545,-0.033895,-0.020417,-0.069218,-0.10672
0.0018192,-0.040871,-0.13277,-0.0055017,0.0009837,0.0049424,-0.017815,0.018991
-0.012739,-0.011144,-0.025633,0.035433,0.028211,0.0305,0.23911,0.090061
-0.019413,-0.044856,0.0023124,0.011821,-0.038581,-0.038004,-0.1186,-0.057679
0.044108,0.038013,0.030932,0.15789,0.003321,0.0021187,0.088111,0.099003
-0.0020034,0.019164,0.24914,-0.096653,0.036406,-0.021275,-0.26695,-0.10421
-0.0015588,0.047528,-0.068824,-0.032815,-0.033264,0.0011536,0.11176,-0.019083
-0.032653,-0.048319,-0.0087993,-0.27509,-0.018214,0.038347,-0.02691,-0.044176
-0.0092369,-0.002414,-0.14943,0.020953,0.011376,-0.042134,0.074208,0.093977
-0.001469,-0.0098915,0.023993,0.37171,-0.0067423,-0.013265,0.0010212,-0.049785
0.014235,-0.023887,0.041704,0.0043843,0.021495,0.031647,-0.38656,0.0091565
0.030143,0.033523,-0.18312,-0.17436,0.018278,0.03043,0.4436,0.10702
-0.00063903,0.013521,0.17704,0.195,-0.0083138,0.030113,-0.10126,-0.037144
0.023326,0.024975,0.07506,-0.27821,-0.0034068,-0.047455,0.042217,-0.048055
-0.038779,-0.034251,-0.035851,0.10121,-0.029393,-0.022759,0.15578,-0.11293
0.00034975,-0.024074,0.03215,0.05978,0.0075224,0.010201,-0.19007,0.14349
-0.015661,0.00821,-0.20479,-0.26179,0.029227,-0.01133,-0.011041,-0.020752
-0.0086842,0.031141,0.011749,0.074163,-0.011144,-0.0016214,-0.057283,-0.074289
0.029238,0.0057092,0.22141,0.33346,0.019247,0.023565,0.022629,0.10005
-0.011,-0.0365,-0.13004,-0.077543,-0.035791,-0.0061526,-0.013553,-0.036985
-0.0040678,0.0066587,0.090457,-0.11986,-0.027745,0.0029521,-0.16587,0.0064097
0.0034717,-0.0046893,-0.038974,0.0031346,0.012204,-0.0038189,0.38587,0.042228
-0.011605,-0.038499,-0.057619,-0.15424,0.0059542,-0.018672,-0.093034,-0.047276
0.028878,0.062171,-0.05963,0.071591,0.078446,0.036478,0.045301,-0.028231
-0.00021245,-0.038174,0.11074,0.10201,-0.028294,0.0053298,-0.24671,0.02089
0.010192,0.066796,0.01547,0.14743,-0.017644,-0.0027857,0.24115,0.021836
-0.0028233,-0.037308,0.021254,-0.097289,-0.030531,-0.034751,-0.10883,-0.0096527
-0.024072,0.00036923,-0.028535,-0.17155,-0.020381,-0.012386,-0.11714,-0.049815
0.0007658,-0.0086509,-0.12632,-0.0052234,0.036,0.025372,0.075827,0.018986
-0.022276,0.012677,0.0169,0.089228,-0.0099746,-0.0072266,0.025358,0.017528
0.01615,0.071181,0.041804,0.018273,0.044782,0.015038,0.021359,0.0086813
0.014643,-0.099464,0.26105,0.063524,-0.0027699,0.014255,-0.036859,0.039507
-0.0030548,-0.022971,-0.22362,-0.008965,-0.011809,-0.0093995,0.070169,-0.022837
0.0025047,0.0039885,-0.10734,-0.15189,-0.044542,-0.01676,-0.00090522,0.0011095
-0.015169,-0.010124,0.031885,0.17419,0.00094235,-0.0078126,-0.078184,-0.029628
0.014553,0.076283,0.11596,-0.12421,-9.0145e-06,0.0095443,0.0098635,-0.029487
-0.0018889,-0.001312,-0.011393,-0.078221,-0.0080685,-0.011753,0.05168,0.032479
-0.0019479,-0.046552,-0.0065661,0.085518,0.039375,0.013949,0.023077,0.054555
0.014277,0.027318,-0.049417,0.12455,0.048486,0.023798,0.0014585,-0.025722
-0.00029955,0.041094,0.063031,-0.11,-0.020081,0.0017879,-0.15434,-0.083124
-0.022514,-0.059818,0.0026217,0.24076,-0.0026741,-0.02118,0.086683,0.015542
0.0020447,-0.010062,-0.042974,-0.27663,-0.040359,0.0093347,0.068347,0.10667
0.010651,0.017909,-0.0030253,0.0565,-0.016299,-0.031755,-0.068361,-0.043658
-0.012458,-0.031373,-0.072193,-0.025119,-0.016607,-0.0037142,-0.033833,-0.099157
0.010815,0.067788,0.070638,-0.16916,0.021261,0.015638,-0.10872,0.13568
-0.0053924,-0.013562,-0.050286,0.18791,0.050672,0.026768,0.30127,-0.073546
0.017199,0.020785,0.21411,0.05497,-0.013938,0.006794,-0.0066348,0.077655
-0.030587,-0.048316,-0.19834,-0.067189,-0.023711,-0.051532,-0.094737,-0.075136
0.015514,0.0056326,0.0013015,0.063897,-0.0017172,0.0085232,0.044811,0.022335
-0.0084015,-0.051464,-0.02346,0.033794,0.005415,0.015411,-0.47866,-0.02098
0.0071288,0.023146,0.085789,-0.17412,-0.010055,0.0083062,0.44411,0.021135
0.023038,0.050499,0.046589,0.094956,0.029881,0.0027056,0.031756,2.2949e-05
-0.0076398,-0.038989,0.037384,0.16751,0.01557,-0.0017429,0.03406,-0.021897
-0.014747,0.036513,-0.036589,-0.14544,-0.022128,0.010063,-0.18989,-0.021153
-0.0062768,-0.019561,-0.12119,-0.079328,-0.013314,-0.017169,0.07049,0.0023691
0.0019849,0.01153,-0.036655,-0.064261,-0.020842,0.0019129,-0.02112,0.095688
0.0099309,0.0044836,0.022423,0.048473,0.0019449,-0.01128,0.12871,0.0011343
0.0019073,0.029114,0.072865,0.18943,0.055014,0.028924,-0.19898,-0.038977
-0.0064072,-0.024506,-0.071444,-0.12453,-0.009905,-0.033756,0.06611,-0.071403
-0.0070776,-0.039639,0.043841,-0.12647,-0.020594,0.0040026,0.12725,0.021166
0.015683,0.030365,0.067891,0.18473,-0.0078338,-0.0058607,-0.1715,-0.011154
-0.039527,-0.056616,0.031998,-0.010545,-0.064865,-0.023815,0.068735,0.019229
0.022723,-0.011183,-0.056694,-0.055813,0.035333,0.052169,-0.050053,0.034222
0.030603,0.10468,0.050589,0.087766,0.08994,0.034966,0.13658,0.065034
-0.015935,-0.060039,-0.10857,0.0056411,-0.010331,-0.028318,-0.19144,-0.075947
0.015798,0.0029,0.089475,-0.13082,-0.015632,-0.0048019,0.25502,-0.013854
-0.0071786,0.028057,-0.074957,0.16247,-0.043512,-0.027368,-0.12573,0.0090291
-0.022523,-0.031567,-0.00054431,-0.1222,-0.016333,-0.018059,-0.2011,0.039582
-0.014711,0.034543,-0.10085,-0.25772,0.026321,0.030719,0.27077,-0.15644
0.024054,0.061692,0.14087,0.2802,0.029306,0.0015361,0.039588,0.179
-0.0077101,-0.060201,-0.047321,-0.14036,-0.023325,-0.019909,-0.25427,-0.047567
-0.00048289,-0.081752,0.054891,0.34063,0.0010948,0.044279,0.10001,-0.13278
0.0068437,0.035704,0.019099,-0.18291,-0.014583,-0.024852,0.039865,0.1891
-0.0090242,-0.012613,-0.067997,-0.0083102,-0.0076616,-0.0087096,-0.090923,-0.042976
0.022301,0.046947,0.090597,-0.0037448,0.029974,0.045746,0.14517,0.037883
-0.0085726,-0.0039072,-0.13064,0.063822,-0.026331,-0.033342,-0.017492,-0.11567
-0.00018424,0.007299,0.17349,-0.041392,0.026863,-0.019271,-0.11024,0.042663
0.016055,0.0030662,-0.13115,-0.12529,0.017918,0.010098,0.10113,-0.0032749
-0.022529,-0.031684,-0.02251,-0.063692,-0.021791,-0.0073867,-0.078857,0.035155
-0.0066968,-0.010619,-0.0018016,0.096124,-0.014127,-0.024467,-0.064459,-0.061009
0.00098672,0.050833,0.070788,0.17447,-0.0060471,0.037311,0.21453,0.067663
0.016173,0.012044,0.054321,-0.14872,0.0023059,0.029716,-0.023117,0.015252
-0.031348,-0.056853,-0.066601,0.0019473,0.026388,-0.023797,-0.089725,-0.069211
0.014822,0.023518,-0.080319,0.087869,-0.0042685,0.0015933,-0.10212,0.033805
-0.0014227,-0.028479,0.045501,0.09394,-0.0038402,-0.011652,0.018336,-0.11233
0.029387,0.044565,0.015236,-0.19794,-0.0036225,0.014139,0.084705,0.11819
-0.017733,-0.046784,-0.068375,0.0099684,-0.011396,-0.0074389,-0.074375,-0.0083859
0.0055932,0.02529,0.092412,0.0078057,-0.011433,0.0013572,0.24455,0.0003957
0.021119,0.041826,0.037044,0.015578,0.035475,0.0012421,-0.16155,0.027233
-0.033789,-0.051965,-0.03934,-0.035786,-0.018959,-0.015613,0.0040405,-0.04557
-0.0029742,0.0095708,0.050084,-0.043765,-0.018384,-0.0021401,-0.063707,0.023365
-0.011456,0.0078405,-0.070689,0.031095,0.013774,-0.012668,0.080118,0.037768
0.011149,0.0056237,0.0035038,-0.006927,-0.00071207,0.023566,-0.05705,-0.034535
0.010305,-0.020147,0.060821,0.32525,0.055133,0.0054426,0.0088714,-0.077082
-0.0059873,-0.014373,-0.094556,-0.24784,-0.014287,-0.0041863,-0.073874,0.042541
0.0015205,0.0077069,-0.032934,0.0604,-0.045195,0.010496,0.061777,0.0118
0.0095242,0.015136,0.035243,0.01324,0.016885,0.01825,0.11104,-0.0049368
0.0024508,-0.0075735,0.032697,-0.14107,-0.015613,-0.02014,-0.012113,0.024122
0.0036982,0.056716,-0.023975,0.057683,0.0058569,-0.019003,0.012548,-0.017565
-0.0024811,-0.010978,0.037948,-0.24936,-0.019996,0.0057294,-0.10407,0.011239
-0.031894,-0.070407,0.0080338,0.31443,0.0087655,-0.00091411,-0.080638,0.0094276
-0.0066292,0.018606,-0.043356,-0.17818,-0.0012162,-0.015706,-0.01075,-0.046205
0.026222,-0.0021998,0.1568,0.1583,0.051934,0.031554,0.082387,-0.0072418
0.011776,0.023047,-0.079781,0.06844,-0.003498,0.00022958,0.13648,0.11046
0.012381,0.00033718,-0.12905,-0.25089,-0.019097,-0.0080467,-0.074934,-0.029425
0.012328,0.0076837,-0.0075472,0.060168,-0.02631,-0.016587,0.010622,-0.028851
-0.050877,-0.017364,0.041799,0.2431,-0.002014,0.029448,0.010194,-0.044386
-0.0052493,0.011335,0.096699,-0.024023,0.029991,-0.026048,-0.099834,-0.0058571
0.00097661,-0.02307,0.00082469,-0.11838,-0.016559,-0.0032721,0.00071032,0.032124
-0.00068081,-0.0029664,-0.042459,0.028173,0.014361,0.027533,-0.024167,-0.063
0.029121,0.0017925,-0.087346,-0.16412,0.0054974,-0.0039318,0.036502,0.091944
0.020306,0.038513,0.062132,0.061806,-0.0039774,0.0038649,0.096864,0.0051184
-0.026981,-0.017463,-0.054251,-0.098417,-0.037224,-0.019454,0.00075018,0.0048973
0.0044782,-0.0018581,0.10324,0.14551,-0.0079126,-0.011466,-0.056466,-0.072696
-0.0025831,0.015077,0.058579,0.061033,0.021885,0.019949,-0.012245,0.045685
-0.01708,-0.029242,-0.10189,-0.084252,-0.0021537,-0.011192,-0.038407,0.008248
0.01546,0.013407,0.043952,0.0081659,0.029555,0.020092,0.037028,0.0099953
-0.0067526,-0.029171,-0.089687,0.042374,0.031071,0.01225,0.073612,-0.027512
0.0020166,0.014507,0.059764,0.088771,-0.052521,-0.042491,-0.076853,-0.026402
