0.17412,0.029824,0.045016,0.051448,-0.00024864,0.0071692,-0.046739,0.024209
0.1584,-0.02667,0.01005,0.026798,0.020779,0.013198,0.087256,-0.034897
-0.20548,0.10469,0.077574,0.033509,0.034214,0.051041,-0.15865,0.022517
-0.024449,-0.036581,-0.048554,-0.076725,-0.029967,-0.019738,-0.024706,-0.1395
0.12719,-0.07524,0.0070484,0.055582,0.00030222,0.011823,-0.23648,0.11978
-0.23813,0.14501,0.0021489,-0.085088,-0.031152,-0.041893,0.69001,0.12101
0.15762,-0.16507,0.030075,0.0092034,0.016269,-0.017023,-0.082972,-0.12745
-0.04891,-0.03707,-0.027032,0.0026417,-0.0059859,0.0080834,0.16033,-0.05453
-0.0038071,0.11446,0.0097757,0.02031,0.026905,0.017605,-0.63829,-0.042169
0.24662,0.007729,-0.11015,0.0075015,-0.010274,-0.012044,0.033548,0.090171
0.10741,0.040612,-0.012247,-0.020331,-0.023998,0.012792,0.2596,0.022812
-0.08809,0.040764,0.13922,0.10835,0.055841,0.0061136,-0.030962,-0.02526
-0.27282,-0.16399,-0.077605,-0.091292,-0.028719,-0.00087157,0.2413,0.03941
0.042289,-0.019021,0.048336,0.036495,-0.0043147,0.0074245,-0.37375,-0.010609
0.058075,0.061834,0.017221,-0.063385,-0.027179,-0.023719,-0.22368,-0.028255
-0.32028,-0.022534,0.040153,0.069794,-0.0034721,-0.0083908,0.016024,0.016013
0.087066,0.072228,-0.078053,-0.079534,0.012254,0.014342,0.13774,0.018839
0.29685,-0.02043,-0.0091649,0.0045847,0.027941,0.0054402,0.52589,-0.10731
0.068414,-0.018683,-0.07341,0.033621,0.012423,0.043092,-0.23417,0.1052
0.12197,0.070115,-0.020722,-0.038699,-0.018669,-0.052283,0.11268,0.093436
-0.40866,0.027552,0.21142,0.053769,0.012725,-0.0070944,0.21081,-0.14218
0.1723,-0.15395,-0.072342,0.0066312,-0.034136,-0.0086608,-0.35814,0.063666
-0.17433,0.017984,0.0029044,0.0073764,0.012501,-0.0021082,-0.38648,-0.13865
0.26195,-0.073737,-0.070747,-0.030258,-0.011521,0.036155,0.21831,-0.074892
0.019643,0.15684,0.050449,0.025979,0.010955,-0.0031617,-0.026914,0.14009
-0.27672,-0.016972,0.069792,0.042618,0.01747,0.028374,-0.33749,0.141
0.1461,0.037289,-0.16074,-0.09812,-0.038742,-0.041207,0.66627,-0.086744
-0.063334,0.0065858,0.1017,0.0018331,0.05342,0.014498,-0.43284,-0.074451
0.22813,-0.039472,-0.11864,0.0064831,-0.033977,-0.039073,0.071636,0.075183
-0.38537,-0.13291,0.085284,0.025484,0.0039504,0.032281,0.60266,0.047662
-0.013051,-0.0010645,-0.020324,-0.0031094,0.0033119,0.0018624,-0.1929,0.043687
0.40726,0.11323,0.041241,0.0073499,-0.027957,-0.013222,-0.076793,0.08438
0.03862,0.17823,-0.089828,-0.05961,0.0039442,-0.020816,-0.21843,-0.26945
-0.23788,-0.12665,0.18699,0.085647,0.06773,0.072841,-0.42025,-0.088839
-0.1198,-0.12951,-0.012633,0.0059508,-0.024227,-0.029088,0.74293,-0.060898
-0.11746,-0.017557,-0.02641,-0.04086,-0.037751,-0.037488,-0.14543,-0.11404
0.67315,-0.001122,-0.051329,0.04652,0.011279,0.016453,0.071038,0.62853
-0.25729,0.26436,-0.14335,-0.068321,-0.025844,-0.023447,-0.67533,-0.12827
-0.17466,-0.10298,0.071921,-0.0031497,0.038121,0.053818,-0.11431,0.023284
-0.19489,-0.13351,-0.04604,0.0070874,-0.00017026,0.021754,0.63458,-0.29874
0.23964,-0.10773,0.034812,0.05569,0.0075634,-0.033629,0.09217,0.14818
-0.24953,0.11541,0.16733,0.0095996,-0.0090648,-0.049761,-0.019005,-0.18289
0.25692,0.12974,-0.021916,-0.029613,-0.018776,0.0046695,0.18554,0.18429
-0.079367,0.091202,-0.007798,-0.061677,0.017635,0.020325,-0.23227,0.053987
-0.12086,-0.055476,-0.023038,0.08577,0.0066754,0.020625,0.14704,-0.24613
0.64354,-0.1391,-0.15984,-0.12573,-0.027868,0.013291,-0.18781,0.19743
-0.402,0.027234,0.03625,0.062231,0.023783,0.005965,-0.50615,-0.17074
-0.35204,-0.15055,0.04283,-0.0061959,-0.0411,-0.056265,0.095,0.16401
0.079553,0.046274,0.024501,0.067533,0.02,0.052935,0.5116,0.005076
0.098991,0.086634,-0.011018,0.056595,0.035403,-0.0025365,-0.17985,-0.11779
0.41121,0.025461,0.052603,-0.016174,-0.0026773,-0.035224,0.47281,0.23137
-0.021614,0.14413,-0.036262,-0.12034,-0.0084605,0.017491,-0.648,0.0043632
-0.47926,-0.057428,0.071666,-0.006767,-0.013508,-0.039425,0.26246,-0.15889
0.20489,-0.14199,-0.14973,-0.0043061,-0.010416,0.036618,-0.053113,-0.086359
-0.12884,0.077601,0.24213,0.11315,0.023818,-0.035185,0.015764,0.074661
0.2059,-0.14107,-0.24728,-0.052941,-0.020565,0.034632,-0.13072,-0.048804
-0.21151,0.17858,0.052298,-0.017948,0.028041,0.051021,0.52547,-0.28234
0.11448,-0.017771,0.09344,0.0077562,-0.025793,-0.017191,-0.36429,0.4078
-0.17837,-0.081008,-0.14667,-0.021917,-0.010136,-0.076388,-0.37499,-0.062423
0.18121,0.02101,0.14622,0.073604,0.043971,0.029359,-0.19907,0.018744
0.058085,-0.078013,-0.056448,-0.025142,-0.027216,0.033973,0.51701,0.18995
0.073982,0.036622,-0.11086,-0.051846,-0.020206,-0.031811,0.28161,-0.0033999
-0.34622,0.013494,-0.013753,-0.045166,-0.012799,0.019009,-0.12524,-0.37581
0.24398,0.1724,0.20638,0.088694,0.042097,0.021951,-0.057967,0.15681
0.34404,-0.12849,-0.14394,-0.0099873,0.0039005,-0.046703,0.26073,0.25752
-0.71202,0.062239,0.1312,0.064344,0.0052713,-0.0073759,-0.55604,-0.2999
0.50274,-0.085491,-0.078314,-0.072057,-0.024426,0.0071819,0.5901,-0.060491
0.063637,0.22346,-0.071231,0.001696,0.02376,0.028435,-0.25533,0.041253
-0.20355,-0.23862,0.44668,0.089462,0.032215,-0.0057955,-0.91959,-0.52242
-0.53455,-0.12823,-0.35556,-0.043596,-0.038435,0.022056,0.76425,0.78276
0.5235,0.15695,-0.089874,-0.069322,-0.039867,-0.059507,-0.44184,-0.21354
-0.020792,-0.10805,-0.11739,-0.11217,-0.011013,0.046731,0.63821,0.058349
0.15431,-0.038311,-0.071663,-0.0071371,-0.029653,-0.01834,0.069942,0.32973
-0.051127,0.29802,0.39909,0.23126,0.10782,-0.0045513,0.10439,-0.14664
-0.19042,-0.081683,-0.079186,-0.067879,-0.019966,0.010033,-0.26758,-0.29095
0.057509,0.011147,0.018302,0.064817,0.0014541,-0.0058857,0.21634,0.19566
-0.12773,-0.079506,-0.15081,-0.089309,-0.038629,-0.036821,-0.69053,-0.1676
0.35449,0.036497,0.086548,0.0083773,0.039496,0.10452,0.52278,-0.038593
-0.091271,-0.0011754,0.075018,0.067993,0.016926,-0.035205,-0.21783,-0.0017438
-0.33439,-0.013942,-0.059819,-0.052087,-0.036286,-0.049945,-0.039571,-0.091714
0.46659,-0.057458,0.057372,-0.016866,0.0045727,0.021123,-0.13807,0.13545
0.036215,-0.0073537,-0.15917,-0.10046,-0.048232,-0.04858,0.47265,-0.26619
-0.57215,-0.090428,-0.084379,0.032757,0.023908,0.069155,0.17079,0.38948
0.26602,0.11528,0.094168,0.078185,0.0021997,-0.039589,-0.13304,-0.026002
-0.20665,0.11783,0.0011775,0.012794,0.027292,0.03159,-0.50432,-0.0035121
0.22969,0.034651,0.20636,-0.0065524,0.0054815,-0.029706,-0.32895,0.18159
0.28741,-0.063859,0.013428,0.052107,0.030541,0.049969,0.43595,0.16519
-0.25867,-0.27158,-0.016372,0.048856,-0.053803,-0.02637,0.21454,-0.42641
-0.18885,0.23927,-0.29853,-0.19536,-0.013259,0.0066866,0.56178,-0.233
0.14573,-0.02402,-0.037546,-0.078507,-0.012015,-0.038653,-0.3132,0.26281
0.23705,0.023867,0.15604,0.087166,0.035703,0.016979,-0.54674,-0.13059
-0.3139,-0.047392,0.08612,0.082817,0.012533,0.017034,0.55972,0.18675
0.32023,0.035098,0.064864,0.064221,-0.01138,-0.038722,-0.75634,-0.065472
-0.42359,-0.072739,-0.079396,-0.031973,0.0029016,0.044899,-0.21002,-0.23582
0.11866,0.082235,0.20105,0.09001,0.016268,0.0022875,0.93777,0.1644
0.4321,0.039529,-0.43603,-0.19595,-0.025897,0.028943,0.27902,0.15547
-0.43481,-0.035851,0.097469,0.062387,0.0016259,-0.038826,-0.48355,-0.00055834
0.012488,-0.025293,0.12455,-0.018177,-0.010178,-0.036411,-0.3178,0.058819
-0.26223,-0.10669,-0.13314,-0.038989,-0.0061527,0.0056094,0.36423,-0.070856
0.18928,0.089095,0.26464,0.039828,0.0063954,-0.029245,-0.48155,0.11092
0.68206,-0.084584,-0.19561,-0.022671,-0.0033382,0.039331,0.33543,-0.30254
-0.35252,0.029798,-0.067454,-0.029776,-0.003815,0.032045,-0.19772,-0.19505
-0.27325,0.21392,0.20373,0.097878,0.059707,0.027094,0.452,0.5417
-0.21365,-0.20473,-0.20373,-0.068591,-0.047359,-0.038321,-0.066636,-0.19474
0.17589,0.14711,0.40302,0.15853,0.033911,0.0070397,-0.60641,0.0013485
0.18919,-0.16291,-0.20583,-0.010207,-0.0095931,-0.0017557,1.1426,-0.04211
0.21294,0.09639,-0.2604,-0.14599,-0.0379,-0.042226,-0.64313,-0.16883
-0.30415,0.070186,0.14221,0.031326,0.034367,0.040999,-0.54499,0.082184
-0.030485,0.013554,-0.055382,-0.073076,-0.035343,-0.026179,0.71599,0.1639
0.22556,-0.028358,0.15291,0.071234,0.026318,0.021525,-0.26714,0.075817
-0.12433,-0.20438,0.063335,0.049759,-0.014831,-0.0033628,0.10839,-0.057986
0.067618,-0.091616,-0.13611,-0.067219,0.0056992,0.016724,-0.20896,0.050356
-0.048871,0.14808,-0.092447,-0.021599,-0.013082,-0.026932,0.18382,-0.10823
-0.25202,0.041051,0.04016,-0.0004166,-0.00027795,-0.031946,-0.39549,-0.23793
-0.397,-0.065911,-0.1109,0.004621,-0.017914,0.010327,0.37064,0.12938
0.55198,0.17349,0.27703,0.11106,0.043647,-0.032235,-0.34991,-0.022083
0.01285,0.081279,-0.0050289,0.0065739,0.043781,0.11423,0.80412,0.30797
0.49591,0.056605,0.091209,0.011495,0.0056879,0.012293,-0.21458,-0.17673
-0.068507,-0.11936,-0.28499,-0.14765,-0.055402,0.0054627,-0.26795,0.032381
-0.27515,-0.16591,0.19481,0.099496,-0.0071057,-0.070824,-0.063241,-0.15769
-0.10272,-0.075858,-0.12565,-0.082768,-0.037263,-0.068738,0.32438,0.097488
-0.24903,-0.15438,-0.34038,-0.10024,-0.0054129,0.026765,-0.31289,0.087554
-0.28663,0.29355,0.46422,0.15704,0.049417,0.012111,-0.58038,-0.21053
0.63441,0.095848,-0.13438,-0.0056646,0.01024,0.051104,0.496,0.1488
-0.24474,-0.02135,0.14416,-0.0098234,-0.0054645,0.026496,0.30576,0.025013
0.11435,-0.097902,-0.029441,0.027433,-0.028657,-0.053779,0.35689,-0.019386
0.2424,0.11495,0.17165,0.06671,0.034625,-0.0019458,-0.31038,0.16399
-0.087685,-0.064074,-0.49601,-0.11143,0.012603,0.03396,-0.56914,-0.29209
-0.14974,0.05869,0.29467,0.093665,-0.008823,-0.054946,0.31737,-0.090768
0.36095,-0.15098,-0.21481,-0.16273,-0.045415,0.020934,-0.38269,0.17415
-0.38293,0.040443,0.029938,0.024759,0.019817,0.0043087,0.55949,-0.052205
0.011097,0.17193,0.38048,0.13205,0.053857,0.020613,0.067378,0.17509
-0.52446,-0.41209,-0.43644,-0.16939,-0.076283,-0.03144,-0.31941,0.0037719
0.11531,0.20379,0.25915,0.089073,0.012084,0.01227,0.2658,0.018828
0.56634,0.14623,0.15506,0.11062,0.029811,-0.012529,-0.24095,-0.17924
0.12761,-0.044084,-0.11545,-0.010755,-0.015353,-0.0047548,0.36154,-0.036743
-0.11443,-0.10027,-0.27829,-0.15753,-0.021928,0.050495,-0.23328,0.062811
-0.059504,0.056457,-0.0043512,-0.024589,0.017768,0.003898,-0.0031862,-0.029319
0.070962,0.12137,0.1686,0.060451,0.025421,-0.0048577,-0.29989,-0.016112
-0.085741,-0.1483,-0.039144,0.043444,-0.022636,-0.093808,0.12763,0.11863
0.1236,0.15278,0.30375,0.12809,0.06089,0.10361,-0.02331,0.11802
-0.51386,-0.077848,-0.23093,-0.091255,-0.028792,-0.076963,0.28891,-0.016736
0.071841,-0.13759,-0.14982,-0.082705,-0.033777,0.044249,0.16051,-0.23734
0.038194,0.11418,0.086771,-0.025279,-0.0005849,-0.016655,-0.25045,-0.034457
0.18435,-0.032838,0.072548,0.050427,0.016723,0.061429,-0.47447,-0.062891
0.067527,-0.18693,-0.19334,-0.058175,-0.090397,-0.087682,0.53471,0.15508
-0.083805,0.19223,0.14676,0.11013,0.053947,-0.017606,-0.11547,0.12791
0.16069,-0.058433,0.043413,-0.12448,0.0052012,0.061692,0.27513,-0.050747
0.18297,0.10058,-0.0065646,0.065447,0.037236,0.018127,-0.32052,0.16519
-0.30044,0.17671,0.31368,0.14748,-0.0062345,-0.08544,0.14874,-0.28036
0.10589,-0.12808,-0.3975,-0.10654,0.03831,0.094686,-0.085421,0.087517
-0.21832,-0.034234,-0.009758,0.051616,0.021459,0.034615,0.10067,-0.076491
-0.15057,-0.10608,-0.016467,-0.082782,-0.065806,-0.078901,0.21534,0.09368
0.081206,-0.024861,-0.034513,0.0047731,0.017512,0.026684,-0.93441,-0.18369
0.40662,0.013218,0.11761,-0.068912,-0.049812,-0.024485,0.48326,0.19322
-0.14974,0.031523,-0.017951,-0.01431,-0.026034,-0.0065078,0.082027,0.037796
-0.2889,0.069873,-0.015436,0.076071,0.042087,-0.036937,-0.31393,-0.11742
0.17927,0.090629,0.21527,0.094656,0.014551,0.017003,0.75101,0.025896
0.32786,-0.1544,-0.10317,-0.073713,-0.006094,0.054007,-0.21484,-0.10133
-0.33287,-0.046151,-0.0379,0.041603,0.012524,-0.011403,0.14628,0.07201
0.0036057,0.041974,-0.23532,-0.15956,-0.030147,0.0010227,-0.27043,0.1554
-0.279,-0.045246,-0.085452,-0.082822,-0.016237,0.044977,-0.070491,-0.05493
0.18626,0.090882,0.2388,0.17778,0.038847,-0.089979,-0.062223,-0.036886
0.28862,0.12164,0.19573,0.16792,0.0645,0.057472,0.056663,-0.057945
-0.029125,-0.11058,-0.046732,-0.059607,-0.049368,-0.067133,-0.089449,0.020452
0.12043,0.18145,0.36604,0.22739,0.079093,-0.057496,-0.16341,0.024468
-0.37551,-0.31674,-0.62533,-0.39491,-0.090136,0.17217,0.44678,0.046292
0.034818,0.041585,0.030124,-0.060484,-0.026513,-0.011264,-0.23217,-0.15722
0.037145,0.036563,0.1742,0.027469,-0.027188,-0.053598,0.13874,0.054329
0.17038,-0.035285,-0.21626,-0.036215,0.001812,0.044628,-0.15719,0.032992
-0.14973,-0.025105,-0.021474,0.00044781,-0.032618,-0.12336,-0.1741,0.0064625
-0.044851,0.24785,0.20831,0.13983,0.065718,0.04359,0.60253,0.19511
-0.072931,-0.058686,0.017688,0.063822,0.0477,0.053038,-0.05631,-0.16475
0.20074,0.041357,0.27948,0.18018,0.054614,-0.040401,-0.15371,-0.17265
-0.14892,-0.20818,-0.37659,-0.073015,-0.038242,-0.010091,-0.16132,-0.0063229
-0.032632,-0.24343,-0.45542,-0.30555,-0.074712,0.050394,0.0049646,0.30462
0.10565,0.23339,0.39501,0.098595,0.022907,-0.03841,-0.10816,-0.28557
0.18685,0.20684,0.2193,-0.073201,-0.011622,0.067487,-0.27253,0.34077
-0.096963,-0.065846,0.12198,-0.018105,-0.022709,-0.0066785,0.23359,-0.22287
0.014902,0.19525,0.33065,0.26991,0.059381,-0.096607,0.44511,-0.024237
-0.053643,-0.25385,-0.56843,-0.085676,-0.0079469,0.040129,-0.31423,-0.072494
0.059106,-0.040065,-0.11341,-0.023451,-0.013952,-0.025923,-0.018628,0.15423
0.20842,0.12409,0.10489,0.026355,-0.021123,-0.013304,0.44991,0.15442
-0.61541,-0.31704,-0.33732,-0.17055,-0.029282,0.062509,-0.26102,-0.15121
-0.036691,0.1442,0.29582,0.13654,0.079045,0.0062757,-0.59893,-0.18515
0.33826,0.04739,0.11831,-0.098043,-0.00050656,0.12268,0.85506,0.15423
0.092341,0.15137,0.20749,0.064737,-0.0098263,-0.11954,-0.47254,-0.046455
-0.25347,-0.097353,-0.45973,-0.053251,-0.034619,-0.087577,-0.037631,-0.098582
0.29003,0.044523,0.054371,0.080561,-0.0044283,-0.015736,0.27508,0.19439
-0.32861,-0.10184,-0.040524,-0.025175,0.010489,0.041423,-0.35559,-0.19781
0.23543,0.15161,0.34559,0.1298,0.03354,0.0058889,0.11735,0.18619
0.38715,0.07077,0.12767,0.02954,0.017753,0.080779,0.030722,0.12732
-0.15784,-0.37551,-0.47789,-0.35013,-0.09952,0.015878,0.14364,-0.15666
-0.10688,0.086181,0.17988,0.17731,0.033104,-0.064283,0.12157,0.090562
-0.24551,0.049486,0.21094,0.1109,0.063873,0.011487,-0.15925,-0.1092
-0.28032,0.060997,-0.10366,-0.16734,-0.06208,-0.046669,-0.27601,-0.18706
0.17721,0.13583,0.056757,0.11549,0.061354,0.065183,0.38912,0.22324
0.16549,-0.08617,-0.14947,-0.087742,-0.02684,0.010553,-0.24161,-0.12078
-0.16656,-0.066941,-0.42077,-0.050464,-0.053205,-0.077967,-0.011813,0.038984
0.1587,-0.11224,0.22706,0.09467,0.044901,0.042,0.10194,-0.070204
0.54869,0.29266,0.26536,0.13698,0.025564,-0.011755,0.044822,0.27916
-0.28457,-0.14963,-0.184,-0.12633,-0.056138,-0.050789,0.082209,-0.091641
-0.19162,0.14695,0.37704,0.13326,0.065897,0.066666,-0.24711,0.099577
-0.046158,-0.26206,-0.272,-0.24781,-0.060959,0.03708,0.017543,-0.30257
-0.15093,-0.0078982,0.077423,0.067036,-0.0065739,-0.052629,0.18066,0.085557
0.051545,0.013021,-0.07839,0.086369,0.049661,-0.029941,-0.23442,-0.063326
0.12725,0.068459,-0.1433,-0.15003,-0.040629,0.058464,0.32702,0.071869
0.033023,-0.066395,-0.093405,-0.071328,-0.027689,-0.022079,-0.095807,0.10114
-0.32951,0.24219,0.52299,0.32254,0.080095,-0.030122,-0.237,0.016996
0.24457,-0.013792,-0.11754,-0.07052,0.00059791,0.080142,0.146,-0.11034
0.051789,-0.21074,-0.36313,-0.15793,-0.032881,0.010615,0.0145,-0.047054
0.15171,0.13334,0.13272,0.089862,0.0098,-0.036746,-0.013997,0.13548
-0.26579,0.031153,0.23215,0.092797,0.04176,-0.023781,-0.11906,-0.087591
0.26065,-0.12182,-0.23319,-0.041494,-0.062567,-0.052543,0.16786,-0.12417
0.21505,-0.031088,0.10098,0.0061946,0.0092851,0.0019578,0.080625,0.2038
-0.35545,0.13015,0.085223,-0.03765,-0.01554,-0.008288,-0.10039,0.24654
-0.09687,-0.091212,-0.076134,-0.078109,-0.003074,0.09714,-0.11061,-0.26231
0.1372,0.064098,-0.22349,-0.12844,-0.029865,-0.02465,0.12701,0.013254
-0.34649,-0.13558,-0.0079509,-0.021348,-0.016042,-0.005664,0.0022072,-0.31635
0.46595,0.36022,0.53766,0.42637,0.18845,0.076596,-0.087099,0.11011
-0.19747,-0.51498,-0.61933,-0.32905,-0.17301,-0.10562,-0.015926,0.13095
-0.41179,0.031297,0.034387,0.034694,0.025117,0.018149,0.11468,0.068807
0.10704,0.0091729,0.010229,0.025843,0.0013566,-0.013098,-0.092717,-0.035474
0.13294,0.48179,0.53579,0.28367,0.1063,-0.019859,0.042919,-0.11866
0.45152,-0.14583,-0.2501,-0.26507,-0.067849,0.044479,0.0074722,0.35
0.21075,0.10774,0.17949,0.047478,0.02391,0.054613,0.075826,-0.19368
0.022633,0.089951,0.19354,0.20134,0.043798,-0.067894,-0.11024,0.02908
-0.37163,-0.5317,-0.47228,-0.16669,-0.12686,-0.088984,-0.18289,0.10152
-0.34203,-0.026636,-0.26909,-0.21543,-0.043635,0.061353,-0.0171,-0.54121
-0.00044421,0.1027,-0.075991,-0.078559,0.027708,0.12502,0.4958,0.41193
0.27776,0.31648,0.62855,0.32298,0.12678,-0.007577,-0.10643,-0.031564
-0.17624,-0.22031,-0.38968,-0.16465,-0.12034,-0.12564,-0.091074,-0.12864
0.027301,-0.099218,-0.15241,-0.038229,0.029864,0.036456,0.032401,0.18504
0.016097,0.073301,0.3115,0.057098,0.031808,-0.036721,-0.1591,-0.049081
-0.063836,0.17519,0.16837,0.16297,0.050564,0.022364,-0.16605,-0.13318
-0.15881,-0.15056,-0.056817,-0.086474,-0.069563,-0.0045636,0.027506,0.020846
0.65999,0.066198,-0.058758,0.0039812,0.015237,0.093946,0.21164,0.28945
-0.18744,0.31792,0.45148,0.37045,0.11708,-0.087907,0.051734,-0.17833
0.021971,-0.56805,-0.83117,-0.48144,-0.19439,0.0048676,-0.068219,0.015618
0.22032,0.14901,0.0072561,-0.053998,0.025354,0.020798,-0.069396,-0.082877
-0.69324,0.22515,0.35023,0.18223,0.072459,-0.063689,0.15759,0.0012069
-0.094448,-0.27869,-0.26943,-0.16418,-0.061394,0.094813,0.033974,0.12553
-0.11009,0.18334,0.33037,0.055659,0.045448,0.02707,-0.097521,-0.15682
0.39779,0.071972,0.17589,0.10894,0.0337,-0.040885,-0.042639,0.12161
0.58208,-0.1824,-0.40189,-0.04882,-0.049385,-0.047016,0.112,-0.14155
-0.021898,0.1327,0.24778,0.085091,0.023358,-0.015066,-0.19611,0.13928
-0.30071,-0.28538,-0.37367,-0.10401,-0.028591,0.00018704,0.072824,-0.067103
-0.35124,-0.11413,-0.15676,-0.18461,-0.07949,0.022302,-0.43139,0.12249
-0.034865,0.53105,0.64722,0.34403,0.14472,0.043742,0.67566,-0.20548
-0.039642,-0.08326,-0.027,-0.088872,-0.027453,0.017978,-0.22963,0.043232
-0.044442,-0.019728,-0.17542,-0.03967,-0.080332,-0.1328,0.11133,0.11122
0.3275,-0.053107,0.15076,0.12186,0.11077,0.14633,0.057816,-0.032587
0.18769,-0.037204,-0.091511,-0.076095,-0.040722,-0.074254,-0.17242,-0.021004
-0.094764,-0.1857,-0.36603,-0.17562,-0.074753,-0.013349,-0.14357,0.098941
-0.065314,0.13146,0.27923,0.14898,0.10146,0.071071,0.22831,-0.0010351
0.25352,0.1933,-0.10007,-0.041258,-0.012941,-0.016505,-0.0040188,-0.19596
-0.3251,-0.056217,0.10045,0.065899,0.011106,-0.018419,-0.10765,0.030003
-0.26918,-0.10166,-0.0057107,-0.0051944,-0.0062868,-0.020649,0.065112,0.028906
0.15677,-0.11387,-0.42183,-0.24485,-0.12736,-0.038704,-0.18094,0.059258
0.1808,0.018607,0.37954,0.13846,0.04703,0.021441,0.21761,0.020271
-0.10949,0.079834,0.19787,0.084737,0.033522,0.058609,-0.050252,-0.087373
-0.087656,-0.059968,-0.03642,-0.013245,0.0051162,0.0029014,-0.053033,0.080517
0.15329,0.18003,0.15194,0.12711,0.033119,-0.051586,-0.031175,-0.046254
0.15991,0.020506,-0.068013,-0.056279,0.0088067,0.028153,0.13388,0.10241
-0.2646,-0.25651,-0.42651,-0.18112,-0.091083,-0.070401,-0.04931,0.018207
0.24435,0.17671,0.1588,0.12639,0.084681,0.050933,-0.033842,-0.2526
0.081955,0.092124,-0.033573,0.02098,0.035344,0.079182,0.023368,0.14874
-0.33326,-0.19221,-0.14568,-0.10036,-0.060408,-0.040964,0.074282,-0.07515
-0.16035,0.06335,0.28341,0.14416,0.04641,0.01796,0.00034691,0.15354
0.48954,0.075133,0.16117,-0.0036434,-0.051245,-0.104,-0.12154,0.03784
-0.14964,-0.041518,-0.22924,-0.13712,-0.017825,0.038094,0.098472,-0.24248
-0.42853,-0.16262,-0.26069,-0.23178,-0.071985,-0.0089803,-0.11319,0.094059
0.27203,0.14142,0.34984,0.2763,0.091505,0.075283,0.017467,0.032132
0.2202,-0.0036857,-0.013792,0.11509,0.0047179,-0.060246,-0.094428,0.11108
-0.15183,-0.20613,-0.02336,-0.11283,-0.026778,-0.0009223,0.091481,-0.20015
0.01721,0.15256,0.14063,0.061521,0.028957,0.011674,0.084126,0.043764
-0.084257,0.042084,-0.28892,-0.089052,-0.030902,-0.045383,0.0091061,0.13173
0.090391,0.087811,0.15499,0.035551,0.05127,0.070414,-0.016538,-0.09284
0.14923,0.015978,-0.013548,0.066124,0.024819,-0.00023346,-0.032788,0.0024066
0.090236,0.005446,-0.10013,0.023933,0.013776,0.031571,0.076032,0.026349
-0.36227,0.10995,0.27802,0.024299,0.0092728,-0.0063888,-0.027766,-0.029252
-0.085214,-0.35082,-0.40946,-0.26206,-0.15363,-0.091096,0.044878,-0.03966
-0.071976,0.12324,0.2375,0.12561,0.071471,0.05831,-0.12108,0.11229
0.1695,-0.20908,-0.21663,-0.077508,-0.0732,-0.097516,-0.080477,-0.11219
0.773,0.091462,0.0112,-0.02608,0.022272,0.035033,0.026834,0.021829
-0.69691,-0.059019,0.031439,0.031888,0.030659,0.04969,-0.21173,0.015132
-0.1358,0.29443,0.43785,0.19988,0.10144,0.079339,0.44007,0.14994
0.06908,0.059085,-0.05192,0.026232,-0.022224,-0.032145,-0.00029506,-0.1274
-0.23519,-0.1167,-0.033586,-0.066427,-0.034929,-0.034591,-0.054813,-0.16747
0.29001,0.093963,-0.14998,-0.015557,-0.0065865,-0.044953,-0.027289,0.022668
0.16166,-0.21729,-0.22318,-0.10291,-0.054312,-0.0082296,-0.10496,0.24812
-0.23007,0.13458,0.035108,0.061377,0.063892,0.044722,-0.014632,0.03226
0.22173,-0.063582,-0.11677,-0.085932,-0.035156,-0.034106,0.0008712,-0.18022
0.24724,-0.0085445,0.12753,0.071854,0.062161,0.083812,0.0031946,0.00016616
-0.29951,-0.067892,0.19223,0.011121,-0.066484,-0.10125,0.01479,-0.10004
-0.39277,-0.053397,-0.045285,-0.080528,-0.023062,0.027948,0.11274,0.18918
0.43158,-0.04155,-0.091044,-0.0075364,0.0045896,0.018089,-0.055536,-0.016894
-0.32149,0.40729,0.43077,0.25375,0.10214,0.024937,0.13404,-0.087196
0.42575,-0.25159,-0.46452,-0.24196,-0.074368,-0.014714,-0.20204,0.18792
-0.10564,-0.02426,0.11252,0.044157,0.021786,0.038932,-0.0016718,-0.13746
