-0.089924,-0.08113,-0.066994,-0.056664,-0.011599,-0.027659,-0.039921,-0.0044257
-0.10855,-0.012405,-0.086202,-0.03396,-0.010973,-0.0050608,0.022859,0.078389
0.15632,0.032516,0.25915,0.035761,0.021049,0.010097,-0.039172,-0.041376
0.0092232,0.023065,-0.14358,-0.050596,-0.017134,-0.0055948,0.00039077,-0.053189
0.50238,-0.024529,-0.094546,-0.05074,-0.00058054,0.0025453,0.01637,-0.068285
-0.0092975,0.022908,0.16908,0.12141,0.015944,0.0032184,-0.022638,0.1072
-0.086077,0.0091478,-0.19044,-0.065271,-0.014514,0.0041439,0.0082772,0.011532
-0.53812,-0.0036614,0.052796,-0.0013965,0.001724,0.013004,0.0075482,0.0040779
0.0289,0.046324,0.055576,0.08633,0.0099195,-0.009413,0.0065033,-0.054979
-0.16808,-0.0214,-0.086901,-0.036773,0.0022433,-0.00074267,0.013105,-0.007867
0.42647,-0.012299,0.03359,0.05857,-0.005655,-0.0079529,-0.034945,-0.024446
-0.059169,0.010579,-0.01061,-0.14368,-0.005895,-0.0076296,0.011011,0.014671
-0.010746,-0.10138,-0.014735,-0.0031944,-0.0061847,0.015906,0.0027508,0.025567
-0.28218,-0.0041999,0.37373,0.15183,0.0014101,-0.015351,0.0029445,-0.037134
0.49862,0.052699,-0.43881,-0.069055,0.0013759,0.0003132,0.0038776,0.085087
-0.1258,-0.054934,0.10181,-0.079458,0.0015957,-0.0072711,-0.017889,-0.06109
-0.067969,0.15801,0.31498,0.058718,0.017698,0.024482,0.015657,0.17173
0.093483,-0.0032614,-0.35494,-0.067967,-0.012889,-0.0059896,-0.005089,-0.03061
-0.049869,-0.054112,-0.096066,0.072222,0.011256,0.018407,0.0054906,-0.13097
0.0065874,-0.041453,0.091546,0.01073,-0.019422,-0.004057,0.00013992,-0.12335
-0.15464,0.081379,0.15378,0.10676,0.043338,0.012361,0.025345,0.069009
-0.052108,-0.10774,-0.1505,-0.17146,-0.050591,-0.049696,-0.036421,-0.015593
0.15611,-0.02304,-0.054412,0.058088,-0.0043776,-0.010636,-0.029142,0.10712
-0.21013,0.046455,0.16977,0.013304,0.010158,0.012352,0.023666,0.05482
0.33446,0.046291,0.038394,-0.017469,0.0009734,0.011543,0.028351,-0.030988
0.08105,0.055002,0.12973,0.17632,0.038588,0.033957,0.024261,0.014909
-0.053476,-0.075356,-0.33017,-0.33493,-0.04084,-0.006184,-0.0037748,-0.11874
-0.58952,-0.11775,0.0013743,0.082135,-0.01055,-0.030615,-0.04736,-0.07137
0.18646,0.12347,0.083836,0.069082,0.035839,0.015451,0.0035242,0.11118
0.43224,-8.2721e-05,0.017162,-0.052669,-0.0031886,-0.008563,-0.1474,0.062418
-0.36012,-0.0043213,0.12012,0.07727,-0.010487,-0.0089018,0.17218,0.02483
0.28386,0.063184,-0.10853,0.053328,0.0060145,0.022219,0.024904,-0.056453
-0.06958,-0.14239,0.10394,-0.03056,-0.016354,-0.0089994,-0.003488,-0.057056
-0.19162,0.033841,-0.18781,-0.057555,0.00034576,-0.0010484,0.031768,-0.024836
0.43501,0.090405,0.2201,0.03406,0.0090642,0.0069621,-0.081054,0.054635
0.085898,0.025904,-0.31152,0.024509,0.017478,0.0071887,0.0087542,0.070755
-0.27408,-0.090424,0.0552,-0.024737,-0.021369,-0.031628,0.0035914,0.014648
-0.39602,0.092437,0.127,0.010507,0.0018828,0.0077088,0.0045921,-0.051885
0.073848,-0.17537,0.0071913,-0.13583,-0.0064684,0.00021634,-0.027344,-0.035274
0.00028816,0.044514,-0.20158,0.028419,0.0083648,0.016219,-0.0059316,-0.02885
-0.038672,0.073927,0.49302,0.12077,-0.0081706,-0.0067919,-0.055539,0.023059
0.12972,-0.053933,-0.042658,-0.045695,0.022196,0.032717,0.090205,0.043701
0.34953,0.03021,-0.31025,0.037454,-0.0097778,-0.029365,0.04134,-0.13732
0.087813,-0.015504,-0.27282,0.042643,-0.0024242,-0.0055851,0.0092244,0.06717
-0.31624,-0.025614,0.12995,-0.13913,-0.010369,-0.013165,-0.1545,-0.068747
0.17644,0.094322,0.48211,0.046987,-0.0023467,0.0025719,0.15147,0.21258
-0.38236,0.0004691,-0.24891,0.11662,0.029421,0.010387,-0.010858,0.011705
0.18973,-0.042337,0.15515,-0.13347,-0.024516,0.0024863,-0.017086,0.0066164
0.21452,0.050553,-0.21158,0.046565,0.01542,0.010128,-0.0083325,0.070346
-0.24425,-0.09736,-0.48842,-0.11688,-0.030587,-0.0057619,-0.0239,-0.30668
-0.16901,0.067213,0.49067,0.071397,0.024836,0.0094761,-0.079309,0.054149
0.4279,-0.02708,0.4156,0.20505,0.02533,-0.0066918,0.075883,0.0042884
-0.36262,-0.044828,-0.38308,-0.23162,-0.0448,-0.01522,-0.018592,-0.095981
0.036502,-0.032904,-0.15334,0.02693,0.017554,0.0073471,0.052031,0.10657
0.02419,0.024731,0.12174,0.0040295,-0.006309,-0.009238,-0.04766,0.051461
0.3053,0.050575,-0.40911,0.05113,0.00090783,0.0054424,-0.0050106,0.099887
-0.31292,0.037407,0.54244,0.011873,0.0081126,-0.0031716,0.039042,-0.012538
0.30531,0.02465,0.25588,-0.043506,-0.00013629,0.019731,0.021227,-0.11356
-0.31343,-0.057982,-0.27122,0.049055,-0.0080358,0.0039317,0.042016,0.061941
0.24013,0.039212,0.16163,-0.054081,0.00017868,-0.011466,-0.063817,-0.10446
-0.28122,-0.098349,-0.51819,0.037956,0.0011402,-0.01867,0.054348,0.14342
0.038924,0.044395,-0.023065,-0.0651,-0.0051735,-0.0099463,-0.10393,-0.078886
0.27264,0.052959,0.17781,-0.011268,0.0045493,0.045825,0.086589,0.08667
-0.32131,-0.025915,0.084984,0.035765,0.014461,-0.023393,0.017465,-0.11841
0.26488,0.011143,0.14489,0.05278,0.016455,0.040044,-0.48172,-0.069039
-0.14956,-0.085247,-0.24276,-0.04619,-0.044477,-0.053068,0.39536,0.024669
-0.066814,0.029557,0.079223,0.01978,0.011061,0.0018685,-0.037392,0.078163
-0.0055862,-0.065348,-0.060641,-0.0077063,0.010985,0.0095234,0.29111,0.054011
0.34293,0.091789,0.25932,0.065927,-0.0057229,0.0090193,0.0058042,0.0084324
-0.095362,0.040445,0.23386,-0.017859,0.015699,-0.015147,-0.14415,-0.073093
-0.073765,0.03828,-0.074971,-0.040849,-0.018276,0.0074914,-0.16799,-0.0026076
-0.055365,-0.1186,-0.52653,-0.081369,-0.021361,0.0067769,-0.20793,-0.20229
0.045288,0.029466,-0.36221,0.048284,0.014671,-0.0093569,0.33617,0.3503
-0.20788,0.090257,0.13044,-0.026328,0.0042992,0.006032,-0.16946,-0.049527
-0.03035,0.023135,0.41412,0.023708,0.010362,0.021701,0.31381,0.080839
-0.12848,-0.16534,0.20126,-0.011734,-0.0059997,-0.032706,-0.17478,-0.14303
0.79197,-0.0070583,0.23469,0.1258,0.025557,0.038051,-0.040843,-0.10502
-0.28763,0.076209,-0.25942,-0.016483,-0.012294,-0.039542,0.13854,0.046182
-0.58245,-0.10216,-0.20415,-0.032374,-0.0026423,-0.0077378,-0.39321,-0.079403
0.34667,0.17029,0.23496,-0.07066,-0.02397,0.00060543,0.20888,0.10556
-0.19621,-0.088927,-0.37287,-0.061581,-0.021962,0.0010779,0.11767,0.016945
0.35631,-0.0028473,-0.012121,0.072378,0.042112,0.032702,0.0056268,-0.24976
0.28853,0.024032,0.20105,0.080696,0.019569,0.017299,-0.056899,0.32234
0.079078,-0.014813,0.11236,0.041176,-0.019408,-0.0061393,0.21872,0.15561
-0.59798,0.11567,-0.25244,-0.10872,-0.0045102,-0.037676,-0.26206,-0.20344
0.20618,-0.15485,-0.32119,-0.071863,-0.021553,-0.0070344,-0.10167,0.15827
-0.63557,0.016757,0.43003,0.074178,0.023444,-0.0079443,0.22254,-0.29962
0.096025,0.043384,0.054469,-0.021441,0.005782,0.029986,-0.26647,0.015561
0.54442,-0.0061718,0.25949,-0.037664,-0.019523,0.020951,0.2358,0.10321
0.10476,-0.039831,0.39921,0.12766,0.0025133,-0.011455,0.073198,-0.0052804
0.00096761,0.042345,-0.79015,-0.025203,0.0096047,-0.0202,-0.19936,-0.10603
0.034829,0.028052,0.037623,-0.043254,0.0018365,-0.012979,0.035563,0.0052623
-0.41478,0.056979,-0.21459,0.018279,-0.013044,-0.013174,0.035904,0.095384
0.068566,-0.16812,0.03873,-0.036778,0.0038167,0.041685,-0.018706,0.079178
0.1105,0.103,0.40202,0.009297,0.013034,0.010859,0.1293,0.0036002
-0.36039,-0.066318,0.29522,0.17112,0.022055,0.011355,-0.067307,-0.2024
0.3252,-0.057644,-1.0394,-0.22397,-0.00069995,-0.011713,-0.06201,0.28001
0.40586,0.099218,0.48466,0.11265,-0.016377,-0.0038103,0.027819,-0.09017
0.28393,0.0071779,-0.28134,-0.15497,-0.056249,-0.050926,-0.024274,-0.064908
-0.62211,-0.012477,0.23773,-0.12019,0.0205,0.0189,-0.038133,0.026071
-0.17371,0.017235,0.54307,0.42078,0.018924,0.010569,0.18235,-0.16185
-0.24616,0.025799,-0.00874,-0.085939,0.0019927,-0.01313,-0.11183,0.1214
-0.0020499,-0.010969,-0.088057,-0.084852,-0.014216,0.018399,-0.34937,-0.084167
0.24093,0.054269,-0.39082,-0.0049691,0.017501,0.011593,0.36109,0.098102
0.0089346,-0.13123,0.042967,-0.13484,0.011316,-0.017898,0.035459,-0.017289
0.14744,-0.005936,0.088925,0.057084,0.013961,0.039132,0.14222,0.056021
0.52359,-0.0079227,0.047676,0.14123,0.0016208,-0.028598,-0.061635,-0.016253
-0.13806,0.1206,-0.36998,0.0081128,-0.03405,0.0050263,-0.17881,0.10294
-0.21598,-0.033896,0.0037537,-0.1707,-0.0076979,-0.0088884,-0.03085,-0.070264
-0.30779,-0.064202,-0.0041178,0.11215,0.0098526,0.0074252,-0.14221,-0.2781
-0.049404,0.015297,0.45045,-0.034503,0.010445,0.014733,0.21303,0.22893
0.14382,0.034004,-0.36702,-0.056515,-0.021657,-0.049401,0.097161,0.051604
-0.29741,-0.092937,0.31468,0.084731,0.02306,0.0028169,-0.059928,-0.076679
0.38795,0.072667,-0.14277,0.0061663,-0.019109,-0.0078308,-0.046809,0.038367
0.0093274,0.14817,0.41547,0.2078,0.032037,0.052011,0.090309,0.0051295
-0.17805,-0.14807,-0.25752,-0.29442,-0.041672,-0.020283,-0.26503,0.018053
0.1038,-0.020037,0.003133,-0.13269,-0.013133,0.0022044,0.23162,-0.072003
-0.10323,0.05454,-0.27119,0.068788,0.039943,0.025862,-0.11448,-0.13276
0.13887,0.035331,0.068979,0.029579,0.024022,-0.019714,0.2205,0.1557
0.26562,-0.063195,0.12062,0.3362,0.0094024,0.021439,-0.11484,0.050857
0.022923,-0.093484,-0.18817,-0.2143,-0.05883,-0.038591,0.082604,-0.041308
-0.27425,0.022054,0.12067,0.026207,0.014245,-0.0049393,-0.53896,0.11333
-0.28765,0.0097973,-0.51136,-0.06804,-0.014039,-0.010824,0.3951,-0.094744
0.2203,0.22923,0.60091,0.0019457,0.027711,0.013764,0.20458,0.037658
-0.026631,-0.1787,0.017762,-0.046158,0.0062739,0.021775,-0.072055,-0.15317
-0.15404,0.06772,0.10315,0.083599,-0.00050527,0.013169,0.033325,0.0053471
0.37877,-0.062157,-0.43719,-0.078164,-0.039613,-0.027592,-0.24544,-0.0092865
-0.16688,0.088603,0.55336,0.022969,0.03745,0.016879,-0.04931,0.01493
-0.098736,-0.22925,-0.30975,0.12928,-0.019102,-0.0093772,0.012232,0.18054
0.16653,0.047518,-0.013908,-0.13381,-0.021446,-0.020065,0.22056,0.066381
0.063546,0.16951,0.19531,0.046865,0.030784,0.016457,-0.072528,-0.006814
-0.18495,-0.1364,-0.1613,-0.054446,-0.0026959,-0.00099306,0.055152,-0.33582
-0.13114,0.16883,0.071512,0.14126,0.034629,-0.001789,-0.036734,0.087082
0.046013,-0.08711,-0.43334,-0.17768,-0.036777,-0.0091714,0.042759,0.10544
0.15788,0.063785,0.37404,0.020639,0.001875,0.01596,0.036227,-0.10131
0.29539,-0.11373,-0.40044,0.010089,-0.0057208,0.0031501,-0.16515,0.11505
-0.147,0.098317,0.18527,0.15796,0.034072,0.0224,-0.16225,-0.0035432
-0.11911,-0.1209,0.033181,-0.098451,-0.042941,-0.043922,0.092503,0.066138
-0.20327,0.033201,0.59788,-0.001819,0.0053004,0.02242,0.20119,-0.011977
0.050431,-0.056254,-0.48125,0.017534,-0.0088065,-0.021263,-0.03919,-0.065998
0.10115,0.087914,0.23727,-0.025412,0.024028,0.027736,-0.058776,-0.13479
-0.16071,0.028946,0.10705,-0.021803,0.0021583,-0.010536,0.25864,0.055454
0.2972,-0.076262,-0.54234,-0.034438,-0.012009,-0.011152,-0.28361,0.020769
-0.18723,0.030482,0.48664,0.014755,0.012662,0.01821,0.13342,-0.035431
-0.0024317,0.060127,-0.39547,0.086866,-0.0098963,-0.015885,-0.17099,0.074323
-0.037184,-0.0032903,-0.22836,-0.052208,0.021757,-0.011423,0.15437,0.16988
0.0221,-0.050961,0.37315,-0.027179,-0.017461,0.00085542,-0.085354,-0.06213
0.18337,-0.0053468,-0.36734,0.084047,-0.010379,0.0058111,-0.26391,-0.083793
0.18033,0.086303,0.71265,-0.085621,0.011833,0.02726,0.30013,-0.044665
0.050889,-0.010354,-0.35722,0.073163,-0.01315,0.018544,0.030481,-0.054927
-0.53409,-0.068217,0.060702,0.021213,0.0086724,-0.028122,-0.10261,0.025788
0.034333,-0.1566,-0.37499,-0.10883,-0.0083507,-0.011326,0.19854,0.18225
0.069155,0.014775,-0.14168,-0.004613,-0.017081,-0.032921,-0.13647,-0.25645
-0.27202,0.13455,1.0378,0.068109,0.037353,0.039531,0.10236,0.15637
0.12203,-0.062265,-0.38993,-0.0079307,-0.001239,0.0025024,-0.1256,0.031486
0.37811,0.23665,0.13731,-0.021868,0.0155,0.011868,0.076232,-0.16124
0.21624,-0.055741,-0.27098,-0.059745,-0.022011,-0.0029793,-0.26273,-0.02291
0.05869,-0.0038796,0.012362,0.12828,-0.0046872,-0.02659,0.12943,0.15699
-0.37615,-0.17267,-0.15549,-0.004901,-0.0031496,0.019133,0.017319,-0.04478
-0.17509,0.083924,-0.0069054,0.024863,0.0057709,-0.01412,0.14265,0.14304
-0.21416,-0.025031,-0.33279,-0.15762,-0.017167,-0.016715,0.22427,0.0069247
0.27131,-0.055166,-0.14782,0.072602,0.021719,0.019515,-0.38566,0.028842
0.10857,0.032784,0.37795,0.059409,-0.010338,0.032454,-0.2095,-0.19127
-0.36743,0.029232,0.37015,-0.079679,0.0039799,-0.032228,0.37137,-0.044338
0.4201,-0.032297,0.61537,-0.031673,-0.013273,-0.010201,-0.0086297,-0.091554
0.28968,0.038537,-0.74453,0.078975,0.024029,0.020558,-0.25415,0.068319
-0.43262,-0.044374,-0.31408,-0.075363,-0.016765,-0.010252,0.27674,-0.0765
0.2904,0.0028551,0.34573,0.052534,0.012895,0.022255,-0.18074,0.11877
0.11402,0.18998,0.34406,0.19717,0.027137,0.0084965,0.12366,0.28278
-0.469,-0.13039,-0.37389,-0.21964,-0.036511,-0.02835,0.10366,-0.19918
-0.018615,-0.012944,-0.27509,-0.065307,-0.013971,-0.018236,-0.17909,-0.052828
-0.21792,-0.04454,0.25473,0.11307,0.016649,-0.00045911,0.00083581,0.14286
0.094968,-0.05505,-0.38531,-0.012795,-0.014933,0.0013575,-0.037446,-0.1144
-0.0039626,0.070373,0.23071,0.072726,0.0085066,0.041762,0.095637,0.023696
0.46629,0.032173,0.17156,-0.098936,0.0088666,-0.02778,-0.0069182,-0.063637
-0.023521,-0.0083262,-0.43855,-0.089951,-0.0060486,0.019228,0.045125,-0.020418
0.017757,0.11827,0.46122,0.10788,0.03402,0.010888,-0.14673,0.064694
0.1486,-0.10556,0.023242,-0.028556,-0.027276,-0.013707,-0.027611,-0.16947
-0.27003,0.076968,0.53757,0.07116,-0.0025622,-0.031017,0.19959,0.23722
-0.31558,-0.13876,-0.65402,-0.03065,-0.016969,-0.0017929,-0.23061,-0.19171
0.14601,-0.095321,0.17855,0.048326,0.015332,0.019535,0.095758,0.32577
0.36782,0.045392,-0.34517,-0.036421,0.00052281,0.0098272,0.24863,-0.26381
-0.39434,0.13771,0.035052,0.011094,0.016706,0.00062274,-0.053826,-0.013696
0.071483,-0.034241,0.080554,-0.075611,-0.022036,-0.023478,-0.32779,0.0073171
-0.09039,-0.030472,0.085717,-0.023778,-0.01409,-0.0076716,0.2233,0.097554
-0.093207,-0.021252,0.010942,0.017749,0.024983,0.032395,-0.064363,0.0083504
0.20975,0.025123,-0.056671,0.080125,-0.0063244,0.010626,0.036717,0.02998
-0.10582,0.19384,0.17423,0.10104,0.024841,0.02051,0.10631,0.069796
0.29956,-0.10281,-0.46559,-0.16129,-0.022131,-0.03201,-0.13466,-0.32432
0.067598,-0.093783,0.11989,-0.0891,-0.022242,-0.03003,-0.44948,-0.026513
0.03278,-0.078441,0.18192,0.08385,0.024499,-0.0050005,0.367,0.14351
-0.31613,0.14428,0.37671,0.037862,0.0087148,0.019561,0.37071,0.225
0.19614,0.01853,0.070206,0.13285,-0.0070781,0.012437,-0.28987,-0.14965
-0.20032,-0.041669,-0.43482,-0.029186,0.00060008,-0.010632,0.17305,-0.0049782
-0.20397,-0.097665,-0.038588,-0.24478,-0.022874,-0.018253,-0.14916,-0.038
0.24631,-0.037965,-0.062278,0.087885,0.0085099,0.044379,-0.025215,-0.07899
-0.044264,0.069786,0.0026015,-0.0075536,0.0010618,-0.0023673,0.11989,0.20573
-0.19077,0.079806,0.056856,0.1487,0.017301,-0.010071,-0.083573,0.056393
0.20047,-0.068352,-0.33327,-0.083994,-0.013125,-0.0022409,-0.12926,-0.12204
0.53109,0.040328,0.77413,-0.0026764,0.011232,-0.01022,0.05298,-0.025166
-0.58694,-0.0086583,-0.46839,-0.037384,-0.0035484,-0.010642,-0.14519,-0.058339
0.035391,0.0015841,-0.034512,-0.040195,-0.010793,0.012099,0.13749,-0.13369
0.054486,0.083696,0.31107,0.17575,0.036187,0.011179,0.1063,0.024867
-0.077704,0.030978,-0.42524,-0.054306,-0.034607,-0.021101,-0.02594,0.21696
0.1522,0.035289,0.1357,-0.10601,0.0033695,0.0091605,0.085656,-0.14112
0.1632,-0.22629,0.24629,0.020154,0.0017868,0.0083703,-0.16807,0.10021
-0.25869,0.034166,0.15817,0.027058,-0.023506,-0.015532,0.32947,0.1594
0.032399,-0.018677,0.0062363,0.094467,0.0059177,0.023459,-0.29785,-0.1449
-0.19965,-0.070004,-0.39315,-0.019393,0.020065,-0.015288,-0.058949,0.0048927
0.26335,0.07907,0.20105,-0.14193,0.0035748,0.0087778,0.17828,0.090091
-0.12477,-0.090793,-0.34179,0.016843,-0.0043393,0.0095899,-0.054873,-0.14197
0.22374,0.15075,-0.21168,0.004777,0.0041393,-0.028628,-0.33565,-0.013143
-0.15727,0.13449,0.098762,0.041456,0.0054334,0.0033571,0.41558,0.13289
-0.14766,-0.06038,0.22234,0.041438,0.0071097,0.0195,-0.45574,-0.35834
-0.057076,-0.051807,-0.037699,0.036,-0.01456,-0.019318,0.4034,0.094479
0.21046,0.0016302,0.45479,-0.053464,-0.0051522,0.0119,0.087415,-0.12971
0.16405,-0.020633,0.42568,-0.0012922,-0.011726,-0.0039921,0.033459,0.51199
-0.039902,0.010517,-0.77038,-0.011746,-0.0031002,-0.012242,0.091749,-0.040041
0.027376,0.044938,-0.18033,0.007801,-0.0026737,0.026284,-0.49759,0.027955
-0.2218,-0.1305,0.34259,0.1268,0.020917,-0.021169,0.083414,-0.37061
-0.024015,0.014733,-0.34367,-0.23326,-0.0025023,0.0094945,0.051419,-0.13666
-0.2175,0.012741,0.40993,0.068396,0.013115,0.01672,0.194,0.49154
0.21129,-0.040531,-0.11923,-0.045686,-0.0024951,-0.015126,-0.18476,0.056207
0.31537,0.0064038,-0.26686,0.003649,0.0053374,-0.00011369,0.26703,-0.25201
-0.06259,0.031807,0.22142,0.11598,-0.010332,-0.016365,-0.22279,-0.17914
-0.016729,0.13223,-0.20123,0.12044,-0.0027163,0.0064589,0.027419,0.22551
-0.2419,-0.073345,-0.032558,-0.2636,-0.042195,-0.0019096,0.12164,-0.022982
-0.1039,0.017109,0.26935,0.14376,0.04308,0.0054587,-0.53924,0.037705
0.2589,-0.050453,-0.1766,-0.048409,-0.0046771,0.012987,0.34369,-0.23781
0.068148,0.096892,0.14426,-0.0047886,0.0099173,0.020705,0.14664,0.076489
-0.25113,-0.051478,0.10228,0.062844,0.0088366,-0.033878,0.20566,-0.13991
0.0070498,-0.045427,0.0090443,0.013012,-0.023436,-0.010148,-0.10532,0.39821
-0.13187,-0.028203,0.062996,-0.13936,-0.00086483,0.0059325,-0.18675,-0.056396
0.32499,0.03747,-0.26684,0.011539,-0.0093111,-0.0091089,-0.13489,-0.096342
0.13461,-0.028759,0.2058,0.09057,0.02939,0.03843,0.12592,0.035652
-0.017866,-0.03884,-0.21573,-0.066202,-0.025389,-0.023386,-0.015642,0.25961
0.012619,0.13387,-0.20341,0.041518,0.029432,0.016303,0.16597,-0.16924
-0.26994,-0.008174,0.44791,-0.023415,-0.0093546,-0.022276,-0.016677,-0.43318
0.0059529,-0.079316,-0.35871,0.098696,-0.0090354,0.0014143,-0.17186,0.21579
-0.15448,-0.10802,-0.13165,-0.13097,-0.0087704,0.0013624,-0.039852,-0.043754
0.16927,0.12674,0.40424,0.1862,0.0069915,0.0087684,-0.032449,0.053686
-0.17923,0.0013326,0.3071,-0.10588,-0.0086597,0.000182,-0.014709,0.13368
0.30853,0.023804,-0.52781,-0.11638,0.022412,0.014699,0.21013,-0.068497
-0.038158,0.029147,0.31114,0.0065382,0.0065148,-0.025722,0.22839,0.026139
-0.014956,0.031029,-0.18599,0.075713,-0.017193,0.0040547,-0.36696,0.097839
0.15264,-0.012213,0.072426,0.013337,-0.0095282,-0.012981,0.19569,0.013996
-0.0579,-0.0095758,-0.22859,0.046165,-0.0016128,0.0014954,-0.14848,-0.030123
-0.098772,-0.1197,0.1186,-0.044581,0.0066579,0.047675,0.19199,-0.18306
-0.15628,-0.031687,-0.18758,-0.056072,-0.0080993,-0.038351,-0.17505,0.023958
0.11498,0.058547,-0.020972,0.089271,0.024406,0.016947,0.0078294,-0.1745
-0.20479,-0.01264,0.41404,-0.023332,-0.0053135,-0.0208,-0.08648,0.1828
0.10545,0.060664,0.19959,-0.019644,-0.0036989,-0.011058,0.012992,0.096008
0.28222,-0.0089164,-0.27979,0.03718,-0.002244,0.014742,-0.026759,0.041495
-0.1261,-0.0087033,0.077641,-0.079834,0.0066162,0.0016443,-0.26532,-0.020546
0.052906,0.00023642,-0.22838,0.051124,0.00706,0.019639,0.53383,0.049233
-0.20487,0.018766,-0.25203,0.016304,-0.0088222,0.021516,0.16827,-0.14924
-0.096599,0.039254,0.48562,0.011665,-0.0097488,-0.024263,-0.19104,-0.062966
0.32803,-0.04032,-0.072842,-0.10256,-0.026811,-0.02413,0.00034423,0.18171
0.1594,-0.02556,-0.059896,-0.012989,0.010557,-0.017176,-0.27658,-0.31433
-0.27771,0.035552,-0.050341,0.015459,0.0088894,0.012362,0.052747,0.38666
0.099875,-0.03767,-0.31965,0.10812,0.015306,0.017898,0.11814,0.020372
-0.28761,0.027595,0.35826,0.038295,0.014331,-0.0080014,-0.058762,-0.12179
0.051759,0.059415,-0.25883,-0.061794,0.0059857,0.013186,0.045199,-0.099176
0.087903,-0.10571,0.48458,0.10385,0.0058071,0.0036783,0.032834,-0.12694
-0.028486,-0.14635,-0.085784,-0.082884,-0.025419,-0.0050456,-0.10118,-0.09227
0.11948,0.15767,-0.083929,-0.11484,-0.025343,-0.0050877,-0.18957,0.22618
-0.066968,0.04221,-0.071595,0.023432,-0.0018677,-0.019946,0.27093,-0.11579
0.14869,0.086565,0.1295,0.019823,0.013753,0.036132,-0.029534,0.39666
-0.044923,-0.11487,-0.46028,-0.054465,-0.00184,-0.0089904,-0.16756,0.010795
-0.22601,-0.015269,0.4597,0.067348,0.0061588,-0.014983,0.54448,0.042698
0.0026462,0.033075,0.06468,0.034808,0.01442,0.025701,-0.17586,-0.20787
0.34205,-0.002378,-0.50899,-0.018509,-0.00044343,-0.019952,-0.23694,-0.27674
-0.21816,0.079883,0.4381,0.087288,0.0084054,-0.011421,0.0072171,-0.10473
0.0070446,-0.17492,-0.12043,-0.031031,-0.021655,-0.011212,-0.00027095,0.22857
0.258,0.083338,-0.35854,-0.077533,-0.0048675,0.019807,-0.19054,0.098711
-0.15357,0.088095,0.55064,0.1184,0.027323,0.011436,0.17029,0.015751
-0.2974,-0.12973,-0.034002,-0.17108,-0.026808,0.0028474,0.16851,-0.024836
-0.054442,-0.030759,0.0049729,0.04517,0.0045219,-0.0058801,-0.20278,-0.30076
0.13276,0.12812,-0.097123,0.055573,0.0041231,0.008725,-0.067484,0.33161
0.11103,-0.08929,-0.45588,-0.11657,-0.027915,-0.031467,0.20029,-0.016418
0.031382,0.029431,0.43081,0.075942,0.033568,0.021962,0.093189,0.093192
0.13748,0.048134,-0.12992,0.079063,0.016892,0.028379,0.11907,0.026875
-0.11763,-0.094708,0.12991,-0.090768,-0.023064,-0.035617,-0.17544,-0.068579
-0.0011396,0.093488,0.22006,0.067261,-0.0080177,-0.013687,-0.36868,-0.17165
-0.054871,-0.07507,-0.53015,-0.024287,-0.00037901,-0.0072522,0.34409,0.09112
0.12419,-0.015414,0.043555,-0.044601,-0.00013459,0.015104,-0.052231,-0.038718
0.20498,0.083446,0.41697,0.076923,0.023899,0.022289,-0.36143,-0.052872
-0.44724,0.10253,-0.10681,-0.089295,-0.014352,-0.0090302,0.47225,-0.035794
-0.12199,-0.10836,0.063975,0.066097,0.017748,0.014923,-0.073753,0.014586
0.088183,-0.042705,-0.088211,-0.027328,-0.020615,-0.015286,-0.045898,0.037793
-0.072047,0.0098915,0.029187,-0.010356,-0.0046004,-0.0060345,0.1649,0.035169
0.29119,-0.028235,-0.37291,-0.008172,-0.012439,0.0034485,-0.247,0.14751
0.25929,0.039719,0.29282,0.018083,0.018338,0.0051864,0.14662,0.068936
-0.24323,-0.057337,-0.15839,0.0135,0.0018368,-0.016577,-0.0231,-0.085708
0.16027,0.042807,0.089561,0.024711,0.0084761,0.0083912,0.062659,0.024316
-0.46722,-0.055466,0.26705,-0.034481,-0.00065478,-0.013683,-0.33935,-0.24458
0.23308,-0.013948,-0.45077,-0.03933,-0.0097548,0.018781,0.33295,0.11318
-0.076175,0.067035,0.33655,0.056812,-0.0030209,0.012072,-0.21714,-0.15337
-0.037638,0.085827,-0.097313,-0.0040373,-0.0037323,-0.010338,-0.043657,-0.043774
0.15881,0.017523,-0.16811,-0.042281,-0.0039605,-0.0015597,0.20585,0.41248
