0.058932,0.25717,-0.15385,0.01281,0.012397,0.0099036,0.036244,0.10362
-0.044647,-0.79879,-0.39859,-0.056915,-0.025487,-0.022726,-0.018382,-0.12017
-0.12378,-0.13152,0.14466,0.021898,0.014549,0.0073657,-0.01033,0.16164
0.079255,0.57364,0.25157,0.046148,0.023096,0.0065572,0.013429,0.3136
-0.13885,-0.21349,-0.20089,-0.1092,-0.070184,-0.05636,-0.033146,-0.14345
0.16695,0.32713,0.32754,0.13389,0.062812,0.084188,0.076427,-0.34431
-0.066219,0.13143,-0.13954,-0.060681,-0.015429,-0.0094249,-0.02508,0.31957
-0.018608,-0.61567,-0.28285,-0.044682,-0.015847,-0.024869,-0.079834,-0.52608
0.27784,0.74697,0.46589,0.16607,0.077203,0.053318,0.084118,0.1679
-0.27923,-0.80662,-0.37253,-0.19419,-0.095607,-0.09528,-0.072169,0.069132
0.14546,0.2299,-0.035294,0.038546,0.020498,0.013698,0.052985,0.59595
-0.22199,0.12212,0.36593,0.067495,0.011574,0.020957,0.0065252,-0.65368
0.11061,-0.22223,-0.28735,-0.083707,-0.028496,-0.010854,-0.055312,0.12848
0.042149,0.57448,0.39567,0.10087,0.048846,0.043428,0.078291,0.030629
-0.035796,-0.63304,-0.31754,-0.034683,-0.014141,-0.011393,0.016489,-0.024569
0.049928,0.24392,-0.2048,-0.029069,-0.0065182,-0.011221,-0.076929,0.27461
-0.14455,-0.38673,-0.12089,-0.030437,-0.0064933,-0.010816,0.00088364,-0.24579
0.030579,0.38885,0.18919,0.039525,0.0092198,0.0052886,-0.0080969,0.0050024
0.11552,0.00577,0.073588,0.024616,0.0091798,0.021256,0.028845,-0.20286
0.017294,0.40495,0.33984,-0.012769,-0.014611,-0.017807,0.0023883,0.29946
0.11127,0.18228,-0.3162,0.036502,0.039279,0.036398,0.09244,0.3847
-0.10249,-0.6914,0.009677,-0.10916,-0.063556,-0.07397,-0.13031,-0.37802
-0.03819,0.34975,0.30528,0.12799,0.044163,0.049636,0.029968,-0.80123
-0.13356,-0.64933,0.0098643,-0.057061,-0.043605,-0.030048,-0.03552,0.80348
-0.17797,-0.10155,-0.29729,-0.0552,-0.0062532,-0.0080114,0.017556,-0.30474
0.19524,0.28636,-0.59897,0.016265,0.031532,0.022332,0.025595,0.21895
0.14141,0.37241,0.53753,0.055771,0.015329,0.0065695,-0.018978,0.0075826
0.041872,-0.19542,-0.062348,-0.014697,0.0077896,0.015161,0.055652,0.013315
0.10551,0.26166,0.56206,0.00034951,-0.014519,-0.0065969,-0.00089546,0.2809
-0.10766,0.24108,-0.12609,0.054248,0.026389,0.027063,0.0060394,0.12011
-0.147,-0.66837,-0.051984,-0.11061,-0.072867,-0.056022,-0.096243,-0.58093
0.016684,0.22095,-0.57647,0.013769,0.031147,0.0016228,0.035149,0.098359
0.02288,-0.51522,-0.3484,-0.010024,0.0021729,0.012172,0.016645,0.041391
-0.0033559,0.60299,0.45996,0.060202,0.019624,0.014426,0.043019,-0.35063
0.079908,0.34305,0.32355,0.044648,0.020806,-0.015226,-0.057856,0.26287
-0.26403,-0.62975,0.12903,-0.080332,-0.072494,-0.045618,-0.0046656,-0.22969
0.061588,0.60799,0.18175,0.099062,0.060054,0.087299,0.023255,0.41156
0.17708,-0.53484,-0.41158,-0.11272,-0.050188,-0.038314,-0.028202,0.19863
0.093006,-0.038139,-0.070606,0.0029362,0.026649,0.015106,0.083858,0.19607
0.030062,-0.23111,-0.15437,-0.022716,-0.013915,-0.017983,-0.10077,-0.68252
-0.17483,0.46551,0.25865,0.060499,0.02363,0.010967,0.020102,-0.064963
0.033062,-0.23435,0.16872,0.041956,0.022252,0.0083628,0.032883,0.18476
-0.034479,0.18929,-0.15655,-0.05451,-0.01794,-0.025587,0.00029472,0.07676
-0.13645,0.38209,-0.35321,-0.0019184,-0.0031284,0.0031399,0.008255,0.37908
0.24918,-0.20535,0.24245,-0.0030168,-0.027019,-0.0067078,-0.01378,-0.092288
-0.12898,-0.13817,0.22676,-0.0028339,-0.0036346,0.023313,0.011944,-0.089759
0.048095,-0.51318,-0.28592,0.030031,0.012379,-0.023715,-0.024364,-0.65242
-0.056594,0.18933,0.2813,0.017445,0.01324,0.016432,0.01755,0.01111
0.25139,0.27709,-0.41598,-0.032958,0.022382,0.02657,0.028049,0.5846
-0.44271,0.056321,0.1054,-0.027771,-0.030566,-0.055987,-0.10237,-0.45066
0.16524,0.081387,0.17076,-0.037804,-0.028553,0.0027532,-0.022184,0.3938
0.090363,-0.197,0.032744,0.053511,0.028208,0.030372,0.081124,0.065601
0.0041233,-0.009805,-0.13689,0.042346,0.022256,0.010605,0.027829,-0.09174
0.24212,0.035413,0.15905,0.021744,0.007976,0.036565,0.059988,0.028387
-0.36766,0.14267,0.24382,0.006716,-0.0070948,-0.017264,-0.017938,0.31196
0.026518,-0.14815,-0.20879,-0.081258,-0.023149,-0.057415,-0.089023,-0.25411
0.081523,0.016138,-0.032636,0.02338,-0.0011826,-0.0057357,-0.012849,-0.17429
0.040662,0.05288,-0.21644,-0.054047,-0.027032,-0.025934,0.02303,-0.091405
-0.24294,-0.20424,-0.15294,0.0074724,0.024551,0.038865,0.010958,0.042309
0.256,0.31546,0.21303,0.03703,0.0054818,0.025374,-0.0096405,0.18418
0.094065,-0.025743,0.18116,0.020073,0.0098934,0.0046784,-0.007008,-0.41675
-0.27397,-0.39467,-0.32234,-0.034604,-0.016562,-0.022602,-0.011835,-0.26015
0.067127,-0.12086,0.12142,0.022158,0.012291,0.014212,0.062321,0.62263
0.039695,0.40394,0.055613,0.034465,0.01843,0.013624,0.012705,0.14329
0.034027,-0.22059,0.16239,0.0022864,-0.013792,-0.0089468,-0.019869,-0.17288
-0.099441,0.56447,0.035742,0.0033959,0.0092656,0.0085994,-0.02757,0.57804
0.2547,0.0032585,-0.13884,-0.048685,-0.021913,-0.020154,-0.01833,-0.51639
-0.10881,-0.40462,-0.052607,-0.013913,0.0097459,0.0059099,0.031086,0.050612
-0.020262,-0.13033,0.34449,-0.017771,-0.036432,-0.054155,-0.051434,-0.55888
-0.090862,0.16616,-0.32694,0.048799,0.03489,0.041683,0.038547,0.63064
-0.1343,-0.10541,-0.10127,-0.025273,-0.010592,0.00436,0.027339,-0.18399
0.16928,-0.16794,-0.042106,-0.021241,-0.024374,-0.0097726,-0.030629,0.088285
-0.062663,0.52198,0.16427,0.053118,0.048237,0.030665,0.067495,-0.30903
0.10816,-0.19431,-0.11164,0.0024831,-0.0037946,-0.03049,-0.10044,0.097708
0.010947,-0.11481,-0.02137,-0.017017,-0.0088154,0.0098836,0.012161,0.011175
-0.064169,0.15135,0.04176,0.025623,0.017234,0.034497,0.014429,-0.21656
0.07126,-0.10527,0.019722,-0.010556,-0.0041219,-0.01932,0.015529,0.23452
0.03515,-0.13207,0.26698,-0.016525,-0.018503,-0.0033166,0.038764,0.38524
-0.10948,-0.011654,-0.12195,-0.00036465,-0.0026513,-0.0035594,0.029417,-0.18446
0.020544,0.095509,0.0077294,-0.0090556,-0.0034456,-0.035694,-0.098346,-0.31233
-0.26984,0.11466,-0.14416,-0.042494,-0.028509,-0.013671,-0.016139,0.403
0.36328,0.41567,0.31637,0.087138,0.047507,0.070553,0.042066,0.19699
0.013649,-0.64038,-0.42001,-0.041545,-0.03278,-0.048347,-0.071672,-0.2497
-0.10796,-0.060782,0.080183,0.0017365,0.020119,0.028364,0.10409,0.065568
-0.11913,0.083471,-0.037266,0.0066437,0.011221,-0.0037744,-0.00053489,-0.28127
0.128,0.079634,0.16417,0.012757,0.011012,0.0037928,-0.018089,-0.70281
0.031131,0.37806,0.021166,-0.003006,-0.0039517,0.011989,0.012447,0.33701
0.16763,-0.040335,-0.096985,-0.0014486,0.013039,0.012876,0.036289,0.0091908
-0.26788,-0.5621,-0.10141,-0.068634,-0.055484,-0.071873,-0.13429,0.51634
-0.14303,0.051385,-0.12182,0.02942,-0.0067235,0.03095,0.070725,0.70808
0.041962,0.13316,0.28186,0.018642,0.0027445,-0.022622,-0.067743,-0.74835
0.31065,0.46264,0.087789,0.054483,0.042957,0.040672,0.10624,0.35797
-0.00066183,-0.11689,0.21037,0.018904,0.0043399,0.0097765,-0.0091752,-0.57742
-0.10231,-0.25278,-0.30432,-0.018518,0.011796,-0.0059806,0.0076376,0.0032378
-0.056011,-0.083088,-0.035955,0.0042655,0.0028458,0.024681,0.015881,-0.092998
-0.056134,-0.20561,-0.1035,-0.1237,-0.053607,-0.062185,-0.10952,0.4804
-0.10168,-0.10033,0.015027,0.0042852,-0.0088431,-0.00075981,0.037745,-0.26481
0.097335,0.31511,0.084455,0.01412,-0.0031118,-0.0095453,-0.01091,-0.17474
0.10409,0.53614,-0.059249,0.055381,0.026496,0.036716,0.057283,-0.031586
0.12982,-0.24808,0.26434,0.027658,0.017838,0.013235,-0.022995,0.18047
-0.14598,-0.15493,-0.34986,-0.0056341,0.010205,0.0060631,0.029793,0.35295
0.057326,0.009021,0.083782,-0.012772,-0.0198,-0.016062,-0.041935,-0.39573
-0.11272,-0.18119,0.019338,-0.0094379,0.0057912,-0.014213,-0.003656,0.34211
-0.11025,0.012989,0.058776,0.035047,0.00070887,0.011378,0.050948,-0.0099289
0.079416,0.033257,0.10028,-0.04433,-0.02767,-0.0098812,-0.057811,-0.12932
0.18987,-0.0062752,0.072732,0.071615,0.0452,0.031115,0.045024,-0.24753
-0.12318,0.18901,-0.05618,-0.086938,-0.031069,-0.045536,-0.070306,0.10771
0.13994,-0.1478,-0.20925,0.010465,-0.006718,0.010042,0.049238,-0.37232
-0.27091,0.17834,0.042805,0.050953,0.040071,0.049395,0.028558,0.21407
0.0036225,-0.003719,-0.010602,-0.074738,-0.039,-0.052399,-0.0074673,0.10299
0.15106,-0.10642,0.061267,-0.0066941,-0.017065,-0.013939,-0.051171,0.11408
-0.12551,-0.29152,-0.18544,0.0059029,0.0047094,0.0087035,-0.016801,-0.099994
0.24411,0.13114,0.031869,0.04207,0.018911,0.031311,0.056355,0.32162
0.064454,0.15637,0.11233,0.00099315,0.010228,0.0071111,-0.019465,0.34739
-0.32083,-0.22939,0.078941,0.0081043,0.010069,-0.016995,0.013274,-0.1559
0.049366,0.49064,0.062775,0.07125,0.026217,0.037075,0.10745,-0.42111
0.18344,-0.34754,0.12352,-0.052098,-0.03527,-0.049508,-0.14334,-0.18526
-0.15189,0.23956,-0.015574,-0.042225,-0.018443,0.0044322,0.018699,-0.00084927
0.029329,0.10981,-0.20119,-0.0013779,-0.0017561,-0.012077,-0.023439,-0.24375
-0.075771,-0.30086,0.018095,-0.0082743,-0.0011163,0.0025496,-0.019405,-0.14568
-0.12951,-0.048256,-0.22471,-0.00078167,0.014546,0.017133,0.062517,0.031667
0.20527,-0.3046,0.025793,0.0053973,-0.0016977,-0.015107,-0.027184,0.50179
0.0774,0.079006,0.00018741,0.02609,0.01272,0.030915,0.055658,0.70877
-0.060751,0.34567,0.039323,0.014835,-0.0045363,0.0068128,0.014439,-0.14297
0.21088,0.066672,0.10101,-0.02785,-0.014181,-0.017097,-0.033549,-0.19816
-0.15722,-0.023103,0.063587,-0.031144,-0.0081651,-0.017409,-0.010218,0.058262
-0.12891,0.05273,0.037569,0.028789,0.013722,0.0058262,-0.040696,-0.85305
-0.01152,-0.081663,0.099712,0.0037307,0.0047548,-0.0021298,-0.0079603,0.30752
0.052513,0.041276,0.13703,0.042132,0.0040638,0.0055629,0.03313,0.094307
0.054804,-0.2358,-0.38678,-0.012425,0.011637,-0.0023631,0.019909,-0.27074
0.027391,-0.061904,0.046355,-0.011779,-0.011665,0.0053389,-0.00092241,0.14132
-0.19958,0.16473,0.12729,0.0047071,0.0043612,0.013045,0.017323,0.37212
0.15803,-0.054855,-0.20912,-0.064757,-0.034143,-0.033937,-0.050562,-0.16732
-0.099707,0.093514,0.029068,0.0062852,0.0055458,0.020635,0.0061544,-0.3855
-0.10269,0.025903,-0.077968,0.022547,0.013996,0.012682,0.085737,0.40231
0.23706,0.17394,0.067366,0.0075811,-0.0010164,-0.018747,-0.093175,0.51227
0.014075,-0.3124,-0.02243,0.0083989,-0.00045978,0.0044762,-0.0071596,-0.77253
0.18087,0.059908,0.11022,0.048527,0.031252,0.012066,0.031364,0.43877
-0.15499,-0.10765,-0.023642,0.010777,0.0081326,0.0040854,0.022563,0.13763
-0.12102,-0.034883,0.30397,-0.10495,-0.054239,-0.042811,-0.033354,-0.64556
-0.063665,0.14331,-0.18875,0.0058566,0.0081752,0.0042981,-0.026808,0.32338
-0.0399,0.20527,0.066372,0.030495,7.6664e-05,0.012695,0.018903,-0.11864
0.12069,0.33517,0.10541,0.039079,0.0074612,0.029304,0.056946,-0.19614
0.16762,-0.39996,-0.51983,0.00021043,0.022609,-0.00058511,-0.022124,0.14045
-0.28929,-0.33861,0.10269,-0.047123,-0.024686,-0.014581,0.023722,0.10452
0.047913,-0.19312,0.097357,0.014283,-0.0015209,-0.020682,-0.055702,-0.091707
0.063408,0.3334,-0.18343,-0.010776,0.0062201,0.019946,0.012894,0.4652
0.031873,0.12505,0.34039,-0.0049242,-0.0092786,-0.010123,-0.036159,-0.36826
0.047841,-0.011271,-0.07876,0.016444,0.022234,0.021728,0.047236,0.22341
-0.01355,0.30988,0.13947,0.045755,0.014713,0.0060087,-0.002314,-0.15635
-0.012192,-0.58857,-0.15976,-0.065225,-0.031967,-0.041665,-0.0047857,0.088132
-0.050651,0.38162,-0.054325,0.019583,0.0070846,0.011628,-0.014494,-0.016312
0.15893,-0.019841,0.025052,-0.0044433,-0.0010009,0.0020402,0.015774,0.11435
-0.32201,-0.19775,0.044941,0.003309,-0.0093298,0.00016337,0.00031599,-0.18268
0.27935,0.1771,0.12739,0.027139,-0.0021808,0.006295,-0.006104,-0.63754
-0.12295,-0.24607,-0.19958,-0.026819,0.004976,0.0050682,0.004219,0.24829
-0.12979,0.15034,0.24076,0.020992,0.012318,0.0044682,0.0075592,-0.24492
0.16631,-0.086835,-0.25686,-0.040479,-0.0034375,-0.011071,-0.012142,0.65392
-0.045558,0.08866,-0.03719,-0.0081949,-0.010946,-0.0025429,-0.016333,0.27541
0.07222,0.18329,0.048514,0.047482,0.013235,0.014271,0.064787,0.37605
0.029001,-0.18005,0.10334,0.0093369,0.014331,0.0079049,0.0042424,-0.15851
0.036946,-0.18381,-0.20626,-0.052336,-0.023449,-0.021875,-0.081026,-0.87471
-0.11406,0.20792,0.24753,0.0030616,-0.0065677,-0.020588,-0.042603,0.30551
0.0060492,0.1638,-0.024745,0.050484,0.025696,0.027243,0.08846,0.039924
-0.10277,-0.053299,0.057267,-0.0038833,-0.012774,-0.0034539,-0.015576,-0.22141
-0.066024,-0.10151,-0.29405,-0.042924,-0.012711,0.0045113,0.044221,-0.15715
0.099693,-0.18452,0.22655,0.019239,0.010244,0.0043274,-0.051953,0.51897
0.2445,-0.012383,0.032917,0.010706,0.0014767,-0.0039021,-0.022411,-0.35687
-0.039698,0.23756,-0.14139,-0.021623,-0.015428,-0.02006,0.039389,0.18574
0.026332,0.021905,0.16352,0.0082731,0.014408,0.01065,0.00073891,-0.10194
-0.24683,-0.18655,0.22006,0.014587,0.0052414,0.010177,0.0099841,0.013515
-0.13412,-0.047827,-0.58181,-0.041587,-0.0036965,-0.0058233,-0.034708,0.16053
0.23089,-0.011643,0.054544,0.01178,-0.0044774,0.0016939,0.0068916,0.25252
0.17639,0.40867,0.12927,0.081058,0.02639,0.024859,0.056208,-0.1603
-0.20299,-0.14532,-0.005823,-0.083693,-0.028286,-0.030154,-0.035618,0.071007
-0.06983,-0.056818,0.13371,0.0018902,-0.0044922,-0.0071611,-0.065783,-0.29662
-0.039525,0.1024,0.047414,0.025226,0.0039429,0.01568,0.051486,0.095701
-0.024441,-0.27129,0.14831,-0.013823,-0.0030719,-0.016302,-0.0041019,-0.25849
0.3126,0.093326,-0.17453,0.025203,0.021244,0.014148,0.033278,0.18413
-0.11381,-0.18862,-0.28223,-0.014112,-0.0091397,0.0055736,0.015535,0.103
0.19603,0.30302,0.19871,0.0087272,-0.00055904,0.0049741,-0.04126,-0.30389
-0.45419,-0.2613,0.0017596,-0.039155,-0.023405,-0.034411,-0.066329,0.14796
0.25444,0.10147,-0.013685,0.02195,0.016007,0.012494,0.050116,0.06581
-0.0076137,0.11656,0.16121,0.012462,0.016063,0.020705,0.011467,0.22061
-0.093006,0.063788,-0.16691,0.0028738,0.0079894,-0.0020259,0.020897,-0.25096
0.060332,0.23081,-0.0032168,-0.014405,-0.01602,-0.016772,-0.0077378,0.31688
0.054323,-0.30532,-0.11818,-0.01571,-0.016853,-0.0002895,-0.012388,-0.14679
-0.10989,-0.14651,0.10036,-0.016478,-0.010044,0.0081403,0.021953,-0.61334
0.061614,0.067254,0.099856,0.1006,0.051413,0.055192,0.079003,0.81951
-0.14006,-0.20131,-0.0014196,-0.070715,-0.043271,-0.070207,-0.10742,-0.14947
0.091687,0.034851,-0.14116,-0.0070451,0.0029208,-0.0087124,-0.068885,-0.070881
0.039538,0.17738,0.21043,0.018017,0.018221,0.013207,0.069602,-0.048441
-0.092776,0.26848,0.027451,-0.011351,0.0026797,0.0035735,-0.027584,-0.16025
0.32722,-0.056437,-0.13837,0.0062093,-0.0046579,0.017363,0.046358,0.143
-0.13137,-0.12379,0.0069485,0.00021302,-0.011688,-0.015423,-0.0047799,-0.14203
-0.087519,-0.026579,0.10175,0.01743,0.0048953,-0.00075178,-0.00067361,-0.21276
-0.050979,-0.21805,-0.33959,-0.01247,0.013689,-0.00093057,0.012285,-0.079144
0.054723,0.14471,0.081298,-0.011285,-0.0010741,0.023178,-0.012519,0.78663
-0.13082,0.060397,0.11538,-0.0022936,-0.00043061,0.0090209,0.026493,-0.31664
0.064001,-0.12111,0.022104,-0.0087335,-0.023483,-0.027943,-0.034925,0.23493
-0.063525,0.12956,0.029856,-0.0069754,-0.015516,-0.017643,-0.0017721,-0.13314
0.12807,0.068198,0.11673,0.026541,0.023545,0.0083924,0.0084099,-0.2086
0.038133,0.12254,-0.036667,0.037133,0.015679,0.01864,-0.012514,0.078987
-0.12174,-0.33416,-0.24272,-0.022215,0.0078532,0.012866,0.044588,-0.067035
0.12518,-0.045442,0.060472,-0.050216,-0.023311,-0.048166,-0.1095,-0.19193
0.051984,0.17539,0.19204,0.046509,0.023763,0.03857,0.079836,-0.026138
-0.060849,0.054675,-0.060408,-0.013696,-0.02283,-0.00038646,0.010981,0.46845
-0.073596,-0.15727,-0.10454,0.010988,0.00091634,-0.00092033,0.004192,-0.096659
-0.010433,0.16532,0.03512,-0.012519,-0.006631,-0.025416,-0.042189,0.017918
0.11271,0.031343,0.014301,0.0016053,0.0091467,0.012224,0.03577,0.0071317
-0.26641,-0.27675,0.020697,-0.024701,-0.01431,-0.02063,0.0035583,-0.38552
0.24367,0.2579,0.078657,0.033796,0.024516,0.03245,-0.0060963,-0.048659
-0.082441,-0.22299,-0.20093,-0.025651,0.00059687,0.02318,0.045898,0.37075
-0.11068,0.15641,0.082213,0.031806,0.007683,-0.017071,-0.11371,-0.11982
0.089626,0.060701,-0.17941,0.0035448,-0.0088742,-0.01791,0.046703,-0.23461
0.26889,0.15416,0.19538,-0.00058504,-0.0021117,0.0129,-0.0036234,0.34735
-0.27627,-0.5789,0.12148,-0.066131,-0.042204,-0.04962,-0.02195,0.4194
0.070438,0.26751,-0.02612,0.025912,0.019459,0.02108,0.046889,-0.44772
0.13581,0.31026,-0.021689,0.033449,0.018986,0.029628,-0.015567,-0.15497
-0.22998,-0.20093,-0.030702,-0.0045475,-0.0044287,-0.0084716,0.0016297,0.15293
0.16729,0.015048,-0.078224,0.028855,0.019577,0.015973,0.027876,-0.15305
-0.23537,-0.16677,0.084322,-0.022971,-0.010613,-0.0066355,0.0079389,0.27625
0.085769,0.042927,-0.10645,-0.012019,-0.0013987,0.017231,0.034886,-0.10552
0.11609,-0.089874,-0.025705,-0.016819,0.00012668,-0.021961,-0.079446,-0.169
-0.10381,0.29458,0.13177,-0.014251,-0.01409,-0.030511,-0.046481,-0.22604
-0.033135,-0.053486,-0.16424,0.034563,0.0026175,-0.00051165,0.032022,0.38421
0.18904,0.084707,0.07183,0.020199,0.018862,0.021392,0.039008,0.091373
-0.19407,-0.2989,0.12223,-0.049459,-0.02789,-0.011354,-0.032912,-0.10248
0.075608,0.18588,0.010913,0.021051,0.010868,0.018778,0.012175,-0.09293
0.2241,-0.016251,-0.027897,0.028785,0.018111,0.026137,0.042096,0.2552
-0.2421,-0.28882,-0.11219,-0.033903,-0.02157,-0.028171,-0.051994,-0.48718
-0.082593,0.1955,0.022351,-0.0028279,-0.0063871,-0.019134,-0.0041674,0.060629
0.17717,0.25613,0.10076,0.03613,0.016972,0.021855,0.044961,0.064896
-0.12092,-0.27971,-0.11277,-0.049854,-0.013887,-0.007044,-0.01427,0.57103
-0.071988,0.23559,0.076,0.028215,0.018217,0.010998,0.0051117,-0.49618
0.26079,-0.073512,0.049467,0.01242,0.0037896,0.005293,-0.0069249,0.50424
-0.02081,-0.035103,-0.051431,0.0042234,-0.0026957,-0.0088546,0.0271,-0.16301
-0.009382,-0.031207,-0.16315,-0.012072,0.0063086,0.0074078,-0.033932,-0.52203
-0.10917,-0.060197,0.15337,-0.028667,-0.024144,-0.031916,-0.018376,0.084458
-0.21597,-0.17444,-0.18599,-0.0064443,-0.00050246,-0.0017272,-0.0042751,0.33213
0.07147,0.050613,0.07035,0.039085,0.01464,0.012261,0.00093088,-0.20957
-0.056889,0.18773,0.14219,-0.009128,-0.0099412,0.0025296,0.02906,-0.24168
0.3536,0.012075,0.10786,-0.010328,-0.01161,0.0084314,-0.044266,0.14621
-0.025058,0.25077,-0.0098089,0.019939,0.017658,0.0067498,0.02366,-0.017486
-0.045855,-0.22195,-0.17303,-0.019879,-2.2815e-05,0.0054073,0.014378,0.27182
0.022794,-0.15026,0.20264,0.018592,-0.0019362,0.0043963,0.060693,-0.20155
-0.018035,0.31458,-0.25905,-0.0053866,0.0042585,-0.012007,-0.040807,0.72758
-0.062651,-0.3462,-0.019629,0.001805,-0.0048066,-0.028316,-0.0093388,-0.34784
0.15159,0.13,0.0070792,0.016631,0.025545,0.03347,0.02179,-0.27354
-0.43166,-0.28273,0.0018283,-0.046872,-0.029757,-0.022021,-0.0259,-0.15329
0.023462,-0.008054,-0.025965,0.0223,0.016699,0.0083657,-0.050936,-0.02759
0.2137,0.6249,0.34732,-0.002257,-0.0070377,0.0075561,0.017222,0.01756
-0.069399,-0.19659,-0.095622,-0.026578,-0.030687,-0.016464,-0.016241,0.014873
0.20052,0.11398,-0.16643,0.027682,0.016077,-0.0010105,0.0055562,0.09193
0.026168,-0.37948,0.0021272,-0.0033818,0.00049114,-0.00062358,0.044141,0.032944
-0.059218,0.10658,-0.090694,0.036533,0.024168,0.031632,0.029564,0.11382
-0.10926,-0.026305,0.22551,-0.0089047,-0.0066208,0.0019533,-0.014715,0.04674
0.024623,-0.18856,-0.17625,-0.038335,-0.013785,-0.027325,-0.018731,-0.035939
0.091903,0.053186,0.2096,0.018274,0.010397,0.0060415,0.032497,0.012033
-0.13487,0.24893,-0.1973,-0.011246,-0.004525,-0.007615,-0.010252,-0.54735
0.10902,0.23653,0.25745,0.052548,0.02724,0.03299,0.0085436,0.50015
-0.091168,-0.49153,-0.37271,-0.063919,-0.027236,-0.028599,-0.06786,-0.10006
0.068945,0.29762,0.13836,0.014347,0.0038731,-0.0049764,-0.01304,0.31998
-0.2544,-0.1335,0.064543,-0.017219,-0.027826,-0.013296,0.0013614,-0.039014
0.1655,-0.0078853,-0.022569,-0.0021518,0.0028005,0.024723,0.04619,-0.044521
0.063074,0.16982,0.027354,0.036361,0.017824,-0.0078596,-0.018504,-0.52254
0.086501,-0.12807,-0.072506,0.0047928,0.017457,0.02206,0.018851,0.0078671
0.047627,-0.0062068,0.0082604,0.012665,0.0018839,-0.0024183,0.033687,0.1542
-0.12485,-0.083031,0.021683,-0.041534,-0.020975,-0.03418,-0.02074,-0.5069
-0.041421,0.11108,-0.061948,-0.00159,-0.0042266,-0.0027582,0.0038329,0.90499
0.11733,0.032262,0.27391,0.046471,0.020804,0.045025,0.03668,0.55722
-0.063099,-0.07255,-0.048613,-0.014635,-0.00071355,-0.015887,-0.055524,-0.93247
-0.1762,-0.22888,-0.31108,-0.020906,-0.006457,-0.0059633,-0.046686,0.25401
0.060166,0.17054,0.16543,-0.01923,-0.0044137,0.0042517,0.023832,-0.04387
-0.016718,-0.041602,-0.034213,-0.0017575,-0.018162,-0.016765,0.0075232,-0.23762
0.05553,0.12146,0.018419,0.01593,0.030336,0.024459,0.060804,0.37867
0.12963,-0.11416,-0.16247,-0.020854,-0.030832,-0.036386,-0.081617,-0.38621
0.042083,0.18552,0.195,0.051857,0.017087,0.019258,0.010356,-0.057504
-0.12133,0.24876,0.11265,0.015101,0.0022335,0.019403,0.024598,0.013486
0.091704,-0.096243,-0.12204,-0.0064331,0.0027374,0.0030819,0.062925,0.50848
-0.054342,-0.2011,0.13807,-0.013095,0.010769,-0.021826,-0.062074,-0.40535
-0.091899,-0.080071,-0.18591,-0.044248,-0.012776,-0.0082914,0.0010784,0.072276
0.025069,0.16943,0.16389,0.024945,0.01018,0.0048534,0.0021678,-0.3448
-0.031834,-0.42141,-0.25682,-0.01642,-0.014146,0.01789,0.0034132,0.93902
0.011191,0.04937,0.030491,0.003766,-0.0076225,-0.015762,-0.011087,-0.34921
0.02221,0.12722,0.13001,0.01559,0.0063744,-0.0098978,-0.0024831,-0.35089
-0.060121,-0.070658,-0.30705,-0.0039041,0.0045242,0.01224,0.021292,0.29156
0.3122,0.04927,0.19826,-0.0073801,-0.0052035,-0.0039426,-0.072595,-0.58047
-0.39123,0.27399,0.12387,-0.0022976,0.0086129,0.027468,0.051855,0.32736
0.26745,0.028164,0.17301,0.042771,-0.00074753,0.0047792,0.035375,0.20803
-0.1885,0.17061,-0.022739,-0.012817,-0.0019271,-0.017528,0.065597,0.028373
0.22466,-0.098934,0.081311,0.018248,-0.0026986,-0.024069,-0.12297,-0.08794
-0.15808,-0.24653,-0.40804,-0.059643,-0.010913,0.00055477,0.0010679,0.053846
0.0060215,0.1053,-0.02433,-0.0046312,0.0045703,-0.0063402,0.00032796,0.00093809
0.098913,-0.14908,-0.12063,0.026755,0.027963,0.017623,0.0077292,-0.44069
-0.17683,-0.097411,0.28698,0.018714,-0.0034143,0.017693,0.015514,0.27019
0.030183,-0.12171,0.0193,-0.013173,-0.0037762,0.0016716,0.015852,0.097331
0.063889,-0.11738,-0.055358,0.0014862,-0.012265,0.008659,0.039893,0.3329
-0.14564,0.30263,0.10344,-0.030879,-0.021046,-0.031574,-0.021901,-0.66858
0.21452,0.1816,-0.034304,0.014961,0.0090822,0.0061051,0.0099765,0.43901
