-2.6233e-05,0.000752,0.021508,-0.0027706,-5.6572e-05,-0.0092737,-0.002369,0.0037252
-0.0010042,-0.014537,-0.0096238,-0.0032922,0.0095352,-0.0029099,-0.010357,0.0044906
0.005544,-0.0065504,-0.001448,0.0039667,-0.0043132,0.011381,0.0053811,-0.0024236
-0.0036705,0.0091134,0.0069094,-0.0043915,-0.0028338,-0.0052814,-0.0019393,0.0063501
0.010562,0.0012416,-0.00025042,-0.0048476,-0.0097062,0.001939,0.01458,-0.0083352
0.0014909,0.0089308,-0.015185,-0.0051076,-0.0016337,0.0018856,0.0080032,0.00030635
0.0082728,0.008766,0.0089277,0.0027447,-0.0020689,0.0023896,-0.006183,0.00094225
-0.015902,0.00075786,-0.0060732,0.0031524,-0.0030925,-0.0044221,-0.0047357,0.0091339
-0.00067342,-0.022899,0.0022945,0.011745,0.0033048,0.0047566,-0.0034916,-0.0064025
-0.00068791,0.00030964,0.0027701,-0.0027995,0.0095487,-0.0015058,-0.01045,0.0012109
-0.0080951,0.0001028,0.0031527,0.01406,0.0080535,2.6519e-05,0.0055097,-0.0070475
0.0083827,-3.7163e-05,0.0034191,-0.015992,-0.0010085,0.0013515,-0.0025379,0.00014451
-0.005942,0.0077503,-0.0042762,-0.0072161,-0.0097307,-0.0054916,0.0044969,-0.00056118
0.0035692,0.0078735,0.011281,0.0011647,0.0053385,-0.0049638,0.011082,-0.0012655
0.0055513,-0.0074784,-0.012433,0.0012507,-0.0027243,0.0029188,0.0017273,0.0059078
0.0076327,-0.0070958,-0.012921,0.00085758,-0.0027512,0.0025796,-0.023412,0.0053598
0.0095763,0.0089397,0.0020327,-0.0077374,-0.0026384,0.0019286,0.0061279,0.0048882
-0.01231,0.0014553,0.016862,0.006869,0.0053667,0.0010893,0.020166,-0.0033652
-0.011379,0.0015841,-0.0074155,-0.0020181,-0.0021943,0.00018985,-0.012444,-0.003831
0.0044085,0.0014173,0.0074149,0.0048311,-0.0018644,-0.0006564,0.0021188,-0.0043609
-0.01186,-0.0069064,-0.0010619,0.0040997,-0.0014078,-0.0013619,-0.0064169,-0.0049555
0.010217,-0.0077449,-0.0093377,0.0036552,-0.000769,0.005943,0.008842,0.0022464
0.00052846,-0.0010097,0.0060746,-0.0043273,0.0079024,-0.0099639,-0.0067923,0.0017132
-0.001579,-0.0021777,-0.009487,-0.0042865,-0.0066469,0.0056081,-0.0064613,-0.0064367
0.012022,0.012372,0.0064782,0.0036894,0.002399,-0.002044,0.0019894,0.0091607
-0.013062,0.011573,0.0070721,-0.0039199,0.0036749,-0.001701,0.010693,0.0017099
0.0015232,-0.012233,6.3416e-05,-0.0037301,0.0048357,-0.0012183,-0.0038664,0.010295
0.0090305,-0.0042615,-0.0067943,-0.003565,0.0057095,-0.00064999,0.0050837,-0.0041919
-0.0061532,0.0042657,-0.0057556,0.0044168,-0.0094783,0.0077522,-0.009451,-0.01061
-0.0050658,0.0054914,0.0031112,0.0046438,-0.0095707,0.0082928,0.007094,-0.0091144
0.012102,-0.008506,0.01193,-0.0028286,-0.010204,-0.014723,-7.6862e-05,0.0079344
0.0060408,0.001176,-0.0027924,0.005471,0.012136,0.0011441,0.00021274,0.009119
-0.015691,-0.0047191,-0.0098533,-0.0095252,0.0029143,0.0011675,-0.0076862,0.0021175
0.0091838,-0.0029632,-0.0014801,0.014631,0.0013891,0.00095969,-0.00030274,-0.0053384
-0.021049,0.0062385,-0.0089592,-0.0080887,-4.801e-05,0.000538,-0.00098648,0.0023633
0.010734,0.014893,0.014549,0.00032381,0.0065898,-0.0078671,0.0060165,-0.0059684
-0.0048186,-0.00056856,0.022135,0.0085039,-0.0020172,0.007054,0.0052295,-0.0067737
0.010513,-0.0089553,-0.017479,-0.014887,-0.010197,-0.0015099,-0.011018,0.00011106
0.0099889,-0.0024203,-0.010552,-0.0073916,0.0054652,-0.0022525,0.0042627,-0.0007674
-0.01406,-0.0042631,0.019501,0.0075698,-0.0019894,0.01268,0.00426,0.0063582
0.00099005,-0.01425,-0.020997,0.014447,0.0063791,-0.0035637,-0.0032064,0.0059438
0.00053407,0.014797,-0.0069269,-0.010076,-0.0086305,-0.0040973,-0.0025623,0.013617
0.00023096,0.005076,0.014993,0.0044658,0.0075395,0.0032734,0.006094,-0.0097551
6.6256e-05,-0.0040562,-0.0097538,-0.0042648,0.00010279,-0.012691,-0.00080271,-0.0017926
0.0078001,0.0032333,0.012736,-0.0048685,0.00025788,-0.0050968,5.0053e-05,-0.001687
-0.007891,-0.0042201,-0.0033714,0.0027716,-0.0076173,0.010456,0.00072126,-0.0095368
0.0076061,0.012592,0.0044598,0.0030966,-3.1761e-05,0.010553,-0.014497,-0.0019419
-0.016077,0.0066111,0.012753,0.0039216,-0.0081472,0.0030204,0.0090468,-0.010119
0.0069714,-0.022445,-0.017655,-0.010446,0.0071982,-0.012146,0.0010535,0.012901
-0.0013592,0.0032188,-0.00096867,0.0067367,0.0070256,0.0040923,0.00064006,0.012556
0.0058531,-0.0026589,-0.0076494,0.00059531,0.0070052,-0.010807,0.0078883,0.0045953
-0.002571,0.0065309,0.0012302,0.0021651,-0.00067955,-0.0022131,-0.016172,-0.010892
0.004698,0.0071806,0.009942,-0.0043934,-0.0082663,0.0063703,0.0066729,-0.0026177
-0.0035175,-0.00076263,0.0027958,0.011989,0.0076026,0.014874,0.0061794,-0.0018516
-0.01154,-0.0094213,-0.0046139,-0.011303,-0.015659,-0.00020441,-0.0019807,0.0069615
0.0040889,-0.018632,-0.0044784,-0.0039859,3.4664e-06,0.00015193,-0.0021609,0.0002801
0.01211,0.010894,0.0032162,-0.0050557,-0.00013549,-0.015325,-0.0021726,-0.0063899
0.012485,0.001273,-0.0049441,0.0012655,0.015173,-0.0075517,0.0057846,0.0024608
-0.018282,0.023028,0.017944,0.0073799,-0.008725,8.8609e-05,-0.001743,-0.012328
-0.0021222,-0.0018221,-0.014026,0.0057158,0.0063515,0.0076738,-0.0013331,0.019487
0.0062316,0.0049143,0.0085632,0.0043145,-0.0020287,0.0074687,-0.0086226,-0.0036971
-0.016679,-0.011457,-0.00017466,-0.012267,-0.010359,-0.00047336,-0.00018687,-0.011577
-0.00054078,-0.019737,-0.016734,-0.004857,0.0048602,-0.00051473,0.008328,0.011492
0.015596,0.0034409,-0.0019702,0.010946,0.0046114,0.0073134,0.0012589,-0.0047606
0.00048599,0.0033255,0.0051388,-0.0039821,0.004547,-0.0083027,0.0019832,0.010043
0.00099084,0.011119,0.020293,-0.0029005,-0.0031378,0.0072512,0.0026089,0.0012993
0.0014427,-0.012274,-0.011147,0.0061892,-0.010641,-0.0085814,-0.0047643,-0.023081
0.0017768,0.011243,-0.0032328,0.007449,0.0054486,-0.0089431,0.0032224,0.0073189
-0.0058914,-0.0042987,0.0049451,-0.0071368,-0.0017795,-0.0016158,-0.0047304,-0.0011541
0.0018181,0.01919,-0.0023026,0.0013344,0.0066924,-0.0021517,-0.0051907,0.0062608
-0.0063691,-0.012077,-0.001625,-0.014103,-0.00043416,0.012983,-0.0059261,0.00616
-0.0069958,-0.0043738,-0.00092978,0.0012293,0.00022951,0.012635,0.0087785,-0.0014723
-4.8326e-07,-0.012388,-0.00030654,0.0083399,0.00082703,-0.0031246,0.0077927,-0.0010762
0.0068944,-0.0048375,-0.0076417,-0.0082653,-0.014301,-0.003007,-0.0009429,-0.00056682
0.013787,0.018338,0.0082631,0.014078,0.009514,-0.010448,-0.001689,-6.3832e-05
-0.0026734,0.0025261,0.0083188,-0.0025909,0.0019532,-0.0098484,-0.0021755,-0.0074913
-0.0033621,-0.0053302,-0.0074743,0.0043707,0.0020888,0.014372,-0.0023637,0.00832
-0.0038697,-0.0051849,0.0077878,-0.0039989,0.0021291,0.0074728,-0.010077,-0.0073521
-0.0041851,0.010784,-0.0083367,-0.0042082,-0.005709,-0.0071676,0.013686,0.00019675
0.0035012,0.0034874,0.0067384,0.0037513,-0.0057667,-0.0061755,-0.0014886,0.007591
-0.0042582,-0.0036961,-0.017192,-0.019215,0.0019902,-0.0052468,0.0067703,-0.0085146
0.0037742,-0.01084,-0.0018921,0.012765,0.0019663,0.003351,-0.00073337,0.0066696
-0.0036668,-0.0023921,0.0058607,0.0058467,0.0098073,0.011718,-0.00067221,-0.0092662
0.0046471,0.0059635,0.013934,0.0067897,0.0020847,0.011954,-0.0087314,0.014051
0.01306,0.0063781,0.0066985,-0.0079687,-0.013391,-0.0038233,0.0063488,-0.0014819
-0.0097186,-0.0089728,-0.015919,0.0083266,0.0024307,-0.01221,-0.010034,-0.0011996
-0.016864,0.0067957,0.00063474,-0.014733,-0.0051545,-0.01318,-0.0030461,-0.0085953
0.015005,-0.00097634,0.0015009,0.00092093,0.0028933,0.0011754,-0.0037578,0.0075034
-0.0079145,0.0068137,0.0021272,0.00059665,0.0031095,0.015391,0.011437,-0.0076751
0.0080748,-0.0088478,0.0023683,-3.3248e-05,0.0032742,-0.0093923,0.011407,0.00048097
0.0082441,-0.0010329,0.0099556,0.014748,0.003352,0.0051609,-0.003812,0.0084771
-0.0074332,-0.008753,-0.02198,-0.01744,-0.0045023,-0.0032739,0.0047843,0.00065745
0.00010082,0.0070962,-0.0074058,0.0050903,0.0031287,0.0044702,-0.0098155,-0.007355
-0.016007,0.015288,0.0069784,-0.0034852,-0.0050033,-0.0028467,-0.00091979,9.0631e-05
0.014605,-0.015431,-0.0020468,0.0037886,-0.00543,0.013748,0.0078477,0.0074192
-0.0017411,0.00084623,0.012615,0.0035128,0.0019076,-0.0084177,-0.0070968,-0.0087409
0.0053518,0.0093738,0.019894,0.011308,0.0014629,0.00074332,-0.006765,0.0063688
-0.010909,0.0022641,-0.019161,-0.011929,0.0011291,-0.0058756,-0.006773,-0.0096876
0.0042321,-0.012751,-0.0029625,-0.0037595,0.00096908,0.0027801,0.0085881,0.0056342
0.0039397,-0.0044923,-0.0018794,-0.0033097,0.0010095,-0.0046639,0.00038637,-0.0023375
-0.0039655,-0.0042649,-0.016034,-0.0028211,0.0012293,-0.0048046,0.0078249,0.0054429
0.011743,0.019154,0.024722,0.0054827,0.0015591,0.0024127,0.0075802,0.013306
-0.011484,0.011075,0.0030177,0.013771,-0.0059206,0.0092997,-0.0080984,-0.010057
0.0044179,-0.012848,-0.011013,-0.009211,0.0021043,0.00039421,-0.00014957,-0.0022018
-0.0031132,-0.013502,-0.0019002,-0.0087795,0.0098963,-0.008514,-0.0076939,-0.010035
-0.010691,0.0013745,0.0068046,-0.00056532,-0.0060557,0.0061469,0.00042097,-0.0023039
0.0050886,0.00061254,-0.016216,0.0076035,-0.0067017,-0.01023,0.0084576,0.0054043
0.012958,0.0077271,0.0071445,0.0078885,0.00020589,0.012686,-0.0071237,0.0053395
-0.010523,-0.00066255,0.0066022,0.00025788,-0.00083047,0.012355,0.0082956,-0.0024326
0.01278,-0.001095,0.0056602,-0.0075055,-0.001825,-0.011298,8.1291e-06,0.0055735
-0.0030488,0.01423,0.012228,0.00020765,-0.0025935,-0.0036693,-0.0085113,-0.0018799
-0.011103,-0.0094163,-0.020448,-0.007846,0.0048301,-0.0038837,-0.0015463,-0.0013862
0.0042873,-0.0095872,-0.021915,-0.0081965,0.0049065,-0.011961,-0.0024025,0.0069837
-0.011511,0.0058605,0.023601,0.014835,0.0054424,0.011194,0.0046944,-0.015931
0.011875,0.0056611,-0.00094632,0.014435,0.0063376,0.0031493,0.0042568,0.0078888
0.0041846,-0.010161,-0.00169,-0.009335,-0.0082075,-0.0047548,0.0041957,0.0002235
-0.0032955,-0.0024809,0.01363,-0.009559,0.00065857,0.010997,-0.0032637,7.2103e-05
0.00507,0.0053537,-0.017474,-0.0018428,-0.014141,-0.0042407,-0.010341,0.0074141
-0.0019886,-0.0021916,0.0065135,-0.0018192,0.0019318,0.0042127,0.0063024,-0.0089723
-0.0088948,-0.0016141,-0.00045377,0.013917,0.0019313,-0.0027653,0.007456,-0.0021379
-9.7195e-05,0.0071002,0.00053697,0.0062527,0.0015005,-0.0096511,0.00075951,-0.0032243
0.00087534,0.00046161,0.0015023,-0.001431,0.00073464,0.0068697,0.0016729,0.003517
0.0017333,0.0096031,0.0022758,-0.016997,-0.00021844,-0.00019975,-0.013368,0.0025763
0.010186,-0.012515,-0.012903,-0.0092273,0.0066239,0.00029377,-0.0053662,0.0018517
-0.0051077,0.0042406,0.010569,0.014059,-0.0020125,0.00048412,0.01006,0.0013838
0.002662,0.0050256,0.0023633,0.0060038,0.0052578,0.00037229,-0.0060781,0.0011642
0.0022234,-0.010258,0.0015942,-0.0021086,0.0050921,1.6211e-05,0.0010264,0.0011446
-0.014202,-0.010378,-0.01506,-0.0024257,-0.018084,-0.00047697,0.0080757,0.0012549
0.00035345,0.0047335,-0.00056389,-0.0027232,-0.0095792,-0.008781,0.0073867,-0.0063844
0.0069727,-0.0038538,0.0061955,0.0048396,0.0071308,-0.0013135,-0.0087572,0.0016207
-0.0097958,0.010902,0.0053786,0.0046561,0.0085221,0.006422,-0.001244,-0.013799
0.0049069,0.010098,0.0049117,-0.0032623,0.0022756,0.0066837,-0.0013242,0.0020723
0.00434,-0.0061469,-0.010784,-0.003281,0.0038449,0.0072855,-0.0090421,0.010223
0.0041971,-0.0065257,0.0051398,-0.011014,-0.0025908,-0.0074698,0.014588,0.0028908
0.0044656,0.0089533,0.0057122,0.0048003,-0.0015996,-0.0064676,-0.00084031,0.0035404
-0.0027585,0.0011695,-0.0092045,0.012923,0.0066616,0.0023054,-0.00073486,-0.0034647
-0.0020001,0.0012909,0.0071133,-0.0022721,-0.0013329,0.0030424,-0.00080016,-0.0025533
-0.016873,-0.014198,-0.00015277,-0.0017374,-0.017766,-0.0044145,-0.0088986,-0.0016253
0.014956,-0.0062851,-0.0076479,-0.0089479,-0.0034735,-0.0045485,0.0062093,0.0070295
-0.00038538,0.0015763,0.00023448,-0.00052467,0.0026653,0.0025988,0.0054934,-0.00012005
0.0073608,0.0094016,-0.0077094,0.0078323,0.00087948,0.0092465,-0.010975,-0.0075127
-0.0086595,0.0015941,-0.00013523,0.0082277,0.022647,-0.00013025,0.003778,-0.0073553
-0.017104,0.0016121,0.015259,-0.0072276,-0.0021603,-0.001937,0.0029906,0.0003805
0.013418,-0.0061727,-0.0083007,0.00047423,-0.010936,-0.011605,0.0023968,0.0079505
0.0049418,0.017271,0.015186,6.6565e-05,0.0041549,0.0023248,0.0020862,0.0076336
-0.0033293,0.0015789,-0.00021358,-0.00060622,-0.0038184,0.00098225,-0.0056974,-0.00047602
0.0043192,-0.014239,-0.015485,-0.017088,0.0041016,0.0079585,-0.0053153,-0.0006748
-0.0033459,-0.0067777,0.00053129,0.0054302,0.0043542,-9.2949e-05,0.0031986,-0.0085386
0.0048658,-0.0072846,0.00085164,0.012398,-0.018796,0.00028216,-0.003676,-0.0084302
0.0053947,-0.0079052,-0.0068134,0.0039477,0.0048869,0.0012148,0.0051855,0.0074356
-0.0097262,0.022681,0.016525,-0.004199,-0.0027577,-0.0052246,0.0061911,0.007745
0.006229,0.014244,0.00052785,0.0036327,0.0051444,0.0042456,0.0069911,0.00021828
-0.0093457,-0.0097085,-0.0079033,-0.011624,0.0051749,-0.0096062,-0.00036649,0.00037557
-0.0017982,0.0055658,0.0069413,0.0046659,0.0051674,0.0077486,-0.0081556,0.00030803
0.0054802,-0.010213,-0.017305,0.0055432,-0.0026796,-0.0063213,-0.016384,-4.7582e-05
-0.01083,-0.010152,0.0054598,-0.0012794,-0.0027433,0.0027772,-0.0015343,-0.00069974
0.0041217,-0.0020526,-0.0027232,-0.0080862,-0.0028463,-0.0040742,0.0053013,-0.0094027
0.0036311,0.014091,0.012969,0.00066825,0.0048188,0.019977,0.012141,-0.01041
0.0034621,-0.0086029,-0.0098916,0.0014924,-0.0031741,-0.011003,0.0035699,0.012069
0.011505,0.00015257,0.014617,0.0099835,-0.0033517,-0.011055,-0.0046129,-0.0042905
-0.0034849,0.0012384,-0.022988,-0.012926,-0.0034678,0.004228,-0.0044934,0.018782
-0.0025105,0.025815,0.025541,0.003085,0.0043609,-0.0041825,0.0039413,-0.0045685
-0.0091195,-0.019981,-0.0040997,0.0033435,-0.0032397,0.010623,0.0049913,-0.0040293
-3.471e-06,0.0043532,0.005034,0.0034862,0.0050151,0.0096134,-0.0014883,0.0046903
-0.0065323,-0.018476,-0.017571,-0.0042953,0.0056751,-0.0071739,-0.0078704,-0.0098103
0.0024504,0.013026,-0.0017166,-0.0043798,-0.0091408,-0.0084412,0.0012789,0.0069688
0.011259,-0.010528,-0.002093,0.011035,0.0073229,0.0058819,0.0023566,-0.0076617
-0.0035759,0.012468,-0.0029683,-0.01275,0.00022807,-0.0031684,-0.0047529,0.00082627
-0.0030044,0.0039809,0.011473,0.010196,0.00067465,-0.0042184,0.0033338,0.0010766
0.012971,-0.0046153,0.0024001,-0.0060622,0.0085494,-0.0049451,-0.0046262,0.00086108
-0.010335,-0.005378,-0.014345,0.00099212,-0.015253,0.0025874,0.0026749,0.00020421
-0.0026093,-0.0060056,0.016085,0.00013836,-0.008187,0.010651,0.0018915,-0.0008131
-0.0029083,0.00139,0.0078216,-0.00076892,0.006447,0.0036401,0.016569,0.0057435
0.0044018,0.0090181,-0.0079114,-0.0016786,-0.010213,-0.0028777,-0.015684,0.0043936
-0.0041002,0.00903,2.7811e-05,0.0052776,0.0045568,-0.0012244,-0.0010215,-0.012527
0.010674,0.0091526,0.00023403,0.0045312,0.011885,-0.0072181,-0.0096788,-0.0058194
0.0018861,-0.014165,-0.0074524,-0.0038639,0.0040711,0.010169,0.0052703,0.001185
-0.0069728,-0.021971,-0.015343,-0.0042343,-0.0032574,-0.0039665,0.0047854,0.016366
-0.00020819,0.0090915,0.023379,-0.0043538,0.013226,-0.0029248,0.004483,0.00068285
-0.008983,0.0086789,-0.00064502,0.0036134,-0.009175,-0.0024401,0.0043281,0.00098803
0.0058631,0.00025444,-0.009199,-0.0037706,-0.008199,-0.0025426,-0.0035424,-0.014025
0.0053647,-0.0082957,0.0056724,0.0047119,0.00030867,0.0046273,-0.003555,0.0024424
-0.0025862,0.014383,0.0050747,0.0055549,-0.0072428,0.0035542,-0.0035575,-0.0043806
-0.0023201,-0.0019085,-0.018645,-0.0013436,0.00034247,-0.0056135,-0.0035574,0.0044898
-0.0016548,-0.010193,-0.0028648,-0.00048166,-0.00031991,0.00072138,0.0042814,0.0055452
-0.00065359,-0.0025863,0.029033,0.00020589,0.0065377,-0.00073127,-0.0034322,-0.0090901
0.01619,0.013133,-0.0010983,0.0084358,0.0054878,0.013584,0.0046047,0.0074007
-0.0059713,-0.00211,-0.0074183,-0.0070865,0.0045513,-0.0031255,-0.0028199,0.00027624
-0.0048175,-0.0014955,-0.0057082,-0.01509,-0.011718,-0.0039345,0.0055492,0.00073953
-0.0039546,-0.00073891,-0.019593,-0.0076745,-0.0041414,-0.0044399,-0.0015759,0.00094563
-0.0035113,-0.0077661,0.028868,0.015293,0.0038802,-0.004624,0.0069754,0.00088659
0.012072,-0.0070738,-0.0011051,0.0070845,0.012302,0.0033392,-0.00015265,-0.007224
0.0037408,0.024661,0.007576,-0.00092472,-0.0024288,-0.0039799,-0.0074443,0.00011593
-0.020609,-0.0064031,-0.031062,-0.00085485,-0.0014058,0.0046621,0.00063992,-0.0004314
0.0016634,0.0012436,0.00019395,-0.0005253,-0.0082343,0.0057921,-0.0071905,-0.00093267
0.0082271,-0.0070869,0.0076668,-1.5716e-05,0.00037876,-0.00066667,0.00032979,-0.0012676
0.0070633,-8.3277e-05,0.014888,0.0083548,0.00090058,-0.0070251,-0.00016976,0.00647
-0.0095069,0.0067523,-0.001493,0.00099954,-0.0067015,0.0021767,0.0070378,-0.0011132
0.005466,-0.017658,-0.0023503,-0.014396,0.0088513,-0.0045003,-0.0013731,-0.00060012
0.0051114,0.0050048,0.0045304,-0.0066532,0.00076107,0.019634,0.0059443,0.0079231
-0.0028186,-0.0032012,-0.0042893,0.00079491,0.00038098,0.0041229,-0.0021975,0.00088043
-0.0028062,0.020353,-0.0053854,0.0080281,4.1656e-06,-0.01204,-0.0023415,-0.01408
-0.002789,-0.010226,0.0012373,0.0073699,-0.0080949,-0.013196,-0.0023208,0.0097584
-0.0028791,0.0065625,-0.0078383,-0.0088328,0.0073877,-0.0070122,0.0056284,-0.0058463
0.0046642,-0.0075709,0.0065046,-0.0013727,0.0074052,-0.008873,-0.0019915,-0.0062591
0.012015,0.0018179,0.0052889,0.0064087,-0.0080619,0.02839,-0.0017968,0.0085463
-0.012028,0.01101,-0.0035681,-0.0010896,5.2965e-06,-0.00431,-0.0016354,0.0074225
-0.012671,-0.011514,0.0034772,-0.00048644,0.00030458,0.0026294,-0.0093314,-0.0094681
0.0024087,-0.0034588,-0.0047381,0.0080913,0.00060272,0.0024507,0.0063745,-0.0028685
0.0020993,0.0038254,-0.0047253,-0.0067792,0.00087168,0.0029557,0.0064402,-0.0038373
0.0099443,-0.013073,0.0035176,-0.0062184,-0.0067076,-0.0037988,-0.0013018,-0.0044097
0.010366,0.01631,0.0043148,0.0096197,-0.0064995,-0.002405,0.0065966,0.018934
0.00334,-0.009332,0.0053795,-0.0062298,0.0093247,-0.00092978,-0.0011162,0.0036905
-0.011221,0.011878,0.0065793,0.00091777,0.0017103,-0.0074254,-0.0088253,0.0044554
-0.010009,-0.0056727,-0.0078546,-9.6184e-05,0.0097083,0.0091765,0.0068963,-0.010177
0.0068319,-0.0070162,-0.014616,-0.0012862,-0.0057789,-0.013721,-0.0086415,-0.0091438
-0.015513,0.00022185,-0.0059909,-0.01024,0.0020714,0.0019977,-0.0085558,-0.00043318
0.0087978,0.0004767,0.010149,0.0045266,-0.0058574,0.0095249,0.014982,0.00019932
0.0093945,0.0092933,0.0025361,0.0041477,-0.0061655,0.0011615,-0.00051312,0.0083154
-0.013747,0.0030247,0.010241,0.012179,0.0089547,0.00047316,-0.0081624,-0.0073269
0.025311,0.012618,-0.0057712,-0.0026167,-0.0073361,-0.00023794,0.0076441,0.00021421
-0.0062249,-0.0091416,0.0092222,-0.0012702,-0.00027628,-0.00089025,0.0078102,-0.00020922
-0.0067613,-0.015689,-0.0072344,0.00041136,0.0067964,-0.0014423,0.00010511,0.0071365
-0.0075023,-0.0072409,-0.016022,-0.005616,-0.009449,-0.0018885,0.00011638,-0.0010967
-0.0083871,0.0083053,0.014185,-0.0039624,0.01358,0.005565,-0.015607,-0.0014185
0.0062831,-0.0002358,-0.01027,0.0051776,-0.0021811,0.0052664,-0.0079798,0.0061815
0.020964,0.0063922,0.012281,-0.0017561,-0.0020249,-0.01843,0.007433,-0.0017592
-0.011141,-0.0027817,-0.0039894,-0.0013632,-0.0015989,0.0047859,0.0072793,-0.0096604
-0.0040259,-0.011828,-0.0042982,-0.0092274,-0.00095995,0.0046156,-0.00053978,0.0058704
0.0032989,0.010771,0.01142,0.0059976,-0.00018644,-0.003287,0.0074797,-0.0020693
-0.0047593,0.010506,-0.011501,0.0053665,0.00063676,0.0045462,-0.0077009,-0.0022294
0.0030621,0.0030592,0.0050362,-0.0032051,0.0014319,-0.003115,0.00076438,0.0054183
-0.0044947,-0.011636,-0.009363,0.011596,-0.005674,0.0049779,0.0015473,-0.0025169
0.0037936,0.0053117,0.0076754,0.0029083,0.010531,-0.0024525,0.0023473,-0.010361
0.0044446,-0.0010202,0.0013078,-0.013672,-0.0046555,-0.0020179,-0.004773,-0.0024567
-0.0026011,0.00037195,0.018246,0.008685,-0.0043568,0.006221,0.0035124,0.021193
-0.0017869,-0.0063473,-0.0041497,-0.0081768,-0.004187,0.006582,-0.0041227,0.0058595
-0.00099536,-0.021318,-0.02691,-0.0017437,0.0036746,-0.016598,-0.0042674,-0.0016598
-0.00028868,0.017906,0.01244,0.0046239,0.0035981,-0.00082607,0.0031047,-0.0092683
0.0080993,0.0019802,-0.026676,-0.012371,0.0033723,-0.00076595,-0.0053726,-0.0092329
-0.0071051,0.024748,0.02772,0.017769,0.0029565,-0.00074371,0.0094636,-0.0015952
0.00097558,-0.015219,-0.0039344,-0.014136,-0.005508,0.00711,0.0086598,0.0058432
-0.0066943,-0.0083919,0.0034756,-0.0063614,0.0013838,0.0072164,-0.015497,-0.010292
0.0089937,-0.0014983,0.010955,0.017737,0.00019792,-0.00040467,0.0073803,0.012598
-0.0065939,-0.0022227,-0.0049263,-0.0043662,-0.0011946,-0.0079532,-0.00078629,0.0043126
0.0012813,-0.0026606,-0.0051581,0.013119,0.005141,0.0079668,-0.00091871,0.004009
0.001405,0.0050438,-0.0054515,-0.00037257,-0.019679,-0.0073903,-0.00083916,-0.003879
0.017228,0.0052529,0.0097302,-0.013911,0.0026824,-0.007208,-0.00057657,-0.011528
-0.013761,0.013525,0.0012694,0.0034236,0.0021173,0.0084698,-0.00017311,-0.0033525
-0.013469,-0.0093099,-0.0073927,-0.0033359,0.010028,0.00056186,0.00032014,0.012758
0.010247,-0.00087526,-0.016184,-0.0031152,0.0030357,0.00032837,0.00084536,0.005453
0.0026494,-0.0081571,0.0062738,0.0040462,0.0045128,-6.265e-06,-0.0064736,-0.0019356
-0.0050591,-0.0077901,0.013264,0.0026279,-0.0091656,-0.0081984,0.0095446,-0.0016799
0.0027083,0.0080197,-0.010692,-0.014955,0.00077506,0.0070667,-0.0058577,-0.0094506
0.010303,0.00024355,0.012624,0.014108,0.0027449,0.0067881,0.0019418,-0.001805
-0.0057183,0.0002026,-0.0027156,-0.011413,0.0042258,-0.0089869,0.0094575,0.005688
-0.006273,0.0079793,0.0057102,0.010343,-0.0028525,-0.0011709,0.0010473,-0.0025027
0.00086839,-0.0076102,-0.0013182,0.0092754,-0.0029968,0.0067962,-0.0076353,-0.0028316
-0.0076695,0.0003353,-0.00056283,-0.0067075,-0.011808,-0.0085533,-0.0086949,0.0047949
0.0072482,0.00053946,-3.2576e-05,0.0092387,0.0021446,0.0074144,-0.0019965,0.0048063
-0.0011845,0.00073649,-0.015499,-0.013336,0.00010145,-5.758e-05,-0.0029943,0.005016
0.01396,0.00081129,-0.0079638,-0.0043277,-0.001945,-0.0076052,0.011925,-0.0024412
-0.0097932,0.016264,0.014796,0.0047811,0.0041745,0.0081455,0.0038461,-0.0020315
-0.0021324,-0.0076907,0.013845,0.0059666,0.010921,0.0080925,-0.003715,-0.0094839
0.0056675,-0.016405,-0.010629,-0.00092429,0.0028061,-0.0077677,0.0048578,0.006364
-0.0020549,0.005791,-0.0037205,-0.0081518,0.0032439,-0.0081474,-0.0096022,-0.0014092
-0.001898,-0.011277,-0.0042909,-7.9963e-05,-0.0035615,-0.0085955,-0.00040468,-0.0015445
-0.009513,0.010726,0.011245,-0.007878,-0.010072,0.0066135,0.016593,0.0060227
0.0063374,-0.0060769,-0.0039228,0.0076382,0.0068375,0.0063322,0.0020906,-0.009851
-0.0012238,0.0088608,-0.0029531,0.0075332,-0.0078043,0.0062656,-0.012852,-0.0021672
0.0068681,0.0010194,0.0062106,-0.00028213,0.00049439,0.0064499,-0.0049017,0.0057468
-0.00063903,0.0017108,-7.8235e-05,0.0076767,0.00040989,-0.0087582,-0.0053022,0.006146
-0.00031834,-0.0047527,0.0013644,-0.007664,-0.0080033,-0.0081792,-0.0061215,-0.00096535
-1.3271e-06,0.0048881,0.0024734,-0.007301,-0.0011466,-0.0075486,0.0084707,-2.8123e-05
0.0081027,0.014748,-0.012581,0.0086808,0.013392,0.016441,0.0074709,0.0088324
-0.0072731,-0.014525,0.0029621,0.0011364,-0.0032126,0.0011634,0.0067372,-0.013606
-0.022697,0.0027474,0.010042,-0.0065526,0.011739,0.001205,-0.0013726,0.0028089
0.016527,-0.011735,-0.0068422,-0.0065876,-0.0041261,-0.0069268,-0.0011589,0.0032626
0.0088495,-0.011158,-0.008396,0.0010603,0.0039204,0.00020944,-0.00828,-0.0045002
-0.014466,-0.0032804,-0.0099468,0.00082517,-0.01104,-0.0085681,0.00057074,-0.012665
0.016894,0.019856,0.012254,0.0083981,-0.017866,0.0059286,0.0017552,0.0022736
-0.0064584,-0.0040609,0.0037818,-0.0074226,0.014542,0.004802,0.0028541,0.0091739
0.0091983,0.011088,0.019491,0.0080615,0.0078948,0.0038555,0.01146,0.0081606
0.001334,0.010746,-0.010894,0.0079422,0.0010981,-0.012374,-0.019469,0.0071571
-0.02226,-0.0050239,-0.0015341,-0.0078484,0.0018369,0.0031035,0.0037315,-0.017195
0.00091299,-0.012789,-0.0073281,-0.00032733,-0.0055953,0.0034632,0.0029529,0.0054576
-0.0072556,-0.0047881,0.0026925,0.007007,0.0022154,0.0043,0.0017443,-0.0029985
0.015761,-0.0045288,-0.0030247,-0.017109,-0.013755,-0.0023048,-0.015333,0.0043063
0.0074898,-0.0042666,-0.001317,-0.0023132,0.0012752,-0.00089424,-0.0011777,-0.0038814
-0.00080876,0.019383,-0.00020528,0.0046325,0.0083762,0.008329,0.013177,0.0037001
0.006486,-0.0039275,0.00019123,0.0038812,0.0076927,-0.013901,0.012275,-0.004166
-0.0097015,-0.0039126,0.0076634,-0.012222,-0.0084583,0.0025561,0.0040192,-0.0039916
-0.0025012,0.0037812,-0.0011559,0.011132,-0.00092513,-0.0049075,-0.011589,-0.0035347
-0.0031417,0.0035076,-0.002682,0.011491,0.0068883,0.010553,-0.0033788,0.0050551
-0.0037517,-0.0047524,0.0032867,-0.0033769,-0.0084812,0.0021168,-0.010544,0.0061517
0.0035758,0.0024297,-0.0064579,0.0054628,0.0075766,-0.0066513,0.0058216,0.0075114
0.0033292,-0.0061862,-0.00825,-0.0090532,0.00026386,-0.0077582,0.0065098,-0.0066075
-0.012199,0.00068688,0.013734,-0.00025146,0.00071179,0.0068116,-0.00078367,-0.0051238
0.011742,0.0074901,0.004948,0.00045019,-0.0068062,-0.0018145,0.0073072,0.0039519
0.0048359,-0.0013105,-0.011101,-0.0070424,0.0010846,0.0055697,-0.016115,-0.010827
