-0.028504,0.13305,-0.042797,-0.06179,-0.034337,-0.031378,-0.021197,-0.035068
-0.017225,-0.16382,-0.016188,0.03749,0.003486,0.022761,0.016172,0.0017702
0.06432,0.22101,0.062406,0.019768,-0.0060321,0.0061261,0.014694,0.0069414
0.17782,0.14028,0.053207,0.049525,0.023395,0.020497,0.021456,0.066815
-0.12934,-0.5761,-0.18316,-0.091708,-0.03284,-0.035427,-0.033729,-0.04475
-0.052361,0.30052,-0.12193,0.0023664,0.0052688,0.0026482,-0.010234,-0.030574
0.0099603,-0.22011,0.034795,0.0033914,0.012853,0.0020527,0.013677,0.0078933
0.46319,0.77751,0.74835,0.30932,0.17731,0.11905,0.11587,0.23461
-0.56066,-0.72938,-0.77075,-0.39298,-0.21263,-0.15428,-0.15709,-0.2804
0.41439,0.81375,0.87476,0.31774,0.15505,0.11155,0.10854,0.17341
-0.5337,-1.0157,-0.92615,-0.31682,-0.15762,-0.099344,-0.1031,-0.18557
0.032955,0.42171,-0.073681,-0.10936,-0.080739,-0.037181,-0.026477,-0.045154
0.1855,0.078107,0.26666,0.21362,0.11988,0.079119,0.08067,0.13355
-0.067277,-0.54738,-0.19506,-0.027247,-0.008868,-0.00051686,-0.0080225,-0.0089033
0.33796,0.87296,0.90046,0.34039,0.16606,0.091137,0.06713,0.13691
0.12814,-0.37178,-0.43038,-0.15162,-0.058033,-0.044192,-0.029441,0.032091
-0.36095,0.015763,-0.1312,-0.112,-0.086818,-0.070264,-0.047351,-0.14339
-0.25498,-0.33072,-0.32441,-0.21184,-0.091466,-0.064783,-0.07217,-0.17812
0.28888,0.69939,0.17291,0.026214,0.0068929,0.027431,0.052652,0.061341
-0.058483,-0.43153,-0.26856,-0.022087,0.013623,0.034973,0.030425,0.044438
-0.063511,0.027935,0.44021,0.17497,0.077625,0.044117,0.0017932,0.037416
0.46078,-0.39765,-0.12845,0.25804,0.15215,0.086216,0.099398,0.25159
-0.47793,0.12802,0.229,-0.078102,-0.083395,-0.088896,-0.12242,-0.24274
0.12067,0.28393,0.06575,-0.16254,-0.1062,-0.036327,0.023389,0.0071757
0.046326,0.18522,-0.12138,0.0035117,0.043784,0.016771,-0.010564,0.00057688
-0.47346,-0.12455,-0.27423,-0.30766,-0.16566,-0.10213,-0.091925,-0.17756
0.85136,0.62398,0.4306,0.54372,0.31925,0.23915,0.23206,0.43266
-0.7675,-1.0811,-0.81583,-0.55217,-0.2991,-0.24113,-0.24981,-0.41974
0.38125,0.56953,0.67084,0.33429,0.14285,0.11292,0.12639,0.16285
0.149,-0.48012,-0.071899,0.031428,0.043259,0.019866,0.0090388,0.054872
-0.17581,-0.13546,-0.34861,-0.23392,-0.1448,-0.074988,-0.031523,-0.087654
0.37463,0.5675,0.88151,0.71035,0.39915,0.2582,0.20012,0.32133
-0.63029,-0.39777,-0.95664,-0.87003,-0.50428,-0.36309,-0.31929,-0.47549
0.019691,0.59146,0.25801,0.189,0.067266,0.061529,0.051133,0.038311
0.26182,-0.29524,0.50623,0.44987,0.30183,0.18094,0.13204,0.23092
-0.27881,-0.021973,-0.84087,-0.58746,-0.31566,-0.16848,-0.09965,-0.17788
0.38251,0.50822,0.86815,0.41292,0.21532,0.13077,0.08297,0.16438
0.0038795,-1.2189,-1.0214,-0.2364,-0.034532,-0.01485,0.016103,0.062998
-0.25056,0.34306,0.4901,-0.035308,-0.096193,-0.074005,-0.089146,-0.17708
0.15811,0.32441,0.19722,0.33674,0.17113,0.10173,0.056351,0.10034
-0.036043,0.23662,-0.0058232,-0.15118,-0.10745,-0.073612,-0.023974,-0.081555
0.33084,0.59769,0.58652,0.11864,0.036986,0.040623,0.04484,0.073772
-0.38957,-0.71551,-0.41415,-0.23586,-0.10629,-0.071059,-0.04975,-0.019895
-0.31386,-0.79452,-0.60617,-0.17463,-0.060419,-0.064679,-0.081201,-0.19084
0.17628,0.45785,-0.038987,0.11598,0.081106,0.083481,0.091109,0.13121
0.30106,0.37505,0.49067,0.23083,0.15438,0.092414,0.06875,0.15723
-0.25833,-0.22288,-0.56902,-0.21983,-0.18439,-0.13151,-0.12484,-0.24557
0.42117,0.55657,0.64637,0.24879,0.16605,0.14605,0.14313,0.28217
-0.23795,-0.66558,-0.17721,0.14435,0.10364,0.034267,-0.025763,-0.017445
0.084562,0.35809,0.47439,-0.17442,-0.1847,-0.13123,-0.084645,-0.16017
-0.29947,-0.28043,-0.90137,-0.35698,-0.16042,-0.10858,-0.088156,-0.1461
0.015048,0.12024,0.73801,0.11889,0.035496,0.055067,0.073119,0.095002
0.22203,-0.55191,-0.75493,0.025316,0.090373,0.054758,0.047596,0.063057
-0.078477,0.33933,0.11045,-0.0062859,-0.0036674,-0.00037363,0.0070004,0.0079024
0.010523,0.31831,0.65838,0.29608,0.1283,0.069063,0.036942,0.093289
-0.020026,0.39096,-0.27297,-0.10813,-0.09983,-0.065433,-0.058382,-0.095325
0.3446,0.2013,0.82582,0.20947,0.11631,0.11134,0.10326,0.17586
-0.38825,-0.99902,-0.9258,-0.15049,-0.012702,-0.04947,-0.080256,-0.17963
-0.4216,-0.26352,-0.53935,-0.61011,-0.35439,-0.25125,-0.18743,-0.2715
0.77637,0.87841,0.8202,0.56561,0.31767,0.25594,0.26598,0.44711
-0.051198,-0.21018,-0.30603,0.17505,0.097316,0.034806,-0.055796,-0.054701
-0.55164,-0.24988,-0.49952,-0.73283,-0.42134,-0.26581,-0.19144,-0.29973
0.26039,0.048884,0.31561,0.44575,0.2622,0.18277,0.17207,0.1503
0.049533,0.0087528,0.31623,0.10319,0.039093,0.0060859,-0.019458,-0.00080846
-0.23892,-0.52326,-0.44017,-0.30651,-0.16058,-0.10016,-0.054754,-0.088586
0.63655,1.1435,1.1709,0.80225,0.42115,0.30172,0.2538,0.44161
-0.17681,-0.42642,-0.4954,-0.63454,-0.34863,-0.24926,-0.21111,-0.28572
-0.48508,-0.53719,-0.35234,-0.14266,-0.11084,-0.081486,-0.082549,-0.16203
0.28874,0.46621,0.029082,0.27531,0.17321,0.10161,0.076718,0.11643
0.23015,0.67518,0.28163,0.0782,0.065728,0.09663,0.12592,0.19737
-0.25401,-0.27996,-0.24837,-0.070975,-0.034934,-0.041842,-0.098911,-0.13822
-0.20894,-0.48663,-0.20259,-0.038943,-0.027011,-0.063669,-0.073976,-0.17123
-0.061814,-0.45984,-0.0068948,-0.35491,-0.18343,-0.085638,-0.017416,-0.041287
0.13551,0.2177,0.29246,0.24228,0.13718,0.072552,0.040257,0.081195
0.33082,0.23912,-0.37092,0.022275,0.091921,0.099122,0.15445,0.29162
-0.24785,-0.10728,-0.077751,-0.24548,-0.17783,-0.14588,-0.17432,-0.29917
0.37609,0.30272,0.52756,0.59026,0.30499,0.20522,0.15571,0.27854
-0.61143,-0.51772,-0.68723,-0.44601,-0.36576,-0.26929,-0.21502,-0.39687
0.52113,0.54307,0.72631,0.46516,0.2393,0.20383,0.18168,0.27562
0.043627,0.29615,0.42158,0.10236,0.1117,0.061548,0.032485,0.060389
-0.60213,-0.6933,-0.8676,-0.74916,-0.35103,-0.24379,-0.17138,-0.22401
0.39365,0.33248,0.78402,0.36743,0.21736,0.16972,0.12386,0.20171
-0.07977,0.56753,0.081498,-0.043579,-0.058926,-0.073753,-0.098137,-0.13299
0.12638,-0.52777,-0.76868,-0.10949,0.014897,0.04074,0.07631,0.090848
-0.3844,-0.49054,-0.30621,-0.010685,-0.037898,-0.049672,-0.07938,-0.15868
-0.0074048,-0.049456,-0.065417,0.019297,-0.01398,-0.0012687,0.0054465,-0.022017
0.55802,0.24282,0.39374,0.45126,0.25123,0.19406,0.22204,0.40807
-0.33289,-0.13147,-0.35128,-0.53242,-0.31965,-0.25998,-0.2491,-0.44493
0.39307,0.89815,0.89673,0.32883,0.16478,0.12172,0.12409,0.24128
-0.55148,-1.113,-0.80547,-0.41593,-0.21664,-0.16011,-0.18889,-0.28128
0.09926,0.2877,0.52651,0.23451,0.15368,0.12951,0.10931,0.14526
0.093968,0.4794,0.10002,0.16296,0.08828,0.07677,0.096946,0.12343
0.00036658,-0.091973,0.17294,0.047848,-0.0070447,-0.02156,-0.0074865,-0.034238
0.15873,0.078118,-0.31302,-0.10521,-0.0316,-0.0019325,-0.0093229,0.085389
-0.0050433,-0.087044,0.12051,0.005823,-0.0021443,-0.044835,-0.065726,-0.11318
-0.18974,-0.29096,-0.33,-0.10593,-0.044841,-0.018357,-0.029266,-0.022765
0.016208,-0.26067,-0.52958,-0.18441,-0.066865,-0.024855,0.021021,-0.012805
0.25239,0.97365,0.74497,0.35575,0.18132,0.13049,0.11575,0.15708
-0.3008,-0.41214,-0.21775,-0.14875,-0.12829,-0.10706,-0.10467,-0.15474
-0.266,-0.66045,-0.16539,-0.1568,-0.073077,-0.065219,-0.054092,-0.15924
0.50099,0.82583,0.66437,0.34231,0.16069,0.12401,0.11972,0.24616
-0.23793,-0.47842,0.18351,-0.13251,-0.034846,-0.038282,-0.05881,-0.077407
-0.057185,-0.62048,-0.96155,-0.21883,-0.080041,-0.027538,-0.018228,-0.018323
0.014499,0.031373,-0.21921,0.023045,-0.043984,-0.04593,-0.046504,-0.035304
0.25127,0.74698,0.22571,0.070546,0.058376,0.063363,0.044689,0.053123
0.39399,1.0111,0.88871,0.52453,0.25825,0.17541,0.16981,0.27141
-0.57604,-0.48461,-0.80372,-0.60945,-0.29668,-0.22589,-0.19471,-0.38037
0.063474,-0.3875,0.82217,0.3761,0.1891,0.11637,0.083302,0.12815
-0.19981,-0.19755,-0.045963,-0.29624,-0.20799,-0.13491,-0.075301,-0.095292
0.067722,0.35242,-0.20496,0.1354,0.12758,0.097203,0.086078,0.18161
0.43385,-0.24004,-0.33291,0.12918,0.092921,0.077346,0.050658,0.073911
-0.28958,-0.64407,-0.66729,-0.26924,-0.13294,-0.077864,-0.073042,-0.10765
-0.12473,0.17961,0.39415,-0.059262,-0.1046,-0.11848,-0.12134,-0.18448
-0.04513,0.055394,0.34022,-0.012034,-0.00087551,0.018454,0.023149,-0.016111
-0.06222,-0.12857,-0.19699,0.071262,0.093699,0.076016,0.072065,0.10131
0.49267,0.67024,0.88448,0.37429,0.17296,0.13343,0.12806,0.22393
-0.25908,-0.088604,-0.67348,-0.2712,-0.13656,-0.12072,-0.12012,-0.18542
-0.29104,-0.20239,-0.96721,-0.33928,-0.20103,-0.16997,-0.15573,-0.22643
0.37469,0.63355,0.96602,0.43655,0.21431,0.17359,0.14702,0.21177
0.1516,0.069186,0.38968,0.016282,0.05432,0.050473,0.061872,0.14564
-0.27509,-0.56176,-0.1708,-0.032369,-0.010234,-0.00085162,0.0026099,-0.026356
0.16924,0.22264,-0.044156,0.09938,0.05033,0.026449,0.054398,0.077871
-0.37096,-0.7251,-0.27098,-0.30346,-0.21877,-0.15782,-0.19012,-0.34761
0.12398,0.20401,0.0077146,0.11497,0.056073,0.046883,0.056913,0.11762
0.42478,0.61155,0.59929,0.1884,0.13191,0.1008,0.099156,0.1832
-0.32138,-0.56437,-0.49687,-0.27105,-0.15534,-0.12126,-0.13437,-0.23769
-0.074897,-0.32396,-0.49505,-0.12121,-0.008011,-0.0017724,0.035857,0.096813
0.064864,0.25856,0.1528,0.055165,0.020557,0.014769,-0.007046,-0.0083955
-0.26584,-0.046769,-0.39298,-0.034641,-0.013294,-0.015868,-0.012371,-0.029216
0.17136,0.097115,0.42698,0.19955,0.079514,0.063693,0.075488,0.074309
0.083263,0.44265,0.4356,0.1909,0.10485,0.035637,-0.031604,0.0062222
0.0896,0.31981,0.18593,-0.12881,-0.12418,-0.068223,-0.020387,-0.053041
0.14432,0.15152,0.36614,0.22524,0.14238,0.11161,0.086165,0.10011
-0.16777,-0.86516,-0.68477,-0.3887,-0.16636,-0.10487,-0.079007,-0.096684
-0.021381,0.43128,0.28203,0.042803,-0.020047,0.0083144,0.038602,0.036128
-0.14707,-0.40772,-0.68984,-0.1549,-0.052473,-0.065242,-0.084842,-0.11116
0.35711,0.17988,0.45911,0.28102,0.15734,0.1034,0.10485,0.18762
-0.30169,-0.29303,-0.23284,-0.12839,-0.063178,-0.048885,-0.06469,-0.12264
0.14749,0.16224,-0.18476,0.013502,-0.0035161,0.0087473,0.0077288,0.020283
-0.3898,-0.3725,0.19602,-0.020998,-0.031075,-0.036377,-0.045304,-0.071283
0.40017,0.16713,0.029144,0.11136,0.072861,0.081415,0.1121,0.16514
0.1453,0.55244,0.3507,0.26218,0.12869,0.057658,0.0034816,0.010894
-0.61911,-0.1081,-0.13033,-0.60717,-0.30877,-0.21669,-0.16003,-0.24479
0.11912,-0.0745,-0.55693,0.050947,0.034116,0.024356,0.028027,0.038874
0.5358,0.10857,0.73113,0.47965,0.25126,0.1952,0.1616,0.26827
-0.18669,-0.3738,-0.27993,-0.23409,-0.11808,-0.078938,-0.071724,-0.15034
-0.078559,-0.075937,-0.12955,0.051391,0.0043884,-0.0088678,-0.01571,-0.021744
0.21103,0.59168,0.46131,-0.0066425,-0.0061222,0.0069693,0.017019,0.052274
-0.3983,-0.31613,-0.37766,-0.18845,-0.1103,-0.086189,-0.083089,-0.14732
0.15268,0.13646,-0.11823,0.045983,0.051532,0.039686,0.04316,0.05889
0.22757,0.44791,0.79249,0.21314,0.12033,0.10327,0.10658,0.20192
-0.16125,-0.38926,-0.44216,-0.030018,-0.012954,-0.036064,-0.056921,-0.077692
-0.16459,-0.59811,-0.7025,-0.21431,-0.1137,-0.089211,-0.080073,-0.13926
-0.064905,-0.31989,-0.20293,-0.066237,-0.056763,-0.040447,-0.025197,-0.037246
0.28627,0.26826,0.24136,0.21065,0.11874,0.086881,0.076687,0.088102
0.022771,0.6785,0.43943,0.15448,0.06881,0.058424,0.046096,0.057488
-0.4632,-0.67074,0.43246,-0.11113,-0.074176,-0.063418,-0.085613,-0.13659
0.34563,0.98093,0.21147,-0.087889,-0.013944,0.01798,0.056513,0.12314
0.10675,-0.47612,-0.40785,-0.027594,-0.0089804,-0.0024568,0.019138,0.055255
0.031651,0.35319,-0.018711,0.1072,0.065064,0.023239,-0.010585,-0.036041
0.041977,0.049246,-0.28584,-0.098809,-0.065778,-0.038215,-0.025252,-0.03423
-0.28499,-0.60512,-0.31089,-0.1151,-0.050287,-0.046577,-0.056497,-0.11975
0.0027612,0.096037,0.49407,0.19096,0.064534,0.052609,0.043831,0.066121
0.06052,-0.34942,-0.5377,-0.094408,-0.033737,-0.029754,-0.013465,0.022919
0.22377,0.53675,0.82113,0.25602,0.13952,0.11275,0.091962,0.14894
-0.21032,-0.47432,-0.44898,-0.2568,-0.13407,-0.10545,-0.085003,-0.12593
-0.037498,0.35237,-0.083948,0.055785,0.013134,0.0036392,0.0028459,-0.058936
0.056532,-0.23126,0.35344,0.054466,0.058209,0.050017,0.051251,0.053923
-0.20729,-0.16927,-0.48851,-0.15774,-0.092041,-0.075037,-0.087743,-0.083147
0.27476,0.49804,0.38922,0.13166,0.055148,0.027541,0.055096,0.085687
-0.042515,-0.039091,0.007408,0.025746,0.023782,0.022338,-0.0041764,-0.0088608
-0.064535,0.33497,0.18169,-0.10685,-0.068418,-0.012166,-0.0074161,-0.022294
0.16945,0.154,-0.54785,-0.046199,0.021193,0.017933,0.029952,0.076988
0.017665,-0.24591,0.46645,0.32567,0.16015,0.081329,0.029863,0.062352
-0.22486,-0.82594,-0.38686,-0.42064,-0.26853,-0.17377,-0.12494,-0.19946
0.13513,0.032314,0.13166,0.19116,0.12581,0.088238,0.088798,0.10338
-0.06821,0.2471,-0.04327,-0.03511,-0.047602,-0.039291,-0.040094,-0.061155
0.17187,0.58415,0.57039,0.26642,0.14056,0.091703,0.07404,0.11874
-0.19939,-0.23406,-0.24764,-0.1481,-0.044624,-0.050364,-0.037834,-0.068394
-0.14201,-0.3025,-0.7245,-0.21793,-0.10383,-0.067331,-0.055674,-0.083814
0.017535,0.058953,0.28845,0.094304,0.048085,0.056197,0.043709,0.041108
0.14054,0.13205,0.15114,-0.033112,-0.027185,-0.023748,-0.013353,0.017291
0.056753,-0.13103,0.0044293,0.086267,0.044584,0.028531,0.0072967,0.024403
0.071625,0.023658,0.30852,0.084561,0.036157,0.033062,0.027312,0.038881
-0.096459,0.049316,-0.37637,-0.17141,-0.076416,-0.057355,-0.04728,-0.072363
0.035345,0.19947,0.19578,0.09171,0.026883,0.030392,0.033312,0.041819
0.39432,0.46569,0.39446,0.2022,0.12727,0.10074,0.10487,0.17003
-0.52232,-0.80426,-0.7008,-0.3005,-0.1578,-0.14329,-0.14518,-0.22717
-0.1234,-0.4207,-0.2136,-0.072063,-0.054356,-0.037507,-0.029284,-0.064015
-0.0045417,0.32955,0.38971,0.1148,0.039919,0.043463,0.015247,0.026783
0.16928,0.80218,0.44948,0.096839,0.055577,0.014259,0.035575,0.061231
0.085657,-0.041843,-0.15201,-0.01575,0.016895,0.024017,0.032034,0.0399
0.1518,0.029297,0.15854,0.074667,0.041746,0.026563,0.036192,0.057184
-0.13852,-0.66832,-0.37001,-0.14686,-0.064733,-0.040017,-0.045439,-0.066006
-0.13494,-0.71081,-0.93859,-0.10943,-0.044541,-0.026902,-0.032989,-0.040128
0.11775,0.67472,0.91041,0.26561,0.094468,0.058232,0.034604,0.072656
0.012227,0.11595,-0.036789,-0.068121,-0.030726,-0.019097,-0.022263,-0.047762
-0.16061,-0.11853,-0.22212,-0.16492,-0.084476,-0.040456,-0.031643,-0.057531
0.061624,0.11201,0.18214,0.11611,0.08135,0.056203,0.053401,0.058997
0.11732,0.028524,0.060872,-0.084333,-0.017899,-0.018692,0.0063494,0.020521
-0.14173,-0.05404,0.15222,0.030393,-0.030882,-0.031245,-0.047788,-0.048087
-0.0050793,0.41338,0.29032,0.076926,0.026612,0.018171,0.02376,-0.0064114
0.33083,0.50411,0.2038,0.12473,0.0529,0.035586,0.041207,0.12182
-0.10433,-0.46312,-0.39573,0.00090829,0.016654,0.00534,-0.0034066,-0.030905
-0.21072,-0.36605,-0.43581,-0.25649,-0.12123,-0.088062,-0.071195,-0.11338
0.11162,0.044928,0.18353,0.17204,0.10016,0.068135,0.064219,0.092836
-0.3338,-0.46747,-0.67422,-0.31554,-0.14731,-0.096083,-0.089532,-0.14687
0.2804,0.33526,0.66519,0.26504,0.12851,0.12266,0.092382,0.15169
0.01646,-0.33249,-0.36111,-0.10957,-0.049084,-0.048981,-0.046464,-0.050664
-0.055309,-0.094368,-0.016065,0.013917,-0.00063599,-0.0095232,-0.0062553,-0.043144
0.04961,0.15569,0.41453,0.14332,0.046924,0.029794,0.025304,0.041291
0.36264,0.88325,0.72905,0.27065,0.13223,0.084156,0.087081,0.20249
-0.35818,-0.23776,-0.49625,-0.31538,-0.13574,-0.081276,-0.071069,-0.15338
-0.07343,0.063705,-0.087508,-0.060314,-0.038441,-0.021538,-0.019491,-0.057531
-0.13406,-0.21192,0.016268,-0.096924,-0.067994,-0.057051,-0.062746,-0.11125
0.023364,-0.30285,-0.595,-0.026208,-0.0052278,-0.0001052,0.0026054,-0.0015514
0.3766,0.41729,0.56623,0.23889,0.13496,0.087315,0.10672,0.23318
-0.21364,-0.13649,-0.27751,-0.14381,-0.076201,-0.059666,-0.062333,-0.12505
0.21487,0.35087,0.47289,0.28845,0.18258,0.13012,0.097592,0.19788
-0.2274,-0.63042,-0.58153,-0.24378,-0.1425,-0.092525,-0.077049,-0.15684
-0.078733,-0.25822,-0.064572,-0.043653,-0.0508,-0.031619,-0.046805,-0.10289
-0.065365,-0.43357,-0.23977,-0.118,-0.049736,-0.030522,-0.0067746,-0.015115
0.2422,0.73342,0.94949,0.36942,0.18886,0.11397,0.089922,0.16113
-0.00056837,0.1637,-0.30861,-0.20694,-0.093102,-0.051544,-0.030364,-0.043196
-0.17781,0.17425,-0.1482,-0.08286,-0.052492,-0.027641,-0.016493,-0.050457
0.19307,0.14063,0.13035,0.09889,0.044182,0.028578,0.013756,0.068327
-0.0070951,-0.081659,0.092177,0.054374,0.023974,-0.0010754,-0.010621,-0.03924
0.03238,0.1325,0.34085,0.10104,0.034191,0.023001,0.02686,0.047848
-0.033573,-0.24233,-0.19905,-0.021545,0.019108,0.037419,0.016212,0.008505
-0.15077,-0.24724,-0.80401,-0.15126,-0.068941,-0.067819,-0.066432,-0.071887
-0.021924,0.18042,0.10394,-0.11716,-0.058497,-0.042965,0.0052998,-0.021702
-0.036391,-0.5884,0.14498,0.010647,0.011394,0.026195,0.036165,0.049767
-0.028372,-0.084728,0.012236,0.0068964,-0.0072797,-0.031711,-0.075103,-0.091495
0.16793,0.35964,0.38469,0.19395,0.089335,0.049683,0.070384,0.078479
0.0147,0.11101,-0.050669,-0.08202,-0.04945,0.0055749,-0.0034289,0.005554
0.051362,0.59176,0.13431,0.048504,0.030352,0.016398,0.00081236,0.0026776
0.22266,0.53677,0.061239,0.12655,0.056028,0.043649,0.044431,0.10138
-0.18367,-0.85902,-0.041041,-0.065212,-0.026591,-0.013908,-0.020743,-0.026365
-0.14581,-0.63646,-0.67234,-0.18998,-0.1,-0.078042,-0.053923,-0.083652
-0.11835,0.060347,0.29856,0.026056,0.031223,-0.008188,-0.015973,-0.078267
0.17129,0.10883,-0.22508,0.090683,0.062381,0.054869,0.069685,0.12271
-0.26135,0.15757,0.28389,-0.23869,-0.1395,-0.092215,-0.093869,-0.16799
0.19369,0.3447,0.34398,0.2559,0.1206,0.097172,0.07137,0.11235
-0.025135,-0.37418,-0.41736,-0.10643,-0.056158,-0.041336,-0.020747,0.010792
0.26279,0.86803,0.58052,0.20397,0.11873,0.070035,0.059157,0.074182
-0.082563,-0.18046,0.083121,0.0055493,-0.019395,-0.0065879,-0.0018006,0.0053742
-0.08454,-0.61559,-0.85011,-0.11767,-0.064895,-0.037186,-0.039961,-0.032066
0.045564,-0.11023,0.029808,-0.042296,-0.018247,-0.022032,-0.016603,-0.038757
-0.23971,-0.41283,-0.23697,-0.17558,-0.082833,-0.062818,-0.049112,-0.11685
0.21537,0.55203,0.32121,0.16981,0.10075,0.074887,0.065637,0.11608
-0.011201,0.54331,0.54421,0.11966,0.071918,0.047577,0.02318,0.027105
-0.012692,-0.34045,-0.032658,-0.05095,-0.035916,-0.011515,-0.0041843,-0.00071393
0.055799,0.04904,-0.085675,-0.019474,0.0046305,-0.0080948,-0.008066,0.01758
-0.11645,-0.43492,-0.47978,-0.13497,-0.078967,-0.043109,-0.026879,-0.049987
-0.097591,-0.28216,-0.096821,-0.074781,-0.051452,-0.037831,-0.036563,-0.07745
0.13798,0.69652,0.53183,0.17844,0.072247,0.031678,0.018054,0.045484
-0.11897,-0.02255,0.27254,0.031711,0.0034246,0.0094553,0.035644,0.014802
0.11672,0.12778,-0.37572,0.078354,0.070107,0.051743,0.016117,0.049503
-0.014769,-0.31223,-0.25743,-0.089456,-0.056428,-0.052752,-0.02535,-0.046017
0.055075,0.10825,-0.25549,-0.02886,0.0056056,0.015603,0.012046,0.024279
0.40924,0.18856,0.77924,0.34324,0.19242,0.15433,0.13517,0.22788
-0.54964,-0.68816,-0.52693,-0.45237,-0.24729,-0.20786,-0.20384,-0.28826
0.026339,0.39139,0.12442,-0.0034975,-0.017685,0.014091,0.017652,-0.0177
-0.022027,0.37179,-0.070072,-0.0062131,-0.0021812,0.0070744,0.0022696,0.0072926
0.045724,-0.11371,0.36678,0.086857,0.041391,0.013063,0.023356,0.036271
0.19036,-0.42198,-0.26848,0.066354,0.074497,0.055696,0.065607,0.1007
-0.0086089,0.39757,0.49161,0.090809,0.043404,0.033989,0.028131,0.060781
-0.46257,-0.51395,-0.86284,-0.32166,-0.19914,-0.1684,-0.17411,-0.2931
0.21471,0.50311,0.47824,0.26083,0.10591,0.082331,0.069251,0.10311
0.15177,-0.10018,-0.10474,0.011721,0.022067,0.021493,0.040371,0.063484
-0.093741,-0.54318,-0.26213,-0.1074,-0.035881,-0.029834,-0.041308,-0.066966
0.40977,0.86908,0.73924,0.20792,0.10423,0.1007,0.098015,0.18127
-0.36058,-0.55994,-0.265,-0.15264,-0.088963,-0.078986,-0.065108,-0.10575
0.094476,0.19784,-0.39932,0.0047989,0.024672,0.024658,0.023658,0.048039
-0.1956,-0.19151,-0.13903,-0.11814,-0.055571,-0.041972,-0.042546,-0.084934
-0.069132,0.17736,0.20499,0.0084555,-0.0023764,0.0017534,0.0011764,-0.029385
0.27608,0.22269,0.16564,0.024245,0.019422,0.006747,0.0056792,0.041508
0.15812,0.27486,0.68952,0.27245,0.12638,0.089627,0.064144,0.12665
-0.34652,-0.75072,-0.80858,-0.27831,-0.14288,-0.11721,-0.089403,-0.16531
-0.090256,-0.17266,-0.2582,-0.01068,-0.015103,-0.012426,-0.0019311,-0.02994
0.075235,0.52795,0.34036,0.075698,0.033159,0.036747,0.014192,0.040744
0.22863,0.41151,0.4632,0.11405,0.056803,0.05385,0.053013,0.078515
-0.074421,-0.75563,-0.67134,-0.1296,-0.061037,-0.039057,-0.033532,-0.040915
0.042246,0.061197,0.1866,0.063815,0.062821,0.031672,0.036165,0.058185
-0.21713,-0.093483,-0.11124,-0.11796,-0.079092,-0.061904,-0.065755,-0.10014
0.070269,0.060118,0.24032,0.090866,0.029121,0.016277,0.020216,0.015738
0.18637,0.30914,-0.062734,-0.012729,0.012625,0.016273,0.020618,0.054372
-0.063712,0.04827,0.23028,0.04007,0.03553,0.03964,0.01342,0.015618
-0.062561,-0.064994,-0.37233,-0.094459,-0.066283,-0.062113,-0.025067,-0.05398
-0.060079,-0.48585,-0.261,-0.017881,0.011744,0.0078123,-0.0091879,-0.02204
0.068778,0.57738,0.39213,0.12135,0.035073,0.022784,0.037372,0.056328
-0.10566,0.35949,0.37537,0.026319,-0.0042545,-0.017236,-0.026158,-0.0066873
0.13532,-0.40562,-0.20305,-0.045145,-0.0047667,0.02058,0.0033479,-0.0080917
-0.10685,-0.14733,-0.368,-0.08517,-0.05241,-0.027759,-0.022389,-0.041557
0.11286,-0.027081,0.074352,0.039208,0.02477,0.017561,-0.0015115,0.010376
0.075259,-0.1716,-0.056952,-0.0077168,0.031609,0.0082704,0.027293,0.023112
-0.1265,-0.46937,-0.10654,-0.04599,-0.0082705,-0.016387,-0.021538,-0.0029043
-0.047725,1.0931,0.92524,0.14336,-0.00094823,-0.0093718,0.016352,-0.012603
0.076655,-0.35118,-0.40664,-0.056774,-0.00099491,0.021612,0.031735,0.048938
-0.027162,-0.1055,-0.56215,-0.076207,-0.024008,-0.02498,-0.037922,-0.013562
