-0.0075075,0.030666,-0.016321,0.02618,0.050662,0.3165,-0.12482,-0.42935
0.017375,-0.054278,-0.10284,-0.035124,-0.058583,-0.34371,-0.043066,0.15644
-0.010777,0.1511,0.10981,0.014242,0.0044496,-0.1049,0.04726,0.15074
0.056354,0.052889,0.14489,0.064646,0.029087,0.30752,0.22469,-0.01688
0.030919,-0.068222,-0.14667,-0.056272,-0.023547,0.027161,0.16121,0.60465
-0.048552,-0.0099328,0.015411,0.025854,0.010637,-0.016184,-0.5183,-0.76967
-0.049894,-0.0075218,0.012861,-0.0099481,0.029892,0.13778,0.19373,0.10542
-0.036279,-0.030492,-0.053741,-0.01579,-0.0052358,0.058083,0.23456,0.1157
0.054172,-0.0011205,0.018055,0.00019087,0.0062734,-0.51467,-0.42715,-0.17252
-0.029055,-0.1303,-0.10793,-0.047976,0.016961,0.45715,0.27123,0.27737
0.065241,0.12151,0.15445,0.050908,-0.05179,-0.19922,-0.18566,-0.34753
0.008774,0.067611,-0.014541,-0.038593,-0.067438,-0.26508,0.069695,0.15755
0.043835,-0.048888,-0.028158,0.074778,0.13411,0.50262,0.18594,-0.20399
-0.024442,0.022906,-0.065207,-0.038021,-0.040528,-0.31647,-0.047867,0.2755
0.039166,0.049347,0.078247,0.022001,0.010838,0.24052,0.21172,0.53835
-0.1938,-0.047186,0.074722,-0.026022,-0.10162,-0.2387,-0.43434,-0.583
0.0047161,0.046091,0.088713,0.068085,0.052565,-0.057559,-0.057218,-0.62461
-0.051312,-0.22542,-0.30924,-0.11759,-0.010398,0.14357,0.0373,0.35988
0.061106,0.12258,0.084015,0.01049,-0.032477,-0.073702,-0.011489,0.18176
0.13142,-0.027377,-0.067593,0.037864,0.1814,0.41363,0.32615,0.1578
0.0809,0.11332,0.13403,0.026534,-0.064772,-0.28003,0.15023,0.57959
0.056388,-0.010701,0.047692,0.0071769,-0.0063531,0.092393,0.10792,0.10521
-0.18667,0.013775,-0.030518,-0.020777,0.0040314,0.012883,-0.67632,-0.94248
-0.010337,-0.032924,1.3705e-05,0.0046903,-0.034465,-0.05097,0.39972,-0.050879
0.020511,-0.011012,0.021124,0.0051423,-0.051925,-0.50495,-0.25562,-0.3135
0.14649,0.0085994,-0.053943,-0.035114,-0.071606,0.18426,-0.13108,0.56253
-0.2343,-0.052464,0.0087015,0.032558,0.11034,-0.034797,0.066743,-0.25197
-0.066238,-0.084694,-0.040971,-0.041398,-0.036246,0.27118,-0.032752,0.22787
-0.081618,0.029545,-0.077517,-0.029821,-0.010218,0.37872,0.44896,-0.044609
0.12853,0.14243,0.11864,0.028857,-0.029398,-0.31184,-0.056554,-0.11029
0.3951,0.020218,-0.013996,0.072659,0.24261,0.082664,0.22389,0.46314
-0.24839,-0.070971,-0.052557,-0.046557,-0.092722,-0.57165,-0.65735,-0.19279
0.019663,0.072317,0.14433,0.030604,-0.028164,0.42629,0.20206,0.42481
-0.019312,0.02838,0.077052,0.06952,0.060436,0.69915,0.40672,-0.30092
-0.18652,-0.17144,-0.19968,-0.14117,-0.24965,-0.92684,-0.60282,-0.6988
0.14913,-0.08175,-0.02992,0.03086,0.11129,0.47706,0.34918,0.51232
-0.061427,-0.069647,-0.11726,-0.094486,-0.09134,-0.76853,-0.35709,-0.23603
0.11707,0.38838,0.32685,0.15441,0.095736,-0.30298,0.12116,-0.15019
-0.020427,-0.090444,-0.10427,-0.027167,0.094821,0.83638,0.36268,0.56639
0.13423,-0.014001,0.0032244,0.001568,-0.038875,0.26805,0.1429,-0.35747
-0.16144,0.11762,0.086885,0.05348,0.14043,0.43769,-0.37893,0.55106
-0.19575,-0.24251,-0.22013,-0.14438,-0.23417,-0.74163,-0.58992,-0.48416
0.0095521,-0.14125,-0.057863,0.01007,-0.05318,-0.31107,0.76343,-0.21576
0.16772,0.085583,0.066534,0.032914,0.097333,0.29709,-0.034692,0.39209
0.078104,0.0083615,0.012952,-0.020899,0.021766,0.30707,0.064491,-0.008872
-0.093106,0.15821,0.14872,0.14548,0.14156,-0.16534,-0.36819,-0.47173
0.085082,0.16751,0.07502,-0.04645,-0.10633,-0.51084,0.14285,0.83137
-0.098054,-0.14421,-0.091867,-0.081724,-0.12869,0.23279,-0.076651,-0.44543
0.06748,-0.035742,-0.02506,0.015353,-0.019793,-0.033751,0.11836,-0.51662
0.01726,-0.14859,-0.10085,0.032958,0.18872,0.3952,0.27093,0.56646
-0.071574,0.11045,0.046959,-0.0062018,-0.050259,-0.28294,-0.23961,0.19769
0.079535,0.022722,0.042952,0.014655,0.0053957,0.089088,0.46718,0.38103
-0.10987,-0.067251,-0.057881,-0.037267,-0.0035265,0.16717,-0.44516,-0.51083
0.13213,-0.017432,-0.0358,-0.059934,-0.13131,-0.35505,-0.58442,-0.59526
-0.030818,0.017746,0.0091245,0.064704,0.18517,0.75432,0.20144,-0.30771
-0.18387,0.079239,0.078583,-0.0059876,-0.10007,-0.56975,-0.15299,0.67608
0.034208,-0.034467,0.0022513,0.026049,-0.017261,-0.35247,0.51362,0.49396
-0.014664,-0.033296,-0.023448,-0.010012,0.083159,0.49953,0.43199,-0.52094
0.094171,0.090782,0.056646,-0.004037,-0.071163,-0.31708,-0.20022,0.18238
0.097571,-0.09255,-0.077995,-0.010359,-0.018366,-0.21346,-0.24995,0.20034
0.059806,0.071594,0.064007,0.056891,0.11718,0.79083,0.4844,0.065416
-0.19017,-0.082688,-0.081046,-0.083986,-0.17209,-0.82358,-0.61686,-0.37854
0.2694,0.26294,0.18085,0.11316,0.14482,0.22004,-0.18909,0.25094
-0.22646,-0.13544,-0.06554,-0.03222,0.012495,0.82194,0.43768,-0.45262
-0.038522,-0.12279,-0.14914,-0.07569,-0.070244,-0.7133,-0.54217,-0.30938
-0.12159,-0.21528,-0.10942,-0.072735,-0.05026,0.21393,0.089875,0.6342
-0.024304,0.024678,0.0066985,0.022834,0.03943,-0.31391,0.34935,-0.16853
0.16565,0.30067,0.2696,0.15573,0.1267,0.16765,0.11835,0.20361
0.11839,-0.082119,-0.086362,-0.11211,-0.18857,0.20891,0.043423,-0.048376
0.14479,0.15003,0.086967,0.085986,0.13916,-0.10793,0.090115,0.20454
-0.17845,0.0048606,0.0077671,0.0073442,-0.086257,-0.59024,-0.26136,-0.34756
0.077497,-0.025773,-0.066833,0.0032213,0.11155,0.70602,0.14876,0.23461
-0.31402,-0.098382,0.050171,-0.043568,-0.11844,-0.3832,-0.41738,-0.17975
0.069826,-0.040939,-0.086508,-0.038815,0.0062637,0.16671,0.23383,0.092289
0.0982,-0.13384,-0.12451,-0.028411,0.02658,0.35774,0.10306,0.10302
0.023892,0.10891,0.062769,0.028181,-0.0083474,-0.47953,-0.31427,-0.69407
-0.079614,0.04109,0.047905,-6.1185e-05,0.021067,0.12637,0.22159,0.82142
0.0094224,-0.092739,-0.049439,-0.0097493,-0.054836,0.076591,0.084639,-0.19643
0.043257,0.006277,0.0072917,0.024077,0.07035,-0.0012949,-0.10081,-0.30297
0.038597,0.057937,-0.0071208,-0.038303,-0.086781,-0.16753,-0.141,-0.10788
0.081061,0.13231,0.11057,0.076616,0.075395,-0.21727,0.0074677,0.16874
-0.0029052,0.10277,0.12472,0.063307,0.095077,0.35831,0.19779,0.1483
-0.075414,0.02126,0.032901,-0.0017351,-0.091902,0.27804,0.12384,0.19917
-0.11633,-0.33434,-0.26186,-0.12065,-0.019008,-0.31839,0.17198,0.19433
0.14448,0.048303,0.0027189,0.048045,0.03008,-0.11255,-0.2735,-0.16791
-0.07698,0.080665,0.058212,-0.052321,-0.08754,0.049195,-0.13397,-0.22215
-0.10279,-0.14492,-0.042443,0.0065815,0.048196,0.062239,0.036783,-0.10014
0.097722,0.0043228,-0.041814,-0.0023251,0.014311,0.10325,-0.079037,-0.065397
0.1268,0.12335,0.06111,0.022899,-0.041039,-0.22096,0.06264,-0.02775
-0.060664,0.050275,-0.0049345,0.036546,0.16394,0.40823,0.17287,0.26177
0.077003,0.15499,0.12235,-0.029969,-0.18199,-0.29091,-0.15166,-0.0626
-0.28529,-0.23159,-0.085154,0.0050191,0.087012,-0.05186,-0.085415,-0.16947
-0.042943,-0.22419,-0.2027,-0.090974,-0.073914,-0.044294,-0.043739,-0.031212
0.25189,0.42123,0.32652,0.097602,-0.076885,-0.1244,0.25355,0.19228
0.014902,-0.31771,-0.2464,-0.053406,0.087459,0.18014,-0.15652,0.17614
0.01218,0.19196,0.12537,0.057647,0.045004,-0.0727,-0.012296,0.094156
-0.022711,0.19956,0.25322,0.12541,0.10052,0.36153,0.039032,-0.33448
0.056763,-0.31972,-0.26316,-0.062264,0.018908,-0.23513,0.27721,0.24108
-0.025465,0.1089,0.027083,-0.038138,-0.076136,0.19893,0.026433,-0.17263
-0.20978,-0.21183,-0.21421,-0.17085,-0.1706,-0.32304,-0.33607,-0.20967
0.13396,0.25532,0.16738,0.10879,0.1324,0.023709,0.15226,0.12921
-0.14473,-0.26464,-0.14186,-0.074832,-0.098033,0.094787,-0.21742,0.047182
0.16384,0.39899,0.31842,0.12975,0.051503,0.12896,0.019346,0.068383
0.020255,-0.20765,-0.11585,0.0041307,0.073095,0.014375,0.17271,-0.14987
-0.0047063,-0.10043,-0.11612,-0.076087,-0.10317,-0.30478,-0.17946,0.065254
-0.042703,0.080276,0.037062,0.069476,0.14062,-0.0077525,-0.035615,0.057935
0.032926,0.1712,0.10237,0.0039517,-0.085251,0.12605,0.20081,-0.070718
0.02104,-0.068508,0.0026426,-0.0065467,-0.022079,-0.10358,-0.029342,0.23258
-0.076246,-0.097984,-0.050201,-0.063256,-0.0050276,0.12709,-0.066553,0.02033
-0.06158,-0.22757,-0.14109,0.013699,0.075856,0.2511,0.37311,-0.28813
0.035546,0.076228,0.066875,0.029113,-0.021244,-0.135,-0.3491,0.0080133
0.14609,0.43262,0.23863,0.076812,0.024176,-0.091746,-0.028948,0.16504
-0.057458,-0.3679,-0.31267,-0.12437,-0.061251,-0.10253,0.18564,0.065481
0.0029143,0.34703,0.25703,0.07408,0.0037279,0.10614,-0.22859,-0.25048
-0.15803,-0.50911,-0.34149,-0.14808,-0.030914,-0.060252,0.01745,0.0086215
0.13008,0.20254,0.14882,0.068459,0.014438,-0.08757,-0.076246,-0.16181
0.068414,0.10421,0.12502,0.059387,0.014616,0.17057,0.25584,0.13217
-0.079593,-0.065387,-0.047653,0.0038588,0.016155,-0.069559,-0.095985,0.15884
0.027711,0.19002,0.097257,0.041689,0.018483,0.13463,-0.054232,0.099203
-0.033275,-0.12514,-0.044105,-0.031258,-0.026099,-0.12577,0.051954,0.0075089
0.0097905,0.025772,-0.012632,0.0027298,0.029822,0.36567,0.18219,-0.11834
0.0785,0.048107,0.034512,0.017812,-0.010177,-0.5098,-0.10243,0.31992
-0.11563,-0.14315,-0.13672,-0.056745,0.01694,0.036293,-0.15469,-0.42369
-0.008756,-0.11558,-0.040299,-0.017673,-0.030208,0.059152,0.032536,-0.071287
-0.059948,-0.18538,-0.12659,-0.059549,-0.011313,-0.049048,-0.0016632,0.062326
0.0062707,-0.0041137,-0.025073,-0.024919,-0.0042777,0.25305,0.09515,-0.12519
0.1214,0.4794,0.32218,0.10329,-0.070827,-0.11784,-0.011361,0.31223
0.099187,0.04939,0.050414,0.084267,0.11841,-0.0028978,-0.16289,-0.045248
-0.028665,0.11315,0.090402,0.02846,0.018099,-0.017173,0.080176,-0.062038
-0.13751,-0.39286,-0.29264,-0.14169,-0.073255,0.0048476,0.039854,-0.016434
0.052897,0.14582,0.094872,0.011326,-0.02138,0.02474,-0.064246,0.023844
0.033374,-0.055751,0.0081444,0.033943,0.026376,-0.035794,0.11134,0.013751
-0.01778,0.13935,0.09282,0.026961,-0.070064,-0.091694,-0.098978,-0.11616
-0.054782,-0.26393,-0.1769,-0.0026645,0.18924,0.16034,0.27094,0.25901
-0.054777,-0.087353,-0.075866,-0.032257,0.0302,0.093653,-0.10249,-0.24438
0.075988,0.14587,0.067579,-0.038889,-0.1264,-0.12934,-0.027299,0.37247
-0.021334,-0.070371,-0.042487,-0.038369,-0.063164,-0.095991,-0.18593,-0.16499
0.068203,0.23538,0.13483,0.047558,-0.015793,0.028673,0.037164,-0.12301
-0.060641,-0.035367,-0.015394,0.03956,-0.024487,-0.076145,-0.14732,-0.32182
-0.016324,-0.051734,0.055893,0.070907,0.20685,0.097343,0.26179,0.15342
0.20962,-0.085214,-0.10276,-0.029844,0.01382,0.12757,0.0011715,0.045992
-0.21846,0.13844,0.048556,-0.11395,-0.2285,-0.25062,-0.3091,0.067822
-0.027171,-0.31084,-0.16989,-0.0093768,0.13661,0.36176,0.51364,0.43015
0.095613,0.44053,0.26446,0.065076,-0.15572,-0.050338,-0.15307,-0.29741
-0.045967,-0.02361,0.014159,0.05454,0.098532,-0.28319,-0.26061,-0.022819
0.14904,-0.080558,-0.0084514,0.068113,0.12681,0.10921,0.13718,-0.084528
-0.14024,-0.20888,-0.15654,-0.12888,-0.10143,-0.1458,0.14963,0.092798
0.0076857,0.090094,-0.025,0.0023866,0.031442,0.11661,-0.044309,-0.071512
-0.055834,-0.24661,-0.15342,-0.092909,-0.052593,0.022054,-0.12545,-0.1496
0.012941,0.093805,0.091087,0.061759,0.036905,0.094238,-0.14974,0.16237
0.12035,0.45586,0.30272,0.075761,-0.059875,-0.073304,0.34263,-0.065059
-0.13979,-0.40181,-0.22109,-0.058787,0.062706,0.034319,-0.20383,-0.026062
0.084027,0.2088,0.090278,0.048506,-0.056988,-0.021551,0.022882,0.14057
-0.013178,-0.048332,-0.01323,-0.016851,0.025644,0.0077277,0.069414,0.19488
0.052471,-0.064517,-0.024286,0.057049,0.099019,0.1365,-0.056493,-0.17325
-0.00091627,0.049729,0.0094693,-0.050751,-0.071744,-0.30803,-0.15181,-0.063007
-0.017719,-0.089694,-0.037777,-0.012656,-0.026007,0.10345,0.18943,-0.14414
-0.045242,0.33647,0.1537,0.014828,-0.045074,-0.019459,0.091712,-0.20392
-0.013242,-0.27383,-0.13494,-0.054087,-0.0037338,-0.082252,-0.1098,0.42292
-0.04632,-0.26404,-0.17666,-0.015688,0.075018,0.10366,0.052777,-0.099108
-0.010805,0.18733,0.11557,0.06068,0.090238,0.4379,-0.030648,0.23743
0.17266,0.058666,0.047953,-0.019098,-0.14485,-0.41436,0.10056,0.017299
-0.033579,-0.069735,-0.034145,0.0040073,0.089276,-0.046013,-0.24075,-0.23777
-0.0031013,0.35891,0.21446,0.037259,-0.089475,-0.034575,0.048075,-0.084392
-0.14097,-0.41939,-0.23655,-0.059345,0.022653,0.003059,-0.015582,-0.0087562
0.006724,0.088469,0.027204,0.0033816,-0.058269,0.082487,-0.070207,-0.16861
0.049589,0.3748,0.22409,0.12347,0.066382,0.047101,0.21446,0.13018
0.073155,-0.45944,-0.27182,-0.11398,0.044917,0.09155,-0.0036192,0.27736
0.013877,0.15491,0.1007,0.063339,0.040945,-0.089732,0.05775,0.014303
-0.020444,-0.033554,-0.0034917,-0.041088,-0.063438,0.02575,-0.062343,-0.026858
-0.023874,-0.1513,-0.10906,-0.068932,-0.019093,-0.15658,-0.13039,-0.073204
0.064206,0.26911,0.15026,0.065018,-0.014361,0.050223,0.070791,-0.038931
-0.13277,0.02352,0.016214,-0.0067159,-0.049905,-0.05717,-0.054523,-0.079829
0.024852,-0.20906,-0.10493,0.020719,0.1708,0.13855,0.11661,-0.17132
0.021213,0.094508,0.013868,-0.023985,-0.11005,-0.026308,-0.011395,0.055558
-0.033773,-0.057876,-0.0093659,0.00064751,-0.0092614,0.073717,-0.033672,0.32166
0.017328,0.068607,0.0139,-0.013774,-0.010552,-0.092161,-0.10724,-0.058408
0.074554,0.13876,0.10035,0.050891,-0.011569,-0.023571,0.017775,-0.043853
-0.0713,-0.29958,-0.13191,-0.038964,0.035308,0.060985,0.23249,-0.00861
0.018854,0.1687,0.075573,0.0061997,-0.041278,-0.072756,-0.26684,-0.08522
0.033732,0.013403,0.0043086,0.022432,0.10258,0.036143,0.146,-0.00077424
-0.010345,-0.15524,-0.095827,-0.029582,0.0056801,0.036018,-0.027708,0.01694
-0.035116,0.12427,0.079369,0.0058383,-0.051364,-0.049866,-0.11493,0.083373
0.021544,-0.030721,-0.0021096,0.026348,0.0086993,0.028284,0.22898,-0.045682
0.01043,0.06696,0.026028,0.0076432,-0.018164,-0.042237,-0.12822,0.065236
0.047745,0.080654,0.03009,-0.012017,0.00011309,0.09779,0.10275,-0.17159
-0.062848,-0.084385,-0.092187,-0.056678,-0.038454,0.010806,-0.14067,0.28942
-0.080067,-0.12454,-0.036512,-0.0016522,-0.016703,-0.17031,-0.061902,-0.33359
0.057901,0.12334,0.087717,0.074958,0.042282,0.070282,0.11991,0.12362
0.0068802,-0.067935,-0.031661,0.0016205,0.053194,0.02976,-0.041024,-0.017762
0.0010629,-0.097015,-0.058102,-0.072632,-0.069142,-0.033699,0.064182,0.0093933
0.079517,0.16905,0.095062,0.05606,0.051007,0.059911,-0.01024,0.058515
-0.038866,-0.089664,-0.071485,-0.064691,0.00015868,-0.0095157,0.055646,0.0066078
-0.072601,-0.044504,-0.033814,-0.028025,-0.010405,0.00024536,-0.08995,0.050898
0.10363,0.50819,0.30204,0.12736,-0.13685,-0.067197,-0.033007,-0.15853
-0.11134,-0.53267,-0.22804,0.01873,0.23006,0.069114,-0.062427,0.13738
0.056408,-0.0025894,-0.038412,-0.049464,-0.058423,0.0025433,0.072109,-0.24027
0.060539,0.12222,0.050253,0.0082732,-0.04953,-0.040754,0.17568,0.33377
-0.098379,-0.11107,-0.0796,-0.042975,0.02985,-0.022069,-0.17325,-0.30482
-0.029197,0.10242,-0.0063728,-0.055285,-0.10175,0.0818,-0.029171,0.22597
0.11224,0.25491,0.17601,0.041269,-0.038141,-0.010478,0.068856,-0.0048085
-0.087947,-0.37255,-0.14192,0.019907,0.13477,-0.07226,-0.020028,-0.10033
0.018589,-0.030374,-0.022744,-0.0022373,0.04207,0.021676,0.086566,6.8743e-05
0.064246,0.398,0.21316,0.06866,-0.050538,-0.05649,-0.1197,-0.096123
-0.061055,-0.41629,-0.19991,-0.048496,0.036651,0.12324,0.11063,0.15622
0.087103,0.26032,0.10515,-0.0019349,-0.094834,-0.048254,-0.1369,0.044694
-0.023477,-0.080669,-0.074786,-0.0023585,0.070582,0.03071,0.075002,0.013643
-0.042051,-0.064775,-0.044342,-0.026083,-0.0061877,0.039807,0.097934,-0.093566
-0.031658,0.096844,0.056019,-0.010381,-0.059496,-0.10703,-0.16158,0.043688
-0.03934,-0.033184,-0.007856,-0.017587,-0.034601,-0.035035,-0.070323,-0.089246
0.044486,0.045632,0.061137,0.06172,0.060727,0.0446,-0.034141,-0.1315
-0.02968,-0.13465,-0.057134,-0.014756,0.015511,0.045653,0.26754,0.0045986
0.082556,0.0676,0.043674,0.065207,0.063956,-0.00090266,0.092566,0.10974
0.014641,-0.02623,-0.042695,-0.058176,-0.052056,-0.017193,-0.16082,0.33356
-0.014168,0.045733,0.0039806,-0.0025433,0.0030172,0.035655,-0.031999,-0.096773
0.012078,0.0028878,0.0038824,-0.010471,-0.021207,-0.045561,-0.05245,-0.11097
-0.039273,0.048596,0.027192,-0.0040467,-0.0077884,-0.026382,-0.0034083,-0.10787
-0.050981,-0.020474,0.0035053,0.016763,0.019829,0.093471,0.029569,-0.072388
0.039479,-0.07211,-0.059392,-0.018054,-0.0005586,-0.076146,0.023785,0.049786
-0.0022242,0.033443,-0.0052136,-0.022039,-0.05274,-0.011159,-0.0041693,0.11013
-0.0041336,-0.064159,-0.013573,0.013264,0.035956,-0.015553,-0.092369,-0.03178
0.049484,0.21232,0.12654,0.041625,-0.014854,0.020698,0.1037,-0.047482
-0.083459,-0.21591,-0.092635,-0.030195,0.02997,0.043367,-0.056249,-0.077362
0.089277,0.11959,0.063251,0.032453,-0.024385,-0.0098794,0.2557,0.042555
-0.033887,-0.13265,-0.062109,-0.020437,0.033131,0.024837,-0.21899,0.17109
0.007894,0.098135,0.023396,0.013972,0.030325,-0.0092493,-0.0049106,0.0025297
-0.012098,-0.038881,-0.0084109,-0.013257,-0.017886,-0.034774,-0.017432,-0.0034986
-0.015933,-0.003777,-0.024713,-0.0011781,-0.026545,-0.0057295,0.0078066,-0.043565
-0.027263,0.040199,0.013626,-0.012911,-0.035792,0.022376,0.022945,-0.055964
0.0787,0.015545,0.01299,0.0057146,0.031512,-0.021408,0.027414,0.029643
0.0048654,0.047585,0.020418,-0.0081385,0.0027588,0.011003,-0.033575,-0.074776
-0.10836,-0.15275,-0.049872,0.0079106,0.018221,-0.0054205,-0.073741,-0.10946
0.066934,0.093915,0.044428,0.014901,-0.00014588,0.023356,0.14198,-0.11877
-0.039817,0.052666,0.029944,-0.0024998,-0.059656,-0.050569,-0.11208,0.35294
0.047705,-0.1756,-0.077697,-0.0048042,0.059281,0.031307,0.079086,-0.012771
0.040217,0.080298,0.0027022,-0.02277,-0.025104,0.043152,0.10696,-0.090139
0.054762,0.15569,0.075738,0.022209,-0.022677,-0.061255,-0.2622,0.27645
-0.15865,-0.22332,-0.093086,-0.017904,-0.018462,-0.00018261,0.081319,-0.13368
-0.0060488,0.10709,0.042968,0.013402,0.050633,0.046923,0.11409,-0.2843
0.083343,0.060996,0.046257,0.038082,0.059769,-0.044964,-0.21113,0.25896
-0.006992,-0.056639,-0.020861,-0.022095,-0.046026,0.044187,0.27687,-0.10827
-0.049719,-0.096904,-0.049143,-0.026782,0.060705,-0.0064202,-0.094674,-0.15352
0.034008,0.089232,0.031602,0.007991,-0.074066,-0.017698,0.040458,0.30999
-0.060003,-0.075782,-0.036551,-0.012007,-0.037234,0.017545,-0.13892,-0.10781
-0.003514,0.017819,-0.0037298,-0.024772,-0.079634,-0.096544,-0.031842,-0.20214
0.12499,0.041979,0.043973,0.070803,0.11845,0.092771,0.025521,0.084039
-0.0034242,0.074497,0.028242,0.024362,0.056737,0.030619,0.06463,-0.12955
0.016352,0.0053067,-0.01207,-0.054919,-0.038197,-0.048588,0.070486,0.46399
0.0034204,0.021001,0.024423,0.036092,0.029258,0.035079,0.11438,-0.04789
-0.097904,-0.074627,-0.042042,-0.053931,-0.076325,-0.06172,-0.18527,-0.13333
-0.085008,-0.17282,-0.102,-0.058907,-0.049614,-0.010356,-0.13177,-0.1129
0.10475,0.14032,0.094825,0.053021,0.0085094,-0.0056253,0.034014,-0.089134
-0.02785,0.052703,0.025476,0.040325,0.10646,0.070084,0.031886,0.13193
0.01068,-0.090997,-0.043826,0.012964,0.025935,0.0060941,0.026449,-0.07623
-0.0047191,0.030792,0.020366,-0.020847,-0.053193,-0.0022324,0.056582,0.13645
-0.017977,0.028814,0.015504,0.0093657,0.0018448,0.052771,0.28537,-0.082903
0.034351,0.013659,0.0045218,-0.0058634,-0.035769,-0.14168,-0.35919,0.077129
0.066618,-0.029457,-0.035792,-0.012141,0.0054551,0.031262,0.081725,-0.079499
0.015888,-0.029901,-0.019502,0.0057416,0.0078903,0.0009604,-0.081539,0.17344
-0.079834,0.051153,0.021912,-0.030791,-0.013261,0.01717,-0.053911,-0.22642
0.0045746,0.025484,0.033346,0.026299,0.035392,0.040677,0.15569,0.065234
0.017628,0.0014327,-0.0013574,-0.010775,-0.033912,-0.014501,0.0080022,-0.075576
0.0050114,0.040391,0.034437,0.029716,0.044305,0.031376,0.01941,0.10244
-0.018265,-0.092951,-0.047243,-0.0084756,-0.0034019,-0.071544,-0.12096,-0.078996
-0.04428,-0.039777,-0.020128,-0.0080266,0.010606,0.012911,-0.012393,0.17051
-0.0019061,-0.011115,-0.032729,-0.023393,-0.06963,-0.011832,-0.027335,-0.054227
-0.0069865,0.0011811,0.0088462,0.031642,0.053188,0.049865,0.10228,-0.025916
-0.03452,-0.010104,-0.0044965,-0.037966,-0.050129,-0.06733,-0.10601,-0.1661
0.06535,0.088458,0.029111,0.0023587,-0.0040913,0.058659,0.17693,0.11114
0.10606,0.12539,0.10207,0.06676,0.011985,-0.03305,0.099501,0.063361
-0.052784,-0.1649,-0.082453,-0.040131,0.029503,0.079299,-0.20656,0.18237
0.025809,0.053143,0.022274,0.033058,0.063957,-0.073324,-0.0010116,-0.13377
-0.02649,-0.064951,-0.060595,-0.049895,-0.04913,0.008674,-0.028479,-0.15876
-0.031491,0.058087,0.035787,0.0075652,0.0099282,0.0045145,0.067861,-0.080208
-0.014158,0.10896,0.068942,0.033266,-0.017392,-0.02376,-0.011145,-0.12472
-0.053873,-0.23321,-0.14099,-0.066771,-0.061429,-0.021846,-0.04062,0.34039
0.028279,-0.046719,-0.023738,0.012009,0.041426,0.041246,0.080106,0.080296
0.013349,0.153,0.092675,0.05081,0.033178,0.1576,0.0072788,0.0082043
0.026665,0.014922,0.013088,-0.028462,-0.070441,-0.2274,-0.11762,-0.056825
0.053328,0.078812,0.050154,0.0399,0.051231,0.058366,0.050707,-0.084987
-0.077599,-0.1155,-0.053833,-0.025233,-0.015368,-0.039412,-0.0091492,-0.12448
0.0020361,-0.012636,-0.009752,-0.012766,0.011557,0.018796,-0.0059724,0.10509
-0.0038139,0.012943,-0.0050617,-0.00062488,0.015311,0.061576,0.062192,0.064466
0.046052,0.01627,-0.00062578,-0.0041968,0.011887,0.0033669,-0.037589,0.0042409
0.011278,0.052175,0.019328,0.015851,-0.014123,0.00064956,-0.0077317,-0.25402
-0.045671,-0.066881,-0.054347,-0.026145,-0.039206,-0.055886,-0.074924,0.12729
0.015554,-0.01297,0.028637,0.041936,0.061602,0.07587,0.33805,0.056187
-0.00078891,0.0261,0.0029372,-0.029737,-0.071183,-0.088624,-0.30936,0.19044
-0.017041,-0.0438,-0.029682,-0.014543,0.0076019,0.028555,0.090393,-0.11738
-0.010169,0.089425,0.087087,0.024941,0.032155,-0.018093,-0.042571,-0.062197
0.03519,-0.03555,-0.037505,-0.01306,-0.044597,-0.017782,-0.10812,0.027635
0.0017715,-0.0049716,-0.0053109,0.058635,0.09744,0.099696,0.13508,-0.10638
-0.00092755,0.024727,0.019213,-0.025967,-0.026334,-0.0094681,0.10872,0.18321
-0.042925,-0.063643,-0.04246,-0.040648,-0.033305,-0.040603,-0.20234,-0.18278
0.0090105,0.027,0.012495,0.0065364,-0.0095399,-0.048358,0.0076422,0.013327
0.0069071,0.023631,0.027712,0.013947,-0.0019363,0.053292,0.11504,0.05184
0.029326,-0.034118,-0.035757,-0.0026828,0.013051,-0.032396,-0.089586,0.11165
0.014099,0.026273,-0.0057043,-0.0040121,0.0043962,0.022848,0.15296,-0.089132
-0.0073551,-0.028954,-0.014467,-0.0052785,-0.011975,-0.0074173,-0.11723,0.11313
-0.058487,-0.011833,-0.0068477,-0.021699,-0.027946,0.0018573,-0.055843,-0.29738
