0.15148,0.36801,0.16415,0.085948,0.047128,0.032701,0.027503,0.052129
0.081466,-0.222,-0.13204,0.0080744,0.0099333,0.011214,0.0068287,0.036444
0.051,0.55232,0.35377,0.039215,0.019306,0.0133,0.0022381,-0.0029669
0.028345,-0.10384,-0.060586,0.085363,0.059342,0.022967,0.013226,0.019754
-0.12774,-0.2497,0.028632,-0.072452,-0.049886,-0.038233,-0.02318,-0.051675
-0.11317,-0.66106,-0.62274,-0.06712,-0.027249,-0.01425,-0.005759,-0.021875
0.040439,0.311,0.39844,-0.04691,-0.036734,-0.022293,-0.020595,0.0077991
0.25487,0.56035,0.5145,0.21521,0.10947,0.070627,0.065203,0.1002
-0.45395,-0.681,-0.59291,-0.29563,-0.17406,-0.11015,-0.10746,-0.19735
0.46146,0.65602,0.0091285,0.21054,0.12115,0.092071,0.086846,0.14688
-0.2012,-0.47675,-0.18317,-0.046641,0.011355,0.0058295,-0.015486,-0.038594
0.019953,0.53537,0.34999,-0.019632,-0.057662,-0.040435,-0.023426,-0.0035906
0.063302,-0.35901,-0.26295,-0.15355,-0.031054,-0.023174,0.0085863,0.033064
-0.12513,-0.080937,0.65973,0.36372,0.16125,0.096547,0.064962,0.039742
-0.076186,0.31328,-0.56161,-0.2423,-0.10638,-0.080071,-0.065419,-0.093572
0.24136,-0.07067,0.2819,0.2065,0.10262,0.087066,0.070204,0.13231
-0.43081,-0.46446,-0.3997,-0.37768,-0.19721,-0.13702,-0.15364,-0.27565
0.74227,0.54808,0.27879,0.45639,0.23535,0.1612,0.16882,0.29895
-0.64698,-0.57757,-0.024618,-0.3162,-0.20976,-0.15148,-0.13469,-0.22257
0.50155,0.48226,-0.14382,-0.0087532,0.045356,0.065465,0.10745,0.20637
-0.1727,0.40454,0.50254,0.34761,0.14162,0.046576,-0.018889,-0.046994
-0.34225,-0.59251,-0.58027,-0.55847,-0.27955,-0.15302,-0.12295,-0.21668
0.30559,0.11797,0.52969,0.46253,0.22827,0.147,0.13933,0.23702
-0.31404,-0.50676,-0.46936,-0.32894,-0.12273,-0.091726,-0.098847,-0.2085
0.60538,0.76569,-0.048442,0.22624,0.14514,0.11581,0.15517,0.28364
-0.72298,-0.37067,-0.19228,-0.2131,-0.17824,-0.15179,-0.1763,-0.26226
0.43746,-0.73802,0.37297,0.15182,0.12623,0.12133,0.10243,0.16235
-0.29446,0.65206,-0.1107,0.032788,0.011542,-0.02579,-0.05524,-0.11385
0.73039,0.89441,0.67489,0.42948,0.20373,0.15662,0.17119,0.3079
-0.83219,-0.93517,-0.79103,-0.65951,-0.34484,-0.26148,-0.22598,-0.36134
0.64115,0.98596,0.37354,0.11508,0.060372,0.063284,0.073553,0.097102
-0.15691,-0.57642,-0.33565,0.16448,0.051514,0.029018,0.0072028,-0.020143
-0.69845,-0.5759,-0.01161,-0.49088,-0.26251,-0.1302,-0.11276,-0.18233
0.69261,0.19109,0.95405,0.70075,0.37577,0.23379,0.22106,0.3988
-0.27633,-0.21809,-0.99473,-0.38827,-0.19802,-0.18406,-0.16383,-0.22322
0.28223,0.58495,0.37616,0.20872,0.14853,0.13141,0.098948,0.090743
-0.37623,-0.85214,-0.73583,-0.17366,-0.085137,-0.078195,-0.077481,-0.12191
0.31737,0.79425,0.92489,-0.11383,0.037879,0.077163,0.063811,0.11379
0.53512,0.74026,0.235,0.69388,0.25148,0.15952,0.20186,0.37482
-0.82251,-0.95306,-0.8078,-0.35751,-0.25693,-0.22969,-0.27292,-0.50325
-0.032888,-0.13818,-0.023035,-0.29539,-0.1509,-0.097934,-0.078885,-0.11348
0.42525,0.69966,0.45906,0.1586,0.15669,0.15725,0.15996,0.22558
-0.73039,-0.86283,-1.0464,-0.7714,-0.37149,-0.25185,-0.23457,-0.33498
0.19467,-0.41413,0.53941,0.34916,0.15713,0.1138,0.12986,0.23915
0.62053,0.55694,0.69022,0.7735,0.44733,0.28686,0.24704,0.36487
-0.41759,0.44179,-0.15617,-0.41955,-0.32027,-0.26297,-0.26472,-0.44015
0.44082,0.26959,0.46453,0.66627,0.32301,0.22239,0.19654,0.28586
-0.29054,-0.097252,-0.50274,-0.48159,-0.28014,-0.16377,-0.11952,-0.16075
0.36812,0.37368,0.3929,0.075914,0.13412,0.11656,0.098572,0.19486
-0.32392,-1.0201,-0.85827,-0.16757,-0.10027,-0.094216,-0.072458,-0.12631
-0.29546,-0.58199,-0.44324,-0.39673,-0.14126,-0.078713,-0.079415,-0.11915
0.072225,0.50371,0.47809,0.15932,0.08048,0.044834,0.045188,0.049959
-0.038122,0.047026,-0.15646,-0.092873,-0.01323,-0.005397,-0.027596,-0.073684
0.41762,0.81312,0.82074,0.45106,0.13311,0.098666,0.10038,0.189
-0.35034,0.013946,-0.084715,-0.20446,-0.16659,-0.11917,-0.10193,-0.18509
0.010552,-0.52053,-0.37458,-0.17176,-0.020143,-0.017677,-0.016799,0.00036167
0.15866,-0.36637,-0.059244,0.11569,0.019017,-0.0025028,0.01269,0.035774
0.010719,0.32987,0.16162,0.53521,0.29523,0.18457,0.11214,0.14898
-0.1181,-0.50856,-0.29671,-0.45988,-0.15273,-0.073569,-0.061831,-0.096649
0.21982,0.7831,0.46319,0.16763,0.072501,0.082225,0.076819,0.096087
0.26844,0.4392,0.38383,0.10976,-0.0072656,-0.0438,0.1139,0.19571
-0.74444,-1.0018,-0.87458,-0.59826,-0.31563,-0.22553,-0.3336,-0.50932
0.14289,0.42806,-0.027018,0.25108,0.15381,0.08363,0.10133,0.19904
0.11051,-0.29522,0.22785,0.17111,0.11909,0.1181,-0.0031409,-0.046998
-0.091551,0.3754,0.16922,-0.17481,-0.13061,-0.043638,-0.045252,-0.099314
0.35671,-0.41835,0.031085,0.12054,0.077496,-0.018141,0.16283,0.3468
-0.021881,0.16943,0.1351,-0.081153,-0.067564,-0.039054,-0.06605,-0.083314
-0.20469,-0.16303,-0.54716,-0.050152,-0.040552,-0.011956,-0.028569,-0.10003
-0.15335,0.18135,-0.17593,-0.087769,0.0039985,0.04799,0.0096629,-0.10104
0.39752,0.57309,0.57334,0.58239,0.30959,0.20344,0.12658,0.18795
-0.035913,-0.48496,0.24367,-0.46729,-0.2012,-0.13948,-0.06874,-0.14626
-0.24898,-0.20159,-0.4588,-0.13434,-0.098636,-0.13736,-0.11568,0.014341
0.081181,-0.11466,0.17075,0.51074,0.21054,0.13129,0.07935,0.12357
-0.21404,0.17436,-0.23463,-0.28312,-0.17292,-0.1229,-0.069535,-0.044666
-0.13908,0.23473,0.28484,-0.048703,-0.015563,0.068702,0.039541,-0.052616
0.36346,0.032898,0.34419,0.1968,0.1272,0.089008,0.063336,0.1075
-0.17396,-0.44237,-0.91096,-0.52437,-0.22946,-0.20237,-0.10693,-0.17397
0.48209,0.13272,0.28984,0.29494,0.14871,0.12451,0.076136,0.047765
-0.0076135,0.64398,0.28751,0.27966,0.1212,0.077617,0.097261,0.16258
-0.42965,-0.61647,-0.17041,-0.27309,-0.13991,-0.085329,-0.14508,-0.1977
0.20154,0.31602,0.29685,0.11355,0.021735,0.002448,0.0050529,0.0673
0.12906,-0.20993,-0.070138,-0.10736,-0.019051,0.012077,0.039175,0.073352
-0.59845,-0.70356,-0.78833,-0.20223,-0.098805,-0.073091,-0.10621,-0.23581
0.49124,0.7571,0.46142,0.20222,0.10952,0.089507,0.16922,0.31783
-0.27583,0.32971,0.42014,0.20482,0.12787,0.014327,-0.073395,-0.13452
-0.34479,-0.83502,-0.77273,-0.39327,-0.17831,-0.088639,-0.077571,-0.17236
0.89598,0.69536,1.2021,0.7323,0.27528,0.17074,0.24159,0.39093
-0.096712,0.27526,-0.10913,-0.09364,-0.051595,-0.012088,-0.05397,-0.054153
-0.35732,-0.73319,-0.6824,-0.43546,-0.22174,-0.10497,-0.13595,-0.25683
-0.029334,0.12568,-0.30475,-0.13663,-0.023393,-0.075025,-0.0033847,-0.027786
-0.21728,-0.22392,-0.19109,-0.24124,-0.14993,-0.099813,-0.099809,-0.036187
0.5833,0.2669,0.52334,0.29491,0.15147,-0.028617,0.0067865,0.11191
-0.23314,-0.12687,0.063569,-0.24809,-0.030107,0.17956,0.045474,-0.048804
0.28958,0.95512,0.70918,0.66808,0.26134,0.1352,0.23725,0.28939
-0.43225,-0.72124,-0.86298,-0.12235,-0.058079,0.025837,-0.088217,-0.1995
-0.163,-0.6329,-0.12654,-0.076165,0.020271,-0.0011965,-0.01626,0.040122
0.066293,0.80502,0.55164,0.0034351,-0.043095,-0.033759,-0.055155,-0.046851
-0.065714,-0.94028,-1.081,-0.41604,-0.19497,-0.18345,-0.12818,-0.12614
0.45419,0.98849,0.92356,0.37272,0.14849,0.016531,0.12978,0.13557
0.059769,0.20614,0.4095,0.091026,0.0241,0.11192,0.13818,0.086652
-0.2225,-0.7273,-0.40498,-0.0092329,0.031502,-0.069233,-0.13655,-0.088654
0.35226,0.522,0.089242,-0.058652,-0.10401,-0.096288,0.014607,0.098967
-0.5174,-0.30501,-0.067236,-0.26471,-0.086011,0.079326,-0.09703,-0.20407
0.079407,-0.10671,-0.31499,-0.13769,-0.21891,-0.45454,0.020444,0.14201
0.31353,0.54818,0.47193,0.63457,0.53721,0.67089,0.14891,0.03612
-0.46999,-0.64211,-0.53747,-0.26661,-0.0041041,0.35481,-0.061778,-0.1607
-0.17412,-0.24426,-0.70236,-0.29904,-0.17777,-0.37174,-0.094071,-0.078695
0.15087,-0.11435,0.76782,0.0098466,-0.11591,-0.31461,-0.0083943,0.050677
0.032709,0.35109,-0.39197,0.10904,-0.052582,-0.045871,-0.013847,0.034762
0.11504,0.37033,0.84717,0.10292,0.051154,0.065365,0.10175,0.1332
0.64088,0.86209,0.64267,0.66478,0.4761,0.2986,0.12787,0.1747
-0.024187,-0.34309,-0.10246,-0.2835,-0.2315,-0.1209,0.024947,-0.068017
-0.40713,-0.60309,-0.78539,-0.60245,-0.40041,-0.20947,-0.27085,-0.2218
-0.059213,-0.017239,0.1954,0.0030313,0.16417,0.18902,0.097974,0.015524
-0.21876,-0.94038,-0.86239,-0.070437,-0.11616,-0.10468,-0.12846,-0.069577
-0.13819,0.31495,-0.15836,0.36321,0.3367,0.32443,0.16513,0.091049
0.057238,0.40819,0.65041,0.037481,-0.13342,-0.18637,0.15699,0.17577
-0.22441,0.3762,0.12105,0.2646,0.27833,-0.080763,-0.2239,-0.18289
0.48891,-0.047732,0.0082371,-0.54897,-0.41226,-0.33344,0.046016,-0.085727
0.41993,0.52584,0.22374,0.089481,0.13872,0.58874,-0.12605,0.054765
-0.18539,-0.36626,0.49142,0.19631,0.048687,-0.070332,0.042806,0.037549
-0.042646,-0.6887,-0.95058,-0.30588,-0.34615,-0.45001,0.093736,-0.010197
-0.15732,-0.14989,0.0014128,0.18508,0.19672,0.01281,-0.064815,0.093102
-0.36369,0.5793,0.23848,0.27116,0.35727,0.54448,0.15506,-0.002797
0.050361,-0.087419,-0.060598,-0.26622,-0.17673,-0.19978,-0.12017,-0.10195
0.25746,0.39523,0.22728,0.1511,-0.045616,0.25492,0.14163,0.20972
0.062567,-0.2724,-0.080071,-0.0080015,0.024379,-0.24965,-0.21561,-0.17762
0.058966,-0.17993,0.0067192,-0.18856,-0.2475,-0.39508,0.20621,0.071325
-0.25478,0.012004,-0.29652,-0.061918,0.17845,0.29373,-0.21876,-0.16126
0.11096,-0.21699,-0.20369,0.013196,-0.0095491,-0.28562,-0.062031,-0.055559
0.019684,0.6126,0.36813,-0.09558,-0.029712,0.48379,0.14364,0.098969
-0.064444,-0.80073,-0.037254,0.18194,-0.038163,-0.054154,-0.033173,-0.010596
0.27543,0.78887,0.4365,-0.038059,-0.082326,-0.12573,0.21811,0.22449
0.0032068,0.2688,0.16956,0.3596,0.27397,-0.019749,-0.049737,-0.095168
-0.1351,-0.49569,-0.1444,0.29406,0.31773,0.25609,-0.05718,0.029131
-0.39195,-0.54396,-0.96635,-0.70634,-0.39877,-0.4154,-0.2273,-0.24003
0.25555,0.18805,0.088651,0.13732,-0.14354,-0.081155,0.15041,0.24438
-0.066046,-0.015111,0.2828,-0.25418,0.042575,0.50887,-0.025104,-0.13584
0.27161,0.69496,0.5755,-0.075625,-0.10687,-0.098216,0.12264,0.13455
-0.00029573,0.19868,0.27879,0.44853,0.30692,-0.050304,0.0022211,-0.045539
-0.18908,-0.8422,-1.2249,-0.20979,-0.10523,-0.1043,-0.18035,-0.19826
-0.34451,-0.14926,0.21139,-0.13304,-0.25517,-0.32148,-0.015769,0.053362
0.15457,0.14858,0.42795,0.29113,0.2972,0.23703,0.06904,0.055425
0.3419,0.13181,-0.19865,-0.013537,-0.094069,0.29125,0.037026,0.021155
0.3277,0.64471,0.80659,0.25812,0.17456,-0.30645,0.10001,0.13205
-0.26364,-0.14992,-0.45926,-0.035341,0.041822,0.22525,-0.11745,-0.1265
0.30866,-0.57522,-0.34683,-0.23934,-0.2653,-0.091014,0.13283,0.15958
-0.79285,-0.25999,-0.22377,-0.50425,-0.075291,0.071242,-0.1208,-0.26062
0.024714,0.41664,0.14361,0.23862,0.095284,-0.094923,0.024334,0.15812
0.21455,0.5134,0.65382,0.20693,0.081012,-0.12327,-0.076152,-0.047219
-0.40999,-0.44919,-0.50381,0.064327,-0.018086,-0.078628,0.0040975,-0.042832
0.36301,0.0037318,-0.012609,0.0061774,0.069915,0.34194,0.090791,0.060091
0.42446,-0.41732,0.39998,0.32187,0.13281,0.1689,0.18283,0.10408
-0.18775,0.28052,-0.49063,-0.48037,-0.21303,-0.073864,-0.18032,-0.11441
-0.1719,-0.041978,0.062256,-0.11896,-0.20222,-0.53299,-0.15295,-0.1028
0.44402,0.35112,0.22138,0.16408,0.18121,0.0914,0.04939,0.13227
-0.54851,-0.13268,-0.56825,-0.20168,-0.1166,-0.0015499,-0.21777,-0.25913
0.30637,-0.23494,0.30239,0.23648,0.12408,0.35622,0.23713,0.20137
0.16132,0.40378,0.58181,0.61064,0.13071,-0.246,0.26905,0.26538
-0.6019,0.041048,-0.47568,-0.55668,-0.01023,0.061023,-0.26049,-0.28477
0.19834,-0.19818,0.061501,-0.063158,0.029423,0.22279,0.16461,0.11383
-0.058153,0.014832,0.42718,-0.17484,-0.25855,-0.098371,-0.066171,-0.086033
-0.083294,-0.62305,-0.81084,-0.008721,0.13299,0.1489,-0.0099885,-0.04151
0.06011,0.22652,0.41403,0.16262,-0.070179,-0.32877,-0.076336,0.019543
0.01147,0.16009,0.019599,0.04372,0.029784,0.042289,0.075201,0.072267
0.4938,0.53165,0.041294,0.27689,0.16695,-0.022959,-0.042562,0.11537
-0.19505,-0.52465,-0.11729,-0.25331,-0.13516,0.066736,-0.11896,-0.20366
0.044001,0.24086,-0.27004,-0.068771,-0.079145,-0.064501,0.071913,0.0053523
-0.052258,0.1151,0.15314,0.15206,0.15617,0.052841,-0.063243,0.0081095
-0.1706,-0.46808,-0.026803,-0.31652,-0.17029,-0.079109,0.086236,-0.030738
0.056787,0.57273,0.55832,0.13521,0.098841,0.4255,0.10801,0.069435
0.14759,-0.063862,-0.028165,0.23366,-0.019835,-0.57056,-0.043033,0.090977
-0.20593,-0.56905,-0.68441,-0.16261,0.04458,0.23277,-0.052948,-0.097857
-0.28473,-0.15596,-0.059358,-0.18001,-0.090661,-0.076079,0.047999,0.019449
0.36784,0.29224,0.087796,0.24197,0.16768,0.21529,-0.005344,0.021654
-0.085952,0.44102,0.61433,0.15566,-0.017375,-0.01007,0.037074,0.026302
0.017291,0.26205,0.40055,0.0039121,-0.10037,-0.18281,-0.10622,-0.036818
-0.38608,-0.52203,-0.64193,-0.34053,-0.036028,-0.00016218,-0.13872,-0.21471
-0.033598,-0.46155,-0.62427,-0.26217,-0.16181,-0.034997,0.11886,0.12511
0.88095,0.36956,0.46855,0.4646,0.35696,0.42091,0.15832,0.1852
0.035298,-0.26743,-0.3548,-0.15248,-0.1368,-0.38486,-0.075409,-0.12892
-0.044238,0.23895,0.43142,0.28577,0.11448,0.0068969,-0.012403,0.064709
0.018569,0.7954,0.42438,0.023061,-0.037257,0.0798,0.026688,0.030816
-0.5015,-0.29472,-0.035844,-0.18845,-0.20815,-0.2049,-0.05996,-0.012572
-0.36691,-0.5732,-0.51521,-0.268,0.001852,0.1541,-0.061527,-0.16743
0.061277,-0.34831,-0.43144,0.045092,0.071278,0.11191,0.12361,0.027171
0.042348,0.67309,0.6799,0.073857,0.056845,-0.024465,-0.043364,0.0091593
-0.021357,-0.14504,-0.21789,0.17983,0.014973,-0.11215,-0.038625,0.0058176
0.30479,-0.015989,0.12601,-0.088962,-0.0063389,-0.00088773,0.052352,0.088295
0.46266,0.40271,0.27296,0.22829,0.024487,0.11515,0.011261,0.077645
-0.20924,-0.61574,-0.6474,-0.25269,0.021008,-0.1387,-0.075622,-0.11159
0.046978,0.062077,0.070815,-0.073514,-0.096102,0.11995,0.01842,-0.018315
-0.11458,0.10126,0.65551,0.34855,0.093391,0.16346,0.11363,0.060417
-0.10377,0.057538,-0.18945,-0.20068,-0.060702,-0.2987,-0.10277,-0.078917
-0.18228,-0.43569,-0.20517,-0.1223,-0.05993,0.0053379,0.017178,0.031925
-0.048451,0.77772,0.16557,0.066459,0.086793,0.12106,-0.0036535,-0.021619
0.061943,-0.23267,-0.54103,-0.040914,-0.011677,-0.077522,0.013864,0.04913
0.071326,0.26657,0.40174,-0.076129,-0.16778,0.049702,0.022415,-0.0060426
0.052289,-0.053109,0.11447,0.23646,0.2206,0.0027333,-0.032919,-0.015271
-0.030815,-0.22978,-0.29499,-0.17838,-0.072249,-0.022685,-0.034915,-0.056499
0.13048,-0.23703,0.0098927,0.04172,-0.021951,-0.080507,0.03237,0.05811
-0.00736,-0.14788,0.31969,0.21969,0.15362,0.18172,0.044486,0.10243
-0.16863,-0.29951,-0.27073,-0.21297,-0.12299,-0.016332,-0.076,-0.15747
-0.063473,0.0648,-0.10578,-0.044576,-0.054475,-0.048844,0.007558,-0.018081
0.31509,0.77841,0.60791,0.27133,0.10932,-0.016729,0.045745,0.098978
-0.035204,0.05436,-0.87118,-0.42299,-0.1395,-0.11491,-0.031419,-0.040634
-0.2271,0.11725,0.2819,0.2295,0.058146,0.016051,0.010439,0.023815
0.048045,-0.16401,0.65422,0.054028,0.022071,0.094562,-0.00092018,0.0028196
-0.041658,-0.19716,-0.37275,-0.22593,-0.099953,0.072963,0.097882,-0.010495
0.25858,0.16329,0.29239,0.45713,0.24599,-0.096826,-0.076857,0.045672
-0.053036,-0.42883,-0.21133,-0.039514,-0.026792,0.13057,-0.010453,-0.0090119
-0.28141,-0.25476,-0.70332,-0.51374,-0.18454,-0.15265,-0.12561,-0.15937
0.051448,0.1658,0.22741,0.034831,0.022466,0.1303,0.084917,0.047554
0.16722,0.71592,0.80102,0.4908,0.14128,-0.036965,0.14434,0.21353
-0.04727,-0.09214,-0.60967,-0.30693,-0.13991,-0.13104,-0.079992,-0.0984
0.0061812,-0.2896,0.01984,0.06724,0.031558,0.083292,-0.0094182,-0.051465
-0.17603,-0.10876,-0.11256,-0.17981,-0.092986,-0.12676,-0.10404,-0.074342
-0.12972,-0.66428,-0.37987,-0.17779,-0.05135,-0.02475,0.020001,-0.048815
0.59998,0.79497,0.84229,0.54383,0.21982,0.22742,0.12942,0.23691
-0.24482,-0.46732,-0.55268,-0.22589,-0.021466,-0.032479,-0.079492,-0.1307
-0.064384,0.34731,0.2843,0.073678,-0.002327,0.063947,0.018989,0.0046124
0.11465,0.55607,0.66595,0.32196,0.18227,-0.021978,0.011142,0.095518
-0.016323,0.28466,-0.25497,-0.36807,-0.25051,-0.1891,-0.048423,-0.054203
-0.047055,-0.085766,0.094759,0.069891,0.041573,0.10842,0.058573,0.038681
-0.050891,-0.87715,-0.36642,0.031418,0.010578,-0.013663,-0.0045726,-0.033225
-0.36551,-0.15118,-0.39567,-0.40634,-0.17191,-0.0021874,0.011222,-0.11457
0.25878,-0.3793,-0.52557,0.039038,0.010289,-0.02263,-0.051191,0.012905
0.14323,0.7845,0.41293,0.097199,0.058423,0.10358,0.10434,0.12268
0.00050897,-0.41096,0.21912,0.2099,0.2085,-0.069574,-0.15545,-0.042588
0.0044602,0.082699,0.046962,-0.18087,-0.18629,-0.1127,-0.041624,-0.060194
-0.13222,0.36117,0.3867,0.49892,0.2347,0.16963,0.11781,0.078626
0.2167,0.080784,-0.28935,-0.31871,-0.18408,-0.13625,-0.028434,-0.039296
0.028435,0.26931,0.28374,0.030848,0.010551,0.11089,0.051154,0.032012
-0.0014889,-0.18272,0.25625,0.09333,0.052453,0.099214,0.083303,0.058493
-0.3262,-0.50623,-0.69539,-0.47745,-0.17651,-0.16279,-0.14292,-0.16304
0.062145,0.0020226,0.062022,0.2762,0.064658,-0.057374,0.005175,0.10919
0.069935,0.47312,-0.14562,-0.17269,-0.053503,0.040935,0.058673,0.030796
0.10362,-0.016706,0.49112,0.59441,0.35833,0.10901,-0.01378,0.0072419
-0.3368,-0.29612,-0.34258,-0.58943,-0.32604,-0.087373,-0.055879,-0.14192
0.25602,-0.15995,0.18902,0.25021,0.15808,0.069001,0.010762,0.059235
0.029268,-0.0090983,-0.36442,-0.1535,-0.15087,-0.023522,-0.024329,-0.046009
-0.026883,0.1183,0.065815,-0.027366,-0.049924,-0.052567,0.034769,0.049912
0.49902,0.7262,0.9659,0.5747,0.30499,0.1302,0.15747,0.18288
-0.52074,-0.86668,-0.87032,-0.494,-0.19473,-0.092466,-0.12437,-0.17041
0.091426,0.38614,-0.029643,-0.043485,-0.040115,-0.1971,-0.115,-0.0096742
-0.09504,-0.16408,0.042874,-0.0473,-0.026657,0.19911,0.076429,-0.0063559
-0.14178,-0.33898,-0.64489,-0.17422,-0.02016,-0.083619,-0.058027,-0.050534
0.10232,0.28783,0.77281,0.50032,0.23837,0.20443,0.16866,0.13183
0.0085403,0.093167,0.5107,-0.092144,-0.13311,-0.046664,-0.049036,-0.044633
-0.051136,0.13847,-0.51666,-0.13854,-0.048397,-0.13453,-0.095046,-0.071662
0.099685,0.20912,0.30518,-0.022427,0.0078235,0.02594,0.013744,0.011922
0.050207,0.1122,-0.021253,0.27768,0.089476,0.12151,0.15895,0.12798
0.14545,-0.41596,-0.28386,0.1028,0.093939,-0.027947,0.07406,0.034077
-0.48286,-0.69282,-0.94243,-0.65937,-0.23774,-0.20364,-0.35852,-0.239
0.53699,0.55224,0.91953,0.22294,-0.0081079,0.024643,0.080184,0.1285
0.082928,0.48321,0.44715,0.18548,0.10247,0.18134,0.023822,-0.012387
-0.2724,-0.42844,-0.24314,-0.014607,0.0077924,0.0021239,0.036195,0.017582
0.028594,-0.060634,-0.040186,-0.064381,-0.018551,-0.089774,0.079753,0.030675
-0.15799,-0.25118,-0.59635,-0.079657,0.016105,0.0083871,-0.047197,-0.059042
0.049763,0.32583,0.23429,0.089978,-0.028182,-0.069828,0.023623,0.022119
-0.2449,-0.23194,-0.19875,-0.1158,-0.049114,0.042921,-0.027514,-0.045693
0.14161,0.42812,0.62527,0.22685,0.078958,0.033597,0.0338,0.050621
0.0035833,-0.21964,-0.18065,-0.09933,-0.0028824,0.026015,-0.058515,-0.055491
0.16677,0.7961,0.62721,0.14865,0.049327,0.12008,0.038493,0.066215
0.049765,-0.6334,-0.92823,-0.24781,-0.037868,-0.061016,-0.090183,-0.052619
0.2022,0.070275,0.16656,0.093738,-0.069339,-0.12042,0.1405,0.11162
-0.05496,-0.028567,0.33839,0.15701,0.12654,0.12057,0.011112,0.011999
-0.32467,-0.8861,-0.22798,-0.38685,-0.16923,-0.21314,-0.12713,-0.15637
0.04643,0.74053,-0.011029,0.19591,0.035388,0.0042806,-0.016388,0.028064
0.05463,0.066483,0.05097,0.19387,0.076228,0.11819,0.062423,0.064963
-0.13201,-0.6125,-0.77617,-0.22921,-0.0077066,-0.025627,-0.015168,-0.092899
0.092533,0.53913,0.42221,-0.01895,-0.013384,0.066999,-0.022062,0.054115
0.030411,-0.073872,0.4978,-0.0038591,-0.026917,-0.032126,0.042104,-0.0022121
0.078489,-0.16662,-0.31605,0.010765,0.0060977,0.052664,0.04457,0.026705
-0.19354,0.76879,0.4312,0.18813,0.014981,-0.11643,-0.0306,0.015324
0.12859,0.018124,0.14192,0.02725,0.046231,0.12349,0.0034857,-0.0056477
0.26453,0.060108,0.14,0.13659,0.076131,0.051918,0.060132,0.072727
-0.23742,-0.76778,-0.8982,-0.27341,-0.075063,-0.028362,-0.095729,-0.10912
-0.17239,-0.13462,0.26055,-0.18689,-0.15709,-0.048623,0.012045,-0.011965
-0.046313,-0.17557,-0.46001,-0.040292,-0.020927,-0.15818,-0.054043,-0.057107
0.16605,0.37598,0.40591,0.23073,0.1546,-0.013213,0.011169,0.045448
-0.033871,-0.13236,-0.19723,-0.066898,-0.043629,0.059104,0.036678,0.031223
0.19077,0.32058,0.31617,0.1002,0.072698,0.15415,0.047017,0.034178
0.058996,-0.36904,-0.20403,0.0069503,-0.01936,-0.14024,-0.050472,-0.015079
-0.25764,0.05269,-0.17664,-0.11183,-0.030692,0.099498,-0.012752,-0.022289
0.12302,0.85254,0.88171,0.19621,0.046096,0.038543,0.051228,0.051601
-0.25293,-0.3855,-0.049677,-0.00049426,-0.055431,-0.064978,-0.038325,-0.082994
0.23115,-0.025309,-0.36171,-0.19672,-0.016019,-0.0084927,0.014835,0.041728
0.01254,-0.049221,0.24104,0.12818,0.02259,0.011389,0.053411,0.05738
0.052384,-0.1658,-0.30415,-0.067271,-0.0031129,0.024125,0.013633,-0.0060198
-0.21126,0.15262,-0.12704,-0.011157,-0.0079338,-0.073817,-0.090117,-0.087021
-0.16049,-0.6651,-0.18861,-0.047556,0.031182,0.004809,-0.001002,-0.014433
0.33812,-0.030965,-0.18713,0.0041429,-0.0029219,0.016429,-0.00079001,0.031844
-0.019825,0.31702,-0.12165,-0.010319,-0.01606,0.061856,-0.0035158,-0.010425
0.14822,0.2119,0.66686,0.26328,0.086305,-0.015171,0.022616,0.070361
-0.16641,0.009333,-0.42888,-0.34412,-0.23387,-0.14361,-0.03865,-0.053016
-0.097881,0.65674,0.66827,0.12302,0.1339,0.21697,0.087234,0.018852
-0.085342,-0.69007,-0.070825,-0.013392,0.018752,-0.14253,-0.059598,-0.056932
0.182,0.26316,0.14771,0.075207,0.022976,0.045568,-0.0095695,0.024912
0.10106,0.12207,-0.027166,-0.0025759,-0.064022,-0.13083,0.050269,0.069316
