0.016571,0.022971,0.096639,0.085531,0.047875,0.018834,-0.0077412,0.025999
-0.00051986,-0.012599,-0.026519,-0.096068,-0.0086977,-0.0049719,0.00062325,-0.0065305
-0.0013666,-0.00023608,0.049175,0.0025169,-0.0033097,-0.013024,-0.0070532,0.015902
-0.001519,0.020276,-0.25625,0.19421,0.072108,0.041604,0.00835,-0.00033434
0.022444,0.094861,0.7201,-0.012557,-0.016443,-0.020725,-0.0077111,-0.00048072
-0.062391,-0.19157,-0.70926,-0.41392,-0.15913,-0.028093,-0.015983,-0.039205
-0.014004,-0.058665,-0.19918,0.20179,0.011691,-0.019549,-0.016291,-0.0071707
0.042376,0.17263,0.62036,-0.03202,0.051065,0.020499,0.022706,0.017392
0.028358,-0.013498,-0.73114,0.17393,0.02941,0.060693,0.038454,0.026489
0.0061575,0.031708,0.53968,0.092808,0.063686,-0.016348,-0.016143,0.0042419
0.0067714,0.043503,0.23359,-0.20582,0.028316,-0.06245,-0.00082299,-0.0027836
-0.071529,-0.24233,-0.63888,0.19882,-0.054087,0.02365,-0.0019468,-0.018338
0.05249,0.22292,0.46228,-0.30389,-0.012515,-0.0083245,0.011374,0.012016
0.011811,-0.074349,-0.089035,0.29286,0.089871,0.099265,0.02335,0.017852
-0.068208,-0.16347,-0.36609,-0.2068,-0.1456,-0.044209,-0.043997,-0.031998
0.0082417,0.058523,0.90029,0.087807,0.023555,-0.016645,-0.018282,-0.0044118
-0.039554,-0.0015722,-0.24778,-0.4321,-0.19095,-0.075391,-0.015849,-0.023875
0.10917,0.28844,-0.31445,0.70318,0.14941,0.053642,0.0034109,0.043078
-0.021878,-0.22954,-0.34933,-0.21627,-0.048197,-0.16789,-0.037584,-0.045059
0.0047854,0.043194,-0.0093352,-0.54131,0.03707,0.14347,0.057277,0.040424
0.032638,0.35322,0.6132,0.72826,0.4051,0.15994,0.03834,0.018644
-0.071617,-0.34182,-0.46306,0.084119,-0.10108,-0.063781,-0.032131,-0.024387
0.027375,-0.028813,-0.25777,-0.506,-0.20905,-0.028044,0.22006,0.051714
0.05561,0.041137,0.42787,-0.25436,-0.1073,0.024339,-0.22192,-0.011401
-0.18267,-0.44397,0.5024,0.36128,0.0084061,-0.11828,-0.031343,-0.097287
0.093474,0.18971,-0.025733,0.44972,-0.080407,-0.019019,0.024883,0.035385
0.008871,0.46077,-0.087355,-0.17608,0.07259,0.048244,-0.10888,0.0029304
0.024334,-0.26041,-0.77087,0.42327,0.12511,-0.010462,0.17626,0.023293
0.0069053,-0.025763,-0.14199,-0.75673,-0.046388,0.039158,-0.088501,0.017685
-0.020195,0.32266,0.61621,-0.71954,-0.073787,-0.037322,0.003427,-0.0065433
0.028694,-0.19907,-0.030688,-0.21851,-0.12112,0.0099724,0.10883,0.012915
-0.041989,-0.083924,-0.061971,0.79643,0.47465,0.14175,-0.07636,-0.017561
0.064542,-0.16171,0.19988,0.58365,-0.069652,-0.079802,0.0031026,-0.027173
0.028211,0.29977,-0.34817,0.56981,-0.061128,0.087286,-0.0038776,0.0083573
-0.056532,-0.037601,0.66835,-0.58752,-0.13483,-0.21636,0.012424,0.019857
-0.063469,-0.44911,-0.3202,0.22789,-0.15939,0.017424,-0.025855,-0.053855
0.07938,0.35307,-0.55386,-0.22732,0.15404,0.094115,0.045563,0.085429
-0.18078,0.24353,-0.013324,-0.87408,-0.24807,-0.094566,0.02376,-0.068955
-0.045296,-0.35548,0.4627,0.0035322,0.14434,-0.031778,-0.20042,-0.06311
0.18238,0.42454,0.33325,0.64194,-0.017558,0.11949,0.12323,0.0954
0.11978,-0.28933,-0.75491,-0.83519,0.21409,0.063027,0.065214,0.06247
-0.061982,-0.32236,0.75062,0.4331,-0.10436,-0.044802,-0.014978,-0.045626
0.11187,0.39125,-0.21628,0.92566,0.215,0.13147,0.046742,0.051029
-0.095567,-0.23103,-0.75503,-0.59896,-0.078717,-0.26066,-0.08563,-0.070944
-0.015125,0.12631,0.18087,0.17705,-0.034221,0.16046,0.009648,0.0089361
-0.031965,0.25436,0.32259,-0.29195,-0.083447,-0.18444,-0.12854,-0.015049
-0.092897,-0.32281,0.56264,0.91328,-0.033101,0.15683,0.14024,-0.034027
-0.13584,0.034314,-0.35703,-0.97064,-0.31416,-0.089748,0.018863,-0.047938
0.035144,-0.091284,0.22641,-0.0053491,0.073074,-0.049393,0.007082,0.014048
0.19481,0.053653,-0.0080465,-0.28366,0.46519,0.14518,0.026491,0.098016
0.047872,0.36187,-0.40268,0.55611,0.043228,0.1115,-0.087229,0.0016329
0.056671,-0.17269,-0.2494,-0.028498,-0.14419,-0.12652,-0.021766,0.030197
0.026815,0.1398,-0.21885,-0.10895,-0.11876,-0.052628,0.03531,0.012158
-0.16633,-0.15769,-0.016906,0.088983,-0.26965,-0.064587,0.013753,-0.091509
0.00057752,-0.15257,0.55954,-0.54195,0.24782,0.088331,0.015315,0.023739
0.011621,0.0080665,0.72251,0.61808,-0.081843,0.03963,0.024639,0.0061403
-0.086611,-0.32018,-0.64471,-0.15506,0.24848,-0.03044,-0.090812,-0.05067
0.026099,0.36088,0.089093,0.37472,0.0028859,-0.098123,0.036354,0.033036
0.092077,-0.44976,-0.94785,-0.26837,-0.00042837,0.11,-0.0235,-0.015977
0.0022785,0.72278,0.65056,-0.037434,-0.021539,-0.00023578,0.010707,0.013533
-0.086647,0.054704,0.39657,-0.24531,-0.24985,-0.023359,0.0057519,-0.018757
0.075645,-0.33515,0.010836,0.1234,0.15731,0.047387,0.14851,0.082658
0.02059,0.16151,-0.16246,0.42839,-0.089063,0.038976,-0.10863,-0.033778
-0.01745,0.12735,-0.013612,-0.84488,-0.0034245,-0.096499,0.014884,-0.016704
0.03164,-0.051511,-0.080059,0.77412,-0.099343,-0.00035833,-0.09861,0.0085073
-0.090271,-0.25452,-0.1546,-0.5952,0.21157,0.014691,0.050775,-0.013282
-0.031979,-0.26631,-0.058264,0.40089,-0.068407,-0.074455,-0.052262,-0.0043662
0.04212,0.29431,-0.21069,-0.39219,0.21079,0.014255,-0.024159,0.034981
0.084894,-0.42406,0.29091,0.47938,-0.11427,0.070983,0.16741,-0.035916
-0.013211,0.2286,0.029892,0.48389,-0.098685,-0.0046778,0.015872,0.025333
-0.080425,0.52791,0.10466,-0.95838,0.021882,0.022635,-0.047801,-0.046476
-0.023056,-0.055405,-0.22405,-0.045199,0.073728,0.0051263,0.0087785,-0.00079798
0.057296,-0.043612,0.63805,0.40021,0.00021849,-0.0022954,-0.23539,0.014455
-0.026907,-0.48342,-0.49824,0.41401,-0.22376,-0.046687,0.024865,-0.062866
0.075852,0.42918,0.34834,-0.84227,0.15848,0.043336,0.094178,0.071969
0.060856,-0.064744,0.22148,0.30916,0.084017,0.0092985,0.29223,0.12957
-0.12655,0.22129,-0.63841,-0.10942,-0.13443,-0.13388,-0.11655,-0.023515
-0.02529,-0.72106,0.035093,0.50314,-0.089888,0.074073,-0.18064,-0.15376
-0.010063,-0.17289,-0.46513,-0.48573,0.1483,-0.00021033,0.051354,0.058368
0.052366,0.42125,-0.023363,-0.13769,0.057631,-0.0056281,0.070119,-0.028309
-0.0015753,0.76564,0.19604,0.50174,0.037272,0.13558,0.054344,0.02361
-0.015194,-0.14632,0.37956,0.090689,-0.076467,-0.076845,-0.21502,0.027017
0.089907,-0.46199,0.6252,0.13938,-0.08823,-0.064911,0.020246,-0.025063
-0.14721,-0.39146,-0.44163,-0.63047,0.064299,-0.016057,-0.153,-0.12371
0.038744,-0.043484,-0.09808,-0.22338,0.037108,0.12471,0.31323,0.044692
0.084643,0.54321,0.344,-0.26112,-0.037172,-0.032659,-0.15042,0.082573
-0.041623,0.33737,-0.6635,0.65722,0.021156,-0.1045,0.12843,0.07625
0.073083,-0.34116,-0.012485,0.12645,-0.084536,0.011774,0.071599,-0.013547
-0.017346,-0.17303,0.34443,0.64567,-0.0022312,0.036008,0.42085,0.078063
-0.1415,-0.50346,-0.23758,-0.85046,0.06551,-0.054253,-0.80869,-0.22032
0.020923,0.89229,0.10032,0.071317,0.0020338,0.14013,0.11718,0.035469
0.017318,-0.47225,0.095481,0.48445,0.12021,0.049165,0.097341,0.039813
0.098633,0.17428,-0.51996,-0.77126,-0.17359,-0.15544,-0.12494,-0.059353
-0.0073595,0.49421,0.54984,0.30972,0.08136,0.064784,0.17838,0.097345
-0.12758,-0.71659,-0.07153,-0.21026,-0.12321,-0.080172,-0.03034,-0.036517
0.035791,0.53425,-0.41081,0.0066078,0.094823,-0.091501,-0.015866,-0.038328
-0.055929,-0.56419,0.38512,-0.18494,0.054977,0.1623,0.088836,-0.063545
0.14383,0.11604,0.42387,0.10137,0.053329,0.086204,0.063679,0.1072
0.024624,-0.14774,-0.13519,0.98535,-0.19986,-0.031857,0.023439,0.060078
-0.048039,0.1406,0.1702,-0.45379,0.060584,0.010439,-0.17558,-0.025408
0.017579,-0.21905,-0.4713,-0.02931,-0.071767,-0.20913,-0.036466,-0.056109
0.10238,0.21981,-0.45546,-0.29813,0.16884,0.090898,0.31333,0.17028
-0.1778,0.9091,0.30133,-0.028905,0.095302,0.012814,-0.30703,-0.23765
0.059444,-0.42035,0.050165,0.22066,-0.2371,-0.035966,0.063871,0.14147
-0.2867,-0.3049,0.1391,-0.49708,-0.015163,0.024065,-0.17332,-0.16111
0.26221,-0.21879,-0.55812,0.25412,0.01963,0.038024,0.094383,0.011383
0.060467,0.067837,0.91124,-0.010363,0.21942,0.1633,0.074499,0.11309
-0.068509,0.052507,-0.14917,0.52259,-0.18106,-0.075894,-0.033286,-0.073475
0.011041,-0.25682,-0.22667,-0.34902,-0.056789,-0.17141,-0.037956,0.13265
-0.10488,0.072201,-0.053496,0.25895,0.0059917,-0.068656,0.32028,-0.040964
0.077091,-0.026227,-0.42741,-0.69114,0.23325,0.15377,-0.23975,-0.070366
0.14276,0.78919,0.9214,0.30215,-0.047634,-0.090909,-0.079267,-0.033731
0.0048002,-0.16391,-0.2158,0.32622,-0.048319,0.21183,0.25927,0.10737
-0.14387,-0.69405,-0.16579,-0.39864,-0.081782,-0.087752,-0.079988,0.00026505
0.099994,0.11509,-0.13779,0.23075,-0.077796,-0.053435,-0.21081,-0.036135
-0.15731,-0.033082,0.16063,0.29426,0.0030581,0.087143,0.097476,-0.018923
0.0033924,0.51602,-0.16312,-0.35474,0.059928,-0.033817,0.084665,0.011553
0.001979,-0.0064047,-0.1003,-0.30033,0.038997,-0.095967,-0.093715,-0.015916
0.095189,-0.2607,0.071447,0.17004,0.0035579,-0.028219,-0.1242,0.038934
0.071931,-0.11824,-0.31423,0.057494,0.126,0.10837,0.12838,-0.011169
-0.12964,0.0034749,0.79583,0.03409,-0.03102,-0.074927,-0.11407,-0.056093
-0.016062,0.43841,-0.33472,0.012853,-0.045839,0.095786,0.13614,-0.0009457
0.05492,-0.3058,0.048307,0.38201,-0.15327,-0.12774,0.09269,0.022764
-0.024305,-0.32903,-0.068892,-0.36202,0.028956,0.115,-0.0005418,0.01625
0.060434,-0.073585,-0.28099,0.26085,0.00029844,-0.10546,-0.15097,0.011652
-0.033198,0.042269,0.44758,-0.53493,0.057147,0.092938,0.07808,-0.021872
0.016174,0.69364,-0.15437,0.42672,0.066259,0.075731,0.19268,0.11087
-0.017321,-0.32055,-0.19508,-0.2472,-0.035234,0.0047419,-0.19211,-0.067267
-0.008343,0.17974,0.3109,-0.0027984,0.041455,-0.020849,-0.10951,-0.018072
-0.0037084,0.083859,0.34236,-0.065964,0.093103,-0.04212,-0.076483,-0.03932
0.012045,-0.21998,-0.63535,0.057352,-0.15354,-0.060281,0.17992,0.055777
-0.070789,-0.25016,0.11162,0.52592,-0.16666,-0.2161,0.05857,-0.053447
0.08326,0.10038,-0.15635,-0.65763,0.18745,0.2179,-0.17378,-0.015364
-0.02639,-0.060333,0.073776,0.46212,-0.074405,0.048121,0.031214,-0.0092241
-0.017611,-0.31059,-0.48802,-0.16786,-0.021377,-0.12184,0.057752,0.028137
0.06198,0.49873,0.50907,-0.47633,0.074009,0.069223,0.055222,0.034912
0.0085182,0.11089,0.23494,0.63073,0.071532,0.075624,-0.038597,0.027259
0.016672,-0.26235,0.51333,0.012497,0.017826,0.10075,0.033675,-0.010212
-0.15619,0.33236,-0.49112,-0.40174,-0.00204,-0.035772,0.18513,-0.0072922
0.13037,-0.22274,0.063221,0.58307,-0.10658,-0.13999,-0.20263,-0.0034421
-0.04538,-0.038161,-0.46824,-0.65791,-0.00042498,-0.041703,-0.15408,-0.038295
0.03569,0.08011,-0.2465,0.26663,0.057216,0.0857,0.025522,0.0438
-0.14152,-0.079805,0.65372,-0.27491,-0.16906,-0.094674,0.14093,-0.062332
0.087581,-0.025834,-0.091198,0.25015,0.18743,0.13578,-0.096216,0.033645
0.027996,0.03989,0.21229,0.2259,-0.08424,-0.058171,0.033939,-0.019892
5.5686e-05,-0.0055292,-0.58443,-0.39388,0.09455,-0.034451,0.01698,-0.0040502
0.10498,-0.081026,0.47282,0.41389,-0.072289,0.0056809,-0.028943,0.026753
-0.032863,-0.034911,-0.79389,-0.44603,-0.0057306,0.0094272,0.18568,0.0494
-0.023589,-0.27052,0.5156,0.070699,-0.07213,-0.13112,-0.15185,-0.029561
-0.18033,0.71407,0.41015,0.58585,0.07287,0.17063,0.043572,0.0010419
0.17627,-0.065031,-0.21187,-0.26331,0.12488,0.078349,-0.010626,0.024182
-0.039597,-0.10112,0.21087,-0.35456,-0.056732,-0.065708,-0.14409,-0.10068
-0.10864,-0.1155,-0.26101,0.42773,-0.01909,0.040797,0.063597,-0.014148
0.094987,-0.18979,-0.17619,-0.54918,-0.03596,-0.011162,0.15821,0.057144
0.017561,-0.17943,0.57383,0.03685,-0.0060486,0.0336,0.045451,0.034899
-0.090119,0.029127,-0.65863,0.29065,-0.11695,-0.32681,-0.31362,-0.02648
0.12396,0.70639,-0.19902,-0.096233,0.15487,0.31314,0.23026,0.11482
0.058254,0.17872,0.18356,0.16154,-0.026274,-0.030212,-0.11841,-0.072846
-0.1236,-0.59326,0.18183,-0.16711,-0.042928,-0.11263,-0.014121,-0.081983
0.10899,-0.3895,0.19926,0.38079,0.073816,0.053319,-0.10357,-0.006479
-0.041517,0.24591,-0.16666,-0.20209,-0.11359,-0.2242,0.18498,0.013149
-0.044293,-0.15188,0.45272,-0.237,0.17581,0.018951,0.14143,0.10226
-0.094617,0.39011,-0.60785,0.22712,0.0040556,0.36318,-0.085694,-0.082329
-0.051331,0.024061,-0.031868,-0.43745,-0.059026,0.051523,0.018658,-0.0087063
0.20369,0.049257,0.39347,0.62574,-0.099735,-0.057361,-0.13248,0.019094
-0.062837,-0.19783,-0.44837,-0.42203,0.030293,-0.028067,0.1394,0.11097
0.048494,-0.070242,0.66966,0.14349,-0.035851,-0.23074,-0.25261,-0.13903
-0.063358,0.28033,-0.20407,-0.054384,0.022732,0.073673,0.10494,0.026904
-0.023513,-0.0098782,-0.30044,0.18654,0.12085,0.030912,-0.038135,-0.079024
0.034365,-0.33624,-0.29286,-0.27448,-0.16267,-0.056073,-0.017591,0.011331
0.077518,0.17986,0.63268,0.53982,0.071043,-0.039406,0.12784,0.12527
-0.044435,0.035571,-0.26951,-0.6425,0.040767,0.12837,0.32038,0.19937
0.025838,0.058054,-0.48522,0.16504,0.035128,0.019077,-0.36162,-0.20468
-0.0024641,-0.36869,0.50075,-0.042902,-0.056068,-0.060566,0.066342,-0.071767
-0.075707,0.29765,0.015852,-0.0216,0.04741,0.016624,-0.18475,-0.081613
0.0091512,0.038488,0.46429,0.48111,-0.053829,0.11197,0.056997,0.016272
-0.098455,-0.39816,-0.34562,-0.46297,-0.0088506,-0.14812,0.041536,0.050921
0.15033,0.66556,-0.30329,0.24828,-0.01306,-0.075444,-0.043841,0.015617
-0.038687,-0.31192,0.074484,0.0363,0.035631,0.12674,0.042574,0.020707
0.0014865,-0.029815,0.026879,-0.5143,-0.057003,-0.026855,0.026535,0.043344
9.7704e-05,-0.13452,0.05749,0.2272,0.022975,0.063763,0.44603,0.1539
-0.056531,0.06912,0.36477,0.33639,-0.074521,0.005975,-0.28599,-0.14028
0.019924,0.0083677,-0.21191,-0.11918,0.011044,-0.061687,-0.34228,-0.066581
0.041453,0.28817,-0.38698,-0.017063,0.14739,0.046448,0.011227,-0.094684
0.084343,-0.1287,-0.045405,-0.23432,0.045197,-0.022402,0.032743,0.071469
-0.0027541,0.039999,0.58554,0.29815,-0.046611,-0.018608,0.14523,0.009489
-0.0046046,-0.26726,-0.49354,-0.12287,-0.012497,-0.074406,0.18616,0.055169
-0.026291,-0.12681,0.14073,-0.051078,-0.03403,0.061622,-0.14746,0.06028
-0.18789,0.30062,0.091887,-0.14853,-0.058217,-0.20229,-0.10415,-0.099697
0.13384,0.15323,-0.10688,0.23583,0.030997,0.26101,0.082754,0.013374
0.0089608,-0.20979,0.25697,-0.30926,-0.063607,0.086208,-0.055061,-0.052959
-0.10037,-0.028555,0.16118,0.43738,0.072513,-0.12389,0.11504,-0.001242
0.12086,0.13069,-0.1591,-0.13195,-0.020425,-0.048573,-0.11857,0.059532
0.019798,-0.29682,-0.54704,0.061526,0.0028572,0.10855,0.11024,0.082608
-0.11087,0.054681,-0.041144,-0.060613,-0.027981,-0.11464,-0.074655,-0.064978
-0.0022224,0.25413,0.32784,0.12557,0.03669,0.13184,0.24765,0.046098
0.043422,-0.12242,0.20095,-0.46729,0.056842,-0.02082,-0.33749,-0.10026
-0.0041381,0.18719,0.45334,0.27657,-0.014493,-0.22237,-0.072372,-0.027946
0.089018,-0.025379,-0.61052,0.066997,0.095424,0.2374,0.082427,0.036139
-0.0070949,-0.22049,-0.28808,-0.19038,-0.075409,-0.12586,0.025973,-0.0097497
0.040571,-0.016672,0.31827,0.37937,-0.098408,0.016683,0.11048,0.037491
0.056813,0.012687,-0.2456,-0.32497,0.041227,-0.060292,-0.046443,0.037339
0.015108,0.16,0.61301,0.11132,-0.078694,0.21503,0.39122,0.11497
-0.48521,-0.21297,-0.31005,-0.21728,-0.028227,-0.22623,-0.49087,-0.26063
0.18772,0.15351,-0.015706,0.35389,0.044935,-0.0080191,0.056816,0.067009
-0.0047819,0.11303,-0.15319,-0.26082,0.24336,0.30765,-0.06776,-0.042507
0.15755,-0.026871,-0.066845,0.055634,-0.14286,-0.22473,0.13511,0.12192
0.1066,-0.035344,0.14136,0.06824,-0.0348,0.10498,-0.022115,0.013464
-0.077185,-0.046647,0.42426,0.010393,-0.064864,-0.14976,-0.16425,-0.063239
-0.079299,-0.083208,-0.35122,0.30284,0.0013093,0.11906,0.24028,0.063502
-0.015604,0.014739,-0.37285,-0.47727,0.13984,-0.082021,-0.019167,-0.10656
0.15348,0.13567,0.11681,0.10705,0.037485,0.097642,0.073271,0.098209
-0.14264,-0.16649,0.44547,-0.0066243,-0.15044,-0.16274,-0.16198,-0.095818
0.087331,-0.19694,-0.10604,-0.12224,0.020475,0.019647,-0.021751,0.05347
-0.20476,-0.19156,0.040218,-0.04331,0.03386,0.035766,0.0017781,-0.03983
0.19063,0.51785,0.095487,0.28613,-0.095117,0.12053,0.01022,0.06972
0.022268,0.35432,-0.54855,0.054642,0.086521,-0.0067489,0.19898,-0.016148
-0.04664,-0.059158,0.4304,-0.0028595,0.0085891,-0.040971,-0.15058,-0.039462
-0.032055,-0.047587,-0.26172,0.074537,-0.094232,-0.17721,-0.17898,0.015514
0.066272,-0.078139,-0.16847,-0.44806,0.11437,0.17051,0.10598,0.0081778
-0.10244,-0.93842,-0.02889,0.17074,0.0097419,0.11933,0.12605,0.0087779
-0.013611,0.70244,0.54994,-0.0073873,0.021852,-0.13549,0.013772,-0.029706
-0.0097129,0.10721,-0.079546,-0.061221,-0.075652,-0.047038,0.15157,0.08785
-0.034977,-0.18516,0.20683,0.53232,-0.05602,-0.076015,-0.51563,-0.13874
0.23154,0.32767,-0.093292,-0.2658,0.088774,0.18427,0.52747,0.14195
-0.046098,-0.2407,-0.38951,-0.26769,-0.055062,-0.085914,-0.36764,-0.13261
-0.040386,-0.40086,-0.16982,-0.074228,0.067486,-0.010917,0.064795,0.053288
0.075719,0.43778,0.25792,0.15134,-0.066688,-0.043316,0.075103,0.067027
-0.089657,-0.17474,-0.01474,-0.051278,0.0036284,0.13755,-0.1098,-0.075493
-0.10791,0.17635,0.011145,0.068155,-0.0026804,0.086418,0.096273,-0.061476
0.02033,0.1452,0.023192,0.18111,0.054945,-0.2985,-0.072342,0.031203
0.013727,-0.21047,0.31935,0.22407,0.019963,0.1698,0.57153,0.2105
0.0055511,0.49332,-0.0048563,-0.35126,0.016876,0.053161,-0.70705,-0.2189
0.066918,-0.23494,-0.47068,0.0084654,-0.15807,-0.14912,0.2241,0.03971
0.0034089,-0.44045,-0.20088,-0.14293,0.096029,0.06226,-0.10427,0.0095065
-0.043614,0.037232,0.18148,-0.2429,0.075478,-0.00080425,-0.059555,-0.044221
0.051252,0.15111,0.28699,0.58463,-0.11074,0.012753,0.31935,0.13603
0.030206,0.10021,-0.0326,-0.17398,-0.017455,-0.022453,-0.053004,-0.028059
-0.0055202,-0.014639,0.2608,-0.00052196,0.0038879,0.010491,-0.23059,-0.099027
-0.025207,-0.52789,0.05585,-0.21261,0.14897,0.017672,-0.03292,0.0092448
-0.13878,0.28125,-0.48594,0.55143,-0.034781,0.10844,0.18913,-0.015371
0.051756,-0.00047327,-0.33588,-0.89448,-0.14825,-0.178,-0.0014866,0.030745
0.014952,0.29671,0.58995,0.55919,0.074867,0.18214,0.07504,0.038723
0.17269,0.51051,-0.35808,-0.10451,-0.052334,-0.23244,-0.12058,-0.0066786
-0.16235,-0.58811,0.07768,0.10383,0.033031,-0.046008,-0.026362,-0.01937
-0.013316,0.018167,0.59328,0.42247,0.057615,0.14851,0.060182,0.016132
0.07318,0.19586,-0.3879,-0.51244,0.021168,0.070608,-0.072526,0.013457
-0.066722,-0.17363,0.011246,0.03705,-0.053425,-0.021302,-0.065599,-0.114
0.043612,-0.49707,-0.15997,-0.002599,0.03622,0.068455,0.1901,0.14079
0.029106,0.18023,-0.24274,-0.13295,0.00027534,-0.034948,-0.1413,-0.0041732
-0.024494,0.1595,0.22619,0.052589,-0.0056059,-0.12832,0.38591,0.013028
-0.031508,0.18228,0.24849,0.29836,-0.12233,-0.031942,-0.40722,-0.11257
0.10157,0.10972,-0.17514,-0.71252,0.064266,0.027695,-0.01972,0.025405
-0.11758,-0.25785,0.24387,0.41453,0.039019,0.0037609,-0.044255,-0.041328
-0.024925,-0.025422,0.050711,0.44887,-0.088003,-0.025691,-0.0032848,0.039559
0.059378,0.085004,-0.85876,-0.3958,0.090192,0.31403,0.28348,0.058009
0.034008,0.12443,0.73119,0.16328,0.035151,-0.11051,-0.004267,-0.0086028
-0.053886,-0.13823,0.067663,0.12629,-0.018416,-0.32371,-0.062562,-0.019074
-0.0087809,-0.16957,-0.09371,-0.3904,-0.0080135,0.17326,-0.095911,-0.0044171
0.013142,0.16424,-0.058633,0.19782,-0.043328,0.0040803,0.011037,0.0039894
0.058651,0.14438,0.11085,-0.22766,0.046989,0.026897,-0.040562,0.013521
-0.0053257,-0.073761,-0.70833,-0.074186,-0.0032944,0.13134,0.11473,0.02355
0.016185,-0.054025,0.47907,0.36852,-0.077545,-0.019107,-0.14147,-0.060341
-0.072428,0.0069085,0.043812,-0.14978,0.042586,-0.12757,0.29196,0.034732
0.033383,0.092379,-0.026465,-0.019668,0.013151,-0.15439,-0.10795,-0.0040556
-0.0022141,-0.20429,0.036052,0.15749,0.060714,0.11258,-0.30864,-0.020496
-0.06948,-0.0469,0.23976,0.1007,-0.17395,-0.028223,0.019977,-0.084685
-0.042863,0.026324,-0.041475,-0.1897,0.14535,0.13578,0.15361,0.030329
0.070421,0.204,0.2366,-0.15859,-0.020224,-0.12838,0.078781,0.13748
0.083345,-0.067538,-0.70292,0.17113,-0.014204,0.20367,0.047081,-0.020714
0.042989,0.19664,-0.19182,-0.34063,0.038548,-0.078693,0.0046099,-0.014378
-0.0038969,-0.17551,0.4308,0.22836,-0.018122,0.047738,-0.048745,-0.023219
-0.22962,-0.52874,0.0064648,0.0030167,-0.027869,-0.097294,0.026755,-0.086458
0.13083,0.58047,0.31536,0.52952,0.025075,0.040236,-0.098397,0.069121
0.053356,0.18888,-0.10324,-0.48252,0.0081164,-0.13393,-0.066373,0.029265
-0.025048,-0.18258,-0.044687,-0.0036448,-0.1019,-0.22939,0.012024,0.0048239
0.028183,0.049831,-0.38912,-0.035696,0.062489,0.44923,-0.004937,-0.058832
-0.060289,-0.39655,0.25777,0.12296,-0.068852,-0.066583,0.24141,0.033815
-0.055654,0.39213,0.017347,0.026288,0.16028,0.12967,-0.17111,-0.060661
0.0037078,-0.29397,-0.38751,-0.1223,-0.039517,-0.23529,0.030988,0.040922
0.079486,0.20374,0.57773,-0.055856,-0.043911,0.033772,0.043391,0.073268
-0.069893,-0.22102,-0.49147,-0.06132,0.029007,-0.17278,-0.055164,-0.041547
0.07148,0.028696,0.09984,-0.026796,0.045428,0.23832,-0.052945,-0.061332
0.065935,0.23675,0.95849,0.40947,-0.14398,-0.038305,0.027477,0.052744
-0.071527,-0.40795,-0.63089,-0.12576,0.053972,-0.03469,-0.094343,-0.020097
0.0018916,0.63351,-0.41603,-0.25674,0.07667,0.060853,0.050944,-0.046134
0.0038829,-0.05451,0.34747,0.24277,-0.020719,0.013291,0.24486,0.10668
-0.027378,-0.11519,-0.29812,-0.16756,-0.05747,0.017631,-0.090803,-0.0077179
0.071709,0.050302,0.44133,0.49476,-0.00083267,0.011603,-0.1049,-0.022734
-0.042471,-0.21632,-0.34082,-0.46756,-0.020921,-0.15236,0.061348,0.053537
-0.18165,-0.5954,0.13087,-0.09522,0.0090103,-0.058726,-0.12389,-0.10689
0.1711,0.64055,-0.13968,-0.021995,0.074761,0.05999,0.0029985,-0.026832
-0.029528,0.0094974,-0.092623,0.22849,-0.11972,-0.12247,0.082426,0.013453
-0.047644,-0.29024,0.42584,-0.24175,0.16781,0.22348,0.020652,-0.00043555
0.13349,0.49412,-0.16564,0.18519,-0.086898,0.028139,-0.057159,0.034247
-0.016925,-0.25292,-0.11409,0.033356,0.028689,0.18956,0.021078,0.016802
-0.061749,-0.14081,0.042279,0.068513,0.059419,-0.16864,0.12271,0.056935
0.013532,0.27373,-0.04172,-0.069206,-0.082807,-0.12666,-0.21317,-0.072223
0.019749,0.018198,0.18522,0.056635,-0.0092946,0.016295,0.16958,0.058119
0.056551,0.040929,0.44502,-0.047528,-0.010471,-0.046566,-0.11989,0.024792
