0.11129,-0.12491,-0.040256,-0.012125,-0.023126,-0.0030836,0.066888,0.033964
0.060315,-0.36377,0.054856,0.067278,0.032927,0.020993,0.077295,-0.083699
-0.025423,0.071608,0.15981,-0.0080753,-0.0037304,0.0080296,0.0041161,0.20318
0.15831,0.019525,-0.3587,-0.019571,-0.00044485,0.012687,0.0041621,0.37714
-0.092936,0.32571,0.31925,-0.014445,0.0034382,-0.0044999,-0.031964,-0.056618
-0.30458,-0.54666,-0.76737,-0.086992,-0.039347,-0.020853,0.035764,-0.27287
0.19288,0.077392,0.59242,0.11368,0.0035435,-0.037395,-0.15308,-0.30543
0.17049,0.66313,0.47685,0.063446,0.061304,0.093173,0.11895,0.20341
-0.17843,-0.32262,-0.74699,-0.07427,-0.01496,-0.036464,-0.01663,0.018946
0.43394,-0.30982,0.272,0.0047859,0.016598,0.033837,0.05634,0.032959
-0.42224,-0.086081,-0.092035,-0.058911,-0.04729,-0.063448,-0.061139,0.036974
-0.23816,0.51564,0.35505,0.055153,0.027866,0.05473,0.23257,0.16722
0.12896,-0.62544,-0.49731,-0.06653,-0.085661,-0.11859,-0.40552,-0.4084
0.30703,0.92542,0.76399,0.084691,0.065912,0.019541,-0.0052832,0.57943
-0.38047,-0.32639,-0.75199,-0.029253,0.014662,0.11148,0.21627,-0.39761
0.17081,-0.7585,-0.2479,-0.016753,0.027085,0.018395,0.096839,-0.017685
0.42368,0.26641,0.55108,0.076107,-0.036684,-0.12533,-0.15123,-0.19523
-0.77754,0.40011,0.14703,-0.13304,-0.066764,-0.013991,-0.081991,-0.17519
0.89454,0.42558,0.026746,0.05893,0.038537,-0.014535,-0.070789,0.57618
-0.55412,-0.83696,-0.53406,0.0030534,0.013286,0.13019,0.24816,-0.29255
0.045935,0.47771,0.13027,0.042098,0.091111,0.098358,0.14602,0.45161
0.020367,-0.75125,-0.1752,0.041921,-0.033763,-0.096603,-0.090872,0.54929
-0.17958,0.75248,0.17337,-0.13175,-0.065719,-0.058732,0.11304,-0.55405
0.35146,-0.25112,0.16531,0.074433,0.025296,-0.0012814,-0.41588,-0.57334
-0.16747,0.81815,0.78861,0.073645,-0.0037934,-0.0040647,0.056285,0.54731
-0.13337,-0.91976,-0.46153,0.053141,0.10445,0.22128,0.2025,-0.75549
0.018572,-0.093541,-0.33939,-0.24434,-0.14974,-0.32477,-0.34199,-0.23543
0.26763,-0.13467,-0.43354,-0.020596,-0.023319,-3.9443e-05,0.02758,0.40365
-0.29767,0.16031,0.18564,-0.039399,-0.030608,0.010337,0.29876,-0.088959
0.13708,0.44228,0.052131,0.068486,0.033013,-0.0097481,-0.065234,0.43915
0.268,0.35611,0.14762,0.24233,0.13765,0.19986,0.030088,0.18155
-0.58513,-0.14727,0.15055,-0.055804,-0.020449,-0.0077502,0.154,0.22325
0.44294,-0.77235,-0.10433,0.025855,0.012117,-0.0072192,-0.18045,0.54114
-0.010317,-0.059396,-0.10377,-0.14621,-0.061928,0.013117,0.3983,-0.25964
-0.1676,0.10682,0.19445,0.051565,0.04548,0.074896,-0.12089,-0.69258
-0.20503,0.074098,-0.084381,-0.10145,-0.13579,-0.34763,-0.76374,-1.0272
0.70167,0.49203,0.057102,0.033409,0.095899,0.32141,0.2192,0.66657
-0.2629,-0.29033,0.090365,0.00132,-0.010778,-0.17752,0.21217,-0.27695
-0.66264,0.001938,-0.077203,0.10575,0.027628,-0.009289,0.077542,0.6926
1.0575,0.56245,0.047269,0.033623,0.03106,0.013804,-0.087082,0.3715
-0.84256,-0.61224,-0.40203,-0.16805,-0.10959,0.049154,0.19071,-1.0677
-0.23437,0.32623,-0.14861,0.079691,0.059668,-0.065526,-0.46937,0.75766
0.36272,-0.083787,0.86758,0.028238,0.016766,0.085843,0.36308,0.078701
0.32761,0.11454,-0.64239,-0.086249,-0.08822,-0.088651,0.19455,-0.11145
-0.51646,-0.77261,0.39442,0.0037421,0.051043,0.092004,0.014109,0.58288
0.94921,-0.0036413,-0.079753,0.010823,-0.017211,0.14406,0.13017,-0.66406
-0.3143,0.33959,-0.42587,-0.048218,0.0047076,-0.14352,-0.37536,-0.10091
-0.29989,0.060607,0.43329,0.13173,0.062215,-0.013573,-0.32566,-0.5225
0.36665,-0.24814,-0.24559,0.0033742,0.014051,-0.053013,0.37215,0.55976
-0.36945,0.69828,0.15232,0.12026,0.10115,0.11993,-0.14769,0.30934
-0.73379,-0.12493,-0.33826,-0.089569,-0.14684,-0.29253,-0.030187,-0.24
0.11144,-0.34245,0.11162,-0.20599,-0.067513,0.22454,-0.075459,-0.3644
0.40259,0.58681,0.43747,0.058575,0.025292,-0.071552,0.072651,0.30212
0.2579,-0.4416,0.064569,0.046973,-0.025501,-0.0093359,0.37851,0.078946
0.65308,-0.20674,0.049395,0.016846,0.084605,0.27799,-0.15652,-0.24695
-0.15713,0.50424,0.088712,0.015614,-0.026792,-0.2178,-0.1116,0.23418
-0.31833,-0.023286,-0.51036,0.083426,0.078672,0.15922,0.60373,0.054102
-0.82852,-0.46857,-0.79804,-0.27837,-0.12132,-0.10674,-0.54651,0.093041
1.0571,-0.2323,0.53728,0.14246,0.014999,-0.17956,-0.090876,0.25198
-0.56335,-0.31168,0.035999,0.034326,0.043278,0.058476,-0.049446,-0.41364
-0.36244,0.47189,0.75548,0.14755,0.065695,0.092605,-0.17514,-0.41928
0.56034,0.32262,-0.6607,-0.19012,-0.15976,-0.29498,-0.0080259,-0.16265
-0.2282,0.14017,0.33668,0.08281,0.10103,0.30272,0.34336,0.70226
0.0040534,0.33051,0.73321,0.058667,0.027096,0.065745,0.14694,0.48462
-0.010878,-0.26539,-0.97875,-0.084386,0.015996,0.22049,0.04655,-0.62878
0.27815,-0.004523,0.051899,-0.0038911,-0.034773,-0.22583,-0.047944,-0.23758
0.11567,-0.76172,-0.31601,-0.16939,-0.094767,-0.055196,-0.3282,0.15483
0.31439,-0.14767,-0.0046216,0.12994,0.054248,-0.17439,0.084167,0.078324
-0.51776,0.89804,0.048642,0.082118,0.021507,0.033681,-0.0032481,0.14991
-0.14095,-0.35349,0.50802,0.016374,-0.0052481,-0.00081691,-0.064904,-0.17729
-0.26843,0.32971,0.44378,-0.12055,-0.05671,0.066743,0.025202,-0.53701
0.17634,-0.1719,-0.44927,0.047864,0.10225,0.15923,0.055736,0.62246
0.27876,-0.60277,-0.71116,-0.023842,-0.058814,-0.20695,-0.022114,-0.032797
0.093922,0.44125,0.54761,0.063856,0.031157,0.16375,0.47577,0.4101
-0.31472,0.2787,0.15426,0.045986,0.044622,0.052182,-0.40815,-0.24834
0.12404,0.46306,-0.039907,-0.10854,-0.072732,0.074527,0.38385,0.032355
-0.12078,-0.52158,-0.18268,0.084367,0.030807,-0.29405,-0.59003,-0.37246
-0.034275,-0.25249,0.21982,-0.22756,-0.16827,-0.10972,-0.11414,-0.40752
0.59266,-0.3448,-0.54076,0.15781,0.19695,0.29808,0.0054397,0.74162
-0.4068,0.32941,0.14015,0.067473,-0.038085,-0.22779,0.53479,0.063474
0.3548,-0.38314,0.30451,0.17213,0.055694,-0.070518,0.03071,-0.036882
-0.45358,0.30863,0.087135,-0.22456,-0.022455,0.46549,-0.316,-0.58161
0.002013,0.4829,-0.34733,-0.084311,-0.062363,0.021813,0.29543,0.45598
-0.39621,0.027903,0.17184,-0.10288,-0.072556,-0.22014,-0.41238,-0.49785
0.50103,0.017081,0.29029,0.13369,0.071374,-0.10161,-0.3815,0.28813
-0.0073829,0.23353,-0.0036711,0.14896,0.040879,-0.064729,0.23388,0.4585
-0.10636,-0.36753,-0.37049,-0.1271,-0.031449,-0.14501,0.7,-0.42164
0.37073,-0.66496,0.35034,0.1964,0.080955,0.43431,0.42231,0.6018
-0.33973,0.082689,-0.2886,-0.15364,-0.066967,-0.29324,-0.42909,-0.29974
0.17748,0.15946,-0.47501,-0.028423,0.04095,-0.11629,-0.83272,-0.41666
-0.061733,-0.014737,0.3396,-0.021173,-0.039764,0.088024,0.45233,0.069813
-0.089055,0.27077,0.10349,0.11886,-0.03456,-0.036881,-0.13639,-0.044568
-0.17094,0.25007,0.093485,-0.14643,-0.020282,0.59513,-0.14423,0.052291
0.08233,-0.46166,0.17967,-0.003467,-0.019095,0.05288,0.10333,-0.0064842
0.23257,0.20092,0.14502,0.0096602,0.032537,-0.17311,0.14821,0.40488
0.19364,-0.020676,-0.83838,0.0029616,0.088307,-0.18436,0.14885,0.091951
-0.34655,0.14313,0.91577,0.085876,-0.054978,-0.36016,0.051227,-0.53842
0.097526,0.43636,-0.43061,0.015577,0.047237,-0.21566,0.36184,-0.0017782
-0.1911,-0.21001,0.16697,0.12669,0.018602,0.24695,-0.50062,0.22466
-0.17116,-0.47321,-0.27008,-0.12944,0.013658,0.2409,-0.23607,-0.13398
0.22989,-0.35596,-0.36002,-0.15318,-0.10216,-0.048755,-0.16228,-0.29869
-0.025294,-0.19358,0.51442,0.1554,-0.010024,0.056172,0.29373,0.78236
0.36099,0.4553,0.30749,-0.0094373,-0.023352,0.076424,0.39324,-0.19083
0.1931,0.7375,-0.24455,-0.046333,0.052914,-0.071983,-0.069899,0.013319
-0.63979,-0.42592,-0.63178,-0.19681,-0.030799,-0.18075,-0.14392,-0.17731
0.21949,-0.1771,0.53041,0.19677,0.038973,-0.04691,-0.34394,-0.13787
-0.16909,0.019403,0.15716,0.097177,0.044774,0.33976,0.12919,-0.13208
-0.050126,-0.31173,-0.37654,-0.071784,-0.051082,0.078806,-0.15828,-0.14817
0.22293,0.38218,0.36576,0.050948,-0.005165,0.071563,0.4546,0.72571
0.0081781,0.64303,0.3041,-0.13499,0.0037813,-0.20343,0.035295,-0.55878
0.27379,-0.50497,-0.41513,0.16003,0.046622,-0.21172,-0.10688,0.403
-0.51154,-0.39,-0.059223,-0.27497,-0.11868,0.1155,-0.46816,-0.22769
0.23066,0.57444,-0.3007,0.325,0.17953,-0.10169,0.43063,0.083497
-0.42885,-0.52332,0.5329,-0.017599,-0.027974,0.14452,0.1534,-0.13145
0.43995,-0.3892,-0.50985,-0.11647,-0.1168,-0.26646,-0.32299,-0.05392
-0.11611,0.1487,-0.13768,-0.058723,-0.04072,-0.24889,0.21971,0.37473
0.17601,0.93657,0.28425,-0.11884,0.035588,0.33902,0.27272,-0.35869
0.32345,-0.54492,0.3038,0.046114,-0.013411,0.20102,-0.65726,0.59914
-0.45554,0.076277,0.27211,0.17775,0.12432,0.085525,-0.27439,-0.48412
0.31577,-0.0074403,-0.25012,0.1507,0.057767,0.23775,0.78756,0.0041064
-0.39258,0.31769,0.57047,-0.011771,-0.080537,-0.13162,-0.51937,-0.36098
-0.10146,-0.35095,-1.1122,-0.24705,-0.032887,-0.025462,0.65496,0.28675
-0.35422,-0.19813,-0.03379,-0.11723,-0.049162,-0.15109,-0.035209,0.11185
0.29824,-0.12828,0.095479,0.19094,-0.019605,-0.23923,-0.4832,-0.26723
0.1714,0.054658,0.074931,-0.14971,-0.02175,-0.22253,-0.17667,0.10385
0.57119,0.56118,0.46305,0.19781,0.12477,0.13206,0.36507,0.26454
-0.23006,-0.41513,-0.36882,-0.14067,-0.079447,-0.30022,-0.29146,-0.043856
-0.11855,0.4666,0.30936,0.13998,0.10034,0.5521,0.084538,0.067268
-0.099217,-0.13334,-0.19582,-0.12441,-0.062391,0.40907,0.68549,0.28287
0.24443,-0.070559,0.37332,0.29997,0.11175,-0.03307,-0.29498,-0.37564
-0.51398,-0.47378,-0.58693,-0.23624,-0.11216,0.054243,0.15109,-0.42425
0.12299,-0.15054,0.068002,0.0082206,-0.031619,-0.29738,-0.27072,0.76424
-0.18069,0.46782,0.24738,-0.10016,-0.02222,-0.20418,-0.89928,-0.62537
0.17105,0.22467,0.2197,0.11809,-0.014043,-0.38285,0.17078,-0.22601
0.17439,0.066112,-0.027126,-0.071067,0.14901,0.13869,0.50997,0.12771
-0.29094,-0.0061489,-0.29289,-0.14343,-0.11109,-0.11985,0.66504,0.32756
0.72465,-0.59122,-0.75071,0.1754,0.057539,0.46272,-0.37362,-0.0023154
-0.63531,-0.076805,0.50608,-0.0043565,-0.016534,0.34224,-0.11844,0.23521
0.11456,0.63393,0.51038,0.20839,0.050043,-0.16825,-0.31165,-0.20313
0.02792,-0.096777,0.10039,-0.16301,-0.11719,-0.078575,0.1999,-0.11981
0.047392,-0.42298,-0.61223,0.044859,0.021298,-0.22908,0.2076,0.48382
0.13027,0.43778,0.58535,-0.11432,0.012709,0.17892,0.52513,0.088833
-0.031828,-0.48326,-0.55539,-0.11047,-0.0022324,0.09208,-0.76037,-0.60485
0.15982,0.76582,0.49022,0.13347,0.070057,-0.35471,-0.41992,0.081356
-0.6867,-0.55936,0.075092,0.015184,-0.020854,0.28766,0.23844,-0.45156
0.10109,0.34318,-0.6739,0.10468,-0.0021579,-0.27932,-0.083266,0.068909
0.22079,-0.0057831,0.44887,-0.011924,0.0082541,0.15617,0.61589,0.45073
-0.20703,-0.33493,-0.40516,-0.13079,0.033202,0.081519,0.072672,-0.22926
0.25086,-0.55168,0.17323,-0.14144,-0.15426,-0.28796,-0.41295,0.73266
0.22231,0.71883,-0.071607,0.19969,0.078632,0.12269,-0.15031,-0.23281
0.13859,-0.014818,0.10303,0.0034102,-0.017829,0.090789,0.54309,-0.22708
-0.18771,0.18616,0.070393,-0.018147,-0.0055718,0.016904,-0.76026,-0.75179
-0.0077002,0.26077,0.65441,0.026416,0.06923,0.10407,0.90983,0.53278
-0.22153,-0.55519,-0.53389,-0.11273,-0.027132,0.12337,-0.67244,0.29958
-0.14347,-0.51056,-0.32969,0.12645,0.0027036,0.055116,0.25873,0.18769
0.006384,0.45016,0.47922,-0.10084,-0.06762,-0.38679,-0.45317,-0.12705
0.10993,0.22574,0.11493,0.1884,0.13681,0.066588,0.51936,-0.2361
-0.036593,-0.051161,-0.58782,-0.054205,0.0062765,-0.11908,0.15205,-0.1458
0.22228,0.54071,0.29541,0.029468,-0.084691,-0.0072038,-0.37637,-0.12037
0.26809,-0.53078,-0.72146,-0.23324,-0.035021,0.16948,0.38625,0.16259
-0.44799,-0.36024,0.39345,-0.10812,-0.095113,-0.27244,-0.64695,0.13601
0.29032,0.29395,-0.1399,0.14747,0.14103,0.31375,0.22629,0.31235
-0.39456,-0.15432,0.62355,0.12033,-0.0063658,0.15433,-0.17454,-0.38805
0.10461,-0.17366,0.086612,0.13181,0.079901,0.39818,0.50117,0.097465
0.37266,0.18928,0.10105,-0.074942,-0.076625,-0.31364,0.072667,0.098946
-0.33214,0.39551,-0.10274,-0.061717,0.016396,-0.55961,-0.14873,-0.20819
0.023672,0.18708,-0.32101,-0.14843,-0.062714,-0.47469,0.21872,0.20438
0.18625,0.032601,0.14058,0.11814,0.045645,0.076623,-0.46631,-0.22025
-0.19847,-0.29418,-0.64843,-0.07469,-0.041107,0.51472,-0.3212,-0.57031
-0.31202,-0.45617,0.27395,0.10864,-0.010274,0.34861,0.15435,0.35395
0.15589,-0.20113,0.27105,-0.0043092,0.083559,0.39457,0.2577,0.66437
0.068862,-0.18234,-0.048272,-0.10173,-0.072146,-0.035432,-0.049967,0.0015293
0.32722,0.62664,0.68592,0.17504,0.092726,-0.21742,0.34041,-0.0043978
-0.054333,0.30593,-0.66942,-0.096547,-0.031531,-0.059327,0.17787,-0.3111
0.19393,0.30097,-0.80241,0.020551,-0.070302,-0.31649,-0.35136,-0.11148
-0.19161,-0.11695,0.70104,-0.036317,0.077637,-0.28432,-0.16223,-0.41826
-0.3427,-0.81922,0.50454,0.029961,0.037105,-0.14853,-0.25451,0.57005
0.164,0.29801,-0.30813,-0.12375,-0.13716,0.10057,0.46762,0.0012271
0.19887,-0.060088,-0.27287,0.0034345,-0.0073501,-0.12283,0.32092,0.35407
-0.17762,0.23438,0.45423,0.16253,0.067666,0.48132,-0.6103,-0.39
-0.05835,-0.056199,-0.54366,0.034138,0.033801,0.23607,-0.29513,-0.6071
-0.22107,-0.057809,0.056336,-0.15454,-0.053718,-0.031193,0.1333,0.24912
0.28474,0.28563,0.888,0.096735,0.055446,0.16527,0.15757,0.16148
-0.34778,-0.85827,-0.73568,-0.095047,-0.06055,-0.1172,0.44481,0.14924
0.40946,0.82806,0.22559,0.082019,0.01205,-0.061648,-0.40442,-0.11602
0.051144,-0.35276,-0.11589,0.0098653,0.046092,-0.18376,0.20596,0.25945
-0.094936,-0.051583,-0.78595,-0.078143,0.056447,-0.11097,-0.02252,0.29815
0.3978,0.58725,1.2078,0.19984,-0.027935,-0.04129,0.48418,-0.026805
-0.077317,-0.62953,-0.79642,-0.28975,-0.10602,0.071055,0.17469,0.10105
-0.21356,-0.069483,-0.1228,0.038588,-0.013924,-0.037954,-0.76601,-0.50748
-0.28147,0.069352,0.61565,0.098862,0.037682,0.089586,-0.61779,-0.65452
0.036523,0.63398,0.28984,0.11796,0.018193,-0.1245,0.024332,0.30863
-0.10315,0.43926,-0.12105,-0.091002,0.0066353,0.32991,0.422,-0.19815
0.013563,-0.85584,-0.40475,-0.097491,-0.019479,-0.027793,0.44247,0.24931
-0.037755,-0.1768,-0.053177,0.029099,0.026574,-0.044805,-0.41988,0.54623
0.2491,-0.4545,0.027062,0.00057708,0.028049,-0.24823,0.30584,0.09553
0.20016,0.007784,-0.25831,-0.0026834,-0.05412,0.021478,0.033886,-0.16295
-0.039942,0.58867,0.69974,0.1447,0.07648,0.063277,0.11283,0.074276
0.046069,0.27734,-0.29412,-0.13537,-0.080993,0.16687,-0.15927,-0.26838
-0.21452,0.24274,0.0026318,0.0083174,-0.0041699,0.1362,0.035815,-0.24699
0.073887,-0.011149,-0.27662,0.1064,0.079285,-0.25714,-0.22036,0.22755
0.13387,-0.70842,0.23595,-0.052806,-0.050313,-0.0078511,-0.034838,-0.26581
-0.13253,-0.26236,0.025198,-0.040364,0.036126,-0.095147,0.071405,0.41304
-0.37737,0.33403,-0.18997,-0.12248,-0.083423,0.17402,-0.093399,-0.15873
0.029593,0.39102,0.18387,0.075521,-0.0023741,0.063751,0.046274,0.19808
0.079078,-0.2978,0.075636,0.17074,0.069089,-0.23117,0.16936,0.0077316
0.372,-0.18959,0.13272,-0.10229,-0.055491,0.086555,0.23773,-0.26603
-0.045,0.53963,-0.17712,-0.063558,0.023465,-0.036561,-0.3401,0.069625
-0.062737,-0.019966,-0.39357,0.06078,0.049189,0.010518,-0.0064938,0.030568
0.10759,0.02001,0.70224,-0.0022863,-0.016603,0.10451,-0.48493,-0.31786
-0.17481,-0.26252,-0.54503,0.028882,-0.025068,0.043692,0.18018,0.18552
0.066916,-0.17005,0.030276,-0.0876,0.00035022,-0.14767,0.71677,0.26572
0.052696,-0.11222,-0.077766,-0.0078091,-0.018854,-0.031935,0.10135,-0.0002227
0.0036865,-0.34103,0.22617,0.14328,0.072904,0.23415,-0.27679,-0.043534
-0.46709,0.32913,-0.14316,-0.16571,-0.076759,-0.037808,-0.39635,-0.31996
0.27776,0.34015,0.57917,0.20554,0.078197,-0.051972,0.18581,0.072593
-0.17107,0.15451,-0.25747,-0.14959,-0.07232,-0.19197,-0.16459,0.14388
0.26861,0.12171,-0.21913,-0.044081,-0.0053734,0.080876,0.10697,0.39427
0.052276,0.18944,-0.34923,0.052858,0.020986,-0.084824,0.18928,-0.41155
-0.054489,-0.57977,0.30093,0.00018354,-0.040097,0.26471,-0.32135,0.068504
0.078386,-0.030171,0.55573,0.031947,0.053784,-0.049256,0.30503,0.066883
0.11762,0.15934,-0.41531,0.12453,0.052967,-0.18201,-0.4125,-0.3869
-0.13886,-0.445,0.012422,-0.21427,-0.096874,0.046865,0.43514,0.049551
0.067318,0.28161,-0.21396,0.062634,0.049889,-0.10458,-0.041063,0.10953
-0.098371,-0.28989,-0.37176,0.010317,0.009097,0.39459,0.19791,0.30756
-0.42947,0.43343,0.39616,-0.17535,-0.094146,-0.089272,-0.41218,-0.10795
0.18941,0.34328,0.78379,0.24066,0.052653,-0.072948,-0.09338,-0.20968
0.35309,-0.6136,-0.91336,0.063646,0.12129,-0.167,0.38428,0.17869
-0.051903,-0.015167,0.48988,-0.13555,-0.12273,0.033923,-0.3358,-0.15796
-0.066858,0.10496,-0.69021,0.026261,0.023639,0.021629,0.46006,0.11945
-0.31021,0.45977,0.57141,-0.060083,-0.0020861,0.054156,-0.49049,0.084577
0.17767,-0.13201,-0.038606,0.035148,0.0033462,-0.039633,0.16839,0.13236
0.12103,-0.46435,-0.13279,-0.094431,-0.061379,-0.01652,-0.0028522,-0.11395
0.21894,0.25225,0.12748,0.027417,-0.00063357,0.030772,0.26886,0.10411
-0.019158,0.20453,0.12643,0.21267,0.11557,0.0014129,-0.23374,-0.60863
-0.35948,-0.13942,-0.064648,-0.070628,-0.056313,0.098753,-0.09336,-0.12932
-0.038875,-0.020952,-0.41304,-0.06544,-0.00063547,-0.060386,0.085347,0.43207
0.11844,-0.11646,0.083991,-0.02252,0.01681,-0.047214,-0.231,0.12997
0.16251,-0.044628,0.3139,-0.020577,-0.02776,0.019845,0.4089,0.056839
-0.052074,-0.19451,0.03348,0.057277,0.013641,0.12386,-0.26284,0.14664
0.11107,0.40671,-0.29517,-0.070179,0.023359,-0.15033,-0.03871,-0.33363
-0.28099,-0.18063,0.28412,0.011446,-0.045857,-0.068949,0.13863,-0.073165
0.090206,0.198,-0.24764,0.060512,0.040159,-0.0070266,0.23857,0.24421
-0.20538,-0.46752,-0.40867,-0.031709,-0.06234,0.18449,-0.24019,0.16761
0.1927,0.41281,1.0095,0.1026,0.029676,-0.04015,0.090065,-0.097668
0.11471,0.38815,-0.53542,-0.10632,-0.0037324,0.00019542,-0.11054,0.029988
0.079147,-0.064303,0.061902,-0.048692,-0.0058607,-0.075759,0.067819,-0.1935
-0.12963,-0.42952,-0.071343,0.064827,0.031538,-0.12604,0.0039932,-0.18109
-0.039886,-0.075808,0.33904,0.14066,0.046296,0.13155,-0.35994,-0.26484
-0.2194,-0.29329,-0.31696,-0.23518,-0.086407,0.1974,0.083027,-0.071868
0.35714,0.31576,-0.28338,0.10139,0.070943,-0.21781,0.20632,0.65379
-0.12174,0.10247,-0.18026,-0.10751,-0.067724,0.13512,0.079253,-0.052152
0.039401,0.0194,0.88729,0.12231,0.012977,-0.057477,0.10741,-0.055356
-0.12897,-0.12211,-0.12378,-0.029771,-0.0075706,-0.03906,-0.029911,0.040458
0.074691,-0.0039104,-0.029969,0.021702,-0.0047008,0.0096068,-0.035848,0.36247
0.2029,0.55041,-0.27232,0.033934,0.029068,-0.029325,-0.081678,-0.050396
-0.35626,-0.5023,-0.369,0.0062708,0.046563,-0.05442,0.037192,-0.25346
0.35557,0.36496,0.01472,-0.046232,-0.022761,0.10659,-0.59086,-0.11301
-0.54679,-0.41391,0.88704,-0.0067405,-0.038403,-0.061109,0.56091,-0.32795
0.36448,-0.0051126,-0.38297,-0.086224,-0.015967,-0.0096586,-0.019369,-0.046082
0.31476,0.13038,-0.10468,0.051565,0.01347,0.14475,0.17195,0.46396
-0.30566,-0.3646,-0.21157,0.047848,0.0033466,-0.05802,-0.20593,-0.3915
-0.082102,0.18599,0.10542,-0.049751,-0.01469,0.023185,-0.17469,-0.056571
-0.11457,0.13924,-0.14176,0.017314,0.045702,-0.10362,0.32067,0.13302
0.13058,0.50894,0.394,0.10898,-0.0026425,0.045858,-0.13513,0.42445
0.070422,-0.62903,-0.19929,-0.13384,-0.042335,-0.044369,0.096098,0.1466
0.2473,0.1126,0.41485,0.12477,0.059466,-0.070212,-0.043623,0.17851
-0.35125,-0.0055095,-0.42089,-0.13108,-0.06457,0.16281,0.13751,-0.35436
0.019612,0.12698,-0.068193,0.035651,0.014962,-0.0026394,-0.3246,-0.27374
-0.1774,-0.068976,0.055665,0.022881,0.039875,-0.067809,0.067731,-0.0026319
0.1833,-0.36952,-0.013814,-0.013608,-0.021471,0.028438,0.032081,-0.063236
0.24939,0.30716,-0.069148,-0.042916,0.018084,-0.058939,-0.16595,0.026027
-0.17655,-0.004995,0.51171,0.10665,-0.036995,0.16905,0.24021,0.11831
0.14443,0.45421,-0.21873,-0.041478,0.0085415,-0.12402,0.16615,0.078611
-0.15093,-0.33578,-0.41795,-0.088706,-0.040514,0.10892,-0.14418,-0.31113
0.02718,0.12924,-0.015889,0.074609,0.042656,-0.13109,-0.10322,0.11503
-0.25431,-0.19125,0.2302,-0.059016,0.00059113,-0.021973,-0.053486,-0.36831
0.21325,-0.093049,0.21991,0.096687,0.028996,-0.13951,0.24015,0.62824
-0.00065266,-0.59603,-0.40462,-0.012675,-0.0045601,0.02661,-0.18304,0.41243
0.25307,0.75831,1.0066,0.089702,0.0096299,0.31452,-0.19838,-0.11029
-0.35166,-0.1099,-0.91192,-0.14287,-0.014107,-0.18058,0.31066,-0.34244
-0.061801,-0.2187,-0.11185,-0.069636,-0.091217,0.12767,0.28852,0.037907
0.024617,0.48999,-0.0056732,0.059467,0.051809,0.043245,-0.28126,-0.43687
0.12977,-0.20197,-0.037278,-0.044702,0.00083307,-0.091706,-0.34453,0.05554
0.1626,0.17181,0.61484,0.0081928,-0.017836,-0.08403,0.16118,-0.012232
-0.047197,-0.034179,0.15461,0.24103,0.13597,-0.11566,0.19734,0.33464
-0.08545,0.087806,-0.47233,-0.10482,-0.069614,0.17089,-0.016262,0.080789
-0.16437,-0.45301,-0.42234,-0.085018,-0.018124,0.00090204,-0.1033,-0.11596
0.2214,-0.03682,0.06974,0.01827,-0.0071197,-0.063619,0.08595,-0.20659
-0.15792,0.23962,0.92507,0.10282,0.0097419,0.032236,-0.18201,0.20146
0.22547,-0.053812,-0.62285,-0.19095,-0.077186,0.078306,-0.10231,-0.062473
-0.13163,-0.39954,0.057834,-0.018918,0.013381,-0.14307,0.20704,0.14243
-0.18472,0.21389,-0.2448,0.026037,0.039584,-0.099539,0.18176,0.041971
0.33839,0.67375,0.35107,0.20299,0.087912,0.24107,-0.016672,-0.11519
-0.10898,-0.32038,-0.21019,-0.11165,-0.04407,0.0043127,0.21821,0.11484
-0.16589,-0.15564,0.35952,0.03652,-0.019691,0.018487,-0.35055,-0.28452
0.092368,0.13124,-0.54229,-0.12497,-0.057002,-0.013361,-0.076073,0.23357
-0.064994,-0.20852,0.05225,0.021513,0.0086538,-0.005421,-0.13033,-0.41583
-0.05602,0.26297,0.32203,0.069632,0.029272,-0.059213,-0.19932,0.066003
0.14614,-0.29811,0.14155,0.018749,-0.0027372,-0.13533,0.36819,0.16575
