-0.0062456,-0.35182,0.088233,-0.033203,-0.00054987,0.1314,-0.086061,-0.017161
-0.34921,0.30754,-0.067813,-0.024733,-0.015593,-0.093056,0.2207,-0.23124
0.30893,-0.093496,0.10605,0.03115,0.0077611,-0.068616,0.1387,0.028147
0.055777,0.36335,-0.085611,0.017051,0.038189,0.06382,0.5317,0.41239
-0.1622,-0.3507,0.044128,-0.036091,-0.04924,-0.062892,-0.44028,0.032603
0.21795,0.047101,-0.036902,-0.011461,-0.012138,0.012541,-0.84329,-0.22048
-0.10094,0.40202,0.1468,-0.042255,0.0091587,0.064139,0.71916,0.2532
0.28652,-0.38466,0.078705,0.1212,-0.0084667,-0.094919,-0.65882,-0.16629
-0.17545,0.16102,-0.21822,0.0099393,0.060277,0.23912,0.79896,-0.0057181
-0.40978,-0.53069,-0.11098,0.045854,0.02029,-0.15983,-0.22313,0.075478
-0.09689,0.12212,-0.067443,-0.13798,-0.034566,-0.018087,-0.4539,-0.51891
0.27845,-0.1397,0.10913,-0.072252,-0.033965,-0.10131,0.11192,0.0065615
0.10667,0.29336,0.1469,0.079724,-0.009229,0.11366,0.60312,0.54988
0.36414,0.22618,-0.062118,-0.17342,-0.062064,-0.037777,-0.072629,-0.30277
-0.2229,0.1341,-0.0015478,0.16117,0.057323,0.045204,-0.41647,0.35538
-0.21745,-0.10377,0.33636,0.25568,0.12211,0.11957,0.40409,0.14984
0.044038,0.19333,-0.36182,-0.10877,-0.024264,-0.081133,0.0092691,-0.46593
-0.040389,-0.73429,-0.011705,-0.12027,-0.085206,-0.088781,0.22225,-0.022958
-0.056768,0.069904,-0.16214,-0.02968,0.0015636,-0.0052137,-1.0311,0.033752
0.10446,0.131,0.12238,0.0058387,0.00159,0.052571,0.61451,0.032845
-0.18911,0.051363,0.11353,-0.037909,-0.014721,-0.0085084,-0.44961,0.21734
0.33641,0.66,0.20846,0.065203,0.0075715,-0.03896,-0.002063,-0.31009
-0.084172,-0.18955,-0.17941,0.010424,-0.0093085,-0.10003,0.47677,-0.25911
0.080789,-0.32925,-0.10463,0.032406,0.075624,0.34858,0.49887,0.72317
0.066171,-0.38514,-0.081837,-0.040206,-0.057665,-0.23905,-0.66683,0.0051602
-0.010042,0.46513,0.16412,-0.019276,0.051893,0.012577,0.4345,-0.24014
-0.43567,-0.41417,-0.16135,-0.0057617,-0.048871,0.017473,-0.70519,-0.15237
-0.060611,0.19478,0.10043,-0.0070206,-0.00078263,-0.045313,0.50576,0.011468
0.24195,-0.26307,-0.095146,0.008413,-0.015087,0.010582,-0.63938,-0.3184
-0.18276,0.31259,0.1286,0.040484,0.0094311,0.089934,0.50333,-0.017039
0.51736,0.27753,0.41318,0.14359,0.088091,0.050542,0.86668,0.63335
-0.15073,0.085984,-0.4679,-0.19048,-0.099614,-0.10117,-0.85035,0.05251
-0.072215,-0.029838,0.04724,0.014443,0.055662,0.094804,-0.48652,-0.27059
-0.14922,-0.43399,-0.33154,0.0081441,-0.047478,-0.21333,0.31661,-0.019583
0.53574,0.73479,0.58198,0.048478,0.028806,0.11558,0.31027,0.29384
-0.37313,-0.58383,-0.32286,-0.18457,-0.090033,-0.13599,-0.15071,-0.37224
0.0037477,-0.15953,0.015207,0.075075,0.041775,0.064887,-0.17087,-0.12817
-0.55398,-0.63455,-0.053443,0.093476,0.057392,0.12623,0.23192,0.33229
0.25869,0.44511,0.040318,0.01931,0.0038246,-0.028601,0.055286,0.18516
0.27194,0.79314,0.10777,0.01655,0.021566,0.030956,-0.30581,-0.57111
0.098391,-0.086872,0.35862,0.022233,0.016494,-0.038707,0.09642,-0.17929
-0.11756,-0.57443,-0.45822,-0.12847,-0.090042,0.011824,-0.034781,0.14858
0.072993,0.19194,-0.11694,-0.014614,-0.0017086,-0.060766,0.048186,0.010709
0.032313,0.16587,0.26505,0.089465,0.046683,0.11713,0.36417,0.22035
-0.19076,0.0024375,-0.20244,-0.027875,-0.046662,-0.088622,0.094648,0.43786
0.10008,0.027391,0.0050861,-0.046708,-0.00049213,-0.10092,-0.41511,0.077182
-0.22781,-0.37939,0.068894,0.017347,0.0057177,0.056306,0.23586,0.033765
0.059498,0.29497,0.11582,0.10219,0.073883,0.12528,-0.33839,-0.2194
0.36745,-0.15455,-0.031981,-0.072648,-0.053403,-0.15908,-0.21621,-0.49632
0.14047,0.25577,0.24439,0.048553,0.046115,0.15721,0.16762,0.40907
-0.32532,-0.19995,-0.40523,-0.079865,-0.056958,-0.12802,0.021299,-0.53347
-0.49918,-0.44179,-0.096926,-0.058239,-0.018696,0.032991,-0.016035,-0.26226
0.21235,0.22792,0.23251,0.04419,0.020318,-0.023204,0.4368,0.1327
0.17621,0.1866,-0.11973,-0.0062177,-0.010304,0.063006,-0.060736,0.28223
0.29035,0.56116,0.14303,0.095492,0.068955,0.088351,-0.13892,0.36302
-0.094683,-0.1238,0.30918,0.15375,0.03912,-0.033564,-0.11031,-0.31927
-0.293,-0.41457,-0.60685,-0.23062,-0.10003,-0.11587,0.069507,0.36341
0.2715,0.040708,0.13556,-0.035237,-0.067416,-0.09669,0.021376,0.61101
0.018669,-0.069972,0.26902,0.082493,0.097826,0.12505,-0.15031,-0.49105
0.01739,-0.44096,-0.23165,-0.050367,-0.033982,0.12721,0.33871,0.085054
-0.10758,0.47599,0.15551,-0.012721,-0.033082,-0.24648,-0.18722,-0.56248
0.027885,-0.044253,0.22635,0.19501,0.1631,0.1995,-0.38644,-0.37176
-0.35452,0.077352,-0.58198,-0.2397,-0.11729,0.051379,0.63152,0.32533
0.085286,0.11411,0.12931,0.01155,-0.038338,-0.26861,-0.68636,-0.32917
-0.093438,-0.013611,0.28313,0.089861,0.048263,0.12264,0.41297,0.77209
0.38664,0.16795,-0.15813,0.01922,-0.0060901,0.014324,0.0426,-0.80799
-0.081664,-0.29027,0.033738,0.011046,0.032792,0.054834,-0.020469,0.16539
0.1498,-0.2595,-0.077317,-0.059338,-0.046183,-0.076419,-0.31254,0.67477
0.046813,0.22536,0.033104,0.073821,0.045974,0.096681,0.50379,0.44888
-0.19269,0.28666,0.13871,-0.073911,-0.034445,-0.020121,0.053537,-0.14715
0.081069,-0.4206,0.05151,0.036337,0.001799,-0.020984,-0.14109,-0.27513
0.11955,0.049131,-0.28436,-0.0879,-0.032499,-0.023262,-0.34781,-0.50502
-0.29304,0.17406,0.066963,0.021822,0.0036532,-0.058015,0.048191,-0.38335
-0.026134,0.019406,0.088038,0.1152,0.094992,0.094061,0.13063,-0.017514
0.030632,0.010342,0.16785,-0.034597,-0.094145,-0.14434,-0.10217,0.73779
0.15483,0.072143,-0.18694,-0.0059162,-0.0011483,0.0011357,0.20037,0.33544
-0.42831,-0.53442,-0.20332,-0.080133,0.045763,0.15622,0.11616,-0.6285
0.06997,0.17711,0.033206,0.00056091,0.0072228,0.047827,-0.15125,0.076567
0.38313,0.45757,0.41458,0.095693,-0.0078498,-0.066374,-0.069585,-0.060054
-0.13254,-0.20135,-0.010269,0.049332,0.015652,-0.04643,-0.043655,-0.017838
0.11028,0.097014,-0.4107,-0.10679,-0.0086656,0.090981,0.053191,0.37148
-0.093903,0.084384,0.1222,-0.036102,-0.042011,-0.085034,-0.082147,-0.0061944
0.28819,-0.44534,-0.31544,-0.034786,-0.037507,-0.091194,-0.018765,-0.00056109
0.045451,0.22394,0.30931,0.077554,0.067662,0.12645,0.32984,-0.29833
0.10689,0.027883,0.38768,0.12184,0.039716,0.044218,-0.22406,-0.001057
-0.71429,-0.088888,-0.11227,-0.073402,-0.073687,-0.095334,-0.0018392,-0.14833
0.19501,-0.28215,-0.38769,-0.062691,0.017354,0.0055508,0.14329,0.24333
-0.39197,0.37137,0.42584,-0.025853,-0.022365,-0.034666,-0.017159,-0.42894
0.26289,0.02207,-0.51077,-0.02582,0.010763,0.035455,-0.18025,0.77056
0.26791,0.27355,0.18228,0.092953,0.038717,0.021942,0.074666,-0.082416
-0.07961,-0.26301,0.16661,0.048282,0.0064835,0.035159,-0.065321,-0.45168
0.0095227,-0.31285,-0.067176,-0.05935,-0.039812,-0.080696,-0.11541,0.33941
0.18192,0.17163,-0.074357,0.03458,0.062825,0.072636,0.15211,-0.28228
0.065496,0.057754,0.028196,-0.045906,-0.061829,-0.029058,0.12941,0.3687
-0.41065,-0.10022,-0.063164,-0.028074,0.045993,0.089562,-0.10377,-0.28668
0.18718,0.28279,0.012433,0.033074,0.010376,-0.010434,0.047669,0.048949
0.11855,0.041608,0.18633,-0.018586,-0.083237,-0.15073,0.061189,-0.51322
-0.014137,-0.26232,-0.18051,-0.041885,-0.047341,-0.012103,-0.1566,0.46712
0.2359,0.10465,0.28046,0.06562,0.048239,0.045458,-0.012108,0.047941
-0.15128,-0.03729,-0.23432,0.055017,0.087182,0.053074,0.095676,0.52927
-0.54411,-0.22662,0.07299,-0.025661,-0.023181,-0.012376,0.025265,-0.47692
0.02821,0.13939,-0.1171,-0.034697,0.01513,0.029426,-0.17752,-0.35954
-0.062184,0.13257,-0.13973,0.0053871,-0.03911,-0.03948,-0.006014,0.015054
0.12107,-0.37069,0.17763,-0.10008,-0.075825,0.0082785,0.14795,0.49842
0.35044,0.34928,-0.031729,0.024174,0.022531,-0.037519,0.080141,0.097785
0.37364,0.20675,0.20106,0.12804,0.11533,0.097124,-0.030682,-0.21127
-0.24378,0.021496,-0.16335,-0.01559,0.022574,-0.032724,0.049338,-0.25796
0.068691,0.12069,-0.086517,-0.024763,-0.084412,-0.051856,-0.023472,-0.17621
-0.37883,-0.48886,0.76668,0.0057146,-0.050008,-0.038325,-0.35768,0.197
-0.12963,-0.58904,-0.7998,0.0045049,0.039284,0.062526,0.17326,0.23559
0.11597,0.49973,-0.26302,0.009903,0.042465,0.039672,-0.05353,0.11799
0.11094,0.30121,0.0097085,-0.0956,-0.071812,-0.075753,0.089316,-0.43855
0.19507,0.27674,0.54974,0.10228,0.095076,0.13021,0.41652,0.51745
-0.30615,-0.31583,0.15403,-0.09107,-0.06583,-0.084702,-0.25773,-0.10148
0.11388,-0.19591,-0.3104,-0.065242,-0.06182,-0.07207,-0.26064,-0.17925
-0.19327,0.0099261,0.18701,0.079239,0.045075,0.027493,-0.014108,-0.31772
0.13268,-0.099181,-0.49557,0.030593,0.044161,0.026488,0.043395,0.038391
0.093004,0.22369,0.19492,-0.00013935,-0.025632,-0.012677,0.13658,0.46089
0.017086,0.25652,0.2409,0.056677,0.030424,0.050364,0.31761,-0.04037
-0.062922,-0.16767,-0.078366,-0.011328,-0.015249,-0.019245,-0.36178,-0.20545
0.21284,0.25401,-0.014648,0.043898,0.0079099,-0.050328,-0.076354,-0.1498
-0.1242,-0.11127,-0.069219,0.0093489,0.059451,0.10471,0.29644,0.17434
-0.20666,-0.81605,0.030889,-0.15574,-0.072741,-0.0081289,-0.31522,-0.26447
0.18473,0.44871,-0.04186,0.024297,0.0090787,-0.037981,0.080462,0.5481
-0.15983,-0.29539,0.15964,-0.0050262,-0.046643,-0.078992,-0.007815,0.047447
0.073963,0.30974,-0.12723,-0.023591,-0.0047317,0.0095068,1.2193e-05,-0.065589
0.091571,0.44185,0.054684,0.088148,0.042587,0.071783,0.075355,-0.12866
-0.12009,-0.12165,-0.0086626,-0.065293,-0.01202,-0.0084117,0.033627,-0.071847
-0.027511,-0.18408,-0.22656,-0.01213,-0.017891,0.012331,-0.10687,-0.33913
-0.14488,-0.035998,-0.047974,-0.0076102,-0.074561,-0.18499,-0.055076,-0.40405
0.34052,0.10774,0.33453,0.15303,0.14755,0.20552,0.18226,0.7843
-0.072584,-0.086481,-0.21114,-0.061057,0.0084467,0.05977,-0.051125,-0.11383
0.07412,0.015967,0.22731,0.013338,0.0077786,-0.0045708,0.23595,0.26379
0.13639,0.019099,0.044127,-0.02419,-0.058823,-0.15936,-0.32545,-0.01964
-0.1631,0.17691,0.084715,0.034618,0.0098408,-0.053502,-0.096834,-0.098706
-0.12462,-0.74671,-0.33785,-0.047514,-0.030677,0.038722,0.052428,-0.30564
-0.086254,0.49091,0.12863,-0.015389,0.043986,0.04584,0.034521,-0.036692
0.12334,0.048373,0.025151,-0.0037326,-0.0023169,0.15404,0.19185,0.85834
-0.41655,-0.016091,-0.17538,-0.10725,-0.053464,0.010461,0.11751,-0.70382
0.42932,0.098328,0.11218,0.10378,0.038765,-0.018725,-0.12583,0.36751
-0.015655,-0.1361,-0.094373,-0.0025365,-0.10001,-0.27782,-0.31847,-0.54507
0.25149,0.087832,0.15501,0.059661,0.10963,0.13954,0.07255,-0.087131
-0.20453,-0.041195,-0.18789,-0.059456,-0.072817,-0.12526,-0.020913,0.0046431
-0.11694,-0.070201,0.016852,0.040198,0.080977,0.14001,0.22375,0.31541
0.14706,0.20272,0.11171,0.00055711,-0.0056071,0.046259,0.019473,0.10225
-0.093107,0.056976,0.01569,-0.013494,-0.034677,-0.10039,-0.030884,-0.043218
0.25495,-0.23591,0.13762,-0.017288,0.064478,0.16204,-0.0050422,-0.071076
-0.32578,0.11159,-0.10852,0.035871,-0.020857,-0.087898,-0.098862,0.18264
0.093387,-0.47166,-0.10026,-0.073295,-0.033573,0.032404,0.053495,0.19136
-0.19893,0.4908,0.50181,0.084179,0.033151,-0.024704,0.059519,-0.17523
-0.069819,-0.4225,-0.5107,-0.03934,-0.040487,-0.049409,-0.16881,-0.24377
0.3249,0.46868,-0.14296,-0.014827,-0.0053954,0.011742,0.21809,-0.0045964
0.071589,0.086523,0.16334,-0.014622,-0.041887,-0.022054,-0.19543,0.014397
-0.063972,-0.38951,-0.17253,-0.015521,0.02162,0.035877,0.14431,-0.22811
0.066409,0.55547,0.34861,0.1153,0.083579,0.052279,-0.14593,0.40076
0.016835,-0.30612,-0.022342,-0.059454,-0.035454,-0.12915,-0.10503,-0.37044
-0.17433,-0.1237,-0.1269,0.046518,0.016444,0.070013,0.17391,-0.030697
-0.29672,-0.19469,-0.0088388,-0.13667,-0.04159,0.087813,0.34814,0.57203
0.25882,-0.14398,-0.15692,-0.053889,-0.052965,-0.11411,-0.2608,0.13637
0.17215,0.6932,0.54144,0.21708,0.060699,-0.04282,-0.19062,-0.20217
-0.064032,-0.3617,-0.40334,-0.026681,0.10426,0.20867,0.09139,-0.14463
0.043136,0.22377,-0.14591,-0.011687,-0.047178,-0.11682,-0.1633,-0.15036
-0.18536,-0.26816,0.048598,-0.073991,-0.081011,-0.026576,0.28098,-0.22582
0.032232,-0.0011084,0.2576,0.0049497,-0.004918,-0.020218,-0.074797,0.25507
0.00080505,0.24351,0.10439,0.06084,0.0016042,-0.074128,-0.050518,-0.18371
0.12647,-0.48822,-0.33531,-0.11745,-0.0065323,0.13978,0.017614,0.15261
0.11191,0.43527,0.25623,0.079358,0.041182,-0.011625,-0.027636,0.23071
-0.20762,0.067277,0.11896,0.026237,-0.003598,-0.013278,0.054333,-0.29708
-0.074995,0.094168,-0.38912,-0.026743,0.007499,0.0012244,0.28502,0.32926
0.14989,-0.12509,-0.072933,0.045546,0.089863,0.070073,-0.32188,0.11875
-0.040925,-0.12887,0.25594,0.0010847,-0.045921,-0.073154,-0.033511,-0.11474
0.0091439,-0.39959,-0.48666,-0.14432,-0.095543,0.0084986,0.039951,0.022411
-0.019366,0.20638,0.59975,0.093849,0.018824,-0.091379,-0.1717,-0.10446
-0.03923,0.059739,-0.12376,0.01256,0.015781,0.064992,0.066904,-0.46202
0.076107,0.23396,0.21862,-0.021054,-0.034345,-0.029526,0.32769,0.35432
0.0704,-0.30021,-0.35784,0.0084142,0.056068,0.079107,-0.082707,-0.28661
-0.23476,0.49648,0.067245,-0.008814,-0.033155,-0.045658,-0.139,-0.006492
0.11442,-0.1981,0.13228,0.036091,0.018346,-0.035872,-0.12102,-0.13071
-0.015096,0.026631,-0.047957,0.040969,0.030764,0.038527,0.042265,0.5047
0.039433,0.18185,0.37615,0.052167,0.058483,0.060228,0.14756,0.090276
-0.10726,-0.43213,-0.74479,-0.17282,-0.086441,-0.049533,-0.040585,0.35784
0.23674,-0.060893,0.089531,-0.055903,-0.037303,0.0050603,0.077492,-0.28629
-0.12006,0.11414,0.060319,0.082898,0.049239,-0.011651,-0.10217,-0.064491
-0.025317,-0.31312,0.076172,-0.037157,-0.045788,0.047506,0.20699,0.28395
0.33038,0.36223,0.022461,0.076723,0.02139,-0.052826,-0.25492,-0.83819
-0.14042,0.32265,0.32319,0.096939,0.071368,0.030623,0.073354,0.33496
-0.10117,-0.061662,0.15146,0.023817,-0.012541,-0.014503,-0.0036183,0.0042223
-0.63485,-0.71009,-0.57849,-0.23633,-0.13595,-0.10149,-0.10194,-0.48352
0.36508,0.45694,0.16381,0.050719,0.03773,0.0053079,-0.16487,0.1528
0.053291,-0.0057052,-0.091772,0.048685,0.05594,0.11212,0.27894,0.47812
0.1392,0.26034,0.082888,-0.02407,-0.0028365,-0.02956,-0.088261,-0.33307
0.1436,0.065816,-0.055778,0.12898,0.10369,0.073638,0.36058,0.39952
0.10082,-0.2865,0.061622,-0.086117,-0.10117,-0.093266,-0.28747,0.016682
-0.25426,-0.17291,0.14572,-0.013071,0.015082,0.047877,0.03025,0.27692
0.13101,0.21893,0.079695,0.035962,-0.0088168,-0.003491,-0.03071,-0.088312
0.041751,-0.10973,-0.24487,-0.024307,-0.0012381,0.017262,0.036229,-0.25606
-0.21453,-0.41426,-0.30312,-0.12268,-0.056006,0.007362,-0.028128,0.064933
-0.095996,0.48024,0.43776,0.10115,-0.0089516,-0.15938,-0.13123,-0.78605
-0.020936,-0.38449,-0.42711,-0.078575,0.030773,0.086357,0.062056,0.095012
0.13279,0.61804,0.50146,0.088525,0.024322,0.017401,-0.065799,0.37229
0.23895,-0.028179,-0.089141,0.024136,0.018661,0.047604,0.18057,0.2273
-0.11626,0.1354,0.12031,0.10243,0.052724,0.0052973,0.028037,0.037351
-0.31416,-0.66862,-0.29394,-0.037315,-0.030096,-0.023016,0.078603,-0.42262
0.25679,0.53946,0.17367,-0.11549,-0.050632,-0.052129,-0.19853,0.40179
-0.39318,-0.18215,0.091337,0.05386,0.053052,0.05956,0.040814,0.25816
0.58176,-0.086237,-0.40961,-0.10074,-0.11795,-0.13229,-0.062442,-0.27955
0.081559,-0.0015601,0.045297,0.014001,0.061124,0.084036,-0.078491,0.30714
-0.29148,-0.059128,0.19098,0.093689,0.035591,0.037129,0.031524,-0.087604
0.095625,-0.059769,0.1304,-0.024709,-0.022388,-0.007383,0.087261,-0.53642
-0.22607,-0.32657,-0.27514,-0.058404,-0.034213,0.012529,0.0094246,-0.34339
0.1026,0.53613,0.17946,0.025609,0.063195,0.072563,0.14799,0.13581
0.050369,-0.07723,0.081776,0.010219,-0.026469,-0.054934,0.27465,0.45422
-0.27319,0.31162,-0.20791,0.013827,0.0019544,-0.081973,-0.47924,0.087956
0.11657,-0.032422,-0.0020459,0.029209,0.023778,0.037488,-0.02065,0.20028
0.26661,0.067452,0.15951,0.0328,-0.031185,-0.064152,-0.10702,-0.43012
-0.12028,-0.38507,-0.20909,-0.06211,0.0088943,0.050684,-0.025841,0.11329
0.11121,-0.050456,0.57786,0.024496,-0.0046159,0.038767,0.2879,0.18146
0.053331,0.036809,-0.30166,0.025569,0.0061187,-0.0053211,0.055966,0.044327
-0.35043,-0.16383,-0.45822,-0.13053,-0.052996,-0.049376,-0.22658,-0.18656
0.038728,0.027781,0.21717,0.10206,0.075496,0.01686,0.0049161,-0.28356
0.31307,0.17623,0.06097,-0.027188,0.0084452,0.069033,0.11085,0.29356
-0.11419,0.23766,-0.0037075,-0.04957,-0.043501,-0.05661,0.2003,-0.28895
-0.18058,-0.019199,0.10287,0.0040255,-0.018069,-0.016366,-0.13445,0.74642
-0.11978,-0.38886,-0.055242,0.048267,0.014281,0.095657,-0.067579,-0.80489
0.18677,0.051611,-0.16447,0.021322,0.030041,-0.017973,0.046758,0.34715
0.076726,0.043901,0.18184,0.01751,-0.01765,-0.10788,-0.20785,-0.0052047
0.14566,0.2814,0.30373,0.021596,-0.01152,0.0050381,0.026274,-0.060202
-0.073415,0.28465,-0.18232,-0.028707,0.0017137,-0.039023,0.053033,0.094257
-0.071121,-0.44162,-0.30047,-0.047352,0.053534,0.11122,0.1069,-0.29373
0.044579,0.053249,0.25363,0.02046,-0.027626,0.041584,-0.006604,0.26522
-0.44381,-0.30211,-0.12114,-0.04382,-0.022637,-0.02137,0.19818,-0.22556
0.50385,0.27428,-0.19697,0.025757,-0.040445,-0.085357,-0.3945,0.19585
-0.15077,-0.50424,0.278,0.057726,0.060012,0.045118,0.12296,0.2154
-0.0089965,0.46738,-0.12395,-0.08034,-0.03339,-0.051557,-0.17814,-0.13168
-0.15733,-0.24478,-0.081164,-0.0054073,0.038955,0.12495,0.41365,-0.069568
0.20745,0.27601,0.05491,-0.037884,-0.082323,-0.15153,-0.21109,0.091104
-0.081128,0.30409,0.056073,0.14203,0.094693,0.095945,0.18146,-0.03773
0.26288,-0.2711,0.40322,-0.013474,-0.0086734,0.0083646,-0.089285,-0.10011
0.1189,0.31304,-0.23675,0.088078,0.020858,-0.085892,-0.19617,0.1766
-0.37549,-0.51789,0.067999,-0.12502,-0.0051188,0.07891,-0.0072189,-0.45548
-0.027055,0.067924,-0.4378,-0.11496,-0.11093,-0.059806,0.078677,0.10981
-0.14887,-0.010645,0.36716,0.10181,0.085531,0.091432,0.28022,0.042744
0.14297,-0.051594,-0.14332,-0.021787,-0.072425,-0.10064,-0.33191,0.19345
0.28859,0.37591,0.10291,0.12412,0.13389,0.058692,0.039776,-0.065768
-0.54432,-0.20146,-0.12376,-0.13118,-0.076444,-0.0014926,-0.049311,-0.068324
0.24194,-0.5837,-0.49599,-0.059471,-0.015267,0.01513,0.11241,-0.041573
0.1743,0.31242,0.34593,0.036434,0.0058607,-0.0089806,0.12695,0.49469
0.31769,0.46784,0.48792,0.10362,0.011459,-0.027007,-0.04462,-0.10695
-0.46756,-0.20079,-0.20462,-0.036232,-0.02082,-0.015219,-0.03517,0.083003
-0.049181,0.048793,-0.20508,-0.0074016,0.019339,0.019203,-0.055845,-0.10691
0.016255,-0.02815,0.23636,0.018196,0.015414,0.022466,-0.10686,-0.6973
0.1791,0.0089263,-0.25871,-0.061779,-0.055743,-0.082556,0.038216,0.37306
0.12367,0.27117,0.60076,0.1107,0.087003,0.056615,0.1293,-0.072517
-0.26246,-0.23973,0.010879,0.026167,0.0056513,0.010916,-0.17744,0.31654
0.0025804,-0.40372,-0.74612,-0.1217,-0.074025,-0.039786,0.094346,-0.61451
-0.1453,0.12785,-0.097492,-0.037349,0.026712,0.083839,0.17079,0.17552
0.28553,-0.24693,0.1646,-0.010624,-0.044658,-0.017515,-0.03469,0.51539
-0.048214,0.70062,0.1567,0.13801,0.086042,0.045534,-0.11659,-0.41003
0.0032442,-0.16602,-0.1354,-0.12225,-0.081779,-0.11122,-0.044345,0.49381
-0.058155,-0.20093,0.28318,0.021971,0.045344,0.081267,0.064443,0.28561
0.10579,0.22658,-0.068895,0.024878,-0.0091267,-0.073214,-0.032384,-0.41717
-0.072945,-0.050094,0.23287,0.051595,0.020744,-0.0046896,0.0094565,-0.32744
-0.27986,-0.24541,-0.25506,-0.029856,-0.059827,-0.033192,-0.051236,-0.17398
0.15839,-0.083111,0.022849,0.0075813,0.038879,0.068682,0.021199,0.28476
0.23474,0.57854,0.059023,0.03903,0.012858,-0.010328,0.064053,0.012113
0.26941,-0.59708,-0.14651,-0.091953,0.011157,0.074936,0.070689,0.31109
-0.41808,0.38768,0.13307,0.020472,-0.020464,-0.041376,0.010631,-0.30836
-0.11818,-0.1974,-0.29679,-0.0070162,-0.042716,-0.1004,-0.20185,-0.30977
-0.035657,0.057334,0.08862,-0.0030525,0.04593,0.078159,-0.059364,0.0093122
0.12464,0.30364,0.079929,0.016297,-0.028252,-0.036871,0.085424,0.24239
0.15799,-0.21228,-0.21201,0.011632,0.038911,0.05405,0.13711,0.11467
-0.12446,-0.1648,0.54973,0.013988,-0.0032408,0.0062571,0.038956,0.10693
0.057517,0.039086,0.2872,0.046708,0.047713,0.052917,0.023245,0.18923
0.054836,-0.037102,-0.78156,-0.069869,-0.043221,-0.072877,0.04915,0.063284
-0.054508,-0.031518,-0.06424,-0.093425,-0.073336,-0.028488,-0.31401,-0.30557
-0.16069,-0.27692,0.44497,0.085628,0.035369,-0.0099617,0.04324,-0.29658
0.25294,0.51091,-0.45932,0.076906,0.048706,0.060599,0.012817,-0.17144
-0.39015,-0.08803,-0.013798,-0.17405,-0.1188,-0.11338,0.011119,0.40314
0.27914,-0.042336,0.91212,0.22354,0.12724,0.062565,0.13486,0.11368
0.0050085,0.24005,-0.8476,-0.10524,-0.0093668,0.050352,-0.081728,-0.39858
0.03149,-0.040909,0.30715,-0.043155,-0.051461,-0.055285,-0.08934,0.24301
0.055303,0.17355,0.30531,0.10511,0.048248,0.035513,0.058651,-0.076657
-0.10243,-0.43234,-0.64189,-0.11352,-0.014745,0.026317,0.088728,0.2301
-0.19155,-0.1338,0.16226,-0.01145,-0.037376,-0.035957,0.077533,0.007981
0.1468,-0.18049,-0.014162,0.052116,0.073853,0.067102,0.20217,-0.16489
0.02091,0.30512,0.05862,-0.0085964,-0.072064,-0.1026,-0.4311,0.13254
0.13237,0.038111,0.19653,0.025282,0.032267,0.040173,0.12785,-0.0384
0.026287,0.10929,-0.27709,0.0053187,0.0036479,-0.013007,-0.13097,0.1494
-0.033465,-0.086277,0.28829,0.001678,-0.0097727,0.034317,0.0023743,-0.20285
-0.3687,-0.014345,-0.30193,-0.025013,-0.0081635,-0.044552,0.17671,-0.32895
0.23044,0.13854,0.24831,-0.0048887,-0.015017,-0.038525,-0.23925,-0.21975
-0.033486,-0.14453,-0.22729,-0.047859,-0.0068755,0.060577,0.18645,0.32181
0.050341,0.38332,0.12742,0.03302,0.00068351,-0.043647,0.042204,0.61751
-0.096024,-0.39155,0.50413,0.096618,0.077995,0.086758,-0.06053,-0.18358
0.34807,0.14368,-0.45982,-0.029312,0.014098,0.0068099,0.0045548,0.043067
-0.077921,-0.092622,-0.016623,-0.016806,-0.05044,-0.033345,0.15185,-0.063455
-0.31887,-0.36016,-0.47943,-0.10012,-0.053171,-0.064997,-0.25207,-0.52878
0.063224,0.41148,0.25436,0.025833,-0.0018889,0.005419,0.15085,-0.0036565
0.14715,-0.041407,0.2497,0.049252,0.072284,0.099513,0.062066,0.52556
-0.081906,-0.16089,0.025422,0.017877,-0.025705,-0.079855,-0.20748,-0.27839
