-0.012873,0.032368,-0.090522,0.028818,0.0050872,0.010721,-0.0070778,-0.14107
-0.0011721,0.2143,0.10936,-0.041755,-0.010564,0.0034938,0.01901,-0.03156
0.073398,-0.2841,-0.05116,0.012163,0.0053802,-0.011728,-0.017607,0.044619
-0.0073441,0.27105,0.13999,0.034415,0.029465,0.019668,0.03124,0.28472
-0.047677,-0.22211,-0.074182,-0.013934,-0.00089863,-0.019562,-0.037725,-0.75285
-0.031798,-0.14631,0.10354,-0.007741,-0.015544,-0.0044424,-0.021384,0.17121
0.0011407,0.14732,-0.14743,-0.0093577,0.00097601,0.010367,0.010076,0.12464
0.011724,-0.0046078,0.00029275,-0.010834,-0.021824,-0.014118,-0.021272,0.064992
0.093136,0.16428,0.17069,0.019205,0.017491,0.015979,0.048831,0.46377
0.0025026,-0.07198,-0.15284,0.018362,0.0016758,-0.0085704,0.0095679,0.26677
-0.096781,-0.0021384,0.13066,0.0023462,0.0088836,-0.0016808,0.0015667,-0.86374
0.052607,-0.095001,-0.26007,-0.028777,-0.015467,0.005519,0.0090903,0.029576
0.044246,0.0084027,0.21479,-0.012463,0.0069167,0.028729,0.055401,0.48118
-0.13727,0.01054,0.033215,0.035686,-0.0018952,-0.033592,-0.14091,-0.74025
-0.014764,0.043445,-0.17793,-0.040591,-0.018277,-0.0096078,0.0060269,0.40021
0.045415,0.028268,-0.049525,0.016453,0.0126,0.0068458,0.019711,0.39175
-0.01833,0.089512,-0.017586,0.02699,0.012675,0.007831,0.0097052,-0.57192
0.13065,-0.15573,0.0044398,-0.040445,0.0053564,0.0010111,0.054392,0.41531
-0.022954,0.10544,0.2738,0.048232,0.0061558,0.0096691,-0.0022175,-0.17662
-0.026182,-0.18856,0.25747,-0.0041792,-0.0085382,0.0024174,-0.0193,0.029545
-0.028102,0.0026372,-0.094074,-0.026117,-0.023291,-0.02084,-0.028003,-0.2992
0.0015781,0.00072301,-0.50252,-0.017819,0.0086072,0.010178,0.026365,0.34813
0.038354,0.0021427,0.20152,0.067482,0.0011159,-0.0060471,-0.028147,-0.11927
0.0031559,0.28085,0.03231,-0.059224,0.0010813,0.00091378,0.034898,0.16024
-0.10465,-0.10097,-0.16633,-0.01491,0.00073242,-2.0523e-05,-0.011198,-0.085504
0.035061,0.050811,-0.095976,-0.0023614,-0.0076531,-0.016478,-0.018126,-0.12983
0.039705,-0.14063,0.074054,0.017877,0.015096,0.022009,0.014016,0.3622
-0.097942,-0.10709,0.29987,0.022736,0.0065788,-0.0094703,-0.016408,-0.67388
0.099448,0.39172,0.14664,0.05155,-0.0018861,0.02189,0.015552,0.52499
-0.015804,-0.47365,-0.14159,-0.075235,-0.01808,-0.0012004,-0.007336,-0.16898
0.049085,0.11668,-0.29855,0.0017485,-0.0029457,-0.0086022,0.016447,0.085419
0.013212,0.061604,0.17523,0.02457,0.012242,-0.0083281,-0.0068908,0.16138
0.017305,0.042108,-0.026502,0.00087059,0.011828,0.0072634,0.024191,0.18329
-0.071519,-0.04156,-0.054451,-0.014832,-0.0042089,-0.00098159,-0.0074779,-0.56671
-0.12058,0.14071,0.18252,-0.022658,-0.012422,-0.017419,-0.023687,0.1013
0.073145,-0.15926,-0.25567,0.0085943,-0.004957,0.0049614,-0.024279,-0.26996
0.04868,-0.049485,0.066321,0.008635,-0.0051776,-0.0039296,-0.0090409,0.0033623
-0.037697,0.18172,0.33453,0.040038,0.026073,0.026487,0.045688,0.52652
0.11094,-0.051526,-0.060902,-0.029916,-0.012676,-0.012917,-0.00054836,-0.026396
-0.04444,-0.031042,-0.29125,-0.0058327,-0.0041702,-0.0047824,-0.0227,-0.21005
-0.035072,-0.054759,-0.10483,-0.020482,-0.0030795,-0.0037454,0.026002,0.15276
0.092156,0.11036,-0.0069452,0.043317,0.021803,0.013544,0.004667,0.21372
-0.20965,-0.060515,0.22408,-0.033256,-0.0077524,-8.7127e-06,-0.0011425,-0.37673
0.059474,-0.053031,0.036327,0.015303,-0.0059666,0.017784,0.039415,0.50846
0.024447,0.084952,-0.044696,0.0013272,-0.0042789,-0.02718,-0.069314,-0.66634
0.10695,-0.069079,0.23197,0.026195,0.0049279,0.013209,0.016228,0.21409
-0.06837,0.0080334,-0.51682,-0.043081,-0.0097719,-0.02535,-0.024271,-0.075799
0.02921,-0.0039929,0.33246,0.0043018,0.0061747,-0.002348,-0.1125,-0.2744
-0.11659,-0.018944,0.12908,0.0042071,0.013628,0.019744,0.18152,0.14755
0.14983,0.16678,-0.11386,-0.012115,-0.01867,-0.013608,-0.016866,0.25905
-0.023627,-0.11025,-0.18766,0.010097,0.010906,0.022846,0.019169,-0.17628
0.089386,0.080544,0.15631,0.039733,0.0087439,0.004405,0.016375,0.28296
-0.1828,-0.11128,0.08195,-0.0089496,-0.0093257,-0.0061216,-0.1189,0.14592
-0.1442,0.042297,-0.43308,-0.041961,-0.011794,-0.024075,0.043106,0.020783
0.21408,0.1289,0.38681,0.042527,0.0094408,0.021087,0.049346,0.13106
-0.10671,-0.27937,-0.15881,-0.05209,-0.015652,-0.0032886,-0.029727,-0.45676
0.16813,-0.14972,-0.098597,-0.0052703,0.014726,-0.019008,-0.108,-0.49619
-0.038607,0.073416,0.20209,0.019063,-0.00084514,0.005148,0.080338,-0.224
-0.093617,0.31174,0.071904,0.0052799,0.00015605,-0.0012679,0.027558,0.62441
0.096819,0.032521,0.14268,0.031319,0.0098005,0.039643,0.0070458,0.53353
0.079129,0.10795,-0.35357,0.0030697,-0.0034035,-0.020847,0.073255,0.027535
-0.077063,0.034345,0.39239,0.013799,0.014902,0.027897,-0.071086,-0.29126
-0.052159,-0.40319,-0.33385,-0.0073184,-0.021583,-0.048761,-0.051461,-0.61775
-0.065477,0.0029084,-0.082068,-0.076339,-0.0038122,0.0068352,0.084781,0.28228
-0.070504,0.22708,0.083488,0.0018024,-0.0023365,-0.00064576,-0.15492,0.18158
0.065352,-0.40299,0.12358,0.039598,-0.0016423,-0.00076728,0.12766,0.29778
0.05278,0.19214,-0.10883,0.013846,0.021737,-0.0011068,-0.090961,-0.1986
0.016311,0.15579,-0.0094007,-0.012521,-0.025797,0.014245,0.11897,-0.30101
0.12703,-0.086609,-0.066776,0.0079104,0.012247,-0.016954,-0.047073,0.42718
-0.03022,0.13275,0.074329,-0.010248,0.0033283,0.014829,0.051725,-0.51422
0.16841,0.043767,0.21398,0.0037748,0.0023921,-0.0075789,-0.037548,0.60199
-0.36391,-0.022926,-0.21601,0.0033976,-0.0059972,0.0094267,-0.095905,-0.83999
0.02873,-0.073677,0.30845,-0.0034913,0.0016882,0.049949,0.15037,0.36495
-0.028171,-0.30345,-0.5729,-0.0092371,-0.005825,-0.042594,-0.13436,0.55496
-0.080211,0.06047,0.37981,-0.0063983,0.002583,-0.026317,0.050279,-0.48654
0.21821,0.46168,-0.032142,0.027934,0.011078,-0.002973,-0.045393,0.39857
0.0019433,-0.33676,-0.086241,0.015038,0.0037896,-0.0038299,0.18047,-0.25696
0.01497,0.029146,0.057177,-0.030017,-0.011692,0.018156,-0.14694,-0.18641
0.086615,0.21215,0.168,0.048619,0.019175,0.047682,0.081795,0.087481
-0.17334,-0.095797,-0.06871,-0.038257,-0.020823,-0.086718,-0.14904,-0.32569
-0.015314,-0.2412,-0.29448,-0.040477,-0.014381,0.037235,0.050923,0.17523
0.098679,0.36024,-0.10217,-0.0044478,-0.00031611,-0.0098379,0.025039,0.32339
-0.11415,-0.2838,0.70616,0.0080109,-0.0017431,0.0222,0.0071407,-0.039547
0.063254,0.070421,-0.38887,0.028896,0.020729,0.023905,0.098161,0.48989
0.035573,0.10581,-0.19481,-0.011471,0.0048492,-0.012812,-0.015042,-0.33348
-0.0030535,-0.10279,-0.1441,0.012274,-0.010221,-0.018066,-0.11425,-0.3404
-0.014137,-0.026631,0.13482,-0.0014491,-0.0089443,-0.015791,0.058047,-0.4388
0.13529,0.10516,0.57461,0.079766,0.039658,0.048235,-0.021577,0.42556
-0.28044,-0.36716,-0.46436,-0.065109,-0.01325,-0.06852,-0.12622,-0.27796
0.01361,0.12142,0.21992,-0.015064,-0.0040476,-0.0068418,0.049398,0.62373
0.089596,0.38345,-0.086417,0.018155,0.012199,0.12395,0.17785,-0.25099
0.0040027,-0.29478,-0.24696,-0.051948,-0.042855,-0.15243,-0.060553,0.24688
0.062869,0.41732,0.44463,0.047889,0.010474,0.18787,-0.0091218,0.35147
-0.06919,0.043842,-0.047029,-0.02583,-0.022905,-0.19837,-0.050522,-0.78975
0.12301,-0.39175,-0.43581,-0.022479,0.0058347,0.033141,-0.067682,-0.053178
-0.080698,-0.17763,-0.17619,-0.011513,0.019036,0.046922,0.15003,0.098933
-0.010624,0.22836,0.41963,0.047016,0.024937,0.0073145,0.0085011,-0.11561
-0.020863,0.035647,-0.084267,0.021015,0.016015,0.062804,0.077765,0.09193
0.1362,-0.042711,0.10347,-0.0031965,-0.031077,-0.075871,-0.25944,0.8938
-0.072404,-0.2356,-0.014806,-0.0022044,0.00073451,0.020573,0.082996,-0.49788
-0.07701,-0.10534,0.18782,0.039204,0.0018045,-0.031207,-0.24609,-0.29981
-0.056629,0.37282,-0.17031,-0.074971,-0.012594,0.026054,0.33971,0.17069
0.11572,0.090396,-0.088823,0.02948,0.019696,-0.01905,-0.010799,-0.39505
-0.19754,0.038559,0.15856,-0.0075265,-0.018765,-0.0027664,-0.024054,-0.31305
0.15559,-0.091458,-0.24136,0.047912,0.028163,0.03573,0.2685,0.72545
0.030248,-0.45587,-0.16442,-0.12467,-0.073845,-0.044098,-0.23513,-0.21393
0.01526,0.45724,0.32596,-0.0094536,0.034773,0.031449,-0.44176,0.75309
-0.036033,-0.054329,-0.20071,0.042414,0.026165,-0.0028772,0.39027,0.063498
0.14237,0.24258,0.58304,0.11743,0.01781,-0.013838,-0.028463,-1.1523
0.0025612,0.09602,-0.06535,0.044273,0.0021421,-0.0010301,0.028351,-0.28899
-0.32491,-0.63569,-0.67707,-0.16101,-0.051937,0.012429,0.17778,0.59394
0.21153,0.27527,0.31104,0.017483,0.0040467,-0.027958,-0.24428,0.52247
-0.071352,0.068004,-0.24039,-0.045159,0.005949,-0.051833,0.012168,-0.070851
-0.03645,-0.3504,0.50631,0.17445,0.086399,0.33135,-0.060644,0.1692
0.16465,-0.022248,-0.70482,-0.15979,-0.12204,-0.34734,0.068659,-0.9321
0.052945,0.30996,0.4403,0.037832,0.052207,0.068168,0.21281,0.11629
-0.1387,0.12407,0.26288,0.024855,-0.0083145,-0.016045,-0.041881,0.23691
-0.020108,0.015267,-0.21362,-0.003662,-0.0069654,-0.053209,-0.13236,-0.1383
-0.15317,-0.15688,0.385,0.05363,0.040479,0.15974,-0.19854,0.83005
0.21367,-0.2461,-0.41916,-0.053407,-0.006649,-0.010045,0.11196,-0.23679
-0.03456,0.42992,-0.26044,-0.043573,-0.0389,-0.062616,-0.02827,-0.53785
-0.13745,-0.12947,0.055152,-0.018396,0.0064181,0.041029,0.3031,-0.546
0.29826,0.0017728,0.05788,0.053461,0.0045914,-0.042929,-0.19868,0.77285
-0.09224,0.020681,-0.065428,0.039271,-0.0049823,-0.048916,-0.06551,-0.11084
-0.017872,0.083712,0.66122,-0.021866,0.0092726,0.054294,0.13109,0.72526
-0.10991,-0.39538,-0.37222,-0.044064,-0.01489,-0.045803,-0.094798,-0.38356
0.14053,0.013257,0.0677,0.11317,0.063286,0.088292,0.30993,-0.15752
-0.28158,0.19399,-0.3795,-0.12848,-0.060906,0.065941,-0.24967,-0.48121
0.17075,0.25198,-0.16032,0.0433,0.010806,-0.15976,-0.15689,-0.25474
0.020497,-0.18164,0.64611,0.0033625,0.028146,0.051773,0.026195,0.55169
0.06344,0.31615,-0.062416,0.0094745,-0.024852,-0.049488,0.074374,0.022808
-0.084956,-0.35224,-0.12967,-0.039862,-0.031338,0.05207,0.02868,0.27467
0.010529,-0.42245,-0.093903,0.019588,0.031845,0.012699,0.13346,0.28283
0.23789,0.38736,-0.015851,0.039635,0.023893,0.027721,-0.67978,-0.086277
-0.22586,0.23482,-0.04123,-0.041931,-0.023995,-0.035666,0.93368,-0.71547
-0.094013,-0.42618,0.31779,0.040799,0.0054505,-0.029016,-0.2842,0.37283
0.1161,-0.050059,-0.47409,-0.079119,-0.036005,0.016437,-0.092666,-0.67857
-0.057298,0.053776,0.01626,0.059422,0.023802,-0.055526,0.052713,0.38326
-0.043745,0.392,0.041329,0.019013,0.021141,0.10672,-0.085418,0.24091
0.032805,-0.10338,0.53954,-0.028469,-0.020224,-0.020164,-0.072447,-0.42417
0.22101,0.097658,-0.56815,-0.020588,0.017162,0.056178,0.26914,0.84086
-0.17219,0.35137,0.55924,0.050359,0.00066922,-0.093697,-0.10847,-0.23247
0.0041059,0.13935,-0.21511,-0.050125,-0.022753,-0.0085254,-0.056304,-0.040024
-0.03674,-0.41341,0.17457,0.068477,0.024986,-0.00043667,-0.18169,-0.15885
-0.097295,-0.87257,-0.46322,-0.078286,-0.035941,-0.084726,-0.059551,0.044846
0.24595,0.25649,-0.0061726,-0.013902,-0.0026308,0.10596,0.30607,0.20636
-0.09195,-0.55003,0.083893,0.042845,0.030879,-0.0066311,-0.22183,-0.23925
0.037701,0.5467,-0.41866,0.013779,0.0095811,0.03014,0.27354,-0.20474
-0.084323,0.38609,0.58218,0.00037868,0.011289,0.082619,-0.050233,0.0024158
-0.13104,0.39124,-0.082663,-0.020923,-0.026751,-0.022132,0.19725,-0.18803
0.036524,0.11374,0.26905,0.066907,0.012502,-0.12111,-0.11851,-0.24357
0.37733,0.22507,-0.056317,-0.025345,-0.011582,0.1208,-0.58609,0.63315
-0.14969,-0.522,0.18393,-0.03997,-0.028548,-0.18737,0.67424,0.29143
-0.0072267,-0.4792,-0.78423,-0.094194,-0.030326,-0.014168,-0.27793,-0.040635
-0.24335,-0.10062,-0.13411,0.030752,0.045893,0.10208,-0.15588,0.14985
0.14149,0.33276,0.53083,0.092726,0.036326,0.02182,0.18735,-0.13555
-0.23517,-0.090224,0.13827,0.021441,-0.011971,0.011868,0.024636,-0.50644
0.080797,0.12082,0.31929,0.059079,0.033862,0.0029744,0.1297,0.21687
0.35639,-0.2753,-0.23192,-0.075626,-0.029371,0.10529,-0.16837,0.11476
0.046179,-0.080458,-0.36712,-0.015457,-0.0064947,-0.18078,0.069414,-0.11943
-0.30173,0.52122,0.070846,-0.096214,-0.053893,0.12925,-0.17078,-0.35858
-0.053677,-0.084618,-0.6661,0.0026812,0.015862,-0.14443,0.066071,0.074781
0.1267,0.35357,0.75263,0.070648,0.01529,0.068218,0.11766,-0.077219
-0.10432,-0.24996,-0.061155,0.022109,0.014799,-0.053412,0.12605,-0.017547
0.12014,-0.0052768,0.23793,0.021383,0.0067149,0.076294,-0.47815,0.65072
0.1355,-0.16308,0.13471,0.013855,0.014606,-0.019582,0.41471,0.54797
-0.25422,-0.54351,-0.012229,-0.016237,-0.023943,-0.036769,-0.062963,-0.40431
-0.049686,0.55043,-0.40767,-0.045757,-0.015165,0.063298,-0.35757,-0.49099
0.25635,0.051741,-0.03009,0.010852,0.017449,-0.024635,0.57617,-0.14744
-0.1178,-0.16,-0.20132,-0.0030203,-0.0043408,0.12854,-0.27149,0.31545
0.046381,-0.025123,0.21861,0.021744,0.020877,-0.15735,-0.050899,-0.21707
-0.16528,0.054448,0.22227,-0.07122,-0.03988,-0.04668,0.28323,-0.23302
0.15345,0.003206,-0.14998,0.038421,0.016354,0.038631,-0.31695,0.16443
-0.083366,0.31342,0.15062,0.030473,0.009757,0.044148,-0.17968,0.26456
0.038194,-0.44745,-0.10038,-0.0011533,-0.0050748,0.04069,0.35197,-0.11871
-0.13062,0.082157,0.098988,0.037443,0.01088,-0.064813,-0.11905,0.19623
0.2534,0.12893,-0.47638,-0.025492,0.0029478,0.001806,-0.1223,0.54724
0.072418,0.44216,0.47897,-0.033623,-0.028807,-0.016615,0.14855,-0.93129
-0.22107,-0.10316,-0.35544,-0.041572,-0.021779,0.0053829,0.0072528,-0.13663
0.083531,-0.20789,0.31618,0.052282,0.03978,0.052356,0.11854,0.58833
-0.16209,-0.45215,0.13257,-0.0020117,-0.00025371,-0.016445,0.021554,-0.47461
0.066285,-0.099394,0.11475,0.014328,0.030098,0.017335,-0.073103,0.065454
0.012256,0.05176,-0.34139,0.015359,-0.017523,0.020311,-0.17366,0.44284
0.037102,0.15857,-0.35523,-0.045839,-0.025874,-0.055007,0.16502,-0.21004
-0.013311,0.22299,0.11851,0.033767,0.0050915,-0.0060096,-0.27561,0.2077
0.042693,0.035006,0.32118,-0.0272,-0.018338,-0.028318,0.15353,-0.31251
0.011326,0.28024,-0.028642,0.0054921,0.013245,-0.0047958,0.054807,0.056839
-0.091002,-0.32829,-0.0088731,-0.0011185,0.013911,0.049121,-0.01642,0.15926
-0.0066244,0.13705,-0.048791,0.015332,0.0070627,0.032219,-0.028808,-0.18475
0.052398,-0.39965,0.29735,0.0078571,-0.015202,-0.047282,0.11065,-0.51383
-0.0018998,0.13969,-0.48564,-0.015799,0.017286,-0.017148,-0.27944,0.25052
-0.00035277,0.45745,0.2043,-0.00096314,-0.0050221,0.060367,0.50941,0.46758
0.093064,-0.086659,-0.030586,-0.025703,-0.011986,0.029103,-0.025638,0.11311
0.009807,-0.4194,-0.32998,0.019488,0.0040802,-0.1188,-0.25437,0.091857
-0.11963,0.3954,0.59646,0.048881,0.011882,0.077444,0.0089539,-0.16041
0.094094,-0.49904,0.30503,0.00024867,-0.011963,-0.01517,-0.23612,0.042516
-0.15373,-0.2453,-0.44461,-0.040159,-0.020428,-0.084327,-0.035461,-0.64325
0.028819,0.16439,-0.70515,-0.056404,0.01795,0.13547,0.2303,0.28378
-0.14497,0.15967,0.24396,-0.016984,-0.029412,0.026964,-0.076616,-0.52495
0.13252,0.0040982,0.25548,0.062593,0.040792,-0.15201,0.023088,0.29389
0.12198,0.52009,0.33735,0.041617,-0.0057353,0.012693,0.10951,0.6036
-0.07281,0.40857,0.20707,0.029144,0.018457,0.07586,0.24596,0.14929
0.16648,-0.30535,-0.52085,-0.05348,0.0038226,-0.024913,-0.10703,-0.22401
-0.12903,-0.53659,-0.068916,-0.0037724,-0.018641,0.030723,-0.028841,-0.048053
-0.062176,-0.38814,0.30873,0.0214,-0.0023264,0.031787,-0.32564,0.058066
0.14626,0.40573,-0.22752,-0.048717,-0.041199,-0.1156,0.11085,-0.21294
-0.060636,0.082575,0.53869,0.066977,0.0365,0.057113,-0.039871,-0.26208
0.010581,-0.12387,-0.82289,-0.084446,-0.0035955,0.018457,0.09808,-0.22425
-0.18799,-0.23367,-0.045137,-0.049354,-0.0051217,-0.028657,-0.11412,0.34432
0.0077849,0.32232,0.52372,0.063579,0.00085944,0.0015429,0.067998,0.004968
0.059993,0.26384,-0.17433,0.051967,0.022375,0.0074088,0.18565,0.5924
0.13468,0.061389,0.084227,0.010162,-0.0028717,0.0045847,-0.22067,-0.019854
-0.17982,-0.58077,-0.063767,-0.0068051,-0.0044063,0.055714,0.29466,-0.38821
0.095334,0.11026,-0.0064461,-0.0067101,0.002264,-0.057679,-0.40224,0.032605
0.18069,0.19389,-0.094949,0.0023972,-0.014034,-0.053943,0.23317,-0.20377
-0.10247,0.46874,0.45024,-0.026775,-0.0063766,0.036162,0.0022952,-0.073981
-0.066537,-0.3088,-0.3041,-0.032205,0.0018234,0.049098,0.07337,-0.34268
-0.07943,-1.1197,-0.1282,-0.0065103,0.0027557,-0.045909,0.02114,0.86699
0.013766,0.52127,0.68416,0.073434,0.019826,-0.021956,-0.031842,-0.19271
0.070732,0.73038,-0.87863,-0.058172,-0.017358,0.16796,-0.21941,-0.12892
0.081885,0.25588,-0.029559,0.0048729,-0.0073673,-0.26538,-0.1972,0.08357
-0.024691,0.065256,0.62214,0.075108,0.033985,0.13855,0.25569,-0.28057
-0.13303,-0.49706,-0.50716,-0.066127,-0.026341,-0.011559,-0.0059778,0.48255
0.099883,-0.66147,-0.13221,0.018775,0.0067281,0.010002,0.2167,-0.12652
-0.04487,0.017665,0.7362,-0.0060071,-0.0076506,0.10858,-0.17456,-0.036743
-0.067006,0.34956,-0.58473,-0.0075418,0.0084877,-0.060375,0.1664,-0.41885
0.018436,0.17805,0.20551,-0.0091406,0.00038076,-0.098944,-0.16552,0.11162
0.032424,-0.14339,0.2885,0.044018,-0.0006945,0.0083774,0.040503,-0.13869
0.1239,0.57442,-0.42975,-0.019803,-0.010236,-0.027139,0.087922,0.72271
0.043052,-0.51267,0.18129,-0.012975,0.011025,0.07649,-0.25186,-0.20136
-0.2181,-0.56499,-0.26514,-0.060397,-0.038222,-0.031304,0.081243,-0.29358
0.097794,0.44796,0.40571,0.064541,0.021959,0.025528,0.084801,-0.078675
-0.041146,0.34123,-0.045667,0.041506,0.035521,-0.0099218,0.030159,0.1046
0.059811,0.5044,-0.10807,0.0032085,-0.0052241,0.081694,-0.052947,0.08022
-0.037204,-0.12008,-0.018818,-0.066137,-0.0064852,-0.074416,0.061288,0.2337
-0.043146,-0.46424,-0.060073,0.012967,-0.0073533,-0.033119,-0.088,-0.11222
0.065814,-0.27744,-0.066434,-0.00965,-0.023516,0.064463,7.6762e-05,-0.22028
0.032651,-0.17134,-0.081383,0.014335,0.015284,-0.063603,-0.10259,0.33558
-0.071232,0.29513,0.32965,0.045832,0.023088,0.066318,0.21544,-0.33695
-0.0024113,-0.22056,-0.28876,-0.063529,-0.039134,-0.0855,-0.098271,-0.073185
-0.10346,-0.033746,0.099819,-0.0010944,0.0083786,0.089828,0.10689,-0.214
0.032782,0.11958,0.0071921,0.038038,0.025094,-0.064206,-0.10481,0.33904
0.34428,-0.19362,0.25583,0.0072326,-0.0045393,0.061751,0.025615,0.41198
-0.26277,0.76891,0.18171,-0.015173,-0.018005,-0.047738,-0.14989,-0.30961
0.00010189,-0.037895,-0.66237,-0.036855,-0.0075657,-0.079857,0.063495,-0.070505
0.038196,0.20937,0.26699,-0.010928,0.0031519,0.08294,0.10968,0.0081427
-0.024626,-0.38237,-0.21424,0.062454,0.029476,0.058141,0.002121,-0.055998
-0.13477,-0.22525,0.22531,-0.051419,-0.014911,-0.044698,0.027201,-0.30198
0.24595,-0.083691,0.034684,0.053211,0.02584,0.047895,0.018045,0.7213
-0.11733,0.31112,0.49988,0.047637,-0.0048708,-0.046972,0.081582,-0.54468
0.0096228,-0.41629,-0.85729,-0.076511,-0.013502,-0.0091184,-0.23692,0.37152
-0.091692,-0.14389,0.15852,-0.0071292,-0.031303,-0.033961,-0.10195,-0.074847
0.11046,0.43551,0.15053,0.068169,0.012282,0.019098,0.088982,-0.045446
-0.063008,-0.38197,-0.22985,-0.1238,-0.030722,-0.013932,0.025469,-0.20851
0.029061,0.60901,0.45863,0.042583,0.035608,0.046773,0.23385,0.1369
0.090141,-0.1118,0.094776,0.052599,0.03223,-0.017374,-0.19679,0.13955
-0.16875,-0.29214,-0.59951,-0.09273,-0.032487,0.012502,-0.10741,-0.4242
0.24438,0.20831,0.12768,0.08409,0.013686,0.027084,0.0039276,0.66179
-0.22554,-0.30962,-0.17657,-0.064747,-0.032287,-0.067401,0.18478,-0.58012
0.077257,0.22433,0.14236,0.023437,0.024711,0.033657,-0.026422,-0.13489
-0.0038828,0.31419,1.0812,0.13736,0.043615,-0.021402,0.27473,0.29307
-0.078588,-0.3123,-0.6064,-0.083168,-0.023043,0.040791,-0.29713,-0.01038
0.11876,0.36792,-0.24523,0.016984,-0.011831,0.02492,-0.033784,0.042569
-0.036608,-0.31736,-0.21364,-0.055568,-0.017038,-0.092366,0.031282,0.30219
-0.020787,-0.33572,-0.39602,-0.083096,-0.031198,0.025031,-0.1032,0.092384
0.026191,0.13699,0.34117,0.074378,0.031523,0.033561,-0.077944,-0.054119
-0.043475,0.23284,0.76641,0.049506,0.0072033,-0.058796,0.2174,-0.38678
0.052032,-0.21768,-0.75656,-0.048016,-0.010085,0.0058248,-0.18426,-0.34221
-0.061889,0.055837,0.1991,0.016897,0.011323,0.0085416,0.093917,-0.011945
-0.025706,-0.018672,0.10669,-0.020442,0.0093329,0.15995,0.17053,0.25663
0.097979,0.010148,-0.4524,-0.041875,-0.031366,-0.11861,-0.18034,0.12596
0.058836,0.15495,0.62474,0.12529,0.061269,0.031649,0.35352,0.58061
-0.010769,-0.042391,-0.092325,-0.065295,-0.033066,-0.1164,-0.26807,-0.41678
-0.080009,0.45764,-0.1688,-0.0041086,-0.0098027,0.061881,-0.093546,-0.011786
-0.031943,-0.65909,-0.069683,0.019572,0.0058589,-0.019498,-0.046375,-0.067773
-0.069673,0.29968,0.19258,-0.0025681,-0.0097305,0.061609,0.17696,-0.41616
0.10397,-0.083567,0.10592,0.022567,0.0057597,0.0089089,-0.11933,0.33847
-0.041794,-0.10077,-0.47329,-0.038479,-0.01026,-0.1143,0.018197,-0.24469
0.016924,-0.081586,0.12557,-0.037752,-0.0030988,0.075677,-0.065732,0.23627
-0.016489,-0.14296,0.19237,0.032342,0.011701,-0.014075,-0.018127,0.0096779
0.14694,0.67017,-0.17657,0.007828,0.018654,0.062394,0.23288,0.14552
-0.047969,-0.1781,-0.00084551,-0.0015516,-0.013329,-0.04614,0.094949,0.17264
-0.086398,-0.65284,0.20037,0.028195,0.0096594,-0.027194,-0.13397,-0.18636
0.069737,0.085081,-0.16284,-0.074191,-0.013809,0.017286,-0.20322,0.17338
0.044505,0.51406,0.060537,0.051198,-0.0055137,-0.030579,-0.0031422,-0.29892
-0.20965,-0.030215,-0.042736,-0.025006,0.003347,0.12518,0.18495,-0.066475
0.010064,0.25426,-0.012892,0.025337,0.0049538,-0.094561,-0.23305,-0.37142
0.10996,-0.36407,0.42837,0.030026,-0.016393,0.020219,0.38291,0.35118
0.00447,-0.15743,-0.36375,0.0275,0.025091,-0.062443,-0.18665,0.27744
-0.0012084,0.054429,0.074928,-0.084628,-0.02708,0.063314,0.073081,-0.29854
0.054431,-0.039823,0.0060078,-0.010352,0.006478,-0.024385,-0.11208,0.026304
0.054724,0.34404,-0.33882,0.069884,0.055106,0.04202,-0.13335,0.20811
-0.1483,0.22747,0.25057,-0.05535,-0.037782,-0.018034,0.21987,-0.0024859
-0.007306,-0.45055,-0.091804,0.012247,-0.0068259,-0.13336,-0.15415,-0.20912
0.048498,-0.21606,0.035403,-0.00050627,-0.0084033,0.13444,0.072702,0.32585
-0.09753,-0.044961,-0.29345,0.0085751,0.004417,-0.041976,0.095707,-0.013166
0.21925,0.034394,0.51981,0.024763,0.0084562,0.056682,-0.12432,-0.12363
-0.094386,0.15052,0.44022,-0.029031,-0.0036589,0.165,0.084209,-0.27734
-0.15526,0.10258,-0.60707,-0.042413,-0.023557,-0.29524,-0.013499,0.16185
0.11484,0.27269,-0.018426,0.0167,-0.0037755,0.050619,-0.0038482,-0.081463
