0.083062,0.13046,0.11583,0.047864,0.043922,-0.093155,0.053074,-0.21255
-0.12987,-0.2014,-0.070425,-0.024595,-0.0292,0.0067843,-0.43476,0.1187
0.057574,0.11617,-0.045627,-0.017649,-0.016321,-0.057367,0.44912,0.11317
0.036107,0.044183,0.072472,0.021924,0.02813,0.09022,0.15222,0.64877
0.02437,-0.026706,-0.068109,0.031521,-0.0049692,0.005012,-0.40926,-0.24173
-0.04046,-0.11216,-0.014376,-0.051611,-0.037269,0.12519,0.58672,-0.15998
0.098913,0.022181,-0.055171,-0.0090708,0.01734,-0.26744,-0.4916,0.22074
-0.1441,0.055992,0.028794,0.0025163,0.0027051,0.069672,0.21559,-0.46089
0.10481,0.036172,0.089815,0.014054,0.0047541,-0.027418,-0.073056,0.12156
-0.13155,-0.037253,-0.035411,-0.005989,0.007737,0.011405,-0.21732,-0.24356
0.10722,-0.039279,0.0052827,-0.0031267,0.011418,0.14649,0.29791,0.24904
-0.077637,0.08474,0.032541,0.045967,-0.00014551,-0.052829,-0.2388,0.030861
0.055905,-0.06374,-0.0083269,0.00064227,-0.011678,-0.033177,0.21111,0.034167
0.023507,0.061975,-0.016083,-0.029664,-6.7992e-05,0.055559,-0.13413,-0.16809
-0.04181,-0.12432,-0.06162,-0.052633,-0.03588,0.040152,-0.15014,0.2152
0.16502,-0.005817,-0.028498,0.0022264,0.0057347,-0.20538,0.52164,0.012997
-0.22263,0.03419,0.043395,0.017904,0.015352,0.13887,-0.10411,0.013792
0.084983,0.24511,0.16104,0.088281,0.039879,-0.098703,-0.13781,-0.018803
-0.036366,-0.029958,-0.090383,-0.020977,-0.014357,0.028136,-0.61174,-0.29883
-0.17189,-0.36976,-0.16463,-0.067741,-0.037886,-0.002677,0.40287,-0.0096213
0.28832,0.10799,0.086289,0.01816,0.024067,0.021361,0.17873,0.7906
-0.12435,0.13735,0.13094,0.017802,0.0075169,0.086085,0.45752,-0.61967
0.097616,-0.13332,-0.11655,-0.014278,-0.0093455,0.059782,-0.45629,-0.077745
-0.12468,0.21801,0.10199,0.031217,0.0047949,-0.21322,-0.12493,-0.020754
0.22328,-0.10512,-0.14248,-0.0488,-0.020302,0.0092464,0.061804,0.33474
-0.07841,-0.0082662,0.025881,0.019265,0.01701,0.27353,-0.27739,0.054996
-0.17133,0.064204,0.084652,0.016919,0.0074511,-0.31974,0.27364,-0.52717
0.076915,-0.0818,-0.051071,-0.024277,-0.025443,0.15793,0.24855,-0.11794
-0.060018,-0.12456,-0.052246,-0.025903,0.0043519,-0.11501,-0.49874,0.27087
-0.01092,0.038903,0.019279,0.027875,0.018773,0.14939,0.62745,0.055181
0.19433,0.019184,-0.00028355,0.027741,0.01785,-0.15126,-0.50451,0.5859
-0.11463,0.19202,0.092035,-0.0029837,-0.014049,0.25602,0.07439,-0.24189
-0.24122,-0.12224,0.045686,0.0057305,-0.030085,-0.12091,0.24619,-0.24621
0.25271,0.0053803,-0.0073266,-0.0090031,-0.0068807,-0.11748,0.024793,0.12094
-0.008024,0.073417,-0.091316,-0.00071105,0.032058,-0.021803,-0.53762,-0.42042
0.19419,-0.02162,-0.082017,-0.016584,0.0085345,0.034513,0.18865,0.53081
-0.1425,-0.04744,-0.018935,-0.025519,-0.015021,0.10735,-0.010787,-0.65315
0.026592,-0.1309,-0.011545,-0.004012,0.016027,-0.18521,0.38407,0.27769
-0.089553,0.086052,0.12785,0.03259,-0.038976,0.079036,0.16711,0.39635
0.05473,0.11851,0.094923,0.045665,0.038729,0.20443,-0.31992,-0.089221
-0.18124,-0.056673,-0.0083111,-0.026758,-0.0086179,-0.060068,-0.022801,-0.6183
0.024064,0.014716,-0.14236,-0.0279,-0.016864,-0.075266,-0.10407,0.46373
0.040167,-0.16568,0.068182,-0.027634,-0.0093306,0.1261,0.26017,-0.22063
0.010682,0.013438,-0.071602,0.029003,0.021908,-0.24612,-0.94825,0.043216
0.11834,0.16323,0.00117,0.0092447,-0.0011892,0.2375,0.69087,0.72555
-0.0093518,0.034999,0.02901,0.030066,-0.00046753,-0.41453,-0.47288,-0.346
0.011841,-0.1754,0.0121,-0.026187,0.00059412,0.15882,0.82265,-0.18122
-0.0211,0.055055,-0.0027668,0.0038798,0.017512,0.19421,0.21232,0.11568
-0.078194,0.092277,-0.10979,-0.01333,-0.020181,0.014405,-0.10123,-0.47339
0.009998,0.004644,0.11985,-0.00047316,0.0045326,-0.15193,-0.28462,0.20624
0.076181,0.055604,0.1693,0.026169,-0.010057,0.14958,0.064863,0.083671
-0.18788,-0.16302,-0.15041,-0.019768,-0.01717,-0.20596,-0.21244,-0.53627
0.26136,0.11324,0.003062,0.0022236,0.04567,0.18659,-0.36889,0.59666
0.030644,-0.11571,-0.082324,-0.0091995,-0.0089904,-0.018738,0.04759,0.075791
-0.22528,0.0029102,-0.00081013,0.008995,-0.016986,-0.043648,-0.14284,0.13392
0.11065,-0.044219,0.12287,-0.043988,-0.032874,0.022717,0.27051,0.033823
-0.12433,-0.011879,-0.093051,0.043672,0.037222,0.21653,0.24714,0.045209
-0.037063,0.0093176,-0.10002,-0.031859,-0.0019272,-0.28456,0.72113,-0.52321
0.12577,0.17818,0.12744,0.066042,0.037199,-0.12202,-0.32077,0.15377
-0.03075,-0.011719,-0.064885,-0.013776,-0.025138,0.071846,-0.16647,-0.35478
-0.097294,-0.10743,0.17628,-0.0056075,-0.024989,-0.13879,-0.11139,0.20982
0.14698,-0.017,-0.054259,-0.034695,0.014071,0.38136,-0.53495,0.4521
0.077861,0.22516,-0.053089,0.015637,-0.001844,-0.14624,0.17121,-0.27174
0.054181,-0.18181,-0.10979,-0.011544,-0.002514,0.10121,-0.029013,0.25487
-0.011581,0.023718,0.094738,0.015829,-0.011408,-0.17129,0.19141,-0.18095
-0.066854,0.065014,0.066668,0.018942,0.018392,0.24832,-0.3301,-0.28491
-0.035566,-0.036314,-0.063014,-0.018359,0.032315,-0.045853,0.76824,0.032855
-0.29422,0.06353,0.17276,0.059881,0.007104,-0.22587,-0.53545,-0.27265
0.039299,-0.37565,-0.20385,-0.12135,-0.088268,-0.11261,0.078308,0.61052
0.074394,-0.0065306,-0.04505,0.024124,0.004248,0.074394,0.19134,0.49178
0.20215,0.23001,-0.030493,0.0045938,0.027039,0.20925,0.507,-0.68103
0.016797,-0.021092,0.020151,0.0081275,0.011473,-0.06065,-0.50083,0.35106
0.17469,0.18094,0.10793,0.074358,0.059102,0.091682,-0.2508,-0.41894
-0.24645,-0.0061549,0.062178,-0.022809,-0.033347,-0.092793,0.20494,-0.34088
-0.005261,-0.051707,0.016809,-0.0096358,-0.031765,-0.060562,-0.81041,0.44028
-0.0012106,0.0027871,-0.058566,-0.026619,0.0010196,0.3124,0.91801,0.024091
-0.024241,0.15367,-0.038388,0.0043448,0.01,-0.5839,-0.52661,-0.081254
-0.19979,-0.10305,-0.063005,-0.010623,0.010561,0.19569,0.5102,0.37674
0.2848,-0.35665,0.00044508,-0.0013992,-0.028666,0.17487,0.16786,-0.49632
0.047562,0.1565,0.081525,-0.0072778,0.0017158,-0.020726,-0.14058,0.0076205
-0.074167,-0.07945,0.00026089,0.026169,0.023727,0.086308,-0.33011,0.049935
-0.047323,0.13229,-0.0094173,0.0048999,-0.0092787,-0.057774,-0.33126,0.15878
-0.018348,0.16947,-0.065305,-0.0010848,-0.018922,-0.25672,0.65227,0.4474
-0.063444,-0.22239,-0.011896,-0.015536,0.034086,0.13095,-0.035777,-0.22983
0.0064678,0.13957,0.1578,0.023774,-0.01416,0.12164,0.38659,-0.51186
0.22364,-0.093937,0.04458,0.015113,0.0082852,0.13784,-0.59457,0.13317
-0.14603,0.093617,-0.1334,-0.018099,0.0076573,-0.23404,-0.53137,-0.20925
0.12349,-0.12659,0.022039,-0.020997,0.0073253,-0.048377,0.15755,0.24064
-0.21119,-0.030218,-0.21546,-0.071333,-0.055296,-0.039421,0.7177,-0.16042
0.17635,0.50431,0.21724,0.089231,0.030665,0.14428,-0.14505,0.56049
-0.18453,-0.51138,-0.030424,-0.023094,-0.023878,-0.013311,-0.069816,0.10997
0.14967,0.21573,0.011415,0.029737,0.031092,0.10427,0.06824,0.16339
0.08373,-0.28608,3.7224e-05,0.0059314,0.0081219,-0.15246,-0.16248,-0.49362
-0.055163,0.14578,-0.02481,-0.00059141,0.0088257,-0.042591,-0.43723,-0.37837
-0.16583,0.058565,-0.00044398,-0.052418,-0.037079,0.2138,0.88029,-0.38881
-0.13881,0.11082,0.07276,0.045436,-0.012417,-0.11885,-0.40194,0.42291
0.1122,-0.045085,-0.0092023,-0.012242,0.035872,-0.096016,-0.006574,0.26362
0.22032,-0.28695,-0.060043,-0.038595,-0.0095238,0.16488,0.2826,-0.097333
-0.10345,-0.00012803,0.051747,0.028199,-0.00033845,-0.070066,-0.73817,0.28784
0.031168,-0.19557,-0.096828,0.023463,0.008542,-0.11221,0.65928,-0.056976
0.27196,0.77053,0.14197,0.056102,0.032555,0.17298,-0.47457,0.47584
-0.21762,-0.35073,-0.12259,-0.10068,-0.07687,-0.10305,0.49826,-0.67955
-0.062775,0.080037,0.016281,0.029727,0.055231,-0.024184,-0.63524,0.051112
0.026169,0.29395,0.051894,0.0023618,-0.016372,0.0049937,0.14594,0.086653
-0.33984,-0.44797,-0.1158,-0.057164,-0.02585,0.071365,0.46299,-0.42569
0.021268,-0.002312,0.053885,0.039423,0.011464,-0.16106,0.04436,0.38254
0.22156,-0.19391,0.038975,-0.0039531,0.0021454,0.40033,-0.0011083,-0.23502
0.091521,0.13798,-0.026722,0.00088038,-0.014454,-0.30907,-0.34804,0.10975
0.11683,0.19471,0.18529,0.093406,0.071236,0.12202,-0.071133,0.039877
-0.077686,-0.2115,-0.16126,-0.070031,-0.045414,-0.098416,0.21509,0.26355
-0.064087,0.06086,-0.028203,-0.0052815,0.018332,0.13642,-0.049051,-0.20052
0.099932,0.075893,-0.0028201,0.0059222,-0.018962,-0.2377,0.21835,0.069843
-0.026756,0.054238,0.01497,-0.021417,-0.01691,0.067815,-0.46957,-0.38127
-0.041332,0.021204,0.055024,0.029254,0.024254,0.10857,-0.082265,0.31556
-0.13376,0.087912,-0.032183,-0.014468,-0.01284,-0.042886,0.64698,0.43404
-0.078379,-0.11115,-0.036343,-0.020116,-0.0033007,0.007288,-0.31054,-0.33095
0.078785,-0.16798,-0.012241,-0.011251,-0.017478,-0.065295,0.033033,0.060014
0.22305,0.19275,0.056171,0.043458,0.038386,-0.085118,-0.14653,-0.53105
-0.18099,-0.26131,-0.0099256,0.0036234,-0.007565,0.17731,0.13877,0.61286
-0.0042161,-0.15334,0.048453,-0.013243,-0.0069028,0.012716,-0.069129,-0.47481
-0.10219,0.18194,-0.040831,-0.0068068,-0.006558,-0.15699,0.16887,0.26664
0.21536,0.088469,-0.081242,-0.015852,0.024615,0.24458,-0.63932,-0.41955
0.059028,0.45568,0.021915,0.014489,-0.015075,-0.20776,0.67663,0.13307
-0.228,-0.11735,0.034746,0.029587,0.0070682,0.14558,-0.018955,0.24672
0.3676,-0.21997,-0.0038132,-0.0096743,-0.0027613,0.096576,0.12953,0.21789
-0.29056,-0.17602,0.014833,-0.017491,-0.013264,-0.21875,-0.11616,0.050386
-0.0036663,0.058516,0.04244,0.005974,0.00699,0.016414,-0.12629,-0.4751
0.1615,0.14624,0.092877,0.0058974,0.019244,-0.043454,-0.49611,0.38663
-0.29867,-0.15472,-0.10132,-0.0099744,-0.046413,0.0081609,0.68899,-0.099252
-0.027243,-0.17833,-0.033925,-0.018179,-0.0098663,0.0095178,-0.41211,-0.20083
0.26387,-0.030818,-0.0731,-0.0029858,0.035512,0.28498,0.16577,0.28219
-0.065426,0.095946,-0.054985,-0.003305,-0.011595,-0.48839,-0.087991,-0.37038
0.26799,0.57983,0.13043,0.059135,0.059807,0.29652,0.034387,0.65541
-0.38917,-0.12453,0.039169,-0.010886,-0.016053,-0.058351,0.036129,-0.52576
0.099599,-0.43142,-0.022301,-0.025861,-0.028547,-0.23666,-0.3396,-0.3808
0.0038835,0.16502,0.0026182,0.0063123,0.021918,0.53703,0.7884,0.1977
-0.086616,-0.088439,-0.071841,-0.023899,-0.044754,-0.22962,0.1192,0.32808
-0.036026,0.15588,0.021239,0.031747,-0.01015,0.086139,-0.29035,0.15382
0.21226,-0.035429,0.087229,0.03243,0.039566,-0.29312,-0.33698,-0.12678
-0.08346,-0.063641,-0.045737,-0.076694,-0.059783,0.088433,-0.39316,-0.059064
0.10706,0.015174,-0.026716,-0.0066599,0.035512,0.092571,0.31111,-0.33171
0.015916,0.1467,0.0025614,0.023758,0.059809,0.089372,-0.12355,0.15203
0.038434,-0.33101,0.017296,0.038041,-0.010359,0.043892,0.54656,0.10213
-0.14902,0.062101,0.016133,0.020674,-0.018792,-0.23329,0.44231,0.21687
-0.11185,0.12712,0.091742,-0.012547,-0.020222,0.039216,-0.6734,0.097661
0.069757,-0.23341,-0.076781,-0.04576,0.00098231,0.051006,-0.24803,0.015917
-0.11299,0.30401,-0.14567,-0.016166,-0.017571,-0.60051,-0.55755,-0.26513
0.089913,-0.14971,-0.012765,0.014077,0.018102,0.64389,0.81595,-0.027873
-0.03181,0.33474,0.065138,0.0062459,0.022417,0.24185,-0.42284,-0.41941
0.10086,0.10673,0.096997,0.030923,-0.019817,-0.19346,0.90448,0.42421
0.12147,-0.29821,-0.0021853,-0.0055105,-0.014405,0.051363,0.2704,-0.14546
-0.032098,-0.056025,0.025857,-0.01719,0.0077745,-0.19466,-0.54207,-0.063307
0.13236,-0.52992,-0.08471,-0.012232,-0.007752,-0.19778,-0.16463,0.21389
-0.24462,0.18343,-0.061334,-0.014608,0.0093203,0.0088574,-0.53275,-0.23894
-0.069176,0.49643,0.12583,0.037472,0.011855,0.46934,0.47506,0.72287
0.065565,0.26034,0.068857,0.033836,0.022797,-0.29611,-0.71204,-0.32734
-0.14388,-0.36757,-0.061922,-0.01064,-0.0053813,0.32657,0.9473,-0.03607
-0.03955,0.067968,-0.072284,-0.0027685,-0.0030577,-0.11828,-0.19099,-0.011397
0.17729,-0.34402,-0.025052,-0.036529,-0.017692,-0.3118,-0.27014,-0.1036
0.25829,-0.12325,0.041306,-0.0023569,-0.010571,-0.0041114,0.21459,-0.27959
-0.14708,0.41389,-0.0358,-0.016815,-0.0051507,-0.084629,-0.2803,0.049191
0.00049239,0.0054441,-0.012069,-0.016427,-0.024542,0.23015,0.98885,-0.028084
-0.11988,0.076109,-0.010145,0.015594,0.041256,0.083641,-0.43909,0.35904
-0.056338,-0.052189,0.065857,0.025679,0.0055416,0.056672,-0.41689,-0.12286
0.080025,-0.28555,-0.024784,0.014682,-0.029303,-0.1377,0.54646,0.081907
0.013825,0.09344,0.077797,0.022075,0.0077074,0.048595,-0.38523,-0.035429
-0.10065,0.15246,0.0058166,-0.014762,0.031032,-0.071758,-0.84357,0.0065054
0.070711,-0.02615,-0.02353,-0.026137,-0.029601,0.18804,0.54905,-0.015659
0.073255,-0.047992,0.05789,0.065085,0.067676,-0.21237,0.20988,0.29886
0.11681,0.21582,-0.08819,-0.070379,-0.06056,-0.11053,0.27437,-0.39898
-0.041321,-0.042597,-0.01845,0.019503,0.038039,0.29674,-0.42844,0.050712
-0.25253,-0.075216,-0.085698,-0.033275,-0.035747,-0.030915,0.52161,-0.22148
0.023185,-0.33563,0.030099,-0.010362,-0.040378,-0.17248,0.11223,0.28452
0.11562,-0.15098,0.048381,0.041448,0.031563,-0.065997,-0.18676,-0.054031
-0.13714,0.44954,0.017475,-0.0023123,-0.0075248,0.17106,-0.031617,-0.14724
0.079778,-0.2269,0.017382,0.015481,0.022228,-0.16473,-0.71112,-0.076266
0.22952,0.40783,-0.028125,-0.0213,0.01185,0.09023,0.29234,0.21043
-0.053357,0.058246,0.030946,-0.0022187,0.0087469,0.1227,-0.055657,0.42749
-0.10373,-0.40032,0.0080329,-0.035768,-0.064645,-0.005796,0.24493,-0.18074
-0.14787,0.19568,-0.034174,0.04267,0.04999,0.28975,0.45517,-0.2467
-0.030068,0.10311,-0.0024793,-0.0089672,-0.0063446,-0.33493,0.096849,-0.22477
0.0062602,-0.13189,0.05508,0.043363,0.0087523,-0.12949,-0.43096,0.20277
0.3499,-0.15775,-0.011476,0.019232,0.0015637,-0.0065653,-0.14181,0.055915
-0.032587,-0.035937,-0.086599,-0.066754,-0.028044,-0.14331,-0.58807,0.25265
-0.080964,-0.16284,0.031372,0.0030358,0.013412,0.1354,-0.0030799,-0.57031
-0.015911,0.16734,0.067948,0.016643,-0.0072366,0.1845,0.72059,0.083433
-0.30744,0.49632,0.0070095,-0.011056,-0.0044488,-0.11826,-0.111,0.36713
0.15348,-0.29888,-0.14351,-0.017918,0.029205,0.095793,0.36523,0.14587
0.031486,-0.037758,0.054537,0.019571,0.0074642,0.24842,-0.05552,-0.19843
0.10137,-0.23656,-0.0071597,-0.015307,-0.030828,-0.30269,0.1522,-0.055854
-0.064765,0.33706,0.039804,0.01102,0.007998,-0.083876,-0.089591,-0.18212
0.058355,-0.077859,0.032526,0.0057059,-0.016613,0.15142,-0.20154,0.14515
-0.035551,-0.039708,0.034403,0.0008805,0.0049335,-0.029738,-0.44413,-0.23338
0.0060439,0.11977,-0.047797,0.0050675,0.018282,0.018707,0.068963,0.14064
-0.027523,-0.1492,-0.042094,-0.012549,-0.0074225,-0.032395,-0.096881,0.18615
0.019593,0.18306,0.020011,0.018449,0.0063396,-0.05754,0.17746,-0.18699
-0.11138,-0.11787,0.013009,-0.0037117,-0.02604,-0.22675,0.4538,0.2417
0.22669,-0.37859,-0.055922,-0.0013655,0.012838,0.24394,-0.77372,-0.21587
-0.03005,0.012955,0.023525,0.0092641,0.037096,-0.0097862,0.55891,0.36716
-0.070267,0.31772,0.11021,0.0041318,-0.031497,0.0065591,0.17644,-0.47473
-0.12904,0.069794,-0.093051,-0.032883,-0.0056934,0.059692,-0.33493,0.19041
0.0044656,0.036626,0.077768,0.0073017,0.00477,0.063264,-0.31014,0.052363
0.057327,0.17182,-0.15052,-0.039435,-0.0083387,0.19512,0.73667,-0.010486
0.12434,-0.20512,0.035079,0.030192,0.032693,-0.1726,-0.41025,-0.078741
0.05065,0.13854,0.033661,0.036798,-0.013105,-0.12902,0.71671,0.13674
-0.256,-0.025571,0.017755,-0.019266,-0.013148,-0.31758,-0.35363,-0.064377
0.19017,-0.5425,0.0034815,-0.0048856,-0.014382,0.26769,-0.16074,-0.28623
-0.15664,0.079508,-0.040219,-0.013633,0.0067252,0.0012043,-0.13762,0.040526
0.09482,0.12218,0.027079,0.024831,0.011356,0.12586,-0.76498,0.18101
0.007087,0.008417,0.0094796,0.024457,0.015501,0.026226,0.80441,-0.0068243
0.017114,0.051721,0.10924,0.0084905,-0.0038491,-0.13117,-0.30195,-0.30009
-0.032438,0.73697,-0.049636,-0.03889,-0.015003,0.17987,0.15741,0.55219
-0.033679,-0.34234,-0.14771,-0.055305,-0.017566,-0.31922,-0.2854,-0.069765
0.22267,-0.35903,0.040971,0.029562,0.03563,0.31912,0.14222,0.16419
-0.26495,0.021595,-0.0072062,0.0049069,-0.04276,-0.34881,0.7474,-0.44139
0.16627,-0.27971,0.075191,0.042835,0.028501,0.099622,-0.20803,0.28464
-0.24219,0.17388,-0.039363,-0.020461,0.01485,0.27365,0.14043,0.030193
0.11107,0.21817,0.0093042,-0.012896,0.0018898,0.047306,-0.32489,-0.19383
0.007737,-0.068411,-0.035807,-0.004678,-0.010815,-0.27631,-0.27207,-0.26349
0.17517,-0.021314,0.044711,0.035409,0.0075254,0.16813,0.64564,0.21468
-0.096554,0.13334,0.07938,0.013453,-0.0059999,-0.11338,-0.77789,-0.33923
-0.16579,0.013005,-0.13484,-0.062996,-0.051682,-0.28638,0.1613,0.082586
0.15581,0.047521,0.10502,0.032326,0.042223,0.28876,-0.24979,0.40975
-0.099948,-0.25518,-0.029528,-0.013362,-0.021126,-0.075983,0.20251,-0.062915
0.14531,-0.18392,-0.070094,0.010675,0.047511,0.28331,-0.069139,-0.090872
0.008695,0.23052,0.022088,0.018401,-0.0015866,-0.21924,0.67798,0.38665
-0.15848,0.10595,0.0047054,-0.052666,-0.035275,0.10407,-0.59474,-0.034299
0.17471,-0.049128,0.010639,0.0007174,0.017099,-0.098028,-0.044904,-0.20558
-0.13258,-0.054449,0.047945,0.038112,-0.023842,0.13584,0.68253,-0.042339
-0.041308,0.12158,-0.054903,0.012858,0.014031,-0.17027,-0.24041,-0.14604
0.089367,-0.16161,0.014971,0.018923,0.029333,-0.10936,-0.33999,-0.021403
0.025485,0.11927,-0.054618,-0.052874,-0.032534,0.022457,0.3009,-0.02846
-0.20123,0.18269,0.072443,0.016392,0.0081125,0.014848,-0.21378,0.24275
0.19081,-0.29968,0.0055198,-0.0075029,0.010556,0.31334,0.14251,-0.1535
0.045423,-0.17944,-0.013413,-0.0072475,-0.0097471,-0.24644,-0.29733,-0.35595
-0.11432,0.35613,0.015255,0.0094267,-0.0061574,0.40506,-0.3154,0.41106
0.046729,-0.15356,-0.057426,-0.019973,-0.018026,-0.40512,0.12868,-0.35979
0.019642,0.041928,0.017992,0.0060203,0.0011901,0.1345,1.0613,0.37539
-0.024951,0.067846,0.037867,0.032498,0.035512,-0.25016,-0.77177,0.10899
0.01342,-0.25552,-0.091952,0.020058,0.014277,-0.035741,0.32861,0.26624
0.14192,0.40737,0.11267,-0.023902,-0.015939,0.067369,-0.11899,-0.067262
-0.16285,-0.18642,-0.020193,0.0017537,0.014986,0.23986,-0.59718,0.090706
-0.1891,-0.0065689,-0.0059901,-0.012695,-0.025782,0.11575,0.034908,-0.15986
0.096016,-0.038359,-0.047485,-0.020565,-0.020868,-0.22569,0.90087,-0.52858
0.20245,0.04569,0.0042895,0.0015945,-0.0011241,0.060175,-0.35383,-0.17377
-0.14096,-0.043679,0.032765,0.0071224,0.0027572,-0.25267,-0.23343,-0.10042
0.067776,0.014176,-0.039566,0.0042051,-0.00078732,0.35939,0.46029,0.19055
-0.14666,-0.10808,0.014362,0.0089211,0.02006,-0.29133,-0.73841,0.16918
0.13005,0.043726,0.054208,-0.0017255,0.003194,0.0056206,0.74472,0.39132
0.029785,0.017531,-0.045027,0.0038633,0.011246,0.31979,-0.53779,0.090227
0.042785,0.31409,0.021037,0.018074,-0.0028132,-0.037258,0.53904,0.29231
-0.036798,-0.30854,-0.0138,0.0018718,0.030917,-0.35564,-0.77248,-0.47239
-0.0010371,-0.2648,-0.0331,-0.060494,-0.052203,0.16833,0.42257,-0.45867
-0.14957,0.50687,0.071715,0.04167,0.012834,0.049407,-0.49518,0.44357
0.24995,-0.041725,-0.028175,-0.027883,-0.047952,-0.088004,1.0428,0.16411
-0.319,0.056758,0.088651,0.05084,0.054137,0.3808,-0.70031,-0.4758
0.17516,-0.41762,-0.17949,-0.034937,-0.024785,-0.42694,0.28712,0.089243
-0.094212,0.073512,0.019235,0.0036578,0.020067,-0.16709,-0.32918,-0.36967
0.03148,0.030074,-0.0020965,0.018117,0.0014916,0.34071,0.067289,0.3898
0.094034,0.21036,0.10107,-0.014924,-0.017575,-0.027638,0.57527,0.2526
0.017977,-0.017641,0.032695,0.014122,0.025868,0.12732,-0.36433,0.11286
-0.04612,-0.2859,-0.11275,-0.042854,-0.023933,-0.18553,-0.15503,-0.017453
0.098367,0.12485,0.0011269,0.0020492,0.0053161,0.10527,-0.41104,-0.42302
-0.13415,0.058398,0.054143,0.024231,0.0045385,-0.10855,0.87963,0.37704
-0.22084,0.076688,0.022673,0.016209,0.005126,0.033468,-0.1988,-0.20692
0.36034,0.14752,0.023482,0.0016129,-0.0085724,-0.13969,-0.33328,-0.18678
-0.06445,-0.081658,-0.04552,-0.0039197,0.002319,-0.10414,-0.0053132,-0.15321
0.18229,-0.11142,-0.051991,-0.016187,0.0062281,0.40548,0.43043,0.4661
-0.29997,0.019473,0.050655,-0.0042743,-0.0050777,-0.19789,-0.84843,-0.20337
-0.083166,-0.17191,-0.050114,0.0079275,-0.0086326,0.27894,0.28879,0.071277
0.08955,0.074741,0.028728,-0.0035242,0.0029014,-0.37007,0.51834,0.15371
0.030514,-0.25309,-0.032764,0.015565,0.013469,0.22668,-0.1968,-0.1098
0.12313,0.027264,-0.015466,-0.013345,-0.024151,-0.18413,-0.17007,0.10247
-0.076721,0.4022,0.08866,0.018836,0.02263,0.10573,0.43838,-0.1847
-0.075228,0.020497,0.029571,-0.028632,-0.0025128,0.10255,-0.018375,0.3514
0.098174,0.13054,-0.029021,0.00057565,0.0020723,-0.060846,-0.2666,-0.45653
0.023429,-0.075714,-0.033033,0.0051508,0.0053978,-0.15624,-0.25108,0.078747
-0.008757,-0.15731,0.0089998,0.01675,-0.015551,-0.14139,0.35066,0.26485
-0.051778,-0.048259,0.0026651,0.0046287,-0.013346,0.042645,-0.33153,-0.18151
-0.11267,0.14672,-0.029024,-0.038485,0.0048264,0.22868,-0.023932,-0.31531
-0.027282,-0.2689,0.0076196,0.012917,-0.0072849,0.1321,0.29246,-0.33973
0.14894,-0.13001,0.011373,0.010807,0.028984,-0.032617,-0.19686,0.36078
-0.062231,-0.019476,-0.0092561,0.010135,0.0046293,0.025855,0.52311,0.36729
0.094496,0.20763,-0.022107,0.010983,-0.0020764,-0.34793,-0.95448,0.46763
0.11603,0.18073,-0.01843,-0.018002,-0.0068644,0.11106,0.93111,-0.085876
-0.00082539,-0.11235,0.01816,-0.022405,-0.041334,-0.036476,-0.47261,-0.083145
-0.071221,0.22853,0.10369,0.020807,0.058026,0.24578,-0.39139,-0.33091
-0.13571,-0.14863,-0.074366,-0.03729,-0.045409,-0.20962,0.76616,-0.16599
0.071506,0.035103,0.014764,0.052786,0.046064,0.28114,-0.1223,0.21086
-0.24447,0.13555,0.050004,0.0014854,-0.019804,-0.37153,0.43612,-0.42772
0.16993,-0.21835,-0.00076287,0.011542,0.029878,0.24314,-0.55849,-0.24182
-0.055797,-0.36587,-0.091391,-0.034472,-0.039585,-0.22897,-0.33173,0.10448
-0.049882,-0.0591,-0.011344,-0.0037838,-0.0173,0.046429,-0.099169,0.55059
0.10541,0.52949,-0.026223,0.0022183,0.026661,0.40476,0.22368,-0.065951
0.18556,0.010149,0.059708,-0.0004733,-0.02441,-0.10644,0.64668,0.30887
0.10463,0.025455,-0.026312,-0.02699,-0.0058133,-0.42286,-0.12173,-0.0088338
-0.0064714,-0.10169,0.013294,0.0013151,0.012811,-0.0026904,-0.51133,0.27764
-0.10415,-0.12637,0.054023,0.053632,0.047684,0.37623,-0.27882,-0.60054
-0.22344,-0.17904,-0.091513,-0.002584,-0.0023306,-0.22004,-0.07192,-0.046767
-0.039623,0.20284,0.13103,-0.01104,-0.043272,-0.092978,0.66285,-0.26944
