0.0051903,0.057221,0.0033769,-0.01001,-0.052849,-0.013608,0.0089418,0.0088249
-0.016964,-0.048462,-0.014967,-0.020377,0.055436,0.024904,-0.014778,-0.0078527
0.00079256,0.0063562,-0.0033627,1.2107e-05,-0.055065,-0.062603,0.0081303,-0.0092306
0.066126,-0.097716,0.0075129,0.012451,-0.0090866,0.0053632,0.0074585,0.0049804
-0.032244,-0.14031,0.0027701,0.017346,0.04519,0.026065,-0.0010368,0.003853
0.0098653,0.12278,-0.016821,-0.00054819,-0.017056,-5.1755e-05,-0.0015998,-0.012321
0.051258,-0.21275,-0.0037235,0.013745,0.022975,0.021172,-0.0019366,-0.0042848
-0.1117,0.58889,0.065933,0.0056929,0.0089286,0.011899,0.0058282,0.035828
0.059736,0.028259,-0.026486,-0.032508,-0.01257,-0.01212,-0.0017327,0.014161
0.073376,-0.26223,-0.02339,-0.022864,-0.01843,-0.019679,-0.0090364,-0.0070327
-0.17982,-0.088515,0.02783,0.018758,0.014419,0.020296,0.0072688,-0.020275
-0.0039106,-0.29609,-0.006349,0.013912,-0.015906,-0.017441,0.00019399,-0.041541
0.08629,0.27721,-0.0016991,0.0091071,-0.0080425,-0.015956,0.0008672,0.030434
0.0056363,0.090641,-0.0057896,0.011793,0.022334,0.016724,0.0013674,0.00014414
0.075034,-0.083636,-0.050372,-0.033038,-0.010606,-0.0054864,0.0016197,0.015958
-0.033388,0.28496,0.051819,0.022823,0.010566,0.011086,-0.0062143,0.0076178
-0.015084,-0.014521,-0.0038597,-0.0082302,0.00024025,-0.0038956,0.0013322,-0.016911
-0.034616,-0.59855,-0.029615,-0.024598,-0.0099795,-0.0035474,-0.0069112,-0.018352
0.0088284,0.18262,0.037517,-0.01049,-0.0041488,0.012148,-0.0073939,0.011343
-0.026236,0.26043,-0.005046,0.0031035,-0.028915,-0.0036711,0.015631,0.0098878
0.046866,-0.14452,-0.016146,0.055548,0.056446,0.0036939,-0.00023508,-0.0069367
-0.092846,0.33655,0.067161,0.00651,0.0018891,-0.0048057,0.015381,0.023449
0.09326,-0.28751,-0.059503,-0.010952,0.0025572,-0.0057002,-0.0078269,-0.016142
0.050363,-0.10243,-0.028802,-0.035723,-0.012108,0.0010705,-0.015218,0.0070363
0.013028,-0.015127,0.010809,-0.013004,-0.018927,-0.0078402,0.0009339,-0.0086788
-0.12761,0.09008,0.0044664,0.0025607,-0.010287,-0.0010709,-0.0063528,-0.016517
0.027671,0.17199,0.05342,0.018767,0.013707,0.013678,0.017501,0.014689
-0.074833,-0.02966,-0.038053,0.019906,-0.0016224,-0.0025677,0.0020913,-0.0088585
0.011216,-0.001522,-0.0047828,-0.017608,-0.017114,0.004923,0.0020457,-0.0012376
0.099232,0.18446,0.066873,0.015398,0.022058,0.0048865,-0.0060913,0.029746
0.18986,-0.55038,-0.08902,-0.006306,-0.001172,-0.01837,-0.02229,-0.033082
-0.22442,0.0056994,0.019599,-0.012629,0.01482,0.0053575,0.016023,0.021229
0.020392,0.25321,0.010008,0.0040704,0.0075124,0.0056344,-0.00042051,0.013003
-0.044845,-0.06264,-0.023736,-0.0031665,-0.0075626,0.0057881,0.0066248,-0.018679
-0.030096,0.23337,0.012584,-0.010885,-0.014904,-0.0098775,0.0060216,-0.0034662
0.11079,-0.058873,0.017943,0.035718,0.024445,0.0054988,-0.0021443,-0.0037907
-0.052638,-0.28884,-0.030592,-0.035044,-0.045805,-0.018345,-0.017826,-0.0039336
0.033512,0.091049,0.023597,0.0036135,-0.0068623,0.0046346,0.0058512,-0.003792
-0.053374,0.2831,0.024415,0.019078,0.0085797,0.012079,0.0063419,0.012342
0.092306,-0.21496,-0.028219,-0.019765,0.024108,-0.0036801,-0.0086292,-0.0023754
-0.068999,0.14045,0.045086,0.0043004,0.016416,0.012164,0.015507,0.014507
0.056204,-0.13104,-0.045186,0.013056,-0.014437,-0.018451,-0.015132,-0.007454
-0.078916,0.10763,-0.010487,0.014111,0.0096392,0.013845,0.024328,0.0096659
0.041636,-0.075854,-0.0075554,-0.016252,-0.005227,-0.0082114,-0.0068294,-0.0046746
-0.011147,-0.073338,0.017911,-0.00019879,-0.0045257,0.0011778,-0.014893,-0.003809
-0.0019713,-0.040568,-0.01245,-0.0082835,-0.019689,-0.0050438,-0.015459,-0.011313
-0.070446,0.11835,0.026287,0.0062446,0.011642,0.011987,0.015004,-0.011598
0.042194,-0.085382,0.0091993,-0.0034594,0.0034717,-0.0026096,-0.0014921,0.011039
0.10229,-0.014927,-0.032256,-0.0059521,0.0027065,-0.0099249,0.0055169,0.0020806
-0.030435,0.028908,0.027228,0.0069074,-0.0061613,0.0055679,0.0049079,0.0086227
-0.035751,-0.028979,-0.022915,-0.019164,-0.0073328,-0.0030307,0.004569,0.0074514
-0.0079031,0.22711,0.0052139,-0.01345,-0.00061581,0.011209,-0.011116,-0.024692
0.0054195,-0.1247,0.0026239,0.063429,0.029784,-0.0062685,0.012489,0.0060427
0.011036,0.2188,-0.006921,-0.014916,-0.0097689,-0.0005822,-0.010653,0.037168
-0.054562,-0.080855,0.0002405,-0.0063029,-0.0020498,-0.0027479,-0.0025268,-0.017322
0.06557,-0.23753,0.00075549,-0.0046563,-0.017411,-0.020335,-0.0022945,-0.016921
-0.019792,-0.0039107,0.010174,-0.0024621,0.0065407,0.025001,0.0056062,-0.00083083
0.0094256,-0.053804,0.0048257,-7.505e-05,-0.00065554,0.008418,0.0055348,-0.0082386
0.0049513,0.018025,-2.5823e-05,-0.0056481,0.0077122,-0.01532,-0.018104,-0.0001746
-0.009216,-0.054257,-0.0048165,-0.003823,0.0080607,0.0084546,0.0050652,0.015493
-0.079058,0.2296,0.0056394,-0.0025701,0.00029188,0.0093251,0.004807,-0.00032119
0.062162,-0.0051078,-0.0159,0.0058804,-0.0078079,-0.020691,0.012443,0.0070683
0.040616,0.12444,0.0084563,0.0059588,-0.0083666,0.0041408,-0.0032261,0.0064286
-0.0098196,-0.038398,-0.0072894,-0.0022178,-0.009056,-0.002313,-0.0031131,-0.0022032
-0.018043,-0.088008,0.0072873,0.01274,0.0059467,0.014473,-0.0028427,-0.01095
-0.038353,-0.20469,-0.041311,-0.019357,-0.0022091,-0.015917,-0.010242,-0.03534
-0.00053366,0.15038,0.05037,0.010949,0.013526,0.0080421,0.0059168,0.026313
0.071385,0.040145,-0.022025,-0.013501,-0.0014444,0.00044292,0.0065496,0.017894
-0.026762,-0.0029624,0.015203,0.0088341,0.0075418,0.00042745,-0.00055431,-0.0057951
-0.0072776,-0.29741,0.005945,0.0075883,0.0090934,-0.015334,-0.0076102,-0.013432
0.034585,0.034027,-0.0029125,-0.0016742,-0.02046,0.00013994,-0.0068441,0.0027989
-0.043214,0.5483,0.027596,0.012263,0.0045425,0.023493,0.017315,0.035017
0.023853,-0.15889,-0.051116,-0.020887,-0.0099101,-0.0077424,-0.0055131,-0.034099
0.024266,-0.039325,0.034256,0.016166,0.014115,0.0079772,0.010532,-0.0015948
-0.065362,-0.13922,-0.044473,-0.032649,-0.0094041,-0.0075373,0.0028835,0.01516
-0.033397,-0.11492,0.033055,-0.010848,0.0055058,0.00031606,-0.012876,-0.01524
0.035456,-0.16253,-0.045521,0.019302,-0.026947,-0.0076046,-0.013307,-0.0069633
-0.0056822,0.27109,0.024678,0.0032886,0.010643,-0.0079081,0.0016427,0.024323
0.0088468,0.19934,0.017262,0.0036749,0.024775,0.015034,0.0086339,-0.015105
0.017892,-0.10718,0.026066,0.090699,0.0078591,-0.0012237,-2.4662e-05,0.015465
0.053565,0.043612,-0.0036512,-0.095215,-0.016501,-0.0097069,0.007035,-0.0088357
-0.063579,0.070379,-0.025227,0.015967,0.0064678,0.0053302,-0.0013509,-0.0097265
0.087959,-0.32651,-0.023386,-0.029168,-0.016981,0.0049452,-0.0017101,0.0051323
-0.086447,-0.14102,-0.029815,-0.012107,-0.0009727,-0.0029522,-0.0018786,-0.018823
-0.0098327,0.29826,0.087846,0.043573,0.0075027,0.012946,-0.0019298,0.02004
0.097851,0.062716,-0.0067241,-0.010606,0.00049035,-0.0098476,0.0058455,0.020164
-0.1316,0.053418,-0.016875,-0.0027172,0.0012744,-0.0088683,-0.002095,-0.010705
0.035523,0.17282,0.018345,0.020466,0.017521,0.0079974,0.013235,0.013258
-0.018265,-0.41772,-0.033565,-0.019054,-0.029018,-0.014046,-0.0185,-0.017456
0.0039635,-0.071937,-0.023553,-0.011784,0.010006,0.010807,-0.0035047,-0.040468
-0.053794,0.20788,0.017996,0.050194,0.0095525,0.012093,0.011452,0.037895
0.12125,-0.50342,-0.040741,-0.043978,-0.022557,-0.033786,-0.03598,-0.016769
0.021499,0.21868,-0.0035154,0.0026382,0.015297,0.029269,0.026226,0.014315
-0.0014215,0.718,0.099111,-0.013033,-0.0017899,0.021449,0.018499,0.021831
-0.010012,-0.16452,-0.0060239,0.018423,0.004433,-0.018247,-0.0044287,-0.017575
-0.012023,-0.12184,-0.053531,0.01109,0.0028549,-0.011668,0.0042742,0.0055667
-0.014972,0.018507,0.049601,0.0040371,0.0092438,0.0022533,-0.0023918,0.013237
-0.096321,-0.40753,-0.057143,-0.026195,-0.030953,-0.015309,-0.016791,-0.056955
-0.0050157,0.28053,0.023321,0.0062842,-0.00043598,-0.0093542,-5.1159e-05,0.037285
0.096222,-0.20364,0.05528,-0.00016214,0.0071255,0.028263,0.00078821,-0.016464
0.005668,0.020325,-0.0014209,0.0012453,0.0152,-0.011547,0.0012427,0.00056984
-0.16615,0.07774,-0.13182,0.010397,0.0081382,0.012012,0.0012718,0.0023814
0.23765,0.041677,0.023328,0.0037454,-0.0063273,0.0051998,0.0087161,0.027861
-0.056514,-0.052171,0.02692,-0.0031763,-0.0048808,0.0069118,0.00022315,0.02205
-0.026156,0.098281,0.0047786,-0.010422,-0.018914,-0.0066038,-0.00064555,-0.023196
0.10828,0.021524,0.06735,0.028883,0.013934,-0.0044999,-0.017185,-0.022268
-0.27255,-0.18453,-0.034246,-0.064889,-0.00019671,-0.018439,0.0054326,-0.030109
0.26657,0.18606,-0.033402,0.013055,0.0011197,0.013737,0.0048254,0.031281
-0.057612,0.22056,0.070605,0.051906,0.017853,-0.0019287,0.020136,0.03695
-0.074581,-0.15912,-0.042137,-0.026349,-0.0203,0.0048409,-0.011102,-0.020704
0.051145,-0.23512,-0.019992,0.012731,-0.0039312,-0.012692,-0.026407,-0.047583
-0.15647,-0.03226,-0.027228,-0.026172,-0.011123,0.00044165,0.013217,0.011419
0.085224,0.13546,0.091992,0.013112,0.012841,0.013364,0.013917,0.039532
-0.0029919,-0.18647,-0.061312,-0.0023578,0.0054601,-0.012592,-0.0088077,-0.0097767
0.14362,0.0085345,-0.058042,0.044456,0.02138,0.0088596,0.0074081,-0.0034865
-0.097917,0.37561,0.069984,-0.049694,-0.0176,-0.00015635,-0.0078671,0.019385
-0.093366,0.02314,0.048858,-0.003607,-0.0021922,0.0073494,-2.8543e-05,-0.027206
0.18126,-0.15905,-0.02799,0.01871,0.0050403,0.00010167,0.007459,0.036208
-0.09477,0.17237,0.034643,-0.013823,-0.003722,0.0013939,-0.00098905,-0.032828
-0.02437,-0.20893,-0.075611,0.0084288,-0.0049674,0.0031913,-0.0096389,-0.015813
0.015444,-0.2863,-0.053704,-0.0079793,-0.021976,-0.026008,-0.0027026,0.0011313
0.11609,0.13729,0.02277,-0.015895,0.01578,0.0073092,-0.0034279,0.017919
0.02537,-0.21725,-0.0018604,0.016108,-0.00084449,-0.01424,0.0039884,0.042366
-0.16458,0.55051,0.11508,0.017726,0.022089,0.010766,0.0040485,-0.066083
0.037762,-0.11294,-0.055841,-0.019041,-0.0090751,0.019733,0.0046089,-0.018272
-0.18745,-0.027966,0.0087746,0.0069941,-0.0084313,-0.003023,0.013429,0.04524
0.177,0.10074,0.050775,0.095329,0.0082346,0.012779,0.014745,0.022895
0.032009,-0.10472,-0.063201,-0.12176,0.0015965,-0.018803,-0.046326,-0.022887
-0.072628,-0.21065,-0.044715,0.011536,0.010403,0.0038273,0.0096948,0.0093064
0.16286,0.067949,0.0041131,0.018388,-0.004706,-0.020813,0.0029448,0.009915
-0.18102,0.14939,0.059477,-0.038712,-0.020508,0.008968,0.0036239,-0.029038
0.10042,-1.9351e-05,-0.035,0.035799,-0.0058368,-0.00040932,-0.011742,0.001735
0.05449,0.079849,-0.021385,-0.0076196,0.0003175,0.013743,0.011565,-0.0071134
-0.11637,0.00727,0.053765,0.011303,0.013794,-0.0030874,0.0033134,0.0070651
-0.038909,-0.21483,-0.012245,-0.00058638,0.0036581,-0.011704,-0.012962,-0.0023651
0.073376,-0.25398,-0.023643,0.011912,0.0015179,0.011398,0.02533,-0.011693
0.006464,0.082364,-0.0034671,-0.021164,-0.00010382,0.003717,-0.014552,0.002756
-0.055352,0.1036,0.056384,0.01752,-0.0087635,-0.0035685,0.0002461,0.025495
0.22094,-0.014996,-0.031442,-0.012718,0.0069266,0.012862,-0.00057039,0.040903
-0.17469,0.47006,-0.00131,0.0050688,9.167e-05,-0.017442,-0.0013673,-0.044895
0.076868,0.010857,-0.0095662,0.0080157,0.0018476,-0.016486,-0.0021317,0.025701
-0.17278,-0.16909,-0.040749,-0.019937,-0.019301,-1.4995e-06,-0.010648,-0.075669
-0.062925,0.02765,0.069018,-0.0089167,0.022265,0.024131,0.020008,0.017996
0.11975,-0.27006,-0.016372,0.017246,0.0012023,0.0089997,0.019593,0.048796
0.10488,-0.033595,-0.015793,-0.0042524,-0.0046748,-0.01415,-0.035252,-0.030112
-0.057385,0.010071,0.039444,0.035776,0.0044023,0.0015721,0.0039892,0.039232
0.018682,-0.20739,-0.045959,-0.034597,-0.01074,-0.006299,-0.02669,-0.06326
-0.12572,0.16175,0.0015148,-0.0043488,-0.0031996,0.0013489,0.021162,0.01423
0.1433,0.23186,-0.0055062,0.0095492,-0.0040655,0.0011396,0.022501,0.021937
-0.025927,-0.070383,0.0034314,-0.01602,-0.0052656,0.0009527,0.0084683,-0.0009074
0.037317,0.063113,0.028442,0.013081,0.0091315,-0.0069602,0.025783,0.031703
0.073276,-0.179,-0.008545,0.0035015,0.008167,0.0087036,-0.058539,-0.020892
-0.19382,0.27992,0.033072,0.018094,0.015498,0.016728,-0.0024543,-0.041636
0.030612,-0.017184,-0.034303,-0.044449,-0.0078246,-0.021941,-0.0091699,0.023963
0.17436,0.1193,0.0079262,0.026921,0.0006909,0.0020571,0.0072426,0.035045
-0.38886,-0.46554,-0.05136,-0.010043,-0.021568,-0.01288,0.015587,-0.071139
0.16071,-0.0044041,-0.0014217,-0.0071288,-0.0044787,0.0034983,0.015946,-0.0057756
0.018385,0.13066,0.0090992,0.035292,0.020483,0.027671,0.00058791,0.06683
0.20805,0.17894,0.089364,-0.00043025,0.0062122,-0.0029567,-0.0070055,0.052707
0.027271,-0.2118,-0.026467,0.0024111,-0.016242,-0.018174,-0.014648,-0.07958
-0.22627,-0.016673,-0.026082,-0.026911,-0.0079682,-0.0024446,-0.022387,-0.025459
0.042116,0.28311,0.043525,-0.0027319,0.023132,0.020732,0.063451,0.074428
0.083519,-0.19099,-0.091081,-0.026703,-0.0088973,-0.02679,-0.054101,-0.10795
-0.0226,-0.090534,0.015562,0.01847,0.005365,0.019073,0.031123,0.076063
-0.11061,-0.0048311,-0.0034405,0.01586,-0.012099,-0.029115,-0.024686,-0.045122
0.063399,0.16348,0.00073467,-0.010736,-0.0064493,0.016237,-0.0027901,0.036647
-0.29582,0.026178,0.036301,0.017186,0.0068714,0.030238,0.034353,0.024829
0.56297,0.11557,0.056721,0.037473,0.028056,-0.0026261,0.039979,0.052551
-0.41439,-0.20136,-0.047165,-0.051159,-0.028651,-0.027559,-0.10292,-0.1221
0.21695,-0.17572,-0.0096558,0.017119,0.0087882,-0.0053919,0.019937,0.0324
-0.18524,0.22211,-0.018296,-0.030982,-0.023566,0.0014776,0.010392,-0.046218
0.3921,0.076387,-0.010709,0.02339,0.030618,0.016583,0.017132,0.079771
-0.14811,-0.028335,-0.010497,0.00061916,0.0073143,0.00093848,0.001298,0.027721
-0.18443,-0.0929,0.044673,-0.028955,-0.03099,-0.0063464,0.041128,-0.069485
-0.1264,-0.28165,0.0062123,0.012756,0.0093966,-0.0052739,-0.058692,-0.02443
0.046915,0.1321,0.014624,0.024055,0.0033773,-0.011531,-0.017026,0.0063597
0.33415,0.34392,-0.039549,-0.026556,-0.0023049,0.013818,0.064346,0.10051
-0.15533,-0.10713,-9.4025e-05,0.040239,0.015631,0.031524,-0.033621,-0.13331
-0.013904,-0.12,0.00018381,-0.010394,-0.013295,-0.028955,-0.014399,0.13996
-0.082668,0.061935,-0.038677,0.00073925,-0.011127,-0.011611,-0.04243,-0.088407
-0.061114,-0.016271,0.055242,-0.067431,0.014174,0.020837,0.061588,0.047918
0.15655,-0.020863,0.00070788,0.026973,0.0078054,-0.0098926,0.008228,0.032714
0.3168,0.10849,0.032066,0.16667,0.016569,0.013317,0.047195,-0.048303
-0.74066,-0.06743,-0.053889,-0.14039,-0.045496,-0.018881,0.0064391,-0.054274
0.33061,-0.049417,0.0083551,-0.06565,-0.022119,-0.02043,-0.082783,-0.07046
0.039466,0.0067323,-6.4313e-05,0.016462,0.039879,0.016668,-0.064,0.076006
-0.19316,-0.11584,-0.024536,-0.041834,0.0077485,0.0066814,0.00071656,-0.035635
0.30945,0.093963,0.044307,0.088131,0.0065485,0.0044901,0.049438,0.12687
0.1519,0.29685,0.01904,0.070701,0.028516,0.057115,0.13746,0.032991
-0.054443,-0.16607,-0.029863,-0.03171,-0.035675,-0.061914,-0.062805,0.034621
-0.01083,-0.21925,-0.063112,-0.047682,-0.045333,-0.040053,-0.097856,-0.18075
-0.16743,-0.03776,0.067995,0.076759,0.038703,0.052408,0.040308,-0.019604
-0.40201,-0.079354,-0.026916,-0.073225,-0.017809,-0.0032595,0.031378,0.11932
0.26196,0.21949,0.042958,0.040824,0.019659,-0.0038903,0.0080313,-0.084519
0.27267,0.028968,-0.034823,-0.05789,0.0028105,-0.0041084,-0.061199,-0.0061817
-0.23179,0.25864,0.036529,-0.0019221,0.017686,0.050856,0.14375,0.12787
0.17726,-0.18443,-0.055721,-0.024904,-0.021614,-0.096723,-0.2211,-0.088406
-0.43057,-0.15253,0.00057191,0.030511,-0.021367,-0.0014712,0.0081004,-0.1079
0.20868,0.41579,0.040928,-0.061016,0.026149,0.070992,0.17489,0.22577
0.34124,-0.17453,-0.036614,-0.024965,-0.019821,-0.043473,-0.15844,-0.20464
-0.3598,-0.28783,0.14266,0.39718,0.06715,0.10809,0.31257,0.13961
0.62715,0.074547,-0.10104,-0.23189,-0.048996,-0.083947,-0.20915,0.03136
-0.5306,-0.3036,-0.056597,-0.092206,-0.016765,0.0051329,-0.036268,-0.10055
0.16834,0.20878,-0.01262,-0.075184,-0.0080488,-0.015566,-0.035982,0.016366
-0.29095,-0.0049735,-0.030943,0.013418,-0.0071954,-0.052507,-0.091008,-0.040754
-0.063383,0.08769,0.084497,0.14117,0.017085,0.034802,0.072282,-0.11649
0.54933,0.32307,0.0062301,0.080393,0.025743,0.043174,0.17284,0.37455
-0.16611,-0.26178,0.023714,-0.083914,0.018729,0.011652,0.015509,-0.020914
-0.47495,-0.047058,-0.019288,-0.12582,-0.027513,0.0027494,-0.10278,-0.31814
0.48512,0.21636,0.0096538,0.016902,-0.0037698,-0.03819,0.091438,0.15563
-0.30447,0.094948,-0.015173,0.016248,-0.0039579,-0.0017177,-0.18297,-0.2076
-0.33794,-0.33905,-0.016527,0.036726,0.0030655,-0.0048864,0.042989,0.093806
0.31994,0.11085,0.0516,0.22748,-0.0061387,0.015024,-0.05054,0.20215
0.57185,-0.08501,-0.022396,-0.23097,0.015436,0.034885,0.099508,-0.11558
-0.34569,-0.1501,-0.043543,-0.056468,-0.01008,-0.046492,-0.068813,-0.16332
0.20788,0.26443,-0.027437,0.033027,-0.019841,-0.025586,0.1636,0.48085
0.23063,-0.13884,-0.020619,-0.079056,0.0021363,0.01202,-0.062615,-0.31661
-0.67888,-0.14776,0.039915,0.17789,0.0014597,0.035306,-0.099486,-0.033576
-0.32061,0.02918,0.076518,0.10063,0.025151,-0.0025562,0.083318,0.039231
0.30305,0.2621,-0.066771,-0.24889,-0.004968,-0.031437,-0.23425,-0.27179
0.38618,0.27259,0.047549,0.01901,0.0045892,0.026387,0.36815,0.34433
-0.21195,-0.21031,0.020767,0.051602,0.014331,0.03754,-0.079727,0.058356
0.064048,0.065469,0.032152,0.089892,0.023758,0.032656,0.022463,-0.099029
-0.19109,-0.10907,-0.043653,0.093905,-0.045709,-0.09037,-0.16187,-0.018346
0.17176,-0.47406,-0.073909,-0.13985,-0.014665,-0.011567,0.054888,-0.081609
-0.042722,0.21506,-0.011359,-0.11098,-0.039392,-0.035687,-0.13098,0.01731
-0.030758,0.062342,0.019877,0.033335,0.036603,0.040618,0.17287,0.18658
0.34652,0.13251,-0.01017,0.013827,0.026296,0.038117,-0.12514,-0.27483
-0.33501,0.051954,-0.0063023,-0.002994,-0.007204,-0.026991,0.01631,-0.03687
0.15684,-0.023092,0.079642,0.032179,0.022657,0.056803,0.13036,0.15958
-0.17944,-0.21157,-0.06403,-0.011583,-0.032061,-0.030349,-0.039619,0.057096
0.093358,0.34233,0.039313,-0.094367,-0.014835,-0.014724,0.045716,0.092427
-0.31262,-0.04608,0.021703,0.11144,-0.0037984,-0.036857,-0.090827,-0.22844
0.41784,-0.17178,-0.0090603,0.1039,0.055432,0.075037,0.14317,0.20124
-0.21142,0.092082,0.023008,0.036125,-0.017386,-0.054274,-0.074304,-0.090185
-0.16481,-0.12687,0.0061915,-0.033172,0.01922,0.028005,-0.018349,0.30875
0.53833,-0.074467,-0.0069456,0.064156,-0.0073742,-0.014438,-0.16682,-0.47867
-0.37238,0.036755,-0.049155,-0.081045,-0.019685,-0.010115,0.081148,0.031492
0.096647,0.22314,-0.089784,-0.38432,-0.049382,-0.0062744,-0.0011018,-0.097351
-0.25833,0.073632,0.082514,0.13892,0.020588,0.012363,0.086827,-0.011635
0.18501,-0.22713,-0.077817,-0.079874,-0.0049276,0.0064307,-0.037248,0.2834
0.22697,-0.039901,0.032733,0.15744,0.030711,0.01474,0.041341,0.032426
0.22924,-0.091911,0.080415,0.33061,0.010839,0.0058759,-0.052033,-0.02829
-0.72002,0.077022,0.043824,-0.10435,0.014131,0.0032372,0.14362,0.070966
0.48391,0.17607,0.018262,-0.020361,-0.0058009,-0.016483,-0.11411,0.095894
0.17423,-0.009296,-0.05007,-0.096019,-0.03296,-0.0060787,0.018149,-0.1884
-0.64142,-0.12575,-0.067233,-0.128,0.01883,-0.027527,-0.069305,-0.15762
0.10209,0.091321,-0.010214,0.055103,-0.030005,-0.025476,-0.0015771,-0.10129
0.073742,-0.33055,0.026365,0.03061,0.031485,0.055465,0.049671,0.19147
-0.19674,0.54015,-0.0055069,-0.061762,-0.015518,-0.034086,-0.016579,-0.060263
0.17194,0.047479,0.041393,0.050602,0.0085529,0.050021,-0.027674,0.097112
0.67692,-0.26188,0.017498,0.15611,0.0097899,0.011017,0.06411,-0.00019901
-0.54656,-0.19218,2.3526e-05,-0.10505,-0.011984,0.012747,0.0095042,0.171
-0.085069,0.10238,-0.050683,0.0090611,0.0055473,-0.062463,-0.14419,-0.24175
-0.02818,-0.20971,-0.025465,-0.15009,-0.015921,0.050371,0.22022,0.088112
0.14943,0.29283,0.028948,0.10499,0.017189,-0.032225,-0.11649,-0.021053
0.43295,0.19025,-0.012014,-0.038197,-0.012468,-0.02173,-0.014625,-0.00096797
-0.22319,-0.16917,-0.014936,0.068658,-0.04254,-0.035662,-0.061328,0.029478
0.15301,0.03335,0.044239,-0.027887,0.098717,0.082146,0.1327,0.0067788
-0.93207,-0.36687,0.025406,0.038826,-0.0263,-0.0040958,0.12095,-0.045687
0.3284,0.15298,-0.016412,-0.05999,-0.019206,-0.02845,-0.089558,-0.048819
-0.28678,-0.049327,0.036115,0.25316,-0.020598,-0.013965,-0.20216,-0.078852
0.17507,0.15561,-0.051391,-0.31117,0.01653,0.031923,-0.0054559,0.12453
0.64347,0.27763,-0.0055521,0.1221,-0.0091404,0.00012744,0.02505,0.064018
-0.32858,0.12094,-0.013902,-0.055711,0.019919,0.00017021,0.14863,-0.039294
0.19965,-0.37186,0.0017316,-0.054292,-0.013086,0.0086028,-0.00038121,-0.090065
0.29039,0.044994,0.018036,0.088948,-0.006216,-0.029421,0.04802,0.14658
-0.22394,-0.39904,-0.066408,-0.17899,-0.013871,0.010825,-0.18203,-0.13475
-0.29443,0.33033,0.037526,0.010409,-0.0046792,-0.03506,0.059472,0.017242
-0.23236,-0.0052374,0.0094274,0.1733,0.029083,0.020075,0.021803,0.12334
0.11245,0.13041,0.10679,0.20766,0.04023,0.035301,-0.046319,0.14934
-0.053454,-0.30352,-0.061523,-0.091101,-0.026416,-0.0052035,0.11916,-0.32154
0.42401,0.4891,0.097637,0.14205,0.047323,0.08603,0.079246,0.20102
-0.31434,-0.55419,-0.15064,-0.36872,-0.067213,-0.11269,-0.0029504,-0.15074
0.12434,0.22334,-0.080106,-0.1645,-0.034461,-0.038456,-0.1197,-0.094671
0.0015496,0.064582,0.03583,0.081533,-0.018616,-0.042221,-0.16843,0.0043463
0.0014946,0.14999,0.064725,0.15031,0.019516,0.072033,-0.029897,0.12613
0.30071,0.097482,0.077527,0.2143,0.095909,0.070594,0.079898,-0.0070153
-0.58877,-0.47502,-0.073448,-0.20179,-0.046772,-0.038254,-0.023732,-0.016925
0.11757,0.066048,-0.0125,-0.018214,-0.025225,-0.012164,0.13013,0.051616
-0.039237,0.018347,-0.012579,0.032302,0.028146,0.015847,0.08143,0.08985
0.43337,0.14043,0.020241,-0.14256,-0.03485,0.045243,0.0012271,-0.051631
-0.34082,-0.11402,0.023279,0.36449,0.020215,-0.096627,0.043288,-0.062677
0.61998,0.2006,0.011648,-0.18033,0.0056951,0.011242,-0.022727,0.053454
-0.71907,-0.087579,-0.0075841,-0.034659,0.022839,0.039905,-0.16212,-0.0036455
-0.041565,0.02127,0.011622,0.020052,-0.02252,-0.011273,-0.019655,0.012857
0.30506,0.19117,-0.072115,-0.33698,-0.04489,-0.017657,0.050031,-0.21181
0.075718,-0.1478,0.029741,0.19822,0.041276,0.028512,-0.048301,0.047871
-0.1298,-0.26012,-0.018938,0.16385,0.0013448,-0.060018,0.12324,0.13586
-0.21051,0.11395,0.094524,0.34797,0.053991,0.092243,-0.065988,-0.10277
0.18562,-0.023043,-0.098115,-0.42227,-0.074084,-0.076555,-0.13585,0.029306
-0.15892,-0.12938,-0.018,-0.022616,0.0080873,0.051468,0.16801,0.28444
0.29646,0.02362,-0.0080698,0.0075613,-0.034933,-0.062112,-0.13439,-0.44452
-0.25931,0.21804,0.080845,-0.073654,0.016177,0.020688,0.085643,0.1724
0.27641,0.14832,0.06177,0.062723,0.029144,0.065759,0.18216,0.34744
0.22448,0.05391,-0.08068,0.050781,0.019987,-0.036242,-0.10955,-0.39524
-0.43052,-0.15526,0.028451,0.0012918,0.0045002,0.0035601,-0.04795,-0.031964
0.030234,0.22696,-0.095481,-0.18614,-0.033026,-0.026106,0.052505,0.085601
-0.24465,-0.34286,0.10182,0.45789,0.032094,0.030611,0.0093756,0.097721
0.089033,-0.30519,-0.012885,-0.23077,-0.01936,-0.014163,-0.031896,-0.15238
