0.079181,0.091482,0.1408,0.090607,0.051261,0.030967,0.029611,0.087937
-0.04317,0.072947,-0.057565,-0.0068218,-0.02897,-0.038587,-0.022756,-0.054205
-0.048358,-0.07835,-0.044985,-0.033223,0.00045601,0.008632,-0.0049932,-0.017646
0.00071588,-0.058244,-0.024423,-0.0039037,-0.00083835,0.0085601,-0.0032364,-0.020209
-0.052394,-0.10126,-0.01911,-0.020251,-0.0014263,-0.03088,-0.0097814,-0.014015
0.034552,-0.019534,0.018099,0.011509,-0.0012262,-0.00793,-0.0011983,0.072089
0.027436,0.023716,0.025011,0.0053199,0.0075481,0.030765,-0.00084882,-0.019243
-0.010877,0.021769,-0.029342,-0.015625,0.0013279,0.022905,0.046078,0.28227
-0.017551,0.045947,-0.019789,0.034271,-0.004479,-0.031393,-0.04779,-0.31296
0.038856,0.081201,0.069287,0.0061724,-0.0023321,0.016305,0.03796,-0.048033
0.0098803,-0.020998,0.018907,-0.014386,0.0074805,0.0096235,-0.0091152,0.099405
0.012462,0.043219,-0.0072987,-0.012131,0.0012578,-0.012592,-0.017131,-0.090416
0.014943,0.038079,-0.0020846,0.012689,-0.0055797,-0.011541,0.021706,0.24113
-0.061254,-0.13965,-0.067614,-0.03379,-0.013154,0.0047192,-0.04107,-0.16411
-0.013378,-0.085315,-0.032545,-0.0030998,-0.0058721,-0.0030527,0.021077,-0.0090869
0.025557,0.082715,0.09492,0.05803,0.03194,0.011938,0.0050091,0.019358
-0.092872,-0.15178,-0.11513,-0.053303,-0.04023,-0.036218,-0.0033417,0.016017
0.029971,0.12529,0.032566,-0.016545,0.02777,0.016662,0.0038314,-0.11945
0.13659,0.14104,0.17869,0.10603,0.040802,0.030137,0.010891,0.059426
-0.046109,-0.11138,-0.10625,-0.060384,-0.040003,-0.011204,-0.013431,0.006544
0.013443,0.13483,0.021821,0.023425,0.012129,0.017857,0.0011573,0.034595
-0.020415,-0.09556,-0.022564,-0.040825,-0.044755,-0.03873,-3.6407e-05,0.12743
-0.04587,0.042639,-0.059046,-0.010774,0.0083489,0.014528,0.014258,-0.13018
0.015471,-0.042831,-0.016486,0.012221,0.031066,0.0059058,-0.026215,0.033612
-0.00016548,-0.12397,0.027883,0.012749,-0.015458,-0.025414,0.011451,0.19528
0.016884,-0.066779,0.0045379,-0.0012015,0.025143,0.030011,0.0023747,-0.31834
-0.058179,0.12152,-0.00010313,-0.029564,-0.026834,-0.023134,-0.0064461,0.078077
-0.03784,-0.20003,-0.017298,-0.002141,-0.0075086,0.0025545,-0.0071015,-0.083972
0.1323,0.27175,0.11641,0.033855,-0.003165,-0.018129,-0.0073597,0.032476
-0.071832,0.17476,0.0014019,0.038801,0.032584,0.04732,0.024002,-0.21168
0.075349,0.067873,-0.067043,-0.019274,0.013234,0.018829,0.0322,0.33361
0.041438,-0.17778,-0.020348,0.015118,0.0085351,-0.010249,-0.021972,0.075871
0.012816,0.051753,0.03058,-0.03835,-0.036651,-0.016808,0.0019685,0.023612
-0.089432,-0.073334,0.022238,0.0074548,-0.013199,-0.040103,-0.044507,0.075339
-0.14834,-0.42755,-0.13155,-0.058376,-0.014838,-0.0020035,0.0026687,-0.3318
0.086577,0.13257,0.093271,0.06149,0.029044,0.035199,0.034238,0.16113
0.061791,0.19772,-0.012829,-0.038369,-0.013833,-0.029686,0.00354,-0.12577
-0.049202,-0.03103,-0.03383,-0.0053346,-0.0021736,0.014733,-0.011042,-0.036065
-0.0024658,-0.10284,-0.006633,0.021046,0.017832,0.028271,-0.0014607,0.14947
-0.015262,0.12699,0.0082316,0.010406,-0.00012063,0.011262,-0.037903,-0.45932
0.085173,0.26176,0.11374,0.041382,0.022457,-0.028305,-0.0032314,0.31729
0.080162,0.15197,0.021413,0.0046302,-0.0080849,-0.0044959,0.063215,0.18942
-0.16388,-0.56536,-0.18315,-0.076867,-0.045034,-0.019033,-0.034373,0.17084
0.18755,0.38558,0.11605,0.04604,0.059668,0.068445,0.11741,0.19634
-0.17208,-0.35293,-0.043787,-0.026171,-0.030427,-0.047054,-0.060252,-0.58083
0.036732,0.088424,0.061769,0.033514,-0.011184,-0.01425,-0.060132,0.32895
-0.0076748,0.1117,0.024418,0.013232,-0.0002905,-0.013039,-0.054418,-0.55223
0.053474,0.06651,-0.0011628,-0.0094607,0.025318,0.042404,0.027253,0.041595
-0.084244,-0.10912,-0.10952,-0.042478,-0.020502,-0.0041817,0.068125,0.33916
-0.05257,-0.35772,-0.089613,-0.062,-0.020586,-0.027725,-0.024809,0.0081226
0.072006,0.29388,0.10643,0.057755,0.04083,0.026586,-0.031891,-0.05657
-0.068072,0.10859,-0.027585,0.01311,0.0077602,0.010456,0.071223,-0.17098
0.036585,-0.30731,-0.044464,-0.0074117,-0.041339,-0.036922,-0.074115,0.55111
0.17601,0.53397,0.21378,0.067326,0.026691,0.032986,0.055953,-0.42734
-0.048121,-0.21764,-0.064127,-0.027835,-0.030038,-0.037589,-0.05416,0.089329
-0.097459,-0.15649,-0.096395,-0.042849,0.0074371,0.0091507,-0.021987,-0.2829
0.15941,0.49633,0.17928,0.084439,0.068899,0.071573,0.21432,0.44568
-0.14644,-0.39536,-0.08945,-0.068472,-0.072243,-0.084813,-0.14291,0.17022
-0.02447,0.18834,-0.02087,0.021111,0.036999,0.0086034,-0.055395,-0.5581
-0.12438,-0.63817,-0.18645,-0.069395,-0.041084,0.023557,-0.01589,0.062213
0.13917,0.24861,0.092486,0.018841,0.013584,0.0068118,0.084781,-0.06506
0.070948,0.31751,0.08867,0.043315,0.028912,-0.010436,-0.089092,0.011704
-0.093932,-0.12539,-0.049901,-0.019484,-0.010877,0.0109,0.080311,0.253
0.11448,0.008143,0.051559,0.018063,-0.01991,-0.038441,-0.015449,0.54224
-0.036758,0.0096593,0.064852,0.031212,0.017477,0.044873,0.015332,-0.45492
-0.11648,-0.14216,-0.095936,-0.065652,-0.015767,-0.0045013,0.017425,-0.63442
0.079742,0.061781,-0.024435,0.009052,-0.010058,-0.037805,-0.12559,0.5304
-0.0096534,0.24669,0.053053,0.013441,-0.012026,-0.031291,0.070979,0.027505
0.0064435,0.00555,0.019798,0.041521,0.080131,0.093407,0.0053069,-0.39752
0.042036,-0.12402,-0.014123,-0.02369,-0.014639,-0.0073437,0.0045873,0.18751
-0.090971,-0.096766,-0.094652,-0.033593,-0.054011,-0.060149,-0.081179,-0.13835
0.075113,0.08606,0.044937,0.019753,0.008953,0.020717,0.19129,0.82691
-0.039209,-0.162,0.03077,-0.019801,0.0023702,0.0083338,0.0072704,-0.22463
0.095823,-0.074967,-0.073687,0.019687,0.019914,0.050689,-0.033676,-0.62605
-0.060233,0.027951,0.021238,-0.010207,-0.016689,-0.032377,0.0045684,0.56211
-0.03968,0.21069,0.11252,-0.00017281,-0.045155,-0.085029,-0.22215,-0.54079
0.047543,-0.11918,0.0043575,0.034011,0.067047,0.079943,0.08379,0.64681
-0.16575,0.28125,-0.046439,-0.017276,0.02272,-0.021958,-0.075778,-0.66637
0.11785,0.060313,0.029065,0.0097171,-0.0065825,0.01558,0.020499,-0.26118
0.047731,-0.31415,-0.1222,-0.025967,-0.03675,0.0052842,0.1802,1.0374
-0.046804,-0.14838,-0.0016004,-0.015254,-0.013238,-0.021236,0.015312,-0.10137
0.022964,-0.006714,0.085146,0.026014,-0.0063327,0.0067686,-0.034747,-0.49864
0.1097,0.31997,0.075009,0.043061,0.031053,-0.019622,-0.062829,-0.10025
-0.051301,0.15049,-0.063251,-0.034374,-0.0022754,0.040637,0.040282,-0.20423
-0.12345,-0.53958,-0.16508,-0.057662,-0.027729,-0.0074396,-0.015548,0.045797
0.010862,0.11657,0.075078,0.028172,0.0098505,-0.023021,0.010184,0.82369
-0.023216,0.34573,0.16605,0.035957,0.017098,-0.0060449,-0.001635,-0.50472
0.063229,-0.14031,-0.12558,-0.026208,0.0098597,0.035593,-0.021561,0.44659
0.019706,-0.035577,0.036882,0.013724,0.011588,0.031371,-0.019743,0.21747
-0.029644,-0.24467,-0.072776,-0.031741,-0.040418,-0.081518,-0.051697,-0.65327
0.14837,0.45295,0.11571,0.055966,-0.0059077,-0.022194,-0.047352,-0.32938
-0.20543,-0.43321,-0.023059,0.0030713,0.044323,0.060504,0.2201,-0.089734
0.14977,0.19201,-0.0053651,-0.011159,0.016021,0.056799,-0.076898,0.75068
-0.013718,0.087279,0.019644,-0.018382,-0.05219,-0.088367,-0.015799,-0.27619
0.022194,-0.25498,-0.12051,-0.018896,-0.0278,0.0075049,0.036851,-0.18252
-0.16443,0.43039,0.058161,0.018444,0.057815,0.062937,-0.027829,0.22443
-0.088687,-0.27175,-0.077227,-0.054693,-0.053103,-0.086249,-0.029851,-0.21367
0.08631,0.14496,0.11412,0.058873,0.030274,0.036522,-0.078491,-0.015225
-0.02115,-0.21166,-0.039323,-0.023243,0.0035581,-0.0061036,0.037104,0.15113
0.22268,0.00070649,0.05661,0.043178,0.038964,0.043955,0.05108,0.22379
0.029262,-0.031475,0.011694,0.0007428,-0.011608,-0.016051,0.15845,0.24815
0.0080292,0.12088,-0.040913,-0.017425,-0.015038,-0.013788,-0.070773,-0.068176
-0.18509,-0.011117,-0.0071678,-0.026779,-0.041369,-0.019065,-0.066402,-0.55749
0.051014,0.20557,0.019459,0.01959,-0.020069,-0.062632,-0.13303,-0.090978
-0.041783,-0.0097776,-0.031062,0.020036,0.080276,0.11376,0.042233,-0.0074502
-0.02598,-0.37518,-0.080328,-0.017799,0.009747,0.041683,0.10062,0.16055
-0.21373,-0.20229,0.012503,-0.055087,-0.067615,-0.10685,-0.12126,0.19457
0.23929,0.40814,0.08343,0.032895,-0.011327,-0.042855,0.080242,-0.11476
0.036732,0.324,0.030724,0.01147,0.0221,0.053721,0.025623,-0.24951
0.092965,-0.34488,0.025828,0.067831,0.086993,0.11211,0.089614,0.87106
0.087625,0.12828,-0.010027,-0.032677,-0.043616,-0.07136,-0.040975,-0.46134
-0.12807,-0.33458,-0.061931,-0.032439,-0.026359,-0.012901,-0.023341,-0.13465
-0.14828,0.16495,-0.0133,-0.025273,-0.025573,-0.048943,-0.03811,0.057087
0.026778,0.017512,0.018379,0.020174,0.013329,0.015502,-0.023428,-0.070522
0.13951,0.082544,0.033229,0.026058,0.020147,0.031892,0.0049404,0.095169
-0.16091,0.071093,-0.022864,-0.015003,-0.0048005,-0.015273,-0.077547,-0.59902
-0.029522,-0.2277,-0.094294,-0.024382,-0.006363,0.022754,0.11291,0.34128
0.027189,0.029901,0.015314,-0.0016013,-0.0074571,-0.0098532,-0.023932,-0.12247
0.065046,-0.031336,0.056881,0.030245,-0.0076165,-0.018895,-0.017991,0.60949
0.037707,0.12719,-0.015965,-0.030285,-0.01435,-0.019612,0.045854,0.13431
0.030768,0.090681,0.070089,0.043216,0.050527,0.050748,-0.035007,-0.10152
0.0038719,-0.071448,0.0017322,-0.0074897,0.007108,-0.010873,0.0048753,-0.37933
0.056483,0.053922,0.1057,0.051352,0.026802,0.021969,0.0083846,0.051006
-0.063948,-0.1121,-0.088448,-0.030956,-0.023832,-0.0072574,0.23973,0.41779
-0.055259,-0.030886,-0.09794,-0.044094,-0.036081,-0.028617,-0.31843,-0.66507
-0.20074,-0.17115,-0.056745,-0.05097,-0.041753,-0.026887,0.011918,-0.65847
0.25624,0.3269,0.089399,0.049866,0.036926,0.036645,0.041928,0.61249
-0.067285,-0.28609,-0.049734,-0.0070162,-0.0032594,-0.010145,0.020821,0.41082
0.032666,0.28744,0.058241,0.028823,0.033168,0.020126,0.042242,0.18789
0.0187,-0.11616,-0.014749,0.0017063,-0.0096776,-0.013146,-0.057328,0.32444
-0.12265,0.14383,-0.0091344,-0.0018469,-0.0063156,0.0073708,0.020051,-0.5968
0.048403,-0.22977,0.045372,-0.012612,-0.010919,-0.019638,-0.07581,-0.3149
0.033863,0.035953,-0.053328,-0.0068588,0.0082318,0.015519,0.086213,0.28899
0.053938,0.24511,0.085734,0.046744,0.051513,0.035071,-0.039484,-0.49559
0.023397,-0.23549,-0.014371,-0.023794,-0.068329,-0.070006,0.12615,0.72939
-0.065651,-0.015181,-0.049916,-0.039043,-0.0074322,0.0052862,-0.072654,0.056579
-0.065519,-0.038715,0.055906,0.039733,0.01544,0.018991,0.012602,-0.19525
0.061663,0.11686,-0.08891,-0.029967,0.023604,0.041549,-0.040249,-0.23116
0.080176,0.085824,0.037925,0.025058,0.0090551,-0.012967,-0.012969,-0.23304
-0.089301,-0.23958,0.029477,0.0093913,-0.028435,-0.043095,-0.093668,0.077877
-0.010059,0.11089,-0.059656,-0.022235,0.020291,0.036925,0.11547,0.44104
0.044234,0.0055368,0.052292,0.016301,0.006629,0.0081222,0.051347,0.18166
-0.090119,0.10111,-0.086805,-0.038777,-0.038258,-0.043784,-0.091262,-0.4453
-0.0060112,-0.0088507,0.008707,0.00035476,-0.012813,-0.0096082,0.062148,0.62819
0.055498,-0.22367,0.066676,0.01679,0.012707,0.032377,0.026787,-0.24754
-0.0060424,0.36144,0.095949,0.049756,0.030555,0.011751,-0.05702,-0.72056
0.021111,-0.32561,-0.12165,-0.041383,-0.013933,-0.016887,-0.056601,-0.14034
0.082553,0.064874,-0.00018413,0.0087964,0.019808,0.016702,0.082788,0.29357
-0.056435,0.054648,0.0066762,-0.003199,-0.024641,-0.012553,-0.021402,0.46058
-0.060829,-0.03727,-0.0083211,-0.015339,0.00090673,-0.010965,-0.0093522,0.27909
0.021176,0.13211,0.078575,0.026584,0.033664,0.02143,-0.013305,-0.48964
0.086559,-0.13265,0.0083,0.004986,-0.012555,-0.001302,0.022038,0.14864
-0.014441,0.020487,-0.0014082,-0.0022304,0.010558,0.0068323,0.019119,-0.078997
-0.13432,0.00664,-0.13081,-0.04194,-0.061019,-0.055616,-0.052875,-0.087378
0.007764,0.038207,0.0028838,0.011089,0.022951,0.03807,0.048486,-0.11251
0.076061,-0.015962,0.017321,0.016646,0.0050506,0.022435,0.088844,0.26552
-0.10065,-0.17772,-0.078884,-0.063825,-0.036123,-0.039883,-0.1664,-0.1348
0.056735,0.015126,0.11358,0.035773,0.0092385,-0.0081919,-0.045819,0.20083
0.096128,0.17259,0.095409,0.05795,0.063291,0.031533,0.12965,-0.048526
0.049726,0.17744,0.0075294,0.018422,0.03233,0.040075,0.023299,-0.20315
-0.066137,-0.057005,-0.040787,-0.043904,-0.068226,-0.068755,-0.08443,-0.13754
-0.094766,-0.21162,-0.042149,0.0034313,0.019022,0.032871,0.11821,0.10975
0.003102,-0.022102,-0.012708,-0.0040702,-0.011118,0.016559,-0.017786,0.29655
-0.030331,0.31512,0.023717,0.0035126,0.012759,-0.00066532,-0.094178,-0.7266
0.15637,-0.22405,-0.057923,-0.013111,-0.0033977,-0.034415,0.0064604,0.70982
-0.12451,-0.37407,-0.054141,-0.046127,-0.044017,-0.029789,0.0036117,0.063116
0.056378,0.22473,0.035772,0.021889,0.00049352,0.013605,0.015623,0.13357
0.073667,0.18211,0.072073,0.035097,0.029007,0.025958,-0.018588,0.24509
-0.15119,-0.064314,-0.014743,-0.01384,-0.01261,-0.0078468,0.027416,-0.80834
0.061091,0.11786,0.018017,0.0083123,0.016801,0.0063395,-0.071745,-0.019415
-0.03986,0.17296,0.0063425,0.008072,0.0082589,0.0062161,0.020561,-0.38565
0.061311,-0.10347,0.051361,0.024558,0.016611,0.02299,0.077827,0.46549
-0.049604,-0.28297,-0.074324,-0.036136,-0.0051162,0.0095191,0.16977,0.049256
0.15867,0.11047,0.0032404,0.005353,-0.010375,-0.026811,-0.13441,0.47547
-0.13395,-0.055495,-0.052927,-0.015448,-0.015259,-0.023983,-0.14077,-0.31851
0.0026946,-0.013544,0.037588,0.002616,0.0031597,-0.0058692,0.079029,0.079457
-0.024447,0.059385,-0.0069501,0.012342,-0.0024315,-0.004031,-0.077602,-0.014841
-0.042632,-0.13026,0.00088069,-0.0099006,-0.024512,-0.0029947,0.060655,-0.44482
0.05843,0.07704,0.02232,0.0061642,0.030562,0.028491,-0.037511,0.27917
-0.0017205,-0.058422,-0.020161,-0.0096671,0.0066225,0.020229,0.096988,0.073975
0.11334,0.3708,0.085139,0.036575,0.021088,0.019278,-0.082166,0.018711
-0.11978,-0.0028148,-0.11411,-0.050146,-0.050719,-0.052281,0.058422,0.082116
0.001534,-0.0013783,0.031225,0.011692,0.0103,0.001063,-0.012062,-0.1499
-0.031551,-0.35427,-0.025238,0.0035482,0.0013166,-0.00020757,0.034711,-0.035808
0.05294,-0.072593,0.037022,0.011459,0.0084604,-0.0012843,-0.0513,0.23965
0.02673,-0.011092,0.014777,0.0041423,0.00052272,-0.0021107,0.050001,-0.16986
0.14589,0.31974,0.05607,0.020506,0.0086367,0.012917,0.025832,-0.33445
-0.2551,-0.0977,-0.089709,-0.025628,0.02474,0.028071,-0.20998,0.21752
0.064961,-0.092764,-0.024828,-0.0095237,-0.021802,-0.019312,0.12373,0.36616
0.027706,0.17771,0.10942,0.029536,-0.0063054,-0.0044272,0.019219,-0.34296
-0.092911,-0.2863,-0.11715,-0.057009,-0.030555,-0.021193,0.039199,0.011092
0.063709,0.26562,0.029612,0.012097,0.014755,0.024045,-0.034773,0.036098
0.014922,0.20152,0.073205,0.041672,0.028174,0.014126,-0.05394,-0.38052
-0.034188,-0.38352,-0.11099,-0.038373,-0.036892,-0.042976,0.10698,0.61513
0.074502,0.17634,0.063556,0.022227,0.0074552,0.0014688,-0.075244,-0.01623
0.076886,-0.2261,0.050726,0.036228,0.052275,0.069716,0.087019,0.26184
-0.22138,0.036633,-0.078412,-0.058675,-0.081729,-0.10346,-0.14837,-0.69563
0.086301,0.037254,-0.026337,0.00325,0.035397,0.044801,0.070149,0.19212
0.015271,0.027751,0.027685,0.018882,0.028744,0.014696,-0.0074934,0.19359
0.12725,0.032749,0.044699,0.0037507,-0.0080469,-0.0062575,0.024845,-0.15593
-0.13354,0.20082,0.0010237,0.0045501,0.0028595,0.028607,-0.012677,-0.29599
-0.018313,-0.13303,-0.025784,-0.025828,-0.032707,-0.037374,0.10632,0.12484
0.026528,0.068433,0.025974,0.021741,0.025401,0.045249,-0.14958,0.2332
-0.0076283,-0.056437,-0.00084445,-0.0092142,-0.018583,-0.028806,-0.030549,0.30538
0.035052,-0.24427,-0.013305,0.0061489,-0.0009579,-0.025687,0.096163,-0.32699
-0.064197,0.18285,-0.0041748,0.013083,0.023372,0.022994,-0.019436,-0.32446
-0.039448,-0.17455,-0.067442,-0.043044,-0.023767,-0.031335,0.044639,0.24566
0.11761,0.12869,0.031406,0.033245,0.0218,0.037991,0.0073473,0.15892
0.0090479,0.0072023,0.035025,-0.0077984,-0.019365,-0.018721,-0.068523,-0.028997
-0.0444,0.24337,0.014418,-0.0018106,0.0015145,-0.0057224,-0.02639,-0.060398
-0.034734,-0.044162,-0.021845,-0.011,-0.0011305,-0.00066266,0.0012442,0.047997
0.053612,-0.2679,-0.01839,0.0039249,0.004293,0.020318,-0.016673,0.036603
-0.014021,0.14397,0.017462,0.004019,0.010238,0.01846,0.10734,-0.167
-0.034945,-0.18233,0.015638,0.012701,0.0012375,-0.0060892,-0.033269,-0.10401
0.02162,-0.097595,-0.016069,0.0063836,0.0007675,-0.0064566,-0.017239,-0.14357
0.10841,0.37482,0.08619,0.016071,0.00095322,-0.021816,0.053011,0.45482
-0.10288,-0.18774,-0.084146,-0.021013,-0.013963,0.010165,-0.0031731,0.35382
-0.026221,0.15836,0.027316,-0.0035419,-0.0050806,-0.020066,0.03987,-0.7133
-0.036243,-0.12838,-0.079608,-0.017586,0.01963,0.012347,-0.24821,0.21358
0.016084,0.17583,-0.037772,-0.031898,-0.025899,-0.0098938,0.061981,-0.0066838
0.068923,-0.017544,0.090394,0.031758,0.014487,0.053765,0.23616,-0.11646
-0.033416,-0.014999,0.023733,0.0016769,-0.023347,-0.046734,-0.20176,0.06396
-0.0093924,-0.27802,-0.011184,0.01864,0.032414,0.0010584,-0.0011078,0.042586
-0.0075365,0.0068146,-0.014514,0.0045954,0.0098305,0.0095867,0.081147,-0.078769
0.13574,-0.017577,0.05245,0.02199,-0.0052266,0.01005,0.077092,0.22368
-0.04128,-0.035554,-0.060799,-0.030914,-0.0050048,0.018042,-0.051525,0.044311
-0.078506,0.25305,0.051431,-0.0059301,-0.0051569,-0.036746,-0.014873,-0.045378
0.0077092,0.038416,-0.017593,0.0029242,-0.013468,-0.0058166,-0.04658,-0.11355
-0.025184,-0.099798,-0.096272,-0.012371,-0.0064033,0.0015712,-0.013098,0.32754
0.0026295,0.45572,0.08884,0.018402,0.031822,0.024639,-0.015307,-0.47527
-0.0019663,-0.33521,-0.040072,-0.029719,-0.031404,-0.030191,-0.029237,-0.4696
0.040182,-0.20106,0.048797,0.03093,0.015051,0.0090972,0.12503,0.36576
-0.057217,-0.097119,-0.065731,-0.018152,0.0072731,0.025389,-0.091771,0.16809
0.042902,-0.056504,0.038908,-0.0048121,-0.015612,-0.012589,0.077416,0.20517
0.005388,0.16166,-0.01173,0.016515,0.016666,-0.0034011,-0.0093037,0.09308
-0.067939,0.080156,-0.014201,-0.00086091,0.0023977,-0.001939,0.029225,0.0067843
0.14288,0.33952,0.10186,0.036911,0.0038695,-0.00063363,-0.058791,-0.29605
0.082251,-0.28643,0.0081389,-0.010761,-0.0025915,0.031541,0.2016,0.33854
-0.14176,0.062364,-0.045668,-0.018883,0.0062561,0.0085006,-0.21415,-0.19387
-0.10871,-0.41,-0.10675,-0.034332,-0.032194,-0.069785,-0.16583,-0.27782
0.015991,0.35231,0.05126,-0.0023962,-0.0085576,-0.015715,0.073476,0.017304
0.051668,-0.087075,-0.024794,0.0066544,0.0069733,0.022481,0.082874,0.31336
0.021184,-0.07875,0.032385,0.016282,0.014589,0.029432,-0.019113,-0.25586
0.049435,0.10435,0.0042007,0.018629,0.0223,0.04443,0.12825,0.23641
-0.05858,0.0011291,0.0079004,-0.0099043,-0.024437,-0.04958,0.088541,-0.27224
0.049349,0.13418,-0.0035378,0.008508,0.0072229,-0.010414,-0.16103,-0.10808
-0.06339,-0.091716,0.0085316,0.0031435,-3.0283e-06,0.0055325,-0.042141,0.22316
0.072986,0.08728,0.090319,0.02823,0.0083547,0.013629,-0.00028268,0.1833
-0.056082,-0.08054,-0.087106,-0.065089,-0.0070648,0.0057544,0.026685,-0.041721
-0.10584,0.028608,-0.032328,0.0041488,0.00029764,0.0050581,0.022733,-0.089358
0.13545,-0.3357,0.027536,0.0093005,-0.016695,-0.035533,-0.074964,0.1497
-0.042614,0.061357,-0.032681,-0.010416,0.012131,0.0011156,0.053711,-0.014914
0.06329,0.14289,0.045142,0.039133,0.024307,0.029191,-0.013173,-0.213
-0.00011522,0.14495,-0.050704,-0.028995,-0.026813,-0.021328,0.07601,0.17473
0.0089426,0.092773,0.040333,0.020233,0.0076193,0.0062262,-0.045773,-0.15422
-0.058531,0.027032,0.0071534,-0.0078311,-0.035913,-0.0048599,-0.018919,-0.32957
0.015667,-0.31664,-0.02384,-0.0032294,0.022877,0.00054651,0.0084298,0.3484
-0.018885,0.086054,-0.0045961,-0.0046037,0.0048545,0.0071504,-0.0024291,0.18236
-0.06867,-0.037852,0.010938,-0.0039477,0.0041634,-0.0083412,0.08173,-0.094077
0.038113,0.069545,-0.016151,-0.0091477,-0.0024841,-0.0069464,-0.15273,-0.28547
-0.011048,-0.24834,0.0073808,0.0028831,0.00039337,0.026656,-0.025738,0.28858
0.10409,0.30454,0.049158,0.039359,0.020178,0.021676,0.087921,0.16817
0.0083038,0.070593,0.02165,-0.0020566,0.0015292,-0.0068253,0.094478,-0.21574
-0.017574,-0.11607,-0.045704,-0.0050114,-0.0094367,-0.028131,-0.07672,0.028987
-0.044402,0.039323,0.017255,-0.0015149,0.0021805,-0.011381,-0.020091,-0.11931
0.044458,-0.027803,-0.0017193,-0.0077351,-0.0032311,-0.0036106,0.013428,-0.017896
-0.07171,0.0090045,-0.048586,-0.023889,-0.018127,0.0030976,-0.024107,0.25748
0.013218,0.00038441,-0.029452,-0.018569,-0.034633,-0.014354,0.1319,-0.26734
-0.028679,-0.13956,-0.013719,0.01655,0.02574,0.038282,-0.11309,-0.0746
-0.02502,-0.073845,0.046982,0.0041086,-0.00049666,-0.018144,-0.040728,-0.01444
0.13426,0.2228,0.037246,0.023106,0.02012,0.0043314,0.013118,0.2104
-0.08136,-0.028574,-0.017775,-0.0037731,0.01786,0.020064,0.064636,0.26311
0.016199,-0.13037,-0.015197,-0.013431,-0.014694,-0.017754,-0.07274,-0.022404
0.013212,0.15364,0.030042,0.02566,0.024168,0.031347,0.039606,-0.18027
0.011267,0.16051,0.016327,-0.019392,-0.029718,-0.036093,-0.097265,-0.33864
-0.0055184,-0.19548,-0.010216,0.015066,0.010851,0.0060522,0.11898,0.22627
-0.037596,-0.10245,-0.011796,0.0033859,-0.018587,-0.006721,-0.0066524,0.0047189
0.047332,-0.01481,0.03351,-0.0083142,0.014375,0.0033458,0.025616,0.058486
-0.048043,0.27677,-0.063248,-0.012946,-0.03121,-0.026479,0.0041827,-0.12756
-0.011441,-0.088751,-0.014101,-0.011069,0.024157,0.059985,0.12343,0.15122
0.055643,-0.15962,0.008556,0.0048208,0.0085642,-0.034056,-0.24255,0.0689
0.028597,-0.069509,0.07518,-0.0043544,-0.038834,-0.034963,0.014982,-0.20028
-0.099728,0.10323,-0.079072,0.01635,0.030583,0.057534,0.036466,-0.013601
0.0465,0.21844,0.031435,0.020526,0.021718,-0.014099,-0.084004,-0.018186
-0.0084382,-0.097764,-0.021496,-0.014683,0.0050883,0.0081928,0.12306,0.24715
-0.037322,-0.015681,-0.041136,-0.034001,-0.026958,-0.016055,0.017966,-0.17174
0.022627,-0.12719,0.043862,0.0099369,-0.019632,-0.00084135,-0.031255,0.051077
-0.00072421,-0.15696,-0.0082854,0.0080683,0.0036677,-0.02433,-0.07876,0.053145
-0.037915,0.07626,-0.010436,-0.00046339,0.011677,0.030538,0.1177,-0.16894
0.13624,0.28437,0.10664,0.023254,0.019965,0.0073209,0.026471,0.3974
0.16847,0.194,0.12259,0.063266,0.020637,0.02299,0.03737,-0.29667
-0.27101,-0.6098,-0.16747,-0.068341,-0.048896,-0.047644,-0.092743,0.0063399
0.050918,0.33998,0.047517,0.010871,0.014418,0.037494,-0.044427,0.10502
-0.084994,0.056681,-0.17857,-0.0587,-0.023848,-0.034092,-0.099493,-0.45012
-0.014228,-0.024635,0.0059252,-0.0036315,0.01597,-0.012265,0.077873,0.033531
0.030216,0.007966,-0.038628,0.0043893,0.0010494,0.017289,0.15987,0.3429
-0.098069,-0.30011,0.04093,0.01255,0.0016805,-0.0076183,-0.14187,-0.040204
0.16568,-0.02759,0.1292,0.044604,0.017816,-0.00074375,0.071937,0.16141
0.034417,0.18514,0.040172,0.0070033,-0.0053146,0.022508,-0.08064,-0.042889
-0.021768,0.15148,0.001259,-0.0065009,0.0025012,0.015341,0.0026538,-0.083708
