0.01341,-0.021385,0.01116,0.013313,0.011544,0.019363,-0.0040111,0.0047301
0.013441,0.016706,-0.019857,0.013547,0.01227,-0.0051642,0.0030136,0.004568
-0.025954,-0.031841,-0.034683,-0.0098099,-0.0029819,-0.014183,-0.0062758,-0.011017
-0.0029406,0.012896,-0.0099675,0.0056898,-0.010761,0.0080678,-0.0082361,-0.010873
0.012427,0.065327,0.10878,-0.0025039,-0.01101,0.0069951,-0.010378,0.012723
0.004675,0.032144,0.079066,0.0046388,0.0041772,0.0060822,0.011079,0.0050199
-0.010602,-0.062709,-0.13848,-0.011942,0.0036566,-0.0024824,0.0095789,0.005058
0.0054063,0.0078854,-0.036311,-0.0053196,0.0031526,-0.0031012,0.0087884,-0.0027685
0.013172,-0.036774,-0.028629,0.016794,0.018359,-0.011435,0.00099117,-0.010596
-0.0035348,-0.063415,0.048666,-0.031404,-0.0132,-0.0040685,0.0017602,-0.01055
0.017164,0.045381,0.047337,0.014298,-0.0056045,0.0033731,-0.0047116,0.0052249
0.0044825,-0.01523,0.022384,0.021213,0.0020327,0.010918,-0.018692,-0.010157
0.0051399,0.066568,-0.057099,-0.0027672,0.0096516,0.0029875,0.0063998,0.021339
-0.019625,-0.015181,-0.011118,-0.0029345,-0.014047,0.0030767,-1.2056e-05,0.0057821
-0.053365,0.058062,0.035531,0.0050471,0.0012294,-0.0043868,0.0087636,0.0054261
0.030221,0.065508,-0.042087,-0.017965,-0.007007,-0.011553,0.017025,0.012203
-0.048499,-0.026021,0.044999,-0.001754,0.00035069,-0.010598,-0.045501,-0.020946
-0.045664,-0.15542,-0.015946,0.0067162,0.015553,0.014078,0.024449,0.015336
0.16514,0.083097,0.024733,-0.00043086,0.0074149,0.0077163,0.00051741,-0.0037353
-0.0011658,-0.1301,-0.052109,0.00020886,-0.0083804,0.0014483,-0.0076929,-0.04644
-0.060125,0.0036806,0.0031513,0.00081743,-0.00054249,-0.0048833,0.015638,0.012903
0.034369,0.080907,0.11211,0.0014089,-0.0081107,0.011983,-0.023122,-0.035871
-0.031735,0.026586,-0.17067,0.0098188,0.00017003,-0.018426,0.0088487,0.0032419
0.0050575,0.0077778,0.1002,-0.0051799,0.00084661,0.013149,0.0098773,0.044727
-0.01392,-0.035695,0.010958,-0.012323,-0.013936,-0.026143,0.02663,0.088588
0.018335,0.045847,-0.016048,0.011827,0.018246,0.051251,-0.027093,-0.053163
0.0060668,0.017999,-0.0271,-0.010881,0.011339,-0.0436,0.012511,0.0013516
-0.083351,-0.050177,-0.045033,-0.01019,-0.01137,-0.0058227,-0.018806,-0.053793
-0.00047969,0.057882,0.016571,0.0059954,-0.0031739,-0.014923,-0.035176,-0.0246
0.13783,0.050449,0.017324,0.021919,0.012339,0.030783,0.025969,0.079975
0.11407,0.042109,0.097746,0.0061786,0.0038172,0.029731,0.016384,0.0013735
-0.30412,-0.30512,-0.070753,-0.0023076,-0.013126,-0.088536,-0.0089689,-0.018404
-0.012567,0.038902,0.026698,-0.011447,-0.014957,0.050697,0.012706,-0.080475
0.18695,0.16003,0.092331,0.002197,-0.001469,0.11114,0.034797,0.10526
0.031654,-0.058047,-0.18717,-0.023751,0.012002,0.014365,-0.044074,-0.053455
-0.069822,-0.05139,0.039194,0.0047157,-0.0054695,-0.17728,-0.067577,-0.031508
-0.13941,-0.037144,-0.017763,0.017642,0.024536,-0.026133,0.097058,-0.10075
-0.004919,0.15006,-0.021794,-0.031447,-0.030584,0.022959,-0.011265,0.24
0.051289,0.018724,0.11374,0.021876,0.024562,0.056711,-0.064681,-0.12592
0.0032783,0.11568,0.0069667,0.021612,0.0024086,0.060445,0.038046,0.098159
0.36305,0.088676,-0.075522,-0.0087267,-0.0034959,-0.050823,0.11689,0.012864
0.0092185,-0.33674,-0.070411,0.016675,-0.0090731,0.012756,-0.094045,-0.016043
-0.24967,-0.16161,0.12435,-0.050928,-0.022474,0.056346,-0.055847,-0.044854
-0.088354,0.074252,-0.014587,0.022404,0.026292,-0.12311,0.012768,-0.10626
-0.0078702,0.12829,0.012413,0.033056,0.027603,-0.018185,0.026087,0.064352
-0.077386,0.14115,0.017144,-0.019425,-0.026491,0.042156,-0.015521,-0.049033
-0.12966,-0.10564,-0.040382,-0.018186,-0.018814,0.025415,-0.033493,0.053774
0.18363,0.11486,-0.036112,-0.010258,-0.027379,-0.0074507,0.097582,0.021856
-0.046649,-0.10315,0.0057222,0.027844,0.049573,0.16847,-0.036059,0.027977
0.097742,0.037681,0.02994,-0.020826,-0.0064715,-0.21398,0.042293,-0.044157
-0.029185,-0.05586,-0.041709,0.00035971,0.0078277,0.10972,0.027946,0.071789
0.46338,-0.0081264,0.04883,0.021531,0.030124,0.22505,-0.12609,-0.045645
-0.020379,-0.12311,-0.041648,-0.035019,-0.080144,-0.49262,-0.037171,-0.0057539
-0.55454,-0.087694,0.031346,0.018522,0.020754,-0.1828,0.052293,-0.082186
0.051639,0.36413,0.042058,0.033874,0.043666,0.414,0.032679,0.084009
0.067282,-0.056745,-0.032182,0.0032049,0.004106,0.065263,0.013052,0.00010422
-0.049919,-0.053927,-0.026691,-0.026779,0.0035404,0.061667,0.0008365,0.024933
-0.028154,0.10607,-0.0035604,-0.017285,-0.051816,-0.095727,-0.004414,-0.045081
0.1483,-0.093415,-0.064211,0.015761,-0.021291,-0.086255,0.11404,0.039789
-0.050189,-0.098636,0.1584,-0.01385,0.040549,0.1054,-0.17539,-0.048628
-0.0038079,-0.019509,-0.078353,-0.0047559,-0.030196,-0.099642,-0.0056584,-0.013264
-0.014131,0.0033305,-0.0016917,0.011678,0.040055,0.1102,0.099916,0.029088
0.15626,0.032894,0.020368,0.011977,0.0091865,-0.19558,-0.10044,-0.030432
0.017736,0.046618,-0.0052276,0.0039689,0.017785,0.10754,-0.027985,-0.011601
-0.084129,0.037669,-0.024577,-0.020111,-0.043667,-0.058673,0.11489,0.14853
-0.1171,-0.11033,0.00079957,-0.0055176,0.0043022,0.10294,0.07108,-0.049752
-0.29978,0.056186,0.015917,0.032189,0.0052227,-0.039905,-0.10418,-0.10634
0.54693,0.20122,-0.041692,-0.01629,0.0058063,0.0056309,-0.019932,0.025556
-0.070399,-0.10541,0.086143,0.028839,0.013814,0.076089,0.027059,0.017598
-0.13001,-0.20831,-0.060885,-0.019773,-0.033172,-0.10932,-0.010204,0.0022934
0.038063,-0.022533,-0.0053973,-0.021301,-0.017767,0.012147,-0.030449,0.026181
-0.052405,0.13062,-0.012129,-0.038012,0.0056031,0.088959,0.10654,0.018633
0.12835,0.10972,0.029141,0.024072,-0.001884,-0.10564,-0.076272,-0.028407
-0.068983,0.00015385,0.033163,0.032294,0.03022,-0.040795,-0.032504,-0.021321
-0.08983,-0.15925,-0.007436,-0.013323,0.015949,0.040765,0.010818,-0.030417
-0.027293,0.022278,-0.037826,0.035504,0.041029,0.13836,0.053286,0.0069378
0.096447,0.068664,0.027755,0.0065758,-0.019884,-0.0065914,-0.030428,0.075346
-0.021725,-0.019279,-0.076786,-0.045868,-0.081243,-0.32453,0.071953,-0.0046121
-0.059972,-0.06864,-0.024038,0.010506,0.028501,0.4729,-0.069358,-0.045182
-0.0015542,0.046719,0.1695,0.0034232,-0.011128,-0.34138,-0.040253,-0.046176
0.25554,0.10133,-0.028347,-0.0048418,0.01866,0.099494,0.026648,0.078443
-0.062448,-0.11484,0.0065936,-0.0064639,0.0087365,0.021997,-0.001142,0.023982
-0.12059,-0.038671,-0.070003,-0.016807,-0.017068,-0.13626,0.025231,-0.061218
-0.092203,0.11133,-0.016135,0.019284,0.012015,0.085904,0.0046717,-0.013254
0.20083,-0.047802,-0.034656,-0.014792,-0.0051578,-0.045627,0.023585,0.042692
-0.12566,0.022485,0.039194,0.037802,0.025467,0.25064,-0.034779,-0.0029201
0.021164,0.032319,-0.012342,-0.025579,-0.028793,-0.13448,0.02528,-0.0017631
-0.10123,-0.089613,0.03837,0.014088,0.02731,0.12737,-0.069359,-0.016373
0.030741,-0.024075,-0.057757,0.00057067,-0.009583,-0.32285,0.0096493,-0.015458
0.073839,0.10289,0.090448,-0.011683,-0.030457,0.01542,0.028014,0.040147
-0.010365,-0.068993,-0.0091396,0.015934,0.034585,0.13515,0.032509,-0.029121
0.036514,0.061104,0.04149,0.004714,-0.010167,-0.017421,-0.063128,-0.043473
-0.019495,-0.069791,-0.055339,-0.014706,-0.00096834,0.043014,0.076482,0.083055
0.12655,0.0068779,-0.058414,-0.011609,-0.016136,0.0047133,-0.033796,0.022266
-0.017283,0.095918,0.062595,-0.0098046,0.0067888,-0.061561,-0.027653,-0.085389
-0.15366,-0.0053431,-0.044535,0.021803,0.0054087,0.10991,0.00029078,0.0020409
-0.039555,-0.1008,0.018366,-0.010466,0.011202,0.018875,0.072756,0.10463
0.013826,0.052831,-0.021992,0.010849,-0.0067663,-0.17889,0.033086,-0.027763
-0.11689,-0.06657,0.038014,0.015851,0.022171,0.16446,-0.1187,-0.074838
0.21843,0.0033285,-0.074361,-0.026225,-0.050076,-0.23296,0.016327,0.026106
-0.033543,0.084111,0.10252,0.0022833,0.026788,0.065752,-0.037445,-0.052684
0.11225,-0.12797,-0.11051,-0.015424,-0.012667,0.099054,0.010289,0.025207
-0.047659,0.18781,0.075819,0.006831,-0.004319,0.053807,0.0045936,0.033666
-0.061573,-0.093777,0.052002,0.022226,0.012676,-0.031625,0.048149,0.0042254
-0.21324,-0.0048445,0.051998,0.015,0.014634,-0.025149,0.016629,-0.00062483
0.14245,0.046947,-0.0028583,0.0083036,0.01682,0.064785,0.0038558,0.0031361
0.064259,-0.033889,-0.18333,-0.029486,-0.020237,-0.11378,0.0092724,0.014841
0.11879,0.016475,0.01819,-0.012799,0.012471,0.017257,-0.0072526,0.010192
0.20146,-0.10822,-0.1325,0.019026,0.0053305,0.067747,-0.0080118,0.019572
-0.23641,0.21593,0.27131,-0.043517,-0.072958,-0.086379,-0.033422,-0.067064
-0.25735,-0.19907,-0.050944,0.018358,0.019953,-0.037583,0.0013813,-0.023445
-0.023453,-0.017087,-0.020493,0.0017063,-0.028116,-0.034451,0.0020606,0.025611
0.16443,0.051751,0.019383,0.047417,0.0723,0.22116,-0.031389,-0.028624
0.0067857,0.063368,0.0063445,-0.00047993,0.02469,-0.035549,-0.0203,0.010164
-0.0063844,0.01142,-0.01292,-0.048004,-0.037898,-0.14028,0.044086,0.0025012
-0.088785,-0.094822,-0.085782,-0.016901,-0.0060477,0.054893,0.037902,0.082278
-0.026012,0.08184,0.052669,0.014706,0.0029017,0.0097834,0.055987,-0.03096
0.02686,0.011093,-0.020261,0.038878,0.02771,0.074349,-0.12737,-0.063403
0.45909,-0.0096324,0.15557,0.0085059,-0.033559,-0.065681,0.058624,0.0708
-0.04545,-0.081713,-0.16266,-0.014197,-0.0015642,0.025582,0.0046755,-0.0038489
-0.085518,0.0056613,0.0012062,-0.013877,-0.0015493,0.057959,-0.023895,0.024378
-0.056986,-0.0056808,0.076823,0.0014706,0.021094,-0.15644,0.034822,-0.064142
-0.44844,0.17282,-0.021429,-0.015065,-0.019472,-0.023411,-0.030869,-0.035833
0.089457,-0.076575,-0.035069,-0.016473,-0.037059,-0.057373,0.0048026,0.038406
0.088171,-0.082523,0.0055745,0.020973,0.046807,0.24341,-0.03074,-0.013604
-0.035812,0.013906,-0.01566,0.011717,0.005931,-0.11917,0.026044,0.026861
0.18232,-0.0063934,0.0037366,0.010838,0.012498,0.083162,0.0029921,0.0037396
-0.073524,-0.0030959,-0.037122,-0.012601,-0.00361,-0.070299,0.025072,-0.0045352
0.020406,0.015653,0.12764,-0.019381,-0.034528,-0.024409,0.022176,-0.0054519
0.083062,0.018138,-0.056918,0.013896,-0.0022248,0.033027,-0.067794,0.0012485
0.08284,-0.027559,0.056918,0.016669,0.022778,0.04636,-0.017749,0.015713
-0.045136,0.04956,-0.047538,-0.0036695,0.016756,0.084524,-0.0068054,-0.040154
0.062516,-0.024938,-0.035526,-0.0085818,-0.020599,-0.13523,0.059299,0.099212
-0.12975,0.13083,0.0216,0.017022,-0.0036292,-0.090759,-0.014377,-0.081905
0.12431,0.024045,-0.025278,-0.0054244,0.012778,0.09209,0.045781,-0.0054338
-0.32603,-0.2516,0.042425,-0.013678,-0.01053,-0.024435,0.0053755,-0.0072814
-0.082664,-0.054842,-0.056154,-0.03119,-0.018834,0.0053125,-0.042011,0.006447
-0.011134,0.014173,0.023608,0.028218,0.019258,0.057115,-0.026295,0.0047467
0.298,0.23088,-0.0061715,-0.0068755,-0.013231,-0.14145,-0.017986,0.026982
0.075204,-0.0039728,-0.058307,0.004742,0.016752,0.16841,0.029686,-0.0046734
-0.027328,-0.11001,0.11826,0.0089913,0.015669,-0.01254,0.0073599,-0.035302
-0.014613,-0.015087,-0.030498,-0.0014168,-0.016327,-0.051151,0.0088886,0.0524
-0.088409,0.024079,0.018967,0.01293,-0.0088555,-0.0022102,-0.01247,-0.030657
0.032331,0.023304,0.016215,-0.0025304,0.014634,0.063454,-0.017562,-0.0033934
0.010102,-0.0025705,-0.06309,-0.0088415,0.0071906,-0.073718,-0.0064038,-0.022359
0.053355,-0.0083453,0.014262,-0.014123,-0.015675,-0.10998,0.06772,0.044866
0.065519,-0.035433,-0.026363,0.0046172,-0.030651,0.15688,-0.0064301,0.010342
-0.24503,0.077535,0.079664,0.015621,0.032459,0.08555,-0.033942,-0.024799
-0.020732,0.070117,-0.043263,0.0027741,0.001682,-0.15246,0.023828,-0.029681
0.13604,0.010479,-0.0046355,-0.010882,-0.0058671,0.12261,-0.036598,0.018867
-0.1182,-0.2355,-0.061887,-0.017784,0.017577,-0.17465,-0.020108,0.011338
0.17078,0.035062,0.043564,0.021064,0.0016827,0.027002,0.018594,0.01025
-0.065691,-0.02076,-0.093553,0.0042109,-0.022285,0.0021913,0.017177,-0.023299
0.072597,0.067494,0.13709,-0.013383,0.00041687,0.064662,-0.0084228,0.020349
-0.13156,0.0051712,0.01746,-0.0079055,-0.0082463,0.004543,0.028108,-0.022491
0.018199,0.05238,0.0088274,-0.0023793,-0.0012796,0.025655,-0.021302,0.028295
-0.071421,0.062641,-0.02171,0.011387,0.021445,0.04228,-0.02355,-0.029984
0.36508,-0.072086,-0.027714,0.025864,0.013169,-0.070837,0.021533,0.0061835
-0.040016,0.023793,-0.0019968,-0.013493,-0.010399,-0.017458,0.0046054,-0.019159
-0.2483,-0.024823,-0.031127,-0.0051328,-0.010154,-0.0015684,0.011522,0.050397
-0.10405,0.0080057,0.032857,0.0039256,-0.0017213,-0.024098,0.010875,-0.01952
0.072192,-0.058335,-0.029019,-0.0099964,-0.016395,2.4045e-05,-0.020939,0.013128
-0.016337,-0.03736,-0.0136,-0.0081228,0.0082438,0.0075758,-0.0059081,-0.0081846
-0.033429,-0.023771,-0.037844,0.0014514,0.017388,0.076132,-0.0065423,-0.029125
0.044536,0.12226,0.062627,0.018487,0.018701,-0.029058,-0.022736,0.020244
0.25647,0.087633,0.14748,-0.0040606,-0.019234,-0.003514,0.0082077,-0.024486
0.086109,-0.042128,-0.087766,-0.011593,-0.018458,-0.097282,-0.015047,0.039541
-0.31913,-0.13441,-0.057086,0.0036972,-0.010358,0.14288,0.10299,0.0012211
0.070802,-0.017312,-0.01827,0.0028145,0.044042,0.053198,-0.067279,-0.0066839
-0.042048,0.090631,-0.018196,0.0015121,-0.019336,-0.23309,0.0053094,-0.038795
0.021369,0.017945,0.052525,-3.9687e-05,0.002703,0.042361,0.0080512,0.022243
-0.004654,-0.00048873,-0.017011,0.0061657,0.00093464,0.10671,-0.0046769,0.02823
-0.2525,-0.034453,-0.0080369,-0.0031108,-0.00098291,-0.00042136,-0.017601,-0.036189
0.17698,-0.020986,0.016901,-0.0042484,-0.026225,-0.052055,0.015826,0.0089284
0.11259,-0.006662,0.018592,-0.012725,0.0035955,0.038,-0.021844,-0.00028409
0.078135,0.016407,-0.026665,-0.005012,0.010565,-0.0036388,-0.013585,0.014405
-0.020221,0.0011586,0.037044,0.01109,0.010424,-0.0052027,0.024912,-0.001688
-0.018831,0.040908,-0.009368,0.012071,0.018786,-0.0059473,0.0077357,-0.017409
0.074057,0.064744,0.02137,0.013397,-0.0035504,0.032998,0.020923,0.013953
-0.12439,-0.076389,-0.027011,0.0070437,-0.0099492,-0.052539,0.033399,0.029712
0.027265,0.031105,-0.029254,-0.022843,-0.0085036,0.026523,-0.071774,-0.032793
-0.15666,-0.0348,-0.031704,-0.013954,-0.007287,0.012509,-0.020819,-0.025209
0.0062651,-0.1176,0.021042,0.010164,0.0013293,-0.14908,0.053866,0.036854
-0.10578,0.033359,-0.089021,-0.028622,-0.0061667,0.096594,-0.034759,-0.041797
-0.16181,0.036153,0.20118,0.018214,0.0015133,0.022906,-0.012823,0.020281
0.57433,0.032348,-0.084701,0.010195,0.016685,0.027984,0.0028155,0.020183
-0.022446,0.11644,0.060923,0.017794,-0.0073479,0.056544,0.027913,-0.0028446
0.014457,-0.062794,-0.057944,-0.01355,0.015536,0.092184,0.023286,-0.0018262
0.016905,-0.083582,-0.012621,0.0021597,-0.016074,-0.24086,0.019801,-0.00021897
-0.29383,-0.032426,0.078585,0.0024118,0.0072977,0.072496,-0.030014,-0.021607
0.13925,0.13667,0.0037377,-0.005055,-0.00025,-0.038165,-0.017488,0.011875
-0.18068,0.016464,-0.1675,-0.012535,-0.0074865,0.0056737,0.0020032,0.0061444
0.016923,-0.1596,0.0021831,0.0032976,0.0011475,-0.052971,-0.0033349,0.015535
0.10648,0.076583,0.059987,0.0032955,-0.013509,0.044786,-0.041628,-0.014953
0.035123,-0.025243,0.0066304,0.0030383,0.010926,0.073421,0.027703,0.00040689
-0.013553,0.035113,0.077449,0.010342,0.011821,-0.067899,0.032986,0.0068696
-0.065475,-0.046449,0.015648,-0.0059925,0.0046742,0.17574,0.0058643,-0.026694
-0.11479,0.051247,0.0018336,-0.0068172,-0.0028161,-0.1335,0.0015312,0.0093837
0.10173,-0.014585,-0.088276,-0.0076495,-0.018545,-0.019903,-0.010731,0.01396
-0.05246,-0.086817,0.019217,-0.00056939,-0.0034855,0.054486,-0.069502,-0.051553
0.41696,0.1633,-0.097389,0.0066977,0.011133,-0.059918,0.044341,0.047652
-0.18548,-0.060863,-0.047613,0.0142,0.0097642,-0.035903,0.026327,0.0071973
-0.15112,-0.017282,0.20713,-0.0093123,-0.0074604,0.047923,-0.0063192,0.014698
0.00044117,-0.019012,0.041046,0.014245,0.0065007,0.043173,0.016584,-0.031506
0.022164,0.058111,0.023418,0.0066804,-0.018482,-0.057392,0.0088439,0.016734
0.034103,-0.036892,-0.15936,-0.032075,0.011516,0.028472,-0.029846,-0.0050517
-0.022655,-0.01591,-0.00045038,-0.0083207,-0.0049264,-0.018314,-0.037265,-0.0035494
0.083358,-0.012539,-0.0004644,-0.00020481,0.0025855,-0.032443,0.041096,0.02088
-0.22723,0.01179,0.0045394,0.015706,0.0028075,-0.051953,-0.036994,-0.041343
0.069504,0.041312,0.046236,0.00034189,-0.012151,0.15032,0.04887,0.020722
-0.016702,-0.0253,-0.015101,0.008363,0.020052,0.027583,-0.013618,-0.011466
0.071782,0.039091,0.0092241,0.01627,0.013272,-0.03783,-0.013285,-0.028166
0.23674,-0.0303,-0.05921,-0.015088,-0.01709,-0.031194,0.018828,0.049181
-0.28432,-0.10749,-0.047447,0.0079529,-0.0087284,-0.039579,-0.018719,-0.021221
-0.090513,0.050716,0.16238,-0.024033,-0.0086354,-0.017242,-0.024373,-0.0047482
0.19455,0.10921,-0.038968,-0.0094684,-0.0012019,0.0036505,0.06421,0.051762
0.0085719,-0.095508,0.027753,0.012681,0.02148,0.14755,-0.018883,-0.039381
0.030334,0.092981,0.033494,0.0035229,-0.0028991,-0.14034,0.0072249,0.033943
0.070571,-0.0521,-0.20265,0.0023298,0.004038,-0.015989,-0.0062867,-0.0099959
-0.23232,-0.0078627,0.099336,0.0014987,-0.019942,-0.01785,-0.028482,-0.023225
-0.021213,0.021818,0.055593,0.0090044,-0.0042977,0.081385,0.002969,-0.029527
0.022328,0.0048887,-0.029805,-0.02195,0.0042409,0.0011922,0.0021417,0.010014
0.076783,-0.043741,-0.024135,0.010173,0.013509,0.0077499,-0.0073217,0.0017189
0.16519,-0.046473,0.018369,0.0036848,0.023392,0.03103,0.029627,0.031788
-0.12609,-0.011427,-0.026382,0.013063,-0.013227,-0.07741,0.011882,-0.00095989
-0.092817,0.09254,-0.086887,-0.0088171,-0.010739,0.025929,-0.021022,-0.0023615
-0.069296,0.038891,0.14278,-0.015328,-0.016381,0.02814,-0.0061745,-0.011125
0.094744,0.023036,0.0074245,0.0089616,-0.0070415,-0.19624,-0.03705,-0.011401
-0.013022,-0.095533,-0.023571,0.0092616,0.040481,0.21957,0.019252,-0.010946
0.11656,-0.043253,-0.028214,-0.014422,0.0088988,0.079931,0.045413,0.029175
-0.023589,0.039383,-0.0069501,-0.0072924,-0.039239,-0.16996,-0.0057827,0.030556
0.05099,0.0040907,0.015861,-0.00041439,-0.0021782,-0.0066164,-0.0098345,-0.014989
-0.050826,0.022921,0.0077267,0.014239,-0.0046193,0.031155,0.024881,-0.014091
-0.033038,0.041396,0.084499,-0.0022022,0.00066021,-0.03282,0.0040997,0.0016999
-0.20134,-0.018353,-0.11439,-0.010549,0.013989,0.07534,-0.056903,-0.022439
0.1699,-0.038816,0.058678,0.036107,0.027799,-0.026793,-0.033238,-0.0083231
-0.021589,-0.027408,-0.12317,-0.010728,-0.02029,-0.065563,0.012742,-0.010397
0.067529,0.055402,0.027821,-0.01055,0.010337,0.084004,0.026702,0.0029501
0.06212,-0.063333,0.051498,-0.0025628,-0.0054366,-0.0080792,0.032541,0.063358
-0.0064244,0.038699,0.058369,0.0053091,0.010346,0.032662,-0.00054708,-0.016353
-0.051784,0.041463,-0.044027,-0.03386,-0.044039,-0.067861,0.021518,0.029629
-0.1437,-0.13314,-0.082576,0.012768,0.0031809,0.033474,-0.057364,-0.07211
-0.0002443,0.11616,0.18591,0.020282,0.019166,-0.015335,-0.010671,0.0064296
0.035435,0.030914,-0.10508,-0.0033896,0.0039607,0.012162,0.028585,0.03065
0.16683,0.01648,-0.0099949,0.0043575,0.004524,0.0068785,0.028867,-0.023149
-0.04362,-0.037559,-0.013347,-0.011108,-0.01813,-0.077368,0.021127,0.055727
-0.049612,-0.054097,0.001537,0.0048865,0.014154,0.010424,-0.10424,-0.06102
-0.016275,-0.041765,-0.020855,0.0053851,-0.00023451,0.083894,0.051111,-0.014089
0.039375,0.061436,0.012166,-0.0019293,0.008889,-0.043396,-0.0049559,0.016864
-0.032555,-0.0024262,0.029085,-0.0015717,-0.013355,-0.050372,-0.014426,0.047582
0.11049,-0.0065467,0.044306,0.021976,0.018758,0.11794,0.015179,-0.038949
-0.00086906,0.010543,0.095812,-0.032883,-0.012147,-0.038744,0.037296,0.015266
-0.16333,0.0026873,-0.20779,-0.0020273,-0.0046135,-0.021272,-0.041565,-0.024
-0.00087289,0.064447,0.016033,0.00532,0.0023027,0.0049942,-0.0025068,-0.00041148
0.0039008,0.0091366,0.064437,-0.018441,-0.014705,-0.0083661,0.029484,0.023529
-0.037474,-0.13905,-0.069525,0.012847,-0.016342,0.030851,0.015221,-0.0069602
-0.0057209,0.018943,0.060784,0.013415,0.013298,0.0041717,-0.03771,-0.0061149
0.014737,-0.0086107,-0.019625,0.022386,0.035424,-0.03452,-0.0045888,-0.0053996
0.3135,0.04411,0.0032939,-0.014996,-0.0044564,-0.046338,0.012737,0.10435
0.01498,0.044193,-0.080146,-0.0051721,-0.012513,0.039522,-0.025038,-0.12232
-0.28872,-0.00095255,0.15265,0.0047099,0.011214,0.028826,0.022535,0.0020541
0.087611,0.040832,-0.0091721,-0.016892,-0.019354,-0.06131,-0.0087032,-0.014647
-0.14753,-0.065607,0.0041054,0.01571,0.012782,0.0051345,0.029664,0.0074477
0.042885,-0.024132,-0.074253,-0.022639,-0.0097565,0.04218,-0.01075,0.045123
0.095119,-0.0071471,-0.011299,0.00083614,0.0066446,0.03535,0.002987,0.020456
0.0090065,0.0085781,0.027432,0.0080816,-0.016199,-0.030386,-0.02269,-0.011739
-0.058289,-0.031485,-0.021823,0.0070627,-0.00013894,-0.04568,-0.0015971,-0.012373
0.027878,0.099701,0.027581,-0.0020332,0.0080335,0.082619,0.019681,-0.0049489
-0.011314,-0.058128,0.081568,0.01222,0.0006125,-0.021511,-0.013238,-0.020834
-0.032644,-0.012083,-0.15652,-0.020359,0.0011217,-0.0077183,-0.0063246,0.010158
-0.11194,-0.0037912,0.040594,0.017487,0.0095932,0.0056605,0.017186,-0.0058217
0.11171,-0.040796,-0.13076,0.0085857,0.018178,-0.0056687,-0.020751,0.03274
0.1779,0.11116,0.22901,-0.015834,-0.020094,-0.073368,0.0047918,-0.030403
-0.04687,-0.0015666,0.019454,-0.016738,-0.011597,-0.009866,0.03108,0.0079199
-0.056503,0.034257,-0.039802,0.0058621,-0.0033216,0.052504,0.018678,0.00715
0.068419,-0.10267,-0.0028531,0.012927,0.012476,-0.018363,-0.056306,-0.017017
-0.31544,-0.053915,-0.080337,0.0045124,0.0045484,0.036062,0.0087853,-0.0098322
0.25822,0.078291,-0.022211,-0.0193,-0.027032,0.028799,0.018244,0.083435
-0.0014077,0.043694,-0.016148,0.011887,0.019426,0.014729,-0.012559,-0.065305
-0.016966,-0.01683,0.13279,0.012197,0.0034507,-0.01412,-0.013385,0.0049252
-0.077166,-0.071294,-0.083793,-0.010538,-0.0045079,-0.0034978,0.008074,-0.018318
-0.047842,0.0064207,0.012981,-0.02511,-0.0043639,-0.055533,0.013048,0.0056701
0.096528,-0.0089419,-0.023217,0.01524,0.019517,0.016744,0.025388,0.022288
-0.047888,-0.014556,0.0017727,0.00095554,-0.01888,-0.037018,-0.056004,-0.030898
0.09933,0.10775,0.12586,0.025555,0.0052943,0.025266,-0.0041228,0.017997
-0.1085,-0.024317,0.035583,0.010671,0.013716,0.016244,0.017322,-0.018606
0.16548,0.073592,-0.050844,-0.012653,-0.0094481,0.030001,0.047598,0.054424
-0.12567,-0.09126,-0.18804,-0.021091,-0.0096864,-0.026789,-0.0070111,0.0024396
-0.006383,-0.035429,-0.00024165,-0.030246,-0.018356,0.010344,-0.02164,-0.042063
0.052909,0.0055781,0.0061201,0.03036,0.034843,-0.053607,-0.027807,0.014362
0.0032678,-0.055307,0.1375,-0.0030444,0.0015584,0.07839,-0.0024189,-0.023821
0.014536,0.14033,-0.018362,-0.012922,-0.01647,-0.038987,0.030726,-0.0082734
-0.0321,-0.041016,-0.022529,0.024502,0.0044387,0.055058,-0.014634,0.006363
-0.028203,-0.005938,0.024209,0.0079154,-0.0057524,-0.038138,0.040948,0.028077
-0.028572,-0.074767,-0.050095,-0.0078853,-0.023342,-0.053189,-0.021403,0.018075
-0.12629,0.057456,0.10522,0.01612,0.037818,0.033142,-0.029811,-0.038959
0.17205,-0.0072208,-0.019191,-0.013992,-0.0018382,-0.029271,0.00022734,0.005713
0.0085273,0.036484,0.02014,-0.0047224,0.0061374,0.048582,0.0064419,0.0039058
0.0016687,-0.02958,-0.036346,0.0046016,-0.008662,-0.022366,0.0047424,-0.0051435
0.035199,-0.017391,-0.13525,-0.025302,-0.007352,0.023535,0.003227,0.0098974
