-0.09416,-0.13638,-0.14251,-0.060675,-0.034465,-0.038751,-0.049538,0.16573
0.11284,0.20154,0.3091,0.03286,0.0030104,0.014359,-0.0036277,0.018307
0.0065905,-0.047546,-0.35121,-0.0051377,0.00087852,0.0033197,0.033692,0.022534
-0.061922,-0.25781,0.1492,-0.034047,-0.0014657,-0.0089075,-0.01555,-0.064541
-0.10864,-0.25598,-0.43191,-0.069582,-0.050485,-0.021676,-0.033886,-0.158
-0.0007476,0.22512,0.28111,0.059935,0.018302,0.0047921,-0.013135,-0.016711
0.043314,0.19444,0.18766,0.0025941,-0.0057044,0.024274,0.023647,0.10061
0.078724,0.19893,0.21837,0.046924,0.041721,0.021623,0.037716,0.060474
-0.12058,-0.51267,-0.51678,-0.042167,0.0042578,0.012692,0.013638,-0.043755
0.11765,0.45543,0.27142,0.086061,0.022221,-0.03381,-0.032934,0.029945
0.059175,0.18571,0.15316,0.0011374,-0.014254,-0.016584,-0.00056169,-0.007457
0.055517,0.16697,0.073599,0.0072048,0.019284,0.032712,0.016781,0.016101
-0.080926,-0.47805,-0.34206,-0.13804,-0.065137,-0.034802,-0.03585,-0.039685
-0.19389,-0.51519,-0.35081,-0.043553,-0.0099639,0.038307,0.021019,-0.049388
-0.017461,0.065658,0.43163,0.02602,-0.0026686,-0.021635,-0.0080396,0.0031111
0.1833,0.26904,-0.024067,0.095485,0.019563,-0.011558,0.0019741,0.094873
0.010766,0.13989,-0.020732,0.033538,0.041634,-0.001652,-0.0035217,-0.039293
-0.10458,0.04346,-0.12742,-0.080354,-0.045216,-0.015109,-0.016551,-0.024083
0.04099,-0.015875,0.22632,0.020322,0.040812,0.073363,0.041166,0.054697
-0.10709,-0.25512,0.086121,-0.054813,-0.074926,-0.087559,-0.041232,-0.10769
0.14607,0.25398,-0.1912,0.068775,0.052948,0.049098,0.033069,0.12139
0.15103,0.38976,0.015903,0.093135,0.033566,0.014481,-0.001777,0.03855
0.054823,0.15348,0.51627,0.040245,0.022663,-0.0042288,0.017918,-0.059594
-0.33936,-0.65739,-0.43531,-0.13828,-0.05074,-0.054413,-0.056755,-0.15759
0.068782,0.083696,-0.19209,-0.021785,0.0079924,0.058625,0.039339,0.096056
-0.0027726,-0.16625,-0.26181,-0.048402,-0.012605,0.013959,0.024542,0.084197
-0.054157,-0.1893,0.24013,-0.0071422,-0.058113,-0.017026,-0.0076314,-0.068098
0.00098253,0.0011562,0.043252,0.016725,0.027752,-0.018958,-0.049364,-0.0014399
0.12433,0.32359,0.096114,0.047673,0.042166,0.00040856,0.0011734,0.034049
-0.034929,-0.091731,0.11226,-0.022625,-0.061286,-0.083541,-0.043027,-0.032252
0.023733,0.21297,0.077278,0.064359,0.085067,0.11267,0.084295,0.041354
0.10512,0.22498,-0.15782,0.03532,-0.010587,-0.027327,0.00098028,0.01208
-0.048818,-0.055055,-0.032645,-0.047765,-0.043381,-0.018307,-0.018976,-0.042552
-0.094755,-0.31602,0.051305,-0.014076,0.010079,0.023251,0.0013496,0.0020061
0.013877,0.26761,0.3175,0.088213,0.032382,-0.011567,-0.00041748,0.0049581
0.089662,0.060395,-0.087748,-0.023306,-0.00021559,0.010201,0.014683,0.029019
-0.13236,-0.57979,-0.74295,-0.099274,0.0057692,0.041523,0.0073181,-0.034554
-0.018116,0.12085,0.25989,-0.0067276,-0.012268,-0.0039324,-0.0072354,-0.0050841
-0.026852,0.15691,0.11976,-0.010279,-0.0073171,-0.032936,-0.029314,-0.06886
0.030692,-0.2333,-0.03343,-0.069137,-0.11181,-0.046012,-0.0044809,0.01752
0.038728,-0.061026,0.094399,0.029719,0.034156,-0.004529,-0.026622,0.083161
0.076006,0.3882,0.085368,0.092934,0.056138,0.0131,0.029227,0.0035925
-0.029772,0.061164,0.12899,0.028106,0.016996,0.014537,-0.00097653,-0.025928
0.0011346,-0.1372,-0.2205,-0.023749,0.018324,0.054411,0.046839,0.033016
0.22885,0.57027,0.34655,0.1398,0.051942,-0.031368,0.016384,0.077759
-0.23223,-0.26012,-0.26827,-0.084431,-0.039117,-0.0084554,-0.029944,-0.10397
-0.095703,-0.43995,-0.062622,-0.058023,-0.037004,0.013722,-0.037592,-0.060304
0.042715,0.1106,-0.010466,-0.0019852,0.010552,-0.0039402,0.024571,0.043755
-0.028819,-0.010846,-0.045465,-0.035324,-0.037641,-0.030182,-0.031004,-0.034396
0.041564,-0.21925,0.08031,0.012844,0.044865,0.044486,0.0066672,-0.021166
-0.057243,0.011032,-0.094018,-0.060599,-0.061838,-0.021877,0.028359,0.084101
0.044083,0.11446,0.12103,0.0031012,-0.013143,-0.017947,0.010854,0.016776
0.066709,0.24563,-0.23999,0.033665,0.020198,-0.0057363,-0.022166,-0.018895
0.036296,-0.097042,0.14709,0.079808,0.062766,0.030891,-0.00016875,0.017177
-0.084568,-0.041321,0.1218,-0.059941,-0.04861,-0.056066,-0.024572,-0.077387
0.048724,0.19708,0.10863,0.068654,0.045887,0.03834,0.02185,0.01806
-0.0091075,0.040733,-0.10988,0.0050349,0.025834,0.040669,0.029646,-0.024763
-0.0087147,-0.12891,0.028709,-0.032404,-0.039087,-0.041555,-0.024802,0.074753
0.080069,0.068147,0.093563,0.064798,0.06106,0.048931,0.030143,0.042109
-0.11115,-0.34024,-0.25296,-0.07173,-0.081109,-0.032324,-0.024502,-0.038071
-0.1225,-0.052536,-0.11418,-0.099366,-0.036924,0.0030363,-0.024829,-0.073387
0.1547,0.31952,0.031979,0.051394,0.036676,-0.0017823,0.02914,0.052227
0.040486,-0.04567,0.29416,0.020846,0.014456,0.02329,-0.0030774,0.041254
-0.16816,-0.35937,-0.0934,-0.065848,-0.079922,-0.054421,-0.027439,-0.06722
0.19321,0.53502,-0.067854,0.15123,0.10569,-0.023474,0.011127,0.10258
-0.10152,-0.18214,-0.019295,-0.061536,-0.029466,-0.015925,-0.027621,-0.10413
0.033974,0.021028,0.0918,-0.023727,-0.0080577,0.031546,0.036287,-0.076019
-0.0016936,0.074605,-0.12504,0.030849,-0.0013517,0.033659,0.015442,-0.061003
-0.11487,-0.27905,-0.076355,-0.053794,0.006567,0.037578,0.0034407,0.02085
0.17064,0.28828,0.29182,0.058204,0.031253,-0.011581,0.0077073,0.19408
-0.012863,-0.20758,0.064422,-0.0085424,-0.0058092,0.018309,0.019872,0.23226
0.029398,0.22614,-0.1814,-0.0046236,-0.01147,-0.061302,-0.070052,-0.20147
-0.070133,-0.12038,0.069444,0.022433,0.013628,0.029631,0.01083,-0.10888
-0.05368,-0.073626,-0.15157,-0.006048,-0.016964,0.0087616,0.0043485,-0.070364
-0.030248,-0.10815,-0.07755,-0.074746,-0.064423,-0.069975,-0.019293,0.044638
0.071215,0.16868,0.11404,0.081992,0.066667,0.043183,0.057243,0.10929
-0.060848,-0.101,0.058913,-0.035462,-0.0217,0.0048307,-0.02349,-0.11187
0.02758,0.01293,-0.036808,-0.059292,-0.024181,-0.035722,-0.034431,0.029372
-0.053563,-0.092137,-0.3504,-0.035639,-0.025994,-0.0069131,0.0093219,-0.0054202
0.11762,0.21387,0.11928,0.075197,0.067214,0.030158,0.022288,0.027218
0.18113,0.36422,0.76229,0.17202,0.083897,0.045548,0.036024,0.0039333
-0.14543,-0.1775,-0.32999,-0.12801,-0.085345,-0.045693,-0.027476,0.020165
-0.074435,-0.30709,-0.20055,-0.03626,-0.0033885,0.030389,-0.0042174,-0.18048
-0.060394,0.018179,0.052154,0.024656,0.016635,0.00034011,-0.0037842,0.24667
0.036325,0.046108,-0.084343,0.006977,-0.010393,-0.026976,-0.026459,-0.026236
0.035665,-0.10583,-0.019968,-0.019816,-0.022658,0.010054,0.029038,-0.077691
-0.022984,-0.012932,-0.077073,0.006162,0.018411,0.016596,0.006235,0.067992
0.0019242,0.056217,0.25206,-0.016941,-0.028023,-0.024069,-0.016867,-0.05911
-0.068017,-0.10333,-0.33552,-0.042195,-0.0056334,-0.0034802,-0.0012189,-0.014889
0.049764,0.14723,0.046155,-0.0067617,0.0077711,-0.0081874,-0.0092377,-0.050341
0.067263,0.18,0.44784,0.089866,0.036082,0.00063798,0.013907,0.052682
0.031917,0.013603,-0.32193,0.0060338,0.0094624,0.023135,0.021501,0.051865
-0.032859,-0.03876,-0.11152,-0.007803,-0.0013741,-0.0027503,-0.0097639,-0.013395
0.11459,0.013564,0.37796,0.064298,-0.011795,-0.068567,-0.048571,-0.0017622
-0.20629,-0.47336,-0.31371,-0.13685,-0.029516,0.092005,0.061316,-0.06856
0.0036122,0.23832,0.18011,-0.0017645,0.00010285,-0.0047883,-0.0083267,0.013727
0.040478,0.23777,-0.024833,0.039964,0.022227,-0.022572,-0.0076573,0.0036803
0.005562,-0.033716,-0.055454,0.02753,0.021044,-0.015835,-0.014991,0.0032678
-0.015058,0.038259,-0.015152,0.00018514,-0.003618,0.015367,0.00073897,-0.026655
0.010398,-0.28182,-0.014633,-0.02621,-0.0128,0.0082643,0.0081432,0.10864
0.028028,0.045824,-0.10913,-0.0045342,-0.029941,-0.0063036,-0.00066089,0.072261
0.038683,0.11734,0.21727,0.018536,-0.00025714,0.018081,0.013403,0.050582
-0.081899,-0.17299,-0.12038,-0.035034,-0.017324,-0.05961,-0.043317,-0.2386
0.010501,0.10088,0.035467,0.022183,0.051863,0.065051,0.048105,-0.030193
0.011308,-0.0025007,-0.2202,0.010217,-0.0034822,-0.029867,-0.016786,-0.03503
-0.0016295,-0.06631,0.16018,0.0067068,0.027641,-0.00044575,0.0044677,0.052265
0.072639,0.27774,0.30151,0.010995,-0.01887,-0.0025641,0.0027728,0.099989
-0.047975,-0.16642,-0.29728,-0.032339,-0.025952,-0.012277,-0.013794,-0.085952
0.065321,0.29408,0.26824,0.063515,0.014047,-0.0055976,-0.0059548,0.16732
-0.16638,-0.33644,-0.24638,-0.076951,-0.024019,0.0492,0.018613,-0.069338
0.084557,0.23517,0.086475,0.053873,0.023825,-0.042898,-0.03382,-0.022507
-0.057017,-0.32229,-0.11745,-0.067279,-0.02212,0.022838,0.016311,-0.013021
0.041963,-0.041784,-0.05379,0.0054633,0.01789,0.011786,0.028113,0.01297
0.10082,0.27201,0.12995,0.046407,-0.012308,-0.029692,0.0011807,0.0076889
-0.067168,-0.30899,0.0061825,-0.021532,0.02018,0.046136,0.005337,-0.021767
-0.0080297,0.20237,-0.0081238,-0.0020047,-0.0018065,-0.034951,-0.030238,-0.013248
-0.08819,-0.1596,-0.15982,-0.019177,-0.0001871,0.015376,0.0033918,-0.03699
0.067892,0.19359,0.13197,0.052424,-0.0063395,-0.037809,-0.01126,-0.053484
-0.023955,-0.12741,-0.12317,-0.045005,-0.020454,0.0083413,0.0038285,0.031662
0.065763,0.36915,0.32513,0.06306,0.043188,0.028872,0.025323,0.17219
-0.0072891,-0.17042,-0.094664,-0.022706,-0.026548,-0.038353,-0.040236,-0.11588
0.04508,0.031839,-0.057034,0.0090485,0.02021,0.033852,0.02633,0.073728
-0.028111,-0.035545,-0.12802,-0.038192,-0.01187,-0.011536,-0.008862,-0.040526
-0.04022,-0.10215,0.23548,-0.0092183,-0.021108,0.0060136,0.026555,0.048649
0.0082362,-0.0679,-0.016625,0.024971,0.00055511,-0.0064732,-0.0076192,-0.042097
-0.046827,0.03649,-0.019113,0.0094775,0.014403,0.0062949,-0.0095063,-0.055303
-0.017406,-0.16914,-0.26444,-0.031965,-0.0026179,-0.017831,-0.0023609,-0.030057
-0.0041313,-0.00084185,-0.079213,-0.028297,-0.0032797,0.022762,-0.0095784,-0.020726
0.06445,0.24172,0.055192,0.037159,0.020478,-0.0049933,-3.1846e-06,0.027934
0.0097307,0.016339,0.18163,0.0014999,-0.017191,-0.0078784,0.0027079,0.0462
0.019959,0.068479,0.15541,0.037653,0.0086227,0.013375,0.021667,0.050077
-0.029635,-0.17887,-0.14564,-0.041134,0.0039059,-0.012377,-0.029465,-0.062011
0.024644,0.17135,-0.040546,0.015447,-0.00048528,0.015617,0.028562,0.084457
-0.029048,-0.1893,-0.02979,-0.02717,-0.0050113,0.0029407,1.4965e-05,-0.027021
0.042384,0.19463,0.29073,0.041296,-0.010124,-0.011761,0.0017418,0.03217
-0.035919,-0.04255,-0.066635,0.0010869,0.0072423,0.0026629,0.0022869,-0.035842
-0.046502,-0.047491,-0.12118,-0.016164,-0.015649,-0.039487,-0.053068,-0.12233
0.033129,0.089243,-0.13395,0.019659,0.014884,0.010761,0.015517,0.006952
0.085362,0.068407,0.11953,0.037372,0.036442,0.044765,0.028665,0.063408
-0.17871,-0.56276,-0.3613,-0.11971,-0.075722,-0.061677,-0.03666,-0.022338
0.077576,0.16755,0.42456,0.032861,0.045942,0.02809,0.038713,0.0087293
0.02724,0.037964,-0.20815,-0.02775,-0.012207,0.033325,0.0051392,0.048441
0.023256,0.21894,0.10284,0.02756,0.0080575,0.0011253,-0.0043361,0.066518
0.0045861,0.1622,0.08696,0.035897,0.013344,0.001726,-0.013067,-0.045836
-0.019641,-0.095619,0.012112,0.021829,-0.011719,-0.01989,0.0023252,-0.015047
-0.032798,-0.12911,-0.026664,-0.021571,-0.020136,-0.0095163,-0.0051985,-0.091377
-0.018685,-0.030728,-0.12293,-0.015679,0.0037012,0.0089007,0.011021,0.021496
0.046203,0.09699,0.20691,0.039567,0.028393,-0.011939,0.0038975,0.080667
-0.033891,-0.13165,-0.21826,-0.051496,-0.0088118,0.005826,-0.011099,-0.016187
0.044807,0.13849,0.20144,0.030784,0.0011495,-0.023813,-0.0106,-0.074465
0.015411,0.011977,-0.30899,-0.011299,0.0032664,0.024241,0.0054178,0.069311
0.017114,-0.047102,0.18681,-0.014535,-0.026182,-0.021692,-0.0098212,0.031916
0.0094732,0.16841,0.071065,0.028147,0.021978,0.033917,0.014132,-0.038423
-0.11018,-0.42201,-0.14845,-0.040035,-0.02423,-0.011909,-0.00072204,-0.063582
0.024674,0.18874,-0.018229,0.0072037,0.007067,0.012733,0.023816,0.050386
-0.03139,-0.02188,0.071667,0.013593,-0.001241,0.0061764,-0.013821,0.022582
0.018893,-0.0048127,0.09838,-0.0050433,0.02909,0.015087,-0.0043511,-0.052782
0.09819,0.15693,-0.00016331,0.037584,0.0044358,-0.038909,-0.010432,0.08261
-0.089366,-0.18206,-0.0049872,-0.045585,-0.036032,-0.015396,-0.0010152,-0.023872
0.035375,0.13703,-0.12695,0.027165,0.0093244,0.015206,0.00025839,-0.074914
0.0045405,0.0064955,0.024636,-0.0015325,-7.1381e-05,-0.0095657,0.0088377,0.039213
0.037499,0.10665,0.19992,0.0093423,0.029559,0.02765,0.024603,0.068751
-0.060743,-0.22696,-0.41324,-0.04926,-0.034569,-0.021306,-0.022802,-0.064305
0.053606,0.12955,0.26379,0.018217,0.010709,0.0079482,-0.0083375,-0.0084078
-0.080565,-0.12213,-0.073055,0.00098425,-0.014236,-0.0092967,-0.01782,-0.021522
-0.010443,0.040045,0.0064723,0.008458,5.6518e-05,0.0052893,0.011433,-0.010192
0.091721,0.12291,0.38551,0.064007,0.04587,0.03616,0.024944,0.15016
-0.040081,-0.092623,-0.53752,-0.074733,-0.040761,-0.026117,-0.0083325,-0.087848
4.3338e-05,-0.12968,0.12756,-0.0017778,-0.0019488,-0.0020214,-0.002295,0.0017748
-0.014773,0.098553,0.12993,0.0012911,0.0060973,0.0066482,0.0040955,-0.12838
-0.014453,-0.055156,-0.094035,-0.01902,-0.0010095,-0.023792,-0.012564,0.091555
0.055534,0.090082,0.024656,0.054098,0.023536,0.015827,0.010203,0.07538
-0.023618,-0.019513,0.062843,-0.029704,-0.03758,-0.023061,0.0020218,0.10429
0.052836,0.18678,0.19134,0.073039,0.034226,0.015759,-0.021562,-0.22775
-0.0821,-0.1662,-0.44986,-0.067523,-0.019046,0.01515,0.0096913,-0.014033
0.017211,0.053733,0.10797,-0.0060755,0.013375,0.0064854,0.017611,0.050794
-0.015984,-0.091847,0.060756,-0.00022696,0.014176,0.013374,0.0099974,0.022193
0.029743,0.044508,0.40188,0.01292,-0.040126,-0.049928,-0.020934,0.049341
-0.024839,-0.12404,-0.62491,-0.036408,-0.0010628,-0.0035457,-0.028251,-0.085962
0.0080885,-0.012285,0.16957,0.01644,-0.0013416,0.019862,0.019365,0.077474
-0.0041983,0.058828,-0.0023398,-0.0077069,0.013869,0.0047531,-0.010853,-0.030763
0.039659,0.096525,0.071181,0.039911,0.013463,0.0058027,0.037341,0.049855
-0.024899,-0.0013843,0.13242,-0.020349,-0.010268,-0.016176,-0.015822,-0.048477
0.020149,0.053535,-0.030272,0.037821,0.036471,0.03234,0.009178,0.025143
0.033347,0.15924,0.13648,0.018596,-0.018206,-0.0051919,-0.0050741,-0.011077
-0.040764,-0.22338,-0.27517,-0.063049,-0.049349,-0.027515,-0.011954,-0.032429
-0.015224,-0.10158,0.061516,0.018801,0.02893,0.011999,0.019572,-0.023275
-0.038657,-0.098957,-0.16677,-0.025404,0.0056698,0.0038428,-0.019997,-0.07708
0.029785,0.1225,0.28222,0.030677,0.021518,0.010545,-0.0056591,0.10346
-0.012432,-0.067558,-0.20001,-0.047248,-0.032834,-0.030203,0.015858,0.11254
0.015205,0.1457,0.020853,0.0067967,-0.0010469,-0.0087001,-0.0098561,-0.09646
-0.019235,-0.009523,-0.13164,-0.0098,-0.023665,-0.010492,-0.0043177,0.023362
0.041236,0.037583,0.13294,0.05193,0.039968,0.042916,0.0094138,-0.004793
-0.0060729,-0.057597,0.15896,-0.0029205,0.0022968,-0.0044662,-0.0074021,-0.032914
0.026384,0.14031,0.22734,0.021137,0.0037941,0.011505,0.00012046,-0.022435
-0.041417,-0.16079,-0.39755,-0.040049,-0.0026516,-0.010846,0.00076229,0.04184
0.047723,0.11396,0.087124,0.03196,-0.0016886,-0.001487,0.017813,-0.0043994
0.019643,0.12577,0.10913,0.010164,0.022067,0.031399,0.019727,0.034172
-0.040367,-0.27559,-0.18459,-0.027734,-0.033083,-0.029733,-0.0016859,-0.037465
-0.085832,-0.13734,-0.0055433,-0.035151,-0.018675,-0.013251,-0.031172,-0.046903
-0.007451,0.01045,-0.1111,-0.0043423,0.010808,0.010474,-0.0065068,0.029976
0.062212,0.12327,0.20331,0.025793,0.001037,-0.028731,-0.021559,0.014164
0.0064355,0.016587,-0.10718,-0.030336,-0.0084932,-0.013382,0.0096633,-0.0078829
0.013246,0.12296,0.076774,0.023008,0.0060662,0.0099984,0.0092293,-0.0047112
0.036191,0.13198,0.077197,0.03777,0.013751,0.010449,0.00083915,0.0078463
-0.057341,-0.2836,-0.0034576,-0.0092546,0.022461,0.066203,0.031613,0.013528
0.0060229,0.078975,-0.16534,0.0069712,-0.0070091,-0.010367,-0.0076718,0.011353
0.069742,0.11664,0.15287,0.0081665,0.0031293,-0.016494,-0.0076161,0.047053
0.00058461,0.053845,0.2539,0.017483,0.0055464,0.00044856,0.01605,0.072693
-0.1003,-0.23665,-0.47399,-0.082593,-0.039283,-0.030356,-0.022804,-0.19369
0.0011624,-0.077,-0.00188,-0.018911,-0.0067242,-0.0077125,-0.022832,0.036786
-0.0076217,0.031717,0.082371,0.028645,0.017095,0.013577,0.023605,-0.12604
-0.0093726,-0.012283,0.0588,-0.010338,-0.030313,-0.020985,-0.0007607,0.061001
0.066455,0.20563,0.25517,0.067228,0.030938,0.021886,0.013491,0.11487
0.032644,0.014701,-0.17174,0.011336,0.02929,-0.0055846,-0.0116,0.021262
-0.008996,-0.091496,-0.095597,-0.021765,-0.019266,0.0067001,-0.013273,-0.023433
-0.05048,-0.049035,-0.13159,-0.039869,-0.028459,-0.018756,-0.0068478,0.0047951
0.041101,0.15119,0.11332,0.043032,0.033203,0.020015,0.0079648,-0.019042
-0.0076342,-0.028794,0.047872,-0.0072656,0.009587,0.029357,0.031373,-0.017317
-0.032556,-0.1116,0.1352,-0.026408,-0.013383,-0.0065932,-0.014671,0.024744
-0.033559,-0.088877,-0.20904,-0.037431,-0.028026,-0.018049,-0.013054,-0.065722
0.044189,0.062962,0.14084,0.030433,0.012309,0.0020917,0.020373,0.10881
-0.049173,-0.078286,-0.16698,-0.033346,-0.017657,-0.017241,-0.0084701,-0.10077
0.06143,0.11147,0.13979,0.052736,0.038034,0.0092248,-0.0062126,0.023976
0.016576,0.076053,0.012438,0.038694,0.0072363,-0.0049004,0.0033542,-0.055961
0.027004,0.19633,0.065973,0.01021,-0.00087367,0.0027158,0.0043434,0.073844
-0.024798,-0.045395,-0.01422,0.005865,0.005808,0.016588,0.0044478,0.03114
-0.022039,-0.15864,-0.18293,-0.068696,-0.035152,-0.01756,-0.027539,-0.027199
-0.074473,-0.23027,-0.058281,-0.050004,-0.021964,-0.013186,-0.013298,-0.030292
0.020738,-0.010095,0.12528,0.022419,-0.0011382,-0.0008605,0.031848,0.045724
0.11501,0.23764,0.048104,0.078013,0.059015,0.020046,0.014494,0.0057793
-0.088513,-0.18012,-0.10112,-0.055112,-0.036392,-0.012509,-0.025983,-0.04069
0.011876,0.11432,0.038283,-0.0095865,-0.0057925,0.026675,0.012203,-0.023465
0.041443,0.13126,0.08458,0.050838,0.025949,-0.010935,0.00415,0.033809
-0.038543,-0.11974,-0.06324,-0.029724,0.0040593,0.022741,0.0045042,0.021473
-0.0089694,0.041658,0.0087953,-0.00092556,0.006375,-0.013465,-0.010324,-0.037361
0.0055119,0.044595,0.073435,0.012521,-0.0065961,-0.010781,0.0063225,-0.0024139
0.052069,0.082799,0.067119,0.049884,0.027173,0.02245,0.015149,0.040037
-0.072228,-0.21316,-0.17531,-0.076211,-0.064603,-0.054744,-0.046537,-0.027509
0.015494,0.029283,0.0094337,0.0014843,-0.0009358,-0.00027876,0.00083386,-0.0021889
0.018258,0.057961,0.058689,0.0017255,-0.0084548,-0.017136,0.0087899,-0.0013617
-0.032963,-0.24588,-0.12853,-0.020849,0.014518,0.059077,0.024245,0.021801
0.041085,0.19509,0.0037022,0.035208,0.029165,0.0022165,0.00040944,0.028355
0.013291,0.091791,0.027359,0.013462,0.0045333,0.00019009,0.0077043,-0.0048339
-0.015359,-0.09423,0.014444,-0.0082141,0.0033989,-0.0013762,-0.0084486,-0.053839
0.032758,0.16155,0.25535,0.071464,-0.005284,-0.010118,-0.0088833,-0.00084877
-0.037984,-0.13167,-0.15552,-0.052437,0.0020389,0.0052522,-0.0091309,-0.040516
-0.0245,0.0041463,-0.11679,-0.04412,-0.013656,-0.010024,-0.0091109,-0.055105
-0.012452,-0.038883,-0.020042,-0.020759,-0.013324,-0.0092074,0.01467,0.15878
0.0065188,-0.056327,0.13311,-0.0056129,-0.020453,-0.00027054,-0.0080865,-0.023986
0.017507,0.030912,0.18453,0.04848,0.027374,0.008824,0.016326,0.044459
0.013431,0.067051,-0.25049,0.016828,0.012849,0.010136,0.0096729,0.0037973
-0.044195,-0.057451,-0.087495,-0.03004,-0.0095044,-0.012064,0.018665,0.063843
0.032415,0.015947,-0.022722,-0.013965,-0.00084216,-0.018802,-0.050639,-0.26865
0.055684,0.16867,0.16236,0.064874,0.022963,0.036714,0.0047063,0.029001
-0.0060531,0.0083958,-0.031813,0.0029862,0.0069836,0.0059718,0.020511,0.1362
-0.036248,-0.15395,-0.073105,-0.020399,-0.025513,-0.0095317,-0.0032689,-0.040557
0.011291,-0.06164,0.08654,-0.021313,-0.0042545,-0.017646,-0.011899,0.015027
0.0032264,0.12888,0.15152,2.8772e-05,-0.015046,-0.018365,-0.013063,-0.00075283
-0.029387,-0.12061,-0.19724,-0.010975,0.012742,0.03525,0.024672,0.038193
-0.0082069,0.05105,0.29142,0.024224,0.0092657,0.010507,-5.8941e-05,-0.093685
-0.057627,-0.19747,-0.49081,-0.073359,-0.017117,-0.0064908,0.014478,0.065337
0.026329,0.10505,0.066374,0.0096187,-0.0112,-0.054624,-0.033165,-0.015536
0.049212,0.18709,0.19022,0.047377,0.019585,0.02252,0.0133,0.023163
-0.0039718,-0.10677,-0.079887,0.0013692,0.012889,0.014107,-0.010228,0.0014853
0.0075819,0.0978,0.15426,0.020125,0.0076441,0.013899,0.02896,-0.026417
0.013187,-0.021608,-0.12382,0.0016842,-0.012183,0.013991,-0.0099014,-0.029996
0.035389,0.047381,0.12348,0.038968,0.015284,-0.001423,-0.0019562,0.044691
0.041704,0.1135,-0.019804,0.029322,0.011199,-0.0091269,0.0058107,0.032916
-0.062918,-0.20178,-0.063513,-0.1143,-0.02512,-0.024945,-0.025713,-0.034562
-0.099847,-0.32291,-0.15792,-0.033406,-0.039495,-0.0099316,-0.010566,-0.064248
0.055354,0.26461,0.17222,0.037177,0.038153,0.020296,0.020087,0.061033
-0.073806,-0.032428,-0.11271,-0.0040546,-0.034287,0.0033745,0.0038681,-0.025705
0.021169,0.045829,0.089123,-0.0081258,0.0091802,-0.021396,0.0033981,-0.0038117
0.11485,0.16658,0.23976,0.064901,0.044132,0.032206,0.018768,0.048971
-0.049238,-0.12743,-0.32309,-0.041777,-0.014691,-0.023059,-0.012481,0.00017645
0.014538,-0.012261,-0.12066,0.0087144,-0.0025734,0.008298,-0.012231,-0.024949
0.0024459,-0.031696,0.20874,0.021747,-0.01274,0.0091375,-0.0039634,0.012784
0.0087382,0.042972,0.050018,0.013272,0.0098165,0.010615,0.012264,-0.0037959
-0.052515,-0.06072,-0.11877,-0.040202,-0.012955,-0.01093,-0.010479,-0.020065
0.029184,0.086644,0.046774,0.0015589,0.012527,-0.001112,-0.0019271,-0.020499
0.0030749,-0.031987,0.030689,0.01294,-0.0078634,-0.030572,-0.0011785,0.018227
0.0088569,0.018546,0.034831,-0.0067647,0.034737,0.033214,0.015169,0.025702
0.045616,0.15723,0.1041,0.03554,-0.00085515,0.0025487,0.00019961,0.017474
-0.11397,-0.29081,-0.21695,-0.048136,-0.037019,-0.021082,-0.0070804,-0.037753
0.0061723,0.031119,0.10852,-0.015855,-0.01162,0.0092532,0.0010773,-0.0071734
0.023023,0.10539,-0.14001,0.0073867,0.012669,-2.6414e-05,0.0089847,0.038941
0.014779,-0.0065839,0.0052073,0.014002,-0.0031823,-0.0096067,-0.014654,-0.024315
0.036402,-0.00018112,0.067466,-0.0034595,-0.012092,0.0042342,0.00046396,-0.0093049
-0.0054765,-0.062036,0.03178,0.017907,0.025315,0.018325,0.0074974,-0.025237
0.014566,0.075093,0.016561,0.023771,0.015634,-0.0061921,-0.0012822,0.060859
-0.051502,-0.086718,-0.03135,-0.024682,-0.0017718,-0.006708,-0.0023131,-0.024341
-0.0080076,0.0094113,0.0067822,-0.0023337,-0.01106,-0.0066545,-0.0032613,-0.030805
0.0047325,0.029512,-0.031782,-0.010741,-0.012118,0.017314,-0.0039844,0.041396
0.033837,0.084413,0.033572,0.020339,0.0107,0.0025328,0.0034403,0.0045834
-0.029896,-0.082939,-0.0076529,-0.026379,-0.012966,-0.027766,-0.0043723,-0.0086918
0.047996,0.1056,0.055445,0.0052685,0.018368,0.019962,0.027246,0.0090846
-0.037171,-0.07718,-0.043201,-0.0019643,-0.0047515,-0.002895,-0.01117,-0.028305
-0.019863,-0.015172,-0.038674,0.0065837,-0.019887,-0.010514,-0.0025728,-0.003879
0.0060005,-0.045608,0.0057027,-0.00034707,0.011992,0.0048768,0.0060045,0.0041439
