0.039155,-0.11007,-0.10731,-0.031543,0.0016828,0.04616,0.04115,0.067974
-0.058123,-0.1016,-0.065101,-0.018984,-0.027396,-0.02185,-0.036029,-0.14533
-0.06129,-0.067053,0.048252,-0.0055207,-0.0088007,-0.034859,-0.019634,-0.030386
0.052972,0.091757,0.070284,0.0096469,0.025917,0.037964,0.035572,0.0071712
0.2375,0.54961,0.25174,0.14414,0.084123,0.071141,0.074784,0.21777
-0.28943,-0.32571,-0.23578,-0.063019,-0.084711,-0.084189,-0.089619,-0.093746
0.23723,0.47175,0.22376,0.075131,0.034532,0.0092044,0.011025,0.072458
-0.13624,-0.265,-0.15261,-0.090727,-0.035094,-0.023707,-0.01391,-0.10435
-0.10555,-0.32983,-0.24947,-0.10068,-0.043762,-0.042064,-0.023684,-0.070012
0.11039,0.11643,0.1427,0.099039,0.063295,0.071771,0.060059,0.12027
-0.12104,-0.36696,-0.15652,-0.093797,-0.065173,-0.056641,-0.043621,-0.12758
0.13817,0.26565,0.18884,0.062715,0.047872,0.049791,0.032792,0.07693
-0.033152,-0.031773,0.10131,-0.017279,-0.034537,-0.038252,-0.046367,-0.063012
0.029844,0.008928,-0.12892,0.057233,0.078718,0.085605,0.039377,0.069965
0.015435,0.17246,0.13231,0.036841,0.03646,0.030613,0.032225,0.038557
0.1743,0.4467,0.24574,0.094118,0.010816,-0.016018,0.0023586,0.077275
-0.42271,-0.78268,-0.56081,-0.27021,-0.16995,-0.085867,-0.066088,-0.18884
0.037264,0.040663,-0.12224,-0.016412,-0.0057863,-0.046351,0.0062833,0.013591
0.16377,0.31552,0.28098,0.098265,0.057994,0.0087377,0.023885,0.043864
0.30828,0.51756,0.40697,0.1523,0.083815,0.032678,0.017759,0.12064
-0.42023,-0.84718,-0.40068,-0.13547,-0.053492,0.025739,-0.035647,-0.14674
0.032296,0.039382,0.013593,0.0081684,-0.002649,-0.019635,-0.011354,-0.0082303
0.063396,0.12038,0.00024786,0.020245,0.0093817,0.0373,-0.0030643,-0.010609
0.10177,0.19092,0.19079,0.048532,0.052443,0.055807,0.067432,0.096281
-0.14258,-0.28128,-0.33792,-0.15768,-0.13956,-0.097263,-0.057595,-0.1327
0.14992,0.26611,0.19446,0.096322,0.10488,0.077587,0.067231,0.19326
0.10395,0.31823,0.311,0.12267,0.035549,-0.045177,-0.0268,0.050921
-0.28027,-0.49042,-0.30044,-0.11773,-0.089686,-0.067545,-0.058408,-0.1923
-0.0019376,0.037991,-0.14662,-0.023004,0.026337,0.033707,0.019321,-0.012638
-0.0050935,-0.046642,-0.093197,-0.076914,-0.037757,0.024268,0.011133,-0.026897
0.094592,0.14937,0.14271,0.049411,0.03115,0.013827,0.018664,0.038748
-0.099933,-0.37155,-0.062727,-0.0027377,-0.016347,-0.028365,-0.020518,0.012682
0.13876,0.1338,0.18129,0.079495,0.031113,0.0076312,0.010814,0.066749
-0.0096176,0.078386,-0.032657,-0.024345,-0.029462,-0.026106,-0.020159,-0.041677
0.016528,0.13838,0.38664,0.052226,0.075138,0.073903,0.042747,0.038085
0.051356,0.3236,-0.36905,-0.020098,-0.022844,-0.03596,-0.011515,0.015725
0.08475,0.25174,0.16513,0.101,0.042969,0.042629,0.020042,0.038263
-0.24502,-0.54562,-0.28756,-0.18739,-0.11894,-0.08128,-0.081467,-0.12219
-0.10393,-0.4964,-0.16657,-0.058124,-0.0015281,0.021534,0.019789,-0.05254
0.13982,0.43533,0.22339,0.066628,0.043117,-0.0088275,0.026866,0.020256
0.15816,0.28159,0.040568,0.085758,0.030494,0.014655,0.025677,0.1746
-0.15709,-0.40586,0.14028,-0.038614,-4.9714e-05,0.060372,-0.015018,-0.112
-0.10069,-0.35309,-0.34759,-0.06259,-0.055662,-0.067156,-0.017056,-0.095893
0.072156,0.15331,0.18367,0.023594,0.013038,0.02277,0.011823,0.12314
0.17666,0.39712,0.090158,0.073354,0.019624,-0.021084,-0.0063941,4.5959e-05
-0.19111,-0.23835,-0.13275,-0.060304,-0.0036142,0.012784,0.0065717,-0.057301
0.0094366,0.16564,-0.038457,-0.025035,-0.024595,-0.023333,-0.011577,0.030385
0.17731,0.48425,0.28632,0.085414,0.019674,0.011988,0.025338,0.044906
-0.11762,-0.2477,-0.20792,-0.081286,-0.0035385,-0.013335,-0.046492,-0.0998
0.14683,0.25918,0.36558,0.16881,0.10856,0.049661,0.038796,0.11894
-0.17951,-0.58999,-0.33343,-0.1113,-0.097812,-0.040997,-0.038935,-0.097038
0.034361,-0.10036,-0.089992,-0.0013916,-0.0063144,0.011398,0.032889,0.063209
0.052548,0.26902,0.19491,0.051928,0.030639,0.010989,0.0042121,0.027759
-0.13372,-0.47652,-0.28421,-0.14732,-0.050152,0.027231,0.015457,0.013979
-0.04822,-0.015654,-0.15926,-0.044422,-0.0069413,-0.01123,-0.01183,-0.1197
0.020176,0.18658,0.21262,0.0019001,-0.0039428,-0.019519,-0.031195,-0.069005
0.22816,0.43205,0.29514,0.16452,0.044874,-0.0063636,0.019402,0.13497
-0.1426,-0.15733,-0.19827,-0.016453,-0.0086944,-0.02708,-0.016733,-0.069744
0.048641,0.195,0.10887,0.030032,-0.00033429,0.0040026,0.01627,0.0051093
0.012518,-0.072601,-0.072411,-0.023876,-0.015822,0.0010556,-0.006862,0.078989
0.037439,-0.00056971,0.13938,-0.014368,0.03079,0.0035665,0.015289,0.058652
0.0053826,-0.01371,-0.03148,0.034452,0.029993,0.043434,0.0046073,-0.024417
-0.092179,-0.2717,-0.025158,-0.050145,-0.010616,0.019859,0.0081446,-0.029588
-0.11493,-0.17577,-0.35173,-0.058003,-0.028717,-0.0038658,-0.020628,-0.097571
0.12494,0.34311,0.22975,0.010399,-0.039966,-0.0973,-0.057769,0.037262
0.034663,-0.042511,0.070951,0.069094,0.041795,0.06836,0.069225,0.015764
-0.056039,-0.087806,-0.11564,-0.045535,-0.017312,0.017127,0.025112,0.025963
-0.012412,0.04724,0.07887,0.018921,-0.013435,-0.039617,-0.040989,0.0061513
0.042516,0.062677,-0.13133,0.029173,0.0073956,-0.023471,-0.019123,-0.081797
0.040071,0.15826,0.2569,-0.021479,0.022523,0.0031329,-0.0026493,0.052067
-0.14378,-0.51436,-0.26969,-0.077433,-0.030014,0.055636,0.031993,-0.013514
-0.0089758,0.0069997,-0.069389,-0.020979,-0.017268,-0.022668,-0.016953,-0.051843
0.20135,0.4321,0.33387,0.15569,0.076025,0.025327,0.029678,0.13972
0.024416,0.34332,0.22713,0.030158,0.006838,-0.012219,-0.016415,-0.041536
-0.089149,-0.27254,-0.37711,-0.062669,0.00052273,0.0043357,0.015651,-0.034787
-0.0092122,-0.14053,0.048823,-0.014694,-0.030222,-0.035317,-0.0079685,0.040795
0.043107,0.084948,0.079872,0.00093209,0.030538,0.047764,0.052438,0.15984
-0.01971,-0.2021,-0.098553,-0.016778,-0.06027,-0.067185,-0.10846,-0.26509
-0.21376,-0.33183,-0.25258,-0.076128,-0.029534,0.018179,0.016881,-0.00038517
0.10229,0.32925,0.072068,0.04173,0.0058676,0.0072412,-0.008887,0.040086
0.0083109,0.06549,0.16692,0.017127,0.023373,0.025562,0.041319,-0.017562
0.076973,0.08473,-0.043013,0.03858,0.0008084,-0.012033,-0.0035928,0.039458
-0.033028,-0.18593,0.046789,-0.025579,0.025495,0.0046752,-0.0020991,-0.028809
0.039693,0.10185,0.0712,0.0053378,-0.0029038,-0.017254,0.031031,0.13919
-0.039646,-0.064502,-0.0082008,-0.024292,0.0023819,0.024413,-0.028515,-0.18137
0.080597,0.30813,0.018591,0.034067,0.010389,-0.026121,-0.0084335,0.088592
0.0010094,0.038859,0.055542,0.023684,-0.0026099,-0.012411,-0.0023323,0.019411
-0.069268,-0.40655,-0.19734,-0.048618,0.0016532,0.065468,0.028718,-0.022592
0.0081766,0.06951,0.069191,0.01896,-0.017008,-0.034984,-0.0093859,0.078198
-0.010991,0.095836,-0.061612,0.014071,-0.020761,-0.033005,-0.023381,-0.039517
-0.0033968,0.028656,-0.060046,0.021445,0.04399,0.039577,0.017456,-0.026036
0.061464,0.10077,0.27694,0.0091039,-0.0031821,-0.020928,-0.0045288,6.9501e-05
-0.11297,-0.45305,-0.24451,-0.093312,-0.045331,0.027218,0.0040868,-0.094619
0.076205,0.36952,0.20646,0.058662,0.058488,0.011887,0.019736,0.088644
-0.048552,-0.11519,-0.2728,-0.080437,-0.050264,-0.020045,-0.019993,-0.027124
-0.078451,-0.23851,-0.084772,-0.032171,-0.042259,-0.029249,-0.013256,-0.10428
0.028002,0.24616,0.20349,0.049215,-0.009901,-0.046497,-0.037762,0.06996
0.092943,0.060923,0.10196,0.05608,0.079276,0.061622,0.039754,0.028403
0.085937,0.097924,0.033088,0.05986,0.0073569,-0.02463,0.00091486,0.11566
-0.048078,-0.096525,-0.051047,-0.017273,0.03243,0.06234,0.033414,-0.012062
0.017524,0.16256,0.15962,-0.0040057,-0.033347,-0.028906,-0.026868,-0.019752
0.0070025,0.074439,-0.1663,-0.0031619,0.020078,0.021738,0.022884,-0.01838
-0.074448,-0.39651,-0.10247,-0.039842,-0.019467,-0.0049921,-0.0053421,-0.064502
-0.010465,0.066103,-0.034476,-0.014192,-0.012678,-0.016064,-0.010586,0.019876
-0.044912,-0.079527,-0.049917,-0.021388,-0.023198,-0.012252,0.022219,0.0070502
0.032482,0.017022,0.12427,-0.015474,-0.0049028,-0.0020414,-0.055752,-0.064262
-0.035673,0.020278,-0.018944,-0.0045891,0.0029076,0.014132,0.013197,0.048614
0.0097916,0.10385,-0.11074,0.011484,-0.022927,-0.026344,-0.012942,-0.10628
0.038027,-0.057903,0.17897,0.072416,0.04329,0.025199,0.030343,0.097595
0.051187,0.28765,0.22703,0.022767,0.022819,-0.018214,-0.0047614,0.052396
0.043386,0.11945,-0.12917,0.035243,0.026041,0.01601,0.007417,0.024933
-0.10119,-0.51382,-0.24036,-0.12381,-0.078977,-0.027602,-0.018468,0.015798
-0.038159,-0.10318,-0.043777,-0.031977,-0.0025561,0.0078973,0.0039187,-0.1079
0.076059,0.27378,0.14782,0.061063,0.044637,0.02925,0.020026,0.051623
-0.0015823,0.031054,0.044754,-0.0086518,1.0311e-05,0.013234,0.0062794,-0.0066903
0.063507,0.066468,-0.017943,0.040017,0.019406,0.0066511,0.016998,0.020698
-0.042736,-0.1367,-0.10381,-0.011974,-0.0071821,0.0013688,-0.0030177,-0.015638
-0.071797,-0.0096357,0.098584,-0.016611,-0.033602,-0.042149,-0.062125,-0.053812
-0.048272,-0.038416,0.072663,-0.005622,-0.029286,-0.038484,-0.012361,-0.023637
0.074037,0.20489,-0.041633,0.067418,0.067745,0.043136,0.036567,0.075232
-0.0018927,-0.078134,-0.1274,-0.10252,-0.055302,-0.016411,0.0063714,-0.076816
0.021127,0.10354,0.22182,0.054715,0.031219,0.032627,0.014235,0.067952
0.026532,-0.11782,-0.19641,-0.015558,-0.0084515,-0.020832,-0.025667,0.057216
-0.11773,-0.35148,-0.11543,-0.055351,-0.017734,0.002846,0.0040372,-0.077204
0.073428,0.21573,0.036235,0.052783,0.035015,0.041168,0.03325,0.047731
0.061485,0.13179,0.16582,0.012225,-0.013902,-0.007362,-0.0003072,0.010018
-0.028262,0.022851,0.00038428,0.010647,-0.00015714,-0.017611,-0.018286,-0.065772
-0.00043834,0.10869,0.078862,0.0012077,-0.0017504,-0.044058,-0.02828,-0.0083734
-0.019214,-0.094404,-0.021397,0.0072407,0.01255,-0.00047783,0.0011777,0.033124
-0.053509,-0.2111,-0.1219,-0.041756,0.0035529,0.043158,0.0077817,0.0034632
0.029365,0.21182,0.11984,0.033716,-0.0054778,-0.014358,-0.00050905,0.0038212
0.018471,-0.028746,-0.10959,-0.01643,-0.0068769,0.014787,0.023245,-0.012814
0.062413,0.16111,0.041116,0.034461,0.030554,0.01362,0.024316,0.024001
-0.11193,-0.43699,-0.13059,-0.086735,-0.072788,-0.033404,-0.036512,-0.033787
0.011478,0.07599,0.017269,0.026743,0.011442,0.0064598,-0.0032303,0.0018949
0.065882,0.16948,0.0099279,0.023963,0.01793,-0.0076167,0.0066826,0.03797
-0.04994,-0.0075121,-0.017956,-0.01633,0.0094954,0.01781,-0.0070621,-0.065535
0.007923,0.068655,0.18503,8.4548e-05,-0.0058102,-0.0035556,0.0021722,0.020011
0.059693,0.13208,0.08042,0.057773,0.042402,0.021686,0.010796,0.005789
-0.035625,-0.16961,-0.08993,-0.023117,-0.02568,-0.01612,-0.012488,0.032337
-0.03647,-0.087628,-0.061619,-0.024362,0.00056072,-0.0077551,0.00269,0.021093
-0.013971,-0.11562,-0.023954,0.0063365,-0.012145,-0.023533,-0.0060249,-0.020864
0.070034,0.12776,-0.010183,0.0054796,0.0060088,0.01482,0.0084423,-0.016309
-0.0040603,0.039612,-0.061161,-0.0045022,-0.0079399,-0.0018048,0.0072476,-0.013026
-0.025991,0.079881,0.032762,0.01461,0.0003701,0.012842,-0.0015988,0.035125
0.082,0.2949,0.1694,0.046665,0.0073661,-0.026896,-0.017952,-0.0129
-0.141,-0.51843,-0.1512,-0.10376,-0.018125,0.027597,0.0051328,-0.024301
-0.0070512,0.023387,-0.053437,0.008981,0.017919,0.027913,0.020766,-0.053371
0.086223,0.12475,0.096419,0.0028,-0.0090893,-0.01826,-0.010206,0.080306
-0.086696,-0.17359,-0.083421,-0.011954,-0.020542,-0.017412,-0.017622,-0.052042
0.08467,0.10672,0.048544,0.051693,0.046532,0.02236,0.021777,0.019266
0.030976,0.19379,0.23508,0.038392,0.020645,0.014869,0.014071,0.068445
-0.043983,-0.03643,-0.25015,-0.043446,-0.051078,-0.063468,-0.025237,-0.028997
-0.038366,-0.10715,-0.0087818,-0.021733,-0.027927,-0.01734,-0.002443,0.031828
0.032072,0.028011,0.037102,0.025221,0.043141,0.028384,-0.0034444,-0.046039
0.026231,0.094677,0.059212,0.026611,-0.0021649,0.011421,-0.0046811,-0.020689
-0.017526,-0.072281,-0.0048926,-0.033859,-0.00011402,0.025755,0.0018368,-0.033121
0.040672,-0.020533,-0.068878,0.030641,0.025478,0.0090712,0.024116,0.025658
-0.057637,-0.11749,-0.092929,-0.030406,-0.01949,-0.007277,-0.0079844,0.022495
0.038703,0.17642,0.1896,-0.01412,0.013159,0.015792,0.022842,-0.019451
-0.084464,-0.12206,-0.14205,-0.045439,-0.040745,-0.038946,-0.023976,0.094907
-0.012879,-0.058344,0.022438,0.01659,-0.017084,-0.046539,-0.015639,-0.048681
0.035092,0.0017502,0.11329,0.070878,0.037463,0.039849,0.00090773,-0.075376
0.020798,0.066794,-0.088323,-0.046167,-0.033077,-0.014182,-0.0056991,0.022494
-0.00080667,-0.035324,0.018401,0.025146,0.013748,0.017905,0.019082,-0.020824
0.1031,0.28774,0.049231,0.019258,0.045296,0.034488,0.012583,0.075794
-0.050564,-0.068006,-0.05239,-0.017166,-0.00090291,0.0042147,-0.0019285,-0.00027354
-0.016952,-0.01179,0.0083926,0.0013864,3.1844e-05,-0.026178,-0.0089735,0.0086846
-0.0074989,0.00044546,0.081344,0.027523,-0.0067983,-0.0099509,-0.0086443,-0.045812
-0.0069156,-0.095704,-0.00662,0.0060964,-0.0138,0.013753,0.02249,0.047234
-0.038662,-0.23033,-0.013656,-0.094401,-0.036732,-0.017549,-0.017034,-0.11041
-0.032075,-0.042723,-0.28288,0.0073047,0.025983,-0.0021609,-0.0098323,0.059724
0.04476,0.17305,0.17943,0.02246,0.002653,-0.0023443,-0.010322,0.019033
-0.041721,-0.016872,-0.030886,-0.017178,-0.036104,-0.01781,-0.010407,-0.021064
0.06077,0.055169,0.041486,0.037385,0.027243,0.037645,0.037021,0.025779
-0.014543,-0.01448,-0.023556,-0.00091289,0.0054666,-0.0076878,0.0070768,-0.0277
0.029159,0.079817,0.071785,-0.0068896,0.0080466,-0.0053641,-0.006531,-0.025259
0.08975,0.26679,0.16329,0.074004,0.042676,0.044446,0.019433,0.095334
-0.029041,-0.065589,-0.078324,-0.016477,-0.008171,-0.007015,-0.0091039,0.0054546
-0.039293,-0.10848,0.087231,-0.0055095,-0.019994,-0.027338,-0.014395,-0.045537
-0.12955,-0.42821,-0.31091,-0.089046,-0.048033,-0.032544,-0.028041,-0.0583
0.011962,0.12056,-0.11054,-0.0097836,0.016592,0.023935,0.0043868,0.0056712
0.049079,0.13762,0.15591,-0.0023683,-0.029592,-0.029938,0.0046406,0.021027
0.083627,0.20097,0.1756,0.089452,0.071086,0.048031,0.027428,0.042361
-0.055595,-0.20369,-0.035356,-0.023149,-0.017245,-0.0076381,0.018206,0.038597
-0.016113,-0.066119,-0.092999,-0.0038473,-0.0052752,-0.0092019,-0.030605,-0.10705
0.0077053,0.022786,-0.011467,0.014979,0.013624,0.012368,-0.0015401,0.012219
-0.014592,-0.059302,-0.10173,-0.075652,-0.069479,-0.036418,-0.02713,0.02205
0.050327,0.25205,0.30936,0.076109,0.050553,0.039951,0.025681,-0.014459
0.015147,0.074919,-0.22266,-0.0061426,0.022548,0.015029,0.024251,0.059426
-0.010881,0.018482,0.075937,-0.0098646,-0.012573,-0.040842,-0.015718,-0.021625
-0.043722,-0.27761,-0.0059874,-0.0054006,-0.015573,0.012924,-0.00050007,0.00028047
0.049025,0.15409,0.070095,0.022838,0.021422,0.0043717,-0.0083353,-0.0077886
-0.022056,-0.10937,0.022282,0.012372,0.0046272,-0.011904,-0.00033611,0.0085865
-0.06184,0.0018478,-0.12653,-0.03667,-0.02699,0.0030781,0.0076729,-0.060325
-9.2961e-06,-0.15261,-0.15788,-0.045933,-0.011059,0.018017,0.0076945,0.042905
-0.016092,-0.056222,-0.024875,-0.038568,-0.018034,-0.037421,-0.016031,-0.010219
0.14794,0.30783,0.31175,0.087232,0.037865,0.024269,0.0067487,0.037775
-0.10933,-0.067271,-0.093094,0.011245,0.0080261,0.0077974,-0.00988,-0.032162
0.016793,0.10016,-0.0049671,0.0067549,0.0094449,-0.0086843,0.0044987,-0.040598
0.065171,0.091068,0.03687,0.026462,0.0028597,0.013915,0.0031718,0.059135
-0.027041,-0.056443,0.071054,-0.016211,-0.019716,-0.010314,0.0019544,0.024726
-0.010246,-0.12493,-0.074803,0.0030171,-0.0036994,-0.011024,0.0010302,-0.0032057
-0.017589,-0.14689,-0.072965,-0.033666,0.004034,0.0040153,0.00054513,-0.024492
-0.010153,0.025271,-0.12664,-0.025062,-0.019827,-0.012017,-0.01504,-0.015312
-0.0034529,0.094448,0.17855,0.0053933,0.018708,0.026877,0.024602,0.032755
-0.036195,-0.087491,-0.039531,-0.027854,-0.020679,-0.012062,-0.0055845,-0.10606
-0.021929,0.026951,-0.045655,0.024313,0.0029445,0.019642,-0.0041465,0.045665
0.10238,0.26651,0.10629,0.037714,0.011677,-0.026435,-0.010293,0.0043539
-0.022247,-0.24354,-0.059773,-0.010326,0.036844,0.013748,0.0070672,-0.010697
0.034031,0.03567,-0.0047997,0.0057235,-0.023224,-0.031746,-0.014714,0.10225
-0.010179,0.048741,0.044047,0.0079208,-0.012561,0.024479,0.025804,0.069499
-0.0068287,0.060284,-0.008101,0.0038794,0.005918,-0.0052292,-0.0042759,-0.12522
-0.026758,0.045852,0.024817,-0.014742,0.0083178,0.019565,0.0043798,-0.014038
-0.02362,-0.1202,0.01634,0.0060071,0.0098525,0.020527,-0.0029108,-0.051068
0.010005,-0.039442,0.145,-0.012783,-0.036627,-0.049414,-0.033913,0.012808
0.011432,-0.1564,-0.37102,0.0063422,0.0094304,0.0049117,0.0052028,0.044094
-0.050539,-0.055571,-0.054989,-0.022983,-0.015894,0.011582,0.020779,-0.020147
0.089952,0.2492,0.20337,0.024128,0.043994,0.033173,0.044155,0.069883
-0.027691,0.056451,0.085127,-0.039622,-0.044804,-0.062918,-0.049598,-0.060814
-0.035934,-0.015516,-0.064387,0.004968,0.015107,0.012695,-0.01043,0.017603
0.034239,0.056994,-0.025021,0.025674,0.02107,0.026036,0.036685,0.09447
0.018894,-0.031353,0.087001,0.023089,-0.010959,-0.014675,-0.033239,-0.15797
-0.027303,-0.11005,-0.04044,-0.0023121,-0.010531,-0.0075217,0.0063657,0.018539
-0.0029365,-0.094924,0.014345,-0.019,0.022278,0.024285,0.0070534,-0.00053793
0.044899,0.21546,0.016372,0.027761,0.016894,0.010492,4.6315e-05,0.035247
-0.02464,0.0073439,-0.050795,-0.018436,-0.019263,-0.033413,0.00091073,0.079383
-0.078897,-0.25109,-0.078573,-0.040712,-0.03195,-0.0061845,-0.021702,-0.086649
0.046133,0.14353,0.065254,0.015239,-0.005961,0.013589,0.018007,0.013794
0.006755,-0.049974,-0.096207,0.0084083,0.019313,0.0097352,0.010495,-0.025592
0.045296,0.021473,0.11665,0.032234,0.028046,0.028581,0.018098,0.060668
-0.017747,0.078335,0.016414,-0.0072252,-0.011068,-0.024089,-0.0061821,-0.040109
-0.018123,0.012803,0.048534,0.007182,-0.0041994,-0.00013545,-0.0076937,0.023477
-0.018178,-0.10368,-0.052488,-0.033783,-0.013655,-0.024634,-0.033227,-0.014301
0.0056227,0.065311,-0.052197,-0.028261,-0.015724,-0.034919,-0.020069,-0.036286
0.022053,0.043035,0.080704,0.031967,0.036777,0.039699,0.024275,-0.019023
-0.00018729,-0.06976,-0.075611,-0.0010853,-0.019915,0.004422,0.0063963,0.045313
-0.022152,0.0069111,-0.028876,-0.0098358,0.0097645,0.023869,0.020341,0.016039
0.026312,-0.033127,-0.028991,0.0216,0.0087987,-0.0030213,0.011602,-0.0054561
-0.003398,0.058659,0.11945,0.01516,-0.007107,-0.013377,-0.011976,-0.027281
-0.002044,0.023236,0.025876,0.017576,0.0089159,0.016448,0.027614,0.10644
0.038117,-0.0073903,0.010558,-0.0027211,0.0099152,0.00055764,-0.033909,-0.018687
-0.10946,-0.12728,-0.13755,-0.061776,-0.066738,-0.061151,-0.040555,-0.08256
0.047494,0.085602,-0.0045312,-0.011588,0.013164,0.018611,0.023064,0.00081957
0.016928,0.0067896,0.136,0.038088,0.038484,0.028622,0.0083346,-0.088512
0.017694,0.019785,-0.028559,0.024473,0.024618,0.023244,0.016723,0.064107
-0.059564,-0.20291,-0.084215,-0.052596,-0.044316,-0.029111,-0.022115,0.068769
0.035039,0.10468,0.023737,0.017754,0.018916,0.0040489,0.0090184,-0.02699
0.03562,0.19252,-0.0015083,0.0089686,0.0031335,-0.010358,0.0085883,0.01163
0.027756,0.075818,0.019825,0.038292,-0.0058986,-0.0022082,0.0078733,0.012828
-0.035811,-0.050712,0.033128,-0.03481,-0.016054,0.0049714,-0.016536,-0.015888
-0.045995,-0.19537,-0.047496,-0.022708,0.0040046,-0.0044173,-0.0020992,-0.012644
-0.0028892,-0.069143,0.051402,0.043539,0.0076544,0.024456,0.0043757,0.0061382
0.09368,0.2036,0.087642,0.054821,0.049987,0.021533,0.034253,0.063106
-0.14647,-0.2586,-0.19655,-0.12913,-0.087229,-0.059717,-0.068552,-0.11578
0.042935,0.093003,-0.019846,0.0077097,0.026259,0.023303,0.047728,0.12548
0.029808,0.072954,0.055406,-0.0029851,-0.015275,-0.025855,-0.046382,-0.18176
0.017928,0.042363,0.060597,0.042235,0.022937,0.011942,0.016477,0.041136
0.023362,0.025667,0.027074,0.034147,0.0082536,0.011968,0.025443,0.068314
-0.016252,-0.05527,-0.045157,-0.011718,0.0030744,-0.0022442,-0.0039211,-0.0056992
-0.030783,-0.014028,-0.0077436,-0.0019524,0.0070213,0.00043537,-0.0015214,0.015046
0.0027566,0.038064,-0.0092509,-0.0074028,-0.0039455,0.01967,0.0088526,0.0059042
0.13846,0.28606,0.22367,0.08851,0.047575,0.031516,0.026775,0.099703
-0.17899,-0.42091,-0.28551,-0.13663,-0.089131,-0.058372,-0.049731,-0.18041
-0.0047476,-0.0066443,-0.036585,-0.01909,-0.00057318,-0.00056055,0.0055916,0.047871
0.02807,0.059054,0.048903,0.034818,0.023858,0.0092041,-0.010512,0.01056
0.013163,0.041797,0.018209,0.017513,0.015379,-0.0058586,0.0036089,-0.01158
-0.010257,-0.10434,-0.050272,-0.023676,-0.025757,-0.014464,-0.0064421,-0.0032382
0.12216,0.23165,0.23412,0.068068,0.033746,0.038351,0.037898,0.06674
-0.089255,-0.14362,0.07425,0.012058,-0.01643,-0.018838,-0.026939,-0.067149
-0.026968,0.029497,-0.25692,-0.058441,-0.01158,-0.02143,-0.012999,-0.021807
-0.0032061,0.025825,0.029152,-0.0025225,0.0097957,0.023279,0.033169,0.031271
0.02128,0.057045,0.0023747,0.00020006,0.0090198,-0.0015037,-0.0054901,0.02996
0.015308,-0.056502,0.014225,0.019911,-0.0059463,0.013795,0.0037552,-0.0020095
-0.068068,-0.14357,-0.099113,-0.02964,-0.019589,-0.016793,-0.025308,-0.048869
0.06,0.13067,0.030041,0.015149,0.030241,0.01586,0.024095,0.029977
0.016349,-0.0086463,0.027216,0.020904,0.0023876,0.0019736,0.0030595,0.023402
0.08179,0.20266,0.16617,0.033905,0.036862,0.027018,0.020534,0.017049
-0.17383,-0.4242,-0.26415,-0.079221,-0.085671,-0.073495,-0.064412,-0.067543
0.038148,0.18796,0.2122,0.0091982,0.024964,0.028271,0.0059059,0.019336
0.037763,0.11681,0.023778,0.041069,0.016975,0.0041,0.020615,0.01187
0.004618,-0.0047736,0.052037,0.00069046,-0.00023496,-0.013075,0.0033821,-0.027491
-0.0064808,-0.14499,-0.18872,-0.049295,-0.034206,-0.007334,-0.0063956,0.0028953
-0.0030375,-0.0060095,-0.058803,0.016442,0.017076,0.021719,0.015077,0.025082
0.007589,0.077411,0.13683,0.018683,0.0057123,0.011987,-0.0022059,0.015855
-0.044381,-0.096627,-0.1951,-0.034226,-0.013102,-0.020587,-0.018986,-0.024574
0.036899,0.16825,0.14972,0.045736,0.03914,0.017916,0.027298,0.0055137
-0.0059304,-0.010006,0.0010437,-0.0066111,-0.0092448,0.0024912,-0.0040507,-0.0031735
-0.016313,-0.10762,0.0091066,-0.019065,-0.0098382,-0.01234,-0.0038232,-0.011566
0.052743,0.039422,0.04272,0.0242,0.013732,0.0043994,-0.0034767,0.034976
0.0058499,0.06357,0.040604,0.013899,0.0143,0.021149,0.0046127,-0.0042422
-0.032224,-0.098236,-0.12937,-0.034325,-0.039675,-0.040484,-0.026551,-0.027719
-0.0071163,0.045578,0.1267,-0.003307,3.2828e-05,0.0068416,0.020196,0.0035849
-0.020737,-0.052422,-0.15247,-0.010273,-0.0072759,0.006853,-0.011332,-0.0040541
-0.026518,-0.080174,-0.03786,-0.039656,-0.014658,-0.0169,-0.003815,-0.011511
0.10031,0.29015,0.18057,0.064688,0.024928,0.0061039,0.011644,0.028159
-0.085711,-0.23071,-0.068483,0.0056995,0.0023028,0.013602,0.0039083,-0.017814
0.040344,0.075913,-0.004767,0.017469,0.019163,-0.0020178,0.012084,0.022422
0.0018916,-0.079122,-0.051068,-0.017568,-0.010416,0.014037,0.0048772,0.008144
0.0020754,0.10103,0.14342,0.0095403,0.014989,-0.00075393,-0.010014,0.0016852
