0.0082571,-0.00013891,-0.0022487,-0.0062031,0.008358,-0.0058149,0.013685,-0.0093232
-0.00050313,-0.0018466,-0.0036728,-0.01441,-0.014783,-0.0061645,-0.010674,-0.009945
-0.0016482,-0.003208,0.010067,0.0085778,0.0091907,0.016789,0.0037227,-0.0025893
-0.0028296,0.011584,0.00022589,0.00029563,-0.0057622,0.00060691,-0.0054909,0.0049437
0.019527,0.0035379,-0.0094133,0.0076552,0.0027264,2.2916e-05,0.00090818,0.0048324
-0.012613,-0.0039619,0.012703,0.0072477,-0.0045458,-0.00055428,0.0074658,0.0048647
-0.0054596,-0.0032588,-0.0035366,-0.0087235,-0.0042664,-0.0010991,-0.0090915,-0.010619
0.0019125,-0.0023861,0.0044302,-0.0090059,0.0034713,-0.0015829,-0.0017518,0.0052174
0.0016454,0.0062367,0.005268,0.0063939,0.010806,-0.0097773,-0.0016753,-0.002353
0.0014897,0.0067953,-0.0012337,0.0062173,0.0021188,-0.0021905,0.006787,0.0056983
0.0013865,-0.00081321,0.0080762,-0.009541,-0.0069023,0.0056109,0.007956,-0.0019047
0.001297,-0.03221,-0.029603,-0.0018165,-0.00051011,-0.0019525,-0.0061159,-0.0095543
-0.0066002,-0.0091653,0.010477,0.0059629,-0.0097824,0.0063814,-0.012197,-0.0016359
-0.0066571,0.021616,-0.0046538,-0.0018123,0.0045483,0.014951,0.012893,0.0062194
0.008986,0.013441,0.010907,0.013938,-0.0041836,-0.0075838,0.0063842,0.0061934
-0.0064891,0.0055149,-0.0052573,-0.0092717,0.011075,-0.014479,-0.00072327,0.0060937
0.0094647,0.0057071,-0.0060994,-0.0089314,-0.0042534,0.0097363,-0.016427,-0.0018922
0.0021801,-0.0016447,0.0086048,-0.0084814,-0.0032814,-0.005394,-0.0017541,-0.0021269
-0.0049219,-0.016657,1.715e-05,0.015496,0.0060779,0.0025193,0.01989,-0.010204
-0.0040819,-0.00042207,0.0073808,0.00045554,0.0001793,-0.0056412,-0.0060282,-0.010447
0.012433,-0.0077745,-0.016076,0.0010158,0.009984,0.0013847,-0.0089333,0.0050173
-0.0023375,0.0080656,0.015597,0.001459,-0.011706,0.0080479,-0.0041117,0.0049906
-0.0094029,0.0080183,0.00075763,-0.0061289,0.0051197,-0.0011453,0.00099066,0.0051166
0.0068258,-3.9444e-05,-0.0060535,0.0016007,-0.0022579,-0.0025856,0.0067126,0.0053631
-0.0083299,-0.0081639,0.00279,0.0089716,-0.010494,0.0039183,0.0054986,0.005643
-0.0079425,-0.016191,-0.019776,0.00036988,0.0039112,-0.004882,0.0052932,-0.0019831
0.0080693,0.0072865,0.012024,-0.016303,0.0021054,-0.0053869,-0.017357,-0.009837
0.0085406,0.0076842,-0.0034793,0.005996,4.1757e-05,0.0025151,0.0076958,0.0054189
0.0013448,0.016274,0.011799,-0.0028173,-0.0097053,0.0032377,0.0020429,-0.01093
0.0021204,0.01736,0.018828,-0.011241,0.0044876,-0.0032689,0.0043874,0.0036852
-0.012617,-0.028271,-0.021351,0.012197,0.0038447,-0.0015234,-0.0012694,-0.0052552
-0.003909,-0.0036218,-0.014827,-0.0026748,0.0041314,0.01606,0.0081866,0.0015508
0.0046568,-0.0026239,-0.0082749,0.0066523,0.0053095,-0.013302,-0.014338,0.00093175
0.012916,0.0058422,0.021948,0.0087878,-0.00064696,0.01947,-0.0064175,0.00093468
0.0050972,-0.0095251,-0.002109,0.0034495,0.0093507,-0.0030676,-0.0070416,0.0095182
0.0045527,-0.0018213,0.005596,-0.00193,-0.0041747,-0.018582,-0.00038587,-0.0045523
-0.019961,-0.0022075,-0.0096169,5.3414e-05,-0.010369,-0.0036738,0.013823,-0.0023465
-0.0058242,0.012865,0.0068421,-0.014395,-0.009529,-0.012928,-0.0031981,0.0080562
-0.015314,0.0044262,9.8306e-05,-0.014259,-0.0096082,0.0085674,0.0034646,0.0028591
0.014364,0.011584,0.024599,0.016022,0.012869,0.022054,0.018312,0.0051126
-0.0024299,-0.020365,-0.021459,-0.017185,0.0034165,-0.011207,-0.0055169,-0.016775
0.0048527,0.010079,-0.013265,0.019207,0.0014101,0.0028155,0.002213,-0.00053074
0.020692,0.0012743,-0.0056005,0.0083891,0.0072091,0.0096323,-0.0055,-0.0087248
-0.0018432,-0.0077742,0.0015572,-0.010158,-0.010105,0.0015196,-0.020965,0.0056219
-0.0004712,0.0063715,0.00052329,0.0030191,-0.0034165,-0.0059154,-0.0051952,-0.0041118
-0.006771,-0.018709,0.0071248,0.0013542,0.011761,-0.012776,0.0027431,0.0093004
0.0023293,0.0030811,0.013779,0.00066443,-0.0036719,-0.003598,0.010719,-0.00063935
-0.0047342,-0.0061721,-0.0027398,-0.0068042,0.0048075,-0.0020039,0.011009,0.0054609
-0.0047088,0.016254,0.012418,0.010127,0.0056916,0.015256,-0.0041172,-0.0034279
-0.01323,0.0080422,-0.010963,-0.01904,-0.0091223,0.0011324,-0.0033703,-0.0037908
0.0011203,0.0005405,-0.018163,0.014802,-0.00083151,0.0023541,0.0054121,0.012114
-0.0004151,-0.006263,-0.0013919,-0.0058541,-0.0086717,-0.0046283,-0.0012951,-0.0027813
0.0059701,0.0031319,0.0080278,0.004598,-0.0014438,-0.0042561,0.0076281,0.0059486
0.012807,-0.010555,-0.013459,0.0067886,0.005307,0.0034575,-0.0070191,-0.0088405
0.01252,-0.0007227,0.012109,0.00046937,-0.003854,-0.0048802,-0.0062835,-0.0082989
-0.010438,0.0089076,0.014205,-0.014521,0.0025806,0.0020819,-0.0058414,-0.0081615
-0.0014729,0.0024603,0.0082084,-0.0069922,0.0092553,0.0010545,-0.0056723,0.0072096
0.00011337,-0.012431,-0.013947,0.0074797,-0.0070417,0.0078412,0.0021211,-0.0011229
-0.0060071,0.011028,0.010019,-0.0022133,0.0085164,-0.0086214,0.017664,0.0061036
0.0032601,-0.013074,-0.021589,0.018831,-0.0065409,-0.0012895,0.0020247,0.0056735
0.0041896,0.016953,0.00059211,0.00055954,0.0023934,-0.0091015,0.0021843,-0.0022259
-0.019022,-0.015871,0.0063865,-0.0098768,0.003901,0.0070608,-0.013052,-0.0096752
0.0038949,0.0058958,-0.0039342,-0.0043979,-0.0022376,0.015918,-0.0046259,0.0067635
-0.0050934,-0.011236,0.0012495,-0.006205,-0.00062407,-0.0060864,0.003962,0.0079187
0.0088935,0.011083,-0.0089095,-0.0073014,-0.007076,-0.0044623,0.0047915,0.0092196
0.014855,0.010512,-0.0028,0.023675,-0.0060979,-0.01071,0.0055422,-0.013013
-0.0025784,0.0027518,0.012014,-0.007004,0.0022567,0.021784,-0.0095449,-0.012141
0.0036858,0.011226,0.027805,0.0099654,0.0023794,-0.0087744,0.0062957,0.003842
-0.013073,-0.034462,-0.010206,-0.011519,0.0021514,-0.00097801,0.0061265,-0.0042143
-0.0058996,-0.0016348,-0.0085173,-0.0013807,0.017294,-0.001747,-0.010054,0.0027746
0.0017754,-0.0076448,0.0012768,0.0010352,-0.0067772,-0.0031873,-0.018747,0.017125
0.0020868,0.017645,-0.0046279,-0.0045614,-0.0074668,0.0027163,0.01141,-1.3494e-05
0.010562,0.01156,-0.026544,0.0050034,-0.0003167,-0.0071786,0.010244,-0.017131
0.0036411,0.012998,0.029076,0.013901,-0.00088019,-0.0012852,-0.0064891,-0.0027172
-0.01099,-0.0094283,-0.017521,-0.0092339,-0.0012836,-0.0027248,0.0081815,-0.0034285
-0.0021924,-0.016748,0.013415,-0.0097293,-0.0014779,0.012172,-0.00039223,0.0043026
-0.0012965,-0.001174,-0.0029563,-0.0031192,-0.0092452,0.0044406,-0.000979,0.012676
0.0072798,-0.0095331,-0.0039295,0.0029659,0.01448,0.0052712,0.0063588,0.0059537
-0.0077223,0.012982,0.0028837,0.0087715,0.0071676,-0.0011697,-0.001895,0.0073466
-0.0072267,0.0040421,0.0098248,-0.0010569,3.6603e-07,0.00042699,-0.010178,-0.014688
0.0087849,0.0028941,0.0091648,-0.0028291,0.0006981,-0.0059223,-0.0028882,-0.0057648
0.0090698,0.0018913,-0.0068973,-0.0041602,-0.01428,-0.0049208,-0.0034301,0.0026253
0.0014273,-0.014479,-0.0071556,0.0028764,-0.0059659,-0.012428,-0.011727,-0.0052728
0.00145,0.0085083,-0.015121,0.0026754,0.0099483,0.002709,0.019198,0.0018042
-0.0065257,-0.015126,0.00038359,0.0029803,0.0021818,0.009287,0.019125,-0.007239
0.00091231,0.02388,0.0080509,0.011471,0.0019925,-0.00032993,-0.011891,0.006923
-0.00748,0.0003721,0.0078519,-0.011076,0.0016077,0.0053718,0.0042766,0.0055432
-0.0082182,0.007946,0.0075957,-0.0023038,-0.014537,-0.0045578,-0.018364,-0.011079
0.0065943,-0.00038255,-0.008325,-0.0013675,0.0083153,0.0014181,-0.0017868,0.011964
-0.0020015,-0.024634,0.0069974,-0.0082854,-8.506e-05,0.007907,0.022637,-0.0033624
0.0051544,-0.010029,-0.02452,-0.0073805,-0.00062593,-0.0083754,-0.01553,0.0053818
0.020316,-0.0032485,0.0065432,0.0092554,0.014536,-0.00049076,0.00079861,0.0067479
-0.011184,0.01159,0.022103,0.002655,-0.0014577,0.00028821,0.0012377,-0.0073749
-0.011246,-0.0043216,-0.02469,-0.0036985,-0.0095384,0.0016788,-0.0064303,0.0017403
0.012256,0.027322,0.014604,0.021402,-0.0096986,-0.0042804,0.0090551,-0.0052704
-0.011064,0.0050026,-0.00066856,-0.0081254,-0.0019275,0.0056654,0.0086777,-0.0051729
-0.0031389,-0.016706,-0.0080666,0.0012352,-0.001839,-0.0077427,-0.015301,-0.0058416
0.0047504,0.0088104,0.0079536,0.0023336,0.0061932,0.0021759,0.0075245,0.0084413
0.0048029,-0.0047429,0.0082393,0.0027266,0.022149,0.0039938,-0.00087378,-0.0011581
-0.0029323,-0.003057,-0.00729,-0.013381,-0.0087058,-0.0024373,-0.0091531,-0.0030723
0.0050575,-0.0098929,-0.0074368,-0.0069632,-0.00050331,0.0062122,0.0061971,0.0030413
-0.010208,0.0057952,-0.0078375,-0.016962,-0.00019265,-0.0013644,-0.0094699,0.0018575
-0.0017898,-0.010729,0.0071679,0.011564,-0.015643,-0.0017256,0.02197,0.0013885
-0.00091225,0.0031409,0.014216,0.016458,0.0078163,-0.0026144,-0.0010905,0.0016975
0.0080154,0.00076445,-0.010031,-0.0019249,-0.0079094,0.0039142,-0.016238,0.010517
0.0092678,0.0058879,-0.0029688,0.003593,0.0075682,-0.0053944,0.0076645,-0.0036052
0.0026853,0.011024,-0.003573,0.0019527,-0.00033751,-0.0068934,-0.0076272,-0.0096959
-0.011929,0.00083549,0.0038376,0.0010241,-0.00027859,-0.0081927,0.00028181,0.007576
-0.0035238,-0.0010222,0.011464,-0.0070743,-2.174e-06,0.014305,0.015697,-0.0067297
0.0043023,-0.0022308,0.0036551,0.008748,0.0083141,0.01381,-0.00046372,-0.013719
-0.0041637,-0.0027432,-0.011837,-0.0063949,-0.0066351,0.0059444,-0.0012809,0.0021673
0.0023376,-0.02602,-0.0038344,-0.0058109,0.0019117,-0.0015708,-0.017901,0.0018977
0.00048146,0.0059827,-0.0036583,0.0025611,0.0025546,-0.024513,-0.011111,0.0090083
-0.0017146,0.022829,0.0042655,-0.012578,0.0029543,-0.00055763,0.011453,0.0080033
0.0038308,0.00092002,0.0042877,-0.0043326,-0.0048181,0.0076326,0.010891,-0.00099327
-0.0060265,-0.0052387,-0.0114,0.011737,0.0026261,-5.5128e-05,0.010762,-0.0022589
-0.0075778,0.011976,0.019732,0.0044445,-0.013738,-0.0002286,-0.0045112,0.0042728
0.02282,-0.010108,0.011792,0.020695,0.00089711,0.014952,0.0041103,0.0030237
-0.0084788,-0.016931,-0.035161,-0.0098554,-0.00016266,-0.0091105,-0.01034,-0.021586
-0.0077418,0.00707,0.0039369,-0.0091727,-0.0010964,-0.0097791,-0.0089336,0.00081926
0.001455,0.0072205,0.011956,-0.00082355,0.00607,-0.0025253,-0.007445,9.5052e-06
0.01106,-0.00076793,-0.011059,-0.00056434,0.0057937,-0.002834,0.017421,0.0073335
-0.0026674,-0.0011282,0.013036,-0.00067679,0.013675,0.012827,-0.0047716,0.0072594
0.0068371,-0.001502,-0.0017109,0.0066254,-0.0094767,0.013232,0.0040088,-0.007963
-0.0075679,0.0060905,0.0071508,-0.0098512,-0.0013665,-0.0094867,0.0046321,0.00073923
-0.0069911,-0.0094682,-0.015143,-0.01091,-0.0012834,-0.00077056,-0.010753,0.0098742
-0.0071012,-0.0012324,0.0094434,0.01145,-0.0094161,-0.015484,0.0047179,-0.0041118
0.0078164,0.0073529,-0.0051115,0.0027464,0.0053885,0.016495,0.0041917,-0.002319
-0.0089121,0.00057367,0.011443,0.010037,0.0040965,0.001257,0.0033481,-0.00055477
0.0054801,0.0095215,-0.019046,-0.0056157,-0.013135,0.0012073,-0.013349,0.0010086
0.0043913,-0.012879,-0.0028255,0.0027118,-0.0069851,-0.014908,0.0010898,-0.005576
0.0036686,0.011294,0.005447,-0.0040754,-0.00058552,-0.00012064,-0.0078906,0.0030499
0.011252,-0.0040627,0.01362,-0.0026412,0.014163,0.0066886,0.0067121,-0.0043818
-0.011909,-0.012162,-0.0095341,-0.00094548,0.014026,-0.0020587,0.021564,-0.004398
0.004407,0.01044,0.014108,0.00084349,0.0068945,-0.0026821,-0.010148,0.010885
-0.0024659,-0.022089,-0.0092402,-0.0052515,-0.0072954,-0.0027937,-0.010289,-0.0053209
-0.0014696,0.007616,-0.017142,0.0040648,-0.0052879,0.021156,-0.0023425,0.017377
-0.0083986,0.0060157,0.013764,0.0052476,-0.010777,-0.0089622,0.0057924,-0.0068936
7.6369e-05,0.012371,0.0052857,-0.0017679,-0.00060066,0.00046968,-0.0016243,-0.0077746
0.0083049,-0.004423,0.0042602,0.0064365,-0.0062529,-0.013287,0.01435,-0.00085846
0.00071907,0.010392,0.0028904,-0.0013644,0.0033373,0.011957,-0.0010731,0.0060697
-0.0069373,-0.0056879,-0.014368,-0.009482,0.0046318,0.0055645,-0.016705,-0.018211
-0.0067066,0.0019708,-0.0083035,-0.010014,0.013229,-0.0014992,0.0065126,0.0044554
0.0093517,-0.005767,-0.0021547,0.0049507,-0.0020901,-0.0016077,-0.009493,0.019412
0.002246,-0.021148,0.0042981,0.0042448,-0.0021922,-0.010435,-0.0021218,-0.012381
-0.004601,-0.0051334,0.0034383,-0.0042714,-0.018235,-0.0044379,0.0053097,0.010649
0.012139,0.011034,0.018832,0.018465,0.012382,0.0010037,0.0050995,-0.0052474
-0.0024067,0.019566,-0.011992,0.0099146,0.0038169,-0.0015765,0.012942,-0.0053846
0.014036,0.01267,0.0046342,0.0012674,-0.0047807,0.0038319,-0.0024019,0.010242
-0.0090572,-0.0096641,0.0060353,-0.015331,0.0022837,0.0097724,-0.0097342,-0.0052231
-0.024952,-0.024044,-0.015838,-0.024245,0.0016246,0.0086998,-0.0013409,-0.012678
0.0053808,0.016326,0.0090817,-0.0019581,0.0010899,0.00075308,-0.00077964,0.0035499
-0.0039055,-0.013656,-0.020978,-0.0030101,-0.0071113,-0.0062578,-0.0003503,0.0044413
0.0020729,0.003093,0.018848,0.019653,0.0082816,-0.0046514,-0.00013158,-0.0021797
0.015762,0.019602,0.003521,0.01932,-0.0074189,-0.018095,0.0076607,-0.00072938
-0.0094534,-0.0032626,-0.020035,-0.0039076,-0.0073505,-3.0367e-06,-0.0081959,0.016497
0.0047585,-0.01085,0.0029868,-0.0031496,0.0084574,0.018061,0.0070628,-0.013171
0.0038204,-0.01097,0.010239,-0.0097524,0.00089114,0.0045446,-0.0089543,0.011614
0.011171,0.0042323,0.0018707,-0.00045827,0.0011273,0.0060628,-0.0014431,0.0046951
-0.012348,0.019209,0.017055,0.0010683,0.0090768,-0.0010145,-0.0015568,-0.010665
0.0034276,-0.005005,-0.022281,-0.0054038,-0.0065997,-0.016787,0.0063808,-0.01112
-0.0041607,-0.0058079,0.0010379,0.011181,0.0087179,-0.0099971,0.0067343,-0.0044591
-0.0039766,-0.0065456,0.0010083,-0.003992,-0.015305,0.01166,0.0072421,-0.0061643
-0.0038721,-0.0071515,0.00096437,-0.004093,-0.00050213,0.0015223,-3.1152e-05,0.023065
-0.0038058,0.0080312,-0.007022,-0.0047088,-0.0014536,0.0067421,-0.015229,-0.010231
-0.011489,0.023372,0.0081947,0.0020802,-0.0023739,-0.0036257,0.00058282,0.011427
0.012261,-0.0080432,0.0074798,0.00080028,0.0047312,0.0019587,-0.0073671,0.0023428
0.012841,-0.00032901,0.0064355,0.015056,-0.0034128,-0.0075175,-3.5125e-05,-0.0060772
0.0058887,-0.016034,-0.01834,-0.0018749,0.0045461,-0.00064819,0.0070015,0.0018458
0.0069487,-0.000492,-0.019877,-0.010807,0.012995,0.014811,0.0060316,-0.012998
0.00023496,-0.00056192,0.017592,-0.0038518,-0.0015918,-0.015872,0.0050005,0.011758
-0.0066418,-0.00056673,0.00048304,0.0033966,-0.00032582,0.008724,-0.0037659,-0.010018
-0.021684,0.023002,0.030523,0.0031129,-0.0068698,-0.0053638,-0.0045209,0.0073847
-0.0059571,-0.02354,-0.017155,-0.0047486,-0.005828,-0.0037006,-0.012802,0.0012346
0.0014384,0.00046343,-0.017468,0.010996,0.0026125,0.021272,0.0026817,0.0025767
0.0083699,0.0012425,-0.0016467,0.0034001,-0.0050943,-0.00097212,0.026295,-0.0043689
0.0071493,0.017781,0.0068276,-0.011969,-0.0055253,-0.01588,-0.012335,0.0037509
0.005746,0.010888,0.0078517,0.0039157,0.0092087,-4.8046e-05,-0.0039335,-0.0043165
0.0043123,-0.0039602,0.0012763,-0.011447,0.008004,-0.0080882,-0.0033137,0.0027591
0.0029709,-0.026899,0.0025509,-0.0033431,0.0066708,-0.0085876,-0.002791,-0.013935
-0.013818,-0.011143,-0.011936,0.012642,-0.010225,0.014289,0.0053375,0.00048509
0.00087261,0.012038,0.012359,0.0052925,-0.011264,0.0060576,0.0053761,0.014976
-0.0076087,-0.0041816,-0.010583,-0.0019426,0.003675,-0.0018875,0.00512,-0.001528
-0.00017037,0.018421,0.0051685,-0.0012781,0.0034045,0.013939,-0.011011,0.0057914
0.015404,0.0018432,-0.0028061,-0.0084045,0.0035463,-0.0090214,-0.0038481,-0.0020685
-0.015547,0.00088631,-0.01092,0.0078359,0.0040367,0.0072094,0.0033275,-0.0094966
0.0085475,1.3054e-05,0.0044554,0.016094,0.01258,-0.0078724,-0.0049249,0.0068668
-0.013893,-0.016349,-0.011173,-0.014959,-0.017828,-0.0075732,0.0028241,-0.007788
0.018637,0.0065091,0.028286,-0.0072348,-0.009183,0.000174,0.003275,0.0010819
0.0044777,-0.0017296,0.0057258,-0.0075879,-0.00064022,-0.00028103,0.0043032,0.0020806
0.0060003,-0.0020212,-0.0007331,0.0074967,0.0077537,-0.0010479,-0.0019395,0.002891
-0.015997,0.0056063,-0.014615,-0.00092527,0.00037191,-0.0097775,3.1148e-05,-0.0044005
0.00085899,-0.0023162,-0.012627,0.0063393,0.008498,0.012797,-0.0056437,0.011393
-0.013838,0.0054291,0.012877,0.0059638,0.00093412,-0.0034439,0.004178,-0.0044386
-0.0054493,0.0053767,-0.00076789,-0.0098,-0.014454,0.011949,0.0057475,-0.012811
0.018203,-0.0024921,-0.0068218,0.0059252,0.0014325,0.0043346,-0.0012087,0.0097702
-0.0053601,-0.018182,-0.0053852,-0.0016056,0.0017294,-0.0029033,0.0065641,-0.0069194
0.025456,-0.0026213,0.011289,0.0065685,0.0020384,-0.0020832,-0.010046,-0.00027841
-0.0065011,0.012963,0.011916,-0.00091951,0.010118,-0.0011908,-0.01187,0.0063568
-0.015252,0.0051611,-0.0035182,-0.0085459,0.0024565,-0.0082076,0.0013474,0.013074
-0.00074045,0.01306,0.0040617,-0.00074386,-0.013212,-0.0076337,-0.0012773,-0.011308
-0.001948,-0.018012,-0.019995,-0.0087633,0.0021146,0.00047315,0.0041096,0.0035676
0.0046792,0.0057025,0.0025044,0.0065156,-0.0062737,0.008313,0.0022711,-0.01258
0.003661,-0.017364,-0.0064672,-0.0016846,-0.0071008,0.00032705,0.0013056,0.0027654
-0.01266,-0.0012866,0.0078982,0.013621,0.023148,0.0078571,0.016967,-0.0050725
-0.0050872,0.014844,0.022293,-0.0021616,-0.00916,-0.0080713,0.00233,0.010781
0.010837,0.0075493,-0.017849,-0.0099201,0.0054959,0.0072909,-0.01157,0.003438
0.0038634,0.00020662,0.0047552,0.005967,-0.0030476,-0.00071892,-0.0094388,0.0041177
0.012956,-0.015066,-0.011398,0.0063797,-0.01122,-0.00086052,0.00052958,-0.010666
-0.0011345,0.016351,-0.0037965,-0.00096575,0.0045113,-0.00097785,0.002354,-0.0019175
-0.0074054,-0.014968,-0.003731,-0.016183,-0.010503,-0.0089198,0.0035776,-0.0009622
-0.0061175,0.00034052,0.027772,0.0075003,0.014017,-0.0012751,0.0040598,-6.9512e-05
-0.0053043,0.0076224,-0.0031645,0.0075114,0.015471,0.014137,-0.011821,0.016305
0.0027119,-0.00084987,-0.0029394,-0.0083604,-0.0063054,-0.0095444,-0.0048677,-0.014412
0.0022848,-0.0015118,0.0048708,0.0067901,0.0031806,-0.0097923,0.0017082,0.0014688
0.0013243,-0.0020253,-0.018898,-0.0094578,-0.010951,0.021237,0.0081716,0.0014056
2.5395e-05,-0.010055,-0.0039746,0.0055095,-0.0097933,-0.002368,-0.00085896,-0.0068064
-0.0091704,0.0057616,-0.012833,-0.010682,-0.0090615,-0.0024712,-0.0017743,0.0080941
-0.0025635,-0.0013986,0.009298,0.012397,0.0068485,-0.010325,0.013307,0.0070873
0.012253,0.023121,0.039099,0.0045146,0.014538,0.005306,0.0052877,-0.0019395
0.011976,-0.006732,-0.017052,-0.0030439,0.0062691,0.0053411,-0.0025114,-0.01107
-0.0033666,-0.0052038,-0.010604,-0.0024824,-0.010063,-0.0024233,-0.018054,-0.004551
-0.010413,-0.0037627,0.011664,0.0061388,-0.0031374,-0.010182,0.0054001,0.0021284
0.0063056,-0.010432,-0.0048556,-0.00070652,0.0036611,0.01332,-0.010349,0.0090983
-0.00028474,0.013692,-0.0054031,-0.023117,0.010369,-0.0022093,-0.0027926,0.00083662
-0.0069405,-0.0017823,-0.0055338,0.016942,0.0013993,-0.0020533,0.012533,0.0008399
-0.0060018,0.0056683,0.0026277,0.0022071,-0.0075724,0.0060118,-0.0032884,0.0013003
0.0024442,-0.018527,-0.01213,-0.0048747,-0.016467,-0.017044,0.012401,-0.013458
0.0027555,0.0039453,0.012684,0.003475,-0.0095573,-0.00089191,-0.010581,0.0033407
0.0027855,0.0029936,0.0066699,0.0038001,0.013266,0.0075849,-0.001859,0.012502
0.002609,0.0022607,0.00090178,-0.0039063,0.0052107,0.016154,0.0072953,-0.0017434
-0.005506,0.0018896,-0.0048832,-0.004016,0.0053671,-0.0065141,0.0011443,-0.0082847
0.0019392,-0.0058862,0.012434,0.0034836,0.0058695,0.0019728,0.010753,0.0083926
0.0015345,0.010119,-0.0021527,0.002992,0.014396,-0.0053747,-0.018794,-0.014281
0.0088963,0.018492,0.00579,-0.005454,-0.016119,-0.01303,-0.0096026,0.0017975
0.00055239,-0.012241,-0.010732,0.009446,-0.0077596,0.010199,-0.00093515,0.0097732
-0.015726,-0.012002,-0.012596,-0.0069336,-0.0075737,-0.0060072,0.022699,-0.0059278
0.0069119,-0.004414,-0.0073609,-0.0076491,-3.5263e-05,0.0087171,0.0065625,0.0016332
-0.0018382,-0.0051976,-0.002428,-0.00044602,0.0070421,-0.00021266,-0.010236,0.0012659
-0.010675,0.00129,0.0026972,0.0069181,-0.0096855,-0.0014074,-0.0041215,0.00082489
0.0039272,0.00736,0.0084894,0.0066626,0.012447,-0.0025233,-0.013938,0.00033031
0.01864,-0.002413,0.0074844,0.0066026,0.0033239,0.0044055,-0.00035697,0.0075965
-0.013307,0.0034525,0.0076339,-0.016727,0.0021985,0.0038846,0.0056489,-0.008632
0.0019201,0.0095508,0.008832,-0.00087757,-0.0064072,-0.011807,0.012131,-0.0014783
-0.0059544,0.00042951,-0.0048761,0.0072129,-0.0067852,-0.0035673,0.0036233,-0.0021702
0.0099346,0.0074469,0.012906,-0.00033007,0.0088884,0.0051417,-0.0041971,-0.0028453
0.010469,-0.024041,-0.024274,-0.00011758,0.001499,0.0064197,-0.0035792,0.0043845
-0.012253,-0.00029487,-0.0074722,1.0579e-05,0.0021989,0.00012002,0.0053209,0.0039855
-0.0036407,0.0083249,-0.0072491,5.1581e-05,-0.0047544,0.009492,0.0066637,0.0038606
-0.0028489,-0.0060684,0.0076345,-0.0077884,-0.0038469,-0.0047296,-0.015403,-0.0037327
-0.0021325,0.0033081,-0.017287,-3.9938e-05,0.0048384,-0.011479,0.0014266,-0.01095
-0.0015306,0.0050957,0.012132,-0.00010697,-0.0099921,-0.0030783,-0.013292,-0.0021852
0.0067556,-0.00083022,0.010425,0.0076596,0.0063439,0.0047849,0.010699,0.014669
0.0071042,0.0010168,0.0014681,0.0076431,-0.0086323,-0.0034969,0.0031019,0.00041485
-0.00047344,0.0026795,0.016818,0.0076506,0.007607,0.0034166,-0.0047685,0.0017475
0.0074747,-0.011606,-0.0059106,-0.007952,0.0082009,0.0022296,0.010608,0.0028446
-0.0080956,0.012729,0.0035032,-0.015726,0.0087609,0.0087336,0.010248,-0.0042883
-0.015909,-0.0025191,-0.01771,-0.007837,-0.014195,-0.0081586,-0.013605,-0.01197
-0.00030787,-0.01832,-0.015247,0.0079455,-0.0060432,-0.0014364,0.0015835,0.0031831
0.0074938,0.012225,0.018284,0.00042292,0.0018965,-0.0022576,-0.0066747,-0.0056636
0.0075248,0.011071,0.0043793,0.0086952,0.0095738,0.0050431,-0.0071256,0.0084931
-0.00020663,-0.0060316,-0.0025492,0.0015127,-0.0064623,-0.010796,0.0080468,0.0067877
-9.6667e-05,0.0079514,0.0051825,0.0022611,0.0085111,0.012669,0.0076014,0.0050789
-1.0661e-05,-0.017118,-0.011454,-0.0047884,-0.015733,0.0050408,-0.00063331,-0.012026
-2.4907e-05,-0.018574,-0.0054006,0.011476,0.0068687,-0.0025274,-0.0010094,-0.013083
-0.0080352,0.019347,0.00020367,-0.0037759,-0.0016638,-0.002306,-0.0013105,0.0098436
-0.00067347,0.018605,0.0057127,-0.011594,-0.0099462,-0.0099709,-0.0015046,0.0020959
0.014214,-0.0051514,-0.0041539,-0.0042176,0.013364,-0.0020919,-0.009373,0.010477
-0.002419,0.0027221,0.0099397,-0.012879,-0.0020221,0.0057418,-0.0014543,-0.0042387
-0.0036186,-0.0047392,0.0090876,0.0093844,0.0063406,-0.002029,0.014448,0.0045976
-0.0048749,-0.012023,0.0011247,0.02364,0.0070729,-0.0018935,-0.00074236,0.0054939
-0.013823,0.0042024,-0.0062367,-0.0090275,2.1277e-07,0.014018,0.007627,-0.0095682
0.0087905,-0.010827,-0.013182,0.0052617,-0.0072435,-0.0011487,-0.0073721,-0.017274
0.01626,0.013166,0.011318,-0.011519,-0.014795,-0.00054074,0.001077,0.0058059
-0.0069327,-0.001943,-0.0032487,-0.0046232,0.00072755,0.00015424,-0.0061385,0.0050897
-0.013893,-0.0014412,-0.010151,0.01035,0.0081145,-0.014777,-0.0056142,-0.0036012
0.018731,0.014705,0.0061737,0.0099666,-0.00031369,0.0014461,-0.01299,0.0034067
0.004822,-0.015978,-0.008947,-0.013588,-0.00092605,0.001865,0.018604,-0.0049208
-0.00118,0.015893,0.014871,-0.0056253,-0.001327,0.0098603,0.0032225,-0.01282
-0.007358,-0.0068795,-0.0082127,-0.005204,-0.0013459,0.0097847,0.011158,0.034423
-0.013956,-0.021827,0.007825,0.0033039,-0.00089535,-0.013971,0.0033141,0.01171
0.010106,0.010063,0.0083482,0.0042586,0.0078129,-0.0066668,-0.012534,-0.010831
-0.0055555,0.0027906,-0.014451,0.0054251,0.0090153,0.00052993,0.0026561,0.013447
0.0016043,0.0031546,0.0097035,0.0067133,0.002484,-9.5071e-05,-0.029227,-0.048457
0.0082922,0.026701,0.01044,0.0079943,-0.0042349,-0.00063267,0.016872,-0.0013319
-0.00089892,-0.020388,-0.020114,-0.014319,-0.0035699,0.014618,0.0082366,0.0064084
-0.0022783,-0.013151,-0.019497,-0.013493,-0.011298,-0.0011754,-0.0081507,-0.0016636
-0.0034114,0.0093583,0.020097,0.01037,0.0038099,-0.0011366,0.0068688,0.013717
0.0037173,-0.0074759,-0.0028761,0.0025448,-0.012809,-0.0087347,-0.0013376,0.013691
-0.0042022,-0.0010242,0.0053654,-0.0056807,0.0015855,0.0072267,0.0062898,-0.0016027
0.0041131,-0.0023642,0.0057834,0.0014272,0.0004207,-0.00018628,-0.0015592,-0.0086922
0.005158,0.01994,0.014005,0.00059048,0.0074178,-0.015401,0.0062641,0.0079621
-0.0090388,-0.012069,-0.024683,-0.00019882,0.014957,0.00060422,-0.009414,0.0013035
0.00035842,0.0032838,0.0068581,0.0070365,-0.00034794,0.0087375,-0.0018047,-0.005462
0.0096532,0.0035419,-0.008623,-0.0088366,0.0082698,0.0011594,0.0056238,-0.0047456
0.0029716,-0.011335,-0.00087637,-0.00089771,-0.0063019,0.0090903,-0.018338,-0.0045219
-0.0042575,0.0054134,-0.0012048,-0.00043359,-0.01312,0.0012479,0.0045425,-0.012669
-0.019953,-0.0010723,0.013794,0.015881,0.010956,0.0010421,0.0041033,0.0099178
0.010576,0.0080721,0.0050479,0.0010062,-0.020229,-0.014973,0.0039368,0.0086844
0.0093246,0.0014064,0.0038267,-0.0061756,-0.0051914,0.00010401,0.0041599,-0.00055185
