0.037189,-0.049416,0.012874,0.021086,0.013771,-0.048578,-0.16741,-0.083119
0.13102,0.046787,-0.1455,-0.085445,0.0083301,0.016603,-0.11167,0.024115
0.36369,0.06339,0.092589,0.088625,0.02611,0.02593,-0.14009,0.004863
-0.22691,-0.030971,-0.031103,-0.019417,-0.019139,-0.0051024,0.090716,-0.024453
-0.0088708,-0.048657,-0.032257,-0.058112,-0.041721,-0.045125,-0.16038,-0.032915
-0.32636,0.010697,0.081601,0.097543,0.012934,-5.004e-05,0.1166,0.018712
-0.03059,-0.063308,0.0063056,-0.099237,-0.027015,-0.02565,0.19,-0.0017417
0.21554,0.073681,0.047181,0.13295,0.072981,0.097328,0.070237,0.070769
0.077882,0.00033311,-0.16233,-0.16665,-0.030547,-0.005694,-0.10791,-0.090758
0.0038119,-0.040803,0.026747,0.095902,0.014293,-0.029767,-0.046614,-0.00090099
-0.16101,0.020687,0.02886,-0.024499,-0.04217,-0.0060755,0.074283,0.091102
0.022282,0.090891,0.15674,0.073897,0.042528,0.010585,-0.16038,-0.072225
0.10111,-0.018027,-0.050442,-0.030591,-0.012675,-0.011261,0.044541,0.016784
-0.0029753,-0.072045,-0.10825,-0.056502,-0.020196,-0.0093817,0.007361,-0.025268
0.30274,0.10054,0.0068505,-0.0036073,0.01993,0.031606,0.26529,0.19137
-0.23317,0.0076943,-0.0018266,0.011141,0.013809,-0.029088,-0.2768,-0.068623
-0.10433,-0.23282,-0.079315,-0.043308,-0.038791,-0.027474,-0.10398,-0.13417
-0.17902,0.082991,0.18094,0.12222,0.033713,0.036451,0.19008,-0.021348
-0.051581,-0.10644,-0.088068,-0.039178,-0.026802,-0.0091516,-0.050071,-0.0036292
0.11373,0.051057,-0.01136,-0.019884,0.029379,0.0076162,-0.065323,-0.04164
0.035588,0.21947,0.05913,0.046939,0.014537,0.00078163,0.044249,0.068211
0.19025,-0.12567,-0.025764,-0.12824,-0.055814,0.0093001,0.0065729,0.021616
0.17853,0.083976,-0.001458,0.13375,0.029281,0.033012,0.13513,0.16241
-0.039808,0.11139,-0.04886,-0.097301,-0.0034645,-0.029809,-0.038408,-0.0018897
-0.23165,0.17258,0.057386,-0.0093215,-0.028791,-0.030825,-0.045398,-0.10468
-0.046308,-0.47675,0.035063,0.11611,0.031757,0.0065511,-0.066093,-0.084129
0.039625,0.33437,0.14928,0.020993,0.030087,0.012185,-0.046616,0.028024
-0.26178,-0.80745,-0.36548,-0.18529,-0.064745,-0.021412,0.082491,-0.0261
0.21579,0.50619,0.077463,0.13026,0.052164,0.023359,0.14083,0.019589
-0.0012425,0.036186,0.04195,-0.031982,-0.0097074,-0.017156,-0.19236,-0.013635
-0.019097,-0.0033074,0.06091,0.0003995,-0.0081934,-0.0098353,0.012441,0.031767
0.18828,-0.023925,-0.051452,-0.029771,-0.021558,0.0063782,-0.088374,-0.014723
-0.065104,0.33471,0.065637,-0.01245,0.020275,0.078245,0.20863,0.090236
-0.1229,-0.021787,-0.055765,0.092046,-0.0079962,-0.036761,0.028866,-0.074509
0.24009,0.029594,0.10005,0.018597,0.018294,0.004613,-0.088262,0.069322
-0.056755,-0.091876,0.032447,0.025365,0.036314,-0.024741,-0.14252,-0.056831
-0.23531,-0.60725,-0.21286,-0.23905,-0.094847,-0.062791,-0.016685,-0.1336
0.18566,0.56045,0.20643,0.022209,0.0074118,0.06205,0.42192,0.28302
-0.093288,-0.26017,-0.039168,0.23078,0.10079,0.0059809,-0.36607,-0.21467
-0.019037,0.16744,-0.19291,-0.066902,-0.049075,-0.012059,0.1893,0.098496
-0.19351,-0.3174,0.11967,-0.0042677,-0.028011,-0.015125,-0.24045,-0.13017
0.38409,0.2657,-0.1327,-0.12114,-0.023297,-0.01835,-0.022736,0.075188
-0.17509,0.16226,0.06612,0.097329,0.066923,0.08815,0.43618,0.18313
0.20944,-0.33666,0.40444,0.11135,-0.061702,-0.046748,-0.32443,-0.18877
-0.28784,0.23005,-0.4683,-0.17331,0.06773,0.006953,0.078671,-0.0083773
0.1793,0.54819,0.51146,0.079049,-0.013223,0.0072109,-0.049252,0.038107
-0.16839,-0.65887,-0.71778,-0.13144,-0.015241,-0.053809,-0.14507,-0.1494
0.23287,0.30032,0.26672,0.13313,0.046233,0.058091,0.10422,0.11021
-0.25719,-0.35914,0.098397,-0.056308,-0.1334,-0.079271,0.050423,0.044542
-0.022103,-0.13204,-0.089693,0.0040417,0.031788,0.033694,0.10746,0.021286
-0.024587,-0.058487,0.27252,0.017876,-0.005249,0.021512,-0.037716,0.016816
0.29518,0.56517,-0.19855,0.094921,0.13018,0.09464,0.098451,0.085018
0.34801,-0.056144,0.12079,-0.11631,-0.0076846,-0.052024,-0.18803,-0.10345
-0.14277,-0.029345,-0.23207,0.048031,0.01033,-0.020304,0.039714,-0.0030611
-0.72669,-0.6333,-0.063666,0.0094281,-0.11313,-0.091491,-0.14822,-0.22436
0.1182,0.53988,0.13198,-0.021675,0.051317,0.031492,0.053171,0.13812
0.25123,-0.025107,0.22827,-0.15511,-0.12923,-0.010328,0.089896,0.10749
0.056616,-0.14982,-0.29937,0.10097,0.095425,0.049172,-0.10749,-0.0661
-0.11156,0.17859,0.38453,0.19959,-0.032151,-0.031738,0.1336,0.016213
0.17163,0.45627,-0.27431,-0.156,0.051031,0.075369,0.055687,0.058167
-0.036085,-0.41467,0.038049,0.16745,0.15794,0.042455,-0.083642,-0.064594
0.033449,-0.11742,-0.20721,-0.27465,-0.12511,-0.036838,0.035231,0.039163
-0.12592,-0.29453,0.024429,-0.043871,-0.040072,-0.045526,0.059781,-0.044088
-0.091623,0.02297,0.017852,-0.014188,-0.063364,-0.069729,-0.10465,-0.056066
0.31573,0.63452,0.63591,0.50281,-0.0074633,0.070182,0.15859,0.26926
-0.41273,-0.72099,-1.025,-0.49232,0.08069,-0.06319,-0.31447,-0.3412
0.4714,0.75128,0.5912,0.16452,0.036856,0.046008,0.0081477,0.11278
-0.32275,-0.5364,0.12476,0.058659,-0.02208,-0.023847,-0.067658,-0.11873
0.046891,-0.12565,-0.52005,-0.17831,0.020647,0.04771,0.27198,0.17501
0.18844,0.52621,0.94237,0.31906,-0.05421,0.057516,0.10627,0.087233
-0.15656,-0.37636,-0.71104,-0.35746,-0.0049599,-0.041563,-0.064295,-0.039112
-0.11311,0.2436,0.030918,-0.10046,-0.011689,-0.031213,-0.16966,-0.11908
-0.079042,-0.06264,-0.1793,0.58067,0.11288,0.025573,0.093908,0.01821
0.063765,0.027987,0.24177,0.013131,-0.021837,-0.012236,0.061017,0.043884
0.27725,0.20509,0.3168,-0.55304,-0.14994,0.0036028,0.097516,0.06701
-0.0081114,-0.044389,-0.12505,0.1879,0.0494,-0.083064,-0.25065,-0.12308
-0.073157,-0.59143,-0.60462,-0.26207,0.014335,0.04064,0.047537,0.013508
0.17589,0.077953,0.10825,0.17769,0.04239,0.039346,-0.11676,-0.045378
-0.35497,0.35505,0.25182,0.095659,0.032509,-0.023837,-0.02363,-0.048311
-0.20523,-0.28877,-0.030003,-0.068692,-0.085372,0.0078247,0.14861,0.060634
0.3121,0.25189,0.24922,0.28713,0.094926,0.040794,0.026075,0.13371
-0.045823,0.13727,0.44146,-0.18088,-0.1301,-0.05007,0.03887,0.0067303
0.024818,-0.12945,-0.57157,0.33072,0.1452,0.031618,-0.055738,-0.12595
0.038462,-0.17949,-0.096831,-0.27354,-0.0095341,0.0351,0.22516,0.12459
0.32179,0.14301,0.050452,-0.1671,-0.10274,-0.040487,-0.018925,0.037553
-0.32983,-0.22689,-0.45268,-0.10073,0.0058185,-0.031872,-0.2198,-0.092175
-0.01918,0.2693,0.14157,0.035253,0.058232,0.013535,-0.16812,-0.17227
-0.043683,0.29085,0.5113,0.046866,-0.039011,0.0096419,0.19024,0.1561
-0.090417,0.036365,-0.063335,-0.13423,-0.08227,-0.027638,-0.097176,-0.13779
0.076522,-0.067532,0.12795,0.4549,0.14788,0.027389,0.080816,0.14288
0.24874,-0.56057,-0.079045,-0.2156,-0.066624,-0.0039772,0.00025691,0.055036
-0.015851,-0.36244,-0.2307,0.26869,0.079486,-0.011245,-0.054769,-0.10193
-0.22939,0.39889,0.15093,-0.24149,-0.061864,0.0066314,0.12915,0.018124
-0.20907,0.003368,-0.37714,-0.083881,0.025061,-0.0042452,-0.032324,-0.059587
-0.038598,0.20778,-0.030522,0.043791,-0.011437,0.019011,-0.085656,-0.029504
0.40784,0.11141,0.31936,0.021796,-0.04671,0.005994,0.13238,0.1941
0.059109,0.02989,0.027483,-0.13648,-0.010965,0.0030073,0.033939,0.016215
0.18622,0.080663,-0.028526,0.23921,0.07171,-0.0065257,-0.00067105,-0.02614
-0.09715,0.30828,0.4887,-0.53954,-0.27599,-0.023773,-0.11468,-0.013507
-0.20107,-0.67396,-0.63954,0.57398,0.35141,0.020406,-0.068042,-0.12785
-0.20691,0.29387,0.077715,0.19745,0.11727,0.03912,-0.026043,0.004184
-0.069718,-0.40846,-0.0023179,-0.36345,-0.13514,-0.054112,0.019011,-0.047819
0.16339,0.10857,-0.085427,0.041152,-0.023035,0.045386,0.18528,0.13053
-0.014052,0.088159,0.37252,-0.32134,-0.20993,-0.075898,-0.0098049,-0.014209
0.040979,-0.092134,-0.31843,0.37914,0.10222,-0.010691,-0.22806,-0.10523
0.0030688,-0.093377,0.24604,-0.0039177,-0.061465,0.007932,0.087425,0.039137
0.21039,-0.14793,-0.013381,-0.25015,-0.13666,-0.034355,0.00085309,0.08461
-0.054644,0.61901,-0.53467,0.26646,0.34693,0.11346,0.091219,0.032194
-0.1516,0.21207,0.34642,-0.01637,0.062054,0.01435,-0.040098,-0.094548
0.050855,-0.046685,0.45081,-0.16193,-0.13986,-0.02717,0.12131,0.094252
-0.035591,-0.34502,-0.70515,0.085857,0.083824,0.019339,-0.020297,-0.027864
0.25042,0.11323,0.2229,0.021308,-0.10477,-0.01145,-0.13137,-0.017407
-0.26538,-0.31965,0.41482,-0.26489,-0.11419,-0.042852,0.059257,0.014458
-0.0063745,0.16475,-0.49688,0.37255,0.13143,0.009765,-0.18446,-0.097708
-0.035318,-0.12107,0.31514,0.095028,0.028848,-0.018549,0.1601,0.028222
0.039475,-0.29004,-0.36899,0.088444,-0.00091304,0.02035,0.077556,0.040813
-0.061074,0.29854,0.56672,-0.58473,-0.25456,-0.068496,-0.24347,-0.10594
0.10334,0.09231,-0.5975,0.2727,0.22997,0.067381,0.17535,0.12845
-0.050359,0.023837,-0.010617,-0.046444,0.056084,-0.00044442,-0.046747,-0.027822
0.081675,0.30575,0.58537,-0.052584,-0.0943,0.0028114,0.01401,-0.018542
-0.014888,-0.5706,-0.37877,-0.16962,-0.078402,-0.038883,0.085605,0.048035
0.16002,0.61716,0.50529,0.22489,0.050765,0.07052,0.012521,-0.0072579
-0.10562,-0.14648,-0.5016,0.0017516,0.036243,-0.020374,-0.009944,0.018557
-0.1497,-0.20048,-0.20034,-0.0098826,0.026316,0.00050979,-0.1934,-0.11746
0.07229,-0.22992,-0.1415,0.20368,0.043271,-0.0083901,0.11727,0.11477
-0.090384,-0.13221,0.24899,-0.010684,-0.039827,-0.0092745,-0.0011643,0.0029221
0.1886,0.26509,0.0363,0.26234,0.12627,0.02776,-0.057872,-0.079278
0.0019521,0.29888,0.62761,-0.10151,-0.10906,0.031232,0.20383,0.14064
-0.16612,0.3619,-0.30637,-0.23334,-0.028657,-0.054318,-0.15431,-0.16592
-0.15095,-0.73731,-0.27653,-0.55101,-0.15661,-0.065048,-0.054436,-0.045706
0.20492,-0.00053101,0.15796,0.13217,-0.031564,0.015021,0.1443,0.13475
-0.018941,0.26813,0.078038,-0.29884,-0.035013,0.014862,-0.10428,-0.014102
0.17889,-0.55361,-0.57565,0.96496,0.3349,0.013755,-0.064777,-0.053535
0.198,0.32764,0.25581,0.069509,0.056711,0.067616,0.076495,0.072322
-0.43735,0.33887,0.27338,-0.26142,-0.094501,-0.0099888,-0.046547,-0.065316
-0.15635,-0.28061,-0.24229,-0.24282,-0.11763,-0.054256,0.13725,0.034035
0.18969,0.22325,0.24075,0.096057,-0.0043771,0.044515,0.073625,0.081336
0.14773,-0.053257,0.0054511,0.02886,0.0029991,-0.018439,-0.1124,-0.025371
0.061507,0.031425,0.0071795,0.16376,0.036862,-0.032586,-0.11652,-0.044581
-0.18631,-0.28112,-0.36105,-0.055939,0.0027999,0.017101,-0.009672,-0.10992
0.021229,0.1167,0.082594,-0.06987,0.040718,0.028399,0.035484,0.004392
-0.058439,-0.17611,-0.043147,-0.22348,-0.10787,-0.0070973,0.18221,0.1727
0.14448,0.47032,0.30152,0.091683,0.040822,-0.019505,-0.12495,-0.0038756
-0.15196,-0.38448,0.16331,-0.24174,-0.084015,-0.040298,-0.07414,-0.13496
0.082603,-0.079214,-0.19308,0.26095,0.14998,0.0555,0.099787,0.037196
-0.027864,0.3994,0.051333,0.21732,0.023615,-0.005427,0.013763,0.012709
0.023362,-0.17697,-0.25317,0.064917,0.0051783,-0.027588,-0.050947,-0.0050749
0.12596,-0.04368,-0.083901,-0.079635,-0.1714,-0.049903,-0.031535,0.02322
0.20122,0.041347,0.098267,-0.13929,0.087262,0.11516,0.03354,0.043288
-0.36796,-0.08502,0.32552,-0.12318,-0.047185,-0.024697,0.12169,0.0712
-0.19009,-0.084826,-0.41614,0.092488,0.10495,0.077192,-0.12545,-0.17379
0.064601,0.18562,0.11745,0.15551,0.036157,-0.048156,-0.050611,-0.019264
0.24208,0.60531,0.23288,-0.1371,-0.10455,-0.096191,-0.012294,-0.035041
-0.13974,-0.75089,-0.17781,0.082832,0.043083,0.026895,0.029067,0.11516
0.038215,-0.17513,0.12827,-0.13616,-0.074574,-0.053617,-0.012503,-0.037348
-0.012173,-0.50699,-0.25532,-0.37024,-0.081418,0.022109,0.088877,0.0070705
0.24791,0.80326,0.22511,0.65574,0.14848,0.074905,0.089731,0.14609
-0.12051,0.61569,0.083509,-0.58065,-0.15777,-0.035433,-0.042888,-0.066696
-0.033897,-0.66539,-0.3541,0.63142,0.26545,0.058481,-0.052922,-0.01526
0.02838,0.15061,0.1288,0.11882,0.026892,0.044063,0.11293,0.025989
-0.12382,-0.25578,0.16291,-0.28462,-0.11674,-0.071213,-0.17877,-0.1075
0.031041,0.31812,-0.17534,-0.049992,-0.026163,-0.037837,-0.15422,-0.12653
-0.16413,-0.30779,0.19888,-0.25725,-0.093279,-0.028187,0.086344,0.071251
0.13477,0.305,-0.12883,0.21014,0.11855,0.043287,0.037152,0.10426
-0.047496,-0.12886,-0.025134,-0.16263,-0.086231,-0.01111,0.12235,0.020756
0.10357,-0.25053,0.034838,0.15795,0.042796,0.019575,-0.0076507,-0.0061931
0.24647,0.41216,-0.0013809,-0.15305,-0.048059,-0.012907,-0.015721,-0.0071032
-0.20264,0.022538,0.095589,0.18904,0.056586,0.0089214,-0.0032722,0.025966
-0.062353,-0.58144,-0.14774,-0.094281,-0.040377,0.015062,-0.025922,-0.0011992
-0.12837,-0.23251,-0.095638,0.06867,0.044886,-0.0020257,0.047349,-0.081697
0.084204,0.56402,-0.0036859,0.029011,0.0081576,-0.018717,0.058032,0.048978
0.067442,0.034504,0.10581,0.073486,0.052366,0.027583,-0.11329,0.0069361
-0.046631,0.14311,0.31066,0.0029759,-0.034248,-0.011555,0.10199,0.041366
0.13121,0.028327,-0.25039,0.047288,0.028304,-0.034619,-0.297,-0.16846
-0.057164,-0.11421,0.052271,-0.24328,-0.073898,0.012989,0.11958,0.049358
-0.12175,-0.061944,-0.18392,0.042028,-0.045251,-0.017276,0.063721,0.031111
-0.041318,0.2568,0.11483,-0.01232,0.0587,0.046339,-0.0097492,0.019561
0.30725,-0.023795,0.077524,0.000599,0.0111,0.024014,0.10422,0.085616
0.032022,-0.22793,0.20936,0.028826,-0.023682,-0.014074,0.040193,0.042267
-0.32056,-0.19853,-0.31871,-0.18118,-0.076095,-0.068058,-0.16151,-0.14924
-0.046815,-0.12395,-0.23225,0.33648,0.14402,0.010383,-0.00030653,-0.027868
0.0031992,0.38425,0.018301,-0.3744,-0.080931,0.018031,0.039271,-0.0077087
0.12862,-0.13135,0.19466,0.29133,0.0078259,0.02513,0.065815,0.090785
0.035228,-0.10078,0.058954,0.015126,0.03589,0.0082044,-0.054713,-0.021623
0.20223,-0.015061,0.19319,0.093581,0.026845,0.021946,0.043463,0.10804
-0.27436,-0.092929,-0.2046,-0.0067273,-0.0039671,-0.066393,-0.14878,-0.22343
-0.04136,0.15416,-0.039497,-0.12524,-0.025885,0.024592,0.14886,0.1012
0.26924,0.31864,0.32084,0.030893,-0.0083708,0.0060878,0.10789,0.16808
-0.24096,0.25231,-0.34416,-0.18265,-0.037999,-0.043441,-0.22455,-0.22552
0.028845,-0.15998,0.040949,0.090828,0.025451,0.032639,-0.0037971,0.053735
-0.039919,-0.21763,-0.081422,-0.032745,-0.013421,0.00031588,-0.025363,-0.056089
0.019573,0.18375,-0.018538,-0.34225,-0.04502,0.016105,0.063834,0.0080003
0.2441,-0.57031,0.4075,0.57772,0.071723,-0.037084,0.062005,0.10563
-0.32187,-0.068877,-0.36653,0.057319,0.056088,0.051573,0.01684,-0.0054927
0.15531,0.016451,0.066008,-0.19031,-0.083639,-0.038559,-0.063768,-0.068097
0.1738,0.33833,0.019044,0.19616,0.12158,0.043592,0.06948,0.073158
-0.2284,0.4594,-0.067775,-0.61002,-0.25789,-0.038489,0.040237,0.018693
0.1049,-0.42977,0.05801,0.28242,0.14489,0.0037031,-0.059437,-0.029502
-0.11426,-0.35548,-0.13257,0.10773,0.079417,0.036929,0.018808,0.005825
0.038119,0.58634,0.12773,0.1619,-0.0018465,-0.040586,-0.10127,-0.07104
-0.1773,-0.39587,0.08956,-0.18938,-0.060576,-0.010039,-0.013963,-0.048975
0.062831,0.10836,0.1118,0.075511,-0.034924,-0.011752,0.046566,0.049318
0.034497,0.17194,-0.15083,-0.10774,-0.026892,-0.0061682,-0.067209,-0.025056
0.13761,-0.16519,-0.020864,0.13445,0.088403,0.038535,0.036665,0.02598
0.12995,0.4166,-0.024206,0.0045662,0.029952,0.021323,0.070535,0.070606
-0.18537,-0.71725,-0.15527,-0.22369,-0.12354,-0.041809,0.051181,-0.015628
0.24349,0.64195,0.30307,-0.072554,0.019364,0.044596,-0.020729,0.071954
-0.23536,-0.55473,-0.18123,0.24896,0.061162,-0.032058,-0.0044753,-0.073424
0.015446,0.14436,-0.053422,-0.21003,-0.012907,0.056065,-0.0020275,0.04738
-0.014177,0.34018,0.054377,0.45883,0.047801,-0.035192,-0.076613,-0.09001
-0.090608,-0.55294,-0.052043,-0.30539,-0.1158,-0.064068,0.013133,-0.033236
-0.041014,0.25498,0.16756,-0.0098364,-0.0038527,-0.0074829,-0.030376,-0.024896
-0.081705,0.15583,-0.082673,-0.084477,0.086194,0.04838,0.018941,0.020943
0.19692,0.080527,0.24485,0.1101,0.067478,0.033095,0.0046304,0.073378
-0.10792,-0.17309,-0.23222,0.040745,-0.068924,-0.029894,0.075161,0.00015983
0.35042,0.22362,0.15047,0.033335,0.050913,0.054825,-0.034903,0.067532
-0.082609,-0.46371,-0.27865,-0.031479,-0.073809,-0.040697,-0.02842,-0.059894
0.12456,0.014444,-0.14421,-0.085032,-0.02154,-0.019356,0.071446,0.032348
-0.33374,0.25093,0.17918,0.20785,-0.03422,-0.044959,-0.039745,-0.093011
-0.22505,0.11162,0.004216,-0.34002,-0.048564,0.0077433,-0.080542,-0.076532
0.16691,-0.17855,0.22129,0.13214,0.14751,0.068634,0.042953,0.073865
0.097389,-0.043195,0.032723,-0.17033,-0.06974,-0.018441,-0.020734,0.05321
0.25935,0.45358,-0.094047,0.25516,0.11326,0.0668,0.079978,0.064182
-0.22408,-0.46276,-0.12937,-0.081143,-0.10749,-0.082032,0.079412,0.0046437
0.028682,0.074716,0.042528,0.033439,0.018171,-0.0042101,-0.17879,-0.086955
-0.15469,-0.01909,0.022425,0.15434,0.021132,0.0031818,0.078685,-0.0080202
0.030887,-0.21873,0.20124,-0.031289,0.088156,0.025934,-0.077996,-0.040133
0.13351,0.39286,-0.1929,-0.048171,-0.070741,-0.029742,-0.0083201,0.027599
-0.055894,0.11618,-0.14164,-0.054409,-0.050178,-0.007512,0.06106,-0.015503
0.0822,-0.44355,-0.15714,-0.20826,-0.069523,0.030312,0.10664,0.12796
-0.074707,0.084002,-0.071825,0.066601,0.035026,0.021483,-0.043465,-0.072575
0.014823,-0.26794,0.34358,0.073508,0.052634,-0.041551,0.0014216,-0.014782
-0.11602,0.43855,0.16833,0.13974,0.0070979,-0.010141,-0.14132,-0.049521
0.010555,0.31152,0.40934,0.077392,0.023872,0.022078,0.036449,0.042506
0.04322,-0.10506,-0.62379,-0.26983,-0.037286,-0.007413,-0.0038781,-0.019647
0.074868,-0.049516,0.18177,0.11387,0.05037,0.065289,0.066299,0.076526
0.025419,-0.64326,-0.39765,-0.083724,-0.088246,-0.088227,-0.002638,-0.036468
0.048296,0.33661,0.22714,0.083021,0.046527,0.023851,0.0004069,-0.023265
0.11676,0.15327,0.076309,-0.23714,-0.030208,0.018311,0.036222,0.10757
-0.3193,-0.25664,0.031182,0.41703,0.079416,-0.019272,-0.044109,-0.13697
-0.11406,0.25607,-0.18898,-0.047825,-6.8322e-05,0.012405,-0.061651,-0.031069
0.28559,0.10752,0.11344,0.032938,0.028008,0.027297,0.045175,0.073109
-0.058103,-0.13691,0.051426,-0.21475,-0.12525,-0.052647,0.033247,-0.020131
-0.042542,-0.20843,-0.2302,-0.039508,-0.02956,0.015015,0.026783,0.017186
-0.071849,0.10668,0.29606,-0.064632,-0.019951,-0.0036913,0.0096886,0.044512
0.10681,-0.16625,-0.2026,-0.061779,0.10778,0.0010939,-0.064947,-0.0081678
0.059019,0.31716,0.18185,0.048555,-0.028188,-0.0092099,-0.056037,-0.015356
-0.095182,-0.076667,-0.20675,0.1731,0.064961,0.028286,-0.0017263,-0.038867
0.076144,0.38465,0.37234,0.14701,-0.050166,0.0044228,0.075792,0.0002544
-0.11312,-0.13748,-0.16939,0.038458,0.024385,-0.018298,-0.0018181,-0.022092
0.0092872,-0.49727,-0.0069067,-0.0072635,0.022002,-0.016657,-0.030231,0.035572
0.17723,0.23315,-0.1118,-0.032767,0.035151,0.040198,-0.0008212,-0.021401
-0.024601,0.0063883,0.084261,-0.4318,-0.1484,0.01115,0.1023,0.080766
0.0036509,-0.075004,-0.22412,0.16085,0.064069,-0.010537,-0.096244,-0.064256
-0.2242,-0.14948,0.1121,0.15113,0.04706,-0.017426,-0.011427,-0.019495
-0.10824,0.019988,-0.13206,-0.13144,-0.09776,-0.056572,-0.011765,0.011001
0.3268,0.076261,0.12352,-0.12937,0.0053138,0.043948,0.25283,0.14325
-0.084025,0.10622,0.0055905,0.2156,-0.017575,-0.012477,-0.27366,-0.1396
0.05723,0.50741,0.33538,0.19614,0.092716,0.048003,0.040639,0.059848
-0.069935,-0.21512,0.011163,-0.16141,0.017113,-0.02415,-0.062419,-0.09499
0.0032548,-0.39364,-0.3667,-0.066285,-0.0013022,-0.0097719,0.07375,0.028583
-0.0042991,0.24856,0.21562,-0.049509,-0.11058,-0.010144,0.051649,0.032579
-0.16268,-0.35484,-0.27497,0.08307,0.11101,0.037336,-0.096118,-0.097703
0.29398,0.35657,0.12896,0.18078,-0.024692,0.0075804,0.061643,0.099877
-0.15743,-0.17154,0.075483,0.092412,0.051672,-0.021527,-0.051837,-0.03752
0.085001,-0.092524,-0.31751,-0.52853,-0.098469,-0.019071,0.056573,0.037967
0.099908,0.27059,0.31877,0.25329,0.05518,0.030215,0.043465,0.053446
-0.15888,-0.2711,-0.083853,-0.14142,-0.07398,-0.022413,-0.044618,-0.045772
-0.12013,-0.42986,-0.03887,0.084099,-0.0096686,-0.044356,-0.091445,-0.088345
0.10005,0.72157,0.20538,0.14162,0.084156,0.065849,0.081262,0.08103
-0.15358,0.069116,-0.069029,-0.16272,-0.081177,-0.0042993,0.15159,0.070571
0.10409,-0.012018,-0.12013,0.055553,0.072998,-0.020354,-0.16321,-0.097415
0.11541,-0.22768,-0.13658,0.094805,0.03159,0.0099836,-0.01263,-0.001927
0.21572,0.22172,0.3563,-0.020495,-0.056555,0.016519,0.056013,0.05973
-0.30723,-0.19365,-0.049909,0.10075,0.02753,-0.031884,-0.14445,-0.1389
0.091623,-0.050441,-0.091583,-0.30715,-0.052062,0.013314,0.090116,0.098098
0.074421,0.068136,-0.059119,0.17729,0.079565,0.027217,-0.027821,-0.0095035
-0.21976,-0.10636,0.04716,-0.055879,-0.038676,-0.036938,0.034695,-0.023014
0.067691,-0.027171,-0.22502,0.11004,-0.016272,0.0084845,0.052652,-0.011604
-0.023939,0.042552,0.1575,-0.15335,-0.056347,-0.023855,-0.019739,0.088096
0.17069,-0.049006,0.2677,0.16176,0.11467,0.061528,0.036704,0.010897
-0.1823,-0.030827,-0.36813,-0.11619,-0.065454,-0.047698,-0.067367,-0.040129
-0.080431,0.016345,0.088391,-0.12732,-0.065154,-0.038907,-0.035995,-0.065489
0.11141,0.5105,-0.048731,0.32426,0.14713,0.087961,0.13728,0.090232
0.13705,-0.2183,0.21281,-0.22977,-0.04559,-0.003068,-0.088138,-0.011463
-0.21393,-0.30329,-0.0581,0.0076465,-0.033894,-0.054321,-0.026191,-0.09812
0.10455,0.088909,0.11226,0.10657,-0.028887,-0.019161,-0.052994,0.0091252
0.34826,0.16499,-0.22527,0.027215,0.086258,0.094284,0.096458,0.10659
-0.26693,0.013559,0.31573,-0.12997,-0.063982,-0.042464,0.047111,0.0065218
-0.22075,-0.39403,-0.45608,0.047673,0.0041526,-0.062577,-0.091161,-0.10352
0.17931,0.39084,0.073728,0.0039598,0.063479,0.04144,0.018531,0.050226
0.040842,-0.22103,0.31018,0.050064,-0.042781,0.019346,-0.028817,-0.00046352
-0.17564,0.14377,-0.26177,-0.010265,-0.041537,-0.003992,-0.036557,-0.067451
0.023113,-0.038035,0.21954,-0.099247,0.020242,0.026119,0.082471,0.06867
0.022208,-0.24903,-0.31257,0.064732,0.041181,-0.015158,0.094807,0.088179
0.043483,0.16235,0.13066,0.014009,-0.017327,-0.018121,-0.084997,-0.094395
0.074553,0.44236,-0.024471,-0.01534,0.0016359,-0.013552,-0.050683,0.0056292
-0.053704,-0.20911,0.038252,-0.005609,-0.033968,-0.024338,0.0098026,0.0055772
-0.0036223,-0.11557,0.16494,0.053152,0.01724,0.020368,0.033143,-0.039892
-0.1342,-0.53057,-0.22971,-0.22006,-0.055092,-0.027472,-0.067677,-0.068478
