-0.011507,-0.0028749,-0.013889,-0.0056901,-0.0013126,-0.00248,0.0022269,-0.0019426
-0.0031332,-0.002554,0.0094943,0.0013588,-0.0013477,-0.010378,0.0018738,-0.010853
-0.0029876,-0.0022581,0.0015486,0.00061731,-0.0010567,-0.010553,0.0009238,0.011449
0.0046675,-0.0096714,-0.01425,2.4759e-05,-0.0082786,0.0048794,-0.0083612,-0.0051778
-0.0034127,0.014404,0.0090239,0.0075181,0.0081907,0.0047549,-0.002411,0.0097281
0.012053,0.0232,0.0011061,-0.00024248,0.0092248,0.0047758,0.01115,-0.0062267
0.0043761,-0.0066708,0.0010951,-0.0075819,-0.0052552,0.012797,0.0013045,0.0016955
-0.0028981,-0.02836,0.001189,-0.0066993,-0.0040874,-0.0024389,-0.0082536,-0.0055784
0.0058575,0.0048977,0.0013663,0.010139,-0.0029862,-0.0097379,-0.0016472,0.0031326
-0.00070862,-0.0086443,-0.0062399,0.0037324,-0.0020339,-0.0091927,-0.0099152,0.0042731
-0.014965,0.016706,-0.0060849,-0.002666,0.0065157,0.006902,0.0061364,-0.010122
0.0019312,0.01817,0.017362,0.0063691,0.0069926,-0.00061526,-0.00035005,0.0066549
0.010706,-0.0045309,0.0015111,-0.00059567,-0.00062188,-0.00056627,0.017383,-0.00024926
-0.0044297,-0.012564,-0.014647,-0.0080673,-0.016318,0.0070158,-0.003414,0.0080893
-0.0044991,0.0095557,0.0001023,-0.00047509,0.0068144,-0.0012969,0.0072173,-0.0074857
-0.0051262,-0.016303,0.0067084,-0.0090329,-0.0014771,-0.0020177,0.002,-0.00013165
0.0015837,-0.011877,-0.010396,-0.0023716,0.0057544,-0.010692,-0.019446,-0.0010608
0.00014661,0.0074875,0.011388,0.011874,0.005147,0.0040254,-0.0027219,-0.010166
0.014169,-0.0047092,-0.0059427,0.0026515,-0.011044,0.010981,-0.0026566,0.011779
-0.0030579,0.022261,0.0002442,0.0013916,0.0041063,-0.00537,-0.0035971,-0.0053419
0.003288,0.010663,-0.0011812,0.00041172,-0.0040592,0.0018989,0.01027,0.0089856
-0.013577,-0.015756,0.013316,-0.00022409,0.0035287,0.0015564,0.0001904,0.00024951
-0.006738,-0.0021174,-0.0030688,-0.00051664,0.0034209,-0.0064098,0.0055949,-0.0079886
0.015992,-0.010858,-0.011231,-0.000515,0.0034065,0.0014031,0.003409,-0.0078608
-0.00010709,0.012653,0.0044784,-0.00029104,-0.0043512,0.0093253,-0.0060678,0.016239
0.0074185,0.021395,0.01282,8.7042e-05,-0.0042426,-0.013935,0.00079618,0.0017198
-0.008348,-0.031707,-0.017454,-0.0072381,0.0037332,0.0019062,-0.0071822,-0.004686
-0.0083669,0.0093801,-0.0082303,0.0011566,-0.0038434,0.0099646,0.0011868,0.004659
-0.00044725,-0.011796,0.001389,-0.0059699,-0.0035069,-0.005375,0.010109,-0.0094852
-0.00018832,0.0061593,0.0035083,0.0026447,-0.0030468,0.0027855,0.0037177,-0.0082115
0.00025543,0.00061803,0.01361,0.0035551,0.0053508,-0.012403,-0.010449,0.0083658
0.00090208,0.0027334,0.00023588,0.0045243,0.006025,-0.0040517,0.0064196,-0.0066935
0.0095453,0.0046163,0.010007,0.021079,0.0067104,0.012205,-0.0083684,0.0090948
0.0026782,0.0061983,-0.0042184,-0.0094188,-0.00051696,0.012888,-0.00022124,0.016696
-0.004193,-0.016023,-0.0036063,-0.0089928,-0.00015472,-0.0020765,-0.00037821,-0.0072658
0.0044063,0.016022,-0.011728,-0.016831,-0.0079297,-0.001532,-0.0009178,-0.015823
-0.0029254,0.0085429,-0.0051474,0.00606,-0.008266,-0.0090067,-0.0016612,0.0067584
-0.010679,-0.04628,-0.014968,-0.0028088,-0.0011386,-0.0089413,0.0054112,-0.017526
0.0045342,0.015646,0.013772,0.0035284,0.0057442,0.0064543,0.004864,0.0051848
0.0036895,0.030333,0.026738,0.02523,0.0047377,-0.0018546,-0.003171,0.020289
-0.013089,-0.017735,-0.022575,-0.023443,-0.0039577,-0.0025474,-0.0030213,-0.0034219
0.0090791,0.0043885,0.0067733,0.0061623,0.0032881,0.012285,0.0052684,0.0043584
0.00010643,-0.004718,0.0056216,-0.0029444,-0.0046312,-0.0041319,-0.0018642,-0.0032978
-0.00072748,-0.013669,-0.010325,0.0040869,0.0035973,0.0029766,0.0066553,-0.0030335
-0.0010684,0.016709,0.013567,-0.0038853,0.0045004,0.0024222,-0.00060942,-0.010559
0.0069824,0.00055405,-0.00098972,0.0044316,-0.0098682,0.0020523,-0.0081877,0.0053058
0.0077916,-0.0074186,-0.0073535,-0.010054,0.014968,-0.013744,-0.0083537,-0.0023533
0.0012631,0.0083955,-0.0057742,-0.00056868,0.0006301,0.0019108,0.006706,-0.0022958
-0.012765,0.0010575,-0.0042857,0.0092824,-0.014065,0.0021366,-0.0019827,-0.0023214
-0.011048,0.0095352,0.012578,0.0036547,0.0019384,-0.0052632,-0.0030143,0.013216
0.0062246,-0.028779,-0.0099491,-0.0020748,0.0094795,0.0031307,0.011611,0.013082
-0.00016993,0.0031973,-0.001557,-0.00033834,-0.014862,0.0038465,-0.0048046,-0.010528
0.00872,0.0038144,0.014376,0.00084676,-0.00064045,0.012454,-0.0052563,-0.010741
0.0015865,0.012071,-0.0011198,0.0013508,0.0054953,-0.010186,0.010312,0.0046319
-0.0059526,0.0044933,-0.0088813,-0.0066675,-0.0039923,-0.0016627,0.010622,-0.011271
0.0017629,-0.0033018,-0.0010139,-0.0075012,0.0024167,-0.0011282,-0.012237,0.011891
0.0013621,-0.0034799,-0.00090703,-0.00096921,0.0093098,-0.0086575,-0.0037265,-0.0039659
-0.0070702,-0.011615,0.0070705,0.005365,0.0011754,0.0069524,-0.0030727,-0.0041084
-6.9087e-06,0.011434,0.015075,0.011771,-0.0063669,0.0066279,-0.0026104,0.0115
0.007008,-0.0045571,-0.0082012,-0.012761,0.0021889,-0.0017901,-0.0024445,0.0038145
-0.0015887,-0.012625,-0.023757,0.0022434,0.0032,-0.0026117,0.013002,-0.0037339
-0.0023234,0.002914,0.007423,0.0021531,-0.0035796,0.0042596,0.0046802,-0.0033618
0.0048151,0.018637,0.0071949,0.01035,0.0050522,-0.0044969,-0.0039021,-0.01074
0.0041942,0.0032519,0.0068274,0.0032458,-0.010143,-0.0053194,-0.0048149,0.0053296
-0.0042006,0.0035441,-0.0014398,-0.01155,-0.0023735,-0.0059071,-0.0057217,0.0057305
-0.0047521,-0.0040376,-0.0097182,0.0048197,0.0049464,0.0094486,0.0013498,-0.0017718
-0.0052641,-0.011782,-0.0022979,-0.0024855,-0.011503,0.0095353,0.00092152,0.0062226
0.0021046,-0.0041166,-0.0025396,-0.01009,0.0031478,-0.005665,0.00091332,-0.0093732
0.0095849,0.003356,0.02086,-0.002326,0.010035,0.0028391,0.0013705,0.0061206
-0.0062149,-0.0048897,-0.0023951,-0.0024958,0.0093314,0.0036878,0.010075,-0.0019711
0.0016112,-0.0052601,-0.0098258,-0.0026034,-0.0066679,-0.011057,-0.0043313,-0.002365
-0.013811,0.0024178,-0.0014904,0.013152,-0.0066863,-0.002447,-0.010767,-0.0028211
0.01779,0.010472,-0.0009107,0.0058211,0.0092245,0.0059995,0.0061882,0.0045383
0.0025859,0.011155,-0.00037131,0.0066611,0.0018944,-0.0013769,0.0072711,0.0041569
0.0029678,0.0044331,0.0078436,-5.8511e-05,-0.0053687,-0.0011269,0.00013324,-0.0039061
-0.0046141,0.0058006,0.00021236,0.0010898,-0.0048683,-0.0088296,0.00031174,-0.0039879
-0.0046224,-0.03182,-0.0077019,-0.0057594,-0.0044911,0.0068245,-0.015627,-0.0038955
0.0029082,0.00071747,-0.00030643,-0.013015,-0.0042554,0.0068227,-0.008524,0.0041504
-0.0054252,-0.006177,-0.001037,-0.0051981,0.0036849,-0.0010005,0.0061613,0.004454
-0.013895,0.017649,0.013581,-0.0057795,0.011585,0.0067778,0.0051895,0.0047297
0.0010834,0.0017994,-0.0032564,0.016579,-0.003916,-0.0011387,0.012181,0.0048726
0.01623,0.0087739,-0.0045755,0.0073785,0.011928,-0.0091873,0.0038233,0.0047984
0.00041538,-0.0082213,-0.0058817,0.005935,-0.01117,-0.0096106,-0.0042167,-0.018966
0.00056536,-0.017786,-0.0070488,-0.010925,-0.002914,0.01319,-0.011985,-0.0038852
0.0010186,0.0037157,0.0076655,-0.019539,-0.0024188,-0.003269,0.011654,-0.0045424
0.0094746,0.017446,0.0071009,0.0036765,-0.0019508,0.0035801,-0.0037628,-0.005155
0.010153,0.00018789,-0.00088119,0.019693,0.0062127,-0.0052156,-0.003691,0.010072
-0.020533,-0.0088087,0.0071576,0.0049906,0.0063619,0.0017315,0.0039555,0.010022
-0.012363,-0.0015991,-7.502e-05,-0.0015583,-0.0015665,0.001128,-0.012106,0.0025639
-0.0044028,-0.0015623,-0.0070261,0.0076032,-0.0019746,-0.0069013,0.010667,0.011093
-0.0043731,-0.00090968,-0.0059674,-0.014669,-0.010467,0.0089761,-0.0057397,-0.011403
0.011322,0.0080657,-0.004793,-0.0060987,0.0042758,-0.005905,0.0013219,0.0051923
0.0037953,0.0017512,-0.0035749,0.0019333,0.0033099,0.010908,0.00075461,-0.0096372
0.012246,-0.0044502,0.013247,-0.014026,0.0024082,-0.0031979,-0.0073217,-0.0091739
0.0054715,0.012662,-0.0012716,0.00080465,-0.0060844,-0.0015133,0.0084012,0.006513
-0.00096386,-0.0096247,-0.00033495,0.007532,0.0092213,0.00014321,0.016657,-0.0094158
-0.015038,-0.0089679,0.015961,0.014163,-0.01408,-0.014049,0.0017382,-0.002145
0.0020779,-0.0088766,-0.014984,0.0052439,0.0021629,0.010428,-0.0052315,0.012884
-0.0045614,0.014109,0.00049095,-0.0034884,0.011022,0.0031367,-0.020008,-0.0032031
0.0038796,-0.0024,-0.00016349,0.0036335,-0.0032651,-0.0047398,-0.0036342,0.012238
-0.0040054,0.012089,0.0065036,-0.0046557,-0.0018399,0.010235,-0.0030383,0.0045819
-0.0048367,-0.012518,-0.01848,-0.012776,0.007241,-0.0065639,0.0052126,-0.010575
0.0092476,0.0021312,-0.0046328,-0.0051471,0.00029846,-0.0081427,0.0055237,-0.0020937
0.01496,0.024991,0.032647,0.010398,0.00057644,0.0056617,0.013559,-0.0013858
-0.010905,-0.029721,-0.015762,-0.013008,-0.0076537,0.0037885,0.0059032,-0.00081029
-0.0055642,-0.013487,-0.0089925,0.018416,-0.016566,-0.0057563,-0.0096335,0.0073028
-0.0077763,0.003373,0.0062615,-0.0046773,0.013039,0.008453,-0.0018286,-0.008381
-0.0016345,0.0051195,-0.0089763,-0.0041575,-0.0045391,-0.0081354,-0.0097795,-0.0088116
0.013082,0.022788,0.0077594,0.012128,0.0091262,-0.0085664,-0.00226,0.0060668
-0.0025643,0.0092054,0.0094342,-0.010589,-0.0003451,0.014988,0.0051071,0.0051114
-0.0016955,0.010914,0.0035965,0.013514,-0.0014417,0.0077889,0.0045432,0.0040791
0.015566,-0.027083,0.0055477,-0.0094398,0.0060071,-0.00683,-0.0038919,-0.0047124
-0.0057011,-0.019063,-0.0084698,-0.0014338,-0.0013822,-0.0055732,0.0033126,0.010095
-0.011117,-0.0041582,0.00035814,-0.001592,-0.00023884,0.0035924,-0.0050232,-0.0061119
0.0067968,0.0021041,-0.0071512,0.0057168,-0.0063592,-0.010728,0.0024036,0.0013969
-0.0069537,-2.8997e-05,-0.02315,-0.010679,0.0034493,0.006037,0.0099948,-0.006427
0.0020856,0.021037,-0.0083951,-0.0037694,-0.0023417,-0.00088251,-0.0056874,0.0016609
0.0025364,0.010988,0.021767,0.003174,-0.00056482,-0.00028271,0.0022106,-0.013423
-0.0056135,-0.0064095,0.020764,0.0024922,0.00074288,0.0078188,-0.0054046,0.002972
0.0011695,-0.0074793,-0.0033409,0.0021023,0.0092434,-1.2674e-05,-0.0051246,0.011724
-0.0003733,8.1788e-05,0.0042805,0.017657,-0.0063723,-0.00032278,0.003031,0.012749
-0.0022038,-0.0071722,0.0045699,-0.0055848,-0.007006,-0.0087087,-0.0043843,-0.0018717
0.011536,0.0018922,-0.018217,-0.0052465,-0.00034869,-0.0016939,0.0038757,-0.0088173
0.0019899,0.0036401,0.0060329,0.002893,-0.0018405,0.012962,0.012179,-0.0081957
-0.0072489,-0.002172,-0.016655,-0.012559,0.012174,-0.0037371,-0.010744,-8.3638e-05
0.0073525,0.0076378,0.0072773,-0.0048191,-0.0049646,0.0029801,0.0053878,-0.00013518
-0.008856,-0.0062273,-0.00041113,0.0026605,0.0094288,-0.013668,-0.0019712,0.0072997
-0.0090092,0.0029226,0.0071319,0.0099455,-0.0070168,0.0011027,-0.0016167,-0.0011423
0.0068503,0.003722,0.0065388,-0.0062712,-0.0073638,0.00050586,-0.0013974,-0.0019149
0.0074108,-0.01949,-0.017674,0.0010496,0.00057063,0.0080433,-0.0013278,-0.0027076
0.00041591,0.019265,0.012796,0.0086306,0.0089096,0.0081178,0.0064185,0.0044084
0.0014222,-0.020533,-0.019059,-0.0068443,-0.005893,-0.0071002,-0.0015528,0.0039003
-0.01307,0.0096978,0.011899,0.0015557,0.0029047,-0.0064216,-0.0017389,-0.0041758
0.0037613,0.0085526,0.011993,0.0025584,-0.0038954,-0.0055671,-0.017503,0.0036339
0.0049933,0.015242,0.012465,0.003877,0.020467,0.018786,0.01372,-0.0039403
-0.0094185,-0.016987,-0.025834,-0.018088,-0.017833,-0.0037893,0.0060298,-0.0035083
0.015164,0.0057034,0.0063331,0.0067764,-0.0016348,-0.0030762,0.0063001,0.0048658
-0.0072528,-0.018194,-0.0083851,0.0079481,-0.0090378,-0.010386,-0.0011399,-0.0023258
0.0013887,-0.0027205,0.00016995,0.00086752,-0.0087338,-0.0023016,-0.00074483,-0.0017143
-0.0058566,0.013048,0.016257,0.0088424,0.01497,0.0055749,-0.016048,0.0066391
0.010009,-0.010006,-0.0070616,-0.015052,0.0074344,0.013298,-0.00026269,-0.00075535
-0.005747,0.013958,-0.0072861,-0.0082706,0.01554,-0.0024952,0.0074868,-0.016127
0.0015494,-0.0011378,-0.0078014,0.0058884,-0.0076295,-0.010475,0.0071806,0.015179
0.0084914,0.014854,0.014922,0.0042024,0.00034789,0.0050554,-0.0011543,-0.00060821
-0.016093,-0.00072824,0.0063057,-0.0052605,-0.0153,-0.0027241,-0.0018221,0.0068128
-0.0017715,-0.016758,-0.010105,0.0011886,-0.007758,-0.002533,-0.010343,-0.0016136
-0.0030843,-0.017657,0.004836,-0.0074992,0.0073371,0.0056308,0.012467,-0.010234
0.011368,0.0044336,-0.011318,0.015665,-0.0012191,-0.0016987,-0.011399,-0.0033706
0.010459,0.010593,0.01176,0.016001,-0.0020846,0.0066716,-0.003726,0.0034287
-0.013545,0.0088483,0.0037392,-0.0065867,0.012667,-0.0084009,0.012091,0.0024435
0.0018689,-0.0083701,-0.01199,-0.02102,-0.0037317,-0.0079466,-0.0030347,-0.006231
0.0097787,-0.0017716,0.0035731,0.0037391,0.00348,0.0079412,0.013311,0.0087377
-0.0055378,0.0053752,-0.0043252,-0.0028252,0.0030794,0.0079352,-0.0015107,0.0083452
-0.0051437,0.0053379,0.01113,0.005999,-0.012767,0.0076157,-0.00078729,0.00043227
0.0030207,-0.0019034,-0.0047926,-0.0011364,0.010574,-0.0086385,-0.01592,-0.015001
-0.012402,-0.0008372,0.0025702,-0.00082169,0.0027171,-0.0017019,-0.0079565,0.0010882
0.0032069,-0.015084,-0.021468,-0.00083452,-0.020778,-0.018327,0.0074347,0.0017921
0.018574,0.017636,0.024681,0.0067177,0.010357,0.004152,0.0068395,0.0026976
-0.0053396,-0.012269,0.0004402,-0.0014989,-0.0054541,0.0034172,-0.0018476,-0.0040524
-0.0059662,0.0043939,-0.0081832,-0.00194,0.0099287,0.0030609,0.0049296,-0.0028878
0.0089822,0.020637,0.006708,0.0054864,0.0096664,0.010983,0.0038654,-0.0016926
-0.015061,-0.026072,-0.0094776,-0.010404,-0.0061963,0.0037401,0.0028957,0.015066
0.00015475,-0.0028604,-0.0019547,0.0051102,-0.014181,-0.0031547,-0.013505,0.0082177
-0.0077655,0.0044693,0.0059272,-0.010474,-0.0064489,-0.0098968,-0.0062066,-0.014541
0.015931,0.0039176,-0.0013959,0.013121,0.0091914,0.0067097,0.0013815,-0.0064376
0.0087482,0.011312,-0.00046957,0.0055206,0.017092,-0.00044617,0.0014356,0.001213
-0.0059387,-0.012235,-0.0069611,-0.0021008,0.0015843,-0.00029211,0.017345,0.0083989
0.0029954,-0.0041161,0.010271,-0.0098213,-0.0061375,-0.0085308,0.0021562,-0.00045028
-0.011489,-0.0033827,0.0041808,-0.0020784,-0.006119,0.0061309,0.0026553,-0.0095912
0.012937,0.0054898,-0.002007,0.0054684,0.0016219,-0.010835,-0.020302,0.0045823
-0.017624,0.006672,0.0071084,-0.002804,-0.014142,0.0033193,-0.0042686,-0.0046116
0.0061117,0.015511,-0.0077295,0.0043937,-0.0064762,0.0020013,-0.0039461,0.0020761
-0.0018125,-0.0073533,-0.0075813,0.0036957,0.016891,0.0010989,0.0041264,0.0013546
0.013344,0.0081396,-0.00028052,-0.0048045,0.0013518,0.0086105,0.012182,0.0011183
-0.010804,-0.024084,-0.0013588,-0.0053793,0.0094537,0.0011695,0.0046416,0.0091835
-0.0037924,-0.002433,0.0050066,0.0020666,-0.0056776,0.0021555,-0.0028425,0.009856
0.0032864,-0.012634,-0.0043518,0.0019818,0.0027839,-0.0042299,0.0053521,-0.012611
-0.0050595,0.0081796,0.0021106,0.0022164,0.0035053,-0.0026131,-0.009869,-0.011487
0.010314,0.005779,0.0012217,-0.0050489,-0.0036028,-0.0088965,-0.0094942,-0.0025297
0.0025456,0.0040587,0.00098196,0.011383,-0.018608,0.015733,0.0064207,-0.0014629
0.0028329,0.0033795,0.0092806,-0.003267,0.0053397,-0.007023,-0.001234,0.015097
-0.0045538,0.003928,-0.0051788,-0.0022417,-0.0020501,-0.0069248,0.006575,-0.0075496
0.0036947,0.0056768,0.0043209,-0.0091021,-0.0016576,0.00044107,0.0064037,0.0009221
-0.011602,0.00057674,-0.0093326,-0.00052051,0.014398,-0.0082321,-0.0095429,0.0092837
-0.0036485,0.0038563,0.0082759,0.015611,0.0071056,0.01412,-0.0021634,-0.0058883
0.0040975,-0.0083985,-0.005613,0.00019079,-8.2582e-05,0.0052021,-0.0026526,-0.0055344
-0.0039505,-0.021027,-0.019955,-0.015523,-0.015009,-0.0035623,0.0046786,0.0025129
0.011356,-0.0031476,0.01981,-0.00022906,0.0013193,-0.0042478,0.004267,0.010409
0.0032529,0.021584,0.0042683,0.0070936,0.009751,0.0031802,-0.0038376,-0.0053147
-0.0047151,-0.0015635,0.0037744,0.0065491,-0.0054291,0.0030581,-0.0039813,-0.0056166
-0.0046545,-0.002166,-0.020633,-0.0017574,-0.00523,0.0031066,0.0038394,0.0016924
-0.0043418,-0.019059,0.0014943,-0.0099244,-0.0053178,-0.0045983,0.0039792,-0.014611
0.0040188,0.010539,0.0077994,-0.0022686,0.0021113,-0.004528,0.0042135,0.015833
0.0047341,0.0087794,0.014037,0.005602,0.0092629,0.0032661,-0.003313,0.0071465
0.0055109,0.022757,0.004687,0.0058481,0.00054776,-0.0046447,-0.010824,-0.0093608
-0.0015841,-0.017706,-0.01236,0.0062164,0.0072597,-0.004757,0.0050979,-0.0023924
0.0067793,0.0046287,-0.0057914,-0.0011962,-0.0018037,-0.0047826,-0.0024228,0.012456
-0.0085266,-0.011819,-0.0068028,-0.016485,-0.018778,0.0031924,-0.0021221,-0.01168
-0.016256,-0.012416,0.00028558,0.007145,0.0032714,0.011419,0.0060172,0.0033215
-0.00072433,0.018405,0.0077116,-0.00066103,0.0097273,0.012082,-0.0014362,0.0027657
-0.00089058,-0.013149,-0.0079281,-0.008654,0.00067086,-0.0027096,0.0067518,-0.0055397
0.0067976,0.0022732,0.0080546,0.014457,-0.00037297,-0.0018471,-0.00071248,0.0018476
0.014612,0.0021638,0.0087401,-0.0015695,-0.0011307,-0.0089365,-0.00045868,0.0015065
-0.00086667,0.0099504,0.0018479,-0.0019636,-0.0093411,-0.0085048,-0.0081903,-0.0065383
0.0071796,-0.0056401,0.0028737,-0.0022759,0.0062957,0.0071667,-0.00054312,0.0089889
-0.0082491,0.002225,-0.019575,-0.01027,-0.0010819,-0.0009945,0.0068077,-0.0065825
-0.00043224,0.0022402,-0.0031244,0.013128,0.0075555,-0.0016605,-0.0095888,0.0014326
-0.00075644,0.017791,0.02089,0.0053867,-0.0069381,-0.01031,0.020612,0.0017566
-0.017105,-0.029276,-0.025683,-0.0023088,0.0021806,0.012299,-0.011885,0.0021476
0.013047,0.0016799,0.013435,-0.0022316,0.0034948,-0.0039813,-0.013211,0.0025304
-0.0039219,-0.0064638,0.0055087,0.0055373,-0.01099,0.011277,0.008972,0.0028218
-0.0053005,0.0010842,-0.0103,-0.010305,0.013246,0.011235,0.0079474,-0.012677
-0.0064671,0.0010042,0.0051725,-0.0028908,-0.002051,-0.011965,-0.0083261,-0.0049519
0.016243,0.01683,0.0051283,-0.0034218,0.0055628,-0.0037447,0.0071372,0.018178
0.0082944,0.0017317,-0.0025761,0.0038198,-0.010757,-0.0033075,-0.0081072,-0.0057471
0.00097512,-0.0052551,0.0055029,0.0033278,-0.0040088,-0.0029777,0.00061613,0.0014816
-0.005804,0.0035875,-0.0019085,0.0030309,-0.0052371,-0.0028555,0.0097869,-0.014705
-0.0044311,-0.003132,-0.0092252,0.0030164,0.0014401,0.0048278,-0.0041797,0.0083235
0.0048222,0.0056819,-0.00086356,0.0033225,0.0084706,0.0044639,-0.0024171,0.00037726
-0.009581,-0.016976,0.0075192,-0.0038822,0.00044242,0.0039342,-0.00077099,0.0084164
0.0068027,-0.0086857,-0.015347,-0.010857,0.00091319,-0.0044694,0.00054167,-0.0065935
-0.0008661,-0.00070937,0.016464,0.0057245,0.0020705,-0.0050032,0.0013362,-0.005631
-0.0013656,0.022623,-0.0064363,-0.0089595,0.0037913,0.0024438,0.0014862,0.0033814
-0.0024052,-0.0010988,0.0018649,0.015268,0.0058524,0.0023313,-0.0068693,0.012467
0.0040446,0.014169,0.010078,0.0079742,-0.0076507,0.0025141,0.0075594,-0.0020016
-0.0051635,-0.025218,-0.0052879,-0.0074887,-0.0057492,-0.0048291,-0.0019743,-0.0011437
-0.014098,0.0058328,-0.0052253,-0.023349,-0.004299,-0.0041355,0.0037971,-0.0085304
0.0087499,-0.0019859,0.0024104,0.015095,-0.0034434,0.0044858,-0.006117,-0.00077975
0.016659,-0.001759,0.0019794,0.0063454,-0.0032229,0.0052671,-0.0079988,-0.0091034
-0.0059823,-0.0012904,-0.014308,-0.0026124,0.01204,0.0058663,-0.0015858,0.0056892
0.018813,-0.00060701,0.01611,0.0039855,-0.0044082,-0.0094825,0.0055122,0.0047293
-0.010776,0.015853,-0.0082385,-0.0049618,0.0022702,-0.0018171,0.013404,0.0038633
-0.0091364,-0.0066916,-0.0013111,-0.0058766,0.016601,-0.0024258,-0.0013523,0.0032972
0.0077914,0.0019555,-0.0020756,0.0013527,-0.0081615,0.0043529,0.0079979,-0.0046304
-0.0071072,-0.0051982,0.0051598,0.0011684,0.0062055,-0.0048091,-0.013445,-0.0042254
-0.014882,-0.0048154,0.012609,0.0092067,-0.010537,0.0015047,-0.0034483,0.0044863
-0.0076908,0.0030405,-0.0031817,-0.0058305,-0.019273,5.4237e-05,-0.0013521,-0.0020503
0.0068102,0.0027306,0.0046171,0.010642,0.0034794,0.0066588,-0.0074023,-0.00058835
0.013227,0.0021063,-0.01874,-0.011828,0.0030568,-0.0019607,0.0094674,0.00082518
0.011808,-0.0065594,-0.0029891,-0.010897,0.010709,-0.010084,0.0022772,0.0097621
0.010573,-0.0075235,-0.0028424,0.013286,0.010775,0.0057418,0.0022535,-0.0052344
-0.013783,0.014969,0.012953,-0.0018964,0.0031817,0.0063898,0.0016348,-0.0052383
-0.0065253,0.0063522,0.013167,0.0138,-0.0043535,0.0073522,0.00053368,0.0018984
-0.0067398,-0.017655,-0.025612,-0.0099461,-0.0041123,-0.0071691,-0.016518,-0.015006
0.0011318,0.0055013,0.013813,-0.01058,-0.011782,-0.006102,0.0053512,0.014528
0.0013842,0.0055182,-0.0092007,-0.0036204,-0.0039315,0.0025949,0.019454,-0.0030096
0.0095715,-0.0020116,0.0068594,0.0032643,-0.0039469,-0.0046007,-0.013099,0.0029679
-0.0056047,0.0062844,0.015039,0.010225,0.011709,0.0035514,0.0015806,0.0014724
-0.0051067,-0.0087409,-0.0081928,0.0095807,0.0040873,-0.0041369,-0.014548,0.00052599
-0.0045687,-0.0081163,-0.0082339,-0.014209,-0.0032848,-0.0041175,0.0010367,-0.0075585
0.011628,0.0080701,-0.00076447,0.001382,0.0052483,0.0037355,0.017034,0.016306
-0.00341,-0.0071357,-0.0014176,0.0016276,-0.0016111,0.0038988,0.0020763,-0.013893
0.0049672,0.0086976,-0.0023368,-0.0057507,0.0072607,0.0042308,0.0028741,0.0032441
0.0054498,0.0086376,0.004377,0.010372,-0.0073822,0.0047039,-0.01201,-0.0028181
-0.009846,-0.015172,-0.012417,-0.0048283,0.0011318,-0.0025916,0.011943,-0.0010781
-0.0019234,0.0075592,0.0098858,-0.0045927,-0.0064395,-0.0021742,-0.011322,0.0082245
0.0057402,0.01434,0.016678,0.011003,0.0010388,0.0058055,-0.0037144,0.0014563
-0.0024765,-0.010403,0.00019267,-0.0049288,0.00010694,-0.010018,-0.0042435,0.0019303
-0.0030799,-0.011879,-0.00049491,0.0023547,0.0064711,-0.0028119,-0.0049684,-0.013827
-0.0037763,-0.013378,-0.016631,-0.0139,-0.010945,-0.0037814,0.009906,-0.0066992
0.0033876,0.016527,0.0064859,0.0011587,0.0027829,-0.0049826,0.0092965,0.0078235
0.0029366,-0.00011607,-0.0014087,0.00083451,0.0010376,0.0015857,-0.0066766,0.0064872
-0.0050008,-0.00067002,-0.016797,0.00090109,-0.0003263,0.016128,0.008905,-0.010509
0.0030911,0.01493,0.0072917,0.017066,-0.0011519,-0.00024391,0.0013118,0.011698
0.0037821,-0.00021454,0.00062433,-0.0053677,0.0064261,0.0072679,-0.0061312,0.010736
0.0048151,-0.014965,0.0022804,-0.00401,0.0067199,-0.0081854,0.0020523,-0.0055214
-0.0017599,0.0017506,0.0043681,-0.0024907,-0.00043528,-0.0075953,-0.0055292,-0.013639
-0.00049893,0.010663,0.014509,0.0067635,-0.0074579,0.0089244,-0.0055314,0.0019603
-0.0072178,-0.01186,0.0089796,0.0078901,0.0010315,-0.0056456,0.0098409,-0.0056764
0.0013552,0.012167,-0.0047425,-0.01492,0.0013913,-0.012386,-0.006221,0.018058
0.0016706,-0.011067,-0.011345,-0.0070703,-0.0064924,0.012025,-0.0067084,-0.0050305
-0.0063138,-0.0034005,-0.018858,0.0080271,0.00082297,0.0050104,0.00073291,-0.0046711
-0.006945,-0.0037799,-0.0039113,-0.0085541,2.7521e-05,0.0056056,0.00063114,-0.0043156
0.0076751,-0.0042211,0.0023543,-0.0019087,-0.0086537,-0.017426,0.0087055,-0.0039527
0.014231,0.018898,0.015828,0.012588,0.0063035,-0.0015424,0.0093336,0.012069
0.012858,0.0032277,-0.0021868,-0.0038997,-0.0017143,0.0064399,0.0024171,-0.003098
-0.027565,-0.012084,-0.0044181,0.003464,0.0065409,0.0065738,-0.0044128,0.0052495
-0.005362,0.012025,0.001668,0.0034705,-0.00011909,-0.0011059,-0.0035658,-0.0019571
0.0014281,-0.0026551,0.016308,0.0038573,0.0094705,-0.00096615,-0.010875,-0.0013121
0.016304,-0.0015793,0.0005295,0.0044545,0.0038374,0.0069734,0.0047676,-0.0084945
0.00023423,-0.0005399,-0.0066627,-0.010586,-0.001711,-0.0085769,0.0042666,-0.00013666
0.0001005,-0.007504,-0.013262,-0.010234,-0.015336,-0.008602,-0.012293,0.0080613
-0.015366,0.00085502,0.0039115,0.0053416,-0.0060976,-0.00095805,0.0021554,0.008218
0.0006695,-0.0067641,0.0055166,-0.0029969,0.010176,0.0065131,0.00099277,-0.00753
0.0012793,0.00089639,-0.00088563,0.003845,0.002174,0.013802,0.0079236,-0.00014087
0.0098353,0.0082634,-0.01548,0.0025613,-0.0065697,-0.0025143,-0.00027142,-0.0086589
0.010641,0.0075987,0.016323,-0.0066449,-0.0080132,-0.0033355,-3.4219e-05,0.0060385
-0.011998,-0.0088346,-0.0070451,-0.00010352,0.005972,-0.012037,0.00081748,-0.0028264
0.0043542,0.013716,0.016053,0.014589,0.0044738,-0.012916,0.0021512,0.0039303
-0.018474,0.004991,-0.0079973,-0.0092817,0.0034097,0.017553,0.0037326,0.0029977
-0.0023877,-0.019336,-0.0087183,-0.0013316,0.0029706,0.0091364,0.005273,-0.0055141
0.0057189,-0.0045251,-0.0015668,0.0071646,0.0032114,0.00095426,-0.01695,0.001905
0.021457,-0.0052022,-0.0020287,-0.0073485,-0.011579,-0.0069652,-0.0084741,-0.0059743
-0.0098796,-0.0056798,0.0056055,0.0096284,0.0052676,0.0088125,0.014956,0.002059
-0.0023756,0.017526,0.005724,-0.0046298,0.0065992,-0.01424,-0.009154,0.010286
0.0048861,0.0097379,0.013891,-0.011285,-6.6078e-05,0.0019588,0.0052566,0.0029465
0.0040924,0.0021653,-0.0090762,0.0051032,-0.0071654,-0.0051395,0.0037166,-0.0044824
-0.004719,0.0025295,0.006981,0.013166,-0.0070452,0.0034747,-0.013511,-0.004319
-0.013646,-0.020545,-0.031837,-0.010567,-0.0075592,0.0043072,0.0085224,0.003356
0.00089018,0.0031269,-0.00064668,-0.0035401,-0.00081924,-0.0027069,0.0075255,-0.0049035
