0.0055427,-0.09114,0.50497,0.098863,0.029953,0.0065332,0.0044758,-0.021346
0.013904,0.17185,-0.16517,0.12736,0.010233,0.00060704,-0.01039,0.0036685
-0.024036,-0.12573,-0.11916,-0.13172,-0.0094261,0.0025294,0.0056931,-0.0022231
-0.014572,-0.016162,-0.10579,-0.016001,-0.021714,-0.027007,-0.017619,-0.0080685
0.0031999,0.0073145,-0.015434,-0.097486,-0.034795,-0.017834,0.0056814,0.0092294
0.029262,0.045395,0.61968,0.13021,0.044937,0.030027,0.013246,0.02588
-0.045786,-0.12121,-0.21038,-0.13859,-0.055887,-0.031775,-0.025992,-0.02876
0.067055,0.062021,-0.66492,-0.021612,0.069216,0.070356,0.044378,0.040355
-0.062049,-0.05322,1.0105,0.16858,-0.0091295,-0.038418,-0.03337,-0.032559
-0.011483,0.11149,-0.91392,-0.11462,-0.056264,-0.029857,-0.0014487,-0.013138
0.0074232,-0.092016,0.34868,0.074696,-0.0095175,-0.0055032,0.0071848,-0.01841
0.10354,0.17234,0.32855,0.23737,0.17798,0.10486,0.062602,0.022264
-0.10652,-0.17364,-0.39563,-0.15665,-0.16584,-0.097402,-0.085485,0.01561
0.072041,0.10415,-0.25159,-0.24641,0.036842,0.043702,0.03922,0.0012725
0.045115,0.067908,0.33397,0.36854,0.074713,0.020104,0.006859,0.089265
-0.11705,-0.1888,-0.30748,-0.48141,-0.09158,-0.051193,-0.034153,-0.10258
-0.031309,0.021597,0.42864,0.018517,-0.032472,-0.021804,0.0022736,-0.12057
-0.017266,-0.058228,-0.072778,0.034101,-0.021284,-0.0088156,-0.024183,0.12169
0.066756,0.17416,0.47816,0.42541,0.15329,0.07396,0.058754,-0.024006
0.11262,-0.006614,-0.46586,-0.097373,-0.047231,0.00031295,-0.014124,0.12198
-0.105,-0.06791,-0.52335,-0.21625,-0.028362,-0.034048,-0.015917,-0.10477
0.0087155,-0.04742,0.72581,0.51831,-0.031521,-0.013122,-0.0011214,0.0060361
-0.037714,0.016968,-0.32944,-0.35107,-0.032569,-0.014735,-0.016611,0.023864
-0.0018266,0.14947,-0.080963,-0.1175,0.054934,0.039422,0.046807,-0.03656
0.10833,0.0065808,-0.20919,0.15348,0.12181,0.071271,0.048194,0.097396
-0.11423,-0.39653,0.37941,-0.64106,-0.21494,-0.09115,-0.036243,-0.059216
0.024633,0.18118,0.4271,0.29624,0.075298,-0.018353,-0.050543,-0.076965
0.015637,0.25348,-0.24551,0.74107,0.038402,-0.0074951,-0.018274,0.044219
0.005638,-0.22891,-0.56766,-0.76404,-0.069109,0.0035932,-0.0096705,-0.15628
0.079116,0.24694,0.60968,0.55843,0.18106,0.092694,0.053658,-0.013957
0.047474,0.061301,-0.84549,-0.38125,0.0064082,0.0016754,0.00021337,0.6669
-0.20701,-0.35813,0.7163,0.076592,-0.18769,-0.066589,-0.021197,-0.54312
-0.051366,0.0033122,0.26505,-0.28437,-0.010865,-0.01068,-0.010333,0.043566
0.030849,-0.080611,-0.25255,0.8495,0.037304,-0.0181,0.048446,0.028504
0.21286,0.32927,-0.48354,-0.91261,-0.057709,0.036283,0.029886,-0.16652
-0.13654,0.10292,0.55,-0.11118,0.018162,-0.042605,-0.050886,0.14591
0.062316,-0.37334,-0.18986,0.94672,0.1026,0.042392,-0.046097,0.059445
-0.095623,0.16186,-0.3119,-0.28084,0.0018982,0.041534,0.066973,-0.14478
0.023046,-0.43693,0.26178,0.26581,0.10788,0.0018873,-0.048245,0.13462
0.090069,0.59768,-0.032714,-0.49369,-0.12572,-0.037387,0.053134,0.14741
-0.10634,-0.17185,0.28618,-0.39647,-0.14422,-0.045023,-0.0040274,-0.26291
0.096431,0.10401,-0.47321,-0.28646,0.098687,0.017998,-0.032035,0.16911
-0.10807,-0.20372,0.71518,1.1103,-0.03087,-0.035898,-0.069436,-0.29092
0.059641,-0.014438,-0.66981,-0.66649,0.12982,0.1057,0.064222,0.0603
0.41071,0.48632,0.28881,0.20336,0.024565,0.052102,0.080778,0.36379
-0.53206,-0.28476,0.25187,0.66398,-0.082436,-0.13426,-0.096992,-0.23148
-0.096418,0.043947,-0.24223,-0.49796,-0.043932,0.015359,0.039484,-0.13895
0.15644,-0.23904,-0.058218,0.050388,-0.071633,-0.084975,-0.063973,0.28267
-0.068274,0.03311,-0.089012,-0.4205,0.052938,0.096016,0.077195,-0.075367
0.24745,-0.016384,-1.0064,0.61092,0.22064,0.10521,0.025329,-0.056227
-0.15204,-0.15252,0.90166,-0.55856,-0.21629,-0.096525,-0.048162,-0.1516
-0.10123,-0.27206,0.62789,-0.075275,-0.077222,-0.040565,-0.042414,0.021645
0.31434,0.57903,-0.0013084,0.65861,0.23269,0.10883,0.088636,0.1511
0.015771,0.11803,-0.78015,-1.0234,-0.23867,-0.14858,-0.077698,0.11931
-0.31897,-0.16027,0.57143,0.47805,0.079833,0.05419,0.012577,-0.21496
0.29215,0.50813,-0.19344,0.30844,0.18089,0.099797,0.069902,0.19422
-0.36421,-0.38237,0.24617,0.033345,-0.01342,-0.058699,-0.07785,-0.24802
0.20211,-0.35587,-0.22738,0.13032,-0.16724,-0.069686,-0.016613,0.26188
-0.0023422,0.10124,-0.55955,0.19998,-0.015121,0.020126,0.035088,-0.21451
0.014358,-0.18459,0.1183,-0.40045,0.1068,0.078191,0.038585,0.025301
0.0029174,0.41961,0.71624,-0.25935,-0.11406,-0.059218,-0.02906,0.035789
-0.10544,0.19039,0.0063932,0.066711,0.025465,0.014517,0.004561,-0.0032351
0.10541,-0.16244,-0.52568,-0.66535,0.033309,-0.020557,-0.024093,0.025796
-0.09671,-0.44112,-0.19709,0.84911,0.042408,0.023376,0.010445,-0.15007
0.032361,0.14893,0.20752,-0.30378,0.068404,0.091879,0.092941,0.19621
0.10338,-0.36136,0.33357,0.40686,-0.17792,-0.12738,-0.13568,0.025975
-0.023647,0.1689,-0.13493,-0.004894,0.014041,-0.05621,-0.034611,-0.019807
-0.036418,0.50473,-0.093138,0.14551,-0.028098,0.0084874,0.075901,0.028019
0.095478,0.51055,0.17968,0.31504,0.29666,0.18375,0.078584,-0.04089
-0.019807,-0.53006,0.28591,-0.96934,-0.098124,-0.030669,-0.034599,-0.13972
0.069583,0.12462,-0.65711,0.22628,-0.04088,-0.041371,-0.013997,0.076426
-0.37957,-0.36398,0.046012,-0.62371,-0.2269,-0.09873,-0.078793,-0.29748
-0.016311,-0.46078,0.35683,0.55062,-0.023009,-0.039044,-0.02632,0.23954
0.22944,0.0015873,0.32374,0.52414,0.12611,0.12177,0.11173,0.086294
0.19366,0.76874,-1.0742,-0.31751,0.16648,0.12569,0.10844,0.20318
-0.084556,-0.030416,0.64263,0.35767,-0.049789,-0.21488,-0.23178,-0.075391
-0.08192,0.061903,-0.71019,-0.33637,-0.10062,0.029733,0.083135,-0.0095644
-0.048881,-0.097122,0.70539,0.019459,0.12314,0.078362,0.045418,-0.15675
-0.056504,-0.35223,0.35066,-0.52265,-0.12125,-0.021963,-0.024426,-0.13671
0.15988,0.21105,0.051791,0.69886,0.14195,0.057086,0.022359,0.11112
-0.010112,-0.17892,-0.67204,-0.22524,0.0057082,-0.05928,-0.056029,-0.08613
-0.0048084,0.33232,0.18866,-0.54126,-0.24937,-0.14435,-0.071742,0.14666
-0.18406,-0.51741,0.35327,0.36201,-0.076746,-0.026228,-0.0089551,0.037145
0.46782,0.1423,-0.19322,0.11669,0.22666,0.24801,0.21042,0.22785
-0.57191,0.13389,-0.51966,0.57085,0.020378,-0.025199,-0.046775,-0.41947
0.21367,-0.0031274,0.072161,-0.06287,0.10936,0.11443,0.054817,0.066482
-0.033078,0.32345,0.14151,-0.26135,-0.0061548,-0.13071,-0.11835,0.070925
-0.068045,0.27442,0.27265,-0.8305,-0.28691,-0.22996,-0.14508,-0.11517
0.21992,-0.45909,0.12152,0.54118,0.13447,0.17578,0.17728,0.087454
0.02747,0.056418,-0.147,-0.35699,0.00037345,-0.0070403,-0.010721,0.093019
-0.097778,-0.1817,0.047222,0.6804,0.053311,0.050438,0.01783,0.06473
0.0083331,-0.75986,0.027833,0.048722,-0.0031505,0.0056255,-0.025364,-0.13194
-0.014007,0.8552,0.20607,-0.15083,-0.051243,-0.069722,-0.045461,0.15704
0.07661,0.034827,-0.34882,-0.16587,0.026909,-0.11161,-0.088074,-0.23469
-0.21292,-0.2702,-0.65972,0.15708,-0.017949,0.15471,0.16054,0.034792
-0.19598,0.094355,0.36855,-0.30746,-0.06791,0.0035818,-0.0017061,0.026943
0.41571,0.5165,0.12784,0.24637,0.17449,0.075985,0.043066,0.093335
0.10589,0.13299,0.18806,-0.60158,0.014306,0.066997,0.006048,-0.10094
0.077196,-0.53031,0.65521,0.28261,-0.27502,-0.26634,-0.1442,-0.0071663
-0.45194,-0.17562,-0.38422,0.64025,0.15769,0.059157,0.021436,-0.076271
0.11206,-0.52225,-1.0042,-0.29824,-0.13377,-0.18449,-0.16985,0.13915
-0.31679,0.30279,0.42836,-0.21231,0.13835,0.27465,0.24953,-0.23447
0.42552,0.57723,0.56721,0.48056,0.29271,0.18512,0.14543,0.3033
0.15914,0.14755,0.3068,-0.37438,-0.21935,-0.14964,-0.10067,0.04071
-0.085035,-0.19581,-0.30963,-0.21485,-0.18849,-0.16017,-0.12279,-0.055349
-0.065398,-0.0069281,-0.65864,0.61496,0.25923,0.12189,0.0782,0.2157
-0.14976,-0.23034,-0.066295,-0.44659,-0.34523,-0.23291,-0.22461,-0.40654
-0.010504,-0.1764,0.72408,0.51008,0.19405,0.16682,0.16427,-0.033486
0.24287,0.67518,0.075512,-0.9226,-0.01992,0.048843,0.034621,0.13863
-0.22524,-0.4879,-0.48853,-0.32088,-0.12577,-0.046333,-0.026528,-0.13199
0.14849,0.40851,-0.20744,0.95248,0.33185,0.15617,0.10711,0.14063
-0.11126,-0.5425,-0.48387,0.11423,-0.051264,-0.045485,-0.016288,0.091743
-0.17497,-0.65179,0.7547,-0.54853,-0.21886,-0.16595,-0.14558,-0.22908
0.27896,0.76254,0.2727,0.70325,0.14242,0.09228,0.071658,-0.022657
0.087421,-0.048567,0.32985,-0.22931,-0.11579,-0.12999,-0.090676,0.32183
-0.13982,0.49074,-0.022289,-0.25206,0.021388,0.0028953,-0.038855,-0.19542
-0.035801,-0.36061,-0.33788,0.19576,0.013471,0.13077,0.17969,0.23708
0.015923,0.32339,-0.19695,-0.69385,0.038191,0.025773,-0.014259,-0.15613
0.16271,0.074075,-0.39843,0.61388,0.18708,0.11593,0.096586,0.075584
-0.13568,-0.28275,0.44819,0.075347,-0.15922,-0.10841,-0.083156,-0.21863
0.057261,0.18785,-0.13807,0.069185,0.020919,0.01515,-0.008084,0.060982
-0.24353,-0.69441,0.27232,-0.11885,-0.17989,-0.17084,-0.14795,-0.078629
-0.10871,0.089156,-0.14492,-0.12358,-0.058841,-0.010579,0.036009,-0.31704
0.35229,0.21797,-0.60162,-0.50022,0.13455,0.05881,-0.0026341,0.69038
0.09263,0.17262,0.85586,0.83034,0.27644,0.15565,0.096596,-0.14876
-0.19235,-0.44591,-0.92078,-0.5359,-0.3269,-0.16373,-0.071069,-0.043969
0.14574,0.20705,0.90244,0.52138,0.13094,-0.014688,-0.01972,0.021629
-0.11188,0.13991,-0.039163,0.060456,0.034394,0.15914,0.15035,-0.2088
0.17556,0.33566,0.2922,-0.73542,-0.12298,-0.047236,-0.013183,0.12479
-0.18672,0.071169,-0.67059,0.44162,0.066059,-0.039401,-0.072603,-0.024014
-0.15089,-0.23932,0.72189,-0.19507,-0.038491,0.04209,0.034318,0.10289
-0.082765,-0.14533,-0.55341,0.019927,0.10266,0.017117,-0.013341,-0.24436
0.20661,-0.37793,-0.69817,0.28207,-0.10434,-0.099455,-0.09131,0.12954
-0.078417,0.47173,0.62721,-0.15194,-0.0035976,0.019629,0.049756,0.0291
0.28929,0.16446,0.14019,0.23139,0.13091,0.045452,-0.0046511,0.039839
0.12199,-0.37373,-0.0093574,-0.35969,-0.20145,-0.061632,0.0030878,0.051783
-0.34704,-0.15279,-0.61483,0.33777,0.13146,0.049626,0.033942,-0.11547
0.15401,0.06098,0.85961,-0.24071,-0.058491,-0.097396,-0.052532,0.12332
-0.22039,0.096176,-0.18295,0.13843,0.10314,0.18494,0.10328,-0.123
0.1064,0.52417,0.08957,-0.39137,0.014347,0.0062685,0.0094218,0.012529
-0.23366,-0.7164,-0.64816,-0.19536,-0.28609,-0.27376,-0.1855,-0.25128
0.41556,0.72696,0.81638,0.86213,0.32671,0.25918,0.18269,0.3984
-0.24224,-0.41852,-0.055225,-0.54393,-0.1472,-0.090062,-0.089112,-0.23335
0.067436,-0.058531,-0.35664,0.65158,0.03456,-0.0089372,-0.016555,0.17412
0.025543,0.28431,-0.15038,-0.68258,-0.073025,-0.044408,-0.013804,0.034972
-0.077668,-0.49027,-0.13177,0.10992,0.1085,0.10799,0.08303,-0.15877
0.15714,0.088354,0.23826,0.019747,-0.069004,-0.067712,-0.038804,0.061286
0.082006,0.13183,-0.43918,-0.28435,0.058749,0.084329,0.08133,0.038414
-0.27963,0.28302,0.83465,0.67764,-0.0081644,-0.037869,-0.033449,-0.087166
-0.21729,-0.48765,-0.07553,-0.18536,-0.090144,-0.12216,-0.14123,-0.034437
0.21353,-0.19526,-0.34514,-0.28469,-0.023389,0.065593,0.062499,0.016924
0.23829,0.51864,0.91229,0.50041,0.027623,-0.060617,-0.039508,-0.050012
0.19958,0.48757,-0.93206,-0.27,0.25769,0.25712,0.20128,0.27303
-0.12234,-0.33887,0.064571,0.060305,-0.1384,-0.15279,-0.10555,-0.036765
-0.36868,-0.15206,-0.41069,-0.73253,-0.067259,-0.0086546,0.0091228,-0.15839
-0.00027625,0.068157,0.073921,0.38784,-0.029014,-0.059877,-0.063627,-0.020807
-0.18046,-0.50818,0.47583,0.27963,-0.039049,0.022372,-0.0029432,-0.16237
0.41229,0.36115,0.17576,-0.43305,0.082896,0.074748,0.051102,0.29246
-0.02547,-0.45488,-0.054592,0.46659,-0.1077,-0.16777,-0.10415,-0.12481
-0.18823,0.15595,-0.34277,-0.033453,0.061818,0.1389,0.10185,-0.0080974
0.29122,0.50122,-0.17746,0.10664,0.10766,0.0025331,0.0049857,0.18103
-0.18173,-0.42497,-0.018479,0.017604,-0.11845,-0.046142,-0.035845,-0.10535
0.28189,0.69012,0.89042,-0.015696,0.19569,0.13257,0.095724,0.029906
-0.2183,-0.10814,-0.20475,-0.11564,-0.13816,-0.095353,-0.070136,-0.062915
-0.074635,-0.26772,-0.2239,-0.14651,-0.050613,-0.028051,-0.026742,-0.017624
0.12612,0.36486,-0.072224,-0.088351,0.09805,0.099064,0.10777,0.0012108
-0.2797,-0.69641,-0.77981,-0.27857,-0.075575,-0.097382,-0.11247,0.017107
0.069035,-0.2715,0.46016,0.2522,-0.0090767,-0.023568,-0.0077608,-0.11777
0.19858,0.31416,0.40147,0.61554,0.016789,-0.045946,-0.046232,0.03505
-0.34868,-0.098872,0.057624,-0.56061,-0.059471,0.047693,0.070122,0.16409
0.22728,0.40892,0.37395,0.18747,0.08378,0.047971,0.014632,-0.02663
0.16302,-0.23559,-0.61616,-0.37279,-0.091162,-0.027951,-0.0080702,-0.02878
-0.017252,0.5568,-0.010128,0.5793,0.10428,0.039874,-0.027955,0.040587
0.052795,-0.33042,-0.29433,-0.066818,0.014423,0.017707,0.049546,-0.029672
-0.08225,0.2335,0.42082,-0.25891,-0.063999,-0.024169,0.01371,-0.0055744
0.043135,-0.45907,-0.75645,0.085799,0.1104,0.046407,0.012565,-0.075029
-0.29331,-0.16429,1.0308,0.081365,-0.018409,-0.045119,-0.04077,-0.0039645
-0.040048,0.040743,-0.50343,-0.21992,-0.18642,-0.12041,-0.069469,-0.19879
0.17564,0.2355,-0.070421,0.19643,0.15164,0.13171,0.089106,0.36388
0.2901,0.64126,0.99049,-0.16922,0.033553,0.014805,0.011768,0.11371
-0.29038,-0.80795,-0.68606,-0.51044,-0.13517,-0.073408,-0.036868,-0.3791
0.013379,0.003913,0.47093,0.95673,0.043792,-0.00042934,-0.041744,0.20561
0.023512,0.21098,-0.49044,-0.28027,-0.038439,-0.00835,0.012686,0.023892
-0.12494,0.051315,-0.88702,-0.015447,0.095656,0.059492,0.040863,-0.22125
-4.6326e-05,-0.29758,0.64734,-0.2232,-0.068345,0.0083851,-0.011171,0.20459
0.36105,0.23361,0.32616,0.2852,0.056691,-0.02039,-0.0096807,0.012625
-0.13407,-0.098026,-0.032435,-0.23213,-0.043893,-0.034049,-0.00059551,-0.13257
-0.15665,0.010793,-0.54604,0.37282,0.083621,0.030376,0.0012721,0.058785
-0.15981,-0.044478,0.41791,-0.4164,-0.13872,-0.045562,-0.019136,-0.13125
0.60593,0.5435,0.35773,0.34467,0.16387,0.10549,0.10251,0.14961
-0.49297,-0.52975,-0.62161,-0.28989,-0.055925,-0.039848,-0.055674,-0.043423
0.011468,-0.0085328,0.32361,-0.070258,-0.0017185,-0.012767,-0.017349,0.16479
0.19678,0.11101,0.52592,-0.09785,-0.064505,-0.024102,-0.0015835,-0.13225
-0.28898,0.16753,-0.91142,0.20574,-0.0022002,-0.011141,-0.024308,0.018007
0.1478,-0.07097,0.47277,0.37186,0.029142,0.010806,0.00020367,-0.0024222
-0.024238,-0.25006,0.35849,-0.23269,-0.063797,-0.036027,-0.0062602,-0.15533
0.17136,-0.029864,-0.83831,-0.022929,0.078871,0.051787,0.042256,0.11322
0.031175,0.34504,0.11353,-0.21131,0.012222,0.024369,0.028626,0.10732
0.062599,-0.3215,0.62027,0.25495,-0.052726,-0.055947,-0.062745,-0.079652
-0.39115,0.14297,-0.56494,-0.24332,0.008674,-0.0021604,-0.036617,-0.041635
0.1538,-0.15838,-0.44454,0.065437,0.1175,0.1146,0.091171,0.1041
-0.29517,0.19858,0.3706,0.078106,-0.086754,-0.081664,-0.046924,-0.27529
0.3554,0.13033,0.050306,-0.011055,0.035287,0.032995,0.048645,0.18724
0.23032,0.2252,0.86414,0.30531,0.0059749,-0.018841,0.025857,0.085239
-0.068924,-0.54598,-0.26462,-0.40223,-0.034715,-0.0111,-0.053133,0.027706
-0.034436,0.24044,0.10832,0.26573,-0.0086794,-0.021905,0.0068641,0.053305
-0.36903,-0.62511,-0.80098,-0.66564,-0.16526,-0.081995,-0.09085,-0.18983
-0.0018079,0.38942,0.25429,0.3528,0.051473,0.043924,0.013571,-0.09235
0.12268,0.48726,-0.0096491,0.41747,0.15086,0.083556,0.070818,0.064864
0.059915,-0.41828,-0.4377,0.031108,-0.029658,-0.02448,-0.019904,0.087315
0.1464,0.54621,0.48611,-0.288,0.065785,0.064443,0.070208,-0.070677
-0.023915,-0.66059,-0.45552,-0.092149,-0.070022,-0.078874,-0.072462,0.18607
0.15809,0.20887,0.63755,-0.12152,0.031649,0.014367,0.036596,-0.015952
-0.35499,-0.27733,0.39929,0.17226,-0.04382,-0.023365,-0.055935,-0.28477
0.11598,0.5199,-0.1234,0.2041,0.069868,0.065133,0.063557,0.1697
-0.085573,-0.26712,-0.90843,-0.43231,-0.12827,-0.05679,-0.027405,-0.1051
0.10297,0.11221,0.3463,0.32439,0.095308,0.063337,0.084624,0.054834
-0.099049,-0.23887,-0.12042,0.11255,-0.017766,-0.051522,-0.11648,0.19563
0.012458,-0.0054371,0.1642,-0.38368,-0.15521,-0.10472,-0.045084,-0.13721
0.055746,-0.01287,0.29813,0.17533,0.042379,-0.010327,-0.02937,-0.0080507
0.016072,0.31167,-0.18255,0.28513,0.18454,0.1771,0.16517,0.02636
0.11262,-0.045595,0.34533,-0.2069,-0.056722,-0.026643,-0.031507,-0.043708
-0.17042,-0.099513,-0.64186,0.10228,0.052921,0.042603,0.021506,0.022516
0.025523,0.07923,-0.017449,-0.40628,-0.10392,-0.091722,-0.058344,0.12283
0.019453,-0.11238,0.77692,0.26752,0.0037185,-0.0078108,-0.020875,-0.21122
0.15356,0.10466,-0.9175,-0.022782,0.10994,0.052083,0.032457,-0.09565
-0.12054,-0.037978,-0.024092,-0.039312,-0.13687,-0.091699,-0.062366,0.19796
-0.014918,-0.47273,0.53387,0.019231,0.060427,0.11572,0.11654,-0.12511
-0.15512,0.43071,-0.042804,-0.1942,-0.078828,-0.083115,-0.048027,0.21062
0.0058926,0.12354,0.11681,0.011649,-0.038121,-0.047048,-0.048238,-0.1918
0.10956,-0.21563,-0.32179,0.3813,0.089805,0.083886,0.045636,0.13708
0.26654,0.67106,0.78893,0.4153,0.14962,0.09931,0.069633,0.13457
-0.31849,-0.48838,-0.71811,-0.6922,-0.20178,-0.19567,-0.15578,-0.23934
0.090343,-0.026842,-0.30052,0.025145,0.04362,0.066299,0.057104,0.10767
0.095857,-0.19766,0.43483,0.16599,0.14335,0.11166,0.091279,-0.044703
-0.25424,-0.46415,-0.26764,-0.13951,-0.16112,-0.13034,-0.10782,-0.16656
0.040312,0.14782,-0.085235,-0.064971,-0.03494,-0.027658,-0.040223,0.10837
0.11196,0.39239,0.33643,0.021887,0.059729,0.067179,0.067271,0.060958
-0.001255,0.34155,0.26646,0.30144,0.10603,0.059317,0.050111,0.011608
0.16789,0.236,0.014049,-0.34194,-0.076759,0.0023725,0.032594,0.054485
-0.13245,-0.36645,-0.27424,0.093715,-0.090896,-0.12016,-0.095493,-0.14579
0.025628,-0.11347,-0.035853,-0.20242,0.12588,0.12089,0.079094,0.051906
-0.13274,0.15886,-0.30755,0.27052,-0.10589,-0.11046,-0.084891,-0.031791
-0.014513,-0.29101,0.071488,0.12948,0.042648,0.03004,0.021656,0.071892
0.099171,0.11802,0.30299,0.11515,0.049108,0.019954,0.00048543,-0.012329
-0.056379,-0.31875,-0.19937,-0.10293,-0.014918,0.0012613,0.00068155,0.019709
-0.01089,0.1037,0.34523,-0.24619,-0.054382,-0.055779,-0.039234,-0.05919
-0.051655,0.046376,-0.33834,0.034663,-0.036896,-0.0091327,-0.00085209,0.102
0.088593,0.031296,0.19131,-0.12881,0.06178,0.087583,0.038906,-0.043864
0.20791,-0.075677,-0.65866,0.22441,0.038872,0.023981,0.04976,-0.012198
-0.18537,0.32438,0.63295,-0.060421,0.019231,0.0031373,-0.0067811,-0.052305
0.049229,0.35151,0.18603,-0.18386,-0.044627,-0.069306,-0.029062,-0.10837
-0.010879,-0.18936,0.2045,0.24003,0.041668,0.063438,0.045053,0.1022
-0.1636,-0.30812,-0.24884,-0.11383,-0.074539,-0.076418,-0.089844,0.018133
0.011816,-0.21139,0.0073104,0.085108,-0.0036687,0.0021197,0.0028222,-0.13321
0.10031,0.15944,-0.52256,0.14292,0.019072,0.016834,0.02521,0.2264
-0.00040689,-0.011369,0.57636,0.11456,0.016613,0.029616,0.046768,0.14319
0.178,0.0085529,-0.63623,-0.21946,0.020043,-0.01443,-0.026907,-0.032521
-0.17702,0.30468,0.26224,-0.14185,-0.056434,-0.037026,-0.016511,-0.13034
-0.0026189,-0.24711,-0.61649,-0.22477,-0.0015414,-0.014323,-0.031518,-0.18277
-0.024734,-0.35595,0.47139,0.31884,0.036687,0.062021,0.053227,0.090743
-0.18781,0.16766,0.27427,-0.38805,-0.11329,-0.073118,-0.074431,-0.16903
0.32156,0.2003,0.23065,0.55877,0.18152,0.12749,0.10159,0.17939
-0.1208,0.0004001,0.5543,0.29794,0.030476,-0.015653,-0.019803,-0.050196
0.087152,0.31745,-0.80429,-0.35978,-0.05874,-0.041617,-0.024102,0.096664
0.00023958,0.32194,0.58623,-0.095237,-0.023767,0.0026489,0.026552,0.11309
-0.053691,-0.62057,-0.7263,-0.20559,-0.020851,0.0077098,-0.0081975,-0.00063711
-0.090853,-0.35494,0.28483,0.12257,-0.080993,-0.096706,-0.065669,-0.057442
0.091112,0.15009,-0.69259,-0.093105,0.015066,0.0098844,0.018292,-0.12083
-0.14141,-0.065018,0.6605,-0.0059482,-0.013246,0.015238,0.017124,-0.051476
0.11715,-0.12283,-0.40873,0.27009,0.0613,0.060236,0.024484,0.078961
0.18662,0.61227,-0.070048,0.11295,0.12198,0.066905,0.032372,-0.043138
-0.097207,-0.16214,0.017092,-0.2878,-0.057646,-0.042899,-0.029778,0.081469
-0.19504,-0.10134,0.067945,-0.14226,-0.0013028,-0.027187,-0.013798,-0.070984
0.1125,0.28619,0.29489,0.14282,-0.04553,-0.026901,0.0019646,0.16368
-0.08767,-0.22837,0.49168,0.44863,-0.019225,0.02012,0.0095767,-0.026513
0.11188,0.14083,0.57214,-0.13348,0.029989,-0.0035791,-0.03782,-0.11716
-0.1002,-0.21121,-0.60855,-0.19977,-0.046885,-0.019991,-0.015083,-0.013215
0.17541,-0.045028,-0.40803,-0.45547,-0.015744,-0.021256,0.023326,0.14628
-0.10777,0.059867,-0.35536,0.34816,0.092207,0.070941,0.02295,-0.20733
-0.051523,-0.13845,-0.5241,-0.070353,-0.066481,-0.024377,0.030835,-0.11158
0.077686,0.018066,0.22643,0.11776,0.016473,-0.041311,-0.031085,0.17683
-0.02618,-0.038102,0.39921,0.062146,0.005651,0.043793,0.0011914,0.15053
0.21338,0.25865,0.3894,0.16264,0.042156,0.043551,0.033773,0.10606
-0.19741,0.059401,0.20909,-0.11862,-0.0064499,-0.0264,-0.042881,-0.18423
-0.041057,-0.0092073,-0.39713,-0.015196,0.016338,-0.017688,-0.00233,0.05147
-0.09167,-0.10306,0.062419,-0.12837,-0.061217,-0.02416,-0.032114,-0.29021
0.1039,0.003595,0.13897,-0.40377,-0.059388,-0.01466,0.016252,0.2578
-0.10212,0.012208,-0.16534,0.36084,-0.0094788,-0.02832,-0.013388,-0.12614
0.21326,-0.11051,0.19768,0.14833,0.11179,0.098873,0.058736,0.041546
0.035731,0.078811,-0.13711,0.042685,-0.0083809,-0.031575,-0.0095607,0.096446
-0.18817,-0.18699,-0.39201,0.45588,0.067114,0.049006,0.031614,-0.17238
0.12841,0.27862,0.35442,-0.52002,-0.045034,-0.026683,-0.028901,0.17276
-0.099993,-0.079499,-0.44186,-0.12789,-0.087516,-0.063463,-0.035147,0.0070866
-0.076544,-0.15996,0.41999,0.17993,0.017365,-0.0067919,-0.010865,-0.091062
0.01072,0.17773,-0.076543,-0.43007,0.0037017,0.018186,0.020261,-0.043388
0.23117,-0.37932,-0.65914,0.092735,-0.050496,-0.012118,0.0034015,0.15032
-0.0179,0.46501,0.67708,-0.091101,0.089188,0.081821,0.008857,-0.0095679
-0.073553,0.20968,0.6528,0.60033,0.1026,0.01859,-0.010119,-0.13182
0.040005,-0.3651,-0.35059,-0.28383,-0.1741,-0.10038,0.040488,0.12043
