0.081117,-0.068608,-0.13004,0.1505,0.0455,0.0078927,0.048173,0.019924
-0.21777,-0.18083,-0.064552,0.25055,-0.013625,-0.0050142,-0.048089,-0.018415
-0.24829,0.10807,0.096609,-0.038681,0.037324,0.0060728,0.034225,-0.031074
0.39966,0.11194,0.020414,-0.15053,0.010397,0.017326,0.0128,0.052576
-0.70672,-0.56498,0.14689,-0.018528,-0.024714,-0.010818,-0.011615,-0.0018583
0.46084,0.33089,0.60272,0.29161,0.08757,0.046122,0.054417,-0.069834
-0.015568,-0.24349,-0.83806,-0.38602,-0.12207,-0.054471,-0.023087,0.097718
0.18657,0.066644,-0.097929,0.12828,-0.013344,-0.015958,-0.039816,0.069776
0.30138,0.92704,0.17296,-0.21033,-0.00034292,0.028865,0.029562,0.0088498
-0.83033,-0.96739,-0.48123,-0.28102,-0.082804,-0.13067,-0.56264,-0.18032
0.47358,0.3729,1.022,0.50669,0.14599,0.12309,0.6624,0.079191
-0.16897,0.35748,-0.17291,0.06354,0.061557,0.064128,-0.082733,-0.088245
0.49999,-0.64417,0.15674,-0.052286,-0.06218,-0.088298,-0.14124,0.051795
-0.44837,0.35459,-0.4143,0.2939,-0.0061346,0.041181,0.25946,4.6477e-05
0.44196,-0.47894,-0.48978,-0.46036,-0.020103,-0.016006,-0.16416,0.078123
-0.47157,0.28991,0.28122,0.34742,-0.0024086,-0.0098734,0.14709,0.037687
-0.63264,-0.46457,0.063679,-0.31667,0.015801,0.020362,0.025369,-0.15073
0.97946,0.91531,0.10983,-0.19781,-0.059066,-0.042709,-0.50937,-0.055781
-0.47907,-0.60622,-0.12419,0.40442,0.031055,0.019467,0.24346,0.13638
-0.16327,0.16312,0.34927,-0.27747,0.06776,0.058361,0.14223,-0.0030702
0.56068,0.69783,0.26786,0.67758,-0.034491,-0.027529,0.00013725,0.12779
0.39512,-0.49573,-0.39652,-0.98792,-0.040946,-0.0035967,0.10863,-0.0024551
-0.74173,-0.2237,-0.039142,0.43819,0.02523,-0.064803,-0.27076,-0.20685
-0.013237,-0.40222,-0.047243,0.16082,-0.015581,-0.038894,-0.086639,-0.033109
-0.1799,-0.56621,-0.33136,-0.32598,-0.046406,0.0040759,-0.0063393,-0.17757
0.60434,0.6139,-0.09913,0.16679,0.033767,0.056288,0.23956,0.218
0.090055,0.8625,0.48776,0.069546,0.052182,0.10175,-0.0028521,0.23047
0.074262,0.45455,0.031394,0.093045,0.078025,0.069391,0.11838,0.15547
-0.28564,-0.45578,-0.17341,-0.0059447,0.016336,-0.018326,-0.12494,-0.070649
-0.73634,-0.79462,-0.03013,0.1069,-0.16521,-0.22492,0.052803,-0.50337
0.47058,0.59,0.51601,-0.39831,0.032679,0.034758,-0.024846,0.013246
-0.2651,-0.85072,-0.12257,-0.093391,-0.10114,-0.036512,-0.081589,-0.075273
0.69306,1.1279,0.13826,0.12227,0.10559,0.13176,-0.1297,0.39578
-0.76724,-0.46615,-0.23296,0.029643,-0.025991,-0.076946,0.069738,-0.041505
0.70271,-0.88475,-0.56131,0.33221,0.044316,0.072743,0.21825,0.21526
0.43504,0.67172,-0.034774,0.077654,0.044265,0.027274,-0.12143,0.04178
-0.89583,-0.32247,0.053726,-0.44379,-0.056354,-0.087302,-0.11923,-0.46753
0.68768,0.69334,0.3446,0.097363,0.047879,0.026695,0.10316,0.2037
-0.76782,0.45755,0.089713,0.14785,-0.0020457,0.018145,-0.012664,-0.3186
0.017934,-0.84985,0.1818,-0.45507,-0.096747,-0.0035494,-0.048425,0.20103
0.0045104,0.086983,-0.35515,0.32082,-0.0021428,-0.085635,0.0073405,-0.017613
0.33893,0.079078,0.038997,0.061777,0.078144,0.11493,0.055574,0.13556
0.38702,0.51151,0.17866,-0.045178,-0.02837,-0.0043465,0.026924,0.14502
-0.43843,-0.67094,0.19506,0.18608,0.052694,-0.022591,-0.024624,-0.083656
0.27553,0.28769,-0.40837,-0.24654,-0.046392,-0.050088,0.0081263,-0.10652
-0.53458,-0.48928,0.37012,0.46706,0.0021212,0.099997,0.27823,0.082421
0.30223,0.47424,-0.19461,-0.4175,0.057457,-0.041385,-0.31943,0.051553
-0.91026,-0.89847,-0.36592,-0.30797,-0.10685,-0.083492,-0.10833,-0.41956
1.0377,0.98978,0.016464,0.23273,-0.0061169,0.021046,0.15934,0.16008
0.2695,-0.38685,0.068046,0.10383,0.0007226,-0.023881,-0.095259,0.1101
-0.29512,0.85382,0.32821,-0.044454,0.062546,0.079463,0.058318,0.11784
0.0056518,-0.35735,-0.0058206,0.15754,-2.2187e-05,-0.050962,-0.080966,-0.011849
-0.087821,-0.47045,-0.095244,-0.17035,0.031857,0.14789,0.20073,-0.059801
0.095656,0.58214,0.2195,0.27114,0.064267,0.012187,-0.156,0.044879
-0.31005,-1.0753,-0.27701,-0.33656,-0.12191,-0.19248,-0.42978,-0.087664
0.0027818,0.84731,-0.12858,-0.14888,-0.058421,0.018033,0.83413,0.043567
-0.38304,-0.95349,0.24556,0.36521,0.058964,0.018383,-0.16085,-0.15396
0.23341,0.43684,-0.043096,-0.1081,0.034572,0.026988,-0.056351,0.10239
0.74823,0.188,-0.071308,-0.00064313,-0.061462,0.0044962,-0.018473,0.079631
-0.092131,0.74707,-0.23703,0.059883,0.03652,-0.033696,-0.37787,-0.11167
-0.29318,-0.26368,0.27949,0.29734,0.078757,0.068499,0.11297,0.076155
-0.17526,0.039557,-0.070377,-0.30603,-0.05151,0.0062998,0.15523,-0.036355
-0.10771,-0.39971,0.48398,-0.21221,-0.0099397,-0.0093549,0.060276,0.042597
0.2963,-0.31854,-0.38922,0.18068,-0.030208,-0.0017795,-0.054935,0.046433
0.204,0.43781,-0.045605,-0.28971,-0.033454,-0.048833,0.06019,0.044139
-0.28777,-0.4027,-0.31715,0.01988,0.0044206,-0.048563,-0.2025,-0.23135
-0.026741,0.57146,0.17589,0.253,0.021372,-0.039584,0.08827,0.093722
-0.44526,-0.86467,0.54112,0.16989,0.08003,0.1738,0.051343,-0.028341
0.7838,0.82529,-0.010737,0.18594,0.031688,-0.025389,0.063153,0.27726
-0.19817,-0.56996,-0.36098,-0.51149,-0.15558,-0.098198,-0.16438,-0.31717
-0.060737,0.23132,-0.56128,0.029191,0.095381,0.15807,0.18943,0.095619
-0.2614,0.63515,0.24394,0.32113,-0.013458,-0.1401,-0.1647,-0.23307
0.07889,-1.0325,0.12928,-0.17757,-0.030062,0.022039,-0.00099487,0.11999
0.22194,0.79377,0.52808,0.29629,0.13066,0.11238,0.18722,0.28078
0.13201,0.23897,-0.27614,-0.36029,-0.13331,-0.057248,0.039321,0.023177
-0.17313,-0.50424,0.11542,-0.3349,-0.079724,-0.1512,-0.29737,-0.25472
-0.49767,-0.79215,-0.20497,0.16281,0.057561,0.072804,0.082632,-0.030471
0.61811,0.97862,0.056661,0.12733,0.052883,0.04498,0.05406,0.21005
-0.22717,-0.5657,0.052963,0.30358,-0.014549,-0.030737,-0.10163,-0.23795
0.5637,0.63865,-0.15703,0.084645,0.090692,0.10441,0.17084,0.28808
-0.40514,-0.36743,-0.1072,-0.35598,-0.083696,-0.064304,-0.073103,-0.12701
-0.67825,-0.14349,0.12297,-0.17408,-0.076328,-0.08309,-0.059305,-0.20244
0.62993,0.86197,-0.099352,0.38744,0.12061,0.11088,0.18147,0.14796
-0.039294,-0.86766,0.10202,-0.24345,-0.11053,-0.11527,-0.17096,-0.075061
0.1944,0.77093,0.20559,0.29029,0.096639,0.081731,0.031649,0.074914
-0.279,-1.0302,-0.098906,-0.14658,0.0066846,0.037039,0.0466,0.059963
0.11223,0.064462,0.034384,-0.087326,-0.037717,-0.015914,-0.079864,-0.17367
-0.089388,0.025001,-0.12728,0.084051,0.064111,0.015722,0.12824,0.26523
0.33245,0.68965,-0.22355,-0.33564,-0.06332,-0.0093122,0.01432,0.025313
-0.045095,0.45077,0.050493,0.4203,0.056616,0.049432,0.10191,0.20813
-1.019,-1.4105,0.42092,-0.13052,-0.22386,-0.27642,-0.49125,-0.77227
0.76998,0.57154,-0.011762,-0.1106,0.096404,0.092153,0.12649,0.15453
-0.2653,0.11701,-0.076991,0.19352,0.073573,0.070451,0.12041,0.098242
0.72348,0.11424,-0.12756,-0.25524,0.037249,0.081664,0.12452,0.27807
-0.15255,0.18266,-0.20329,0.23955,0.012072,0.03314,0.10062,0.15536
-0.30098,-0.2951,0.11766,0.037231,-0.040334,-0.051045,-0.099454,-0.19936
0.14889,0.030913,0.085989,0.066358,-0.010552,-0.022404,-0.06975,-0.15338
-0.5049,-0.77859,-0.13296,-0.36259,-0.071071,-0.092421,-0.076733,-0.16807
0.31547,0.81457,0.1576,0.2479,0.12069,0.097236,0.042478,0.20895
-0.20335,0.24879,0.021399,-0.096852,-0.061815,-0.032929,-0.033755,0.015749
0.71171,-0.0038308,-0.1503,0.077734,0.0047405,0.023413,0.099535,0.1886
-0.12584,-0.42161,0.25951,0.20021,0.092237,0.06957,0.02719,-0.12539
-0.79871,-0.76913,-0.14855,-0.40135,-0.11302,-0.1377,-0.18909,-0.29465
0.61319,1.0587,0.0067808,-0.046261,0.013339,0.10416,0.22371,0.3986
0.11121,0.247,0.098779,0.23604,0.025995,-0.001685,0.015616,0.0086276
-0.28466,-0.24455,-0.014704,-0.091286,-0.058797,-0.063965,-0.11757,-0.081451
-0.4661,-0.57323,-0.28774,0.16137,-0.044614,-0.097143,-0.1046,-0.30801
0.30164,-0.1704,-0.056463,-0.15295,0.085541,0.087762,0.032381,0.041773
-0.10594,0.36708,0.17969,-0.12743,-0.041962,-0.015527,0.029214,0.12651
0.52144,0.331,0.17961,0.22177,0.066199,0.047432,0.027968,0.04244
0.3528,0.80786,-0.078811,0.47922,0.16077,0.16034,0.24077,0.33078
-0.2737,-0.7194,0.093151,-0.42725,-0.078219,-0.067093,-0.19099,-0.32735
-0.28824,-0.51921,-0.202,0.063058,-0.096094,-0.072535,-0.024878,0.045115
-0.49822,-0.38417,0.083178,-0.55106,-0.16652,-0.13783,-0.15961,-0.18518
0.11557,0.11962,0.01136,-0.16844,-0.032017,-0.029473,0.013414,-0.11351
0.97781,0.82472,-0.15193,0.61759,0.22107,0.16562,0.22734,0.41402
-0.76829,-0.3031,0.25705,0.15166,0.037585,0.0011343,-0.034983,-0.011698
-0.088636,0.71795,-0.1215,-0.041814,0.0029014,0.046428,-0.0018134,-0.12029
0.2311,-0.68449,-0.1865,-0.1809,0.014821,0.035094,0.083062,0.10895
0.077952,-0.066358,0.13962,0.20345,-0.083534,-0.088078,-0.1019,-0.06029
0.1994,-0.39655,0.19224,-0.045006,-0.034836,-0.096688,-0.12763,-0.066265
-0.46824,-0.087972,-0.16981,-0.12942,0.035693,0.040768,-0.0095678,-0.25987
0.73947,0.93214,0.092009,-0.18248,-0.043705,0.035877,0.097015,0.22027
-0.84721,0.042339,-0.1555,-0.094421,-0.01478,-0.047933,-0.025029,-0.076014
0.025552,-0.66712,0.12654,0.01029,0.013744,0.06381,0.016866,0.026514
0.51149,0.65218,-0.10084,0.36642,0.058186,-0.0029563,0.060565,0.22628
-0.45355,-0.88584,0.037675,-0.010411,0.0097395,0.018065,-0.025163,-0.075953
0.33197,0.035204,-0.027669,0.09797,0.009343,0.002184,0.0028863,0.058558
-0.0015264,0.75383,0.016264,-0.0047452,0.057007,0.066521,0.098182,0.098664
-0.23939,-0.7684,-0.009591,0.070996,-0.10533,-0.15649,-0.18489,-0.30022
0.065065,0.46674,0.16871,-0.40984,-0.0093356,0.043517,0.035645,-0.037975
-0.2926,-0.045054,-0.042238,-0.064274,-0.046072,-0.045056,-0.030456,-0.12414
0.50401,0.45544,-0.05632,-0.16463,0.010649,0.022474,0.0060606,0.13482
0.58954,-0.094008,-0.17818,0.37693,0.15278,0.15182,0.1907,0.331
-0.40239,-0.036663,0.053056,0.25003,-0.018199,-0.048033,-0.032458,0.017565
-0.68955,-0.90936,0.05907,-0.37172,-0.13504,-0.11638,-0.1878,-0.32239
0.31647,0.68371,0.050443,0.114,-0.017905,-0.014219,-0.0024821,-0.04143
-0.25441,-0.35801,0.042239,-0.07463,0.052148,0.063252,0.077992,0.047316
0.23839,0.0012287,0.049323,0.31047,0.051849,0.006887,-0.016507,0.037406
0.32876,0.71384,-0.14012,-0.092986,0.035979,0.066997,0.12856,0.26505
-0.78348,-1.001,0.019938,-0.092986,-0.065771,-0.11546,-0.15019,-0.31592
0.37578,0.51305,0.013201,0.034101,0.0043458,0.045779,0.030822,-0.0090168
0.67881,0.25376,-0.098161,-0.010468,0.066567,0.058818,0.094256,0.29664
-0.22209,-0.42478,0.084365,-0.34425,-0.12132,-0.052646,-0.06851,-0.15495
-0.66081,0.35903,0.13157,0.080856,0.018874,-0.054016,-0.081811,-0.17433
0.26898,0.60836,-0.15104,-0.045197,-0.012696,0.015814,0.062716,0.0060075
0.0030608,-0.97294,-0.059352,0.18694,0.010734,0.00069724,0.013886,0.14541
0.3431,0.23196,0.25924,0.41307,0.12059,0.095942,0.0062429,-0.083339
0.090032,-0.034573,-0.41315,0.0026611,-0.026809,-0.0032698,0.047506,0.20255
-0.73647,-0.55955,0.18965,-0.59774,-0.12684,-0.12533,-0.12832,-0.16985
0.063511,0.55248,0.13026,0.31512,0.078071,0.057506,0.025006,-0.038548
0.50348,0.38756,0.017723,-0.0095457,0.0016457,0.0057053,0.069125,0.14831
-0.53453,-0.66841,-0.023654,-0.5184,-0.067477,-0.023416,-0.043814,-0.1984
1.0438,0.91345,0.036565,0.44316,0.10466,0.032178,0.11492,0.44954
-0.62657,-0.78168,-0.099178,0.38128,0.017723,0.062742,-0.017943,-0.22263
0.066706,-0.27739,-0.11869,-0.31488,-0.094107,-0.033486,-0.059989,-0.16907
-0.37248,0.58202,-0.006172,-0.076131,0.034808,-0.029926,-0.011127,0.0091267
-0.46366,-0.5961,-0.011001,-0.16878,-0.071868,-0.090383,-0.16762,-0.31114
0.28851,0.68399,0.086431,0.00071498,0.047215,0.027797,0.11218,0.29494
0.75273,0.37609,0.083821,0.19816,0.025397,0.04395,0.0091861,0.041614
-0.30605,-0.65484,0.15359,0.28339,0.003848,-0.049149,-0.077042,0.048963
0.78105,-0.10106,-0.12601,-0.44615,0.022104,0.17866,0.28394,0.1313
-0.42033,0.42928,0.026057,0.25228,0.017999,-0.022322,-0.017014,-0.062576
-0.4935,-0.5166,-0.31253,-0.23011,-0.13331,-0.15198,-0.081737,0.13817
-0.46624,-0.42266,0.2562,0.1385,0.10725,0.11003,-0.098351,-0.3623
0.34674,0.84522,-0.088374,0.093114,-0.057359,-0.13474,-0.059748,0.074146
0.28966,0.42276,0.036436,-0.15454,0.052326,0.10598,0.08041,0.08595
-0.228,-0.32558,0.091592,0.31836,0.045394,-0.034815,0.0016122,-7.2095e-05
0.37713,-0.29837,-0.10255,-0.60434,-0.094053,-0.04128,-0.045964,-0.098032
0.064417,0.01491,-0.1242,0.3675,0.063447,0.086782,0.11784,0.24648
-0.98044,-0.68514,-0.012819,-0.33561,-0.17756,-0.11152,-0.21732,-0.53446
0.56744,0.36658,0.31682,0.51327,0.16724,0.035485,0.19127,0.39029
0.61657,0.64697,0.0043627,-0.062732,0.027542,0.13668,0.093876,-0.046567
-0.63044,-0.00025228,0.056556,-0.01778,0.0049813,0.01943,-0.1033,-0.0067683
0.41689,-0.53772,-0.33989,-0.22861,-0.072216,-0.16089,-0.08033,0.11235
-0.16868,0.42097,0.11173,-0.1896,-0.024224,0.047998,0.052768,-0.064627
-0.088959,-0.29543,-0.0020283,0.51104,0.03976,0.012712,-0.0094314,-0.031848
0.11056,0.38113,-0.10937,-0.20687,0.026183,-0.024751,0.091742,0.21534
-0.54408,-0.73372,0.010524,0.03811,-0.017886,-0.032877,-0.15207,-0.31124
0.44389,0.54126,0.11761,0.23767,-0.014185,-0.04226,-0.030241,0.15806
0.050218,0.21478,-0.12235,-0.65444,-0.056451,0.11205,0.18371,-0.036068
-0.49707,-0.55562,0.072521,0.26972,-0.027661,-0.1003,-0.15069,-0.18452
0.69595,0.78735,0.26402,0.090835,0.14212,0.12607,0.11528,0.11083
-0.1475,-0.83765,-0.26089,-0.14122,0.069481,0.11178,0.13822,0.24182
-0.046035,0.14665,0.20557,0.37338,-0.074403,-0.19014,-0.30022,-0.21093
-0.15142,-0.10209,0.019225,-0.10514,-0.016804,-0.022404,0.0033795,-0.10352
-0.12419,0.2865,-0.22151,-0.38,-0.18013,-0.10456,-0.021084,-0.049661
-0.11852,-0.33187,0.082977,0.46321,0.1307,0.21091,0.16547,0.12556
0.73317,0.75799,-0.27851,-0.20136,0.10334,0.10281,0.20347,0.33044
-0.32831,-0.79968,0.062837,0.046242,-0.12106,-0.18731,-0.24336,-0.3015
0.29568,0.74766,0.13368,-0.1405,0.059849,0.058998,0.058922,0.14307
-0.96922,0.0030418,0.016345,-0.2493,-0.079549,-0.087787,-0.1322,-0.29092
-0.0025582,-0.77508,-0.042659,0.2553,-0.022717,-0.080172,-0.027789,0.20625
0.82405,0.21048,0.19472,0.14333,0.12172,0.14532,0.091094,-0.032501
0.79612,0.41324,0.027739,0.74795,0.049529,-0.01168,-0.048537,0.15419
-0.93996,-0.43167,-0.13655,-0.68241,-0.036007,0.074981,0.17898,-0.087107
-0.35297,-0.034196,-0.072357,-0.25706,-0.041285,-0.015601,0.00094273,-0.15552
-0.2688,0.48163,0.10107,-0.2787,-0.060409,-0.040612,-0.10535,-0.03481
-0.13628,-0.82128,-0.11133,-0.087364,-0.086041,-0.12482,-0.15491,-0.11387
0.82368,0.43924,0.021655,0.44669,0.16254,0.075339,0.048007,0.17231
0.3202,0.35489,0.02831,0.16422,-0.018349,0.051521,0.10516,0.14672
0.13981,0.31281,-0.078132,-0.11852,0.0035713,0.084157,0.16488,0.24143
-1.1201,-0.7306,0.26329,0.60041,0.055896,-0.11681,-0.14045,-0.30755
0.29984,0.40732,-0.1433,-0.77296,-0.09621,0.0022856,-0.10059,-0.1792
0.17227,-0.37923,-0.016233,0.15765,0.023475,-0.020446,0.010111,0.10279
-0.16201,-0.046132,-0.16678,0.22471,0.00072643,-0.01387,0.010976,-0.025156
0.27664,0.2652,0.078727,-0.29433,-0.015963,0.084044,0.096348,0.13848
0.33392,-0.19393,0.081625,0.02689,-0.018513,0.0074974,0.04664,0.083999
-0.40248,-0.31895,-0.031372,0.053408,0.063823,-0.094957,-0.11531,-0.0029011
0.14809,0.60511,-0.024799,-0.11384,-0.041869,0.058286,-0.0148,-0.21738
-0.27568,-0.11282,0.085954,-0.15371,-0.038199,-0.047865,-0.018927,-0.075805
-0.17485,-0.094076,0.050244,0.39673,0.059632,0.040352,0.044638,0.062484
0.28037,0.67965,0.038625,-0.022422,0.072213,0.057969,0.059495,0.15923
-0.054455,-1.0558,-0.044269,0.19303,-0.070657,-0.088151,-0.090512,-0.049818
0.052783,0.66886,-0.082686,-0.29846,0.01381,0.055631,0.16609,0.17923
-0.18104,-0.35761,-0.13996,-0.29232,-0.096371,-0.064986,-0.20081,-0.33946
0.077305,-0.30769,-0.036346,-0.022468,0.0049147,0.011174,-0.01051,-0.042013
-0.075231,0.41935,0.1666,0.56527,0.11442,0.026384,-0.035719,0.15051
0.75264,0.29133,0.072126,0.071019,0.044578,0.097766,0.30203,0.23818
-0.43325,-0.31786,-0.059965,-0.476,-0.11872,-0.11863,-0.13019,-0.13125
-0.34795,-0.011049,0.17066,0.71883,0.0073514,-0.052795,-0.10637,-0.13878
0.51888,0.17113,-0.24244,-0.97148,-0.030325,0.076118,0.10697,0.14348
-0.47864,-0.63252,-0.15817,-0.032673,-0.02082,-0.013596,-0.092903,-0.07539
0.17103,0.39626,0.22757,0.86285,0.18423,0.076006,-0.019698,-0.10958
0.34868,0.79439,-0.071312,-0.63621,-0.11067,-0.077453,0.13791,0.22718
-0.73439,-0.79175,0.21594,0.22878,0.008287,0.0099337,-0.097631,-0.22204
-0.11467,-0.3091,0.0001654,0.076002,-0.037381,-0.037218,-0.094285,-0.043294
0.27444,0.2571,-0.026506,-0.29675,-0.013648,0.015218,0.069355,0.091928
0.52343,0.73529,0.070984,0.33766,0.094815,0.10468,0.1744,0.17652
0.034773,-0.4666,-0.33341,0.3935,0.014407,-0.034302,0.041384,0.094233
-0.14983,-0.071947,-0.082703,-0.90275,-0.11424,-0.041954,-0.12591,-0.107
-0.45136,-0.57632,0.1382,0.48,-0.048725,-0.12859,-0.23265,-0.35565
0.29345,0.025479,-0.02606,-0.27863,0.062889,0.097187,0.06634,0.16989
0.13719,0.7855,0.085504,0.0012625,0.04924,0.034686,0.085231,0.11163
-0.21977,-0.21394,0.055551,0.32014,0.082782,0.059715,0.12251,-0.013499
0.12597,0.34987,0.059431,0.038077,-0.046836,-0.022381,-0.023639,0.03776
-0.36699,-0.82771,-0.010456,-0.023793,-0.065627,-0.031499,-0.071247,-0.17148
0.52634,0.43844,-0.0058773,-0.2787,-0.035611,-0.053441,-0.012495,0.14003
-0.34307,-0.20769,-0.1008,-0.054061,-0.042377,-0.018063,-0.020012,-0.059675
-0.006254,0.7125,-0.017507,0.10371,0.070469,0.042922,0.045406,0.017035
0.14702,-0.40083,0.13026,0.17118,0.021526,0.011586,0.02563,0.024418
-0.32734,-0.30306,-0.060352,-0.39129,0.013399,0.051029,0.051414,0.22579
0.55639,0.11934,0.0084397,0.54008,0.013945,-0.035159,-0.13694,-0.39673
0.18243,0.13833,-0.040945,0.096382,0.021991,0.0019356,0.14667,0.31909
-0.6821,-0.74517,-0.14706,-0.48997,-0.065301,-0.02609,-0.19211,-0.35432
0.80829,0.87789,0.15938,0.14649,0.11813,0.13023,0.19861,0.3018
-0.97721,-0.27763,0.028693,0.098469,-0.13157,-0.20101,-0.17989,-0.11768
0.018315,-0.19987,-0.059732,-0.055978,0.037017,0.12135,0.11972,-0.024777
0.45307,0.67697,-0.079268,-0.21425,-0.078704,-0.081308,-0.10322,0.1066
-0.4453,-0.69985,0.090274,-0.007269,-0.07139,-0.1123,-0.15098,-0.40045
0.51798,0.95136,0.10747,-0.10458,0.091653,0.13141,0.22836,0.32363
-0.18318,-0.88577,-0.018483,0.40221,0.10721,0.080734,0.090478,0.11629
0.29013,0.22481,-0.052888,0.092612,0.015546,0.025449,0.04459,-0.0065103
-0.084147,-0.16366,0.011512,-0.11114,-0.073301,-0.065622,-0.066847,-0.014389
0.31992,0.0573,0.040756,-0.053496,0.043865,0.033498,-0.042892,-0.049806
-0.18315,-0.049893,-0.15403,0.12351,-0.024062,-0.084537,-0.16744,0.041148
-0.22158,0.31238,0.1056,-0.23009,-0.0044833,0.00078415,0.033458,-0.095376
-0.65431,-0.25303,-0.048464,0.3143,-0.015542,0.053744,0.13581,-0.10172
-0.039566,0.07561,-0.054209,-0.40758,-0.034639,0.034226,0.075816,0.10723
0.73943,0.096234,0.017872,-0.19186,-0.0076329,-0.12865,-0.20148,-0.046464
-0.44122,-0.18304,0.019284,0.12693,0.018412,0.096383,0.125,-0.030568
0.19253,-0.020744,0.067038,0.097108,0.020201,-0.024446,-0.044619,0.00011736
0.59985,0.14378,0.020042,0.15698,-0.0019054,-0.0056986,0.018572,0.32829
-0.23256,0.01086,-0.083444,0.0014357,-0.0084051,-0.0023037,-0.049998,-0.34973
-0.25173,-0.10253,0.13057,0.28494,0.0088913,-0.067632,-0.10725,0.044498
0.34182,0.22219,0.17678,0.41092,0.081458,0.064987,0.036149,0.12766
-0.20135,0.091917,-0.3047,-0.91272,-0.064103,0.028913,0.23265,0.093876
-0.24033,-0.072423,0.0067038,0.17104,0.025216,0.050623,-0.025843,-0.18344
0.086042,-0.1838,-0.13784,-0.50266,-0.080484,-0.011225,0.040548,0.14569
-0.053506,-0.36397,0.044905,0.24694,-0.014253,-0.056298,-0.13289,-0.22457
0.16945,0.29825,0.002705,0.37568,0.059622,0.015454,-0.0096865,0.049121
-0.32747,-0.44925,0.12074,-0.35497,-0.046563,-0.055297,-0.061058,0.045342
-0.35099,0.093872,0.049127,0.40234,0.049803,0.027072,0.00016192,-0.10182
0.55078,0.95414,0.077495,0.15025,0.059429,0.035209,0.094814,0.14071
-0.038397,-0.36831,-0.068369,-0.1805,-0.057007,-0.062353,-0.16779,-0.17822
0.49432,0.0062382,-0.062324,-0.23129,-0.034139,0.00037928,0.15066,0.22444
0.24318,0.34553,0.18659,0.32365,0.08095,0.083647,0.098555,0.10778
-0.74721,-0.52148,-0.32462,-0.7144,-0.10245,-0.037881,-0.080015,-0.097863
0.10482,-0.24981,0.10454,0.43195,0.017317,0.012211,-0.023633,-0.079937
-0.080719,0.61694,0.058326,0.31379,0.0030453,-0.061526,-0.066327,-0.034175
0.26209,-0.81326,0.075347,0.17843,0.14429,0.10937,0.043464,-0.039402
-0.20564,0.50072,-0.28888,-0.452,-0.15208,-0.083513,0.033324,0.036341
-0.46161,-0.59245,0.15509,-0.077094,0.013098,-0.038037,-0.080769,-0.057915
-0.40391,0.20281,-0.058875,-0.46814,-0.078277,0.03495,0.044542,-0.018613
0.99975,0.51795,0.11893,0.41747,0.074328,0.025671,0.02533,0.066958
-0.070106,-0.38444,0.058211,0.31065,0.072771,0.027022,0.063006,0.18941
0.76933,0.67745,0.034214,0.28609,0.057694,0.053427,-0.00074581,0.050178
-0.28755,0.32785,-0.014666,-0.42592,-0.033657,-0.083995,-0.027405,0.030569
-0.27329,-0.56119,-0.20566,-0.1744,-0.15485,-0.081911,-0.15157,-0.51102
-0.51668,-0.27479,0.015046,0.25271,0.084194,0.12886,0.22719,0.47218
-0.5794,-0.62873,0.075685,-0.45747,-0.082686,-0.046172,-0.21958,-0.50323
0.97883,0.70348,0.029112,0.49023,0.078402,0.0098993,0.11809,0.34595
-0.61091,-0.38705,0.0061943,-0.2117,-0.050143,-0.11679,-0.094404,-0.07138
0.37551,0.20345,0.044153,0.29258,0.10945,0.12122,0.01974,-0.10398
0.69316,0.16543,-0.038237,-0.047532,0.033455,0.021657,0.08745,0.24269
-0.76377,-0.26421,0.00014497,0.069243,-0.051793,-0.055188,-0.069305,-0.17055
0.38887,0.88426,-0.18496,-0.31275,-0.052632,0.039989,0.12088,0.25811
-0.11578,-0.65591,0.12527,-0.37455,-0.062733,-0.074946,-0.091617,-0.12853
-0.023458,0.033983,0.017325,0.18846,0.027558,0.092626,0.11316,0.089532
-0.33944,0.30087,0.093708,0.24443,0.078064,0.050702,-0.015685,-0.16807
