-0.11261,-0.14136,-0.16395,-0.041204,-0.00087777,0.0095201,0.019899,0.003271
0.12368,0.40301,0.22727,0.034715,0.001819,0.045366,0.20094,0.48194
-0.1964,-0.61265,-0.15103,-0.029645,-0.019645,-0.044907,-0.29264,-0.54276
0.090993,0.1611,-0.073422,-0.00089809,0.012456,0.019134,0.27727,0.28452
0.33682,0.041988,0.3254,0.057407,0.011933,0.018164,-0.16326,0.054545
0.36836,0.41012,0.082315,0.019363,-0.013462,-0.055818,-0.17141,-0.34331
-0.48703,0.083524,-0.31253,-0.099966,0.0067383,-0.015031,0.088012,-0.1113
-0.35454,-0.57194,-0.28243,-0.027187,0.0025842,0.024077,0.10062,0.019132
0.14161,-0.27496,0.16437,0.035123,-0.025392,-0.046781,0.049353,0.013296
-0.1998,0.49173,0.18477,0.064642,-0.0062392,0.03927,-0.037479,0.21987
0.51473,0.035917,0.21788,0.10197,0.068507,0.025597,-0.45872,0.11981
-0.31307,0.025722,-0.29651,-0.29649,-0.058395,0.0068308,0.34624,-0.13544
-0.0083918,-0.51111,-0.19182,-0.011942,-0.034992,-0.0087917,0.28092,0.1583
0.14152,0.37444,0.18273,0.15207,0.060722,0.048935,-0.2607,0.17197
0.24621,-0.1122,-0.05399,0.03975,0.0098337,-0.0784,-0.18383,-0.45626
-0.30544,0.33407,0.5363,0.088177,0.015007,0.037923,0.32255,-0.010969
-0.10283,0.039663,-0.50764,0.046119,-0.033836,-0.0094902,0.012492,0.06697
0.2713,-0.20202,0.031609,-0.017942,-0.012541,-0.042063,0.021263,-0.014184
0.17136,-0.020593,0.034693,-0.28577,-0.031352,0.06431,0.24919,0.26747
-0.016329,0.055748,-0.18858,0.037603,0.080849,0.0044083,-0.32469,-0.017954
-0.81805,0.015208,0.17144,-0.16648,-0.067098,-0.081256,-0.40727,-0.38507
0.35923,-0.33214,-0.020735,0.31211,0.032406,0.010742,0.16401,-0.097643
0.15769,-0.018026,0.20155,0.44199,0.07483,0.031025,-0.031966,0.27615
0.2841,-0.033212,0.23557,-0.5029,-0.12678,-0.03522,0.14023,0.15217
-0.38923,0.8049,-0.51231,-0.20908,0.022231,0.070662,0.17632,0.031347
0.24501,-0.52338,-0.087356,-0.026843,0.023007,0.05253,-0.16248,-0.12565
-0.50291,-0.084517,0.34159,0.39676,0.025253,-0.057843,0.12624,-0.054628
0.37934,0.046685,-0.30728,-0.054263,-0.016724,-0.018,0.066768,0.18747
0.21497,0.12254,0.040907,-0.035305,-0.07078,-0.07794,-0.17758,0.004326
0.24705,-0.043415,-0.10196,-0.19442,0.043191,0.027717,0.20377,-0.34846
-0.46306,-0.14684,0.063691,0.030862,0.004683,0.064117,0.14595,0.36996
-0.54334,-0.072127,0.22593,0.38249,-0.046534,-0.094417,-0.087331,-0.47333
0.30653,0.45943,0.44545,0.22743,0.2006,0.12942,-0.59054,-0.025621
0.53439,-0.063011,-0.21915,-0.62168,-0.021338,0.03164,-0.10504,0.35593
-0.32626,-0.4081,-0.14803,-0.23459,-0.10486,-0.021324,0.65267,0.32261
0.55523,0.46077,-0.18243,0.16311,0.073479,-0.0065151,-0.37688,-0.20846
-0.34106,-0.22347,-0.24065,-0.31819,-0.26072,-0.17399,0.051388,-0.10163
-0.71317,-0.84388,0.12806,0.77519,0.0017892,0.00013724,0.21267,-0.27645
0.46937,0.94419,-0.068641,0.26312,0.23668,0.12613,0.083482,0.19055
-0.37811,0.033159,0.10075,-0.6217,-0.046877,-0.013559,0.075876,-0.11405
0.83335,0.33149,0.39715,0.3992,0.090356,0.043266,0.20185,0.012429
0.092298,-0.66637,-0.22275,-0.59166,-0.084172,-0.014809,-0.63673,0.33398
-0.57314,0.30712,-0.083875,-0.0038414,-0.10791,-0.01521,0.36864,0.027569
-0.59604,-0.96551,0.058273,0.84771,0.067165,-0.12181,-0.53468,-0.26188
0.89424,0.68025,0.11109,-0.59264,0.027541,0.21194,0.59022,0.16494
-0.54557,0.197,-0.14416,-0.034884,-0.016005,-0.092909,-0.65342,-0.35171
0.44417,0.92711,0.088584,0.0081443,0.052866,0.087514,0.50349,0.3184
0.81515,-0.50633,-0.15291,-0.2952,-0.11102,-0.15431,-0.043841,0.18967
-1.0291,-1.0583,-0.19032,0.39605,0.037441,-0.06178,-0.39237,-0.66731
-0.16994,0.12148,0.71737,0.19616,0.27763,0.19226,0.82103,0.3273
0.061565,0.056264,-0.82123,-0.6802,-0.32954,-0.11934,-0.27639,-0.042519
0.054165,0.92661,0.3498,0.58922,0.074285,0.073546,-0.18422,0.015498
0.39342,-0.82049,0.074205,0.012008,-0.057982,0.036836,0.13538,0.34031
0.033661,0.91851,-0.02278,0.25783,0.094661,0.036866,-0.070035,-0.065747
-0.53033,-1.0108,0.020096,-0.3331,-0.11471,-0.22217,-0.54572,-0.40449
0.20488,0.61923,-0.007799,-0.28034,0.089429,0.10477,0.56461,0.29305
0.1023,-0.51906,-0.051521,0.43621,0.0062725,-0.027836,-0.077684,-0.067607
-0.20225,0.12047,-0.13429,-0.44326,-0.088621,-0.032904,0.30675,-0.066014
-0.10553,0.52831,0.18159,0.46375,0.11099,0.090312,-0.10339,0.022671
0.40785,-0.7434,-0.017709,-0.9979,-0.0035879,0.11541,-0.19089,0.095223
-0.18007,0.59911,0.033713,0.51738,0.043924,-0.098732,-0.50172,-0.23243
0.4937,-0.12698,-0.15597,0.003371,-0.17741,-0.084427,0.090637,0.62505
-0.3574,0.54456,0.19492,0.43705,0.16636,0.10219,0.67384,-0.56649
0.15183,-0.87199,-0.045889,0.77029,-0.052156,-0.0013847,0.077471,0.10018
-0.1314,0.29547,0.18463,-0.76539,0.16465,-0.021508,-0.12727,-0.021836
-0.94385,-1.0449,-0.62091,-0.62684,-0.3102,-0.099742,-0.22147,-0.4309
0.92543,0.62573,0.2017,0.57304,0.13139,-0.0020517,-0.57271,0.31946
-0.34938,0.8814,0.081754,-0.41022,-0.096868,0.045288,0.64639,0.080929
-0.0065412,-0.25089,0.096306,-0.22531,0.060281,0.10562,0.26324,0.30534
0.7398,0.60664,0.60293,0.92656,0.13543,0.016115,-0.011659,0.42756
-0.043443,-1.1849,-0.59602,-0.70868,-0.080521,-0.11241,-0.45945,-0.54026
-0.68875,-0.40595,-0.034147,0.27219,-0.10117,-0.059778,-0.29814,-0.39061
0.16546,0.50606,-0.17429,-0.17284,0.051924,0.042429,0.090761,0.29604
0.090322,0.76952,0.34209,0.50707,0.15366,0.085704,0.78702,-0.26988
-0.41453,-0.72559,-0.24229,-0.57638,-0.17007,-0.046749,-0.62959,-0.14917
0.66525,0.12146,0.051033,0.01459,0.080935,0.0512,0.49074,0.57598
-0.23469,0.13006,0.037608,0.64535,-0.031216,-0.058551,0.078558,-0.12054
0.50871,0.32279,0.080441,-0.172,0.078507,0.076164,-0.47518,-0.076855
-0.73116,-0.87919,-0.1216,-0.49668,-0.14581,-0.069253,-0.045672,0.18094
0.36509,0.79702,-0.026663,0.17438,0.08352,-0.027229,-0.46185,-0.39019
-0.81983,-0.94586,-0.10203,0.0089761,-0.11762,-0.072245,0.2982,0.16476
0.61308,0.93069,0.32397,-0.23,0.069925,0.083956,0.46652,-0.060783
-0.12447,-0.30082,0.10884,0.76114,0.12968,0.026801,0.36018,0.43069
0.24918,0.076727,-0.078725,-0.43863,-0.024793,0.12328,-0.071457,-0.23229
0.077349,-0.46259,-0.14102,-0.40486,-0.12795,-0.079623,-0.4883,-0.15669
0.02266,0.42952,-0.15208,0.32728,0.039317,-0.11272,0.060109,0.37839
-0.026469,-0.11,0.1431,0.20771,0.14191,0.0012569,-0.48962,-0.77275
0.27132,0.63411,-0.014629,-0.35266,-0.17054,0.099173,0.62169,0.67516
-0.78113,-0.6219,-0.17963,0.18923,-0.052862,-0.11484,-0.35244,-0.29555
0.26869,0.56669,0.017133,0.015833,0.027605,0.086699,0.12427,-0.15385
-0.18778,-0.47787,0.24256,0.050179,-0.06085,-0.05338,-0.03654,0.17981
-0.10934,-0.83695,0.04672,0.010467,0.22136,0.035447,-0.18184,0.044035
0.93652,0.58988,0.0027296,0.26961,0.069338,0.10288,0.3785,0.56729
-1.071,-0.33835,-0.36414,-1.035,-0.22884,-0.11748,0.23833,-0.49667
0.60421,0.75211,0.21998,0.71767,0.11433,0.045111,0.051371,-0.21446
0.016989,-0.67384,-0.066279,0.062791,0.073615,0.089422,-0.34314,0.034272
0.10352,0.93863,0.1262,0.37966,-0.079169,-0.18096,-0.075534,-0.42004
-0.0761,0.19513,0.27061,-0.428,-0.040386,0.045723,-0.056926,0.63457
0.17862,-0.028336,-0.26168,-0.50204,-0.16964,-0.011998,0.092355,0.13503
-0.47782,-0.5678,-0.044113,0.27502,0.018104,-0.049124,-0.034597,0.079054
0.017134,-0.32064,-0.00040426,0.13924,0.15702,0.060109,0.087676,-0.39644
0.22842,-0.032571,-0.075906,0.41369,0.022301,0.066752,-0.083459,0.43051
-0.24547,-0.046504,-0.096824,-0.4686,0.10007,0.050069,-0.33159,-0.64791
0.13307,-0.060352,-0.043937,0.066043,-0.17079,-0.11388,-0.19822,0.24719
-0.090252,0.44986,0.19675,0.012642,0.15582,0.075737,0.82058,0.074271
-0.46482,-0.52987,0.067464,0.15431,-0.15437,-0.15395,-0.22685,-0.38603
0.83985,0.82109,0.017456,-0.50061,-0.055008,0.13481,0.83771,1.0395
-0.45146,-0.51593,-0.029022,0.46095,0.16381,-0.065903,-0.44289,-0.99749
0.44396,0.42797,-0.071561,-0.51823,-0.10862,-0.02996,-0.72272,0.24962
-0.01551,0.21843,0.099199,0.80023,0.071607,0.062203,-0.062344,0.1143
0.32923,-0.20003,-0.14496,-0.42404,-0.054613,0.0064606,0.064623,-0.19479
-0.39403,-0.45534,0.19177,0.62501,0.097689,0.036056,0.24119,0.49145
0.22637,0.66836,0.20654,-0.22747,-0.0423,0.087397,0.091742,-0.27608
-0.48676,-0.84542,-0.4872,-0.52915,-0.013594,-0.043484,0.33657,-0.20577
-0.68869,-0.65027,-0.016948,0.057835,-0.081228,-0.20075,-0.37262,0.046849
0.15906,0.75277,0.0070479,-0.5089,-0.095748,-0.11867,-0.47679,0.066498
0.68577,0.43685,0.16367,-0.19982,0.17065,0.2737,0.69286,0.014072
-0.094196,0.45469,0.033095,0.7569,-0.038641,-0.053892,-0.13263,0.072178
-0.26885,-0.3344,0.0087264,0.60023,0.17576,0.07936,-0.082426,0.00026145
0.328,-0.10158,0.0075433,-0.10566,-0.12311,-0.05987,0.010007,-0.01315
0.13043,-0.84635,-0.10857,-0.21405,0.017954,0.013578,-0.15894,0.32228
0.57423,0.37597,0.09181,-0.13575,-0.034156,0.042346,0.30106,-0.35819
-0.31626,-0.10131,0.10169,0.34973,-0.0065127,-0.075005,-0.30675,-0.13608
-0.12135,0.48994,-0.055553,-0.48217,-0.10283,-0.018297,0.38249,-0.21538
-0.65601,0.21941,-0.16188,-0.041613,-0.034619,-0.053473,-0.11833,0.13226
0.24383,-0.39315,0.055068,-0.37647,0.25233,0.10029,0.10203,0.77826
-0.011084,0.31813,-0.0074191,-0.28939,-0.14866,-0.018461,-0.51368,-0.60737
-0.19216,0.33043,0.18874,0.95834,0.15267,0.035048,-0.077065,0.11511
0.082508,-0.58176,-0.29462,-0.27649,-0.1721,-0.052267,0.20684,-0.36772
-0.083223,-0.57192,0.11248,0.69823,0.11121,-0.038788,-0.1247,-0.14367
0.69662,0.11544,0.0037446,-0.7476,-0.15368,0.09061,1.0827,0.8227
0.13441,0.74646,0.22306,0.35491,0.19743,0.19494,-0.39149,-0.13078
-1.2334,-0.88702,-0.26066,-0.48885,-0.22574,-0.41345,-0.52523,-0.20791
0.4525,0.54699,0.021444,0.60745,0.077319,0.11711,-0.053347,0.2211
0.56862,0.52083,0.11618,-0.33015,0.16966,0.13855,0.29866,-0.4892
0.0097832,-0.45562,-0.15645,-0.29881,-0.14355,-0.11421,-0.15388,-0.15729
0.12038,-0.30441,0.070219,0.604,-0.01042,0.0078684,-0.40648,0.46839
-0.21711,0.22972,-0.056134,-0.74847,-0.048083,-0.018106,0.27299,-0.094554
0.069387,0.49391,0.27612,0.55838,0.14163,0.12852,0.26521,0.38352
-0.40417,-0.5327,-0.12136,-0.043117,-0.027773,0.018144,0.30936,-0.31136
-0.014983,0.2858,-0.21013,-0.26748,-0.080554,-0.11502,-0.34938,-0.039467
-0.55471,-0.32682,0.040876,-0.023697,-0.017628,-0.029132,-0.28852,-0.2837
0.8322,0.45779,0.21021,0.55257,0.26952,0.12698,0.083761,0.44411
-0.93971,-0.81749,-0.17762,-0.56585,-0.28219,-0.1861,-0.13516,-0.36603
0.7718,0.51859,0.38689,0.19386,0.038033,0.10955,0.93959,0.050449
0.12246,-0.3603,-0.60976,0.03548,0.074344,0.045182,-0.58116,-0.10435
0.2708,0.13435,-0.0091201,-0.089039,-0.10194,-0.01968,0.1797,0.3863
-0.1078,0.14459,0.2923,0.6771,0.10442,-0.045668,-0.18022,0.12784
0.42863,0.10625,0.30347,-0.34914,-0.039192,-0.0089761,-0.021612,-0.2299
-0.69132,-0.26809,-0.44432,-0.79606,-0.10132,-0.042063,-0.47575,-0.22716
-0.1519,0.54154,0.18832,0.60712,0.05227,0.027209,-0.45275,0.34355
-0.075586,-0.1527,-0.14484,-0.41462,0.055172,0.21459,0.87293,-0.054019
0.27616,0.12986,0.045052,0.28659,0.024521,-0.12059,0.35004,0.090107
-0.12802,0.14994,0.19181,-0.25776,-0.0093844,-0.08003,-0.33053,-0.46384
-0.5494,-0.89312,0.0656,0.67947,0.053298,-0.031137,0.27736,-0.095232
1.0756,0.53141,0.047051,0.33324,0.022875,-0.013178,0.15627,0.48222
-0.068593,-0.10357,-0.37209,-0.51473,-0.0091753,0.12992,-0.22106,0.12692
-0.51343,-0.82793,0.0050531,-0.49687,-0.16198,-0.00042451,-0.32023,-0.050966
-0.26603,0.63749,-0.30247,-0.1596,-0.13213,-0.13876,-0.067263,-0.19757
0.20522,-0.050448,0.14752,-0.06493,0.087692,0.0037483,-0.31635,-0.41892
0.062952,0.63307,0.28184,0.78764,0.1384,0.14557,0.26012,0.21067
0.31086,-0.36644,0.23742,0.65617,0.13025,-0.0027095,0.21045,0.22602
0.63711,0.64402,0.0010443,-0.98289,-0.052743,0.066403,0.17039,0.38761
-0.5932,-0.57529,-0.14584,0.0028172,-0.19051,-0.24886,-0.028286,-0.2408
-0.64182,-0.29038,-0.21305,-0.15301,0.093211,0.11401,-0.1944,-0.47203
0.43977,0.035348,-0.032411,-0.24794,-0.052075,0.038151,0.71441,0.44991
-0.50097,-0.31254,0.27424,0.75646,0.015098,-0.17898,-0.74455,-0.54821
0.89254,0.83419,-0.16498,-0.14028,0.060929,0.11185,-0.27248,0.61609
-0.36515,0.11317,0.10699,0.16311,0.10919,0.16152,0.077054,0.43164
-0.34382,-0.79009,-0.013838,-0.43491,-0.1525,-0.11512,-0.02389,-0.72133
0.71603,0.45955,-0.043698,0.39415,-0.013217,0.040358,0.25971,0.077734
-0.91002,-0.91897,-0.24697,-0.63005,0.019126,-0.090493,0.57419,-0.51475
0.48289,0.37982,0.02754,0.040704,-0.055654,0.047015,0.00232,0.29181
-0.23748,0.82557,0.088152,0.5096,-0.026899,-0.16465,-0.63931,-0.1018
0.57631,0.33299,0.22768,0.036096,0.11278,0.20354,0.22381,0.75223
-0.30504,-0.69909,-0.066346,-0.37068,0.034654,-0.099375,-0.88765,-0.30813
0.38015,-0.15316,0.13778,0.45415,0.066086,0.16763,0.81393,0.21832
-0.4349,-0.051822,-0.13577,-0.53609,-0.05156,0.0033516,0.18801,-0.27731
0.37917,-0.041808,0.10481,0.50201,-0.053396,-0.14016,-0.060864,-0.021329
-0.43695,0.028084,-0.24321,-0.64325,-0.18991,-0.052663,-0.3835,-0.013182
-0.53828,0.16922,-0.071872,0.37869,0.14815,0.070369,0.2228,-0.18118
1.0011,0.33063,0.1253,0.61361,-0.054579,-0.05967,-0.13785,-0.015188
-0.50764,-0.98467,-0.12921,-1.0333,0.13215,0.066051,0.58335,-0.17629
-0.315,0.63882,0.26555,0.6634,0.13098,0.066129,-0.5736,0.41662
0.42973,0.45022,-0.089152,-0.78159,-0.19008,-0.10477,-0.038579,0.20318
0.012598,-0.49936,0.040904,0.33374,-0.080261,-0.062451,-0.016154,-0.45674
0.13813,-0.02866,-0.047585,0.48473,0.12511,0.10027,0.17083,0.28674
-0.14154,0.11177,-0.0033206,-0.025293,-0.097052,0.055572,0.31588,0.21878
0.51106,-0.040727,0.063945,0.0055324,-0.012363,-0.07199,-0.49881,-0.58047
-0.35042,-0.18315,-0.14313,0.11544,0.097508,-0.0022862,0.19981,0.18681
-0.055978,0.067082,-0.0235,-0.99238,-0.041751,0.14589,0.3389,0.39651
0.12017,1.0094,0.1098,0.66771,0.037337,-0.15267,-0.20735,-0.44941
-0.53078,-0.6624,-0.06408,-0.47214,0.067646,0.069212,-0.14068,0.48122
0.1379,-0.29667,0.21221,0.50549,0.01646,-0.033236,0.019316,-0.29695
-0.21498,-0.46399,-0.069532,0.35418,-0.0079518,-0.053989,-0.70588,-0.42246
0.26827,-0.32514,-0.26884,-0.81359,-0.25604,-0.031462,0.67518,-0.14825
0.5569,0.60157,0.24719,0.18386,0.092891,0.035744,-0.23679,0.61839
-0.62942,0.57868,-0.091275,0.65952,0.079128,0.0010556,0.28246,0.11939
-0.27544,-0.13383,-0.017818,-0.22363,-0.1236,-0.063291,0.29825,-0.40393
0.72524,0.16525,0.046792,-0.58523,0.10404,0.18021,-0.12736,0.21774
-0.071054,-0.22609,-0.052425,0.29018,-0.071908,-0.080043,-0.0057678,0.12784
0.51391,0.24374,0.1077,0.21154,0.21721,0.10911,0.18832,0.39688
-0.3907,-0.27502,-0.034192,-0.22278,-0.04353,-0.034337,-0.84124,-0.86789
-0.40661,-0.3286,0.014949,0.35205,-0.018347,-0.082028,0.21895,0.14227
-0.51445,0.1623,-0.11943,-0.53393,-0.11434,-0.058975,0.29305,0.039943
0.49412,0.052218,-0.0076795,0.18963,-0.012528,0.11931,0.065061,0.20333
-0.16292,-0.25515,-0.03318,-0.35118,-0.019072,-0.15757,-0.35684,-0.051251
0.38247,-0.27596,0.23269,0.45488,0.13808,0.12556,0.2626,0.070202
-0.063324,0.53741,0.054106,0.48505,-0.15935,-0.0624,-0.058558,-0.19946
0.071792,-0.017173,-0.10963,-0.7194,0.1739,0.052635,0.0033628,0.13968
0.023334,0.47477,-0.049111,0.5389,-0.081187,-0.059672,-0.13396,-0.082982
0.1118,0.19246,-0.17174,-0.69924,-0.018249,0.062562,0.50158,0.20524
-0.49947,-0.91991,0.02194,0.69263,-0.019681,-0.079899,-0.22004,-0.43007
0.58672,0.88661,0.26645,-0.84689,0.05574,0.20088,0.015796,0.26439
-0.20125,-0.67714,-0.14052,0.12032,-0.072577,-0.071615,-0.047231,0.088519
-0.48928,-0.55509,0.060152,0.70359,0.049104,-0.11639,-0.36915,-0.11162
0.23016,0.15406,-0.04401,0.12859,0.1322,0.073877,-0.12155,0.040223
0.39488,0.21177,-0.084176,-0.37209,-0.11203,-0.087273,0.077901,0.075351
-0.604,0.52752,-0.1292,-0.41032,-0.097498,0.0090563,0.41526,0.031724
0.2572,-0.15502,0.57202,0.48749,0.089862,0.065651,0.22398,-0.18645
0.048231,-0.15741,-0.19087,-0.50984,-0.050046,0.012022,0.21177,-0.011534
0.10336,-0.21051,-0.44911,0.14957,0.013842,0.0044024,-0.37476,-0.21986
0.23238,1.0071,0.21082,0.76037,0.10158,0.042905,0.039895,0.71704
0.064771,-0.29369,-0.20442,-0.45225,-0.08404,-0.075372,-0.47494,-0.39067
-0.59796,-0.36211,0.42857,-0.082264,0.026961,-0.076696,-0.21499,-0.18523
0.39838,-0.1479,0.11563,-0.40978,-0.096993,0.0080007,0.24486,0.28579
-0.12608,-0.46395,-0.15312,0.54435,0.22355,0.1165,-0.098555,-0.29759
-0.067664,0.56883,-0.14519,-0.26282,-0.21462,-0.040103,0.70509,0.21435
-0.14865,-0.40104,0.044381,0.6267,0.12764,0.061657,0.07404,0.097099
-0.34772,-0.26982,-0.3427,-0.98496,-0.1244,-0.05492,-0.55166,-0.29527
0.22387,0.44099,0.23307,0.016447,-0.032828,-0.0072567,0.51592,0.031976
0.3053,0.22297,0.10891,0.6581,0.12156,0.0012681,-0.50601,0.026374
0.67261,0.52432,0.075689,-0.15185,0.12041,0.040779,-0.1596,0.31444
-0.82284,-0.1101,0.088642,0.29719,-0.18446,-0.1466,0.28549,-0.18914
0.79277,0.055619,-0.014212,-0.34122,-0.027349,0.048568,-0.18293,0.13252
-0.46147,-0.19819,-0.4263,0.029832,0.18534,0.14989,0.32152,-0.24506
-0.46522,-1.0132,0.017993,-0.53316,-0.2186,-0.17839,-0.15018,-0.22182
0.44985,0.52593,0.42134,0.75237,0.12759,0.14981,0.2271,0.68499
-0.74909,-0.036811,-0.09851,-0.041576,-0.010945,-0.060784,-0.3221,-0.40887
0.43866,0.45651,0.19279,-0.28716,0.029425,0.049129,-0.017584,0.019017
0.10151,-0.011941,-0.62735,0.035883,-0.025052,-0.051859,0.1406,-0.17248
-0.35104,-1.1371,0.041282,-0.425,-0.088572,-0.13739,-0.40924,-0.02245
0.4901,0.47254,0.38424,0.91746,0.0655,0.1439,0.64687,0.28969
0.48579,0.5665,0.27414,-0.33953,0.0077499,0.034032,-0.4313,0.06123
-0.22382,0.51599,-0.22913,-0.28455,-0.027024,-0.037372,0.40544,-0.043362
-0.086298,0.10996,-0.0029893,0.20577,0.19606,0.15628,0.17542,0.046552
-0.92549,-1.1168,-0.35403,-0.38556,-0.32251,-0.29892,-0.26668,-0.53592
0.73121,0.085954,0.091759,0.33782,0.12863,0.11294,-0.34699,0.88145
-0.29946,0.21678,0.1782,-0.20586,0.049723,-0.006177,-0.35073,-0.78683
0.057973,0.15705,-0.077975,0.61823,-0.10607,-0.030878,0.069468,0.022264
0.40369,0.2038,0.036066,-0.44041,0.16889,0.1251,0.5648,0.34827
-0.35606,-0.60081,0.046112,0.18574,-0.055482,-0.022446,0.29271,-0.10545
0.62389,-0.10944,0.032729,0.11716,0.04067,-0.043901,-0.26322,0.11409
-0.52089,0.71962,0.0059442,-0.41712,-0.074348,0.0057878,0.29268,0.11571
0.057337,0.0017716,-0.087162,-0.04734,-0.096134,-0.0066016,-0.31714,-0.11711
-0.51153,-0.69201,-0.14384,0.11287,0.061193,-0.019024,-0.28478,-0.31195
0.45752,0.34325,0.2349,0.068571,0.046245,0.13219,0.25292,0.43663
-0.28838,-0.43767,-0.16197,0.021862,-0.015646,-0.20949,-0.5348,-0.4187
0.67646,0.45745,0.118,-0.20633,-0.053803,0.041798,0.4996,0.090884
-0.28674,0.31499,0.081449,0.58128,0.11954,0.089244,0.12256,0.1456
-0.30354,0.12109,-0.1481,-0.44056,-0.050214,-0.027912,-0.085799,-0.027125
0.19336,-0.016583,0.10741,0.19246,0.030522,0.018668,-0.2792,0.15963
0.011408,-1.1026,-0.20824,-0.51629,-0.060465,-0.036474,0.11494,-0.22285
0.08184,0.30161,0.067724,0.35017,-0.026746,-0.068259,0.14493,0.029364
0.65614,0.68079,0.10627,0.31731,0.17811,0.20453,0.12347,0.19033
-0.41931,0.16816,0.016305,-0.45781,-0.21183,-0.10102,0.033918,-0.16921
-0.90534,-0.75033,-0.061558,0.18826,0.045497,-0.05538,0.0071308,-0.11935
0.19772,0.78818,0.099654,-0.16844,0.020484,0.013211,-0.5061,0.050868
0.048373,-0.93712,-0.17116,0.093788,-0.01316,0.0031626,0.23433,0.083345
0.18967,0.058381,0.002016,0.50215,0.038677,0.0083059,0.11773,-0.08504
0.63388,0.85489,0.096896,-0.33816,0.043542,0.060077,0.003277,0.32595
-0.59981,-0.64614,-0.11983,-0.25099,-0.068611,-0.060021,-0.014375,-0.2866
0.20122,-0.16054,0.24326,0.33174,0.022641,-0.00017227,0.0040487,0.13824
-0.073015,0.15717,-0.21968,-0.5592,-0.057766,-0.041436,-0.53304,-0.16671
-0.089239,-0.43541,0.092809,0.27296,0.033697,0.019371,0.34507,-0.062163
0.90657,1.0516,-0.062013,-0.035912,0.038887,0.0337,0.19425,0.10724
-0.65176,0.9191,0.064943,0.19019,-0.03474,0.024711,0.17865,0.23181
-0.43834,-0.93855,0.050756,0.13547,0.062536,0.04671,0.21129,-0.37562
-0.23425,-0.41446,-0.082062,-0.39118,-0.013118,-0.010042,-0.32675,0.17655
0.3228,-0.63297,0.087824,0.41055,-0.073986,-0.06762,-0.16383,0.13208
0.24591,-0.24557,0.052649,0.33216,0.10706,-0.016553,0.11304,-0.20225
-0.20053,0.73296,-0.31968,-0.96089,-0.10189,-0.028261,-0.34754,0.15254
0.0055404,0.14184,0.065862,0.16464,-0.082551,-0.078538,-0.34873,-0.22289
0.18932,-0.054388,0.015558,0.16932,-0.036941,0.10698,0.86196,0.13477
0.29834,0.3722,0.038692,-0.033963,0.16859,0.076048,-0.21264,0.1102
-0.14486,-0.53438,0.16745,0.45138,0.073419,-0.014515,0.062606,-0.40499
-0.034881,0.56129,0.089409,-0.088076,0.036598,0.046358,0.22796,0.40934
-0.41708,-0.081169,-0.1026,-0.25683,-0.0053655,-0.093291,-0.30271,-0.2608
-0.47875,-0.72231,-0.34002,-0.44864,-0.30396,-0.14527,-0.39814,0.034914
0.9599,0.76536,0.4842,0.81787,0.17814,0.20952,0.97832,0.5896
0.3063,0.079405,-0.31977,-0.56154,-0.060744,-0.045903,-0.65264,-0.36654
-0.38158,-0.50215,0.035205,-0.065534,0.040536,-0.022187,-0.12941,-0.142
0.26178,0.80311,0.14181,0.42941,0.14521,0.21719,0.19478,0.32303
-0.74641,-0.9511,0.10946,0.22727,0.010915,-0.24233,-0.17295,-0.65214
-0.40152,-0.70523,-0.31059,-0.2109,-0.2056,-0.095943,-0.15417,-0.0041049
0.14697,0.33931,-0.11613,-0.4153,-0.065723,0.032015,0.84592,0.32433
0.59414,0.36645,0.055044,-0.071543,0.088342,0.041097,-0.51499,-0.13213
0.23578,0.60676,0.19797,0.28391,-0.10109,0.03416,-0.02438,0.15346
0.24053,0.038002,0.064936,0.1227,0.33623,0.19991,0.022305,0.39481
0.11009,0.5005,0.039959,0.033532,-0.098637,-0.11703,-0.28001,-0.1097
