-0.00037251,0.024729,-0.16458,-0.019837,-0.01374,-0.0035325,-0.030669,-0.0010666
0.0090198,-0.038086,0.26655,-0.10844,0.017806,0.036787,0.063793,0.016111
-0.0051032,0.0082058,0.4186,0.070259,-0.0055745,-0.033109,-0.014276,-0.0059082
-0.0038487,-0.00039092,-0.51648,-0.0071093,-0.021445,-0.025829,0.039813,0.0030129
-0.018594,-0.040387,-0.18279,-0.051657,-0.029804,-0.011626,-0.047222,-0.027562
0.028712,0.067937,0.37796,0.076853,0.024113,0.0019106,0.013964,0.011688
0.0052409,0.0042887,-0.33536,0.057567,0.0076289,0.038555,-0.21378,-0.0042192
-0.026468,-0.043809,0.17028,-0.10231,-0.00097337,0.012746,0.23079,0.010739
0.0039788,0.0096335,-0.1414,0.0028891,0.01407,-0.020488,0.019772,0.0098142
0.018573,0.024094,-0.10998,0.060251,0.0059738,0.0094053,0.012549,0.00097017
-0.0059921,-0.015888,0.33182,-0.063247,-0.0018031,-0.014649,-0.0097903,-0.0078287
-0.0070782,-0.024166,-0.20229,-0.00037472,-0.01711,0.001081,-0.070967,-0.0086321
-0.00018357,-0.031769,-0.014068,-0.032126,-0.00096068,0.0095933,0.016212,-0.0091417
-0.00082744,0.0083501,0.14735,0.076263,0.0074877,-0.0049299,-0.053158,0.014153
0.014501,0.11187,0.21015,-0.057616,-0.023109,0.011983,0.041167,0.0065868
-0.0088555,-0.033796,0.24109,0.082174,-0.014713,-0.033618,-0.013225,-0.0084357
-0.016227,-0.053929,-0.61634,-0.051107,0.024778,0.0065502,0.041671,0.00024161
0.0079381,0.012007,0.21843,0.02686,0.048406,0.0073898,-0.051751,0.0012231
0.0010181,-0.0083324,-0.57972,-0.043514,-0.014218,0.0079226,0.066017,0.0021414
0.025349,0.040858,0.056088,0.081241,0.016551,0.023781,-0.011272,0.010621
-0.013006,-0.004816,0.85857,-0.060049,-0.054579,-0.015306,-0.0025052,-0.0047483
-0.0048455,-0.028312,-0.17985,-0.0065347,-0.024379,-0.02333,-0.017297,-0.012822
-0.0049905,-0.006116,-0.041573,-0.015909,0.0057824,-0.0002086,0.037843,0.0020013
0.0099399,-0.023876,-0.36383,-0.048784,0.012707,0.0072718,-0.032588,-0.0070838
-0.014704,0.036046,0.084263,0.12968,0.02006,-0.00081363,-0.056769,0.0069481
-0.008475,-0.013325,-0.12232,-0.097231,0.012361,0.022458,0.082599,-0.0025699
0.01321,0.031627,-0.20587,0.0052017,0.020871,-0.0088451,-0.1533,0.011467
0.0037269,-0.0084193,0.5399,0.046434,-0.024854,-0.016632,0.1421,0.0023973
0.0023819,0.0073387,0.085276,-0.028476,-0.0078729,-0.00097025,0.0081383,-0.0061754
0.001562,-0.022696,0.13301,0.076767,0.0012084,0.030244,0.038738,0.0092831
0.001389,0.010624,-0.092366,-0.01365,-0.005687,-0.0089973,-0.039518,-0.029333
0.0018928,0.0053723,-0.46116,-0.011538,0.010333,-0.0093566,-0.015809,0.034168
-0.012613,-0.015449,-0.03152,-0.0035747,-0.021089,-0.0098815,-0.054411,-0.026904
-0.011017,-0.021022,0.13105,-0.10737,-0.013938,-0.0026908,0.0084878,0.0060169
0.014297,0.011731,-0.014546,-0.049506,0.0085038,-0.003301,-0.038288,-0.0001075
0.0084148,0.051315,0.39805,0.13918,0.0073432,0.011844,0.062879,0.001351
-0.0054564,-0.011735,-0.11514,-0.017136,0.02176,0.011587,0.13217,0.0023406
0.011542,-0.013286,-0.44342,0.044939,0.01272,-0.01185,-0.080444,0.033915
-0.011055,-0.062488,0.2745,-0.025236,0.019221,0.019623,0.057956,-0.0056022
-0.018632,0.012883,0.12653,-0.01591,-0.036965,-0.019098,-0.17892,-0.045891
0.027887,0.072614,-0.40923,0.081372,0.015959,-0.0031516,-0.040628,0.014757
-0.019837,-0.039139,0.20698,-0.10793,-0.025102,0.020454,0.043658,-0.0030627
0.0024266,0.060764,0.084045,0.0023759,-0.050592,-0.0030488,0.043152,-0.04429
0.0011321,-0.088421,0.29065,-0.040739,0.025748,-0.0033417,0.059663,0.039909
-8.031e-05,-0.017919,-0.13664,0.043841,0.016824,-0.019378,0.11654,0.03112
0.014581,0.053374,-0.16931,-0.017706,0.024581,-0.019712,-0.12258,0.023303
-0.0016559,0.0079766,0.27629,0.17238,0.010203,0.0037005,0.083815,-0.014753
-0.0018848,0.048624,-0.42589,-0.23846,-0.010654,0.027623,-0.14782,-0.028481
-0.0095824,-0.036029,-0.072185,0.05325,-0.03822,-0.010347,-0.060233,-0.04157
0.014222,-0.019753,-0.035348,0.17116,0.052045,0.038177,0.11974,0.031592
-0.032158,-0.066795,0.33655,-0.12817,-0.02173,0.016733,-0.1078,0.018786
0.02302,0.049417,-0.1478,0.14651,0.028857,-0.035948,0.11692,0.0056294
-6.0178e-05,0.016581,0.15586,-0.1536,-0.046768,-0.010859,-0.0024385,-0.0081419
-0.01557,-0.039971,-0.062539,-0.090712,0.0088364,-0.017693,0.011227,-0.030526
0.031095,0.059833,0.19776,0.078398,0.015891,0.0058635,-0.10734,0.039945
-0.0085508,0.011651,-0.11901,-0.035316,-0.033207,-0.002706,0.10293,-0.0076632
-0.025132,-0.051456,-0.21865,0.015317,-0.012996,0.011437,0.0090959,-0.017001
0.043908,0.097187,0.1217,-0.056998,-0.00097699,0.0016914,0.0093276,0.012114
-0.035686,-0.15963,-0.062975,0.18656,0.073815,0.023071,0.056426,0.001804
0.0097028,0.084208,0.12984,-0.0033769,-0.030253,-0.033488,-0.16233,-0.00077009
-0.0072038,-0.023078,0.1583,0.10746,0.030931,0.019744,-0.061024,-0.018758
-0.015863,0.010428,-0.23685,-0.19259,-0.055013,-0.012425,0.040221,0.0027833
0.015168,0.028188,-0.32114,-0.0061965,0.0243,0.026259,0.11831,0.0093503
-0.0077496,-0.032576,0.2741,-0.076676,-0.012677,-0.028364,-0.037329,0.0088459
0.032567,0.046673,-0.0032777,-0.029989,0.021153,0.042307,0.089159,0.040318
0.010985,-0.0076059,0.30292,0.10979,-0.046508,-0.05876,-0.1194,-0.068219
-0.018043,-4.658e-05,-0.25735,-0.040477,0.018344,0.004248,0.03988,0.018992
-0.00012106,-0.055424,0.037256,0.1988,0.051387,0.035963,0.0040535,-0.0029513
-0.021467,-0.03274,-0.077026,-0.18019,-0.041253,-0.026103,-0.016491,0.014175
-0.011982,0.060634,0.17424,0.049155,0.013883,0.021247,-0.053532,-0.023565
0.012595,-0.056162,-0.13065,0.027463,-0.048687,-0.025017,0.095662,0.016496
0.0053834,0.070204,0.17971,-0.057753,0.013448,0.0070685,-0.022199,0.001454
-0.0022913,-0.021282,-0.2863,-0.058018,0.020843,0.0081726,0.014863,0.0015808
0.013125,0.051807,-0.1628,0.089269,0.020577,0.009526,-0.15216,-0.014363
0.0048743,0.031025,0.42369,-0.061042,-0.010672,-0.012396,0.14916,0.023994
-0.0035205,0.032831,-0.25512,0.038141,0.013042,0.012578,-0.0023833,0.0073868
0.003611,-0.15434,0.40055,0.066736,0.02132,0.013976,-0.028063,-0.017157
-0.020595,-0.038632,-0.36892,-0.021912,-0.071918,-0.023969,-0.036807,-0.018201
-0.0058305,0.020624,-0.002667,-0.094802,-0.0012051,-0.023221,0.010617,-0.026802
0.0088462,0.00043192,0.14656,0.027892,0.0067625,0.0083868,-0.042191,0.019709
0.046903,0.096817,0.18761,0.010323,0.022211,-0.007227,0.21056,0.051122
-0.055657,0.076215,-0.30101,-0.022478,0.029483,0.015953,-0.09116,-0.010677
-0.0096668,-0.14659,-0.052375,0.070095,-0.0026511,0.015508,-0.034016,-0.0017171
0.028753,0.022645,-0.017415,0.053617,-0.0038012,0.014928,-0.0014039,-0.0081059
0.0050473,0.0216,-0.068405,-0.10321,-0.012897,-0.001392,-0.12644,-0.022235
-0.0025485,-0.001413,0.39122,0.068394,-0.037567,-0.017828,0.090955,0.018208
-0.0017902,0.078214,-0.18302,-0.10334,-0.0072895,-0.01094,0.010549,-0.027533
-0.03176,-0.20101,0.054103,0.045849,0.0078142,-0.019756,-0.023276,0.012368
0.016804,0.13686,-0.194,-0.085359,0.015671,-0.0051365,0.021398,0.0051199
0.018698,-0.025919,0.079518,0.026622,0.055332,0.040834,0.090415,0.021108
0.0048893,0.036835,-0.04929,0.045795,0.0016425,-0.022366,-0.073772,-0.0098916
-0.0015053,0.0046574,0.36995,0.096802,-0.0050457,0.039708,-0.041531,-0.025305
0.014834,0.033937,0.045329,0.093052,-0.043178,0.00050194,0.030552,0.037404
-0.047881,-0.14834,-0.34582,-0.17724,-0.0271,-0.038479,0.08728,-0.017082
0.013384,0.036601,-0.039117,-0.027394,-0.011668,-0.022662,-0.075002,0.0065022
0.011205,0.026998,-0.27665,-0.012694,0.026543,0.024369,0.051112,-0.0091021
-0.0072996,-0.051487,0.17741,0.054211,0.040795,0.016527,-0.17517,-0.040537
-0.018317,0.043728,0.19256,-0.029437,0.0078996,0.023998,0.090013,0.076189
0.017652,0.062632,-0.033316,0.018456,-0.024963,-0.031411,-0.0202,-0.057406
0.015091,0.082897,-0.021633,-0.082201,-0.034059,-0.0090657,0.049311,0.050859
-0.025673,-0.060355,0.15828,0.076081,-0.0035225,-0.0026153,0.017671,-0.020845
0.028348,-0.039983,-0.0564,0.088105,0.058976,0.01938,0.0022628,-0.0067864
0.0052791,-0.1069,0.043837,-0.076734,-0.0027928,-0.020955,0.0030297,-0.00054815
-0.016917,0.05081,0.019412,-0.043339,-0.040492,0.0016473,0.043129,-0.0097276
-0.0072678,0.0033016,-0.1161,0.055,0.0081725,-0.00634,-0.065349,-0.010656
0.033904,0.071236,0.089061,0.045451,0.017923,0.033336,-0.072802,-0.01876
-0.042139,-0.080584,-0.38882,-0.0498,-0.019354,-0.012147,0.11427,0.083269
-0.0090511,-0.005874,-0.10354,-0.067987,0.013254,0.0054945,-0.043225,-0.032698
0.039318,0.15573,0.23571,0.18512,0.021789,4.1318e-05,-0.11536,0.0081984
-0.037644,-0.15747,0.41218,-0.15048,-0.064168,-0.028859,0.1014,-0.044305
0.0023524,0.015922,-0.22098,-0.051428,0.036645,0.043439,0.076326,0.028198
0.05007,0.050949,-0.06937,0.068742,0.035297,-0.0020946,-0.049486,-0.0090317
-0.027181,0.01752,0.38998,-0.085842,-0.052364,-0.024984,0.044614,0.046811
-0.026218,-0.046069,-0.39911,0.12671,-0.0073047,-0.048648,-0.070933,-0.054496
0.02168,0.046691,-0.12623,-0.011085,0.03014,0.036462,-0.060294,0.0072689
-0.0086078,-0.017742,0.073658,-0.091983,-0.010089,0.027512,0.044952,-0.010034
0.054604,-0.013723,0.26915,0.18925,0.036239,0.0029593,0.041162,-0.028115
-0.015462,-0.051268,-0.30628,-0.065815,-0.018316,-0.013458,0.060498,0.054828
-0.062738,-0.01348,0.15995,-0.099887,-0.041,-0.0059124,-0.08524,0.0046819
0.02986,0.10753,-0.1593,0.054865,0.046147,0.0022182,-0.029506,0.024819
-0.050155,-0.11754,-0.12171,-0.11053,-0.053995,-0.028218,0.039734,-0.056423
0.064532,0.077523,0.4154,0.051156,0.03328,0.066621,0.13011,0.058022
0.022585,0.084037,-0.10836,0.14041,0.018612,-0.018252,-0.2035,-0.084782
-0.042897,-0.13635,0.11357,-0.02323,-0.0045019,-0.025337,0.062893,0.046624
0.032452,0.12018,-0.0031828,-0.010399,0.034097,0.037303,0.00047849,0.022784
-0.024524,-0.044187,-0.30902,-0.10211,-0.053095,-0.064835,-0.10061,-0.038894
-0.018284,-0.12891,0.040579,0.061821,0.023157,0.03547,0.15132,0.0023684
0.0044383,0.07741,0.249,-0.017272,-0.049297,-0.028786,-0.0084725,-0.064356
-0.0032042,-0.042153,-0.81699,-0.22058,-0.04343,0.0083151,0.029882,0.057595
0.021182,0.067129,0.69282,0.22693,0.080307,0.029914,-0.13202,0.023994
0.022668,0.069058,-0.02091,0.0061948,0.0098007,-0.0027641,0.13039,0.03724
-0.045968,-0.1463,0.13203,0.00057453,0.0030399,0.0042134,-0.074381,0.088642
0.033631,0.13121,0.35058,0.1004,0.013055,0.0040221,-0.044293,-0.1586
0.034547,0.010102,-0.3224,-0.10954,-0.015202,-0.019038,0.12574,0.0058282
-0.012191,0.099023,0.28206,0.087779,0.011468,0.012995,-0.026221,0.011399
-0.044096,-0.22744,-0.6181,-0.044019,-0.024738,-0.0094449,-0.02431,-0.032181
-0.037504,-0.094298,-0.42745,-0.084869,0.0084441,0.0072188,-0.025,0.05564
-0.0076177,0.084807,-0.26698,-0.075096,-0.045595,-0.030878,-0.059257,-0.028564
-0.016417,-0.10356,0.67338,0.031696,-0.030716,-0.014408,0.05334,-0.033367
0.10062,0.2787,0.81313,0.1343,0.10792,0.056631,-0.022105,0.011266
-0.0078114,-0.049384,-0.42183,-0.039633,-0.027783,-0.036496,-0.011029,-0.0031879
0.025427,-0.025514,-0.0062874,-0.019799,-0.01547,0.026525,0.10317,0.040656
-0.057841,-0.064439,-0.12852,0.0080454,0.01254,0.019091,0.00083652,0.17349
0.11679,0.31724,0.091508,-0.0013546,0.0019937,0.019254,-0.013157,-0.20747
-0.13885,-0.31892,-0.037557,-0.031126,-0.046799,-0.074628,-0.07187,0.021072
-0.012835,-0.020332,-0.22259,0.036621,0.022556,-0.0047969,0.01939,0.029195
0.056999,0.080343,-0.13037,0.053532,0.053779,0.025623,-0.029283,0.11223
-0.085609,-0.2816,-0.22302,-0.082461,-0.054878,0.0010716,0.10152,-0.23081
0.036199,0.11416,0.32798,0.0026767,0.032227,0.023232,-0.073401,0.062408
0.06357,0.29296,0.41478,0.049901,-0.021181,-0.024936,0.0078459,0.00030602
-0.010678,-0.17306,-0.11678,-0.027982,-0.012284,0.0051482,-0.037892,-0.072077
0.048445,0.20183,-0.045935,0.088294,0.043088,-0.0035832,0.0080939,0.17505
-0.055418,-0.12864,-0.19138,-0.10973,-0.026997,0.011448,0.067907,-0.061308
-0.048467,-0.14902,0.065055,-0.012813,0.0041299,0.026844,0.0013673,-0.02977
0.038244,0.092875,-0.010561,-0.034672,-0.035166,-0.043323,-0.050315,0.051747
-0.0061999,-0.045091,-0.18386,0.020724,0.0038649,-0.0037508,-0.00054843,0.034988
0.044616,0.1774,0.34955,0.03704,0.019949,0.020545,0.057563,0.067978
-0.098696,-0.29631,-0.19204,-0.063123,-0.017996,-0.017338,-0.08635,-0.15481
0.016492,0.10222,0.19086,0.12686,0.038438,0.0075487,0.044702,-0.10315
0.053582,0.18397,-0.4242,-0.057177,-0.01413,-0.045517,-0.033441,0.13602
0.035243,-0.012964,0.58717,0.2358,0.066047,0.081121,0.038557,-0.00057067
0.0075578,0.0033656,-0.55698,-0.20594,-0.0028011,0.012242,-0.0052477,-0.01343
0.0089077,0.069487,0.30649,-0.016003,-0.057069,-0.041477,0.022074,-0.019954
-0.093942,-0.49287,-0.28453,-0.14022,-0.057947,-0.0099798,-0.020857,0.034572
-0.043213,0.083941,-0.12843,-0.016165,-0.028824,-0.034087,-0.041107,-0.01373
0.13027,0.13034,0.74959,0.13779,0.077534,0.057998,0.14029,0.085416
-0.096093,0.0077641,-0.011598,0.002021,-0.0039023,-0.0070825,-0.09435,-0.081731
0.052303,0.4285,-0.2102,0.077343,0.047874,0.044358,0.0048772,0.024225
-0.087338,-0.083612,-0.14349,-0.088701,-0.047751,-0.076345,-0.046092,-0.065133
0.072074,-0.3104,-0.38079,0.082397,-0.0090949,-0.024946,-0.074675,-0.083866
0.070418,0.30154,0.18187,0.035988,0.062425,0.019374,0.084158,0.23391
-0.099791,-0.6635,-0.13162,-0.18912,-0.083364,0.002339,0.017362,-0.11163
0.069043,0.22263,0.11241,0.047239,0.045274,0.025725,0.053903,-0.011039
0.005895,0.34153,0.36277,0.041458,0.010197,0.050415,-0.0088625,0.043468
-0.016848,-0.11221,-0.0033967,-0.035026,-0.017425,-0.017666,-0.02247,0.012748
-0.039426,0.10336,-0.0092497,0.075302,0.016462,-0.022804,-0.002959,-0.048578
0.077705,0.12121,-0.070466,0.03637,0.0098556,-0.0046795,-0.005753,0.015745
-0.135,-0.51132,-0.065118,-0.11274,-0.053024,-0.010713,-0.0082966,0.026152
0.02518,0.026666,-0.020405,-0.0047047,-0.0079636,0.0056406,-0.011422,-0.1187
0.011349,0.08725,0.0053948,-0.022182,0.012644,-0.010333,0.0076907,0.050196
0.089422,0.33471,-0.076333,0.092738,0.025005,0.019787,0.017498,-0.021681
-0.099529,-0.16869,-0.13411,-0.089687,-0.040588,-0.067514,-0.021007,0.10313
0.038702,0.029455,-0.18347,0.00060264,0.0038519,0.0018692,-0.044966,-0.036655
0.059149,0.18595,0.28466,0.13662,0.072651,0.03324,0.032104,0.034865
-0.0067586,-0.35642,0.55352,0.091361,0.048627,0.12075,0.062353,0.035526
-0.018359,0.22213,-0.062131,-0.057343,-0.029374,-0.040217,-0.031865,-0.02786
-0.0069405,0.0078273,-0.48196,-0.11405,-0.075742,-0.082757,-0.00029854,-0.093687
-0.089705,-0.50594,-0.19623,-0.15619,-0.051739,-0.0074692,-0.030487,-0.076623
0.022499,0.09693,0.0154,-0.034021,0.018987,0.036418,0.017872,0.046554
0.072086,0.6783,0.14623,0.24637,0.027005,-0.037871,-0.0041991,0.10417
-0.0030903,-0.44689,0.23592,-0.094464,0.034892,0.073617,0.027665,0.018643
-0.022913,0.012233,0.22981,0.062128,0.011545,-0.020233,0.066018,0.079841
-0.002577,0.087773,-0.067862,0.013745,-0.011644,-0.022692,-0.07699,-0.23474
0.003591,0.068464,-0.36888,0.025748,0.012279,0.01181,-0.057605,0.075872
-0.0041768,-0.14085,-0.21329,-0.051591,-0.02606,-0.0020136,0.038653,0.020409
0.013249,0.14516,0.054089,-0.056363,-0.025172,-0.047564,-0.045228,-0.0019081
-0.006742,-0.036942,-0.036641,0.11815,0.038273,0.024741,0.058988,0.079802
0.013701,-0.11917,0.44285,-0.030745,-0.015517,-0.010539,0.00081912,-0.038858
-0.019575,-0.15791,0.069043,-0.083423,-0.022542,-0.019711,-0.054796,-0.15479
0.010139,0.28355,0.058839,0.075946,0.040633,0.075798,0.056654,0.15353
-0.014844,-0.11486,-0.30823,-0.029396,0.017832,0.0024458,0.014735,-0.028635
-0.016869,-0.047305,0.4902,0.046925,-0.036114,-0.013874,-0.0093925,-0.022516
0.050546,0.31621,-0.874,-0.1695,0.0039886,0.049149,0.061196,0.069243
0.015237,-0.092377,0.13959,0.097644,-0.0022785,-0.067675,-0.024966,-0.051333
-0.091718,-0.31769,0.096023,-0.11736,-0.062562,-0.02978,-0.081823,0.060122
0.065574,0.071811,-0.11873,0.078677,0.081008,0.028922,0.030134,-0.042319
-0.036263,-0.28998,0.22481,0.01542,-0.032614,0.021858,0.021282,-0.015051
0.016991,0.51097,0.44884,0.15393,0.0025095,-0.074476,-0.08482,-0.060801
0.053684,0.21557,-0.23544,0.016278,0.060877,0.037286,0.040719,0.032272
-0.043105,-0.1552,-0.048228,0.13118,0.024679,0.022135,0.024157,-0.00018545
-0.046522,-0.18266,-0.0313,-0.25453,-0.091083,-0.064071,-0.04709,-0.016129
0.074981,0.17668,0.18712,-0.011099,0.049047,0.10798,0.054947,0.0091846
-0.014246,-0.3301,-0.4505,-0.14076,-0.047335,-0.0075917,0.050075,0.29547
-0.056143,-0.033006,-0.27404,-0.050767,-0.067615,-0.097652,-0.061182,-0.3287
0.035398,0.16104,0.75531,0.27493,0.098013,0.088003,0.049229,0.0037432
-0.020816,-0.04436,-0.54101,-0.16206,-0.073232,-0.044599,-0.056799,-0.035997
0.0016832,0.00052888,0.25319,0.14064,0.067826,0.011788,0.026009,0.097835
0.0088892,-0.085496,-0.16435,-0.14253,0.021854,0.068905,0.030918,0.075717
0.07072,0.41003,0.15378,0.1469,0.039341,-0.022468,-0.027455,0.10713
-0.008594,0.011752,0.25574,0.0026776,-0.066949,-0.13015,-0.079503,-0.20765
-0.049777,-0.2247,-0.069062,0.01922,0.0077328,0.073621,0.038546,-0.049127
0.01725,0.045356,-0.055447,-0.030148,-0.025741,-0.012749,-0.0012896,0.066831
-0.010589,0.096605,0.045845,0.02577,0.02784,0.032879,0.028043,-0.031198
-0.070422,-0.45974,-0.29696,-0.12645,-0.042539,-0.015588,-0.0055812,0.03283
0.010281,-0.082217,-0.21656,-0.089267,-0.0025228,-0.0013665,0.015731,0.0025272
0.029206,0.15374,0.24883,0.10542,0.0229,-0.0021263,0.0066054,-0.019032
0.026191,0.29739,-0.18851,-0.074044,-0.0053374,0.013645,-0.0092074,0.031929
0.0017915,0.061199,0.44943,0.15339,0.045496,0.038143,-0.00044159,-0.031315
0.081198,0.38284,0.18702,0.16257,0.011141,-0.092938,-0.061103,0.010092
-0.07957,-0.57495,-0.40532,-0.27332,-0.030594,0.080915,0.073983,0.085252
-0.0045599,-0.15851,0.1012,0.13439,0.021453,0.043588,0.029291,-0.025733
-0.0071296,-0.051041,-0.076419,-0.15391,-0.059705,-0.041275,-0.0081551,0.11319
-0.010089,0.25925,0.067365,-0.052971,-0.032269,-0.056711,-0.046475,-0.26504
-0.022077,-0.0046994,-0.12608,0.069298,0.0018932,-0.065188,-0.070112,-0.020865
0.14384,0.38852,0.23958,0.26693,0.097271,-0.0039211,0.0070511,0.22803
-0.12975,-0.43794,-0.39193,-0.062088,0.042849,0.16659,0.091636,-0.11973
-0.014533,0.10919,0.1191,-0.074094,-0.051949,-0.092249,-0.042471,-0.00085305
0.036864,-0.00029594,0.15519,-0.088983,-0.007248,0.087075,0.089502,-0.054741
-0.068579,-0.34215,0.11505,-0.058909,-0.06491,-0.068762,-0.066889,0.024633
0.037115,-0.08498,-0.11783,-0.13088,-0.060439,-0.028661,-0.042868,0.050934
0.10462,0.50905,0.090373,0.16549,0.076949,0.035134,0.052008,0.079583
-0.029699,-0.21344,-0.14969,0.058196,0.050787,0.028385,-0.0013545,0.0013635
-0.07667,0.12418,0.0071952,0.016845,-0.021494,-0.065014,-0.039307,-0.12163
0.072893,0.186,-0.11715,0.12739,0.063249,0.074912,0.062771,0.076959
-0.026719,-0.15445,-0.04479,-0.087597,0.00013138,-0.012861,-0.0078677,-0.036686
0.014652,0.20196,0.12364,-0.051577,-0.086183,-0.054673,-0.040324,0.036518
-0.06902,-0.52861,-0.0021708,-0.078916,-0.039796,-0.018757,-0.010955,-0.071205
0.089232,0.53475,0.38983,0.23497,0.076546,-0.052821,-0.028706,-0.0084164
-0.073092,-0.42887,-0.029541,-0.087512,-0.0028355,0.13298,0.071056,0.0064977
-0.047984,-0.19972,-0.36318,-0.2964,-0.059025,-0.01538,-0.015756,0.06022
0.00079017,0.013583,-0.13568,0.062394,0.0098842,-0.020961,-0.030843,-0.049446
0.14382,0.47185,0.41023,0.186,0.071515,0.045914,0.057305,0.014307
-0.079714,-0.26743,-0.59232,-0.10304,-0.053403,-0.065168,-0.040428,-0.029189
0.15042,0.21937,0.36563,0.11929,0.026042,0.012233,0.011523,0.070193
-0.15045,0.1981,-0.081407,0.057652,0.028688,0.034982,0.017192,0.030814
-0.03744,-0.051451,0.12306,-0.13112,-0.053418,-0.03696,-0.0086144,-0.030978
0.0046022,-0.4148,-0.027352,-0.088159,-0.017507,0.037762,0.034824,0.10244
0.037809,0.24539,0.29626,0.27881,0.049981,-0.069528,-0.079765,-0.2498
0.061976,-0.066145,-0.23423,-0.071455,0.023478,0.055045,0.05343,0.059736
-0.071334,-0.19536,-0.12728,-0.078838,-0.035048,-0.049265,-0.042248,0.046027
0.03651,0.34895,0.20202,-0.018929,-0.0088142,0.00085741,-0.014967,-0.025496
-0.098526,-0.47201,-0.38802,-0.11197,-0.038662,0.018617,0.010842,0.056357
0.10209,0.22567,0.16414,0.071148,0.031659,0.036028,0.043741,0.034402
-0.080008,-0.048812,0.060863,0.054204,0.014842,-0.00090966,-0.0014148,0.0032861
0.089824,0.088432,0.114,-0.075754,-0.010662,0.017697,0.008884,-0.051575
0.025753,0.41112,-0.04438,0.12031,0.049276,-0.025041,-0.010798,-0.027565
-0.045732,-0.19073,-0.15741,-0.11381,-0.070627,-0.050915,-0.021144,-0.048764
-0.046714,-0.14808,0.20331,0.043459,-0.0029434,0.002477,-0.022147,-0.052025
-0.0009047,-0.22014,-0.19031,-0.00090012,0.0024223,0.041162,0.040674,0.16601
0.028948,0.34228,0.22261,0.19069,0.08604,0.010158,0.010714,-0.0042839
0.066139,-0.085459,0.018775,-0.11662,-0.033509,-0.0049032,-0.018702,0.069179
-0.092435,-0.25148,-0.32607,-0.11114,-0.012683,0.011334,0.014511,-0.059975
0.069062,0.25384,0.32096,0.081329,-0.0078787,-0.042875,-0.03841,-0.072593
-0.081792,-0.26036,0.031428,-0.11006,-0.026907,0.012092,0.025466,0.14753
0.04145,0.070029,-0.23132,0.14277,0.039824,-0.011199,-0.020459,-0.25172
-0.029423,0.10847,-0.081096,-0.12057,-0.041621,0.035869,0.019233,0.034359
-0.020531,-0.16601,-0.1156,-0.03972,-0.012832,-0.026139,-0.019318,0.029754
0.083984,0.30926,0.15316,0.19124,0.033089,0.013981,0.020378,0.047927
-0.0050023,0.14119,-0.13153,-0.114,0.010751,-0.015426,0.0057171,0.089993
0.016812,-0.24527,0.63294,0.0063199,0.0063902,0.042003,0.014953,0.039787
-0.046544,0.081044,-0.007327,-0.025721,-0.026931,-0.040331,-0.022213,-0.15665
0.0072287,0.074375,-0.31262,0.070584,0.0040699,-0.067326,-0.043384,0.10256
-0.033653,-0.29455,-0.11461,-0.010739,0.020424,0.093455,0.044978,-0.1358
0.041027,0.040715,-0.20619,0.025324,0.013212,0.011822,0.00040783,0.04185
-0.027022,0.039942,0.19847,-0.0030442,0.020309,0.015349,0.01792,0.033166
0.012029,-0.092097,0.27698,0.050593,0.017219,0.041037,0.034754,0.032485
-0.021358,0.008023,-0.23685,-0.11992,-0.098336,-0.13801,-0.089887,-0.02374
0.099802,0.05677,-0.41248,0.023871,0.0015412,0.0093818,0.011147,0.019752
-0.10825,-0.033769,0.51759,-0.0019918,-0.0031412,-0.0087716,-0.0057897,0.044994
-0.051085,0.061657,-0.24896,-0.15705,-0.010016,0.018918,0.0079629,-0.13596
0.053191,0.033642,0.3526,0.053021,0.021106,0.046168,0.029256,0.015937
0.072245,0.25012,-0.051152,0.12285,0.060207,0.011076,0.0036962,0.047997
0.021961,-0.071694,-0.11575,0.15631,0.014644,0.015697,0.017464,0.023571
0.0039265,0.072747,-0.067943,-0.094805,-0.0054001,-0.017786,-0.015212,-0.0014987
-0.099197,-0.28153,0.0054675,-0.16859,-0.06201,-0.018951,-0.0083015,-0.049348
-0.029841,-0.23987,-0.076361,0.10695,0.016694,0.012142,-0.0086521,0.01411
0.086756,0.30443,0.34174,0.059265,0.0038047,-0.065309,-0.039715,0.049324
-0.062079,-0.36845,-0.31903,-0.078537,-0.038783,-0.0015458,2.044e-05,-0.021118
0.031389,0.328,0.19122,0.020088,0.05225,0.046909,0.04796,-0.064167
-3.1373e-05,0.11433,-0.16611,-0.013687,0.0026922,0.040713,0.018017,0.005813
