-0.14023,0.16329,-0.087399,-0.040085,-0.034764,-0.058409,0.051459,-0.0051194
-0.11574,0.16924,0.072145,0.030047,0.019594,0.025424,0.033862,0.11912
0.076047,-0.036343,-0.03348,-0.024717,0.0035837,0.0002234,-0.15503,-0.65876
-0.15085,0.10077,0.063757,0.02983,-0.012529,-0.024367,0.055604,0.19961
0.13433,-0.20875,-0.035292,-0.025208,0.01809,0.053366,0.095759,-0.047389
0.081945,-0.011689,-0.010897,-0.01025,-0.021773,-0.032222,0.0045149,0.30508
-0.1182,-0.24501,-0.0040414,0.027777,0.01632,0.031171,0.047167,0.25161
0.11419,0.31095,-0.0069756,-0.0048713,-0.016042,-0.0068127,-0.089407,-0.59597
-0.16468,-0.069281,-0.027261,0.0012481,0.0061938,-0.0059943,0.015878,0.31905
0.14736,0.037158,0.091888,0.022821,0.012786,0.0097513,-0.05181,-0.18199
0.1827,0.24028,-0.055033,-0.041538,-0.011809,-0.030213,0.035071,0.064772
-0.20839,-0.32696,-0.014053,0.0036972,0.018432,0.014615,-0.028429,0.1829
0.06614,0.22571,0.012526,0.0025119,-0.021407,-0.011892,0.039048,-0.064465
0.082713,-0.23522,-0.013679,0.001999,0.009375,0.0078199,-0.01204,-0.21159
-0.30828,0.094098,0.024943,0.0023209,-0.021969,-0.027266,0.029956,0.77765
0.10372,-0.029318,-0.019944,-0.0042662,0.009602,-0.014964,-0.052877,-0.66144
-0.19642,0.081437,0.038913,0.029062,0.033785,0.092174,0.029333,-0.23286
0.28462,-0.027102,0.0056453,-0.007245,-0.02758,-0.033567,-0.011834,-0.13133
-0.084634,-0.081626,-0.034594,-0.019712,-0.0027022,-0.017024,-0.0041462,0.22323
0.12659,0.03503,0.034499,0.014762,0.006726,0.0088777,0.044595,0.25548
0.082768,-0.075644,-0.053544,-0.013541,0.00053695,0.004711,-0.022204,0.054215
-0.18527,0.062656,-0.02597,-0.018979,-0.021457,-0.037882,-0.025497,-0.057934
0.063411,0.18379,0.046477,0.037305,0.034309,0.044534,0.049514,0.014085
-0.0011347,0.021398,0.030836,-0.016659,-0.0041954,0.0091774,0.0066572,-0.042025
-0.16997,-0.24563,-0.03369,0.014471,-0.0042572,-0.03504,-0.07668,0.16367
0.21141,0.053966,0.025151,-0.0097915,0.0028585,0.013193,0.080276,-0.20595
-0.076888,0.11536,-0.057704,-0.018911,-0.029639,-0.03363,-0.13979,-0.3553
-0.16793,-0.014078,0.069967,0.018636,0.015621,0.020032,0.11492,0.2458
0.65779,-0.1144,-0.036469,-0.006249,0.0060865,0.010519,0.032471,0.19031
-0.62155,-0.26199,-0.024838,0.0004213,-0.011067,-0.022618,-0.10512,-0.1708
-0.16773,0.2326,0.042823,0.023178,0.019135,0.030462,0.070199,-0.080302
0.10765,-0.058535,-0.036354,-0.023864,-0.012463,-0.0095776,-0.0033084,0.12513
-0.11361,0.28762,0.018898,-0.0079545,-0.0041914,0.013683,-0.043812,0.25713
0.78687,0.099484,0.02085,0.0082467,-0.0029513,-0.0091595,0.027091,0.51023
-0.36275,-0.10004,0.039389,0.032324,0.037968,0.015445,0.053083,-0.98309
0.092522,0.070734,-0.043223,-0.0062859,0.001104,0.0012482,-0.028735,0.19951
-0.38067,-0.5458,-0.094747,-0.045307,-0.051383,-0.04428,-0.039341,-0.24515
-0.042555,0.010134,0.07963,0.016673,0.012973,0.011379,0.004819,-0.10375
0.61261,0.2143,0.042068,0.015543,0.014189,0.01178,0.0091403,0.079577
-0.42409,0.1366,-0.035693,-0.025195,-0.016686,-0.019709,0.050996,0.94791
0.12875,0.15186,0.018311,0.011808,0.0062057,-0.012735,-0.10453,-0.75514
-0.50872,-0.02911,-0.037824,0.025213,0.036038,0.0797,0.13607,0.45486
-0.0060734,-0.10966,-0.031801,-0.039418,-0.036397,-0.039114,-0.10992,-0.38438
0.43606,-0.43391,-0.025651,-0.0021641,-0.0077129,-0.0096261,0.048535,0.33421
-0.08659,0.26329,0.12948,0.051226,0.0052273,-0.019169,-0.075354,-0.54045
0.64564,0.61425,0.0041814,0.011509,0.026209,0.049606,0.042715,0.48148
-0.4536,-0.85017,-0.1046,-0.058735,-0.030373,-0.045334,0.020845,-0.53123
-0.15924,0.27614,0.045218,-0.0032169,-0.00018224,0.016487,0.047357,-0.14949
0.18295,0.48563,0.070554,0.037452,0.046661,0.016485,-0.056819,0.92381
-0.39758,-0.30683,-0.083593,-0.014866,-0.014753,-0.0061149,0.036784,-0.84185
0.17624,-0.31858,-0.01907,-0.035217,-0.036007,-0.035553,-0.054609,0.78091
-0.095558,0.0070144,0.0061371,-0.00027234,-0.0094155,-0.0092585,-0.018744,-0.38692
0.053691,0.17994,-0.0080062,0.0429,0.01792,0.033667,0.10483,0.20974
0.20375,-0.00092542,0.063599,0.039323,0.014431,0.014914,-0.059555,-0.57729
-0.21402,-0.12806,-0.036675,-0.027001,0.010975,0.0044418,-0.0283,0.70541
0.28598,0.32991,0.027322,-0.031479,-0.031945,-0.052938,-0.091278,-0.37915
0.079052,-0.14393,-0.041107,0.0020802,0.041491,0.076555,0.2273,-0.080251
-0.49174,-0.052154,0.00032406,-0.0047109,-0.019083,-0.021734,-0.065396,-0.32676
0.17356,0.48452,0.065677,0.01056,-0.010774,-0.02016,-0.0088781,0.63971
0.28369,-0.48301,-0.040469,0.016758,0.0038755,-0.0049213,-0.079873,-0.66526
-0.03873,-0.23931,-0.013626,0.014201,0.02504,0.031833,0.026465,0.90585
-0.67858,-0.083479,-0.04156,-0.074763,-0.056266,-0.081419,-0.033127,-0.26597
0.80026,0.38224,0.03948,0.031667,0.010503,0.023135,0.007728,-0.25339
-0.23547,0.22912,0.041669,0.013711,0.015026,0.02597,0.12651,0.27733
-0.042952,0.014283,0.019382,0.0045859,-0.0030714,0.045068,-0.050841,0.23124
-0.07371,-0.53997,-0.074524,-0.026774,-0.004331,-0.075174,-0.093789,-0.70354
-0.14578,0.10172,-0.029301,0.013293,0.0035696,-0.0062684,0.045175,0.28048
0.094921,0.10749,0.053411,0.046306,0.043906,0.087731,0.13984,-0.17908
-0.091475,-0.23027,-0.021644,-0.014235,-0.016567,-0.035708,-0.20819,-0.4903
0.53886,0.29354,0.058243,0.018526,0.032487,0.060304,0.024218,0.39161
-0.083672,0.15578,0.020005,-0.012244,-0.028321,-0.039029,0.063004,0.18153
-0.053041,0.58938,-0.0030112,-0.044422,-0.043262,-0.060948,0.047917,0.80989
-0.32335,-0.98664,-0.13513,-0.070277,-0.036058,-0.02936,-0.02992,-0.953
-0.23977,-0.0055874,0.05409,0.051051,0.024539,0.02432,-0.0075615,1.0424
0.18049,-0.1274,-0.020559,0.030978,0.021604,0.037745,0.0045836,-0.89278
0.139,0.39479,0.0086556,0.034169,0.033698,0.019129,-0.072402,0.16145
0.30616,0.26197,0.071628,-0.0091113,-0.0090056,-0.031001,0.042304,-0.2642
0.11037,-0.034647,-0.035024,-0.035936,-0.020151,-0.0027543,0.028409,-0.0030115
-0.48847,-0.52614,0.023881,0.032024,0.016151,0.018309,0.03483,0.14712
-0.42846,-0.1723,-0.01846,-0.00056987,0.014041,0.016722,-0.031288,-0.24799
0.71228,0.45842,0.047488,-0.0089355,-0.034395,-0.046675,-0.12187,-0.079831
-0.073324,0.2354,-0.0061858,-0.016834,-0.0043765,-0.0081382,0.030067,0.74679
0.20068,-0.065718,0.00703,0.006645,0.025707,0.084993,0.13678,0.12462
-0.33053,-0.21634,-0.069481,0.006546,0.016564,-0.0099618,-0.058447,-0.97639
0.0548,0.058685,-0.024378,-0.017279,-0.016299,-0.035581,0.062332,0.38017
-0.36654,-0.028268,-0.090886,-0.01015,-0.041607,-0.023285,-0.0083934,0.33841
0.29928,-0.12452,0.1077,0.035853,0.011132,-0.027645,-0.12235,-0.62525
-0.085931,-0.2293,-0.012653,-0.011906,0.017207,0.029869,0.0011357,0.91512
-0.044585,0.31388,0.041993,-0.020429,-0.015237,-0.014188,0.048588,-0.80504
0.43026,0.19216,0.093158,0.049478,0.023455,0.020561,0.0031292,0.27585
-0.28146,0.0998,-0.061817,-0.044328,0.00062602,-0.0059014,-0.003876,0.14058
0.56569,-0.066406,-0.032629,-0.020658,-0.036871,-0.054131,-0.13018,-0.29756
-0.32282,0.066566,0.046929,0.096907,0.09045,0.17283,0.40414,0.82998
-0.3977,-0.75329,-0.066706,-0.051189,-0.02399,-0.012734,-0.097199,-0.76122
-0.27265,0.17535,0.023444,-0.019788,-0.03682,-0.087787,-0.18134,-0.45337
0.35447,0.26501,-0.051054,-0.012073,-0.034295,-0.0606,-0.058648,0.63283
0.022287,-0.024679,0.044908,0.050166,0.038092,0.068478,-0.0010892,-0.62045
0.21667,0.17222,0.014137,-0.012511,-0.0071503,-0.028822,-0.029902,0.19392
0.24526,0.40927,-0.057281,-0.059095,-0.021399,-0.055544,-0.025368,0.85792
-0.69282,-0.11905,-0.0048071,-0.0032019,-0.0043506,-0.0036456,0.053904,-0.26999
0.07051,-0.67069,-0.030976,0.014955,0.020892,0.072434,0.147,-0.44345
0.37481,0.059967,0.15377,0.089392,0.070221,0.11031,0.17624,0.33859
0.011982,0.26259,-0.012858,-0.022048,-0.051554,-0.085433,-0.21073,-0.066344
-0.055254,-0.3487,-0.030973,-0.038363,-0.0085498,0.0082477,0.070117,0.15811
-0.2481,0.25323,-0.041639,-0.03819,-0.035374,-0.077984,-0.2494,-0.33679
0.17532,-0.1236,0.048266,0.0637,0.047291,0.045805,0.10929,-0.38417
0.081134,0.36676,-0.027538,0.024318,0.0046254,0.011769,0.1283,0.66036
-0.11028,0.068527,-0.066447,-0.063367,-0.0075791,0.0069015,-0.021886,-0.33865
-0.20528,-0.11349,-0.021869,-0.020317,-0.036602,-0.070638,-0.22447,0.64123
0.3024,0.020821,0.035874,-0.0032186,-0.0046216,0.005694,0.029037,-0.68082
-0.041678,-0.44658,0.067963,0.050253,0.05695,0.095494,0.1854,-0.10808
-0.097802,0.33968,0.035771,0.0073854,-0.02377,-0.043009,-0.10503,0.0018858
-0.030487,-0.38927,-0.013256,0.0013575,0.0033789,-0.010829,0.058088,0.47879
0.082197,0.92727,-0.00031906,0.017146,0.013715,0.028594,0.004436,-0.28589
0.29553,-0.50757,-0.088723,-0.038202,-0.015736,-0.0022176,0.0709,0.54371
-0.42062,-0.52797,0.042659,0.015922,0.017169,-0.0088828,0.015558,-0.33794
0.27124,0.33019,-0.074118,-0.10077,-0.07443,-0.076771,-0.16974,0.30236
-0.13484,-0.0073352,-0.016496,0.034442,0.030403,0.028948,-0.016972,-0.48933
-0.36364,0.096001,0.067497,0.023754,-0.0037559,0.003872,0.066713,-0.15829
0.007982,0.15855,0.076302,0.093979,0.057779,0.1137,0.064875,-0.36748
0.44904,-0.3733,0.017254,0.0027502,0.0041098,-0.047999,0.016011,0.22873
0.16928,0.74971,-0.04807,-0.063031,-0.032201,-0.02848,-0.0019853,1.0621
-0.25591,-0.36539,-0.01151,-0.010527,0.0030292,-0.015799,-0.15307,-0.88959
0.013095,-0.29213,-0.014959,-0.0048499,-0.0080621,-0.018411,-0.015051,0.57701
0.16683,0.35692,0.057723,0.023314,0.035359,0.041158,0.084305,-0.25845
-0.21333,-0.15489,-0.11438,-0.051805,-0.070497,-0.079883,-0.026751,-0.29736
0.11924,-0.42202,0.031226,0.05062,0.041054,0.0867,0.018651,0.04235
-0.024299,0.45497,-0.0049003,-0.028814,-0.036517,-0.037624,0.071196,0.045702
-0.54125,-0.59959,-0.057669,-0.0085217,0.024875,0.054689,-0.0033063,0.46717
0.67346,0.36276,0.1398,0.06524,0.061349,0.066674,0.25446,-0.062338
-0.48426,0.7591,-0.0050389,-0.041135,-0.059554,-0.12653,-0.26634,-0.37083
0.17908,-0.85385,-0.053759,-0.037801,-0.0092392,-0.0167,-0.12901,-0.46374
-0.11223,0.50885,0.0019083,0.013405,-0.013755,-0.025027,0.026012,0.49151
0.18475,-0.23191,0.0056343,0.042608,0.04459,0.075974,0.028262,0.25084
0.33715,0.038862,0.074032,0.057778,0.041232,0.052973,-0.065102,-0.43709
-0.22642,-0.11133,-0.13759,-0.12871,-0.10944,-0.13206,0.069399,0.019535
0.22527,0.010059,0.072769,0.060909,0.038089,0.029519,0.036607,0.13283
-0.046441,-0.020941,0.016541,0.01678,0.038568,0.069498,0.073674,0.77204
-0.42066,0.028964,-0.0024124,-0.011605,-0.02213,0.01142,0.010458,-0.68051
0.076378,-0.16831,-0.00012368,-0.0012231,0.043328,0.019013,-0.074552,-0.06349
-0.20453,0.28667,-0.031192,-0.030444,-0.054363,-0.088141,-0.010575,-0.037584
0.0035995,-0.17478,-0.048169,-0.029005,-0.034241,-0.037636,-0.042171,-0.38153
0.094313,-0.082084,-0.03449,0.0032206,0.001822,0.020896,0.10082,0.6415
0.24292,0.63676,0.15157,0.10553,0.084758,0.12531,0.0084879,0.23776
-0.079077,-0.47788,-0.067083,-0.057785,-0.035757,-0.07704,-0.0023087,-0.66658
0.23101,-0.065802,-0.0022544,-0.017789,-0.024096,-0.0088395,-0.090532,0.36408
0.12528,-0.040691,0.010332,-0.0010041,0.04915,0.024778,9.6657e-05,-0.053312
-0.5556,-0.074454,0.032831,0.047156,-0.003729,0.00037459,0.019458,0.15286
0.35578,0.29346,-0.013739,0.0014759,-0.026577,-0.01129,0.086031,-0.75717
-0.27038,-0.070454,0.025661,-0.013319,-0.027164,-0.079698,-0.2118,0.17257
0.34318,0.10624,-0.014371,-0.028739,0.002507,0.014967,0.02756,0.077406
0.0068155,-0.54487,-0.11162,-0.044974,-0.015396,0.0081873,0.12771,0.75568
-0.13851,1.0218,0.11586,0.039461,0.044462,0.08839,-0.033544,0.066935
-0.55864,-0.96081,-0.10578,-0.033218,-0.005113,-0.017289,0.030068,-0.17734
-0.19388,-0.071803,0.028275,0.041793,0.039217,0.03503,0.15515,-0.23642
0.94614,0.84428,0.07334,0.092801,-0.017767,-0.020575,-0.065119,-0.58013
-0.15633,-0.22068,0.038215,0.010667,-0.012016,-0.020635,-0.077575,0.21358
-0.20034,-0.33673,-0.060259,-0.11055,-0.037354,-0.075228,-0.18903,0.3496
0.10473,-0.042135,-0.048918,-0.043907,0.0077079,0.018159,0.14518,-0.22361
0.3436,0.01599,0.010943,-0.0233,0.029398,0.056042,0.040341,0.099387
-0.19824,0.30805,0.010935,0.068944,0.012154,0.03059,0.0889,-0.21692
-0.064811,-0.42202,0.0064039,0.030112,-0.028248,-0.050062,-0.10812,0.18902
-0.042392,0.85083,0.044482,-0.053648,-0.036912,-0.07595,-0.19118,0.30939
-0.18958,-0.73158,0.01563,0.10664,0.072321,0.11771,0.25448,-0.34266
-0.086428,-0.19985,-0.049442,-0.083174,-0.059752,-0.10125,-0.16081,0.57971
-0.068514,0.23505,0.0046945,0.048077,0.035684,0.033252,0.056011,-0.46084
0.23361,0.40056,-0.033875,-0.016088,-0.00083273,0.052517,0.10861,0.2482
0.1514,-0.17342,0.0057237,-0.026536,0.0023285,0.018684,-0.026444,-0.48579
-0.25711,-0.34026,0.021015,0.0082203,0.021349,0.024751,0.017569,-0.32198
0.13538,0.35111,0.019072,-0.037228,-0.0067273,-0.016218,0.060171,0.2551
0.25918,-0.19504,-0.0084317,0.024568,-0.043293,-0.089637,-0.10257,0.709
-0.18384,0.17596,-0.01488,-0.017032,-0.018405,-0.024485,-0.096126,-0.14297
0.26446,-0.013366,0.023168,0.018214,0.044281,0.038113,-0.053234,-0.51344
-0.18851,-0.25535,0.012215,0.052874,0.050981,0.098112,0.24562,0.19772
-0.28832,0.16162,-0.039463,-0.045184,-0.076274,-0.10972,-0.15136,-0.36334
-0.060654,-0.24558,-0.053127,-0.025407,-0.0012344,0.0013044,-0.062837,0.11967
-0.076409,-0.014395,0.026587,0.026603,0.018705,0.025848,-0.049702,0.7185
0.42349,0.82554,0.075324,-0.0062561,-0.016013,-0.019548,0.23297,-0.4742
-0.050322,-0.65409,-0.015762,0.06337,0.027819,0.053346,-0.003402,0.20243
-0.040901,0.16494,0.050559,-0.046077,0.0020381,-0.012865,0.037714,0.47054
-0.075419,-0.044721,-0.12398,-0.030278,-0.022923,-0.014991,-0.15253,-0.52581
-0.16587,-0.10274,0.023141,0.016695,0.031025,0.062348,0.11971,-0.60229
0.33882,-0.12562,0.0074585,-0.022527,-0.00033747,-0.023459,-0.068886,-0.025628
-0.099197,0.24686,0.094469,0.078635,0.039035,0.0083926,-0.00064748,0.65839
0.12924,0.13284,-0.051884,-0.046798,-0.054163,-0.045525,0.050581,-0.32872
-0.25087,-0.27928,-0.025436,-0.070342,-0.084719,-0.13841,-0.28987,0.032026
0.070484,0.073623,-0.044981,0.02403,0.048935,0.0893,0.041409,-0.2098
-0.042438,-0.32398,-0.06369,-0.0055363,-0.012491,0.0051048,0.068987,0.68893
0.29812,0.59751,0.17615,0.12235,0.11392,0.13277,0.29379,0.11745
-0.26957,-0.12449,-0.052248,-0.037726,-0.024889,-0.019712,-0.065079,0.017504
-0.020561,-0.19575,0.024166,-0.017413,-0.038332,-0.061797,-0.070543,-0.61593
-0.25251,0.10687,-0.0092091,-0.01261,-0.012478,-0.0094537,0.11222,0.05564
0.31571,-0.29077,-0.020181,-0.039623,-0.017854,-0.011674,-0.14332,-0.23771
-0.12037,0.25599,-0.056211,-0.0053323,-3.0824e-05,-0.014423,-0.11996,0.056348
0.11139,0.25185,0.069773,0.050739,0.040737,0.04418,0.0014259,0.69561
0.30008,0.23402,0.029487,0.011198,0.010485,0.015224,0.071842,-0.58332
-0.1483,-0.77421,-0.059708,-0.030119,-0.020614,-0.01559,0.04455,0.082875
-0.1872,0.1821,-0.025433,-0.0025376,-0.013541,-0.040412,-0.025025,-0.17599
0.11292,-0.284,-0.015361,-0.0070435,0.0083289,0.050437,0.10642,0.49639
-0.28664,0.49655,0.049528,0.00393,-0.0095305,-0.086286,-0.16146,-0.31799
0.15416,-0.30675,0.029468,0.0076307,-0.012197,0.018774,0.070883,0.28164
-0.19593,-0.064011,-0.051452,-0.018825,0.00059642,0.030255,-0.062992,-0.16511
0.0087102,0.48603,-0.0054094,0.0030036,0.029104,0.050146,0.10132,-0.15943
0.81677,0.29012,0.097211,0.065325,0.050095,0.055222,0.032518,0.069537
-0.70001,-0.28517,-0.025274,-0.050886,-0.069104,-0.10296,-0.019768,-0.21598
0.27955,-0.38272,-0.076681,-0.010198,-0.00029008,-0.0026958,-0.095043,0.47272
-0.3692,-0.036993,0.067201,0.061781,0.045637,0.051106,0.06419,0.12495
0.30685,-0.28258,-0.039647,0.047299,-0.064118,-0.051115,0.020438,-0.042069
-0.12996,0.8855,0.039795,-0.13214,-0.0092332,-0.075058,-0.10087,-0.55928
0.37501,-0.19878,-0.069642,-0.0078907,0.061846,0.12776,0.052649,0.14596
-0.58435,-0.53637,-0.055316,-0.064117,-0.046238,-0.075356,0.0054697,-0.28951
0.085911,0.43514,0.059709,0.051148,0.0336,0.011017,-0.21018,0.42056
-0.090655,-0.47905,0.010278,0.080562,0.004306,0.058778,0.18753,0.062268
0.19806,0.37025,0.08588,0.040121,-0.017177,-0.025942,0.050079,-0.24374
0.19306,0.29612,0.060236,0.023735,0.031373,0.045659,0.13438,-0.043242
0.079638,-0.46686,-0.14467,-0.085862,-0.022177,-0.023643,-0.029974,0.60725
-0.1843,0.50296,0.041449,0.031386,0.0094828,-0.0076301,-0.070112,-0.17182
-0.19599,-0.14652,-0.084619,-0.077959,-0.061223,-0.086234,-0.12884,-0.12131
0.5101,-0.63461,0.031737,0.031166,0.023568,0.021718,0.042098,0.28299
-0.20108,0.42898,-0.015768,-0.055393,-0.017237,-0.027413,-0.11296,-0.55096
-0.43166,-0.088436,-0.00057156,0.037447,0.050957,0.094764,0.10916,0.060652
0.13224,0.1965,0.13201,0.091162,0.033078,0.029242,0.1001,0.11734
0.18133,0.073805,-0.0086652,0.012305,-0.00033761,0.034241,-0.036791,-0.69058
-0.20955,-0.25228,-0.078913,-0.09726,-0.056904,-0.085134,-0.041454,0.6189
-0.12923,-0.014989,-0.0084658,0.020514,0.019812,-0.015973,-0.028792,0.13063
0.46568,0.2085,0.015182,-0.0014413,-0.035635,-0.062587,-0.028116,0.30417
-0.0079439,-0.12029,-0.039135,-0.045979,-0.0043285,0.025323,-0.038168,-0.38708
-0.096192,-0.11839,0.0084275,0.019494,0.035733,0.083838,0.3164,-0.16004
0.1918,-0.020595,-0.013834,0.061759,-0.040418,-0.074649,-0.27753,-0.16457
-0.2329,0.52375,0.058248,0.025574,0.048352,0.06506,0.1551,0.51676
0.047663,-0.58038,-0.017548,-0.027182,-0.0029352,-0.02904,-0.16125,0.54934
-0.49387,0.29838,0.031997,-0.01894,0.031836,0.056107,0.075805,-0.72243
0.67851,-0.17712,-0.012245,-0.012541,0.003692,0.030343,0.036053,-0.28122
-0.22584,0.28929,0.036773,-0.00017026,-0.048818,-0.076047,0.069603,0.63509
0.058844,0.033693,-0.055726,-0.0048334,-0.016684,-0.021481,-0.11314,-0.29358
-0.32499,-0.51311,-0.0087101,-0.0022469,0.014045,-0.0091629,-0.15227,-0.74261
0.26631,0.080598,-0.048681,-0.006876,-0.026756,-0.038576,0.17245,0.85829
-0.13241,-0.088778,0.051284,0.0060011,0.041073,0.0085057,-0.16808,-0.73106
0.013437,0.33307,0.0027218,0.021925,-0.016176,0.047521,0.1098,0.63191
0.02646,0.12183,0.017266,-0.0051869,0.028791,0.079917,0.16444,-0.43585
0.41519,0.2632,-0.052905,-0.059513,-0.042135,-0.072754,-0.1668,0.48324
-0.39962,-0.5006,-0.0043123,-0.00096052,-0.017606,-0.026877,0.093034,-0.057638
-0.084797,-0.163,-0.0088645,0.044198,0.055588,0.045901,0.044843,0.72421
0.39485,0.070534,0.15172,0.10534,0.0052947,-0.026681,-0.16449,-0.58743
-0.027394,0.14212,-0.015575,0.12559,0.026225,0.020084,0.1348,0.46483
-0.15989,-0.26438,-0.066454,-0.24089,-0.023057,0.036472,-0.0047993,-0.86368
-0.37222,0.97236,0.084074,0.027784,-0.018413,-0.025818,0.00080051,-0.74404
0.084872,-0.60401,-0.18961,-0.084679,-0.0387,-0.058728,-0.20893,0.46191
0.024906,-0.21449,-0.020448,-0.070057,0.0015617,-0.0085453,-0.056119,0.26419
0.21587,-0.094259,0.084198,0.1512,0.055403,0.093012,0.28016,0.14532
0.2078,0.21065,0.023652,0.00314,-0.033149,-0.03519,0.0043596,0.65241
-0.17573,-0.062897,-0.036905,-0.035222,0.0021139,-0.0096621,-0.030226,-0.378
0.068147,0.19821,0.07547,0.038388,-0.017735,-0.055855,-0.040535,0.12383
-0.18347,-0.22819,-0.060342,0.014691,0.0096527,0.0072617,-0.13435,-0.61042
0.0081403,-0.32997,0.016873,-0.0039836,0.014616,0.016945,0.072241,-0.21106
0.23705,0.90427,0.11938,0.068099,0.036611,0.06017,0.16567,0.36083
-0.47377,-0.32007,-0.066004,-0.066999,-0.0024169,0.012481,-0.080834,0.51674
0.093223,-0.088205,-0.016726,-0.020306,-0.055853,-0.079313,-0.13688,-0.17747
0.27223,-0.40877,-0.12431,-0.059334,0.016404,0.073182,0.19152,-0.28207
0.09238,0.38016,0.024628,0.048534,-0.0050749,-0.031177,-0.097188,0.11898
-0.081332,0.072411,0.070398,0.067608,0.035262,0.020282,0.10487,0.11427
0.27265,-0.16362,0.013077,-0.073102,-0.0037949,0.023074,-0.023758,-0.44059
-0.39371,0.49677,-0.0062928,0.009257,-0.013225,-0.07854,-0.21806,0.14776
-0.3227,-0.76962,0.012934,-0.020558,-0.032144,-0.011641,-0.0014566,-0.026977
0.17423,0.19922,-0.014448,-0.028551,0.0022148,0.028585,0.18917,0.15391
-0.018086,-0.043053,-0.056502,0.041385,0.0044614,-0.019598,-0.09051,0.13829
0.30602,0.22231,0.059166,0.050002,0.037826,0.056014,0.19192,-0.33641
0.18034,0.08993,-0.01092,-0.032871,-0.029722,-0.055536,-0.1031,0.70159
-0.16651,0.21762,0.0066653,0.012118,-0.0021678,0.014483,-0.10756,-0.60437
-0.25674,-0.51759,-0.021178,-0.010284,-0.011829,-0.02172,-0.03975,0.13081
0.30844,0.07406,0.084736,0.063537,0.089948,0.11008,0.17858,-0.38782
-0.34644,-0.23172,-0.051211,-0.048479,-0.048483,-0.066512,0.031659,0.19291
0.11342,0.32487,-0.062445,-0.08169,-0.02904,0.010562,-0.019914,0.77283
0.061367,0.30776,0.066162,0.087952,0.014914,0.027824,-0.070261,-0.44378
-0.13743,-0.34497,-0.064131,-0.048119,-0.042268,-0.11761,-0.2369,-0.3154
0.35855,-0.05557,-0.0080907,-0.0059768,0.033141,0.096252,0.089283,-0.29473
-0.17174,-0.012793,0.062535,0.018945,0.021831,0.0040144,0.28305,0.11801
-0.12886,0.17986,0.030839,0.01901,0.0093237,-0.020362,-0.12463,0.085656
0.14168,0.067015,-0.016867,0.010236,-0.020228,-0.039987,-0.048257,1.0355
-0.0097174,-0.22843,-0.0333,-0.014684,-0.019965,0.0075079,0.066307,-0.41111
-0.26313,0.23731,0.021002,-0.00053476,0.002478,0.028698,0.03876,-0.68811
0.31939,-0.15348,-0.025486,-0.0093562,0.00056814,-0.014799,-0.03767,0.47347
-0.19065,-0.12674,-0.0084399,0.01387,0.02943,0.034168,-0.077319,-0.31285
0.20862,0.3505,-0.013675,-0.040072,-0.035477,-0.042197,-0.025396,-0.096223
-0.15246,-0.688,0.013427,0.0084719,0.0015546,-0.00083693,-0.15483,-0.16613
0.040988,0.26041,0.056934,0.081154,0.054859,0.096415,0.379,0.87734
-0.14632,0.30725,-0.047761,-0.080217,-0.062959,-0.1016,-0.079129,-0.36891
0.029606,-0.046473,0.011098,0.023886,0.023034,0.0067883,-0.07505,0.34949
0.24183,-0.20753,0.03736,0.017979,0.031381,0.030825,-0.14699,-0.82965
-0.0248,0.76743,-0.0009993,-0.0124,-0.014768,0.0014236,0.11958,0.067354
-0.22365,-0.80417,-0.034211,-0.0049838,-0.021953,-0.027183,0.0059445,0.052402
0.23825,0.62154,0.023517,0.016792,0.017416,0.02264,0.11318,0.24514
-0.16369,-0.52794,-0.046223,-0.048387,-0.029572,-0.0058126,-0.067403,0.020776
0.14746,-0.23759,-0.031651,-0.0047513,-0.0066291,-0.011336,-0.060409,0.36922
-0.23563,0.23605,0.013768,0.023283,0.023902,0.013656,0.07045,-0.17494
-0.19659,-0.22909,0.01331,-0.010576,-0.0237,-0.024675,-0.082112,-0.062929
0.47497,0.16772,0.022971,0.050382,0.046082,0.037773,0.0828,0.11324
0.075556,0.36771,-0.0031792,-0.012365,-0.00099754,-0.033239,-0.075619,-0.47178
-0.27007,0.0062751,0.036806,-0.02699,-0.03211,-0.018777,-0.049246,-0.15683
-0.030917,-0.27523,0.017653,0.037444,0.03077,0.065733,0.029811,0.11251
