0.045927,-0.015067,-0.083309,0.0055109,0.020619,0.015592,0.012905,0.053411
-0.00024341,0.030885,0.083424,-0.011534,0.0055412,0.0078649,-0.010238,-0.015366
-0.013617,-0.037268,-0.075794,-0.011034,-0.0086436,-0.022366,-0.0096865,-0.012656
-0.0023134,0.0064171,-0.012175,-0.024383,-0.0065834,0.01082,0.0067076,0.014126
0.0097526,0.090699,0.10377,0.026204,0.019169,0.036927,0.0076455,0.025188
-0.032672,-0.13702,-0.0086848,-0.0081953,-0.017709,-0.02249,-0.0069218,-0.019275
0.010469,0.056709,0.07964,0.028103,0.023089,0.019673,0.025465,0.15361
0.029315,-0.024087,-0.10928,-0.0061048,-0.022689,-0.032288,-0.028035,-0.22982
-0.015532,-0.012504,0.094224,-0.025399,-0.0066223,0.0010045,0.0044388,-0.0052784
0.047671,0.083741,-0.093676,0.047956,-0.0066779,-0.013428,-0.017746,0.007586
-0.085679,-0.12557,-0.073912,-0.044054,-0.0069392,0.010349,0.014775,-0.0027789
0.030022,0.1023,0.21403,0.01889,0.024194,-0.013459,0.016037,0.10526
-0.018846,-0.052388,-0.17633,-0.052066,-0.022335,0.0091264,-0.01402,0.012207
-0.0052166,-0.050229,-0.0029222,0.0012488,0.041169,0.023667,0.010444,-0.047207
0.024493,0.046312,-0.069583,0.030821,-0.011834,-0.0087014,-0.012259,-0.026295
0.031534,0.14314,0.17228,0.052675,0.021612,0.037127,0.019292,0.082006
-0.023052,-0.11197,-0.071947,-0.018828,-0.030689,-0.05759,-0.02784,0.0030966
0.032489,0.053572,0.1299,-0.035098,-0.005075,0.027391,0.02595,-0.0065615
-0.0052673,-0.025066,-0.13392,0.035129,0.019942,0.002912,-0.014669,-0.14355
-0.019527,0.0032069,0.076018,0.0042617,-0.01843,-0.02954,-0.016824,0.075584
-0.057546,-0.14285,-0.15309,-0.065333,-0.018763,0.00033328,0.011809,-0.037106
0.013207,0.029528,0.023009,0.021529,0.0033586,0.0066563,0.016742,0.04976
0.044166,0.060413,0.18214,0.0069411,0.0090663,0.0051833,-0.0017912,0.039957
-0.03495,-0.11924,-0.16114,-0.038843,0.0064723,0.011708,-0.020109,-0.049838
0.065086,0.30431,0.13993,0.087259,0.034981,0.010779,0.024513,0.039474
-0.030478,-0.13677,-0.049548,-0.013238,-0.0066431,-0.0052719,-0.0083652,-0.011069
-0.0088662,0.00323,0.072936,0.0033376,-0.02438,-0.028545,-0.017058,-0.059607
-0.002635,-0.0024235,-0.06495,-0.027177,-0.010225,0.0034796,0.014112,0.035459
-0.035029,-0.17789,-0.26951,-0.073647,-0.018762,0.0048026,-0.0086352,-0.0065271
0.026861,0.10849,0.098748,0.051319,0.020336,0.014348,0.0083375,0.0020729
0.018956,0.10535,0.078281,0.050757,0.013242,-0.0071567,-0.013286,0.029679
0.011433,0.037861,0.15325,0.026171,0.022295,0.010342,0.027804,0.020861
-0.027185,-0.15764,-0.0043445,-0.077138,-0.030862,-0.011557,-0.0092958,-0.025417
0.035643,0.041582,0.090275,0.022125,0.0097514,0.012832,0.007961,0.0068847
-0.011264,0.065101,-0.18713,-0.02749,-0.012383,-0.0026124,-0.0065668,-0.031738
-0.027433,-0.078663,-0.12441,-0.0070593,0.0040736,-0.01109,-0.013918,0.037593
-0.028497,-0.083759,0.069239,0.036766,0.0042934,-0.020362,-0.014067,-0.012115
0.02476,0.098452,0.0054062,0.026103,-0.0039436,0.0009943,0.00094408,-0.094952
0.023251,0.048091,0.08506,0.0080571,0.018506,0.037621,0.023542,0.015959
0.006399,-0.022002,0.060726,-0.05624,-0.029741,-0.0039161,0.014938,0.047689
-0.041071,-0.10254,-0.25295,-0.010394,-1.1385e-06,-0.0061189,-0.024614,0.00858
0.013912,0.065086,0.036023,0.0050459,0.0064291,-0.015606,-0.0011914,0.15683
0.015198,0.12143,0.099852,0.02914,0.0054049,-0.00096369,0.007139,-0.15586
0.017383,-0.098517,0.21109,0.022735,0.0048865,-0.0012039,-0.0075086,-0.015523
-0.018871,-0.033939,-0.0072626,-0.0065423,0.0049059,0.022669,0.017174,0.10099
-0.00022973,0.023912,-0.18307,-0.043334,-0.0024399,0.00017912,-0.0050267,-0.1973
0.0025204,0.057074,-0.093042,-0.017656,0.006093,0.0092244,0.011527,0.12056
-0.011058,-0.022494,0.0096478,0.023266,-0.016623,-0.005117,-0.0037398,0.015379
0.036849,0.096188,0.11454,0.063479,0.00728,-0.035222,-0.019738,-0.012794
-0.041376,-0.20475,-0.037984,-0.022276,-0.0083384,0.012559,-0.01305,0.012879
0.012185,0.0046339,0.14498,0.031491,0.014539,-0.010207,0.00083489,0.085054
-0.059978,-0.11829,-0.32866,-0.12675,-0.025638,0.0059553,0.0065545,-0.1941
0.031637,0.17039,0.018478,0.018833,0.0040723,0.02214,0.027888,0.0042007
0.029688,0.099191,0.10178,0.02331,0.010143,-0.0083619,-0.0051234,0.086808
0.036148,0.091839,0.29002,0.06685,0.016292,0.00051428,0.0015725,0.015087
-0.019031,-0.14714,-0.032317,-0.014097,-0.0084368,0.00195,-0.022134,0.054824
0.028298,0.047137,-0.074462,0.0074954,0.0065362,0.0037337,0.0019592,-0.020695
-0.087574,-0.18456,-0.10022,-0.039898,-0.016705,-0.0020405,0.011297,-0.07909
0.0081355,-0.045797,-0.1623,-0.031079,9.2434e-05,-0.0076976,-0.0099179,0.019625
0.033888,0.17338,-0.12575,0.018346,0.0022673,0.010049,0.031803,0.001297
-0.0028233,0.1122,0.31622,0.014459,0.0053577,-0.011439,-0.01229,0.029306
0.0070709,-0.10597,-0.13153,-0.0040291,-0.029909,-0.017593,-0.025329,-0.014082
-0.022637,-0.076589,0.17267,0.024879,0.0055128,-0.00069915,-0.0076011,-0.035468
0.03284,0.19887,0.11947,0.069337,0.04869,0.0078941,0.0094142,0.019701
-0.021946,-0.19467,-0.15943,-0.082189,-0.0024275,0.015889,0.0021267,-0.0047587
0.0082776,0.039379,-0.095877,-0.070825,-0.015504,0.023163,0.025152,0.024202
0.029828,0.13595,0.072828,0.11092,0.032524,0.029602,0.023815,0.052254
-0.0743,-0.31761,-0.18008,-0.12296,-0.069473,-0.0586,-0.056479,-0.068599
0.055554,0.28238,0.27488,0.12612,0.037938,0.024233,0.026642,0.013694
-0.033372,-0.11631,-0.1043,-0.055567,-0.058994,-0.073256,-0.03125,-0.020678
-0.0047471,-0.16747,-0.10116,-0.042553,-0.00037445,0.0086586,-0.003271,-0.030615
0.0011719,0.083993,-0.021815,0.032828,0.034739,0.036059,0.017174,0.070211
0.08624,0.41265,0.26616,0.11633,0.054775,0.017229,0.038216,-0.01483
-0.022804,-0.11891,0.20093,-0.010453,0.036781,0.030675,-0.010211,-0.0044552
-0.060292,-0.121,-0.52052,-0.11289,-0.073651,-0.064027,-0.049855,-0.039511
-0.010693,-0.17357,0.049661,-0.026762,-0.034299,0.014349,0.013026,0.012331
-0.038292,-0.17742,-0.14797,-0.041117,-0.025041,-7.4983e-05,-0.0014046,0.017545
0.0597,0.22423,0.17879,0.03924,0.039678,0.032907,0.03159,0.037778
0.032851,0.12263,0.063927,0.034298,0.026538,0.034683,0.03355,0.025301
0.099422,0.44538,0.48585,0.20133,0.075604,-0.026429,-0.027111,0.049741
-0.14732,-0.55893,-0.39851,-0.14007,-0.071462,-0.064749,-0.033473,-0.1705
-0.0046423,-0.070489,-0.22242,-0.060989,-0.032237,0.013465,0.014333,-0.018131
-0.019647,-0.049666,-0.041995,-0.023049,-0.017837,-0.025913,-0.039908,0.0465
0.065462,0.23167,0.28919,0.090543,0.034321,-0.010574,0.00712,0.016559
-0.022564,-0.14602,-0.098177,-0.11083,-0.023872,0.067789,0.030699,0.018224
0.021309,0.22618,0.24716,0.084215,0.042474,0.022074,0.0076826,0.0057635
-0.068129,-0.2664,-0.19165,-0.0813,-0.047293,-0.038173,-0.0070332,0.0034807
0.02201,0.0030692,-0.2509,0.010874,0.043322,0.058802,0.033489,-0.011643
0.081072,0.31672,0.24188,0.11184,-0.0055735,-0.062401,-0.027104,0.022786
-0.047067,-0.19291,-0.26665,-0.074333,-0.014085,0.0195,-0.0015624,-0.0031994
0.051629,0.24637,0.26435,0.062365,0.056821,0.030414,0.0082211,0.011013
-0.029222,-0.10958,0.070985,0.0065494,-0.050905,-0.084916,-0.029346,0.0018179
-0.094473,-0.40356,-0.20487,-0.11694,-0.01734,0.0090724,-0.0051704,-0.039637
0.04325,0.1672,0.046549,0.027339,-0.0070047,-0.0002375,0.010258,-0.028198
-0.006706,-0.031436,0.027778,-0.0066597,0.0030897,0.027926,-0.0065496,-0.018949
0.076054,0.34378,0.27644,0.10053,0.059451,0.062674,0.04604,0.074062
-0.020788,-0.042746,0.0015728,-0.011278,-0.017846,-0.028297,-0.0036736,-0.02222
-0.023547,-0.16642,-0.2284,-0.030273,-0.017939,-0.049104,-0.022627,0.028762
-0.025704,-0.18174,-0.28978,-0.050634,-0.01886,0.016436,-0.0027012,-0.045717
0.004242,0.12434,0.12958,-0.0021699,0.0030767,-0.042137,-0.029502,-0.010627
0.043035,0.12115,0.11634,0.029368,0.016975,0.056767,0.022292,0.064199
-0.042058,-0.11913,-0.046693,-0.033717,-0.023645,-0.0070078,-0.0032975,-0.016313
0.014536,0.068752,0.095633,0.027877,0.014384,0.00086845,0.018909,-0.017792
-0.006119,-0.072625,-0.12663,-0.035308,-0.0093203,0.025475,0.010845,0.0048727
0.083185,0.36246,0.22542,0.15214,0.061569,0.0039411,0.003689,0.027943
-0.069466,-0.31481,-0.043009,-0.065803,-0.030855,-0.048543,-0.033992,-0.019183
-0.0034787,-0.020387,0.036489,-0.025069,-0.005585,-0.0073924,0.0069153,-0.011683
-0.047248,-0.13919,-0.22467,-0.10079,-0.034821,0.009884,0.008936,-0.027685
0.041257,0.1861,0.14078,0.089632,0.021732,-0.012528,-0.028202,-0.043577
-0.011426,-0.046226,-0.079611,-0.00089838,0.007561,0.026889,0.01247,0.073756
0.052594,0.19388,0.11293,0.033693,0.0084616,0.026658,0.037063,0.019958
-0.039965,-0.12543,-0.1261,-0.056705,-0.022441,-0.0052253,-0.0013484,0.014029
0.00013661,-0.12125,-0.14069,-0.053402,-0.0147,-0.021635,-0.024597,-0.037709
0.04807,0.20711,0.24898,0.14513,0.047537,-0.0066651,-0.0091231,0.0052122
-0.052285,-0.20161,-0.089626,-0.086155,-0.038593,-0.01473,-0.0094323,-0.021665
-0.019605,-0.01778,0.10147,0.026087,0.016202,-0.0065456,-0.0097027,-0.040807
0.0054874,0.017923,-0.13877,-0.049558,-0.022321,0.018006,0.029292,0.079892
0.02291,0.086374,0.21265,0.038237,0.02552,0.012024,0.0060712,0.019407
0.024686,0.070967,-0.10276,0.023559,0.018942,0.0065692,0.0065435,0.019347
-0.012858,-0.083167,-0.038799,-0.039198,-0.018899,0.016926,0.0071338,-0.045602
-0.0040564,0.052756,0.16978,0.029411,0.013215,0.0036009,-0.00017806,-0.026933
0.0039658,0.07889,-0.32064,-0.0051015,-0.010038,-0.033841,-0.023418,-0.017894
-0.0045875,0.0015115,0.13139,0.060469,0.020507,-0.0019886,-0.00023178,-0.033215
-0.021939,-0.21187,-0.12897,-0.08606,-0.059245,-0.025998,-0.016578,-0.0092462
-0.0088937,-0.030558,0.0094552,-0.076951,-0.0069283,0.027012,0.01361,0.12553
0.011404,0.022312,0.13442,0.041646,0.021571,0.0088947,0.0046568,-0.041947
0.039378,0.12762,0.26304,0.075208,0.026731,0.0060434,0.0037747,0.0045815
-0.026045,-0.095579,-0.33815,-0.022426,-0.0065755,-0.035701,-0.019953,0.007412
0.034367,0.22988,0.29982,0.085193,0.03144,0.024779,0.019651,-0.010435
-0.083674,-0.26892,-0.24527,-0.10952,-0.054286,-0.023103,-0.010149,-0.026381
0.018518,0.05803,-0.036609,0.002708,0.0097224,0.016102,0.0077018,0.013125
0.067556,0.14124,0.081265,0.069958,0.027982,0.032908,0.018188,0.044371
-0.053923,-0.18347,-0.19705,-0.088043,-0.031108,-0.004265,-0.002602,-0.074338
0.036504,0.12969,0.17474,0.020184,0.042928,0.021304,0.015126,0.046864
-0.0054714,-0.014898,-0.05384,-0.012363,-0.023844,-0.015865,-0.0071987,-0.01423
0.022635,0.11474,0.17139,0.055785,-0.013117,-0.045824,-0.030773,-0.0074983
-0.075113,-0.26523,-0.079895,-0.025988,-0.01115,-0.02185,-0.039972,-0.065233
0.036719,0.10067,-0.01942,0.023113,0.0053386,0.0014691,0.020166,0.039916
0.0062618,0.023142,0.0081543,0.015354,0.020745,0.024444,0.025131,0.035394
-0.018109,0.055897,0.0019359,-0.041421,0.003998,0.016248,-0.0010456,0.047005
0.0028467,-0.12923,-0.077852,-0.037518,-0.028984,0.00072222,0.0046981,-0.018417
0.01482,0.10147,-0.0050367,0.035454,0.023709,0.017191,0.011511,-0.027761
0.010508,0.023097,0.087598,-0.0014232,-0.0094517,0.0031923,-0.0038956,0.018983
-0.032965,-0.18249,0.0052018,-0.030121,-0.0031774,-0.010221,-0.0025842,-0.058087
0.041175,0.20584,0.04549,0.075131,0.01929,-0.015629,0.007267,-0.0015172
-0.032281,-0.11442,-0.11858,-0.036666,-0.012282,-0.0057098,-0.0061077,0.039843
-0.018703,-0.1416,-0.12647,-0.021512,0.0036339,0.019062,-0.0041915,-0.012524
0.027282,0.25015,0.13217,0.011099,-0.0034094,0.0036445,0.0047504,0.020749
0.019607,0.029566,-0.01387,-0.0018031,-0.01018,-0.020861,-0.010792,0.0066408
0.020482,0.070747,0.21681,0.071856,0.014327,0.00032035,-0.0039588,0.0075823
-0.032981,-0.14343,-0.082387,-0.026604,-0.016071,-0.026258,-0.021398,-0.0075993
-0.039632,-0.1538,-0.09971,-0.040191,-3.2217e-05,0.0092384,-0.00020265,-0.10119
0.023612,0.077059,-0.0079236,-0.0085666,0.03103,0.04482,0.028859,0.08649
0.023702,0.079183,0.090655,0.036781,-0.0010962,-0.012803,0.0037262,-0.0067287
-0.023818,-0.062063,-0.1559,-0.083659,-0.041719,-0.014876,0.010633,0.0022289
0.006129,0.012796,0.057302,0.029118,0.026455,0.015289,0.0027908,0.019721
0.0043871,-0.031488,-0.081517,0.0087621,-0.0073074,0.0073095,0.0035152,-0.048109
0.010336,0.11868,0.1866,0.059332,0.021334,2.6011e-05,-0.010918,0.024967
-0.0069086,0.0036425,-0.019862,-0.021457,-0.027925,-0.0068604,-0.017437,-0.0037618
-0.000117,-0.062868,-0.082581,-0.022084,-0.01415,-0.013641,-0.0085758,0.044773
-0.023688,-0.1033,0.038198,0.034231,0.01603,-0.012711,0.015419,0.021551
0.00067618,0.02354,-0.18876,-0.040188,0.008059,0.0036576,-0.00023736,0.0043058
0.010491,0.075524,0.14984,-0.0036938,0.0087964,-0.0035544,-0.016425,-0.12423
0.029037,0.05215,0.060267,0.017918,0.0024466,0.012665,0.013916,-0.027825
-0.0064987,-0.039771,0.079519,0.015921,0.0043406,0.013423,-0.0027088,0.06761
0.020642,0.071862,0.056922,0.028502,-0.0015041,0.0066781,0.012084,-0.0011163
-0.046258,-0.051876,0.099965,-0.023136,-0.0076175,0.00030713,0.011622,0.016909
0.011126,-0.045037,-0.40177,-0.037784,-0.0064379,-0.021352,-0.019614,0.067747
-0.0028223,0.013456,-0.041894,-0.015415,-0.021509,-0.019378,0.0043103,-0.066925
-0.033554,-0.17348,-0.076818,-0.041575,-0.013716,0.021635,-0.010461,0.011359
0.028347,0.11328,0.066112,0.040644,0.024941,0.023298,0.01402,0.013182
0.019007,0.10119,0.249,0.067946,0.016597,-0.022452,-0.0083895,-0.015213
0.016841,0.080415,0.083667,0.02542,0.031826,0.032628,0.015868,0.019163
-0.032514,-0.15882,-0.12366,-0.0786,-0.038545,-0.030297,-0.014914,-0.032844
0.004063,0.017244,0.041449,0.021761,-0.0069194,-0.015862,-0.0070507,-0.015515
-0.021625,-0.039252,0.10941,-0.0016541,0.0016891,-0.0020021,0.0082235,-0.015035
0.023382,0.054641,-0.17926,-0.00066698,0.010605,-0.0040398,-0.015877,0.054588
0.0063162,0.048603,0.017173,0.0086952,0.0040261,0.025253,0.014535,-0.025077
0.0052494,-0.058084,-0.11559,-0.020884,-0.010439,0.00026939,-0.0019549,0.019895
0.0044365,0.053918,0.054087,0.027398,0.0060827,-0.008435,0.012908,0.010361
-0.019707,-0.053938,-0.044462,-0.034225,-0.016861,0.038309,0.0045261,-0.045384
0.003006,0.031495,0.12044,0.0050749,-0.0012191,-0.039226,-0.011433,0.0014188
-0.0056163,-0.049744,-0.090894,-0.0031092,0.021756,0.0087955,0.0041011,0.018056
-0.014309,-0.055586,0.0023282,-0.01177,-0.0025621,0.018074,-0.0035655,0.012197
-0.0073516,0.10032,0.11193,0.026143,-0.0037538,-0.042895,-0.018812,0.069426
0.070093,0.12985,0.089896,0.040475,0.0026875,0.020987,0.0052451,-0.084184
-0.031802,-0.14536,-0.11863,8.4087e-05,-0.0065411,-0.016981,0.0061227,0.0039748
-0.0081968,-0.05185,0.032547,-0.040293,-0.015697,0.030642,0.01508,-0.01028
-0.015246,-0.056822,-0.16847,-0.025965,0.014367,-0.015814,-0.0069674,-0.025647
-0.02169,-0.0027884,0.058573,-0.027254,0.0055664,-4.6403e-05,-0.013214,0.035958
0.034871,0.16557,0.27539,0.088647,0.012584,-0.023559,0.0040247,0.018456
0.013592,-0.020716,-0.36214,-0.029807,-0.0036823,0.038676,0.013317,0.0003166
-0.015537,-0.054971,0.044502,-0.015392,-0.012038,-0.00085611,-0.0011722,-0.025829
0.017405,0.12333,0.081774,0.030384,0.0030964,0.014036,0.0072234,-0.028262
-0.0051606,-0.082054,-0.022966,-0.033035,-0.012984,-0.010473,-0.0085317,0.079376
0.041454,0.25598,0.22337,0.067863,0.025678,-0.019753,-0.0016366,0.0083389
-0.085093,-0.46626,-0.24087,-0.10436,-0.044931,-0.029432,-0.034552,-0.069329
-0.0019315,0.062424,-0.0087682,0.012855,0.0096144,0.015248,0.025694,-0.036435
0.0099688,0.029402,0.037294,-0.010198,0.017463,0.028494,0.007483,0.044356
0.0057617,0.060704,0.092882,0.060791,0.0020243,-0.01293,-0.002928,0.0086543
0.048523,0.15055,-0.0059316,0.053813,0.049154,0.031822,0.018226,0.020071
0.0060313,-0.0030458,0.037859,-0.0078622,-0.028763,-0.016719,-0.022516,0.023399
-0.043073,-0.12368,-0.11928,-0.030619,-0.0052634,-0.01774,5.4221e-05,0.057202
-0.012483,-0.091365,-0.11761,-0.084803,-0.036625,-0.010162,9.9967e-05,-0.15233
0.027668,0.088347,0.10578,0.025018,0.0022359,-0.0017169,0.0010433,0.01181
-0.024209,-0.075346,-0.089392,-0.029019,0.0021441,0.015413,0.010569,0.034087
0.034778,0.097525,0.09381,0.034673,0.018069,0.033333,0.012834,-0.022698
-0.030152,0.051376,0.10027,0.028893,-0.012199,-0.034069,-0.023689,-0.02528
0.022651,0.042032,0.1087,0.039717,0.013115,0.0082604,0.0022662,0.11276
-0.0027313,0.019825,-0.093323,0.0045461,0.008128,-0.027505,-0.011138,-0.01443
-0.013153,-0.14342,-0.085687,-0.053534,-0.011686,0.014526,0.0061878,-0.015975
0.014297,-0.060144,-0.11229,0.0055521,0.015813,0.024629,0.015027,-0.001179
-0.022333,0.001531,0.036413,-0.021957,-0.0036437,-0.0053107,-0.0081322,-0.079487
0.017381,0.086876,0.078371,0.035218,0.015288,0.0026297,0.0070255,0.061441
-0.0071829,0.039104,-0.033465,0.0047648,-0.021695,-0.014117,-0.0097417,-0.023893
-0.0020721,-0.063138,0.045098,-0.035386,-0.013437,-0.0085828,-0.003619,0.039343
0.0018361,0.031583,0.010299,-0.014847,-0.0148,-0.011763,0.0021244,-0.030225
0.0050319,-0.018381,-0.058486,0.01202,0.021187,0.015793,0.015493,0.0095179
0.0080599,0.031611,0.12141,0.030099,-0.0066881,-0.0035745,-0.018004,0.0022939
-0.011987,-0.081594,-0.050152,-0.0068896,0.027121,0.032168,0.011192,-0.0050197
-0.0077802,0.019172,-0.1265,-0.0046073,-0.025178,-0.025013,-0.0061378,0.011031
0.0053728,0.038625,0.096641,0.045255,0.0089254,-0.018592,-0.0073798,-0.0042292
-0.00363,0.016651,-0.082981,-0.060072,-0.018477,0.028099,0.015341,-0.035179
0.0042342,0.023558,0.10076,-8.4906e-05,0.01796,-0.010013,-0.0082789,0.050962
0.020938,-0.0039278,-0.0083006,0.014315,0.016793,0.015278,0.007651,-0.034929
-0.00074187,-0.035903,0.003508,-0.0013489,0.0013535,0.002062,-0.0072743,0.027376
0.0012785,0.019735,-0.028653,0.015221,0.0026074,-0.010994,0.0015059,-0.020023
-0.028091,-0.080834,-0.035542,-0.022181,-0.026713,-0.016455,-0.0052153,0.041555
0.0045872,0.098556,0.098847,0.018965,-0.0088966,-0.014617,-0.0041444,-0.022279
-0.010227,-0.067917,-0.025021,-0.033487,-0.0067989,0.033412,0.020219,-0.023965
0.021221,0.075793,0.045172,0.070239,0.041837,0.018223,0.0052876,-0.025859
-0.010284,-0.071486,-0.019077,-0.044995,-0.019347,-0.028835,-0.0099148,0.03475
0.0048998,-0.032329,-0.19423,-0.012049,-0.0028333,-0.0060075,-0.017556,0.0096577
-0.018857,-0.0087573,-0.018837,-0.018388,-0.025699,-0.014612,-0.0097533,-0.014993
0.020281,0.070626,0.093747,0.0063956,0.021582,0.015903,0.013602,0.0077917
-0.0025081,-0.035566,0.019174,0.0077209,0.021969,0.023216,0.013564,0.0077035
0.037818,0.18081,0.21092,0.063792,0.01462,0.0074082,0.0058495,0.00025128
-0.038523,-0.15547,-0.088936,-0.036306,-0.039503,-0.023738,-0.0094947,0.016483
-0.0051813,-0.0060429,-0.044938,-0.019175,-0.0076308,-0.0078536,-0.0090443,-0.014142
0.020381,0.081161,0.076595,0.05261,0.032016,0.0079946,0.0071336,-0.005867
-0.048056,-0.1997,-0.13117,-0.078839,-0.030052,0.0001684,-0.0079365,-0.029072
0.054901,0.17376,-0.051264,0.031744,0.040439,0.031016,0.031579,0.03351
0.00098519,-0.010146,0.027584,-0.021889,-0.030008,-0.032331,-0.015017,-0.013209
-0.030147,-0.072088,-0.096943,-0.0053344,-0.007019,0.0055123,-0.0071147,0.0029624
-0.022789,-0.011986,0.068407,0.018934,-0.0077183,-0.02713,-0.01497,-0.034838
0.046661,0.12375,0.17303,0.043082,0.038319,0.010661,-0.007212,0.029869
-0.032523,-0.1485,-0.11073,-0.026731,-0.025015,-0.0136,-0.0071245,0.0018091
0.021114,0.14091,0.044949,0.028081,0.0055439,0.025372,0.024494,0.013586
0.0046079,-0.11651,-0.087645,-0.050489,-0.010519,0.026184,0.025221,0.0022391
0.0039759,0.017504,0.15366,0.010823,0.020608,0.0044656,0.0028489,0.029628
-0.012035,0.051287,-0.084949,0.016618,0.012992,-0.016509,-0.011488,0.04818
0.0033794,0.031971,0.030312,-0.025242,-0.041226,-0.029232,-0.025793,-0.14582
0.011045,0.014246,0.11515,0.026065,0.029743,0.028419,0.014406,0.041034
-0.036024,-0.12708,-0.13548,-0.047879,-0.024207,-0.031444,-0.016081,-0.016242
0.033964,0.11553,-0.13464,0.034581,0.0077545,0.0096006,0.0076252,0.010857
-0.021211,-0.10198,-0.059655,0.00041504,0.01616,0.010701,0.0073672,0.013632
-0.0062249,-0.014235,-0.047866,-0.0016184,-0.014688,0.0030048,-0.0011715,0.031978
0.0086586,0.034797,0.14653,-0.0025996,0.0011021,0.0099705,0.0055756,-0.027033
0.0078732,0.076185,0.12045,0.013074,0.001009,-0.015144,-0.011285,-0.03776
0.0070921,-0.04652,0.071269,0.0061294,0.00066185,-0.0018073,0.0031068,0.070456
0.021965,0.041446,0.069872,0.0074632,0.015712,0.0033777,0.0020197,-0.0070856
-0.025629,0.0038802,-0.080017,-0.0067814,-0.016292,-0.014926,-0.006646,-0.0051097
-0.018515,-0.06572,-0.068046,-0.013561,-0.0015376,0.006046,0.0083789,-0.0023465
-0.011386,-0.05817,-0.13136,-0.052224,-0.01026,0.019626,0.0079839,-0.030771
0.0035725,0.0030049,-0.06957,0.0099145,0.0044923,-0.0053092,-0.00011529,0.026109
0.06544,0.22722,0.18543,0.10259,0.027166,0.0094027,0.0074029,-0.0041089
-0.036698,-0.1432,-0.0082714,-0.047424,-0.012501,-0.0065894,-0.024249,-0.020128
-0.029378,-0.092348,-0.072893,-0.041388,-0.012919,-0.014315,-0.0091871,-0.014107
0.02492,0.091016,0.062397,0.027303,0.0024801,-0.01389,-0.0020913,0.0064401
-0.0065986,-0.03806,-0.11694,-0.028518,0.010242,0.02582,0.028355,0.026377
0.0010803,0.012955,0.085718,0.0023398,-0.013097,-0.0046614,-0.0036779,-0.0084138
0.02453,0.080304,0.20284,0.073131,0.018374,-0.0038512,-0.0043221,0.043236
0.0012585,0.06267,-0.12406,0.011975,0.0030727,-0.0030648,0.0109,-0.0057483
-0.053101,-0.19602,-0.11332,-0.071886,-0.02776,0.0054555,-0.028263,-0.07699
0.0020745,-0.047219,-0.014992,-0.030232,-0.0038072,0.0060364,0.011014,0.032694
-0.0051063,0.0090993,0.045476,-0.0039496,-0.0031823,-0.016986,-0.0041268,-0.036194
0.089375,0.28535,0.12988,0.10045,0.060062,0.045745,0.02779,0.1067
-0.04268,-0.15617,-0.10636,-0.045387,-0.032826,-0.024508,-0.010536,-0.038969
-0.010735,-0.073621,-0.031221,-0.027581,-0.016234,-0.02456,-0.0020292,-0.0048359
-0.0023712,0.055992,0.0030902,0.020934,0.023874,0.0066346,0.0063572,-0.0099614
-0.0020013,0.0056565,0.011802,-0.0092693,-0.037533,-0.024533,-0.032276,-0.031102
-0.017408,0.0015516,0.010435,0.014642,0.010451,0.014895,-0.00070137,-0.021428
0.029638,0.090323,0.14763,0.030259,0.034979,0.054713,0.023043,0.04259
-0.016952,-0.14994,-0.18552,-0.048208,-0.026484,-0.030042,-0.0078096,0.020504
-0.016375,-0.078444,-0.019572,-0.025256,0.0057099,0.010578,0.0083885,-0.025002
0.031512,0.11758,0.052529,0.028997,-0.0012981,-0.018879,0.0013544,0.023384
-0.0060476,0.024359,-0.030911,0.013148,0.0071341,-0.024864,-0.0055234,-0.014016
0.011501,0.040468,0.082345,0.0053972,-0.0080967,0.023649,0.011068,0.0033092
-0.04105,-0.13106,-0.036953,-0.033356,-0.0079576,0.0092576,-0.0037387,0.0048253
0.023472,0.071926,-0.005857,0.021724,0.0075362,0.0021032,-0.0032576,-0.0019294
0.024986,0.039483,0.042666,-0.0015073,-0.0084884,-0.0057281,0.0045427,-0.0015931
0.025606,0.1382,0.030117,0.045072,0.0143,-0.0064394,-0.01948,0.013458
-0.060892,-0.14796,-0.043989,-0.010701,0.013437,0.007857,0.0028229,-0.097468
0.015383,-0.037803,-0.023878,-0.028367,-0.011018,-0.025179,0.001263,0.095389
-0.011067,-0.077707,-0.034948,-0.015715,-0.004294,0.027486,0.0072976,-0.0093334
-0.01488,-0.063551,-0.17127,-0.042816,-0.0053465,0.0020441,0.0055498,0.026162
0.0044943,0.084137,0.090308,0.0079532,-0.021863,-0.015325,-0.0037379,-0.032154
-0.014805,0.0073971,0.1869,0.019949,0.0087786,-0.0009898,-0.012562,-0.035496
0.068449,0.30894,0.12583,0.10309,0.024168,-0.001711,0.01825,0.024253
-0.034356,-0.22933,-0.062203,-0.062521,-0.0069111,0.013774,-0.0050415,-0.0011223
