0.010424,-0.029252,-0.055652,0.033875,-0.001817,-0.0090029,-0.010729,-0.036592
0.069623,-0.047939,0.12867,0.071742,0.014036,0.015371,0.011636,0.12414
-0.020208,0.03489,0.09458,0.00068762,-0.0014348,-0.0076027,0.0031498,-0.05003
-0.040929,-0.014688,0.03103,-0.030726,-0.0013149,-0.0074168,-0.0048248,-0.14988
0.030514,-0.00094503,-0.037543,0.00097952,-0.0011974,0.023949,-0.0044752,-0.079658
-0.07158,0.0060974,0.13925,-0.021428,-0.0010624,0.000715,0.027515,0.70824
0.020243,0.092471,-0.079455,0.050373,0.0069094,0.0010721,-0.018451,-0.42735
0.033092,-0.02321,-0.16314,-0.049396,-0.00072152,-0.0062622,0.0057839,0.019939
-0.032315,-0.16161,-0.24564,-0.0084076,-0.0083334,0.0020397,-0.0016109,-0.16269
0.027867,0.075208,0.32817,0.0091074,0.0075137,-0.0054172,0.0060489,0.046565
-0.02017,0.085086,-0.052096,0.010805,-0.0078565,-0.0053255,-0.018166,-0.095462
0.081673,-0.077846,0.29252,0.019983,-0.0075523,0.0022427,-0.011646,0.23153
-0.026034,0.11723,0.11952,0.036529,0.0084398,-0.0061403,0.01025,-0.034091
-0.062416,-0.095525,-0.43015,-0.080248,0.0010559,-0.0069435,-0.0067882,-0.36739
-0.012465,-0.051952,-0.027377,0.013403,0.0015206,0.015615,0.023585,0.30353
0.013721,-0.0016363,-0.31122,0.04413,0.017595,0.014845,-0.0076523,0.050134
0.054533,0.11862,0.36858,-0.019142,-0.0054782,-0.0090788,0.0012787,0.17729
0.078251,-0.0106,-0.087986,-0.043363,-0.020893,-0.0091573,-0.012103,-0.50358
-0.071514,-0.20088,0.022926,-0.012653,0.010366,-0.0087758,0.0066894,0.20046
-0.050762,0.15792,0.35702,0.034128,-0.0054623,0.0076555,0.018197,0.34846
-0.046376,-0.12903,-0.18912,0.018939,-0.0058458,0.00095268,-0.017176,-0.34478
-0.049699,0.37584,0.46759,0.074515,0.009283,0.017799,0.032802,0.49984
-0.036456,-0.2263,-0.3947,-0.096266,0.00094406,0.0032729,-0.0042597,-0.26888
0.15016,-0.092461,-0.20822,0.014034,-0.0073525,-0.027236,-0.058399,-0.58173
0.049274,0.081048,-0.42743,-0.048131,0.0078713,0.004203,0.018705,0.36677
0.18379,-0.097494,-0.13801,0.068428,0.0075494,0.0037261,-0.0071742,-0.13955
-0.11136,0.066186,0.9819,0.035353,0.0072613,0.002574,-0.0028472,-0.15944
-0.11078,-0.0069286,-0.36221,-0.07707,-0.016501,-0.006964,0.032222,0.51425
-0.15141,0.057475,0.29295,0.020434,-0.0013055,0.0065601,0.012687,-0.16194
0.055348,-0.084814,-0.3633,-0.038889,-0.0018802,-0.0034649,-0.021843,0.24386
0.064418,0.191,0.24808,0.050246,0.005223,0.0023107,0.014985,0.20105
-0.037359,-0.2244,-0.20876,-0.024009,-0.0033677,-0.0070979,-0.025035,-0.44717
0.07169,0.13031,0.046939,-0.011068,-0.0041031,0.015386,0.0065613,-0.092604
-0.0053931,-0.033274,0.11618,0.019155,-0.0046617,-0.0082567,-0.007587,-0.064483
-0.1736,-0.15169,-0.32161,0.027733,0.0028936,-0.0077135,0.010306,0.12113
0.41157,0.19029,0.43708,0.02232,0.026461,0.01691,0.012911,-0.097776
-0.15602,-0.16236,-0.30202,0.018127,0.0035646,0.0029247,-0.0080916,-0.10271
-0.22843,0.21341,-0.060814,-0.11823,-0.034586,-0.018651,-0.014118,0.39716
0.13865,-0.24386,-0.29086,0.018865,0.013471,0.014445,0.025704,0.091042
-0.0013033,0.33382,0.32919,0.053873,-0.00084263,0.00045329,-0.013825,-0.27771
-0.024482,0.11108,0.3931,-0.029231,-0.015183,-0.021694,0.0079397,0.056868
0.20879,-0.54448,-0.10044,0.050608,0.017171,0.0026437,-0.0024906,-0.15588
-0.26298,0.0079975,-0.0212,-0.081605,-0.013282,-0.0046324,-0.0055776,-0.0425
-0.11176,-0.059562,-0.23195,0.011814,0.026185,0.011246,-0.071013,0.4807
0.20964,0.57294,-0.017408,0.04211,0.010548,0.026949,0.083111,0.020475
0.029899,-0.056011,0.25248,0.072166,-0.0054531,-0.0042942,-0.050455,-0.88674
0.021507,-0.11144,-0.32994,-0.092929,-0.045122,-0.019893,0.067697,0.59269
-0.12756,-0.22746,0.032497,-0.023113,0.0011231,-0.011966,0.00010669,-0.02725
-0.026498,-0.030599,-0.09579,0.031928,0.0085348,0.011728,-0.011332,0.22915
-0.003587,0.024458,0.12424,-0.029164,0.0086081,0.0043497,-0.021899,-0.25525
0.18291,-0.063807,0.19618,0.051481,0.032774,0.0049847,-0.0089477,0.286
0.071501,0.46888,-0.0094259,-0.046581,-0.028278,-0.02543,-0.0124,-0.70815
0.083626,-0.11294,-0.091736,0.051319,0.028499,0.022447,0.021654,0.29533
-0.47604,-0.19273,0.10659,-0.038152,-0.047115,-0.023331,-0.016721,-0.12381
0.15094,0.057565,-0.32106,0.01248,0.017989,0.02462,0.06756,0.48088
-0.041989,-0.064523,0.43616,0.038468,0.0046763,0.0099019,-0.0065724,-0.06997
0.21255,-0.042006,-0.36654,-0.023282,0.0063237,-0.0051401,-0.0041322,0.27011
-0.27111,-0.32613,0.041267,-0.032521,-0.00080171,0.0028066,-0.056936,-0.33571
0.11782,0.71792,0.43787,0.073197,0.0065777,0.0024364,-0.046553,-0.099174
-0.010727,-0.51754,-0.30414,-0.072995,-0.010588,-0.021833,0.028288,-0.059577
0.24104,0.16367,-0.39724,-0.048552,-0.028667,-0.046419,-0.13609,-0.34906
-0.003746,0.01139,0.079896,0.014632,0.015185,0.030462,0.1561,0.33079
0.064544,0.35247,0.58084,0.039422,0.0042193,0.037173,0.10769,-0.049265
-0.36214,-0.11984,-0.22915,0.034496,0.00919,-0.0026563,0.092642,0.6377
-0.1777,-0.54855,-0.059305,-0.023024,-0.032045,-0.0030061,-0.16415,-0.76334
0.34965,0.49398,-0.040525,0.046696,0.044774,0.012629,0.085398,0.77896
-0.055027,-0.1341,0.016618,0.0089979,0.0052692,-0.026255,-0.17601,-0.67403
0.16275,-0.01873,-0.081428,-0.050809,-0.0023207,-0.010577,0.1287,-0.21825
-0.20683,-0.46333,-0.083187,-0.039794,0.0060387,0.012458,-0.18025,0.71364
0.12761,0.34688,0.42653,0.0099648,-0.0638,-0.035575,0.085482,-0.25652
-0.21357,0.21168,-0.1687,0.011856,0.053429,0.071685,-0.2444,-0.2801
0.19519,0.063829,-0.079323,0.07485,-0.017503,0.021695,0.33201,0.20323
-0.16588,0.25772,-0.062846,-0.082385,0.0046035,-0.052573,0.074233,0.16116
0.003276,-0.6339,-0.17372,-0.029935,-0.0051061,-0.025742,-0.047852,0.07065
0.18148,0.35186,0.47107,0.029546,-0.022882,-0.022244,0.020768,-0.32429
0.072896,-0.088173,-0.15954,0.018542,0.01419,0.03673,-0.16568,-0.043922
-0.14302,-0.47648,-0.2296,0.031445,0.012794,-0.0043839,0.071474,-0.11544
-0.022352,0.56209,0.17466,0.068819,0.05142,0.050272,0.10605,0.59049
0.049867,-0.6688,-0.61943,-0.15797,-0.072827,-0.064651,-0.086384,-0.70356
-0.030519,0.21103,0.75392,0.0075717,-0.00051924,-0.013298,-0.014127,0.15344
0.077728,0.86125,0.5036,0.073327,0.026024,0.06324,-0.17705,0.50602
-0.14306,-0.075637,-0.47439,0.023554,0.014324,0.015731,0.14428,-0.25633
0.079212,-0.16105,-0.36231,-0.056087,0.0030432,0.038495,-0.2289,0.54322
-0.2326,-0.29195,-0.0217,0.021477,-0.0082666,-0.041355,0.34487,-0.30227
0.34342,-0.12919,-0.18844,-0.056804,-0.051281,-0.10746,0.029994,-0.68741
-0.26265,-0.17457,0.28528,-0.041575,0.0064626,0.01937,-0.072326,0.025165
0.16057,0.13596,0.42303,0.17584,0.039728,0.02657,0.10716,0.25536
0.10547,-0.067941,-0.56344,-0.053708,0.0015291,0.047291,-0.18307,0.40887
-0.27968,0.15811,0.81146,0.042617,0.02469,-0.011561,0.024134,-0.33399
0.28584,0.29838,-0.185,-0.043427,-0.023481,0.0070884,-0.045909,-0.16719
0.0044504,-0.57759,-0.98059,-0.16355,-0.049025,-0.052187,0.059411,0.24679
-0.061945,0.54313,0.33314,0.065258,0.026451,0.022228,-0.11265,0.30002
-0.14788,-0.06369,0.047449,0.11226,0.00011603,0.027636,0.18135,-0.2017
0.059603,0.10919,0.054844,-0.060841,0.0050631,-0.0045917,-0.13485,-0.0231
-0.21177,-0.11325,0.57527,0.093759,0.041519,0.0035034,-0.12947,-0.09307
0.016209,-0.17332,0.12463,-0.032373,-0.0075538,0.051534,0.24626,-0.13723
0.2688,-0.0060803,-0.69613,-0.12588,-0.048337,-0.087558,0.017042,-0.14663
0.00071748,-0.55395,-0.22414,0.040493,0.012912,-0.0080097,-0.12145,0.29392
0.20521,0.81231,0.42988,0.037465,-0.0035535,0.024181,0.22081,-0.017882
-0.25797,-0.041815,0.038248,0.0057678,0.0037274,-0.038066,-0.19981,-0.050692
0.025044,0.09496,-0.071463,-0.01578,0.0033814,0.055222,0.020999,0.092935
-0.063527,-0.15786,0.053914,0.081635,0.026523,0.030721,-0.017252,0.25459
-0.008768,-0.35106,-0.10072,-0.085601,-0.02073,-0.0645,0.035249,-0.35795
-0.2254,0.059282,-0.21435,0.0050426,-0.0056748,0.0041509,-0.088248,0.1501
0.30166,-0.19534,0.19003,0.063657,0.009126,0.04155,0.072872,-0.12322
0.064108,0.34998,-0.33314,-0.097891,-0.015386,-0.030293,0.02691,0.08502
-0.21985,0.19737,0.82422,0.082606,0.030251,0.030887,-0.076529,0.10164
0.33187,0.033933,-0.33241,-0.043193,-0.025673,-0.017061,-0.056166,-0.33858
-0.32066,-0.041699,-0.11864,-0.076389,-0.011056,-0.010049,0.16002,-0.030441
0.15749,0.051377,0.4154,0.10092,0.027478,-0.0027172,-0.0045528,0.14666
0.0075645,-0.068002,-0.54527,-0.065145,-0.042653,0.005012,0.013719,0.040643
-0.091476,-0.29657,0.28745,0.058922,0.028701,-0.025815,-0.089292,0.18703
-0.038419,-0.24861,-0.4603,-0.0030113,0.022821,0.029916,-0.0089356,0.13642
0.065276,0.26046,0.21482,-0.02433,-0.021343,0.0004087,-0.027032,-0.31935
0.0092134,0.3161,-0.19001,0.072762,0.020959,-0.0049576,0.13669,-0.045836
-0.018232,-0.001691,0.17476,-0.0092346,-0.014685,-0.0019051,-0.097117,-0.09723
0.01524,-0.24369,0.33019,-0.0367,0.0041569,0.024987,0.020287,0.16659
-0.10027,0.3532,-0.063504,-0.010326,-0.0088012,-0.010506,0.058094,0.18966
0.065826,-0.68162,-0.24675,-0.055566,-0.022558,-0.014967,-0.070427,-0.2564
0.14699,0.36863,0.10779,0.014973,0.025276,0.011292,0.0015648,0.037313
-0.028217,-0.061482,0.37988,0.021851,-0.013705,-0.017914,0.016406,0.26408
0.024915,0.1094,-0.62262,0.0046486,0.0090931,0.014464,-0.072174,-0.21846
-0.037008,0.077715,0.32936,0.04214,0.00015189,-0.024402,0.088317,0.0024438
-0.19787,-0.20456,-0.26129,-0.068193,-0.016834,-0.0016082,-0.032314,-0.43346
-0.011716,0.45476,0.47674,0.064705,0.044307,0.043958,-0.10499,0.37955
-0.071708,-0.20664,-0.25531,-0.0043214,-0.011556,-0.020305,0.16783,0.19885
0.1537,-0.25628,-0.52771,-0.0019586,0.0031952,0.016758,0.028536,0.02388
-0.0077097,0.17626,0.14559,-0.0066925,-0.020751,-0.016538,-0.015309,0.064727
0.32574,0.19692,0.55631,0.012227,-0.0052466,-0.0028465,-0.06591,-0.55479
-0.1213,-0.61811,-0.17557,-0.070729,-0.020608,-0.0045484,-0.053817,0.070171
0.062911,-0.074005,-0.14166,0.001795,0.026885,0.0018774,0.059147,0.39135
-0.17068,0.20471,0.033976,-0.0049013,-0.011272,-0.014771,-0.0089795,0.016968
-0.21413,0.24996,0.21035,0.073082,0.013244,0.0080155,-0.039856,-0.10829
0.14329,0.23383,0.17515,0.024807,0.022145,0.023338,0.060221,0.078249
-0.10507,0.28855,0.020374,0.037927,0.023052,0.03114,0.018112,-0.16449
0.019653,-0.46218,-0.57567,-0.12164,-0.038909,-0.038957,-0.071862,-0.25627
-0.010888,-0.027581,-0.168,-0.023795,-0.023239,-0.02295,0.041027,0.16519
0.22796,-0.23645,0.088151,0.011639,-0.00028402,0.008812,-0.0018428,0.087572
-0.043089,-0.0098338,0.33564,0.047652,0.006597,-0.0061783,-0.0045165,0.10778
0.075043,0.37379,0.1633,0.014325,-0.010242,-0.0054184,-0.029072,0.048597
-0.043466,-0.33876,-0.39476,-0.056891,0.011904,0.034514,0.057427,-0.049518
-0.0022939,-0.032158,0.22605,0.11521,0.034152,0.0041794,-0.018653,-0.10051
-0.2497,0.12017,0.081257,-0.12594,-0.04496,-0.041864,-0.039049,-0.082057
0.14865,0.16269,0.41246,0.10982,0.032375,0.02901,0.081495,0.13659
0.21342,-0.20582,-0.62593,0.025029,0.039493,0.029088,0.0062916,0.04498
-0.35413,0.28099,-0.091301,-0.15423,-0.047194,-0.0027461,-0.085632,-0.094025
0.12503,-0.37921,-0.24456,0.071754,-0.0090728,-0.043142,0.016226,0.060927
0.057816,0.33976,0.27061,-0.054849,-0.018077,-0.006109,-0.016375,-0.069937
-0.030541,0.33721,0.33435,0.044348,0.019601,-0.00080958,0.051169,0.20026
-0.012409,-0.31624,0.10101,-0.005184,-0.020873,0.0043473,-0.054056,-0.29984
-0.11917,-0.033483,0.27285,0.0080451,-0.0064499,-0.013673,0.012399,-0.014055
0.12079,-0.31109,-0.54015,0.045477,0.04748,0.03144,0.024697,-0.0026653
0.17071,-0.13479,-0.070109,-0.017543,0.00045465,0.030564,-0.0087546,0.16647
-0.0070686,0.10668,-0.36001,-0.024649,0.00094889,-0.024044,0.013944,0.0033781
-0.30279,0.13657,-0.068951,-0.030643,-0.013641,0.00029716,0.022498,0.26743
0.15792,0.039018,0.44884,0.050107,-0.0044733,-0.013898,-0.022457,-0.32194
0.006458,0.062308,0.017759,0.014052,-0.010901,-0.0045321,-0.019903,0.039713
0.045507,0.14883,0.2257,-0.029876,0.013661,0.012357,0.013869,-0.10178
-0.00061343,0.22323,0.34526,0.0038776,-0.0013274,-0.0026333,0.0079079,-0.044898
-0.071607,-0.33142,-0.27564,0.013497,0.014328,0.020615,-0.0070137,0.20064
-0.21627,-0.36089,-0.61149,-0.094869,-0.040922,-0.042905,0.00014196,0.023471
0.22804,0.25604,0.22157,0.069438,0.012747,0.0023001,-0.017402,-0.10172
0.17452,0.19442,0.17024,-0.0012819,0.019311,0.023756,0.011052,-0.020249
0.021447,-0.050426,-0.12192,0.013403,0.0024747,-0.0015447,0.00015458,0.23553
-0.26194,-0.052684,0.37384,0.012001,-0.021892,-0.026293,-0.14319,-0.499
0.0051984,-0.12736,-0.24056,0.025757,-0.0067457,0.012366,0.19877,0.21373
0.0042224,-0.095577,-0.5245,-0.046942,0.016719,0.013075,-0.020487,0.22593
-0.04413,0.22324,0.44144,0.028239,0.024998,0.030544,0.042841,-0.015889
0.0027626,0.034505,0.023274,-0.022083,-0.0055153,-0.0057025,-0.025529,0.029002
0.25595,-0.10392,0.1262,-0.0023901,0.010894,-0.010027,-0.077576,-0.19991
-0.064719,-0.12613,-0.33004,-0.00606,-0.027544,-0.045304,-0.020032,-0.1614
-0.013576,0.15057,0.42373,-0.04822,-0.019399,-0.010353,0.029497,0.021586
-0.083146,0.032954,-0.33821,0.0044597,-0.011566,0.031999,0.0082335,0.21008
-0.024328,0.068739,0.046191,0.043007,0.011681,0.003375,-0.0057999,-0.016896
-0.0024131,-0.015915,0.20523,0.0050773,0.01927,0.028614,0.026498,0.0046324
-0.018732,-0.058366,-0.054718,0.054568,0.0035915,-0.017363,-0.019748,0.17198
0.066097,0.072222,0.35356,0.034749,0.011678,-0.0017417,0.043105,0.045706
0.016681,-0.087056,-0.56773,-0.10976,-0.011088,-0.0025761,-0.050456,-0.21252
-0.066132,-0.045442,0.30293,0.096893,0.0055735,-0.02754,0.019933,-0.21436
0.098551,-0.31908,-0.40216,-0.10369,-0.00096149,0.017309,-0.011359,0.061835
0.049821,0.42072,0.13209,-0.047703,-0.023053,-0.0084293,0.019689,0.044803
-0.25878,0.073941,-0.10477,0.05401,0.017252,0.012665,0.0036555,0.1251
0.087579,0.20535,-0.11403,-0.040322,-0.0051733,0.03393,-0.028224,0.037778
0.16808,-0.58085,0.1107,0.044896,-0.0044449,-0.0069577,-0.0055921,-0.044062
-0.047298,0.13189,0.38659,0.10714,0.0038431,-0.039552,0.024787,0.0060372
-0.088601,-0.092001,-0.23769,-0.07969,-0.0036472,-0.0012653,-0.0072319,0.11923
0.021756,0.13893,0.89266,0.039279,0.0044722,-0.001428,-0.0077108,-0.32825
-0.051559,0.2538,-0.37508,-0.036027,0.012713,0.022452,0.0078928,0.11754
-0.050741,-0.16362,-0.60159,-0.048103,-0.025704,-0.015635,-0.0071974,0.042801
0.062488,-0.085661,-0.3243,-0.020843,-0.0013814,0.016982,-0.0061155,-0.14672
0.099015,0.25657,0.30333,0.10774,0.054366,0.0028988,0.0031907,0.18836
-0.068489,-0.087007,-0.065276,-0.11595,-0.061735,-0.019092,0.02828,-0.00075541
0.29943,0.098158,0.34296,0.13578,0.056355,0.04447,0.029759,0.27582
-0.16708,-0.43296,0.1315,-0.051389,-0.036907,-0.02542,-0.031779,-0.14819
-0.12624,-0.11103,-0.29773,-0.060404,-0.021418,-0.025814,-0.015987,-0.086881
-0.21945,0.14305,0.059467,0.054088,0.016739,-0.019266,-0.063636,-0.22821
0.15567,0.33978,-0.2694,-0.043649,0.015011,0.033368,0.028424,-0.18062
0.071864,0.029906,0.23447,0.029529,0.0047024,0.015109,0.049445,0.23002
0.11892,-0.23536,0.19007,0.03186,0.0016014,0.0043891,0.015371,0.1085
-0.24534,0.095053,-0.074293,-0.036189,-0.017471,-0.021873,-0.018725,0.036494
0.17148,-0.12378,-0.0051114,-0.0022844,-0.013121,-0.0086288,0.0022403,0.16573
0.053397,0.2513,0.39549,0.024604,0.015012,0.013192,-0.038566,-0.071616
-0.22937,-0.090856,-0.87487,-0.056768,-0.010847,-0.0030476,0.015378,-0.11941
0.1447,-0.42351,0.36934,0.074116,0.034586,0.028717,0.015796,0.038325
-0.13791,0.29148,-0.068259,-0.02017,-0.012582,-0.024334,0.0017757,-0.099067
0.13046,0.24758,0.038906,-0.011565,-0.019514,-0.037347,-0.02681,-0.1034
0.069504,-0.081178,0.03554,-0.056518,-0.0097817,0.020644,0.015698,0.03088
0.086564,-0.088228,-0.1862,0.039965,0.01633,0.024242,0.011699,0.16024
-0.13027,-0.057569,0.31283,0.004036,0.027171,0.027657,-0.00025385,-0.19539
0.15455,-0.038347,0.23711,0.03055,-0.016777,-0.024293,0.002728,0.24131
-0.040504,0.13982,0.0014705,0.11907,0.032479,-0.022682,-0.018931,0.18507
-0.4131,-0.14861,-0.72208,-0.13698,-0.036347,0.0087303,0.0046831,-0.1255
0.139,-0.067311,0.21438,-0.065869,-0.020319,-0.0083207,0.01867,0.025907
-0.021112,0.29898,0.27072,0.019953,-0.013188,0.0043721,-0.023819,-0.41611
0.19865,-0.19647,-0.28904,-0.035511,0.000851,0.01586,0.018122,0.1437
-0.0066278,0.065523,0.025243,0.057142,0.022111,-0.020245,-0.011237,0.13879
-0.07449,-0.085001,0.3205,0.016969,0.011894,-0.0095915,-0.025258,-0.089186
-0.037235,0.3302,0.055112,0.10976,0.040862,0.017212,0.0080938,-0.0256
-0.093254,-0.51575,-0.12469,-0.07856,-0.023523,0.029502,0.027072,-0.022932
0.40797,0.29195,0.029774,0.0065293,-0.0092001,-0.026948,-0.0067779,0.080851
-0.11241,0.12068,0.19837,0.036707,-0.0098114,0.012196,0.00065392,-0.077801
0.037695,-0.31122,-0.45276,-0.13656,-0.033119,-0.024889,0.01036,0.33001
-0.17011,0.018719,-0.57591,-0.028795,-0.00098838,-0.013379,-0.024796,-0.20584
-0.0072323,0.28866,0.55304,0.079085,0.031865,0.030709,0.043092,-0.0029326
-0.080839,-0.17525,0.32281,0.0157,-0.0049526,-0.026004,-0.052319,0.017697
-0.098697,-0.33619,-0.21451,-0.05435,0.0055942,0.050175,0.031935,0.090575
0.19383,0.46762,0.59298,0.11937,0.024222,0.00072078,-0.0017496,0.029075
-0.025123,0.33584,-0.41009,0.029285,0.019412,-0.010945,0.010129,-0.054549
-0.013384,-0.17794,-0.49139,-0.043403,-0.024727,-0.00091271,-0.026488,-0.19353
0.066208,-0.22205,-0.11667,-0.075533,-0.038093,-0.063146,-0.017873,-0.042812
0.082976,-0.37307,0.47262,-0.067579,-0.012981,0.028998,0.012777,-0.20747
-0.13223,-0.15158,0.59626,0.042351,-0.0040717,-0.013193,-0.0044138,0.10001
0.16584,0.21945,-0.49637,0.0035671,0.019979,0.02176,0.017014,0.27709
-0.12121,0.24355,0.18764,0.096584,0.020236,0.0094897,-0.016201,-0.045421
-0.14655,0.27476,-0.48108,0.031617,0.020233,0.020908,0.036926,0.13594
-0.087143,-0.037741,0.37973,0.0033535,-0.011252,-0.013812,-0.01875,0.040324
0.10596,-0.038889,-0.55435,-0.11361,0.0038592,0.015023,0.019874,-0.053745
0.074507,-0.13776,0.38054,0.024423,0.010797,0.013819,0.03545,0.19237
0.30282,0.19321,-0.3912,-0.019694,-0.013935,-0.056471,-0.058171,-0.22759
-0.10884,-0.26056,0.25884,-0.01082,-0.031251,-0.0084223,-0.018973,-0.10088
-0.31126,-0.43931,-0.12813,-0.057282,-0.048821,-0.037492,-0.026706,-0.23656
0.098713,0.2493,0.5015,0.092044,0.050789,0.074873,0.020249,0.090005
0.086525,0.19586,-0.26422,-0.01501,0.017884,0.015912,0.012656,-0.026636
-0.06182,-0.12207,0.19676,0.044006,0.024618,0.019672,0.028781,0.19009
0.10441,0.59384,0.47866,0.12073,0.016491,-0.047047,-0.0016352,0.02614
-0.22872,-0.56127,-0.60063,-0.20713,-0.084585,-0.036228,-0.023998,0.017975
0.14149,0.0073265,0.20579,0.067444,0.033769,0.036101,0.02394,0.13135
0.035956,0.23767,-0.61149,0.068525,0.043167,-0.010075,0.016805,-0.067558
-0.098634,-0.17469,0.027299,-0.14226,-0.041116,0.043788,0.0088879,0.071842
0.067728,0.3018,-0.13763,0.05169,0.01492,-0.0054732,-0.039187,-0.45771
0.10742,-0.089951,0.63799,-0.037375,-0.023444,-0.024894,-0.010359,0.1632
-0.13385,-0.6142,-0.51562,-0.04994,-0.015837,-0.029757,-0.045141,0.12782
-0.076401,0.16078,0.36156,0.092544,0.029791,0.019493,0.036502,-0.0042197
0.10894,0.42495,0.63589,0.28129,0.035305,-0.032811,0.0085112,0.21698
-0.1399,-0.374,-0.86648,-0.38932,-0.069493,0.0092122,-0.027006,-0.25862
0.36444,0.4063,0.15515,0.07348,0.051557,0.067903,0.078846,0.066359
-0.13641,-0.15535,0.022761,0.0060754,-0.0074837,0.0029201,-0.0017823,-0.012905
-0.072869,0.096724,-0.029533,0.05722,0.0037621,-0.01379,-0.01883,-0.0047164
-0.10971,0.027978,0.29363,0.023948,-0.023666,-0.021404,-0.0036774,0.1776
-0.020794,-0.012501,-0.040929,-0.046849,-0.019038,-0.012352,-0.026878,-0.62824
0.06877,-0.26957,-0.2066,-0.014641,0.025836,0.0052669,0.0050628,0.1582
-0.020512,-0.21433,-0.13352,-0.035841,-0.0059406,-0.031311,-0.033047,0.38301
0.024189,0.24534,0.10108,0.11593,0.026415,0.018341,0.014962,0.032308
0.1797,0.36654,-0.12576,-0.059474,-0.017721,0.013472,0.024121,0.099038
-0.08517,-0.21782,-0.17089,0.055042,0.041171,0.047764,0.033596,-0.049884
0.057452,-0.022554,0.38185,-0.056168,-0.039406,-0.058508,-0.050238,-0.1421
-0.30703,-0.13236,-0.091923,-0.12746,-0.041122,0.01494,0.038337,-0.13217
0.13315,0.079162,0.2109,0.067699,0.019916,-0.0053672,-0.03659,-0.099454
-0.068222,-0.19925,-0.11997,0.0057454,0.0025848,0.0055256,-0.0094575,0.010032
0.32234,0.502,0.15927,0.15508,0.05485,-0.0071211,0.049274,0.27445
-0.17255,-0.3247,0.064701,-0.047355,-0.034628,-0.0042931,-0.03249,0.007028
0.12613,0.14827,-0.059355,0.061749,0.046361,0.045224,0.010622,-0.03324
-0.22727,0.099366,-0.14828,-0.088696,-0.038257,-0.02265,0.022099,-0.0481
-0.060876,-0.76232,-0.61917,-0.18684,-0.061873,-0.020413,-0.029532,-0.21598
0.016329,0.66253,0.29382,0.1263,0.038234,-0.026177,-0.019432,0.23741
0.13,0.08241,0.094052,-0.024305,-0.034462,-0.0086972,-0.010188,-0.086078
0.030948,-0.216,0.31852,0.064726,0.04076,0.031979,0.021618,0.11776
-0.022218,0.023141,-0.049147,-0.051418,0.0064577,0.056673,0.044769,0.011803
0.18217,0.32983,0.21693,0.17477,0.050404,-0.0051091,-0.018795,-0.10105
-0.26928,-0.65551,-0.5567,-0.08414,-0.02257,-0.044208,-0.02836,-0.02763
0.1788,0.52132,0.23614,0.047577,0.053196,0.056374,0.070881,0.26119
-0.32441,-0.37167,0.30905,-0.20277,-0.152,-0.11752,-0.095912,-0.38487
0.26103,0.17685,-0.63412,-0.0062858,0.033724,0.043549,0.018342,0.048612
-0.11087,0.22582,0.48374,0.083027,0.016661,0.024166,0.031077,0.14711
0.00597,-0.5563,-0.23036,-0.043673,-0.031214,-0.034698,-0.049639,-0.026496
0.018217,0.43595,0.0015657,0.15291,0.09333,0.047044,0.049848,0.13048
0.14452,-0.35717,0.24618,0.00075816,-0.00027225,0.019763,0.017173,-0.14581
-0.076768,0.37798,-0.18762,-0.039712,-0.046417,-0.069395,-0.046085,0.037424
0.048408,0.070393,0.079829,-0.016168,-0.0061572,-0.0093718,0.0083962,-0.0049355
-0.036269,0.21762,0.022653,0.062682,0.065639,0.11387,0.024147,-0.3175
-0.10596,-0.51225,-0.071693,-0.11648,-0.065609,-0.043564,0.0086983,0.37501
0.0097053,-0.2331,-0.64939,-0.23394,-0.048519,0.0025158,0.00083969,0.019062
0.02839,-0.011953,0.74235,0.23337,0.046467,-0.044925,-0.030878,-0.072624
0.12149,0.63945,-0.10756,0.043066,0.031784,0.0015431,-0.0084046,0.052312
-0.11712,0.062084,0.13668,0.12475,-0.014456,-0.084602,-0.041044,-0.13123
-0.061801,-0.40942,0.1624,-0.12321,-0.0062966,0.103,0.058892,-0.016215
0.13219,0.14718,0.039935,0.11941,0.048483,0.025419,0.0025982,0.066606
-0.05749,-0.10201,-0.31608,-0.11613,-0.04539,-0.012626,0.016883,0.19281
-0.059609,-0.39578,-0.46662,-0.17343,-0.03788,0.020023,0.00035687,-0.22557
0.17326,0.4497,0.63779,0.20569,0.047602,-0.025324,-0.023482,0.19309
