0.0072486,0.017178,0.020557,-0.02119,-0.0003519,0.022105,0.010732,0.017537
0.032966,0.064706,0.47242,0.05523,0.026927,0.042758,0.013568,0.03546
0.0042533,-0.037061,-0.12754,0.069837,0.031416,-0.020625,-0.014458,-0.0097843
-0.055457,-0.10817,-0.23583,-0.071457,-0.057332,-0.027845,-0.010978,-0.047905
0.025557,0.031342,-0.49522,-0.07233,0.0025609,0.020409,0.016023,0.0069938
0.028255,0.069258,0.16434,0.089956,0.030942,0.021708,0.0038515,0.022057
0.053834,0.1308,0.46353,0.11,0.042881,0.014203,-0.00082283,0.020702
-0.07775,-0.17448,-0.45316,-0.11434,-0.040294,-0.049794,0.0018088,-0.020475
0.055132,0.11448,0.54433,0.057267,0.046625,0.04008,0.0037801,0.023643
-0.11007,-0.20537,-0.67931,-0.22667,-0.11061,-0.083613,-0.034066,-0.057674
0.0049533,0.0457,0.33354,0.073383,0.0037523,0.01673,0.0054345,-0.0063186
0.041195,0.086412,0.25754,0.051917,0.015099,0.021204,0.02077,0.0218
-0.016484,-0.06777,-0.3521,0.037933,-0.0056461,-0.0070876,-0.01138,0.0035803
0.082386,0.18439,0.61215,0.18848,0.090639,0.057524,0.049774,0.048663
-0.044665,-0.12632,-0.62703,-0.26147,-0.054799,-0.010912,-0.03775,-0.030301
0.04783,0.10111,0.36262,0.10242,0.050674,0.01464,-0.0080993,0.016703
-0.069869,-0.14945,-0.19016,-0.071414,-0.053666,-0.029572,-0.0094781,-0.029184
0.055159,0.10605,-0.30621,0.07616,0.038413,0.012872,0.013017,0.0037155
-0.06956,-0.17931,0.23696,-0.072438,-0.071724,-0.076709,-0.018578,-0.033285
-0.014624,0.018154,-0.11008,-0.056738,-0.001569,0.0063899,-0.01826,0.00018104
0.008798,0.07388,0.26112,0.091535,0.045419,0.03559,0.045155,0.04137
0.039626,-0.011581,-0.52389,0.036018,0.01426,0.049915,0.038644,0.035384
0.069998,0.24666,1.0055,0.081082,0.029756,0.010239,-0.022498,0.0055026
-0.048486,-0.11189,-0.15543,-0.085914,-0.048783,-0.028834,-0.013664,-0.048362
-0.018825,-0.024381,-0.35423,-0.058632,-0.010335,-0.028326,-0.013346,-0.040277
-0.051764,-0.13111,-0.32028,-0.11797,-0.042182,-0.035178,-0.02961,-0.017044
0.017005,-0.12702,-0.32917,0.12729,0.051299,0.044329,0.023406,0.044897
-0.0075858,0.027299,0.26551,-0.025271,-0.026441,-0.0085612,0.01302,0.020676
0.046523,0.16803,0.43771,0.065715,0.029538,0.017085,-0.0057644,0.027566
0.070022,0.23266,0.71471,0.25242,0.10216,0.066546,0.053431,0.034333
-0.085619,-0.16197,-0.68294,-0.29291,-0.12898,-0.1259,-0.090166,-0.084069
-0.022214,-0.12596,-0.78699,-0.16391,-0.015714,0.025497,0.0091765,-0.0074077
-0.013567,-0.035327,0.39969,0.037676,0.0040429,-0.026401,-0.015464,-0.03263
0.049279,0.061987,0.34099,0.069145,0.039158,0.054004,0.0078326,0.019921
0.017513,-0.1006,-0.29751,0.1719,0.042252,0.063228,0.10231,0.056525
0.015899,0.25755,0.78193,0.17305,0.0051048,0.0087892,0.017604,0.0069649
0.075678,0.24572,-0.091423,0.0090445,0.052493,0.038997,0.026697,0.066721
-0.20132,-0.58083,-0.4385,-0.59449,-0.22182,-0.18977,-0.13639,-0.11552
-0.033295,-0.0099544,-0.51248,0.11968,0.026204,-0.020818,-0.034295,-0.015991
0.072684,0.17106,-0.056118,0.0029579,0.039208,-0.015968,-0.057475,-0.032743
0.07835,0.042352,0.15117,0.25874,0.091185,0.13026,0.091357,0.061168
-1.018e-05,-0.01917,0.10518,0.21573,0.034189,0.012287,0.022095,-0.0074209
-0.013595,0.0269,0.84936,-0.2113,-0.037706,-0.025757,0.0086047,0.019372
0.021942,0.079464,-0.09639,0.033173,0.0084176,0.10199,0.090098,0.063208
-0.11258,-0.198,-0.64248,-0.35472,-0.13222,-0.1206,-0.10084,-0.095176
0.082098,0.18512,0.057729,0.08679,0.079199,0.055612,0.028932,0.035652
0.042561,0.07803,0.42855,0.20999,0.033041,-0.057818,-0.021434,-0.0061161
0.02573,-0.068848,0.042562,0.21072,0.065007,0.046078,0.051836,0.059943
-0.10973,-0.21127,-0.723,-0.40304,-0.12972,-0.086337,-0.095761,-0.07147
-0.02044,0.054876,-0.6865,0.0481,0.01134,0.076128,0.027558,-0.0099964
-0.026749,-0.03742,0.54369,0.055591,-0.027329,-0.052053,0.015599,-0.013306
0.059141,0.097257,0.78701,0.28233,0.082533,0.061159,0.025145,0.020698
-0.012284,-0.095511,-0.18652,-0.31216,-0.06522,-0.10668,-0.091314,-0.055608
0.071997,0.22893,0.74193,0.091013,0.060654,0.054762,0.034567,0.071206
0.093648,0.22035,-0.68587,0.037564,0.084994,0.093084,0.068026,0.058248
-0.15023,-0.40089,-0.43959,-0.059119,-0.10187,-0.046102,-0.02903,-0.05479
-0.04244,-0.14873,0.7547,0.0040636,-0.031564,-0.019238,0.0018037,-0.0097931
0.026255,0.017573,-0.7554,-0.1707,-0.024747,-0.030104,-0.011249,-0.0021141
0.05561,0.24006,0.48395,0.23025,0.10583,0.092184,0.01734,0.038226
-0.079637,-0.12085,-0.49821,-0.22918,-0.10863,-0.098819,-0.038277,-0.053357
0.089053,0.15406,-0.77816,0.10865,0.066368,0.08335,0.086383,0.042868
-0.016538,-0.0055628,0.78083,0.17454,-0.017254,-0.072982,-0.10992,-0.064243
0.10367,0.24361,0.27595,0.21137,0.10196,0.088166,0.14512,0.085882
-0.19063,-0.34895,0.31701,-0.41335,-0.15348,-0.17513,-0.18057,-0.11629
0.054194,-0.11948,0.1028,0.19112,0.099933,0.13008,0.10792,0.10272
-0.051769,0.064969,0.39693,-0.1548,-0.10588,-0.081023,-0.051818,-0.038108
0.031302,-0.1388,-1.0496,-0.17743,0.026476,0.060009,-0.002985,0.00058479
0.085316,0.22315,0.33927,0.1705,0.059792,0.038713,0.028737,0.023816
-0.084659,-0.10635,-0.70508,-0.11851,-0.052855,-0.042505,-0.025924,-0.046275
0.060407,0.22441,0.55017,0.3306,0.086545,0.058917,0.068419,0.048266
0.0122,0.13666,0.50501,0.095422,0.00064229,-0.024358,-0.023363,-0.0050693
-0.066152,-0.30854,-0.58493,-0.37987,-0.10849,-0.074216,-0.035162,-0.042376
0.042873,0.097681,0.087108,0.14516,0.05488,-0.013534,-0.021557,0.014194
0.072346,0.0015145,-0.32486,0.02784,0.05218,0.11743,0.11095,0.078363
-0.13512,-0.23968,-0.0083546,-0.061998,-0.093933,-0.073156,-0.083477,-0.084571
0.052552,0.13057,0.49023,0.045932,0.053691,0.054338,0.0038613,0.017336
0.018016,0.11961,0.076367,0.085169,0.018652,0.014904,0.028548,0.016803
-0.035123,0.02488,0.051281,-0.15509,-0.049944,-0.074396,-0.017749,-0.031395
-0.027679,-0.066195,-0.62318,-0.13469,-0.049456,-0.033447,-0.025915,-0.0098044
0.010562,-0.057686,0.2614,0.10921,0.052663,0.03713,0.019733,0.027283
-0.03599,-0.0095506,0.64513,0.016414,-0.031367,-0.017612,-0.021062,-0.021244
0.10752,0.018203,0.099714,0.29235,0.10572,0.061578,0.055428,0.071589
-0.042342,-0.10524,-0.56056,-0.33459,-0.066783,-0.036497,-0.023515,-0.061121
0.0068986,0.10562,-0.51154,-0.0040268,0.0057873,-0.053115,-0.061901,-0.020838
0.051664,0.11953,0.19906,0.13567,0.041581,0.082366,0.026687,0.036067
-0.096636,-0.064691,-0.19967,-0.14293,-0.062005,-0.036639,-0.023221,-0.03917
0.12299,0.18367,0.82097,0.54147,0.10002,0.1358,0.13969,0.10454
-0.072312,-0.23954,-1.0294,-0.63322,-0.11417,-0.089174,-0.032082,-0.048962
0.058266,0.2179,0.63041,0.40173,0.10703,0.021288,-0.031661,0.0076595
-0.03301,-0.078626,0.14012,-0.04991,-0.018004,-0.041977,-0.0085362,-0.014975
-0.25258,-0.56731,0.094195,-0.64448,-0.24687,-0.16271,-0.11213,-0.12476
0.13443,0.30703,0.052289,0.32191,0.12429,0.1275,0.086517,0.084737
0.10555,0.19428,0.42281,0.18648,0.088737,0.03984,0.024546,0.051383
-0.017678,-0.052023,-0.67631,-0.14314,-0.039894,-0.034357,-0.016732,-0.029026
0.023722,0.015306,-0.16588,0.27935,0.059624,0.030891,0.017823,0.023666
0.043116,0.16322,-0.16795,0.29018,0.051863,-0.0055882,-0.027285,-0.0011258
0.040962,0.025024,-0.36421,-0.38446,-0.016281,0.044554,0.028559,0.013967
-0.17017,-0.33715,0.68387,-0.25319,-0.14521,-0.083745,-0.079314,-0.079502
0.011059,0.10695,0.3625,0.15969,0.062849,0.062878,0.056181,0.030794
-0.025094,-0.018974,-0.58136,-0.2089,-0.0491,-0.039071,-0.017498,0.00082098
0.15847,0.30727,0.62279,0.68788,0.17456,0.10234,0.11396,0.095877
-0.11828,-0.39955,-0.65385,-0.69642,-0.1572,-0.13041,-0.080795,-0.082775
-0.0040752,0.078962,0.20064,-0.040799,-0.0054757,0.0045159,-0.024081,-0.01191
-0.022593,-0.092903,0.14808,0.22565,-0.026416,-0.063454,-0.036868,-0.035359
0.13062,0.37457,0.56299,0.41555,0.10831,0.12643,0.06758,0.065691
-0.083749,-0.33023,-0.93105,-0.43262,-0.077639,-0.019732,-0.016153,-0.044517
-0.017544,0.012298,0.039252,-0.031175,0.0017518,-0.025496,-0.030819,-0.0063526
0.10241,0.2231,0.26924,0.36792,0.15108,0.085564,0.085783,0.10233
-0.013141,0.036849,-0.35941,-0.16714,-0.028357,-0.014803,-0.010049,-0.015107
-0.043929,0.055042,0.40251,0.23685,0.0021757,0.0092699,-0.0054025,-0.038171
-0.07576,-0.35549,-0.28953,-0.56172,-0.14822,-0.13906,-0.087043,-0.052702
-0.084902,-0.17968,0.34468,-0.21118,-0.10466,-0.029976,-0.050913,-0.04307
0.093069,0.18329,0.10824,0.28184,0.086117,0.024249,0.0023567,0.053115
0.052204,0.22475,-0.016554,0.15363,0.072837,0.086306,0.073452,0.040286
0.081684,0.076511,-0.46944,0.22677,0.12153,0.078148,0.061031,0.035223
-0.0061122,-0.02805,-0.080428,0.018999,-0.025215,-0.023766,0.035033,-0.01729
-0.016181,0.082155,0.58706,-0.18669,-0.085773,-0.032205,-0.0054813,-0.00063616
-0.011377,-0.26502,-0.1929,0.11106,0.033941,0.0056227,0.024115,-0.0012418
-0.1091,-0.053404,0.55882,-0.11791,-0.08761,-0.051167,-0.096299,-0.05844
0.01886,0.015315,-0.71574,-0.20852,0.01088,0.0083172,-0.016235,0.01532
-0.11144,-0.23631,-0.2995,-0.25354,-0.084284,-0.08912,-0.064315,-0.060803
0.14916,0.37404,-0.3028,0.27909,0.135,0.078906,0.033121,0.081099
0.12962,0.20822,0.35868,0.546,0.12977,0.083375,0.066026,0.06694
-0.17714,-0.29447,0.48584,-0.461,-0.20171,-0.1063,-0.08926,-0.11796
0.010565,-0.031845,0.17287,0.12399,0.046318,-0.013086,0.0062242,-0.0040613
0.08335,0.096971,-0.19336,0.025328,0.060594,0.11318,0.13497,0.073207
-0.060797,-0.12093,0.10599,-0.1035,-0.050425,-0.040201,-0.030391,-0.026662
0.15542,0.39749,0.099558,0.17205,0.12641,0.088714,0.064944,0.094489
-0.19872,-0.3902,-0.68465,-0.385,-0.2065,-0.11801,-0.071688,-0.11084
0.031992,0.051912,0.54091,0.15318,0.02074,-0.03616,-0.058388,0.012767
0.0029967,0.088619,-0.010404,0.059204,0.026855,0.0054954,-0.00563,-0.019968
0.088847,0.10162,0.23966,0.28651,0.10909,0.076898,0.046488,0.071403
-0.1245,-0.36964,-0.85905,-0.47605,-0.1147,-0.06418,-0.05906,-0.080889
0.066534,0.1142,-0.24051,0.32833,0.098527,0.035659,0.021063,0.038485
-0.055958,0.024898,0.086446,-0.45407,-0.14877,-0.068393,-0.017875,-0.054848
0.079372,0.092565,0.44936,0.40584,0.13641,0.10866,0.074382,0.069053
-0.0029726,-0.023092,0.52458,0.15236,0.0093514,-0.0028712,0.017037,0.012172
-0.028646,0.11031,-0.35292,-0.26787,-0.053014,-0.050914,-0.040927,-0.037495
-0.036119,-0.16203,0.043156,-0.12791,-0.027169,-0.0038714,-0.013018,0.0064718
0.013847,0.058312,0.36928,0.16536,-0.0070467,-0.017854,-0.0081026,-0.011779
0.050656,0.12144,0.065034,0.17292,0.053814,0.063327,0.028945,0.040844
0.0032881,-0.10025,-0.35537,-0.06823,-0.0092441,-0.010578,-0.010904,-0.015197
-0.0042836,0.022839,-0.22959,-0.18542,-0.025063,-0.036848,-0.010234,-0.0079967
0.026756,-0.012651,-0.15818,0.1239,0.06809,0.015249,-0.00020864,-0.00011773
-0.10787,-0.17056,-0.34595,-0.22783,-0.097711,-0.073633,-0.035612,-0.046379
0.012766,0.047058,0.61018,0.23503,0.047209,0.063061,0.016057,0.024917
-0.0025381,-0.048284,-0.13822,-0.089188,-0.036674,0.018462,0.0058213,0.0026242
0.15075,0.44982,0.29997,0.31576,0.11915,0.088907,0.096999,0.089639
-0.1833,-0.44962,-0.4542,-0.64273,-0.18061,-0.14785,-0.078462,-0.12051
0.11319,0.19297,-0.1223,0.33368,0.12683,0.1128,0.064524,0.082926
0.088158,0.21619,0.67489,0.47307,0.11231,0.019552,-0.0059635,0.035789
-0.2181,-0.47069,-0.060785,-0.80134,-0.24686,-0.20034,-0.14182,-0.1369
0.023805,-0.052208,0.10686,0.34744,0.042364,0.07918,0.047703,0.025958
-0.0053032,0.18509,0.30605,0.045034,-0.019143,-0.054677,-0.014958,-0.0066196
0.11723,0.16479,-1.2284,0.15893,0.13968,0.11813,0.061759,0.070379
-0.030183,-0.07351,0.0096846,-0.13895,-0.019702,-0.010712,-0.010074,-0.024
0.036573,0.071039,0.50191,-0.090833,-0.012728,-0.0031202,-0.0027674,0.015121
0.074535,0.12782,0.39324,0.10018,0.043287,0.094048,0.037741,0.03935
-0.14398,-0.31988,-0.50753,-0.30013,-0.11768,-0.1104,-0.020752,-0.068608
-0.018671,0.060895,0.29591,0.21632,0.011592,-0.0003112,-0.0061458,-0.0042898
0.011828,0.009602,-0.051472,0.0091306,0.016386,-0.014496,-0.0045195,-0.0023607
-0.029895,-0.030542,0.25984,-0.093634,-0.033648,-0.029312,-0.024125,-0.0084339
0.082272,0.072087,-0.045815,0.22787,0.087455,0.047789,0.01253,0.047537
0.02016,-0.018674,-0.60263,0.18364,0.04326,0.06749,0.050048,0.024725
-0.044062,-0.020963,-0.24712,-0.36828,-0.080659,-0.056606,-0.045074,-0.045737
-0.070809,-0.089824,0.22366,-0.030875,-0.042315,-0.058875,-0.04687,-0.03887
0.057721,0.16686,0.89532,0.085224,0.048911,0.037673,0.052012,0.037582
0.021806,-0.038461,-0.30352,-0.0051465,-0.025538,-0.016189,-0.014366,-0.011543
0.071916,0.21736,-0.40637,0.033783,0.047221,0.046151,0.027251,0.048331
-0.041632,-0.29128,0.26301,-0.024078,-0.0057208,-0.00081589,-0.01071,-0.016946
-0.0843,-0.087225,-0.37002,-0.083981,-0.066559,-0.023305,-0.0032277,-0.043091
0.014283,0.079806,0.5885,0.035066,0.029405,0.018519,0.010742,0.016961
0.019749,0.12391,-0.17772,0.092233,0.040571,-0.01547,0.000148,-0.0085255
0.049287,0.16211,-0.20208,0.096502,0.022107,0.01554,0.019981,0.044596
-0.076773,-0.35272,0.14843,-0.20132,-0.080348,-0.068252,-0.085605,-0.0424
0.0713,0.13377,-0.060673,0.11322,0.053673,0.092153,0.058874,0.042958
-0.02988,-0.12877,-0.3939,0.0010209,-0.021169,-0.011627,-0.014819,-0.011882
-0.0052733,0.17962,0.23496,-0.06172,-0.0082034,-0.020894,0.0062786,-0.02729
-0.01113,-0.050825,0.11655,0.03377,0.0062607,0.001152,-0.010325,-0.0033045
-0.024082,0.015449,0.033787,-0.26797,-0.072055,-0.063316,-0.025465,-0.018062
0.057271,0.096802,0.41687,0.45405,0.13119,0.082063,0.062251,0.045629
0.0061029,-0.16647,-0.72815,-0.24651,-0.0097495,-0.024007,0.018013,0.00026871
-0.021693,0.0692,0.13308,-0.027055,-0.042516,-0.014531,-0.025998,-0.021365
0.02035,0.069451,0.23474,0.13463,0.024383,0.040144,0.015444,0.027519
-0.086921,-0.29829,0.10473,-0.20021,-0.098638,-0.04738,-0.045796,-0.040719
0.10929,0.32576,0.44803,0.33452,0.088148,0.027797,0.016435,0.047176
-0.024021,-0.18291,-0.7119,-0.043172,0.014461,0.023792,-0.0010701,-0.021501
-0.02593,0.012017,-0.75875,-0.29438,-0.030304,-0.027774,-0.0121,-0.004761
-0.068128,0.012276,0.42378,-0.051321,-0.092425,-0.063988,-0.055136,-0.051205
0.11537,0.2943,0.82775,0.41402,0.14919,0.095269,0.058075,0.065621
-0.037461,-0.18921,-0.18612,-0.23207,-0.031181,-0.026145,0.0079812,0.0019264
-0.096391,-0.30605,0.15123,-0.22115,-0.12489,-0.068479,-0.040762,-0.046933
0.14221,0.33383,0.14291,0.23105,0.14221,0.10921,0.099647,0.083244
0.014703,-0.043432,-0.81094,0.143,0.051904,0.038389,0.038554,0.0020763
-0.048939,0.030875,0.083984,-0.1237,-0.082984,-0.085471,-0.05248,-0.063516
-0.087631,-0.13035,-0.2421,-0.2006,-0.082627,-0.098269,-0.11144,-0.066207
0.070503,0.075286,0.30714,0.13896,0.029488,0.038986,0.025234,0.041367
0.034711,-0.046388,0.039299,0.31572,0.089074,0.091693,0.052441,0.04871
-0.070263,-0.11136,0.15102,-0.32881,-0.076145,-0.034313,-0.030064,-0.02827
-0.0026141,0.0063457,0.085585,-0.016431,-0.013624,0.027544,0.0041933,0.013582
0.049661,0.18214,-0.030826,0.093133,0.05713,0.010861,0.0067923,0.025554
0.05472,0.25161,0.16523,0.13708,0.049288,0.00072337,0.040276,0.038334
-0.097448,-0.35671,-0.37341,-0.30162,-0.092783,-0.097409,-0.059422,-0.089465
-0.0090098,-0.074311,-0.087466,-0.02199,0.012848,0.051817,0.020102,0.0007107
0.13205,0.2529,0.83136,0.29515,0.1077,0.073153,0.075539,0.089397
-0.13545,-0.1584,-0.40896,-0.18618,-0.1445,-0.12699,-0.080835,-0.10512
0.086947,0.19026,-0.29255,0.18347,0.092324,0.1004,0.050794,0.065494
-0.036323,-0.13148,-0.17394,-0.078389,-0.056233,-0.056252,-0.029635,-0.039124
-0.10615,-0.27169,-0.2619,-0.17234,-0.065711,-0.048946,-0.064183,-0.066822
0.12833,0.30232,0.39564,0.17791,0.10424,0.092213,0.056854,0.10037
-0.089734,-0.20411,-0.22258,-0.32168,-0.10753,-0.092748,-0.064475,-0.044553
0.021749,0.047616,0.31654,0.15163,0.057938,0.06865,0.048941,0.014701
0.096194,0.27886,0.5781,0.31827,0.093591,0.053116,0.046039,0.044146
0.032303,-0.00037017,-0.1097,0.11652,0.046551,0.040016,0.028721,0.036038
-0.03719,-0.10891,-0.72694,-0.3678,-0.07564,-0.065097,-0.034136,-0.025478
-0.12045,-0.21016,0.33611,-0.096524,-0.12523,-0.09124,-0.07231,-0.086137
0.071094,0.15672,-0.47068,0.13216,0.11563,0.054441,0.077994,0.041085
-0.041235,-0.079398,0.50277,-0.01135,-0.057156,-0.035029,-0.052344,-0.034846
-0.0126,-0.0058204,-0.19682,0.010574,0.0040426,0.022716,-0.0027858,0.0061239
0.031616,0.00064273,0.17978,-0.1236,-0.0060511,0.016601,-0.00026629,0.0076557
0.11457,0.28164,0.40592,0.27267,0.09194,0.048314,0.064287,0.063548
-0.05299,-0.063502,-0.30559,-0.074812,-0.045783,-0.053709,-0.012462,-0.021388
-0.072757,-0.20877,-0.12957,-0.010293,-0.028433,-5.6519e-06,-0.050941,-0.012647
-0.022938,-0.070049,-0.32328,-0.1591,-0.027592,-0.0089369,0.0035258,-0.035145
0.010471,0.031066,-0.1249,0.0020392,0.011767,0.0057463,0.01039,-0.0029369
0.035229,0.070473,0.30032,0.11373,0.043069,0.020793,0.0088673,0.037026
0.0043941,0.079439,-0.32887,0.027597,0.0040111,0.012815,0.0069793,0.014295
0.13665,0.16803,0.20574,0.13443,0.074343,0.036434,0.044035,0.061524
-0.11492,-0.16243,0.82347,-0.25302,-0.13662,-0.080364,-0.067198,-0.094847
-0.05493,-0.1366,-0.036,0.076566,0.0037721,-0.017419,0.0094913,-0.032975
-0.019099,-0.056795,-0.51429,-0.040301,0.026609,0.0063938,-0.014698,-0.002774
-0.014834,0.0015146,-0.20092,-0.087237,-0.013567,-0.0011905,-0.014553,0.019399
0.16936,0.33783,0.36789,0.40543,0.14099,0.13167,0.095994,0.10413
-0.098687,-0.15496,-0.35197,-0.24099,-0.12687,-0.11063,-0.089307,-0.068597
-0.03716,-0.084708,0.20582,-0.25213,-0.035746,-0.02497,0.0075141,-0.029811
0.018406,-0.044666,-0.42205,0.27901,0.063058,0.060564,0.034577,0.025299
-0.010015,-0.04337,-0.31443,-0.18635,-0.025462,-0.018073,0.01487,-0.012659
0.017933,0.14377,0.95878,0.10157,-0.035375,-0.018672,-0.013062,0.012403
-0.039015,-0.080046,-0.54689,-0.10817,-0.044582,-0.058403,-0.049724,-0.040418
0.18539,0.32831,0.63791,0.40953,0.19701,0.13619,0.076375,0.094144
-0.05209,-0.056869,0.23984,-0.019091,0.0018191,0.018253,-0.0021416,-0.01396
-0.041497,0.08148,-0.37416,-0.13803,-0.060014,-0.091855,-0.066455,-0.029091
-0.11159,-0.56329,-0.32131,-0.33925,-0.12153,-0.053439,-0.022495,-0.045154
-0.043783,-0.1086,-0.53044,-0.02949,-0.0032435,0.00078176,0.0052555,-0.023067
0.12326,0.35333,0.55527,0.38552,0.099456,0.10996,0.079897,0.07643
-0.078366,-0.072936,0.040757,-0.28808,-0.079057,-0.069597,-0.055831,-0.051025
0.071174,0.17107,-0.0073898,0.092328,0.047213,0.032388,0.0047022,0.024623
-0.012957,-0.028057,-0.48367,-0.010182,0.017378,-0.0217,0.027251,-0.00098203
0.068559,0.074945,0.70072,0.31244,0.065809,0.04139,0.042939,0.052077
0.050616,0.021055,0.22649,-0.0089755,0.020574,0.057409,0.035826,0.027655
-0.11355,-0.12663,-0.13404,-0.23968,-0.10277,-0.083129,-0.096038,-0.089869
-0.02571,-0.024976,-0.4308,-0.14567,-0.038634,-0.052053,-0.048294,-0.027111
-0.045702,-0.16768,-0.30888,-0.12638,-0.052582,-0.028821,-0.01642,0.0049299
0.068113,0.19322,0.74232,0.36363,0.082067,0.065074,0.054298,0.053086
0.02612,0.078977,0.022787,-0.036759,0.021695,0.0035034,0.0077904,-0.015478
0.038773,0.042234,-0.39305,0.18625,0.071043,0.044638,0.055231,0.033582
-0.11307,-0.28586,-0.39027,-0.43003,-0.11374,-0.061375,-0.068821,-0.07324
0.062506,0.10913,0.2257,0.26922,0.068628,0.075944,0.057562,0.062354
0.057496,0.16405,0.60388,0.10347,0.031781,-0.0048003,-0.011059,0.010454
-0.15946,-0.37917,-0.63702,-0.41958,-0.1154,-0.13245,-0.056214,-0.088613
0.0678,0.28422,0.05967,0.2555,0.056323,0.074941,0.038909,0.053869
0.051713,0.1388,0.86021,0.020849,-0.0080324,0.046198,0.00047849,0.023481
0.010938,-0.112,-0.59247,-0.035531,0.019597,0.022807,0.007866,0.023044
7.1794e-05,0.016558,0.46199,0.0027283,-0.0090252,-0.050321,-0.040665,-0.033571
-0.066875,-0.16255,-0.78598,-0.088771,-0.046574,-0.040361,0.011151,-0.044819
0.04452,0.038872,-0.4424,0.0041255,0.032581,0.021901,0.030711,0.036364
-0.0014666,0.020247,0.30092,0.14165,0.018218,-0.034534,-0.020667,-0.016189
-0.032537,0.087526,0.54856,-0.0044257,-0.018663,0.041497,-0.0096736,0.0012078
0.061309,0.085936,0.25547,0.11176,0.063118,0.032509,0.040792,0.034509
-0.094155,-0.23297,-0.25023,-0.19122,-0.079846,-0.075982,-0.056266,-0.048476
0.025323,0.093192,-0.11912,0.061118,0.021288,0.037158,0.027674,0.018377
0.0063822,-0.17668,-0.23016,-0.14892,-0.00083656,0.020719,-0.0040332,0.016611
-0.0020926,0.15324,0.40361,0.02078,-0.021609,0.015154,0.012709,0.00095618
0.054653,0.090553,-0.082737,0.15516,0.05998,0.019809,0.03086,0.025895
-0.019053,-0.053282,0.16525,-0.05846,-0.037942,-0.044432,-0.051475,-0.033969
0.065106,0.25124,-0.52785,0.08362,0.07466,0.040059,0.030886,0.023984
-0.061057,-0.26369,-0.070015,-0.16734,-0.087042,-0.048049,-0.042859,-0.042942
-0.015784,-0.10033,0.031025,0.18255,0.023599,-0.0047912,0.023698,-0.00079787
-0.018729,0.044055,0.36264,-0.1773,-0.038698,-0.041414,-0.019834,-0.0061226
-0.00016093,0.043197,-0.10429,-0.018549,-0.008034,0.029699,0.037194,0.026887
-0.038369,-0.072123,0.08545,-0.050789,-0.024606,-0.017562,-0.02413,-0.018961
0.02314,0.057838,0.19128,0.20317,0.076114,0.036176,0.014909,0.01267
0.083369,0.20759,-0.19208,0.10246,0.067943,0.035274,0.029403,0.051599
-0.0053793,-0.12911,0.10786,-0.033706,-0.017665,0.034855,-0.003876,-0.0035851
-0.093912,-0.14579,-0.13474,-0.17583,-0.094776,-0.11334,-0.10024,-0.074596
0.037151,0.057734,0.034643,0.025539,0.02393,0.06714,0.037562,0.026242
0.052271,-0.0015168,-0.40504,0.060558,0.025653,0.036948,0.050551,0.0022434
-0.024999,-0.064902,0.29182,-0.095858,-0.03526,-0.048054,-0.014046,-0.029211
-0.062016,0.094211,-0.25354,-0.1166,-0.057574,-0.055404,-0.015357,0.0023533
0.097063,0.2329,0.37691,0.33396,0.13812,0.061563,0.054538,0.073595
-0.10301,-0.31433,-0.095008,-0.25943,-0.08901,-0.079991,-0.062209,-0.057683
0.024657,0.083533,-0.035026,-0.05213,-0.020334,0.0044545,-0.014198,0.0068377
0.18267,0.36218,0.50163,0.51184,0.21133,0.17454,0.10459,0.095067
-0.20742,-0.54999,-0.21408,-0.42539,-0.19855,-0.14756,-0.10454,-0.12919
0.026208,0.11219,-0.27992,0.067552,0.031632,0.046242,0.014445,0.02915
0.040109,0.052489,-0.44286,-0.046702,0.0039883,0.013971,0.023908,0.015238
-0.024502,0.069414,0.49535,0.006958,-0.038547,-0.033303,-0.037142,-0.014711
-0.018389,-0.076872,0.2883,0.11282,0.014225,0.013873,0.034451,0.0018847
-0.011021,-0.086946,-0.12975,-0.228,-0.032254,-0.016335,0.012214,-0.0051188
0.060798,0.096031,-0.74514,0.2428,0.095952,0.03234,0.021266,0.034795
