0.081963,0.18735,0.049899,0.0031632,-0.034737,-0.051737,-0.27708,-0.067396
-0.1229,-0.16622,-0.12866,-0.03548,-0.020185,-0.031664,-0.15741,-0.46344
0.080937,-0.27382,0.0074984,-0.012843,-0.0065043,-0.027632,0.012868,0.059854
0.01012,0.15688,-0.088032,-0.0070309,0.0066275,0.0076316,0.062529,0.19135
0.028407,0.16042,0.0083316,0.013485,0.011809,0.066796,0.52272,0.22978
-0.15596,0.21606,0.064881,0.049175,0.02507,0.048762,-0.099946,0.27831
0.064823,-0.096474,-0.071562,-0.040031,-0.0079532,-0.069568,-0.19851,-0.31068
0.0029763,-0.073664,0.0080334,0.01202,0.022297,0.0010091,0.1222,0.36092
-0.051439,-0.1225,0.032032,-0.0052142,-0.016948,-0.020839,-0.094435,-0.48168
0.13802,0.08361,0.10232,0.01003,-0.0085667,0.028659,0.047155,0.057832
-0.097736,0.019311,0.076916,-0.0047677,0.00044931,0.055307,-0.079505,-0.17922
0.1585,-0.122,0.015503,0.012679,-0.0056352,-0.089856,-0.19275,-0.14052
-0.19175,0.017376,-0.093468,-0.00047933,-0.02689,0.014534,-0.14955,0.12508
0.06512,-0.056021,-0.042893,-0.021207,-0.0086566,-0.0069493,0.64,0.75679
-0.15481,-0.093119,-0.0077022,0.012628,0.017795,-0.013956,-0.63174,-0.46465
0.44646,0.4211,0.018383,-0.0086143,0.052404,0.1653,0.65712,0.70362
-0.45905,0.056634,-0.081423,-0.022555,-0.022165,-0.10189,-0.73978,-0.93925
0.37003,-0.10837,-0.11728,0.0020736,-0.0030358,-0.1043,0.46847,-0.092335
-0.21647,0.12188,0.008393,0.041962,0.023522,0.056888,0.2659,-0.23436
-0.47886,-0.77501,0.081416,-0.035524,-0.060039,-0.14915,-0.51397,0.22717
0.68925,0.39777,0.30926,0.07447,0.081905,0.27794,0.82801,0.56418
-0.090412,-0.022176,-0.20327,-0.081074,-0.058664,-0.044499,-0.67378,-0.28899
-0.21936,-0.32255,-0.056257,-0.017766,-0.083359,-0.093048,-0.45344,-0.13527
0.56555,0.76279,0.038775,0.06119,0.054796,0.13992,0.60297,-0.03119
-0.29949,-0.18092,-0.014424,-0.039672,0.020092,-0.13491,-0.52177,0.19742
-0.048621,0.14919,0.17866,0.077897,0.10971,0.066719,0.56329,0.63598
-0.30488,0.0084333,0.035301,-0.0081428,-0.019765,-0.044205,0.43047,0.017053
-0.4711,-0.5352,-0.24573,-0.086938,-0.10235,-0.10799,-1.0497,-0.86366
0.38659,0.30612,-0.050536,-0.017823,-0.051744,-0.085078,0.35336,-0.012597
0.27999,0.19712,-0.0057858,0.035315,0.062087,0.23602,0.19074,0.013035
0.64932,-0.49228,0.091875,0.072754,0.067587,0.26195,0.36454,-0.35527
-0.54368,-0.046602,-0.13063,-0.11612,-0.1522,-0.4603,-0.80232,0.39576
0.0043851,-0.030856,0.095445,0.078336,0.13719,0.16279,0.07407,-0.24974
-0.22505,-0.21378,0.01584,-0.02337,-0.040883,-0.11154,-0.069488,0.10651
0.3502,0.61818,0.055687,0.063178,0.11018,0.34873,0.99108,1.1032
-0.19524,0.37063,0.10011,-0.029291,-0.081876,-0.1916,-0.47477,-0.29606
-0.21531,-0.10128,-0.076456,-0.027513,-0.094065,-0.22542,-0.018738,-0.3653
0.17997,-0.1642,-0.044665,-0.025447,0.01071,0.043684,-0.34092,-0.13151
-0.49266,0.016706,-0.063781,-0.0076544,0.075908,0.24055,0.14867,-0.66241
0.82408,-0.16871,0.27816,0.033535,0.0076288,-0.10343,0.041854,0.63035
-0.49932,-0.062686,-0.23977,0.019902,0.0089884,0.035512,0.56551,0.57834
0.14973,-0.449,-0.072503,-0.048627,-0.044914,-0.053108,-0.75449,-0.77401
0.039292,0.14295,-0.0023024,0.030991,-0.013297,-0.040712,-0.57044,-0.26281
-0.071638,0.14876,0.0097412,0.047706,0.018055,0.11214,0.62976,0.31698
0.57462,0.17098,0.011136,-0.076752,-0.06796,-0.18807,-0.29119,0.30477
-0.093396,0.42267,0.14366,0.055901,0.11926,0.17594,0.87094,0.19691
-0.67114,-0.52438,-0.013251,-0.031023,-0.0063827,-0.022462,-0.49498,-0.43218
-0.32439,-0.053647,-0.052138,-0.025079,-0.038889,-0.017757,0.61433,-0.20418
0.17983,0.33874,0.035673,0.011285,0.029271,-0.0053161,-0.14316,0.047077
0.48107,-0.1517,0.016278,0.078241,0.03384,0.24156,0.25787,0.75207
0.53154,-0.059467,0.0069781,-0.050486,-0.072067,-0.22982,-0.52227,0.043179
-0.60729,0.1328,-0.12519,-0.038598,-0.030395,-0.13749,-0.76479,-0.87001
-0.18679,-0.22326,-0.036781,-0.02634,-0.043787,-0.11337,-0.62166,-0.19244
0.056953,0.40328,-0.048541,0.017855,0.021201,0.022963,0.69621,0.52706
-0.10461,-0.080777,0.15931,0.03948,0.055829,0.15457,0.42483,-0.2681
0.5609,-0.36046,0.14081,0.054145,0.03713,0.18711,0.3151,0.35006
-0.33108,-0.18072,-0.15952,-0.016491,0.10593,0.29098,0.83373,0.43464
-0.10197,0.091151,0.030976,-0.047798,-0.13632,-0.40326,-1.0255,-0.85942
0.21684,0.32454,0.12567,0.053556,0.052239,0.18007,0.83653,0.95919
-0.07662,-0.14869,-0.2899,-0.095597,-0.11792,-0.35169,-0.94508,-0.93789
-0.089159,0.26956,0.15152,0.020186,0.0012233,-0.054248,-0.72073,-0.17512
0.058168,-0.15088,-0.072966,0.018133,0.042182,0.14308,0.66755,0.037853
-0.1297,-0.070611,-0.040509,-0.015556,-0.002986,-0.023581,0.34052,0.67935
0.20412,0.25513,0.17978,0.060175,0.084489,0.18296,-0.023949,0.4544
-0.74799,-0.18756,-0.082769,-0.035422,-0.0234,-0.11681,-0.56618,-0.72121
0.85349,-0.11631,-0.01474,0.034071,-0.021805,0.072433,0.10612,-0.2758
-0.036785,-0.1553,0.01714,-0.059102,-0.043378,-0.067282,0.29176,0.40094
-0.13058,0.18834,0.01277,0.021182,0.021376,-0.01918,-0.14091,-0.43265
0.19396,0.12611,0.057449,-0.014172,-0.046241,-0.064766,0.30011,0.059473
0.096093,-0.013515,-0.0061117,0.0064435,0.07404,0.34124,0.81628,0.69735
-0.39849,-0.44939,-0.10102,0.04349,-0.0085587,-0.11628,-0.7434,-0.035298
-0.15432,0.6068,-0.0018897,0.0025872,0.026011,-0.14358,-0.28759,-0.20193
0.14509,-0.057397,-0.01434,-0.054464,-0.080396,-0.1578,-0.87218,-0.39741
-0.041208,-0.14742,0.06423,0.035742,0.070313,0.15114,0.65204,-0.53708
0.23235,-0.13493,0.0071884,-0.0007431,0.032555,0.25843,0.88961,0.35423
-0.25088,0.05489,-0.013221,-0.047006,-0.084417,-0.30474,-0.92812,0.66542
0.47341,0.0046301,0.019352,0.045392,0.02416,0.033085,0.67327,0.48816
-0.43465,0.0080947,0.0043123,-0.0045225,-0.0086294,0.03967,-0.58201,-0.41423
-0.12771,0.21907,-0.065093,-0.055635,-0.065188,-0.2433,-0.056961,-0.50478
0.045261,-0.30152,-0.015989,0.025477,0.018982,0.12422,0.070671,-0.32387
0.13224,0.17253,0.011785,0.036306,0.095775,0.3394,0.76884,0.31595
0.36697,-0.04527,0.057732,-0.022624,-0.069065,-0.33917,-0.97388,0.32246
0.21607,0.2429,0.043745,0.067793,0.12589,0.35366,0.91477,-0.043622
-0.41736,-0.083998,0.016295,-0.020391,-0.022832,0.033508,-0.13481,0.0028472
-0.37264,-0.56778,-0.15817,-0.068408,-0.10159,-0.40337,-0.59838,-0.51832
-0.15266,0.21126,0.13661,0.048662,0.084613,0.23613,0.49512,0.37321
0.31105,-0.014911,-0.1081,-0.075549,-0.1518,-0.44031,-0.96657,-0.32767
0.26008,0.15643,0.099185,0.043217,0.072238,0.41817,1.0011,0.70833
-0.06289,0.21983,-0.085675,0.014234,-0.016114,-0.070884,-0.47356,0.082382
-0.078479,0.13624,0.071727,0.0092708,0.013592,-0.031143,0.11472,-0.24628
-0.027234,-0.13577,0.017144,0.02038,0.044924,0.0080652,-0.18081,-0.084734
-0.17312,-0.069165,-0.1393,-0.054188,-0.046589,-0.044944,0.10671,-0.27135
0.42279,-0.05982,0.11111,0.050947,0.082938,0.22562,0.80963,-0.0033383
-0.082169,-0.20684,-0.097994,-0.047324,-0.043392,-0.31986,-0.99217,-0.36012
-0.28887,-0.22587,0.030781,-0.0055653,-0.020104,0.092095,0.090912,0.21207
-0.087575,0.41079,0.0209,0.043108,0.05797,0.21051,0.72731,0.47773
0.46716,-0.041373,0.16087,0.012511,-0.029108,-0.044568,-0.28325,0.10685
-0.32782,0.010155,-0.066042,-0.042816,-0.063653,-0.12856,-0.36012,0.049752
0.082031,0.22906,-0.04407,0.02555,0.039525,0.12024,0.13302,-0.2439
-0.03784,-0.07186,-0.087193,-0.024435,-0.02456,-0.12817,-0.079516,0.11322
-0.039202,-0.28237,0.076853,-0.012778,-0.021335,-0.10918,0.080829,-0.091828
0.24962,0.1459,0.049057,0.045337,0.088903,0.16949,0.046932,-0.2572
-0.023076,0.027697,-0.092263,-0.013627,-0.028812,-0.040944,-0.28521,-0.043673
-0.19332,0.014482,-0.018012,-0.0094484,0.0094688,0.12882,0.4815,0.2425
-0.13616,-0.038426,-0.10942,-0.027601,-0.052942,-0.26385,-0.93576,-0.09332
0.06245,-0.095525,0.11976,0.0025385,0.0036559,0.065013,0.63942,-0.25273
-0.05081,0.011581,0.10887,0.049814,0.031466,0.12553,0.59157,0.40542
0.50801,0.0054893,-0.023541,-0.018734,-0.023962,-0.0574,-0.61227,-0.56647
-0.097805,-0.017318,0.027951,0.023078,0.048124,0.11813,0.40572,0.54366
-0.50213,-0.063604,-0.080444,-0.012789,-0.010661,-0.083067,-0.24473,-0.12759
0.16883,0.38126,-0.029125,0.0058799,0.041034,0.079375,0.19352,0.59045
0.093652,-0.2483,0.03229,-0.023016,-0.055542,-0.14701,-0.52961,-0.08831
0.099712,0.22261,0.10242,-0.0060987,-0.012188,0.032005,0.24418,-0.24046
0.069698,-0.16488,-0.17941,-0.029443,-0.017026,0.035903,-0.15958,-0.027173
-0.089469,-0.041567,0.052955,0.024246,-3.5818e-05,0.011405,0.02566,-0.42592
-0.25907,0.0018786,-0.013574,0.01465,-0.00022691,-0.073555,0.054116,0.091848
0.031922,0.17351,0.027083,-0.0031212,0.0061701,-0.10164,-0.15355,-0.39943
0.020646,-0.33188,0.081382,0.033873,0.058712,0.20943,0.61359,0.39971
0.26457,0.0031369,-0.14711,-0.045877,-0.037395,-0.01371,0.06641,0.41041
-0.28086,0.080655,0.053093,0.0078649,-0.00047325,-0.12067,-0.97599,-0.73344
0.23732,-0.47761,0.041857,0.031114,-0.0021363,0.070153,0.37383,0.37438
0.06935,0.67639,0.038312,0.00037099,0.035811,0.13071,0.71962,0.63629
-0.074774,0.076925,-0.012,-0.037654,-0.035159,-0.23478,-0.86861,-0.49634
-0.1423,-0.032728,-0.038651,-0.0050499,-0.012115,0.099202,0.41901,-0.00061798
0.051701,0.11213,-0.025946,0.019842,0.026603,0.070039,0.35148,0.16344
-0.19087,-0.19406,-0.044095,-0.0022234,-0.020735,-0.072912,-0.78778,-0.22708
0.22892,-0.04806,0.086761,-0.0010685,0.0020508,0.0052525,0.12005,0.00017276
0.19163,-0.053933,-0.047201,-0.023658,-0.01437,-0.017026,0.10012,0.21985
-0.31222,-0.095592,0.015215,0.023704,0.016084,0.023049,0.029748,-0.074828
-0.018114,-0.13323,0.071092,0.047232,0.023304,0.05405,0.55283,-0.48106
-0.090705,0.070019,-0.14511,-0.054653,-0.031566,-0.10454,-0.53696,0.025695
0.19638,0.10364,0.10087,-0.00069563,-0.0077435,0.038992,-0.069236,0.24079
0.10106,0.065017,0.01189,0.013832,0.032337,-0.015427,0.40962,0.51929
0.0065055,-0.10566,-0.014082,0.012457,0.018318,-0.017528,-0.55864,-0.20129
0.12438,0.31909,0.030217,-0.012488,-0.010888,0.1348,0.56997,0.019756
-0.33316,-0.12293,-0.066711,-0.029563,-0.039887,-0.12803,-0.41649,-0.67975
0.081107,0.026046,-0.00065237,0.00050186,-0.014264,0.061982,0.26358,-0.013395
0.10424,0.1991,0.024949,0.015397,0.018828,-0.03656,-0.26404,0.27251
-0.43233,-0.23342,-0.12285,0.015249,0.020086,-0.063577,-0.31177,0.061426
0.27184,-0.26747,0.14192,0.023535,0.028392,0.11429,0.28265,0.31084
0.071547,0.0011324,0.077262,0.0011335,-0.0032131,0.0051997,0.38945,0.33307
0.15662,-0.06042,-0.066525,-0.03646,-0.035629,-0.070422,-0.085746,0.045788
-0.20647,0.22171,-0.031248,0.0043419,0.0016314,0.051371,0.36832,-0.62838
0.067259,-0.024196,-0.043005,-0.0094193,-0.031743,-0.10632,-0.49034,-0.010155
-0.040495,0.11187,0.023723,0.0002807,0.013097,0.065365,-0.51526,-0.40409
0.098988,-0.062054,-0.033651,-0.013479,0.03504,0.065765,0.55652,0.41045
0.058989,0.089137,0.011922,0.019609,0.018861,-0.004299,0.066863,-0.1092
-0.11059,0.15231,0.11392,0.02142,-0.050799,-0.067454,-0.085526,-0.019141
0.32853,-0.20882,0.006879,0.023184,0.029246,0.063109,0.36841,0.36042
-0.61821,-0.097109,-0.11397,-0.061101,-0.053678,-0.1366,-0.57978,-0.16508
-0.029393,-0.053283,-0.0067505,0.0028309,0.028146,-0.010723,-0.41138,0.022098
0.15099,0.12423,0.015538,0.019524,0.063191,0.15933,0.8721,0.19529
0.089666,-0.018724,-0.0086879,0.0044545,0.0039111,0.022035,-0.48661,-0.12297
0.11805,0.056548,0.076099,0.03562,-0.0096997,0.062037,0.052784,0.034689
-0.034171,-0.063725,-0.082387,-0.090172,-0.095278,-0.24359,-0.2202,-0.55185
0.025967,-0.1132,0.1246,0.056779,0.020454,0.066871,0.65381,0.43697
0.1826,0.096428,-0.014301,0.023464,0.040808,0.049082,0.34242,0.17342
-0.10297,0.057912,-0.12423,-0.041462,-0.010268,-0.069282,-0.39582,-0.1297
-0.12782,-0.095931,-0.0096663,-0.0127,-0.03828,-0.021515,-0.2734,-0.13312
-0.095371,0.22797,0.079956,0.024155,0.04354,0.10732,-0.12928,-0.027521
-0.013383,-0.12793,-0.081117,-0.00087824,0.0093885,0.059929,0.001707,0.20812
0.040578,0.14722,0.015834,-0.017225,-0.015189,-0.093319,-0.31368,-0.60823
-0.088748,-0.19036,0.082565,0.014313,0.0091052,0.037815,0.22604,0.52812
0.13876,-0.032402,0.057134,0.023402,0.035294,0.022889,0.88356,0.3078
0.0049864,0.073948,-0.083705,0.0020433,-0.022966,-0.08438,-0.37524,-0.18228
0.064374,-0.15189,-0.027655,-0.018839,-0.041294,-0.058465,-0.47511,-0.24828
-0.12979,-0.099043,-0.040887,-0.024033,0.0030307,0.029349,-0.169,-0.081504
0.22462,0.21102,0.055513,0.0094683,0.039003,0.11573,0.68099,0.1873
0.038336,0.1006,0.03413,0.010967,-0.027703,-0.089032,-0.54453,-0.097279
-0.12192,0.00091515,0.011381,0.0036222,0.021269,0.10991,0.84073,0.033958
-0.0014165,0.029924,0.025793,0.018553,-0.040834,-0.05331,-0.19426,0.66017
-0.19582,-0.070267,-0.079065,-0.022327,-0.018699,-0.055294,-0.71009,-0.55987
-0.18205,-0.073928,-0.045148,-0.0016199,0.056585,0.010421,-0.03127,-0.30099
0.25998,-0.068321,-0.05934,-0.020537,0.029048,-0.0041584,-0.059173,0.0928
0.16425,0.18723,0.097995,0.0073061,0.0084341,0.034423,0.22715,-0.02445
-0.012517,-0.28526,0.09189,0.0042504,-0.028255,-0.037125,0.23863,0.17226
-0.1493,0.29436,-0.029922,0.033206,-0.025828,0.086693,0.58765,0.040474
0.061998,-0.16058,-0.032486,-0.022733,-0.046242,-0.11681,-0.92038,-0.25742
-0.19646,0.15438,-0.01716,0.0084145,0.028236,0.048268,0.22846,0.057268
0.24843,-0.096468,-0.023189,-0.01406,-0.0050571,0.019826,0.30406,0.621
0.021528,-0.037492,0.027029,-0.0044713,0.033855,0.0011407,-0.13544,-0.47072
0.074648,0.082326,0.007735,0.028993,0.012193,-0.015664,-0.086236,0.37595
-0.094386,-0.040408,-0.0038096,-0.015656,1.9171e-06,0.023865,0.2618,-0.19923
-0.14436,-0.0058146,0.0071964,0.0096175,0.04362,0.049092,-0.46631,-0.21291
-0.054257,-0.031218,0.0088627,-0.020492,-0.045169,-0.13563,-0.25229,-0.024847
0.088121,0.048661,0.055539,0.0032281,-0.03275,0.016289,0.018055,-0.28294
0.15666,-0.23411,-0.12617,-0.0051516,0.0099111,0.098395,0.6318,-0.017067
-0.30986,0.2379,0.011026,-0.022033,-0.0348,-0.10821,-0.4057,0.14927
0.32176,0.18309,0.022554,0.062232,0.059543,0.068189,-0.075488,0.62313
-0.096012,-0.055716,-0.020378,-0.041097,-0.027226,-0.052289,0.41175,-0.31502
-0.04645,-0.2064,0.023728,-0.0035883,-0.0056713,0.084729,0.31837,-0.04288
0.034038,0.057764,0.053961,0.034365,0.030954,-0.0055471,0.013103,0.61462
-0.13493,-0.0066621,0.00030364,-0.013046,0.005033,-0.0032771,-0.49653,-0.88741
0.14245,-0.056819,-0.051432,-0.012997,-0.051772,-0.065144,-0.39841,-0.086275
0.038125,0.047422,0.062314,0.0188,0.040474,0.082011,0.55866,0.33311
-0.081024,-0.07696,-0.034218,-0.0037483,0.00056512,-0.06965,-0.30862,-0.093658
0.11255,0.015218,-0.037182,-0.026138,-0.015397,-0.035467,0.17944,0.20265
-0.084926,0.050255,-0.0020125,0.013948,0.031357,0.044512,-0.12988,0.1376
-0.048957,0.12136,0.047347,-0.016457,-0.00014728,0.0070067,-0.16786,-0.24584
0.0093391,0.055869,-0.037728,0.0075262,-0.047728,-0.022127,-0.028565,-0.40278
0.098025,0.0014184,-0.038346,0.031126,0.029048,0.059442,0.40461,0.25181
-0.29004,-0.034639,0.061524,-0.00039275,-0.0041968,-0.028987,0.0043618,-0.087587
0.37737,-0.29419,-0.010991,-0.016727,-0.014449,-0.02155,0.10945,0.43662
-0.14085,0.13816,0.018142,-0.01002,-0.0091468,0.058223,0.2978,0.18019
-0.1562,0.0070265,0.032247,0.012019,0.012183,-0.079111,-0.79277,-0.35499
0.25384,-0.059325,-0.015216,0.0105,0.026568,0.097129,0.31758,0.11957
-0.12151,0.09108,-0.12414,-0.037786,-0.035955,-0.062127,-0.17313,-0.62535
-0.0091942,-0.1402,0.064727,0.0080394,0.012258,0.028493,0.097765,0.37475
-0.011685,0.10036,0.019764,0.0075896,-0.00077475,-0.068913,0.025591,0.29445
0.11188,0.14118,0.045123,0.0079056,0.049595,0.02046,0.21068,0.01906
0.039679,0.01963,-0.0082642,0.0012253,0.006588,-0.00026827,-0.48694,-0.14376
-0.24543,0.021306,0.038689,0.010895,-0.044456,-0.037244,-0.018187,-0.19782
-0.01029,-0.1476,-0.087883,-0.0023756,-0.025954,0.081522,0.34662,-0.0049393
0.22085,0.070212,0.002518,0.00015071,0.0070379,0.043558,0.27486,0.14493
-0.036605,0.021577,0.013267,-0.0053274,-0.015931,-0.049677,-0.11345,-0.036787
0.06143,-0.18754,-0.055013,-0.0035152,0.014618,-0.0030887,-0.44146,-0.33761
-0.13261,0.011672,0.032949,-0.018085,0.013035,-0.020067,0.25239,0.45552
-0.11749,-0.075469,-0.018721,0.013364,0.018772,0.016373,-0.11845,0.21989
0.06912,0.17083,0.079942,-0.01069,-0.014661,-0.010995,0.16308,-0.18298
0.014391,0.11403,0.048308,0.019285,0.022417,0.0073906,-0.069563,-0.087161
-0.030855,-0.15507,-0.082155,-0.029293,-0.033872,-0.068668,-0.13172,-0.12378
0.23827,0.071545,-0.046047,0.023505,0.0040241,0.042691,0.32547,-0.056892
-0.0068147,0.040224,0.046643,0.037269,0.042307,0.053101,0.12806,0.16189
-0.079541,-0.23051,-0.015919,-0.026912,-0.036312,-0.021157,-0.27956,-0.067612
0.0893,0.22152,0.069927,-0.0048874,-0.013184,-0.0077062,-0.26402,-0.25999
-0.42303,-0.041772,-0.017122,-0.021619,-0.01337,-0.023478,-0.15136,0.038342
0.18004,-0.19455,-0.098189,0.0088381,0.025627,0.040878,0.42119,0.86618
0.16459,0.33763,0.021524,0.00054324,0.017924,-0.018054,0.051542,-0.18372
-0.038526,-0.090398,0.029356,0.0081789,-0.0051506,-0.013279,-0.045125,-0.62068
-0.083897,0.0010699,0.01143,0.0004867,-0.020089,0.046767,0.24413,-0.13377
-0.07913,-0.0091953,0.085417,0.00088481,-0.026872,-0.049493,-0.40649,0.33819
0.09444,-0.14734,-0.15425,0.0015229,0.02913,0.033322,-0.051052,0.14607
0.1173,0.038882,0.043224,-0.0054719,0.030582,-0.017679,0.051377,-0.11643
0.0049379,0.04283,0.030157,0.01107,0.0085091,-0.046448,0.014836,-0.16762
-0.17347,-0.085585,-0.020924,-0.019256,-0.021726,0.032939,0.27203,0.04001
0.17382,-0.013818,0.046678,-0.010606,-0.029111,-0.021589,0.098265,-0.086909
-0.11981,-0.0024454,-0.04809,0.021312,0.0018261,0.0010757,-0.52843,0.24049
0.075768,0.14869,0.030649,0.02957,0.032014,0.077658,0.3627,-0.072557
-0.015201,0.091853,-0.029884,-0.0092837,-0.00089267,0.036398,0.43142,0.44092
0.019789,-0.26443,0.027694,-0.024899,-0.03409,-0.052308,-0.62892,-0.39317
-0.14789,0.36929,0.03882,-0.017187,-0.012484,-0.071169,-0.2628,-0.09256
0.060504,-0.063092,-0.090735,-0.0094583,0.040916,0.034687,0.15841,0.13825
-0.079969,-0.39266,-0.001993,0.01404,-0.021968,-0.039118,-0.19541,-0.1774
0.081421,0.09533,0.015705,0.022146,0.025628,0.051591,0.69053,-0.077219
0.062833,0.036979,0.071581,0.014866,-0.011621,-0.013022,-0.23938,-0.14441
0.0072198,0.068382,-0.076607,-8.0341e-05,0.0066679,-0.0059621,0.012665,0.43716
-0.021154,0.18546,0.024287,-0.015059,0.001926,0.018355,0.059538,0.046319
0.12715,-0.16969,0.06964,-0.0068561,-0.010786,-0.049421,-0.37902,0.030203
-0.14142,0.00094613,-0.11232,0.00088779,0.022643,0.079512,0.26593,-0.38231
-0.046061,0.079663,0.064497,-0.0075771,-0.023262,0.02182,0.54586,0.17688
-0.040837,0.020703,0.0065307,0.0068113,-0.00033242,-0.035688,-0.70751,0.027454
0.076222,-0.24358,-0.059396,0.0051297,0.0055009,0.0078261,0.032788,-0.16076
0.053926,-0.092107,0.031091,-0.020174,-0.013284,-0.027932,0.16947,0.33562
-0.022865,0.073492,0.012712,0.009362,-0.017094,-0.080841,-0.33874,-0.026319
0.0012288,0.20314,0.0029944,0.0003314,0.002557,0.013064,0.14801,-0.039676
-0.069726,0.12109,-0.03684,0.0077054,0.022913,0.082061,0.45838,-0.27844
0.0060825,-0.084074,0.0262,0.0082085,0.005467,-0.053218,-0.73442,-0.24554
0.03317,0.080961,0.012459,-0.0059659,0.020849,0.13104,0.83682,0.26803
-0.004117,-0.27491,-7.8204e-05,0.0040913,-0.02467,-0.075739,-0.63914,0.30051
0.089588,0.065251,-0.035161,-0.016589,0.0014551,-0.056087,-0.075774,-0.022923
-0.091871,-0.1904,-0.030745,0.017575,0.028421,0.080868,0.55794,0.22085
0.061005,0.32988,0.12981,0.0281,0.00094098,0.0072392,-0.027964,-0.29405
-0.0688,0.091562,0.00063313,-0.039998,-0.042507,-0.065753,-0.053438,-0.3613
-0.059163,-0.1191,-0.16095,-0.038463,-0.032063,-0.051831,-0.23823,0.19501
0.066826,-0.061904,0.082235,0.024838,0.024203,0.041555,0.12828,-0.042533
0.012741,-0.011149,0.0035069,0.0093462,0.0090655,-0.027489,-0.48452,-0.12428
0.19319,-0.1618,-0.029831,0.016766,0.016417,0.069272,0.2374,0.35947
-0.23498,0.081318,0.037225,0.0082032,0.015263,0.019154,0.0069845,-0.050246
-0.036755,0.071929,0.0020084,-0.0083836,-0.017535,-0.014304,0.22457,0.22477
0.085301,-0.031305,-0.025582,-0.0016449,-0.011399,-0.00068009,-0.08527,-0.1376
-0.1184,0.062832,0.0096503,-0.01841,0.010434,0.027766,0.61655,-0.25785
0.1179,0.074586,0.037823,0.0038224,0.001197,-0.039343,-0.57736,0.18801
-0.13576,-0.01104,-0.042318,0.0025331,-0.015646,-0.046544,-0.16898,-0.20257
0.2528,0.079174,0.019389,0.001139,0.0067455,-0.0020461,-0.082353,0.16077
0.17323,-0.24938,-0.042666,0.03089,0.029251,0.047377,0.32917,0.096216
-0.21926,0.1193,0.076086,-0.009743,0.0049478,0.05546,0.2132,-0.20933
-0.17552,-0.050389,-0.085526,-0.050372,-0.050539,-0.1252,-0.59393,-0.2394
-0.0084576,-0.20482,0.011241,0.01849,0.0034752,0.069174,0.55783,0.56264
-0.17884,0.069223,0.0457,0.0016605,0.0030423,-0.078829,-0.79779,-0.28507
0.36868,0.26322,0.0096496,0.024261,0.010797,0.088169,0.54517,0.15744
0.041277,0.12654,0.098055,0.0082539,-0.0044051,0.016215,-0.15304,-0.2486
-0.17581,-0.20084,-0.21278,-0.030704,0.0043345,-0.036684,0.20274,-0.072686
0.11642,-0.14918,0.037961,0.024549,0.021297,0.030648,0.28432,0.28637
-0.042914,0.13269,0.014358,-0.013563,-0.0084191,-0.048302,-0.40992,0.18641
0.0019579,-0.027077,0.029062,-0.0045167,0.00081823,0.061177,0.25782,-0.13266
-0.046748,0.036181,0.097929,0.0047089,0.0018062,-0.0016153,-0.32525,0.18603
0.020737,0.11279,-0.052216,-0.0016022,0.0020863,0.012158,0.41578,-0.60178
0.0078946,-0.20159,-0.053928,-0.0078927,-0.021917,-0.077967,-0.55272,0.18247
0.023072,-0.021762,-0.047611,0.0092272,0.0079641,-0.037868,0.057281,0.038847
-0.090661,0.014147,0.045025,-0.020593,-0.025229,-0.0078645,-0.097614,-0.24247
0.057101,0.017712,0.044387,0.04323,0.011681,0.10655,0.47631,0.13716
0.0056963,0.029378,0.028598,-0.010295,-0.02151,-0.045185,-0.023391,0.35925
0.029309,-0.021027,-0.11183,-0.017175,0.031807,0.037961,0.022917,0.22988
0.011883,0.044845,0.029162,-0.00091866,0.015597,-0.041649,-0.18722,-0.5081
0.0016904,0.11483,0.084104,0.0071595,0.015801,0.0054712,-0.20676,0.21569
-0.28882,-0.080561,-0.072285,-0.0086041,0.0087899,0.038669,0.13731,-0.3256
0.35274,0.23563,0.08321,0.014289,-0.0057636,0.026255,0.43143,0.4695
-0.088,-0.19831,-0.082318,-0.0022457,-0.028211,-0.03249,-0.44942,-0.35947
0.0070617,-0.12719,0.017166,-0.011249,-0.027567,-0.013377,0.056824,0.0013013
0.044684,-0.14557,-0.055533,-0.00479,-0.01955,-0.049928,-0.21462,-0.071106
