-0.011924,0.02303,-0.017661,0.0057686,0.0077945,0.015041,0.021725,-0.029189
0.49037,-0.05487,-0.15754,-0.048595,-0.013816,-0.0093401,-0.027745,0.032378
-0.42021,0.013907,0.0027256,-0.0099645,0.011109,-0.0099272,0.015916,-0.023028
-0.13461,-0.0051326,0.10443,-0.011077,-0.019125,-0.033525,-0.051517,-0.12601
-0.33268,-0.11134,-0.077497,0.026347,0.0047549,0.021414,0.042404,0.089682
0.21212,-0.02214,0.037093,0.039998,0.020181,0.037592,0.054805,0.084121
0.12459,-0.18893,-0.065263,-0.024634,-0.027553,-0.024257,-0.061395,-0.11995
0.80254,0.26493,0.14073,0.035705,0.025642,0.046534,0.084815,0.28176
-0.74738,0.30927,0.15626,-0.036727,-0.015472,-0.055014,-0.12274,-0.24204
0.090464,-0.21982,-0.26842,-0.023148,-0.0023464,0.022414,-0.010607,-0.019001
-0.10731,0.051764,0.076908,0.0061475,-0.0051584,-0.041638,0.0012388,0.014386
0.033337,-0.245,-0.30156,0.012129,0.0074906,0.018461,0.0006858,-0.038851
0.36406,0.028125,0.26578,0.0026768,0.020124,0.031011,0.07528,0.14336
-0.27782,0.32177,0.37798,0.024768,-0.0061815,-0.019291,-0.024067,-0.16377
-0.38191,-0.28019,-0.33452,-0.046465,-0.024421,-0.01483,-0.016152,0.049003
0.039465,-0.005609,0.13435,0.046932,0.020213,0.021416,0.019803,0.0090563
-0.12767,0.067183,-0.2864,-0.030849,-0.012789,-0.027322,-0.027609,0.044446
0.25169,-0.045294,-0.08836,-0.029727,-0.0061306,0.00332,0.018669,-0.072387
0.87331,0.151,0.26155,0.0503,0.032475,0.050971,0.17154,0.22708
-0.23316,-0.075804,-0.09331,-0.033063,-0.014082,-0.0016288,0.053784,0.049951
-0.57888,-0.26992,-0.17332,-0.0066124,-0.036386,-0.060998,-0.14823,-0.24665
0.074109,-0.085221,0.16488,0.043368,0.020245,0.0052496,-0.11386,-0.055136
0.12031,0.52676,0.22779,0.022711,0.022931,0.032533,-0.27096,0.014231
-0.14592,0.0040942,-0.10122,0.001317,0.010602,0.01251,0.10218,0.063158
-0.13905,0.14314,0.41933,0.0023087,-0.0091145,-0.008408,0.024554,-0.20413
0.17413,-0.36216,-0.68103,-0.099448,-0.020824,0.00071597,0.15523,0.21409
-0.36664,-0.34173,0.079879,-0.030429,-0.016963,-0.022733,0.10494,-0.1256
0.77472,0.39799,0.02805,0.053403,0.010028,-0.02396,0.16993,0.25498
-0.61596,-0.066259,-0.033514,0.050897,0.02084,0.0364,0.074162,0.08342
-0.14482,-0.14156,0.0035483,-0.021902,-0.023823,-0.036528,-0.2333,-0.14769
0.64229,0.2968,0.1467,0.04627,0.024267,0.038981,-0.085071,-0.024403
-0.037413,0.14736,0.35707,-0.0022242,0.0086867,0.013345,-0.10208,-0.10173
0.17169,-0.54279,-0.56011,-0.034553,-0.00034616,-0.027225,-0.028521,-0.012738
-0.62616,-0.0078494,0.083402,-0.019551,-0.010624,-0.0045134,0.010973,-0.085541
0.83723,0.33801,0.10092,0.0036018,0.0092805,0.05795,0.14423,0.10201
-0.80162,0.064648,-0.061443,-0.0042378,-0.0184,-0.011938,0.0010716,0.16749
-0.30244,0.15573,0.15168,-0.0040156,-0.015022,-0.034775,-0.053156,-0.14669
0.15566,-0.48329,-0.079508,0.019952,0.0044113,-0.018642,-0.059357,-0.082926
0.57549,0.31895,-0.14532,-0.025997,-0.021985,-0.034033,-0.020522,0.3033
-0.64036,-0.12496,0.20432,0.030068,0.0078322,0.020543,0.026955,-0.15352
0.64523,-0.048439,-0.093233,0.00061735,0.031583,0.043553,0.12983,-0.0022076
-0.19724,0.058161,-0.053928,-0.020743,0.0022716,0.011665,0.058477,-0.21372
0.11499,-0.11514,0.063941,0.051667,0.060053,0.050031,0.041714,0.1942
-0.17644,-0.26873,-0.052673,-0.032474,-0.030184,-0.05992,0.041186,0.087126
-0.042613,0.31856,0.072283,-0.0078544,-0.03491,-0.060169,-0.020739,-0.051417
0.55219,0.492,0.21191,0.023746,0.013867,0.057325,-0.15016,0.028801
-0.41883,-0.42007,-0.23539,-0.0080387,-0.0093337,0.011537,-0.092926,-0.038024
-0.028395,0.30781,0.043278,-0.040558,-0.0421,-0.080176,-0.15423,-0.14006
-0.58197,-0.53761,-0.10751,-0.026606,-0.013787,-0.022472,-0.018913,-0.1022
0.4605,-0.045295,-0.21008,0.042069,0.01377,0.090717,0.12292,0.14153
-0.22673,0.10176,0.10387,-0.0059681,0.017961,0.040193,0.074631,-0.023004
0.27335,0.46298,0.23356,0.032723,0.030816,0.012767,0.069153,0.10155
0.08823,-0.15938,0.16343,0.01762,0.021627,-0.015822,0.087917,0.23448
-0.11676,-0.38402,-0.24008,-0.035795,-0.0094159,-0.069798,-0.061943,-0.32063
0.70491,0.35903,0.31839,0.05962,0.039065,0.069052,0.12706,0.2774
-0.51099,-0.093438,-0.53025,-0.087231,-0.083412,-0.091566,-0.11348,-0.27178
-0.016843,0.096522,0.59501,0.093503,0.044397,0.050328,0.04016,0.035974
-0.42413,-0.39635,-0.67429,-0.13288,-0.078127,-0.066843,-0.034073,0.025673
0.17253,0.048423,0.11465,0.030385,0.032933,0.011325,-0.059022,-0.054566
0.2818,0.18401,0.21245,0.067815,0.049238,0.059673,-0.021416,0.13875
-0.35936,0.16916,-0.15291,-0.059308,-0.052605,-0.029935,-0.13228,-0.096008
0.041907,0.21627,0.45791,0.055733,0.024544,0.063649,-0.069154,-0.060528
-0.072846,-0.4166,-0.41422,-0.016267,-0.00017234,0.0047456,0.03892,0.014844
0.065226,0.050943,0.044556,-0.024925,-0.024776,-0.027311,0.11824,0.040672
0.57477,-0.046816,-0.024467,0.0065289,0.037009,-0.0099704,0.14151,-0.041763
0.13461,0.16311,0.058214,0.015573,0.013492,-0.0069671,0.017443,-0.097187
-0.64121,-0.12596,0.04945,-0.0058525,-0.025011,-0.019652,0.012075,0.17184
-0.09353,-0.14229,0.1196,0.019945,0.0072656,0.021052,0.045547,0.13872
0.20157,0.058173,0.0013337,-0.0091277,-0.01497,-0.018602,-0.088705,0.065513
0.12136,0.29496,-0.19748,0.023592,0.032946,0.056173,0.011241,-0.052766
-0.2761,-0.072946,-0.055903,-0.03855,-0.036793,-0.09066,-0.17449,-0.24508
0.092544,-0.25659,-0.15218,-0.047316,-0.013455,0.017721,-0.0085336,0.061629
0.15657,0.25194,0.28777,0.036407,0.016957,0.0068061,0.030854,-0.10515
-0.26974,-0.30489,-0.070764,0.025407,0.015455,0.009966,-0.0093178,0.026158
0.49695,0.37798,0.078378,-0.01735,-0.002135,0.051112,0.08367,0.112
-0.43682,-0.14428,0.11151,0.025867,-0.0042898,-0.010088,-0.0075399,-0.072136
0.051659,0.058548,-0.24393,-0.016298,0.0014745,0.013948,0.03303,0.00052972
-0.21984,-0.16919,0.067009,-0.018448,-0.0080184,-0.017471,-0.010049,0.083984
0.23725,-0.1082,-0.057635,-0.019437,-0.032589,-0.049762,-0.087313,-0.099099
-0.0042832,0.038787,0.13121,0.03541,0.02939,-0.0048037,0.029277,0.056164
0.1341,0.18596,0.13226,0.059934,0.045054,0.016052,0.074331,-0.010306
0.52584,0.25498,-0.28238,-0.016546,0.014251,0.067989,0.17979,0.54674
-0.63681,-0.24685,0.050213,-0.061646,-0.063219,-0.05915,-0.12474,-0.44377
0.048688,-0.23424,-0.034682,-0.0054338,-3.5049e-05,0.002822,-0.0521,-0.10635
-0.18677,0.27674,0.087901,0.0034046,0.00057736,-0.018444,-0.15086,-0.2921
-0.095675,0.012628,0.10612,0.011679,0.0011359,-0.0047555,-0.023701,-0.062946
0.16458,-0.17428,-0.18185,0.0038796,0.0095875,0.02898,0.055548,0.41761
0.25826,0.22534,0.2258,0.034943,0.010519,-0.010739,0.05585,0.11071
-0.19637,-0.40349,-0.3642,-0.058886,-0.034914,-0.022712,0.040239,0.039217
-0.0026015,0.18397,0.15176,0.019544,0.014065,0.023287,-0.029877,-0.23599
-0.096906,0.02915,0.11905,0.0047824,0.0090226,0.039707,0.040916,0.02459
-0.07288,-0.061684,-0.039544,0.0062218,0.0044695,0.024533,0.041236,0.11433
0.63881,0.1383,-0.21471,0.023715,0.023482,0.030339,0.032642,-0.040965
-0.17481,0.034003,0.233,0.025727,0.026501,-0.022851,0.021723,0.14101
-0.36801,-0.06507,-0.026732,-0.097476,-0.080759,-0.1519,-0.21924,-0.33479
0.064278,0.14938,0.06569,0.020941,0.013733,0.017815,0.027775,-0.048132
-0.044121,0.13357,0.30402,0.083845,0.044065,0.080631,0.067403,0.18043
-0.022208,-0.43716,-0.43167,-0.096375,-0.060112,-0.063571,-0.068366,-0.038581
0.083828,0.03567,-0.19002,0.019414,0.021757,0.032557,0.075031,0.17205
0.32317,0.16808,0.1848,0.033015,0.0089118,0.027515,0.022917,-0.067553
-0.35517,-0.13269,-0.024925,-0.016144,-0.01205,0.0092996,-0.027401,-0.012016
-0.14188,-0.043348,0.065778,0.0051794,0.0064661,-0.020578,-0.042935,-0.1661
0.17106,0.018556,-0.087175,-0.0041705,0.010428,0.0089236,0.055599,0.074319
-0.044714,-0.090626,-0.098249,-0.028257,-0.0074858,0.0039241,-0.051741,0.10172
0.050033,0.19588,0.37832,0.026819,0.023286,0.049453,0.087674,0.11239
0.15216,0.17785,-0.1722,0.0047611,-0.014466,-0.0043873,0.0038227,-0.14359
-0.26224,-0.13584,0.24987,0.014697,-0.0038264,-0.034289,-0.023867,-0.20605
0.44497,0.23054,-0.14585,0.0093488,-0.0077661,-0.041842,-0.013044,0.17355
-0.16782,-0.19411,-0.12675,-0.035207,-0.0034318,-0.012619,0.018822,0.0948
-0.22289,-0.10044,-0.030389,0.029,0.032008,0.0058797,-0.023336,-0.15546
-0.084952,-0.077564,-0.099936,-0.032753,-0.0348,-0.03324,-0.085377,0.16271
0.16302,-0.026444,0.094248,0.013755,0.014489,0.058018,0.020497,-0.02299
0.064092,-0.12828,-0.22827,-0.034529,-0.015661,0.0070394,0.02189,-0.042133
-0.12636,0.29617,0.40264,0.033612,0.015347,0.025692,0.014082,0.057695
-0.065577,-0.13553,-0.12096,-0.023588,-0.0095167,0.013258,0.022191,-0.1843
-0.034439,0.24153,0.061325,0.020905,0.011611,-0.01401,0.024256,-0.1109
0.3514,-0.048277,-0.050233,0.011254,-0.014624,-0.03231,-0.017787,0.13104
0.09444,-0.08224,0.028162,-0.0053834,0.013771,-0.010272,0.02142,0.25438
-0.20052,0.16374,0.14676,0.049216,0.026889,0.028601,-0.014663,-0.10615
-0.24837,-0.39572,-0.3446,-0.075031,-0.037435,-0.03305,-0.0096686,-0.058296
0.20517,0.12282,0.11483,0.020089,0.00071128,0.0076786,0.027463,0.078807
-0.12459,0.17323,0.17991,-0.0094846,-0.030459,-0.0056936,-0.052888,-0.10822
0.016394,-0.103,-0.43919,-0.0078301,0.025242,0.051606,0.021721,-0.0176
-0.1031,0.01382,0.3278,0.032577,0.026983,-0.04721,-0.054025,0.053602
0.11231,-0.06926,0.12218,0.0021552,0.013498,0.017939,0.047812,-0.17641
-0.0095881,-0.0080115,-0.28141,-0.021072,-0.0077955,-0.0031887,-0.00065893,0.25244
0.46623,0.11942,0.15765,0.0097831,-0.0060343,-0.0014607,-0.011392,-0.090718
-0.47245,0.039008,0.16756,-0.014544,-0.036205,-0.016166,-0.022757,-0.074473
-0.050033,-0.10978,-0.39072,-0.015741,-0.0047014,0.015016,0.036224,0.080878
0.62601,0.26529,0.34342,0.053285,0.041646,0.045121,0.056674,0.20199
-0.38681,-0.36865,-0.41046,-0.049448,-0.037568,-0.035187,-0.023663,-0.14977
-0.20871,-0.0051602,0.23064,0.027773,0.01581,0.0086671,-0.0094927,-0.0061359
-0.074366,0.25334,0.11001,-0.0040468,-0.0087795,-0.057317,-0.065096,-0.18707
-0.15316,-0.14012,-0.0391,0.003508,0.013992,0.017383,0.020143,-0.01939
0.18479,0.12765,0.10202,0.0034656,0.014012,0.02243,0.042785,0.077165
0.05502,-0.074735,0.015911,0.026938,0.030376,0.020903,0.026055,0.25369
0.28403,-0.14382,-0.32258,-0.059023,-0.054246,-0.041447,-0.061351,-0.05738
-0.12333,-0.16351,-0.086621,-0.012326,-0.013566,-0.00037448,-0.031818,-0.25215
-0.078635,0.42259,0.46537,0.057623,0.034881,0.02679,0.013342,-0.00099245
-0.027553,-0.20486,-0.37745,-0.044455,-0.018627,-0.015133,0.019756,0.13387
0.12051,0.14942,0.13571,0.03309,0.028756,0.052759,0.058028,0.12011
-0.014793,-0.00010184,0.10769,-0.022129,-0.034066,-0.020497,-0.020091,-0.060352
0.17717,-0.0070576,0.071311,0.032186,0.019463,0.0063248,-0.042685,-0.10635
-0.41173,-0.038091,-0.12019,-0.0069968,-0.013643,-0.015978,0.037013,-0.0064505
0.15844,0.15424,-0.082459,0.0010088,0.0075055,-0.009676,-0.0077773,0.17268
-0.021852,-0.4633,-0.19704,-0.045329,-0.026135,-0.052813,-0.028883,-0.041191
-0.00012582,0.13165,0.22434,0.010239,0.026397,0.02705,0.035952,0.10757
-0.0009429,0.09539,-0.091628,0.011428,0.0013117,-0.011325,-0.024376,-0.23299
-0.12948,0.15551,0.39353,0.020665,0.00032595,0.012895,-0.022428,-0.18627
-0.12237,-0.16282,-0.173,0.014406,0.0078266,0.022696,0.026211,0.13388
0.22159,-0.11538,-0.12104,-0.023106,-0.0075583,0.0033056,-0.011163,-0.010129
0.36071,0.47946,0.28201,0.032993,0.039894,0.056728,0.045272,0.0038909
-0.11532,-0.4392,-0.5435,-0.075222,-0.060996,-0.051445,-0.030945,0.21173
-0.14992,0.13748,0.12022,0.011549,0.017691,0.0064483,0.010219,0.1167
-0.02428,-0.024383,-0.094342,0.01984,-0.005409,-0.012543,-0.026608,-0.13899
0.096096,0.043946,0.33649,0.01215,-0.020925,-0.0077409,0.0068494,-0.12588
-0.3303,0.092125,0.093002,0.0041162,0.010299,-0.0034141,0.0087824,0.099522
0.15449,-0.052259,0.1369,0.019181,0.033726,-0.0080069,-0.0054914,-0.14543
-0.093254,-0.47576,-0.45292,-0.036407,-0.020807,-0.014062,0.01839,0.10451
0.0015772,0.3366,-0.042855,0.0014206,0.010861,0.0096054,-0.0058005,-0.036928
0.35812,0.18883,0.20379,0.038949,0.019373,0.047549,0.03893,0.06791
-0.049365,-0.060449,-0.11849,-0.056547,-0.042211,-0.056137,-0.081837,-0.14561
-0.035074,0.09581,0.092581,0.0041466,0.013483,0.042723,0.0070502,0.11826
0.21272,0.055316,0.32976,0.04155,0.022249,0.039875,0.063752,-0.039043
-0.64156,-0.46371,-0.42221,-0.022224,-0.016033,-0.048661,-0.028401,0.039543
0.083349,0.10886,-0.10078,-0.0072606,-0.0076751,-0.011607,-0.03441,0.097735
0.06194,0.12474,0.13749,0.0084805,-0.0073496,-0.02057,0.0151,-0.13589
0.28179,-0.11094,-0.098751,-0.029626,-0.022786,-0.012854,-0.03559,-0.041921
-0.31645,0.31645,0.37687,0.050223,0.047697,0.058512,0.071664,-0.016672
0.33999,-0.16292,-0.046469,-0.01,-0.014536,-0.025246,-0.022433,-0.0662
-0.107,0.02156,-0.034387,-0.0075029,-0.0062926,-0.0064799,0.033502,0.26376
0.10813,-0.22378,-0.32262,-0.0051819,0.017733,0.044199,0.051594,0.15325
0.015386,0.28849,0.11138,0.020016,0.010588,-0.022051,-0.093621,-0.36691
-0.035617,-0.011999,0.10337,0.013113,0.0034004,0.020891,-0.019756,-0.040014
-0.30473,-0.00014056,-0.041446,-0.033826,-0.011766,-0.007065,0.038531,0.17921
0.12057,-0.23807,-0.11882,-0.026972,-0.042801,-0.067147,-0.082926,-0.023559
-0.033841,0.017077,0.06016,-0.020734,-0.011586,-0.011043,0.014354,0.021786
-0.03327,0.031783,0.01252,0.032181,0.019451,0.028477,-0.0054713,-0.29562
0.33432,0.088161,0.30184,0.046307,0.050432,0.082844,0.13888,0.3748
-0.37484,0.085244,-0.19626,0.014254,0.011179,-0.01174,0.025399,0.11865
0.20792,-0.10967,-0.051983,-0.048063,-0.051325,-0.083116,-0.088383,-0.24331
-0.07262,0.1592,0.10164,0.015713,0.019223,0.048653,0.031505,0.032356
0.25256,0.0001573,-0.14206,-0.021066,-0.027184,-0.038128,-0.099707,-0.14618
-0.36401,-0.29137,-0.14283,-0.010223,0.0046994,0.016,0.025531,-0.28436
0.25594,-0.045127,-0.018164,0.008793,0.013198,0.015706,-0.022524,0.59677
0.024494,0.33888,0.25515,0.027714,0.021606,0.023376,0.053178,-0.10244
-0.41996,-0.2109,0.13785,0.014831,-0.0092802,-0.01585,-0.0048109,-0.20127
0.30322,0.27351,-0.081224,-0.022431,-0.0014492,-0.00059788,0.038354,0.17514
-0.0030616,-0.11431,-0.04292,0.0094244,-0.0018243,-0.0091318,0.0034753,0.009809
0.12097,-0.20978,-0.12241,-0.038108,-0.018179,-0.018059,-0.030881,-0.066747
-0.14538,0.089797,-0.069688,-0.00083454,-0.0035046,0.0039492,-0.017498,0.083289
0.0030304,-0.096798,0.084164,-0.0034537,-0.0044721,-0.0054144,-0.026472,0.019664
-0.026242,0.14628,0.12071,0.040382,0.03384,0.040054,0.051643,-0.095709
-0.067123,-0.12466,-0.25664,-0.032962,-0.028993,-0.039061,-0.048868,-0.17804
0.0078907,0.1306,0.16316,0.019059,0.010269,-0.00036135,0.023305,-0.11797
0.23275,0.084381,0.067385,0.0091624,0.010985,0.023422,0.017752,0.28867
0.094395,0.048964,0.064861,0.01553,-0.0035612,0.00096304,-0.0035392,-0.22986
-0.5222,-0.13263,-0.032683,0.014637,0.028863,0.025781,0.091706,0.62528
0.22038,0.12462,0.047462,-0.048379,-0.024877,-0.019655,-0.064149,-0.15968
0.29936,-0.22687,-0.20289,-0.009641,-0.0088337,-0.018539,-0.057288,-0.21607
-0.33236,-0.05452,-0.0022794,-0.002098,-0.0091545,-0.010273,-0.020484,-0.23819
-0.050938,-0.053382,-0.029453,0.0054535,-0.010277,-0.0028889,-0.00027562,0.055808
0.24329,0.050646,-0.056326,0.013054,0.019151,0.011372,0.0039127,0.025417
-0.20994,0.14892,0.15331,-0.010449,-0.014373,0.0013898,0.031822,0.15468
0.5164,0.19502,0.14024,0.04442,0.037928,0.061207,0.091887,0.16154
-0.29111,0.016992,-0.11772,-0.033217,-0.026705,-0.066577,-0.073277,-0.15059
-0.30625,-0.27643,-0.018533,-0.0089993,0.0029871,0.0091327,0.036476,0.076135
0.024584,0.063647,0.1093,0.007598,0.0022226,-0.039343,-0.086813,-0.27708
0.045012,-0.12032,-0.126,0.00077872,0.0023332,0.014897,0.0095883,0.093131
0.31037,0.13918,0.14103,0.032832,0.011063,0.039186,0.051697,0.15471
-0.35791,-0.11973,-0.3338,-0.037074,-0.018669,-0.013449,0.0076775,0.016955
0.21331,-0.030469,0.056891,-0.0059712,-0.0090461,0.012882,-0.013607,-0.19439
-0.12339,0.13332,0.116,0.0010675,0.0083152,0.00041694,-0.0046891,0.022129
0.32796,0.10612,0.38124,0.015327,0.025237,0.03441,-0.0047474,0.16069
-0.026129,0.060203,-0.35913,-0.0099253,-0.013277,-0.010791,-0.021465,-0.034333
-0.12306,-0.08968,-0.0036311,0.019287,-0.0058616,-0.049719,-0.0076336,-0.18598
-0.32208,-0.23319,0.026526,-0.021757,-0.0072494,-0.04348,-0.025309,-0.12887
0.041235,-0.064427,-0.056281,3.8606e-05,0.013936,0.031542,0.050944,0.25449
0.10818,0.16794,-0.054694,0.0067945,-0.0045135,0.011781,0.018303,0.22097
-0.011037,0.09799,0.018021,-0.0091396,-0.023115,0.007319,-0.013769,-0.14561
0.12964,7.4728e-05,0.14071,0.022599,0.013302,0.011109,0.048342,0.12047
0.31193,-0.016036,-0.11452,-0.023061,-0.0041724,0.016002,0.0090173,-0.17942
-0.37037,-0.020903,0.23769,0.02557,0.018574,-0.0088118,-0.053974,-0.16543
0.043317,-0.038815,-0.20894,-0.011459,-0.012025,-0.0084978,-0.039339,0.13706
0.044582,0.038301,0.068012,0.021809,0.021188,0.0089775,0.0059692,0.04012
-0.32819,-0.095751,-0.13636,-0.046765,-0.014848,-0.0271,-0.027267,-0.0019141
0.010314,0.03416,0.1054,0.0013836,0.004447,-0.00010159,0.017553,-0.1035
0.31741,0.19257,0.1035,0.025559,0.0082432,0.026868,0.023685,-0.20616
0.11618,-0.050721,0.012271,0.010185,0.0038366,0.014206,0.054031,0.44432
0.13297,-0.086139,-0.13044,-0.005518,-0.02482,0.00059587,0.022908,-0.030934
-0.24157,-0.19401,-0.1531,-0.044766,-0.023295,-0.060999,-0.061824,-0.066439
-0.3821,-0.0056328,0.046442,0.025491,0.016168,0.0091842,0.026242,-0.14501
0.28237,0.29329,0.086659,0.0023209,0.0077688,-0.0073271,-0.072566,0.037915
-0.24724,-0.18614,-0.077647,0.010822,0.0064739,0.030493,-0.014859,-0.050743
0.22535,0.10419,0.28176,0.011907,0.01264,0.021508,0.12089,0.33571
0.33365,0.1804,-0.075957,0.013238,0.0031929,-0.018309,-0.095296,-0.34613
-0.17995,-0.12973,-0.0015389,-0.032302,-0.021562,0.01281,0.023894,0.13328
-0.018975,-0.20236,-0.088472,9.3779e-06,0.0088985,0.0055257,0.025241,0.074077
-0.28596,-0.031419,-0.19634,-0.0072653,-0.0068935,-0.0090294,0.0024993,-0.074289
0.22873,0.18579,0.088367,-0.0074205,-0.014276,-0.023262,-0.0051726,0.029788
-0.085717,0.041053,0.21022,0.022926,0.010054,-0.0061792,-0.060103,-0.12178
0.089705,0.12653,-0.034741,-0.0020984,0.026816,0.026356,0.0645,-0.066347
0.12117,-0.16812,-0.10049,0.011423,-0.0033257,-0.0039604,0.0095164,0.19168
-0.23412,-0.17122,-0.097189,-0.030024,-0.01815,-0.019111,-0.037311,-0.08531
-0.13261,0.02412,0.10733,0.0066282,0.0055384,-0.0035124,-0.021115,-0.18921
0.24616,0.091077,0.16889,-0.0033843,-0.018355,0.011589,0.0034868,0.27513
0.051068,-0.078022,-0.12361,0.0026126,-0.011752,-0.0050257,-0.018271,-0.10308
-0.0063936,0.19043,0.042483,0.055959,0.056678,0.071692,0.1165,0.16205
-0.17561,-0.016227,-0.28544,-0.046464,-0.015992,-0.015993,0.0089837,-0.070604
0.059693,0.060692,0.12779,-3.3257e-05,-0.018533,-0.064828,-0.11469,0.079489
0.10644,-0.15669,0.17374,-0.00015622,-0.0052881,0.011324,0.057575,0.0072063
-0.15176,-0.067092,-0.09196,-0.0078666,0.00065585,-0.021642,-0.044803,-0.30715
0.37204,0.14139,-0.043556,0.00020309,-0.00040487,0.0084551,-0.0078231,0.21077
-0.32874,0.014933,0.20221,-0.0072331,0.0073426,0.0081396,0.01242,-0.012095
0.036428,-0.056417,-0.18272,0.01669,0.0004957,0.0088176,0.00063181,-0.055137
-0.17155,-0.09642,-0.050165,0.0016559,0.0023539,0.010455,0.0041068,-0.0039392
-0.0060706,0.035522,0.060308,-0.0054749,0.012619,0.020612,0.0076239,-0.14576
0.0023138,-0.035369,0.015263,0.018697,0.0074456,0.023219,0.050552,0.10814
0.19703,0.2225,0.056277,-0.0040127,0.0020144,-0.02133,-0.0075672,0.13595
0.25623,-0.049905,-0.0046259,-0.011169,-0.019688,-0.035428,-0.03388,-0.051564
-0.15091,-0.039898,0.074485,-0.002824,-0.026666,-0.011622,-0.020607,0.11811
-0.09034,-0.23187,-0.36264,-0.018067,0.0044446,0.010919,0.024399,-0.064803
0.34069,0.24113,0.090453,-0.002203,-0.0043689,-0.030127,-0.023844,-0.029898
-0.57155,-0.03546,0.27784,0.029172,0.033087,0.02972,-0.0011777,-0.098341
0.0074948,-0.031026,-0.13613,0.0057805,-0.0078614,0.011331,0.022246,0.087727
-0.015603,0.034931,0.043947,-0.0098487,-0.0097106,-0.014422,-0.047154,-0.08295
-0.013887,0.036675,0.052332,0.0057321,0.027775,0.038837,0.040733,0.01263
0.39856,-0.04201,-0.19726,-0.0021667,-0.02029,-0.016172,0.028071,0.0053346
-0.055983,-0.053007,0.13848,-0.017924,0.01015,0.0080161,0.0084214,0.018373
-0.21806,0.034978,-0.0033664,-0.0024687,-0.0060013,-0.029484,-0.057634,0.011109
0.14112,-0.027614,-0.060522,0.012979,0.009245,0.019348,0.04037,0.029136
0.07721,0.025638,0.12335,0.012847,-0.0067231,0.029047,0.020673,0.087218
-0.074317,0.031716,-0.13884,-0.0027946,-0.0070723,-0.047676,-0.078115,-0.096155
-0.28385,-0.102,-0.065091,-0.03387,-0.030815,-0.039217,-0.021932,0.065511
0.47737,0.19587,0.14234,0.044688,0.031553,0.06996,0.11879,0.034705
-0.35596,-0.14419,-0.0313,-0.032706,-0.030742,-0.040359,-0.046469,-0.17036
0.010333,-0.10612,-0.093242,0.0073849,0.024623,0.0050642,-0.025227,-0.179
0.19915,0.13042,0.050421,-0.0069686,0.01801,0.011233,0.0032883,0.17684
-0.1344,0.072833,0.19618,0.025685,0.027473,0.048782,0.031812,0.041714
0.25968,0.04069,-0.047453,0.011437,-0.0018658,-0.014832,0.0062078,0.098487
-0.28922,-0.10755,-0.0801,-0.042091,-0.054643,-0.054424,-0.10431,-0.11983
-0.028744,0.041291,-0.098283,0.0055397,0.0016861,0.0082163,0.044289,0.02727
-0.07292,-0.17755,-0.0092095,0.013555,-0.0049597,-0.022234,0.014555,0.006436
0.27702,0.1496,0.18666,0.020939,0.042516,0.065071,0.095332,0.1653
-0.257,-0.18046,-0.19022,-0.034788,-0.027724,-0.011271,-0.01851,-0.001339
0.12417,0.16055,0.024938,0.018379,-0.0045878,0.014178,-0.022847,-0.11638
0.11676,0.14937,0.23954,0.00098381,0.0027687,-0.030642,-0.035415,-0.14607
-0.18611,-0.1748,-0.33414,-0.031982,-0.013238,-0.028691,-0.080042,-0.063318
0.39315,0.062989,0.094159,0.013562,0.033505,0.03557,0.069696,0.24671
-0.21114,0.0031253,0.04867,0.0050947,0.0024516,-0.017562,-0.015752,0.0024743
-0.15105,-0.096913,0.02176,0.0053036,0.0029384,0.022888,0.038957,-0.091229
0.19501,0.020345,0.083219,0.014223,-0.01205,-0.022709,-0.015732,-0.093599
-0.3006,0.11248,-0.010292,-0.022981,-0.011465,-0.0058779,-0.015355,0.015281
-0.10809,-0.14087,-0.08845,0.018385,-0.0033296,0.018679,0.024712,-0.010053
0.3035,0.088615,0.050259,0.0050851,-0.0034324,0.019627,0.01856,0.092248
-0.026086,-0.01898,-0.048614,-0.00083541,0.0194,-0.00318,0.012871,0.043863
0.01377,-0.041192,-0.010818,0.008042,0.01051,-0.0030402,-0.023963,0.07284
-0.1302,0.053906,-0.070766,-0.038845,-0.022158,-0.0035413,-0.014238,0.14798
0.41049,-0.022067,-0.087194,-0.000921,-0.0080778,-0.028197,-0.0051984,-0.1146
-0.19905,-0.018527,0.23008,-0.01084,-0.0016862,-0.014475,-0.028329,-0.27125
