0.11888,0.013807,0.034696,0.01986,0.02992,0.019995,0.010693,0.0079797
-0.22643,0.034818,-0.03999,-0.1079,-0.018864,-0.013666,-0.014988,-0.034046
-0.021935,-0.077091,-0.0048233,0.11582,0.01815,0.0077056,0.0066755,0.010666
-0.05653,0.007329,0.10221,0.043518,0.031932,0.014003,0.0055457,-0.014018
0.029222,-0.085754,-0.069525,-0.089585,-0.055298,-0.057111,-0.033911,-0.014313
-0.030395,0.11349,0.066476,0.11546,0.014534,0.028824,0.028929,0.033188
0.092371,0.04339,-0.020981,0.0023714,0.030619,0.045232,0.029902,0.042459
-0.0017162,-0.3035,-0.027704,0.031486,-0.014896,-0.03145,-0.046795,-0.0882
0.20168,0.2132,0.076575,0.02985,0.010597,0.0094954,0.01735,0.031658
-0.15069,0.11599,-0.10789,-0.2304,-0.026049,-0.011905,0.0033381,-0.0044255
0.11897,0.012695,-0.0044054,0.12449,0.015394,-0.0021974,-0.003117,0.029886
-0.38954,0.041981,0.073244,0.085835,0.06423,0.038365,0.021269,0.032795
0.1819,-0.055938,0.0069164,-0.3467,-0.12984,-0.070069,-0.040746,-0.097485
0.020233,-0.16546,0.10085,0.4053,0.058018,0.024018,-0.0016131,0.021655
0.1336,-0.099964,-0.27763,-0.1104,-0.020634,0.016009,0.013811,0.015048
-0.039315,0.093711,0.075302,-0.08774,0.0093414,-0.01581,0.0057257,0.0232
-0.22323,0.010165,0.035774,0.13113,0.038813,0.014706,-0.0022216,-0.00082752
0.1154,0.088324,-0.0042422,-0.1162,-0.010048,-0.017238,0.0057672,0.013292
0.064936,0.079833,0.11281,0.0076118,0.027131,0.036963,0.0063566,-0.020268
0.002569,-0.099742,-0.13545,-0.082431,-0.044677,-0.010091,-0.00043751,-0.0075289
0.0003085,0.081961,0.10318,0.12176,-0.0064804,0.0056954,0.00094491,0.0049807
-0.034613,-0.10102,0.078912,-0.028749,-0.053411,-0.056321,-0.028683,-0.052613
-0.070769,-0.00015132,-0.067748,0.14446,0.064624,0.045996,0.012088,0.038909
0.23499,0.11084,-0.063702,0.030131,0.011668,-0.015545,-0.0019013,0.0065199
-0.19668,-0.11233,0.012513,0.016686,0.045387,0.016803,0.022959,0.014544
-0.054955,-0.11566,-0.35514,-0.54651,-0.061053,-0.01328,-0.015005,-0.030733
0.14275,0.10797,0.3954,0.29182,-0.02677,-0.019933,-0.014306,0.026722
-0.058395,0.073471,0.052636,0.11629,0.030636,0.035815,0.025016,0.038028
0.30901,-0.055782,-0.16544,-0.11277,0.0013907,-0.0023933,-0.0064215,0.0026003
-0.54497,0.01643,0.16204,0.30003,0.0023582,-0.01749,-0.014843,-0.048908
0.14497,0.078615,0.073033,-0.082037,0.0098984,0.029471,0.015428,-0.031039
0.058691,-0.02583,-0.22253,-0.406,-0.061972,-0.049098,-0.0092914,0.0090735
-0.029926,-0.023495,0.29817,0.75983,0.13844,0.067083,-0.0029789,0.0011319
0.30934,-0.085861,-0.45077,-0.81651,-0.13077,-0.059446,0.018831,8.8516e-05
-0.34499,-0.071468,-0.0076754,0.1253,0.021447,0.016753,0.0015455,0.076693
0.17909,0.15368,0.16007,0.09531,0.0018489,-0.016624,-0.015681,-0.057625
-0.056049,-0.14343,-0.047393,-0.045669,-0.025006,0.012536,-0.017136,-0.027439
-0.10543,0.17123,0.28561,0.43696,0.12099,0.026349,0.020688,-0.0043638
0.21026,-0.026438,-0.17568,-0.43457,-0.13021,-0.037492,-0.0037212,0.042873
-0.062351,-0.025167,0.11614,0.2982,0.02617,0.016439,-0.0044157,0.028115
-0.12639,0.16695,0.090558,0.29604,0.17596,0.047527,0.0342,0.02907
-0.012812,-0.27124,-0.44848,-0.63186,-0.20453,-0.077126,-0.036383,-0.056335
-0.096034,0.080868,0.1464,0.42611,0.040609,0.04075,-0.0053243,-0.056707
0.33563,-0.15319,-0.0009423,-0.49188,0.012583,-0.013113,0.025708,0.019824
-0.14672,0.27513,0.13976,-0.025417,-0.070213,-0.0045545,0.0019406,0.040376
0.020126,-0.033871,0.028733,0.10957,0.0028249,0.019373,-0.014164,-0.010464
0.032031,-0.01073,0.11878,0.39363,0.1845,-0.011764,0.008667,0.0083966
-0.10276,-0.015151,-0.26191,-0.30961,-0.095806,-0.012072,-0.01541,-0.0039636
0.022362,-0.2656,-0.12846,-0.13731,-0.025897,0.010668,-0.0081233,-0.046849
0.056176,0.37162,0.43398,0.64674,0.05806,0.048744,0.0072571,0.013172
-0.11032,-0.26619,-0.69871,-0.95,-0.1253,-0.09301,-0.00037571,0.035892
0.077954,0.1351,0.48989,0.8043,0.033471,0.038696,0.00029969,-0.0098111
0.019746,-0.079133,-0.054485,-0.43061,-0.035674,-0.032554,0.017062,0.032113
-0.12073,-0.016922,0.32435,0.94174,0.25369,0.083971,0.026329,0.0049264
0.17979,0.2054,-0.12408,-0.6381,-0.16809,-0.025744,-0.019005,-0.0061128
-0.016763,-0.068141,-0.15826,-0.28265,0.01229,0.021107,-0.0020167,-0.02517
-0.35205,-0.02532,-0.14589,-0.15666,-0.12618,-0.064576,-0.040126,-0.052873
0.33649,-0.010552,-0.0010705,-0.21902,-0.035826,-0.0015825,0.0071491,0.043173
0.23457,0.045637,0.27679,0.47995,0.24493,0.038199,0.014784,-0.018429
-0.44097,-0.2482,-0.40493,-0.15579,-0.11956,-0.046783,-0.0015011,0.0046144
0.19099,0.060417,0.13486,0.20716,0.0581,0.048185,0.013162,0.01885
0.098057,0.21318,0.077081,0.056849,-0.058614,-0.012825,-0.011317,0.024668
-0.14975,-0.071557,0.23486,0.19907,0.099659,0.027971,0.019026,0.0068272
-0.12986,-0.091052,-0.10295,-0.17251,-0.15576,-0.040453,-0.020644,-0.049985
0.0891,0.083866,0.0077923,0.094493,0.033288,-0.007297,-0.0052269,-0.0049443
0.056426,-0.055279,-0.090993,0.057557,0.15018,0.033518,0.034056,0.048282
-0.06884,0.12357,-0.14364,-0.68656,-0.21196,-0.011923,-0.012195,-0.030938
0.15346,0.1353,0.21506,0.6635,0.21238,0.043757,-0.011227,0.030779
-0.079288,-0.37993,-0.078737,-0.36981,-0.14666,-0.057291,-0.0021708,-0.0088064
-0.062889,0.13248,-0.017656,-0.37088,-0.014737,-0.025937,-0.024153,-0.032518
-0.055237,-0.076997,0.16449,0.78896,9.0638e-06,0.036428,0.008703,-0.016868
0.24712,0.094213,-0.40585,-0.70578,-0.038643,-0.018386,0.018207,0.014816
-0.025185,0.19442,0.30456,0.80591,0.19066,0.059888,0.02771,0.031419
0.078306,-0.20443,-0.17877,-0.6179,-0.14749,-0.072282,-0.00978,0.0096139
-0.32791,-0.1867,0.012933,0.13334,0.0092544,0.014907,-0.031899,-0.034929
0.13676,0.17066,0.1929,0.17533,0.06628,0.047989,0.015904,0.03836
-0.13842,0.071359,0.14196,0.40253,0.061195,-0.027903,-0.0071065,-0.067559
0.096182,-0.016063,-0.15701,-0.44852,0.0078541,-0.0021316,0.016207,0.068932
-0.065167,0.28241,0.20779,0.29569,-0.087659,0.039001,-0.015698,-0.013423
0.097476,-0.55828,-0.28177,-0.35463,-0.086038,-0.053295,-0.0011606,-0.0024572
0.28875,0.3974,-0.29975,-0.55149,-0.026976,-0.01366,-0.0025261,-3.9136e-05
-0.23201,-0.22751,0.09779,0.25871,0.089712,0.032777,-0.003986,-0.061099
-0.15101,0.12007,0.3323,0.257,-0.0084608,-0.0077029,0.025884,0.032952
-0.021963,-0.076485,-0.033162,0.3686,0.031569,-0.017741,-0.022163,-0.0070272
0.077591,0.002907,-0.01289,-0.28483,0.024053,0.026368,0.015993,0.061143
0.17915,0.13221,-0.026956,-0.050066,-0.16996,-0.023513,-0.0081042,-0.0046651
-0.045415,-0.22644,-0.22963,0.14763,0.20866,0.036013,0.02265,-0.0011934
-0.057153,0.17078,0.2482,0.1166,-0.0033568,-0.0057931,-0.024673,-0.053215
-0.0045808,-0.057096,-0.068407,-0.39827,-0.048007,-0.031643,-0.0017492,0.0036714
-0.051685,0.09172,0.18896,0.20631,-0.05842,0.02879,-0.0024013,0.013674
-0.041952,-0.11565,-0.22115,-0.084491,0.066284,0.011396,0.0046097,0.0085859
0.040608,0.20467,0.014007,-0.19267,-0.0028574,-0.013573,0.011526,-0.011022
-0.084994,-0.36092,-0.12923,0.091581,-0.1104,-0.014904,-0.020608,-0.0055802
-0.020415,0.17966,0.098509,0.055192,0.06335,-0.0082034,-0.0057292,-0.029433
0.26492,0.01324,0.18062,0.39035,0.041431,-0.016834,0.009395,0.058145
0.019663,0.060518,-0.024721,-0.13336,-0.059126,0.04525,0.024821,0.030401
-0.039315,0.1325,-0.057858,-0.090362,0.050746,-0.032794,-0.006344,-0.027207
-0.17193,-0.28025,-0.044934,-0.062463,-0.089804,0.022515,-0.013874,-0.045063
0.049647,-0.022958,-0.12737,-0.24751,0.10525,0.015819,0.0099066,0.015086
0.069658,0.2001,0.13985,0.29123,0.042231,-0.013955,-0.0054565,0.027458
0.17723,-0.03357,0.14766,0.10189,-0.021017,0.026744,0.018058,0.038313
-0.3997,-0.13803,-0.30623,-0.35131,-0.029724,-0.018546,-0.021141,-0.062064
-0.08826,0.09825,0.14661,0.19421,-0.054025,-0.032803,-0.021424,-0.031489
0.060146,-0.10491,0.09349,0.025202,-0.031105,-0.0082927,-0.0060793,-0.025882
0.15822,0.14451,-0.19089,-0.35318,0.016028,0.023759,0.032901,0.064724
0.23203,0.035551,0.12242,0.13315,-0.029366,-0.022482,0.0019528,0.030119
-0.060896,-0.0788,-0.19299,0.14972,0.12993,0.032805,0.0027578,-0.003972
-0.18186,0.076064,0.32314,0.30459,0.017431,0.010036,0.0040782,-0.029154
0.062427,-0.046016,-0.025977,0.11717,-0.08583,-0.012637,-0.025445,-0.037268
0.090602,-0.28086,-0.32058,-0.3717,0.061782,-0.004032,0.023348,0.049872
-0.046474,0.0037153,0.39004,0.29207,-0.095201,0.012264,-0.0060683,0.028928
-0.063378,0.32189,-0.15421,-0.2884,0.082987,0.0048148,-0.004599,-0.038035
-0.056598,0.062079,0.044998,-0.31275,-0.021616,-0.0031031,0.011909,0.0046698
0.081919,-0.020677,-0.15366,0.06109,-0.01893,-0.035006,-0.019156,-0.015416
-0.16313,0.094226,-0.015363,-0.048454,-0.026363,0.002898,0.0037956,0.0027703
0.16323,-0.22832,-0.01508,0.28409,0.018702,0.024839,0.010619,0.043272
-0.11568,0.073057,-0.025424,-0.006571,-0.031773,-0.023612,-0.029662,-0.073725
0.0036724,-0.16517,0.19852,0.35045,0.057153,0.014087,0.0082756,0.011233
0.24344,-0.018833,-0.090736,-0.32006,-0.018616,0.01318,0.023169,0.024951
-0.15934,-0.10134,-0.0085676,-0.20265,-0.024217,-0.057448,-0.04728,-0.040046
0.039044,0.037199,0.11772,0.12569,0.064093,0.075618,0.070424,0.097853
-0.05188,0.18249,0.22541,0.6097,0.10581,0.037199,0.0089918,0.001477
0.12146,0.22077,-0.38969,-0.91656,-0.18816,-0.079255,-0.028687,-0.063287
-0.099292,-0.010332,-0.080755,0.50528,-0.0053614,-0.00065059,-0.011664,-0.018116
-0.0058906,-0.26111,-0.05259,-0.43205,0.037049,0.0070856,-0.018357,-0.0034967
-0.15579,0.099105,0.24804,0.33196,0.064255,0.01409,0.0057093,-0.003717
0.17517,0.18404,0.085833,-0.016225,-0.14213,-0.018699,-0.0098632,0.035944
0.23534,-0.43217,0.077696,0.19547,0.16061,0.026103,0.028719,0.037331
-0.265,0.082606,-0.26812,-0.086237,-0.042588,-0.023017,-0.0033957,-0.038725
-0.14576,0.25668,-0.11461,-0.39798,-0.032422,-0.0015285,0.0033693,0.010728
0.094436,-0.21635,0.094496,0.036702,-0.019466,-0.010509,-0.021095,-0.048913
0.0045484,0.18653,0.20468,0.27552,-0.01145,0.036383,0.024932,0.05553
0.07133,-0.26835,-0.13406,-0.046382,-0.0086708,-0.024679,-0.0069048,-0.043394
0.070447,-0.0092635,-0.1395,-0.27179,0.066283,0.0094315,0.00058306,0.0056198
-0.10581,0.090401,0.14941,0.40316,0.048251,0.0056534,-0.0073618,0.022647
0.043384,0.25856,0.13012,0.24132,0.0061817,0.010385,0.0082107,-0.00032591
-0.028968,-0.050914,-0.089969,-0.26167,-0.03791,0.007373,0.00030653,0.014675
0.058953,0.052662,0.017642,-0.29083,-0.069642,-0.035311,-0.0077275,0.012892
0.0086398,-0.19682,-0.057938,0.43752,0.011717,0.014542,-0.0081145,-0.0447
-0.056844,-0.12817,-0.13988,-0.73738,-0.044096,-0.0075559,0.014802,-0.009499
-0.014375,0.14876,0.19158,0.29876,0.052331,-0.0080209,-0.0091971,-0.006208
-0.14669,-0.0066198,0.28715,0.64667,0.044076,0.021081,0.0059604,0.028071
0.35005,0.00017931,-0.22761,-0.1688,-0.0050985,0.0020135,-0.0020811,3.4825e-05
-0.26649,-0.06378,-0.56162,-0.84744,-0.046899,-0.049011,-0.0097661,0.0038667
0.082416,0.092515,0.28047,0.68593,0.021577,0.032753,0.0064029,-0.0069527
-0.063054,0.07279,0.044485,-0.41472,-0.032988,0.0057748,0.015156,0.014688
-0.037383,-0.25376,-0.023974,-0.089321,0.00097967,-0.012238,-0.0070461,0.0063882
0.2156,0.23933,0.53849,0.65863,0.12362,0.064944,0.017748,-0.00063273
-0.16224,-0.11921,-0.15771,-0.09792,-0.056021,-0.059531,-0.027859,-0.02995
0.12677,-0.072015,-0.21456,0.15737,-0.046441,-0.0030881,-0.0034542,-0.042717
-0.10466,0.074625,0.022555,-0.37342,-0.004768,-0.0005451,0.004854,0.054545
-0.083478,0.1853,-0.034494,0.080914,0.044691,0.02566,0.0047724,-0.0041003
0.16598,0.12394,0.010563,-0.16986,-0.023754,0.012447,-0.0037246,0.054451
0.072122,-0.48011,-0.26576,-0.20651,-0.022993,-0.032864,0.002854,-0.035765
-0.21025,0.28412,0.088884,0.11727,-0.015577,-0.0090371,0.0090028,-0.032869
0.044009,-0.08555,0.22292,0.096802,-0.032504,-0.017745,-0.008549,0.0082055
-0.10382,-0.16036,0.019737,0.3873,0.090736,0.034881,0.0050778,-0.014254
0.15794,0.17736,-0.05893,-0.097881,0.010907,0.016344,-0.012423,0.032533
0.047684,-0.023718,0.08921,0.00020014,0.025333,-0.010404,0.0094382,0.0080297
-0.043732,0.020412,-0.1682,-0.19362,-0.061004,-0.021411,-0.0073265,-0.0094415
0.15018,0.063043,0.10644,-0.13231,-0.068321,0.0072552,0.0076814,0.011652
-0.12687,-0.056591,-0.087069,-0.20597,0.05797,-0.0099452,-0.008014,-0.053355
-0.26344,-0.10912,0.094583,0.44547,0.051983,0.028796,0.015862,0.022445
0.10232,-0.045753,-0.14602,-0.17731,-0.0085166,-0.0014642,0.0010913,0.020608
0.06663,0.2905,0.010894,-0.13654,-0.045795,-0.022742,-0.005578,0.0038487
0.045621,-0.20242,0.072654,0.54407,0.025739,0.011524,-0.027726,-0.051188
-0.029819,0.15354,0.14048,-0.13637,-0.012905,0.022776,0.028262,0.058551
0.090325,-0.026845,0.042347,0.063033,-0.036826,-0.020726,-0.0095981,-0.010898
-0.071771,-0.16033,-0.35446,-0.6168,-0.0069188,-0.033506,-0.00075439,-0.0020431
0.059656,0.18821,0.14576,0.33893,0.05354,0.046568,0.015698,-0.0011691
0.41907,0.0093964,-0.065713,-0.1713,0.019786,-0.0072885,0.00070328,0.046118
-0.59821,-0.048644,0.14482,0.22067,0.0092826,-0.015433,-0.014445,-0.055647
-0.11979,-0.2349,-0.026345,0.048033,-0.024551,-0.0011733,-0.0062417,-0.017366
0.063605,-0.062817,0.13269,0.27431,0.035783,0.012328,-0.0058576,-0.026306
0.2952,-0.084275,-0.19758,-0.65228,-0.090644,-0.0058103,0.025837,0.035095
-0.11979,0.56291,-0.01655,0.20072,-0.044144,-0.016133,-0.020499,-0.0046332
-0.055123,-0.11919,-0.01146,-0.047323,0.073978,0.0051432,0.0035477,0.0032645
0.037616,0.081218,0.14573,0.30008,0.0060385,0.027005,0.019768,0.058902
0.01926,-0.20365,-0.17832,-0.2963,0.017588,-0.02077,-0.018854,-0.048804
0.10185,-0.085084,0.10142,0.21663,0.014568,0.018003,0.012511,0.031315
0.07512,0.012179,0.053962,0.039161,0.066768,0.01814,0.0043265,-0.021604
-0.11532,0.053641,0.076251,0.073877,-0.099898,-0.020603,0.003367,0.07312
-0.13334,0.19246,-0.051932,-0.058021,0.0061126,0.003105,-0.02162,-0.12244
0.021301,-0.097267,-0.027091,-0.18789,-0.037588,-0.035886,-0.0080118,0.024354
0.013187,-0.16076,-0.18585,-0.11462,-0.012535,-0.012608,-0.0024444,-0.017577
0.069648,-0.17806,0.034227,0.036267,0.042186,0.026153,0.018842,0.025668
-0.074065,0.30461,0.0086588,0.070512,-0.045097,-0.0053759,-0.029745,-0.032748
-0.057848,-0.1097,-0.074126,-0.27529,0.10879,0.033612,0.047401,0.065693
0.063889,0.088712,0.69321,1.0095,0.051156,0.026064,-0.0073518,-0.014369
0.079807,0.13619,-0.7274,-0.994,-0.13161,-0.059222,-0.0064739,0.0086395
-0.042512,-0.16857,0.19606,0.35709,-0.0093882,-0.0035539,-0.012596,0.0019094
0.34356,0.04314,0.057782,0.25966,0.050999,0.028866,0.020893,0.0042026
-0.27972,0.069445,-0.11082,-0.44976,-0.059526,0.0065965,-0.015726,-0.00062335
-0.17995,-0.026074,0.10428,0.080032,0.010777,-0.015865,0.0021885,-0.044422
0.032112,-0.34401,-0.09395,-0.02706,0.050985,-0.015227,-0.0037971,0.020692
-0.07362,0.093076,0.013045,0.016398,-0.064089,0.00062501,-0.010452,-0.032224
0.31603,0.21557,0.17511,0.45853,0.11048,0.01609,0.029023,0.046684
-0.1723,0.09414,-0.17815,-0.41343,-0.043019,2.9696e-05,-0.010307,0.007518
-0.012838,0.1037,0.047054,0.19594,0.060758,0.015122,-0.011075,-0.024413
0.054762,-0.39701,-0.09447,-0.39391,-0.094312,-0.016542,-0.012089,-0.017431
-0.11564,0.028376,0.030289,0.18404,-0.039774,-0.016627,0.0025495,-0.017964
0.17287,0.12832,0.093416,-0.16342,-0.010018,-0.0084055,0.017447,0.052464
-0.18851,-0.020812,0.071649,0.40066,0.042099,0.01602,0.0014943,-0.0012882
0.07304,0.12606,-0.05053,-0.099076,0.0076747,0.017563,0.0094008,0.00041538
0.096375,0.16889,-0.09339,-0.19278,0.059143,0.027335,0.017637,0.018247
0.1445,-0.43258,0.052423,0.386,-0.045179,-0.033021,-0.028656,-0.018517
-0.13713,0.10223,-0.15224,-0.39354,0.023184,0.00027576,0.0031366,0.022482
-0.11069,-0.12515,0.1518,0.038971,-0.016881,-0.013677,-0.019967,-0.077884
0.034345,0.10449,-0.020203,0.19896,-0.032639,-0.0047857,-0.012128,0.031733
0.047235,0.34663,-0.020432,-0.27338,0.022536,0.011199,0.018823,-0.015855
-0.18075,-0.31978,0.0017868,-0.042618,-0.015773,-0.012616,0.010433,0.052988
0.039808,-0.058106,0.12348,0.41413,0.055174,0.00978,0.0018462,-0.042648
-0.04618,0.10859,-0.054912,-0.091087,-0.061833,0.023842,0.00095231,0.010126
0.18143,0.078797,-0.018695,-0.011597,0.054855,-0.009311,0.0078011,0.00071425
0.037679,-0.014834,0.0364,-0.19098,-0.016706,-0.0035441,-0.0088418,0.015269
0.039804,0.061856,0.016936,0.10579,-0.049852,0.0022776,-0.0021064,0.022586
0.00073903,-0.12086,-0.27125,-0.25298,0.025978,-0.022906,-0.0032439,-0.032139
-0.15836,-0.18769,0.11907,0.085686,-0.023244,0.022639,0.019024,0.022733
0.060901,0.14336,0.073069,0.42003,0.060656,-0.017192,-0.03679,-0.04745
0.015852,-0.087578,-0.18029,-0.5927,-0.057963,-0.017306,0.0013061,0.030512
-0.053364,0.097293,0.16559,0.34462,0.035128,0.030133,0.008455,0.0064975
0.054732,0.42569,0.36953,0.35636,0.066494,0.039124,0.016037,-0.0022754
-0.14524,-0.56247,-0.46705,-0.66057,-0.089005,-0.060801,-0.0071151,-0.042492
0.010484,0.19566,0.14679,0.29955,0.021525,0.026998,0.017126,0.018969
0.030049,-0.19071,-0.041115,0.17197,0.0072092,-0.025885,-0.012885,0.026214
0.12517,0.11366,0.036945,-0.068692,0.00066462,0.014639,-0.011371,-0.036064
0.20313,0.31076,0.13618,-0.040777,-0.076333,0.046761,0.02928,0.051079
-0.21934,-0.36646,-0.44865,-0.44754,0.018404,-0.054678,-0.039575,-0.040473
-0.023925,0.12734,0.22641,-0.038104,0.097449,-0.008476,0.024086,0.040644
-0.17051,0.032923,0.20008,0.40788,-0.010988,0.037004,0.0014168,-0.010642
0.076207,-0.049261,-0.019254,0.36884,-0.07248,-0.043056,-0.021664,-0.015149
0.037246,-0.11988,-0.28961,-0.36458,0.053573,0.01722,0.0017718,-0.020296
0.18166,0.094348,0.10963,-0.017961,-0.078252,-0.0084645,0.001513,0.004679
-0.24078,-0.11722,-0.030479,0.10419,0.078741,0.012926,0.0089228,0.012557
0.073778,0.18361,0.0028197,-0.34238,0.00090438,0.026847,0.016284,0.034447
0.20206,0.12277,0.28115,0.22724,0.0083638,0.017721,0.015841,0.0079408
-0.099875,-0.025148,-0.046357,0.17907,-0.016165,-0.022296,-0.023637,-0.090073
-0.24012,-0.29012,-0.15151,-0.0035301,-0.049199,-0.046395,-0.039657,0.022174
0.24856,0.19644,-0.034667,-0.27427,0.03448,0.023491,0.038085,0.009383
0.084044,-0.11865,-0.055788,-0.02373,-0.014752,-0.031406,-0.0091562,0.044088
-0.31959,-0.038675,0.058013,-0.11056,-0.032361,0.031133,0.0061512,-0.029389
0.234,0.078129,0.1579,0.57588,0.068068,0.031474,0.01375,0.02372
-0.10489,-0.017628,-0.28758,-0.34561,-0.017785,-0.038147,-0.025357,-0.022993
-0.19322,0.11923,0.23707,0.079691,-0.008494,0.0097732,-0.001732,-0.0055671
0.14331,0.034573,-0.22922,-0.29537,0.048993,0.011109,0.014344,0.02879
0.1254,-0.093721,0.11788,0.061165,-0.056578,-0.018647,-0.016205,-0.029805
-0.074113,-0.1118,0.30897,0.54762,0.0024086,0.037514,0.015922,-0.010076
0.12264,0.21207,-0.39908,-0.57134,0.053475,-0.02373,0.0090324,0.024878
0.050113,-0.17922,0.10195,0.20255,-0.075843,-0.022856,-0.0057961,0.012047
0.0028382,0.10314,0.07658,-0.11729,0.0046189,0.0087851,0.0025101,0.013594
-0.12342,0.066068,0.094339,0.41996,0.06805,0.016499,0.010374,-0.0018447
0.05957,-0.15738,-0.12624,-0.19536,-0.018349,0.0003712,-0.021325,-0.065393
-0.39506,-0.058052,0.071614,0.28576,-0.027732,-0.015995,-0.02223,-0.020462
0.16061,0.092791,-0.39679,-0.91772,-0.037722,-0.0011403,0.0078076,0.024037
0.063058,-0.069386,0.10311,0.015845,0.03044,0.00608,0.0065122,0.021714
0.032279,0.098624,0.21381,0.57294,0.021147,0.01364,0.021004,0.035444
0.36668,-0.033992,0.022729,-0.16607,-0.041652,-0.017448,-0.011008,0.026354
-0.31517,0.018152,-0.039719,0.089504,0.03762,-0.0012779,0.0043476,-0.021203
0.018962,0.067391,0.19809,0.26201,0.0010971,-0.00048555,-0.003232,-0.03711
-0.10701,-0.0047343,0.039695,0.21,0.067154,0.039403,0.020844,0.025247
0.10385,0.041913,-0.13375,-0.34964,-0.046084,0.00096257,-0.017343,-0.021856
0.15918,0.087828,-0.23023,-0.44266,-0.034681,-0.030069,0.0070144,-0.014444
-0.23809,-0.35337,-0.14166,0.11641,-0.0087296,-0.006916,-0.023434,-0.0071148
0.068251,0.20929,0.24074,0.084227,-0.039091,-0.0076632,0.0084059,-0.0074367
-0.24972,-0.23215,0.042138,0.4452,0.077076,-0.016507,-0.022476,0.031788
0.32405,0.073234,-0.049224,-0.4557,-0.03521,0.0058903,0.016788,0.009288
-0.10057,0.088056,0.01451,-0.046027,0.030597,0.012951,0.01691,0.0033447
0.13313,0.01743,0.10145,0.10654,-0.014058,0.028345,-0.0064142,-0.0017204
-0.044921,0.16001,0.071581,0.18428,-0.0044757,0.020925,0.0093349,0.0094378
-0.17383,-0.18616,-0.043582,0.35342,0.036575,-0.032803,-0.014015,-0.018333
0.0976,0.057354,-0.28315,-0.86122,-0.10123,-0.0002275,0.024996,0.0081549
-0.020289,0.054144,0.173,0.40798,0.090411,-0.0066341,-0.014379,-0.021015
0.29986,0.13907,-0.034696,-0.19886,-0.0132,0.0023703,0.008388,0.049999
-0.45059,-0.42359,0.015621,0.31689,-0.0057228,-0.012506,-0.03954,-0.060238
0.15727,0.18523,0.12099,0.031341,0.0033461,0.011126,0.0059666,-8.4143e-05
-0.072511,0.011493,-0.03856,-0.010998,-0.0019272,0.0029756,0.012256,0.012047
0.039263,-0.023375,-0.14224,-0.18752,-0.014176,-0.021189,0.0029843,-0.015508
0.21104,-0.0053701,0.052597,-0.17219,-0.0026717,0.0091607,0.0096303,0.035053
-0.065067,0.081304,-0.00059287,0.056904,0.0086178,0.0005013,-0.0066848,0.0080688
0.0079698,-0.17723,-0.11426,0.053566,-0.019848,0.015514,-0.0068029,-0.010059
-0.17875,0.10965,0.19565,0.23947,0.075626,0.0074142,0.024888,-0.0034352
-0.085371,0.15262,0.15498,0.25567,-0.056738,0.023065,0.0023338,0.012368
0.14072,-0.040975,-0.27632,-0.6781,-0.0028979,-0.047006,-0.035593,-0.033112
0.094456,0.13779,0.23666,0.29907,0.0029497,0.015803,0.01245,0.023881
-0.10587,-0.20968,-0.15064,0.056418,0.015861,-0.023028,0.013443,0.011067
0.071821,-0.12986,0.022434,0.14326,-0.0027185,0.0082627,-0.024952,-0.040735
0.010765,-0.098203,-0.25161,-0.57845,-0.060037,0.00024051,0.006562,0.0086926
-0.070342,0.082322,0.082792,0.26868,0.00067443,-0.0080442,-0.0013903,-0.0050467
0.046769,0.17154,0.12059,0.0066313,0.054776,0.014676,0.021572,0.042815
0.1035,-0.039595,-0.1215,-0.067172,0.047702,0.021552,-0.0025628,0.011541
-0.13549,0.043956,0.34933,0.5151,-0.020708,0.012612,-0.011157,-0.036342
-0.1555,0.078878,-0.2014,-0.3115,-0.010239,-0.027739,-0.0040712,-0.0069252
0.1207,0.041214,0.10047,0.0041046,-0.030848,0.002119,0.011006,-0.0014847
0.0049014,-0.21098,-0.066777,-0.081392,-0.036287,-0.038345,-0.012707,-0.011832
0.082458,-0.023262,-0.032781,0.060821,0.058831,0.0072592,0.0029664,0.0015093
0.22012,0.0321,0.037183,0.15434,-0.019299,0.029727,0.0033402,0.03892
-0.31678,0.0080262,-0.13084,-0.13025,0.010458,0.013601,0.0039859,-0.00087803
-0.043929,-0.0031164,-0.052137,-0.34697,0.015436,-0.025374,-0.0030129,-0.024004
0.085709,0.044639,0.0088304,0.16291,-0.011783,0.0065928,-0.0021727,0.0085632
0.11941,-0.028838,0.077153,-0.14378,-0.015945,0.0078761,0.014162,0.010676
