0.00051567,-0.0094698,-0.0076047,0.0022427,-0.004412,-0.0042415,-0.0079034,0.0077729
0.00016152,0.0065063,-0.0084091,0.0010237,-0.013818,-0.0044737,-0.00888,3.0807e-05
0.0078636,-0.00099841,-0.0093709,0.0075329,0.00073092,-0.020455,-0.009519,0.00019335
8.0946e-05,0.0071427,0.013092,-0.0092648,-0.0074646,0.0025718,0.021451,0.00040561
9.6895e-05,-0.00026542,-0.0033688,-0.017942,0.00075325,0.017799,-0.0097494,0.00059848
-6.7241e-05,0.00023826,0.0038729,0.020677,0.025372,0.0018448,-0.0016208,0.0006963
-0.0083582,0.00082267,-0.0041676,0.005057,0.0037582,0.0094262,0.006688,-0.0071725
-0.0014018,0.0092426,0.0037691,-0.0023585,-0.0096442,-0.00633,-0.00053891,0.00040589
-0.0026041,0.0019801,0.0041824,0.0061136,-0.0073422,-0.022008,-0.0077578,-0.0077977
0.003789,-0.021045,0.0047617,-0.0087605,0.010325,0.017043,0.00059571,-0.00047144
-0.0054537,-0.0052008,-0.0024624,-0.00028046,-0.0038135,0.0014145,0.0088628,0.01466
0.0089757,0.0026205,-0.0020203,-0.0076478,-0.010891,-0.014232,-0.0064016,-0.0013734
0.00043865,0.010256,-0.017468,0.008127,-0.0031542,0.009156,0.0016896,0.006193
-0.007448,0.0099529,0.0058285,-0.0076372,0.0038606,0.0012685,-0.0059049,-0.0094701
0.0088381,0.0017858,0.0053886,-0.00017177,0.002553,0.0089925,-0.0057303,-0.0014792
0.0023923,-0.021981,0.004738,-0.00059366,-0.0067873,-0.0067207,0.010029,-0.0011119
0.004321,0.0012125,-0.011614,0.014687,0.0073948,-0.014612,0.010104,-0.00061198
-0.0090485,0.0089039,0.011171,-0.0088837,0.0062951,0.0087561,0.0022729,0.0077576
-0.0067562,0.0089126,0.0029149,0.0069065,-0.0021113,0.00087008,0.0021234,-0.0073366
0.0030863,-0.0065939,-0.005039,-0.008237,0.005654,0.00858,-0.021617,0.00089985
-0.0032212,0.0014073,-0.0048431,-0.0074938,-0.0017365,0.00060444,0.0091892,0.0089624
0.021009,0.0016193,0.0034748,0.016831,-0.001013,0.00035311,-0.014777,-0.0066307
-0.010244,-0.0060002,0.0042063,0.0020804,-0.00019878,-0.0078095,0.00032922,0.0009817
-0.011014,-0.0058547,-0.0027714,-0.0050389,-0.0073084,-0.00042789,0.0077468,-0.007243
0.003213,-0.005771,0.0058409,-0.0046694,-0.0068647,-0.0087012,0.015393,-2.4755e-06
0.0014128,0.0020574,-0.0091473,-0.0047126,0.0088792,0.0065105,0.0077098,0.014969
-0.0083293,0.017623,-0.0009546,0.0026282,-0.00693,-0.0015816,-0.023101,-0.009113
0.0055085,0.0018453,0.0069394,-0.006024,0.00048753,-0.0016559,0.0088545,-0.0018431
0.0040856,0.0015738,-0.0088863,0.00070588,0.0078248,0.0063212,-0.0058912,-0.0022075
0.003159,0.0011591,0.0063263,0.01517,-0.00041272,0.014518,0.0028547,0.0054672
0.0027506,-0.015028,-0.0020008,0.006293,0.0071212,-0.0005778,0.0037154,-0.010058
0.0027773,-0.0078919,-0.010304,-0.010147,-0.0085953,-0.007828,-0.011235,0.013687
0.0030789,-0.000789,0.012785,-0.018415,0.0071053,-0.015174,0.0047917,0.0063234
-0.0043469,0.014215,0.004855,0.012786,-0.00053311,-0.0071062,-0.0029436,-0.0088021
-0.011856,-0.001802,0.0050126,-0.0025043,-0.0081676,0.0084804,0.012418,-0.00053645
-0.0039256,-0.0018321,-0.010182,0.0059349,-0.00026554,0.015926,-0.0037907,-0.0080258
-0.0040052,0.0064005,-0.0017092,0.0067052,-0.00032997,-0.00038241,0.0031665,-0.0078865
0.01142,-0.0083348,-0.0087043,-0.00037589,-0.00057069,-0.0013231,-0.013509,0.015491
0.0034285,0.00077354,-4.6388e-06,0.00013322,0.0068504,-0.010239,0.0087819,0.0074446
-0.0043784,0.0023304,0.016488,-0.0075407,-0.0014374,0.0042419,-0.00016468,-0.0007192
0.0037644,0.0039398,-0.006186,-0.0078538,-0.0019045,-0.0046186,-0.0011762,-0.0089206
-0.0033161,0.005362,0.010031,-0.0008007,-0.002267,0.0023759,-0.0097844,-0.0092592
0.0056203,-0.0014447,-0.013033,0.0058984,-0.01026,-0.0059137,0.0053196,0.0061577
-0.00077663,-0.0088426,0.0027251,-0.0032199,0.01322,0.0096427,0.0050836,-0.0016758
0.0085696,-0.0012905,-0.013002,0.011105,0.0056622,-0.0056336,-0.0027267,-0.0014911
-0.013429,-0.0021994,0.010129,0.0021943,0.0060713,0.010701,0.0052273,0.02231
0.0033318,-0.0036213,0.0018519,-0.014169,-0.0090857,0.0038422,0.013188,-0.0084673
0.0040003,0.0024749,0.0012805,0.0011717,-0.00085486,-0.010738,-0.010232,-0.00016955
-0.011508,0.00072253,0.00065307,0.0091667,-0.0083929,-0.0019551,-0.0026364,0.00022736
-0.011937,0.0069939,0.0078278,0.0019414,-0.00050524,0.0066126,-0.01094,-0.02298
0.018435,-0.0019599,-0.00058916,-0.0050012,0.0071803,-0.0085653,-0.0038518,0.0082949
0.0016439,0.0052089,-0.008925,0.0038106,-0.00091096,-0.00064117,0.0031229,0.0081269
0.00038419,0.0050598,-0.0093107,0.0047898,-0.0012506,-0.00082692,0.0023409,5.8297e-06
0.0070379,-0.0024971,-0.0016833,-0.0099891,-0.0015415,-0.0012206,0.0096049,-0.00036659
-0.0094801,-0.0019813,0.0062036,-0.009329,0.0061318,0.006107,-0.014009,-0.00072507
-0.0021788,-0.0091759,0.014386,0.0067832,-0.0015968,0.0056475,0.017496,-0.0010112
-0.002251,-0.008589,-0.016203,-0.00064674,-0.0012671,-0.0025064,0.002522,0.0066133
0.0059252,0.0075095,0.00030917,-0.0080872,-0.0085383,0.0051383,0.0034379,-0.0091116
-0.0011458,-0.0077788,0.016929,0.0079833,0.0077522,-0.0026524,-0.0112,0.0064634
0.0076828,0.015885,0.0022435,0.016354,0.0084174,-0.01027,-0.010354,0.014226
-0.014599,0.0082436,-0.012675,-0.0064399,0.001134,-0.002125,0.0057894,-0.017112
0.0021698,-0.0072003,0.0032699,0.002006,0.0014123,0.0061136,0.0058665,-0.001627
0.0031526,-0.0069564,-0.0046981,-0.01314,-0.014247,0.0065906,-0.010145,-0.0096027
0.0038429,0.0011938,-0.0053281,0.010466,0.0010462,-0.0085457,0.0047065,0.0058994
0.0041439,-0.006182,0.0092935,-0.0054266,-0.0073007,-0.0002691,-0.0041128,0.0059002
-0.0038038,0.0099589,-0.0075212,0.0094408,-6.3446e-05,0.00013399,0.0026622,-0.0017113
0.0034508,0.0027025,-0.0086594,-0.0073884,0.0073251,0.00825,0.0096168,-0.0012689
-0.013076,-0.0045647,0.0061173,-0.016707,-0.00058449,-0.0072112,0.0013041,0.0072116
0.001438,0.0037285,0.013557,0.00515,0.0075705,0.0084011,-0.014348,0.00021242
0.0002952,-0.019341,-0.0096908,-0.0040527,0.00055609,0.00037482,0.0017583,0.0010362
-0.00069426,0.019943,0.014467,0.018434,0.0017177,-0.0078549,0.010509,0.0017076
0.0064429,-0.0034379,-5.6996e-05,-0.0053406,0.0030574,-0.0084473,0.0039678,-0.013552
-0.001628,0.0042669,0.0011901,0.010623,-0.0034795,0.014285,-0.010229,0.017651
0.0063659,-0.011614,-0.013309,-0.0040557,-0.010329,-0.0098819,-0.001028,-0.014083
-0.00088873,0.0036373,-0.0047349,0.0051274,-0.0020692,0.0050956,0.00013354,-0.0071252
-9.044e-05,0.0031807,-0.004501,-0.0011449,0.0055589,-0.0031819,0.00092073,0.0074277
0.00076824,-0.0051341,0.0029618,-0.01533,-0.0030769,-0.0033859,-0.0065673,-0.0092755
0.0015015,0.0099751,0.017714,0.001406,0.0033752,0.020149,0.0089003,0.00549
-0.01367,-0.0061563,-0.0069607,-0.0057644,0.0016678,-0.010709,0.0083108,0.012851
0.0020366,-0.0066407,-0.016156,0.0021877,-0.0079565,-0.0022571,-0.0082266,-0.002707
-0.0060884,0.0085258,-0.0018282,0.0097059,0.0060045,-0.0014533,-0.0014979,0.0057004
0.0010636,0.0080939,0.020597,-0.006504,-0.003105,-0.00058217,-0.010394,-0.0088964
0.0079609,-0.0079336,0.0043712,0.0006107,0.011743,0.00026071,-0.0035013,0.00020174
0.014719,-0.00048264,0.0042155,0.015595,0.0037397,0.00099659,0.011499,0.0015277
0.0058255,-0.0085935,-0.011178,-0.0082973,-0.011511,0.0015735,0.019058,0.010494
-0.01862,-0.00098648,-0.010687,-0.0085006,-0.0028588,-0.0058421,-0.012065,-0.012127
-0.003852,0.0067419,-0.0022947,0.0071723,-0.0017057,0.010008,-0.0037981,-0.019552
-0.0044992,-0.0010194,0.01383,0.0074135,-0.00041905,-0.0055333,0.0047027,0.0038382
0.002916,0.0069675,-0.0015169,-0.0078727,0.0086333,-0.0055448,-0.0022991,0.01123
0.002787,-0.00059159,-0.0015476,-0.015359,0.0018551,0.010022,-0.0092785,0.010539
0.0029163,-0.00033042,-0.0019081,0.0082877,-0.0052482,-0.0056645,-0.00067975,-0.0059355
0.0032591,-0.00014567,-0.0025514,0.008302,-0.0049341,-0.0057029,2.7629e-05,0.0087718
-0.0040779,-0.00011263,-0.0033722,0.0080772,0.002782,0.0099146,0.0006538,3.2956e-05
-0.0035788,-0.00027516,0.019213,-0.0080149,0.0023124,0.0021129,0.009022,-0.0086842
0.012449,-0.0084419,-0.012759,-0.0086872,0.0015511,0.0021139,0.0016988,-0.0017383
0.004839,-0.0011193,-0.0053895,-0.0016794,0.00061123,-0.0057415,-0.0057073,-0.002546
-0.0030323,-0.0016468,-0.0054409,0.0052945,-0.0081909,-0.005858,0.0023876,-0.0032557
-0.018972,0.0057176,0.010576,0.004533,0.0065223,-0.0060652,0.010301,0.0040058
-0.0038351,0.005454,0.011389,0.0039558,-0.0020133,0.0092622,-0.0054587,0.0036861
0.0034604,-0.0023732,-0.010906,-0.011973,0.0053447,0.0010774,-0.013673,-0.011961
0.0030935,0.0056764,0.0060382,0.011496,-0.0026138,0.0084702,0.0012948,0.01179
0.0030435,-0.0095222,-0.0082744,-0.0037385,-0.0024567,0.00022309,0.00044627,0.012429
0.0034173,0.006602,0.0084773,-0.01081,-0.009859,-0.0080055,0.0073285,-0.010109
0.0042277,-0.00078222,0.0014665,0.013672,0.0063409,-0.0083726,-0.0013575,-0.0090699
0.0053809,0.007252,-0.013753,-0.0084942,0.014778,-0.00085446,-0.0020328,-0.00023441
0.0066923,-0.0006372,-0.0059237,0.00071458,-0.00029721,-0.0010643,-0.0023942,0.016228
-0.015509,-0.02447,0.001603,0.0099273,6.5571e-05,0.01443,0.005437,-0.014523
0.0010469,0.0061267,0.016776,-0.012236,-0.015462,0.006545,0.0058373,0.0089702
-0.0063066,0.0053523,0.00069079,0.0044132,-0.007845,-0.001317,-0.0090707,0.0085472
-0.0063878,-0.0031749,-0.015266,0.0050783,0.0073197,-0.0013749,-0.00034574,-0.023556
0.00085041,0.011981,0.0080575,-0.0025026,-0.0011409,-0.017079,0.0084195,-0.0012709
-6.8038e-05,-0.00372,0.0081805,-0.0027333,0.0059429,0.0062789,0.0014391,0.0052863
0.014509,0.0044852,-0.0071365,0.0044129,0.01306,-0.0093688,-0.0057988,0.01197
0.0057499,-0.0024817,-0.0067545,-0.0044175,-0.0031241,0.0063757,-0.013383,0.0033776
-0.01052,-0.0012889,0.0091832,-0.0056522,-0.011284,0.0067271,0.0099103,-0.012507
-0.0029178,-0.007739,0.0092855,0.0086897,0.0042557,-0.00043499,-0.014008,-0.012158
0.0051603,0.0092001,-0.0065507,-0.0080895,-0.0033555,0.00053213,0.024324,0.012219
-0.0019583,0.0024327,-0.014923,0.0066659,-0.0028615,0.0017696,2.574e-05,0.013621
-0.00095966,-0.012603,0.0076511,-0.0094384,-0.002086,0.0031665,-0.00083779,0.0074559
0.0079848,0.0030364,-0.0090144,0.0061314,0.0067543,-0.00325,-0.0093984,-0.0065488
0.0012531,0.010253,0.0055713,0.0064547,0.00017004,-0.0020375,-0.0099386,-0.013046
-0.013505,-0.0065178,-0.0030856,0.014853,0.0015211,-0.0089934,0.0054103,-0.012269
0.0026577,0.0075573,0.0042399,-0.0078953,0.002891,0.0070015,0.0054111,0.0034509
-0.004995,-0.017623,0.019828,-0.0072703,-0.011469,-0.0009941,0.0056564,0.01064
-0.0052002,-0.0036895,-0.01101,-0.014656,0.012996,0.0060928,0.0060741,0.0015596
0.01773,0.010529,-0.010243,-0.0066891,-0.0019611,0.0049119,-0.0090601,-0.00018518
-0.0064279,0.0017811,0.014152,0.0088166,-0.0095616,-0.020011,-0.00079026,0.0056339
0.008358,0.0092337,-0.00052162,0.016295,-0.0020442,0.009642,-0.0082724,-0.011977
-0.00033128,0.0016446,-0.015382,-0.0075941,0.012783,0.00032181,0.0074933,0.001919
-0.0089963,0.0023681,0.0085057,-0.00024874,-0.0040757,-0.0087317,-0.0082042,0.0084749
0.0058458,-0.012183,-0.0070268,0.0071651,0.0021901,0.006038,0.0071496,-0.0077763
-0.0026432,-0.0031267,0.00056355,-0.00092828,-0.0073105,0.0056067,0.0067225,0.0079404
-0.0031766,-0.0018837,-0.007671,-0.001078,-0.0011274,0.013361,-0.0094289,-0.0068642
-0.0035267,-0.00077564,0.0074855,-0.0089232,0.0053192,-0.0098896,-0.0021862,-0.0053783
0.0041592,0.00011651,0.0071227,-0.0010537,-0.0034141,-0.0096341,0.01287,0.0044564
-0.0035266,0.00076477,0.0069788,-0.00093341,-0.0037596,0.013945,-0.0032967,0.014646
0.0046703,0.016808,-0.00070689,0.01486,0.012151,-0.0096125,-0.0037977,-0.014084
0.0052787,-0.0064027,-0.0081363,-0.0083619,0.0052252,-0.01007,-0.0042543,-0.0038365
-0.0095931,-0.0063182,0.008062,-0.0080862,-0.016844,-0.0030412,-0.0046606,0.0061137
0.0068094,-0.0063291,-0.006892,0.015706,0.00043691,0.011569,0.034062,-3.9361e-05
0.0074646,0.0092286,-0.006213,-0.0072791,0.0099506,0.01048,-0.02868,0.0010126
-0.007774,0.0013218,-0.0055914,-0.0067251,-0.0041872,-0.013934,-0.0053411,0.0013931
0.0078528,0.0012214,0.002753,0.0017274,0.004661,0.0088147,-0.013059,0.0011095
-0.016024,-0.0066824,0.0031913,0.0024094,-0.0027462,0.00073282,0.018518,-0.0075732
-0.0012574,0.0010599,0.011358,0.0030608,-0.0030604,-0.014678,0.011277,-0.00108
0.0053793,0.0010219,-0.0039933,0.0035864,0.0037384,0.0094415,0.0042469,-0.0026705
-0.0037598,-0.0067886,-0.0038127,0.0038841,-0.0056551,0.0026865,-0.0026465,0.011285
0.0027756,0.0088808,0.0040519,-0.0039462,0.00023861,-0.0038461,-0.0095118,-0.0059083
0.0017423,0.0011467,0.0039257,-0.0043282,-0.0095382,0.0052837,-0.00084336,0.00057523
0.001103,0.0012374,-0.0042408,0.0027469,0.012197,0.014271,-0.0079967,0.0073817
0.0087489,-0.0065079,-0.0048541,-0.013897,0.0032148,-0.0082725,0.0080196,-0.0010935
0.0012382,0.001302,-0.005725,0.00055559,-0.005055,-0.015533,-0.0075093,-0.0014491
-0.0058835,-0.0066331,0.00099977,-0.00061077,-0.0047431,-0.015295,0.0079321,-0.0093869
-0.012749,0.0087043,-0.00022703,0.014006,0.011881,0.0081745,-0.00029568,-0.0015661
0.011736,0.008223,0.014135,-0.0023564,-0.0022666,0.015974,0.0069363,0.014107
-0.0028861,-0.00026592,0.0051342,0.0050333,0.015016,-0.0073592,-0.0015489,-0.0015047
-0.0020399,-0.0089143,-0.011498,0.0048989,-0.014727,0.00079438,-0.0022421,-0.0015643
-0.0014139,-0.0098326,-0.012237,0.0049705,-0.0058551,0.017033,-0.010701,-0.0095108
-0.0010196,0.0049055,0.01079,-0.010484,0.0023624,0.0022323,0.0043875,-0.0018732
0.0148,0.0041855,0.0029243,-0.01812,-0.0057705,-0.012502,0.011833,0.0057793
-0.016393,-0.0040471,-0.00459,0.0054503,-0.0067423,-0.0039257,-0.0039363,0.0056936
0.0070381,0.0037466,0.0038344,-0.0022682,0.0074614,-0.0034839,-0.0038116,-0.0099
-0.00077696,0.0041724,-0.0031178,-0.0021598,0.0058742,-0.0035111,-0.011203,0.0058843
-0.00072817,-0.0028003,0.0057199,0.021474,-0.0033867,0.0037408,0.0051396,0.0061425
-0.00061022,-0.0016529,-0.00099145,-0.0094301,0.0033791,0.010495,-0.0016974,0.0064362
-0.00043721,0.0074486,0.00010456,-0.0011046,0.0029044,0.0012583,0.0072625,-0.0089423
0.0075623,0.00087112,-0.0066787,0.015161,0.00305,-0.0081382,0.016262,-0.0088222
-0.00010573,-0.0059455,0.00206,-0.015419,-0.0040725,-0.017452,0.0017,0.0067433
-6.0147e-05,0.0024899,-0.0049416,0.0007749,-0.0030151,0.0048019,-0.028785,-0.0091327
-0.015779,0.002689,-0.0042433,0.0011033,0.0059871,0.011927,0.0027874,-0.0017284
0.0074149,-0.020926,0.011972,0.0088956,-0.00074453,0.011822,0.0025788,0.013404
-0.00077078,0.0099061,0.0046347,-0.014961,-0.00778,0.0044679,0.017461,-0.0027052
0.0065905,-0.013995,0.0049697,-0.00012762,0.00039541,-0.0024486,-0.0071631,0.0047278
-0.0016822,0.01695,-0.010502,-0.0011931,0.00033876,-0.016936,-0.0086162,-0.0032813
-0.0020791,0.0091523,-0.0027662,0.0054368,-4.2912e-05,-0.00015274,-0.002282,-0.0032456
-0.0023527,0.0017512,-0.0031084,-0.0034933,-0.0083946,0.00082483,-0.0035189,-0.002963
0.0053451,-0.0052857,0.011899,0.0034376,0.0067303,0.0014832,0.003543,0.0053583
-0.010231,0.0035319,-0.0045899,0.0029183,-0.0013675,0.0017655,0.0034528,-0.0017706
0.013392,-0.0032531,-0.013445,0.010633,0.0064844,-0.0061147,0.0119,-0.00098802
-0.0019591,-0.010247,0.00106,-0.0046816,0.0068653,0.0013719,-0.010244,-0.00019748
0.0061585,0.0057836,0.015606,-0.011854,0.0075087,0.00091709,0.014956,0.0005048
-0.0013658,0.005647,0.0068755,0.0046188,-0.0073626,0.0082804,-0.014346,0.0010289
-0.016743,-0.010684,-0.0094074,-0.0022746,0.0011309,0.0079492,0.0030899,0.0091156
-0.00090008,0.0037464,-0.0097353,-0.0014158,-0.021863,-3.9721e-06,0.0044635,-0.0065278
-0.00067656,-0.0055745,0.0059229,-0.00072452,0.0016776,-0.015552,-0.0026327,-0.0068442
0.0074138,0.0006453,-0.0015057,-0.00027671,0.0014198,-0.015274,-0.018297,0.00038807
-3.0491e-05,0.0070184,0.0069914,0.007697,0.0086766,0.016405,0.0043847,-0.0081997
0.0082427,-0.009697,-0.0077333,-0.00025435,0.00013367,0.0090957,0.0030745,0.014359
0.00093955,0.013114,0.0010841,-0.00068056,-0.00062332,-0.0060437,0.0014549,-0.0021518
0.0014127,0.012964,0.0020677,-0.0013569,0.006542,-0.0056736,0.0076107,0.012668
0.0017437,-0.010229,0.0029064,0.005591,-0.0017117,0.010117,-0.0016535,-0.011431
-0.0059759,-0.0019308,0.011308,-0.011001,0.0059072,0.0021998,0.0050775,-0.0041028
-0.013988,-0.0013844,-0.011858,0.0036614,-0.017488,0.001803,-0.0033835,-0.0044057
0.001152,-0.0087515,-0.011922,-0.0049895,0.013988,-0.01448,0.0041732,0.0032616
0.00045697,-0.0085143,-0.0044735,0.0022263,-0.0091105,0.0003161,-0.0036241,0.0032285
0.0074909,0.0071046,0.010571,0.0019685,-0.00091411,-0.00054614,-0.011316,0.003247
0.0067778,0.0068901,0.0098865,0.0021079,0.0072769,-0.0090907,0.01218,0.0032507
-0.0015464,-0.0012606,0.0092194,0.0026502,-0.00018423,0.013899,-0.0035743,-0.0046325
-0.0095784,0.0061966,-0.014763,0.0035436,-0.0076665,0.0060327,-0.0039514,0.002996
0.0061436,-0.0018878,-0.015114,-0.0031279,0.00048084,-0.0014035,0.0032571,-0.0051206
-0.0013033,0.0058103,0.0081908,-0.0096917,0.00085147,0.0071668,-0.0052916,-0.0055121
0.0070334,-0.0097343,0.0082496,0.0071349,0.0012773,-0.0074436,0.0018,0.0018915
-0.00024439,-0.0016462,-0.007198,0.0003297,0.0095637,-0.0063473,0.0012613,0.0015601
0.00014764,-0.0090189,0.01643,-0.0067893,-0.0055815,0.0024557,0.0088667,0.001407
-0.0075388,0.014969,0.0087051,0.0013252,-0.0051722,0.0031792,-0.014348,0.0015161
-0.0077435,-6.1664e-05,-0.014839,0.0090203,0.0028803,-0.0042807,0.009764,0.001935
0.0073542,0.00050499,-0.015179,0.00069485,0.002849,-0.012141,0.0030185,0.0026634
-0.0012291,-0.0068356,-9.5903e-05,-0.0079547,-0.0053461,0.018707,-0.0034694,0.0036516
-0.0021134,0.0012999,-0.0007344,0.0066202,0.017324,-0.0053826,-0.0020707,-0.010816
-0.0029611,0.0014404,0.0065016,-0.01013,-0.0072321,-0.0061471,0.0070184,-0.0017907
0.011988,0.00139,0.0061607,-0.0033724,-0.016407,0.0087398,0.00019249,-0.00064372
0.0037647,0.0011682,-0.0016133,0.011404,-0.0022111,0.00032639,-0.0070262,0.00032814
-0.0041625,0.0008194,0.0066916,0.0030508,0.0043228,-7.5758e-05,0.00097281,0.0088524
0.003804,-0.0074056,-0.0080067,-0.0049415,-0.004397,-0.0080895,-0.0069829,0.0014405
-0.0036594,1.7e-06,0.0010501,-0.0047674,0.010868,0.0074809,-0.0073058,-0.0062942
-0.011024,-0.00033091,0.01023,0.0035072,0.011143,-0.00033535,-0.0076244,0.0091158
-0.0027586,-0.00054651,-0.0041398,0.0041437,-0.0035926,0.0074105,0.023479,-0.01476
0.013253,0.014992,-0.011041,0.0048132,0.0055891,-0.00063592,0.0079838,0.0003058
-0.0020916,-0.0084289,0.0049735,-0.0024389,-0.0084054,-0.016731,0.0084029,-0.0002579
0.0058906,-0.00055513,-0.0030645,-0.009915,-0.0067742,-0.00183,-0.0065966,-0.00071192
-0.0096547,-0.00052725,0.0039229,-0.0020544,-0.0053937,0.0050453,-0.01373,0.014657
-0.0096298,0.0072029,-0.013007,0.0055182,0.0033512,0.0039824,0.0024501,-0.00098071
0.006,-0.0086684,0.016661,-0.0027566,0.003722,0.0029091,-0.005085,-0.00075628
0.013819,-0.0012794,-0.00057502,0.0044902,0.003512,-0.0058678,-0.0051721,-0.0081623
-0.0017962,-0.0018447,-0.0097772,-0.0038414,-0.0050245,0.0090038,0.0021888,0.00014656
-0.0018009,-0.0024722,0.0048847,0.011465,0.0016802,0.0085335,0.0092707,-0.0071904
0.0059663,0.0047582,-0.0033399,-0.004148,-0.007461,-0.0072405,0.00059651,0.0087791
-0.0097641,0.0043329,0.0046323,-0.011535,0.014591,-0.014872,-0.008034,0.0089012
-0.0021152,-0.0036593,0.0052767,-0.0028678,-0.010153,0.0012518,0.006978,0.00093031
-0.010118,-0.003549,-0.0015845,0.0061724,0.004339,0.0020372,0.0066834,-0.015149
-0.0024678,0.020277,0.0072521,0.015454,0.0034239,0.0030633,-0.016689,-0.00024146
0.013089,-0.018185,-0.0075189,-0.0064618,0.010546,0.0042646,0.0071361,-0.0011482
0.0053532,-0.0018553,0.00077475,-0.0051126,-0.013372,-0.0022583,-7.6397e-05,0.0056749
0.0055979,0.014451,-0.014864,0.0036561,0.0019703,0.0068257,0.016205,0.004724
0.0059924,-0.0084483,-0.0075812,-0.0037707,-0.013734,0.00015037,-0.0066881,0.0039284
-0.016953,-0.0081446,0.014891,0.0037595,-0.0057684,-0.0067696,-0.0063959,-0.0044283
-0.00080784,0.0075044,-0.0019796,-0.0049961,0.018096,-0.0062062,-0.006433,-0.0046569
-0.00032892,-0.016184,0.012315,-0.0064807,-0.004607,0.0096122,0.0010209,-0.0045436
-0.0077537,0.014589,0.0032818,-0.00047721,0.0042473,-0.0061758,-0.0073785,0.0037109
0.0081431,0.013965,0.0023333,0.013297,0.0055412,0.0011868,0.0075881,0.0044318
0.0004847,-0.010147,-0.021671,-0.0039198,-0.0086545,0.00056524,-0.00077386,-0.0024621
0.0083446,-0.0029679,0.0016333,-0.0049847,0.0083678,-8.5704e-05,-0.0010586,0.0063642
-0.0073281,-0.0034774,0.0019261,-0.0053358,0.0017293,-0.00062171,0.0068222,-0.00044991
0.00034511,0.004011,0.010402,0.010724,-0.0053096,-0.00092214,0.0072375,-0.0073819
0.00010693,-0.0039031,-0.0042852,0.0040749,-0.0050607,-0.00091208,8.5509e-05,0.0011139
-0.00024398,-0.0037737,0.0046182,0.0057911,-0.005377,0.015049,0.00081818,-0.0062573
0.007095,0.012191,-0.009897,-1.4855e-05,0.0016117,-0.0077741,0.0014235,0.0095619
-0.0013064,-0.0029346,0.0067266,-0.013642,0.0004298,-0.0069813,-0.013896,-0.0060844
-0.0019746,-0.002344,-0.00031023,-0.0041176,0.0069187,0.0016661,-0.0061777,0.0093635
-0.010464,0.0060703,-0.015463,0.0049126,-0.0021147,0.0023957,-0.0066696,0.001293
-0.0032346,-0.0012028,0.0081032,0.0055341,0.0048094,0.0028851,0.0081668,-0.014595
0.004205,-0.0085919,0.023517,-0.010054,-0.0033841,-0.012591,0.0072561,0.00082309
0.011963,-0.00049448,-0.0082315,-0.010488,-0.0031661,0.010603,0.0064264,0.0085227
-0.0033267,-0.00033686,-0.008923,0.020035,0.0054564,0.0021612,-0.0097652,0.0006951
-0.010404,-0.00026732,-0.0096746,-0.004224,-0.0088715,0.001207,0.0056765,-0.0070656
0.014105,0.007581,-0.010332,0.0028489,0.00053904,-0.0077739,0.0059111,0.016431
-0.0002447,-0.00017606,0.020506,0.0023063,0.017824,-0.0011999,-0.0013021,-0.0070156
-0.0067634,0.0077496,-0.0029774,0.0019999,-0.0041455,-0.0023517,-0.00046133,-0.0071648
0.0021575,-0.015504,0.0052134,-0.0059168,-0.0030947,0.0045419,-0.0073533,0.00030859
0.0028967,0.00035989,-0.001816,0.0019071,-0.010433,-0.0038444,-0.0065185,-0.00023304
0.0031424,0.00061419,0.0070834,0.009738,-0.0027889,0.011613,0.0019046,0.006866
-0.012765,0.0086387,0.00049576,-0.021584,0.0042475,0.0040435,0.0021988,-0.017388
0.0021172,0.00093261,-0.013966,0.0016306,-0.0048242,-0.0031641,0.0021367,0.013037
0.001079,0.0008779,0.0025651,0.0012444,0.0014293,-0.0022804,0.0017266,-0.003324
-0.0078354,-0.0071847,-0.0047501,0.00072967,0.0075855,-0.0090272,0.0088261,0.003925
-0.00093379,0.00017991,0.0030683,0.0079649,0.0060155,-5.8089e-05,-0.0077443,0.0114
0.014196,-0.0082454,0.0025848,0.0074024,0.0046679,-0.01451,-0.0088363,-0.0043175
-0.0013596,0.0066652,0.017321,-0.0087011,-0.0041921,0.017871,0.013457,-0.004179
0.0071243,-0.0018825,-0.022883,0.0065778,-0.0049154,0.0032843,-0.0032686,-0.011658
0.00050777,0.005254,-0.00064604,-0.0092385,-0.0053276,0.0041758,-0.00423,-0.0033673
-0.0057611,0.0046997,-0.0016997,-0.0014647,-0.0054607,0.0048585,-0.0049662,0.005013
-0.0041066,-0.0035116,0.0053874,-0.0091855,0.0024619,-0.010359,0.0024047,0.0056094
-0.002589,0.0040609,0.01293,0.014437,0.0027801,0.0053424,0.010114,0.0061689
0.0063937,-0.0038534,-0.0024569,-0.00095743,0.0032695,-0.010568,0.0025454,0.0066245
-0.0085459,-0.0038495,-0.0095533,0.0070821,0.0038844,-0.003391,-0.020334,-0.0087096
-0.00058008,-0.0037712,0.0071633,-0.00055147,-0.0032473,0.0034914,0.0038997,-0.00081078
-0.00091948,0.0041728,0.00066397,-0.0082609,0.0052391,0.0023616,0.012634,-0.00093419
0.0061655,-0.0034645,-0.0057903,-0.00042324,-0.0019834,0.0011483,-0.0020802,-0.0090404
-0.0026251,-0.0032467,-0.012369,-0.0082601,-0.0015449,-0.007846,0.0064889,-0.0016097
0.0040953,0.012638,0.0042246,0.0073456,-0.0012998,0.014535,-0.00084121,0.0058427
0.0029978,0.00512,0.02046,-0.00041313,-0.0090654,0.0058528,-0.0085178,-0.0021957
0.0097733,-0.0023777,-0.0027676,0.0075884,-0.0013681,-0.0026177,-0.00091923,0.0056113
-0.0068036,-0.0098752,-0.010762,-0.015488,0.0062375,-0.0030648,-0.0092224,0.0058629
-0.015488,-0.0095788,-0.0034723,0.01629,0.013842,-0.018941,-0.002039,0.0063472
-0.00067162,0.014127,-0.0042508,0.0013115,-0.0097102,0.0044252,0.012994,-0.00864
0.0063855,-0.0012566,0.010439,-0.0058271,0.0059701,-0.0032955,-0.0030124,-0.0079625
0.0056894,0.0067856,0.0016337,0.0025745,-0.00938,0.012567,0.004756,0.0082604
-0.0027344,-0.016414,0.00066384,-0.0048453,-0.0010613,0.005108,0.0051002,-0.0069413
0.0045936,0.0072904,-0.0080403,-0.0047344,-0.008167,-0.0022818,-0.0098333,0.00107
-0.0035261,-0.0002171,0.01461,0.01068,0.0082927,0.0059589,0.0067051,-0.0067641
-0.0036063,0.00011952,-0.0095046,-0.0054638,0.009146,-0.0014891,-0.00015408,0.0086701
-0.003422,0.0082727,-0.002266,-0.014035,0.0020723,-0.01687,0.00064264,0.00057772
0.0048542,-0.0070541,0.0050731,0.016324,0.0025619,0.0066642,0.001118,0.00029235
0.0055801,0.00095663,-0.0031026,-0.00019888,-0.0051191,-0.0011819,-0.0066324,-0.0077485
-0.0091117,0.00099943,-0.011142,-0.00098146,-0.0054007,-0.0012852,-0.0069783,0.0077284
0.0075611,0.0008481,0.012244,0.0062632,-0.0060766,0.0064476,0.00018504,0.0076376
-0.0070243,0.00049414,0.0045947,-0.0018394,-0.0070507,-0.001315,-0.00058635,-0.0080827
0.0094941,-0.015658,-0.010628,-0.0096426,0.0074588,-0.0088551,-0.0012651,0.0073605
0.0022967,0.01496,-0.0021772,-0.0015398,-0.0014259,0.0073212,0.0061578,-0.00079535
-0.013093,-0.0013048,0.0064651,0.0067913,0.0055285,0.015967,0.013999,-0.009154
