-0.053318,0.19222,0.066129,0.016773,0.006559,0.01388,0.021873,0.00077015
0.21496,0.12093,0.080232,0.0083103,0.01455,0.014062,0.014598,0.1839
-0.088213,-0.33623,-0.12646,-0.039452,-0.024607,-0.040445,-0.047163,-0.35538
0.022502,0.047114,-0.022383,0.022069,0.0062197,0.014291,0.023902,0.16398
-0.022102,-0.056937,-0.013163,-0.017904,-0.010124,-0.0093235,-0.0067511,-0.015324
-0.072527,0.071066,0.0036396,0.0048326,0.0046005,0.013661,0.0091969,-0.03288
0.036139,0.23693,0.17741,0.051306,0.011508,0.028567,0.0092102,0.11264
0.14031,-0.089177,-0.084747,-0.03471,-0.012634,-0.019222,-0.037909,-0.10091
-0.23657,-0.28073,-0.11816,-0.018885,0.0026742,-0.01239,0.0085879,0.10097
0.22527,0.14806,0.10086,0.036183,0.018504,0.0023644,0.016052,0.07823
-0.12362,-0.10647,-0.084078,-0.04932,-0.027599,-0.029448,-0.015361,-0.1846
-0.019016,0.11236,0.14681,0.036978,0.012748,0.0095396,0.00038683,-0.062744
0.17037,0.054196,-0.082316,-0.0097233,0.0065812,0.033501,0.0555,0.39654
-0.11158,0.006948,0.0087981,-0.01763,-0.0072611,-0.020059,-0.045412,-0.33836
-0.0065218,0.1329,0.0129,0.021029,0.010027,0.020606,0.010002,0.029315
0.016345,-0.070012,-0.031758,0.020313,0.011329,0.022439,0.018436,-0.078369
-0.0505,0.036989,0.077483,-0.011926,-0.019152,-0.022692,-0.051525,0.089074
-0.11232,-0.40668,-0.22971,-0.044359,-0.026802,-0.036985,-0.004674,0.024463
0.17614,0.17687,0.30492,0.06376,0.027488,0.026183,0.026152,0.040852
-0.042769,0.093098,-0.1928,-0.05461,-0.020193,-0.020806,0.0097577,0.021279
0.060654,-0.078296,0.01256,0.030373,0.025683,0.040839,0.024383,-0.14393
-0.12189,0.0083815,-0.023237,-0.032711,-0.022156,-0.038686,-0.039198,-0.026029
-0.066626,0.034606,0.044435,0.02967,0.023977,-0.0012666,-0.0089598,0.076571
0.21029,0.11093,0.059821,0.022235,0.0079377,0.020628,0.037108,0.31031
0.17633,0.018874,0.0072987,-0.031622,-0.023391,-0.019571,-0.025895,-0.30351
-0.30309,0.078115,0.066082,0.024235,0.02366,0.034585,0.013018,0.16287
0.082694,-0.29864,-0.21779,-0.044726,-0.022919,-0.019979,-0.02584,-0.26839
-0.0037131,0.16822,0.20155,0.05039,0.016413,0.019754,0.029353,0.011727
-0.086399,-0.077514,-0.25497,-0.04213,-0.030336,-0.018323,-0.016814,0.019599
0.0068728,0.017909,0.16973,0.013553,0.01647,0.021746,0.023029,0.030453
0.097782,0.11059,0.084687,0.029898,0.016225,-0.00094295,0.00030742,0.35939
-0.20218,-0.31441,-0.2132,-0.05557,-0.030988,-0.055332,-0.038224,-0.26397
0.13286,0.23644,0.19056,0.046288,0.015577,0.030397,0.032352,-0.070876
-0.027722,-0.12579,-0.14866,-0.031608,-0.0080222,-0.02492,-0.022362,-0.097664
0.051896,0.18642,0.14499,0.031164,0.015489,0.028914,0.016419,0.06388
0.11425,-0.068034,-0.13857,-0.038744,0.00020538,0.0046522,-0.0074693,0.031762
-0.021227,0.064279,0.12638,0.039963,0.024219,0.011906,0.0076493,0.14135
-0.036175,-0.11255,-0.11437,-0.021786,-0.029739,-0.011661,-0.0084253,-0.093741
-0.011361,0.10317,0.11585,0.025948,-0.0055273,-0.0034942,-0.0087357,-0.067428
-0.09804,-0.079586,-0.12075,-0.027872,-0.012626,-0.0027129,0.0067468,0.23963
-0.033046,0.047898,0.018898,0.0041353,0.011383,0.013971,0.014549,-0.19246
0.049128,-0.071085,0.072847,-0.0031442,0.0039506,-0.0083336,-0.001046,0.26549
0.022835,0.022904,-0.046073,-0.0029265,0.01193,0.00047628,0.022336,-0.26376
0.16194,-0.045839,0.07494,0.012544,-0.0037486,-0.022279,-0.032611,0.00071578
-0.28217,0.12915,0.00513,-0.0036236,-0.019647,-0.014219,-0.025329,-0.15802
0.020667,-0.083817,-0.045216,0.018904,0.026733,0.055856,0.044198,-0.033191
0.32283,0.067153,0.0019789,-0.013567,0.0025812,0.00045937,-0.0036028,0.30189
-0.30307,-0.15772,-0.14171,-0.022828,-0.021777,-0.031899,-0.035726,-0.36659
0.090152,-0.021442,-0.0062619,-0.0087777,-0.0072441,-0.0098594,-0.012875,0.19972
-0.066617,0.2831,0.19907,0.036499,0.022806,0.019843,0.041722,0.12786
0.062889,-0.21873,-0.18795,-0.01972,-0.025281,-0.0051403,0.0031933,0.11277
0.15001,0.20861,0.303,0.064821,0.043927,0.040346,0.019973,0.073539
-0.15809,-0.21592,-0.21762,-0.069208,-0.035063,-0.054489,-0.040904,0.021252
0.050899,-0.047744,-0.030685,-0.0077125,-0.0043124,-0.0004569,0.0077836,-0.2759
-0.021777,0.047493,-0.0037261,0.0071496,0.003464,0.007226,0.0094349,-0.049173
-0.065265,0.16913,0.1279,0.022293,0.011756,0.023301,0.026201,-0.090665
-0.049419,0.1193,0.089364,0.022145,0.012741,0.00089222,-0.020309,-0.080731
0.22854,-0.18257,-0.08955,-0.02448,-0.0092836,-0.013182,-0.020836,0.31058
-0.12934,-0.11352,-0.1601,-0.03158,-0.015396,-0.011226,-0.014381,-0.084693
0.018803,-0.11226,-0.060542,-0.0069207,-0.013599,0.0066003,-0.00070979,-0.019268
-0.044004,0.1178,0.20116,0.026069,0.019329,-0.0067705,-0.010723,-0.32386
-0.07355,0.26485,0.062982,0.059528,0.0363,0.026587,0.049715,0.40423
0.057031,-0.15408,-0.17732,-0.055098,-0.025366,-0.0028881,-0.0065635,0.026834
-0.018121,-0.16836,-0.081217,0.002321,-0.009531,-0.0094001,0.055038,0.39581
-0.017287,0.052041,0.13342,-0.0028136,-0.0021558,-0.00084078,-0.054459,-0.50627
0.31681,-0.038129,0.013898,-0.023864,-0.026602,-0.031899,-0.038217,0.098492
-0.04078,0.38243,0.17721,0.063953,0.050108,0.053749,0.064585,-0.083006
-0.19378,-0.24079,-0.088368,-0.044223,-0.029617,-0.040639,-0.074329,-0.16404
-0.10559,-0.10373,-0.15128,-0.028191,-0.0077321,-0.0024079,0.029257,0.13359
0.010628,-0.02019,0.049589,0.041698,0.022212,0.012336,-0.015441,-0.074783
-0.065564,0.14095,0.005224,-0.0064008,-0.0021582,0.0036897,0.0023385,-0.016367
0.13372,0.073264,0.011819,0.015114,0.01295,0.026379,0.043327,0.098232
0.24131,-0.029296,0.10846,0.036103,0.020625,0.033517,0.044787,0.32462
-0.093511,-0.026811,-0.21187,-0.08382,-0.049529,-0.060871,-0.048212,-0.20324
-0.10359,-0.1613,0.067858,0.015021,-0.0022923,-0.030238,-0.017114,-0.17954
-0.29474,-0.11137,-0.074003,0.0048377,0.0060208,0.00044438,-0.033873,0.15456
0.19463,0.093447,0.036187,0.0031485,-0.0011726,0.023447,0.026591,-0.15315
0.17907,0.18179,0.13417,0.018037,0.015213,0.023259,0.00047407,0.11694
-0.10548,-0.00068706,-0.0138,-0.0050294,0.0083463,-9.8521e-06,0.020987,0.082892
0.052681,0.055178,0.060812,-0.0035545,-0.01392,-0.0072366,-0.020771,-0.21537
-0.057564,-0.21258,-0.064923,0.014471,-0.0047087,-0.0062522,-0.046219,0.10575
0.05482,0.13323,-0.087954,-0.013791,0.0046779,0.0028352,0.10905,-0.093822
-0.17459,-0.017791,-0.01015,-0.026292,-0.017129,-0.034851,-0.10168,0.061072
0.33778,0.33292,0.26834,0.078031,0.054693,0.075759,0.12622,0.038828
-0.223,-0.68332,-0.44904,-0.099729,-0.05351,-0.071848,-0.098156,0.11194
-0.038605,0.35413,0.1731,0.065066,0.025226,0.037721,0.021647,0.0055403
0.11628,-0.28993,0.1193,0.0097226,0.0016562,0.0058627,-0.022696,-0.2196
-0.00073319,0.26698,-0.11744,-0.046994,-0.014949,-0.019038,0.0026959,0.19263
-0.24034,0.25927,0.15942,0.020145,0.0066702,0.0021619,0.027119,-0.25123
0.15709,-0.12527,-0.017392,0.00061336,0.0041514,0.014993,0.019097,0.24509
-0.032625,-0.33155,-0.24018,-0.042557,-0.022248,-0.042711,-0.021385,-0.021225
0.068047,0.086172,0.12509,0.031817,0.0059396,0.016952,-0.031626,-0.12704
0.070637,0.18296,0.071496,0.013291,0.0031544,0.0068876,0.02002,0.12501
-0.28909,-0.15021,-0.025513,0.011581,0.0088081,0.0055552,-0.022171,-0.23907
0.34079,0.21199,0.068453,0.02683,0.023164,0.028783,0.045495,0.080273
-0.095071,-0.026952,-0.07664,-0.050396,-0.031767,-0.032772,-0.034287,0.12434
0.26119,-0.069686,0.062055,0.021865,0.01588,0.0082497,-0.0033639,0.066418
-0.43613,-0.19679,-0.15679,-0.022342,-0.0059175,-0.012505,0.021181,-0.19479
-0.0015045,0.15507,0.016134,-0.0036924,-0.011482,0.013955,0.0079308,0.16786
0.071336,-0.075658,0.0020203,-0.016279,-0.0011417,-0.0065366,-0.0044616,0.042983
0.1097,0.104,0.0893,0.025546,0.016937,0.01158,0.0303,-0.0017785
0.097959,-0.071172,0.035142,0.0043731,-0.012261,-0.017917,0.017839,-0.10982
-0.26779,0.015794,-0.0048655,0.013795,0.020379,-0.0014257,-0.10489,0.013453
0.013784,0.098267,-0.00011295,0.014657,0.0053238,0.021992,0.036764,-0.17241
0.10832,-0.1146,-0.099563,-0.032124,-0.026203,-0.025647,-0.02604,0.11364
0.0016729,0.16391,0.087128,-0.0093057,-0.01941,-0.0034745,0.01156,0.0678
0.093408,-0.0063131,-0.057152,0.0051239,0.018114,0.026309,0.064,-0.089469
-0.0065612,0.059877,0.12433,0.019188,0.0085421,-0.014131,-0.040112,-0.027994
-0.18113,-0.38141,-0.23474,-0.029356,-0.0087444,0.00043404,0.020022,0.043164
0.17846,0.067533,0.062034,0.00037831,0.0055976,-0.00018428,-0.028632,0.25026
-0.12412,0.055536,0.00015818,-0.00076821,0.012698,-0.0003548,0.025123,-0.046975
0.058423,0.09959,0.088348,0.029827,0.0048217,0.015446,-0.0061116,-0.21632
-0.10316,0.02989,-0.0010432,-0.0015836,-0.010256,0.0079832,0.0026144,0.13147
0.11676,-0.073039,0.044446,0.014263,-0.009228,-0.007302,-0.034804,-0.18521
0.061331,0.20725,0.13056,-0.00095427,0.0077231,0.0085149,0.045454,-0.027781
-0.12133,-0.16619,-0.16536,-0.024015,-0.0064748,-0.046173,-0.022513,0.023731
-0.20468,0.019261,-0.12534,-0.031662,-0.012937,-0.0072399,-0.0046066,0.35853
0.35835,-0.071134,6.7967e-05,0.015075,0.011633,0.0082764,-0.018265,-0.07096
-0.080324,-0.022629,0.10135,0.0068326,-0.0031793,0.016175,0.022236,0.040164
-0.059353,-0.17884,-0.094669,-0.0015989,-0.0027558,0.00095733,-0.00045887,-0.4631
0.14829,0.39731,0.092253,0.036813,0.036296,0.040762,0.061983,0.15589
-0.1053,-0.0296,0.061177,-0.018387,-0.011047,-0.0051642,-0.063906,-0.099889
-0.19453,-0.070473,-0.038962,0.0048141,-0.019777,-0.01988,0.0047588,0.23382
0.13126,-0.31316,-0.082953,-0.04193,-0.013281,-0.019317,-0.028712,0.042852
0.060258,0.34188,0.15564,0.044534,0.031987,0.019688,0.05473,-0.014359
-0.11009,0.14284,-0.026717,-0.001444,-0.00098984,0.0032286,-0.033592,-0.14002
0.12839,-0.26313,-0.16967,-0.039312,-0.041679,-0.045241,-0.027644,0.063778
0.09612,0.12348,0.10117,0.024579,0.019536,0.022925,0.026062,0.26706
-0.10556,-0.15783,0.066597,0.018235,0.011006,0.0049628,0.026197,-0.19706
-0.14116,-0.043272,-0.10959,-0.011585,-0.0046155,-0.0049377,-0.0037582,-0.13657
0.10587,-0.0075487,-0.0055429,-0.0024842,0.0039719,0.0092675,-0.017106,0.023474
0.072338,-0.072146,0.011695,-0.0092339,0.005436,0.0010045,0.0092123,0.022676
-0.070609,0.27226,0.012649,-0.00064264,-0.00043275,0.0094473,0.012172,0.11717
-0.081525,-0.020565,0.036536,-0.015814,-0.013942,-0.020199,-0.0087987,-0.23276
-0.10965,0.041077,0.020871,0.015531,0.027054,0.036757,-0.0073337,0.059076
0.266,0.15102,0.020181,0.030859,-0.01059,0.00018952,0.0084107,0.14206
-0.04153,-0.16154,-0.043929,-0.0089281,-0.01775,-0.021005,-0.016357,-0.060612
0.162,-0.12521,-0.038911,-0.0022907,-0.0023549,-0.027233,-0.018971,0.24157
-0.14,-0.038264,0.12107,-0.011713,-0.0034295,0.012504,0.016601,-0.28598
-0.20592,-0.13537,-0.15757,-0.013679,0.018276,0.012225,0.020619,0.15479
0.30015,0.22503,0.086632,0.015406,0.00056258,-0.020098,-0.029725,-0.27891
-0.23039,-0.033265,-0.051762,-0.0023499,-0.0015272,0.017417,0.01457,0.18712
-0.053847,0.014085,-0.087418,-0.027612,-0.011082,-0.023277,0.013264,-0.11853
0.035041,-0.060266,0.074294,0.018009,0.0034297,0.022252,-0.010064,0.038724
0.085576,-0.020339,0.035489,0.0018966,-0.0047026,-0.0019883,-0.0086721,0.1822
0.17042,0.095214,0.046203,0.025691,0.027046,0.029095,0.048326,0.20212
-0.12257,0.21512,0.09026,0.011201,-0.0030029,-0.0017698,0.011978,-0.4099
-0.17494,-0.15499,-0.05995,-0.033962,-0.024768,-0.016679,-0.087017,-0.045087
0.24819,0.013206,0.039574,0.030535,0.016141,-0.0081129,0.016497,0.085226
0.0060464,-0.064566,-0.26087,-0.045632,-0.0055838,-0.01541,0.033171,0.027814
-0.12081,-0.10165,0.037784,-0.0049384,-0.0042614,0.00030457,-0.052685,0.17356
-0.00053814,0.11947,0.16171,0.050856,0.019946,0.031164,0.071586,-0.055115
-0.017036,-0.19781,-0.10764,-0.058022,-0.034566,-0.032123,-0.054636,-0.21214
-0.15576,0.06538,0.11324,0.043461,0.011967,0.0059495,-0.0012703,0.23446
0.1369,0.20868,0.036318,0.011673,0.011281,0.0049985,0.036739,-0.3398
0.07074,-0.20996,-0.21228,-0.051651,-0.020779,-0.0034975,-0.002852,0.11199
0.089807,0.02344,0.10283,0.017729,0.017564,0.019678,-0.018394,0.19854
-0.11984,0.11424,0.060499,0.016831,0.0014697,0.0042582,0.029084,-0.11283
0.041834,-0.077186,-0.073336,-0.0073873,-0.0064988,-0.0029519,-0.016907,0.027335
-0.090645,0.1597,0.14652,0.023212,0.017056,-0.0021079,0.023008,0.33536
0.13011,0.16703,-0.12415,-0.00078903,0.00169,-0.009029,-0.023351,-0.21439
-0.077545,-0.35444,-0.034521,-0.048211,-0.029338,-0.023894,-0.03119,-0.12323
0.12275,0.038037,0.10215,0.052766,0.033169,0.039117,0.046307,0.054295
-0.21294,-0.017081,-0.05075,-0.033805,-0.01403,-0.038787,-0.06419,-0.28151
-0.11372,-0.060168,-0.071764,-0.018812,-0.014707,0.008054,0.03599,0.060339
0.16532,0.041291,0.13272,0.02754,-0.0078332,0.007848,0.0033957,-0.087495
0.048845,-0.079253,-0.19499,-0.019622,-0.0010348,0.007563,-0.0054475,0.36561
0.10961,0.28259,0.086021,0.027317,0.013736,0.022898,0.048709,-0.02185
-0.18201,-0.17635,0.06984,-0.0034613,0.0054568,-0.024234,-0.02158,0.0021854
0.14328,0.22495,0.092646,0.036459,0.036788,0.045867,0.025804,-0.18752
-0.094846,-0.29383,-0.14235,-0.056149,-0.048466,-0.063672,-0.067108,0.28925
0.016001,0.13485,0.060095,0.015428,0.015251,-0.001268,0.011998,-0.1423
-0.03444,-0.098601,-0.073651,-0.014625,-0.014423,0.0065648,-0.0026605,0.059119
0.055709,0.13798,0.057767,0.017567,0.018511,-0.001045,0.013816,-0.073068
0.0024771,-0.093824,-0.077058,-0.013146,-0.011227,0.0072083,-0.0011097,0.11276
0.022414,0.064422,-0.0094294,-0.0053058,-0.0023328,8.2472e-05,-0.016179,-0.32369
0.075117,-0.098985,0.049783,0.017608,0.0059383,0.01657,0.038947,-0.00013885
-0.19126,0.1968,0.18669,0.047807,0.021306,0.02527,0.00022591,0.022588
-0.080645,-0.17315,-0.20003,-0.055244,-0.026514,-0.020904,-0.015151,0.052602
0.0022803,-0.028635,0.022747,0.0054885,0.0032494,-0.0049801,0.0084332,0.23488
0.067313,0.037484,-0.074349,-0.027591,-0.014157,-0.020875,-0.0071507,-0.019943
0.15542,-0.1222,-0.045688,-0.005797,-0.015931,-0.029586,-0.054077,-0.11447
-0.01326,0.16509,0.22618,0.039859,0.037289,0.039261,0.055188,-0.085406
0.038459,-0.029785,-0.055425,-0.01544,0.0051211,-0.0094659,-0.023056,0.29474
-0.088025,0.24633,0.086153,0.054958,0.020517,0.04324,0.039362,-0.12286
0.083139,-0.21021,-0.2006,-0.053658,-0.041508,-0.036713,-0.015344,-0.21453
-0.050474,0.029374,0.099978,0.03359,0.022068,0.016554,0.0081384,0.19764
-0.098823,-0.17665,-0.14489,-0.042863,-0.031132,-0.023333,-0.015213,-0.013022
0.0084347,0.1004,0.049165,-0.0019812,0.0095914,-0.0078474,-0.015117,-0.13683
-0.0091794,-0.10119,0.041429,0.015409,0.018994,0.023934,0.0083972,0.06778
-0.056518,0.23384,0.058138,-0.0064807,-0.003136,0.0015822,-0.0071883,-0.12579
-0.022525,-0.082031,0.06743,0.025981,-0.0022708,0.010838,0.024057,0.0562
0.18804,-0.079735,-0.1191,-0.027911,-0.017561,-0.018849,-0.02287,0.19221
-0.033349,-0.039952,-0.018188,0.011479,0.013478,0.02166,0.03953,-0.038085
0.10221,0.25683,0.072188,0.011308,-0.0028533,-0.024074,-0.023124,-0.13525
-0.062767,-0.040072,0.010506,-0.012812,-0.0039542,-0.015536,-0.0077056,0.11049
-0.10857,-0.2031,-0.078684,-0.006179,0.010308,-0.007436,-0.00014053,-0.02909
0.063661,0.065613,0.10947,0.0078184,0.0010184,0.015906,-0.016026,0.084876
-0.017558,-0.084542,-0.11952,0.021466,0.015199,0.031153,0.022803,-0.033461
0.12993,-0.14503,-0.10798,-0.027579,-0.025132,-0.0084535,-0.00079228,0.044845
-0.26858,0.3845,0.17717,0.017146,0.012967,0.02219,0.022602,-0.26583
0.15407,-0.082066,-0.090332,-0.039416,-0.034455,-0.048707,-0.039807,0.098463
-0.0071237,0.07959,0.083316,0.013941,0.012368,-0.0023235,-0.0005247,-0.094186
-0.093591,-0.014458,0.027252,0.021201,0.012843,0.020777,0.015412,0.026431
-0.047653,-0.099883,0.015149,-0.0018592,0.021621,-0.0027817,0.0079401,0.1977
0.14945,-0.13884,-0.070772,-0.016149,-0.0082774,-0.002636,0.00041904,-0.0076444
0.039498,-0.077581,-0.0052422,0.017276,-0.014526,-0.010004,0.0083936,0.060168
0.061836,0.075511,-0.071265,-0.01122,0.0026648,0.006359,-0.022886,-0.083192
-0.048499,0.18734,0.2449,0.03863,-0.003798,0.01515,-0.007509,-0.032686
-0.19835,0.04683,-0.13657,-0.028887,0.004964,0.0006397,-0.00014835,-0.032702
0.024623,-0.064893,-0.044992,-0.0032004,0.0053923,-0.006063,0.014878,0.0077422
0.19597,0.09416,-0.019948,-0.0017559,-0.010364,0.0027018,0.0064028,-0.086102
-0.015441,-0.3747,-0.10029,-0.032472,-0.011007,-0.02007,-0.0098521,0.08947
-0.018847,0.24708,0.13667,0.029713,0.019208,0.02711,0.013078,0.048217
-0.066739,-0.024933,0.043755,-0.0024955,-0.0054854,-0.0041897,0.0049574,0.23451
-0.066972,-0.010854,-0.026145,0.0040125,-0.0067754,-0.035755,-0.034157,-0.3828
0.18312,0.078894,-0.017153,0.0026827,0.015514,0.010693,0.0051472,-0.021316
-0.10479,0.1436,0.12623,0.025045,0.014649,0.025966,0.029139,0.11781
-0.26487,-0.39371,-0.24408,-0.038084,-0.024908,-0.013203,-0.016877,-0.11915
0.26779,0.16363,0.16084,0.016495,-0.0093712,0.002673,-0.0079348,0.18447
0.0035911,-0.057979,-0.034528,-0.0065737,-0.0012644,0.011113,0.016833,0.046602
-0.0083799,-0.072996,-0.057496,-0.013682,0.007151,-0.019218,-0.01299,-0.10151
0.014576,0.26775,0.098912,0.026207,0.015756,0.020884,-0.0037919,-0.063871
0.033847,-0.012195,0.035531,-0.012148,0.00095915,-0.0094342,0.0052098,0.15926
0.095791,-0.0306,-0.10749,0.0038392,-0.0061554,-0.0088432,0.021672,-0.026888
-0.082076,0.12545,0.0056839,0.019311,0.0020698,0.014659,-0.0014091,-0.014402
-0.040365,-0.36582,-0.030932,-0.028306,-0.013541,-0.0093322,-0.0016015,0.023253
-0.19457,-0.044995,-0.060478,-0.0061569,0.001651,-0.0026661,-0.033579,-0.20437
0.17312,0.30538,0.1913,0.023415,0.008615,0.003557,-0.0034824,0.067366
-0.0079042,-0.10464,-0.08724,-0.033088,-0.0081687,-0.013852,0.018563,0.017599
0.051756,0.091725,0.042157,0.0043178,-0.0016633,9.2947e-05,-0.0062688,-0.049224
-0.22523,0.043027,0.025344,0.026543,0.0048803,0.01443,0.016001,0.14019
0.11518,-0.1252,-0.051456,-0.0052586,-0.0039869,-0.0096925,-0.00038847,0.015277
0.12847,-0.076174,-0.0085237,0.026202,0.018742,0.021562,0.0071442,-0.080741
0.080633,-0.12141,-0.072609,-0.043166,-0.012802,-0.0090579,-0.016114,0.0076509
-0.11434,0.11494,0.060594,0.020858,0.010748,0.015434,0.015653,0.22499
0.089956,0.2037,-0.070422,-0.016345,-0.020054,-0.022449,-0.03837,-0.11671
-0.17427,-0.042633,0.14297,0.0089939,0.011861,0.0097754,0.048169,-0.048613
-0.024733,-0.054252,-0.034509,0.010647,-0.0030231,-0.0053703,-0.021794,-0.28068
0.10085,0.25393,0.021123,-0.0038222,0.0054654,-0.0055777,0.0094278,0.23578
-0.039539,-0.31425,-0.034883,-0.018959,-0.025292,-0.022153,-0.030082,-0.14515
-0.015754,-0.0015185,-0.031493,-0.011404,0.021806,0.023114,0.02379,0.29011
-0.11629,-0.12808,0.022955,0.026671,0.0060924,0.0054232,-0.016334,-0.47181
0.07332,0.15062,-0.027881,0.0016159,-0.0099325,-0.0046425,-0.0096629,0.28904
0.19368,-0.12499,0.027338,0.015163,0.012841,0.016644,0.036156,0.30677
-0.0057506,0.16389,-0.013652,-0.0027828,-0.0036198,-0.0085823,0.011881,-0.21732
-0.041621,0.01877,0.030048,-0.020719,-0.0044952,-0.0098104,-0.019911,0.10425
0.061368,0.073468,-0.051115,-0.0071306,-0.013061,-0.0025483,-0.012328,-0.14639
-0.22918,-0.015405,-0.052673,-0.016453,-0.0057103,0.013237,0.0033542,0.097346
0.062615,-0.13879,0.065534,0.0062046,-0.0057363,-0.009374,0.0036486,-0.29229
-0.016295,0.13216,0.10888,0.037525,0.033823,0.0076351,0.0041273,0.22258
0.0584,-0.17242,-0.094335,0.0071987,0.0035946,-0.0062034,-0.010878,-0.20888
-0.094567,0.071309,0.13531,-0.014583,-0.0027664,-0.0041982,-0.0023372,0.12678
0.026704,-0.082968,-0.1794,-0.012423,-0.008875,-0.0021691,-0.0015273,0.22562
0.10375,0.1452,0.015406,0.013378,0.00066577,0.015319,0.014953,-0.12667
-0.065182,-0.072913,0.047008,-0.015614,-0.0056283,0.0012193,0.00017293,-0.42593
0.090869,0.066862,-0.06188,-0.0059238,-0.012329,-0.013354,0.039992,0.15902
-0.037715,-0.19381,-0.014942,-0.012428,-0.011752,-0.012867,-0.10006,0.43414
0.0089727,0.16792,0.015545,0.035102,0.027307,0.0339,0.05649,-0.062319
0.057489,0.096669,0.052715,0.0038866,0.011138,-0.021451,0.0017568,0.034058
-0.15953,-0.0019603,0.12757,0.01125,0.010163,0.024316,0.024784,-0.1715
0.028266,-0.026882,-0.04135,-0.028518,-0.014507,-0.016112,-0.022817,0.074217
-0.036368,-0.19694,-0.13385,-0.021387,-0.023598,-0.017496,-0.00028986,-0.060936
0.16972,0.050825,-0.04836,0.0094942,0.0065662,0.012627,-0.0011745,-0.12635
-0.071799,-0.016959,0.043477,-0.013754,-0.0097234,-0.019233,-0.040831,-0.03655
-0.080227,0.023068,0.07959,0.026197,0.0058416,0.012122,0.021632,0.069521
-0.073036,0.094492,-0.033183,0.027777,0.02211,0.013028,-0.001081,-0.13289
0.036921,-0.027596,0.057381,0.0064415,0.0078136,0.0068614,0.031721,0.25889
0.062933,0.040935,-0.11685,-0.038116,-0.021563,-0.014405,-0.020703,-0.30577
0.13011,-0.050687,0.053965,0.010909,0.011854,0.027011,0.036648,0.23076
-0.019978,0.041474,0.046629,0.012515,0.0061851,-0.0021076,0.0080014,0.22895
0.041146,-0.018902,-0.11546,-0.041399,-0.031087,-0.039654,-0.06029,-0.0074425
-0.047311,-0.10765,0.07518,-0.0025384,0.0091324,0.0078282,0.010992,-0.051397
-0.03652,0.031904,0.0555,0.035377,0.025097,0.015205,0.041858,-0.055004
-0.098853,0.093849,-0.018946,-0.021212,-0.030122,-0.017461,-0.045868,-0.13133
-0.14795,-0.1105,-0.023848,0.015501,0.0076224,0.011639,-0.009762,-0.23631
0.19252,0.24603,-0.014437,0.020878,0.013537,0.0091477,0.017858,0.17565
-0.044302,-0.15749,0.032449,-0.028163,-0.012086,-0.016659,-0.0014034,0.0033608
0.010751,-0.14938,-0.11752,-0.014142,-0.0064152,-0.0028331,-0.0043318,0.045546
0.031004,0.23941,0.11413,0.031876,0.015235,0.011909,0.017503,0.039241
0.009085,-0.25608,-0.20177,-0.030684,-0.017209,-0.019135,-0.0058207,-0.0050065
0.053547,0.10724,0.17747,0.0090245,0.0057498,0.021181,0.0038951,0.0086426
0.092057,0.049045,0.080359,0.017968,0.021599,0.023229,-0.0083132,0.057672
-0.0032188,-0.031545,0.0069883,0.0036463,-0.0088688,-0.0056011,0.0038399,0.008808
0.077208,0.029802,-0.011555,0.012579,0.015666,0.0044946,0.062989,-0.014681
-0.35664,-0.001514,-0.1631,-0.049311,-0.037903,-0.048533,-0.066113,-0.070086
0.022023,0.12386,0.083298,0.020868,0.0098342,0.00683,-0.0014247,0.058447
0.010221,-0.063713,0.02438,0.012087,0.018043,0.029795,0.022156,-0.069133
-0.12482,-0.065052,-0.081858,-0.0287,-0.021186,-0.034253,-0.058036,-0.13415
0.33051,-0.083783,0.054166,0.015935,0.0015502,0.010285,0.016034,0.22247
-0.0581,0.051997,0.019167,0.0057294,0.00045703,0.015412,0.018376,-0.0059462
0.0014115,0.0069412,-0.0141,0.0036036,0.014823,0.0050759,0.020118,-0.058996
0.019178,-0.10854,-0.13861,-0.036913,-0.017595,-0.028058,-0.016895,-0.042383
-0.019125,0.14425,0.22419,0.048557,0.012817,0.025747,0.0019362,-0.022143
0.16014,0.016396,-0.089787,-0.021075,-0.0031433,-0.0052021,0.014767,0.068479
-0.31097,-0.069574,-0.034281,-0.0036421,-0.0029042,-0.0037409,-0.017096,-0.032597
0.034796,0.13641,0.092721,0.014709,0.013499,0.022101,0.015763,-0.12004
0.00021759,0.03225,-0.0071078,0.0023659,-0.008754,-0.013977,-0.01193,0.15808
-0.018359,-0.078329,0.14128,0.029187,0.016073,0.0047717,0.016482,0.089197
0.18014,-0.20431,-0.35402,-0.069357,-0.029432,-0.031462,-0.0247,-0.025587
