0.0032076,-0.017272,-0.0034267,0.023543,0.024978,0.014935,0.057665,0.031794
-0.052941,-0.0023942,-0.019376,-0.01941,-0.0061659,-0.017625,-0.0092602,0.040408
-0.013884,-0.026001,0.020777,0.0083466,0.0099582,0.012696,0.010081,-0.049583
-0.044643,-0.0032172,-0.024663,-0.010947,0.0030146,0.012356,0.013789,0.0029875
0.064552,0.080589,0.014951,0.0080361,0.011884,0.020508,0.040437,0.071639
0.0078353,-0.087836,-0.010015,-0.013379,-0.0028038,-0.017573,0.089498,0.24061
0.0186,-0.0010595,-0.014609,0.010342,-0.017975,-0.04734,-0.30038,-0.48391
-0.013141,0.0050328,0.063063,0.0087042,-0.0027102,0.016929,0.065948,0.12342
-0.048438,-0.045659,-0.08179,-0.026025,-0.0040965,0.010924,0.032346,0.03856
-0.079042,0.082016,0.066898,0.031497,0.0090886,-0.0031063,0.028901,-0.050841
0.16943,0.068682,-0.013357,-0.013474,0.021402,0.060558,0.14994,0.24668
-0.059495,-0.15505,-0.086838,-0.035222,-0.037097,-0.048246,-0.12734,-0.1456
-0.014307,0.013146,0.012048,0.013887,-0.017467,-0.0171,-0.021113,-0.085361
-0.0060385,0.11278,0.058203,0.025154,0.026145,-0.0022441,0.0081257,-0.070854
-0.017899,-0.043549,-0.0019215,-0.016569,-0.007353,-0.011391,0.0075051,0.18068
0.0054583,-0.049876,-0.027099,-0.0017145,0.015155,0.025941,-0.038554,0.02183
-0.014085,0.077581,0.099803,0.053964,0.039051,0.024019,0.049473,-0.062625
0.047792,-0.060406,-0.051598,-0.037458,-0.029591,-0.016955,0.036858,0.11451
0.088248,0.0197,0.017507,0.020263,0.0041632,0.012566,-0.0065876,-0.21333
0.027501,0.0046789,-0.022444,-0.031397,-0.016437,-0.035736,-0.081452,0.053968
-0.16742,0.0034535,-0.055656,-0.0055906,-0.0059622,0.0022623,-0.0086449,0.063101
0.095792,0.031567,0.057427,0.0191,0.0039177,0.0093818,0.039432,-0.039318
-0.12122,-0.090337,-0.050929,-0.043448,-0.026113,-0.0066084,0.054585,0.05754
-0.013913,0.029078,0.04902,0.049071,0.036703,0.032337,-0.03367,-0.13981
-0.081683,-0.038899,-0.087429,-0.015453,-0.0028133,0.016743,0.13414,0.17259
0.26255,0.07399,0.071976,0.005739,0.0040526,-0.053482,-0.23848,0.018205
-0.011058,-0.014101,-0.010668,-0.0039017,-0.0048423,0.016915,0.067905,-0.10208
-0.14329,-0.029061,-0.053053,-0.0438,-0.029136,-0.029886,-0.023974,0.063505
0.13257,0.044989,0.086184,0.019246,0.0095974,0.0092873,-0.044433,-0.052765
-0.12808,0.098465,0.071395,0.068167,0.041227,0.064206,0.12453,-0.096224
0.12962,-0.041139,0.0039639,0.032462,0.018911,-0.029099,0.061548,0.022288
-0.039869,-0.22633,-0.16353,-0.11178,-0.073092,-0.051813,-0.022314,-0.01476
-0.20749,0.065192,0.02129,0.0097806,0.014969,0.019504,-0.033623,-0.033725
0.14155,0.090092,0.026432,0.021391,0.017134,0.028513,-0.090244,0.20785
0.1391,0.066041,0.062248,0.023929,0.0033465,-0.01716,-0.013404,0.013155
-0.028287,-0.031276,-0.051277,0.0012605,-0.018932,-0.00059883,0.016196,-0.035018
-0.21295,-0.04619,-0.064183,-0.031217,0.020336,0.038815,0.091338,0.019882
0.16274,0.044556,0.054973,0.012533,0.01162,-0.00077704,0.054967,0.11829
-0.018527,-0.0087507,0.064341,0.0079455,-0.0060149,-0.033631,-0.10908,-0.31457
0.040446,-0.088151,-0.043523,-0.020839,-0.01677,-0.0050743,0.067783,0.014973
-0.081442,-0.0049572,-0.026139,-0.026077,-0.012496,0.006973,-0.0079735,0.28528
-0.031485,0.031341,-0.00054311,-0.0068934,-0.016172,-0.05175,-0.21071,-0.36221
0.090116,0.022231,0.064488,0.045251,0.011772,0.030284,0.077712,-0.0028128
-0.035576,0.031495,-0.018725,0.021418,0.04056,0.050598,0.13964,0.13327
-0.024622,0.052185,-0.031721,0.023238,-0.0075787,-0.029284,0.062085,-0.019528
-0.056078,-0.095064,0.0017458,-0.012095,0.00034322,0.0019798,-0.17757,0.019706
0.10436,0.019192,-0.035789,-0.038299,-0.0060116,-0.0039045,0.085228,0.15257
-0.0051151,0.06609,0.06643,0.014187,0.0043983,0.015411,0.045868,0.052386
0.004476,-0.10388,-0.043217,-0.035078,-0.023459,-0.01081,-0.061557,-0.070278
0.10748,0.047106,0.041582,0.0086025,0.0037514,0.018364,-0.042293,-0.06108
-0.10481,-0.021208,-0.046207,-0.0036074,-0.0081453,-0.04623,-0.029884,0.069309
-0.064386,0.018281,0.045183,0.045327,0.042035,0.06032,0.06863,-0.21345
0.023933,-0.053918,-0.051232,-0.047654,-0.041314,-0.053194,0.0024988,0.0098506
0.081223,0.066469,0.016272,0.022346,0.015054,-0.0043312,0.052342,0.057776
-0.11099,-0.011276,-0.010039,-0.017834,0.00012667,0.027108,-0.032268,0.093737
-0.043545,0.048985,0.080762,0.043009,0.023312,0.017835,0.029763,-0.0068833
-0.011167,-0.072625,-0.055159,-0.013677,-0.024632,-0.039594,-0.11297,-0.19608
0.16848,-0.016116,0.0039616,0.0075413,-0.010686,0.011593,0.055647,0.043253
0.0058733,0.016113,-0.023201,-0.026099,-0.0049088,-0.0077123,-0.033984,0.275
-0.035725,-0.022043,-0.042868,-0.020824,0.00077787,-0.0032194,-0.045077,-0.054539
-0.0093846,0.16704,0.17171,0.070285,0.045677,0.033302,0.11691,-0.17156
-0.34404,-0.1269,-0.12911,-0.041729,-0.018464,0.00052696,-0.039658,0.18935
0.46797,-0.012686,-0.015137,-0.020744,-0.019651,-0.031196,-0.0067367,-0.25375
0.027269,0.0022602,0.029836,0.02412,0.026538,0.04737,0.16864,0.28734
-0.011346,-0.027198,-0.040535,-0.0084145,-0.0049026,-0.014034,-0.11553,-0.29757
-0.13393,-0.0074102,-0.0071599,-0.024351,-0.035899,-0.028211,-0.10204,0.13944
-0.27172,0.0064961,0.020593,0.015506,0.011597,0.0045599,0.067892,0.051397
0.12874,0.060586,0.057928,-0.0060825,-0.018773,-0.056548,-0.10615,-0.22545
-0.066165,0.0052702,0.025871,0.035618,0.029105,0.046165,0.070925,0.31736
0.29934,0.034494,0.0013793,0.030771,0.030067,0.047036,0.067851,-0.12404
-0.048455,0.029698,0.014434,0.017862,0.022993,0.0242,0.017518,-0.048851
0.06208,-0.11178,-0.092308,-0.073993,-0.07041,-0.10044,-0.11126,-0.0033595
-0.13489,0.00012631,-0.014806,-0.010838,0.0075601,0.040305,0.0096013,0.036089
0.11834,-0.0015812,0.0047341,0.0040451,0.0068881,0.001144,0.012701,-0.15731
-0.24063,0.0090879,0.013847,0.0020662,0.0058009,0.024256,0.24924,0.31415
-0.04733,-0.044298,-0.025308,-0.024142,-0.011116,-0.038794,-0.28904,-0.21468
0.12873,-0.011165,-0.025248,0.004175,-0.012329,0.015139,0.061524,0.15337
0.1402,0.10289,0.070263,0.040805,0.025893,0.029855,0.011627,-0.012493
-0.050734,-0.02836,0.051524,0.023792,-0.0055801,-0.041432,-0.071496,-0.11915
0.0024604,0.049445,0.012965,0.015948,0.018387,0.0045306,0.12503,0.21635
-0.066331,-0.085234,-0.068843,-0.03739,0.0040438,0.011644,-0.054365,-0.38774
-0.084458,0.012284,-0.030473,-0.027088,-0.040938,-0.019939,0.0084052,-0.0076055
0.089097,0.043611,0.033196,0.0073568,0.023816,0.0036587,-0.076308,0.21078
-0.014467,-0.024648,0.011411,0.010741,-0.0051306,0.027817,0.090824,0.20743
0.065277,0.094144,0.05906,0.021632,0.012533,0.0056514,-0.059875,-0.3594
-0.063227,-0.047633,-0.035882,-0.015035,-0.0015762,0.0073834,0.057794,0.08151
0.26284,-0.061151,-0.070918,-0.013532,-0.016369,-0.045271,0.0061426,0.092165
-0.34071,-0.048981,-0.038332,-0.012947,-0.00063333,-0.011891,-0.027949,-0.032586
0.038827,0.035669,0.031014,0.0024711,0.0066513,0.021368,0.017068,0.21956
-0.076225,-0.1033,-0.057491,-0.021751,-0.025591,0.0074211,-0.00054164,-0.23363
0.11802,0.10583,0.095366,0.031795,0.020046,0.024213,0.058781,0.19747
0.10554,0.078849,0.099585,0.053895,0.018775,-0.0065109,-0.13391,-0.13889
0.097248,-0.018531,-0.02108,-0.0022634,0.0020047,0.0011312,-0.00089568,-0.010112
-0.14865,0.0025302,-0.016644,-0.035138,-0.0067447,-0.038768,0.098484,-0.10345
-0.22517,0.002259,-0.043603,-0.0057205,0.0081602,0.0067257,-0.061843,-0.041605
0.11876,-0.034623,-0.039751,-0.015594,-0.015825,0.0049963,0.057988,-0.18782
0.10312,0.024631,0.026003,-0.0021861,-0.0084499,-0.0046599,-0.1114,0.21275
-0.052096,-0.062507,-0.064986,-0.020004,-0.016642,0.0014144,0.02461,0.18825
0.15421,-0.0074339,0.015793,0.03278,0.029886,0.031189,0.099445,-0.015444
-0.1991,-0.02938,0.0032935,-0.015429,-0.009487,-0.0090225,-0.019463,0.11929
0.028928,0.050893,0.069992,0.030899,0.013696,0.01356,0.034923,-0.063749
0.049109,0.053286,0.0053985,-3.3497e-05,-0.0021083,-0.010539,-0.034739,-0.10525
0.040603,0.016479,0.0049735,-0.0067598,-0.017835,-0.018936,-0.010332,-0.015832
-0.013028,-0.052069,-0.033043,-0.0051688,0.013374,-0.011717,-0.048712,-0.03307
-0.058068,0.011417,0.031475,0.012174,0.0055494,0.018918,0.013763,0.097884
0.013866,0.019272,-0.0052621,0.0057959,0.0055268,-0.0129,-0.026179,-0.34396
-0.032501,-0.0050625,0.020143,-0.0012099,-0.010161,0.0023362,0.019099,0.22599
-0.041669,-0.084821,-0.095936,-0.04811,-0.018086,0.010085,0.0093001,-0.16938
0.032658,-0.032134,-0.056858,-0.017738,-0.0026112,-0.012977,-0.016112,0.23549
0.11193,0.075328,0.090556,0.043191,0.012853,0.011307,0.044769,0.14382
-0.046288,0.0036143,-0.020596,-0.005658,-0.002915,0.028181,0.074964,0.0088044
0.14387,0.09676,0.10228,0.039185,0.036032,0.014041,0.0042185,0.080407
-0.20803,-0.035775,-0.016965,-0.017269,-0.018756,-0.06259,-0.105,-0.36787
0.070429,0.027775,0.028265,0.0049114,-0.0032554,0.0089908,-0.065217,-0.015301
-0.13705,-0.14252,-0.13679,-0.034766,-0.019076,0.0020308,0.061096,0.021864
-0.04802,-0.0078547,-0.011994,0.012154,-0.0037585,0.017986,0.016261,0.065458
0.25294,0.079975,0.090209,0.012783,0.011424,-0.029087,-0.066732,-0.0076058
-0.045387,-0.027594,-0.033327,-0.017397,0.010849,0.032773,0.054431,0.12497
-0.11386,0.020957,0.015737,0.0073732,0.0023599,0.0005943,0.059403,-0.14454
0.11837,0.077206,0.041912,0.02441,0.0016343,-0.016056,-0.036462,0.036413
-0.012737,-0.11663,-0.072246,-0.028946,-0.014692,-0.009172,-0.014926,0.027347
-0.023299,0.048844,0.04014,0.0034318,0.00034742,0.013603,0.021765,0.16349
0.10923,-0.02013,-0.027506,0.0042884,0.007792,0.036766,0.20571,0.037264
-0.24129,0.0045327,0.021399,-0.01077,-0.015692,-0.06462,-0.40115,-0.18886
-0.091718,0.036829,0.030394,0.012968,0.01592,0.029758,0.14621,-0.12568
0.24424,-0.048331,-0.031856,-0.018199,-0.0066896,-0.0082867,-0.0036872,0.03052
0.015498,-0.0010465,-0.048103,0.02079,0.002421,-0.0069952,-0.022308,-0.0565
0.010233,0.014513,0.036545,0.012806,0.0041345,0.033475,0.14569,0.22288
0.055993,0.045124,0.042708,0.0047822,0.0061471,-0.012057,-0.092726,-0.24796
-0.1755,-0.073356,-0.076137,-0.02666,-0.0073334,-0.0031482,-0.010352,0.21125
0.089581,0.049656,0.02408,-0.011142,-0.013069,-0.018077,0.018244,0.09297
-0.11653,0.00010841,0.038886,-0.0032757,0.012173,0.0055534,0.040107,-0.0013734
0.074879,-0.026602,-0.016035,0.012631,-0.0021077,0.020833,-0.054233,-0.15046
-0.068685,-0.0068756,-0.02361,-0.0024429,0.0064434,-0.019075,0.0083582,-0.011317
0.087532,0.004832,0.047152,0.013987,-0.009135,0.0031199,0.016523,0.071534
0.076432,0.032242,-0.0072152,0.014963,0.0058278,0.00944,-0.0067439,-0.097731
-0.26502,-0.041532,-0.030794,-0.023104,-0.011112,-0.031196,-0.046186,-0.019241
0.19614,0.041604,0.030873,0.0089682,0.010482,0.02981,0.015152,-0.020854
0.06068,0.0084395,-0.0097693,0.017236,0.016102,0.012897,0.06784,0.16359
0.061274,-0.094006,-0.11351,-0.045326,-0.033098,-0.019362,-0.036437,-0.15277
-0.19499,0.07806,0.10279,0.0087156,0.011552,-0.0044483,0.0072893,0.13217
0.094057,0.0011342,0.030206,0.015329,0.0018321,0.01073,-0.01933,0.0030869
0.058967,-0.012449,-0.026127,-0.009738,0.00042446,-0.012959,-0.053338,0.092903
-0.1769,0.0058167,-0.018968,-0.0037988,-0.00036153,0.0025217,0.038524,-0.12969
-0.051775,0.00095971,0.01282,0.002105,0.0073362,0.010214,0.037867,-0.10224
0.028307,0.0039504,0.0067365,0.023788,0.01568,0.017867,0.046466,0.0034455
0.12691,-0.063568,-0.029601,-0.0089169,-0.030107,-0.021419,-0.045022,0.10951
0.03476,0.048256,0.067539,0.0056414,-0.012975,-0.037317,-0.072691,-0.041425
0.027203,0.050307,0.00089087,0.012822,0.035661,0.040542,0.064709,-0.042645
-0.096994,-0.057367,-0.058021,-0.034224,-0.01718,-0.0065144,-0.023891,0.043697
0.007551,0.022237,0.0077518,-0.0026605,0.0080293,0.0090958,0.028172,-0.0010756
-0.017318,-0.038829,-0.020626,-0.0018284,0.0017771,0.0014975,-0.037491,0.19775
0.016628,0.025242,-0.025922,0.0073601,-0.0047932,-0.0058455,-0.010534,-0.18858
0.031465,-0.019791,0.015405,-0.014171,-0.019569,-0.012952,0.04598,-0.00471
-0.082505,-0.0020237,0.0018544,0.011613,0.0042769,0.0035546,-0.001237,-0.025043
-0.037023,0.055,0.089608,0.03764,0.027659,0.020137,0.034994,-0.070762
0.13546,-0.044281,-0.010633,-0.022327,-0.011928,-0.025824,-0.025094,0.068454
-0.027437,0.043529,0.021085,0.011028,0.0027133,0.0061713,-0.025008,0.13455
0.082165,-0.010069,-0.049977,-0.0032821,0.0013112,0.014455,-0.01102,0.065239
-0.052625,-0.025673,-0.052159,-0.018656,-0.0082406,-0.0010345,-0.013426,-0.16225
0.036165,0.035695,0.038058,0.019503,0.013259,0.022206,0.008044,-0.14055
-0.14372,-0.02108,-0.01325,-0.021477,-0.0042973,-0.032925,-0.031247,0.11615
-0.044713,-0.031443,-0.025606,-0.016215,-0.021587,-0.033443,0.080818,0.13284
0.13926,-0.018103,-0.021454,0.012418,0.00074278,0.036507,-0.037726,-0.26878
-0.18382,-0.011495,0.062685,-0.013059,0.00046165,-0.018135,-0.019349,0.013712
0.073654,-0.018738,-0.038097,-0.0061252,0.0011988,0.013783,0.049761,0.13663
0.061212,0.069912,0.028007,0.025794,0.018637,0.023003,0.020344,0.19286
0.068088,0.051207,0.065343,0.043723,0.0057871,-0.0061219,0.016137,-0.10061
0.077724,0.05731,0.026125,0.0083494,0.017054,0.012176,-0.042479,0.12889
0.017891,-0.076937,-0.067531,-0.033997,-0.026107,-0.055214,-0.0476,-0.3164
-0.1686,-0.063785,-0.053031,-0.037171,-0.014803,0.010078,-0.031691,0.053697
-0.023336,0.079892,0.076128,0.04494,0.027068,0.059219,0.066963,-0.027534
0.10805,-0.060866,-0.048118,-0.030496,-0.025853,-0.025319,-0.0019223,0.096271
-0.03303,-0.041086,-0.043219,-0.013889,0.0059313,-0.025012,-0.02721,-0.050108
-0.070909,-0.032348,-0.018159,0.00089898,-0.010397,0.0053833,0.015126,0.027849
-0.066058,0.099025,0.05145,0.021859,0.019088,0.0034723,0.03217,0.02054
-0.02324,-0.028521,0.010666,-0.0131,-0.014681,-0.01486,-0.029831,-0.12381
0.014127,0.0082968,0.0015228,-0.0018725,-0.0019502,0.0054438,0.056588,0.089359
0.1351,0.062354,0.048719,0.040492,0.018597,0.01011,-0.074993,0.012994
-0.017599,0.040927,0.043815,0.012951,0.023849,0.022965,0.021313,0.006584
0.13477,-0.12567,-0.059553,-0.021593,-0.025025,-0.0025602,0.0021088,0.18614
-0.02597,-0.030989,-0.073812,-0.039437,-0.0028951,-0.019405,-0.038726,-0.083369
-0.033414,0.082551,0.00072277,0.0064102,-0.011293,-0.0040748,0.078422,-0.13292
-0.023505,-0.051262,-0.016283,-0.0090686,-0.0033904,-0.011319,-0.021684,0.011174
-0.06195,-0.0036224,0.030518,0.015542,0.012894,0.021202,-0.019084,-0.044141
0.083045,0.060314,0.07754,0.017482,-0.0016534,0.015139,0.038942,0.098025
-0.2853,-0.016905,-0.01701,0.012023,-0.0081513,-0.045397,-0.066758,-0.14097
0.11409,-0.0098953,0.0035671,-0.0012361,0.0088252,0.019016,-0.024038,0.067473
-0.11625,0.072528,0.036827,-0.0070602,0.017826,0.028443,0.026188,-0.11922
0.31445,-0.043743,-0.027078,0.0020555,0.010866,-0.0016837,0.075891,0.20677
-0.076335,-0.085478,-0.11776,-0.02874,-0.0278,-0.016804,0.031173,0.22672
0.064531,0.010146,-0.023609,-0.021305,-0.027897,-0.040402,-0.10024,-0.28457
-0.0042179,0.064278,0.10029,0.032364,0.01844,0.013489,-0.029307,0.056697
-0.016735,-0.015599,-0.010216,0.0075842,0.025411,0.05121,0.048714,-0.36602
-0.035843,-0.048366,-0.025534,-0.017152,-0.038043,-0.020867,-0.014495,0.47885
-0.085557,0.045495,0.024256,0.013173,0.007959,-0.022924,0.039047,-0.0022943
0.013298,0.0014658,0.038219,0.020652,0.038573,0.029534,-0.0013999,-0.26255
-0.012931,-0.015757,0.0084995,-0.018091,-0.02425,-0.0040155,-0.010635,-0.012889
0.054685,0.025123,0.0047283,0.0062187,-0.00084438,-0.0062913,-0.035344,0.15286
-0.15835,0.061066,0.010125,-0.00039711,0.0071178,-0.0006366,0.049633,0.02363
0.19237,-0.049573,-0.062605,-0.014798,-0.00053023,-0.018193,-0.060278,-0.14301
0.068368,-0.034656,-0.011591,0.0095966,-0.0083418,0.0036642,0.025603,0.14477
-0.10815,-0.0049,0.0060386,-0.0055591,0.0069804,0.018197,0.0025575,-0.13695
0.053424,0.0073032,-0.0022392,0.0021315,-0.0014988,0.0099106,0.026716,0.19873
-0.064496,0.063702,0.03414,0.0092661,-0.0024872,-0.013283,-0.0036893,-0.12219
0.029633,-0.11721,-0.087201,-0.023057,-0.01928,-0.020086,0.0048293,0.079456
-0.039962,0.042944,0.025411,-0.0086538,0.010838,-0.0027119,-0.041747,-0.20446
0.069707,0.013591,0.052763,0.013681,0.0021657,0.030915,0.051677,0.088469
-0.11857,-0.008999,0.027011,0.012927,-0.0060343,-0.0053361,-0.043142,0.059888
-0.058416,0.030918,0.011186,0.0048408,0.017601,0.013273,-0.037126,-0.13374
0.34359,0.024943,-0.01026,0.020687,0.018379,0.0083248,0.062056,0.14062
-0.40495,-0.026173,-0.022049,-0.0099455,-0.01945,-0.059526,0.0046503,0.039339
0.2427,-0.036051,-0.032648,-0.02473,0.0054652,0.020433,-0.021544,-0.070429
-0.010358,0.011031,-0.0116,-0.0082349,-0.00086672,0.021503,0.022833,0.16275
0.039116,0.021101,0.063768,0.0081271,-0.015223,-0.0094701,-0.049473,-0.18316
0.0086517,-0.037575,-0.064963,-0.014807,-0.014301,-0.01773,0.035136,-0.17073
-0.10109,0.02967,0.015902,0.024496,0.0096749,0.028124,0.011091,0.24699
-0.023486,0.034641,0.0093787,-0.0067529,0.0020773,-0.0045239,-0.035716,-0.054755
-0.13225,0.0079716,0.009334,0.00087324,0.0099003,0.0017292,0.066466,-0.028749
0.10523,-0.042949,0.00042842,0.0083622,-0.0057852,-0.023227,-0.041905,-0.041839
0.065118,0.045796,0.053355,0.023558,0.025436,0.022335,-0.0094298,0.085886
0.068364,-0.10846,-0.058043,-0.039467,-0.021391,-0.0099091,-0.03155,0.1201
-0.025751,-0.044403,-0.036521,-0.0088434,-0.013475,-0.0027197,0.024482,-0.20497
-0.007212,0.027512,-0.030236,0.013864,0.025679,0.0048323,0.018034,0.18857
-0.01048,0.12331,0.1016,0.020858,0.017861,0.0205,0.050715,-0.12139
-0.014215,0.016571,-0.0082003,-0.01907,-0.036989,-0.026123,-0.080534,-0.072434
-0.028405,0.019631,0.0074473,0.0035263,0.0017456,0.013298,0.022796,-0.094119
0.038856,-0.055498,-0.00010746,-0.0050055,-0.022127,-0.0097655,-0.037685,0.26705
-0.024544,-0.0298,-0.038908,0.010131,0.0086924,-0.0016223,0.050531,-0.0040097
-0.031379,0.002313,-0.015387,-0.013461,0.024025,0.0064576,0.029585,-0.14104
0.073724,-0.061187,-0.039001,-0.013213,0.00054474,-0.016759,-0.045939,-0.073108
-0.12958,0.02176,0.054344,0.018708,0.00080351,-0.00091955,-0.01994,0.26276
0.079585,0.063917,0.022594,0.011941,0.0091508,0.030587,0.021468,-0.14876
0.031645,-0.027844,-0.0090605,0.0054335,-0.0057592,0.0074883,0.023425,-0.0029089
-0.15411,0.052045,0.037713,-0.0009727,-0.0049999,0.00012605,-0.022019,-0.034211
0.11759,-0.023555,-0.016579,-0.0074482,-0.012145,-0.038359,0.017876,-0.016486
0.15991,-0.034955,-0.031142,-0.014134,0.0039575,0.0014161,0.0024995,0.25281
-0.12896,-0.043941,-0.013668,0.0023283,-0.011422,-0.0055506,-0.028982,-0.35205
0.070263,-0.03454,-0.057855,-0.020565,-0.0035803,0.011034,-0.037325,0.14464
-0.072068,0.10249,0.070606,0.010997,0.01972,0.027683,0.01675,0.023218
-0.034135,0.046189,-0.0035242,0.018983,0.0038454,-0.010382,0.00063725,-0.014073
0.018664,0.014188,0.031812,0.011291,0.011327,0.021707,0.21135,0.13356
-0.015991,-0.049609,-0.0037165,-0.01203,-0.020343,-0.055889,-0.23386,-0.19067
-0.15379,-0.03727,-0.0093138,-0.0041133,0.0025474,0.0066831,-0.014721,0.036467
0.21522,0.010966,0.0064546,0.0037391,0.0096396,0.02182,0.079587,0.057377
0.021731,0.016341,0.011781,0.011454,0.0087258,0.02074,-0.013578,0.028966
-0.10815,0.0023896,0.006485,-0.012274,-0.023594,-0.012112,0.018133,-0.11804
0.021826,0.0012308,-0.0091027,-0.0049501,0.0065411,0.009377,-0.0050848,-0.093319
0.044943,-0.10279,-0.10441,-0.021198,-0.025685,-0.04733,0.033897,0.20599
-0.12486,-0.018695,0.010965,0.017239,0.01276,-0.0022024,-0.052404,0.015292
0.18356,0.067983,0.018322,0.0089707,0.012709,0.020109,-0.02952,-0.14921
0.062737,0.057271,0.036407,-0.014578,-0.0022638,-0.003551,-0.030128,0.0014907
-0.051288,0.067252,0.042975,0.03266,0.022538,0.036334,0.078713,0.20102
-0.19116,-0.027059,-0.023915,-0.028951,-0.030212,-0.032163,-0.015444,-0.083176
0.0092563,-0.023405,0.046451,0.01929,0.018891,0.025071,0.031087,-0.024622
0.025987,-0.04836,-0.028162,-0.01807,-0.0024113,-0.0033291,0.014993,0.031278
0.062175,0.0054853,0.016291,0.015002,0.0070333,0.0071136,-0.009306,-0.08865
-0.014517,-0.0045045,-0.025201,0.0010712,-8.5186e-06,-0.0066096,-0.010815,-0.033485
-0.039289,-0.0097384,-0.052929,-0.013232,-0.031577,-0.037077,-0.059992,0.18136
0.14491,0.027653,0.02534,0.0031463,0.0060323,0.0092696,0.0072624,-0.1227
-0.094023,-0.049121,-0.010087,-0.020233,0.011413,-0.00034031,0.019314,-0.1001
0.072585,0.01787,-0.003225,0.01815,-0.0072902,0.0046676,-0.031247,0.071699
-0.057974,-0.02069,-0.047426,-0.0066615,-0.010567,0.0012756,0.03573,0.012136
-0.040016,0.10973,0.13169,0.038256,0.033314,0.029035,0.056593,0.1449
0.11908,-0.027034,-0.011445,-0.010991,-0.0080283,-0.013151,-0.030904,-0.25554
-0.19733,0.0078958,-0.030058,-0.021378,-0.0092929,-0.015547,-0.031416,0.15458
-0.019808,-0.081047,-0.032107,-0.0082882,-0.0016038,-0.0013882,0.0079932,0.14766
0.22264,-0.019321,-0.024209,-0.0027248,0.0071601,0.029355,0.016646,0.003092
-0.23503,0.037624,0.025719,0.011165,0.0011318,-0.025011,0.0097139,-0.31273
0.23245,0.019888,-0.014774,0.002303,0.0033795,0.0071392,-0.036679,0.10405
-0.085973,-0.01006,0.01821,-0.0057905,-0.002151,0.00049846,0.025579,0.087422
0.067001,-0.021454,0.0068136,0.0024807,-0.01587,0.0094586,-0.0224,-0.043496
-0.043833,0.062947,0.074963,0.026976,0.016595,-0.013078,0.0069691,-0.015485
-0.0288,0.054492,-0.028639,-0.002844,0.0013285,0.0030969,-0.018827,-0.015288
0.0096739,-0.048051,-0.0083854,-0.0091204,-0.0069621,-0.0123,0.0022343,0.075854
-0.13213,-0.058279,-0.013704,-0.0077237,-0.0080776,-0.012243,0.094131,-0.099353
0.1784,-0.039465,-0.091972,-0.022264,-0.0016776,0.026927,-0.094177,0.00035094
-0.18359,-0.0075698,0.0068991,-0.0059347,-0.010787,-0.019557,-0.015401,-0.12312
0.21201,0.068773,0.049171,0.025672,0.019675,0.035978,0.057248,0.32057
-0.1108,-0.013084,-0.011011,-0.0054629,-0.0037548,-0.032976,-0.048121,0.042793
0.043762,-0.018076,0.0071906,0.0023487,-0.0028459,0.015679,0.051034,-0.058438
0.027534,0.023274,0.011036,0.010142,0.022293,0.0098436,-0.020793,-0.26553
-0.089212,0.056909,0.040236,0.0023271,0.0088531,0.0038848,0.016971,0.044927
0.005652,0.012972,0.032469,0.0023024,-0.0045485,-0.010356,-0.031737,0.050884
-0.0088659,-0.045751,-0.035985,-0.0056487,-0.018396,-0.017548,0.043322,0.055452
0.13197,-0.04097,-0.0094793,0.0018053,0.0059626,0.021199,-0.00057747,0.19803
-0.10404,-0.0038196,0.017504,-0.0066613,-0.025467,-0.026934,-0.069968,-0.29555
0.21977,-0.035753,-0.11194,-0.023244,-0.011142,-0.013345,0.014854,0.011963
-0.34248,0.043023,0.047093,0.014633,0.025702,0.023209,-0.0036292,0.027055
0.0059988,0.021619,-0.028976,-0.01007,-0.0083059,0.020616,9.1445e-05,0.062788
0.1484,-0.014105,0.027156,0.020024,0.0123,-0.0051065,0.050069,-0.1223
0.093378,0.029334,0.043859,0.011353,0.0098515,0.0010666,0.0062905,0.2147
-0.10318,0.010834,0.029181,-0.004688,0.00033234,0.00029863,0.033345,-0.06625
-0.033688,-0.015562,-0.0011359,0.0032266,-0.00042606,-0.015134,-0.071509,0.019622
-0.0094038,0.01193,-0.023711,-0.011782,-0.00020204,-0.0062226,-0.0033496,-0.019607
-0.06063,-0.047974,-0.062194,-0.026352,-0.030366,-0.027842,-0.051156,-0.19154
0.070902,-0.0082421,0.00030907,0.014068,0.026035,0.052525,0.058456,0.18378
0.056925,0.013764,0.061958,0.015557,-0.0031618,0.00014015,0.036246,-0.049516
0.084221,0.033836,0.036657,0.0091845,-0.0010576,0.025561,-0.016518,0.038749
0.065708,0.013406,-0.013044,0.010408,0.00085893,-0.027792,0.0013414,-0.043041
