0.060719,0.035361,-0.10535,0.042591,0.036678,0.029227,0.028168,0.030726
0.03792,-0.016288,-0.062026,-0.0084788,0.00041191,-0.008894,0.0038953,2.211e-05
0.053631,0.40545,0.36842,0.025442,-0.0049778,0.0073699,0.0028086,0.015586
-0.20427,-0.56659,-0.53264,-0.043928,-0.018974,-0.023721,-0.029704,-0.047651
-0.047318,0.3953,0.22011,-0.037313,-0.0262,-0.031851,-0.023109,-0.048804
0.18223,0.15759,0.22996,0.24079,0.13743,0.084777,0.06985,0.1143
-0.17019,-0.37438,-0.0085911,-0.13837,-0.090237,-0.095256,-0.078457,-0.10437
-0.1735,-0.27191,-0.75084,-0.21228,-0.052296,-0.016673,-0.037834,-0.071071
0.33693,0.11996,0.26312,-0.064912,-0.05258,0.032039,0.051471,0.089879
-0.37401,-0.44274,0.050021,-0.17877,-0.11367,-0.097181,-0.0917,-0.16036
0.76959,1.1077,0.77351,0.54106,0.31195,0.21287,0.21203,0.33399
-0.2827,-0.55254,-0.41228,-0.085198,-0.10368,-0.038226,-0.022429,-0.014158
0.035102,0.63501,-0.16713,0.18306,0.17812,0.062737,0.031983,0.059114
-0.11714,-0.067875,0.34067,-0.10246,-0.13271,-0.086915,-0.079024,-0.15902
-0.32853,-0.5465,-0.14277,-0.086254,-0.11567,-0.06646,-0.090855,-0.13111
0.063671,0.22265,-0.15119,-0.092579,0.024561,-0.0409,-0.035413,-0.053478
-0.22092,-0.78043,-0.42713,-0.12457,-0.09628,-0.010763,0.0012328,-0.0043302
0.71131,0.61516,0.56267,0.15211,0.16915,0.11767,0.13667,0.22025
-0.18976,-0.25295,-0.62314,0.24565,0.21872,0.12613,0.067035,0.06704
-0.16874,-0.085196,-0.042086,-0.56816,-0.40849,-0.24238,-0.15975,-0.19649
-0.23595,0.10454,0.52935,-0.043218,-0.032154,-0.033653,-0.042612,-0.09197
0.33954,0.57286,0.71958,0.44249,0.29424,0.16746,0.13808,0.26486
0.076187,-0.2483,-0.51692,0.37821,0.10357,0.018171,0.015703,0.01548
-0.17364,0.65408,0.41281,-0.38043,-0.22729,-0.066791,-0.097079,-0.19931
0.073181,-0.32857,-0.62651,-0.13545,-0.040142,-0.0089721,0.041708,0.057507
-0.10049,-0.78441,-0.99768,-0.42507,-0.12234,0.01191,0.001863,-0.019751
0.33218,0.39244,1.0222,0.5934,0.074223,0.058032,0.063967,0.13797
-0.46979,-0.74635,-0.46078,-0.2313,0.057876,-0.13675,-0.13983,-0.15031
0.27778,0.63406,1.0111,0.7452,0.28918,0.1301,0.10091,0.12219
-0.27289,0.0040723,-0.7757,-0.61461,-0.18623,-0.095121,-0.081247,-0.14672
0.21159,0.45444,0.0513,-0.10415,0.028198,-0.00034986,0.0091048,-0.0040104
0.38672,0.42289,1.0606,0.42962,0.1178,0.19538,0.17703,0.22264
-0.57443,-0.71231,-0.81119,-0.60841,-0.2866,-0.17988,-0.19409,-0.24714
0.0029477,-0.453,-0.32125,-0.092541,-0.27235,-0.10262,-0.048879,0.0096653
-0.017482,-0.44738,-0.22493,0.057882,0.20679,0.091461,0.074187,0.095787
0.048928,0.48553,0.013364,0.21377,0.088452,-0.01143,0.0036286,-0.065908
0.44144,0.54226,0.68846,0.71508,0.50623,0.2687,0.20049,0.27524
-0.29682,0.43365,-0.076056,-0.56748,-0.40587,-0.2007,-0.15576,-0.2008
0.10245,-0.10043,-0.039787,0.17318,0.10359,0.088446,0.059454,0.091831
-0.25822,-0.57266,-0.0026491,-0.40567,-0.31546,-0.23862,-0.16224,-0.20658
0.175,-0.33419,-0.64152,-0.069996,0.0024386,-0.0019711,0.022371,0.0050688
0.016847,0.19922,0.40344,0.30367,0.066184,0.0876,0.03475,0.023076
-0.37704,-0.085169,0.052217,-0.41214,-0.076825,-0.063687,-0.094131,-0.12197
0.55915,0.44856,0.77743,0.59982,0.28409,0.26259,0.22932,0.37384
-0.13239,-0.18972,-0.84811,-0.085578,0.06966,-0.067002,-0.057478,-0.068545
0.19257,0.18102,0.77135,0.49746,0.23899,0.095104,0.076717,0.088971
-0.51592,-0.56321,-0.97894,-0.91877,-0.53039,-0.23633,-0.19615,-0.30289
0.32659,0.39143,-0.63448,0.28211,0.32984,0.15682,0.13191,0.17726
-0.25612,0.27395,1.005,-0.62576,-0.61124,-0.32718,-0.18876,-0.23622
-0.058822,0.096672,-0.21821,0.39863,0.16953,0.085465,0.029744,0.027545
0.17973,0.19515,0.5701,0.23295,0.18073,0.075208,0.069113,0.071084
0.0026969,-1.0369,-0.18501,0.20798,0.095704,0.10396,0.070283,0.075238
0.3047,0.19623,0.11018,0.11474,0.18189,0.13355,0.088036,0.15825
-0.286,-0.24465,-0.62996,-0.084922,0.0034334,-0.069815,-0.088731,-0.13228
0.021645,0.26818,0.56427,-0.53968,-0.40719,-0.099716,-0.022897,0.008611
0.040691,0.35368,0.11677,0.29626,0.10683,-0.026688,-0.035267,0.0026659
-0.19072,-0.083169,-1.0318,-0.21154,-0.071791,-0.10907,-0.087271,-0.18184
0.075276,-0.19681,0.27124,-0.049167,0.11872,0.058678,0.03162,0.040358
0.046593,0.21218,0.18669,0.43806,0.16934,0.10077,0.055483,0.051321
0.18859,0.4007,0.34383,-0.016629,-0.054232,0.039887,0.07787,0.1003
-0.080054,0.09883,0.57396,0.023783,-0.0065667,0.03163,0.0049259,0.014742
-0.050863,-0.41729,-0.92604,-0.29192,-0.13403,-0.10409,-0.03835,-0.033957
0.048431,0.40411,0.17966,0.084473,0.055198,0.015529,0.0028912,0.0086922
-0.14894,-0.66941,0.23343,-0.079088,-0.0086525,0.0081061,-0.02721,-0.021153
-0.18779,-0.68407,-0.43873,-0.14669,-0.19917,-0.13323,-0.088926,-0.15405
0.24778,0.46126,0.38759,0.40075,0.24354,0.13972,0.092098,0.12678
0.0056743,0.11522,-0.070503,-0.097609,0.0093232,-0.030889,-0.014328,-0.013169
-0.066297,-0.050679,-0.32167,-0.27224,-0.17315,-0.088938,-0.063433,-0.088038
0.081901,0.37639,0.25118,0.11214,0.088142,0.099417,0.070543,0.12994
-0.056003,0.0081435,0.24212,0.26562,0.1373,0.065806,0.044143,0.0086177
0.019503,0.090294,-0.61432,-0.19731,-0.11248,-0.096433,-0.064815,-0.069314
0.10275,0.0718,-0.0063719,0.13315,0.1181,0.072455,0.047426,0.074922
0.19736,0.16019,0.12632,0.087745,0.013805,0.062883,0.051292,0.080356
-0.24868,-0.12947,0.63147,-0.13575,-0.10802,-0.064699,-0.062773,-0.1019
-0.15454,-0.29952,-0.12899,-0.29195,-0.16415,-0.14037,-0.069956,-0.10673
0.14756,0.040003,0.22978,0.22539,0.10912,0.060939,0.059556,0.071942
-0.071262,-0.21606,-0.34403,-0.12389,-2.085e-05,0.022804,0.012397,-0.0045071
0.11858,0.4045,0.27203,0.37217,0.14936,0.05776,0.022824,0.077692
-0.1792,-0.66507,-0.88189,-0.33816,-0.14452,-0.052124,-0.072557,-0.10277
0.015963,0.3672,0.011934,-0.016083,-0.028017,-0.024176,-0.038001,-0.021126
-0.033053,-0.27968,0.14199,0.077892,0.040381,-0.012888,0.02678,0.04324
-0.024187,0.021662,-0.11375,-0.10591,-0.030691,-0.00085835,0.061321,0.10025
0.10939,0.06928,0.30202,0.13978,0.065396,0.052461,0.0049977,-0.11368
0.40163,0.88354,0.54542,0.27853,0.13456,0.069911,0.0076591,0.12183
-0.33431,-0.19341,-0.45089,-0.32161,-0.15875,-0.04193,-0.047159,-0.24687
0.040865,0.0094033,0.20891,0.088418,0.044469,0.013522,0.051411,0.16327
0.00083405,-0.44514,0.0090877,0.0062328,-0.014596,-0.045751,-0.033408,0.1017
-0.20813,-0.22552,-0.16346,-0.26676,-0.14195,-0.080158,-0.053087,-0.16726
0.1368,-0.049441,0.83479,0.39091,0.18447,0.088929,0.076446,0.12802
0.063799,0.55306,-0.69472,-0.062946,-0.044329,-0.023753,-0.029589,-0.061421
-0.16336,-0.11739,-0.23541,-0.12273,-0.0010461,0.010906,-0.02138,-0.065648
0.10328,-0.037198,-0.75709,-0.10197,-0.0063748,0.067693,0.27172,0.23102
-0.041674,-0.34941,0.19051,-0.031672,-0.06808,-0.087628,-0.30703,-0.18002
0.012965,0.25358,0.17187,0.058201,0.017346,-0.0093448,0.070919,0.076318
-0.058641,-0.22849,0.57424,0.052365,0.00046966,-0.04068,-0.17916,-0.30375
0.081636,0.17606,0.58145,0.1716,0.10843,0.076672,0.05391,0.079702
-0.025543,-0.16919,-0.83651,-0.12146,-0.048979,-0.00073697,0.09245,0.056509
0.15174,0.16111,0.70767,0.041401,0.01282,0.047407,0.070986,0.28441
0.027197,0.19132,-0.87262,-0.011397,-0.042167,-0.076101,-0.025081,-0.079438
-0.23635,0.0045229,0.21428,-0.030237,0.051451,0.089084,0.038705,-0.011433
0.03121,0.046767,0.34289,-0.047199,-0.066001,-0.059307,0.019294,0.026951
0.085882,-0.1304,-0.043113,-0.039853,0.019299,0.0015417,-0.13957,-0.41057
0.11378,0.34989,0.11025,0.13929,0.026018,-0.0021407,0.22432,0.39367
-0.10444,-0.32433,-0.33571,-0.072982,-0.014469,0.015681,-0.031274,0.14201
-0.16206,-0.3399,-0.40655,-0.05994,-0.0080902,-0.038162,-0.24322,-0.4237
-0.065478,-0.25728,-0.2646,-0.11866,-0.12628,-0.12361,-0.083355,-0.029762
-0.0078033,0.35723,0.56385,0.21954,0.17047,0.18245,0.082121,0.06675
0.40411,0.37693,0.39018,0.15779,-0.0081356,-0.064078,0.090871,0.36683
-0.10083,-0.29977,-0.1617,-0.14768,0.02548,0.059617,0.077693,-0.1442
-0.15369,0.070382,-0.039716,-0.071884,-0.080434,-0.047603,-0.033803,-0.090646
0.19167,0.30925,0.18069,0.096206,0.048664,0.04374,0.015228,0.01211
-0.29151,-0.42526,-0.25064,-0.26816,-0.11131,-0.065618,-0.10326,-0.16428
0.17679,0.68877,0.38236,0.22609,0.14206,0.12301,0.19575,0.28583
-0.092994,-0.7846,-0.51056,-0.076642,-0.051249,-0.079416,-0.12849,-0.068128
0.052707,-0.12506,-0.075006,0.074369,-0.02761,-0.080645,0.078186,0.10105
0.0093079,0.30961,0.239,0.070422,0.14253,0.18069,-0.037789,-0.44182
0.070656,0.044217,-0.048859,-0.087985,-0.12655,-0.092844,-0.079491,0.33396
-0.10969,-0.17818,-0.44897,-0.1272,-0.10769,-0.12767,-0.07887,-0.12652
0.16157,0.16587,0.42793,0.0073606,0.020253,0.045739,0.050216,0.20809
-0.14787,0.36442,0.2064,0.26838,0.14102,0.045861,0.0040749,-0.099341
0.094936,-0.27209,0.29303,-0.055774,-0.002372,0.04605,0.088883,-0.040505
-0.13215,-0.012066,-0.10026,-0.02845,-0.018803,-0.022639,0.024993,-0.021118
-0.25646,-0.45224,-0.64364,-0.27549,-0.095703,-0.057666,-0.092488,-0.11886
0.15478,0.1939,-0.23301,0.038334,0.039957,0.074185,0.041982,0.08057
0.61279,0.76856,0.37724,0.30324,0.11393,0.083644,0.10053,0.19438
-0.36352,-0.36116,0.65223,-0.043371,-0.038853,-0.076874,-0.042133,0.066096
-0.076048,-0.45146,-0.52058,-0.063684,0.018108,0.029137,-0.042884,-0.17179
-0.18676,-0.171,0.28538,0.024228,-0.051816,-0.13057,-0.089945,-0.050786
-0.022556,0.19557,-0.72258,-0.13019,-0.030062,0.068248,0.089544,0.015034
0.36999,0.37188,0.49,-0.010092,-0.049036,0.00806,-0.059377,-0.10681
-0.12691,0.11238,-0.20028,0.010725,-0.037482,-0.10791,-0.021019,0.076547
0.032152,-0.32977,0.19828,0.02694,0.076168,0.10358,0.040872,0.011239
-0.13157,-0.21121,-0.2,0.0076713,-0.0037174,-0.036551,-0.0061068,0.033968
-0.042618,0.0059835,-0.095736,0.022848,0.012822,0.011279,0.049304,0.020172
0.1555,0.62317,0.94136,0.28225,0.20421,0.19266,0.10564,0.086989
-0.040036,-0.14594,-0.82351,-0.27839,-0.18778,-0.17217,-0.13417,-0.094281
-0.0067125,0.16935,0.65648,0.065492,-8.9962e-05,-0.052343,-0.022117,0.030053
-0.027669,-0.42096,-0.35903,0.069946,0.11746,0.13747,0.058443,-0.049013
-0.0024393,-0.38212,-0.40408,-0.25833,-0.14126,-0.072108,-0.049265,-0.035726
0.10006,0.15864,0.022562,-0.044491,-0.050817,-0.033111,0.013778,0.022228
-0.14124,0.24837,-0.050456,0.032595,-0.041561,-0.050415,-0.01815,-0.031726
0.048853,-0.11049,-0.28672,0.19332,0.12866,0.048013,0.011393,0.12294
0.063465,0.30495,0.93286,0.12728,0.077544,0.090782,0.048154,-0.044296
0.0071729,0.21853,-0.27315,-0.14779,-0.061152,-0.022957,-0.024458,-0.04019
-0.14812,-0.58322,-0.35896,-0.075412,-0.067531,-0.097081,-0.080813,-0.06665
-0.063585,0.076327,0.49087,0.025243,0.051739,0.080101,0.090562,0.057125
0.028591,-0.072663,-0.20172,-0.040761,-0.053965,-0.045544,-0.041254,-0.066525
0.27019,0.088997,0.14364,0.07772,-0.032495,-0.067524,0.047224,0.17203
-0.081079,0.045743,0.16682,0.051438,0.13191,0.13121,-0.034885,-0.047864
0.13754,0.24873,-0.29828,0.035015,0.056117,0.050152,0.094721,0.1401
-0.20908,-0.14176,-0.33121,-0.12967,-0.088684,-0.053709,-0.064624,-0.12471
-0.061309,0.01759,0.41271,0.047741,-0.0065181,-0.02509,-0.060495,-0.19521
-0.054941,0.096126,-0.022892,-0.059269,-0.06549,-0.068058,-0.018501,0.07583
0.15117,-0.40368,-0.46531,-0.092384,-0.008548,0.035397,0.045302,0.031285
0.070738,0.52174,0.51196,0.19786,0.070068,0.034855,0.021317,0.069134
-0.25824,-0.82547,-0.88056,-0.18078,-0.07202,-0.061915,-0.035792,-0.068497
0.093766,0.27281,0.90482,0.19386,0.057452,0.018824,0.022554,0.024914
0.18988,0.32554,-0.0065156,-0.037026,0.044685,0.090138,0.087251,0.12333
-0.070195,0.31199,0.032347,0.002287,-0.016188,-0.058185,-0.067886,-0.085005
-0.075362,-0.29537,-0.068924,0.00019303,0.008091,-0.0035006,-0.020495,0.033637
0.11384,-0.023376,-0.091327,0.020267,0.03208,0.036172,0.0034537,-0.082137
-0.23496,-0.093876,0.24379,-0.061217,-0.076489,-0.040114,-0.018798,-0.063894
0.05195,-0.40064,-0.77912,-0.24282,-0.14516,-0.09128,-0.055293,-0.0040899
0.085411,0.30275,0.3187,0.10976,0.068818,0.062617,0.058676,0.035955
0.11633,0.46501,0.55525,0.27132,0.18314,0.10913,0.065764,0.15868
-0.026947,-0.11485,-0.12852,-0.014921,-0.028427,-0.030011,-0.018211,-0.033973
-0.11054,-0.28786,-0.27421,-0.060943,-0.011072,-0.0035146,-0.021517,-0.081259
-0.08871,-0.11772,0.024082,-0.10115,-0.061774,-0.03047,-0.030559,-0.023027
0.060311,-0.22464,-0.3803,-0.089266,-0.071451,-0.10338,0.032056,0.022264
0.1705,0.39458,0.047299,0.15337,0.061034,0.066556,-0.0064261,0.053046
-0.041411,0.40597,0.3423,0.00039206,0.022673,0.018231,0.0015377,-0.02607
-0.1007,-0.1266,0.10236,-0.018518,0.00041218,0.0014865,0.00048888,-0.0056222
-0.040011,-0.31087,0.03337,-0.084654,-0.061013,-0.015113,-0.010107,-0.019533
0.077405,0.12166,0.27701,0.17548,0.10345,0.061909,0.0085882,-0.0058968
-0.029704,-0.22238,-0.54247,-0.12219,-0.030181,-0.0021893,-0.029255,-0.019426
0.04568,0.032074,0.096211,0.013653,-0.0092165,-0.028146,0.033014,0.041953
0.20343,0.21616,0.22133,0.22323,0.13481,0.10863,0.070999,0.13228
-0.49989,-0.2739,-0.62326,-0.46994,-0.33257,-0.27965,-0.2115,-0.30198
0.15652,0.0067087,0.31777,0.1769,0.13565,0.095925,0.092361,0.084031
0.049515,0.20639,0.15232,0.047422,0.031982,0.05573,0.045444,0.049029
0.055414,-0.33199,0.059767,0.10357,0.075578,0.053087,0.038418,0.10132
0.22948,0.59176,0.24418,0.018218,-0.022197,-0.0054572,0.0084788,0.022164
-0.17853,-0.30942,-0.10488,-0.043763,-0.010971,-0.018001,0.017554,-0.0091253
0.033625,0.018001,-0.47673,0.066679,0.054858,0.0079959,-0.060047,-0.016603
-0.17436,-0.054987,-0.47743,-0.35317,-0.19949,-0.098979,-0.084305,-0.18056
0.12604,0.19222,0.59922,0.1813,0.10898,0.067693,0.046,0.022086
0.051254,0.26858,0.3882,0.12332,0.035106,0.0083811,0.065285,0.16166
-0.16444,-0.32408,-0.078637,-0.058401,-0.038151,-0.02657,-0.065063,-0.12082
0.042006,-0.12893,0.049037,0.073498,0.037765,0.033435,0.030745,0.011242
-0.12528,-0.44431,-0.34895,-0.12184,-0.026121,-0.02236,-0.03693,-0.0039199
0.13169,0.33258,0.32477,0.050656,0.012428,0.017037,0.021968,0.053005
0.087153,-0.029376,-0.33284,-0.010769,0.0049926,0.026549,0.051998,0.08068
-0.086875,-0.23699,-0.17754,-0.063981,-0.079681,-0.11121,-0.094803,-0.12422
0.17918,0.64301,0.53762,0.18019,0.14902,0.14256,0.12066,0.10956
0.0009519,0.096873,-0.3373,-0.043599,-0.027661,-0.0093478,-0.028569,-0.039147
-0.11585,-0.17275,0.072845,-0.18032,-0.14101,-0.1141,-0.05892,-0.071319
-0.095329,0.081411,0.027413,0.0047172,0.035449,0.023322,0.028562,0.066885
0.16221,0.042632,-0.1586,0.081897,0.056229,0.035499,-0.0094579,-0.13294
-0.25065,-0.51237,0.033254,-0.02724,-0.039955,-0.030936,-0.0021969,0.09456
0.040831,-0.0090353,0.32426,0.067049,0.043228,0.026873,-0.052119,-0.070922
0.021644,0.16816,-0.3776,0.027401,0.01599,-0.0023311,0.043281,0.04269
0.04462,-0.15968,0.04556,0.03951,0.041569,0.052955,0.080599,0.13879
0.23639,0.38556,0.53094,0.093721,0.0098217,0.0048619,-0.026026,-0.024529
0.16116,0.26195,-0.10205,0.04796,0.021788,0.017168,0.012888,0.052973
-0.60919,-0.86836,-0.62779,-0.52026,-0.27421,-0.17585,-0.16912,-0.2925
0.059483,0.047406,0.031589,0.014547,0.020658,0.019709,0.046076,0.064411
0.19946,0.63139,0.68958,0.29467,0.18069,0.11211,0.073591,0.085106
0.13183,0.1213,-0.07319,-0.0054296,-0.027297,-0.030754,0.047248,0.074877
-0.033526,-0.11432,-0.47155,0.16423,0.14806,0.091987,-0.008664,-0.028093
-0.022842,-0.24019,-0.27415,-0.1151,-0.088827,-0.057779,-0.015421,0.0034586
-0.21093,-0.28204,-0.24194,-0.18453,-0.12749,-0.088511,-0.066456,-0.13451
0.11324,0.13167,0.71441,0.074922,0.025025,0.023998,0.03359,0.09759
0.059035,0.43441,0.22869,0.085821,0.033155,0.022457,0.050162,0.12196
-0.16282,-0.26863,0.040931,-0.042967,-0.017212,-0.022641,-0.10303,-0.26446
0.02527,-0.19237,-0.21362,0.007228,0.021867,0.029106,0.018838,0.047447
0.15358,0.12845,0.02757,0.030734,0.032299,0.059885,0.048021,0.14302
0.087831,0.073746,-0.14277,0.063529,0.020668,-0.0015804,0.038596,-0.0099399
-0.080072,-0.022693,0.13446,-0.053795,-0.0066088,-0.023623,-0.033474,0.048344
0.015032,0.15812,0.15826,0.011942,0.0037875,0.0082476,0.042213,-0.011505
-0.12092,-0.03265,-0.50313,-0.14746,-0.0899,-0.094387,-0.094117,-0.1281
0.073206,0.0072239,-0.066462,0.060837,0.039724,0.042918,0.026063,0.018068
-0.16887,-0.25961,-0.0027356,-0.066093,-0.045081,-0.03309,-0.034772,-0.042074
0.12964,-0.1664,-0.22596,0.0041151,-0.00032957,-0.0018487,0.012576,0.011919
-0.061554,0.13391,0.49873,0.13256,0.041776,0.035579,0.051157,0.071197
0.12628,0.36363,0.37352,0.016534,0.027375,0.04071,0.018732,0.034946
-0.047265,-0.059997,-0.089924,0.0016648,0.012046,-0.0015761,-0.02978,-0.041347
-0.010117,-0.22829,-0.3289,0.042673,0.043489,0.010624,0.0073547,-0.00072575
0.043893,0.10227,0.50484,0.086085,0.028659,0.030598,0.02871,0.055789
0.05335,0.0099931,-0.36006,-0.31255,-0.16469,-0.05098,-0.035892,-0.027683
-0.12172,0.0018477,-0.19585,-0.12926,-0.090828,-0.070014,-0.037837,-0.047768
0.011163,0.068493,-0.0083579,0.19092,0.14899,0.012661,-0.00033155,0.019154
-0.048036,-0.20596,-0.035604,0.14793,0.062685,0.025379,-0.0012428,-0.053321
0.067649,0.29397,0.28425,0.085081,-0.045145,-0.00031899,0.022152,-0.0385
0.014096,-0.24545,-0.16357,-0.037513,0.0048464,0.021797,0.046523,0.1418
-0.052916,-0.18417,-0.14765,-0.23666,0.0011507,-0.017452,-0.053201,-0.051577
0.077015,0.27482,-0.19304,-0.052871,-0.041344,0.038197,0.019583,-0.048576
0.05176,0.20255,0.3079,0.15296,0.040629,0.0088557,0.084753,0.24409
-0.11361,-0.37653,0.10197,0.035635,-0.042717,-0.043365,-0.076948,-0.26789
-0.044592,0.10897,0.26946,0.062684,0.020593,0.029475,-0.0050367,0.07894
-0.04629,-0.18388,-0.19813,-0.11041,-0.0040254,-0.030923,-0.059175,-0.051818
0.11536,0.28437,0.20383,0.10216,0.10235,0.017275,0.010598,-0.011975
0.11983,0.30274,-0.076272,0.068223,-0.05813,-0.013555,0.048256,0.1282
-0.017321,-0.097939,-0.21535,-0.10917,-0.070459,0.0095524,0.022986,-0.045026
-0.069455,-0.31667,-0.17066,-0.21686,-0.042822,-0.0067426,-0.0021554,-0.0076529
-0.16913,-0.3149,-0.38209,-0.10371,0.0025654,-0.030606,-0.050048,-0.079299
0.090354,0.055477,0.14993,0.14694,0.035451,0.0010891,0.012565,0.037595
0.014197,0.23955,0.37966,0.13864,0.03291,0.02635,-0.0015744,-0.0080139
0.079447,0.47918,0.50433,0.22378,0.10416,0.037607,0.048135,0.041886
-0.12771,-0.46065,-0.38049,-0.0044857,-0.040754,-0.027759,-0.041732,-0.062931
0.041043,0.098651,-0.19563,-0.17314,0.03417,0.032865,0.0095331,0.098737
0.069491,0.022833,-0.058307,-0.11329,-0.1573,-0.086045,-0.025334,0.018044
0.0035243,-0.15844,0.014809,-0.023617,0.031423,0.067613,0.056049,-0.024963
0.13101,0.17847,0.48302,0.11619,0.091023,0.047519,0.034285,0.038929
-0.080437,-0.02196,0.063439,0.0069776,-0.041857,-0.022112,-0.067609,-0.056612
-0.16277,-0.36916,-0.74498,-0.12582,-0.093841,-0.079149,-0.046601,-0.132
-0.045711,0.28613,-0.098443,0.0070439,0.052996,0.0093808,0.011643,0.047745
0.060563,0.21898,0.43409,0.070967,0.040667,0.017618,0.021785,-0.031796
0.079419,-0.12306,0.27696,0.083767,-0.01186,-0.022053,0.039327,0.14659
-0.057508,-0.22187,-0.60576,-0.15505,-0.0793,-0.037972,-0.044233,-0.024852
0.019003,0.15155,0.27348,0.1306,0.07432,0.010218,-0.017191,-0.068255
0.0059689,-0.23526,-0.020293,-0.025777,0.051666,0.10005,0.035028,0.056164
0.084117,0.38443,0.16272,-0.0053374,0.0016439,0.036668,0.050105,0.028088
-0.043246,-0.10662,0.02563,0.052162,0.049088,0.023075,0.012257,-0.020382
-0.0018289,-0.16283,-0.14379,-0.12663,-0.12699,-0.08198,-0.039878,0.026693
0.0037974,0.064904,0.42573,-0.011066,-0.02757,-0.052879,-0.013119,0.027175
0.042024,0.26858,-0.29954,0.13206,0.065024,0.015595,-0.048676,-0.12979
-0.17827,-0.27424,-0.4233,-0.11286,-0.053304,-0.025907,-0.022042,-0.0391
-0.033983,-0.012262,-0.18923,0.025925,-0.031742,-0.060852,-0.027318,0.0016976
0.27033,0.40362,0.45671,0.12487,0.12922,0.13697,0.13059,0.1175
-0.10993,-0.44161,0.084719,-0.059641,0.030931,0.051873,0.045336,0.050885
0.012606,-0.039286,0.14808,-0.10675,-0.10786,-0.081643,-0.040932,-0.01767
-0.0099702,0.14456,0.13899,0.092409,0.048967,0.025769,-0.034408,-0.079346
-0.090599,-0.19842,-0.38812,-0.087107,-0.076384,-0.055216,-0.044311,-0.08619
-0.040251,0.046115,0.0037268,0.0036757,0.0008517,-0.019507,-0.0078567,0.072173
0.13497,0.28143,-0.092293,0.060959,0.038875,0.031737,0.020684,0.07623
-0.016448,-0.19175,0.057788,-0.0079631,0.05363,0.052007,0.041817,0.028048
-0.0010183,0.081901,0.08676,-0.0067682,-0.048437,-0.036525,-0.037686,-0.064383
0.049247,0.071291,0.065427,0.049749,0.03742,0.016357,0.040432,0.0019279
0.033037,0.13402,0.34641,0.068418,0.045525,0.02328,0.0030112,3.2019e-05
-0.081165,-0.23319,-0.53742,-0.091053,-0.086727,-0.054765,-0.024906,-0.047198
-0.13779,-0.026571,-0.091866,-0.061335,-0.062561,-0.030288,-0.051362,-0.0076308
0.096582,0.13265,0.14623,-0.014291,0.032025,0.018511,0.016888,0.016411
0.02708,-0.29008,-0.063353,-0.02032,0.01731,0.028979,0.046289,0.031923
0.01191,0.039052,0.10102,0.061012,0.018252,-0.014761,-0.0031219,-0.0088255
0.057752,0.24425,0.19423,0.073111,0.050367,0.050999,0.06303,0.080833
-0.070759,-0.24445,-0.29262,-0.093922,-0.042799,-0.024176,-0.045132,-0.0045093
0.00063194,0.22257,0.37246,0.12172,0.050976,0.017071,-0.031259,-0.10126
0.060609,-0.0016613,-0.055926,-0.015113,-0.035785,-0.020962,-0.020442,0.040501
-0.10951,-0.29073,-0.21403,-0.091082,-0.045478,-0.052573,-0.020082,-0.047575
0.053353,0.33295,0.10618,-0.012932,-0.009388,0.0081666,0.0019624,-0.01301
0.058025,0.096516,-0.12038,0.047326,0.064869,0.075562,0.062564,0.051787
-0.141,-0.22639,-0.12812,-0.058449,-0.072281,-0.060856,-0.0087534,0.039046
0.043731,0.24714,0.20176,0.068876,0.056317,0.021413,-0.023176,-0.05742
0.058965,-0.36546,-0.26843,-0.054106,-0.0096118,0.0027332,0.0046667,0.029408
-0.062952,-0.11048,0.12884,-0.020095,-0.035096,-0.038163,-0.018472,-0.043294
0.069172,0.13025,0.16243,0.06244,0.058405,0.039775,0.040134,-0.072121
-0.044736,-0.032743,-0.063912,-0.040312,-0.057099,-0.036729,-0.0076865,0.15341
0.11806,0.43283,0.24737,0.077992,0.063528,0.060296,0.040046,0.014984
-0.013945,-0.097409,0.11877,0.049764,0.0057451,0.010087,-0.013407,0.018743
-0.11408,-0.3579,-0.43636,-0.094551,-0.020208,-0.0083482,-0.021061,-0.032517
