0.058438,0.024025,0.018643,0.022848,0.029507,-0.022455,-0.24641,-0.14175
-0.11395,-0.060199,-0.058978,-0.062995,-0.041071,-0.022769,0.096255,0.20707
0.050682,0.019964,-0.0033694,-0.00042469,-0.018079,-0.031743,-0.061853,-0.43783
0.099139,0.037743,0.021356,0.038723,0.028317,0.0054688,0.13016,0.51885
-0.062693,-0.046176,-0.023924,-0.015792,-0.034471,-0.0045777,-0.2579,-0.48531
0.048913,0.056981,0.048194,0.031398,0.020357,0.040052,0.22684,0.40743
-0.10594,-0.043715,-0.012453,-0.022832,-0.025792,-0.039991,-0.27494,0.20173
0.065667,0.018653,0.012654,0.016752,0.069273,0.18519,0.44025,-0.6692
0.055265,0.040777,0.013871,0.0015588,0.0084836,-0.15155,-0.15047,0.62589
-0.020213,0.0070117,0.053465,0.017333,-0.021035,-0.050357,-0.26524,-0.15939
-0.074551,-0.082451,-0.10307,-0.053296,-0.011955,0.027512,0.11204,-0.027907
-0.083451,-0.078752,-0.11194,-0.030758,-0.027261,-0.058982,-0.30751,-0.71497
0.079463,0.073417,0.097388,0.061493,-0.020439,0.080311,0.53054,0.99944
0.12682,0.10135,0.079973,0.02044,0.07869,0.10119,0.13331,-0.56107
-0.095897,-0.0020186,0.015952,-0.0052522,-0.034404,-0.082638,-0.26578,-0.079245
-0.048195,-0.048583,-0.031743,-0.038697,-0.0077015,0.075592,0.16055,0.075228
-0.03393,-0.045759,-0.070584,0.006424,0.0032532,-0.19733,-0.072347,0.61826
0.087515,-0.0012705,0.0011826,-0.0023193,-0.0085,0.10705,-0.17474,-0.3292
0.0026785,-0.032572,0.011692,-0.00992,-0.042106,0.0054836,-0.26987,-0.40575
0.030021,0.031563,0.046701,-0.0083785,0.012502,-0.01622,-0.081626,0.16211
0.034228,0.041694,0.0042996,0.041369,0.046332,0.066984,0.33829,0.38047
-0.018698,0.074685,-0.0066038,-0.0015116,0.020287,-0.11062,0.33619,-0.058402
0.14219,0.082318,0.075993,0.089146,0.082326,-0.0089503,0.054141,0.029344
-0.27391,-0.1866,-0.092097,-0.10124,-0.14341,-0.088711,-0.28927,-0.10204
-0.033252,-0.014124,-0.050232,-0.034167,0.037306,0.14933,-0.09433,-0.79135
-0.033656,-0.056723,-0.032916,-0.0070053,-0.06419,-0.023229,-0.208,0.5534
0.046906,-0.032737,-0.032326,-0.027951,0.035454,0.28929,0.41259,-0.04508
0.17181,0.15255,0.13129,0.10588,0.062054,-0.11948,-0.24447,0.47585
-0.10943,-0.015177,0.082979,-0.011855,-0.039444,-0.041764,0.53618,-0.33631
0.10395,0.035831,0.0023875,0.0016718,0.020085,-0.14398,-0.38029,0.034949
0.024495,0.025626,-0.048052,0.01379,0.022378,-0.083423,-0.056611,0.54385
-0.018953,-0.036966,-0.060544,-0.022111,-0.047347,-0.031399,-0.10829,-0.33949
-0.089081,-0.073183,-0.027125,-0.066577,-0.055192,0.08446,-0.18829,-0.64449
-0.046173,-0.051545,-0.095851,0.013711,-0.015627,-0.076506,-0.15188,-0.15016
-0.01659,0.012169,0.069819,0.024011,0.080186,0.20006,0.23144,0.24754
0.052837,0.070582,0.048722,-0.0038618,-0.017043,-0.020334,0.45658,0.668
0.19194,0.12293,0.091538,0.032118,0.083571,0.092436,0.3369,0.30017
-0.061303,-0.042647,-0.012169,0.0072397,-0.0010116,-0.015648,-0.13654,-0.35569
-0.26224,-0.059838,-0.019964,-0.015921,-0.076115,-0.18897,-0.48982,-0.88657
0.081174,-0.04651,-0.088097,0.017196,0.044884,0.19585,-0.0464,0.29898
0.016095,0.0048359,0.025433,-0.018685,-0.084229,-0.12887,-0.21517,0.25245
0.07436,-0.007246,0.023463,-0.0067278,0.035825,0.13957,0.17448,0.2592
0.045726,-0.011944,-0.031827,-0.009785,-0.017229,-0.28925,0.068276,0.22959
0.01677,0.046145,0.031115,-0.012539,0.045644,0.13103,0.27293,-0.24573
-0.051095,-0.011968,-0.030251,0.0081967,-0.040881,-0.12263,-0.18514,-0.25461
-0.071651,-0.029606,-0.060103,-0.018113,0.0049521,0.099294,-0.052716,-0.21915
0.017716,-0.0068113,0.026943,-0.0057649,-0.027235,0.1107,-0.17886,0.065285
0.013898,0.14175,0.1755,0.099644,0.050508,-0.024625,0.031308,0.086112
0.096556,-0.006884,-0.037117,-0.0069125,0.058724,0.022311,0.17079,0.23783
-0.10934,-0.040066,0.0054934,-0.0054753,0.0051863,0.048622,0.34632,-0.27258
-0.025663,0.064233,-0.072292,-0.068215,-0.079134,0.038325,-0.0087246,0.10475
0.019437,-0.20291,-0.13796,-0.0077855,0.01627,-0.275,0.04618,0.61357
0.041552,-0.10768,-0.011732,-0.050705,-0.068442,0.045132,-0.57926,-0.84772
0.017152,0.11564,0.033442,0.045464,-0.0055467,-0.0257,-0.31765,0.68825
0.0085876,0.15526,0.24049,0.10927,0.13437,0.207,0.65836,-0.22601
-0.01557,-0.026737,-0.1085,-0.093165,-0.094097,-0.077656,-0.2747,-0.38181
0.0070314,0.078885,0.057593,0.048068,0.082533,0.096626,0.1601,-0.015239
-0.040844,-0.13577,-0.088641,-0.02906,-0.046469,-0.098287,0.0064726,-0.049016
0.0049703,-0.067735,-0.062234,-0.01166,-0.012017,-0.13871,-0.05104,0.32939
0.01193,0.18267,0.18421,0.038055,-0.024612,0.038315,-0.094283,0.02686
-0.082082,-0.21169,-0.2629,-0.082864,0.025612,0.12868,0.02778,0.11458
0.028023,-0.023598,-0.020334,-0.014972,-0.024919,0.086125,0.4565,-0.18796
0.092552,0.16911,0.23254,0.10107,-0.003922,-0.1747,-0.24672,-0.052264
0.041308,0.030353,-0.0041232,0.022955,0.088866,0.073234,-0.014109,0.17794
-0.071143,-0.034126,-0.066272,-0.022922,-0.04336,-0.0056647,-0.16139,-0.20078
0.036116,0.18584,0.23342,0.057038,0.0055174,-0.083082,-0.019907,-0.0013129
-0.082689,-0.3809,-0.41779,-0.19818,-0.038244,0.067569,-0.0062245,0.10406
0.025081,0.17899,0.19865,0.086479,0.0046196,-0.09293,-0.059292,-0.04118
-0.031609,-0.05686,-0.034568,0.012704,0.016446,0.12256,0.1487,0.0082043
0.020393,-0.073056,-0.086206,-0.052147,-0.018853,0.025979,0.040238,0.025702
0.095002,0.23971,0.18436,0.11076,0.054573,-0.024004,0.053957,0.12081
-0.089077,-0.33743,-0.25423,-0.092454,-0.060456,-0.0047191,-0.28545,-0.47985
-0.031835,0.24207,0.3086,0.06439,-0.020377,-0.10436,0.20269,0.39552
0.0089249,-0.0069067,-0.073162,0.033759,0.065377,0.043771,0.073599,0.043414
0.14256,0.13322,0.044817,0.033563,0.0093762,0.07232,0.053843,-0.10713
-0.131,-0.19055,-0.21366,-0.13238,-0.016303,0.0049296,-0.10694,-0.041371
0.047569,0.090603,0.056416,0.019598,-0.0035283,-0.048454,-0.010804,0.060055
0.021991,0.077111,0.1118,0.028147,-0.022193,-0.06353,-0.087769,0.094851
-0.082647,-0.23932,-0.095152,-0.059861,-0.048386,-0.00021858,-0.056553,0.04716
0.038576,0.040138,0.083674,0.084094,0.0746,0.0956,0.098943,-0.16062
0.018854,-0.012918,-0.070355,-0.015844,-0.0357,-0.033105,-0.0032772,-0.050532
-0.07883,-0.02153,-0.056684,-0.101,-0.043195,-0.034364,-0.026318,-0.20633
0.066327,0.071241,0.078705,0.11074,0.11451,0.091777,0.10878,0.1637
-0.01404,0.15029,0.18067,0.034091,0.015158,-0.014547,-0.081872,-0.16437
-0.007257,-0.15788,-0.3121,-0.088386,-0.037138,0.005218,0.18302,0.62401
0.070947,0.03014,0.038988,0.040209,-0.035237,-0.045205,-0.14384,-0.11854
-0.037625,0.11246,0.17234,0.036788,-0.018808,-0.041711,-0.031902,-0.22811
-0.021065,-0.13084,-0.098906,-0.060048,-0.035125,-0.00055872,-0.0054284,-0.057534
0.010584,-0.013874,-0.024442,0.014837,0.071967,0.031122,-0.096402,-0.14798
0.06456,0.16478,0.15361,0.050163,0.037093,0.061302,0.17124,0.25585
-0.14852,-0.11177,-0.049184,-0.047877,-0.053251,-0.065759,-0.054255,-0.11419
0.074509,-0.10188,-0.17196,-0.068032,-0.034217,-0.013386,0.055319,0.12255
0.070068,0.2965,0.35571,0.131,0.0013306,-0.054218,-0.14816,-0.082346
-0.10631,-0.36055,-0.30175,-0.082679,0.077665,0.13274,0.11699,0.04375
0.0073975,-0.19596,-0.25314,-0.12995,-0.054571,0.0088714,-0.023761,-0.046033
0.01389,0.36283,0.26781,0.13063,-0.020051,-0.10543,0.031554,0.02403
0.015651,-0.010443,0.03498,0.058804,0.095224,0.13332,0.033215,-0.15885
-0.025902,0.17732,0.22022,0.06064,-0.037328,-0.087915,-0.10459,0.078754
-0.0093482,-0.09767,-0.16937,-0.10688,-0.082574,-0.090197,-0.006897,0.13684
0.048854,-0.18082,-0.19771,-0.015449,0.044381,0.094439,0.052656,0.0010262
0.076947,0.12834,0.1488,0.044202,0.053346,0.0043387,-0.13721,0.039292
-0.020651,0.037565,0.063195,-0.0077424,-0.017673,0.029592,0.23556,-0.27158
0.05887,0.10638,0.1449,0.085163,0.033624,0.029295,0.022012,0.16186
-0.19383,-0.19082,-0.1545,-0.14661,-0.12135,-0.15278,-0.075185,0.19832
0.0016759,-0.1362,-0.10902,-0.039039,0.04081,0.077444,-0.11105,-0.31933
0.02826,0.083375,-0.014933,0.05703,0.012702,-0.021639,-0.046619,0.06896
-0.019349,-0.10046,-0.12052,-0.028971,-0.0017746,0.042915,0.079187,0.034294
0.071477,0.12769,0.10799,0.056138,0.053073,0.045352,0.032332,0.013639
-0.03315,0.23193,0.29061,0.071761,-0.048242,-0.099525,0.063236,0.1161
-0.018741,-0.28496,-0.3202,-0.12149,-6.0022e-05,0.030719,-0.085563,-0.16614
0.022482,0.024092,0.019354,0.016101,-0.02821,0.022322,-0.023285,0.034289
0.075669,0.18298,0.22367,0.11731,0.047393,-0.046588,0.054649,-0.016638
-0.023339,-0.12959,-0.091017,-0.068525,0.023649,0.06588,-0.0083972,-0.013852
0.099553,0.20926,0.21385,0.082488,0.025241,0.015433,0.052612,0.15238
-0.18995,-0.25646,-0.3097,-0.14185,-0.065592,-0.06582,-0.083296,-0.13487
0.02052,0.095302,0.093476,0.038576,-0.022996,0.0088728,0.02082,-0.01608
0.026244,-0.06601,-0.14896,-0.025368,-0.011742,0.012279,0.11469,0.16507
-0.03329,-0.023055,0.04798,-0.01352,0.014445,-0.024842,-0.16874,-0.20076
0.09922,0.0053226,0.051854,0.043313,0.094219,0.076963,0.030575,0.19905
-0.076048,0.098501,0.067391,-0.0023764,-0.069473,-0.080696,-0.044085,-0.096167
0.012008,0.024482,0.0033684,0.030312,0.0078089,-0.020946,0.030593,-0.17973
-0.080716,-0.2371,-0.19976,-0.060501,0.0060337,0.077045,0.12333,0.12864
0.076838,0.098193,0.046771,0.015276,-0.019661,0.010785,-0.0066696,0.095207
0.024977,0.0096664,0.10445,0.0082507,-0.068738,-0.11753,-0.20999,-0.1154
-0.024491,0.11625,0.09928,0.043487,0.085883,0.083275,0.18563,0.11434
0.053777,-0.026958,-0.05498,-0.0045155,0.0070963,0.0041593,-0.093556,-0.059316
0.02518,0.16499,0.13227,0.035144,-0.023674,-0.042264,0.021769,0.011705
-0.056304,-0.22417,-0.28686,-0.081,0.055985,0.13918,0.13156,-0.024843
0.011442,0.0057099,0.020489,-0.018365,-0.035518,-0.06121,-0.086457,-0.052685
-0.10861,0.038932,0.14503,0.01872,-0.040899,-0.12045,-0.017173,0.17718
0.082596,-0.025756,-0.056383,0.021578,0.03143,0.023469,-0.045224,-0.15647
-0.03281,-0.080947,-0.014991,-0.002387,0.016851,0.049813,0.046846,0.023761
0.02924,0.14597,0.081301,0.0094216,-0.022526,0.0051061,0.0006789,0.084684
0.018798,-0.11023,-0.18858,-0.036183,-0.024347,0.0062955,-0.0037509,-0.067479
-0.0090769,0.026928,0.09911,0.025799,0.019338,-0.017066,-0.082562,-0.041794
0.03217,0.0050169,-0.0061633,0.001227,0.038619,0.067809,0.094033,-0.079922
-0.02855,0.021969,0.053206,0.008522,-0.036208,-0.05149,0.0045598,0.13122
0.00494,-0.0056187,-0.071576,-0.029316,-0.0091259,-0.015379,-0.09125,-0.032897
-0.022756,0.096164,0.1295,0.021382,-0.012267,-0.018847,0.019077,0.1154
-0.048407,-0.18709,-0.17821,-0.042049,-0.013861,-0.03806,0.10987,0.029101
-0.0012099,0.066733,0.12271,0.038201,0.048843,0.044574,-0.068801,-0.21411
0.072096,0.10685,0.078323,0.058533,0.042947,0.057514,0.123,0.19768
0.0071424,-0.091826,-0.13343,-0.060055,-0.039781,-0.045933,-0.11294,-0.19701
0.021924,0.085645,0.031988,0.025049,0.026538,0.077984,0.049842,0.046803
-0.0018782,-0.089774,-0.084239,-0.031122,-0.055786,-0.070913,-0.093417,0.1088
-0.073417,-0.026616,0.062363,-0.026531,-0.021916,-0.039792,0.002865,-0.13564
0.040366,0.078108,0.08712,0.053675,0.049421,0.038206,0.017681,0.048592
0.041559,0.036095,0.051498,0.037301,0.025115,0.037807,0.052604,0.076532
-0.054754,-0.14458,-0.19297,-0.091071,-0.071335,-0.0724,-0.063559,-0.02725
-0.0062875,0.1077,0.065654,0.02864,0.026118,0.012263,-0.0014876,0.019642
-0.015404,-0.072033,-0.030126,0.0069061,0.036933,0.041933,0.068403,-0.01612
0.012972,0.0064233,-0.048178,-0.045597,-0.038018,0.0090411,-0.063376,-0.016533
-0.060117,-0.16196,-0.12658,-0.041673,-0.033786,-0.031423,0.034034,-0.19208
0.07954,0.22985,0.26027,0.09777,0.0034855,-0.055732,-0.029297,0.10563
-0.011938,0.073924,0.090233,0.037269,0.058612,0.045707,0.043616,0.024374
0.017888,-0.051311,-0.050553,0.018879,0.045719,0.062058,0.096062,0.2269
0.044174,0.025094,0.001018,-0.028425,-0.019902,-0.014529,-0.091631,-0.0074229
-0.027425,-0.097265,-0.11633,-0.04329,-0.052966,-0.012337,-0.12221,-0.18864
-0.018444,-0.069479,-0.1082,-0.019257,-0.023078,-0.064422,0.096831,-0.068968
-0.0633,0.074327,0.12441,0.011131,0.029815,0.032072,-0.0058651,0.029494
0.094141,0.02684,-0.01448,0.0078119,0.019004,0.026905,0.045535,0.10573
0.022766,0.12985,0.20014,0.032738,-0.016982,-0.033229,-0.014893,-0.051211
-0.02052,-0.19581,-0.18546,-0.054745,-0.00025099,0.039067,-0.015133,0.20819
-0.098439,-0.0047564,-0.053717,-0.0041899,-0.024482,-0.045308,-0.056218,-0.37968
-0.030827,-0.069395,-0.051763,-0.0022891,-0.0034062,0.0027194,-0.012361,0.086331
0.011489,0.065231,0.048956,0.037886,0.063478,0.065995,0.10951,0.015356
0.061112,0.10449,0.11796,0.015755,-0.0342,-0.035138,-0.057025,0.042787
0.041246,-0.019665,-0.069041,-0.013183,-0.014665,-0.027223,-0.02707,0.053171
-0.015864,0.03842,0.075744,0.0062838,-0.0025134,-0.027449,0.051059,0.015771
0.03086,-0.11056,-0.071502,0.0040512,0.049366,0.073545,-0.0026051,4.6787e-05
-0.0062361,0.073061,0.044308,0.0034775,-0.023027,-0.013318,0.037885,-0.0038868
0.028439,0.050192,0.04784,-0.011345,0.014611,0.0088429,0.015489,0.11828
0.008938,-0.046911,-0.069633,-0.017363,-0.017557,-0.016175,-0.062737,-0.10525
-0.14383,-0.10974,-0.10626,-0.030595,-0.025937,-0.025764,-0.033244,0.010439
-0.03216,-0.0064878,0.022504,-0.012316,-0.018448,-0.027565,-0.013332,-0.17679
0.10141,0.11342,0.096554,0.060647,0.028319,0.033328,0.012961,0.01264
-0.032127,-0.0087522,0.04442,0.024038,0.028472,0.039953,-0.00051032,-0.029345
0.052022,-0.022258,-0.064495,-0.0051013,-0.010084,-0.030935,0.0097172,0.16842
0.0028851,-0.052843,-0.074561,-0.026877,0.014317,0.047345,0.075879,0.015149
-0.0070453,0.07069,0.099828,-0.017925,-0.031068,-0.0455,-0.05123,-0.087842
0.022727,0.027426,-0.017951,0.021726,-0.0056084,-0.02049,0.019456,0.064717
-0.071582,-0.097177,-0.091776,-0.04853,-0.018763,-0.0028048,-0.024562,-0.11995
0.038179,0.22004,0.2225,0.068246,0.023033,-0.00052227,-0.011852,0.19372
-0.038831,-0.17716,-0.1527,-0.010655,0.041371,0.032898,0.0020866,-0.050654
0.03292,-0.04619,-0.068235,-0.019492,-0.003171,0.034582,0.016211,0.12873
0.041991,-0.073756,0.0079083,-0.02065,-0.025034,-0.027094,0.021602,-0.15392
-0.027744,0.09285,0.092153,0.025025,0.0067006,-0.0039986,0.025087,-0.049722
0.034277,0.15031,0.091514,0.0082226,-0.056617,-0.060371,-0.091216,-0.037145
-0.045534,-0.032776,-0.040197,0.022721,0.058418,0.069432,0.016173,-0.046599
-0.017033,-0.072316,-0.12273,-0.033038,-0.0073951,-0.0049767,0.050591,0.086501
-0.06729,-0.092345,-0.077582,-0.018433,-0.01931,-0.040951,-0.034156,-0.042511
0.046535,0.04046,0.11105,0.027471,0.046636,0.040261,-0.0026453,0.021735
0.059546,-0.0098826,0.0055489,-0.012501,-0.051142,-0.034067,-0.05676,0.16447
0.003643,0.091906,0.050749,0.0022942,0.0082606,0.010191,0.11723,-0.065319
-0.0035692,-0.046043,-0.051042,-0.014061,-0.01686,0.0017015,-0.12812,-0.041137
-0.0010584,0.098014,0.12094,0.039996,0.022223,-0.0045545,0.12965,-0.0045016
-0.028141,-0.063765,-0.12203,-0.038685,0.0083538,-0.00079475,-0.031246,-0.11961
-0.015057,0.01371,0.015761,0.015464,0.02723,0.051673,0.0059363,0.14397
0.029622,0.024433,0.010028,0.022685,0.00024973,-0.0040691,0.0059589,0.066254
-0.01212,-0.094652,-0.038028,-0.0092705,-0.010717,-0.012631,-0.047921,-0.05727
-0.00042507,-0.046311,0.0046152,-0.0022928,-0.014145,-0.013985,0.038444,0.01434
0.025069,-0.024619,-0.025355,-0.026637,-0.0653,-0.071444,-0.071898,-0.11042
-0.006233,-0.012059,-0.0096042,-0.011847,0.038552,0.033159,0.042215,-0.12727
0.015116,0.17323,0.02194,0.026673,0.023818,0.041732,-0.033609,0.088845
-0.043265,0.064509,0.11741,0.018866,0.039023,0.032449,0.099124,0.23361
-0.0087712,-0.11015,-0.050341,-0.011589,-0.017101,-0.025586,-0.07483,-0.090928
-0.068,-0.053161,-0.019805,-0.017658,-0.042555,-0.045848,-0.023619,-0.048465
0.061198,0.079064,0.02945,-0.0071262,-0.044656,-0.011975,0.081586,-0.0060374
0.067031,-0.058197,-0.059112,-0.011384,0.039564,0.029929,-0.03978,-0.02628
0.020174,0.017822,-0.020477,0.063003,0.054212,0.01806,-0.035587,-0.007996
-0.016943,0.0082662,-0.027354,-0.0031684,0.007285,0.015434,0.032044,0.11083
-0.029177,-0.018607,0.013034,0.0083268,-0.0074745,-0.0011181,0.061713,0.048502
-0.040763,-0.0099443,0.037158,-0.051446,-0.052746,-0.055037,-0.13413,-0.15618
-0.005775,0.040711,0.090895,-0.0031662,0.019615,0.048732,0.12399,0.012447
0.082672,0.11706,0.10307,0.028008,0.0061454,-0.010572,0.0076328,8.4588e-05
-0.073046,-0.24953,-0.23939,-0.051587,-0.015347,-0.0069516,-0.10071,-0.075436
-0.0046321,0.07465,0.00084179,0.023983,-0.013867,-0.00349,0.0017945,-0.049311
0.053446,0.099008,0.097521,0.012993,0.0025997,-0.016331,0.033734,0.2197
-0.046964,-0.19005,-0.17512,0.0019003,0.033955,0.024455,-0.012772,0.01316
0.022899,0.084634,0.10594,0.022428,0.009861,0.024925,0.081067,0.010643
0.053024,0.073494,-0.0268,-0.018824,0.016292,-0.0070965,-0.051826,-0.061742
-0.025781,0.15302,0.13875,0.026773,-0.04039,-0.055765,-0.028491,0.021936
0.0064314,-0.1916,-0.0059898,-0.028249,-0.0037407,0.012117,0.0027844,-0.082625
-0.099213,-0.015035,-0.04661,0.0035214,0.024962,0.040784,0.04212,-0.024109
-0.08402,-0.11488,-0.030106,-0.018703,-0.063305,-0.04739,-0.066674,-0.052332
0.12278,0.085597,-0.058522,-0.016985,0.013079,0.029259,0.020125,0.083308
0.099186,0.17831,0.078381,0.039741,0.012242,-0.01027,0.04458,0.032117
0.016322,-0.073202,-0.026397,-0.0049436,0.035926,0.029369,0.0064777,-0.056567
-0.025592,0.0087102,-0.0063365,-0.0027581,0.013801,0.0073604,0.022736,0.052328
-0.028284,-0.015142,0.09119,0.03833,0.015945,-0.014169,-0.11785,0.11693
-0.10296,-0.16927,-0.14818,-0.061529,-0.051808,-0.0044411,0.076704,-0.050407
0.037854,0.0069878,-0.076116,-0.029069,-0.0024803,-0.0029984,-0.026494,-0.059591
0.0024149,0.24076,0.23708,0.065224,-0.024097,-0.06492,0.033561,-0.16145
0.087183,-0.10728,-0.060079,0.0024364,0.023534,0.051739,-0.008548,0.14308
-0.035649,-0.066527,0.032521,0.016819,0.030776,0.018788,-0.043132,-0.029733
-0.068219,0.036971,-0.0475,-0.0088615,-0.010234,0.00039598,0.023918,0.12401
0.022199,-0.013539,-0.018736,-0.019843,-0.013383,-0.011003,-0.0023824,-0.083759
-0.028309,-0.052378,-0.11533,-0.054964,0.0060753,0.0083821,-0.004611,-0.059628
-0.022788,0.14802,0.10054,0.03459,-0.021652,0.019908,0.040768,0.040109
0.14163,0.056685,0.10583,0.0071219,-0.017854,-0.069729,-0.014725,0.059451
0.0047577,-0.14715,-0.091205,0.019415,0.02584,0.03678,0.063144,0.037999
-0.058269,0.066733,0.072341,0.017269,0.039561,0.011688,-0.061734,-0.12502
0.022409,-0.099954,-0.17666,-0.045832,-0.031127,-0.019732,-0.02229,-0.014563
-0.050947,0.030922,0.10725,0.025585,0.024749,0.028588,-0.029481,-0.012425
0.033105,-0.010871,-0.052573,-0.018548,-0.011739,-0.038707,-0.10666,0.046392
-0.070206,-0.015662,0.038805,0.016788,-0.015933,0.043784,0.23851,0.092246
0.036745,0.11716,0.09167,-0.0017042,-0.0038962,-0.021201,-0.05637,-0.030843
0.017521,-0.042717,-0.082358,-0.0043229,-0.0073381,0.00020103,-0.092873,-0.057449
-0.057751,0.027911,0.078244,0.0082828,-0.0032469,-0.0097715,0.089757,-0.011665
0.068817,-0.16304,-0.099283,0.012083,0.039276,0.034253,0.022433,0.027375
0.038091,0.18176,0.087597,-0.016806,-0.028466,-0.032272,-0.029645,0.027223
-0.048066,-0.093179,-0.11125,-0.0082976,0.019926,0.0090613,-0.020012,0.057011
-0.025314,-0.025918,-0.046998,-0.032682,-0.026558,-0.013781,-0.034884,-0.11078
0.036235,0.11127,0.10938,0.035306,0.019593,0.024238,0.011599,-0.015771
-0.03519,-0.039784,-0.031522,0.016437,-0.01341,-0.040723,-0.060099,0.052923
0.0026139,-0.0013664,0.094137,-0.0027915,0.015215,0.010443,0.078483,-0.029239
0.055847,-0.069411,-0.098413,-0.013997,0.0041251,0.021925,0.029341,0.035502
-0.016185,-0.032364,-0.069347,-0.0088916,0.00046771,0.064496,0.074161,-0.072039
-0.026029,0.024009,0.0487,-0.018422,-0.011068,-0.072357,-0.10702,0.071162
-0.0049153,0.099362,0.10681,0.035613,-0.022337,-0.036723,-0.084303,-0.018342
0.00038844,-0.0024825,-0.0054391,0.020243,0.013846,0.03883,0.032989,-0.058785
-0.033364,-0.0015493,-0.039507,-0.041453,-0.050706,-0.048705,0.088494,0.12169
0.034696,0.092875,0.073408,0.068802,0.088832,0.083475,0.050719,-0.055572
0.032942,-0.11122,-0.0038509,-0.032279,-0.0050363,-0.010074,-0.072857,0.056898
-0.014988,-0.044548,-0.16252,-0.016922,0.011308,0.014178,-0.056015,-0.026414
0.01603,-0.12941,-0.05083,-0.025876,-0.026425,-0.023705,0.061901,0.091869
-0.014601,0.10314,0.058764,0.0035047,-0.024749,-0.045814,-0.055194,-0.22959
-0.028812,0.036659,0.0194,-0.014328,0.0082971,0.025848,0.045847,0.0090218
-0.011106,-0.0074631,0.01255,-0.0085248,-0.0055548,0.011573,0.06052,0.026838
-0.00072895,0.089065,0.086661,0.037082,-0.01947,-0.041688,-0.12806,0.02002
0.033339,-0.024422,0.031791,0.036952,0.013466,-0.0010139,-0.027367,0.11467
0.012705,-0.019268,-0.065923,-0.0087755,0.046454,0.071176,0.12071,-0.03965
0.02302,0.0030838,0.019462,-0.014323,-0.029827,-0.020447,0.02729,0.026704
-0.03755,-0.043531,-0.057082,0.012073,0.01118,-0.010397,-0.11232,-0.076322
-0.020777,-0.034566,-0.00032816,-0.0082891,-0.0024809,0.015142,0.10797,0.1046
0.018549,0.060695,0.055239,-0.0056845,0.0071744,0.016809,-0.030857,-0.10253
0.0023371,-0.023861,-0.02456,-0.019624,-0.022519,-0.021283,0.017784,0.012872
-0.014555,0.016098,-0.037407,-0.0034375,0.017669,-0.021155,-0.10569,-0.065334
-0.00060123,0.071022,0.055636,-0.0039154,-0.036412,-0.060904,-0.0029186,-0.0018304
0.0054584,-0.1247,-0.11988,0.0027212,0.018356,0.07842,0.1387,0.077673
-0.019517,0.03064,0.054323,0.0091643,0.0023525,-0.040358,-0.15719,0.09426
0.041864,0.021675,0.063972,0.00032433,0.0016361,0.028439,0.062776,-0.14041
-0.0056425,-0.041972,-0.073955,6.8978e-05,0.031979,0.035111,0.072221,0.13845
0.025394,0.011758,0.047849,0.024242,-0.023666,-0.02799,-0.042881,-0.069842
-0.029261,0.034487,0.039331,0.0103,-0.0011239,0.02663,0.053274,-0.0078951
-0.0057566,0.10428,0.033313,0.01264,-0.017512,-0.043376,-0.077108,-0.12106
-0.013634,-0.068058,-0.064451,-0.055136,0.0053166,0.01954,-0.020352,0.012912
0.03298,0.033002,0.034262,-0.0060526,-0.018606,-0.019281,0.027819,0.19949
-0.04553,-0.12376,-0.038698,0.050051,0.059079,0.011798,0.004556,-0.13844
-0.022413,-0.10846,-0.088899,-0.051204,-0.019551,0.0032695,0.026808,0.015896
0.071335,0.11831,0.015826,-0.005241,-0.0046261,-0.013622,-0.04614,0.030721
-0.029671,0.033483,0.032933,0.0083453,-0.0056283,-0.0075093,0.0045308,-0.054071
0.018459,0.020072,0.032648,0.021065,-0.014803,0.013998,0.046232,0.035471
-0.010853,0.062366,0.069775,0.017657,0.0069307,0.0042655,-0.022237,0.080773
-0.00061536,-0.066648,-0.027307,-0.0014797,0.012804,0.026021,0.018352,-0.0042271
-0.0058612,-0.00054737,0.015195,-0.0047116,-0.020441,-0.037747,-0.058007,-0.14956
0.0511,0.01757,-0.060078,-0.015147,0.024611,0.023998,0.053966,0.081799
-0.041099,0.033747,0.013061,-0.0012795,-0.023682,-0.02309,-0.035794,-0.076278
-0.0093472,-0.077531,-0.077245,-0.0019984,0.022374,0.031889,0.001293,0.047567
-0.0022268,-0.011599,-0.017843,-0.017229,-0.0089754,-0.022081,0.0014273,0.046565
