0.066145,0.10333,0.16205,0.11403,0.060929,0.083653,0.063131,0.067312
-0.027028,-0.043073,-0.067186,0.13728,0.0025033,-0.019211,0.010961,0.0092518
-0.067266,-0.17614,-0.2755,0.17721,0.00090499,0.019192,-0.095539,-0.018325
0.030289,0.032126,-0.11874,-0.46981,-0.20982,-0.074522,0.0020262,-0.047471
-0.03976,0.13667,0.35686,-0.39776,0.1589,0.12926,0.085468,0.054
0.0036276,-0.1353,-0.13691,0.41723,-0.0027534,-0.025873,-0.11035,-0.057965
-0.0032798,0.053072,0.16648,0.077973,-0.077897,-0.16508,-0.30386,-0.031705
0.08877,-0.023765,-0.30245,-0.30442,-0.1292,-0.10883,0.1455,0.047335
-0.062807,-0.036769,-0.043168,0.20922,0.10881,0.11924,0.3075,-0.02317
0.012077,0.11625,0.31169,-0.12233,0.1125,0.14387,0.063822,0.046798
-0.029007,0.091756,0.23848,0.23182,0.11582,0.10534,-0.016785,0.00038366
-0.013065,-0.13389,-0.31793,0.097904,-0.045834,0.15173,0.14999,0.033715
0.021621,-0.029987,-0.02992,0.11333,-0.0058547,-0.42034,-0.48394,-0.040125
0.12228,0.090211,0.039663,0.14137,-0.124,0.0063753,0.073259,0.021361
-0.10182,-0.21158,-0.42955,-0.48572,-0.18153,-0.059852,-0.037048,-0.086472
-0.010529,0.13425,0.32825,-0.37208,0.095446,0.092723,-0.094377,0.058052
-0.049968,0.017842,0.086775,0.38776,0.035908,-0.0036759,0.0051135,-0.037669
0.044534,-0.022044,-0.099206,-0.38473,-0.015387,0.089294,0.17766,0.016387
0.061047,0.1786,0.54348,0.49292,0.28623,0.098624,0.22156,0.039776
-0.048217,-0.17696,-0.42331,0.29005,0.019475,-0.0070907,0.074599,-0.0074302
0.012878,-0.057105,-0.14889,-0.37233,-0.26862,-0.072331,0.032738,0.030135
-0.060858,0.023075,0.029971,0.024563,-0.15645,-0.11385,-0.25734,-0.028009
0.058454,0.14236,0.073689,-0.18131,0.16011,0.062398,-0.18044,-0.0027438
-0.051059,-0.19076,-0.088066,0.3779,0.17248,0.11941,0.082089,0.011948
0.056127,0.10245,0.076474,-0.11098,-0.16701,-0.24036,-0.25188,-0.085326
0.0053751,0.0067638,-0.0098589,-0.18867,-0.0075183,0.045468,0.14581,-0.0049377
-0.038789,-0.016729,0.052578,-0.091798,0.056669,0.17259,0.43213,0.074296
0.041338,0.08651,0.18691,0.41167,0.087771,-0.14727,-0.27463,0.0049596
0.011924,-0.074541,-0.24641,-0.07868,-0.054807,0.11035,0.11258,0.022419
-0.063986,-0.0082532,-0.12158,-0.017245,-0.097277,-0.014476,0.047683,-0.028784
-0.021804,-0.098045,0.014881,-0.51378,-0.13277,-0.091196,-0.30485,-0.046617
0.076445,0.14773,0.24881,0.23684,0.15197,0.021394,0.039364,0.039319
-0.042306,0.017763,0.056124,0.1966,0.078008,0.12043,0.31444,0.025616
0.0206,-0.089708,-0.2049,-0.1255,0.099028,0.018364,-0.1441,0.013258
-0.016067,-0.049664,-0.12948,0.4121,-0.073759,-0.15227,-0.10233,-0.029759
0.034979,0.10682,0.2651,-0.45585,-0.22166,-0.032498,-0.18567,-0.049528
-0.014199,-0.05748,-0.1087,0.075023,0.10032,-0.013429,0.25395,0.062663
-0.086103,-0.011038,0.013444,0.081991,0.11042,0.18574,-0.018171,-0.02955
0.10758,0.10575,0.15418,0.13425,-0.02004,-0.099481,0.060144,0.0096382
0.0035924,-0.066386,-0.12409,-0.15982,-0.0024849,0.10713,0.21518,-0.0071019
-0.00030395,-0.0039784,-0.17226,0.082172,-0.024731,-0.11655,-0.40479,-0.024667
0.017314,0.074164,0.18293,-0.10038,-0.047804,-0.0050706,0.18469,0.051253
-0.092142,-0.14453,-0.34575,-0.28441,-0.079383,-0.027204,-0.10973,-0.036578
-0.055049,0.066469,0.41561,0.25067,0.10738,0.012427,-0.16232,-0.037693
0.066583,-0.04283,-0.10155,-0.28997,-0.057513,0.059262,0.35594,0.087226
0.054681,0.0041931,-0.052291,0.64229,0.16835,0.019685,-0.265,0.010047
-0.019726,0.090416,0.21226,-0.26409,-0.074359,-0.059331,0.076965,-0.042926
0.015838,0.075251,0.058965,0.19398,0.04234,-0.013673,0.014729,0.037245
-0.033574,-0.15069,-0.30998,-0.12513,0.010383,0.15668,0.14155,-0.039001
-0.011625,-0.071858,0.0026331,-0.059034,-0.20174,-0.1654,0.26119,-0.037732
0.06589,0.1007,-0.12166,-0.46904,0.030835,0.074907,-0.26022,0.032962
0.011131,-0.0081661,0.12848,0.37748,0.028431,-0.12216,-0.32195,-0.0066714
-0.012227,0.038878,0.064661,0.15892,0.049053,0.056264,-0.064944,-0.00023599
-0.12168,-0.00052098,0.17837,-0.1801,0.10863,0.055884,0.15175,-0.002111
0.042007,-0.0093017,-0.085526,0.12593,0.020032,0.0020552,0.30556,0.042779
0.0023247,-0.050011,0.015007,0.046172,-0.036668,-0.0034667,-0.11021,-0.013623
0.04073,0.01805,-0.14484,-0.051373,-0.20171,-0.10135,-0.118,-0.038203
0.040306,0.015408,-0.12696,-0.29844,-0.091937,0.02056,0.0015274,0.047342
-0.037786,0.0048971,0.18681,0.27492,0.22258,0.15075,-0.0094973,-0.030393
-0.037209,-0.013079,-0.06949,-0.14271,0.038742,-0.070935,-0.050182,-0.00588
0.0028743,-0.077196,-0.019623,0.16825,0.067265,0.19066,0.64396,0.02693
0.043117,0.08626,0.10302,-0.0027876,-0.083015,-0.33072,-0.57681,-0.010346
-0.010651,-0.046065,-0.013565,-0.046562,-0.069113,0.0051987,0.0051832,-0.024229
0.075495,0.1585,0.15399,0.044146,0.0065563,0.042232,-0.11844,0.039734
-0.081621,-0.066026,-0.02777,0.0028024,0.065099,0.069867,-0.025657,-0.013933
-0.021208,-0.079486,-0.30204,-0.19505,-0.050252,0.065357,0.09676,-0.029043
0.014698,-0.0073511,0.017485,0.12933,0.0040978,-0.040803,0.023337,0.025698
-0.043752,0.0016001,0.070323,-0.071623,-0.052855,-0.0056545,0.27077,0.0019949
0.015095,0.056618,0.12903,0.10798,0.099811,-0.0004455,-0.13679,0.0094381
0.035815,0.025011,0.14622,0.043152,0.033268,-0.0013179,-0.074088,-0.022034
0.034789,-0.085075,-0.12041,0.062349,-0.064023,-0.078396,0.0054806,0.025005
-0.049961,-0.062247,-0.23299,-0.25567,-0.15213,0.04952,0.16385,-0.052392
0.023901,0.054888,-0.042351,-0.058526,0.11332,-0.00066373,-0.29492,0.0036542
-0.040769,0.11823,0.27284,0.30312,0.06065,-0.018504,-0.004125,0.05244
0.06787,0.0029319,-0.036287,-0.24804,-0.013544,0.096894,-0.018665,-0.054701
0.01295,-0.048909,-0.14061,0.22611,0.07751,-0.069298,0.27093,0.10375
-0.058126,-0.06879,0.14026,-0.10228,-0.050035,0.10717,-0.049099,-0.035123
0.056833,0.099205,0.040981,0.055844,0.024591,-0.093062,0.037281,0.012691
-0.10377,-0.11556,0.02233,0.036117,-0.12138,-0.10003,-0.11017,-0.065534
0.045749,0.083539,-0.072457,-0.15411,0.035014,0.04717,-0.16308,-0.035434
-0.017882,-0.13963,-0.18165,0.015873,-0.0061401,0.067575,0.011438,-0.021797
0.0027528,0.035066,-0.040523,-0.095091,-0.10363,-0.12424,0.10851,0.0070012
0.014671,0.091759,0.22496,0.12964,0.071615,0.12077,0.20584,0.11389
-0.012561,-0.016784,-0.13617,-0.013657,0.067477,0.061003,0.09967,0.0023526
0.070188,0.18556,0.383,0.083749,0.11137,-0.037439,-0.24185,0.063251
0.0055447,0.018681,-0.093236,0.10086,-0.0071657,-0.010174,-0.092584,-0.086148
-0.065733,-0.29105,-0.34652,-0.10354,-0.11617,-0.052309,-0.069737,-0.063054
-0.010996,-0.063748,0.14672,-0.1626,-0.044082,-0.023086,0.08493,-0.023773
0.013131,0.091875,-0.065902,0.18164,-0.017981,-0.039593,-0.01843,0.00039186
0.029603,-0.010591,0.0012623,-0.28889,0.0083844,0.077921,-0.09768,0.032836
0.030138,0.10671,0.13888,0.38796,0.22974,0.13414,0.41038,0.073486
-0.087178,-0.078438,-0.33115,-0.16904,-0.24501,-0.18356,-0.23616,0.020632
0.0056158,0.083253,0.30333,-0.34107,-0.056826,-0.031732,0.06402,-0.079099
0.019508,0.053039,0.14444,0.48258,0.16127,0.10478,0.2946,0.047399
0.032871,-0.020906,-0.10494,-0.20519,-0.043911,-0.055898,-0.6313,-0.07679
-0.02422,-0.13931,-0.094151,0.056431,0.093296,0.13395,0.082251,0.024593
0.043995,0.18903,0.23018,0.21176,0.04183,0.025214,0.051687,0.085747
-0.05113,-0.17752,-0.2817,-0.23303,-0.16669,-0.20287,0.15933,-0.10427
-0.035856,-0.052254,-0.16982,0.02487,-0.016065,0.051155,0.15499,0.048466
0.035252,0.11897,0.33886,0.24163,0.072606,0.029788,0.015255,-0.049462
0.0058379,-0.070347,-0.23199,-0.34933,-0.14981,-0.10216,-0.2127,-0.014818
0.016191,0.0046939,0.063645,-0.021419,0.16905,0.14075,-0.24708,0.074702
0.057972,0.10965,0.10165,0.0076367,-0.10311,-0.052816,0.37382,0.031966
-0.072573,-0.021244,-0.0078147,-0.041677,0.11189,0.0056869,-0.1537,-0.056841
0.045829,0.057065,0.05602,0.098218,-0.014571,0.0044698,0.062063,0.027154
-0.095083,-0.054156,0.1135,0.15547,0.063349,-0.0015521,-0.1107,-0.020714
0.020132,-0.09729,-0.3357,-0.002027,-0.030711,0.065443,0.18819,0.0026503
0.063476,0.13085,0.098467,0.094074,-0.016918,-0.068757,-0.048604,-0.027795
-0.058377,-0.064636,0.08726,-0.02648,-0.076116,0.0088224,-0.0241,-0.0027051
0.045839,-0.12825,-0.2136,-0.50657,-0.13081,0.054809,0.16768,0.015385
-0.068448,0.019173,0.26582,0.35441,0.14714,-0.080282,-0.45825,-0.059538
0.060405,0.066263,-0.13871,0.015186,0.063085,0.032525,0.042549,0.11612
0.011076,0.060812,0.064976,0.23999,-0.038069,-0.075769,0.37212,-0.0047955
0.018258,0.065848,-0.068333,-0.29955,-0.061174,0.0091319,-0.18172,-0.039826
-0.035186,0.065786,0.18816,-0.047681,0.15921,0.14724,0.31729,0.088751
-0.0010172,-0.12728,-0.087087,0.13065,-0.063283,-0.019937,-0.14752,-0.1116
-0.051502,-0.092138,-0.088922,-0.18339,-0.19674,-0.24148,-0.25645,-0.070776
0.015977,-0.04048,-0.12931,-0.22877,0.055848,0.092746,0.0062014,0.047126
0.091507,0.10521,0.042263,0.24719,0.15495,0.14722,0.086545,0.046942
-0.0050971,0.078914,0.23088,0.38658,0.099599,0.070401,-0.029569,0.04613
-0.032042,-0.08047,-0.055533,0.001757,-0.025557,-0.10686,0.10502,-0.0096819
-0.067706,-0.11516,-0.067266,0.044065,-0.15158,-0.041472,-0.19536,-0.073334
-0.049701,0.029505,-0.047163,-0.50512,-0.16247,0.0080175,0.24254,-0.004002
0.053219,0.095554,0.14446,-0.047757,0.11287,-0.06057,-0.065065,0.049965
0.061403,0.059183,-0.12624,0.25663,0.1039,0.049301,-0.056054,0.018237
0.099878,0.12297,0.30394,0.17137,0.029615,0.032934,0.22924,0.0022825
-0.089173,-0.10433,-0.37017,-0.046563,-0.046782,-0.0625,-0.23457,-0.052711
-0.060449,-0.20908,-0.086014,-0.56831,-0.1712,-0.041205,0.019078,-0.037473
0.037666,0.03519,0.15704,0.33491,0.25899,0.13642,-0.011865,0.10265
0.0022315,0.11326,0.05535,0.36944,0.14328,0.064559,-0.031981,-0.0072895
-0.041398,-0.052107,0.0085698,-0.15639,-0.40805,-0.13931,0.14562,-0.046832
0.0010342,-0.045621,-0.052515,-0.46581,0.011891,0.063914,-0.041244,-0.05484
0.0051044,0.032453,-0.010005,0.33421,0.059663,-0.1462,-0.18513,0.039201
0.0025914,0.058212,0.042527,-0.16159,0.094522,0.073797,0.11421,0.032297
0.040724,-0.006737,0.0031546,0.34299,0.12373,0.028213,-0.070905,0.0025712
0.025839,0.11116,0.12893,0.11139,-0.017716,0.021306,0.17547,0.043601
-0.011027,-0.041622,0.059586,-0.17995,-0.026256,0.060489,-0.15315,-0.055884
-0.01565,-0.1143,-0.32281,0.066882,-0.0983,0.020462,0.24066,-0.01507
-0.012079,-0.01407,-0.0029811,-0.3388,-0.10184,-0.19265,-0.13557,0.056214
-0.00093645,0.062889,0.1286,0.11656,0.072142,0.022832,-0.032789,-0.029903
-0.053041,-0.11067,-0.20097,-0.17704,-0.021533,0.034414,0.016395,-0.086129
0.026616,0.027334,0.10273,0.13279,-0.015197,-0.0011574,-0.0050366,0.06722
0.019212,0.023545,0.055802,-0.13182,0.091775,0.096356,-0.051296,-0.0071533
0.049878,0.24504,0.33795,0.35164,0.073349,-0.031925,0.0098952,0.066133
-0.045172,-0.20671,-0.13728,0.16321,0.031361,0.10655,0.053664,0.021959
-0.039037,-0.058372,-0.19895,-0.2506,-0.13578,-0.21462,-0.052067,-0.10005
0.029545,0.033669,0.11281,0.040256,0.0013452,-0.026677,-0.0092603,-0.018067
0.028011,0.09277,-0.21058,-0.02711,-0.049763,0.1077,0.081837,0.034026
-0.012244,-0.045094,0.025964,-0.31281,0.046636,-0.022734,-0.097929,-0.044969
-0.00525,-0.067198,0.0026229,0.26842,0.12657,0.089413,-0.086886,0.088853
0.025515,0.089428,0.20489,0.27098,-0.020403,0.021806,0.37291,0.021336
-0.021577,-0.082315,-0.092281,-0.34381,-0.14344,-0.11661,-0.28158,-0.06036
0.033126,0.090365,-0.0044561,0.16719,0.00079032,0.048876,0.15954,0.069794
-0.083775,-0.024331,0.055691,-0.46024,-0.16467,-0.14589,-0.070766,-0.081013
-0.0049847,-0.11294,-0.098433,0.10351,0.18923,0.12738,-0.13013,-0.013388
0.019645,0.012772,-0.0056227,0.38291,0.15663,0.11126,0.15221,0.006559
0.029289,0.06407,0.021197,-0.082759,-0.036311,-0.15469,-0.13067,0.0097735
0.039582,0.048565,0.066908,0.29159,-0.00014622,-0.013719,-0.049182,0.050838
0.026934,0.13736,0.1378,-0.19122,-0.13515,0.026745,0.16266,-0.0029895
-0.08709,-0.2255,-0.28351,-0.2993,0.0096529,-0.0097493,-0.0022807,-0.06558
-0.0060453,0.0052927,0.020033,0.08195,0.065037,0.056269,-0.012013,-0.019494
0.035229,0.039072,0.10174,0.091087,0.029495,0.07582,0.024723,0.073025
0.0050767,0.10885,0.17169,0.070742,-0.027303,-0.076869,-0.26671,0.001243
-0.0030153,-0.13002,-0.27032,-0.12745,-0.01122,-0.0041845,0.16842,-0.0081374
-0.020357,-0.021545,-0.091066,-0.041327,-0.13181,0.027594,0.32204,0.029336
0.0079038,0.075288,0.21034,-0.22352,-0.12132,-0.075564,-0.14221,-0.050348
-0.027238,-0.11982,-0.099305,0.26592,0.24929,0.030306,-0.13878,-0.0049343
0.038798,0.050692,0.13742,0.34335,0.13074,-0.060336,-0.16006,-0.0061844
0.0034669,0.1195,0.030789,0.010488,-0.061232,0.012952,-0.018387,0.016378
-0.015496,-0.10746,-0.34837,-0.52087,-0.13059,0.024788,0.20858,-0.030814
-0.0098588,0.050431,0.29682,0.0070243,0.0082665,-0.016023,-0.087813,0.016447
0.0049806,0.015476,0.16133,0.19483,0.049326,0.055124,0.14787,0.048831
0.013393,-0.0013911,-0.24764,0.0098084,0.045274,0.097536,0.12725,0.011551
0.038588,0.093223,0.18655,0.24698,0.025058,-0.03791,-0.14138,-0.040955
-0.06047,-0.22467,-0.30988,-0.28301,-0.083795,-0.086731,-0.1577,-0.062186
0.020394,0.013098,-0.025919,0.035456,-0.017277,0.066935,-0.054333,0.080242
-0.00059142,0.087269,0.14824,-0.15022,-0.041793,-0.078096,0.1297,0.034368
0.0011366,-0.033794,0.041399,0.19089,0.022516,-0.0304,-0.051057,-0.051653
-0.021572,0.079313,0.068348,-0.09707,-0.088906,-0.0714,-0.0032426,-0.013859
-0.0062839,-0.11271,-0.20788,-0.20063,0.15692,0.18997,0.17865,-0.047441
0.047149,0.13211,0.40045,0.4519,0.09021,-0.0031401,-0.014286,0.066682
-0.0093706,-0.038011,-0.24739,-0.083249,0.033339,-0.05573,-0.1068,0.00087108
0.012135,0.064251,0.035796,0.20325,-0.13694,0.010074,0.048238,-0.0021329
-0.05186,-0.11586,-0.20354,-0.30443,-0.39602,-0.15619,-0.12835,-0.0043173
-0.0055429,-0.039185,-0.012684,-0.74588,0.28774,0.15708,0.25358,-0.01312
-0.0047997,-0.0023269,0.084602,0.80139,0.32012,0.059334,-0.14168,0.0028717
0.0051958,-0.043936,0.10364,0.0013875,-0.07362,-0.06718,-0.15689,-0.011121
0.078986,0.25051,0.22378,0.24394,-0.082959,-0.05174,0.0063388,0.038315
0.036452,-0.1186,-0.32094,-0.33975,-0.17896,0.05723,-0.072099,-0.0056036
-0.091808,-0.041652,0.10194,-0.040938,0.057984,0.10963,0.21872,0.01274
0.021575,0.051735,-0.078159,0.044157,0.063575,-0.028788,0.19226,-0.0010147
-0.05379,-0.026043,-0.0018914,-0.0085697,-0.022609,-0.18706,-0.17478,-0.031699
0.0097033,-0.064255,0.026292,0.18217,0.010255,-0.029397,-0.10962,-0.063889
0.039945,0.10092,0.14753,-0.055951,-0.0088836,0.1324,0.43343,0.1369
-0.017672,-0.085407,-0.27025,-0.26111,-0.031525,-0.036169,-0.42192,-0.1086
0.0012855,0.048494,0.1409,0.092274,0.0617,0.060604,0.089058,0.012748
0.011471,-0.052107,-0.12613,-0.0082407,-0.00023527,-0.012653,-0.26043,0.009487
0.029224,0.1519,0.2025,0.30821,0.01152,-0.0039929,0.069244,0.030745
-0.046285,-0.065942,0.10342,-0.4314,-0.12777,-0.044801,0.19637,0.03015
-0.019095,-0.18983,-0.40808,-0.13844,-0.034239,-0.040665,-0.088777,-0.031141
0.025334,0.17884,0.51116,0.4071,0.17507,0.086292,0.011507,-0.028237
-0.0065034,-0.04574,-0.3271,0.18132,0.046191,-0.040087,0.0050191,-0.016236
0.033808,0.019254,0.037432,0.11953,0.022724,0.062643,0.11729,0.058905
0.02099,0.084648,-0.10666,-0.3052,-0.069476,0.0327,0.2136,0.02455
-0.061067,-0.16231,-0.033016,-0.19862,-0.10786,0.031653,0.025987,-0.034115
0.0057807,0.074878,0.17243,-0.09597,0.030393,-0.028572,-0.36175,-0.039577
0.049035,0.05363,0.0098044,0.24172,0.05462,-0.15718,-0.2556,-0.0078346
-0.049033,-0.06236,0.13544,0.015641,-0.020322,0.0048129,0.14909,0.0063417
-0.015371,0.039164,-0.16158,0.0064907,-0.12405,-0.12011,-0.099572,0.042216
0.048266,-0.040306,-0.03758,-0.14439,0.025432,0.18042,0.28976,-0.0013452
-0.045618,-0.058465,-0.10206,0.0021718,0.085584,0.033297,0.13227,-0.022206
0.0078197,0.024018,0.12145,0.21402,0.096798,0.049823,-0.20232,-0.019754
0.013517,0.043424,0.046994,-0.022057,0.036868,0.0050389,0.084726,0.037827
0.0030045,8.9373e-05,0.018403,0.046257,-0.15571,-0.0531,0.1506,-0.0052604
0.039041,0.1052,-0.073481,-0.26647,0.012018,0.016568,-0.23905,0.023162
-0.010969,-0.055151,0.076378,0.22122,0.087532,0.01885,0.032302,0.006058
-0.021842,-0.098098,-0.14873,-0.0047885,0.0089277,-0.022909,0.0026168,-0.072176
-0.02466,-0.03923,0.064266,-0.10733,-0.066891,-0.085382,-0.18872,0.022758
0.012005,0.10589,0.1066,0.0082596,-0.13922,0.0032795,0.17584,0.017273
-0.021028,0.032689,-0.20085,-0.29816,-0.18401,-0.11627,-0.029842,-0.018529
0.0092372,-0.07113,0.087605,0.19983,0.33028,0.11059,0.029113,0.0010163
0.040442,0.12279,0.25337,0.49346,0.20808,0.1054,0.062609,0.028695
-0.013306,-0.24471,-0.32092,-0.26286,-0.17663,0.015769,0.12434,-0.021834
-0.011459,0.060912,-0.010744,-0.26705,-0.028699,0.027905,-0.083414,0.020865
0.014519,0.11778,0.11284,0.20434,-0.03784,-0.078603,-0.24091,0.0001129
0.01743,0.058523,0.025447,-0.11748,0.051443,0.10078,0.15958,0.048382
-0.057803,-0.062564,0.10111,0.20228,0.073151,-0.091571,-0.12368,-0.068886
0.022809,0.003971,-0.051679,0.0056039,-0.083224,-0.078224,0.21499,-0.01572
0.0011262,-0.10967,-0.17569,-0.20804,-0.14428,-0.046439,-0.22144,-0.049675
0.025378,0.02564,0.033575,-0.039357,0.0082739,-0.01848,0.053018,0.056256
-0.0060566,0.057921,-0.0017883,0.0059818,0.10309,0.14037,0.24305,0.0448
-0.0071311,-0.0052186,0.046942,0.11066,-0.013445,-0.012944,-0.16569,-0.01321
-0.032275,0.015938,0.024326,-0.12829,-0.018362,-0.015361,0.062063,-0.00019077
0.0048153,0.051335,0.13434,0.096762,0.027991,-0.021538,-0.26863,-0.025315
0.0029871,-0.11733,-0.23949,-0.009022,0.033082,0.086468,0.21712,0.01297
0.0094885,-0.059764,0.067414,0.23482,0.11419,0.019411,0.042221,-0.010529
0.048021,0.1778,0.18813,0.054336,-0.026558,-0.0049686,-0.012985,0.044505
-0.029746,-0.15399,-0.33821,-0.40355,-0.14095,-0.081997,-0.082424,-0.04101
-0.0051241,0.19538,0.34772,0.23413,0.042286,-0.041573,-0.011052,0.013912
-0.0033194,-0.10188,-0.097863,-0.08927,0.0054693,0.075633,0.10624,-0.0017927
-0.0011897,-0.045645,-0.13589,-0.039219,-0.08109,-0.067469,-0.13777,-0.033389
-0.0068692,0.0046101,-0.063121,-0.10064,-0.061971,0.020769,0.18593,-0.0025477
-0.020648,0.017332,0.042453,0.00021342,0.094024,-0.034569,-0.21988,-0.002716
0.043198,0.0233,0.16527,0.11588,0.075008,0.063989,0.10573,0.036727
-0.010763,-0.024951,-0.085426,0.12259,0.0070332,-0.0029507,0.022423,0.014437
-0.018486,-0.003064,0.024306,-0.0019669,0.024159,0.023447,-0.0082958,-0.0070271
0.027913,0.064906,0.040638,-0.022727,-0.052083,0.050371,0.014317,0.011272
-0.0042377,0.030023,0.072079,-0.095821,-0.064407,-0.10114,-0.041691,0.0065514
-0.028819,-0.076752,-0.093147,0.02831,0.058244,0.0068369,0.043338,-0.045002
0.0012403,-0.083568,-0.14314,-0.057433,-0.11343,-0.04742,-0.18284,-0.026579
0.023616,0.025444,0.046908,0.0052709,0.045594,0.10314,0.43683,0.045886
-0.016248,0.0085463,-0.022783,0.051323,0.15212,-0.026213,-0.44076,-0.015293
0.053593,0.16314,0.15617,0.19709,-0.021108,0.040574,0.17696,0.047648
-0.048105,-0.12748,-0.095227,-0.22979,-0.076572,-0.11115,-0.10832,-0.062091
-0.001082,-0.066183,-0.034166,-0.088721,0.023802,0.041452,0.0078295,0.0072101
-0.016366,0.050181,0.06622,0.12063,-0.017747,0.029121,0.17322,0.013559
0.015307,0.10417,-0.012915,-0.10891,-0.14718,-0.015724,0.11346,0.0040145
-0.015556,-0.068727,0.032646,-0.042229,0.096098,0.016069,-0.2898,-0.0056634
0.070623,0.10916,0.17878,0.36818,0.13395,0.0072766,0.063819,0.039291
-0.030935,-0.065636,-0.11421,-0.056957,-0.025573,0.0049256,0.079564,0.0060965
-0.023408,-0.12438,-0.18257,-0.1222,-0.069532,-0.06098,-0.16509,-0.050539
-0.023991,-0.012018,-0.018287,-0.17139,-0.083328,-0.025946,0.11092,-0.021193
0.0064269,-0.055985,-0.081505,-0.017218,0.089869,0.05582,0.0093902,0.0082924
0.044503,0.14303,0.14459,0.2464,0.059997,0.020704,-0.00033672,0.030255
-0.011202,0.070207,0.13785,-0.029036,-0.078685,0.025296,-0.042485,-0.0020068
-0.012123,-0.070834,-0.12411,-0.21065,0.057064,0.015106,0.032164,-0.0024067
0.0027859,0.087141,0.17953,0.28767,0.037894,-0.056691,-0.057022,-0.0099293
-0.0054636,-0.050049,-0.084196,-0.080652,-0.1594,-0.041734,0.14342,-0.0011685
-0.013401,-0.092578,-0.15046,-0.21377,-0.081583,-0.041739,-0.16338,0.00028442
0.033652,0.060153,0.073255,0.029182,0.16192,0.060283,0.13168,0.025422
0.0028425,0.0088077,-0.00033945,0.21082,0.10214,0.12351,-0.010899,0.011432
-0.012142,0.041822,0.088507,-0.051752,0.027727,0.030567,0.064687,0.020517
-0.034802,-0.16915,-0.075005,-0.032297,-0.1087,-0.18739,-0.1262,-0.072527
0.02075,0.087028,0.0090164,0.049937,-0.026403,0.016483,0.0024102,-0.0021276
0.021673,0.021885,-0.065108,-0.079071,-0.069563,-0.053044,-0.26007,-0.018165
-0.00078998,0.02685,0.070965,0.14264,0.011583,0.033836,0.16506,0.02806
-0.0075686,0.0012069,-0.12812,-0.24623,-0.0095874,0.10535,0.23156,0.027509
-0.014281,0.0081628,0.13604,0.011995,0.14823,0.067747,0.1509,0.019555
-0.028753,-0.092486,-0.080639,0.13616,-0.030498,-0.09472,-0.24855,-0.034659
0.050523,0.011809,0.0427,-0.021897,-0.037934,-0.015105,-0.14644,-0.010088
-0.01875,0.0707,0.060467,0.014697,0.016504,-0.037441,0.011728,0.022827
-0.0023686,-0.018059,0.0027854,0.0040676,-0.054774,-0.013524,0.16319,0.0091301
0.036954,0.064949,0.00069602,0.024606,0.076294,0.064341,-0.10636,-0.020272
0.013068,0.045361,0.21621,0.11562,-0.0043004,0.016513,0.26541,0.035847
-0.05074,-0.1635,-0.38382,-0.18356,-0.015076,-0.031806,-0.20598,-0.057134
0.0017499,-0.030789,0.011804,-0.036645,-0.096234,-0.049044,-0.14555,-0.0024439
-0.0090187,0.076382,0.01197,-0.16983,-0.0519,0.012064,-0.014316,0.035921
-0.020245,-0.052434,-0.015723,0.1203,0.079445,0.11283,0.1719,-0.043389
0.031,-0.0023767,0.086092,0.13849,0.14982,-0.058924,-0.095185,0.041181
0.028017,0.09464,0.16268,0.23601,0.0188,-0.026458,0.18367,0.00088977
-0.028735,-0.018413,-0.12036,-0.17376,-0.11061,-0.0006777,0.093401,-0.015558
0.0095259,-0.0050962,-0.082065,-0.052717,-0.09041,-0.03641,-0.10137,0.031053
0.025783,0.080047,0.20806,-0.20651,0.00060721,0.03009,-0.081034,-0.023327
-0.042494,-0.091299,-0.16373,0.17663,0.12258,0.057722,-0.13479,-0.0069472
-0.008027,-0.011747,0.021161,0.065218,-0.022152,-0.063491,-0.066693,-0.0059774
0.027234,-0.072438,-0.081471,-0.14203,0.011024,0.064234,0.18714,0.026165
0.0002971,0.10896,0.090238,0.055657,-0.028361,-0.012838,0.019205,-0.020191
0.0043795,-0.022616,-0.073765,-0.11409,-0.054552,-0.068596,-0.15451,0.0031434
-7.8777e-05,-0.053292,0.066525,0.060725,-0.020521,0.045218,0.24571,0.010083
-0.036907,0.071563,0.065323,0.080944,0.15235,-0.022792,-0.13088,-0.03064
