-0.051607,-0.0040541,0.10501,0.031036,0.00042843,0.022417,0.17484,0.079236
0.10313,-0.048639,-0.15947,-0.12539,0.0014019,0.021845,0.099988,0.05527
0.1281,0.019531,0.067492,0.030761,-0.013355,-0.001953,0.058946,0.070731
-0.14174,0.1148,0.012443,0.046546,0.018736,-0.009825,-0.34814,-0.18761
-0.012597,-0.059986,0.011617,0.015918,0.011765,-0.017388,0.033362,-0.025154
0.068621,-0.04465,-0.098505,-0.053127,-0.003068,-0.0012727,-0.055879,0.065413
-0.14145,-0.027831,0.0030511,-0.0042475,-0.010269,-0.00067386,-0.0232,-0.11911
0.13804,0.075086,0.090292,0.01405,0.013409,0.046747,0.42779,0.20294
-0.29554,0.028423,-0.070883,0.032751,-0.0025463,0.00021081,-0.077724,-0.069186
0.019976,-0.16111,-0.0040985,-0.042354,-0.034851,-0.054454,-0.1951,-0.074993
-0.046708,0.14635,0.15713,0.092826,0.033631,0.02335,-0.11041,0.0069768
0.24789,-0.11199,-0.041448,-0.062335,-0.0079493,-0.031933,-0.040585,-0.025466
0.091844,0.095279,-0.015221,0.038521,0.028146,0.045475,0.03181,0.0938
0.16448,0.057844,0.078374,-0.042369,-0.045212,-0.033282,0.10822,0.0053098
-0.027543,-0.098294,-0.15981,-0.023673,-0.0088254,0.0054403,0.040907,0.052119
-0.032627,0.026564,-0.12039,-0.068997,0.0049451,0.021167,0.048302,-0.032576
-0.31294,-0.081864,0.064673,0.025544,0.012086,0.013949,0.12913,-0.023621
-0.16577,0.085444,-0.0093514,0.04993,0.012785,-0.0084639,-0.077974,-0.0082838
-0.043559,-0.12692,0.14384,0.083189,0.02262,-0.022805,-0.11426,-0.089075
0.13339,0.039105,0.088662,0.016668,-0.029012,-0.013692,-0.012826,0.093012
0.35145,0.11428,-0.11864,-0.086686,0.013648,0.026424,-0.15754,-0.071126
-0.19241,-0.035453,0.007177,0.038891,0.009375,0.026999,0.021893,0.013064
0.11976,0.12718,-0.049461,-0.052047,0.012266,0.0035023,0.15919,0.026366
-0.0094757,-0.11076,-0.10967,-0.07861,-0.071888,-0.083177,-0.14258,-0.069199
-0.035067,0.24119,0.22343,0.052406,0.014486,0.0092155,0.086967,0.094325
0.016847,-0.32572,-0.13819,-0.034702,0.0057895,0.015214,-0.010284,-0.02969
0.0026982,0.12617,0.060884,0.13579,0.035106,0.060037,0.41001,0.2303
-0.12684,-0.558,0.084014,0.047343,-0.0143,0.011106,-0.24607,-0.17336
-0.060618,0.12411,-0.023723,-0.035288,-0.0090857,-0.037612,-0.057385,0.0083186
-0.05629,0.56589,0.017998,-0.10496,-0.019064,-0.023433,-0.22804,-0.12397
0.38783,0.26207,-0.15779,0.025564,0.042072,-0.016521,-0.047979,-0.039464
-0.3425,-0.395,-0.010586,-0.018475,0.0026226,0.014485,0.1698,0.082201
0.053238,-0.084489,-0.037834,0.021547,-0.020276,0.030589,0.1909,0.061924
0.078693,-0.11968,0.20902,-0.017163,0.019993,0.0083668,-0.12495,-0.044657
-0.12261,-0.20568,-0.37604,-0.094044,-0.056664,-0.013174,-0.0036522,-0.009928
0.068067,0.35769,0.44421,0.10483,0.046155,-0.026352,-0.077311,0.041984
0.2052,0.35604,-0.27379,-0.013245,0.023321,-0.00012622,0.053146,-0.029079
-0.15853,-0.23757,0.25931,0.013073,-0.078607,-0.020712,0.044382,0.026813
0.098355,-0.20738,0.22192,0.23033,0.11526,0.083432,-0.087863,0.029373
-0.028548,0.12443,-0.53695,-0.11245,-0.019957,-0.0083583,0.16401,0.016658
-0.14528,-0.07837,0.065208,-0.14955,-0.1245,-0.062042,-0.15363,-0.067189
0.19762,-0.34553,-0.03779,-0.070025,0.013135,0.023687,-0.02586,-0.012299
-0.13481,0.39648,0.064781,-0.03938,0.049831,-0.0091065,0.038711,0.00094343
0.060443,0.30061,0.37825,0.12103,-0.0060188,0.034935,0.08624,0.058332
-0.23034,-0.081037,0.018556,0.16064,0.064711,-0.039266,-0.024399,-0.081846
-0.011339,-0.54799,-0.42038,0.032558,0.019915,0.018693,0.066033,0.026751
-0.13729,-0.28343,-0.40574,-0.23932,-0.085956,-0.040662,-0.095264,-0.075417
0.48248,0.5982,0.33864,0.072462,0.035665,0.041061,-0.062159,0.10533
0.16442,0.37884,0.3317,-0.14031,-0.0143,0.014408,-0.036563,0.015594
-0.21393,-0.10713,-0.095073,0.10805,0.0056971,-0.026439,0.006362,-0.046916
-0.14398,-0.18354,0.13142,0.037523,-0.053291,-0.026537,0.036649,0.011754
0.0061993,0.12913,-0.18228,0.055321,0.050636,0.061039,0.12544,0.034897
0.031355,-0.65877,-0.082319,-0.0020369,-0.0028541,0.017382,-0.00057557,0.083992
0.084853,0.33071,0.13416,0.099985,0.052086,-0.0093896,-0.045236,-0.02984
-0.13325,0.14077,-0.19016,-0.20912,-0.081012,-0.09783,-0.10374,-0.22214
-0.078888,-0.058951,0.099383,-0.046955,-0.042284,0.017219,0.13448,0.005775
0.1051,-0.15196,0.094734,0.070306,0.082789,0.10092,0.13614,0.22323
0.057825,0.47172,-0.01845,0.017083,-0.025796,-0.08931,-0.24107,-0.12503
-0.018378,-0.24886,-0.015312,0.034946,0.053922,0.039926,-0.045033,0.070252
-0.10023,-0.18659,-0.28796,-0.017413,0.0092675,0.011803,-0.049235,-0.073473
0.046983,-0.089183,0.029566,-0.039222,-0.050792,-0.017615,0.15347,0.02248
0.25216,0.34238,0.27226,-0.0079466,-0.033066,0.021891,0.12726,0.12452
-0.15548,-0.093214,0.5567,0.15358,0.0071575,-0.025925,-0.16483,-0.071096
-0.057332,0.26163,-0.45326,-0.039931,0.061542,-0.020338,-0.13476,-0.094629
-0.084566,-0.39683,-0.52287,-0.11258,-0.034325,-0.0080377,0.094098,-0.015416
-0.055719,0.11956,0.098882,0.044736,0.016332,0.02685,0.0069692,-0.01231
0.10902,0.0066355,0.28858,-0.0051739,-0.05975,0.022109,0.11152,0.055883
-0.034321,-0.18048,0.048173,-0.066069,0.011314,0.017097,0.28166,0.16592
0.13212,0.22261,-0.11263,0.12137,0.08957,-0.0035111,-0.24218,-0.096478
0.10038,-0.0027668,0.12016,0.0043758,-0.011667,-0.0081604,-0.1104,-0.013188
-0.23218,-0.23207,-0.17461,-0.10251,-0.049353,-0.066851,-0.12155,-0.053854
0.031025,0.041329,0.15919,-0.10369,-0.085211,-0.01521,0.012448,-0.047617
0.028248,0.12003,0.081575,-0.029126,-0.024917,0.022032,0.025856,0.05143
-0.039877,0.11052,-0.1745,0.30915,0.17867,0.060678,0.099039,0.023758
0.21509,0.56405,0.10819,0.12155,0.072295,0.085134,0.069136,0.087622
-0.14583,-0.84308,-0.079413,-0.19489,-0.14142,-0.12349,-0.046878,-0.10089
-0.052772,0.042693,0.090267,-0.048524,-0.010172,-0.026438,-0.083778,-0.049408
-0.036273,-0.16278,-0.18722,-0.10578,-0.027159,0.03211,0.12324,0.086325
-0.031995,0.11908,-0.1531,0.037362,0.0097236,-0.018644,-0.050557,-0.099187
0.087744,0.59381,0.07683,0.019765,0.052719,0.070828,0.18373,0.1684
-0.0099197,-0.20313,0.21483,-0.042447,-0.023786,-0.020177,-0.15866,-0.094336
0.029504,0.061989,0.28517,0.11607,0.037765,0.012786,-0.16403,-0.03499
-0.088614,-0.73734,-0.41525,0.019207,0.0031438,-0.056902,0.042369,-0.0044745
0.097824,0.037901,0.24556,0.058758,-0.088047,-0.049405,-0.10197,-0.0024504
0.010568,0.16628,-0.25732,-0.013542,0.04632,0.074661,0.24682,0.11168
0.054504,0.43995,0.2072,-0.22675,-0.05359,-0.0045809,0.10444,-0.029668
0.039836,0.32024,-0.026393,0.15596,0.082132,0.057078,-0.068242,-0.013182
-0.1065,-0.39849,-0.20886,-0.066082,0.0013995,-0.068099,-0.15442,-0.066406
-0.20746,-0.088417,-0.0275,-0.29703,-0.099742,-0.051744,-0.14696,-0.12012
0.28967,0.0094794,0.17516,0.41758,0.10713,0.090572,0.22667,0.20742
0.032312,0.43512,0.19024,0.078044,0.020243,0.030581,0.12957,0.11067
-0.22937,-0.6692,-0.15947,-0.097825,-0.095474,-0.075775,-0.064132,-0.098417
-0.064563,-0.12045,-0.28562,0.067568,0.079208,0.01327,-0.019041,-0.091807
0.0363,0.10242,-0.037977,-0.16308,-0.011708,0.031644,-0.11016,-0.048799
-0.073402,-0.32923,0.38103,-0.12119,-0.11955,-0.08356,-0.09469,-0.038857
0.25611,0.53862,-0.16214,0.12766,0.11392,0.042364,0.067665,0.087611
0.30654,0.78569,0.40067,0.23733,0.062931,0.065523,0.07384,0.10528
-0.22737,-0.11733,-0.23068,-0.074693,0.0084682,-0.021874,0.081792,-0.00041091
-0.14392,-0.58243,0.11976,-0.25374,-0.18201,-0.039957,-0.11799,-0.064728
-0.085602,-0.42746,-0.44203,-0.11893,0.015714,-0.011853,-0.04034,-0.087523
-0.015095,-0.126,0.19099,0.15999,-0.022277,-0.038734,-0.044653,-0.0066944
0.14455,0.4974,-0.12254,-0.016017,0.080214,0.075106,0.29786,0.16127
-0.10698,-0.2644,-0.1473,0.12886,0.0038903,-0.013752,0.01684,0.032408
0.12162,0.66235,0.42373,0.15103,0.12438,0.046465,-0.23343,-0.06635
-0.10571,-0.079363,-0.03913,-0.065917,0.019947,-0.0098002,-0.040795,-0.07347
-0.044763,-0.77788,-0.11085,-0.045603,-0.16911,-0.049794,0.19496,0.080854
0.26751,0.39371,-0.10141,-0.11708,0.040987,0.012281,-0.15166,-0.14234
-0.26856,0.10417,0.068673,-0.031627,-0.022336,-0.026865,-0.080152,-0.023637
0.074888,0.044234,0.21973,0.076695,-0.023695,0.027933,0.04369,0.12558
-0.076634,-0.025793,-0.17292,-0.097701,-0.025882,-0.018755,-0.028211,-0.068448
0.20625,0.34992,0.12304,0.054162,0.072672,0.0048608,0.12018,0.10629
0.063119,-0.17621,0.12094,0.18864,0.061282,0.051822,-0.0095976,0.017634
-0.038748,-0.2387,-0.25137,-0.20942,-0.083094,-0.042027,0.03626,-0.029671
-0.16344,-0.62575,-0.24479,-0.194,-0.06317,-0.018985,-0.039425,-0.036113
-0.15605,0.40816,0.1723,0.45436,0.12139,0.050523,0.098084,0.020856
-0.079971,-0.046029,-0.12362,-0.12314,-0.0057783,-0.028896,-0.076397,-0.062922
0.43946,0.36089,0.088348,0.042682,0.031948,0.047434,0.2244,0.18041
-0.066384,0.0085217,0.31043,-0.086973,-0.038903,-0.040697,-0.32115,-0.17936
-0.065851,0.04804,-0.2526,-0.12912,-0.046522,-0.027443,-0.065063,-0.001605
-0.081864,0.1517,0.21243,-0.10708,-0.084705,-0.037482,-0.069317,-0.03583
-0.028017,-0.010384,0.033192,0.10422,0.026227,0.03892,0.050242,7.0022e-05
-0.099291,-0.28509,-0.21351,0.22347,0.1222,-0.0088688,0.076569,-0.017942
0.30605,-0.30085,-0.052876,-0.069866,-0.031207,0.053692,0.17525,0.19998
0.25836,0.25996,0.24002,0.1769,0.073648,0.078133,0.089324,0.060468
-0.49232,-0.13512,-0.25774,-0.2946,-0.094741,-0.10765,-0.11879,-0.14753
-0.063069,0.24103,-0.069758,0.06195,0.025798,0.0037819,-0.0047319,-0.049596
-0.10205,-0.047037,0.21096,-0.18356,-0.080674,-0.03328,-0.14035,-0.044999
0.27397,-0.035365,-0.25795,0.12491,0.038733,0.030828,0.25397,0.15443
0.20606,0.044763,0.21267,0.12797,0.079236,0.031864,-0.26832,-0.037946
-0.047666,-0.29654,0.28046,0.036671,-0.068488,-0.022354,-0.012413,-0.0053113
-0.30744,0.19929,-0.42097,-0.055096,0.02542,-0.053526,-0.040496,-0.1617
0.028045,-0.02371,0.17862,-0.26446,-0.084113,0.024569,0.054728,0.024513
0.051927,0.29673,0.062682,0.23667,0.025015,0.016917,0.14969,0.10856
0.036749,0.093175,-0.20004,0.096581,0.087334,0.0096763,-0.051058,0.020687
0.17674,-0.18684,0.12293,-0.091166,0.0013179,0.026359,0.094148,0.034693
0.041081,0.28763,0.2095,0.063924,0.032512,0.027808,-0.086107,0.033486
-0.28521,-0.69744,-0.30885,-0.094368,-0.077042,-0.079953,-0.045107,-0.12372
0.025483,0.18585,0.0047781,-0.11266,-0.054037,0.0074766,0.099331,0.047149
-0.011162,-0.082978,-0.021285,0.087681,0.046795,0.063286,0.026042,0.0302
-0.14444,-0.22472,-0.17522,-0.2896,-0.10258,-0.11577,-0.17202,-0.11996
0.4394,0.6587,0.41925,0.56864,0.2012,0.095345,-0.018829,0.057789
-0.023614,-0.29236,-0.072538,-0.079318,-0.033744,-0.029687,-0.022375,-0.029825
-0.19577,-0.056314,-0.01681,-0.17856,-0.064838,-0.013951,0.083093,0.039701
-0.13792,0.14321,0.14934,0.14591,0.030135,0.025771,0.10254,0.02481
-0.13008,-0.30412,-0.48833,-0.25454,-0.068877,-0.042994,-0.057521,-0.074066
0.25798,0.69829,0.35069,-0.10677,-0.0649,-0.0091356,0.0092151,0.094718
0.17436,-0.014069,-0.15501,0.27633,0.16695,0.0804,0.06039,-0.00044255
-0.054153,-0.17789,-0.014476,-0.18388,-0.037781,0.0065188,-0.091881,-0.024379
-0.15633,-0.54552,0.22421,0.27756,0.031207,-0.02823,0.0050448,-0.0094068
0.076015,0.21851,0.067961,-0.082403,-0.056614,-0.0089318,-0.02428,0.019868
0.10098,-0.078127,-0.32736,-0.038179,0.041602,-0.022224,-0.047345,-0.031352
-0.13068,0.36093,0.30416,0.12028,0.012556,0.032911,0.029502,-0.0075341
-0.081314,-0.21817,-0.21613,-0.22481,-0.089602,-0.02348,0.065746,-0.0026683
-0.094811,-0.37796,-0.23806,0.004596,0.008416,-0.019446,0.06167,-0.00082924
0.20505,0.12627,0.13112,0.027801,0.017822,-0.0092617,-0.12294,-0.032464
0.10976,0.47766,0.13575,0.017796,-0.029478,0.015561,0.067126,0.083301
-0.096179,0.046203,0.18389,0.015149,0.093998,0.071466,0.14807,0.074412
-0.1748,-0.15178,-0.059265,0.029275,-0.024796,-0.059476,-0.33261,-0.2062
0.025636,0.053248,0.12538,-0.19626,-0.095846,-0.009392,0.063199,0.086363
-0.054864,-0.3445,-0.1453,0.42536,0.14722,0.019044,0.046908,-0.023745
0.31148,0.23953,-0.38774,-0.12906,-0.045131,0.018177,0.048424,0.018331
-0.055315,-0.066192,0.18608,-0.18028,-0.055571,-0.035577,-0.0027278,0.016814
0.069545,-0.080796,0.082859,0.028482,0.045437,0.037058,0.13505,0.087845
-0.16843,0.023546,-0.089223,-0.04327,-0.023747,-0.030143,-0.031393,-0.051314
-0.10869,0.035055,-0.018954,-0.061231,-0.044929,-0.026936,-0.22197,-0.066399
0.073439,0.24237,0.50321,0.1761,0.035934,0.053826,0.10126,0.0176
0.19552,0.044883,0.046169,0.17513,-0.00055962,0.024107,0.10153,0.14487
-0.12681,-0.1948,-0.61783,-0.15881,0.087205,-0.038277,-0.080884,-0.16943
-0.088965,-0.064303,0.026117,-0.013506,-0.013674,-0.023971,-0.10978,-0.065606
-0.017736,-0.007408,0.05616,-0.036797,-0.022093,0.0048071,0.085951,0.043335
-0.12943,-0.19152,-0.058165,-0.1569,-0.094124,-0.013891,0.030987,0.018359
0.18057,0.21811,0.60645,0.073732,-0.033946,0.022227,-0.0076236,0.056609
0.079307,-0.60693,-0.54195,0.024933,0.081096,0.0045629,-0.0050809,0.011359
0.030076,0.49652,-0.025072,-0.0038052,0.040969,0.035365,0.055297,0.055772
0.010682,0.41621,0.11938,0.13022,-0.012855,-0.033346,-0.052486,-0.067314
-0.025797,-0.05689,-0.076701,0.084415,-0.0016513,-0.013935,-0.031578,-0.022033
-0.096259,0.09154,0.28492,-0.1881,-0.050225,-0.016014,-0.023223,-0.051335
0.05489,-0.072287,-0.046785,0.0068476,-0.010429,0.030129,0.12769,0.077836
-0.20011,-0.60102,-0.13599,0.21412,0.10915,0.014218,-0.064719,-0.042464
0.10465,0.22584,-0.21899,-0.23292,-0.04422,-0.010137,-0.039588,-0.023442
0.1229,0.22362,0.35872,-0.079125,-0.010991,0.026288,0.076553,0.070673
0.12625,-0.39188,-0.10714,0.024672,0.012135,0.028829,-0.029953,0.066636
-0.018951,0.30859,0.047219,0.1079,-0.0072328,-0.057757,0.10126,0.049606
-0.26548,-0.14946,-0.22427,0.052296,-0.038528,-0.046038,-0.2484,-0.22261
-0.041491,0.28486,0.080178,0.084203,0.027541,0.0019491,0.093812,0.024242
0.022784,-0.2739,-0.16193,-0.10046,0.0040258,-0.0066151,-0.011242,-0.044168
0.024332,0.17183,0.44288,-0.21908,-0.12359,-0.00017583,-0.014854,-0.011659
0.2556,-0.037356,-0.063699,0.2303,0.16961,0.13197,0.19422,0.22562
-0.10076,-0.33581,-0.30465,-0.093796,-0.052256,-0.069922,-0.085592,-0.072459
-0.089567,0.23067,0.26004,-0.07974,-0.037722,-0.0034426,-0.11109,-0.052908
-0.030277,0.1922,-0.37775,0.13368,0.073696,-0.019746,-0.0070187,-0.035453
0.13913,0.34244,0.17872,0.00066994,-0.014299,0.0060928,0.10112,0.096735
0.065384,-0.32331,0.33281,-0.0099072,-0.02827,0.011068,-0.0066063,0.014326
-0.20727,-0.20886,-0.23965,0.061979,0.039051,0.0021598,0.097823,-0.0032532
-0.01797,0.16497,0.043058,0.066131,0.022645,-0.0060289,-0.10305,-0.10655
0.028401,-0.77638,0.20822,-0.1716,-0.18805,-0.014553,0.037536,0.061773
0.046014,0.42513,-0.38777,0.002706,0.17136,0.0068923,-0.14569,-0.078081
0.18095,0.60403,0.1052,0.11833,0.0060383,0.010713,0.03422,0.050938
-0.14634,-0.31788,-0.11711,-0.20876,-0.028558,-0.011314,-0.016305,-0.028126
0.056001,0.12143,-0.005535,0.013349,-0.050054,0.011048,0.039462,0.08342
-0.17997,0.22102,0.24059,0.18377,0.011818,0.015548,0.16366,0.011364
-0.14938,-0.45336,-0.1241,0.046148,0.0011108,-0.059802,-0.11895,-0.11034
0.12677,-0.014596,-0.016745,-0.16317,0.019944,0.012236,-0.072761,-0.014747
0.19022,0.065978,0.16047,-0.10612,-0.0013094,0.0058297,0.045351,0.065061
0.059147,-0.41684,-0.19897,0.1567,0.00053495,0.038827,0.048428,0.098991
-0.0065358,0.29252,0.12494,0.025097,0.018246,-0.01327,0.061623,-0.037024
0.072854,0.46426,0.16311,0.015332,-0.0024446,0.037337,-0.071493,-0.014172
-0.2563,-0.54725,-0.41438,-0.029034,0.0090277,-0.028008,-0.070062,-0.089803
-0.0010841,0.61784,0.43655,0.062952,0.021532,0.0093886,0.049807,0.017602
-0.03599,-0.050234,-0.27175,-0.061698,-0.066452,-0.069359,-0.10299,-0.059065
-0.087277,-0.53211,0.035614,-0.16242,-0.075216,0.0090407,0.096127,0.039427
0.12628,0.20569,-0.065959,0.29054,0.14369,0.041352,0.037424,0.070475
0.088548,-0.17905,-0.078391,-0.18048,-0.058146,0.0040665,0.0096648,0.025546
0.071773,-0.1066,0.26295,0.0021378,-0.016708,-0.032549,-0.010833,0.044275
0.16786,0.51134,0.0048571,0.065031,0.072579,0.064262,0.038259,0.00051315
-0.25052,-0.1888,-0.11764,-0.17871,-0.071769,-0.057159,-0.13219,-0.13031
-0.17807,-0.06112,-0.095556,0.13901,0.042095,-0.0063364,-0.014294,-0.067848
0.14077,0.096905,0.088207,-0.098042,-0.008114,0.052467,0.087448,0.093593
-0.0065977,0.10707,-0.080502,0.25934,0.027189,-0.021604,0.01707,0.010157
0.03527,0.058852,0.28239,-0.077446,-0.0085823,-0.010032,-0.006383,0.0024479
0.1727,-0.22998,-0.033168,0.071375,-0.0062372,0.047923,0.025136,0.1023
-0.41372,-0.75308,-0.30806,-0.1928,-0.098588,-0.12131,-0.14609,-0.20517
0.097732,0.37099,-0.026813,-0.0812,0.027035,0.052489,0.050193,0.049481
0.19311,0.50696,0.091178,0.023095,0.034969,0.022431,0.08248,0.054315
-0.047877,-0.24835,0.11518,0.096454,0.019238,-0.016179,0.044156,0.04403
0.11816,0.64425,0.20021,0.045007,0.065959,0.092911,0.028569,0.057767
0.098195,0.17397,0.181,0.087387,-0.0045281,-0.040924,-0.12083,-0.013948
-0.42786,-0.95374,-0.66198,-0.20627,-0.11422,-0.089542,-0.021317,-0.15566
0.23513,0.25424,0.26488,0.054371,0.080404,0.079931,0.030456,0.046568
-0.14767,-0.27934,-0.21742,0.048628,-0.038069,-0.048008,-0.082208,-0.071344
-0.092486,-0.27906,-0.099673,-0.067677,-0.032305,-0.043488,0.0085339,-0.032759
0.28279,0.4934,0.29176,0.095696,0.03516,0.039023,0.053312,0.14679
0.16495,0.37247,0.24764,-0.00056027,-0.030876,0.074747,0.052537,0.076696
-0.11852,0.13251,-0.21516,0.049801,0.12139,0.024813,0.17034,0.038071
-0.27114,-0.4888,0.34144,-0.30759,-0.16394,-0.063745,-0.1561,-0.14121
0.12108,0.13106,-0.40302,0.27166,0.16822,-0.018917,-0.052329,-0.016131
0.074156,-0.055618,0.074307,0.0072081,-0.061409,-0.0046271,-0.026831,0.022481
-0.26266,-0.53318,-0.43056,-0.20929,-0.10242,-0.044171,-0.048911,-0.13477
0.27579,0.17482,0.12838,0.084043,0.053303,0.026641,0.092044,0.13729
0.018817,0.37935,0.62538,0.10656,0.015338,0.051618,0.0053673,0.065606
-0.18103,0.084099,-0.19799,0.01464,0.0024383,-0.031802,-0.043105,-0.12285
0.18468,-0.10922,-0.14689,-0.22344,-0.024671,0.04179,0.032945,0.064478
-0.1418,-0.20428,0.059695,0.2429,0.082014,0.014219,0.046466,-0.020626
0.23755,0.55748,-0.26573,0.03728,0.0093949,0.01004,0.060403,0.090596
-0.30318,0.033936,0.11933,-0.060452,-0.032255,-0.072752,-0.10455,-0.078613
0.28175,-0.18323,0.30136,0.018875,-0.074792,-0.031374,-0.073125,0.026083
-0.26673,-0.35266,-0.34396,-0.15499,0.037605,0.016801,0.0064029,-0.080124
-0.11384,-0.33172,-0.10515,-0.066256,-0.038996,-0.021993,-0.045679,-0.085181
0.30197,0.26042,0.22903,-0.089036,-0.031093,0.047671,0.15321,0.18239
0.12069,0.13669,0.27559,0.29366,0.1397,0.10097,0.11824,0.066029
-0.21268,-0.18197,-0.22387,-0.033866,-0.057514,-0.08846,-0.14341,-0.090706
-0.057436,0.40556,-0.020342,0.085923,0.026074,0.026416,0.055092,0.0090189
0.01657,0.079127,-0.17744,-0.041501,0.00014105,-0.03862,-0.068108,-0.08779
0.049238,-0.24792,0.13976,-0.12688,-0.096038,-0.04904,-0.17742,-0.037085
0.026102,-0.0079793,0.0086647,0.11852,0.097042,0.050014,0.13337,0.075618
0.026665,-0.25334,-0.14133,-0.17321,-0.045551,-0.014715,0.036388,0.039841
0.075832,0.28894,0.31494,0.098612,0.015283,0.061624,0.032088,0.098184
-0.24686,0.045464,-0.28602,0.10503,0.029572,-0.05679,0.019434,-0.15531
-0.010566,0.20653,0.15039,-0.099983,-0.049527,0.012897,-0.0088891,0.0060556
0.1058,-0.20248,0.25799,-0.063782,-0.011053,0.028453,0.00222,0.043229
0.078977,-0.16369,-0.61064,-0.05232,-0.011256,-0.041486,-0.064096,-0.020441
-0.052451,-0.095214,0.076627,0.035733,0.035749,0.021674,-0.027873,0.010237
0.17132,0.59504,0.18755,0.19232,0.075148,0.030281,0.05645,0.057039
-0.22789,-0.49799,0.21448,-0.082844,-0.080749,-0.06265,0.0016013,-0.10664
0.029308,-0.11261,0.27438,0.069299,0.028766,0.0084594,-0.035992,0.0036197
0.073989,0.0070562,-0.49263,-0.0076793,-0.0027624,0.024884,0.014063,0.059795
0.03764,-0.17924,-0.21996,-0.087074,-0.050456,-0.013303,0.057945,0.015156
-0.14291,0.24063,0.24827,0.03489,0.041946,-0.020078,-0.060848,-0.036418
0.0011581,0.22354,-0.080203,-0.29681,-0.061332,0.035864,0.055686,-0.0011171
-0.0919,0.24661,0.17776,0.27109,0.0775,-0.0017346,-0.01491,-0.019621
0.12601,-0.13842,-0.094434,-0.025102,-0.017756,-0.0079554,-0.093608,-0.0061862
0.093759,0.039079,-0.021056,-0.097698,-0.034227,0.017069,0.029875,0.023228
0.0079194,-0.15059,0.22671,0.17949,0.044032,0.034136,0.19092,0.13849
0.0021768,-0.16865,-0.21781,0.048968,0.04536,-0.042784,-0.15772,-0.13744
-0.087145,-0.2329,-0.0027548,-0.03683,-0.06922,-0.049625,-0.055275,-0.015957
0.075774,0.48821,0.17653,0.029853,0.028361,0.052787,0.053046,0.041705
-0.25181,-0.43628,-0.27411,-0.31578,-0.13866,-0.11036,-0.027769,-0.10522
0.17138,0.06573,-0.15239,0.12675,0.10906,0.093916,0.054286,0.090189
0.00042203,0.31885,0.32939,0.15954,0.075733,0.056337,0.034062,0.034349
-0.031635,-0.46013,-0.16665,-0.039936,-0.075198,-0.066943,-0.088028,-0.10847
0.073842,0.42266,0.28683,-0.11383,-0.031914,0.036287,-0.053898,0.044733
-0.0046688,0.34817,0.13268,0.16377,0.10336,0.0062035,0.12875,0.06435
0.091406,-0.21772,-0.084302,-0.097421,-0.013667,0.0063749,0.06146,0.028532
0.18227,-0.036993,-0.099598,0.041496,-0.023863,0.036409,0.041049,0.10137
-0.41096,-0.6776,-0.4597,-0.01874,-0.059916,-0.1304,-0.19809,-0.23264
-0.061451,0.21317,0.079621,-0.032969,0.011534,0.013942,-0.038555,-0.035626
0.0069044,0.40099,0.20157,-0.091695,-0.050776,0.0012288,0.02788,0.044544
0.07845,0.095712,0.1761,0.1206,0.098054,0.090056,0.11119,0.086756
-0.10956,-0.55645,-0.35979,-0.33913,-0.11894,-0.13277,-0.12394,-0.17385
0.44488,0.5193,0.23766,0.40513,0.14292,0.1382,0.12764,0.23986
-0.21861,-0.048456,0.20415,0.11853,0.0013211,-0.057543,-0.02457,-0.093829
0.00044133,-0.24106,-0.28926,0.017842,-0.0046942,0.014421,-0.0027513,0.020088
0.16975,0.50703,0.5437,-0.21257,-0.063184,0.056804,-0.0029721,0.049564
-0.1205,-0.46463,-0.2542,0.0095727,0.012397,-0.063971,-0.0028817,-0.037768
-0.0929,-0.15913,-0.37497,-0.077019,-0.0056661,-0.0051041,0.066601,-0.047813
-0.10229,0.070331,-0.12714,0.12663,0.084644,0.029353,-0.11598,0.0027504
0.067951,0.075193,0.42441,-0.099447,-0.061266,-0.023793,-0.043666,-0.035193
0.018822,0.27071,-0.15041,-0.19245,-0.084431,-0.00078871,0.07223,0.0022449
0.040364,-0.25506,0.024921,0.22429,0.062119,-0.0030489,0.036541,0.068528
-0.19331,0.062993,-0.14801,-0.057539,-0.027304,-0.084695,-0.032886,-0.12465
