-0.04314,-0.019842,0.052629,0.034897,0.021009,0.013131,0.024555,-0.10175
0.020708,0.074729,0.016672,-0.051001,-0.023888,-0.025257,-0.0007273,0.43764
-0.088243,-0.11228,-0.098496,-0.03543,-0.014706,-0.0016358,-0.018033,-0.21058
-0.042232,-0.15884,-0.05025,-0.004378,-0.0064256,-0.025539,-0.10526,-0.42133
0.080443,0.17757,0.02925,-0.012555,-0.022651,-0.0032785,0.0033479,0.086876
0.053284,0.045944,0.10176,0.072857,0.038175,0.018318,0.096836,0.072245
0.0094261,0.087624,0.027532,0.0097007,0.012159,0.00034567,0.010941,0.10541
0.14476,-0.024657,-0.083246,0.048032,0.048073,0.11494,0.21407,0.56926
-0.27428,-0.00091508,0.035653,-0.03861,-0.0020499,-0.012535,-0.098807,-0.51303
-0.059251,-0.39494,-0.19363,-0.10161,-0.12984,-0.18634,-0.24041,-0.18892
-0.060741,-0.026342,0.041213,-0.01574,0.0090276,0.031507,-0.030973,0.032928
0.30795,0.72242,0.24731,0.031792,0.00094705,-0.007011,0.069013,-0.10619
0.070605,-0.30518,0.079709,0.10371,0.088341,0.096817,0.013376,0.18975
-0.34335,-0.31326,-0.2522,-0.081165,-0.025776,-0.00077478,0.24821,0.39661
0.20579,0.32135,-0.023572,0.00044925,0.017464,-0.018924,-0.28056,-0.22816
0.013375,0.025801,0.092148,0.035618,0.014077,-0.020901,0.028824,-0.19234
-0.024021,-0.5623,-0.070259,0.047116,0.033309,0.070359,0.16822,0.2235
0.029173,0.78824,0.18401,-0.004899,-0.01964,0.019314,-0.14449,-0.36214
-0.10208,-0.46455,-0.14482,-0.074283,-0.098678,-0.12819,0.01128,-0.2286
0.0031272,0.21627,-0.094808,0.010333,0.045891,0.11156,0.22787,0.51694
0.063488,-0.06084,-0.047186,-0.063701,-0.077824,-0.15212,-0.26157,0.17343
-0.045104,0.095501,0.29686,0.086699,0.10136,0.096964,0.20626,-0.21847
-0.0083608,-0.23395,-0.13883,-0.014381,-0.016795,0.024066,-0.20457,0.013818
-0.019155,0.04119,-0.0088004,-0.030089,-0.032366,-0.072316,-0.14951,-0.25492
0.15181,0.12211,0.039646,0.0093259,0.016991,0.0049141,0.19318,0.34917
-0.11005,-0.21904,-0.16491,0.011016,0.030743,0.022999,-0.057533,-0.23045
-0.10736,-0.046438,0.1116,0.038127,0.0093461,0.029958,0.014064,0.13678
0.043815,0.027335,0.14951,-0.0027967,-0.07085,-0.059702,0.08099,0.081358
-0.0081093,-0.073849,-0.02918,-0.025895,0.070559,0.050533,-0.012643,-0.46908
0.21217,0.5003,-0.058858,0.04657,0.065063,0.21112,0.40461,0.64023
0.13202,0.24514,-0.07383,-0.020357,-0.042013,-0.18896,-0.28545,-0.15396
-0.25941,-0.40923,-0.1768,-0.10232,-0.095904,-0.08909,-0.22464,-0.42974
-0.12936,-0.049836,0.10815,0.026673,0.0038098,0.0011626,-0.085839,0.20421
0.074061,-0.083902,0.2418,0.061498,0.029957,0.07261,-0.064896,-0.079096
0.083326,0.20033,-0.080291,0.025337,0.021606,-0.086494,0.19752,0.1122
-0.055399,-0.64632,-0.17011,-0.050649,-0.036302,0.062698,0.084468,0.17753
0.0021835,0.47771,0.11362,0.013275,-0.017796,-0.034199,0.049319,0.2815
0.062398,0.15438,0.10752,0.014121,0.062652,0.1313,0.029533,-0.52893
-0.13021,-0.25774,-0.14083,-0.04792,-0.0047993,0.005391,-0.02221,-0.19158
0.07541,0.14868,0.24426,0.11641,0.038501,-0.06721,-0.13014,0.51188
-0.10751,-0.12493,-0.50214,-0.18022,-0.080439,-0.10118,0.0094976,-0.38765
0.06477,-0.1722,0.11276,0.031036,-0.010038,-0.048776,0.03656,0.18786
0.124,0.28551,0.36288,0.17207,0.10871,0.20012,-0.033673,0.22302
0.053918,-0.023743,-0.2047,-0.093148,-0.021699,0.0054471,0.080312,-0.39879
0.063947,0.16308,0.050477,0.00085627,-0.034818,-0.015228,-0.019009,0.12792
-0.12132,0.019448,-0.044007,-0.030487,-0.06414,-0.1508,-0.21299,0.077493
-0.097471,-0.057187,-0.043734,-0.038908,-0.0085907,0.03618,0.21107,-0.15859
-0.084398,0.11879,0.065818,0.061434,0.053481,0.022057,-0.10445,0.084367
0.0037239,-0.10982,0.010106,0.036177,0.059623,0.11892,0.16215,0.12701
0.097575,-0.19452,0.053868,-0.06767,-0.091448,-0.15816,-0.26964,-0.13222
0.019325,-0.32529,0.032577,0.054831,0.069445,0.096425,0.28766,0.55641
-0.19752,0.054092,-0.12398,0.013399,0.011549,0.069497,0.16922,-0.80744
0.2538,0.073682,-0.21984,-0.1447,-0.10059,-0.13014,-0.29032,0.18217
0.046529,0.41269,0.12111,0.10435,0.069373,0.028377,-0.1081,-0.11556
0.0012697,-0.037973,0.11887,-0.0047807,-0.017348,0.044934,0.27701,0.33833
-0.14068,-0.067845,0.032306,-0.011017,-0.001266,-0.14281,-0.2922,-0.081402
-0.029678,0.023848,0.057323,0.062134,0.023799,0.074916,-0.081865,-0.20339
0.081677,0.1698,-0.032731,-0.019982,-0.020525,0.0032858,0.18137,0.4636
0.042176,-0.2232,-0.097967,-0.039068,0.013813,0.056825,0.060117,-0.45687
-0.0021647,-0.062861,0.040105,-0.019106,-0.014281,-0.021979,0.038809,0.43976
0.040792,0.15582,0.036387,0.031554,0.011906,0.040384,0.062637,-0.41077
-0.19664,-0.086234,-0.03996,0.0031017,-0.001781,-0.029671,-0.032775,0.052648
-0.049679,-0.3004,0.083838,0.035902,0.022527,0.017573,-0.029024,0.10268
0.038077,0.04114,-0.16252,-0.049778,-0.032425,-0.03693,-0.066873,-0.073031
0.045563,-0.033697,-0.051807,-0.035018,-0.025873,-0.076195,-0.14603,0.13602
0.10026,0.2452,-0.059385,-0.00542,-0.012194,0.048188,0.0078004,-0.096152
0.0089228,0.28065,0.20677,0.039447,0.032466,-0.015199,0.23189,-0.00097837
0.077556,0.32716,0.16201,0.068764,0.046041,0.077658,-0.20649,-0.07495
0.0096496,-0.39145,0.057221,-0.0030586,-0.0023605,0.022359,0.3349,0.43561
-0.17185,-0.54847,-0.36509,-0.097682,-0.057831,-0.14181,-0.29113,-0.51279
-0.053986,0.42703,0.027645,0.066198,0.059366,0.15556,-0.037015,-0.019165
-0.067831,-0.22749,-0.046579,-0.097449,-0.080575,-0.062141,0.22995,0.073953
0.23059,0.26683,0.22366,0.043971,0.029912,-0.052924,-0.10048,-0.17152
0.0043503,-0.70006,0.032431,0.091712,0.054566,0.081389,-0.053281,0.50743
-0.11423,0.38734,-0.12926,-0.079569,-0.061633,-0.10479,-0.0054766,-0.2453
0.35936,0.4109,0.09705,0.08449,0.071665,0.1149,0.048579,0.63468
-0.48034,-0.007406,-0.10942,-0.064777,-0.037879,0.021603,0.013143,-0.66366
-0.10085,-0.12353,0.0093012,-0.035249,-0.030872,-0.1268,-0.019509,-0.099067
0.21027,0.022112,0.0086598,0.024767,-0.0086796,0.06053,0.39527,0.63731
-0.069095,0.034758,-0.17255,-0.04066,0.0056106,-0.048898,-0.60941,-0.90068
0.20252,-0.091644,0.30322,0.026734,-0.011002,-0.032848,0.045846,-0.18734
0.072023,-0.066988,-0.10935,0.047746,0.074725,0.11679,-0.16039,0.43078
0.030818,-0.085082,-0.065213,-0.031901,-0.018121,0.0017042,0.32892,0.48395
0.054004,0.036675,0.10036,0.061479,0.02313,0.082768,0.18778,0.11239
-0.5399,-0.11092,-0.073602,-0.070515,-0.07499,-0.12469,0.027048,-0.42733
0.16926,0.26814,0.11523,0.025063,-0.00021359,-0.12113,-0.019931,-0.19304
0.039475,-0.0049811,-0.092389,-0.042771,0.0048587,-0.00087431,-0.52399,-0.1985
0.030837,-0.30318,0.020474,0.022385,0.025608,0.19641,0.16193,0.30495
0.1508,0.31363,-0.071555,0.009076,0.014514,-0.02204,0.18427,0.34401
0.040075,-0.12082,0.0048004,-0.0050559,0.0099712,0.0621,0.3221,0.10675
-0.035335,-0.042189,0.068627,0.010866,-0.027683,-0.11389,-0.44224,-0.46267
-0.098218,0.26143,0.40847,0.11914,0.072987,-0.018638,0.23355,0.11865
-0.093041,-0.20982,-0.69411,-0.15676,-0.086652,-0.034489,-0.22143,0.30362
-0.042257,0.028018,0.051018,-0.050944,-0.053373,-0.0278,-0.09583,-0.54583
0.10203,0.20106,0.16119,0.03862,0.040411,0.10404,0.21333,0.014192
0.12198,-0.1438,-0.017876,0.0031555,2.4338e-05,-0.059751,-0.19808,0.27573
-0.098918,-0.36499,0.21889,0.085447,0.037176,0.02078,0.399,0.050574
0.049073,0.14897,0.013663,0.020351,0.043286,0.064928,-0.33678,-0.23684
0.042565,0.41684,0.054956,-0.05122,-0.027795,0.0024709,0.15121,-0.12131
-0.071722,-0.27633,-0.42242,-0.019822,0.0042197,-0.01849,-0.0029959,-0.0048908
0.041944,-0.012699,0.14397,0.0050499,-0.032084,-0.022027,-0.09584,0.067725
-0.16342,-0.26587,0.011499,-0.00028209,-0.003562,0.053615,0.17704,0.40761
0.12479,-0.050091,0.14038,0.018574,-0.019388,-0.089102,-0.10711,0.22745
-0.061896,0.39166,-0.18914,-0.087115,-0.063873,-0.13812,0.011416,-0.38216
0.019076,0.36088,0.10765,0.073002,0.12068,0.13295,-0.2734,-0.084881
0.039876,-0.17904,-0.08008,-0.03257,-0.020749,0.083543,0.44341,-0.078684
0.023966,0.038668,0.097654,0.088129,0.05035,0.010689,-0.25335,0.015268
-0.068099,-0.43035,0.31901,-0.010423,-0.041782,-0.077653,0.025915,0.0059251
0.03628,-0.1387,-0.44067,-0.078401,-0.048016,0.0060408,-0.079144,0.17301
0.085872,0.47261,0.21637,0.095016,0.093273,0.089741,0.18046,0.26043
-0.077016,-0.24552,-0.28787,-0.15427,-0.13428,-0.22533,-0.10262,-0.44499
-0.008464,0.013866,-0.0071592,0.025371,0.034423,0.10722,0.023555,-0.20712
0.024844,-0.12745,0.1773,0.11063,0.09136,0.14154,0.089134,-0.059951
0.030252,-0.11659,0.017483,-0.015511,-0.057139,-0.068218,0.062033,0.11323
-0.10915,0.3495,-0.0081403,-0.016948,-0.004466,0.0010364,-0.011142,0.30488
-0.15014,-0.028731,-0.0074725,-0.018544,-5.9021e-05,-0.0023486,-0.23924,0.077086
0.26831,0.21294,0.10618,-0.0045742,-0.019804,-0.1406,-0.011449,0.0213
0.062252,0.19268,-0.050036,0.0016011,0.030738,0.03221,-0.1302,0.10932
-0.078826,-0.37976,-0.078444,0.031303,0.034992,0.071694,0.19634,-0.087954
-0.23925,-0.35093,-0.042765,-0.0482,-0.061276,-0.021114,0.13509,-0.47811
0.019421,0.017724,0.039995,0.036627,0.039064,0.10633,0.21191,0.35048
0.32223,0.38655,0.067061,-0.026607,-0.031137,-0.084309,-0.25904,-0.19084
-0.019201,-0.091373,0.12359,0.05127,0.048272,0.071436,-0.14431,-0.096548
-0.092487,0.13647,-0.29061,-0.073411,-0.082401,-0.16863,-0.0067713,0.42864
-0.0091627,-0.12621,0.074885,0.0056324,0.037354,0.054482,-0.0821,-0.20203
0.048873,0.034859,0.033534,0.07742,0.071136,0.1776,0.53396,0.09712
-0.19363,-0.082131,-0.077517,-0.069118,-0.075249,-0.21421,-0.37195,-0.40055
0.12162,-0.25641,0.078827,0.034553,0.027528,0.081196,0.080527,0.062455
-0.083653,0.2018,0.073649,0.044403,0.0042416,0.055094,0.084541,0.53996
-0.066531,0.083466,-0.053852,-0.10237,-0.082676,-0.17612,-0.42393,-0.53211
0.14312,0.038114,-0.023028,0.023635,0.055922,0.16827,0.34352,0.44569
0.12516,0.089065,0.063305,0.023768,0.029621,-0.01355,-0.0034712,0.1352
0.0062847,0.031859,0.16443,0.022905,0.0027685,0.028514,-0.041914,-0.16832
-0.21209,-0.20609,-0.15886,-0.01021,-0.0086954,-0.11915,-0.098216,-0.2308
0.080306,-0.13525,-0.2048,-0.028593,-0.027906,0.02077,0.079652,0.035285
-0.038061,0.42168,0.025871,-0.00077154,8.949e-05,0.027396,0.17339,-0.45241
0.010664,-0.13826,0.009737,-0.0045578,0.013011,-0.020056,-0.27625,0.092514
-0.016499,-0.16661,0.12254,0.046361,0.034463,0.051331,0.13814,0.42582
0.082381,-0.044495,0.12339,-0.011674,-0.052622,-0.062297,-0.012681,-0.095783
0.024651,-0.22183,-0.064239,-0.014209,0.033082,0.084865,0.044474,0.42949
0.027687,0.36811,0.069152,0.031289,-0.0052706,0.00071724,0.019597,-0.27889
-0.081457,0.026725,-0.23265,-0.054609,-0.042698,-0.072878,-0.22944,-0.26997
-0.053307,0.10955,0.031745,-0.029587,0.022283,-0.019412,0.076741,0.24847
-0.012691,-0.16982,0.0039707,0.020367,0.017639,0.074248,0.22513,-0.042401
0.033469,-0.091823,0.036128,0.048121,0.013441,-0.035131,-0.14565,0.038181
0.00071383,-0.079615,-0.0046684,-0.0014965,-0.021889,0.042053,0.032974,0.070229
-0.0075956,0.082239,0.099592,0.042726,0.012824,-0.070072,-0.052718,-0.12211
0.0572,0.22475,0.011602,-0.023093,-9.717e-06,0.065383,0.1202,-0.18077
-0.053468,0.052996,-0.043897,-0.04342,-0.021685,-0.0753,-0.26044,-0.22136
0.044021,0.12366,-0.0063915,-0.018783,0.010045,0.031392,0.21278,0.29929
0.037198,-0.33364,-0.13549,-0.011901,0.0013337,0.049932,-0.044177,0.22287
0.0034395,-0.11079,0.12225,0.039879,0.0069631,-0.050251,-0.099207,-0.19436
-0.12116,-0.12987,0.15699,0.051137,0.011595,0.012947,0.21436,0.15467
0.036596,0.056847,-0.2027,-0.055448,-0.039002,-0.032999,-0.18698,-0.19506
0.084133,0.43055,0.021025,0.010141,0.035425,0.094014,0.0033995,0.085863
-0.058428,-0.30752,-0.20125,-0.071477,-0.053588,-0.15221,-0.088363,-0.066535
0.084153,-0.14349,0.030883,0.020738,0.038233,0.13499,0.41292,0.25786
-0.090397,0.091745,0.14086,0.021517,-0.009067,-0.0052201,-0.2201,-0.21238
-0.16025,0.29974,0.20753,0.071369,-6.8019e-05,-0.12776,-0.14527,-0.10107
0.11736,-0.034452,-0.035098,0.021252,0.033802,0.09497,0.11963,0.40581
0.079347,0.15776,-0.025968,-0.051695,-0.0016535,0.091951,0.087898,0.030024
0.047232,-0.15849,-0.05631,0.031048,0.017932,-0.059478,-0.062883,-0.30105
-0.095012,-0.37058,-0.14409,-0.075355,-0.056582,-0.078777,-0.21712,-0.50864
0.05201,0.26694,0.33383,0.050221,0.03199,0.0022957,0.06961,0.18427
0.012398,-0.11672,-0.36567,-0.069016,-0.03709,0.01164,0.16442,0.049123
-0.072869,-0.039283,-0.078207,0.012596,0.0016546,0.027454,0.060119,0.52258
-0.016186,0.0067131,0.018008,-0.016581,-5.9431e-05,-0.020257,-0.1171,-0.060393
0.057375,0.18649,0.09712,0.024314,0.012858,0.064281,0.063963,0.016667
0.061707,0.080422,0.16946,0.027137,0.0097167,-0.077818,-0.21538,-0.26626
-0.17528,-0.23065,0.18255,0.047589,0.014545,0.022595,0.093175,-0.017587
0.11962,-0.033199,-0.14343,0.0081318,0.020041,0.061068,0.084384,-0.098157
-0.07729,0.010711,-0.27673,-0.11462,-0.082838,-0.071743,-0.11641,0.074494
0.030609,0.27714,0.14938,0.069476,0.034138,0.006809,0.11539,0.40954
0.091466,-0.10107,-0.045945,-0.018603,0.0036456,-0.00046355,-0.010418,-0.372
0.0347,0.039346,0.12007,0.057514,0.028468,0.046684,0.15295,0.076048
-0.11644,-0.10764,-0.033968,-0.00017602,0.045632,0.030712,0.025582,-0.032028
0.036456,-0.12939,-0.079902,-0.075392,-0.07818,-0.11892,-0.29242,0.011824
-0.04548,0.27771,0.043634,-0.028015,-0.015256,0.02743,-0.012733,-0.066753
-0.057135,-0.33991,-0.046772,0.0091221,0.015424,0.055913,0.09927,0.014632
0.0020843,0.18985,0.15667,0.059918,0.013885,-0.07211,-0.17392,0.040206
0.13281,-0.030646,-0.09556,0.015827,0.027288,0.089264,0.23218,0.029898
-0.0082074,-0.11753,-0.11509,-0.051814,-0.045431,-0.05305,-0.0082817,-0.089488
-0.022271,0.039498,-0.018054,-0.024803,-0.016158,0.009378,-0.057345,-0.031929
-0.026654,0.17529,0.055923,0.019547,-0.0014729,-0.051121,-0.10904,-0.098233
0.0016674,0.20375,0.17013,0.027014,0.022521,0.039079,0.19621,0.46403
0.0464,-0.055553,0.2313,0.11483,0.063839,0.053269,0.09178,-0.11791
-0.072944,-0.25997,-0.33858,-0.10016,-0.033883,-0.040306,-0.12749,-0.056004
0.033473,-0.090307,-0.078653,-0.017055,-0.0054532,0.0075387,-0.026802,-0.016724
-0.064676,-0.10986,-0.19229,-0.058531,-0.023418,-0.0073514,-0.093413,-0.30802
0.10097,0.14981,0.20301,0.040235,0.012993,0.031118,0.16241,0.16032
-0.0087312,0.18107,0.17717,0.012947,-0.014171,-0.096794,-0.089041,-0.013451
-0.0028954,0.078199,-0.043781,-0.00022629,0.027305,0.116,0.050312,0.17574
-0.021597,-0.25966,-0.06988,0.008317,-0.011341,-0.041775,-0.090481,-0.10994
-0.079699,0.1604,0.074676,0.015175,-0.005106,-0.038749,-0.017153,0.11287
0.058016,0.02649,-0.017056,0.0049815,-0.023973,0.0084618,-0.0784,0.12534
0.001669,-0.17655,0.060737,0.0094306,0.018588,0.0070604,0.072682,-0.40767
-0.037328,0.067194,-0.15289,-0.041213,0.0061281,0.036363,0.31399,0.11687
0.066093,-0.1094,-0.063691,-0.044751,-0.02154,-0.058626,-0.19606,-0.14291
0.014658,0.090324,-0.10045,0.0072268,0.006506,0.027902,-0.034442,0.25244
0.057559,0.064254,0.16762,0.037046,0.020309,0.015516,-0.021461,0.031125
-0.079688,0.053675,0.093021,0.037091,0.012088,-0.017265,-0.080005,-0.11831
0.047194,-0.044159,0.019975,-0.0083808,0.012811,0.015416,0.084994,0.17167
-0.015678,-0.058666,-0.067308,-0.021677,-0.017108,0.027097,0.08845,0.049257
-0.11232,0.11056,0.1585,0.059036,0.0076372,-0.0065205,0.013926,-0.079832
-0.0080393,-0.13881,-0.1163,-0.024809,-0.015096,-0.039591,-0.1407,-0.18481
-0.037945,-0.0022118,-0.15077,-0.062948,-0.038819,0.036251,0.12301,0.046749
0.080361,-0.02589,0.085479,0.014511,0.022308,-0.045433,-0.18016,-0.14246
0.16057,0.080588,-0.017112,0.0043758,0.00444,0.011734,0.059068,0.13915
-0.061983,0.045761,0.10465,0.0085276,-0.0060126,-0.050188,-0.22123,0.033352
-0.05548,-0.0030397,-0.047729,-0.0036477,0.0071915,0.097136,0.48771,-0.0058171
0.039561,-0.063441,-0.15183,-0.031335,-0.017841,-0.061465,-0.14896,-0.0015296
-0.058401,-0.0005669,0.060222,0.027842,0.020903,0.029268,0.002538,0.28777
-0.0061637,0.038562,0.027874,-0.0051775,-0.0014029,-0.036369,-0.15086,-0.29574
0.039366,-0.32059,-0.036832,0.033971,0.032285,0.070173,-0.0071957,0.011271
-0.10213,0.31193,0.19415,0.035824,0.012151,-0.010249,0.19926,-0.043819
0.068798,0.082659,-0.077463,-0.031318,-0.01556,-0.043214,-0.19563,0.1459
0.043935,0.035573,-0.057373,0.0037276,-0.01246,0.049305,0.14396,-0.093247
-0.028596,-0.012542,0.17299,-0.023868,-0.033792,-0.06098,-0.086762,0.0035582
0.061909,0.020719,0.047737,-0.0053869,-0.0017429,0.055475,0.049741,0.1633
-0.036289,-0.1175,-0.1937,-0.042803,-0.017884,-0.054524,-0.016669,-0.17491
-0.12801,-0.1944,-0.17001,0.0044086,0.019619,-0.0081329,-0.020063,-0.28202
0.091326,0.079086,-0.076449,0.011443,0.017479,0.022878,-0.069471,0.18083
0.0044821,-0.084507,0.15893,0.041197,0.023095,-0.00043149,0.069741,-0.0023924
0.025507,0.075425,0.078027,0.008215,-0.0099461,0.00013435,-0.11802,0.17806
0.045085,0.14037,0.074882,0.014508,0.0045946,0.040161,0.17943,0.16828
-0.030369,0.082328,0.0043662,-0.01771,-0.011304,-0.03677,-0.030743,0.0068614
-0.028667,0.0053722,-0.037185,0.028949,0.03603,0.089389,0.25837,-0.01073
-0.074318,-0.16718,-0.13426,-0.08763,-0.056734,-0.073843,-0.22757,-0.36287
0.04426,0.080597,0.10388,0.01534,0.007023,-0.057943,-0.16108,0.042612
-0.0081356,0.0058266,0.05115,0.017441,0.0083112,0.058882,-0.057851,-0.037369
0.019193,-0.095926,-0.10703,-0.026806,-0.029606,-0.074825,0.12176,-0.05593
0.040837,0.055041,0.11895,0.030797,0.018177,0.05684,0.074326,0.12051
-0.005462,-0.042707,-0.023531,0.04932,0.026636,0.04021,0.028081,0.31343
0.013001,0.055069,0.12745,0.020593,0.027044,-0.014922,-0.10891,-0.26519
0.0020305,0.0039902,-0.31224,-0.063555,-0.02743,0.0089867,0.07119,0.010191
-0.085966,-0.094625,-0.092878,-0.047175,-0.035176,-0.036285,0.030388,-0.055954
0.013765,-0.014255,0.12212,0.01487,-0.0039664,-0.010083,-0.035701,0.082246
0.065944,0.15907,0.052852,0.028818,0.02716,-0.021964,-0.065149,0.23572
-0.047437,-0.12192,0.31032,0.049519,0.011329,0.068313,-0.067228,-0.2301
0.016734,-0.061206,-0.22897,-0.039907,-0.012422,-0.044492,0.096465,0.0036257
0.023699,0.13676,-0.087386,-0.035925,0.010544,0.068653,0.21224,-0.20449
-0.050058,0.025078,-0.0065944,-0.0084052,-0.0057678,-0.038217,-0.14468,0.036413
0.014465,0.17257,0.091514,0.035246,-0.0067185,0.0015546,-0.062912,0.4464
0.053789,-0.07004,0.0034378,0.032838,0.0076788,0.0079926,-0.01313,-0.41763
-0.032768,0.055443,0.22867,0.015793,-0.0015989,0.012388,0.27725,0.064214
0.044966,-0.26936,-0.28785,-0.062746,-0.026642,-0.14112,-0.41787,-0.081929
-0.078966,-0.34562,-0.20245,-0.0075865,0.018631,0.079417,0.028213,0.099197
-0.044001,0.050087,0.15701,0.024799,0.02501,0.01858,-0.045836,0.061792
-0.052308,0.15708,-0.029262,-0.020559,-0.0386,-0.033737,-0.0039878,0.00087955
0.091944,0.33103,0.1924,0.043541,0.015407,0.087166,0.50067,0.11008
0.11524,0.035112,-0.09961,-0.033177,-0.0082469,-0.0011974,-0.20113,-0.066565
0.0012218,0.081572,0.03203,0.030322,0.031014,0.060535,0.13453,0.076864
-0.0014273,-0.10273,0.031943,-0.023898,-0.015365,-0.14199,-0.38995,-0.20524
-0.066265,0.047684,0.13343,0.0072713,0.0087063,0.023593,0.11606,0.060939
-0.1091,-0.23082,-0.055321,0.0067426,0.0015119,-0.0056627,-0.0042617,-0.21211
0.063876,-0.084535,-0.26969,-0.040915,-0.013615,0.0042743,0.029395,0.10819
0.053235,-0.15853,-0.049301,0.0051743,-0.044511,-0.0014575,-0.10449,0.10105
-0.086703,0.16965,-0.019166,-0.0031812,0.026077,-0.01506,-0.10267,0.05753
0.042779,0.29023,0.2821,0.067017,0.034223,0.041682,0.26761,-0.035487
0.06749,0.0094195,0.081778,-0.010717,-0.0121,0.028262,0.27801,0.082353
-0.073908,-0.37291,-0.15847,-0.017679,0.012248,-0.0083652,-0.13578,-0.032083
-0.0051259,-0.0014822,-0.039619,-0.032144,-0.033283,-0.021327,-0.28777,-0.26005
0.071918,0.13527,0.024613,0.015984,-0.00027761,-0.057591,-0.10867,0.1727
-0.04496,0.13417,0.32347,0.048358,0.033014,0.077987,0.25282,-0.015104
-0.019259,0.08312,-0.36949,-0.052399,0.0038744,-0.021059,-0.21837,0.21489
-0.014913,-0.22037,-0.14001,-0.044218,-0.048914,-0.05027,0.18208,-0.16985
0.014686,0.21532,0.059061,0.018163,0.030601,0.06826,0.049487,-0.13973
0.076789,-0.056549,0.11094,0.056624,0.015599,-0.025021,-0.13018,0.10826
0.053516,-0.20963,0.19569,0.016521,-0.015967,-0.0020989,0.066275,0.041382
-0.063569,0.012259,-0.14738,-0.016145,0.0061785,0.0041881,0.0068407,0.025784
-0.07952,0.045466,0.097366,0.0055891,0.0040305,0.064236,0.32459,0.04543
-0.088087,-0.094878,-0.22649,-0.066584,-0.053388,-0.11082,-0.40258,-0.00095919
0.043925,0.22413,0.24792,0.033146,0.037437,0.034029,-0.089298,-0.38589
0.090595,-0.090774,-0.21417,0.0081366,0.011326,0.0069654,0.060599,0.29829
0.029184,0.023513,0.011822,-0.039791,-0.037555,-0.07442,-0.016142,-0.11091
-0.077291,-0.018435,-0.012,0.045839,0.047348,0.11834,0.18757,0.0050988
0.068194,0.12741,0.0029488,-0.0082703,-0.0072692,0.01515,0.11639,0.3269
0.020013,-0.062369,0.15764,0.0088207,-0.0061597,-0.047997,-0.089591,-0.10621
-0.066335,-0.15046,-0.025227,-0.0046025,0.0035496,-0.00089772,-0.18075,-0.083706
0.034666,-0.043408,0.039503,0.021483,0.0058499,-0.039108,-0.071252,-0.15333
0.0093785,0.2038,-0.016052,-0.014861,0.00030422,0.024554,0.13759,0.16832
-0.049436,-0.05752,-0.090705,-0.012455,-0.036929,-0.0055568,0.032289,-0.096123
0.021643,-0.030681,0.0031809,0.012759,0.018852,0.010894,-0.01905,0.053044
-0.019735,-0.012665,-0.15554,-0.040972,0.011254,0.073711,0.094091,0.077021
-0.048235,-0.0035118,0.12187,0.021621,-0.02064,-0.090608,-0.06448,-0.26558
0.05409,0.1765,0.047873,-0.0024944,0.0092697,0.02584,0.030061,0.21387
0.030449,-0.19123,-0.12606,-0.035016,-0.015951,-0.022016,-0.10531,-0.14756
-0.039946,-0.043949,0.10896,0.057071,0.013358,-0.007252,-0.0084753,0.049355
0.023544,0.28285,0.14403,0.039572,0.042775,0.0080407,-0.069283,0.11726
0.026289,-0.4368,-0.0054532,-0.017069,-0.013435,0.024228,0.12648,0.13359
0.038936,0.4619,0.0895,-0.011186,-0.030133,-0.03659,-0.070339,-0.11404
-0.12602,-0.30154,-0.25954,-0.028608,0.0083842,0.052159,0.057312,-0.088611
0.070236,-0.023279,-0.1315,-0.045744,-0.015029,-0.037886,0.084936,-0.10485
-0.021158,0.10186,0.0044323,0.0079282,0.0090316,0.028759,0.06397,0.053961
0.021233,0.04277,0.11701,0.085781,0.041522,0.095258,0.15511,0.1832
0.032962,0.056994,0.105,-0.046336,-0.065993,-0.1593,-0.31637,-0.092827
-0.10343,-0.2468,-0.04681,-0.013292,-0.0010494,0.053688,-0.12561,-0.02389
0.010361,0.29442,0.044641,0.01302,0.017498,-0.070716,-0.054059,-0.13235
0.022702,-0.20336,-0.050394,0.016767,0.028517,0.045657,0.11069,0.091393
0.066371,0.21967,0.13642,0.02101,0.016096,0.028104,0.15271,0.047962
