-0.066344,-0.099485,-0.25987,0.072962,0.0040007,-0.013623,0.024509,-0.011665
0.032916,0.022908,-0.018101,-0.13227,-0.10508,-0.04547,-0.10672,0.0015594
-0.0095845,-0.011768,-0.18309,-0.10332,-0.08928,-0.069455,-0.076418,-0.0012099
0.0093472,0.10156,0.23703,-0.058273,-0.10462,-0.038489,0.092585,0.0038102
0.011832,0.050753,0.35136,-0.019848,0.14612,0.11015,0.018451,0.0013373
-0.040772,-0.085775,-0.26215,0.27036,0.14764,0.032884,-0.0086971,0.0151
-0.015091,-0.049998,-0.12688,0.0078879,-0.045225,-0.043731,0.027598,-0.032828
0.00356,-0.037074,-0.35182,-0.049694,-0.081116,-0.018324,0.026161,-0.0017388
0.10172,0.14063,0.64962,-0.12189,0.031637,0.038406,0.01811,0.030197
-0.032637,-0.071471,-0.4576,0.071434,0.050082,0.063451,0.1982,0.015948
-0.06328,-0.063895,0.16336,-0.0022054,-0.089113,-0.12338,-0.33277,-0.036912
-0.0057905,0.077471,0.020989,0.023297,0.043048,0.055653,0.057337,0.019776
0.03024,0.1573,0.45153,0.0066445,-0.014732,-0.048003,0.00097956,-0.00956
-0.00253,-0.24639,-0.48265,-0.091328,-0.02016,0.011136,-0.11114,-0.015747
0.035853,0.03023,-0.14935,-0.074797,0.027357,0.053848,0.15112,0.040166
-0.019476,-0.083515,-0.05728,0.10414,-0.043054,-0.13014,-0.14126,-0.076211
-0.044349,0.0056319,-0.03569,-0.021915,-0.058278,0.069281,0.16857,0.010186
0.10113,0.45334,0.98456,0.18905,0.084488,0.074626,0.080954,0.096352
-0.044485,-0.076915,-0.42727,-0.043041,0.13625,0.042578,0.033391,-0.0050724
-0.036075,-0.3668,-0.52969,-0.31116,-0.12117,-0.057967,-0.15414,-0.043948
-0.006286,-0.057063,-0.041618,0.29117,0.015388,-0.070908,-0.044593,-0.020156
-0.03275,0.032255,0.20931,-0.19728,-0.14991,-0.035712,0.095993,-0.050794
0.0024354,0.089294,0.091384,0.089866,0.12415,0.047036,-0.15441,0.028235
0.053177,0.23993,0.37171,0.26086,0.16442,0.067275,-0.061262,0.076273
0.018591,-0.14776,-0.49498,-0.14648,-0.13982,-0.014756,0.2196,-0.023996
0.024113,-0.073021,-0.054126,-0.25827,-0.10227,-0.012175,0.016824,0.0084687
-0.016062,0.058352,0.23434,0.12003,0.057496,0.012081,-0.036304,0.0015302
-0.016153,-0.042582,0.081801,0.074127,0.096948,0.034411,0.044835,-0.029436
-0.031203,-0.040084,-0.37134,-0.051975,-0.093054,-0.13253,-0.19295,-0.029912
0.039919,0.12788,0.37408,-0.054445,-0.011778,0.043,0.070281,0.031313
-0.037542,-0.047143,-0.027011,0.11452,0.029351,0.022653,0.076061,-0.0018989
-0.03727,-0.081501,-0.1309,0.14337,-0.070041,-0.067748,0.018895,-0.019928
0.032849,0.039727,-0.08765,-0.36562,-0.0042205,0.085034,-0.070798,0.024428
0.063516,0.10501,0.10133,0.16602,0.14155,0.020555,0.06411,0.022134
-0.062283,-0.096984,0.09133,0.074117,0.031485,0.020199,-0.006453,-0.010892
0.03065,-0.019553,-0.17278,-0.13409,-0.069141,-0.010011,-0.016827,-0.019771
0.0065368,0.024896,0.059137,0.17331,0.026408,-0.0080902,-0.060268,0.011187
-0.025169,-0.010181,-0.040374,0.034367,-0.034365,-0.052815,-0.057766,-0.0040224
-0.033239,-0.06176,0.076629,-0.083053,-0.1195,-0.027619,-0.062903,-0.034332
0.083781,0.26143,0.30211,-0.038782,0.082971,0.020172,0.22227,0.052801
-0.057094,-0.22741,-0.44841,-0.13737,0.002623,0.035673,0.072013,-0.00074489
0.020513,0.081766,0.2171,0.075095,0.092931,0.011133,-0.091456,4.1539e-05
0.0039503,-0.12298,-0.34083,0.0061168,-0.07509,-0.014113,0.012953,-0.015385
0.0025299,-0.044381,-0.12148,0.016527,-0.18806,-0.08654,-0.13882,-0.015891
-0.038377,0.24739,0.84398,-0.040837,0.17677,0.11459,0.014788,0.014181
-0.0013897,-0.15407,-0.58572,0.20978,0.13721,0.027169,0.066489,-0.010922
0.012244,0.024216,0.21306,-0.090949,-0.072058,-0.059482,-0.00030188,-0.01277
0.073227,0.19565,0.20735,0.0016022,0.0019742,0.057914,0.15747,0.055884
-0.052406,-0.10929,-0.18277,0.11122,-0.12552,-0.15968,-0.10896,-0.038973
-0.020553,-0.16469,-0.32578,-0.27135,-0.017729,0.06892,-0.22131,-0.0079972
-0.018486,-0.025731,-0.05036,0.063556,0.10583,0.056059,0.17255,0.0083261
-0.0071048,0.026147,0.073497,0.0057262,0.025661,0.028084,0.0032193,0.0021463
0.029012,0.10033,0.26558,0.12526,-0.0088169,-0.030899,0.006111,0.020122
0.02691,0.040675,0.22262,-0.085231,-0.091739,-0.066507,-0.020974,0.022831
0.024983,-0.01991,-0.42123,-0.10144,0.034562,0.022512,-0.10089,-0.052663
-0.0009886,0.027921,0.12407,0.069909,0.042047,0.0093033,0.1727,0.019775
0.0029321,-0.019102,-0.0083219,-0.023339,-0.014324,0.057686,-0.052243,-0.0023727
-0.049745,-0.036188,0.017205,0.18971,-0.016971,-0.035632,0.11401,-0.03334
-0.010799,-0.023512,-0.034642,-0.15032,-0.067025,-0.0050825,0.06098,0.04408
-0.051928,-0.074882,0.03014,0.073159,0.10935,0.00096987,-0.27484,-0.027725
0.014908,-0.018321,-0.14143,-0.023739,0.043714,-0.0016272,0.02004,0.0015744
0.034228,0.17768,0.27757,0.003037,-0.099662,-0.020326,0.02379,0.007363
0.077153,0.099457,0.16147,0.011737,0.038709,1.9025e-05,0.0027416,0.021252
-0.058789,-0.10408,-0.30208,-0.052992,-0.033305,0.0052051,0.012791,-0.018993
0.017378,-0.12769,-0.20579,-0.073959,0.035897,0.034718,0.024105,0.011748
-0.038109,-0.025473,-0.071218,0.1605,-0.0036517,-0.04398,0.053577,-0.01937
0.079094,0.10161,0.26802,-0.24673,-0.12849,-0.012081,-0.10893,0.012478
-0.045634,-0.089706,-0.09207,0.073136,0.098877,0.059926,0.13045,0.013277
0.016786,0.064953,0.13921,0.17633,0.037705,0.015403,0.005478,0.0061711
-0.070073,0.1281,0.1499,-0.10796,0.023712,0.017905,0.022768,-0.048154
0.037314,-0.072441,-0.14671,0.087826,-0.0059249,-0.07371,-0.15518,0.022025
-0.043762,-0.029418,0.075628,0.06014,0.0031149,-0.0098363,-0.022124,-0.0098716
0.054312,-0.032592,-0.19345,-0.028049,-0.035417,0.014033,0.16283,0.028163
0.058752,0.15175,0.27782,-0.1079,-0.066996,-0.033285,-0.054174,0.019192
-0.10782,-0.24252,-0.27828,-0.071545,-0.0056466,0.035991,-0.024808,-0.052083
-0.015066,0.05001,0.027816,0.0017173,0.062925,0.01913,-0.14698,-0.0056451
0.032755,0.013737,-0.17879,0.14249,-0.0093685,-0.036609,0.095953,-0.020927
0.082575,0.055104,0.0014418,-0.055488,0.020023,0.0409,0.12709,0.066241
-0.030014,-0.013165,0.13274,-0.060434,-0.0048814,-0.029555,-0.091406,-0.017676
-0.016666,0.059055,0.26381,-0.012035,0.033215,0.056523,0.074221,0.023888
0.020097,0.10765,0.38046,0.20801,0.032688,0.017516,0.030778,0.010766
-0.037932,-0.22697,-0.69615,-0.12579,-0.084768,-0.084512,-0.17474,-0.049793
-0.011941,-0.0076345,-0.028334,-0.0047529,-0.10844,-0.02337,0.074615,0.0057565
0.035021,0.054397,-0.014831,-0.10024,0.11774,0.060138,0.028353,0.0051877
-0.053401,-0.0098491,0.18755,0.095736,0.10934,0.025484,-0.064101,0.0031018
0.059099,0.15114,0.28916,0.12202,-0.031986,-0.017563,0.17954,0.015347
-0.0016955,-0.064016,-0.21043,-0.084372,-0.10287,-0.06837,-0.14733,-0.020065
-0.070666,-0.12367,-0.22547,-0.14915,-0.079529,-0.024619,-0.029237,-0.039919
0.0095714,0.043088,-0.029306,-0.018417,0.0071693,0.044083,-0.059852,0.0034344
-0.0021803,-0.031788,0.073667,0.18987,0.14187,0.044464,0.057916,0.0091044
0.097858,0.0039446,0.13064,0.11567,0.043383,0.015695,0.10556,0.047814
-0.010438,0.088296,0.094936,-0.11646,-0.085404,-0.0034886,-0.01049,0.010232
-0.038315,-0.044141,-0.096035,-0.24888,0.020627,0.0018246,-0.0089824,0.021023
0.021309,0.098693,0.049574,0.16385,0.032667,0.0072407,-0.069748,-0.0063917
-0.020051,-0.0070796,-0.046851,0.059648,-0.003103,-0.0038495,0.0804,-0.018113
-0.0071723,-0.080839,-0.002949,-0.013991,-0.087205,-0.079106,-0.043173,-0.053943
-0.011223,-0.052934,-0.13144,-0.0016951,0.006707,0.023252,-0.089075,-0.0050223
-0.017102,-0.080155,-0.0025349,-0.0513,-0.033722,-0.024845,0.020797,0.0034625
0.0454,0.20436,0.14201,-0.021796,0.010718,0.042724,0.19284,0.02636
-0.026537,-0.08229,-0.087831,-0.0068574,0.070354,-0.023241,-0.20549,-0.014023
-0.021352,-0.018139,-0.019648,0.18076,0.075528,0.051617,0.052698,0.015689
0.014866,0.092321,0.3312,-0.09231,-0.074816,0.010314,0.061475,0.0066556
-0.010866,-0.094457,-0.33237,0.063882,-0.028858,-0.076278,-0.06957,-0.0016928
0.066097,-0.00020267,-0.10482,-0.10132,-0.020999,0.057657,0.042442,0.029825
-0.027406,0.054812,0.20016,-0.1196,0.010988,-0.0099662,-0.0010373,-0.016123
0.013241,-0.023227,-0.075181,0.12616,0.097916,0.040621,0.034085,0.0085539
-0.015473,0.023351,0.32544,0.01132,-0.026328,-0.025714,-0.079176,-0.029402
0.042107,0.030315,-0.044498,0.0053242,-0.10435,-0.037902,0.041475,0.0024044
-0.080309,-0.088406,-0.38088,0.015359,0.051083,0.0033723,-0.12795,-0.02131
-0.03176,-0.082858,-0.15212,-0.02791,-0.013174,-0.003893,0.10731,0.0087468
0.062326,0.16421,0.32277,-0.092404,0.0077555,0.010499,0.0046443,-0.0088571
-0.017012,-0.034533,-0.047843,0.095825,0.020493,0.03113,0.22783,0.05118
0.027117,-0.022576,0.051122,-0.025648,-0.076061,-0.089966,-0.15279,-0.037304
-0.0082052,0.0050831,0.059759,-0.011906,0.077924,0.061902,-0.1212,0.0073529
0.033619,0.095677,-0.074455,0.23,0.11563,0.065526,-0.035923,0.037061
-0.026656,-0.078543,-0.037642,-0.12127,-0.087699,-0.023815,0.0026772,-0.033892
-0.016666,-0.032825,0.092456,-0.051128,-0.11011,-0.06507,0.05849,-0.010123
-0.060918,-0.13403,-0.1692,-0.15413,-0.045415,-0.042406,-0.046905,-0.024525
0.059792,0.1571,0.1367,-0.07134,0.098377,0.075398,0.023249,0.032057
0.048959,0.028059,0.023419,0.26755,0.14125,0.045907,0.17533,0.026492
-0.015043,-0.037094,-0.129,0.097195,-0.10471,-0.068796,-0.028827,-0.002518
-0.046168,0.078217,0.090688,-0.30852,-0.077527,0.043282,0.011023,-0.0084345
0.041491,-0.10342,0.039459,0.12892,0.073882,0.0066454,-0.066185,0.00068449
-0.056908,0.12018,0.17662,-0.012166,0.036599,-0.0072099,-0.074601,-0.029949
0.056817,-0.087747,-0.38118,0.15097,-0.041194,-0.076593,-0.093579,0.0012931
-0.016105,0.053519,0.20268,-0.014764,-0.073613,0.0094757,0.1029,-0.014759
-0.07294,-0.18267,-0.2028,-0.12692,0.041065,0.032481,0.0072372,0.00030181
0.065564,0.024387,-0.079361,-0.076411,-0.017148,-0.022854,0.010915,0.01549
0.031768,0.097338,0.22438,0.11326,0.080293,0.046942,0.0057999,0.038782
0.020552,0.044984,0.0079758,-0.042021,-0.025554,0.0077401,-0.053679,0.0076806
-0.038756,0.040191,0.17955,-0.026054,-0.0061924,0.023687,0.11479,0.0079717
-0.0057516,-0.056866,-0.080406,0.05258,0.021469,-0.0068596,-0.01944,-0.030913
-0.021096,-0.011331,0.040275,0.022866,-0.043946,-0.060658,0.0046063,-0.0076782
-0.01431,-0.088725,-0.26432,-0.059741,0.00080487,-0.005124,-0.071362,-0.031877
-0.031931,0.015382,0.019688,0.10998,-0.00044623,-0.012317,-0.0060121,-0.0097841
0.035846,0.08949,0.14046,-0.092743,0.014867,0.034864,-0.0034773,0.027504
0.048817,2.4594e-05,-0.06766,-0.043004,0.015551,0.050506,0.10719,0.017785
0.054181,0.11335,0.12077,0.24321,0.0016329,-0.027769,0.08318,0.031742
-0.072884,-0.12596,-0.12298,-0.25027,-0.050353,-0.035728,-0.23194,-0.047453
0.0035984,-0.1012,-0.16622,0.0071634,-0.03897,-0.035696,-0.0019091,0.0070331
-0.044544,-0.0078448,0.13964,-0.07107,0.043341,0.019314,-0.069732,-0.031238
0.063878,0.068382,0.16989,0.22535,0.12588,0.059003,0.12807,0.048625
-0.0149,0.057643,-0.059617,-0.0025669,-0.073107,0.012947,0.11591,0.019852
-0.054247,-0.00037136,0.084052,-0.091248,0.016171,0.037181,-0.082089,-0.0085157
0.016282,-0.011293,-0.11777,-0.072334,-0.059868,-0.087311,0.026518,-0.036876
0.0093376,-0.044948,-0.071155,0.0070282,-0.035872,-0.040455,-0.050662,-0.018742
0.00314,-0.0073018,-0.072555,0.1311,0.049077,0.021357,0.045177,-0.0013059
0.036726,0.086085,0.15224,0.026521,-8.1878e-05,0.020001,0.071121,0.046482
0.00053793,0.016348,0.16685,-0.095499,-0.018819,0.041551,-0.10628,0.015187
-0.011994,-0.10736,-0.34776,-0.062608,0.040324,-0.02312,-0.088948,-0.016985
0.045606,-0.035312,0.00031113,0.032087,-0.017385,-0.0096514,0.045042,-0.010764
-0.06923,0.091656,0.10259,0.01744,0.0038225,-0.011497,-0.016413,-0.03616
-0.036456,-6.0699e-05,0.17032,-0.0042717,-0.01299,0.026269,0.11011,0.016553
0.026646,-0.060561,-0.17203,0.053469,0.010312,-0.03683,-0.1842,0.0070928
-0.0048306,0.027285,0.082029,-0.043361,0.018829,0.0258,0.21033,0.021666
0.017788,0.013434,0.063336,0.080327,-0.0034354,-0.0046703,-0.018934,-0.0098901
0.040115,0.054091,0.074382,-0.075624,-0.010032,0.027837,-0.0054166,0.013987
-0.0078801,0.016397,-0.074273,-0.019346,0.02211,0.013728,0.015527,0.015036
-0.03226,-0.076233,-0.14165,0.045661,-0.024411,-0.031585,-0.082217,-0.038228
-0.0095303,-0.090966,-0.13571,-0.013737,-0.055844,-0.05357,-0.026178,-0.0054553
0.036791,0.081639,-0.024226,0.013198,0.01396,0.0102,0.050273,0.011537
-0.034114,0.0041701,0.17902,-0.068898,0.036919,0.050361,-0.055963,-0.01088
-0.0037511,0.020434,0.093481,0.0056525,0.021244,0.004477,0.10888,0.005311
0.02606,-0.0024015,-0.0052973,0.025985,-0.03275,-0.025824,-0.071208,-0.010229
0.016065,0.005851,-0.053375,-0.0079224,7.2238e-05,-0.024895,-0.11821,0.012847
0.020895,0.029358,0.027825,0.044345,0.049302,0.054084,0.14122,0.035547
-0.021823,0.044445,0.19862,0.088596,0.01306,0.015665,0.012928,0.0032748
-0.06489,-0.14438,-0.34722,-0.14924,-0.062252,-0.046589,-0.13532,-0.044803
-0.021874,-0.013746,-0.049339,0.064486,0.01816,0.015563,0.18071,-0.014817
-0.0015728,0.030192,0.16026,-0.028667,-0.050844,-0.016773,0.085205,-0.00038565
0.074675,-0.01234,0.037289,0.024037,0.042947,0.012608,-0.087247,0.02988
0.082243,0.17928,0.088067,-0.035211,0.010399,0.0022255,-0.041305,0.02923
-0.049065,-0.089953,-0.094256,0.044032,0.015728,-0.016464,-0.08304,-0.033494
-0.085039,-0.06193,0.068923,-0.073317,-0.034469,-0.027542,-0.064952,-0.017637
0.044228,0.021387,-0.2255,-0.026753,-0.045969,0.0083855,0.043872,-0.0091768
0.0022441,-0.035142,0.0015827,0.036491,0.059872,0.052561,0.0093179,0.023021
-0.0006408,0.049855,0.065804,0.070586,0.049157,0.073972,0.16803,0.039714
0.0038084,-0.012618,0.10322,0.021522,-0.02306,-0.083483,-0.033713,-0.021819
-0.023831,0.01964,-0.063096,-0.024587,-0.055006,-0.044738,-0.048065,-0.0055431
0.010026,-0.017486,0.084282,-0.05247,0.00022004,0.010518,0.0086632,-0.013189
-0.011776,-0.045989,-0.14169,0.0073773,0.01747,-0.011517,-0.026923,-0.021396
0.051576,0.13709,0.21896,0.06792,-0.011379,-0.009397,-0.045013,0.032369
-0.04183,-0.1091,-0.10948,-0.090775,0.030435,0.047931,-0.08448,-0.031445
-0.018263,-0.019154,-0.091107,0.014611,0.009608,0.027367,0.13587,0.02174
0.020942,0.0082521,0.11429,0.078641,0.042857,0.014487,-0.017042,0.0046507
-0.010035,-0.0036687,-0.074693,-0.078689,-0.049869,0.03235,0.3157,0.019049
0.052845,0.17144,0.29258,0.042781,-0.05781,-0.11466,-0.36644,-0.013052
0.02975,-0.1619,-0.33205,-0.048538,0.0034684,0.010804,0.037586,0.009971
-0.063913,0.019622,-0.15945,-0.039234,0.032684,-0.013077,-0.097609,-0.029077
-0.056489,-0.073142,0.069487,0.10299,0.022466,-0.0063722,-0.0066538,-0.0052595
0.0049925,0.028535,-0.041551,-0.13651,-0.065757,0.0078411,0.15404,-0.0046099
0.050176,0.11372,0.32231,0.17266,0.057506,0.037737,-0.0062966,0.027447
0.055706,-0.028479,-0.024355,-0.086378,0.0097102,0.052322,0.043326,0.012671
-0.04072,-0.038648,-0.017731,0.086264,0.048731,0.020437,0.068183,-0.0099796
-0.0044492,0.059863,0.08481,0.026067,0.0025686,-0.034553,-0.11962,0.021917
-0.06173,-0.10781,-0.22487,-0.13481,-0.13684,-0.089385,-0.067259,-0.063556
0.022106,0.052301,0.18528,0.0092447,0.036452,0.012005,0.0064534,0.022665
0.020713,-0.076735,-0.28712,-0.05789,0.014387,0.019497,0.023661,-0.0084433
0.0044767,0.028805,-0.056653,0.093249,0.046786,0.03464,0.016221,0.0072329
0.027992,0.080099,0.1891,0.048628,-0.014879,-0.036234,-0.015009,0.030673
-0.010557,0.014805,0.0051668,-0.17592,-0.092506,0.0023249,0.055925,-0.016236
0.021284,0.0283,0.20471,0.12299,0.079539,0.025455,-0.082601,0.022732
0.0059613,-0.027852,-0.078711,0.10962,0.087209,0.033247,0.085683,-0.00090117
-0.056792,-0.11459,-0.14909,-0.12224,-0.046038,-0.021152,-0.0014049,-0.040292
-0.042063,-0.028756,-0.099692,-0.018012,-0.046729,-0.020598,0.023291,-0.009496
0.042461,0.089136,0.077471,0.039208,-0.055416,-0.02767,-0.098379,0.0056044
-0.021668,-0.026425,-0.00059924,-0.036844,-0.0016581,0.0044216,0.047093,0.0051092
0.0081279,0.038686,0.12645,0.066039,0.083468,0.044362,-0.025324,0.028198
0.085334,0.12816,0.23113,0.027383,0.036084,-0.0094477,-0.0037952,0.020284
-0.032008,-0.16449,-0.44553,-0.16059,-0.065525,-0.032017,-0.068607,-0.042008
-0.023545,-0.03496,0.14218,0.088288,0.020924,0.03916,0.24069,0.0053939
0.0011976,0.063155,-0.030176,-0.02245,-0.056113,-0.053722,-0.15438,-0.009424
-0.020567,-0.0034558,0.036804,0.0076609,0.054865,0.048708,-0.0039974,0.015029
0.028009,0.10072,0.1086,0.069652,0.041223,0.018307,-0.011309,0.0083524
0.045066,-0.10895,-0.18168,-0.10969,-0.073793,-0.019957,-0.043343,-0.0061032
-0.078952,-0.038807,-0.028727,0.086765,-0.0091662,-0.027058,0.095527,-0.028414
-0.0081335,0.037857,0.052584,-0.028824,0.00046745,0.012598,0.077599,0.035111
-0.00017063,-0.027093,0.016036,0.019513,0.025151,-0.041642,-0.17477,-0.026514
-0.023601,-0.006694,0.049534,-0.042372,0.00994,0.036759,0.049827,-0.0023907
0.09367,0.14633,0.24691,0.11298,0.071819,0.04464,-0.037289,0.044941
-0.0075855,-0.098955,-0.30608,-0.061712,-0.039308,-0.018047,0.040676,-0.017374
0.0085934,-0.0079767,0.046596,-0.043037,-0.057745,-0.010727,0.041559,-0.017496
-0.037588,0.059957,0.17205,0.013227,0.024596,-0.0037479,0.019846,0.013303
0.0021147,-0.043617,-0.25754,-0.10293,-0.073059,-0.028348,-0.024854,-0.0030912
-0.036574,-0.092213,-0.18679,0.070642,0.0014601,0.0014865,-0.053979,-0.035379
0.018061,0.03127,0.15092,-0.019469,0.061265,0.03902,0.064789,0.033713
0.025333,0.076748,0.084683,0.080872,0.036517,-0.0093104,-0.067357,0.001168
-0.0068846,0.028525,0.1542,-0.0028316,0.021178,0.012947,0.080672,0.0077274
0.0075125,-0.035333,-0.015483,0.041762,-0.016109,-0.050285,-0.10823,-0.0011923
-0.0093616,0.010146,0.10625,-0.0049124,-0.052309,-0.003592,0.045912,-0.017697
-0.033811,-0.069391,-0.27085,-0.089485,-0.0020855,0.02803,-0.050235,-0.0026717
0.020318,0.01521,-0.015348,0.005244,0.055785,0.052283,0.095936,0.020473
0.020337,0.060986,0.21521,0.11374,-0.012069,-0.016981,0.0081755,-0.0029465
-0.025952,-0.088108,-0.29093,-0.16355,-0.073185,-0.039405,-0.055578,-0.026072
0.045366,0.075934,0.036293,0.10253,0.020791,-0.0074396,0.03742,0.037006
-0.00034239,-0.048324,0.017527,-0.12699,-0.026837,0.016221,0.021326,-0.024693
0.0084957,0.01569,0.2082,0.054792,0.096801,0.039317,0.044311,0.015343
-0.05339,0.064722,-0.078273,0.047395,0.0015425,-0.055274,-0.16728,-0.014826
-0.0064746,-0.049919,0.010514,0.031748,-0.046548,-0.017364,0.027097,0.001908
-0.0070217,-0.016051,-0.08729,0.0012217,-0.047143,-0.010763,-0.0053216,-0.012681
0.023227,0.095702,0.23027,-0.0041914,0.062416,0.042897,0.055928,0.027221
-0.0014327,-0.15238,-0.24754,-0.054235,0.00084237,0.034402,5.8374e-05,-0.011339
0.0051977,-0.025998,-0.11441,-0.023735,-0.013324,-0.012777,0.022444,0.012121
0.027707,0.16243,0.30936,0.079305,0.019583,0.010635,0.060508,0.0037322
-0.02754,-0.11032,-0.19497,-0.065908,-0.025819,-0.012728,-0.073439,-0.02094
0.050396,0.1248,0.091304,0.071209,0.045433,0.010695,0.03444,0.039698
-0.05889,-0.10065,-0.11318,-0.041337,-0.055958,-0.067646,-0.084744,-0.064209
0.0038429,0.0026677,0.074087,0.0019957,-0.033199,-0.013367,0.014368,0.0035317
-0.019339,-0.033847,0.035449,-0.010308,0.020048,0.025228,0.050806,0.016691
0.043377,0.055461,0.059294,-0.016131,0.033693,0.024915,-0.045259,0.022503
-0.0033019,0.028276,-0.066099,0.023434,0.031484,0.040595,-0.070118,-0.0099616
-0.018656,-0.021934,0.010063,0.0068951,0.0059414,-0.0057106,0.14082,0.028895
0.0052689,0.021612,-0.017511,0.0048252,-0.050435,-0.03585,-0.099617,-0.040534
-0.048575,-0.10719,-0.19601,0.033249,-0.020203,-0.010858,0.12262,-0.007382
0.054267,0.067758,0.18556,-0.094858,0.010876,0.0065684,-0.067836,0.018756
-0.0065418,0.022595,0.11978,0.058487,0.050699,0.055249,0.11742,0.0062972
0.050091,0.053913,0.037031,-0.014111,-0.02576,-0.060363,-0.22086,-0.0061019
-0.041734,-0.13528,-0.39781,0.015763,-0.038963,-0.020134,0.11188,-0.011048
-0.001116,0.056653,0.13641,-0.06272,-0.028252,0.011776,0.099467,0.014521
-0.0159,0.04404,0.21067,0.086281,0.10754,0.04317,-0.19576,0.015644
-0.0082268,-0.10238,-0.2371,-0.04533,-0.0070463,-0.0040098,0.038923,8.8995e-06
0.021782,0.055418,0.29317,0.04204,-0.028751,-0.028089,-0.00063754,-0.047965
0.019493,0.11175,0.17628,0.066707,0.018596,0.017944,0.014379,0.020371
-0.0383,-0.15942,-0.53347,-0.088852,-0.044913,-0.014216,0.037733,-0.029021
-0.010608,0.031389,0.0072682,-0.081017,-0.023936,0.00054155,0.0073088,0.030814
0.024879,0.067246,0.21222,0.035658,0.050577,0.031044,0.079368,0.020562
-0.0095365,-0.083016,-0.12977,0.081862,-0.031779,-0.063302,-0.051148,-0.0048175
0.019301,0.041431,0.1452,-0.1372,-0.035963,0.014368,-0.080201,-0.013946
0.010037,0.010624,-0.041205,0.089924,0.077757,0.060879,-0.0085312,0.0087749
0.0017783,0.019485,0.045106,0.013554,0.0052304,0.021477,0.16324,0.024138
-0.021197,0.012896,0.20844,0.032152,0.0045698,-0.049209,-0.11209,-0.01494
0.003408,-0.048591,-0.37187,-0.018678,-0.017965,-0.049642,-0.084412,-0.014906
-0.018409,-0.063677,-0.016335,0.032297,-0.062644,-0.026677,0.051464,-0.038386
-0.0087725,0.061294,0.19699,-0.081356,0.026289,0.058808,-0.031761,0.0083424
0.039923,0.052968,-0.028334,0.022385,0.052909,0.042823,0.057493,0.031597
-0.0052811,-0.064991,-0.097841,0.0069999,0.024411,-0.0042689,0.02321,0.0080667
-0.011651,0.0045969,0.020623,0.012889,-0.028452,-0.012142,0.037834,0.00038401
-0.0026452,0.012042,0.015453,-0.045685,-0.04346,-0.012069,-0.015658,0.00083325
-0.0173,-0.011158,-0.018904,-0.019686,-0.036245,-0.02752,-0.059402,-0.013989
0.030376,0.036699,0.07416,0.052709,0.024704,-0.003827,-0.008065,0.010576
0.015451,0.069689,0.27117,0.00062152,0.0070337,0.035587,0.1063,0.0041405
-0.015127,-0.12323,-0.35013,-0.026605,0.036281,-0.010788,-0.12338,-0.017761
-0.022234,-0.026606,-0.095048,0.01854,-0.019883,0.005558,0.0053142,-0.0083356
0.0019918,0.031197,0.082622,0.042552,0.041992,0.014382,0.038792,0.016736
-0.0049225,0.010874,-0.0052344,-0.0016315,-0.0045481,-0.038965,0.0081295,-0.0050774
0.019514,0.076242,0.21904,-0.02083,-0.018977,-0.0060634,-0.047509,-0.0034823
-0.0028752,0.00050963,-0.0026565,-0.023687,-0.0015441,0.042683,0.075332,0.0058653
0.013748,-0.099321,-0.27984,-0.018949,-0.046318,-0.025707,-0.029122,-0.0083478
-0.016687,-0.012435,0.043724,0.00033253,-0.0051698,0.022908,-0.0087696,0.0084584
0.0072413,0.03457,0.038401,0.041314,0.03572,0.00076577,-0.019344,0.0092639
0.03073,0.11206,0.13391,0.017706,0.029317,0.0091868,0.04115,0.025161
-0.04784,-0.13139,-0.068234,-0.047053,-0.016648,-0.030118,-0.014492,-0.022105
-0.017504,0.0075149,-0.029144,-0.011998,-0.00063183,-0.015626,-0.029894,-0.023214
0.012464,0.013352,-0.0069003,0.021937,-0.024177,0.0058967,0.010519,-0.0015537
0.0031606,0.01128,0.13103,0.039949,0.014325,0.011257,0.020586,-0.019455
0.025065,0.024829,-0.0296,-0.035202,0.0055601,0.00079319,-0.015682,0.01709
0.0080006,-0.0084908,-0.14499,-0.030823,0.0042921,0.021751,0.088767,0.038075
-0.0010852,-0.010618,-0.074159,0.0068237,-0.012825,-0.027102,-0.096221,-0.010903
-0.033437,-0.051967,0.0038307,-0.0078997,0.0090069,-0.0049076,-0.04761,-0.020255
0.020274,0.1252,0.24608,0.02649,0.0074247,0.033743,0.062445,0.010128
