-0.099918,-0.16165,-0.081028,-0.025635,0.07255,0.088651,0.037353,-0.042913
0.020127,-0.0060587,-0.0059241,-0.021302,-0.041104,-0.05808,-0.021845,0.012775
-0.014605,0.075225,0.091669,-0.010942,-0.021481,-0.048004,-0.025231,-0.00094073
0.014372,-0.072542,-0.061045,0.013598,0.076401,0.079654,0.057941,0.025143
-0.010518,-0.025692,-0.026224,-0.017405,-0.021278,-0.0033868,0.016134,0.028261
0.027398,0.13931,0.1022,0.0060627,-0.057119,-0.070732,-0.11219,-0.10909
0.025952,0.087738,0.14379,0.10012,0.14037,0.15867,0.086533,0.042455
0.0079471,0.13264,0.20683,0.046261,-0.12439,-0.206,-0.098968,-0.0095833
0.011867,-0.21043,-0.30352,-0.054033,0.046968,0.15534,0.10462,0.062684
-0.079892,-0.31704,-0.45827,-0.13074,-0.040716,0.0081864,0.0099003,-0.0065271
-0.025314,0.15575,0.16453,0.018844,-0.051089,-0.085028,-0.062553,-0.029789
0.042899,0.12112,0.21423,0.089666,0.086751,0.039837,0.043911,-0.0070762
0.0079299,0.24237,0.30181,-0.0044634,-0.048408,-0.1092,-0.076499,-0.016395
-0.051545,-0.29354,-0.34417,-0.06829,0.012774,0.038446,0.037592,-0.010671
0.10729,0.028722,-0.034244,0.038939,0.083195,0.1159,0.034967,0.049409
-0.069668,-0.19708,-0.17307,-0.12,-0.087021,-0.04849,-0.029484,-0.015581
0.082146,0.41219,0.52931,0.22088,0.056651,-0.0015084,0.031774,0.021164
-0.046286,-0.13508,-0.075388,-0.016159,0.013832,0.014604,-0.00012083,-0.0042165
-0.040657,-0.080318,-0.20651,-0.080738,-0.090969,-0.070634,-0.015986,-0.029064
0.021074,0.061687,0.056699,0.019675,0.085527,0.094138,0.030863,0.024877
-0.009415,-0.22393,-0.22469,-0.097428,-0.066395,-0.030294,-0.03936,-0.021975
0.00075795,0.13365,0.065046,0.029119,-0.0078248,-0.022072,-0.023485,0.0023446
0.012524,0.056373,0.15106,0.04785,0.011263,-0.04511,-0.0072532,0.0041341
-0.04457,0.035907,0.024302,-0.010103,0.030063,0.072764,0.025252,-0.024442
0.0010084,-0.06169,-0.16008,-0.0045147,-0.052866,-0.066521,-0.027258,-0.0053973
0.054919,0.13695,0.20635,0.032653,0.020282,-0.0017177,0.022854,0.037547
0.0069588,-0.081002,-0.080268,-0.02457,0.014921,-0.013958,0.019225,0.025832
0.090508,0.1499,0.1906,0.14303,0.12593,0.13095,0.063014,0.03704
-0.13294,-0.31224,-0.30917,-0.16867,-0.092583,-0.044077,-0.049564,-0.077836
0.023282,0.00088758,-0.040002,0.016168,-0.016186,0.022667,0.0010029,0.0010344
-0.042828,-0.027443,0.022582,0.0098662,-0.0046336,-0.013479,-0.0047928,-0.015697
0.028194,0.1197,0.051874,-0.038694,-0.057938,-0.067388,-0.051859,0.0047787
0.026097,0.061389,0.057307,0.004376,0.027473,0.016707,0.015896,0.0080768
0.045876,0.20601,0.22797,0.1016,0.033752,0.012249,0.034698,0.049465
-0.082707,-0.22566,-0.10663,-0.049879,0.0090131,-0.0020787,-0.025998,-0.034348
-0.045362,-0.083499,-0.12509,-0.081057,-0.045375,-0.040859,-0.016748,-0.023763
-0.035769,-0.15543,-0.29543,-0.045195,-0.026605,0.0066222,0.0010654,-0.027375
0.13473,0.48094,0.46089,0.16005,0.019322,-0.045764,0.0050179,0.06478
-0.017826,-0.26049,-0.23894,0.0033682,0.10833,0.13903,0.050503,0.0029815
0.037357,-0.091415,0.034398,0.0072428,-0.041187,-0.032149,-0.010659,-0.025358
-0.021356,0.064983,0.12379,-0.01754,-0.0083669,-0.0046582,0.0087886,0.0027351
0.0071925,-0.089831,-0.23767,-0.06537,0.0021828,0.025487,0.0065924,0.00055108
0.050425,0.43454,0.39369,0.048937,-0.05032,-0.052306,-0.033873,0.037441
-0.12035,-0.30886,-0.27298,-0.036012,0.01997,0.033915,-0.012161,-0.028208
0.040165,-0.032185,0.01847,0.029974,0.032059,0.0014449,0.016021,0.013708
-0.070307,0.037513,0.1184,-0.042654,-0.069477,-0.088362,-0.036019,-0.024837
0.048515,-0.0056681,0.065381,0.051269,0.074697,0.052933,0.050102,-0.003333
-0.031847,-0.16054,-0.45274,-0.093156,-0.034758,-0.0043642,-0.022437,-0.046458
0.042064,0.12157,0.22149,0.033853,-0.013774,-0.0096762,-0.003196,0.041799
0.022446,0.12403,0.082025,0.028275,0.022093,0.045828,0.022609,0.0045561
-0.033939,-0.11222,-0.07228,-0.04532,-0.066057,-0.05537,-0.037912,-0.00095151
-0.016156,-0.062446,0.033717,0.017728,0.0045264,0.00041161,-0.0042349,0.026119
0.029676,0.28931,0.22135,0.1244,0.01608,-0.05156,-0.00070321,-0.015243
0.033072,-0.37804,-0.32183,-0.037998,0.12513,0.1407,0.058988,0.015754
0.016423,0.035206,-0.034265,-0.056389,-0.020362,0.022405,0.018616,-0.02173
0.032736,0.2764,0.34008,0.059853,-0.038733,-0.055463,-0.028352,0.028023
0.017555,0.22539,0.12712,0.012112,0.037239,0.031242,0.0035305,0.0080413
-0.16374,-0.37049,-0.37836,-0.13083,-0.075261,-0.077734,-0.050355,-0.051174
-0.012419,0.0026194,0.048748,0.0050114,-0.033714,-0.015845,0.0048382,-0.025256
0.025705,-0.11657,-0.15441,0.013105,0.051888,0.0292,0.028235,0.030708
0.060372,0.015396,0.13027,0.011065,-0.037059,-0.02043,-0.011394,0.030668
0.022384,0.12784,0.16266,0.070206,0.0050041,-0.015563,0.0034263,0.0060558
-0.0554,-0.3146,-0.43722,-0.12066,-0.023648,0.029157,-0.012767,-0.042706
0.02411,0.42639,0.48992,0.15071,0.019225,-0.04155,-0.012557,0.017772
-0.026555,-0.13026,-0.20183,-0.059942,0.033529,0.069881,0.012328,-0.015012
0.035903,-0.021602,0.051623,0.02921,0.067138,0.058971,0.030889,0.0079336
0.040039,0.088588,-0.015145,-0.027118,-0.082774,-0.066834,-0.011612,0.016672
-0.053541,-0.0042435,-0.020509,-0.073175,0.013004,0.019704,0.0094496,-0.02774
0.011946,0.048692,0.14253,0.077633,0.032994,0.0048565,0.015297,0.022969
0.039648,-0.0060323,-0.029148,0.064791,0.014614,-0.018945,-0.0026882,0.035543
-0.058153,-0.062275,-0.054394,-0.073804,-0.036132,-0.029388,-0.045313,-0.029718
0.052779,0.010527,0.02498,-0.026657,-0.019331,0.0040754,0.019598,0.0061497
-0.058582,-0.17898,-0.31623,-0.052271,-0.053359,-0.035891,-0.019237,-0.029402
0.013275,-0.0048548,0.10113,0.083423,0.087806,0.062065,0.025709,0.011563
-0.051994,-0.089858,0.058959,-0.02574,-0.064412,-0.068378,-0.040493,-0.035257
0.14471,0.45164,0.47289,0.12845,0.053308,0.066086,0.040633,0.080189
-0.1454,-0.52639,-0.53786,-0.15656,-0.018694,-0.0021755,-0.026983,-0.063657
-0.014543,0.039513,-0.0025559,-0.05202,-0.060195,-0.022267,-0.0003698,-0.02098
0.062245,0.25758,0.15848,0.08321,0.047375,0.021931,0.027331,0.044738
-0.0075383,0.24933,0.0242,0.015035,0.00036612,-0.0023749,-0.0060652,-0.014405
0.034649,0.0094093,-0.061653,-0.0065446,0.057108,0.029385,0.01661,0.012926
0.040469,0.26604,0.21275,0.065087,-0.0090147,-0.024163,0.0012802,0.033185
0.079742,-0.095548,0.22139,0.081102,0.067087,0.062667,0.033352,0.022951
-0.12969,-0.82063,-0.607,-0.15414,-0.098222,-0.093722,-0.044008,-0.049146
-0.065463,-0.03384,0.11775,0.0077304,-0.02923,-0.05633,-0.043783,-0.019211
0.0058648,-0.027863,-0.17439,-0.081334,1.0399e-06,0.041929,0.0025258,-0.035813
-0.010059,0.11094,0.017589,-0.022042,-0.002937,0.021686,0.0090152,-0.0052488
0.14444,0.57145,0.55453,0.1556,0.040318,0.047665,0.030679,0.080337
-0.092837,-0.18405,-0.29638,-0.039209,-0.041482,-0.027701,-0.010115,-0.028957
-0.018101,0.086204,-0.0026455,-0.042695,-0.020932,-0.00038809,-0.0034448,-0.0049176
0.056978,0.26156,0.17855,0.052225,0.0090469,-0.057124,-0.0035252,0.035298
-0.093357,-0.4463,-0.3466,-0.035504,0.10374,0.068222,0.028987,-0.033376
0.070544,0.08496,0.20239,0.076377,0.028959,0.032056,0.0081752,0.023276
0.0098393,-0.079692,-0.058555,-0.066519,-0.1218,-0.095528,-0.042771,-0.029351
0.013368,-0.05653,-0.052948,0.049633,0.064866,0.052086,0.024108,0.011611
-0.028894,0.037772,-0.0013067,-0.038171,-0.013545,0.013121,-0.010563,-0.018145
0.03834,0.14191,0.18839,0.019622,-0.037725,-0.018103,0.00098997,-0.0016279
-0.012584,-0.038289,-0.11036,-0.044248,0.0070521,0.0042794,0.011297,0.029778
-0.042044,-0.09179,-0.070519,-0.035474,-0.03612,-0.014371,-0.019136,-0.017739
0.0039469,0.043162,0.10426,0.061336,0.019925,-0.020014,-0.0045697,-0.0035495
0.062643,0.19615,0.21102,0.035813,0.05799,0.049529,0.039428,0.048982
-0.10006,-0.38737,-0.42119,-0.079523,-0.023211,-0.016627,-0.050897,-0.047502
0.0009827,0.023632,-0.017362,0.013985,0.026814,0.00069037,0.0062135,0.019713
-0.00032246,0.15277,0.14333,0.013681,-0.056927,-0.04621,0.00045941,-0.022526
0.061346,0.012324,0.0084323,0.015319,0.038778,0.070223,0.041896,-0.017628
0.038739,0.14471,0.16596,0.020608,-0.0056543,-0.016084,0.006163,0.026959
-0.0047152,-0.018589,0.00029526,-0.00049721,-0.0098522,-0.030594,-0.028083,0.0022005
-0.037214,-0.18056,-0.30018,-0.055237,-0.012299,0.027636,0.0098488,0.0021083
-0.027377,0.10275,0.13966,0.0047218,-0.051649,-0.059495,-0.043911,-0.0044275
0.0010971,0.1259,0.20989,0.061468,0.036329,-0.018309,-0.0018684,0.0060183
0.039814,-0.1529,-0.19993,-0.01122,0.095275,0.13534,0.065452,0.025466
-0.0057796,-0.033056,0.08077,0.011693,-0.015833,-0.021103,-0.029869,-0.024509
-0.097545,-0.24298,-0.30096,-0.097978,-0.063262,-0.043399,-0.030625,-0.050555
0.076071,0.3023,0.27864,0.080145,-0.00092927,-0.010943,0.023375,0.025011
0.053256,0.024554,0.029458,0.013616,0.014085,0.043751,0.037568,0.045498
-0.0026421,-0.16164,-0.15871,-0.063959,-0.0033365,-0.0053463,0.011177,0.0027018
-0.037403,0.15857,0.20568,0.018994,-0.014695,-0.080726,-0.048603,-0.025554
0.01132,-0.10005,-0.22162,0.012614,0.02656,0.051888,0.014127,-0.0081975
-0.051591,0.070635,0.098019,-0.0123,-0.028085,-0.052406,-0.011573,-0.0077589
-0.0068625,0.061051,0.070528,-0.015996,-0.01442,-0.0021703,-0.047213,-0.00068618
0.013455,-0.059188,-0.038688,0.0179,0.028821,0.039553,0.025082,0.0054455
0.0024051,-0.10361,-0.018735,0.035374,0.070835,0.065966,0.026511,0.018765
0.023272,0.036109,-0.095974,-0.025551,-0.067543,-0.047125,-0.010745,-0.022885
0.037551,0.15605,0.12854,0.062041,0.012682,0.028884,0.031316,0.021439
-0.017025,-0.10336,-0.047439,-0.029742,-0.047299,-0.02621,-0.026437,-0.0042541
0.023494,0.070953,0.13509,-0.0038281,0.057744,0.029569,0.034979,0.017407
-0.036597,-0.13207,-0.18177,-0.094345,-0.046712,-0.062019,-0.018921,-0.007216
-0.033798,-0.10094,-0.019851,0.034994,-0.0087555,-0.020241,-0.02446,-0.031194
0.023483,0.073111,0.052069,0.025242,0.031146,0.037212,0.025606,0.00017158
0.017558,-0.044997,-0.050729,-0.013796,0.018208,0.0083667,-0.0021664,0.00091574
-0.075345,0.10903,0.055217,0.0041122,-0.0010748,0.0023048,-0.030231,-0.005596
0.05714,0.15311,0.096355,0.0086867,-0.050787,-0.035834,-0.019968,0.035193
0.024436,-0.061766,-0.10795,0.02304,0.063544,0.065754,0.051796,0.013708
-0.0013943,-0.029582,0.065595,0.015225,-0.026181,-0.028852,-0.0025113,-0.023437
-0.020081,-0.0030493,0.091365,0.023318,0.038593,0.016373,-0.003107,-0.0062292
-0.015689,-0.071164,-0.10327,-0.047552,-0.0083273,-0.0093474,-0.0044575,-0.013085
0.066779,0.13829,0.049975,0.043763,0.0047597,0.0035897,0.017172,0.041698
-0.092699,-0.25167,-0.20807,-0.11755,-0.10936,-0.07735,-0.04727,-0.045141
0.045197,0.11758,0.043957,0.054123,0.001613,0.01375,0.0056343,0.0076419
0.019735,-0.011312,0.056444,-0.0035323,0.041828,0.066202,0.035482,0.020483
-0.028321,-0.12895,-0.10704,-0.024275,0.020232,-0.0057794,-0.012305,-0.014188
-0.028608,0.17317,0.17994,0.016246,0.0081154,0.00094277,-0.01274,-0.025741
0.042262,-0.008802,0.098576,0.064349,0.029534,0.015928,0.034043,0.048677
-0.050256,-0.040018,-0.1077,-0.043128,0.029925,0.0077006,-0.0049794,-0.017162
0.10763,0.33864,0.17917,0.053819,-0.022332,-0.04743,0.0027712,0.027026
-0.023498,-0.48184,-0.36845,-0.074225,-0.034257,-0.016848,-0.021022,-0.021681
-0.076816,0.27146,0.038709,0.0023399,-0.022454,0.013425,-0.037393,-0.045983
0.048919,-0.16046,0.095939,0.04876,-0.0035227,-0.0034328,0.023997,0.032265
-0.052742,-0.0057208,-0.0093707,-0.029258,-0.025118,-0.020384,-0.00077155,0.0020562
0.063478,0.31226,0.26948,0.095855,0.076379,0.056542,0.021335,0.035116
-0.047591,-0.39526,-0.34898,-0.13882,-0.01157,-0.0068144,0.0046305,-0.040644
0.036222,0.10541,0.049106,0.016519,0.0082777,0.016274,0.011844,0.016717
-0.012805,0.11112,0.0807,-0.00051946,-0.011807,0.0009023,-0.0037249,0.0038198
-0.0067288,-0.049431,0.042498,-0.0099097,-0.047448,-0.021642,-0.018532,-0.0092418
0.0079825,-0.086113,-0.073449,0.035705,-0.003887,-0.027914,-0.024734,-0.014815
0.00038342,0.06485,-0.0094221,0.011809,0.010398,-0.010101,0.0010641,0.0026418
0.017494,0.0062168,0.093896,0.051558,0.035074,0.016161,0.011864,0.011864
-0.050111,-0.058054,-0.15417,-0.06369,-1.2534e-05,0.011762,0.023083,-0.0027359
0.023874,0.012921,0.043172,-0.01379,-0.0014636,-0.0078064,-0.0046393,-0.0020338
0.01244,0.14844,0.052953,0.013341,0.037689,0.027509,0.014266,0.014027
0.024372,0.0037635,-0.039159,0.0092986,-0.024385,-0.015511,-0.022167,-0.0092061
-0.050363,-0.031787,0.063342,0.012493,-0.0093497,-0.012398,-0.0049455,0.0063971
0.021986,-0.10798,0.0084739,-0.016733,0.003426,0.028448,0.0031415,-0.0094897
0.014369,0.047666,-0.016616,-0.0006743,-0.018192,-0.010699,0.001957,-0.002195
0.028111,0.083229,0.17542,0.037074,0.034833,0.041685,0.022814,0.020473
-0.053897,-0.36809,-0.40744,-0.075221,-0.055964,-0.025386,-0.019948,-0.027383
-0.012473,0.17128,0.086887,-0.0090005,-0.070963,-0.06313,-0.024294,0.0027629
0.012504,0.12458,0.10456,0.056697,0.092681,0.030767,0.018198,0.025102
-0.024886,-0.014684,-0.0097106,-0.018001,-0.01671,-0.039491,-0.016821,-0.038336
0.016993,0.098196,0.073085,0.017629,0.031874,0.0085937,0.0040465,0.015721
0.014011,-0.028636,0.02539,0.015715,0.036258,0.043398,0.018708,0.015513
0.021416,-0.036127,-0.066737,-0.015614,-0.0031417,0.01894,0.011684,-0.015473
-0.038798,-0.14386,-0.094289,-0.060711,-0.055236,-0.033127,-0.0015555,0.024295
0.083016,0.1627,0.12946,0.098907,0.035559,0.043251,0.0098102,-0.0059221
-0.059232,-0.094019,-0.084007,-0.060702,-0.036452,-0.018337,-0.0095321,-0.035991
0.0099672,0.093126,0.11582,0.014494,-0.022411,-0.01602,-0.02122,0.011994
-0.030828,-0.088497,0.0093565,0.019103,0.053176,0.033074,0.013169,0.0049967
0.059584,0.049067,-0.060127,-0.00064049,0.0098077,0.0024585,0.0072372,0.036582
0.030551,-0.063546,-0.076979,-0.029595,-0.0045267,-0.023132,-0.015784,0.012885
-0.16501,-0.089185,-0.13446,-0.036778,-0.060175,-0.067844,-0.048014,-0.073916
0.012219,0.0045612,0.002598,0.016847,-0.01617,0.024467,0.028042,0.0028492
0.07849,0.2966,0.3507,0.053348,0.034354,0.035548,0.04096,0.040269
-0.012244,-0.087913,-0.097295,0.0027706,0.014013,-0.010198,0.0068574,-0.016059
0.045518,-0.071446,-0.020765,-0.025045,0.0094455,-0.0256,-0.026965,-0.0095931
-0.013235,-0.030247,-0.052639,-0.0061522,0.021188,0.045278,0.0022826,-0.0026045
-0.0007096,0.08089,0.10353,0.013075,-0.005145,-0.023096,0.0087821,0.012825
-0.0107,-0.091345,-0.14657,-0.0059715,0.039897,0.035536,0.0081257,0.013203
0.018983,-0.0093448,-0.037722,-0.023855,-0.054704,-0.013044,-0.015451,0.013947
0.0097836,0.13854,0.12522,0.022184,-0.023454,-0.0050755,-0.0074386,-0.00087675
-0.030867,-0.1165,-0.032507,0.0072665,0.016366,0.050981,0.024195,0.015276
-0.032837,-0.03928,-0.080697,-0.021778,-0.068067,-0.048812,-0.022193,-0.047221
0.0039756,0.0045272,-0.0030313,0.012958,0.012366,-0.039602,-0.013783,-0.016585
-0.013788,0.0012776,0.060499,0.009532,0.062405,0.0077397,0.0026291,-0.017717
0.00821,0.031162,0.0086946,-0.048192,-0.003928,-0.0085747,-0.011912,0.0043444
0.070602,0.15062,0.20088,0.097021,0.070979,0.028784,0.028602,0.057779
-0.044856,-0.13925,-0.19941,-0.024146,-0.010116,0.03434,0.022591,0.0023256
-0.0019994,-0.08825,-0.068043,-0.052779,-0.052381,-0.022483,0.0089887,-0.013318
-0.011909,0.013807,0.031377,-0.0047765,-0.056299,-0.047192,-0.035877,-0.012494
0.073334,0.22781,0.12122,0.018269,0.016812,0.031181,0.012709,0.035963
-0.020527,0.043763,-0.072772,0.024398,0.026139,0.025567,0.0060439,-0.0088011
-0.028845,-0.24385,-0.066658,-0.032818,-0.012666,-0.024863,-0.024793,-0.029912
0.0083646,0.0034637,-0.008799,-0.019977,-0.0056428,-0.010999,-0.0095192,-0.019876
-0.081528,0.034252,0.16389,0.047918,0.047534,0.019665,-0.0027004,-0.0023955
0.06824,-0.0035555,-0.031943,-0.023897,-0.0090317,0.034991,0.019344,0.037978
0.012326,0.0077839,-0.13406,0.0071401,-0.034409,-0.012909,-0.0055893,-0.00039514
-0.022358,-0.031769,-0.016049,0.039614,0.010677,-0.015621,0.00090289,-0.015946
0.0039073,-0.010602,0.02646,-0.012509,0.024772,0.002688,0.023384,0.022646
0.0060221,0.14418,0.15061,-0.032341,-0.015537,-0.044267,-0.0083937,-0.0016903
-0.007321,-0.14302,-0.14323,-0.02032,0.030359,0.031122,0.022702,-0.0028678
0.0037242,0.098661,0.074359,0.030876,-0.0094187,0.010656,-0.0084619,-0.011962
0.031921,0.13626,0.17755,0.027033,-0.064508,-0.08134,-0.039533,-0.013158
-0.05525,-0.38124,-0.2646,-0.032224,0.021453,0.053055,0.015329,-0.014086
0.031262,0.16293,-0.011336,-0.022155,-0.0092036,0.02421,-0.023574,0.032282
0.017725,0.07997,0.076594,0.025859,0.031138,0.028183,0.015718,0.0088432
-0.010431,-0.046234,-0.033165,-0.036654,-0.037202,-0.028416,-0.0072825,-0.0062824
-0.0069587,0.00048025,0.018068,0.032533,0.051233,0.01059,0.0091185,-0.0053872
-0.050619,-0.017055,0.050373,0.030363,0.014833,-0.0036862,0.010295,-0.0042858
0.068984,0.26573,-0.037591,-0.0040115,0.017147,0.021815,0.035256,0.035847
-0.015701,-0.27819,-0.026465,-0.007978,-0.020516,0.00041256,-0.0099253,-0.033661
0.007691,-0.0014937,0.053412,-0.0048054,-0.036133,-0.045065,-0.023953,-0.0098645
-0.016985,0.048956,0.10939,-0.0020469,-0.014337,-0.029013,-0.022747,-0.0022215
-0.050345,-0.196,-0.21677,-0.046206,-0.0097559,-0.013929,0.0012539,0.0049235
0.064338,0.11725,-0.041185,0.027251,0.0092545,0.023928,0.024465,0.019521
-0.0083302,0.077206,0.1213,0.015712,0.03555,0.045992,-2.3165e-06,0.0027213
0.0056012,-0.01669,-0.04927,-0.025668,-0.023804,-0.0097103,-0.0095258,-0.021795
-0.041912,0.048594,0.13443,0.012794,0.019487,0.021295,-0.011691,-0.014748
0.04465,0.032173,-0.023674,-0.0016582,0.0019742,-0.0014308,0.0094083,0.024011
0.0074742,-0.14369,-0.11856,-0.014593,-0.052608,-0.038902,-0.00063744,0.00076995
0.033858,0.26275,0.14516,0.082803,0.03534,0.010135,0.013079,0.024822
-0.087491,-0.2651,-0.10897,-0.038379,0.038781,0.0046004,-0.0040045,-0.036836
0.017989,0.11535,0.078899,0.0038106,0.0038179,0.0065043,0.010633,0.010847
0.021714,0.051553,0.05989,0.013306,0.0076538,0.023255,0.010048,0.034782
-0.014238,-0.17582,-0.22815,-0.065038,-0.044336,-0.039124,-0.029314,-0.035571
-0.019911,-0.059096,-0.018489,0.018744,-0.0043462,-0.00093829,0.0018031,-0.012844
0.0044275,-0.090286,0.010849,-0.023976,-0.021059,-0.026016,-0.013874,-0.022044
0.042974,0.1761,0.11171,0.002944,0.0072969,0.0032308,0.001751,0.015064
0.056593,0.099281,0.020079,-0.0010022,0.003213,0.024761,0.025264,0.028359
-0.032785,0.28794,0.15101,0.043357,-0.024609,-0.0079062,-0.013597,0.018068
-0.12339,-0.37635,-0.21405,-0.050684,0.034163,0.04608,0.0024034,-0.023407
0.082005,0.26106,0.21329,0.076591,0.0084673,0.0070288,0.010775,0.013479
-0.025461,-0.23097,-0.11509,0.0030952,0.039409,-0.00027943,-0.0041462,-0.011783
0.0079167,-0.17371,-0.16953,-0.053163,-0.037025,-0.046526,-0.0033912,-0.020998
0.042085,0.10466,0.079675,0.062934,0.0053357,-0.0071226,0.0051003,0.017116
-0.063122,-0.043414,-0.040599,-0.032718,0.0095054,-0.015223,-0.010055,-0.030245
0.059751,0.1416,0.10951,-0.013175,0.013629,0.030546,0.0057204,0.040033
0.020105,0.036855,0.10006,-0.019885,-0.045691,-0.026069,-0.010128,0.0091628
-0.033832,-0.003912,-0.17031,-0.0062635,0.010538,0.041677,0.012722,-0.0057293
-0.039956,-0.12735,-0.091688,-0.018889,-0.021167,-0.00027184,-0.011584,-0.035977
0.0090465,0.11298,0.11791,0.0055533,-0.000144,-0.010892,0.0030251,0.0042597
0.026734,0.029932,0.12336,0.060411,0.011497,0.0024146,0.0098416,0.028943
0.03613,-0.040908,-0.066752,-0.063989,-0.024664,-0.022487,-0.014407,0.014551
-0.0020761,0.063666,0.056091,0.063156,0.071802,0.016231,0.024164,-0.0077243
-0.080101,-0.16525,-0.1559,-0.018331,-0.042166,-0.02974,-0.03062,-0.045713
0.028811,0.060338,0.0088185,-0.0034863,0.032385,0.042692,0.0087503,0.017797
-0.02653,0.013034,-0.0117,-0.0019117,-0.032389,-0.024485,0.0093951,-0.0046358
0.027785,-0.065514,0.087697,0.048239,0.036992,0.041829,0.0024406,0.019871
0.020331,0.035357,-0.013025,-0.025828,-0.0096093,-0.00097978,0.011169,0.0054331
-0.009511,-0.028254,-0.071686,-0.037589,-0.023987,-0.028358,-0.011445,-0.016687
0.039927,0.17316,0.14571,0.051183,0.0092455,-0.0094466,-0.0030077,0.023783
-0.058056,-0.15763,-0.15067,-0.11161,-0.042906,-0.022644,-0.010429,-0.013874
0.03212,0.056945,0.13183,0.044181,0.022577,0.017854,-0.0024105,-0.0047783
0.028715,0.089641,-0.047159,-0.0046937,-0.02093,-0.0051383,-0.010087,-0.01156
-0.045357,-0.068016,0.014194,0.046906,0.029624,0.017849,0.0057503,0.0047365
-0.0030411,-0.041428,-0.099253,0.0042503,0.01002,0.0010217,0.02961,0.020606
-0.047752,-0.033657,0.033724,-0.0227,0.021549,0.022654,-0.0087473,-0.01865
0.023537,0.049713,0.084919,0.052488,0.032584,0.012576,0.015673,0.019824
0.031221,-0.032235,0.031449,0.0036168,-0.027607,-0.021257,-0.022217,-0.027939
0.061449,-0.0043323,-0.11773,-0.036258,-0.042193,-0.023984,0.010255,0.025697
-0.0026859,0.033771,0.029578,-0.0044875,0.012071,0.004613,0.0035606,-0.0066184
-0.14528,-0.12712,-0.17329,-0.11975,-0.060084,-0.052393,-0.042433,-0.030991
0.055794,0.1548,0.12685,0.055424,0.022873,0.024013,0.012814,0.022995
0.02255,-0.057616,0.056178,0.028695,0.019219,0.030913,-0.0026089,-0.016494
0.012855,0.070939,0.044818,0.041893,0.023242,0.023081,0.020674,0.030191
0.042283,-0.062667,-0.0013517,0.047586,0.027621,0.016063,0.012364,0.014504
0.016973,0.25809,0.21343,0.076313,0.040531,0.025253,0.01935,0.01442
-0.078818,-0.13331,-0.23428,-0.10704,-0.07847,-0.066869,-0.036476,-0.040515
-0.026388,-0.23122,-0.18211,-0.096799,-0.040302,-0.049714,0.0011704,-0.017569
-0.013175,0.0019449,0.032587,-0.018259,0.0064873,0.01394,-0.0004455,-0.018283
0.062575,0.057928,0.057329,0.019309,0.046097,0.045822,0.0056885,0.035595
0.013644,0.046677,0.11833,0.078866,0.054898,0.045938,-0.011483,0.0036524
-0.04247,0.016486,-0.081144,-0.010756,-0.061022,-0.048067,-0.028296,-0.01231
0.035127,-0.022931,0.053139,0.024664,-0.028329,-0.032831,0.025778,0.026972
-0.0034018,0.039761,0.029597,0.0061286,0.027933,0.021604,0.033706,-0.011206
0.013839,0.13588,0.075373,-0.026826,-0.0094114,-0.0017143,0.0033484,0.0059458
-0.053906,-0.23358,-0.27784,-0.050576,-0.030969,-0.0089058,-0.02631,-0.023296
0.019655,0.041016,0.087407,0.036334,0.041367,0.031257,-0.00077842,-0.0054655
-0.015855,-0.072094,-0.039775,-0.0086364,-0.0034441,-0.022041,-0.014094,0.012199
0.034434,0.18379,0.18425,0.032751,0.021888,0.033991,0.011541,0.013686
-0.0018033,0.049403,-0.0063734,0.01931,-0.00011598,0.011454,0.0055009,0.0064622
0.054723,0.13267,0.16941,0.020873,0.023981,-0.0040754,0.014405,0.029361
-0.093134,-0.31751,-0.33533,-0.080039,-0.038874,-0.05187,-0.032213,-0.058299
0.0076631,-0.21567,-0.15315,-0.041259,-0.032505,-0.014711,0.014055,-0.014172
0.029122,0.21194,0.22431,0.059341,0.043245,0.045204,0.03613,0.021483
0.034096,0.020977,0.0088266,-0.012143,-0.053419,-0.043463,-0.051696,-0.021121
-0.031578,0.29877,0.19346,0.026092,-0.0094302,-0.0066082,0.00089759,0.030484
-0.12042,-0.35948,-0.26793,-0.059854,0.035203,0.039221,-0.0010437,-0.018469
0.064993,-0.015169,-0.062508,0.019328,0.0028745,0.00073419,-0.0025044,0.019907
0.064124,0.16817,0.122,0.06043,0.02668,0.018712,0.027998,0.020761
0.017725,-0.083157,-0.012067,-0.0072796,0.028461,0.030452,0.02024,-0.03165
0.058451,0.18304,0.22152,0.042096,-0.031201,-0.034898,-0.01023,0.042004
