0.051753,0.54286,-0.018757,0.18461,0.010824,0.029303,0.12785,0.22521
-0.44876,-0.15686,-0.029775,-0.017314,-0.012309,-0.026149,-0.049414,-0.23331
-0.15291,-0.26274,-0.15297,-0.027771,-0.079605,-0.056945,-0.46381,0.14169
0.2617,0.066761,0.028178,0.44132,0.08981,0.054068,0.36833,-0.069357
-0.054862,0.0085827,0.13229,0.27102,0.04203,0.025383,0.17953,0.064323
0.45295,0.27104,0.050081,-0.65015,-0.036483,-0.0028053,0.17011,0.089306
0.2773,0.6259,0.061416,-0.19122,-0.021829,0.023661,0.18058,0.26968
-0.92629,-0.91114,-0.023921,0.59211,0.030352,-0.091062,-0.86244,-0.49856
0.55191,-0.12688,0.20454,-0.65939,-0.083701,-0.0036779,0.20306,0.10204
-1.0081,-0.60291,-0.6633,0.29778,-0.059526,-0.050439,-0.03758,-0.36104
0.9708,0.19774,0.30666,-0.33899,0.040555,0.088815,0.33091,0.23478
-0.21535,0.78867,0.11209,0.23719,0.099847,0.093789,-0.094909,0.56743
0.52675,0.26017,0.064594,0.62958,0.048714,-0.0040726,0.0092726,-0.12974
-0.74851,-0.25322,0.18833,-0.098712,0.012889,-0.032511,-0.055148,-0.58345
0.1697,0.1845,-0.67859,-0.4873,-0.092871,-0.076872,0.020831,0.24602
0.093904,-0.74356,0.13111,0.19662,-0.064846,-0.10512,-0.25159,-0.20232
0.21178,0.40162,0.18356,-0.36158,0.0036701,0.11801,0.4498,0.68309
-0.24979,0.62118,0.28675,0.38277,0.066067,0.015262,-0.25004,-0.22003
-0.47003,-1.0044,-0.27581,-0.36902,-0.072961,-0.076824,-0.13435,-0.59626
0.65312,0.21721,0.0044501,0.35057,0.078462,0.11537,0.45712,0.26036
-0.083002,0.020874,0.05632,-0.044922,-0.011571,-0.049155,-0.074398,-0.054072
0.087661,0.39471,0.072801,0.038362,0.10912,0.15521,-0.12506,0.50101
0.45455,-0.46735,0.36324,-0.13331,-0.099641,-0.13232,-0.18434,0.090052
-1.0991,0.24702,-0.52867,0.089545,-0.03733,-0.13206,-0.20147,-0.64724
-0.16673,-0.97858,-0.081957,-0.15109,0.02187,0.16229,0.33711,-0.095859
0.86142,0.69638,0.046082,-0.14273,-0.00038179,-0.0081859,-0.021719,0.39717
-0.1943,0.42089,0.074791,0.93661,0.068247,-0.073629,0.15385,-0.10979
0.18126,0.558,0.053148,-1.0754,-0.060158,0.12249,0.30517,0.33962
0.073027,-0.29142,-0.18764,0.53386,-0.047937,-0.16881,-0.98454,-0.43889
-0.54392,-0.45906,0.12137,-0.273,-0.049317,0.0071958,0.19656,0.089777
0.30533,0.019759,0.09226,0.42728,0.078285,0.074266,0.48653,0.54004
-0.23992,-0.46627,-0.0078488,-0.63778,-0.077726,-0.090762,-0.23561,-0.80781
0.40565,1.0932,0.024086,-0.014803,0.053569,0.13072,0.25104,0.4459
0.094183,-0.95743,0.077104,0.40484,0.13575,0.0050868,-0.15531,-0.26561
-0.53958,0.20905,0.17981,0.22868,0.018814,0.016637,-0.035311,-0.046157
0.74989,-0.35614,-0.18643,0.28978,0.044087,0.016113,0.0050661,0.47059
-1.1268,0.034112,-0.42267,-0.97014,-0.18966,-0.10723,0.030647,-0.52042
0.33529,0.1531,0.016376,0.43741,-0.013147,-0.011222,0.30934,0.073605
0.45288,0.42759,0.37256,0.14984,0.18894,0.2011,-0.18677,0.46883
-0.33371,0.091605,-0.17356,-0.67098,-0.3498,-0.2604,-0.40558,-0.37889
0.17892,-0.018186,0.12185,0.59908,0.011688,-0.021244,0.18405,0.030146
0.48026,0.21722,-0.067541,0.22615,0.23577,0.082676,-0.071789,0.051871
-0.93543,-0.5339,-0.09184,-0.85842,-0.17548,-0.057558,-0.10632,-0.24181
0.73625,0.51873,0.29178,0.99625,0.3583,0.25404,0.16387,0.62525
0.087576,-0.26443,-0.049779,-0.82422,-0.1141,-0.059985,0.36111,-0.23103
-0.38271,-0.86406,-0.1098,0.3391,-0.2554,-0.19444,-0.37779,0.047946
-0.017833,0.75942,0.071155,-0.01933,0.24753,0.21033,0.4649,-0.32585
-0.33771,-0.25514,-0.07081,0.35993,-0.11315,-0.18153,-0.39212,-0.059417
0.039919,0.16611,0.010383,-0.50652,-0.017632,0.012715,-0.10711,0.065646
0.5558,-0.56313,-0.13044,0.23342,0.033316,0.089848,0.2619,0.036837
0.02899,0.98059,0.015702,0.31442,0.023271,-0.028342,-0.14061,0.13359
-0.57068,-0.84202,-0.088288,-0.85683,-0.11875,-0.044984,0.056665,-0.30041
0.4855,0.4917,0.17712,0.81411,0.13024,0.08689,0.061915,0.14932
-0.57403,0.24328,0.1891,-0.2421,0.035646,-0.0075346,-0.14962,0.26355
0.7901,0.53011,-0.16028,-0.65731,-0.12915,-0.054568,-0.069888,-0.022569
-0.30721,-0.40044,-0.050336,0.29556,-0.036054,0.031989,0.15424,0.15331
-0.56687,-1.0915,-0.067823,0.27238,0.017939,-0.16174,-0.21706,-0.34908
0.32999,0.56224,0.14474,0.19335,0.048081,0.090837,-0.064178,-0.19576
0.17549,-0.30114,-0.048082,0.063309,0.045893,0.047294,0.21616,0.16428
0.87628,0.91157,0.44464,0.69091,0.26827,0.1993,0.34308,0.14828
-1.0139,-0.87621,-0.50458,-0.94341,-0.21546,-0.10233,-0.2158,0.079499
-0.097532,0.68221,-0.23334,-0.5459,-0.203,-0.13971,0.24012,-0.069945
0.11076,-1.0662,0.054661,-0.17291,-0.0072101,-0.054216,-0.52678,-0.23317
0.41176,0.69349,0.16469,0.40993,0.028394,0.059909,0.23034,0.25181
-0.32751,0.30548,0.27792,0.60238,0.21721,0.10105,-0.092295,-0.25618
-0.18938,0.1663,-0.080214,0.14076,-0.14245,-0.086654,-0.0031486,0.040646
-0.19855,-0.12667,-0.18104,-0.16838,0.11527,0.099203,0.077087,0.29276
-0.034429,-0.24315,0.063274,-0.55034,-0.11715,-0.0668,-0.14563,-0.19237
0.8265,0.029663,0.029161,0.34693,0.12295,0.0025656,0.067041,0.11949
-0.64108,-0.48491,-0.22002,-0.61737,-0.24125,-0.16022,-0.23377,-0.081461
0.52647,0.82772,0.30817,0.98593,0.10349,0.10986,0.43225,-0.16823
0.23425,-0.61038,-0.19126,-0.21864,0.10254,0.071097,-0.22929,-0.061754
-0.31938,0.29742,0.29651,0.22986,-0.002653,0.1218,0.49343,0.45635
-0.15742,-0.81131,-0.33901,-0.73809,0.0052336,-0.074707,-0.079992,-0.22496
-0.71821,0.13921,-0.11473,-0.18329,-0.19611,-0.19936,-0.45928,-0.22573
0.95861,0.80221,0.27277,0.48256,0.1957,0.11351,0.10311,0.46604
-0.43859,0.35258,-0.0057139,-0.38646,-0.024767,0.018593,-0.19981,-0.31748
0.14814,-0.11512,0.17404,0.72719,0.038985,0.030246,-0.14322,0.1939
0.2796,0.14805,-0.10234,-0.41022,-0.036208,0.046134,0.73294,0.052911
-0.90232,-1.1802,-0.42835,0.22375,-0.094487,-0.14479,-0.29023,-0.42021
0.83306,0.3675,0.16556,-0.27971,-0.010251,0.051806,-0.2123,0.21409
0.46889,0.31461,0.27442,0.55239,0.069591,0.0043358,0.4205,0.15523
-0.7206,-0.35998,-0.10805,-0.096056,-0.0090005,-0.10588,-0.61775,-0.50525
0.36825,0.63712,0.26968,-0.45426,0.0065055,0.16038,0.40774,0.57478
-1.0198,-0.98554,-0.58331,-0.15583,-0.11586,-0.16412,-0.10456,-0.73186
0.42972,0.2537,0.30244,0.36318,0.28982,0.23405,0.12626,0.51631
0.23217,0.2721,-0.15902,-0.52661,-0.21297,-0.10591,-0.11135,0.094157
-0.16294,0.21018,0.03925,-0.10185,-0.1634,-0.044045,0.40061,0.23461
0.3221,0.14963,0.40339,0.64979,0.35927,0.019796,-0.51812,0.1992
0.0099698,-0.27707,-0.24861,0.12992,-0.068838,0.13063,0.28066,-0.39295
0.56244,0.60655,0.1979,-0.074541,0.034229,-0.033768,-0.61694,-0.29054
-0.91671,-0.92232,-0.43126,0.30836,-0.1464,-0.17031,0.35984,-0.28064
0.64385,0.61814,0.1827,-0.037325,0.098425,0.13418,0.1958,0.16382
-0.3475,0.12762,-0.12462,-0.88161,-0.23206,-0.17499,-0.15589,0.25169
-0.21336,-0.64502,0.12431,0.41982,0.14385,0.098402,0.36666,0.52995
-0.30267,-0.34335,0.064535,-0.44834,-0.076939,-0.043994,-0.37065,-0.58548
0.58024,0.21459,-0.019597,0.61456,0.15491,0.1811,0.091421,0.13504
-0.5514,-0.51254,-0.085547,0.054821,-0.079724,-0.1618,0.47002,-0.42199
0.25685,0.67658,-0.012884,-0.42205,-0.012703,0.053851,-0.60289,0.41114
0.32059,0.7699,-0.049179,0.2338,0.0060753,-0.038325,0.029336,0.020425
-0.16201,-0.49162,0.048891,-0.31873,-0.10108,0.0068516,0.11864,0.13473
0.005244,0.71304,0.17152,0.57033,0.15702,0.078952,-0.39417,-0.18994
0.20302,-0.5507,-0.050439,-0.48189,0.1297,0.074638,0.12776,0.12495
-0.058531,-0.19024,0.11418,0.58542,0.11066,-0.023862,0.36021,-0.25685
0.36073,-0.25537,-0.0024918,0.10528,-0.17691,-0.078003,0.024666,0.20302
-0.41651,-0.3812,-0.25573,-0.65218,-0.24374,-0.1675,-0.35466,-0.27762
-0.54167,-0.03632,-0.19525,0.10719,-0.029151,-0.058768,0.15038,-0.012264
0.60765,0.98615,0.41966,-0.10223,0.029005,0.2796,0.23146,0.35743
-0.61093,-0.071889,-0.035842,0.60306,0.25999,0.11427,0.56335,0.025636
0.12198,-0.44177,-0.42727,-1.0243,-0.162,-0.2406,-0.42928,-0.14173
0.51663,0.59283,0.6231,0.94949,0.14098,0.076391,-0.35176,0.16644
-0.35791,-0.99288,-0.74093,-1.0572,-0.21088,-0.24533,-0.51032,-0.46531
0.16785,0.049536,0.24134,0.48288,0.011386,0.084817,-0.052284,-0.077368
0.30883,0.15445,0.50163,0.38387,0.24672,0.23949,0.3538,0.43853
0.27896,0.48026,0.0016209,0.098265,-0.028063,0.070136,0.21237,0.23005
-0.21573,0.20574,-0.18886,0.52146,-0.0091331,0.013316,0.62137,-0.046835
-0.91335,0.2413,-0.04001,-0.70271,-0.12786,-0.2841,-0.50251,-0.36836
0.74718,-0.066963,-0.26463,0.030357,0.004327,0.074554,0.21606,0.11033
-0.38881,-0.99044,0.033992,-0.11878,-0.044222,-0.03732,-0.4593,-0.48393
0.12072,0.45856,0.29216,-0.37,0.1391,0.058921,0.030084,0.51528
-0.7098,-0.30019,-0.33441,-0.16701,-0.11047,-0.0433,0.16396,-0.18641
0.91591,-0.15666,0.19339,0.11899,-0.066283,-0.0076389,0.094259,0.335
-0.31634,-0.31102,-0.18668,0.64903,0.077142,0.041896,0.14615,-0.059772
0.43296,0.74093,0.40839,0.33358,0.15695,0.09882,-0.20462,-0.1595
-0.26565,0.31585,-0.36532,-1.0204,-0.20835,-0.10112,-0.12826,0.21476
0.67859,0.79198,0.60875,0.82872,0.068298,-0.0020651,-0.70681,-0.28228
0.11214,-0.57863,-0.52966,-0.64571,0.011001,0.029522,0.94011,0.12861
-1.0956,-0.9198,-0.093945,0.79322,-0.10669,-0.13116,-0.37711,-0.2969
0.28561,0.36335,0.25916,-0.12601,0.26169,0.11706,0.15879,0.22832
-0.56616,-0.45409,-0.20449,-0.21295,-0.0018357,0.14049,0.29279,0.2339
0.38198,0.45839,0.21935,0.0066397,0.0002786,0.016028,0.32207,-0.062615
-0.38138,-0.70904,-0.28771,-1.0052,-0.35765,-0.39047,-0.607,-0.44325
0.82888,0.62372,0.081529,0.38113,0.049111,0.16198,-0.068408,0.14631
-0.23235,0.60537,0.1657,0.23518,0.16614,0.24286,0.30079,0.11235
0.50017,0.16332,-0.032762,0.15867,-0.12308,-0.17155,-0.14369,0.50228
-0.24736,-0.34795,0.089432,-0.068123,0.21358,-0.018491,-0.65409,-0.28435
-0.1973,-0.59954,-0.19352,0.87147,-0.0027622,0.0075108,0.81601,-0.058185
-0.67613,-0.31823,-0.03824,-0.49072,-0.12319,-0.13927,-0.30241,-0.48057
0.8165,1.082,0.13973,-0.048218,0.039805,0.13618,0.20396,0.17852
0.39846,-0.2957,-0.0057549,-0.0096797,-0.1002,0.022471,-0.099649,0.18856
-0.42773,-0.48618,-0.16523,-0.86621,0.073106,0.020326,-0.28922,-0.071808
-0.44547,0.049045,0.4159,0.86789,0.17578,0.036179,0.13609,-0.11547
0.43272,0.50793,-0.18722,-0.58597,-0.16831,-0.024067,0.29259,0.46496
-0.72553,0.29448,-0.1487,0.68313,0.039885,0.049774,0.3808,-0.07353
0.30622,-0.71635,-0.0088023,-0.45875,-0.09862,-0.14166,-0.62659,-0.46811
0.091203,-0.21873,-0.13469,0.074875,0.002007,0.041408,0.2895,0.68305
-0.30057,0.054021,0.21694,-0.026874,-0.056343,-0.12818,-0.44501,-0.57852
0.8231,0.14836,-0.10041,0.15205,0.10195,0.029024,0.11287,-0.13321
0.65058,0.47522,0.24365,0.26971,0.13386,0.36469,0.65041,0.83465
-0.70394,0.4029,-0.19404,-0.43039,-0.069331,-0.34743,-0.80696,-0.78751
-0.24641,-0.75886,-0.013396,0.20879,-0.061853,0.057156,-0.3804,0.16297
-0.40599,-0.64903,0.028676,-0.11691,0.078447,0.078817,0.89601,0.038141
-0.29884,0.70827,0.12766,-0.024041,-0.17172,-0.19628,-0.37892,-0.30841
0.80463,0.66311,-0.052808,0.47292,0.078415,0.17719,0.43181,0.54044
0.34791,-0.027292,0.03345,-0.57718,0.21191,0.1288,0.096415,-0.0525
-0.30822,-0.40784,-0.082967,-0.21059,-0.16926,-0.044807,-0.2281,-0.013761
-0.49545,-0.87121,-0.14453,0.57614,-0.18946,-0.19536,-0.3943,-0.20026
-0.090438,-0.024561,0.067753,-0.47913,0.16765,0.052196,0.12684,0.061406
-0.17235,0.36477,-0.070348,0.071757,-0.089413,-0.11433,0.13708,-0.26728
0.82723,0.50857,0.27039,0.14429,0.13357,0.28225,0.2115,0.53219
0.43549,0.52555,0.028618,0.61296,0.13356,-0.093266,-0.23083,0.15439
-0.45615,-0.9043,-0.2714,-0.63422,-0.20709,-0.14639,-0.48124,-0.62037
-0.73291,-0.2211,-0.035637,-0.070381,-0.045581,-0.0095161,0.52885,0.0040401
0.17825,0.24054,0.094791,0.33031,0.11671,0.059498,-0.092327,-0.0039691
0.88779,0.759,0.22017,0.2108,-0.010887,0.13028,0.57649,0.7073
-0.0098023,-0.38313,-0.036422,-0.69118,0.015381,0.060951,-0.55064,-0.47879
-0.99712,-0.57761,-0.19292,0.153,-0.0089145,-0.032984,0.25359,-0.43655
0.45325,0.94714,0.1078,0.071208,-0.061138,-0.090739,-0.32954,0.30335
-0.4253,-0.86432,-0.096973,-0.12193,-0.063327,-0.058974,-0.63344,0.15513
0.55678,0.30258,0.043438,0.22609,0.17253,0.038274,0.93888,0.34487
-0.3382,0.26643,0.15424,0.48771,-0.063376,-0.032986,0.0003542,-0.35511
0.40356,-0.37628,-0.20857,-0.94093,-0.050761,0.025489,-0.023762,0.10826
-0.61014,-0.32965,-0.042778,0.49182,-0.069156,-0.13574,-0.20897,-0.36051
0.43072,0.27532,-0.11916,-0.40613,0.11742,0.12639,-0.022592,0.22145
0.07649,-0.14451,0.12735,0.32722,-0.0054265,0.025109,-0.22251,-0.029642
0.14094,0.021859,0.15174,0.29993,0.047359,0.022942,0.29892,-0.035854
0.2638,0.69483,0.14234,-0.29627,0.033637,0.034558,0.069605,0.070553
-0.82299,-0.053363,-0.018492,0.37712,-0.10962,0.020376,0.022371,-0.013885
0.73673,0.22755,-0.07441,-0.27961,0.077566,0.080458,-0.035827,0.40006
-1.1305,-1.157,-0.19156,0.056031,-0.14815,-0.27954,-0.30598,-0.6231
0.32288,0.338,-0.0048569,-0.78443,0.07145,0.04738,0.56632,0.11409
0.90757,0.87375,0.20285,0.68861,0.047849,0.12158,-0.12551,0.36364
-1.0649,-1.0904,-0.35042,-0.33803,-0.11033,-0.10537,-0.60151,-0.74776
0.70165,0.90789,0.24963,0.10534,0.15114,0.11575,0.51458,0.64823
0.11307,-1.0245,-0.17565,0.23166,-0.16013,-0.11345,-0.58608,0.13028
0.39551,0.84916,0.39094,0.34817,0.25278,0.12188,0.79748,-0.0048901
-0.9434,-0.51148,-0.19739,0.34049,-0.086411,-0.19261,-0.36708,-0.28141
-0.15337,-0.026153,-0.032955,-0.80401,-0.19289,-0.00073863,-0.1901,-0.20038
0.20403,0.48874,-0.091382,-0.67574,0.051115,0.18327,0.21713,-0.146
0.27096,-0.40052,0.1198,0.46336,-0.017795,-0.037931,-0.10997,0.19264
0.50251,0.62026,0.34237,0.76563,0.34319,0.36759,0.76796,0.95434
-0.91187,-1.24,-0.66686,-0.57774,-0.40452,-0.51396,-0.88401,-0.98801
0.10753,0.70689,0.098386,0.092348,0.10652,0.0205,0.17358,-0.11329
0.28812,0.12826,0.034637,-0.55087,-0.022138,-0.036998,-0.055877,0.20109
0.29384,0.42842,0.42887,0.61699,0.1233,0.094596,-0.054263,0.24204
-0.12642,-0.328,0.060324,0.61667,0.15958,0.2276,0.56354,0.33611
-0.26365,0.1328,-0.22108,-0.98614,-0.18715,-0.15379,-0.34804,-0.25159
-0.096944,-0.047417,-0.26782,0.66994,-0.14376,-0.10446,-0.40212,-0.27018
-0.31654,-0.43456,-0.079777,-0.81172,-0.046215,0.0081202,0.44613,-0.20161
0.64524,0.12949,0.1646,0.49348,0.16046,0.21489,0.12624,-0.0030924
-0.088847,-0.65958,0.241,0.6918,0.039287,-0.21108,-0.42251,-0.29517
0.17499,0.75951,-0.11327,-1.0922,-0.026339,0.10485,0.35012,0.61388
-0.063698,-0.18757,-0.13726,0.026733,-0.098422,-0.072008,-0.14523,0.39118
0.18825,0.76384,0.17972,0.45975,0.26859,0.10968,-0.31792,0.17854
-1.0197,-1.0038,-0.2227,-0.82573,-0.2457,-0.10021,0.31269,-0.9
0.28519,0.13252,0.086238,0.62226,-0.071411,-0.1001,-0.16484,-0.065974
0.53,0.57333,0.1064,0.43413,0.2283,0.1335,0.21875,0.55163
-0.28777,-0.57475,-0.054184,-0.57465,-0.1442,-0.01649,-0.085301,-0.31708
0.32865,0.72694,0.15693,0.5334,0.1385,0.10629,0.5049,0.37886
-0.33654,-0.16764,0.057299,0.43505,0.060361,-0.021487,-0.36769,-0.17548
-0.2124,-0.88511,-0.43392,-1.0309,-0.29271,-0.13408,-0.021345,-0.30111
0.89455,0.95338,0.22798,0.17652,0.064153,0.018741,-0.0076984,0.10464
-0.10574,0.030787,-0.044182,-0.17455,0.061558,0.054502,-0.4153,0.01314
-0.94549,-0.80467,-0.078737,0.3494,0.052294,0.059615,0.4436,0.13883
0.20494,-0.14752,0.039131,-0.28494,-0.14208,-0.28569,-0.5372,-0.56946
0.4021,0.9815,0.099876,-0.10121,0.15911,0.31597,0.40573,0.641
0.16474,-0.5752,0.003554,0.54238,-0.012461,-0.13508,0.099706,0.45121
-0.10363,0.30181,-0.076515,-0.36015,-0.12583,-0.0059831,-0.034035,-0.4439
-0.4738,-0.10097,0.15752,0.10715,0.11482,0.11698,0.27622,-0.4446
0.095152,-0.22925,0.026329,0.31299,-0.010914,-0.15748,-0.33269,0.56357
0.09925,-0.035389,-0.20468,0.086557,0.080863,0.20876,-0.14067,-0.29728
0.30148,0.48153,0.01071,-0.66508,-0.057175,-0.12124,0.11635,0.24396
-0.22215,-0.24086,0.07786,0.57462,0.010877,-0.02334,-0.19874,-0.57179
-0.067867,-0.12594,-0.15259,-1.0055,-0.20018,-0.068385,0.20445,0.13042
-0.020456,0.42421,0.13889,0.9402,0.13793,0.10294,0.53679,0.21099
0.16495,-0.82317,-0.017014,-0.33601,0.018518,-0.024531,-0.49102,0.031012
0.59079,0.59973,0.25443,0.45715,-0.017439,0.073492,0.20778,0.51432
-0.99379,-0.068262,-0.21076,-0.60838,-0.084835,-0.18781,-0.30892,-0.56385
0.33859,-0.012207,-0.23254,-0.0086689,0.013856,0.059886,0.066989,0.086984
-0.26703,-0.082609,0.10383,0.31775,0.077169,0.036191,-0.021338,-0.23532
0.052543,0.3773,0.03352,-0.23334,-0.03477,-0.0084802,-0.19283,0.032332
0.20711,-0.55347,0.072935,0.4746,0.18554,0.14445,0.076786,0.015195
0.5676,0.83823,0.20706,0.39769,0.057147,0.017666,0.14099,0.74451
-0.33031,-0.88865,-0.22782,-0.75777,-0.18747,-0.10091,0.086901,-0.46747
-0.27794,-0.34459,-0.028549,0.18454,-0.089412,-0.15787,-0.52427,-0.36331
-0.25252,0.6124,-0.070271,-0.76105,0.013729,0.15031,0.59149,-0.10761
0.52051,0.43105,0.21709,0.20358,-0.089893,-0.12244,0.27632,0.36139
-0.62795,-0.62602,-0.026036,1.0117,0.16226,0.078323,-0.092664,0.073935
0.25908,0.38403,-0.17472,-1.0113,0.060193,0.10446,-0.24288,-0.080769
0.13112,-0.18204,-0.010131,0.41367,-0.097638,-0.08235,0.0032281,0.020451
0.41362,-0.16355,0.038214,0.39341,0.0031473,0.011122,-0.012056,-0.038554
-0.39895,0.48184,0.15018,-0.24029,-0.041946,-0.043665,-0.17843,0.35739
0.18604,-0.040809,0.013311,-0.14191,0.073028,0.0043399,-0.085215,-0.20729
-0.52809,-0.83252,-0.19285,0.094463,-0.073317,-0.094099,-0.23974,-0.28784
-0.059913,0.11375,0.10162,-0.49437,0.034232,0.10667,0.041518,-0.19611
0.91482,0.70233,0.013273,0.60339,0.25381,0.15335,0.5069,0.23383
-0.23284,-0.069472,-0.13049,-0.42182,-0.20549,-0.040573,0.6557,0.075059
0.26746,0.6469,0.23991,0.59654,-0.0097513,-0.10101,-0.40368,0.26825
-0.68717,-0.86217,-0.047987,-0.22171,-0.0045073,-0.0054557,-0.7125,-0.15239
-0.41608,-0.52808,-0.12729,-0.36532,-0.11278,-0.074978,-0.07161,-0.15335
0.1153,0.52383,-0.076018,0.029906,0.071429,0.072875,0.45056,-0.061526
0.44329,-0.26794,0.13759,0.27533,0.0097185,-0.046168,-0.13828,0.18569
0.34711,0.45005,-0.016822,0.004754,0.031648,0.13873,0.53496,0.17336
-0.51964,-0.17966,0.00088665,-0.11459,-0.095275,-0.1685,-0.38458,-0.29541
0.36985,0.031406,-0.034724,0.59431,0.10745,0.11116,0.091104,0.2619
-0.40546,-0.33154,0.049165,-1.0024,-0.014788,-0.068444,-0.40174,-0.34389
0.36349,0.47089,-0.02027,0.28234,0.10934,0.043123,0.25791,-0.012472
0.23502,-0.065969,-0.039728,-0.059585,-0.11363,0.063049,0.059198,0.036835
-0.18711,0.80994,0.13115,0.32161,-0.059133,-0.063781,-0.21069,0.53844
-0.31502,-0.71166,0.015157,-0.22673,0.1546,0.068115,0.1664,-0.43688
-0.32552,-0.50973,-0.20891,-0.13403,-0.16132,-0.11253,-0.027747,-0.40413
0.46578,-0.14014,-0.010789,0.15088,0.015008,-0.0050994,0.33339,0.54333
0.26901,0.6182,0.17895,0.80853,0.096263,0.038093,-0.49796,-0.047681
-0.21907,0.10679,0.13305,-0.20175,0.011033,0.11818,0.44965,-0.029457
-0.43273,-0.94768,-0.34421,-0.6871,-0.18667,-0.20237,-0.39897,-0.083057
0.069727,0.52596,0.075186,-0.1333,0.10452,0.10805,-0.072228,0.26628
0.1362,-0.042752,0.11793,0.49235,0.13484,-0.035838,0.20573,-0.25671
0.34803,0.49193,-0.19222,-0.18746,-0.11851,-0.0081907,0.045888,0.16691
0.50374,0.54564,0.32477,0.055931,0.087573,0.12154,0.019071,-0.057049
-0.75617,-0.5712,-0.15109,-0.56045,-0.23805,-0.16936,-0.13335,-0.42782
-0.073981,-0.309,0.05224,0.034588,0.18691,0.072667,-0.14784,0.4004
0.26641,-0.073048,-0.26051,0.53808,-0.027299,-0.0038781,0.44125,-0.10838
-0.78479,-0.63615,0.14493,0.34907,-0.075475,-0.024301,0.2085,-0.028703
1.0745,1.0345,0.033951,-0.40957,0.081523,0.20609,-0.30257,0.31485
-0.33736,-0.081304,0.12502,0.3033,0.052668,-0.18852,-0.33656,-0.16867
-0.45888,-0.48576,-0.13685,-0.29522,-0.030031,-0.0058293,0.15242,-0.1964
0.85822,0.87584,0.045024,-0.17858,0.019905,0.019145,-0.16307,0.29425
-0.86202,-0.36149,0.045646,0.63894,0.013989,-0.074899,0.0080598,-0.3389
0.14722,-0.79535,-0.20501,-0.47445,-0.079713,0.047966,0.051474,0.033967
0.87183,0.56374,0.14519,-0.047914,0.0042382,0.059919,0.22781,0.36181
-1.0225,-0.04439,-0.098231,-0.28832,-0.11658,-0.022887,0.05484,-0.17256
0.43478,-0.028882,0.057844,0.060821,0.058724,-0.035761,0.17421,0.12163
0.37013,0.38722,0.14552,0.28164,0.11723,0.17816,0.17963,0.16273
-1.0118,-0.91173,-0.2721,-0.22501,-0.11967,-0.24782,-0.58585,-0.55889
0.49335,0.7846,0.31304,0.78615,0.17691,0.069464,-0.13086,0.074362
0.35547,0.66913,-0.18517,-0.5569,-0.14913,0.005135,0.083287,0.15111
-0.27614,-0.9881,-0.032893,-0.33776,0.018911,-0.042425,-0.17748,-0.24589
0.55226,0.80181,0.20659,1.0076,0.21124,0.19999,0.44712,0.39691
-0.39336,-0.5492,-0.22542,-0.84041,-0.18285,-0.025766,0.11443,0.069721
-0.9333,-1.1743,-0.032855,-0.068823,-0.031866,-0.19662,-0.48719,-0.54302
0.33822,0.43586,0.18205,0.40856,0.077288,0.077779,0.44717,0.19428
0.46682,0.83834,-0.057714,-0.47822,-0.15263,-0.015224,-0.0050059,0.25834
0.051844,-0.63646,-0.11174,0.20097,0.028686,-0.061561,-0.02482,0.13878
0.85573,0.87945,0.1293,0.32929,0.12215,0.142,-0.24703,0.072842
-0.86747,0.40804,0.0014619,-0.28067,-0.14439,-0.08411,-0.26751,-0.62557
-0.18384,-0.7496,-0.026328,0.12853,0.066337,0.025804,0.2556,0.48213
0.27134,0.30784,-0.0084963,-0.045626,0.11479,0.081065,0.43807,-0.35204
-0.46346,-1.0026,-0.038482,0.0079767,-0.029673,-0.0044175,-0.056748,0.3291
-0.019435,0.11253,-0.045593,-0.39982,-0.093561,-0.13709,-0.41629,-0.20984
0.51325,0.9807,0.27532,0.95593,0.1883,0.081324,0.016543,0.10343
