0.017198,-0.14479,0.26699,0.0078477,0.026288,0.021035,-0.48365,-0.21752
-0.10347,-0.2136,-0.26133,-0.035208,-0.043738,-0.038553,0.42617,0.16176
0.27321,0.045575,-0.035317,-0.010613,0.025446,0.025915,-0.19126,-0.10765
-0.21409,-0.0016759,-0.07043,0.018565,0.046363,0.26105,0.41166,0.65132
-0.019794,0.041256,0.048222,-0.033602,-0.066608,-0.30186,-0.63535,-0.89938
-0.38656,-0.087033,0.15805,-0.041483,-0.062894,-0.13905,0.47695,0.44237
0.26402,0.34895,-0.19994,0.066414,0.081686,0.34384,0.20678,-0.14313
0.018688,-0.020724,-0.031497,-0.044318,0.0007002,-0.12586,-0.38498,0.0026666
0.13618,0.1255,0.14956,0.026362,-0.016182,-0.10992,0.014165,-0.22595
0.64075,0.20795,0.14132,0.037643,-0.0077212,0.087477,-0.36754,0.15972
-0.67015,-0.35411,-0.12622,-0.025223,0.0025441,-0.1508,-0.26134,-0.07857
-0.053878,-0.085555,-0.075614,-0.029229,0.045355,0.25291,0.67266,-0.19617
-0.21306,0.11703,-0.13823,0.0016446,0.041759,0.055423,0.70405,0.90862
-0.014118,-0.11464,0.11318,0.058386,-0.0092057,-0.057088,-0.89051,-0.58715
0.18459,-0.52616,0.16009,0.029983,-0.07715,-0.039117,0.14101,0.12388
0.22026,0.64179,0.0074114,-0.069686,-0.053224,-0.32138,-0.052267,0.05838
0.11767,-0.52007,-0.034747,0.15633,0.10943,0.53329,0.59947,0.35769
0.12821,0.26727,0.30572,-0.089723,-0.033945,-0.3574,-0.60829,-0.61686
-0.60601,-0.36752,-0.54136,-0.1829,-0.044821,0.10952,-0.37289,0.19383
-0.075525,0.52012,-0.050789,0.018237,-1.6733e-05,-0.079514,-0.13436,-0.86658
0.78401,0.77507,-0.0084708,-0.023921,-0.038887,-0.22695,0.35422,0.6113
-0.83804,-0.42028,0.21458,0.075155,0.034785,0.39568,0.40174,-0.015308
0.26304,0.072227,-0.17458,0.035688,0.11969,-0.046558,0.76974,0.60424
-0.22449,-0.64338,-0.079279,0.03814,-0.10504,-0.10083,-0.84265,-0.61709
0.70664,0.2009,0.47045,0.13701,0.078014,-0.24537,-0.64946,0.41986
-0.28957,-0.12427,0.012908,-0.082893,0.081037,0.80603,0.86381,0.046548
-0.17034,0.17996,0.47539,0.095376,-0.082386,-0.52033,-0.57455,-0.47796
0.082074,-0.30066,-0.58285,-0.15045,0.0078823,0.41298,0.92325,0.78338
-0.031219,-0.084317,-0.11791,-0.048528,-0.055427,-0.16953,-0.89258,-0.71772
0.2329,0.049162,-0.06127,-0.11525,-0.14736,-0.97911,-0.59022,0.10302
-0.21758,0.19681,-0.54591,-0.13945,-0.056049,0.32181,0.4655,-0.38072
0.23023,-0.12298,-0.039365,0.32531,0.20456,0.54905,0.23594,0.3458
-0.55039,0.46499,0.33502,0.069799,-0.066674,-0.30109,-0.23562,-0.3118
0.13711,0.44919,0.31259,-0.13071,0.1477,0.36134,0.91679,0.60656
0.28924,-0.23294,0.53327,0.10034,0.075513,0.17992,0.092368,0.099349
0.084819,-0.4678,0.61163,-0.13449,-0.1421,-0.59404,-0.50197,-0.26552
-0.10014,-0.31592,-0.62817,0.14954,0.04154,0.54685,0.31458,0.46191
-0.021578,-0.28393,-0.85421,-0.055599,-0.093001,-0.68051,-0.64415,-0.62024
-0.47485,0.52042,-0.20972,0.015166,0.062821,0.52586,0.08715,-0.28075
0.37591,0.31091,0.45358,-0.037273,-0.022898,-0.15721,-0.59911,0.32183
-0.37056,-0.22843,-0.62739,-0.18224,-0.084801,0.025747,0.94563,-0.25117
0.78716,0.017586,0.20034,0.0017845,-0.0055143,0.26867,-0.51493,0.42994
-0.12222,-0.1393,0.92641,0.26462,0.051424,-0.69433,-0.25202,-0.11827
0.12165,0.10588,-0.09307,-0.11255,0.071025,0.16872,0.19926,0.39496
-0.6543,0.21525,0.41032,0.08891,-0.047802,0.1012,0.13891,-0.17654
0.35982,-0.090481,-0.33615,-0.0062514,0.015318,-0.15366,0.66085,-0.15816
-0.072831,0.097667,-0.52884,-0.046862,0.072408,0.4903,0.25335,-0.10148
-0.29681,-0.44348,-0.48225,-0.12717,-0.11191,0.13372,-0.71666,-0.66724
0.21331,-0.12417,0.12181,-0.036753,0.023501,-0.25671,0.46635,0.50709
0.38496,0.30165,0.50828,0.30209,0.18029,0.32416,-0.31146,0.32243
0.039928,0.18885,0.61385,-0.12653,-0.18184,-0.72775,-0.88994,0.28018
-0.44967,0.086444,-0.3896,-0.0023484,-0.01678,0.062659,0.096077,-0.018082
-0.43565,-0.47386,-0.0091219,-0.12983,-0.082406,0.00027706,0.3655,-0.44079
0.22378,0.01425,-0.65751,0.13989,0.14535,0.76689,0.19357,0.25216
0.10006,0.21927,-0.0051709,-0.1223,-0.13699,-0.71185,-0.15182,-0.49636
0.48183,0.60518,0.30069,0.06076,0.064227,-0.14209,0.99476,0.18639
0.42851,-0.53645,0.27619,-0.029207,0.10981,0.52016,-0.68753,-0.3812
-1.0037,0.0083682,0.022231,-0.032628,-0.10073,-0.65074,-0.42028,0.54151
0.55851,-0.060378,0.16196,0.25351,0.081563,0.58184,0.16665,0.22662
-0.36544,-0.25893,-0.46362,-0.12428,0.00035723,0.39754,0.70793,0.20413
0.21905,0.46186,0.3926,0.044453,0.014469,-0.72175,-0.62264,-0.28493
-0.0061911,-0.088458,0.16593,-0.029698,-0.0019051,0.35229,0.20168,-0.44448
-0.4055,-0.73923,-0.38639,-0.21394,-0.16673,-0.11253,-0.64154,-0.1653
0.017408,0.094584,-0.5911,0.10153,0.12107,0.1281,0.68452,0.59235
0.30713,0.46554,0.37534,-0.1059,-0.12298,-0.3992,-0.71464,-0.19337
-0.037319,0.3377,-0.38907,0.071014,0.031134,0.21696,0.94085,-0.23886
0.10119,0.2734,0.40876,0.20351,0.15431,0.26538,-0.59106,0.5213
0.37948,0.089668,0.67756,-0.059437,-0.13559,-0.80647,0.15888,0.19184
-0.38121,-0.57051,-0.24685,0.032142,0.12292,0.63834,0.057473,-0.075658
-0.59375,0.028964,0.1404,-0.053595,-0.038657,-0.074638,-0.24128,-1.0127
0.46978,-0.47646,-0.3613,-0.075492,0.02022,0.18496,0.77343,0.078048
0.27963,-0.16811,0.085253,0.0199,-0.083671,-0.46895,-0.76548,0.3539
0.024778,0.38273,0.067428,-0.018622,0.016212,0.18537,0.32677,0.7594
-0.82473,-0.18259,-0.61503,-0.059213,-0.055879,0.31298,-0.53321,-0.58322
0.37267,0.32481,-0.52732,0.022516,0.097765,0.21768,0.19429,0.22751
0.47681,0.41357,0.90842,0.24198,0.023424,-0.33736,0.14932,0.0056696
-0.043604,-0.11212,0.35815,-0.15846,-0.021461,-0.36332,0.47163,-0.23986
-0.07173,-0.12135,0.30982,0.056103,0.0099011,0.089365,-0.24522,0.16452
0.0092161,0.38313,-0.16939,-0.1057,-0.04633,0.025292,0.30503,0.034807
-0.65242,-0.51528,-0.77705,-0.095992,-0.064656,0.13722,-0.73262,-0.66979
0.15476,-0.69269,0.35237,0.086304,-0.020958,-0.084483,-0.076927,0.028439
0.45532,0.53178,-0.54024,0.1062,0.14017,0.49968,0.36943,0.75828
0.26648,-0.041192,0.51238,-0.082517,-0.072848,-0.59526,-0.74635,-0.044836
-0.59738,0.47723,-0.1094,0.082884,0.12157,0.27904,0.74046,-0.20226
0.099908,0.039675,-0.21464,-0.038467,-0.026539,0.091684,0.50279,-0.01181
0.055121,-0.99493,0.74428,-0.048813,-0.079946,-0.40646,-0.36564,0.095124
0.12073,0.43418,-0.031942,0.050878,-0.031312,-0.018756,-0.35934,-0.25958
6.9484e-05,0.2916,-0.60351,-0.021706,0.0016228,0.52998,0.14137,0.24718
-0.24484,0.42942,0.0060383,0.0059307,0.065225,-0.14887,-0.012671,-0.64185
0.47862,-0.17079,0.49842,0.039405,-0.0049409,-0.33449,0.057705,0.57936
-0.49528,-0.59283,-0.21359,-0.093367,-0.037181,0.037528,0.42473,0.2194
0.18299,0.1479,0.10455,-0.0093254,0.015404,0.17183,-0.70781,-0.28202
-0.051317,0.34779,-0.20054,0.034347,0.020217,0.19441,0.066842,0.46716
0.05722,-0.24308,-0.34923,0.0072597,-0.0067467,-0.019405,0.44556,-0.10946
-0.42351,-0.021478,0.32442,0.035297,0.0052924,-0.29024,0.11947,-0.55557
0.69943,-0.14749,0.043999,0.0097913,-0.029109,-0.095578,-0.45965,0.1656
-0.25578,-0.044276,0.06622,-0.029828,-0.015757,0.039782,0.046054,-0.42207
0.21704,0.38299,-0.45327,-0.083612,-0.032464,0.14541,-0.16307,0.16083
-0.054699,-0.2689,0.27305,0.12923,0.084954,0.19608,-0.0013124,0.41869
-0.32044,0.19968,0.18684,-0.0014367,0.031702,0.080769,0.51693,0.067127
0.35157,0.16878,0.14104,0.039109,0.018404,0.024878,-0.57575,-0.33549
-0.59774,-0.32514,0.3843,-0.14058,-0.11165,-0.67513,0.17383,0.43137
0.015643,-0.058279,-0.74311,0.060511,0.055106,0.44224,0.67727,-0.11723
0.20383,0.15364,0.28566,-0.029621,-0.020822,-0.31692,-0.6103,0.09419
0.016948,-0.24003,-0.18183,-0.066885,-0.074095,0.018112,-0.19058,-0.31341
0.33908,0.66242,-0.22622,0.14478,0.082676,0.40242,0.49363,0.15554
0.10654,-0.26156,-0.035366,-0.049869,0.019846,-0.11581,-0.40189,-0.43243
-0.22317,-0.39337,0.24413,0.0064663,-0.0046278,0.018378,-0.19225,-0.189
0.22789,-0.037573,0.21735,-0.036898,-0.021819,0.093041,0.40807,0.87776
-0.068592,-0.10966,-0.22858,-0.046627,-0.00032208,-0.081372,0.19277,0.22293
-0.41296,0.12922,0.30889,0.063267,-0.065033,-0.22624,0.050995,-0.24316
0.27212,0.30653,-0.60463,0.11266,0.12003,0.46059,0.21872,-0.58503
-0.74535,0.40727,0.18077,-0.039913,0.023647,-0.23364,-0.6031,0.16505
0.52429,-0.15497,0.75859,-0.036101,-0.088522,-0.48921,-0.80275,-0.75961
0.23657,0.072575,-0.59169,0.013731,0.049271,0.48372,0.4779,0.69325
-0.50764,-0.56509,0.59599,-0.12549,-0.10962,-0.33633,0.2643,0.10447
0.28928,-0.087167,-0.94685,0.022549,0.0211,0.31901,-0.017997,0.35592
0.44193,-0.11054,0.035223,0.020609,0.027762,-0.016186,0.78314,0.31783
-0.31731,-0.037126,0.095412,0.056863,0.090433,0.26982,0.17785,0.083883
0.43521,0.6251,0.48311,-0.0083969,-0.071892,-0.42309,-0.94315,-0.78501
-0.31741,0.11235,-0.37213,-0.017979,-0.0060424,-0.0086108,0.073938,-0.25086
-0.54651,-0.57318,0.052926,0.091377,0.061229,0.28602,-0.16652,0.20341
0.79296,0.26471,0.24957,-0.10176,-0.065784,-0.11093,-0.36732,-0.26848
-0.21999,-0.45391,-0.40911,-0.011414,0.018636,-0.068432,0.35216,0.4368
-0.07253,0.48435,0.011442,0.096481,0.048285,0.15394,0.26838,0.37169
-0.52054,0.49216,0.42179,-0.099019,-0.063311,-0.24209,0.28803,-0.84642
-0.081224,-0.59158,0.54525,0.057523,-0.043142,-0.069904,0.16723,0.36156
0.12182,0.085203,-0.59659,-0.051965,-0.00087664,0.099877,-0.38601,-0.23112
0.45816,-0.0015084,0.03595,0.040439,0.078947,0.10326,0.070806,0.607
-0.063207,-0.12525,-0.26424,-0.033126,-0.0068641,0.049886,-0.29156,-0.037012
0.65752,0.37976,-0.3261,0.039391,0.030758,-0.091265,-0.096217,-0.24412
-0.55729,-0.31797,-0.65603,-0.0078102,-0.011244,0.18774,0.20166,0.10444
-0.18615,-0.83599,0.51341,-0.018366,-0.054588,-0.14433,-0.099132,-0.17934
-0.14822,0.9764,0.65099,0.094048,0.049437,0.029769,-0.19648,0.40377
0.51852,-0.27523,0.37008,-0.15432,-0.089384,-0.14908,0.2217,-0.30951
-0.075388,0.21838,0.55264,0.0029293,0.029493,-0.024054,0.061963,0.098809
-0.091099,0.25816,-0.2132,0.090075,0.0395,0.12446,0.47233,-0.33979
-0.25725,-0.36415,-0.70983,-0.040542,-0.027494,-0.13998,-0.54146,-0.40216
-0.15861,0.24319,-0.73651,0.017949,0.024351,0.089912,-0.10865,0.37265
-0.25208,0.10327,-0.20103,0.086246,0.086022,0.31494,0.85047,0.65838
0.2727,-0.55857,0.45994,-0.030831,-0.068895,-0.10511,-0.33583,-0.51189
0.2731,0.068643,0.36739,-0.052138,-0.081099,-0.38901,-0.69148,-0.13828
0.3081,0.022705,0.12161,-0.1186,0.025682,0.33779,0.53308,0.50223
-0.12842,-0.36115,0.30163,0.027131,-0.030284,-0.33955,-0.49811,-0.012243
0.29037,1.0108,-0.09011,0.079783,0.062849,0.093554,-0.24572,-0.24842
-0.25962,-0.28284,-0.1048,0.10115,0.069934,0.31559,0.38397,-0.19842
-0.14297,0.18105,-0.3474,-0.065768,-0.041096,-0.18254,0.20249,0.14349
-0.11495,-0.43188,0.39036,0.039223,0.018081,0.08233,0.42606,0.41536
-0.85169,-0.24457,-0.93275,-0.053186,-0.034306,0.038995,0.48819,-0.2513
0.51151,-0.0048422,0.0012961,-0.061997,-0.049995,-0.094171,-0.54578,0.05122
0.48963,-0.20304,0.44706,0.020766,0.010326,-0.082469,-0.77435,-0.65621
0.32578,0.82578,0.92289,0.047269,0.030126,-0.042035,0.11938,0.26085
-0.0014442,-0.12219,-0.21937,-0.036222,-0.052149,-0.17439,-0.37361,-0.035982
0.081068,-0.11205,-0.27885,-0.02546,0.022355,0.35819,0.94331,0.60987
-0.97027,0.0080823,-0.40043,-0.020964,0.020162,-0.17714,-0.35623,-0.003195
-0.01907,-0.19708,0.01219,0.01704,-0.019121,0.15798,0.52131,-0.57716
0.07097,-0.084947,0.21168,0.088736,0.076427,0.066545,-0.78679,-0.21442
0.31057,0.4411,-0.25133,0.029647,-0.0061638,-0.10092,0.33225,0.44046
0.48271,-0.043731,0.49586,0.05758,0.044721,0.29447,0.20817,0.1375
0.15778,-0.38322,-0.43771,-0.11778,-0.10013,-0.5227,-0.43308,-0.20525
-0.54869,0.1916,0.11348,-0.067979,-0.027674,-0.038526,0.10114,0.4052
0.055451,-0.35172,0.0038162,0.049803,0.042618,0.18346,0.47068,0.33499
-0.59641,0.49601,0.16645,-0.022603,-0.045741,0.19002,0.10824,-0.69043
0.4054,-0.17667,-0.13739,0.0041611,0.020034,-0.14305,-0.45127,-0.13134
0.1818,-0.21127,-0.12375,-0.017464,-0.0015099,0.021756,0.25075,-0.37439
0.11236,0.11092,0.060396,-0.008099,0.031268,-0.040071,-0.94155,0.19783
0.18732,-0.29212,0.21971,0.088278,0.0022488,-0.06077,0.73314,0.87867
-0.42183,0.40654,-0.10039,-0.055343,-0.032976,-0.0072329,-0.2424,-0.90257
0.47388,0.35655,0.20693,0.022624,0.0042831,-0.026663,0.21012,0.47263
-0.49735,-0.2738,-0.13481,0.064427,0.08291,0.47507,0.58334,-0.36153
-0.64342,0.30562,-0.25342,-0.047637,-0.047383,-0.53381,-1.1548,0.040107
0.24397,-0.014128,-0.041534,-0.009836,0.019041,0.3907,0.57807,0.51058
0.73201,-0.41798,0.30483,0.028233,-0.031096,-0.27664,-0.25667,-0.089206
-0.0043109,0.18736,-0.33864,-0.059545,-0.026684,0.024733,0.39184,0.0045622
0.25455,-0.42637,0.32681,-0.01621,0.00042875,-0.050602,0.32044,0.060785
-0.41499,-0.19911,-0.21961,-0.03753,-0.0047912,0.14463,-0.3099,-0.39552
-0.12606,0.18529,0.1187,0.040527,0.012261,-0.046349,-0.074033,-0.23832
-0.039788,-0.13286,0.039567,0.062026,-0.010793,-0.15467,-0.35878,-0.0052506
0.073447,0.15157,0.044696,0.011884,0.020016,0.015592,0.42032,0.32177
-0.0008678,0.13814,-0.0918,-0.031164,0.0033406,0.2544,-0.33559,-0.12848
0.25913,0.82761,0.16092,0.011567,0.064318,0.054969,0.43607,0.53978
-0.19266,0.011232,-0.29228,-0.070431,-0.031389,-0.10517,0.147,0.2706
-0.22052,-0.36982,-0.031585,0.012162,-0.033806,-0.23299,-0.75522,-0.66242
-0.10129,-0.24643,0.22958,0.079754,0.01799,0.12531,0.023878,-0.18736
-0.13488,-0.599,-0.019184,0.030747,-0.039992,0.048304,0.068687,-0.28563
0.25297,0.052837,-0.014603,-0.10372,-0.027863,-0.22166,-0.31932,0.1483
0.47055,0.41797,0.10082,-0.019073,0.031268,0.2371,0.69629,0.36875
0.32205,0.23204,-0.34594,0.034605,0.012799,-0.0056847,0.086755,0.44994
-0.40646,-0.14035,0.098002,0.065122,0.07336,0.40838,0.69971,-0.1287
-0.34473,-0.28393,0.2303,-0.083709,-0.083653,-0.69377,-0.77119,-0.6158
-0.037103,0.1651,0.1543,0.041346,0.0027896,0.20225,0.36427,-0.05837
-0.15216,0.37745,-0.26796,-0.028357,0.012261,-0.068689,-0.68081,0.17503
0.47936,-0.31094,-0.017576,0.0041236,-0.0086706,0.039623,0.19194,0.47295
0.13087,-0.22824,-0.24723,0.029394,0.080179,0.44887,0.093564,0.067681
-0.21057,0.30412,0.030699,-0.0073511,-0.05762,-0.37968,-0.6558,-0.35467
-0.55564,-0.17006,0.35766,0.057743,-0.016262,-0.093614,-0.17555,-0.083215
-0.093371,-0.015848,-0.31233,-0.11153,-0.03825,-0.035455,0.41906,-0.061663
0.86231,0.031557,0.32452,0.031434,0.024716,0.19469,0.92078,-0.083688
-0.17568,0.3591,-0.0079532,0.025453,0.032061,-0.042387,-0.26141,0.05018
0.21724,-0.21894,0.42835,0.03443,-0.00040112,-0.026828,-0.29992,-0.14817
-0.65463,-0.061678,-0.69159,-0.10577,-0.048968,-0.0862,-0.31706,0.089624
0.30671,0.026162,0.17471,0.065787,0.035059,0.17781,0.4193,0.15452
0.048148,0.029807,-0.36658,-0.036764,0.0018707,-0.08714,-0.31596,0.4032
-0.10218,-0.23535,0.042384,0.024154,0.02344,0.15674,0.8745,0.048882
0.55862,0.22862,0.33938,0.084559,0.02946,0.033048,-0.018598,0.15445
-0.33555,-0.014604,-0.1223,-0.074225,-0.050421,-0.28751,-1.073,-0.74872
-0.21843,0.062678,0.12875,-0.030238,-0.059976,0.038253,0.098248,0.16914
-0.16081,-0.24372,0.18922,0.10728,0.10241,0.08094,-0.035219,-0.040387
0.012574,-0.12096,-0.32877,-0.16928,-0.09436,-0.11146,-0.053809,-0.50935
0.089619,0.10327,0.27238,0.10132,0.045275,0.09557,0.30917,0.67297
-0.16322,0.20147,-0.34935,-0.025906,0.005985,-0.014815,0.43902,-0.45507
-0.096421,-0.072017,0.033826,0.0040847,0.0067811,-0.019169,-0.4517,0.12235
0.52391,0.033796,0.31337,0.035296,-0.014684,-0.033893,0.065432,0.44349
0.22558,0.40704,-0.29924,-0.088413,-0.050618,-0.012427,-0.12452,-0.22945
-0.1157,-0.28585,0.016564,0.093814,0.078444,0.30157,0.33516,0.20586
0.22382,-0.1693,0.19041,0.027018,0.028348,0.085404,0.35139,0.29344
-0.49558,0.1397,-0.18438,-0.031396,0.0095149,-0.28876,-0.46914,-0.21462
-0.31166,0.11128,0.18038,-0.0037624,-0.048892,0.028033,-0.17746,-0.2316
-0.058754,-0.64152,-0.091694,-0.054555,-0.069168,-0.30197,0.12116,-0.42825
0.40682,0.18483,-0.15091,-0.019997,0.010964,0.13468,-0.34022,0.073403
0.32455,0.24833,0.039532,0.021662,0.043069,0.17464,0.62044,0.30257
-0.63427,-0.032844,0.28187,0.046999,0.027355,-0.10998,-0.27921,0.31495
0.16435,0.065495,-0.19186,0.0092335,0.0032136,0.15821,-0.53601,-0.53429
0.19137,0.01775,0.21803,-0.021216,-0.083695,-0.19017,0.61454,0.017941
-0.35538,0.094383,0.010559,-0.036483,0.024712,0.026598,-0.084266,0.25084
0.4715,-0.10758,-0.27497,0.041539,0.039489,0.21597,-0.17733,-0.27581
0.040484,-0.08679,-0.043277,0.064325,0.093399,-0.012437,0.46953,0.58213
-0.27309,0.023328,-0.33077,-0.12448,-0.087185,-0.1124,0.098214,0.068283
0.27264,-0.13888,0.28766,0.10786,-0.010319,-0.085206,-0.61432,-0.5914
-0.080704,0.1341,0.20569,-0.082382,-0.027762,0.036353,0.060902,0.2649
-0.13027,0.51019,0.1051,0.00026965,-0.0067634,0.024278,0.15489,0.1809
-0.26631,-0.38155,-0.10726,-0.026722,0.0059198,-0.028714,0.094794,-0.64361
-0.21441,-0.30966,0.11444,0.016695,-0.0050521,-0.021525,-0.24094,0.1087
0.15176,0.10704,0.049025,0.11527,0.07009,0.1241,0.34525,0.052695
0.77072,-0.12384,-0.072227,0.0037226,-0.010426,0.041615,-0.4027,0.25704
-0.1855,0.20966,-0.46324,-0.12243,-0.027492,-0.31489,0.17353,0.2988
-0.26496,0.15622,0.20982,-0.020896,-0.01994,0.20409,0.13955,-0.12728
-0.33737,-0.11815,-0.030332,0.027003,0.0044897,-0.12708,0.062807,-0.16965
0.50776,-0.24476,0.27019,0.052311,0.037885,0.27815,0.42719,0.047336
-0.20221,0.23019,-0.2537,-0.054686,-0.068447,-0.15819,-0.85889,-0.48265
0.24801,-0.0295,0.0572,0.08058,0.091371,0.29804,0.178,0.65674
-0.026502,0.57677,0.33903,0.051408,-0.029982,-0.37717,-0.22923,-0.58632
-0.35394,-0.3272,-0.20973,-0.064453,-0.034519,-0.12979,-0.55033,-0.0292
0.3696,-0.25786,-0.19589,-0.05627,0.03049,0.3364,0.61867,0.71334
-0.75751,-0.44165,0.022861,-0.064642,-0.046188,-0.3151,0.62426,-0.24022
0.31011,0.49765,0.32209,0.02786,0.047783,0.16524,0.34812,0.063003
-0.084631,-0.18779,-0.43947,0.018483,-0.023567,0.1754,-0.19138,-0.26171
0.68184,-0.26889,0.24413,0.079469,0.01327,-0.16017,-0.67419,-0.20992
-0.03421,0.72513,-0.020688,-0.0077096,-0.02906,-0.060854,0.17943,0.1046
-0.097656,-0.52514,-0.22994,-0.032115,-0.0019422,0.18363,-0.31868,0.38808
-0.51658,0.7296,0.72932,0.13104,0.040126,-0.18504,0.27886,-0.22304
0.39402,-0.16898,-0.52983,-0.10452,0.081719,0.34085,0.30622,0.62001
-0.19805,-0.14565,0.12992,-0.075019,-0.095677,-0.37106,-0.88259,-0.5285
0.14774,-0.039144,-0.25426,-0.030593,-0.023009,0.063232,0.46076,0.013657
0.3251,-0.47628,0.091007,0.067976,0.011061,0.028438,-0.36619,-0.35716
-0.75597,-0.16048,0.10519,0.025808,-0.032034,-0.18398,0.69248,-0.37473
0.128,0.33911,-0.19231,-0.00020554,0.04356,0.17071,-0.15995,0.43963
-0.14225,0.11056,0.20355,-0.0015347,-0.0038435,0.14941,0.26956,0.087767
0.69762,-0.1643,-0.076676,-0.024413,0.029234,-0.098018,0.31168,0.45221
-0.048446,0.56276,0.019037,0.02533,-0.036787,-0.14158,-0.76044,-0.31482
-0.16994,-0.044172,0.080548,-0.024093,0.024459,0.16619,0.43353,0.2155
-0.2607,-0.16607,-0.17922,0.0067046,-0.014111,0.073154,-0.68829,-0.15762
0.55462,-0.04715,0.036271,-0.031404,-0.0048596,-0.13463,-0.49729,0.13474
-0.53545,0.19348,-0.064775,0.040262,0.035605,0.13322,0.68981,0.096852
-0.12282,-0.64819,0.083206,0.04083,-0.042192,-0.14992,0.37676,-0.59542
0.64663,0.16293,0.77887,0.10194,0.049872,-0.033412,0.46597,0.21185
-0.94288,-0.20664,-0.69496,-0.20704,-0.056091,-0.026429,-0.31166,-0.34024
0.32239,0.2546,0.00019133,0.011824,-0.0088575,-0.043131,-0.34162,0.30696
0.55388,0.4492,-0.20139,0.039829,0.058847,0.34732,-0.015923,0.47341
-0.22422,-0.017738,-0.19083,-0.044266,-0.024334,-0.18107,0.040826,-0.34611
-0.036128,-0.37066,0.33105,0.12784,0.00029393,-0.14113,-0.56755,-0.1391
0.076944,0.20313,0.087555,-0.13777,-0.045832,0.0091142,0.3033,-0.040416
0.1354,-0.27478,-0.16555,0.050913,0.025973,0.15513,0.0092447,-0.075393
-0.26238,-0.073676,-0.14914,-0.01591,-0.0019903,-0.044927,0.51497,0.65188
-0.18928,0.63745,0.34426,-0.017297,-0.011819,-0.043276,-0.20856,-0.3075
-0.091996,-0.34226,0.11371,0.12489,0.027978,0.011363,-0.098775,-0.2552
0.26385,-0.27604,-0.075581,0.019409,0.015539,0.047275,0.38918,0.36552
0.22329,0.10504,-0.023227,-0.10827,0.020392,-0.039367,0.0096654,-0.23294
-0.39127,0.35264,0.032089,0.013973,0.025794,0.18623,-0.19421,0.23983
0.078772,-0.12811,-0.023793,0.033294,-0.00071098,-0.05198,-0.49097,-0.4256
0.29171,-0.19568,-0.18717,-0.10592,-0.04452,-0.037272,0.016738,0.022465
-0.11056,-0.20667,0.055027,0.12716,-0.067178,-0.3644,-0.12311,-0.10976
-0.072987,0.15564,-0.47739,-0.18917,-0.084377,0.068335,0.42066,0.084832
0.044538,0.11501,0.48264,0.1098,0.099655,0.16059,0.14443,-0.01144
-0.10284,0.27027,0.17231,0.017238,0.03263,0.14866,-0.19754,0.59918
-0.047652,-0.41311,-0.4519,-0.012689,0.020217,-0.074704,-0.15648,0.053335
0.25601,0.37306,0.46462,0.099041,0.047679,0.14088,0.87105,0.025492
-0.1765,-0.087644,0.0098891,-0.037599,-0.040626,-0.20322,-0.34127,-0.37259
0.23372,-0.27055,-0.12779,-0.023929,-0.00227,0.034322,-0.41975,-0.45014
-0.33178,0.27778,0.23877,-0.008464,-0.017047,0.025386,-0.42135,-0.030143
0.23145,-0.17733,-0.34457,-0.085252,-0.038452,-0.089931,0.26829,-0.019338
-0.12008,0.011741,-0.16798,0.049985,0.050199,0.17186,0.43533,0.66192
-0.5628,-0.23436,0.11166,-0.032861,-0.095374,-0.29969,-0.22771,-0.36641
0.31964,0.098245,0.34602,0.20489,0.12594,0.21313,0.11255,0.25024
0.33242,-0.063132,-0.4483,-0.19017,-0.059649,0.045326,0.14147,-0.26697
0.32536,0.82536,0.066137,0.016111,0.019546,0.047818,0.021565,0.55972
-0.041477,-0.43506,0.33632,0.018905,0.027522,0.0015447,-0.26352,-0.29327
-0.22682,0.019299,-0.40212,-0.041248,-0.066918,-0.24184,-0.22914,-0.57706
-0.31486,-0.32228,0.038742,0.015273,-0.02925,-0.072499,-0.20212,0.46461
0.49386,0.038496,0.78319,0.1259,0.12512,0.35406,0.49941,0.18988
