3.5757e-05,-0.13734,-0.33482,0.50778,0.17527,0.094796,0.059472,-0.08904
-0.036217,-0.24239,0.14701,0.039001,-0.061621,-0.058082,-0.046716,0.10837
-0.02076,-0.015191,0.19001,-0.26029,-0.066458,-0.024943,0.0024715,-0.023036
0.038779,0.19351,-0.59118,0.34053,0.035292,0.029902,0.011425,0.0087574
0.017943,-0.035873,0.47358,-0.27854,-0.061126,-0.010749,0.0034307,0.070738
0.0425,-0.036061,-0.6475,-0.44672,0.12118,0.056437,0.017564,-0.11076
-0.058585,0.29021,0.054183,0.28248,-0.073392,-0.041593,-0.0085087,0.049984
-0.0032896,-0.069502,0.88523,0.17029,0.0044725,-0.0074598,-0.019799,0.013782
-0.04882,-0.41744,-1.0502,-0.13745,-0.042719,-0.028108,-0.02373,0.0072674
0.18022,0.49784,0.93014,0.23265,0.098437,0.061061,0.042627,0.062053
-0.042524,-0.10449,0.17246,-0.041387,0.022443,-0.020748,-0.015636,-0.078971
-0.11544,-0.27951,-1.056,-0.29049,-0.035783,0.015857,0.012743,-0.039786
-0.046372,0.21402,0.61295,-0.12885,-0.13062,-0.055508,-0.0048419,-0.26451
0.070897,-0.20322,-0.38324,0.47511,0.066155,0.015176,-0.005816,0.29486
0.072269,0.38955,0.39993,0.25317,0.14816,0.08717,0.041031,0.084476
0.020208,0.014957,-0.29711,-0.68277,-0.080205,-0.027246,0.0027692,0.026469
-0.1713,-0.63985,0.12448,0.22245,-0.15847,-0.13304,-0.11293,-0.067063
0.083539,0.59708,0.2549,0.085483,0.084619,0.097621,0.084426,-0.04089
-0.043698,-0.50047,-0.54284,0.60136,0.046769,-0.0074246,-0.022432,-0.021448
0.10281,-0.049283,0.88321,-0.59586,0.15681,0.098447,0.05082,0.06783
0.10062,0.6852,-0.96294,-0.28363,-0.20334,-0.13186,-0.055231,-0.047864
-0.29309,-0.26597,0.58024,-0.40814,-0.14392,-0.089151,-0.067211,-0.12729
0.20235,0.22946,-0.35495,0.50941,0.24059,0.14827,0.092875,0.12606
0.024018,-0.01662,0.44456,0.13792,0.051313,0.072447,0.065442,0.0092216
-0.15632,-0.51237,0.038507,0.14794,-0.078944,-0.097999,-0.071667,-0.024013
0.1694,0.27374,-0.080849,0.51539,0.16281,0.089986,0.056236,0.089788
-0.20915,-0.68075,-0.49725,-0.46377,-0.30831,-0.16827,-0.10581,-0.14054
0.10732,0.68811,-0.59049,-0.88502,-0.092332,0.041429,0.027974,0.059359
-0.067722,0.092647,0.62586,0.75642,0.1172,0.0083738,-0.019006,0.0026556
0.024378,-0.46646,0.17423,-0.067524,-0.084257,-0.056205,-0.012253,-0.0056356
0.29039,0.75242,0.11905,-0.34769,0.50766,0.30891,0.16564,0.12039
-0.31649,-0.32301,0.050046,0.46992,-0.27061,-0.29449,-0.18039,-0.18994
0.13303,0.08523,0.83229,0.59357,-0.036668,0.078992,0.090533,0.14094
-0.19782,-0.39405,-0.93927,-1.0671,-0.080775,-0.047212,-0.076128,-0.12985
0.22115,0.047676,0.29698,0.38044,0.056219,0.061165,0.10096,0.075168
0.029463,0.30566,-0.66198,-0.34363,0.020737,0.0055146,-0.011016,-0.010165
-0.19573,-0.27024,0.81282,0.090061,-0.15786,-0.097163,-0.0996,-0.026816
0.14651,0.54667,-0.63579,0.66779,0.28462,0.15141,0.092975,0.07978
-0.22523,-0.86656,-0.59234,-0.41199,-0.2776,-0.14731,-0.097357,-0.11995
0.26752,0.36101,0.84173,0.465,0.25711,0.1317,0.11073,0.13211
-0.077549,0.077957,-0.11779,-0.74892,-0.071325,-0.050471,-0.024801,-0.038516
0.10794,0.25038,-0.25307,0.010235,0.043388,0.079913,0.035368,0.017244
-0.31529,-0.47651,0.30118,-0.48061,-0.40447,-0.25798,-0.17723,-0.15302
0.13066,-0.091714,-0.13254,0.8382,0.19669,0.11599,0.095512,0.092015
0.079636,0.6247,0.090893,0.61289,0.33319,0.16318,0.088162,0.041975
-0.10064,-0.50023,0.79795,-0.76048,-0.47813,-0.27248,-0.12892,-0.068443
0.23037,0.67874,-0.50265,-0.074238,0.41911,0.27767,0.13942,0.11231
-0.21719,-0.58528,0.21799,0.026446,-0.19485,-0.17122,-0.12283,-0.12706
0.12565,0.0071519,-0.1679,-0.29253,0.060716,0.083226,0.06031,0.11901
0.0072611,0.30299,-0.6529,0.72713,0.23774,0.12599,0.063207,0.029332
-0.25367,-0.38038,-0.38128,-0.54804,-0.44787,-0.30163,-0.16161,-0.21728
0.43539,0.30828,0.79734,0.77906,0.39221,0.28411,0.21359,0.2613
-0.26203,-0.050308,-0.51623,-0.90251,-0.27447,-0.16383,-0.14722,-0.15247
0.0294,-0.021067,0.24331,0.46066,-0.049231,-0.059113,-0.017184,0.018099
-0.25168,-0.48723,0.4158,-0.13207,0.022715,0.028851,-0.028481,-0.093646
0.10744,0.19212,0.29273,-0.07123,-0.0089833,0.015351,0.022863,0.02878
0.20249,-0.069601,-0.6271,-0.36409,0.038605,0.057898,0.07523,0.11289
-0.21478,0.1697,0.03289,0.59139,0.051243,-0.06909,-0.081628,-0.12176
0.48954,0.91074,0.62031,-0.47076,0.030864,0.13481,0.15416,0.2315
-0.55157,-0.87369,-0.90503,0.1898,-0.17836,-0.19786,-0.20196,-0.27271
0.37989,0.14439,0.32694,0.21782,0.45356,0.29912,0.1931,0.21656
-0.24106,-0.12412,-0.1985,-0.18111,-0.26349,-0.18816,-0.099194,-0.09855
0.091423,0.23822,0.76185,0.97111,0.27646,0.088687,0.060626,0.08551
-0.062102,0.25134,-0.1169,-0.50323,-0.33614,-0.09826,-0.062873,-0.13074
0.11711,-0.36664,-0.38987,-0.45173,-0.041113,-0.031041,0.013993,0.048885
-0.17651,-0.4088,-0.27066,-0.10932,-0.16732,-0.06902,-0.083927,-0.08669
0.064797,0.1494,0.12702,-0.62098,-0.049578,0.03866,0.034454,0.064527
-0.11919,-0.21729,0.14065,0.68454,0.32271,0.074808,0.018581,-0.019966
0.15568,0.28993,-0.31751,-0.20661,0.14088,0.11171,0.072963,0.067332
0.38323,0.50309,0.47184,0.41874,0.13556,0.12797,0.12881,0.15587
-0.7396,-0.55052,-0.73319,-0.25916,-0.70538,-0.53095,-0.38283,-0.40167
0.31974,0.3264,0.4789,0.34276,0.21392,0.16725,0.13277,0.18453
-0.00046204,0.18729,0.60064,0.56105,0.081276,0.019632,-0.011527,0.024001
0.042056,-0.40265,-0.53785,-0.94388,0.24654,0.20504,0.16045,0.053824
0.17327,0.14139,0.80146,0.87581,0.15934,0.088861,0.053879,0.06209
-0.14701,-0.44283,-0.77346,-0.95705,-0.07564,-0.026661,-0.028189,-0.046278
-0.23269,0.088013,-0.67335,-0.48196,-0.39304,-0.23795,-0.15009,-0.1555
0.43832,0.89021,0.94823,1.0524,0.3826,0.21047,0.15526,0.21759
-0.25217,-0.13756,0.2208,-0.60807,-0.44668,-0.26883,-0.19139,-0.17773
-0.10934,-0.41559,-0.21453,0.043498,-0.05329,-0.027773,-0.026363,-0.044756
0.12471,-0.16666,-0.69606,0.907,0.3065,0.17662,0.096068,0.10911
-0.36984,-0.75162,-0.056925,-0.73278,-0.36418,-0.23992,-0.16683,-0.19974
0.3529,0.43186,-0.1572,0.2227,0.39173,0.24814,0.20185,0.20146
0.090228,0.46417,0.8331,-0.20562,0.11709,0.056825,0.039257,0.055615
0.1937,0.48863,0.13499,0.042036,0.025758,0.10162,0.080585,0.09747
-0.20429,-0.17225,0.15522,-0.35048,-0.24007,-0.19494,-0.127,-0.14176
-0.034086,-0.26724,-0.99195,0.67415,0.19482,0.081056,0.033474,0.0094918
0.047543,0.16492,0.24881,-0.75848,-0.18613,-0.0085691,0.014637,-0.011682
-0.34227,-0.45402,0.90519,0.84224,-0.12666,-0.25381,-0.23096,-0.17428
0.047134,-0.25679,-0.65472,-0.50377,-0.089426,0.078854,0.077522,0.045201
0.36556,0.74956,0.50568,0.31584,0.557,0.30141,0.19,0.20185
-0.010111,-0.12859,-0.46616,0.4991,-0.18815,-0.14091,-0.049542,-0.016155
-0.34347,-0.67785,-0.79609,-1.0284,-0.30927,-0.14613,-0.11714,-0.15487
0.16408,0.4718,1.0899,0.37211,0.15531,0.075555,0.034753,0.052094
0.021434,0.22929,-0.80101,-0.079716,0.042774,0.0094541,0.031774,0.019303
0.064611,0.080954,0.58104,0.29199,-0.067245,0.0080045,0.022834,0.035978
-0.035471,-0.27696,0.17916,-1.069,-0.0172,-0.0063383,-0.00752,-0.030962
0.078666,-0.094696,-0.55414,0.57087,0.037369,-0.0022263,-0.020414,0.020941
-0.15798,-0.076626,0.53703,0.092861,0.06502,0.0433,-0.016379,-0.035834
0.17382,0.38468,-0.61116,0.11755,-0.0057775,-0.019216,0.027239,0.055456
-0.092227,0.013631,0.5605,0.68347,0.065043,0.043209,0.039243,-0.034289
-0.019955,-0.19951,-0.38358,-0.52668,0.048248,0.018148,0.018837,0.014573
-0.00012373,-0.13098,0.52441,0.38508,-0.12134,-0.048776,-0.057939,-0.0091097
-0.20345,-0.12483,-0.64097,-0.4976,-0.14894,-0.11921,-0.10525,-0.11283
0.30984,0.67898,0.67713,0.30782,0.26135,0.18192,0.1429,0.15734
-0.20735,-0.73379,-0.41089,-0.41675,-0.093131,-0.097629,-0.054883,-0.080228
-0.025451,-0.025532,-0.24015,-0.28378,-0.30422,-0.12815,-0.064702,-0.050819
0.053269,0.18798,0.011287,-0.25275,0.16241,0.053271,0.028621,0.043601
0.3036,0.64955,0.75287,0.26765,0.19325,0.15173,0.11661,0.11786
-0.18856,-0.32884,-0.3538,0.42593,-0.19253,-0.1047,-0.089326,-0.077845
0.10663,-0.13956,-0.41817,0.32433,0.32814,0.16749,0.098185,0.034171
-0.2743,-0.30885,0.18695,-0.17033,-0.36058,-0.2039,-0.14188,-0.11743
0.095212,0.22235,-0.29209,0.42375,0.053469,0.12359,0.095514,0.098715
0.14945,0.036276,0.20479,-0.57824,0.29488,0.077588,0.043264,0.063804
-0.27835,-0.27676,0.18361,-0.71488,-0.33496,-0.21154,-0.12824,-0.15337
0.29435,0.67104,0.76757,0.59876,0.39433,0.23825,0.15011,0.16481
-0.27376,-0.47367,-0.35806,0.13453,-0.29465,-0.25454,-0.18487,-0.20101
0.088099,0.234,-0.69603,0.78942,-0.045661,0.02795,0.038654,0.05397
0.22514,0.28748,0.18779,-1.1016,0.22552,0.21087,0.13382,0.1414
-0.17299,-0.69305,-0.33576,-0.0073635,-0.29353,-0.22807,-0.1404,-0.10936
-0.25228,-0.16396,-0.08457,-0.33422,-0.030684,-0.036962,-0.024721,-0.10306
0.19273,0.2632,0.52778,0.36284,0.0094069,0.075516,0.044857,0.075847
0.093554,-0.093187,0.20229,0.20722,0.049293,0.025584,0.030497,0.053544
0.26376,0.57671,-0.20685,0.070406,0.3426,0.26802,0.19075,0.16666
-0.31203,-0.075113,0.1361,0.51708,-0.13142,-0.21195,-0.20078,-0.2019
-0.1343,-0.26601,0.40086,-0.73329,-0.29342,-0.15651,-0.066403,-0.076029
0.27253,0.2766,-0.41523,1.1792,0.39529,0.23043,0.15556,0.19183
-0.1864,-0.43445,-0.21194,-0.80563,-0.098395,-0.091488,-0.074986,-0.079057
-0.035523,-0.075166,-0.1283,-0.56505,-0.24604,-0.061242,-0.048102,-0.053703
0.27921,0.3341,0.32569,-0.041952,0.29293,0.17918,0.15733,0.17349
-0.38303,-0.16438,-0.74633,-0.15123,-0.36713,-0.33213,-0.24813,-0.28047
0.29833,0.49585,0.52852,0.38319,0.53745,0.34188,0.2043,0.17846
-0.13712,-0.71128,-0.13096,-0.11446,-0.42376,-0.18927,-0.10213,-0.073974
0.10032,0.5412,0.3616,0.65523,-0.093942,0.035922,0.044155,0.041285
-0.12948,-0.42603,0.23964,-0.94974,0.12225,0.0026901,-0.012352,-0.013911
-0.17012,-0.18941,-0.60983,0.93093,-0.23392,-0.16311,-0.11481,-0.10615
0.39988,0.47239,0.13453,0.32345,0.68348,0.35166,0.23712,0.23342
-0.037611,0.22628,0.3302,-0.36807,-0.41299,-0.13247,-0.06602,-0.034778
-0.093352,-0.38609,-0.081186,-0.25787,0.071082,-0.084489,-0.094949,-0.10711
-0.10487,-0.48008,0.54486,-0.10837,0.0025337,0.041816,0.048071,0.022856
0.23892,0.82008,-0.49727,0.52434,0.044199,0.089303,0.080994,0.20527
-0.21131,-0.0015083,-0.47293,-0.73848,-0.11029,-0.1226,-0.098435,-0.26407
-0.049401,-0.16471,-0.17529,-0.19086,0.021843,0.038291,-0.021874,-0.018452
0.19427,0.20394,-0.066527,0.2855,0.1114,0.1187,0.08411,0.10648
-0.22081,-0.69395,-0.13869,-0.65562,-0.27924,-0.30286,-0.15505,-0.1226
0.066993,0.085811,0.49032,0.65645,0.38991,0.22765,0.1364,0.11621
-0.10407,-0.051166,0.36355,0.53885,-0.41051,-0.14789,-0.071817,-0.081549
0.14294,0.4105,0.59739,0.24917,-0.076439,-0.037555,-0.021006,0.035744
0.231,0.18165,-0.25164,-1.2271,0.37128,0.25499,0.15666,0.13323
-0.20701,-0.011319,-0.55315,0.71371,-0.20585,-0.13694,-0.13234,-0.12471
0.085765,-0.17646,-0.0070261,0.87326,0.33395,0.17714,0.12737,0.11301
-0.11896,-0.11076,0.14831,-0.30111,-0.18898,-0.18631,-0.12737,-0.1079
0.11427,0.12357,-0.064594,-0.63485,0.060134,0.14661,0.1182,0.086051
-0.09918,-0.21463,-0.41511,-0.066839,-0.030015,-0.12211,-0.066504,-0.064496
-0.11213,-0.029759,-0.026253,-0.94414,-0.039852,-0.05585,-0.049352,-0.021674
0.090695,0.30572,0.32002,0.86923,-0.041839,0.0090793,0.020937,-0.012632
0.0020087,-0.47877,-0.69382,-0.84487,-0.26418,-0.044327,-0.019528,-0.02943
-0.0019085,0.34597,0.94392,0.82309,0.22182,0.057998,0.001712,0.022468
0.041569,0.086509,0.517,0.09451,-0.013942,0.020015,0.0073802,0.019298
-0.0064655,0.087354,-0.52238,0.069967,0.090971,0.022167,0.0061954,0.0015036
0.0038077,-0.073871,-0.30484,1.0242,0.1772,0.088325,0.069222,0.032791
0.018486,-0.11752,-0.53625,-0.61001,-0.14597,-0.00027709,-0.01404,0.027995
0.053252,-0.11624,0.59667,-0.17746,-0.050635,-0.087837,0.014261,0.026368
-0.0097464,0.26335,0.88097,-0.048369,0.12702,0.082717,0.013161,-0.011564
-0.1327,0.18299,-0.2878,-0.45882,-0.41778,-0.23945,-0.15079,-0.13359
-0.098518,-0.81226,-0.61435,-0.10974,0.20584,0.023045,-0.0096758,-0.012816
0.098786,0.088895,-0.15952,-0.17326,0.20173,0.096259,0.068451,0.068142
0.17618,0.51856,-0.16708,0.44173,0.047682,0.15966,0.1062,0.076758
0.030578,0.20286,-0.086855,-0.34945,-0.012421,0.03365,0.032563,0.019817
-0.096863,-0.29611,0.60426,0.19827,-0.29691,-0.2111,-0.11383,-0.056438
-0.042462,0.34929,-0.15398,0.33662,-0.16314,-0.027124,-0.012813,-0.034961
-0.20426,-0.83016,-0.13216,-0.10009,0.18749,-0.046451,-0.086039,-0.10287
0.34856,0.5793,0.20239,0.95214,0.28722,0.25518,0.17486,0.186
-0.38225,-0.19575,0.52781,-0.71297,-0.23899,-0.23086,-0.15119,-0.16718
0.31625,0.17324,-0.4815,0.0072192,0.25607,0.14437,0.10079,0.14359
-0.13218,-0.11764,-0.084663,-0.92681,-0.29246,-0.10337,-0.052745,-0.067979
0.055165,-0.090829,-0.051737,0.70384,0.33894,0.12721,0.060712,0.042771
0.14458,0.11398,0.22791,-0.035756,0.15486,0.10891,0.066448,0.077889
-0.26256,-0.29945,-0.40943,-0.0066572,-0.69896,-0.31543,-0.17624,-0.18918
0.18431,0.52052,-0.14299,0.2228,0.033577,0.11098,0.1057,0.11615
-0.078872,0.042138,0.21619,-0.69405,0.10202,-0.042508,-0.041512,-0.045963
0.18044,-0.040305,0.89756,0.053858,0.30398,0.16866,0.092345,0.11263
-0.33633,-0.67341,-0.74262,0.70688,-0.11682,-0.11537,-0.14187,-0.17466
0.16645,0.45413,0.098997,-0.20781,0.16969,0.04273,0.083443,0.107
-0.14768,-0.18188,-0.42874,-0.5808,-0.35812,-0.1303,-0.083582,-0.08199
0.1747,0.23881,0.082193,0.55241,0.058962,0.03788,0.036749,0.039451
0.25967,0.63893,0.3766,0.58213,0.28896,0.27458,0.20255,0.19029
-0.43007,-0.99533,-0.58175,-0.74435,-0.10529,-0.23956,-0.21061,-0.23045
0.045205,0.13561,0.93616,1.1327,0.11068,-0.011217,-0.030054,-0.0031089
0.047205,-0.26955,-0.45075,-0.60692,-0.047327,0.078046,0.065442,0.037484
0.10153,0.55062,0.28198,-0.55177,-0.35219,-0.025182,0.029941,0.048725
-0.18083,-0.15057,-0.37275,-0.78348,0.040956,-0.11659,-0.096681,-0.093387
0.25559,0.34027,0.36734,0.39656,0.079059,0.054751,0.068935,0.11182
-0.13629,-0.28038,-0.58949,0.082765,0.10767,0.067464,0.003515,-0.046406
0.18134,0.026247,0.31481,0.54359,0.26895,0.14021,0.12084,0.11909
-0.24679,-0.022819,-0.49311,-0.26658,-0.31916,-0.17309,-0.15014,-0.1582
-0.10311,-0.19616,0.43001,0.19527,-0.24302,-0.12387,-0.052697,-0.051468
0.085891,-0.19299,0.21509,0.27715,0.11278,0.043701,0.021218,0.039289
0.21572,0.1775,-0.20299,-0.04069,0.42486,0.17885,0.093661,0.11246
0.0574,0.29343,0.10118,0.46463,0.095559,0.083932,0.069643,0.065055
-0.10153,0.19734,-0.035162,-0.31697,-0.31676,-0.11024,-0.082987,-0.072632
-0.22231,0.10474,-0.0038668,-0.66095,-0.0031001,-0.037697,-0.044302,-0.089981
0.27424,0.18614,0.15239,0.41739,0.1517,0.051393,0.068755,0.083793
-0.17981,-0.77609,-0.16578,-0.2014,-0.40708,-0.18565,-0.1023,-0.11256
-0.22172,-0.44997,0.19861,-0.73935,-0.083544,-0.051333,-0.04824,-0.083445
0.23822,-0.17322,-0.78585,0.18968,0.32147,0.13695,0.12325,0.14979
-0.069988,0.55329,0.099107,0.28143,0.039256,-0.04743,-0.062755,-0.02816
0.074755,0.30604,0.56404,0.038487,-0.62884,-0.086334,-0.034739,-0.0066516
0.079415,-0.08323,-0.14862,1.0094,0.66406,0.24038,0.067176,0.058363
0.16162,0.87761,0.89231,-0.42471,0.4658,0.19046,0.14108,0.10363
-0.11889,-0.62785,-0.66895,-0.3484,-0.27187,-0.12821,-0.040711,-0.044405
0.13259,0.12791,0.22116,0.42249,-0.11479,-0.030678,0.035778,0.073029
-0.28316,-0.48038,-0.8096,-0.18918,-0.29397,-0.15267,-0.14684,-0.17125
-0.0021245,0.063338,0.33943,-0.097965,0.0065194,-0.02022,-0.035315,-0.044491
-0.15102,-0.44895,-0.78219,-0.44418,-0.1151,-0.11157,-0.06012,-0.086472
-0.0032693,0.20008,0.63512,0.18138,0.17553,0.088464,0.028798,4.9079e-05
0.24746,0.30166,0.5885,0.26988,0.33979,0.15099,0.1307,0.19294
0.20555,0.42337,-0.083418,-0.57417,-0.25291,0.038647,0.043839,0.1035
-0.446,-0.67025,-0.60874,0.38197,-0.3882,-0.26982,-0.19116,-0.24278
0.10837,-0.097223,0.20079,-0.46296,0.17224,0.032371,0.028677,0.038674
0.19904,0.3827,0.19185,0.91502,0.58827,0.3296,0.18868,0.13649
0.014551,0.49212,0.44076,0.28093,-0.43431,-0.143,-0.078015,-0.058412
-0.13287,-0.51753,-0.30708,-0.78206,0.0042203,-0.010533,-0.029541,-0.015329
0.10699,0.23574,0.21699,0.54899,0.16149,0.069906,0.0442,0.045789
-0.096061,-0.39902,-0.075264,-0.43654,0.012672,-0.14509,-0.037596,-0.040689
-0.0020374,-0.034524,-0.76727,-0.50564,-0.053772,0.022908,-0.0025986,0.012718
-0.019054,0.15401,0.19632,0.33909,-0.27461,-0.091081,-0.070395,-0.060869
0.031459,0.062261,-0.51398,0.57082,0.18396,0.11408,0.047678,0.026936
0.039933,0.22746,0.26089,-0.66613,-0.078092,-0.033385,0.015773,0.010507
-0.23514,-0.53889,0.12686,-0.14219,-0.19451,-0.14234,-0.095295,-0.10171
0.098146,0.13778,0.88361,0.62928,0.27967,0.18631,0.090219,0.066349
0.15063,0.10871,0.45174,0.30623,0.41479,0.17971,0.080906,0.094033
-0.076489,-0.0018914,-1.0898,-0.84412,-0.367,-0.16183,-0.067941,-0.056653
-0.12173,-0.36743,-0.61345,0.28199,-0.14338,-0.14303,-0.074776,-0.088172
0.3662,0.79098,0.98826,0.86808,0.22688,0.18105,0.14627,0.1949
0.011218,0.32989,0.31226,-0.91533,-0.17733,-0.080785,-0.030217,-0.012579
-0.25072,-0.45634,-0.17706,-0.45689,-0.28479,-0.085463,-0.10487,-0.12557
-0.14783,-0.45965,-0.4107,0.51467,0.19444,0.057015,0.0075098,-0.028014
0.029595,-0.29644,0.052799,-0.26516,0.1751,0.010229,0.01717,0.02118
0.2107,0.20842,-0.59641,0.39453,0.26688,0.13328,0.087659,0.099309
-0.17446,0.11522,0.11152,0.13081,-0.19439,-0.14415,-0.085955,-0.12213
0.36756,0.63419,0.29169,0.36118,0.1346,0.20949,0.16047,0.20076
-0.44258,-0.46934,-0.032718,-1.3899,-0.49667,-0.29737,-0.20391,-0.236
0.022369,-0.30594,-0.12906,0.5933,-0.010459,0.01585,0.0013145,0.021809
0.17083,0.47283,0.34009,-0.0015054,0.31186,0.12678,0.066114,0.077115
-0.13612,-0.14671,0.28359,0.42989,-0.28736,-0.15103,-0.078862,-0.08438
0.35237,0.32653,0.51691,0.35405,0.57494,0.28486,0.18441,0.18682
-0.3326,-0.52551,-1.0728,-0.90679,-0.36664,-0.20573,-0.13571,-0.14776
0.16714,0.072071,0.50677,1.1006,0.075424,0.12718,0.085922,0.091536
-0.064488,0.064508,0.38011,-0.73245,-0.013128,-0.091977,-0.06502,-0.049027
-0.014359,0.068437,-0.85698,0.04291,-0.077991,0.018654,0.012369,0.015399
0.041545,0.37296,0.13123,-0.51809,0.028807,0.028155,0.035928,0.017831
-0.094246,-0.58277,-0.15614,-0.14354,-0.060391,-0.088196,-0.073491,-0.066556
0.053399,0.23661,-0.66597,0.39729,-0.0022419,0.0043895,0.0034538,-0.0045668
0.046478,0.12725,0.88693,0.48034,0.17949,0.086311,0.062852,0.054563
-0.098925,-0.37722,-0.52208,-0.24992,-0.14041,0.00087438,-0.012976,-0.030108
0.0012826,0.02511,0.71447,0.2503,0.23326,-0.0019046,-0.0054245,-0.0084116
0.052045,-0.018249,0.21592,-0.67928,-0.17599,-0.015301,-0.00021677,0.034296
-0.061828,0.23465,0.0099423,0.32218,-0.086645,-0.077509,-0.059328,-0.041749
0.036456,-0.17016,0.031948,0.56544,-0.13107,-0.023334,-0.0023224,-0.0012029
0.12942,0.39762,-0.48337,-0.72812,0.16009,0.10937,0.093517,0.070916
-0.11828,-0.29351,0.25004,0.70661,0.13118,-0.061111,-0.052262,-0.05123
0.066632,0.2958,-0.334,-0.64906,-0.053246,0.051908,0.014099,0.0078028
0.0037762,-0.14112,0.13772,0.15321,0.075818,0.050305,0.035164,0.029404
-0.0031811,-0.34998,-0.18431,-0.53292,-0.21599,-0.10516,-0.051468,-0.0099997
-0.12713,0.40734,0.24577,0.41154,0.06335,0.061503,-0.0037699,-0.048243
0.037419,-0.23233,-0.56068,0.39476,0.12453,0.026006,0.037284,0.023617
0.01361,-0.045173,0.4501,0.17693,-0.0014067,-0.017211,-0.0068787,0.017648
-0.018698,0.053282,-0.16671,-0.37946,-0.15825,-0.045419,-0.011708,-0.011814
0.042626,-0.20279,-0.23946,-0.29371,0.029111,-0.059012,-0.032267,-0.010302
0.026487,0.26538,0.94786,0.12715,-0.079687,0.020118,0.0093198,-0.0091398
0.0039744,-0.010031,0.021741,0.1166,0.17969,0.059472,0.034812,0.030786
-0.024344,0.010693,-0.50434,-0.2232,0.041734,0.020489,0.012957,0.0080518
-0.07388,-0.20371,0.48198,0.7737,-0.27494,-0.07288,-0.071802,-0.05374
0.019211,0.52567,-0.72039,-0.796,0.15885,0.014086,0.022797,0.017424
0.12929,0.025686,0.64934,0.094697,0.21733,0.05488,0.031168,0.034106
-0.018017,-0.11905,-0.6455,-0.14407,-0.20981,-0.0054483,0.00015963,-0.019354
0.013673,-0.55,-0.24448,0.67122,0.25942,0.13727,0.070306,0.06004
-0.12824,-0.25148,-0.36211,-0.63558,-0.40666,-0.20508,-0.11789,-0.079468
0.00075966,0.49621,0.85163,0.8527,0.057721,0.01384,0.021418,0.0072305
-0.029419,-0.055339,0.48135,-0.16597,0.04398,0.012507,0.0038337,-0.0081522
0.16405,0.20492,-0.47587,-0.93157,-0.04814,0.0332,0.063832,0.077427
-0.14502,0.043807,0.10672,-0.36428,0.025075,-0.087693,-0.095243,-0.087578
0.012751,0.10236,-0.50731,0.56811,0.21033,0.056793,0.011291,0.0047527
0.05994,-0.10417,0.6608,0.76403,-0.04611,0.029964,0.016578,0.0030181
0.067538,0.071878,0.03259,0.065975,-0.025209,-0.011219,0.030281,0.040207
-0.081077,-0.56552,0.16942,0.15125,-0.016397,0.0040117,-0.0021077,-0.0085303
0.11454,0.19446,-0.5459,-1.1396,0.034092,0.13827,0.067883,0.075654
-0.24368,-0.014661,-0.52455,0.21361,-0.31251,-0.22588,-0.1583,-0.15251
0.31333,0.76184,0.91232,0.32494,0.30174,0.17667,0.15507,0.15856
-0.33908,-0.91139,-0.77082,-0.75329,-0.20268,-0.20947,-0.14073,-0.17083
-0.013139,0.17101,0.066135,0.77386,0.11043,0.029013,0.0087098,-5.3148e-05
0.15071,0.07331,0.3468,-0.040643,-0.033478,0.071099,0.04845,0.084935
0.15243,0.21817,-0.098538,-0.26901,0.40383,0.18185,0.11113,0.091921
-0.055198,-0.082471,0.49647,1.0709,-0.26554,-0.10003,-0.084562,-0.072899
-0.0040156,-0.096217,0.19988,-0.92149,-0.10387,-0.079298,-0.038604,-0.01115
-0.17135,-0.084089,-0.66618,0.18932,-0.11024,-0.083815,-0.039897,-0.058812
0.16079,0.63751,-0.0022873,-0.23814,0.15451,0.10574,0.068062,0.073193
-0.070672,-0.38065,0.0063198,-0.46885,-0.19024,-0.041088,-0.019114,-0.036932
-0.0301,-0.27449,-0.56258,0.64007,0.029737,-0.0077898,0.003534,-0.0062457
