-0.28819,-0.16286,-0.10202,0.049358,-0.065475,-0.063508,-0.066452,-0.067895
0.2662,-0.10375,-0.14979,-0.12246,0.030846,0.028025,-0.0075663,-0.031016
0.35551,0.48867,0.40073,0.20265,0.071926,0.04083,0.050939,0.089829
-0.24677,0.37521,0.013129,0.0014899,-0.0036991,-0.01648,0.015521,0.044429
-0.14934,-0.36383,-0.0046518,-0.061295,-0.062152,-0.0024439,-0.019739,-0.19034
-0.16363,-0.55588,-0.40724,-0.070837,-0.0009903,-0.049196,-0.062369,0.019061
0.51638,0.42292,0.018636,0.33309,0.063104,0.054551,0.067403,0.18136
-0.52979,-0.14919,0.46916,-0.4347,-0.041742,-0.003787,0.033422,-0.10099
0.76945,0.27021,-0.40046,-0.30337,0.012059,0.1112,0.12423,0.071108
-0.32704,0.71503,0.46148,0.49298,0.020367,-0.054484,-0.16095,0.026045
-0.77174,-0.61637,0.19107,0.65752,0.083424,-0.056588,0.09895,-0.12695
0.78706,-0.39908,-0.25604,-0.6066,-0.065787,-0.013317,-0.25308,0.072526
-0.76048,-0.2744,-0.39274,0.10709,-0.076899,-0.097332,0.016812,-0.1107
0.79533,0.27566,-0.3791,-0.14601,0.018063,0.10501,0.088094,0.064631
0.061937,0.66263,0.67369,-0.69284,-0.04674,0.039021,0.15614,0.042916
-0.27553,-0.80928,-0.26506,0.35085,0.010312,0.0097617,-0.013089,0.034358
0.80404,0.2821,0.31535,0.4471,0.151,-0.01334,0.049763,0.069782
-0.88063,0.26445,0.33397,-0.10719,-0.037586,0.001826,-0.013783,-0.069554
-0.59546,-0.5602,-0.89796,0.069234,-0.12456,-0.1157,-0.3119,-0.28941
0.19205,0.32565,0.44747,0.23859,0.008326,0.056811,0.16467,0.16117
0.3517,0.40439,0.25321,-0.73676,0.018058,-0.0034364,-0.16845,0.072505
0.16034,-0.34523,-0.020075,1.0284,0.17058,0.10236,-0.052099,0.10225
0.69173,0.39649,-0.35063,-0.47834,-0.13578,-0.039831,0.47553,-0.0061567
-0.37163,-0.62242,-0.4536,-0.0020457,0.20011,0.022832,-0.085391,-0.056443
-0.82488,0.20585,0.13182,-0.49565,-0.30671,-0.1164,0.030147,-0.21219
0.34031,0.29586,0.23664,-0.026014,0.101,0.13566,-0.24935,0.14372
-0.16582,-0.20789,-0.33699,0.038274,-0.13185,-0.080896,0.20753,0.026341
0.49872,-0.49291,0.88763,0.7836,0.12743,-0.047636,-0.23328,0.051778
-0.34847,0.34301,0.49294,-0.57832,0.23829,0.032216,-0.072511,0.038946
0.14084,-0.39673,-0.048917,-0.26683,-0.29118,0.02598,0.26783,-0.091796
0.43967,0.26434,-0.38798,0.41784,0.062791,0.043325,-0.2353,0.025379
-0.26764,0.42709,-0.28482,0.46875,-0.09796,-0.048208,0.10625,-0.024524
-0.076985,-0.32535,-0.42776,-0.2654,0.19547,0.06418,0.08203,0.13319
-0.19996,0.39179,-0.63462,-0.087339,-0.088217,-0.17405,-0.12828,-0.26669
-0.52616,-0.17255,0.021384,-0.24691,-0.035254,0.080754,0.052702,0.011234
0.51721,0.43152,0.44274,0.32618,0.1976,0.07826,0.21725,0.038683
0.058452,-0.073306,0.34658,-0.40593,-0.28875,-0.033681,0.011812,0.051471
0.17116,-0.49452,0.22798,-0.13496,0.036206,0.064513,-0.20633,0.15226
0.16255,-0.69973,0.15206,0.38764,0.14057,-0.041953,-0.10289,0.013425
0.057336,0.14169,0.21968,-0.36812,-0.03864,-0.041141,0.0088097,-0.1387
-0.29295,0.55812,-0.0035644,0.85881,0.25621,0.082345,0.23069,0.077856
-0.20969,-0.32728,0.061065,-0.91952,-0.39655,-0.22599,-0.2092,-0.072544
0.078881,0.24842,-0.3348,0.7073,0.13651,0.089153,-0.19131,-0.13813
-0.32751,0.65491,-0.26224,-1.0701,-0.22957,-0.018222,0.32621,0.169
0.61628,-0.43716,-0.73568,0.77314,0.147,0.17162,-0.12276,0.0043175
-0.15368,-0.064123,0.76713,0.5022,0.064214,-0.043582,0.29189,-0.10123
0.0021012,0.47692,-0.2086,-0.010006,0.30415,0.055509,-0.13984,0.14164
0.067277,-0.46392,-0.2663,-1.0321,-0.25783,-0.085556,-0.15244,-0.14927
-0.17715,-0.1842,0.32525,0.386,-0.17655,-0.11531,-0.036103,0.089432
0.12075,-0.20528,0.21575,0.79731,0.23489,0.059616,0.16058,0.030695
-0.077012,0.072625,0.74454,-1.1497,-0.079105,0.024601,0.029464,-0.011914
0.067336,0.37869,-0.89748,0.81305,-0.049267,0.060219,-0.063902,-0.060858
-0.34222,-0.28843,0.072853,-1.2087,-0.20791,-0.10768,-0.034538,-0.060656
0.57208,0.17406,-0.055846,0.50142,0.23303,0.13742,0.062805,0.17676
-0.24181,0.096222,0.15091,0.3784,0.15553,-0.025347,-0.021017,0.0032435
-0.36775,-0.58367,0.11741,0.23097,0.02776,-0.041599,-0.25319,-0.13584
0.24989,0.4916,-0.054378,0.561,-0.0098919,-0.036366,-0.23341,-0.045409
-0.15498,-0.19213,-0.41253,-0.33526,-0.18373,0.029718,0.7118,0.047515
0.67339,0.70578,-0.10014,-0.74183,-0.41481,-0.15526,-0.14324,0.032874
-0.1747,-0.087595,0.44947,-0.35055,0.39976,0.20636,0.11536,0.13637
-0.19568,-0.58247,-0.14339,-0.041499,0.16789,-0.0018071,-0.013654,-0.096058
0.012447,0.13182,-0.071895,0.63325,-0.13216,-0.083761,-0.43856,0.014338
-0.46777,-0.54076,0.47011,0.77041,0.040132,0.04689,0.072655,-0.11133
0.15097,1.0881,-0.31283,-0.28255,0.10765,-0.015941,0.10377,-0.059462
0.69701,-0.38265,0.40979,-0.23167,-0.20258,0.055771,0.090777,0.23232
-0.38994,0.088698,-0.31856,-0.84383,0.039081,-0.019506,0.095617,-0.048232
-0.27019,-0.93577,0.095595,0.13945,0.050915,-0.015566,-0.099937,-0.10367
-0.10321,0.16441,-0.31303,0.93947,-0.15226,-0.08898,-0.017754,-0.0035672
0.22485,0.26925,-0.60767,-0.77567,0.053498,-0.013412,-0.092943,0.057562
-0.024773,0.53945,0.54957,0.59253,0.14349,0.10944,-0.057057,-0.060245
0.24325,-0.17967,0.33344,-0.10766,-0.12589,0.0060639,-0.063613,0.073097
0.18451,0.085507,-0.52783,-0.77905,0.07976,-0.042423,0.05351,0.059196
-0.22718,0.12363,0.15156,0.2831,0.0011252,-0.005,0.37333,-0.10227
-0.13668,-0.2895,0.56039,0.67201,0.027513,0.0085773,-0.08126,-0.0056724
0.076254,0.094611,-0.38359,0.30696,-0.099808,0.021237,0.0081133,0.1451
0.024639,-0.42302,0.77171,-0.40211,0.11884,0.040227,-0.14275,-0.1507
0.12772,0.31778,-0.45419,-0.4442,-0.050537,0.010347,-0.068477,0.01263
-0.5291,-0.052494,-0.15142,-0.40931,-0.099014,-0.10779,-0.061204,0.0020612
0.17299,0.2246,0.25635,0.85632,-0.063998,0.021691,0.072142,0.02086
-0.075151,-0.47155,-0.68107,-0.257,-0.013881,-0.038425,0.025859,-0.04769
0.14474,0.10187,-0.50969,-0.098815,0.13125,0.024916,-0.020068,0.0002202
0.18052,0.60543,0.20649,0.26456,0.14613,0.017138,-0.0016757,0.063776
0.097736,-0.58643,0.18847,-0.7631,-0.0234,0.0093278,0.036458,-0.0047971
0.19481,0.074429,0.3537,0.78499,-0.08854,0.088108,0.097048,0.06842
-0.2393,0.23031,0.89147,0.35958,0.10605,0.0118,-0.075022,-0.028808
-0.26068,-0.493,-0.48927,-0.55067,-0.20651,-0.094285,-0.086834,-0.06984
-0.035516,0.082778,-0.30313,-0.48222,0.17572,-0.058133,0.016333,-0.015658
0.09793,0.45312,0.28225,0.7452,-0.24034,-0.0047298,-0.061688,-0.030431
-0.17494,-0.030687,-0.2713,-0.58872,-0.0019218,0.081463,0.31167,0.049765
0.41761,-0.051974,-0.58157,0.78593,0.023899,-0.073176,-0.23972,0.029436
-0.23516,0.10182,0.74192,-0.78454,0.2907,0.117,0.079197,-0.029177
-0.11091,0.079585,-0.46303,0.068473,-0.10719,-0.067162,-0.054102,0.014186
0.14099,-0.32096,0.48814,0.93966,-0.067654,0.030094,-0.063734,0.018436
0.43387,-0.19864,-0.57611,-0.9665,0.18318,0.017635,0.14213,0.053377
-0.10766,0.28034,0.38654,0.83703,-0.24499,0.012222,-0.015951,-0.014266
-0.48333,-0.32042,-0.37634,-0.94187,-0.062775,-0.10358,-0.05413,-0.11448
0.01891,0.018614,0.52445,0.04791,0.12863,-0.02509,-0.073662,0.0026616
-0.059827,0.26405,0.38422,0.76957,-0.053135,0.083886,-0.0031879,0.0092598
0.0019737,-0.31252,-0.97936,-0.9207,0.17372,-0.03402,0.026034,-0.00049323
0.48862,0.86399,0.56202,0.34272,0.036277,0.074851,0.1642,0.17711
-0.3549,-0.67273,-0.34219,0.83232,-0.30096,-0.049952,-0.11831,-0.16048
0.07497,0.045552,0.040949,-1.211,0.10752,-0.033104,-0.023403,-0.051849
0.32599,0.50764,0.067043,0.5225,0.035014,0.062981,0.090189,0.16732
-0.39906,-0.58897,-0.050882,0.1691,-0.066021,-0.027506,-0.066608,-0.11233
0.070342,0.15522,0.1568,-0.26215,0.053146,0.01532,-0.01782,0.030857
-0.033517,-0.071127,0.75329,0.65779,-0.046887,-0.012262,0.06366,0.0027122
0.08386,0.12507,-0.80644,-0.69814,0.10805,-0.02498,-0.034328,-0.0097776
-0.11108,-0.0015222,-0.15876,0.20625,0.1013,-6.6681e-06,-0.00047565,-0.0071403
0.11409,-0.2951,0.43069,-0.53829,0.10244,0.054396,-0.015407,0.04924
-0.070152,0.26223,-0.5576,0.71394,-0.20249,-0.018214,0.021924,-0.059677
0.061898,-0.090646,0.10269,-0.66428,-0.14174,-0.022408,-0.021307,-0.029304
-0.11509,-0.011789,0.10912,0.9268,-0.034109,0.042251,-0.0039864,0.062335
0.13331,-0.14314,-0.47298,-0.66286,-0.048399,-0.10478,-0.011172,0.0045643
-0.07546,0.49004,0.52957,-0.26306,0.21026,0.068648,0.036367,-0.0069388
-0.19418,-0.11541,-0.1667,0.85089,-0.16756,-0.038122,-0.086821,-0.081154
0.45716,-0.042661,0.84519,-0.83873,0.15826,0.052259,0.10455,0.094778
0.027291,-0.18948,-0.10316,1.0957,-0.17658,-0.019089,0.0016468,0.02894
-0.36627,-0.25256,-0.38754,-0.58191,0.47737,0.0057542,-0.0048111,-0.091009
-0.19962,0.33532,-0.058075,-0.059755,-0.20122,0.017107,-0.0089166,0.016236
0.403,0.0073138,0.022433,-0.71231,0.042645,0.069,0.027722,0.069408
0.012898,0.32871,-0.49905,1.0484,-0.13882,-0.026936,-0.036352,-0.0018432
-0.22803,-0.18987,-0.034591,-0.82919,-0.27352,-0.15442,-0.045705,-0.09597
0.25972,-0.22465,0.375,0.97145,-0.014061,0.037326,0.014644,0.044884
-0.28038,-0.25526,-0.4246,-0.82722,0.36292,0.016543,-0.027576,-0.032304
0.051162,0.34966,0.78204,-0.12087,0.05086,0.095532,0.054068,-0.0070977
0.16113,-0.23775,-0.40566,0.41191,-0.020946,-0.022467,-0.0059708,0.065912
-0.13805,0.38275,0.29903,-0.010987,-0.04674,-0.0011304,0.042511,0.014854
0.29342,-0.1374,0.20515,0.74066,-0.1961,-0.035197,0.0044431,0.050546
-0.42876,0.1743,-0.12971,-0.11799,-0.12212,-0.038057,-0.080896,-0.14758
0.029292,-0.49054,-0.72751,-0.84035,0.092679,0.014382,0.028832,0.013868
0.26684,0.44256,0.61537,-0.1394,0.13889,0.013272,0.013391,0.042276
0.047326,0.086865,-0.41365,0.743,0.018691,-0.0020451,-0.01003,0.0075149
0.10344,-0.46053,-0.41639,-0.97931,0.20169,-0.015978,-0.033675,0.0029182
-0.25303,0.27944,0.73966,0.28455,-0.078262,0.12736,0.067355,0.035954
-0.091927,-0.26221,0.45269,0.46227,-0.033718,-0.0023272,0.027325,-0.010794
-0.16149,-0.1326,-0.035177,-0.5817,-0.13564,-0.12453,-0.083545,-0.067086
-0.005796,0.37714,-0.23928,0.62423,0.051298,0.017883,-0.0074762,-0.046879
0.44092,0.14579,-0.36192,0.57967,-0.28699,-0.020835,0.052453,0.12043
-0.068235,-0.13703,-0.76896,-0.78165,0.30191,0.024822,-0.0051811,-0.0022403
-0.23418,0.21727,0.26775,-0.17717,-0.080207,-0.0011621,-0.016102,-0.047166
0.045496,-0.11837,0.71807,0.65875,-0.0027502,0.01109,-0.011302,0.0018293
0.43414,0.061402,0.19915,-0.42969,0.11359,-0.02373,0.01728,0.03589
-0.53916,-0.50459,0.076458,0.13819,-0.1442,-0.034724,-0.070792,-0.085179
0.41933,0.097274,-0.13776,-0.28025,0.1072,0.11131,0.091753,0.068597
-0.36582,-0.0523,-0.11978,-0.10531,0.031698,-0.030862,0.036124,0.012961
0.16469,0.36425,0.23545,-0.53546,-0.027779,-0.016129,-0.058143,-0.017779
-0.038343,-0.41219,-0.87984,0.17009,0.06034,0.061316,0.027499,-0.00042118
-0.2025,0.18754,0.14278,0.70526,-0.05678,-0.056845,-0.050885,-0.036891
0.32889,0.25497,0.062652,0.32495,-0.028452,-0.011637,0.019115,0.059879
-0.24715,0.18435,0.75844,0.79717,-0.042283,0.024933,0.034424,0.03164
0.17361,-0.0073545,-0.71022,-0.91726,-0.07399,-0.15004,-0.10633,-0.13761
0.055227,-0.39125,0.32579,-0.60924,0.089124,0.096788,0.0033651,0.075299
-0.20083,-0.04776,-0.051238,-0.31233,0.090062,0.086505,0.12159,-0.0016548
0.095364,-0.14395,-0.0030314,0.5421,-0.25616,-0.086349,-0.017115,0.0065133
-0.11727,0.19219,0.095563,-0.56202,0.22442,0.031981,0.0012918,0.045203
0.028582,0.083255,-0.29652,0.82918,-0.076487,0.012108,-0.034343,-0.07293
0.41455,0.35585,0.50455,0.15454,-0.026323,0.041414,0.00058603,0.058556
-0.46954,-0.6156,-0.38072,-0.78788,0.25595,-0.060336,-0.035049,-0.083594
0.18571,-0.05742,0.36361,0.88502,-0.14683,-0.0049742,0.0066594,0.00076165
-0.1464,0.45316,-0.29697,0.14102,-0.043295,-0.027984,0.031494,0.022631
0.48445,0.12829,-0.20772,-1.0456,0.046841,0.025742,0.031317,0.13044
-0.37654,-0.38234,-0.14941,0.1266,0.042021,0.077077,0.021635,-0.058676
-0.042041,0.0317,0.49738,-0.072925,-0.098879,-0.062173,-0.059919,-0.036978
-0.24493,-0.12897,-0.35788,0.42214,-0.0010499,0.0061695,-0.04107,-0.031012
0.064596,0.23731,0.15526,0.21766,-0.029863,0.0089094,0.024125,-0.025007
0.24184,0.28622,0.12501,0.60036,-0.11926,-0.053217,-0.011991,0.043836
0.079658,-0.44429,-0.065271,-0.99267,-0.014605,-0.046263,0.0076307,-0.011568
-0.090846,0.020711,0.31734,0.61258,0.070199,0.04676,0.052412,0.020162
0.052167,0.046476,-0.20693,-0.75871,0.18607,0.11003,0.013397,0.0065682
-0.12439,-0.0096209,-0.38451,-0.73213,-0.15672,-0.089693,-0.062455,-0.060003
0.16649,0.23341,0.26481,0.84126,0.3391,0.10457,0.066779,0.11721
-0.070753,-0.19456,0.34746,-0.30439,-0.039045,-0.15076,-0.044769,-0.063744
-0.058972,-0.13013,-0.15287,0.78108,-0.052181,-0.0044681,-0.054102,-0.017581
0.10412,0.44259,0.00037149,-0.050221,-0.26681,0.097235,0.061393,0.012718
-0.029825,-0.30321,-0.35966,0.51768,-0.12436,-0.0031587,0.019693,0.026339
0.27205,0.19737,-0.43669,-0.5004,0.028339,0.021018,0.023304,0.05383
-0.63835,-0.24778,-0.074312,-0.23273,0.17384,-0.073855,-0.10785,-0.13966
-0.11052,-0.58825,0.42193,-0.042024,0.1164,0.00010547,-0.014536,-0.030877
0.14016,0.39795,0.4546,0.10213,-0.15098,0.062488,0.069001,0.036544
0.39879,0.36921,0.67224,-0.65609,0.11561,0.0037842,0.088402,0.12547
0.1689,0.22443,-0.27302,0.19227,-0.097243,-0.08176,-0.073034,-0.029185
0.1015,0.14189,-0.49022,0.28635,0.15817,-0.04465,-0.039727,0.0028906
-0.27866,-0.46736,-0.1837,0.089657,-0.053396,0.046247,0.0092523,-0.043273
-0.14336,0.056807,0.18493,0.52095,-0.17538,0.090952,0.019817,-0.034228
-0.29817,-0.59424,-0.42173,0.0068708,-0.1205,-0.049715,-0.0075033,-0.00064702
0.32572,0.55298,-0.57676,-1.3639,0.15874,-0.030944,0.029258,0.026691
-0.30481,-0.0031806,0.50182,0.35312,0.1466,0.014948,-0.064981,-0.037846
0.30809,-0.067423,0.60655,0.45683,0.15472,0.056593,0.030112,0.048011
0.24028,0.080511,0.4925,0.47528,-0.091776,0.022991,0.040897,0.041907
0.012907,-0.22079,-0.21763,-0.23249,-0.21183,-0.040068,-0.0095919,0.0059437
0.061522,0.48509,-0.4797,-0.05334,-0.074377,-0.032289,-0.028163,-0.021376
-0.41204,-0.34532,-0.29735,0.31164,0.06909,-0.048631,-0.0076367,-0.056282
-0.10337,0.18162,-0.24558,-0.92387,0.014382,-0.019738,0.020119,0.025699
-0.23033,-0.65845,0.79472,1.1287,-0.090697,0.085061,0.0077192,-0.064853
0.56054,0.61209,-0.48052,-0.83284,0.26921,-2.2237e-05,0.025153,0.093794
-0.23605,-0.046069,0.2482,-0.59716,-0.062119,0.053358,-0.068301,-0.076432
0.46058,0.28734,0.16612,0.37215,0.13435,-0.058955,0.01656,0.088712
-0.33181,-0.33574,-0.13649,-0.26002,-0.039197,0.0075279,-0.00118,-0.027734
-0.033783,-0.34065,0.25015,0.93022,-0.26142,-0.12918,-0.050759,-0.03496
-0.059046,0.24554,-0.25654,0.34227,-0.069912,0.10205,0.07923,0.0046239
0.045016,0.21648,-0.51984,-0.8305,-0.025377,0.029965,0.053242,0.044117
0.081902,0.35909,0.59022,0.66413,0.28809,0.069038,-0.042526,-0.0025399
0.10473,-0.3429,-0.17778,0.1921,-0.12023,-0.0072007,0.00297,0.0051164
-0.31781,-0.4587,-0.26135,-1.0471,0.023804,-0.19896,-0.068097,-0.042424
0.18785,-0.032353,0.78601,0.41842,-0.061401,0.09486,0.0098091,-0.0045774
0.12078,0.47144,-0.58056,-0.73563,0.36489,0.045491,0.033451,0.032812
-0.48038,-0.45849,0.157,0.37095,-0.2465,-0.0040524,0.0027238,-0.07847
0.40017,0.32234,0.032346,0.71406,-0.10925,0.0001789,-0.0043307,0.052513
0.18496,0.16774,-0.21023,-0.127,0.14132,-0.012773,0.012221,0.051084
-0.38287,0.085551,-0.14739,-0.016898,-0.082486,-0.012124,-0.033618,-0.059068
0.19776,-0.043793,0.36999,-0.49921,-0.031184,0.048791,0.053406,0.058112
-0.048714,-0.045039,-0.095767,0.27321,-0.10237,-0.064312,-0.04709,-0.019301
-0.33252,-0.58793,0.079502,-0.1187,0.065431,-0.022917,-0.014872,-0.088391
0.36224,0.32164,0.39464,-0.11082,0.13916,0.095499,0.071846,0.10833
0.058739,0.45989,-0.456,-0.047011,-0.15151,-0.10668,-0.068284,-0.046708
-0.071918,-0.27797,-0.081953,0.84405,-0.014879,0.082341,0.017769,0.032079
0.14106,-0.14274,-0.201,-1.0901,0.13659,-0.04757,0.0017957,-0.0071361
-0.20967,0.094122,-0.045287,0.87967,0.084356,0.043258,0.0087492,-0.062906
0.28925,0.10908,0.77895,0.2946,0.10845,0.081736,0.077699,0.067957
-0.46379,-0.46619,-0.56865,-1.1077,-0.24671,-0.15865,-0.10377,-0.067441
-0.077377,0.26671,-0.20254,0.86603,-0.10934,0.071842,0.019205,0.039075
0.37965,-0.20024,0.12077,-0.46293,-0.021897,-0.12576,-0.045314,0.067614
-0.12212,0.63132,-0.091742,-0.30852,0.13764,0.07589,0.0076424,-0.075165
-0.04981,-0.50847,0.89903,-0.2176,0.25777,0.066481,0.045509,-0.03738
0.1288,0.27132,-0.30247,0.71781,-0.16239,0.087197,0.029362,0.056144
-0.14109,-0.15741,-0.13961,-0.29762,-0.32554,-0.058191,-0.01738,-0.021156
0.19389,0.16027,0.0072257,-0.24904,0.19192,-0.057834,-0.0011506,0.058671
0.23297,0.20862,-0.31087,0.63219,0.11934,0.017732,0.030868,0.029692
-0.49544,-0.38793,0.022538,0.23473,-0.10244,-0.12807,-0.085735,-0.12409
0.29494,0.0037817,-0.21675,-0.2842,-0.040292,0.013377,0.039369,0.042267
-0.10881,-0.066696,0.1246,0.46328,-0.011587,0.060421,-0.023672,-0.01057
-0.14489,0.31269,-0.57224,-0.91798,0.11849,0.084657,0.045467,0.037556
-0.023435,-0.44256,0.7922,-0.1898,0.053839,-0.053403,-0.049902,-0.063376
0.12494,-0.031023,0.14349,0.36517,0.067397,0.13139,0.057736,0.053903
-0.18886,0.085338,0.7792,0.14816,-0.07681,-0.14193,-0.037475,-0.0089031
0.37444,0.5159,-0.35777,-0.051976,-0.15456,-0.0063769,0.0085998,0.053044
-0.10418,0.072861,-0.6002,-0.090067,-0.074731,-0.025051,-0.045937,-0.064812
-0.1933,-0.37058,-0.16456,0.46412,0.042967,0.051189,0.041237,-0.0030026
0.22456,-0.34209,-0.80574,-0.92553,0.18085,0.01828,0.05132,0.019779
-0.00806,-0.14575,0.90284,0.98672,0.017194,0.023792,-0.015924,-0.0042525
-0.057649,0.38774,0.18683,-1.0469,0.0044688,-0.05013,-0.012421,-0.020408
-0.013283,0.40139,0.34431,0.43387,-0.15409,-0.047628,-0.016718,0.010363
-0.010948,0.075157,-0.62201,0.45509,-0.10612,-0.0078631,-0.068264,0.017721
0.079634,-0.075978,0.43982,-0.35264,0.20442,0.06932,0.090464,0.032888
-0.17259,-0.16919,-0.63844,0.035014,0.013598,-0.011065,-0.040688,-0.053531
0.23249,-0.31167,0.32603,0.88893,-0.067451,0.024821,0.014819,0.024096
-0.31293,-0.021372,0.31979,-0.52149,-0.029326,-0.0023147,0.0070618,-0.015442
-0.048339,-0.36721,-0.79679,-0.70725,0.074485,-0.029628,-0.0091347,-0.047065
0.14669,0.38994,0.68696,0.2379,-0.020973,0.068168,0.036699,0.054321
0.0017971,0.13984,0.39473,0.3187,-0.049989,-0.075871,-0.034974,-0.0080681
0.14425,-0.05523,-0.6754,-0.72026,0.096354,-0.039643,-0.013086,0.031443
0.14536,0.38181,0.3027,0.30022,-0.059391,-0.018244,-0.014713,-0.022459
0.082919,-0.17712,-0.45369,0.1956,0.083199,0.1057,0.077434,0.041116
-0.27106,0.41084,0.15629,0.2748,-0.10208,0.027632,-0.041231,-0.059157
-0.278,-0.63585,-0.015614,-0.46682,0.0008441,-0.033666,0.0043948,-0.026477
0.14591,-0.053793,-0.070301,0.04108,-0.18702,-0.078271,-0.035577,0.021914
0.18641,0.020694,0.07104,0.40346,0.22435,0.042067,0.010829,0.05474
-0.32174,-0.34624,0.27575,-0.22488,0.062763,-0.01668,-0.0047582,-0.060832
0.28491,0.2629,-0.2381,0.59577,0.085986,0.065459,0.042656,0.026728
-0.1579,0.32818,0.55929,-0.11158,-0.1042,-0.0087541,-0.050158,-0.010771
0.32642,0.30655,-0.060424,0.011522,-0.19483,-0.036547,0.029081,0.014058
-0.12928,0.077518,-0.41108,-0.75308,0.1195,-0.018217,0.030065,0.030755
0.021939,-0.35322,-0.15691,-0.73766,-0.058779,-0.0086643,-0.00067576,-0.023338
-0.12615,-0.50947,-0.2496,0.31497,-0.088181,0.023246,-0.024383,-0.038978
-0.22191,-0.15515,0.19669,0.80565,0.26636,0.03844,0.0056439,0.030639
0.10203,0.20571,-0.087582,-0.035064,-0.026073,-0.017694,-0.051199,-0.048854
0.064614,0.62538,0.64356,0.31243,0.018808,0.034692,-0.0071735,0.042949
0.29883,0.070958,-0.66213,0.17103,-0.1073,-0.085426,0.044393,0.017148
-0.085833,-0.2562,0.4565,-0.8494,0.008934,0.044101,0.025903,0.030198
-0.081497,-0.54644,-0.034181,0.35901,-0.094224,-0.068621,-0.030871,-0.050484
-0.22709,0.27378,0.50172,0.0043437,0.074774,0.053239,-0.0005216,-0.021545
0.055843,0.1117,-0.44193,0.38034,0.078087,0.066123,0.0077868,0.0078504
0.16639,0.13772,-0.23081,-0.93737,-0.08425,-0.061137,0.0096488,0.030061
0.17584,0.27777,-0.24506,0.37818,0.049118,0.015168,0.028237,0.013938
-0.39114,-0.64563,-0.35486,-0.094463,-0.14606,-0.025414,-0.054088,-0.071759
0.1855,0.41558,0.92377,-0.04892,0.2687,0.066929,0.019929,0.069735
-0.24939,-0.20157,-0.15708,0.36094,-0.15084,-0.090781,-0.047157,-0.061809
0.16422,0.051886,-0.11686,-0.12818,0.033906,0.0091861,0.041034,0.064524
0.12935,-0.1092,-0.028493,0.68852,-0.090271,0.077814,0.018533,-0.020412
-0.0033935,0.41525,0.1136,-0.96951,0.063109,-0.033142,0.010197,0.0033075
0.0064407,-0.49858,0.12733,0.62412,-0.23246,-0.057735,-0.030758,0.018202
-0.015263,0.05139,-0.32632,-1.0079,0.23343,0.035688,0.0053636,-0.0070851
0.077682,0.047247,0.24087,0.97715,0.16278,-0.010282,0.017522,-0.025538
-0.060189,-0.043562,-0.18396,-0.44471,0.085226,0.0078014,-0.056129,-0.021123
-0.17176,0.20728,0.010108,0.84355,-0.21986,0.082276,-0.0039667,-0.024458
-0.10019,-0.077678,0.088948,-1.0403,-0.17617,-0.083816,0.010529,0.027697
0.086,0.089398,-0.24554,0.27204,0.027374,-0.006441,0.042404,0.0032348
0.069173,0.084623,0.40232,-0.25706,0.069598,0.0013054,0.029203,0.06672
0.063182,0.016076,-0.5265,-0.11856,0.028424,-0.030128,-0.02938,-0.039481
0.047087,-0.46339,0.22795,0.84425,-0.08797,0.062394,-0.0011363,0.012555
0.053609,0.2741,0.47945,-0.29898,0.25245,0.043558,0.042838,0.058204
-0.25311,-0.26944,-0.138,0.23109,-0.058606,-0.079633,-0.11701,-0.16898
0.078624,0.42357,0.018378,0.041047,0.097293,0.1298,0.10459,0.08005
0.17112,-0.0037113,0.0074434,-0.63779,-0.19251,-0.11729,-0.027108,0.038756
-0.088544,-0.23489,-0.59338,0.035827,-0.13745,-0.047025,-0.098083,-0.067048
0.13967,0.39212,-0.062727,0.63094,-0.13443,0.0056028,0.071645,0.074663
-0.18651,-0.29416,0.36284,-1.0788,0.22415,-0.028354,0.01387,0.018453
-0.1082,-0.11882,-0.35588,0.72881,0.22837,0.11047,0.010503,-0.094809
0.046024,0.025129,0.43777,-0.38888,0.011445,-0.029561,-0.015943,0.016716
0.3009,0.12927,0.18843,0.72772,-0.12221,0.029244,0.044405,0.033564
