0.021609,-0.0019928,-0.43574,0.40945,0.044225,0.03256,0.014862,0.028119
0.0063755,0.0081814,0.15701,-0.1556,0.022564,0.024754,0.029834,0.019904
-0.0097765,-0.091703,-0.090788,-0.4493,-0.064477,-0.038627,-0.041656,-0.028501
-0.0034825,0.018187,-0.13699,0.2852,0.032748,0.0063301,0.0035139,9.1745e-05
-0.0059481,0.0092818,-0.14263,-0.022969,-0.044859,-0.012199,0.0014061,-0.011306
0.02207,0.11562,0.64593,0.64967,-0.038521,-0.00017334,0.0069815,0.015847
-0.020675,-0.0145,-0.33668,-0.60245,-0.10295,-0.050835,-0.041863,-0.02723
-0.00095179,-0.0059559,-0.021298,-0.12177,-0.072297,-0.022922,0.0037576,-0.014851
-0.012045,-0.045775,0.31952,-0.10181,0.14104,0.052936,0.011426,-0.0010604
-0.0066461,-0.10188,-0.38933,0.029675,0.21001,0.028749,0.0047978,0.0067711
0.023374,0.029951,-0.29922,0.13372,0.0020195,0.0531,0.022881,0.032187
1.3545e-05,0.022814,0.64296,0.38315,0.00073256,-0.022652,-0.012822,-0.0032449
0.0012874,-0.059723,-0.76705,-0.058017,-0.060914,-0.019333,-0.024844,-0.014289
0.02686,0.14237,0.53152,-0.081508,-0.16908,-0.02357,0.15787,0.18558
-0.0097024,0.027602,0.35565,-0.0017184,0.0026935,0.018629,-0.098274,-0.17028
0.016049,-0.014028,-0.86296,-0.71937,0.0078755,-0.057327,-0.028205,-0.0045703
-0.029173,0.024124,0.82805,0.41176,-0.029069,0.013938,-0.030473,-0.044261
-0.051895,-0.13287,-0.066938,0.13993,0.040419,-0.0096878,-0.065611,-0.062632
0.041624,0.04478,-0.53772,0.30007,0.26384,0.075275,0.093824,0.10507
-0.013967,0.0090806,0.79994,0.15775,-0.2329,-0.050952,-0.035366,-0.016663
0.03183,0.04077,-0.46641,-0.55163,0.066749,0.041897,0.0011467,0.0265
-0.015691,-0.16465,-0.79485,-0.04467,-0.10202,-0.083187,-0.030095,-0.006605
-0.023144,0.026495,0.83499,-0.08389,0.050443,0.066279,0.11348,0.0096532
0.0098758,0.1077,-0.21844,0.20938,0.00884,-0.0018457,-0.029342,-0.018386
0.028807,0.025776,-0.063641,0.06529,0.14046,0.0091031,0.087414,0.057255
0.010015,0.047766,0.56709,-0.20094,-0.13286,0.020586,0.0092999,0.0091138
0.015503,-0.11434,-0.46435,0.10715,-0.084722,-0.053859,-0.14011,-0.015495
-0.017935,0.063426,-0.29633,0.13708,0.073791,0.011805,-0.065132,-0.080174
-0.005139,-0.01272,0.79918,0.15144,-0.040287,-0.017214,0.038238,0.0095391
-0.071805,-0.11685,-0.5758,-0.10454,0.096326,0.007279,-0.040996,-0.067121
0.039396,0.023309,8.4189e-05,-0.081861,-0.13375,-0.016314,0.057074,0.05702
0.047022,0.038996,0.20531,0.26857,0.15985,0.060592,0.11463,0.09327
-0.056625,0.029928,0.093187,-0.7061,0.023634,-0.035161,-0.070375,-0.0046261
0.03353,0.11141,0.076836,0.28079,-0.1756,-0.0063588,-0.028201,-0.079696
-0.025693,0.0083719,-0.2109,-0.098932,0.092999,-0.01673,0.0074699,0.025006
0.047606,0.01662,-0.088957,0.57107,0.079147,0.074622,0.044766,0.036612
-0.019389,-0.1375,0.0078856,-0.45518,-0.1548,-0.036818,0.0054969,-0.021045
-0.030867,-0.21103,-0.56513,-0.14149,0.024015,-0.038479,-0.040392,-0.038393
-0.0021459,0.11802,0.43022,0.18112,-0.1733,0.0071141,-0.0075048,0.00019799
0.059046,-0.14025,0.20015,0.0010637,0.3863,0.05299,-0.021423,0.008616
-0.058369,0.22747,0.23827,0.023992,-0.17193,-0.065047,-0.027966,0.0099774
0.059351,0.16065,0.33302,0.53973,0.066261,0.035679,0.058444,0.050732
-0.025723,-0.011474,-0.44005,-0.22597,-0.0083589,0.026937,0.026682,-0.010209
-0.0093505,0.047168,-0.33482,-0.79059,-0.083114,-0.044447,-0.029518,-0.024836
-0.0012784,-0.17198,0.30864,0.91404,0.0063183,0.055934,0.046224,-0.016888
-0.025166,-0.22488,-0.48966,-0.90287,-0.083437,-0.078061,-0.042712,-0.0099185
0.020514,0.20739,0.59642,0.7422,0.077764,0.0068661,-0.038173,-0.011642
0.010913,-0.0090558,-0.73802,-0.056844,-0.025269,-0.009412,0.0055405,0.032918
-0.022424,-0.015403,0.32871,-0.83029,0.060869,0.045125,0.0028667,-0.032082
0.022436,0.12594,0.68193,0.72002,0.094009,0.0299,0.0087928,0.03598
-0.0025772,-0.16248,-0.50345,-0.28779,-0.090207,-0.031727,0.078178,0.010903
-0.011235,-0.0046324,0.44739,0.59953,0.038909,0.031923,-0.0077125,0.010095
0.027875,0.069349,-1.0334,-0.25184,-0.17561,-0.076291,-0.092756,-0.0289
0.0053822,0.099416,0.78239,0.14034,0.10928,0.057429,0.041571,0.0031808
-0.039809,-0.22659,-0.50298,-0.25795,0.080489,0.011019,-0.011249,0.012354
-0.029872,0.12997,0.64141,-0.55117,-0.066971,-0.059332,-0.017087,-0.048544
0.050418,-0.097861,-0.35613,0.53175,0.018437,0.033961,0.06293,0.046764
-0.010335,0.11905,-0.099413,-0.11208,-0.061475,-0.044839,-0.044752,-0.03009
0.045233,0.051413,0.16646,0.69692,0.029656,0.0013906,-0.012063,0.0176
-0.033253,0.071387,0.19614,-0.50097,-0.15302,0.040045,0.0047333,0.0022408
-0.0038262,-0.10471,-0.4353,-0.20344,0.15644,0.032151,0.029071,0.0097524
0.0085065,-0.0095446,0.15254,-0.4231,0.059674,-0.0067383,-0.025006,-0.014506
-0.027261,-0.041452,0.11443,0.16347,0.025219,-0.0065253,0.014336,-0.00793
-0.0090804,-0.089217,0.21576,0.84003,-0.0098312,-0.0065611,0.029856,0.021819
0.0012097,-0.0087265,-0.33929,-0.49369,0.03227,-0.0071017,-0.0019169,-0.0031948
0.027778,0.064042,-0.1501,0.24796,0.026449,0.030798,-0.01065,0.0031828
0.016601,-0.0065098,-0.096477,-0.030575,-0.33152,-0.088085,-0.066549,-0.021327
-0.055301,-0.067489,0.11386,-0.40239,0.16256,-0.0040717,-0.0053602,-0.0062166
0.015349,-0.069049,0.8275,0.51232,-0.060061,0.025477,0.040343,-0.013851
0.033032,0.38807,-1.0005,-0.23413,-0.028923,0.0088549,-0.007341,0.018303
0.0050211,-0.080543,0.52127,-0.50992,0.14015,0.055806,0.031406,0.019833
0.00085682,-0.08018,-0.19364,0.45916,0.010226,0.018043,0.0472,0.013948
0.035319,0.21995,0.34557,0.30059,0.080725,-0.026436,0.00082798,0.055009
-0.032941,-0.20906,-0.36292,-0.22415,-0.087605,-0.023313,-0.10015,-0.091716
-0.055903,-0.08275,0.31195,-0.50163,0.18223,-0.027805,0.0017917,-0.020275
0.013313,-0.0053975,-0.79513,-0.098804,-0.17536,0.0063985,0.025191,0.01135
-0.027962,0.007095,0.32304,0.49384,-0.046086,0.024135,0.009004,0.010984
-0.014847,-0.48841,0.080552,0.10373,0.0055691,-0.013949,0.031398,0.017872
0.13179,0.57465,0.46989,0.46975,0.041428,0.071786,0.014426,0.040146
-0.087094,-0.12694,-0.14147,-0.061849,-0.10175,-0.10128,-0.096322,-0.06244
-0.022359,-0.065116,-0.24569,-0.52853,-0.07026,-0.0014954,0.019782,-0.031717
0.09188,0.49773,0.04759,0.31421,0.0060698,0.027901,0.019272,0.046632
-0.041502,-0.22626,0.10502,-0.66193,0.15385,0.0030559,0.035141,0.00082375
-0.0091771,-0.15215,-0.23805,-0.32422,0.032014,0.0025031,0.0049173,0.02607
0.039319,0.099987,0.02567,0.65102,0.23595,0.057697,0.014398,0.036154
-0.045712,-0.13013,0.091132,0.4497,-0.30432,-0.05016,-0.053889,-0.078699
0.00015807,-0.018708,-0.073144,-0.38132,0.050892,0.014577,0.018434,0.01701
-0.0036751,0.0086295,0.18897,0.13454,-0.12217,-0.03763,-0.058081,-0.036475
0.028252,0.08216,-0.14602,-0.55117,0.15069,0.019214,0.067797,0.026216
-0.021197,-0.033428,0.44541,-0.15385,-0.078138,-0.01075,0.020842,0.033127
-0.042092,-0.040544,-0.66924,0.91995,0.095827,0.012673,-0.066226,-0.031277
0.021212,0.04732,0.44825,0.23648,-0.16422,-0.0044931,0.0097731,0.0051223
-0.0019863,-0.087058,-0.13062,-0.23495,0.087254,0.039344,0.038098,-0.0057682
0.037934,0.028514,-0.41983,-0.77681,0.19525,0.019489,0.034698,0.038012
0.0091414,0.084706,0.23091,0.8517,-0.24439,-0.094747,-0.070314,-0.035017
-0.0017976,-0.00988,0.33902,-0.56012,-0.11195,0.0098793,0.03606,0.0020597
-0.025939,-0.050955,-0.29736,-0.32156,-0.061228,-0.048628,-0.051918,0.016694
0.030234,0.20352,0.54884,-0.019454,0.25335,0.066404,-0.021281,-0.022211
-0.036978,-0.16964,-0.73225,0.80991,0.043432,0.027356,0.073624,-0.0052624
0.029452,0.053949,0.13928,-0.16361,0.20685,0.084388,0.01418,0.020539
-0.013506,-0.096994,0.23175,-0.088573,-0.16458,-0.067413,-0.035671,-0.01539
-0.049414,-0.062389,-0.027403,0.16047,-0.27683,-0.084862,0.0018061,-0.011874
0.054,0.069934,0.14891,-0.96367,0.1559,0.046874,0.016619,0.054059
-0.00040447,0.064508,-0.13906,0.54454,0.075963,0.030057,0.023633,0.017875
0.021785,0.061777,-0.32901,0.18771,0.020286,-0.018901,-0.063882,-0.034883
-0.043183,-0.12508,0.38477,0.26198,-0.02764,0.00099087,0.026814,-0.034136
-0.038538,-0.080611,-0.20647,-0.033588,-0.36422,-0.066805,-0.056347,-0.034589
0.067603,0.11885,0.017418,0.0053048,0.19973,0.051155,0.10046,0.05772
0.010253,0.022089,-0.026465,-0.48866,0.11982,0.050444,-0.01052,0.0010063
-0.045998,-0.06451,-0.19508,0.50023,0.023785,-0.021626,-0.029579,-0.016723
0.024176,0.11806,0.37985,-0.2371,0.10162,-0.023924,-0.081162,0.012846
-0.013535,-0.12499,0.041362,-0.47717,-0.13706,-0.049723,0.069789,-0.003643
-0.0030894,0.049861,0.029074,0.53817,0.027402,0.018522,-0.013523,-0.0034908
0.016003,-0.092671,0.065527,-0.38274,0.087248,0.0638,0.028887,0.0054629
0.03532,0.1413,-0.18994,0.41468,-0.13788,0.054841,0.080264,0.054227
-0.00047542,0.093868,0.10198,-0.27305,-0.13346,-0.078851,-0.11699,-0.037277
-0.021636,-0.15846,-0.312,0.053723,0.060138,-0.0016141,0.046519,-0.027314
-0.051958,-0.030962,-0.33957,0.43245,0.13695,-0.0027796,-0.038746,-0.010042
0.0022288,0.014831,0.69165,-0.13281,0.10371,-0.035648,0.02541,0.0064431
0.00050595,-0.036542,-0.35677,-0.062501,-0.18099,-0.014316,-0.026926,0.0064022
0.021429,0.065804,0.23722,-0.47504,0.048078,0.061329,0.0070753,-0.002296
0.034291,-0.0048324,0.17254,-0.030232,0.0096974,-0.0038068,-0.013496,0.019602
-0.030701,-0.035848,-0.196,0.45408,-0.037838,0.0092915,0.028269,-0.005759
0.037768,0.029009,-0.49098,-0.15346,0.054746,0.038376,0.077416,0.015657
-0.017949,0.042436,0.93737,0.92195,-0.1412,-0.072604,-0.092862,-0.033085
-0.01824,-0.065417,-0.42628,-1.044,-0.02312,-0.0032159,0.040684,0.027885
-0.018073,-0.037061,-0.19181,-0.1255,0.14406,-0.0034287,-0.061108,-0.035708
0.029011,0.18112,0.17107,0.55144,0.063631,0.020446,0.023657,0.026148
-0.010254,-0.053113,-0.11216,-0.27711,-0.053994,0.013567,-0.0095657,-0.0053601
0.027806,-0.030681,0.27785,-0.16919,0.047831,0.0069422,0.019159,0.010281
0.010163,-0.026721,-0.62053,-0.27466,-0.1716,-0.038789,0.016392,0.0026242
-0.0084673,-0.01898,0.48906,0.46829,0.16872,0.055748,0.0058941,-0.0050152
-0.035591,-0.054737,-0.22972,0.097425,-0.0030917,-0.022211,-0.0042256,-0.012721
-0.055025,0.022746,0.30075,0.50023,-0.10989,-0.014999,-0.029355,-0.02052
0.035511,0.081955,0.0095778,-0.81349,0.10602,0.030527,0.032225,0.049739
0.010176,-0.015868,0.23204,0.38969,-0.13575,-0.033858,-0.061613,-0.059692
0.025777,-0.057706,-0.68075,-0.33927,0.049358,-0.020278,0.0093933,0.026256
-0.0033894,-0.057293,0.03683,0.22822,-0.28943,-0.068883,0.034138,0.03419
0.055317,0.1117,0.33857,-0.22733,0.40509,0.13328,0.051399,0.010987
-0.025236,0.012282,0.11651,0.25571,0.11948,0.016235,-0.025134,-0.02778
-0.027161,-0.0044244,-0.32264,0.20224,-0.29321,-0.091807,-0.047431,-0.043133
0.0095002,0.10716,0.085999,-0.29081,0.097197,0.066797,0.031016,0.027326
-0.0098989,-0.068952,0.20411,-0.046088,-0.037953,0.0072513,0.014639,0.019446
-0.054743,-0.15991,-0.42745,-0.016451,0.11245,-0.021024,-0.0654,-0.0043382
0.030957,0.090099,0.37964,-0.0038015,-0.1723,-0.03427,-0.005875,-0.012802
0.020783,-0.01571,-0.50018,-0.10492,0.21507,0.021683,0.037228,0.0018797
-0.014456,-0.017111,0.61852,0.25649,-0.13358,-0.040975,0.033038,-0.0071122
0.011916,0.0079117,-0.24434,-0.42126,-0.12578,0.051153,0.013239,0.022817
0.006983,0.060296,0.39105,0.53131,0.1598,0.0014344,-0.01393,0.013677
0.02623,0.063493,-0.37079,-0.1397,-0.0031342,0.0056611,-0.0012154,-0.010924
-0.031264,-0.043032,0.13772,0.50535,-0.22306,-0.083972,-0.12019,-0.042975
-0.0088338,-0.14783,-0.46902,-0.61903,0.18882,0.084774,0.10593,0.019293
-0.0078894,0.00099285,0.13647,0.080046,0.0072682,-0.026555,0.013165,-0.011433
0.033962,0.10794,0.36218,-0.1881,0.10833,0.035599,-0.02353,0.029035
-0.01643,-0.013814,-0.10825,0.012118,-0.038697,-0.017639,0.019095,-0.0077206
-0.034579,-0.09106,0.011933,-0.19626,-0.12913,-0.037921,-0.02334,-0.0046201
0.057016,0.32042,-0.39616,0.64572,0.08647,0.013457,0.0050045,0.030284
-0.015739,-0.14834,0.15743,-0.38599,-0.049053,0.01874,0.025558,-0.012725
0.004367,-0.03078,0.25473,0.45618,-0.13835,0.016293,-0.016786,-0.0012277
-0.008143,-0.1259,-0.59508,-0.70546,0.27065,0.013217,-0.012987,-0.013723
-0.014493,0.033334,0.78605,0.3373,-0.072895,0.0010863,-0.010134,-0.019259
-0.0069339,0.0083845,0.096818,0.69146,-0.15381,-0.10645,-0.031747,-0.010207
0.014692,0.0021444,-0.075376,-0.9335,0.2701,0.065467,0.062834,0.028999
-0.00396,0.030722,0.028243,0.29821,-0.21468,-0.029903,-0.007523,0.0046613
0.0078913,-0.029886,-0.30892,-0.37762,0.033528,0.045317,0.030783,0.01847
0.0038849,0.0090635,-0.34766,0.13575,0.063074,0.02604,-0.025194,-0.015335
-0.015493,0.047243,-0.079578,0.25655,-0.12437,-0.040263,-0.034645,0.0050164
0.020466,0.12477,0.05416,-0.026129,-0.0037378,-0.012412,0.0026115,-0.021808
-0.0051584,-0.085692,0.30258,0.15166,0.13715,0.0084688,0.016439,0.021632
0.0093169,-0.067949,0.19711,0.074965,-0.11516,0.014834,-0.00081174,-0.0050122
-0.006438,-0.01692,-0.27832,-0.58961,0.1922,0.038008,0.036937,-0.015522
-0.029121,-0.065126,0.38927,0.40115,-0.12159,-0.070559,-0.065525,-0.017449
0.0035413,0.0063649,-0.12633,-0.45336,-0.12094,0.0013659,0.027792,0.012847
-0.0103,-0.0055623,-0.029931,0.61036,0.19952,0.019031,0.012208,0.012957
0.061848,0.18007,-0.30296,0.13575,0.063839,0.028886,0.012685,0.029712
-0.01471,0.039209,0.37558,-0.48309,-0.14736,-0.031986,-0.0020928,-0.01521
-0.0058849,-0.11663,-0.18212,-0.00093256,-0.13865,0.023578,-0.040014,-0.0049415
-0.0056336,0.062893,0.11,0.24169,0.26926,0.015681,0.016031,0.0054352
-0.03749,-0.18914,-0.37911,-0.31386,-0.23541,-0.047899,-0.029346,-0.031352
0.031391,0.13393,0.40951,0.1967,0.0053794,0.0048615,0.050336,0.017176
-0.025399,-0.12499,-0.14189,0.1624,0.0097317,-0.028847,-0.018464,-0.013258
0.018941,0.08058,-0.046598,-0.59672,0.15541,0.046711,0.01412,0.010078
-0.015002,0.0085321,-0.23743,0.77196,-0.047204,-0.02583,-0.016136,-0.0065106
0.044907,0.12038,0.23709,-0.057456,0.07569,0.058604,0.023417,0.023075
0.01919,0.034345,0.25068,-0.48021,-0.17799,-0.027857,-0.00016799,-0.0025001
-0.045127,-0.12308,-0.41735,0.038819,0.21525,0.019557,-0.0010089,-0.0048551
0.00049451,-0.053167,0.4717,0.12103,-0.15172,-0.05706,-0.033744,-0.01499
-0.015744,-0.074193,-0.25956,0.059568,-0.061712,-0.023577,-0.059148,0.0063796
-0.015655,-0.035728,-0.0094242,-0.14211,0.11609,0.072785,0.10272,-0.0030734
0.039879,0.11849,0.040727,-0.0050385,-0.073571,0.0050695,-0.04005,0.01927
0.0024409,0.084545,0.22383,0.67493,0.039231,-0.0005422,0.044066,-0.0046517
-0.01863,-0.059734,-0.19807,-0.68079,-0.015802,-0.069356,-0.035379,-0.012332
-1.8636e-05,0.035714,-0.47069,-0.050613,0.033834,0.032825,-0.0048713,-0.0038113
-0.0044465,0.032409,0.31713,0.36718,-0.030794,0.0013001,0.018376,-0.0026039
0.03809,0.028724,0.36646,-0.38421,0.22844,0.070606,0.026452,0.022431
-0.0055857,-0.0098369,-0.37854,0.019362,-0.23394,-0.040184,-0.01983,-0.0069632
0.0047906,0.046884,-0.066674,0.26157,-0.0018449,-0.057198,-0.026823,0.0028145
-0.032641,-0.24793,0.3022,-0.10615,-0.26045,-0.019034,-0.033653,-0.018705
-0.016497,-0.034915,-0.13081,0.25778,0.086218,0.035637,0.014341,0.0064427
-0.017122,-0.00012951,0.18183,0.2589,0.23506,-0.025796,0.015572,-0.0078316
0.035906,0.046516,-0.0012636,-0.60951,0.13197,0.062216,0.0090268,0.0086451
0.017805,0.2019,-0.25729,-0.0085421,-0.083119,0.018035,0.041423,0.016697
0.014791,-0.0075674,-0.2492,-0.54306,0.033264,0.036328,0.0031407,0.016254
-0.019718,-0.087469,0.15703,0.60474,-0.068394,-0.0086676,0.011085,-0.02394
0.0083026,0.010138,0.60325,-0.083576,-0.047172,-0.06295,-0.0678,-0.017869
-0.033712,0.011625,-0.58138,0.19242,-0.0070294,-0.033178,0.0085604,0.0033913
0.0028866,0.0094484,0.30694,0.54334,-0.17598,-0.036538,-0.025382,-0.0067748
0.0088952,0.032851,-0.13784,-0.24324,0.14105,0.013351,-0.036538,0.0066326
0.0078767,-0.029756,-0.31451,-0.46027,-0.078452,0.046968,0.084896,0.012679
0.015524,-0.0083957,0.39327,-0.25393,0.15948,0.034022,0.011283,0.01163
-0.038476,-0.11517,-0.17207,0.22902,0.013268,-0.032394,-0.0069271,-0.0276
0.025495,0.040345,-0.019861,-0.0014308,-0.14001,0.020247,0.0071595,0.020031
0.019801,0.0057856,0.40306,0.73027,0.044941,0.0047238,-0.024413,0.013815
-0.024487,-0.022044,-0.03723,-0.38255,0.13139,0.014654,-0.0078867,-0.022996
-0.029449,-0.0022471,-0.32538,-0.69087,0.056822,-0.0051224,-0.013703,-0.0047113
0.067213,0.17628,0.02385,0.50378,-0.10911,0.0072089,0.043854,0.02153
-0.054996,-0.10244,-0.25304,-0.019863,-0.039273,-0.089713,-0.046433,-0.030448
0.0022168,-0.0019866,0.22992,-0.23169,-0.26588,0.00034395,0.0041949,-0.0045901
0.019989,0.078824,0.031053,0.14866,0.33541,0.042555,0.03137,0.013029
-0.0095702,-0.056389,-0.088515,0.095966,0.037807,0.044513,0.003553,0.014504
0.0072327,-0.041959,0.021819,0.16902,-0.21311,-0.017224,-0.0013843,0.0075911
0.0078599,0.011092,0.18272,-0.17757,0.075461,-0.033118,-0.030515,-0.0077462
0.0079155,0.023176,0.025259,0.10179,-0.056689,0.012727,0.009789,-0.0080855
-0.016036,-0.10833,0.31137,-0.25447,0.13326,0.058129,0.033558,0.0065831
-0.024899,0.06134,-0.48739,0.21695,0.06751,-0.060661,-0.029461,-0.010573
0.012641,0.024293,0.17042,0.41618,-0.20723,-0.054313,-0.038505,-0.012598
0.0029271,0.0073768,-0.57164,-0.56091,0.042793,0.053919,0.022238,0.008437
0.0085743,-0.090509,0.40017,-0.070164,0.066539,0.014118,0.027968,0.0057971
0.01408,0.17643,0.22492,-0.33261,0.081521,0.037194,0.017927,0.026512
0.011757,0.035151,-0.29998,0.45637,0.070924,-0.0019672,0.0078756,-0.0073869
-0.01389,-0.17814,0.38262,0.056401,-0.36456,-0.064464,-0.05678,-0.017622
-0.031477,0.021146,-0.16866,0.14249,0.13409,-0.0098245,-0.0040998,-0.0040471
-0.040864,-0.054282,-0.32396,-0.13321,0.03593,0.029042,0.025349,-0.021213
0.067455,0.11936,0.023378,0.014187,0.099664,0.036502,0.023826,0.032557
0.012332,-0.0042497,0.2764,-0.045074,-0.13431,-0.049868,-0.016386,-0.0067214
-0.010872,0.091321,0.016737,-0.11348,0.03866,-0.018989,-0.040483,-0.0062142
0.029074,-0.022551,0.16042,0.16174,0.010592,0.051175,0.037593,0.026219
-0.071036,-0.30556,-0.2455,-0.32077,-0.029994,0.004506,0.014813,-0.0032892
0.024601,0.15761,0.05532,0.39142,0.073574,-0.018307,-0.022839,-0.016787
0.01113,0.00079747,-0.0024935,0.32812,-0.061771,-0.0016694,-0.012905,-0.014481
-0.010074,-0.07242,-0.47742,-0.77043,0.15683,-0.00039572,-0.0024132,0.0034149
-0.00014771,0.14856,0.38414,-0.0080315,-0.15479,-0.030314,0.00055629,0.013265
0.0016437,0.076499,0.63273,0.6599,-0.037247,0.033335,0.042508,0.0070934
0.026349,0.068642,-0.69615,-0.49537,0.12523,0.0497,0.037079,0.016034
-0.03559,-0.17456,0.019896,0.18048,-0.1137,-0.043873,-0.063013,-0.045912
0.018812,0.078595,0.21714,-0.032862,0.13621,-0.013032,0.0075569,0.00875
0.017611,-0.080259,-0.28385,-0.042764,-0.10911,0.040796,-0.040386,0.023823
-0.015716,-0.042778,-0.020375,0.0096269,-0.020561,-0.085217,0.012028,-0.016212
0.0049299,0.011677,0.58865,0.26514,0.0361,0.023396,0.03234,0.029415
-0.029537,-0.040227,-0.62497,-0.001751,-0.23445,-0.047015,-0.017986,-0.034435
-0.01717,-0.016119,0.061372,-0.5547,0.21597,0.071041,0.010096,0.0033582
0.019014,-0.076933,-0.020834,0.40598,0.2084,0.07296,0.0077839,0.010156
0.0090801,0.092739,0.49018,-0.1554,-0.1244,-0.018019,-0.032308,-0.021714
0.015789,0.31528,-0.20919,0.11625,0.029182,-0.038302,0.0072009,0.017207
0.039227,-0.10377,-0.095824,-0.26045,-0.0041911,-0.004167,0.048102,0.025367
-0.053515,-0.047684,0.016249,-0.057043,-0.27314,-0.080383,-0.050585,-0.036368
0.010751,-0.025809,-0.21905,0.5704,0.11133,0.029313,0.046515,0.011545
0.02076,-0.095005,0.52374,0.026377,0.10123,0.082334,0.01061,0.012661
-0.039442,-0.062268,-0.50785,-0.49736,0.071185,-0.015163,-0.057375,-0.017601
0.001765,-0.038993,0.16083,0.2209,-0.025188,0.018316,0.029586,0.022139
-0.012011,0.098339,-0.049451,0.043055,-0.092779,-0.051023,-0.033411,-0.016672
0.0051428,-0.041778,0.025147,-0.10589,-0.0045287,-0.0035817,0.011537,-0.0090617
0.014223,0.11061,-0.0054549,0.13031,-0.054859,-0.064918,-0.00708,-0.0018321
0.015323,0.039933,0.32081,0.31336,0.00084829,0.0081425,-0.0027636,0.0051722
0.024144,0.14498,-0.041513,-0.85177,-0.022989,0.067947,0.0016726,0.0043444
-0.0061617,-0.10484,-0.63002,-0.024799,0.17146,0.068028,0.038032,0.011521
-0.067811,-0.34922,0.29866,0.54254,-0.072386,-0.046371,-0.0026919,-0.020002
0.010994,0.17875,-0.067328,-0.1743,0.06412,-0.010168,-0.0031866,0.0036231
0.042659,-0.027273,0.14691,0.10417,0.09379,0.02729,0.012989,0.027715
0.011468,0.073317,0.35457,-0.0084971,0.09909,0.0024213,-0.0013511,0.0053165
-0.027947,0.11466,0.030691,0.24703,-0.43128,-0.077994,-0.062237,-0.040284
-0.0052762,-0.074277,-0.303,-0.32588,0.046695,-0.011614,0.0096173,-0.0077069
0.0092335,-0.032354,-0.30416,0.33146,8.7842e-05,-0.0019736,0.026399,0.016923
-0.0077231,-0.080439,-0.0046765,-0.35667,0.17085,0.036866,0.01137,0.0021947
-0.0090867,0.045849,0.19742,0.35386,0.13832,0.034951,-0.0042386,0.0026765
0.036599,0.18851,0.11606,-0.29206,-0.17319,0.039758,0.02656,0.033928
-0.03454,-0.21692,-0.020051,-0.21978,-0.026112,-0.041751,-0.060088,-0.029056
-0.0036216,0.11676,0.10399,0.37408,-0.26856,-0.099518,-0.0061262,-0.037786
0.020018,0.039789,-0.3925,-0.53314,0.21193,0.062315,0.024599,0.031284
0.0050625,-0.026501,0.2575,0.29531,0.17541,-0.0012434,-0.014658,-0.009202
-0.0017848,-0.14416,0.054377,0.1125,0.1385,0.069235,0.079236,0.012793
-0.0085802,-0.046161,-0.16671,0.15567,-0.15694,-0.015519,-0.045402,-0.0041418
0.02347,0.058693,0.3502,0.18453,-0.10299,-0.029355,0.025282,0.049492
0.00038334,-0.0225,-0.11627,-0.5269,0.0090298,-0.011845,-0.029248,-0.060591
-0.046736,0.1343,-0.21752,0.22378,-0.088982,-0.018168,-0.029468,0.0015987
-0.016346,-0.12572,-0.065755,0.29438,0.046062,0.006005,-0.030104,-0.0061046
0.036974,0.21342,-0.014794,-0.41064,0.21728,0.060525,0.054897,0.00223
0.035314,0.002501,0.19184,0.0214,-0.044734,-0.026393,0.030463,0.050003
-0.03668,-0.018018,0.030476,0.027499,-0.25535,-0.082576,-0.040591,-0.042543
0.0087657,-0.076923,0.041092,-0.29802,0.039639,0.056476,-0.0095171,0.0057372
-0.0078104,-0.067043,0.13202,0.31975,-0.0019676,-0.015019,0.02235,-0.00060163
-0.00033677,-0.17758,-0.26395,0.21091,0.012092,0.047077,0.0082226,0.016417
-0.0078554,0.13745,0.083648,-0.31013,0.1378,-0.014841,-0.020735,-0.029292
0.024223,0.042079,-0.25843,0.015834,0.14924,0.025775,0.013347,0.026203
-0.0058629,0.029211,-0.25498,0.43931,-0.00059716,-0.026623,-0.0071075,-0.012506
-0.0046299,0.037494,0.55783,-0.38388,-0.1797,-0.0005483,0.011196,-0.012657
0.0042059,0.029151,-0.17049,0.060709,-0.16271,-0.0058219,0.005322,0.01794
0.012598,-0.018101,0.23846,-0.072251,0.072493,0.019654,0.014002,0.016838
-0.0030254,-0.072148,0.077865,0.098493,0.032609,-0.057207,-0.033232,-0.01586
-0.050483,0.0003378,-0.14227,-0.17819,-0.017523,-0.025575,-0.042571,-0.033139
