0.043515,0.068654,0.2407,-0.12465,-0.064216,-0.036715,-0.00050284,0.014462
-0.013254,-0.036889,-0.11111,0.43593,-0.11821,0.02199,0.11574,0.090029
-0.092543,-0.18687,-0.22031,-0.28295,0.11214,-0.0056206,-0.14418,-0.076011
0.032963,-0.011016,0.45057,0.14806,0.038717,0.074846,0.069905,0.062072
0.082544,0.1653,-0.13925,-0.15341,0.36284,0.051562,-0.11039,-0.082913
-0.021787,-0.078041,-0.32728,-0.022366,0.083356,-0.013629,0.071974,0.01918
0.063385,0.11074,0.84631,-0.012444,-0.33888,-0.011541,0.023091,-0.01514
0.032603,0.081567,-0.68135,-0.11495,-0.12128,-0.035456,0.29046,0.29067
-0.052666,0.14351,0.18411,0.60812,-0.03427,-0.12324,-0.41357,-0.35948
0.001836,-0.059747,-0.46985,-0.25711,-0.10457,0.00035758,-0.055655,-0.042173
-0.14846,-0.54911,-0.039484,0.5316,-0.029836,-0.02972,-0.063001,0.151
0.01165,0.30328,0.39153,-0.9864,0.29699,0.030693,0.059067,-0.2776
0.099412,0.13435,-0.018812,-0.005581,-0.36187,0.089169,0.68755,0.72881
-0.025373,0.075086,0.29269,-0.2901,0.42563,0.13035,-0.51239,-0.74258
0.044163,0.063432,0.45056,0.42758,0.2998,0.13762,0.076324,0.15982
-0.074206,-0.53856,-0.75752,0.65728,-0.031386,-0.18018,-0.35237,-0.24516
0.057385,0.19549,0.080843,0.47877,0.012905,-0.11501,-0.21511,0.66456
-0.037589,-0.017876,-0.11374,-0.91155,-0.99549,-0.33405,0.44559,-0.1384
0.21091,-0.024547,-0.4666,-0.66942,-0.25042,0.30057,0.61806,0.54491
-0.11947,0.2505,0.30423,0.25988,0.92238,0.29472,0.12685,-0.41396
-0.10732,0.12264,0.19249,0.28222,0.63632,0.046108,-0.85865,-0.93079
-0.018518,-0.21222,0.7391,0.85774,-0.31331,-0.16334,-0.003202,0.21374
-0.024853,0.15045,-0.71052,-1.0695,0.0039578,-0.26908,-0.34429,0.12413
0.11633,-0.011567,0.25876,0.43626,-0.9322,-0.15074,0.24677,0.40659
-0.06297,-0.062015,-0.71208,-0.47094,-0.35119,0.070439,0.20477,-0.1914
0.063115,-0.10677,0.66567,0.39401,0.6514,0.24182,0.19914,0.48335
-0.067148,-0.055419,-0.33543,-0.11181,0.16719,0.022366,-0.10945,-0.37066
0.06236,0.035517,0.17396,0.8926,0.76288,0.24917,-0.15605,-0.064862
-0.040428,-0.39657,0.036106,-0.84371,-0.45038,-0.21897,0.18429,0.15753
0.085175,0.44656,-0.12551,-0.4846,-0.051575,0.10014,0.27631,-0.15157
0.063635,0.23918,0.49248,0.36978,-0.22346,-0.070093,0.014297,0.28533
-0.22288,-0.25806,-0.76712,-0.098558,-0.29065,-0.16272,-0.42686,-0.60609
0.084419,0.52799,0.77499,0.49586,0.40651,0.030418,-0.16084,0.16293
-0.046096,-0.57203,-0.50603,-0.57127,0.18486,-0.03136,0.23142,0.44933
0.04952,-0.056078,-0.57061,0.16212,-0.30125,0.034514,-0.25097,-0.13856
0.0041832,0.1086,0.40995,0.4535,-0.61441,-0.2241,-0.044486,-0.1786
-0.049078,-0.44441,0.099869,0.082325,0.364,0.24925,0.32194,-0.13029
0.0070974,0.35509,0.74078,0.13958,0.54258,0.10495,-0.10985,0.00073256
0.0008396,0.10738,0.0032987,-0.61206,0.15826,-0.022609,0.18602,0.091905
0.21317,0.55212,-0.58295,-0.5968,-0.21648,0.25022,0.55473,0.71574
-0.08292,-0.39238,-0.18334,0.27799,-0.50218,-0.41248,-0.7925,-0.89183
-0.12233,-0.30844,0.0064285,0.13755,0.33287,0.090184,-0.14548,0.12926
-0.007068,0.042099,-0.35635,0.94415,-0.039797,-0.024046,0.46322,0.20853
-0.057667,-0.0079919,0.58229,-0.58928,-0.18356,-0.06087,-0.43659,-0.084608
0.085376,0.15687,-0.096208,-0.39018,0.26756,0.20555,0.49772,0.17823
0.086592,0.13078,-0.028951,0.7233,0.015376,-0.16258,-0.48444,0.15974
-0.13921,-0.1855,0.11516,-0.29364,-0.16001,-0.12606,-0.086239,-0.649
0.072906,-0.014467,0.2208,-0.40772,0.139,0.22968,0.68494,0.1264
0.020714,-0.23374,0.007298,-0.038867,0.0058399,0.0068129,-0.43582,0.25152
-0.029405,0.3184,-0.18223,0.40853,-0.11391,0.034092,0.62265,-0.20294
0.0012055,-0.072043,-0.66959,-0.032763,-0.078755,-0.2271,-0.77165,0.0057727
0.07373,-0.39419,0.30888,-0.064988,0.24538,0.27035,-0.0086542,0.63601
-0.14784,0.57138,0.61046,0.38993,-0.13227,-0.11419,0.060499,-0.45253
0.047053,0.11947,-0.54812,-0.8489,-0.57776,-0.21683,-0.32988,-0.017516
0.0014711,-0.10606,0.42508,0.42701,0.64379,0.32155,1.0305,-0.16046
0.019159,-0.095964,-0.072987,0.081204,0.071016,-0.18687,-0.5161,0.095318
0.020853,-0.16195,-0.38713,-0.054949,0.27285,0.015425,0.15365,0.0079228
0.0053312,-0.068156,0.26341,-0.0021614,-0.10434,0.14698,0.3505,0.023094
0.018318,0.32162,0.1131,0.17994,-0.46901,-0.0267,-0.40316,0.063159
-0.011385,0.0057221,-0.44683,-0.27826,-0.13537,-0.16182,-0.59143,-0.21533
0.064223,-0.34247,0.14713,0.66008,0.27091,0.077752,0.12338,0.32042
-0.13752,0.12518,0.15388,-0.23131,0.00038831,-0.034237,-0.052608,-0.25969
-0.029905,-0.43644,0.24631,-0.76181,0.007967,0.010391,0.46227,0.34041
-0.041316,0.2846,0.011117,-0.03507,0.061802,0.016636,0.36645,-0.29438
0.0017318,0.021507,-0.33251,0.16733,-0.2338,-0.070022,-0.50229,0.084899
0.21024,0.47428,-0.15936,0.0016793,0.045387,0.28945,0.47331,-0.069417
0.030873,0.26989,0.53836,0.59174,0.52588,-0.1083,-0.63043,0.015774
-0.043315,-0.33472,-0.66922,-0.066424,-0.2294,-0.162,0.042731,0.059449
-0.10578,-0.36617,-0.06386,0.074427,-0.28359,-0.082878,0.34056,-0.062636
-0.055168,-0.11017,0.42384,-0.02011,0.17434,0.19142,0.40797,0.064709
0.09225,0.13178,0.44095,-0.58243,0.025317,0.035945,-0.55434,-0.22915
-0.00034989,0.1528,-0.13145,0.63037,-0.099803,-0.064722,-0.44563,0.17405
-0.068366,-0.033794,0.15808,-0.0056776,-0.1637,-0.11029,0.19599,0.10306
0.051207,-0.038063,-0.70726,-0.45651,0.1291,0.047907,0.091638,0.10481
-0.041084,-0.24991,-0.52454,-0.61513,-0.20685,-0.066661,-0.052511,-0.29777
0.060095,0.35571,0.73842,0.65175,0.49168,0.11604,0.44609,0.2303
0.12743,-0.1099,0.013262,-0.24679,0.060055,0.25165,0.21435,-0.085511
-0.17551,0.011061,0.08373,1.0137,-0.072305,-0.2075,-0.58317,-0.11337
0.03391,0.21164,0.16327,-0.28101,-0.19421,-0.0435,0.31832,0.083632
-0.025345,-0.1176,-0.0038231,-0.51793,-0.18751,-0.038102,-0.26265,-0.096184
-0.024539,0.022483,-0.41609,-0.32752,0.11365,0.12901,0.14059,0.058467
0.013822,-0.28355,0.21641,0.25184,-0.13204,-0.26025,-0.22367,-0.014263
0.067419,0.33782,0.011274,0.66468,-0.0078228,0.06096,-0.012597,0.10043
-0.026686,-0.34908,-0.046994,0.01065,0.25432,0.055109,0.43016,0.028157
-0.0019274,0.19393,-0.091251,-0.4236,0.085599,0.067411,-0.24594,-0.051037
-0.0061423,-0.11172,-0.082672,-0.39811,-0.084078,-0.018319,-0.34401,0.019129
-0.02354,0.10892,0.079772,0.33567,0.14262,0.079422,0.30167,-0.11315
-0.007537,-0.05022,0.27012,-0.16016,-0.1584,-0.022774,0.020404,-0.034221
0.072432,-0.0028679,-0.35684,0.021209,0.033563,0.11908,0.08597,0.14607
0.027926,0.32184,0.6033,0.22476,-0.16698,-0.24676,0.052346,0.021062
-0.032678,-0.08299,-0.28898,-0.063793,-0.074521,0.088868,0.06636,-0.057942
-0.03209,-0.082947,-0.19165,0.13312,0.16155,-0.094209,-0.13191,0.026183
-0.041092,-0.066165,0.12076,-0.027804,-0.028862,-0.038977,-0.10696,-0.10922
-0.028418,-0.24013,-0.33632,0.054861,0.074185,0.15293,-0.03203,0.012746
0.092397,0.071172,0.13314,-0.15057,-0.043068,-0.14291,-0.094846,0.01753
-0.0449,-0.30777,-0.11015,-0.089769,0.027723,0.26991,0.1509,0.0071337
0.013975,0.55603,0.31026,0.20602,0.015022,-0.13071,0.090074,0.17721
0.020164,-0.085997,0.42673,-0.16108,-0.087618,-0.046534,-0.094905,-0.018908
-0.07233,-0.016276,-0.51817,-0.41665,-0.029589,-0.0075611,-0.13561,-0.17494
0.072851,0.25331,-0.032681,0.21385,0.142,-0.028462,0.28277,-0.0096778
-0.0053785,-0.33072,0.24148,0.42644,0.0042981,0.094466,-0.010291,0.062717
0.02039,0.043807,-0.3768,0.017927,0.0088761,-0.037081,-0.14754,-0.067247
-0.01508,0.31397,-0.013905,0.1201,-0.0022889,-0.009379,-0.028677,0.069019
0.058672,-0.011276,0.43853,-0.26889,-0.20274,-0.088843,-0.038954,-0.052177
-0.072248,-0.15429,-0.21519,-0.18251,0.070332,0.074928,0.24027,0.02971
-0.0026927,-0.13809,0.10344,0.14285,0.066295,0.050854,-0.085123,0.0876
-0.084838,-0.26276,-0.04973,-0.15351,0.00395,0.0094029,0.1067,0.17562
0.071912,-0.20008,-0.21973,0.20155,0.048023,0.20723,0.047888,-0.31606
-0.024109,-0.0030699,0.0019809,-0.29909,-0.15194,-0.27819,-0.47335,0.065484
0.049901,-0.045897,0.047458,-0.06022,0.038179,-0.12643,-0.0266,-0.10922
0.013817,0.63788,0.31718,0.74805,0.18999,0.046204,0.28093,0.04323
-0.045328,0.38486,-0.093812,-0.35702,-0.16422,0.038184,-0.071028,0.008122
0.037411,0.14351,-0.14617,-0.17894,-0.016002,0.14056,0.2883,0.15362
0.036015,-0.0091705,-0.059513,0.12652,0.1348,-0.058779,-0.075282,-0.0351
-0.064973,-0.56075,-0.16385,-0.20643,-0.14966,0.058873,-0.15925,-0.057578
-0.023552,0.033377,0.68659,0.53239,0.059577,-0.1386,-0.0012619,0.023657
0.027014,-0.23318,-0.50338,-0.70507,-0.027616,-0.04216,-0.0074251,-0.065317
0.039234,-0.34562,-0.064717,0.15792,0.040703,0.10467,-0.04593,0.11216
0.0046324,-0.15033,0.44579,0.30738,0.10714,0.11219,0.037539,-0.077744
-0.053966,0.19866,-0.035315,0.015463,-0.13391,-0.037877,0.1233,0.028048
-0.0042343,0.18258,-0.53884,-0.18754,-0.073612,0.25344,0.16965,-0.00092201
-0.034,0.53219,-0.06303,0.17458,0.10045,-0.35958,-0.16158,-0.086937
0.020635,-0.095288,-0.042719,-0.022649,0.029333,-0.11224,0.010963,0.082521
0.065893,0.077348,0.26716,-0.1762,-0.1455,-0.082296,-0.4303,0.0078754
0.054983,0.27491,0.67363,0.060101,0.092723,-0.080715,0.21064,-0.044511
-0.043161,-0.35275,-0.38462,-0.30284,0.065569,0.41048,-0.10377,0.012203
-0.064192,-0.088181,-0.19688,0.16009,-0.030448,0.034503,0.17518,-0.055458
-0.023339,-0.30806,0.047843,0.29538,0.04004,0.0046449,0.21315,0.057941
0.025207,-0.10596,-0.2934,-0.10631,-0.10509,0.14294,0.46416,0.2357
-0.011767,0.28727,0.1284,-0.0059671,-0.035852,-0.31525,-0.63426,-0.23294
0.0068678,-0.26936,0.45177,0.00087492,0.068006,-0.13523,-0.42666,-0.059
0.018978,0.10227,-0.38699,-0.10473,0.049779,0.10462,0.42152,-0.0084448
0.055972,0.26689,0.19817,0.35262,-0.05225,-0.12764,-0.35704,-0.073946
0.016218,-0.035077,-0.16624,-0.037756,0.073398,0.2138,0.62663,0.28297
-0.022422,-0.0016986,0.20224,-0.31084,-0.011918,0.018045,-0.0038508,-0.063336
-0.091566,-0.17697,-0.78658,-0.26586,-0.12182,0.056688,0.18827,0.074044
0.0037259,0.36883,0.58979,0.22158,0.0083821,-0.023933,-0.68748,-0.21943
0.005345,0.00015319,0.09998,-0.019223,0.065503,0.031945,-0.020508,-0.022147
0.045919,-0.29567,0.0033706,0.22515,0.041416,-0.058583,0.14463,-0.0059909
0.031613,0.46778,0.065188,-0.081157,-0.00132,-0.1011,0.17821,0.19645
-0.053222,-0.77742,-0.037336,0.010433,-0.0075848,-0.12675,0.036637,-0.055096
-0.013282,0.16026,-0.23803,0.018309,-0.12506,0.12346,-0.57415,-0.08836
0.042024,0.49032,0.1065,0.092868,0.037906,0.065669,0.55067,0.0031996
0.042319,-0.2547,0.55379,-0.0069943,0.12308,0.085351,0.38782,0.063468
-0.059355,-0.11023,-0.50933,-0.26532,-0.016835,-0.080304,-0.056287,0.18616
-0.075571,-0.53201,-0.41282,0.059879,-0.10739,-0.014694,-0.71403,-0.31639
0.13427,0.45433,0.43769,0.093134,-0.046339,0.018453,0.32526,0.08686
-0.031328,0.50209,-0.17354,-0.23647,0.15101,-0.13612,-0.41837,-0.049535
-0.064406,-0.088741,-0.14016,0.40638,0.031351,0.19344,0.4507,0.14943
0.011845,-0.19229,0.36374,0.075692,-0.11686,-0.056415,0.35257,-0.050421
0.049293,0.22921,-0.023767,-0.50269,0.033474,-0.020425,-0.36953,0.03883
0.017004,-0.16302,-0.056602,0.2407,-0.050148,0.048892,-0.050765,-0.011918
-0.053495,-0.30221,0.11076,-0.22637,0.12312,-0.03873,-0.19708,-0.17855
-0.044838,-0.17607,-0.061352,0.25119,0.020806,0.042233,0.28786,0.047377
0.058636,0.20514,-0.1148,0.21112,-0.17832,-0.02278,-0.24163,0.033466
-0.0088274,0.34799,0.055411,-0.10577,-0.052877,-0.21936,-0.18166,-0.10306
0.057177,-0.2632,0.20203,-0.2241,0.17842,0.25695,0.3128,0.25453
0.084384,0.30993,0.0077231,0.10532,0.11767,0.11787,0.94487,0.50382
-0.24012,-0.48587,-0.46088,-0.10978,-0.16381,-0.36152,-0.94298,-0.84851
0.059873,0.077634,-0.033882,0.053199,0.0071582,0.21158,-0.11853,0.11051
0.054487,0.36138,0.3746,0.11145,-0.12576,-0.13701,0.33771,0.083257
0.017152,-0.070825,-0.10875,0.043778,-0.045551,0.016737,-0.45122,-0.10239
0.07305,0.094506,0.20647,-0.022208,0.35045,0.25249,0.29485,0.33507
-0.1525,-0.18106,-0.34823,-0.31054,-0.10906,-0.13216,-0.26007,-0.21308
-0.041937,-0.56133,-0.17597,0.10259,-0.11165,0.018753,0.10357,-0.074197
0.10036,0.70356,0.41295,-0.039786,-0.0096535,-0.16306,0.15263,0.02583
-0.0067359,-0.32469,-0.0024211,0.19918,0.062821,0.16442,0.31807,0.1811
0.019454,-0.17112,0.36657,0.035894,0.0025482,0.038276,-0.34448,-0.045952
0.030048,0.46631,-0.3096,0.029074,0.073432,-0.11366,0.1108,0.12552
-0.022523,0.13093,-0.32953,-0.0056325,-0.038497,0.035369,-0.01907,-0.28166
0.017182,-0.072057,0.4226,0.11471,-0.099803,-0.007434,-0.11692,0.067855
-0.0078343,-0.23263,-0.66294,-0.019524,0.061169,-0.030909,-0.088992,-0.0059643
-0.058999,0.20077,0.57883,0.11399,-0.10972,-0.11999,-0.1148,-0.034338
-0.05047,-0.39819,-0.32655,-0.7643,-0.0018672,0.12533,0.21995,0.076905
0.033738,0.088667,0.061228,0.10798,0.14415,0.058402,0.032614,0.0081757
0.069401,0.086653,0.1903,-0.035965,0.033172,0.0012299,0.22937,0.072837
0.010712,-0.19556,-0.11692,0.13155,-0.16148,0.048849,-0.16678,-0.11111
-0.04738,0.34265,-0.054854,0.47637,0.13925,-0.13397,-0.18782,-0.089938
-0.0021614,-0.1119,0.78212,-0.07549,-0.11123,0.093503,0.087236,0.035041
0.014516,0.26745,-0.61578,0.31278,0.19606,-0.089502,-0.022083,0.14651
0.042374,-0.38972,-0.32958,-0.32222,-0.10385,0.081807,0.3119,0.087715
-0.019844,0.075004,0.13743,0.13164,-0.10589,-0.042051,-0.27012,-0.0014252
-0.047204,-0.14365,-0.30375,-0.51957,0.11059,-0.032465,-0.2285,-0.1998
-0.016688,0.11517,0.82098,0.14748,-0.096001,0.03147,0.18781,-0.10178
0.016297,0.29918,-0.18528,-0.028536,0.0081011,0.023975,-0.098113,-0.004573
0.0039099,0.17509,0.12216,-0.11314,0.032141,-0.063314,0.16481,0.10735
0.07003,-0.32652,-0.79547,0.40847,0.062347,0.034902,0.12563,0.14816
-0.028695,-0.20373,0.23478,-0.37668,-0.049111,0.013801,-0.0047389,-0.038282
0.042605,0.37557,0.4488,0.2994,0.10479,0.04529,-0.14102,-0.076926
-0.068454,-0.49594,-0.34714,-0.076022,-0.20173,-0.065771,-0.081218,0.039969
0.0048641,0.19906,0.16064,0.14043,0.024133,0.094985,0.28276,0.10133
-0.049948,-0.44181,0.0038957,0.12277,0.032704,-0.081387,-0.26896,-0.21326
-0.037158,0.37542,0.15884,-0.4636,0.0036232,-0.1881,-0.22932,-0.052177
0.10647,-0.00093553,-0.047456,-0.0088518,0.25677,0.32231,0.37017,0.24889
-0.040026,0.44776,-0.23359,0.19769,-0.15388,-0.16678,-0.16561,-0.20023
0.039851,-0.082496,0.075648,-0.24321,-0.080742,0.063849,0.32006,0.12445
0.018694,0.015979,-0.3315,0.67517,-0.02454,-0.055875,-0.28155,-0.089045
0.021981,-0.14297,0.58407,-0.18104,-0.009161,-0.06503,-0.09478,-0.0043703
-0.035981,0.054012,-0.090595,-0.45324,-0.019043,0.20015,0.41225,0.19894
-0.045747,-0.23975,0.10761,0.10841,0.039862,-0.12024,-0.26767,-0.11203
0.00048718,0.18571,-0.45891,0.28575,0.035278,-0.0034063,-0.11826,-0.062599
-0.030118,-0.63687,-0.044457,-0.56847,-0.055633,0.057837,0.12677,0.018672
0.018668,0.19462,0.12001,0.078589,0.13483,0.078708,0.069712,0.0063434
0.0765,0.1226,0.076206,0.75966,0.02888,-0.14396,-0.18723,0.017269
-0.0051706,0.28457,0.18468,-0.60245,-0.08425,-0.055099,0.036079,0.0044003
-0.1094,-0.12886,-0.15682,0.21109,-0.048242,-0.0289,0.05999,-0.071328
0.060285,0.39845,0.15835,0.004076,-0.058338,-0.02525,-0.084708,-0.030108
0.065802,0.051628,0.05551,-0.014239,-0.036277,0.25379,0.40566,0.21417
-0.0779,-0.45529,-0.22064,-0.18188,0.13534,-0.042515,-0.26724,-0.17431
0.10505,0.48903,0.42622,0.43668,0.050487,-0.038807,-0.003492,0.077937
-0.073404,-0.52714,-0.55493,-0.44123,-0.064107,-0.016523,0.03128,0.0098703
-0.074521,-0.39034,-0.22887,-0.089498,-0.02874,-0.16389,-0.39845,-0.12872
0.070482,0.46096,0.25605,0.28939,0.054851,0.22106,0.40987,0.15408
-0.012992,0.075586,0.23811,-0.11546,-0.055888,-0.073972,-0.12183,-0.1108
0.0039106,-0.17491,0.018317,-0.03616,-0.017735,-0.081654,0.0069874,0.0061105
-0.010682,-0.19886,0.015878,0.16252,0.051505,0.1265,0.070651,0.051537
0.030156,0.22815,-0.17021,-0.1189,0.034008,0.049671,0.19518,0.2052
-0.099278,0.20421,-0.23082,-0.090021,-0.094219,-0.17179,-0.30591,-0.36081
0.1094,0.13762,-0.069267,0.21038,0.088313,0.071844,0.044863,0.11952
0.039205,0.074684,0.54189,0.039358,-0.051353,0.00027854,-0.017325,-0.040779
-0.036651,-0.16721,0.093601,-0.010976,0.065063,-0.056909,0.070649,-0.044312
-0.0015497,-0.022131,-0.034433,-0.13024,-0.0073081,0.097312,-0.0033001,0.26559
-0.098477,-0.54175,-0.29958,-0.039297,-0.16623,-0.12129,-0.028089,-0.095288
0.077944,0.24638,-0.073452,-0.005437,0.0031355,0.038644,-0.08983,-0.18175
0.0034872,0.37075,0.3044,0.15799,0.087434,-0.062717,-0.032781,0.044862
0.0057054,-0.4353,-0.37901,-0.19735,0.09494,0.24653,0.36883,0.16993
-0.032865,0.13338,0.040269,-0.015825,0.049185,-0.0030794,-0.18282,0.028858
0.012833,0.18777,0.19672,0.29787,-0.034511,-0.078483,0.10829,0.011988
0.041598,-0.051308,-0.32871,-0.31705,-0.12551,-0.059407,-0.14902,-0.19304
-0.055342,-0.081841,-0.032893,0.023696,0.0019751,-0.088034,-0.1501,-0.109
0.0039862,0.13674,0.3366,0.18028,0.026901,-0.017139,-0.074094,0.11677
-0.021897,-0.074454,0.21055,-0.073986,-0.04347,0.090075,0.19718,-0.0066404
-0.023068,-0.0043654,0.29928,0.072328,0.0093396,-0.024366,-0.022602,-0.017191
0.086683,-0.090836,-0.22729,0.10955,0.13068,0.061691,0.095654,0.062161
-0.005204,0.040679,-0.63749,-0.15987,-0.038496,0.012856,0.060235,0.066924
0.091522,0.24155,0.30054,-0.019329,0.033636,0.0016588,-0.13687,-0.098082
-0.10028,-0.16751,-0.41478,-0.11101,-0.12872,-0.018145,0.15974,0.28366
-0.042153,-0.099377,0.48978,0.072287,0.029977,0.0086666,-0.13716,0.0064196
0.046663,0.072908,-0.015913,0.24196,-0.090987,-0.089366,-0.036772,-0.2837
-0.060612,-0.3591,0.02339,-0.49902,0.071549,0.016172,-0.087199,-0.0022459
-0.035777,0.2087,-0.10858,0.12487,0.08823,0.0051366,0.031102,-0.27445
0.10585,0.23147,0.15291,0.1081,0.021444,0.11976,0.29449,0.24455
-0.06504,0.13202,-0.08132,0.50742,-0.090329,-0.11658,-0.28104,0.0022725
0.02217,-0.066773,-0.13908,-0.37097,0.13476,0.077184,0.047522,0.063941
0.070643,-0.29673,0.18965,-0.1122,-0.10131,-0.0022758,0.015681,0.080601
-0.076157,0.0011003,-0.24565,0.018273,-0.06527,-0.089546,0.01527,-0.047391
0.042111,0.0019421,0.29439,-0.050274,0.05456,0.041796,-0.054186,-0.030084
0.049674,0.43538,-0.052734,-0.060834,-0.031264,0.0010857,0.12062,0.15576
-0.030773,-0.23421,0.17903,0.024545,0.013303,0.022765,0.047895,0.02473
-0.012213,0.04459,-0.19169,0.22015,-0.029955,-0.025832,-0.28018,-0.26063
-0.050917,-0.26107,-0.016546,-0.10833,0.050704,-0.027348,0.22192,-0.076798
-0.060426,0.34142,-0.051673,0.25639,0.029606,0.033982,-0.024613,0.13759
-0.0319,-0.67675,-0.52817,-0.24167,-0.053416,0.0097778,-0.09877,-0.11022
0.10632,0.39159,0.2301,-0.017348,0.020915,0.0015598,0.068883,0.10942
0.089993,0.18421,0.61022,-0.13327,0.080937,0.071701,0.03226,0.046847
-0.056291,0.010802,-0.33761,-0.05753,-0.037489,-0.053398,0.04081,0.093125
-0.02717,-0.31972,-0.025881,0.06277,-0.13933,-0.076991,-0.077592,-0.095126
-0.025683,0.55483,0.34179,0.45596,0.056293,-0.014749,-0.17442,-0.095869
0.064871,-0.14575,0.30214,-0.30574,0.10374,0.063083,0.15699,0.059591
-0.022062,-0.50019,-0.75764,-0.10347,-0.012834,-0.015213,0.17508,0.11324
0.071743,0.37225,0.11204,0.087491,-0.03565,0.063061,-0.23654,-0.16169
-0.084525,-0.21887,0.010056,-0.068149,-0.12865,-0.014412,0.12604,0.10189
-0.046431,0.25437,-0.19763,0.023357,0.059971,-0.060011,-0.064547,-0.056848
-0.033202,-0.062721,0.083155,0.16605,0.053894,0.035685,-0.0030358,-0.06721
0.080112,0.22582,0.17446,-0.078753,0.04078,-0.039853,-0.001509,0.13389
0.012555,-0.14707,-0.077584,-0.22041,0.067485,0.080476,0.15898,-0.03881
-0.079156,-0.50984,0.14957,0.2785,-0.17871,-0.0018785,-0.11534,-0.10815
0.071039,0.18509,-0.025437,-0.13045,0.028359,-0.12298,-0.1685,0.051205
-0.0053913,0.11095,0.10863,0.20003,0.11011,0.084228,0.10048,0.048526
0.082081,0.32384,0.34782,-0.16819,0.011406,-0.044455,-0.02801,0.00041154
-0.10446,-0.55809,-0.85639,-0.1883,-0.15086,0.022051,0.18703,0.11676
0.06718,0.62153,0.22062,0.022987,-0.033048,0.056968,-0.1777,-0.080312
-0.036456,-0.013058,-0.047932,0.14616,0.11495,0.013162,0.22782,-0.0061617
-0.02518,-0.3616,0.071069,0.05708,0.012162,-0.047144,-0.0587,-0.060206
0.030653,0.34026,0.26456,0.084579,0.010511,-0.038257,-0.17099,-0.05532
-0.0091094,-0.369,0.0092178,-0.15377,-0.014634,0.0084196,0.17204,0.17292
-0.041924,0.13633,0.094829,0.12337,-0.062974,-0.016514,-0.31792,-0.30407
0.00389,-0.23528,-0.46963,-0.013803,0.068802,0.082378,0.16545,0.19499
0.012666,0.097776,0.028191,-0.08099,0.044801,0.0006655,0.030667,0.11721
-0.053287,-0.10255,-0.05096,-0.11716,-0.17414,-0.058172,0.092758,-0.098268
0.025698,0.0035613,0.067365,-0.12199,0.0055128,-0.039051,-0.20067,-0.083177
0.14048,0.45782,0.59445,0.2332,0.16153,0.027157,0.13637,0.08469
0.017071,0.057832,-0.33736,0.11299,0.027901,0.031373,0.026377,0.068873
-0.11143,-0.35417,-0.057434,-0.13069,-0.083256,-0.010611,-0.046737,-0.13192
0.018844,0.18705,0.018491,0.1819,0.06219,0.088726,0.18902,0.18363
-0.062804,-0.29207,-0.36128,-0.3011,-0.12952,-0.084776,-0.096536,-0.088027
0.05594,0.32049,0.6223,0.21663,0.045039,0.031216,-0.085343,-0.011146
0.030064,0.18432,-0.42183,0.10166,-0.0072898,-0.071263,-0.091817,-0.094699
-0.078513,-0.64885,0.053638,-0.34961,-0.090394,-0.0094871,0.023439,0.0047274
-0.01963,0.12471,-0.012486,0.23759,0.11687,0.052487,0.010075,0.068929
0.0044004,-0.064294,-0.079319,-0.246,0.029215,-0.0024455,0.071701,-0.072684
0.049536,0.20859,0.065994,0.059319,-0.0014665,0.0055137,-0.071844,0.026936
0.023493,-0.10023,0.22189,0.1383,-0.0065231,-0.025114,0.033912,0.049279
0.021425,0.27024,-0.056109,0.069313,0.013555,0.069749,0.13241,-0.019777
-0.0024082,0.17385,-0.10394,0.10233,-0.012301,-0.038087,-0.080149,0.078496
-0.031635,-0.13838,0.16352,-0.20828,-0.014609,-0.0050006,-0.033085,-0.022888
-0.04249,-0.45576,-0.20031,-0.14425,-0.048774,-0.018648,0.093775,0.042775
0.043103,0.40801,0.35003,0.13771,-0.013688,-0.016669,-0.12198,-0.084886
-0.01738,-0.14245,-0.63193,0.34051,0.035826,0.047712,0.022034,-0.06337
-0.021333,-0.053988,0.056315,-0.38723,-0.017271,-0.020868,-0.037437,-0.057992
