-0.26192,0.080422,0.057727,0.043943,0.017419,-0.0033068,0.033975,0.022194
0.13399,-0.016074,-0.030744,-0.012634,-0.0068928,0.011503,0.065671,-0.015606
-0.17409,-0.073333,-0.033671,-0.045993,-0.039391,-0.021389,-0.035643,-0.076077
-0.0052282,-0.020584,0.0024777,-0.024584,-0.0017609,-0.015746,-0.072877,0.084628
0.58735,0.041075,-0.0077538,0.012892,0.020333,-0.0023598,0.033615,-0.000857
-0.49646,-0.0051897,0.0064037,0.027721,0.003748,0.011472,0.081634,-0.050518
-0.099295,0.0047822,0.037453,0.0045165,-0.0044071,0.0027573,0.0087724,0.044895
0.0058571,-0.054285,-0.039533,-0.017611,-0.0040315,0.0030035,-0.068588,0.0577
0.0060515,0.059109,0.017405,0.023652,0.028238,0.035639,0.043288,-0.045359
0.28268,0.133,0.07494,0.041966,0.021842,0.014436,0.1236,0.16283
0.54445,0.041201,-0.055141,-0.017903,-0.015775,-0.022057,-0.11884,-0.015723
-0.82847,-0.20949,-0.037662,-0.04715,-0.038138,-0.027586,-0.060766,-0.23165
0.22398,0.067855,0.064254,0.0006475,0.009106,0.012892,0.031212,0.12316
-0.081068,-0.09537,-0.030959,0.00026173,-0.0070378,-0.010405,-0.10857,-0.23253
-0.37674,-0.010727,-0.034132,-0.0013728,-0.00061456,-0.019494,0.083323,0.022853
0.58026,0.081216,0.031847,0.011706,0.020778,0.017025,-0.063324,0.18067
-0.2781,-0.090997,-0.097729,-0.030275,-0.02062,-0.02545,0.047315,-0.037459
0.012065,0.0057989,0.031361,-0.0016925,-0.030626,-0.013563,0.19075,0.12916
0.1958,0.19331,0.09985,0.082399,0.10054,0.11575,-0.06882,0.089215
0.0095579,-0.004529,-0.016516,-0.011978,-0.040882,-0.043296,-0.019323,-0.13997
-0.5693,-0.15855,0.0028365,-0.034671,-0.032893,-0.045101,-0.10564,-0.20602
0.2788,0.026594,-0.02209,-0.024863,0.015069,0.047901,0.023564,0.086307
0.66115,0.079953,-0.037454,0.0014579,-0.022239,-0.053482,-0.093421,0.033106
-0.042322,0.14751,0.088324,0.051568,0.0423,0.0020309,0.081266,0.086147
-0.060972,-0.16356,-0.044582,-0.031402,-0.01833,0.02658,0.22585,0.13434
-0.5294,-0.065666,-0.0077657,0.0097591,0.053239,0.04324,-0.16906,-0.16014
-0.35387,-0.16862,0.0025372,-0.036365,-0.087095,-0.10453,-0.26119,-0.24443
-0.016847,0.043841,-0.029674,0.03308,0.052674,0.10655,0.31544,0.09854
0.71952,0.19042,-0.018204,0.014963,-0.035238,-0.0032083,0.23975,0.31275
-0.47674,-0.0080916,0.061236,0.0033239,-0.014648,-0.097689,-0.33216,-0.26687
0.42106,0.14565,0.04588,0.037786,0.0758,0.057783,-0.10294,0.13251
-0.0075942,-0.25295,-0.15654,-0.13089,-0.091513,-0.075503,0.0065605,0.10447
-0.13108,0.086105,0.07254,0.029364,0.046404,0.033988,-0.18981,-0.42104
-0.125,-0.094901,-0.094069,-0.058843,-0.04133,0.034803,0.41087,0.4005
0.31759,0.047112,0.047032,0.026801,0.028268,0.0049253,-0.041943,-0.29688
0.47187,0.29997,0.2922,0.27068,0.11452,0.092401,0.069406,0.21509
-0.52659,-0.22062,-0.29731,-0.25736,-0.056261,-0.047066,0.018263,0.12592
-0.2038,-0.10971,0.089292,0.066824,-0.078169,-0.07026,-0.17238,-0.17937
-0.53549,0.17873,0.26276,0.17969,0.064096,0.077196,0.20797,0.0045354
0.1936,-0.29288,-0.21569,-0.16187,-0.07497,-0.065556,-0.3017,-0.2267
0.15448,0.18707,-0.18245,-0.052144,0.035886,-0.06047,0.010014,0.011056
0.32385,-0.044221,-0.10561,-0.092612,-0.0015846,0.077776,0.019128,0.16349
0.04465,-0.094634,0.047766,0.014289,-0.069895,-0.17311,-0.29659,0.21417
-0.045966,0.091839,0.1081,0.019704,0.065612,0.094139,0.43097,0.0048268
-0.33811,0.23471,0.27311,0.20616,0.1082,0.14576,-0.0012016,0.032399
0.71157,-0.087904,-0.15846,-0.12843,-0.059402,0.075416,0.28087,-0.39424
-0.036491,-0.15805,-0.14669,-0.061725,-0.08599,-0.16461,-0.34215,0.15101
-0.25491,0.19479,0.097123,0.10129,0.082573,-0.0054859,-0.021594,0.032447
-0.022341,-0.17158,0.0089421,-0.031025,-0.054356,0.08217,0.30991,0.014002
-0.48572,0.10088,0.16453,0.16476,0.072939,0.026226,-0.060817,0.095428
0.19577,-0.10589,0.20186,0.1088,0.026553,-0.034089,-0.15026,-0.073632
-0.39876,-0.15141,-0.59236,-0.47378,-0.17801,-0.21662,-0.57482,-0.38143
0.6648,0.066351,-0.07126,0.0021533,0.037603,0.0022848,-0.12131,0.16727
-0.16155,0.16546,0.25692,0.16946,0.08013,0.13149,0.41649,0.04431
0.12953,0.029722,-0.029048,0.0055948,-0.010672,0.11013,0.69784,0.53357
-0.13524,0.0115,0.072327,0.035478,0.00030328,-0.020817,-0.21263,-0.23037
0.064,-0.060649,0.070742,-0.0047828,-0.011311,-0.048564,-0.15789,-0.14508
0.22087,-0.0070116,-0.063224,0.0114,0.040846,0.067467,0.4319,0.21149
-0.19721,0.086208,-2.8907e-05,0.014843,0.008502,-0.10141,-0.57737,-0.14519
0.50952,-0.10169,0.050195,-0.025219,-0.069373,-0.1173,-0.28081,-0.30903
-0.73364,-0.078851,-0.076445,0.00040079,-0.013391,0.16802,-0.038732,-0.20204
-0.07151,-0.017315,0.057194,0.044065,0.035396,-0.12123,-0.21859,-0.027606
0.024162,-0.073343,-0.16677,-0.12973,-0.0094195,0.16215,0.67205,0.40877
0.39588,0.2922,0.12583,0.11057,0.078299,0.079163,0.31327,0.4569
-0.45573,-0.2097,-0.034544,-0.033023,-0.068942,-0.12171,0.12715,0.05928
0.4636,0.31153,0.093653,0.0011766,0.001856,-0.12142,-0.90993,-0.28764
0.21149,0.10576,-0.075931,-0.01375,0.048587,0.2746,0.90481,0.1313
-0.7481,-0.50679,-0.027856,-0.0073774,-0.10034,-0.29312,-0.94458,-0.79595
0.10279,-0.041678,0.089465,0.044259,0.016414,-0.011507,0.14343,0.12484
0.34342,0.048241,-0.14566,-0.10804,-0.030393,0.018884,0.21605,0.33208
0.020283,0.20092,0.095145,0.044426,0.064251,0.017965,-0.2262,-0.27311
-0.06377,0.065291,0.030919,0.080573,0.073887,0.18199,0.35614,0.28186
0.37746,0.024521,-0.0099804,0.00092363,-0.025101,-0.0042489,0.40058,0.53239
-0.36236,-0.14782,-0.019574,-0.030281,-0.045655,-0.0097088,-0.27305,-0.32254
0.32348,0.10286,-0.0055646,-0.0053966,0.035065,-0.022659,-0.42345,-0.63968
-1.0118,-0.13778,0.00087784,-0.010793,-0.064792,-0.051964,0.31563,0.58229
0.65514,0.20028,0.077966,0.046715,0.037152,0.034222,-0.30653,-0.0081959
-0.54138,-0.2582,-0.13356,-0.05217,0.012621,-0.11621,-0.14953,-0.50596
0.35384,-0.13054,-0.10231,-0.09693,-0.09913,-0.010976,0.52918,0.4934
0.16313,0.30193,0.20309,0.12316,0.085214,0.092878,-0.1524,-0.08257
0.42677,0.062553,0.071726,0.029956,0.011663,-0.092442,0.43969,0.41252
0.44169,0.065224,-0.10584,-0.048261,-0.045606,0.082957,-0.4355,-0.39785
-1.0196,-0.21376,-0.064188,-0.033136,0.023388,0.010974,-0.15957,-0.22531
-0.16952,-0.071583,-0.0067842,-0.01819,-0.02322,0.028295,-0.21606,-0.21816
0.37379,0.17899,0.15193,0.09829,0.080153,-0.0056857,0.020298,0.053983
-0.29615,-0.18873,-0.096219,-0.043039,-0.026276,0.0020197,0.41597,0.36539
-0.22534,0.059686,0.021932,0.003042,-0.022893,-0.067177,-0.023115,0.036723
0.94735,0.21353,-0.040603,0.04105,0.058222,0.1834,0.37195,0.40343
-0.35404,-0.15648,0.0053208,-0.046375,-0.096215,-0.13084,-0.32436,-0.28585
-0.049465,0.043884,0.03497,0.0063036,0.013235,-0.1207,0.071907,-0.056495
-0.34869,-0.1067,-0.068437,-0.050849,0.0035394,0.0098757,-0.31676,-0.25411
0.34208,0.025101,0.047121,0.016781,0.0076745,0.081103,0.04029,0.042034
-0.4706,-0.052517,0.014872,0.014257,0.0027084,0.023303,-0.003629,-0.37903
0.80462,0.12156,0.0069772,0.0045121,0.0050032,0.087674,-0.030402,0.37457
-0.25731,-0.0074582,9.809e-05,0.011362,-0.008058,-0.10705,0.12975,0.42227
0.30132,0.15376,0.048825,0.042843,0.050212,-0.059227,-0.10277,-0.18627
-0.66267,-0.34857,-0.16742,-0.096358,-0.077446,0.021692,-0.29261,-0.33879
0.35744,0.25043,0.1088,0.054466,0.04674,-0.019401,0.25161,0.092152
-0.44223,-0.088991,-0.036983,0.0027062,0.00086901,0.13848,0.49994,0.19432
-0.03557,0.03897,0.090151,0.044729,0.034655,0.050171,0.47436,0.17187
0.54238,0.071722,-0.0257,-0.023063,-0.02424,0.0044741,-0.68039,-0.29522
-0.52426,-0.19356,-0.017477,-0.013472,-0.02791,-0.21793,-0.3287,0.13645
0.40109,-0.060949,-0.088248,-0.067161,-0.015908,-0.039616,-0.16313,-0.38556
-0.038819,0.071875,0.02785,-0.0041892,-0.02767,0.085633,0.062145,0.067111
0.10907,0.10403,0.049941,0.043126,0.038145,-0.038088,0.11783,0.15672
0.084681,0.1687,0.048768,0.036326,0.064267,0.25278,0.22143,0.18562
0.024685,-0.12476,-0.045591,-0.024054,-0.035222,-0.12034,-0.16623,-0.13028
-0.24747,-0.1284,-0.076627,-0.02835,-0.049314,-0.13445,0.4475,0.28397
-0.27513,0.00076474,0.026036,-0.0078978,0.029883,0.077218,-0.2805,-0.20756
0.27466,0.1134,0.11381,0.083657,0.038362,0.092388,-0.029392,-0.083995
0.13527,-0.025649,-0.071484,-0.035835,-0.047292,-0.16739,-0.056571,-0.065569
-0.4267,-0.026286,0.047806,0.046554,0.054156,0.16482,0.13061,0.011742
-0.080535,-0.044893,-0.052272,-0.029686,-0.079214,-0.17677,-0.24061,-0.10056
0.48189,0.012539,-0.0049619,0.02363,-0.0021592,0.0030637,0.08083,0.15503
-0.18919,-0.0018355,-0.013642,-0.075141,0.043053,0.063672,-0.15368,-0.061577
0.36967,-0.0012877,-0.054909,-0.091391,-0.021789,0.17695,0.12778,0.011242
-0.082554,0.13221,0.082349,0.077293,0.076685,-0.047599,0.51273,0.26748
-0.21792,-0.084984,1.9654e-05,0.0025586,-0.028728,-0.07845,-0.35684,-0.17331
0.079548,0.035189,0.050064,0.068785,-0.0098123,-0.032257,-0.15192,-0.013092
0.011275,-0.046021,-0.024937,-0.0037679,-0.022575,-0.12696,-0.27842,-0.12702
-0.32276,-0.062913,-0.06058,-0.0029771,-0.0040991,0.09162,0.15403,0.077438
-0.048628,-0.02344,-0.040984,-0.05316,-0.055381,-0.0082384,0.50392,0.16086
0.31765,0.12676,0.11996,0.041101,0.011709,0.011904,-0.08952,-0.097727
-0.27059,-0.105,-0.077675,-0.0096949,0.03367,0.035382,-0.096723,-0.11445
0.82001,0.24948,0.069265,0.035782,0.081176,0.13246,-0.18342,0.10134
-0.60517,-0.17759,-0.056438,-0.057939,-0.056662,-0.080293,-0.038402,-0.099563
-0.053338,-0.027274,0.037365,0.012692,0.033922,0.16167,0.095457,0.048538
0.17131,0.075154,-0.0087194,0.0044948,-0.038297,-0.32261,-0.10996,0.1168
-0.26685,-0.1828,-0.022797,-0.012939,0.0071425,0.020405,0.002133,-0.049669
-0.023988,0.027237,-0.043883,-0.016549,-0.010276,0.025784,0.002862,-0.13682
0.0091193,0.0024782,0.0061931,0.024877,0.0024765,-0.033494,0.16638,-0.026154
0.40231,0.22763,0.11961,0.025642,-0.033232,0.19403,0.34466,-0.0294
0.17829,-0.031505,-0.094389,-0.045084,-0.023895,-0.14308,-0.392,0.27523
-0.31221,0.021924,0.028,0.0085003,0.038311,0.056922,-0.12978,-0.0038957
-0.19484,-0.19038,-0.013638,0.038416,0.052032,0.052026,0.068531,0.0064748
-0.2042,-0.020179,0.037997,-0.0018571,-0.013644,-0.0091796,0.0076626,-0.06298
0.23826,0.0089821,-0.028566,-0.010535,0.021372,0.021952,0.19596,0.035764
0.36792,0.20188,0.028398,-0.0031567,-0.01436,0.067697,0.001748,-0.089219
-0.24348,-0.034936,-0.041408,-0.018807,-0.057897,-0.34,-0.22963,-0.14913
-0.25074,-0.13849,-0.034931,-0.018516,-0.01505,0.081133,-0.41042,-0.14311
0.0035111,-0.092611,0.0011288,-0.0024196,-0.010413,0.1448,0.49222,0.11806
0.1447,0.071894,0.067166,0.052767,0.073531,-0.093133,0.15108,0.15993
0.41453,0.17555,0.030912,0.021887,0.018231,0.063479,-0.082372,0.22662
-0.34469,-0.1021,-0.091393,-0.056138,-0.020033,-0.025755,0.064065,-0.063392
0.028959,0.050908,0.036786,0.0060815,-0.010157,0.13866,-0.16182,-0.18622
-0.045072,-0.022521,0.025332,0.01318,0.008505,0.024261,0.14351,0.06096
-0.076778,-0.0030342,-0.047257,-0.027008,-0.03474,-0.042502,0.024327,0.060199
0.32303,0.061662,0.069221,0.049684,0.0081384,-0.14155,-0.17747,0.076352
-0.29913,-0.12577,-0.078345,-0.037815,-0.0038558,-0.079104,-0.26723,-0.42227
-0.36435,-0.088708,-0.021376,-0.0080267,0.014916,0.034516,0.3495,0.056614
0.33228,0.087514,0.067908,0.014291,0.0095608,0.16005,-0.11446,0.13854
0.39464,0.04455,0.0015215,0.0059124,0.0034067,-0.022283,-0.054977,0.082054
-0.22959,0.041421,0.036698,-0.0017777,-0.019189,-0.0035227,0.31185,-0.065453
-0.2026,-0.069207,-0.069342,-0.00093994,0.01996,-0.12594,-0.29319,0.17253
-0.015528,-0.013179,0.0031915,-0.0072978,-0.027455,0.080725,0.11523,0.013945
0.097265,0.037771,0.011752,0.010183,0.010617,0.063054,0.13041,-0.2459
0.2286,0.020643,0.0030796,0.0043255,-0.0062535,-0.24073,-0.24942,0.14094
-0.013734,-0.010941,0.0085482,0.0060424,0.0080632,0.24754,0.14477,0.00047334
0.0090969,0.12128,0.0050855,-0.00060133,0.0068516,-0.043183,0.21593,0.0028199
-0.25123,-0.099798,-0.061447,-0.015827,0.013658,0.12795,-0.19539,-0.071728
-0.014117,-0.058189,-0.0029087,-0.024096,-0.018338,-0.05328,-0.13067,-0.051199
-0.19325,-0.043608,0.071943,0.013725,-0.034447,-0.22139,-0.27858,-0.059375
-0.037258,-0.079436,-0.023904,0.0040987,0.035613,0.10668,0.26741,0.12469
0.86209,0.24133,0.084832,0.048908,0.043364,0.03975,0.19651,0.23823
-0.69623,-0.11907,-0.10962,-0.038982,-0.026852,0.0078274,0.19128,-0.24691
0.070731,0.051868,0.025375,-0.017036,-0.042231,-0.050355,-0.2291,0.039291
0.17163,0.021307,0.0050886,0.0056351,0.0050592,-0.015694,-0.31082,-0.22913
-0.22968,-0.14703,-0.053743,-0.025526,-0.025585,-0.057824,0.16839,0.19108
0.32647,0.14912,0.082765,0.069127,0.045519,0.012862,-0.070019,-0.0050341
-0.11512,-0.074607,-0.0468,-0.015313,0.030798,0.14319,0.13169,0.0011233
0.013306,0.024908,0.010261,-0.013591,-0.023039,-0.041261,0.11716,0.23
-0.28294,0.001144,-0.019838,-0.019919,-0.014682,-0.0097909,-0.20906,-0.080095
-0.0059261,0.024419,0.018906,0.012108,0.016506,0.11884,0.29834,-0.1442
0.67122,0.18687,0.071686,0.050861,0.039002,-0.017044,0.10412,0.11998
-0.6971,-0.31755,-0.080213,-0.067927,-0.080182,-0.13873,-0.41303,-0.18062
0.04599,0.057218,0.024369,0.030774,0.033949,0.017144,0.26689,0.031317
0.32378,0.022009,0.0030338,-0.019938,-0.02466,-0.097792,-0.41292,-0.047906
-0.17436,-0.016314,-0.057692,-0.016432,-0.013443,0.062863,0.0080205,-0.017286
0.0066202,0.005951,-0.00085776,0.010685,0.036854,0.06223,0.1168,-0.01384
0.016809,-0.0034267,-0.0054395,-0.016046,-0.013853,-0.066903,0.12674,0.11481
-0.16615,0.082077,0.11667,0.060185,0.053662,0.11509,0.29863,0.255
0.22375,-0.048799,-0.071634,-0.041528,-0.064953,-0.18638,-0.29425,-0.22352
0.33468,0.1047,0.039146,0.046075,0.052329,0.2104,0.084899,-0.00699
-0.34969,-0.027534,-0.019904,0.010288,-0.0085915,-0.021256,-0.0076361,0.0842
-0.17393,-0.13332,-0.014803,-0.039931,-0.021347,-0.12291,-0.20404,-0.17768
0.14268,0.036668,0.0070305,0.0042498,-0.0018708,0.045818,0.0031665,0.04139
-0.13433,-0.0028419,-0.048757,-0.053036,-0.044284,0.022953,-0.16062,0.028271
0.1752,0.098773,0.051625,0.029911,0.030699,-0.029047,0.45121,0.093329
-0.068559,-0.11249,-0.051718,-0.0050959,0.019538,0.044186,-0.054212,-0.17143
-0.22413,-0.059243,0.0079673,0.0057505,0.023388,0.10022,0.35217,0.11566
0.2168,0.13292,0.066271,0.01542,-0.051886,-0.18266,-0.69076,-0.11622
0.20721,0.018284,0.021381,0.062898,0.09808,0.10105,0.42563,0.17995
-0.019426,-0.0049406,-0.033081,-0.054946,-0.097232,-0.1111,-0.31378,-0.034226
-0.034962,-0.053946,-0.01896,-0.017722,0.0027712,-0.099535,-0.36036,-0.10146
-0.020896,0.098082,0.024909,0.041945,0.070156,0.15273,0.40574,0.026321
-0.28354,-0.20457,-0.10417,-0.070947,-0.066531,-0.016767,-0.12199,-0.2825
0.38701,0.19514,0.055344,0.019025,0.0073945,0.21376,0.63691,0.74649
-0.61097,-0.18618,-0.011502,-0.015777,-0.035466,-0.20935,-0.4883,-0.49542
0.16853,0.043122,0.031857,0.020434,0.016531,-0.012274,0.18168,-0.078299
0.37524,0.079206,0.037437,0.034279,0.0076801,0.070334,0.020028,0.060234
-0.0049113,-0.0070865,-0.018015,0.018137,0.047608,-0.14992,-0.42142,0.10724
0.092067,0.081181,0.013831,-0.01239,0.034648,0.22411,0.46349,0.14803
-0.21547,-0.023604,-0.031446,-0.02628,-0.016024,-0.051204,-0.22661,-0.15405
-0.14545,-0.14259,-0.0059208,-0.023917,-0.050423,-0.086506,-0.11875,-0.13561
0.25575,0.10597,0.011737,0.01767,0.00095565,0.062645,0.067463,-0.031565
-0.1678,0.03344,0.0054409,-0.0035543,-0.034511,-0.057138,0.066874,0.19669
-0.18937,-0.2127,-0.071985,-0.0098801,-0.0011268,-0.03919,0.31074,-0.044975
0.33169,0.16375,0.060599,0.060887,0.085209,0.11751,-0.52675,-0.19453
-0.096998,0.021872,-0.0030016,-0.033604,-0.048915,-0.195,0.088225,0.37244
-0.14776,-0.075757,-0.020431,-0.012103,-0.012579,0.095123,-0.068561,-0.32142
0.64741,0.19943,0.063209,0.023996,0.046265,0.14541,0.37955,0.26991
-0.61093,-0.22214,-0.025322,-0.049985,-0.051486,-0.059002,0.034854,-0.057438
-0.19732,-0.050486,-0.020246,0.008578,-0.00056231,-0.15083,-0.048171,-0.13197
0.30129,0.12163,0.02385,0.036113,0.02764,0.20523,-0.10483,0.093425
0.25907,0.013881,-0.033587,-0.021599,-0.021259,-0.10138,-0.1989,-0.036449
-0.10572,0.041074,-0.0049854,-0.00012593,0.032529,0.091897,0.059046,-0.066615
-0.32444,-0.077605,0.039431,0.030437,0.032652,0.017983,-0.027171,-0.1821
0.24374,0.017304,-0.025219,-0.0080026,-0.021142,-0.17579,0.11237,0.38546
-0.27578,-0.057287,-0.011295,-0.0062198,-0.027621,-0.052408,0.01671,-0.29116
0.16424,0.057403,0.042286,-0.011387,-0.041798,0.10705,0.053196,0.28978
-0.053309,0.040233,-0.036234,-0.0239,-0.0092464,0.014309,-0.090572,-0.293
0.25868,-0.039434,-0.0046019,0.026118,0.046417,-0.12637,-0.063171,0.13947
-0.0804,-0.034093,-0.011266,-0.010188,8.6787e-05,0.18622,0.025578,0.15553
-0.22022,0.039868,0.053055,0.030893,0.02358,-0.086006,0.096873,0.0023986
0.73649,0.088236,0.016322,-0.0071281,-0.00032231,0.15127,-0.10779,-0.065225
-0.55457,-0.084361,-0.035728,0.00065766,0.022129,0.031023,0.6378,0.0046321
-0.38971,-0.12598,-0.032977,-0.0081672,0.0050599,-0.11098,-0.54882,-0.27417
0.28767,0.11257,0.04006,-0.017718,-0.090431,-0.18908,-0.13502,0.090124
-0.050477,-0.063003,-0.035419,-0.0041482,0.0093774,0.11685,-0.18868,-0.0031773
0.076404,0.12179,0.029681,0.0096072,0.0079982,-0.0056979,0.14498,-0.067806
-0.1011,-0.08998,-0.030172,-0.0071975,0.015232,-0.033097,0.064664,0.25012
0.14671,0.0053125,0.019496,0.0083452,0.0080041,0.089579,-0.020728,-0.070757
-0.030171,0.0092512,-0.040017,-0.013858,-0.0056765,-0.067244,0.046154,-0.029141
0.32083,0.1245,0.080294,0.051165,0.052265,0.10563,0.2799,0.078272
-0.099752,-0.016982,0.0052512,7.0709e-06,-0.029426,0.02952,0.20072,0.149
-0.13993,-0.072439,-0.038867,-0.019382,-0.0012934,-0.14023,-0.50882,-0.14682
-0.15643,-0.035008,0.010106,0.0080215,0.018803,0.14212,0.52838,0.016927
-0.037244,-0.13193,-0.051266,-0.035563,-0.040121,-0.12452,-0.56792,-0.24431
-0.044603,0.12866,0.042429,-0.0099846,-0.030174,0.082378,-0.043632,0.07628
0.20908,-0.026598,-0.036996,-0.0014591,0.0092542,-0.16732,-0.16582,-0.060447
-0.12124,0.051059,0.030881,0.029031,0.039039,0.063939,0.082125,0.010403
0.46495,0.08867,0.01977,0.0035324,-0.0031255,0.097025,0.33607,0.32934
-0.17069,0.0086039,0.023828,0.023949,0.023791,0.003206,0.34254,-0.062898
-0.2588,-0.094942,-0.05802,-0.034272,-0.028104,-0.0054063,-0.38594,-0.12572
-0.23211,-0.096595,-0.014321,-0.0144,-0.025397,-0.11512,-0.22015,-0.1549
-0.16361,0.043002,0.030401,0.021516,0.016864,0.034455,0.053868,0.14692
0.49047,0.058433,-0.0094256,-0.0042775,-0.010214,0.014302,0.16418,0.076495
0.28825,-0.026781,-0.016426,0.0022179,0.026501,0.051208,0.11845,-0.046533
-0.33899,0.029462,0.032794,0.0098575,0.017764,0.0043069,-0.084937,-0.027887
0.13159,-0.015311,0.020758,-0.0048371,-0.028686,0.037026,-0.026716,-0.0093618
-0.060396,-0.02096,-0.013984,-0.0029745,-0.01934,-0.078058,0.16509,0.078301
0.018537,0.12908,0.021649,0.015173,0.06888,0.095691,-0.27792,-0.015621
-0.042457,-0.11272,-0.044937,-0.036672,-0.045679,-0.059557,-0.076515,-0.22107
-0.16956,-0.028188,-0.03472,-0.018252,-0.050899,-0.12219,-0.22378,-0.022156
0.18084,0.0073414,-0.010707,0.023191,0.045108,-0.037361,0.5852,0.42556
-0.03198,0.017279,0.065888,0.040449,0.01559,0.062629,-0.015597,-0.18945
-0.31582,0.0097691,0.062248,0.009823,-0.014524,0.16283,-0.071314,0.024543
0.30748,0.071418,-0.029159,0.0014749,0.032926,-0.001763,-0.18942,-0.20489
0.12966,-0.11716,-0.082784,-0.054902,-0.045072,-0.10264,-0.36823,0.0058311
0.0055114,0.0154,0.019344,-0.01068,-0.013987,0.016515,0.40897,0.14148
-0.12432,0.01702,-0.026539,0.01733,0.032598,0.027308,0.32221,0.12384
-0.12448,-0.025506,0.030518,-0.0094171,0.0010715,-0.047313,0.011589,-0.055468
-0.063744,0.091482,0.027273,0.026837,0.00089521,0.049882,-0.31315,-0.13964
0.011287,-0.085029,-0.02791,-0.021825,-0.0069708,-0.080086,-0.23951,-0.036203
0.35741,0.10087,0.052637,0.024644,0.0086892,-0.046977,-0.019035,0.12845
0.12095,-0.031254,-0.036035,-0.0055131,0.00093192,0.19591,0.56588,0.071819
-0.16187,-0.021519,0.041351,0.020359,0.0087495,-0.062297,-0.21178,-0.12893
-0.29087,-0.050824,-0.028667,-0.015342,-0.022588,-0.063536,0.023357,0.017871
-0.034141,-0.065714,-0.051898,-0.011656,-0.014951,-0.010538,-0.22756,-0.042483
0.27085,0.073299,0.0096049,-0.0083333,-0.015171,-0.012232,-0.18931,-0.012664
-0.29813,0.013705,0.0064381,0.0017832,0.039319,0.002096,0.33546,0.01441
-0.10752,0.012645,0.0082223,0.010372,-0.00768,0.11084,0.12986,0.086682
0.39117,0.15575,0.10056,0.032785,0.039152,0.017232,-0.18772,0.0021827
0.13751,0.005687,-0.021154,-0.0012768,-0.01555,-0.091335,-0.13272,0.051102
0.22753,-0.17898,-0.10643,-0.068064,-0.023445,0.01147,0.090778,0.00010246
-0.48502,-0.10781,-0.045037,-0.02639,-0.023712,-0.10434,0.16823,-0.22802
-0.14654,-0.021137,0.062612,0.054154,0.030429,0.17031,0.33914,0.055018
-0.10688,0.051938,0.014629,0.01807,0.013938,-0.10232,-0.28208,0.10762
0.041433,0.12123,0.046543,0.0066264,-0.018463,0.069809,-0.30694,-0.069923
0.23636,0.016292,-0.028272,-0.0031857,-0.0041681,-0.032126,0.021416,0.014506
0.36013,-0.012332,-0.037487,-0.019034,-0.021145,-0.11909,-0.32773,0.094725
-0.35456,-0.035485,0.026677,0.0058137,0.024535,0.16831,0.60067,-0.11936
0.17555,0.12501,0.054354,0.031922,0.01584,0.0019312,0.10631,0.16771
0.017589,0.021653,-0.041238,-0.027159,-0.015882,-0.047916,-0.51869,-0.014429
-0.37848,-0.15263,0.020124,0.0077141,0.015326,-0.028121,0.3532,-0.1361
0.13326,-0.087436,-0.067268,-0.051429,-0.015595,-0.055847,-0.26875,-0.050129
-0.22989,-0.018556,0.0082452,0.01383,0.0084208,0.13463,0.4358,-0.069805
0.24279,0.13166,0.043009,0.039264,0.0091039,-0.011156,-0.058007,0.23437
0.32573,0.0042773,-0.025649,-0.022017,-0.021495,-0.031915,-0.11204,-0.090331
-0.26822,-0.055744,-0.025691,0.0019465,-0.013161,-0.020907,-0.25282,0.081995
0.065014,0.062585,0.051108,0.0097201,0.026252,0.014638,0.27447,0.11202
-0.31245,-0.092193,-0.044716,-0.022016,-0.0595,-0.26845,-0.5091,-0.32686
0.2036,0.08285,0.046745,0.055253,0.096813,0.46624,0.7623,0.10288
0.29503,0.05728,-0.010028,-0.016251,-0.02038,-0.2733,-0.27084,0.035503
-0.47414,-0.090638,-0.003858,-0.033393,-0.028213,0.075294,-0.57631,-0.20765
0.076402,0.021401,0.018437,0.011668,0.010855,0.081773,0.62896,0.16291
0.3838,0.048661,-0.029171,-0.029429,-0.051583,-0.13755,0.019228,0.30305
-0.37351,-0.064758,0.01723,0.030969,0.042313,0.064713,0.0032537,-0.12431
0.29466,0.094062,0.016888,0.021217,0.026946,-0.015626,-0.2135,-0.20687
-0.16881,-0.12413,-0.022406,-0.011526,0.0039084,0.026848,0.011482,0.16269
