-0.16068,-0.28362,-0.3722,-0.16462,-0.095639,-0.064398,-0.064097,-0.089104
-0.0427,0.0055067,-0.0073802,-0.034095,0.0036528,-0.0026878,-0.010119,-0.012157
0.075029,-0.12633,0.034664,0.1119,0.064355,0.035525,0.05169,0.05629
0.059573,0.6315,0.35616,0.054992,0.016464,0.011401,-0.011362,-0.00071428
0.05927,-0.1917,-0.17473,-0.04037,0.00078041,0.018876,0.011775,0.012442
0.058436,0.38659,0.23212,0.044857,-0.0061264,-0.0044521,0.0039908,0.017941
-0.060077,-0.60375,-0.38334,-0.056367,-0.012233,0.0039028,0.0043793,0.016053
-0.35078,-0.37424,-0.20798,-0.14093,-0.07252,-0.081169,-0.08083,-0.15707
0.21008,0.61467,0.58659,0.19727,0.086086,0.076095,0.076425,0.10806
-0.0098946,-0.37771,-0.21842,-0.073279,-0.028964,-0.032312,-0.016141,-0.016618
0.14592,0.072753,-0.068628,0.086147,0.035153,0.03094,0.0085358,0.054757
-0.048818,0.3045,-0.10508,-0.12948,-0.049884,-0.031141,-0.037178,-0.060783
0.1715,0.17914,0.30467,0.14673,0.075239,0.054845,0.08096,0.10528
-0.19336,-0.2549,0.21516,-0.015161,-0.034712,-0.031372,-0.043412,-0.080149
-0.096923,-0.35642,-0.47496,-0.30279,-0.13737,-0.078745,-0.043185,-0.054827
-0.13341,0.04607,-0.35883,0.072802,0.064392,0.022244,-0.012141,-0.037727
0.15768,0.1232,0.29097,0.19746,0.070787,0.052978,0.041917,0.072555
0.15881,0.34198,0.076852,0.047615,0.022595,0.021351,0.017479,0.049369
0.096327,0.56782,0.72589,0.20129,0.076124,0.04457,0.039631,0.04895
-0.076652,-1.0365,-0.94953,-0.28681,-0.10457,-0.057082,-0.024307,-0.030182
0.0073614,0.28653,0.69034,-0.0023352,-0.003844,-0.0023804,-0.010084,-0.00031988
-0.34629,-0.31361,-0.45765,-0.15554,-0.066925,-0.06474,-0.0737,-0.14236
0.035206,0.0089161,-0.17684,0.051498,0.018903,0.021565,0.011697,0.0051298
0.10603,-0.30579,-0.047777,-0.020626,-0.0038793,0.0066907,0.027628,0.044215
0.046664,0.93972,0.62231,0.043186,-0.0021899,-0.007655,-0.0022973,0.022181
0.060453,-0.64444,-0.48149,0.048102,0.031896,0.025456,0.023469,0.025099
0.099907,0.54978,0.24028,0.24377,0.10604,0.051225,0.034364,0.044913
-0.0708,0.050181,0.20029,-0.097607,-0.06928,-0.032205,-0.048219,-0.044013
0.16349,0.25808,-0.062756,0.037709,0.052128,0.048169,0.07197,0.10116
-0.066559,-0.61305,-0.54779,-0.078936,-0.014881,-0.012811,0.0036713,0.010698
-0.37198,-0.16112,0.52133,-0.30867,-0.18502,-0.12958,-0.14422,-0.23804
0.1215,-0.28649,-0.21837,0.20693,0.11168,0.057057,0.05778,0.065519
-0.054381,0.097837,-0.47249,-0.12575,-0.023171,-0.015284,-0.030786,-0.039376
0.31296,0.87864,0.86616,0.38977,0.12964,0.091256,0.090578,0.14328
-0.21932,-0.65661,-1.0646,-0.36172,-0.13224,-0.075904,-0.061771,-0.08081
-0.0077689,0.12444,0.7698,0.012674,-0.0032179,0.015092,0.0051604,0.031677
-0.010785,-0.20066,0.41747,0.069713,0.01756,-0.0024152,0.0030132,-0.018314
0.015624,0.014625,-0.43535,-0.040775,-0.053701,-0.034338,-0.028706,-0.034907
0.2675,0.69594,0.30194,0.26753,0.14255,0.091276,0.089783,0.14604
0.088183,0.28197,0.21882,0.07206,0.066969,0.038289,0.045701,0.047552
-0.2737,-0.83021,-0.9858,-0.2616,-0.093615,-0.084342,-0.0834,-0.13579
-0.2342,-0.61292,-0.18245,-0.17306,-0.09792,-0.050593,-0.056066,-0.10799
0.095147,0.10829,0.23632,0.15585,0.045327,0.029625,0.017604,0.036406
0.18107,1.0067,0.54324,0.17655,0.069786,0.069951,0.074541,0.13275
-0.14991,-0.66714,-0.20705,-0.26036,-0.13427,-0.093915,-0.10431,-0.13951
0.038567,0.40769,0.13372,0.055983,0.050395,0.030191,0.035701,0.055572
0.2849,0.52115,0.24427,0.063833,0.061723,0.051808,0.065135,0.093252
-0.16893,-0.46513,-0.47125,-0.094854,-0.05273,-0.052199,-0.054667,-0.080811
-0.23683,-0.52332,0.093463,0.003383,-0.026567,-0.031465,-0.026351,-0.060013
0.097349,-0.18533,-0.033939,0.14909,0.078405,0.059676,0.048964,0.077802
0.076617,0.1606,-0.27865,-0.10977,-0.026386,0.0027586,-0.0080764,-0.0031241
0.2333,0.63665,1.029,0.33675,0.11241,0.055776,0.068325,0.10354
-0.31416,-0.63314,-0.63463,-0.30821,-0.13805,-0.093696,-0.089007,-0.14907
0.0059046,0.4917,-0.18132,-0.099686,-0.035789,-0.015976,-0.019245,-0.026548
0.10111,0.073238,0.26907,0.047703,0.059482,0.04669,0.050864,0.072722
-0.074187,0.10218,-0.25239,0.016221,-0.032263,-0.046408,-0.035131,-0.054265
0.106,-0.52611,-0.73641,0.055437,0.048042,0.071817,0.058538,0.092651
-0.139,-0.37905,0.60782,-0.038034,-0.035788,-0.051874,-0.066678,-0.095753
0.018986,0.50541,0.6245,0.11852,0.020749,0.019891,0.026678,0.060305
0.071621,0.001683,0.045657,-0.052989,0.022215,0.021349,0.002687,-0.0016788
0.041291,0.49068,-0.22861,-0.068048,-0.03927,-0.024196,-0.0057659,-0.016193
0.10625,0.22741,-0.30231,0.034506,0.062848,0.023772,0.040482,0.063432
-0.070986,-0.63499,-0.22847,-0.073172,-0.085427,-0.061371,-0.053769,-0.075551
-0.21057,-0.7245,0.28091,0.0389,0.0082286,0.017248,0.00064725,-0.034939
0.061534,0.36252,0.56702,0.19128,0.070577,0.040938,0.031941,0.067915
0.034,0.32677,-0.29455,-0.1706,-0.046586,0.0019894,0.0011022,0.0063869
-0.089856,-0.47507,-0.57853,-0.15617,-0.046162,-0.052595,-0.037169,-0.047606
0.18279,0.71121,-0.088543,0.14832,0.056382,0.049183,0.026472,0.015438
0.055903,-0.0098217,0.26536,0.093853,0.018905,-0.012897,0.01226,0.031622
-0.20405,-0.13613,0.19354,-0.13288,-0.05713,-0.035667,-0.040859,-0.061402
0.059761,0.50607,0.65936,0.20934,0.062404,0.043349,0.03103,0.033326
-0.027396,-0.50186,-0.59768,-0.15387,-0.021295,-0.018124,-0.0066165,0.01891
0.11249,0.0024376,-0.015674,0.05801,0.019487,0.014139,0.0022901,-0.0032178
-0.036579,-0.27544,-0.53126,-0.1944,-0.081252,-0.039735,-0.020509,-0.033279
0.18896,0.24981,0.46635,0.22196,0.10593,0.085698,0.073347,0.11598
-0.36752,-0.94173,-0.45168,-0.27805,-0.11434,-0.078448,-0.083318,-0.13378
0.23918,0.71851,0.4482,0.37716,0.14877,0.08497,0.072105,0.10018
-0.17817,0.10377,0.47481,-0.15463,-0.088728,-0.080221,-0.061738,-0.096129
-0.10331,-0.14979,-0.39467,-0.22349,-0.09187,-0.050385,-0.047072,-0.074032
0.13644,0.23713,0.039737,0.15613,0.038403,0.026325,0.030448,0.065244
0.088711,0.21674,-0.52532,0.047356,0.060455,0.056464,0.046039,0.07203
0.2149,0.17959,0.53405,0.12193,0.068381,0.040274,0.046662,0.07937
-0.26621,-0.30984,-0.20625,-0.081925,-0.078393,-0.061185,-0.06151,-0.1158
0.04344,0.20816,0.42378,0.051563,0.057376,0.041114,0.041608,0.048927
-0.044299,-0.25197,-0.099292,-0.22931,-0.079509,-0.059253,-0.042735,-0.043862
0.055761,0.054143,-0.49104,0.12849,0.033739,0.020258,-0.0023619,-0.027219
-0.024208,-0.27934,0.32608,0.045548,0.00584,0.021536,0.0062348,0.036162
-0.12838,-0.11172,-0.034788,-0.080398,-0.054369,-0.040057,-0.040497,-0.056946
0.00086652,-0.091843,-0.33953,-0.077488,-0.014413,-0.00064109,0.0059054,0.0059371
0.19159,0.14489,0.39857,0.23459,0.13342,0.092834,0.083075,0.12327
-0.07968,-0.67484,-0.59866,-0.11963,-0.07169,-0.079911,-0.04318,-0.064299
0.077519,0.68262,-0.040468,-0.091892,-0.04352,-0.034378,-0.021129,-0.033391
0.030071,0.73594,0.68092,0.10039,0.046432,0.042102,0.032144,0.051815
-0.21463,-0.26038,0.41077,-0.057305,-0.051443,-0.022181,-0.039601,-0.074489
0.10081,0.44122,-0.18261,0.013813,0.03818,0.046321,0.02918,0.040621
0.10117,-0.31608,-0.013353,0.17328,0.034259,-0.010179,0.011786,0.037607
-0.19003,-0.34095,-0.55294,-0.14172,-0.024063,-0.0042377,-0.021616,-0.044526
0.13402,-0.059534,0.047123,0.01353,-0.0039926,0.0015393,0.014831,0.013077
0.090008,-0.37949,0.13736,0.14619,0.094418,0.053943,0.04305,0.062294
-0.05493,0.32777,0.18939,-0.18954,-0.10383,-0.057953,-0.046114,-0.052594
-0.22087,-0.65496,-0.21867,-0.11095,-0.043936,-0.044928,-0.056948,-0.080885
0.094004,0.61652,0.027579,0.1166,0.016548,0.015207,0.011067,0.025069
-0.21824,-0.17601,-0.60193,-0.24073,-0.078281,-0.064629,-0.044653,-0.06998
0.44468,0.36863,0.27119,0.38794,0.16411,0.12224,0.12787,0.18909
-0.22229,-0.13152,0.24391,-0.036107,-0.029513,-0.01763,-0.041514,-0.072669
0.20125,0.34389,0.19983,-0.020765,0.012728,0.0080376,0.032959,0.058374
-0.045032,0.076003,0.42459,0.066241,0.0093126,0.01938,0.014848,-0.012351
0.12177,-0.072782,-0.098171,-0.0025348,0.037879,0.015979,0.012783,0.042205
-0.29354,-0.47795,-0.35059,-0.33749,-0.19125,-0.11993,-0.11468,-0.18531
-0.011999,-0.040112,-0.34975,0.091711,0.071317,0.032897,0.022338,0.04639
-0.019093,0.18416,0.0025699,0.018751,0.028173,0.028594,0.0092992,0.041466
-0.080139,-0.27375,0.36724,0.14639,0.014901,-0.01606,-0.013349,-0.043919
0.28305,0.33952,0.18837,0.09955,0.054778,0.054982,0.056102,0.087439
-0.044135,-0.062699,-0.43028,-0.1138,-0.047475,-0.023895,-0.0085157,0.0064838
-0.043115,0.54599,0.48646,0.084829,0.005233,-0.010298,-0.02698,-0.051632
-0.078322,-0.74254,-0.63663,-0.21811,-0.052366,-0.02105,0.016884,-0.008027
-0.077444,-0.40485,-0.17574,-0.10011,-0.055768,-0.047883,-0.056159,-0.073057
0.17132,0.45017,0.33909,0.18952,0.12048,0.097173,0.090103,0.12076
0.042519,0.040807,0.027087,0.041971,-0.023265,-0.03079,-0.028641,-0.012556
0.05015,0.48151,0.37363,0.0045179,0.0054238,0.0059975,0.0015343,0.010998
0.019853,-0.038195,0.049151,0.069478,0.042532,0.020143,0.024111,0.034577
-0.19176,-0.38662,-0.33402,-0.09918,-0.076096,-0.050909,-0.062785,-0.075288
0.061304,-0.036243,-0.22966,0.021781,0.047805,0.034856,0.021849,-0.006635
-0.081866,0.53115,0.45993,-0.036533,-0.015612,0.011585,0.012286,0.021538
0.050288,-0.33042,-0.17752,-0.039685,-0.032041,-0.019366,-0.0054504,-0.01407
-0.04906,-0.21115,0.13223,0.051728,0.0064005,-0.011258,-0.015462,-0.019184
-0.0028436,-0.16803,-0.062696,-0.01953,-0.001653,-0.018804,-0.0017227,-0.016423
-0.03492,-0.26366,-0.54074,-0.10434,-0.032498,-0.010683,-0.026297,-0.0048545
0.14656,0.29271,0.17984,0.11037,0.046919,0.036676,0.043991,0.055428
0.1455,0.6756,0.732,-0.023593,0.033594,0.037467,0.03746,0.08686
-0.25538,-0.33895,-0.56127,0.13417,-0.010043,-0.031671,-0.022493,-0.082282
0.20997,0.21946,0.2969,0.098556,0.040735,0.016742,0.0044788,0.016466
-0.16219,-0.55514,-0.54709,-0.15502,-0.056696,-0.036175,-0.022721,-0.031628
-0.068655,0.30487,-0.017202,-0.27634,-0.084105,-0.034393,-0.042171,-0.063419
0.058877,-0.069899,0.22706,0.20204,0.075198,0.053062,0.0393,0.060713
0.0072253,-0.10392,0.22714,-0.025585,-0.016673,0.0071574,0.010276,0.019531
0.16488,0.55985,0.20921,0.2589,0.10882,0.062048,0.050157,0.070149
-0.14957,-0.84559,-0.079903,-0.16338,-0.079576,-0.07143,-0.059852,-0.084665
-0.038847,0.29696,-0.29402,-0.16708,-0.066019,-0.041642,-0.030469,-0.038615
0.027917,0.39543,0.07602,0.053275,0.024892,0.011055,0.013766,0.029065
0.11356,-0.11736,0.24275,0.076866,0.045247,0.03241,0.02661,0.025419
-0.15593,-0.32314,-0.017232,0.13145,0.026861,-0.00047605,-0.006874,-0.040748
0.041156,-0.12374,-0.58114,-0.13341,-0.045384,-0.016766,-0.015754,0.003433
-0.082731,-0.14824,-0.22966,-0.13093,-0.022695,-0.00044373,0.008201,0.0025039
0.02839,0.34749,0.27451,0.092474,0.0013095,-0.013864,0.0026124,-0.0040741
0.10967,0.15966,0.17019,0.036791,0.026501,0.044371,0.021947,0.053904
0.075284,0.19092,0.72776,0.1234,0.044688,0.025341,0.003162,0.019561
-0.020673,0.052224,-0.51746,-0.10949,-0.038452,-0.024806,0.00016705,-0.014392
-0.023005,-0.061143,0.24971,-0.006661,0.0029827,-0.0053517,-0.0035355,0.021117
-0.081349,-0.23516,-0.46171,0.079381,0.012128,-0.010834,-0.024371,-0.070393
-0.0091433,-0.24938,-0.011069,-0.12542,-0.027068,-0.010562,-0.0082187,-0.016309
-0.048906,-0.10664,-0.10214,-0.066479,0.010267,0.0030837,0.021268,0.02685
0.096712,0.72562,0.45965,0.11603,-0.0084525,0.0068989,-0.013847,-0.018668
-0.039758,-0.44228,-0.09957,-0.053533,-0.043603,-0.029723,-0.011425,0.0043608
0.051388,-0.39035,-0.17812,0.043234,0.04624,0.034791,0.037211,0.04265
-0.19802,0.10342,-0.13473,-0.061217,-0.050538,-0.056293,-0.062241,-0.11318
0.12022,0.1985,0.062776,0.1653,0.096536,0.065225,0.058384,0.09298
0.14023,0.26323,0.14187,-0.026742,-0.0042036,0.0016494,0.0092351,0.044929
-0.082933,0.052821,-0.02199,-0.17653,-0.071371,-0.035753,-0.045192,-0.053847
0.028055,-0.11976,0.070935,0.082431,0.019742,0.03098,0.012298,0.022867
-0.052107,0.11617,0.16952,0.084937,0.041889,0.02153,0.032845,0.024066
0.033283,0.041455,-0.28276,-0.14699,-0.037144,-0.018218,-0.0077802,-0.043914
-0.0157,-0.32315,0.032165,0.10398,0.015943,-0.011305,-0.0012218,0.0047503
0.094914,0.32404,0.24488,0.11788,0.03609,0.0098902,0.0045717,0.027864
0.011309,-0.065213,-0.037041,-0.051328,0.0069422,0.021051,0.024292,0.024249
-0.27554,-0.73915,-0.80696,-0.23191,-0.11089,-0.087674,-0.083315,-0.12387
0.070339,0.50318,0.45799,0.045397,0.0030603,0.019651,0.0096632,0.021121
0.011108,0.10092,0.23412,0.016004,0.021237,0.015354,0.0065704,0.0068233
-0.013571,-0.48039,-0.11169,-0.076585,-0.02422,-0.021647,-0.013877,-0.0093046
0.23333,0.67175,0.14639,0.3158,0.11771,0.073671,0.066336,0.1226
-0.011124,-0.14725,0.21019,0.045725,0.041719,0.028817,0.021547,0.0054898
-0.17436,-0.17446,-0.30479,-0.20659,-0.12646,-0.08513,-0.069313,-0.10953
0.018627,0.38215,0.09976,0.035475,0.012016,0.005748,0.013094,0.012611
-0.064285,-0.29713,-0.30378,-0.17376,-0.042792,-0.010906,-0.019999,-0.026332
0.14704,0.21586,0.047138,0.063534,0.076046,0.060045,0.050147,0.085864
-0.051461,-0.31609,0.013396,0.059091,0.00082718,-0.0083966,0.020127,0.020408
0.080937,0.22887,0.37924,0.038698,-0.019116,-0.021506,-0.048026,-0.067371
-0.035584,-0.042342,-0.17918,0.095397,0.038942,0.0044704,0.0092076,0.001212
-0.074495,-0.16978,-0.2428,-0.16199,-0.083436,-0.040371,-0.035239,-0.032574
-0.013565,-0.0042401,0.22481,0.094376,0.066441,0.038938,0.029197,0.041519
0.076275,0.26136,0.025052,0.012979,0.011844,0.023543,0.022645,0.043431
-0.14089,-0.74466,-0.44824,-0.12449,-0.075218,-0.047352,-0.031443,-0.073739
0.054268,0.27789,0.18116,0.01869,0.016584,-0.0015387,-7.0084e-05,0.010612
0.061098,0.34693,0.27156,-0.10334,-0.032495,-0.01826,-0.0079509,0.00013481
-0.080353,0.1817,0.092971,0.057291,0.035964,0.012301,-0.015718,-0.034214
0.24008,0.60876,0.43703,0.30606,0.12092,0.098288,0.086243,0.14258
-0.1725,-0.60951,-0.42122,-0.13011,-0.082017,-0.057027,-0.030081,-0.086169
-0.013444,-0.33649,-0.44096,-0.14202,-0.049349,-0.031845,-0.044426,-0.040447
-0.0019575,-0.33365,-0.1426,-0.019405,-0.0078601,0.0016819,0.011764,0.022006
-0.052844,0.17006,0.21325,0.057008,0.042018,0.019703,0.013195,0.0072931
0.29397,0.61937,0.51668,0.20319,0.10754,0.06863,0.076721,0.12602
-0.33732,-0.54708,-0.56684,-0.27733,-0.17124,-0.13321,-0.12607,-0.18474
-0.0098414,-0.30352,-0.17517,0.0051278,0.017672,0.023247,-0.0016277,0.0042184
0.11985,0.61059,0.53873,0.10474,0.04113,0.037876,0.043764,0.059677
0.0049041,0.01016,0.046784,-0.017581,0.00057672,0.0044799,0.018029,0.01258
0.098793,0.17807,0.10159,0.060504,0.044565,0.024856,0.022989,0.026842
-0.011881,0.37294,-0.037021,-0.027251,-0.021886,-0.0099889,-0.011293,0.0009401
-0.068385,-0.44394,0.070114,-0.060801,-0.042013,-0.029255,-0.037504,-0.033637
-0.16336,-0.62375,-0.62221,-0.093346,-0.03863,-0.032411,-0.039565,-0.068655
0.094997,0.037441,-0.0027395,0.22035,0.08266,0.043551,0.045416,0.052699
-0.050039,-0.21696,-0.26481,-0.16533,-0.044757,-0.019712,-0.0088565,-0.028337
0.097643,0.36424,0.42132,-0.015222,0.0092064,-0.0032166,0.016436,0.024729
0.17121,0.58615,0.50936,0.15525,0.057205,0.061788,0.050818,0.08728
-0.1342,-0.19287,-0.095453,-0.060658,-0.041503,-0.028067,-0.046718,-0.074934
-0.038014,0.040083,-0.23182,-0.023445,-0.01385,-0.023249,-0.011101,-0.016762
0.091545,0.41369,0.45542,0.17155,0.045858,0.036568,0.032048,0.058242
-0.20768,-0.62367,-0.51519,-0.18057,-0.050524,-0.036778,-0.042855,-0.061476
0.063095,-0.31847,-0.093549,-0.0033778,0.016684,0.013922,0.013747,0.029622
-0.011306,-0.056335,-0.15024,-0.056028,-0.026483,-0.014905,-0.0093133,-0.020716
0.021302,0.021262,-0.06974,-0.0581,-0.0085166,-0.014124,-0.010471,-0.017753
0.074222,0.61864,0.36691,0.17763,0.031346,0.0084456,0.010494,0.022502
0.13126,-0.11299,-0.018269,0.018564,0.046241,0.045197,0.038334,0.060837
-0.096962,-0.060691,0.52743,-0.034696,-0.033964,-0.02069,-0.012425,-0.027646
-0.016702,-0.025564,-0.39141,0.10463,0.033234,0.01438,0.0071296,-0.0082267
-0.17443,-0.45007,-0.6391,-0.28903,-0.10332,-0.060036,-0.051022,-0.075681
-0.053683,0.12051,0.10687,0.12128,0.0021404,0.0065202,-0.0068791,-0.018416
0.24518,0.55351,0.8088,0.078704,0.068803,0.050344,0.053798,0.086103
-0.065506,-0.11324,-0.50172,-0.04873,-0.0045419,-0.014285,-0.009586,-0.01157
0.070361,0.07124,0.37792,0.013055,0.024515,0.015812,0.029428,0.079541
-0.041338,-0.16877,-0.25648,0.02227,-0.0080246,-0.015709,-0.02467,-0.05452
-0.016952,0.063581,0.062659,0.010325,-0.0084886,0.00031706,-0.015869,-0.015436
0.011098,-0.19276,-0.11851,-0.061899,-0.023927,-0.0066839,-0.0068927,0.0012066
-0.16038,-0.43613,-0.19836,-0.022754,-0.031116,-0.029159,-0.036966,-0.083054
0.0775,0.19616,0.042794,-0.013205,0.008808,0.018623,0.03445,0.043971
0.098898,0.028654,-0.088744,-0.0024086,0.017568,0.019356,0.035467,0.061743
0.16839,0.63586,0.64322,0.32953,0.11227,0.051145,0.036436,0.048272
-0.11358,0.044321,-0.32235,-0.20527,-0.074294,-0.057814,-0.048516,-0.074579
-0.16986,-0.38537,-0.13326,-0.23209,-0.073319,-0.041754,-0.047445,-0.064562
-0.0949,-0.18543,0.0068556,0.092636,0.0059101,0.0057447,0.00063488,0.00028569
0.0094016,-0.29642,-0.059921,-0.028052,-0.00056609,0.0067035,0.0097998,0.026261
0.20554,0.47238,0.26539,0.12452,0.047942,0.039311,0.042503,0.060187
0.15784,0.49839,0.19068,0.17522,0.065478,0.041013,0.043941,0.055001
-0.14894,-0.26266,-0.27133,-0.17307,-0.04964,-0.035244,-0.048552,-0.059919
-0.050253,-0.10386,-0.0055879,-0.069117,-0.024188,0.0055904,-0.0085977,-0.011493
-0.061211,-0.43361,-0.22393,0.049242,-0.0068582,-0.032071,-0.023845,-0.026595
-0.0094054,-0.14232,-0.19149,-0.099483,-0.021323,-0.015626,0.0072084,-0.01163
0.14474,0.15525,0.15598,0.1956,0.072886,0.039222,0.029923,0.049088
-0.15307,0.19746,0.35225,-0.057512,-0.036774,-0.039336,-0.025856,-0.055094
-0.04323,0.098242,-0.05318,-0.10059,-0.045538,-0.0089172,-0.019281,-0.026857
0.13822,0.27584,0.16071,-0.065862,0.01552,0.036985,0.026452,0.056172
0.015897,-0.14172,-0.29363,0.17231,0.029436,-0.0029428,0.0021598,0.0069296
0.16726,-0.14506,0.053308,0.0051219,0.019869,0.019905,0.025134,0.052252
-0.11153,0.28954,0.22514,-0.020123,0.0026225,0.011835,0.017246,0.004715
-0.1804,-0.56511,-0.37983,-0.043863,-0.037821,-0.027207,-0.052847,-0.073284
0.17924,0.33691,0.16007,0.074483,0.047021,0.027651,0.025648,0.052426
-0.29791,-0.36476,-0.35064,-0.16533,-0.070974,-0.07373,-0.052107,-0.10275
0.15456,0.31342,0.19715,0.095681,0.037864,0.027919,0.026271,0.039146
-0.0561,-0.33261,0.14659,0.036756,-0.024918,-0.0033788,-0.0049093,-0.014155
0.063154,0.12552,0.12933,-0.037881,0.014103,0.012086,0.026204,0.042005
0.19239,0.5763,0.12009,0.05887,0.02991,0.019684,0.018056,0.027918
-0.028067,-0.3349,-0.27416,-0.032652,-0.0009634,-0.0039663,-0.021519,-0.017426
-0.06019,0.099025,0.092454,-0.03914,-0.023884,-0.011964,-0.0065598,0.0073877
-0.038321,-0.032284,0.061469,0.016004,0.0079464,0.011292,0.00046643,-0.022862
-0.11258,-0.4746,-0.49346,-0.070159,-0.046189,-0.035827,-0.03165,-0.038112
0.13751,0.49637,0.33379,0.015147,0.032359,0.034089,0.037767,0.070792
0.039293,0.020982,0.13816,0.17065,0.048182,0.017838,0.013465,-0.008771
-0.17275,-0.15647,-0.12491,-0.087764,-0.030044,-0.022112,-0.026367,-0.034589
-0.021066,-0.50036,-0.13206,-0.056815,-0.01485,-0.015405,-0.0035417,-0.0064596
0.050798,0.50334,0.065184,0.091726,0.015679,0.014657,0.019495,0.013487
0.17784,0.088336,0.032126,-0.0092651,0.014787,-0.0020177,0.011542,0.033562
-0.16894,-0.17585,0.036339,-0.11752,-0.064192,-0.041724,-0.042984,-0.070687
0.082655,0.14626,0.20371,0.071737,0.03682,0.052049,0.027821,0.044997
-0.042728,-0.34015,-0.0049708,-0.19137,-0.041278,-0.01739,-0.010401,-0.0018294
0.033387,0.56896,0.12033,0.31195,0.076725,0.015634,0.0063999,0.0077297
0.029189,-0.22999,-0.46073,-0.01994,-0.007526,0.0025562,0.007856,0.0032389
-0.10357,-0.27288,-0.24944,-0.15605,-0.051946,-0.025681,-0.045206,-0.039136
0.062833,0.19159,0.22963,0.067217,0.021296,0.01641,0.02673,0.028415
-0.028549,0.085685,-0.10269,-0.10075,-0.0070148,0.0033042,0.020309,0.017632
0.12007,0.29288,0.62743,0.14404,0.073501,0.028249,0.03684,0.044926
-0.12597,-0.39574,-0.39405,-0.066262,-0.05802,-0.03414,-0.041099,-0.070034
0.068048,-0.022707,0.40903,0.095958,0.019873,0.0034637,-0.0027264,-0.0073211
-0.11081,-0.026236,-0.25457,-0.11955,-0.044574,-0.030733,-0.027747,-0.016981
-0.01373,-0.42773,-0.40248,-0.032998,-0.016872,-0.0035739,0.0011763,-0.0049458
0.13381,0.54264,0.40935,0.12954,0.072156,0.04643,0.045297,0.076289
-0.15885,-0.37539,-0.17858,-0.021707,-0.042437,-0.028501,-0.043389,-0.069332
0.086574,0.40954,-0.16505,-0.12627,-0.031712,0.0066529,0.0012134,0.012174
0.13729,0.51911,0.20241,0.0045527,0.0035598,0.003962,0.023268,0.040291
-0.052357,-0.3406,0.26317,0.074948,0.056168,0.010581,-0.00039668,-0.02357
-0.09098,-0.47296,-0.4399,0.0075443,-0.0064117,-0.004736,0.00058701,-0.0074034
0.021668,0.14545,0.22183,0.076067,0.026662,0.020253,0.010417,0.018243
-0.081779,-0.11123,-0.11595,-0.047834,-0.024758,-0.016471,-0.01035,-0.0018724
0.11381,0.27925,0.056231,-0.05233,-0.028588,-0.006091,0.00026926,0.0096115
0.06869,0.042303,0.16053,0.061638,0.037774,0.0039857,0.010475,-0.0028225
-0.13973,-0.3465,-0.015147,-0.02723,-0.013935,-0.017897,-0.019269,-0.024284
0.0035119,0.26822,0.0034849,0.016197,0.0032596,0.013998,0.0044814,0.0072298
-0.095849,-0.47387,-0.27097,-0.12103,-0.05926,-0.040927,-0.035532,-0.049065
0.29625,0.57433,0.26765,0.15481,0.072142,0.06756,0.06399,0.11173
-0.070285,0.15313,-0.19614,-0.16377,-0.07077,-0.03517,-0.032498,-0.056706
-0.085952,-0.43528,-0.047511,0.087866,0.020519,-0.004958,-0.0041545,-0.030151
-0.078581,0.056172,-0.061472,-0.035061,-0.0048453,-0.0055142,-0.022291,-0.034292
-0.079029,0.11676,0.1284,-0.00098358,0.017732,0.010243,0.007327,0.017595
0.12401,0.064403,0.5065,0.15096,0.057219,0.0267,0.045941,0.079165
0.038553,-0.086513,-0.44987,-0.04065,-0.0037227,0.0046106,-0.0079506,-0.021303
0.15675,-0.0074737,0.02637,0.0014982,-0.0093184,-0.009484,0.0095197,0.036248
-0.15455,0.12414,0.13266,0.0030877,-0.014916,-0.0003518,-0.019238,-0.037854
0.0025908,-0.46875,-0.46421,-0.099059,-0.0055482,-0.015212,0.0068204,0.013389
-0.10674,0.14136,0.14512,-0.086414,-0.051996,-0.015199,-0.022191,-0.029603
0.23587,0.093592,0.31527,0.15858,0.040911,0.015324,0.018332,0.012205
-0.1102,0.08928,-0.28722,-0.097535,-0.046915,-0.03279,-0.028052,-0.056834
-0.16797,0.26598,0.18277,0.013746,0.021001,0.028355,0.01057,-0.0023177
