0.15547,0.70877,0.57652,0.2061,0.085184,0.06333,0.05909,0.093492
-0.13292,-0.28794,0.13286,-0.073937,-0.031778,-0.029744,-0.026143,-0.03804
0.12558,-0.039635,-0.27523,0.15439,0.062355,0.033813,0.045206,0.087926
0.040517,0.03566,0.3885,0.015907,0.00037731,-0.0040392,-0.016144,0.0024575
-0.15367,-0.21487,-0.36989,-0.10685,-0.053765,-0.018603,-0.038585,-0.11493
0.168,0.19695,-0.59734,0.0045317,0.071618,0.05231,0.071373,0.09501
0.0053502,0.4245,0.39557,-0.017384,-0.0064869,-0.025924,-0.030208,-0.031771
-0.079409,-0.43185,0.35462,-0.078977,-0.10856,-0.065921,-0.030898,-0.0264
-0.016378,-0.089996,-0.051465,0.22602,0.13252,0.072991,0.038125,0.048872
-0.2592,-0.44557,-0.5055,-0.3679,-0.21293,-0.14024,-0.12763,-0.17285
0.19934,0.2713,0.33216,0.2253,0.12083,0.09154,0.073681,0.089963
0.46012,0.50301,0.28365,0.31032,0.21206,0.15146,0.16576,0.29057
-0.5947,-0.57395,-0.51093,-0.48016,-0.27505,-0.18682,-0.21058,-0.36012
0.35471,0.72357,0.82832,0.29891,0.13616,0.10026,0.12443,0.20022
-0.090134,-0.31338,-0.80492,-0.18875,-0.069874,-0.041965,-0.032401,-0.044316
-0.006783,-0.043693,0.73983,0.22068,0.075631,0.011402,-0.0093589,-0.054927
-0.0032154,0.49309,-0.66797,-0.29322,-0.11479,-0.052264,-0.025399,0.012018
-0.053816,-0.27407,0.25642,0.21499,0.093266,0.071604,0.052102,0.047225
-0.48399,-1.2362,-0.79391,-0.34808,-0.15171,-0.11708,-0.12074,-0.17557
0.48248,0.77127,0.75154,0.45557,0.21282,0.13947,0.1201,0.1722
0.15253,0.17883,0.22341,-0.045395,-0.031894,-0.025925,0.0012093,0.0051063
-0.05079,0.33115,0.055636,-0.16298,-0.06555,-0.0351,-0.047631,-0.059256
-0.041907,-0.50614,-0.33245,-0.20933,-0.12253,-0.059864,-0.018472,0.010594
0.020999,0.39968,-0.49014,0.36266,0.2347,0.11861,0.073222,0.050582
-0.26378,-0.6504,0.29812,-0.11095,-0.11873,-0.07773,-0.069249,-0.095777
0.25594,0.38472,0.27768,0.12775,0.075245,0.069981,0.085564,0.15707
0.34942,0.85722,0.58248,0.078913,0.035762,0.014991,-0.0089954,-0.0037667
-0.52591,-0.70136,-0.65571,-0.38999,-0.22107,-0.094109,-0.079249,-0.12547
-0.044156,-0.055283,-0.54147,-0.1301,-0.015059,-0.03059,-0.031211,-0.059713
-0.14333,-0.29443,0.70979,0.13244,0.029132,-0.013062,-0.028767,-0.064187
0.63094,0.50278,0.24924,0.52288,0.27873,0.16165,0.18594,0.2676
-0.61704,-0.76922,-0.88898,-0.67768,-0.25103,-0.15496,-0.16067,-0.25943
0.69457,0.95966,0.97093,0.85038,0.36866,0.25556,0.25131,0.42511
-0.68805,-1.105,-1.0248,-0.70664,-0.40248,-0.27905,-0.29747,-0.44464
-0.042658,0.3291,0.59226,0.032542,0.035782,0.060977,0.082875,0.091745
0.32849,0.47527,0.26165,0.46483,0.26035,0.14234,0.12596,0.20533
0.098156,-0.049986,-0.49722,-0.50476,-0.32332,-0.1838,-0.13759,-0.15165
0.51565,0.37359,0.41458,0.34189,0.23766,0.16828,0.15123,0.24658
-0.60859,-0.15394,-0.39562,-0.17489,-0.13446,-0.12952,-0.14824,-0.27237
-0.26175,-0.55216,-0.57862,-0.41382,-0.18103,-0.12388,-0.12948,-0.20069
-0.009282,-0.016831,0.70567,0.34491,0.16939,0.12301,0.11431,0.14176
0.38081,0.50522,0.27183,0.38366,0.19918,0.13491,0.13849,0.17774
-0.20227,-0.24455,-0.083667,-0.28104,-0.1064,-0.048873,-0.056267,-0.052556
0.24902,0.61833,0.53487,0.14825,0.042239,0.024942,0.054044,0.084832
-0.26444,-1.0182,-0.79881,-0.18763,-0.08128,-0.08105,-0.077029,-0.096567
0.079437,0.53442,0.19163,0.094266,0.0073885,0.00047451,-0.011672,-0.04126
-0.0060483,-0.94582,-0.25601,0.0020192,0.011313,-0.0036491,0.00038811,0.024765
0.1301,0.58677,-0.18382,-0.27625,-0.10068,-0.046088,-0.032751,0.015943
-0.072263,0.068868,0.13331,0.21359,0.070135,0.053462,0.02985,0.034049
-0.25984,0.17791,0.046726,-0.03506,-0.030471,-0.016835,-0.01464,-0.092725
0.17757,0.62743,0.064493,-0.31016,-0.058264,-0.014242,-0.0019759,0.01053
0.12247,-0.30229,0.38175,0.54505,0.14331,0.045882,0.036552,0.0075711
0.096833,-0.053112,-0.026226,-0.087006,0.019503,0.03838,0.01465,0.054059
-0.14407,-0.46756,-0.33391,-0.17662,-0.055259,-0.02957,-0.013705,-0.030626
0.044918,-0.021724,0.25199,0.25797,0.074197,0.028462,0.036392,0.072539
-0.33202,-0.48774,-0.48324,-0.36465,-0.17954,-0.11702,-0.10974,-0.16147
0.25288,0.98149,0.93408,0.25671,0.10373,0.079363,0.085666,0.14059
0.02325,-0.053172,-0.58286,-0.076242,-0.01507,-0.039995,-0.034787,-0.038584
0.149,0.16744,-0.086864,0.11117,0.087828,0.094177,0.059337,0.10433
-0.1753,-0.68851,-0.47139,-0.25168,-0.11946,-0.088963,-0.069782,-0.11892
0.043164,-0.40385,0.21657,0.12573,0.11318,0.082561,0.070313,0.080789
-0.045123,0.92719,0.61923,-0.081567,-0.11174,-0.07799,-0.082009,-0.1393
-0.022823,0.046315,-0.23817,0.076113,0.012118,0.0010544,-0.0097416,-0.042924
-0.034233,-0.42322,-0.050575,0.02559,-0.0052693,0.0011726,0.038828,0.091198
-0.15301,-0.37596,-0.7346,-0.36128,-0.13813,-0.09911,-0.082952,-0.10133
0.17186,0.48604,0.6017,0.27062,0.16249,0.10828,0.087429,0.13207
0.30297,0.44228,0.68194,0.35282,0.10902,0.046603,0.058881,0.11362
-0.28131,0.10592,-0.0083825,-0.1149,-0.055754,-0.0021904,-0.027518,-0.093207
0.16139,-0.067423,-0.29868,0.013725,0.06626,0.03995,0.015481,0.019245
-0.19059,-0.79394,-0.40957,-0.28834,-0.13551,-0.062164,-0.055179,-0.042341
-0.09761,-0.36674,-0.20864,-0.12696,-0.076874,-0.067702,-0.053303,-0.11576
0.32775,0.72776,0.66618,0.40775,0.16208,0.092013,0.11337,0.19521
-0.01936,0.098986,-0.49724,-0.093748,-0.006363,-0.022119,-0.017522,-0.033465
-0.17299,-0.46239,-0.27436,-0.10992,-0.075702,-0.02859,-0.048654,-0.084787
-0.088152,0.45994,0.16837,-0.070798,-0.030976,0.0014644,-0.011955,-0.0067462
-0.0078143,-0.16348,0.27497,0.024703,0.0028283,-0.010351,-0.0091657,-0.010645
0.021429,0.027265,-0.12083,-0.094764,-0.020588,-0.040362,0.0068612,0.013232
0.1022,0.03097,0.16374,0.18265,0.095002,0.044847,0.028906,0.050124
-0.0062973,0.41516,0.28449,-0.1018,-0.047854,0.011674,-0.01261,-0.031651
0.048814,-0.37859,0.15161,0.25639,0.090712,0.063983,0.031454,0.011216
-0.098794,-0.018075,-0.15523,-0.078383,-0.098202,-0.071104,-0.033686,-0.039138
0.17615,0.064457,-0.10387,0.080671,0.10424,0.06765,0.089137,0.17717
-0.18132,-0.63151,-0.69981,-0.1506,-0.059992,-0.050942,-0.068761,-0.15224
0.3595,0.77888,0.7499,0.1404,0.064969,0.04958,0.039408,0.10525
-0.37379,-0.52022,-0.88578,-0.40672,-0.16967,-0.10749,-0.10211,-0.14445
-0.037611,0.33687,0.53174,0.074973,0.024938,0.0011684,0.037829,0.059295
0.087132,0.12275,0.22996,0.21113,0.078518,0.070867,0.021738,0.013186
-0.16278,-0.23429,-0.22658,-0.12194,-0.055592,-0.054572,-0.048745,-0.095234
0.010595,-0.44067,-0.05563,0.061678,0.021353,0.023393,0.013981,0.0076695
0.15506,0.15359,-0.34528,-0.12735,-0.034133,-0.0076744,0.0068344,0.033069
0.23976,0.53874,0.71805,0.4366,0.16869,0.070944,0.10161,0.14516
-0.1107,0.38128,0.14594,-0.3561,-0.10465,-0.014333,-0.030045,-0.077988
-0.10057,-0.39706,-0.13271,0.1029,0.0050072,-0.021523,-0.029065,0.0039335
0.041919,0.14003,0.42528,0.18711,0.052065,0.041372,-0.0051367,-0.0079851
-0.1459,-0.2734,-0.52808,-0.15179,-0.088622,-0.11478,-0.044384,-0.036136
0.13151,-0.088232,-0.36216,-0.094389,0.012729,0.041383,0.009469,0.0050147
0.10794,-0.3452,0.065706,-0.039098,-0.0028625,0.017992,0.03951,0.04499
-0.18495,-0.080945,-0.40108,-0.20367,-0.080073,-0.051692,-0.063164,-0.080142
-0.1834,0.069787,0.44561,0.13236,0.03181,0.012483,0.0066942,-0.026244
-0.010603,0.013202,-0.47884,0.025598,0.020844,0.007723,0.015202,0.027523
0.17902,0.96805,0.95393,0.15718,0.098134,0.1216,0.07201,0.050399
0.089868,-0.27828,-0.17493,0.16816,-0.0023254,-0.052405,-0.026052,0.0036062
0.23786,0.12134,0.39302,0.088889,0.062254,0.063262,0.040941,0.058978
-0.29193,-0.56707,-1.0564,-0.56715,-0.22517,-0.2197,-0.094872,-0.08075
0.20966,-0.025358,0.4301,0.23611,0.11816,0.09782,0.026619,0.036898
-0.19713,0.23495,0.27843,0.12833,0.012605,0.022809,0.02179,-0.018508
-0.13933,-0.25904,-0.12764,-0.049387,-0.019484,-0.023509,-0.03969,-0.0053985
0.42872,0.47339,0.39885,0.27176,0.12304,0.060038,0.068399,0.13061
-0.52416,-0.61717,-0.66598,-0.50974,-0.20786,-0.10945,-0.14612,-0.29783
0.1284,0.29614,-0.25075,-0.29072,-0.089173,0.13234,0.15307,0.12394
-0.040799,-0.083726,0.18726,0.33018,0.098038,-0.026529,-0.049018,-0.0093736
0.064963,-0.13137,-0.0015966,0.16901,0.12141,0.024213,-0.040607,-0.0013556
0.073471,0.59109,0.62957,0.20583,-0.0015064,-0.081475,0.077608,0.14118
0.20539,-0.23685,0.029836,0.099606,0.09017,-0.053216,-0.052979,-0.034239
-0.20276,-0.59275,-0.98322,-0.6013,-0.24332,0.024364,-0.0099322,-0.058647
0.19978,0.84198,0.63495,0.43923,0.13877,0.01955,0.035144,0.028607
-0.19054,0.033997,-0.27465,-0.24077,-0.068812,0.058,-0.042799,-0.077838
-0.063814,-0.58095,0.27634,-0.096261,-0.039059,-0.07119,0.084024,0.066433
0.13207,-0.0034951,-0.12364,0.18305,0.1172,0.045365,-0.069317,-0.016059
-0.13601,0.13466,0.065429,0.0091129,-0.015605,0.07822,0.027782,-0.029177
0.3343,0.68054,0.73388,0.41942,0.16277,0.064691,0.10129,0.18293
-0.51115,-1.0635,-0.83027,-0.6336,-0.24695,-0.13768,-0.19295,-0.22345
-0.061328,0.26882,0.028061,0.14725,0.012824,0.016449,0.098036,0.072474
0.25645,-0.025578,-0.46544,-0.19761,-0.088722,-0.13789,-0.11937,-0.092552
0.21021,0.31038,0.51688,0.5526,0.24626,0.13358,0.1005,0.11837
-0.15916,-0.25728,-0.54094,-0.7093,-0.33258,-0.145,-0.085716,-0.15328
-0.046212,-0.19545,0.26654,0.065239,0.082094,0.027673,0.12701,0.053909
0.15791,0.4703,0.96098,0.57994,0.2409,0.13752,0.090358,0.20079
0.014046,0.18692,-0.3747,-0.13482,0.018749,-0.048408,-0.13329,-0.033648
0.09797,0.28867,0.12265,0.4108,0.16485,0.16621,0.049473,0.029102
-0.31937,-0.47022,-0.52786,-0.5522,-0.33771,-0.10883,-0.11176,-0.088926
0.041222,-0.21056,-0.095561,0.027236,0.0018383,0.048259,0.077949,-0.092123
-0.11052,-0.43417,-0.19993,-0.23683,-0.059836,-0.11304,-0.0066264,-0.028186
0.014204,0.46974,0.41642,0.22407,0.047033,-0.093408,-0.060832,0.016763
0.16589,-0.25903,-0.45611,-0.098166,0.049174,0.043942,0.0013938,-0.027137
-0.21711,-0.040761,0.11478,-0.24909,-0.10728,-0.13912,0.023997,0.098862
0.24882,0.79367,0.89791,0.59415,0.18046,0.32562,0.05401,0.05998
0.19687,-0.24816,-0.43946,-0.010535,0.062244,0.08611,0.060222,-0.01767
0.056656,0.20219,0.51961,-0.020697,-0.1013,-0.31902,-0.051222,0.046464
-0.36751,-0.51751,-0.77694,-0.33168,-0.082649,0.21927,-0.046148,-0.14553
-0.068077,-0.42921,-0.54537,-0.13631,0.0093514,-0.14287,0.0049274,0.039331
0.17396,0.53769,0.74028,0.3952,0.081052,0.040099,-0.015273,0.03848
0.047158,-0.040509,-0.20667,-0.13485,0.0306,0.01884,0.0027346,-0.046774
-0.24346,0.073706,-0.064035,0.093584,-0.0019808,-0.018089,0.035859,0.04105
-0.17199,-0.12784,0.23922,-0.17854,-0.15812,-0.06154,-0.0090981,-0.081223
0.27976,0.13209,-0.047859,0.046691,0.006598,-0.11014,-0.084586,0.0079056
0.16854,-0.21639,-0.2329,-0.053748,0.053749,0.06377,0.099139,0.050226
0.20633,0.85598,0.94497,0.37651,0.15436,0.30448,0.066071,0.17032
-0.39624,-0.66954,-0.80144,-0.1889,-0.043832,-0.083552,-0.1366,-0.19473
0.031084,-0.022033,-0.025138,-0.18203,-0.06474,-0.054477,-0.001049,-0.014046
-0.030036,-0.014309,0.24539,0.0128,-0.072574,-0.1803,0.042694,0.0089779
0.065563,-0.26815,-0.27397,0.035919,0.042287,-0.0021317,0.001802,0.014895
0.36147,0.5286,0.36222,0.18512,0.11643,0.22014,0.10198,0.12886
-0.43411,-0.45609,-0.30359,-0.17819,-0.13041,-0.030799,-0.095179,-0.14091
-0.33077,0.011749,-0.42141,-0.16063,-0.12674,0.1112,0.073564,0.010909
0.51464,0.16826,0.69659,0.30336,0.20672,-0.31495,-0.11888,0.022601
-0.12385,-0.14827,-0.65195,-0.36159,-0.074446,-0.05848,-0.055468,-0.089364
0.20056,0.40715,0.92316,0.49497,0.13962,0.1634,0.10003,0.14452
-0.17412,0.21609,-0.58122,-0.079197,-0.010571,0.094917,-0.011153,-0.033014
-0.30039,-0.80416,-0.41423,-0.31104,-0.20535,-0.10556,-0.0053928,-0.098372
0.28458,0.49438,0.9598,0.079102,0.01507,0.040318,0.039962,0.096625
-0.05861,-0.0015092,-0.10702,0.22154,0.14146,0.057131,0.023915,0.020018
0.35019,-0.103,0.023666,0.12891,0.12542,-0.015732,-0.061128,0.01447
-0.36434,-0.40415,-0.6203,-0.63152,-0.25314,0.0087532,-0.066919,-0.17134
0.25787,0.54749,0.25533,0.36734,0.020404,-0.1127,0.11535,0.16432
-0.11225,0.127,-0.14631,-0.17326,0.015892,0.055995,0.016099,-0.026626
-0.13158,-0.25735,0.33503,0.18331,0.038147,0.036838,-0.053091,-0.034105
-0.096917,-0.13204,-0.26074,0.14818,0.072271,0.055288,0.016363,0.00092953
0.24265,0.065621,0.079637,0.027327,-0.021126,-0.10797,0.075575,0.11002
-0.22061,-0.0046732,-0.22061,-0.18477,-0.045138,0.0080546,-0.08634,-0.1278
-0.023805,-0.016392,0.10776,-0.039674,-0.021462,-0.08036,-0.085956,-0.039198
0.20207,-0.047446,-0.001537,-0.31497,-0.12032,0.010608,-0.039355,-0.020868
-0.018447,-0.097087,0.36032,0.18056,0.011145,-0.10078,0.039232,0.014916
0.056863,0.045518,-0.65883,0.19228,0.21741,0.31284,0.13556,0.10089
0.13773,0.48753,0.61587,0.12856,0.068808,0.064286,0.039777,0.081731
-0.32502,-0.35436,0.22188,-0.080341,-0.13069,-0.073297,-0.036673,-0.073623
0.14998,0.12849,-0.42467,0.048912,0.047347,-0.069427,-0.054868,-0.021964
0.12985,0.15886,0.26127,-0.04869,-0.10175,-0.20636,-0.039023,0.032447
-0.46637,-0.56623,-0.60528,-0.34539,-0.14199,-0.047553,-0.052885,-0.16969
0.31237,0.39907,0.67717,0.34243,0.21452,0.25791,0.15988,0.16698
-0.058326,0.10219,-0.53149,-0.12942,-0.032864,0.10048,-0.019362,-0.068261
-0.023615,-0.4707,0.030413,0.017582,-0.048255,-0.074203,0.048885,0.06902
0.14432,0.1296,0.21428,0.23517,0.090741,-0.15598,-0.15943,-0.077774
0.18984,0.60489,0.10173,0.062578,0.049156,0.059389,0.051007,0.1244
-0.32956,-0.73877,-0.41809,-0.52974,-0.22646,-0.090921,-0.092591,-0.15968
-0.16847,0.11794,0.10803,0.1253,0.069838,0.0035407,0.012427,-0.030512
0.32477,0.14128,0.21934,0.031404,0.048497,0.20278,0.16422,0.14587
-0.20634,-0.13933,-0.14001,-0.042153,-0.016443,-0.14951,-0.10483,-0.11392
0.1075,0.36768,0.30752,0.11827,0.046868,0.14898,0.034138,0.057872
-0.11556,-0.38807,-0.25751,0.084024,-0.043552,-0.059544,0.034345,0.028445
0.17104,0.32233,0.33436,0.11968,0.070296,0.019811,0.0046455,0.047222
0.18434,0.014581,-0.46898,-0.051227,0.011601,0.0021862,-0.0012963,0.027231
-0.25809,-0.25872,0.23165,0.019939,-0.041867,-0.14534,-0.047239,-0.087451
0.066914,-0.0013415,0.10825,-0.038961,0.017622,0.052888,-0.0015338,-0.024494
0.077805,0.15701,-0.25245,0.017752,-0.021893,0.042255,0.056946,0.059184
-0.29081,0.28184,-0.066646,-0.33604,-0.15276,-0.043314,-0.059398,-0.11769
0.16227,-0.5606,0.10823,0.039902,0.078928,0.024717,-0.021804,0.00026564
-0.16527,0.25203,0.11602,0.10074,0.065365,-0.024588,-0.032102,0.062732
0.26602,0.1016,-0.0014026,0.092721,0.082083,0.076975,-0.0026474,0.00095276
-0.14426,-0.40953,-0.028118,-0.057068,-0.14997,-0.16842,-0.017618,-0.042958
-0.003887,0.056663,-0.5047,-0.24958,-0.16014,0.0062241,0.088474,0.08833
0.079316,0.10443,0.66139,0.52731,0.34187,0.28087,0.12108,0.0046109
-0.088796,0.072196,-0.094359,-0.13016,-0.042005,-0.07192,-0.037045,0.02585
0.11739,-0.015003,-0.25999,-0.14362,-0.031063,-0.069588,-0.089915,-0.044293
-0.020777,0.16354,-0.36489,0.16473,0.0453,0.066715,4.5448e-05,-0.011986
0.26217,0.5759,0.8091,-0.04456,-0.11929,-0.095141,0.012306,0.050855
-0.24478,-0.23992,0.50157,0.03673,-0.026551,-0.018046,-0.054848,-0.091527
-0.05682,-0.61269,-0.721,-0.040773,0.064356,0.039138,0.039437,-0.0025141
-0.27436,-0.25272,0.10626,-0.21756,-0.081699,-0.1501,-0.033724,-0.033896
0.026333,0.0063325,-0.46481,-0.049656,0.035225,0.11066,0.038066,0.056944
0.28502,0.12908,0.03347,0.018058,-0.0061887,-0.012716,0.0052962,0.013142
0.058535,0.15102,-0.17934,0.15941,0.052843,-0.041545,0.040769,0.031245
0.059246,0.58363,0.44576,0.20537,0.041555,0.1276,-0.10437,-0.0046905
-0.22042,-0.46172,-0.4405,-0.41919,-0.14063,-0.074395,-0.04617,-0.13272
-0.016067,0.15521,0.64757,0.38973,0.13975,0.1887,0.16157,0.14775
0.036884,-0.060609,-0.048503,-0.21805,-0.05459,-0.091573,-0.004087,-0.0069688
0.16913,0.11259,0.35899,0.12476,0.057389,-0.010327,0.0038069,0.012105
0.071839,-0.17476,-0.38466,0.065521,-0.040467,-0.17086,-0.057279,-0.030177
-0.11818,-0.029921,0.074498,-0.12422,-0.012896,0.097029,-0.0082677,-0.017572
0.041637,0.15966,0.028583,0.17836,-0.0011516,-0.012658,0.0016946,0.0099562
-0.30132,-0.687,-0.81427,-0.31775,-0.021288,0.061893,0.011039,-0.049829
0.064837,0.14796,-0.032308,-0.12168,-0.057836,-0.085597,-0.050973,-0.017571
0.033579,0.57162,0.38479,0.055119,0.022128,-0.017097,0.026431,0.052081
0.023122,-0.093625,0.16804,0.22073,0.031385,-0.0051549,-0.022278,0.0032328
0.11618,0.28774,0.53367,0.21968,0.1187,0.14654,0.10788,0.086442
-0.050426,-0.046987,0.025631,-0.001713,-0.012557,0.056062,0.018858,-0.033607
-0.28675,-0.67311,-1.0087,-0.46594,-0.15135,-0.17441,-0.15609,-0.17668
0.29811,0.37297,0.84682,0.17144,0.077234,0.11166,0.059976,0.08729
0.13952,-0.38292,-0.82964,-0.14391,-0.084842,-0.21072,-0.051421,0.016212
0.17864,0.22524,0.45291,0.29887,0.13553,0.19418,0.1036,0.1021
-0.074228,0.31602,0.18441,-0.13348,-0.090111,-0.064564,-0.021847,-0.038281
-0.33531,0.015011,0.38569,0.30831,0.066038,0.059604,0.025186,0.039831
-0.069467,-0.25618,-0.90647,-0.27498,-0.013409,-0.03513,-0.044612,-0.10939
0.28432,0.26706,0.29866,-0.032386,-0.00037307,-0.036406,0.002866,0.037171
-0.29585,-0.40112,-0.0068784,-0.081214,-0.11347,-0.037995,-0.043528,-0.09858
-0.00085128,0.034529,-0.017129,-0.022552,0.061683,0.061748,0.042672,0.061863
0.074353,0.40853,0.18451,0.19156,0.064592,0.028593,-0.0041276,0.019184
-0.2737,-0.28792,0.08583,0.047016,-0.010475,0.0033173,0.019338,0.024203
0.48527,-0.20368,-0.53607,-0.2826,-0.053629,-0.068638,-0.0508,-0.023871
-0.0033739,0.30197,0.43929,0.14956,0.052761,0.047191,0.035642,0.031742
-0.03488,0.15922,0.10011,0.18055,0.02778,0.053992,0.013149,-0.0041038
0.10761,-0.3188,-0.42011,-0.16572,-0.081495,-0.063799,-0.024539,-0.030093
-0.21384,-0.34243,0.05718,0.071407,0.014054,0.014213,0.031816,0.031281
0.17308,0.7292,0.32576,-0.18719,-0.045053,-0.094678,-0.013348,-0.00055219
-0.20086,-0.14312,0.13873,0.12726,0.053406,0.023691,-0.0040797,-0.040637
-0.038683,-0.23347,-0.27532,-0.026241,-0.0035204,0.06467,-0.018789,-0.0039437
0.23204,0.19158,-0.10207,0.13156,0.080441,-0.0030737,0.012644,0.05417
-0.14923,-0.30649,-0.18275,-0.14334,-0.078212,0.038966,0.0042397,-0.0072318
0.076062,0.49808,0.81489,0.21021,0.12142,0.096655,0.065509,0.038524
-0.30683,-0.34034,-0.39967,-0.29279,-0.17275,-0.19764,-0.11574,-0.11274
-0.04922,0.022322,-0.28631,0.090002,0.023404,-0.0084001,-8.4082e-06,-0.038309
0.044174,-0.16303,-0.13859,0.047045,0.045895,0.070372,0.014727,0.020581
0.26996,-0.090396,-0.272,-0.084179,-0.073648,-0.039501,0.030426,0.09609
0.28252,0.40562,0.45935,0.041879,0.063806,0.084027,0.039497,0.040417
-0.12578,0.083806,0.31764,-0.057502,-0.0098417,-0.074322,0.0028558,-0.021202
-0.18124,-0.25089,-0.14781,-0.16246,-0.067478,-0.0062898,-0.056328,-0.049907
0.066647,-0.020936,0.13323,0.51639,0.16466,0.077631,0.064607,0.047477
0.034957,0.31911,0.22869,-0.0058776,0.022538,-0.025324,-0.041154,-0.026727
-0.32914,-0.54528,-0.54508,-0.19925,-0.072163,-0.033695,-0.046033,-0.085866
0.21831,0.24297,0.33116,-0.073087,-0.096359,-0.017775,0.026097,0.041205
0.023637,0.14267,-0.37231,-0.11319,0.012092,0.0066344,-0.012525,0.049295
-0.080936,-0.2931,-0.35965,-0.17202,-0.036131,0.00012445,-0.029165,-0.08526
0.066781,0.5521,0.69889,0.34397,0.079194,0.10287,0.13252,0.15321
0.10742,-0.17283,-0.17694,0.16969,0.13939,-0.037161,-0.042887,-0.078759
-0.35582,-0.44277,-0.29372,-0.39692,-0.17563,-0.03751,-0.055067,-0.061979
0.19554,0.026397,0.29262,0.11428,-0.0062002,-0.023321,0.0026024,0.032236
0.30406,0.53522,0.40835,0.34528,0.148,0.075868,0.075858,0.12637
-0.37822,-0.80302,-0.98918,-0.39805,-0.18928,-0.15356,-0.10048,-0.14618
0.081589,0.39004,0.47661,0.010109,0.013415,-1.6526e-06,-0.010366,-0.019266
-0.00154,0.20246,0.35912,0.08577,0.092117,0.1232,0.049687,0.030959
0.053614,-0.13879,-0.087845,-0.085184,-0.0079306,-0.072407,-0.013844,0.012543
0.22422,0.67731,0.45015,0.48902,0.15056,0.19472,0.1116,0.14429
-0.25552,-0.64907,-0.65069,-0.34853,-0.1593,-0.10674,-0.089735,-0.1364
0.098042,0.089185,-0.22453,-0.11422,-0.055044,-0.078833,-0.00095692,0.029573
-0.21606,-0.51794,-0.34612,-0.19938,-0.052603,-0.011383,-0.067795,-0.1081
0.027697,0.60474,0.54484,0.23906,0.097787,0.063444,0.076459,0.098661
-0.070145,-0.013138,0.26081,0.012986,-0.010292,-0.042742,-0.03743,-0.053617
0.2238,-0.55926,-0.19654,0.11389,0.076151,0.059973,0.051026,0.067539
-0.021201,0.21741,-0.20741,-0.091837,-0.08051,-0.019437,-0.033544,-0.053828
0.060978,0.0060805,-0.10492,0.059051,0.058677,0.00026412,0.013287,0.050702
0.21932,0.66801,0.98829,0.269,0.087418,0.064786,0.035156,0.037083
-0.28911,-0.23271,-0.64485,-0.40757,-0.13481,-0.19229,-0.014741,-0.0089632
-0.034825,-0.12463,0.15294,0.10005,-0.0061253,0.081615,-0.058008,-0.079703
-0.28295,-0.41325,-0.38344,-0.29294,-0.12756,-0.018644,-0.039509,-0.081279
0.28025,0.21451,0.10575,0.1418,0.11097,0.054775,0.080399,0.11942
-0.077875,0.079593,-0.26199,0.03131,-0.0085973,0.013459,-0.017971,-0.016231
0.066441,0.049975,0.060388,0.14305,0.11585,0.060743,0.033137,0.051368
0.18354,-0.053127,0.25241,0.1032,0.0079675,-0.0067499,-0.00022208,-0.036649
-0.10843,-0.096093,0.11028,-0.12711,-0.11362,-0.11151,-0.024064,-0.022041
0.026661,-0.078497,0.50776,0.12325,0.086556,0.011261,-0.014919,0.0095539
0.010131,0.13223,-0.41595,-0.0065451,-0.017145,0.016998,0.0036326,0.0035926
0.075292,0.51154,0.24429,0.05213,0.019931,0.092546,0.086015,0.092886
-0.38072,-0.87229,-0.80073,-0.51468,-0.16992,-0.14527,-0.11184,-0.18364
0.070517,0.36079,-0.23731,0.096839,-0.0010284,0.022232,0.0034817,0.04096
0.19349,0.41859,0.5854,0.33183,0.13592,0.07184,0.07232,0.1257
-0.10653,-0.32688,-0.21238,-0.26247,-0.040241,-0.089832,-0.093093,-0.11736
0.12271,-0.16696,0.18453,0.2286,0.048728,0.029786,0.022616,0.029999
-0.010327,0.14723,0.33991,0.047709,0.027849,0.08721,0.04418,0.028149
0.055922,0.092543,0.22168,-0.00042605,0.014204,0.043443,0.041607,0.024957
-0.062262,-0.38408,-0.64984,-0.13504,-0.054913,-0.10948,-0.032314,-0.019127
