0.22506,-0.079897,-0.035816,0.0081532,0.0093376,0.022525,0.0020553,0.10177
-0.05665,0.039228,0.027782,0.0092652,0.022679,0.031342,0.21058,0.040214
0.34506,0.025398,0.012682,0.002727,-0.0030484,0.032925,0.10228,0.12167
-0.034212,0.034297,0.035757,-0.011914,0.0013609,0.025512,0.038874,-0.040253
-0.37792,0.050011,0.026578,0.0040243,-0.035294,-0.078301,-0.07831,-0.14415
0.33419,-0.2086,-0.10848,-0.012158,-0.019745,-0.1153,-0.32284,0.026412
-0.40751,0.071494,0.052828,-0.0057225,0.001164,0.039442,0.070026,-0.06065
0.084456,-0.0073074,-0.035802,0.031459,0.0045347,-0.082138,-0.648,-0.27959
-0.22724,-0.006597,-0.045588,-0.079773,0.006929,0.16964,0.7066,0.15291
0.066733,-0.066349,0.078769,-0.041926,-0.013954,0.0071885,0.13881,0.13029
0.45437,0.13382,0.048621,0.13774,0.028922,0.049078,0.17707,0.25699
0.04059,-0.031835,-0.057799,-0.07171,0.0035833,-0.08651,-0.34655,-0.089701
0.046524,-0.010202,0.0092647,0.12658,0.004192,-0.016301,0.054456,0.02122
-0.24549,0.27463,0.10081,-0.10371,0.022851,0.11118,0.44271,-0.003723
-0.2107,-0.21881,-0.1433,0.010154,-0.011298,-0.15776,-0.84764,-0.35262
0.024615,-0.031541,0.065116,0.045456,-0.0053886,0.10573,0.50837,0.13747
0.27099,0.023028,-0.095037,-0.014231,0.0083005,-0.060268,-0.26662,0.043354
-0.20038,-0.10133,0.063086,-0.028856,-0.041519,-0.039482,0.088952,-0.026857
0.15525,0.12121,-0.039107,-0.13146,-0.014973,0.081388,0.24336,0.074209
-0.070124,-0.086653,0.019974,0.13902,0.0093907,-0.034129,-0.15769,0.0019818
0.067621,-0.2825,0.029245,-0.068539,-0.015376,0.0043085,0.14206,0.060583
0.16957,0.61677,0.10587,0.0042408,0.043768,0.040407,-0.3264,0.070014
-0.58436,-0.8302,-0.20314,0.1626,0.01538,-0.011588,0.031694,-0.29009
0.15817,0.65195,0.3916,-0.18683,-0.037505,-0.049723,-0.094086,-0.0039213
0.203,0.0077212,-0.54678,0.20619,0.026294,0.04377,0.43965,0.1477
-0.034608,-0.1573,0.15455,-0.056733,0.051066,0.011831,-0.067143,0.040346
0.23545,0.29895,0.21568,-0.061457,-0.032976,-0.066534,-0.27552,-0.051883
-0.040727,-0.092373,-0.018048,-0.1281,-0.029979,0.067434,0.40313,0.090466
-0.26095,-0.23773,-0.099644,0.040626,-0.017503,-0.030655,-0.279,0.046239
0.38011,0.20019,-0.27757,0.12508,-0.010597,-0.0084564,-0.078122,-0.07445
-0.75733,-0.10238,0.05865,-0.038011,-0.0087504,-0.06077,-0.24333,-0.27867
0.83568,0.066099,0.57352,-0.049416,0.027408,0.13283,0.60049,0.27798
-0.58176,-0.10989,0.024423,0.028915,-0.011536,-0.045196,-0.35998,-0.19317
-0.25858,-0.45797,-0.8712,0.064311,0.0067103,-0.10356,-0.22037,-0.067205
0.51653,0.28999,0.55647,-0.17019,-0.012652,0.09702,0.47742,0.25666
-0.13223,-0.3793,-0.39045,0.27752,0.11636,0.039227,0.018837,0.12062
0.49602,0.54965,0.5432,-0.19565,-0.014285,-0.0052771,-0.068773,0.05377
-0.21943,-0.068253,-0.012045,0.11928,-0.015705,0.032239,0.054824,-0.18065
-0.24382,0.26499,0.13773,-0.31892,-0.045476,-0.03679,-0.18311,-0.022207
0.29363,0.76892,-0.2028,0.065786,-0.04949,-0.056408,-0.072345,0.0045179
-0.20397,-0.38714,-0.65696,0.38887,0.0038854,-0.03381,0.013382,-0.084667
-0.40198,-0.33927,0.37227,-0.046015,0.022266,-0.030019,-0.25873,-0.19438
0.37246,-0.16662,-0.04033,0.16731,0.015607,0.035192,0.23291,0.19383
-0.25253,-0.79521,0.50055,-0.49344,-0.16981,0.0078923,0.19627,0.028723
0.16517,-0.051468,-0.62626,-0.02589,0.14029,0.022967,-0.1535,-0.045809
0.23238,0.77494,0.58113,-0.45787,-0.14609,-0.004131,0.17077,0.10542
-0.37424,-0.50053,-0.79229,0.87861,0.37023,0.1067,-0.13474,-0.040117
0.57533,0.57117,0.78069,-0.090868,-0.014355,0.018919,0.36632,0.34498
-0.42513,-0.1256,-0.25369,-0.12913,-0.074798,-0.081479,-0.38357,-0.26488
0.061489,0.43742,0.29888,0.11672,-0.032034,0.092575,0.10399,0.010088
0.3847,0.31414,0.054171,-0.002105,-0.16962,-0.17972,-0.24536,-0.13799
-0.48987,-0.40769,-0.33165,-0.65941,-0.11443,-0.048446,0.064844,-0.086702
-0.17504,-0.42515,0.12094,0.8917,0.22617,0.063571,-0.038261,-0.0016314
0.39647,0.2901,-0.25266,-0.64932,-0.093242,0.031236,0.10806,0.1873
-0.074328,0.11936,-0.27644,0.71398,0.14679,0.04273,0.11307,-0.08929
-0.057119,-0.36526,-0.15309,-0.091488,0.010095,0.052414,0.41527,0.11559
-0.02821,-0.28274,0.089168,-0.71561,-0.19708,-0.16479,-0.66321,-0.13359
-0.025468,-0.45137,0.56327,0.30265,0.10484,0.048797,-0.033985,0.0086603
0.21846,0.34405,0.17745,-0.51954,-0.02844,0.053586,0.21188,0.21533
-0.32591,-0.15776,0.024208,0.9296,0.13005,-0.056173,-0.30582,-0.31794
0.18649,1.1627,0.059293,-0.28492,-0.021517,0.14126,0.43848,0.30684
0.084323,0.62469,0.10187,-0.47381,-0.14808,-0.01888,0.17271,0.088667
-0.14852,-0.27586,-0.95352,0.69146,0.10067,-0.10798,-0.39184,-0.30177
-0.036884,-0.73221,0.012818,0.05344,0.035828,0.021194,-0.021318,-0.052949
0.58902,-0.1788,0.78455,-0.27331,-0.046937,0.062942,0.43143,0.20968
-0.56998,-0.34334,-0.36945,0.11403,-0.0078228,-0.15526,-0.5743,-0.27148
0.16385,0.091044,0.14124,-0.46759,-0.12835,0.030478,0.23323,0.12934
-0.30439,0.16595,-0.545,0.33097,0.14649,0.089223,0.024437,0.046022
-0.11542,-0.1739,-0.0079463,-0.37392,-0.088804,-0.040896,-0.084543,-0.11416
0.44275,-0.3567,0.43821,0.872,0.13558,0.039332,0.24162,0.23534
-0.010757,0.20347,0.50218,-0.5845,-0.085536,-0.020951,-0.23948,0.039789
-0.075009,0.47037,-0.13919,-0.278,-0.048107,-0.041573,-0.21534,-0.18586
0.11202,0.5252,-0.17647,0.40607,0.13908,0.094843,0.32979,0.080721
-0.20501,0.42486,-0.026078,-0.23041,-0.031586,0.013211,0.2476,0.041436
0.069777,-0.03157,-0.032424,0.13671,-0.044582,-0.067975,-0.30556,-0.14836
0.047304,-0.73792,-0.39673,-0.26414,-0.0017931,0.038506,0.076731,0.042318
-0.021492,-0.85565,0.1201,0.62121,0.057359,-0.019054,0.13705,0.051518
-0.18325,-0.013503,-0.3733,0.00075591,-0.039255,-0.11557,-0.46763,-0.24447
0.069308,-0.30472,0.35782,-0.13025,-0.041686,0.030513,0.099667,0.10922
0.16458,0.9958,0.14933,-0.52745,-0.19197,-0.010002,-0.066032,0.08314
0.10051,0.40864,0.41309,0.077312,0.18989,0.15399,0.45838,0.17084
-0.21929,0.14023,-0.30173,0.60992,0.15104,-0.008424,-0.10742,-0.14274
0.038111,0.082288,0.050231,-0.21231,-0.027084,-0.036235,-0.020858,0.0013666
-0.1147,-0.29839,0.36244,-0.098996,-0.016359,-0.0077972,0.038202,0.08618
0.10084,-0.76559,-0.66928,-0.31179,-0.12948,-0.079844,-0.26684,-0.10125
0.19836,-0.28393,-0.1703,-0.26671,-0.022986,0.012608,-0.046321,-0.086666
-0.034051,0.0728,0.29723,0.27724,0.029348,0.057947,0.20649,0.17469
-0.088342,0.4002,0.11069,0.38067,0.089726,0.063387,0.068699,-0.076557
-0.33021,0.31981,0.45501,0.32875,-0.068661,-0.12775,-0.22622,-0.13023
0.16479,0.27366,-0.66133,-0.43222,-0.00070248,0.0312,0.2351,0.099779
0.071754,-0.0083162,-0.52388,-0.23254,0.043427,0.04809,0.038144,0.051995
-0.043441,-0.039309,0.54488,0.54786,0.040135,-0.061204,-0.24694,-0.060986
0.32209,-0.23802,0.16868,0.042904,0.036165,0.063099,0.16905,0.14564
-0.14225,0.035178,0.3927,-0.80146,-0.25763,-0.094155,-0.25257,-0.20117
-0.30301,-0.1744,-0.46603,0.35993,0.15873,0.076844,0.27003,0.033038
0.16726,-0.0841,-0.23352,0.038081,0.027466,0.0060923,-0.082839,0.0055112
0.15742,0.17288,0.2928,-0.26931,-0.065416,-0.064103,-0.19348,-0.025707
0.032214,-0.091159,0.063056,0.31288,0.098904,0.061485,0.23529,0.20444
-0.26564,0.0151,0.33816,-0.11167,-0.10452,0.015421,0.094141,-0.03182
0.33981,-0.046334,-0.44982,0.29658,0.089948,0.016125,0.10173,0.029563
-0.28549,-0.1273,-0.14966,-0.067399,0.010477,0.00080715,0.031402,-0.073877
-0.032265,0.088334,0.19593,-0.16783,-0.045991,-0.085368,-0.55425,-0.17919
-0.11816,0.058269,-0.10997,-0.08648,-0.055859,-0.031398,0.017011,-0.013395
0.060348,-0.003998,-0.1059,0.062962,0.0045594,0.0067359,0.0035368,-0.021522
0.23216,0.087146,0.062084,-0.052898,0.002765,0.021616,0.20266,0.15663
-0.0068949,0.10508,-0.00097578,0.3252,0.079692,0.068311,0.25504,0.084615
0.078911,0.28555,0.20862,-0.31811,-0.022251,0.014247,0.097617,0.0055873
-0.18204,-0.11794,0.10803,-0.046152,-0.037377,-0.031201,-0.21611,-0.10333
0.12345,-0.012163,-0.05865,0.16268,0.057616,0.07234,0.19518,0.11727
-0.27987,-0.39166,-0.1503,0.27459,0.0045989,-0.089637,-0.33395,-0.13776
0.23057,-0.10999,0.14483,-0.3852,-0.087502,-0.048904,-0.22617,-0.017675
-0.10556,-0.081109,-0.3155,0.055353,0.030816,0.01437,0.096675,0.054687
0.022015,0.24507,0.24805,-0.12514,-0.031527,-0.032972,-0.05992,-0.12469
0.21345,-0.070297,-0.02567,0.024378,0.092325,0.13704,0.36002,0.23263
0.19502,0.060031,-0.075407,0.37755,0.027232,0.008823,0.2563,0.048291
-0.56346,0.13905,-0.14389,-0.42553,-0.10952,-0.081441,-0.23721,-0.17744
-0.051817,0.13905,0.073725,0.16229,0.018365,-0.0083542,-0.26842,-0.084444
-0.024528,-0.069596,0.28908,0.38432,0.028662,-0.037022,0.014312,-0.06224
0.13152,-0.11751,-0.012389,-0.27313,-0.03881,0.020631,0.11851,0.10924
0.33378,0.043186,-0.15759,-0.31524,-0.0035587,0.055782,0.27033,0.20472
0.13927,-0.048561,0.0031003,0.081434,0.049194,0.014192,-0.30391,-0.024843
-0.38094,-0.089023,-0.1855,-0.1033,-0.02851,-0.017926,0.028604,-0.14922
-0.09501,-0.024999,0.089912,0.016229,-0.049032,-0.056132,-0.13022,-0.051256
0.10384,0.016776,0.15004,0.67634,0.15925,0.032239,0.017126,0.049783
0.1025,0.15953,-0.16926,-0.38011,-0.052727,0.043728,0.29165,0.11389
0.1154,-0.043736,0.24078,0.025827,-0.076455,-0.076827,-0.15769,-0.086709
-0.27575,0.0071086,-0.034974,-0.10783,0.040209,0.01377,-0.14329,-0.084591
0.18336,-0.017148,-0.013478,-0.018248,-0.0083258,0.04151,0.1469,0.072089
-0.35327,0.078238,-0.18823,-0.099137,-0.058677,-0.0097499,0.11807,0.0072597
0.33239,-0.081654,0.14288,0.25597,0.084107,0.02365,0.010929,0.11081
-0.11034,-0.011655,-0.10658,-0.20532,-0.017491,0.00085352,-0.05116,-0.0081548
0.10997,-0.069684,-0.10842,-0.062805,-0.01944,-0.054723,-0.17904,-0.11502
0.035852,-0.066322,0.30201,0.19815,-0.022813,-0.049141,-0.12368,-0.12307
-0.2113,0.070792,-0.21817,-0.126,0.0042037,0.057022,0.23963,0.062628
0.068226,0.038737,-0.17583,0.15226,0.030878,-0.0092158,-0.065229,0.0060241
0.026914,0.057372,0.69545,-0.23243,-0.020542,0.057298,0.21281,0.15385
-0.011684,0.087843,-0.29908,0.36107,0.092315,-0.00085896,-0.21381,-0.008338
0.071606,-0.026817,-0.22944,-0.12119,-0.028965,-0.011531,0.031633,-0.011043
-0.011814,-0.045855,0.099861,0.0016244,-0.0016256,0.017642,0.028954,-0.0024349
-0.14592,-0.041352,-0.2329,-0.23763,-0.091312,-0.077308,-0.087558,-0.12332
0.041593,-0.0071382,0.27245,0.069453,0.0067719,0.016187,0.12849,-0.030482
0.23435,-0.069318,-0.16512,0.0035511,0.011658,0.0013112,-0.08797,0.087809
-0.0488,0.037418,0.37636,0.09078,0.033137,0.018735,0.028651,0.011889
-0.054717,-0.045778,-0.21257,-0.13523,-0.037723,-0.0096744,0.0089583,0.029833
-0.060928,0.026046,-0.065052,0.20995,0.049408,0.009722,-0.038855,-0.023414
-0.28131,0.082595,-0.088018,-0.05286,-0.01008,0.0063541,0.11019,-0.031602
0.28275,0.016081,-0.040246,-0.28389,-0.060195,-0.020193,-0.13946,-0.01115
0.11593,0.030889,0.23328,0.46005,0.12502,0.077977,0.20261,0.10769
-0.14708,-0.08322,-0.096939,-0.17571,-0.041239,-0.0591,-0.16982,-0.073764
0.090632,-0.060586,0.17083,0.10997,0.041623,0.013356,-0.085931,0.014932
-0.1201,0.027881,-0.05047,-0.10809,-0.080377,-0.040961,0.078742,-0.063196
-0.00944,0.14203,-0.050491,0.089556,0.0062709,0.012209,0.043034,0.028666
-0.034433,-0.039828,-0.047797,-0.3762,-0.10479,-0.030084,-0.051807,-0.083372
0.16735,-0.050352,-0.18976,0.10459,0.12588,0.082604,0.28746,0.19563
-0.027278,-0.054824,0.15044,-0.036353,-0.066588,-0.070965,-0.32061,-0.13327
-0.0085712,-0.030661,-0.22808,0.094516,0.076628,0.041175,0.031726,0.047917
0.097409,0.029532,0.30182,0.2894,0.0018427,-0.0099874,-0.0056041,0.036473
-0.26628,0.031999,0.022906,-0.23812,-0.079195,-0.036434,-0.017246,-0.073875
0.24105,0.023921,0.076279,0.13075,0.060539,0.055866,0.083661,0.052406
-0.19644,-0.017653,-0.10909,0.052571,0.038269,-0.0065138,-0.093092,-0.06975
0.07436,0.11097,0.035382,-0.20798,-0.029175,0.010556,0.24142,0.05883
0.066579,-0.081829,0.030803,-0.082508,-0.033073,-0.026166,-0.13998,-0.023599
0.12247,-0.025137,-0.18765,0.16091,0.025785,0.0078041,0.11332,0.08858
-0.18798,-0.038651,0.097055,-0.050575,-0.0096016,-0.01302,-0.19494,-0.050283
-0.15299,0.026724,-0.014173,0.11681,0.0086487,0.028188,-0.0030346,-0.096418
0.057335,-0.015844,-0.10664,-0.072769,-0.044724,-0.048433,-0.022286,0.013048
0.10164,0.013929,0.20434,-0.088593,-0.013408,-0.00066938,0.059848,0.02874
0.021455,-0.0085411,-0.094113,0.19482,0.063874,0.023228,0.017157,0.037312
0.092298,-0.0050122,-0.17859,-0.27581,-0.03893,-0.0077206,0.021977,-0.0075048
-0.01266,0.094574,0.13338,0.025053,0.022485,0.023939,-0.042552,-0.027268
-0.25405,0.023956,0.046815,0.26389,0.037648,0.0011965,0.0032561,0.0091796
0.23464,-0.12406,-0.094017,-0.31479,-0.071271,-0.02903,-0.0050845,0.046633
-0.05586,-0.0068246,0.24894,0.21276,0.047368,0.042538,0.30662,0.060801
0.052231,0.054245,0.13585,0.25387,0.026265,-0.010856,-0.38299,-0.09776
0.080437,-0.019878,-0.21769,-0.40999,-0.0098289,0.029318,0.16729,0.077841
-0.23057,0.020233,0.21631,0.22051,-0.022151,-0.048046,-0.1292,-0.13177
-0.014399,0.0025492,-0.5882,-0.24662,-0.08129,-0.039881,0.055439,-0.00018769
0.13528,-0.010141,0.00013699,0.030542,0.023482,-0.0086157,-0.083145,-0.019296
-0.17905,-0.087465,0.082756,0.22957,0.065458,0.038101,0.080877,0.038162
0.036261,0.084057,0.23095,-0.1126,-0.033599,-0.0011068,0.0095767,0.024628
0.15014,0.0055526,0.21974,0.21299,0.085561,0.045758,-0.030219,0.065938
0.11729,0.045324,-0.28523,-0.56092,-0.10067,-0.00099522,0.11877,0.029891
-0.037689,-0.084741,0.10778,0.36142,0.063735,0.022558,0.0041255,0.0027096
-0.14238,0.053526,0.047604,0.088839,-0.046437,-0.071321,-0.092606,-0.14845
-0.024956,-0.023933,-0.020718,0.051189,0.029582,-0.0016379,-0.093364,0.013652
-0.15478,-0.028122,-0.19944,-0.21939,0.0026767,0.036108,0.19682,0.066769
0.076497,0.040523,0.10446,0.036506,-0.048911,-0.044071,-0.17569,-0.075393
0.26138,-0.021877,0.062505,0.063266,0.023552,0.015755,0.038527,0.079091
0.10951,0.080557,0.042205,-0.1912,-0.013855,-0.010708,-0.020453,0.014491
-0.15361,-0.11425,-0.072513,0.17424,0.026921,0.056596,0.17813,0.0043132
-0.16917,0.0019479,-0.17825,-0.1505,-0.025424,-0.031935,-0.045769,-0.037132
-0.015165,0.021864,0.02412,0.32854,0.071798,0.013112,-0.090826,-0.0078848
-0.026658,0.093173,0.083688,-0.23935,-0.071673,-0.042388,-0.10552,-0.063709
0.086913,-0.065764,0.002078,-0.049659,0.020908,0.020421,0.074319,0.045879
0.014815,0.037333,0.17048,0.31048,0.013592,0.0061791,0.081778,0.0009299
-0.09293,-0.018774,-0.013428,-0.239,-0.031306,0.02407,0.026583,0.043767
0.20995,-0.037601,-0.0048951,-0.13013,0.026514,0.026922,0.049749,0.072659
-0.029663,-0.064422,-0.12739,0.29099,-0.016492,-0.079368,-0.16867,-0.084745
-0.1253,0.027578,0.068543,-0.0401,0.0032801,0.0095339,0.027888,-0.038545
0.16328,0.029195,-0.076949,-0.1559,0.0072565,0.0042617,-0.07134,-0.016159
0.03673,-0.011383,-0.11364,-0.10373,0.010663,0.021772,0.088334,0.098752
-0.34342,0.062687,0.20672,0.21051,-0.025876,-0.024022,0.030092,-0.10857
0.23176,0.0010868,0.00093266,-0.12636,-0.001008,0.023054,-0.02785,0.10362
0.073649,0.0056875,-0.15181,-0.035052,0.014863,0.022366,0.093428,-0.022609
-0.16921,0.011964,0.094555,0.055755,-0.032927,-0.026032,-0.044445,-0.065124
-0.0033594,-0.052871,0.024493,0.1389,0.051068,0.026417,0.12808,0.062582
0.050034,0.0039986,0.0088916,0.15208,0.032706,-0.031026,-0.24102,-0.021478
-0.1625,0.039878,-0.16733,-0.12361,-0.072063,-0.034028,-0.026683,-0.089798
0.13522,-0.08712,0.11617,0.02253,0.04966,0.033362,-0.017384,0.085098
0.093777,0.036864,0.10379,-0.26104,-0.078245,-0.023831,0.045733,0.011744
0.058022,0.022127,-0.086311,0.02617,0.029035,0.036874,0.16394,0.018676
-0.0034357,-0.027857,-0.11075,-0.34147,-0.042207,0.0047299,-0.036523,0.043437
-0.24814,-0.024556,0.060063,0.52779,0.091033,0.0047904,-0.015655,-0.086153
0.26711,0.0036117,0.39223,0.064553,0.0068424,-0.0099143,-0.022957,0.043409
0.0086817,-0.034537,-0.3831,-0.30906,-0.060695,-0.016164,-0.019371,-0.045126
-0.21302,0.065954,-0.050458,0.46093,0.098848,0.032626,0.072763,-0.0086904
0.022567,0.040208,0.027961,-0.33808,-0.10111,-0.059164,-0.22395,-0.035359
0.098047,0.0049323,0.0064776,0.088464,0.026298,0.028507,0.12067,0.085391
-0.12629,-0.03367,0.16555,0.20681,0.035244,0.0063781,0.01169,-0.013872
-0.10176,0.15638,-0.080362,-0.52419,-0.10579,-0.024096,0.057305,0.010509
0.1114,-0.11508,-0.1048,0.19899,0.056327,0.038631,0.13933,-0.02893
0.17939,-0.037916,0.055398,0.048293,0.021908,0.022751,-0.047571,0.047632
0.0099686,-0.07458,-0.10502,-0.021839,-0.0054109,-0.024721,-0.22234,-0.040835
-0.10729,-0.05358,0.10391,0.084649,0.014069,-0.025463,-0.017392,-0.044045
-0.040177,0.064973,0.059105,-0.090322,-0.028389,-0.033936,-0.0099461,0.022702
0.11597,0.048502,0.12882,-0.059517,-0.0072457,0.020396,0.01219,0.026928
-0.10202,-0.014726,-0.22593,0.10908,0.023167,0.043956,0.24565,0.023622
0.053406,-0.028648,0.095563,0.14344,0.023912,0.013384,-0.066274,0.013025
0.033208,0.024138,-0.0098425,-0.096824,-0.036373,-0.040113,-0.0323,-0.059395
-0.19539,0.10544,-0.16909,-0.096997,0.013865,0.016116,-0.019459,-0.013873
0.038866,0.066628,0.27212,-0.1714,-0.052406,-0.021304,-0.035849,0.0011546
0.12692,-0.10908,-0.078469,0.46669,0.092409,0.034847,0.027354,0.055949
-0.11759,-0.071924,-0.12818,-0.07573,-0.028756,-0.010991,0.021117,-0.0058265
0.21333,0.011966,-0.064888,-0.25373,-0.010037,0.0050876,0.015306,0.073547
-0.11273,0.039168,0.20546,0.072243,0.0077324,-0.034136,-0.099636,-0.10445
-0.093859,-0.038532,0.0040475,-0.058807,-0.045763,-0.019187,-0.011114,-0.06332
0.013654,-0.065521,-0.035115,-0.10687,-0.014094,0.018878,-0.0001153,0.001566
-0.00017994,0.02858,-0.18416,0.14064,0.0092845,0.0099735,0.035176,0.035412
0.083638,0.017833,0.034643,0.029307,0.04031,0.032419,0.055732,0.069265
0.10842,0.067256,0.28617,-0.22841,-0.0067225,-0.0074283,-0.0012877,0.040294
-0.059636,0.084139,-0.085442,0.46982,0.063588,-0.00019314,0.01181,-0.0050477
-0.12492,-0.094634,-0.041195,0.061319,0.008992,-0.0084576,-0.038826,-0.043744
0.012902,0.031695,-0.19086,-0.33779,-0.092546,0.014542,0.25979,-0.029195
0.087283,-0.067561,0.18376,0.1303,0.0087964,-0.032833,-0.31969,-0.016084
-0.050601,-0.024811,0.082108,-0.20011,-0.0073994,0.0056821,0.00379,0.011573
-0.0021297,-0.011647,-0.19931,0.052562,-0.016122,-0.033856,0.0042549,-0.054914
-0.11041,0.065855,0.10501,-0.14351,-0.0016206,0.012821,-0.082554,0.019714
0.023825,-0.034457,-0.18455,0.23527,0.059732,0.052195,0.19059,0.048833
0.088806,0.031021,0.057266,-0.060357,-0.011573,-0.017118,-0.041427,0.017451
-0.032394,0.019737,0.26821,0.040949,0.011121,-0.015374,-0.097177,-0.02735
0.034838,-0.037637,-0.074998,0.11832,0.0027944,0.010439,0.086828,0.062554
0.21913,0.0066086,-0.06611,-0.19468,-0.036689,0.0053489,0.07301,-0.01051
-0.1373,0.050146,-0.11152,0.063264,-0.0059707,-0.023257,-0.13204,-0.067983
-0.020432,0.029818,0.16357,0.0093814,0.055678,0.049131,0.12572,0.084225
-0.14243,-0.086024,-0.17853,-0.028407,-0.039387,-0.035765,0.015374,-0.078368
-0.089665,-0.063042,0.10431,0.090277,-0.0099475,0.010773,0.13567,0.013911
0.30251,0.044427,0.019946,-0.025302,0.0034801,-0.014529,-0.1641,0.0016013
-0.22212,-0.012941,0.013874,-0.078096,-0.014498,-0.033451,-0.32259,-0.099187
-0.051886,0.031321,-0.023051,-0.051979,0.014554,0.032463,0.12909,0.071876
0.13613,0.029591,-0.10624,0.11631,0.051896,0.02748,0.10647,0.047267
-0.022919,0.029341,0.076911,-0.20523,-0.066274,-0.03997,0.018247,-0.0076943
0.1132,-0.062939,0.010699,-0.039378,-0.019498,0.010418,0.10167,0.056492
-0.0096423,-0.028661,0.062009,0.44217,0.082843,-0.00053297,-0.14056,-0.048532
-0.040433,0.06916,-0.019674,-0.11254,-0.0094008,0.029073,0.074869,-0.041237
0.042719,0.042285,-0.024066,-0.0013453,-0.015239,-0.0022157,0.061492,0.039173
-0.15299,-0.00068647,-0.045578,-0.053717,-0.013102,-0.016388,-0.055729,-0.049968
0.018476,-0.076007,0.05589,-0.24762,-0.050148,-0.013742,-0.019976,0.018756
0.062769,-0.012133,0.030081,0.18926,0.053109,0.013114,0.0421,0.049216
0.087673,-0.082479,-0.052604,-0.11872,-0.0081098,0.0012116,-0.11359,-0.0062699
-0.17323,-0.005482,-0.19173,0.13312,-0.0072172,-0.018638,0.073689,-0.070272
0.04575,0.094316,0.1759,-0.0078559,0.032461,0.031339,0.032332,0.052013
0.12827,0.076694,0.027707,-0.017333,-0.029536,-0.020954,-0.10549,-0.0068811
-0.27584,-0.026904,0.075486,-0.027119,0.010086,0.019718,0.035273,-0.01262
0.12413,0.072508,-0.00030942,0.11215,0.0030339,-0.026269,-0.0056886,0.0037137
0.25158,-0.078483,0.02751,-0.044143,-0.01155,0.013131,0.053858,0.042442
-0.24388,-0.042714,-0.15307,-0.065988,-0.018042,-0.03373,-0.081907,-0.044474
0.0054589,0.0077514,-0.17452,-0.039377,0.030344,0.020878,0.041004,-0.045711
0.069792,-0.028535,0.23677,0.050874,0.016246,0.052123,0.18869,0.062471
-0.075074,-0.033907,-0.13028,0.071187,-0.029323,-0.057112,-0.20917,-0.047904
0.16343,-0.0075941,0.044127,-0.19818,-0.0050608,0.013445,0.026694,0.084079
-0.059808,0.09818,0.21208,0.22608,0.010671,0.029287,0.059662,0.020747
-0.058493,-0.012656,-0.026323,0.061766,0.041153,-0.0019495,-0.048506,-0.027217
-0.04437,0.051023,-0.071266,-0.027682,-0.046458,-0.049165,-0.04837,-0.099109
0.021413,-0.046659,-0.072874,-0.18297,-0.002035,0.028198,0.13018,0.070591
-0.087282,-0.0092364,-0.032417,-0.075403,-0.012793,-0.0041752,-0.098532,-0.041466
0.18519,-0.0015841,0.033955,0.10871,0.00762,-0.013274,0.00057122,0.018146
-0.019267,0.045541,0.17351,-0.089925,0.028434,0.024641,0.030085,0.054572
-0.097805,-0.12683,-0.2765,0.22106,-0.012391,-0.030707,-0.12604,-0.064486
-0.13533,0.081808,-0.079762,-0.23029,-0.044192,0.00067221,0.095657,-0.026087
0.19684,-0.032519,0.086285,0.25227,0.050384,0.017392,0.023817,0.029389
0.13304,0.037467,0.19241,0.067315,0.036892,0.011617,0.025469,0.047213
-0.061658,-0.013107,0.052467,-0.16859,-0.0381,0.0065336,-0.0018483,0.019219
0.010285,0.019052,-0.012775,-0.05046,-0.026665,-0.006128,-0.0049985,-0.016145
-0.081728,0.0407,-0.10542,-0.14244,0.00024484,0.0042894,0.11564,0.018495
-0.057077,-0.095791,-0.062729,0.053726,0.0028942,-0.017519,-0.18097,-0.080715
-0.15027,0.048135,0.09791,0.24736,0.050997,0.021681,0.072366,-0.0018072
0.10782,-0.0028604,-0.10185,-0.031555,-0.01212,-0.011222,0.015451,0.020624
0.046088,-0.060001,0.063105,-0.025918,0.0086911,-0.022487,-0.20315,0.010156
0.18104,0.073217,0.021663,-0.032673,-0.058298,-0.0040015,0.12855,0.037566
-0.11947,-0.024132,-0.10906,-0.11366,-0.0095029,-0.025514,-0.073576,-0.091782
