-0.0023249,0.034699,0.19881,0.0015115,-0.0033204,0.0094167,0.0073326,0.0011726
0.066165,-0.070706,-0.16895,-0.00062848,0.012966,-0.0062172,-0.00064895,0.017337
0.01889,0.1105,-0.0070751,-0.0096361,-0.0019251,0.0016445,-0.00078709,0.0026678
-0.033676,-0.0080661,0.18926,0.0435,0.0065158,0.0016405,0.0068632,0.0039121
0.034116,0.048825,0.056935,0.0014633,0.0069193,0.0014745,-0.0089847,-0.0025331
-0.019789,-0.0020235,-0.001599,-0.081711,-0.024196,-0.0067308,-0.017084,-0.016836
0.062073,0.016914,-0.42698,-0.026494,-0.00085896,0.00047058,0.01385,0.01556
-0.056952,-0.13848,0.075803,0.050245,-0.0010931,-0.015892,0.00576,-0.014787
-0.13561,-0.078875,0.1862,0.031985,-0.0013278,-0.00096918,-0.017836,-0.014121
0.12198,0.14059,-0.063131,-0.033564,0.014189,0.021993,0.021255,0.0019968
-0.01169,-0.003077,0.16654,0.026271,0.014291,-0.0093327,-0.0019357,0.018031
0.017262,-0.047761,-0.12898,0.01677,-0.016634,0.0067199,-0.009307,0.010617
0.020708,-0.023143,-0.13339,-0.01491,0.015108,-0.00016616,0.006873,0.0032128
-0.0017686,-0.037019,0.023777,0.024935,-0.0077816,0.0011338,-0.0082115,-0.012042
-0.081596,0.16964,0.13379,-0.028073,-0.0073067,-0.0052362,0.0077886,-0.0040046
0.06256,0.066187,0.0020691,0.0052866,-0.0070163,0.011679,0.015671,0.011563
0.040437,-0.058418,-0.0050279,-0.031723,0.00083744,-0.0031084,-0.0080943,-0.01234
-0.022326,-0.10331,0.39157,0.0089518,-0.0071876,-0.010772,-0.016645,0.0023406
-0.062343,-0.053939,-0.4127,0.0021064,0.015833,0.012009,-0.0099002,0.00093557
0.015198,0.12766,-0.10853,0.010237,0.0074855,-0.012848,0.0045006,-0.0086224
-0.022958,-0.074996,-0.0032731,-0.021177,-0.0087004,0.00079895,0.018978,0.012944
0.058599,0.033008,-0.03608,0.0096903,-0.0013959,-0.017025,-0.013095,-0.020024
-0.0049717,-0.048152,0.16763,0.02499,-0.0018046,0.0043975,0.0022422,0.017769
0.0054653,0.088487,0.21021,0.0093068,0.01352,0.010768,0.010424,0.0015834
-0.019573,-0.0716,-0.36766,-0.029457,-0.025761,0.002374,-0.0041696,-0.013726
-0.0025963,0.01972,0.045498,0.018026,0.028746,0.034027,0.013032,0.018756
-0.03065,-0.05049,0.053232,-0.020281,-0.018325,-0.019343,-0.016321,-0.010454
0.051058,-0.070574,-0.038274,0.011637,0.012677,-0.0095482,-0.0065781,-3.9472e-05
0.10029,0.17831,0.20135,0.011974,-0.0032614,-0.0072748,0.010706,0.01058
-0.13448,0.093969,-0.032792,-0.035093,-0.019244,0.0026836,-0.0037968,-0.002443
0.01742,-0.14521,0.2818,0.026586,0.0038406,0.012133,-0.0033943,-0.00044822
-0.0071911,0.091847,-0.52809,0.0017154,0.011366,-0.010448,0.011844,-0.015011
-0.052074,-0.079537,0.0831,-0.015818,-0.0044219,-0.010492,-0.0049038,0.0083589
0.10219,-0.098468,-0.12773,-0.01016,0.0033834,0.0042343,-0.0065908,-0.00068248
-0.050971,0.10432,0.081248,0.018966,0.011342,-0.0051426,-0.0085837,-0.002937
-0.0020954,-0.20587,0.27277,-0.014112,0.011607,0.0085364,0.0050456,-0.0059351
-0.0072212,0.19798,-0.083782,0.015807,-0.027129,0.0065274,0.0033424,0.0063298
-0.017836,0.10601,-0.11263,0.0072583,-0.0033603,0.0047486,0.0099803,0.010841
0.037625,-0.12087,0.030708,0.0070996,-0.0030647,-0.0043903,0.0016593,-0.015445
0.034844,0.0034524,0.057681,-0.0082224,-0.010633,0.010489,-0.0059765,0.013724
0.075428,-0.058359,-0.047088,-0.0076306,0.036441,-0.013077,0.010416,0.012602
-0.16931,0.13276,0.044532,-0.0069282,-0.010264,-0.0048168,-0.019659,-0.026571
0.096465,-6.2935e-05,-0.019164,0.0093751,-0.0022926,0.0039352,0.012945,0.0054955
-0.10511,-0.1513,-0.043043,-0.021282,-0.0021371,-0.010366,-0.0091955,-0.0085846
0.052747,0.030988,0.027465,0.0026801,0.0058297,0.014669,-0.00033973,0.016847
0.092267,-0.00025149,-0.065455,0.011023,-0.0096409,-0.014816,-0.0074965,0.0033492
-0.049931,0.012069,0.053298,0.0038428,0.0061485,0.01045,0.016154,-0.010319
-0.046198,0.058871,-0.030197,0.020276,-0.0014653,0.0044229,0.0003203,0.01466
-0.052836,0.052517,0.059138,-0.017779,-0.0090071,-0.0017651,-0.00021855,-0.0077982
0.039854,-0.016752,-0.014708,0.0068212,0.0070024,-0.00042539,-0.00094752,-0.015219
0.060579,0.02883,0.0057902,-0.015406,-0.0080939,0.00050683,-0.0095103,0.0081229
-0.075905,-0.19514,0.018587,0.001322,0.008204,0.00092638,-0.002297,-0.0157
0.05294,0.075988,-0.023802,-0.013479,-0.0066487,-0.007048,-0.0025951,-0.00049793
0.18984,0.11542,-0.012615,0.010339,0.017567,0.0078185,0.020949,0.030535
-0.24297,-0.21691,0.098548,0.010151,-0.0052165,-0.0091136,-0.00194,-0.0083594
-0.0030867,0.072395,-0.19835,0.032782,0.0108,-0.0030453,-0.016608,-0.0077375
-0.035709,-0.022889,0.073331,-0.023279,-0.0048036,0.010562,0.023718,0.024535
0.11232,0.21766,-8.6986e-05,-0.017219,-0.020811,-0.007159,-0.021742,-0.0054509
0.019127,-0.032633,0.011669,0.0044178,0.0097176,0.014306,0.0030828,-0.019797
-0.010659,-0.10085,0.070211,-0.0047859,-0.014608,-0.018612,-0.0035522,-0.010927
-0.031814,-0.088034,-0.019144,0.010384,0.0080242,0.011414,0.012884,0.013151
-0.036672,0.068307,-0.013724,-0.012076,-0.00023454,0.0029034,0.0054048,0.0054485
-0.01763,0.02398,-0.046057,-0.040572,-8.9999e-05,-0.0050621,-0.018234,-0.010615
0.048467,0.028221,0.040185,0.010891,0.00076409,-0.0047142,-0.011153,0.011912
0.036259,0.048839,-0.020735,0.032611,0.010097,-0.0039629,0.018898,-0.0049499
-0.039053,-0.25889,-0.02596,-0.038653,-0.01137,0.020493,0.017343,-0.014146
0.06428,0.22917,0.031945,0.069449,0.029751,-0.017442,-0.023487,0.015751
-0.021311,0.028013,0.043152,0.30879,0.054907,0.0070755,0.0059474,0.0067584
-0.061678,-0.0033311,-0.016257,-0.39992,-0.10036,0.0079708,-0.0035581,-0.0097879
-0.033377,-0.24768,-0.029561,-0.0027362,0.016798,-0.014854,0.0028445,0.0051974
0.056065,0.076507,-0.067474,-0.046697,-0.03898,-0.0067584,0.0018543,0.012624
0.0040695,0.13383,0.041585,1.2204e-06,0.0059044,0.016642,0.0013812,-0.018813
0.09263,0.073402,0.070901,0.14633,0.050244,-0.0070935,-0.021968,0.0045801
-0.20868,-0.11187,0.028318,0.034433,0.016372,0.0080714,0.0099116,-0.010979
0.11652,0.031826,-0.031233,-0.045039,-0.024937,-0.0080574,0.034432,0.012634
0.021938,-0.026133,0.033358,-0.059505,-0.0030033,0.0071388,-0.018871,-0.010493
-0.054677,-0.066489,-0.25376,0.062202,-0.0035559,-0.016554,-0.017382,-0.01783
0.035002,-0.049824,0.13954,-0.039045,0.0046765,0.0068627,0.0074341,0.021874
0.017054,0.00056244,0.1048,0.066074,0.013725,0.0070869,0.00068807,0.0070117
0.023517,0.27984,-0.075919,-0.084259,-0.023574,-0.00029936,0.0012874,0.015598
-0.048095,-0.095229,0.027562,0.032173,0.01742,0.00023827,0.016963,0.00060126
0.074769,-0.062853,0.0012579,0.046857,0.011355,0.0085798,-0.0069608,-0.006894
-0.132,0.094866,-0.030237,0.0054723,-0.010794,0.0011642,-0.015691,-0.014827
0.11252,-0.15421,0.025978,-0.10065,-0.033552,-0.014295,0.0065888,-0.0076145
-0.16034,-0.24838,0.082787,0.024991,0.01339,-0.006601,-0.025818,-0.0086233
0.034192,0.23352,-0.15019,0.0075225,0.0051583,-0.014815,0.0045212,-0.009869
0.071759,0.15808,0.03672,-0.0040335,-0.018981,0.0079866,0.027489,0.020132
0.093637,0.063849,0.02534,-0.016614,0.042755,0.038439,0.019743,0.019115
-0.040276,-0.19805,0.03384,0.056683,-0.0047769,-0.017131,-0.018745,-0.0049334
-0.10315,0.16901,-0.015986,-0.0020504,-0.013063,-0.0024159,0.0056246,0.018368
0.12375,-0.1005,-0.045591,-0.020377,0.017862,0.0044969,-0.016758,-0.020403
-0.15673,-0.1779,-0.069759,0.0019008,-0.013686,-0.004183,-0.00022462,-0.012014
0.11744,0.11761,0.037624,0.017752,-0.014125,-0.012809,0.00029538,0.0042705
-0.069887,-0.11087,0.11369,0.058019,0.024194,0.0020939,-0.0075521,-0.010813
0.077658,0.16195,-0.0045481,-0.080933,-0.023827,0.0093316,0.023049,0.028516
-0.041847,0.023793,-0.01937,-0.0010965,-0.0019455,-0.0066453,-0.017217,-0.0028199
0.0011488,0.077735,-0.024016,0.00043964,0.011814,0.016743,0.012438,-0.026676
0.027108,-0.16744,-0.026115,-0.037189,-0.0057934,-0.014189,-0.012745,0.0039345
-0.018199,0.062004,-0.010133,0.042602,0.015802,-0.013474,0.001263,0.003254
-0.032471,-0.14052,0.0079966,-0.017522,-0.001253,0.0032338,0.007854,0.010557
0.0321,0.20839,0.020005,0.0016267,-0.0098385,0.028029,-0.0083838,0.018233
-0.018811,-0.0020532,0.017523,-0.016938,-0.0097842,-0.0017496,0.0073568,-0.028259
-0.051539,-0.10952,-0.086001,0.01253,-0.0010268,-0.023811,-0.0074211,-0.00385
-0.0030522,-0.15493,0.11506,0.019063,0.00074491,0.016303,0.0096642,0.0054916
0.072011,0.18024,0.026349,0.048483,0.02659,-0.0066118,0.0037028,0.015267
0.055955,-0.019618,-0.14168,0.16984,-0.0019102,-0.014572,-0.0099701,-0.0059769
0.010257,0.18965,0.079381,-0.21178,0.008644,0.04707,0.015215,0.0040141
0.097612,0.096523,0.001906,0.0044098,0.0032244,-0.02473,-0.0069426,0.013737
-0.30062,-0.40043,-0.053678,-0.14262,-0.049684,-0.034458,-0.014115,-0.047336
0.10336,-0.058139,0.045791,-0.00375,-0.001782,0.010361,0.017089,0.015962
0.027503,0.1093,0.019605,0.13329,0.021938,0.00068466,-0.030432,0.016071
-0.067517,-0.0055292,-0.037819,0.020231,-0.0096382,0.014941,0.0075737,-0.0079215
0.0060891,0.16184,-0.024223,0.026049,0.0052667,0.0064696,0.0063557,-0.0090487
0.1084,-0.027619,0.053217,-0.027507,0.02001,0.014415,0.0052184,0.02063
-0.079972,-0.073003,-0.0081485,-0.0067844,0.011345,-0.00035211,0.01215,-0.020314
0.12162,0.18199,0.026301,0.018018,-0.012798,-0.022396,-0.0040285,0.016677
-0.043817,-0.25555,-0.054407,0.015065,-0.0055109,0.0027086,0.011324,-0.0011179
-0.091265,0.20686,-0.0084178,-0.032382,-0.0137,-0.0034382,-0.012243,-0.003318
0.03438,-0.10412,-0.023848,-0.063225,0.0016287,-0.002,-0.0045954,0.010136
-0.049447,-0.010047,0.02346,0.03051,-0.014281,-0.0087426,-0.012769,-0.030995
0.18082,-0.027287,0.14034,0.22423,0.071337,-0.00026919,0.025648,0.060893
-0.071624,0.047253,0.0054806,-0.3031,-0.077466,0.02347,-0.022133,-0.04999
-0.14268,-0.15294,-0.19444,0.010815,0.023711,0.015714,0.00027603,-0.019716
0.022365,0.17021,0.024428,0.056861,0.0077364,-0.039016,-0.0084544,-0.019977
0.040664,-0.059937,-0.0020865,-0.00028933,-0.02376,0.0078677,0.0066426,0.011863
0.060535,0.13452,0.031065,0.05887,0.05428,0.023676,0.038021,0.14617
0.01923,-0.25332,0.0856,0.063164,-0.047172,-0.030574,-0.015689,-0.093697
-0.013311,0.25333,0.021991,-0.041594,0.02344,0.017017,-0.021602,-0.028234
0.024973,-0.088278,-0.11943,-0.075475,-0.015182,0.0023452,-0.0032263,-0.048356
-0.053815,-0.037249,-0.048335,0.03965,0.00093586,-0.027823,0.007968,0.079975
-0.09368,0.013969,0.087947,-0.016683,-0.0064535,0.004472,-0.011802,-0.034206
0.061596,-0.053833,-0.053565,-0.018113,0.0015717,0.02871,0.038597,0.02287
0.076266,0.22627,0.13681,0.019572,0.032682,0.02905,0.010283,0.047869
-0.04932,0.048357,-0.098992,0.049432,-0.0069922,-0.033755,-0.026816,-0.076483
-0.025732,-0.42384,0.035126,-0.022222,-0.031579,-0.011366,-0.0026354,0.024863
-0.05587,0.076042,-0.063641,-0.085848,0.013625,-0.005322,-0.010975,-0.030716
0.08675,0.26067,0.032872,0.015033,-0.019698,-0.015452,-0.012602,-0.00074201
-0.035859,-0.29723,-0.0050529,0.038463,0.056184,0.028863,0.00065996,0.0057498
0.17695,0.11592,0.078989,0.15648,-0.0084019,0.0030195,0.013672,0.051569
-0.15108,0.096139,0.096505,-0.11523,-0.033381,0.0011834,0.011311,-0.011512
0.0099275,-0.10523,-0.30446,-0.1205,-0.049617,-0.023164,-0.01383,-0.019366
0.033703,0.12129,0.087317,-0.00012976,-0.0099303,-0.015116,0.00097036,-0.018959
-0.09622,-0.14743,-0.00064262,0.089345,0.10144,0.040977,0.016635,0.0051122
0.073066,0.33625,0.042468,0.038239,-0.028084,-0.0035136,0.0094873,0.075987
-0.051666,-0.00096063,0.046422,0.18219,0.093336,0.038523,0.041631,-0.017572
-0.00042143,-0.21665,-0.010663,-0.2368,-0.10516,-0.028752,-0.03582,-0.057056
0.080169,-0.062971,-0.049491,-0.070342,-0.02268,-0.034029,-0.06699,-0.081661
-0.057778,-0.31429,-0.030411,-0.013583,-0.0036439,-0.0012527,0.0026044,0.025781
-0.013716,0.20958,0.093383,0.027531,0.0060866,-0.0089016,-0.0067055,0.054404
-0.090548,0.018158,-0.022525,0.092406,0.03743,0.036635,0.07719,0.098085
0.18949,0.29357,0.097352,0.017222,0.0122,0.018267,0.0046773,0.071046
-0.10284,-0.18038,-0.056002,0.020764,0.00093649,-0.016813,-0.036295,-0.2062
0.22746,0.30161,-0.1086,0.11064,-0.019304,-0.044673,-0.0062514,0.01662
-0.21898,-0.29034,0.048352,-0.21355,-0.016567,0.044661,-0.0064633,-0.0023014
0.072129,-0.002619,-0.069476,-0.046023,-0.036911,-0.00601,0.010053,-0.059367
-0.072523,-0.13251,0.054147,0.097166,0.053279,-0.024273,0.035377,0.18186
-0.060445,-0.087408,-0.032893,-0.088987,-0.050043,0.0058643,-0.071441,-0.082861
-0.0097597,0.2013,-0.0091699,0.14533,0.036277,-0.0092198,0.017216,-0.10328
0.032086,0.051861,0.05589,-0.15309,-0.0081265,0.0084609,0.05855,0.28466
0.12732,0.063707,0.006421,0.13287,0.058476,0.074147,-0.018363,-0.26308
0.080505,0.16468,0.16248,0.11258,0.079047,0.038849,0.035999,0.073261
-0.14748,-0.10726,-0.023666,-0.15145,-0.095803,-0.10584,-0.0051468,0.011673
-0.095798,-0.17399,-0.23295,-0.065376,-0.076348,-0.040121,-0.11823,0.0044319
0.047863,-0.19816,0.033282,-0.011727,-0.02729,-0.029924,0.033219,-0.074299
0.0098427,-0.14584,0.094224,0.1428,0.11363,0.080936,0.012533,0.063828
0.13367,0.46315,-0.066425,-0.07763,-0.059633,-0.012065,-0.03864,0.30893
0.08328,-0.015849,0.059013,0.077849,0.015993,0.058567,0.13069,-0.51113
-0.30532,-0.22035,-0.15411,-0.09294,-0.0024553,-0.042755,-0.056842,0.072415
0.030728,0.19509,0.091747,-0.15945,-0.059485,-0.057926,-0.061842,-0.033946
0.43587,-0.16823,0.031702,0.24613,0.10334,0.067904,0.092102,0.25609
-0.61235,0.1718,0.072594,0.077162,0.033183,0.014418,-0.0018915,0.1617
-0.01126,0.18779,0.042839,-0.14314,-0.059106,-0.023231,-0.047938,-0.36352
0.34955,-0.10946,-0.19824,-0.11083,-0.033353,-0.045324,0.069987,0.29031
0.087977,0.056539,0.1147,0.063546,0.031632,0.03375,-0.071102,-0.2511
-0.13952,-0.14591,0.028157,0.26134,0.096041,0.018379,-0.018943,-0.0024526
0.25269,-0.41375,-0.051826,-0.22993,-0.13762,0.041184,0.038489,0.068648
-0.34549,0.18336,-0.031377,-0.11481,-0.0369,-0.038487,-0.078537,-0.14593
-0.013085,-0.031542,-0.027119,0.23851,0.06228,-0.079844,0.028746,0.13618
0.045916,0.26592,0.055707,-0.037594,-0.0037949,0.011199,0.024978,0.032801
0.033963,-0.068389,0.015298,-0.13817,0.0076819,0.039774,0.028005,0.18455
-0.16657,-0.0074954,0.01713,0.13307,0.066204,0.02196,0.11655,-0.26882
0.30344,0.138,-0.14071,-0.19107,-0.10877,0.020609,-0.15427,-0.071165
-0.24367,-0.014815,0.026895,0.070996,0.061446,-0.018796,-0.0029465,0.0095976
0.4029,0.32898,0.10588,0.10087,0.0068008,-0.010365,0.02377,0.37716
-0.28037,-0.66982,-0.060824,-0.029505,-0.069612,-0.0012151,0.019669,0.099432
-0.035645,0.047587,0.2205,0.032445,0.097491,0.031711,0.00040989,-0.41125
-0.026723,0.14202,-0.11478,-0.088025,-0.078404,-0.076076,-0.041749,-0.17905
0.082926,0.20521,0.063853,0.085103,0.097316,0.05004,0.01831,0.015333
0.020787,0.057103,-0.26901,0.042791,-0.032292,-0.0042807,-0.038024,0.4392
-0.28231,-0.2852,0.018128,-0.052574,-0.038085,0.026462,0.023736,-0.48305
0.30759,-0.30306,0.081156,-0.1247,-0.076617,-0.09208,0.10987,0.36073
-0.091402,0.28094,-0.0012419,0.13721,0.07865,0.046497,-0.092224,0.035542
0.075836,0.033424,0.084753,-0.13535,-0.025179,0.051803,-0.020264,-0.058474
-0.026813,0.043747,-0.10443,0.048986,0.018536,-0.052459,-0.010517,-0.21758
0.076398,0.26701,0.1283,0.22903,0.038358,0.046469,0.04603,0.073299
-0.13149,-0.031017,-0.098393,-0.19653,-0.027832,-0.018372,0.063118,0.17204
-0.019307,-0.4223,-0.0023349,-0.14891,-9.1898e-05,0.0032242,-0.006322,-0.1578
-0.065289,0.20734,0.080784,0.10717,0.035769,0.0098876,-0.099798,0.38632
0.26035,0.44795,-0.005684,0.010207,-0.021773,-0.052881,-0.068679,-0.0096774
-0.11374,-0.60248,-0.082946,0.2955,0.014812,-0.044286,0.02488,-0.33076
-0.086468,-0.11861,0.066601,-0.25492,-0.057506,0.074852,0.071901,-0.44346
-0.12645,0.03858,-0.05816,-0.09355,-0.027586,-0.015765,0.049256,-0.080454
0.28269,0.25944,0.088825,0.18637,0.073627,0.066535,0.01174,0.53395
-0.01405,0.099487,-0.086516,-0.10222,-0.05822,-0.030113,-0.0095402,0.10491
-0.12444,-0.088164,0.033279,-0.013607,0.038072,0.0063514,-0.054014,0.27411
0.17208,-0.059462,-0.0822,-0.047495,0.0031921,-0.035517,-0.051855,-0.099431
-0.38832,0.11708,0.099552,-0.10219,-0.030271,-0.0077666,0.11365,-0.26748
0.17256,-0.049233,-0.084116,0.10337,0.054327,-0.012342,-0.065627,0.017185
0.27,-0.28392,-0.030374,0.38898,0.068671,0.013028,-0.035102,-0.2564
-0.32186,0.20264,0.13662,-0.2697,-0.12101,-0.0020286,0.049151,0.0027129
0.25641,0.051225,0.010803,-0.06903,0.04684,0.05976,-0.023397,0.22231
-0.034804,0.027307,-0.0020587,0.12282,-0.030043,-0.067043,0.036879,0.10487
-0.032537,0.48997,0.057857,-0.22603,-0.023871,0.03187,0.011837,0.19803
-0.22265,-0.63916,-0.13127,0.17343,0.018612,-0.033857,-0.012053,-0.15232
0.072829,-0.18828,-0.1101,-0.22516,-0.01138,0.064173,-0.089124,-0.31785
-0.046395,-0.094812,0.057409,0.11045,0.051175,0.01373,0.038529,-0.04443
0.13658,0.25063,0.10459,0.0017868,-0.034738,-0.12241,0.034762,0.00046155
0.24501,0.30088,0.046531,0.2624,0.02895,0.093508,0.078765,0.14887
0.019637,0.18782,-0.069901,-0.22426,-0.030165,-0.041368,-0.033301,0.48949
-0.34517,-0.38697,-0.064524,0.088738,-0.03169,-0.034643,-0.052245,-0.71892
-0.091808,0.13702,0.086974,-0.080413,0.040274,0.106,0.0055573,0.48351
0.04603,0.062481,-0.0049346,0.12663,0.060529,-0.064765,-0.040132,-0.17967
0.14016,-0.22135,-0.20631,-0.15862,-0.026257,-0.00021917,-0.0020653,0.16985
0.013028,-0.27738,0.15566,-0.070331,-0.049188,0.0415,0.065143,-0.0043452
-0.020462,0.22338,0.0894,0.05435,-0.017242,-0.033808,-0.080336,-0.41035
-0.11427,0.1345,-0.0065245,0.026985,0.013728,-0.007906,0.069871,0.00258
0.17092,-0.041177,0.0004093,0.18292,0.12867,0.048393,0.063293,0.42753
0.16438,0.30888,-0.015405,-0.071775,-0.14966,-0.060627,-0.068157,0.059583
-0.3445,-0.34358,-0.054677,-0.080593,-0.0011987,0.0085491,-0.027004,-0.47449
0.17515,-0.0040349,-0.055495,0.016585,0.042985,0.0058993,0.046622,0.28964
-0.15262,-0.0070328,0.013096,-0.021208,-0.008704,0.0019476,-0.096917,-0.35455
0.030186,0.092918,0.065231,-0.082994,0.039941,0.075248,0.089454,0.20687
0.065777,-0.19749,-0.023688,0.043977,-0.036589,-0.086098,-0.042692,0.087107
0.12445,0.23652,0.012554,0.041142,-0.026309,0.0029914,0.029883,0.1713
-0.16244,-0.18663,-0.075436,0.02709,0.0091567,-0.0083289,0.0098921,-0.14953
0.008657,0.39608,0.11121,-0.0051941,0.039133,0.005559,-0.048572,-0.095778
0.051026,-0.23838,-0.099239,0.038083,-0.0065088,-0.0096266,0.041291,0.2668
-0.059034,-0.10153,0.1602,-0.070356,0.01263,0.024338,0.04441,0.082448
0.084994,0.2573,0.014041,0.09003,-0.013414,0.091568,0.053975,-0.3327
0.0073239,-0.24844,-0.11645,-0.09964,-0.038609,-0.11323,-0.20375,-0.02882
-0.1346,-0.086034,0.010366,0.26515,0.14703,0.049711,0.075959,-0.25771
0.090376,0.17765,-0.11368,-0.42648,-0.19957,-0.061238,-0.02838,0.36347
-0.10533,-0.32749,-0.0042522,0.082251,0.022439,0.045159,0.0073296,-0.069847
0.15456,0.29465,0.12796,0.13459,0.10949,0.032207,0.051055,0.10928
-0.090087,-0.013405,0.0099187,-0.17577,-0.11042,-0.061457,0.064457,-0.009773
-0.089127,-0.16213,0.017078,0.2608,0.10504,0.021956,-0.076961,-0.15806
0.19591,0.11552,-0.029925,-0.17248,-0.056244,-0.037478,-0.068338,0.24521
0.037221,0.34197,0.0018661,0.16537,0.023461,0.03441,0.082334,-0.071714
-0.11377,0.053152,0.018644,0.032564,0.0010394,-0.0036129,0.038633,-0.14733
0.045876,-0.20074,-0.10481,-0.015794,0.025602,0.013527,-0.012613,0.025725
0.045969,-0.11974,0.09996,-0.23689,-0.074077,-0.046085,-0.0017796,0.28216
-0.22358,-0.20765,-0.14082,-0.012626,-0.0083573,0.052562,-0.038784,-0.42659
0.11246,0.010049,0.15697,0.15034,0.051327,-0.018374,-0.045758,0.1086
0.086533,0.14284,-0.0068502,-0.19986,-0.035395,0.061319,0.016443,0.48765
-0.15875,-0.20567,0.039582,0.25036,0.075246,-0.052542,-0.047108,-0.71253
-0.10542,0.014621,-0.086376,-0.10776,-0.038849,-0.016866,0.10791,0.29637
0.15499,0.45562,0.0062622,-0.016497,-0.026562,0.019166,-0.017903,-0.02491
0.13184,-0.14558,-0.041359,0.33579,0.064631,0.0080029,0.0055827,0.050374
0.044398,-0.045547,-0.10367,-0.29456,-0.094055,-0.035234,0.0066968,0.061742
-0.13928,-0.03382,0.15574,0.20002,0.12957,-0.024868,0.016608,-0.0058677
0.094644,0.19226,-0.020751,-0.38529,-0.1478,0.046889,0.0037453,-0.04254
0.0014608,0.028111,0.077597,0.088864,0.057903,0.0083314,-0.094857,-0.032213
-0.21066,-0.24821,0.0048392,0.043767,-0.042507,-0.046521,0.0093668,-0.099609
-0.0051556,-0.35809,-0.0056165,0.081145,0.051033,0.070116,0.019109,0.10691
0.20213,0.22819,-0.0095565,0.084584,0.057463,-0.024348,0.02,0.11062
-0.097397,0.13547,-0.14859,-0.069756,-0.030758,0.021768,0.05876,-0.26858
0.049659,0.2945,0.061013,-0.083744,-0.010193,-0.033709,-0.013057,0.06237
0.050831,-0.22241,-0.091855,-0.13598,-0.083642,-0.034599,-0.10158,0.46201
-0.24028,-0.41287,0.096247,0.243,0.046094,0.026804,0.019982,-0.50803
0.061574,0.45204,0.10261,0.014343,0.035565,0.033208,0.047235,0.12815
0.052618,-0.17266,0.021955,0.16999,0.025647,-0.054511,0.019572,0.1359
0.21152,0.29232,-0.043045,-0.32192,-0.04598,0.068338,-0.007988,-0.054737
-0.061842,-0.051077,-0.15382,0.061322,-0.0073505,-0.020025,-0.027324,-0.11459
-0.13399,-0.28128,0.07339,-0.087153,-0.0069083,-0.02254,-0.022535,-0.17485
-0.044134,-0.0084387,-0.0091289,0.076065,-0.0056934,-0.017064,0.06912,0.11803
0.066275,0.16496,0.028725,0.066633,0.058608,0.012348,-0.025591,0.11758
0.055312,0.097436,0.046364,0.025548,-0.0095625,0.003519,-0.03307,0.20031
-0.062955,-0.29752,-0.034707,-0.1247,-0.038598,-0.012046,-9.7586e-05,-0.18772
-0.032313,0.12044,0.019147,0.085326,0.025945,0.036094,-0.012618,-0.031092
0.0286,0.054451,-0.027466,-0.0077907,0.012019,-0.00054475,0.030782,-0.041859
0.024884,-0.010957,-0.019435,-0.059882,-0.033573,-0.020632,-0.0030267,0.035944
0.11986,0.0025062,0.018716,0.11666,-0.02486,-0.016747,0.057342,0.12195
-0.12424,0.048006,0.01582,-0.13468,0.0070159,0.04968,-0.06998,-0.19235
-0.097843,-0.13243,0.057341,0.037016,-0.00031519,0.014086,0.036219,-0.010415
0.082484,0.023317,-0.052044,0.076125,0.054798,-0.053642,0.047221,0.39311
0.058239,0.32723,-0.038436,-0.018471,0.039541,-0.020957,-0.084254,-0.23992
-0.091519,-0.27595,-0.088489,-0.013506,-0.085253,0.01051,-0.038027,-0.1198
-0.12384,-0.19297,0.033214,0.097926,0.031795,0.0096349,0.014197,-0.33106
0.15696,0.14616,0.06986,-0.19251,-0.031389,0.0079459,0.018171,0.26101
0.21954,-0.024306,0.0065309,-0.048885,0.021921,0.021419,0.060444,0.25986
-0.15543,-0.0089421,0.10128,0.13868,-0.0036176,0.0035228,-0.014569,-0.03614
-0.015686,0.60661,0.017878,-0.058545,-0.021948,-0.0611,-0.026579,0.13934
0.067569,-0.45845,-0.088142,0.22787,0.08439,0.038639,0.017051,-0.19038
-0.24219,-0.43788,-0.17087,-0.24295,-0.10609,0.013704,-0.024046,-0.033882
0.039335,0.16899,0.11251,0.030214,0.03207,0.012463,0.0064449,-0.16574
0.10019,0.19877,0.026888,-0.045478,-0.024168,0.011364,0.030304,0.12388
-0.074174,0.089431,0.07978,0.10862,0.030179,-0.060004,-0.038615,0.060742
0.1348,0.29424,-0.041174,0.070666,0.046765,0.009275,0.025989,-0.066391
-0.076153,-0.53082,-0.11665,-0.081614,-0.021429,0.016154,-0.018344,0.070826
0.075364,0.02768,0.010485,-0.10683,-0.03414,-0.05482,1.9545e-05,-0.042557
