-0.38443,-0.092993,-0.083796,-0.044311,-0.04748,-0.068353,-0.24593,-0.70069
0.051113,0.027672,0.063182,0.03182,0.02974,0.046867,0.16166,0.52195
0.36312,0.017061,-0.055206,-0.024715,-0.0019227,0.014642,0.13353,0.73474
0.066786,0.11792,0.014134,-0.0027217,0.0060021,0.046121,0.20053,0.23205
-0.51156,-0.083592,-0.01014,0.0042325,-0.0090485,-0.061898,-0.35714,-0.20325
0.4924,0.060775,0.020243,0.01183,0.015281,0.08085,0.34184,0.21716
-0.21388,-0.027679,-0.059039,-0.011279,-0.0071412,-0.065256,-0.2353,-0.74217
-0.50104,-0.13107,0.048543,0.012767,-0.029646,-0.024276,-0.25377,-0.893
0.50306,0.10899,0.022278,-0.002353,0.025715,0.054821,0.30169,1.0422
0.39818,0.011834,0.049292,0.044489,0.018196,-0.023587,-0.13866,-0.24882
-0.41772,0.022028,0.051235,-0.011147,-0.028813,-0.0095107,0.30167,-0.14534
-0.16249,-0.063994,-0.1359,-0.044479,-0.021541,-0.06672,-0.35174,-0.1028
-0.209,-0.011888,-0.035086,-0.03204,0.016652,0.01625,-0.034009,0.59528
0.29722,0.07717,-0.028268,0.01085,0.031192,0.083782,0.10074,0.038718
0.14834,-0.085121,0.034213,0.014424,-0.0090501,-0.0041546,0.077353,0.10373
-0.082649,-0.01337,0.05216,0.01063,-0.010202,-0.01275,0.091459,0.0073947
0.082544,0.11385,0.073693,0.047052,0.027854,0.019132,0.05628,-0.23058
-0.11344,-0.014952,-0.06441,-0.01635,0.0036761,0.028949,0.032443,0.28383
-0.0073537,-0.1412,-0.080682,-0.062047,-0.066984,-0.10073,-0.34195,-0.81222
-0.038508,0.063568,0.0087136,-0.0040859,-0.012133,-0.026508,0.032003,0.67533
0.59544,0.099182,0.17905,0.10251,0.066749,0.079305,0.21449,-0.78314
-0.57662,-0.13659,-0.17314,-0.13352,-0.080339,-0.11965,-0.30387,-0.11307
-0.22062,0.16769,0.12178,0.13847,0.10897,0.25904,0.47629,0.72257
0.013838,-0.051819,-0.071261,-0.051235,-0.021843,-0.13653,-0.31194,-0.0047289
0.0013026,-0.10108,0.058426,-0.023876,-0.043497,-0.040984,-0.19874,0.20164
0.25742,0.081418,-0.029258,0.048003,0.067001,0.0064751,0.47367,0.28107
-0.11608,0.018648,-0.037418,-0.046809,-0.0423,-0.017575,-0.69148,-0.70497
0.37309,-0.023522,0.035113,0.02784,0.026825,0.14484,0.94013,0.22432
0.45939,-0.075395,-0.17667,-0.086726,-0.069316,-0.24036,-0.78666,-0.52217
-0.6615,-0.049519,0.072292,0.02463,-0.010055,0.061569,0.48819,0.4563
-0.19941,0.079331,0.081888,0.027228,0.025534,0.12915,-0.16469,0.83483
-0.074038,0.12532,0.026614,0.055067,0.061639,0.1893,0.53623,-1.0688
-0.29789,-0.22291,-0.076231,-0.094115,-0.096329,-0.36705,-0.85386,0.058136
0.17164,0.12862,0.14092,0.087834,0.067764,0.13219,0.21284,0.43742
0.40005,-0.11782,-0.10418,-0.047804,-0.063115,-0.22694,-0.26239,-1.0427
0.037207,0.18427,0.061237,0.021535,0.065446,0.18834,0.18277,0.56958
-0.24588,0.071249,0.0091628,0.044551,0.046516,0.14341,0.41638,0.43689
0.79745,-0.069277,0.033288,-0.011476,-0.0193,-0.10434,-0.38981,-0.53801
0.00577,0.13508,-0.072235,0.031827,0.046674,0.085088,0.28609,0.88052
-0.57213,-0.1141,-0.043472,-0.060775,-0.061068,-0.077996,0.13635,-0.4506
-0.63674,-0.30118,-0.068243,-0.10197,-0.12418,-0.055044,-0.40575,-0.22472
-0.14441,0.0053031,-0.012625,-0.013093,-0.0019186,0.083416,0.24103,0.59676
0.56057,-0.050792,0.039724,0.050774,0.040733,-0.23275,-0.20105,-0.60468
0.17567,0.11274,0.083926,0.075527,0.075075,0.23924,0.1243,0.19389
0.60376,0.26557,-0.056764,-0.015425,0.0084625,-0.17163,-0.17461,-0.59953
-0.73525,0.02018,0.049658,0.013498,0.013735,0.16061,0.083218,0.34043
0.54002,0.11255,0.052834,0.03793,0.013394,0.15875,0.62806,0.53802
-0.86126,-0.30909,-0.063004,-0.074992,-0.086121,-0.37972,-1.0578,-0.5026
0.10488,0.11285,0.091332,0.080291,0.089942,0.42049,0.89204,0.56113
-0.089916,-0.22612,-0.088121,-0.11456,-0.13089,-0.45636,-1.1327,-0.85651
0.26556,0.22523,0.083276,0.065622,0.078664,0.1767,0.35048,0.28384
0.56696,-0.067659,-0.084698,0.017952,0.022398,0.014126,0.46187,-0.13588
-0.22264,-0.060621,-0.047217,-0.078949,-0.05836,-0.093709,-0.033091,0.78746
0.021721,0.049297,-0.024034,0.032112,0.038829,0.38308,0.49442,-0.68652
-0.044598,0.058328,0.024089,0.022893,0.032275,-0.19748,-0.21274,0.49566
-0.077912,-0.072178,-0.042231,-0.067182,-0.078161,-0.22717,-0.57755,-0.28703
-0.17745,-0.098745,0.013353,0.043871,0.028004,0.27775,0.86778,0.31931
-0.14986,0.23834,0.13061,0.060134,0.03873,-0.15925,-0.76618,-0.49602
-0.52446,-0.15244,0.014805,-0.040821,-0.045296,0.025181,-0.26362,-0.25401
0.88375,0.27801,0.073819,0.077861,0.081442,0.082561,0.32224,0.98687
-0.23017,-0.32762,-0.21481,-0.14561,-0.12708,-0.30543,-0.33895,-1.0095
0.49349,0.047891,0.024198,0.00013554,0.017407,0.1211,0.11275,-0.016346
-0.46146,-0.11785,0.032703,0.023015,0.0076087,0.16854,0.26477,0.50739
-0.035336,0.12859,0.036516,0.07125,0.070301,0.017556,0.29708,0.40055
0.0005263,0.099198,0.019002,0.066211,0.025627,0.074391,0.0039537,-0.67734
0.49671,0.16765,-0.028745,-0.039689,0.029307,-0.044744,0.332,0.72213
-0.77697,-0.39466,-0.16248,-0.1535,-0.16165,-0.18533,-0.92463,-1.0624
0.58815,0.15979,0.17154,0.059954,0.022145,0.0020903,-0.13138,0.57284
-0.14052,0.0080915,-0.058745,0.021946,0.064157,0.12488,0.80523,0.79381
-0.046589,-0.0083082,0.067876,0.021169,0.0027315,-0.060677,-0.25614,-0.71821
0.19428,0.16366,0.07436,0.049706,0.048386,0.10093,0.32554,-0.7509
-0.47403,-0.211,-0.10988,-0.079785,-0.095805,-0.093226,-0.65783,0.087256
0.16845,0.01667,-0.023891,0.015902,0.023618,-0.071757,-0.10628,0.29631
0.00020904,-0.011037,0.02015,0.024842,0.0010798,0.081177,0.4275,0.67967
-0.31763,-0.025883,-0.070803,-0.075713,-0.037508,-0.14011,-0.17626,0.23444
0.50906,-0.0012757,0.055843,0.043084,0.018226,0.18831,0.22273,-0.19225
-0.36738,0.081601,0.096674,0.03815,0.044197,-0.049157,-0.38277,-0.88696
0.42981,-0.016737,-0.056291,0.003766,0.0098302,0.12482,0.31963,0.012138
0.13402,0.064863,0.0045511,-0.0050346,-0.0064101,-0.21178,-0.16436,1.0163
-0.14108,-0.032387,-0.08683,-0.05062,-0.02018,0.06498,0.12887,-0.62696
0.13832,0.058051,0.021938,0.023183,0.03066,0.32836,0.26883,-0.16032
-0.27569,-0.10303,-0.0047492,-0.018272,-0.049792,-0.50963,-0.52204,-0.035204
-0.42704,0.020975,0.051621,0.035523,0.034642,0.22094,0.46838,0.025075
0.1893,-0.096103,0.065222,-0.019111,-0.052656,0.065436,0.34941,0.12611
0.34666,0.18374,-0.012165,0.020315,0.047119,-0.18785,-0.67563,0.68588
-0.31952,-0.071289,-0.072864,-0.034362,-0.041441,0.086122,-0.3393,-1.0268
0.28152,-0.011,0.021938,0.042793,0.048617,0.028754,0.26126,0.43522
-0.31287,-0.1437,-0.080981,-0.029997,-0.034354,-0.10867,0.031889,0.66668
0.66134,0.20282,0.18743,0.059408,0.045607,0.11284,0.0062084,-0.59015
-0.59531,-0.079856,-0.17354,-0.079768,-0.031721,0.046197,0.31363,-0.19461
-0.34521,-0.045078,0.00010961,-0.0021311,-0.0084052,-0.042008,-0.36843,-0.31814
0.52948,-0.019591,0.029185,-0.012073,-0.001504,-0.034167,0.29386,0.016932
-0.028157,0.099305,0.055268,0.070551,0.035988,0.038328,0.5479,0.81239
0.4615,0.09355,0.032675,0.0040911,-0.012979,-0.051668,-0.88325,-0.11726
-0.32838,-0.075741,-0.1077,-0.046854,0.015812,0.3747,0.58172,-0.38748
-0.32668,-0.0025898,0.0023596,-0.019329,-0.064956,-0.58186,-1.0317,-0.052162
0.41367,0.015589,0.035403,0.047923,0.049615,0.18736,0.37076,-0.36971
-0.19707,-0.1468,0.015137,-0.016813,-0.046502,-0.091501,0.25717,0.92329
0.10609,0.056657,0.15237,0.059902,0.037519,0.15951,0.13272,-0.52072
-0.3225,-0.030508,-0.17832,-0.065809,0.0049391,-0.012763,0.15711,0.49644
-0.48505,0.037046,-0.00092004,-0.019157,0.0042328,0.024481,-0.089524,0.071028
0.14904,-0.013909,0.051242,-0.0035149,-0.011556,0.099294,0.26122,-0.30943
0.78998,0.09819,-0.084647,0.058999,-0.0035558,-0.18687,-0.50012,-0.0074064
-0.15075,0.076829,-0.041454,-0.058396,0.027975,0.23626,0.19175,-0.75038
0.165,-0.01506,0.10289,0.034751,-0.018797,-0.24051,-0.45505,-0.41999
0.15791,-0.17691,-0.010615,0.010192,-0.011278,-0.015099,-0.11267,1.0411
-0.19963,0.0061465,0.032524,0.0006837,0.019174,0.069634,0.48664,0.65951
-0.23384,0.03513,0.1546,0.021883,-0.021158,-0.11016,-0.16104,-0.16408
-0.27896,-0.080948,-0.15965,-0.043267,-0.014915,0.11074,0.4881,-0.47554
-0.30858,0.088757,-0.15215,-0.030467,0.014735,0.022343,-0.15496,-0.24422
0.48716,-0.072072,-0.0024558,-0.033148,-0.033471,-0.093727,-0.26576,0.035907
0.58486,0.17126,0.10196,0.10529,0.067281,0.19974,0.16679,0.53455
-0.27862,0.060556,0.10621,-0.021091,-0.0031816,-0.074779,-0.1596,-0.22656
-0.34116,-0.16312,0.017699,0.009806,0.012946,0.14376,0.17867,-0.23217
-0.19914,0.021927,-0.039204,-0.0050743,-0.017295,-0.16969,0.042206,-0.0746
-0.19126,-0.081686,-0.096499,-0.07363,-0.070712,-0.2509,-0.76351,-0.13322
0.49878,0.0082923,-0.05336,0.046099,0.039924,0.23518,0.58997,0.75344
0.53682,0.12597,0.13652,0.025661,0.0096913,-0.11006,-0.077384,-0.22067
-0.33558,0.035712,0.0041326,-0.0025,0.033763,0.13579,0.35038,-0.54879
0.19126,0.080771,0.026148,0.04721,0.034011,0.08319,0.011679,-0.029408
-0.58227,-0.3635,-0.17193,-0.10671,-0.098797,0.061708,-0.018471,0.50616
0.050065,0.094668,0.027887,0.020002,-0.012829,-0.41152,-0.68124,0.31798
0.11546,0.042908,0.11098,0.013329,0.026639,0.15702,0.2774,-0.51646
-0.029276,-0.079371,-0.062303,0.0062633,0.0043201,0.088515,0.20552,-0.39146
0.11514,0.20609,0.094751,0.022502,0.014199,-0.054279,-0.079308,0.56157
-0.051727,0.064471,-0.089348,-0.023631,0.048505,0.21255,0.19461,-0.1814
-0.37894,-0.16017,-0.028765,-0.014759,-0.049202,-0.15119,-0.066984,0.47963
0.48044,0.086354,0.018075,0.017919,0.025352,0.0091242,-0.28507,-0.026824
0.092041,0.045049,0.10481,0.043047,0.013783,0.09015,0.47234,-0.35646
-0.1355,-0.2856,-0.082401,-0.064635,-0.08453,-0.22225,-0.45517,-0.052731
-0.052526,0.20227,0.095683,0.046074,0.026731,-0.046454,-0.078585,-0.32741
-0.15132,-0.070636,-0.088695,-0.031459,0.034668,0.21074,0.42757,-0.24816
0.41062,0.10598,0.019956,0.0462,-0.006194,-0.13022,-0.2208,0.60451
-0.38441,-0.064732,-0.10197,-0.033605,-0.002011,0.14232,0.1756,-0.14533
0.25807,-0.035257,-0.0086775,-0.02863,0.00068625,0.068611,-0.23249,0.9389
-0.24233,-0.046656,0.043042,-0.0088964,-0.044429,-0.24053,-0.6013,-0.69192
0.20641,0.066534,0.11708,0.041706,0.050823,0.028916,0.6526,-0.45621
-0.045142,0.13387,0.019655,0.0065956,0.021539,0.23772,0.72748,0.45169
-0.31757,-0.16373,-0.10722,-0.043301,-0.076928,-0.35517,-0.46913,-0.39131
0.14719,0.041809,-0.020232,0.025345,0.029381,0.13375,0.19643,0.18385
-0.23638,-0.030353,-0.031178,-0.013708,0.0048396,0.15002,-0.24276,0.50177
0.70386,0.11195,0.14147,0.074001,0.044822,0.07616,-0.44656,0.22338
-0.01657,-0.00042132,0.013187,-0.0085603,0.0085231,-0.21357,-0.095033,-0.53585
-0.23404,-0.047806,-0.088359,-0.050801,-0.034123,0.0063883,-0.060256,-0.54886
0.027571,-0.13253,-0.062309,-0.029745,-0.028936,0.10208,0.21002,0.29677
-0.55211,-0.075677,0.02021,-0.0083812,-0.038969,-0.23227,0.1206,-0.040636
0.38706,0.20794,0.017727,0.012837,0.028992,0.1118,0.2084,-0.24227
0.44058,0.061407,0.11692,0.080406,0.057294,0.14139,0.28942,0.73682
-0.6545,0.0466,-0.089233,-0.032523,0.014322,-0.042406,-0.16694,-0.021375
-0.28556,-0.11043,0.054823,0.017601,0.001395,0.013322,0.14958,-0.31321
0.73812,-0.14445,-0.17029,-0.10528,-0.083154,-0.097623,-0.45275,-0.11875
0.10668,0.13187,0.10988,0.059722,0.026342,0.14855,0.03669,0.59366
-0.34245,-0.1096,-0.05827,-0.02647,-0.029319,-0.1772,-0.2772,-0.7645
0.24241,0.092257,0.16082,0.081472,0.047009,-0.050548,0.0089104,0.58399
-0.34319,0.0033312,-0.10812,-0.04611,-0.0099835,0.11547,0.34731,0.18251
-0.32832,0.022347,0.072359,0.028333,0.026564,0.071792,0.42674,-0.46985
0.69777,0.063639,-0.016268,-0.02322,0.00064276,-0.11055,-0.75772,0.3803
-0.0028943,0.01029,0.017246,0.018177,-0.0016475,0.045303,0.29001,-0.77387
0.011672,-0.13737,-0.14637,-0.050277,-0.050525,0.0079016,-0.37125,0.035142
-0.47198,-0.050793,-0.060395,-0.0015665,0.025933,-0.02028,0.55904,0.39667
0.49016,0.12216,0.15177,0.047664,0.032438,0.17072,0.067955,-0.57359
-0.31275,-0.14133,-0.086474,-0.081719,-0.077865,-0.22488,-0.18678,0.4906
-0.55128,0.12806,0.17917,0.087306,0.070033,0.14357,0.24039,0.64123
0.34687,0.0088255,-0.09762,-0.062194,-0.047316,-0.07607,-0.52624,-0.12807
0.18842,-0.11623,0.012715,0.047891,0.0075407,-0.22759,-0.15995,-0.29718
0.4513,0.19782,0.087479,0.057877,0.070447,0.21291,0.40779,-0.077459
0.21395,-0.034148,-0.06212,-0.024967,-0.022795,0.12912,0.088964,-0.20805
-0.62584,-0.063083,-0.046957,-0.060689,-0.045776,-0.12631,0.03745,-0.25165
-0.1161,0.024186,-0.071559,0.012556,0.016993,-0.0054451,-0.35101,0.88332
0.046898,-0.02295,-0.01981,-0.040114,-0.022076,0.07847,-0.048223,-0.82947
0.058404,-0.04057,0.092064,0.031031,0.016685,-0.16317,0.22375,0.23244
0.083699,-0.043922,0.092079,0.046297,0.023941,0.23838,0.54753,0.059986
-0.16378,-0.063465,-0.089761,-0.072217,-0.054918,-0.27204,-0.61106,0.48993
0.33495,0.12053,-0.0075207,0.043043,0.045811,0.15628,0.19915,-0.013317
-0.47917,0.11049,0.027092,-0.0059497,-0.001951,-0.016888,-0.18635,-0.49006
-0.04884,-0.069663,-0.024154,0.015532,0.0049127,-0.011577,-0.11764,-0.047736
0.017441,-0.021548,-0.019887,-0.0094753,-0.0039715,0.11631,0.42446,-0.35339
0.40569,-0.003589,0.017023,-0.026219,-0.036508,-0.19665,-0.59375,-0.15007
0.33854,0.022272,0.040021,0.066782,0.063469,0.15066,0.29525,1.1092
-0.096056,0.054912,-0.044604,-0.019711,-0.016576,0.033389,0.2859,-0.067782
0.11884,-0.039387,0.028548,-0.043706,-0.050026,-0.23512,-0.59995,-0.55762
-0.62392,-0.018825,0.032472,0.018103,0.025777,0.096508,0.61895,0.33146
0.039652,-0.047139,-0.049021,0.001636,0.00014929,0.0066021,-0.10972,-0.047035
-0.069887,-0.09984,-0.060269,-0.046108,-0.025029,-0.088976,-0.20806,-0.49014
-0.19872,0.059036,0.068526,0.046987,0.052129,0.1863,0.032104,0.48471
0.066032,0.10312,0.055746,0.031221,0.013148,0.083383,0.098077,-0.305
-0.17399,-0.03646,-0.012852,-0.038436,-0.040244,-0.092791,0.030518,0.37961
0.7135,-0.038705,-0.14508,-0.013366,-0.014271,-0.092716,0.0024533,-0.2381
0.17886,0.025637,0.057647,0.0048908,0.004995,0.035645,-0.031336,0.21417
0.075392,0.0064676,0.0096147,0.0083505,0.0016406,-0.045117,-0.271,-0.16399
-0.051696,0.080735,0.0079213,0.0201,0.029933,0.030579,0.3352,-0.45184
-0.83172,0.0028724,0.12305,0.031849,0.0034337,0.042462,-0.32295,0.41267
0.40935,0.050765,0.0035545,-0.0037845,-0.00024971,0.020527,0.18537,0.14048
-0.26373,-0.082847,-0.15515,-0.087228,-0.036252,-0.12985,-0.12933,-0.41674
0.38699,-0.0083928,0.068995,0.054714,0.035752,0.13779,0.28348,0.61604
-0.17979,-0.053023,-0.073683,-0.023261,-0.018701,-0.043709,-0.0645,-0.081646
0.043697,-0.041724,0.034505,-0.016197,-0.027596,-0.080138,-0.036829,-0.17396
-0.22994,-0.11014,0.034796,0.037308,0.025039,0.12306,0.033431,0.31588
0.22072,0.11498,-0.072214,-0.049698,-0.032194,-0.02682,-0.054941,-0.80659
0.17179,-0.11813,0.026376,0.035784,0.012149,-0.075488,-0.26986,0.17116
-0.39062,0.046908,0.064986,0.036263,0.041303,0.040712,0.31818,-0.24873
0.24461,0.073573,-0.074,-0.032573,-0.022604,0.041554,-0.0028766,0.67816
-0.017951,0.39117,0.10851,0.047809,0.054848,-0.0096748,0.015136,-0.022936
0.31059,-0.1599,0.033099,-0.027716,-0.038989,-0.1047,-0.34882,0.2114
0.07764,0.1099,-0.012622,0.021544,0.02374,0.16284,0.57473,-0.34549
-0.54892,-0.31428,-0.20189,-0.094025,-0.069761,-0.11359,-0.20856,0.44617
0.397,-0.095697,0.058029,0.015779,0.00059196,-0.012741,-0.39554,-0.66482
-0.2491,0.080311,-0.014591,0.022612,0.023755,-0.012057,0.21634,-0.19515
-0.53182,-0.10994,0.056933,0.01242,-0.0080558,0.33273,0.61199,0.27641
0.18641,0.051606,0.11704,0.047921,0.0068475,-0.37789,-0.50377,-0.14883
0.48232,0.058978,-0.075303,-0.018938,0.013942,0.01925,-0.33141,0.11493
0.058137,0.040914,-0.018661,-0.031417,0.013373,0.039105,0.054147,0.63767
0.052704,-0.0056597,-0.063028,-0.012416,0.013034,0.11888,0.16388,-0.1595
-0.045513,0.033391,0.050914,0.022964,-0.0026821,-0.061673,-0.0076075,-0.26987
-0.70384,-0.072367,-0.074012,-0.042019,-0.057242,-0.0099559,0.23608,0.024115
0.66223,0.12492,0.1021,0.035135,0.021191,0.016884,0.44902,-0.15343
0.025227,0.016813,-0.029808,0.0045451,-0.001775,-0.15222,-0.90232,-0.2012
-0.12081,0.0011666,0.029983,0.030187,0.006692,0.20232,0.49107,-0.26732
0.06097,-0.11118,0.061909,0.010213,0.0075774,-0.082844,-0.25767,0.96921
-0.13149,0.021318,-0.10712,-0.063627,-0.022504,0.047453,-0.042945,-0.52229
0.0073023,-0.048797,0.037112,0.011285,0.010226,-0.086276,-0.015991,0.10975
0.17718,0.051835,-0.045812,7.6643e-05,0.051058,0.13306,0.38434,0.16923
-0.27087,-0.15422,0.010189,-0.003918,-0.048522,-0.14646,-0.27128,-0.11879
-0.1394,0.082958,0.0090958,0.03808,0.023862,0.14502,0.13631,0.36104
0.17765,0.029526,-0.033728,-0.045936,-0.052256,-0.13364,-0.077093,-0.98664
0.17056,0.13163,0.10062,0.064366,0.058912,0.13436,-0.26686,0.89216
-0.25587,-0.055219,-0.079562,-0.068374,-0.041203,-0.090261,0.078782,-0.70505
0.36488,-0.06956,0.0044849,0.0091967,-0.0011384,-0.010623,-0.068388,0.23177
-0.19762,0.11215,0.040938,0.031713,0.030595,-0.11876,0.20703,0.33922
-0.043303,-0.14324,-0.094639,-0.047458,-0.031996,0.10116,0.17764,0.075411
0.053536,0.022943,0.090294,0.053107,0.04542,0.118,0.3013,-0.10865
-0.23056,0.00045053,0.041161,-0.018077,-0.041878,-0.052699,-0.39546,-0.11353
0.40429,0.069649,-0.0077824,0.020213,0.026407,-0.051887,-0.16029,-0.45782
0.030646,0.02673,-0.088055,-0.035258,0.00030612,0.096486,0.20503,0.22873
-0.11454,-0.07393,0.057841,0.03411,0.0049172,0.079382,-0.1933,-0.44417
-0.12103,0.056909,-0.085969,-0.029634,-0.022071,-0.26763,-0.090248,0.76246
0.26743,-0.048792,0.019465,-8.3383e-06,-0.0022512,0.14136,0.26652,0.076014
-0.57306,-0.13986,0.061709,-0.0098146,-0.029018,-0.13071,-0.26644,0.37682
0.10322,0.050812,0.0019343,0.019182,0.030822,0.04199,0.12237,-0.034912
0.12179,0.1966,0.028014,0.0090518,0.013549,0.11368,0.10445,-0.74171
-0.3868,-0.1231,-0.023649,-0.0087124,-0.0024757,-0.070777,-0.30573,0.46532
0.29283,0.061241,-0.027545,0.028639,0.037511,0.044177,0.20114,-0.56775
0.53002,-0.047136,-0.069118,-0.066187,-0.054097,-0.033231,0.23603,-0.20796
0.1286,-0.019083,0.05515,0.011612,-0.01196,-0.021905,-0.26535,0.29274
-0.11037,0.027102,-0.013912,0.012027,0.0072497,0.11651,0.37172,-0.13327
-0.036103,0.10558,0.059563,0.044277,0.042082,-0.033155,-0.18033,0.089788
-0.43562,-0.1446,-0.021696,-0.024743,-0.025178,-0.050333,0.062535,0.78029
-0.26659,0.025186,0.030666,0.023323,0.031555,0.055956,0.030288,0.29394
0.054776,-0.018839,-0.018659,-0.038509,-0.053694,-0.16829,-0.5169,-1.2436
0.33391,0.011969,0.0090147,0.00032846,0.015776,0.073433,0.19984,0.30478
-0.019665,0.047461,0.034676,0.030227,0.013435,0.06252,-0.12321,-0.10046
-0.19637,-0.10701,-0.20789,-0.073858,-0.021413,-0.051983,0.072608,0.028356
0.082426,0.0026507,0.15613,0.063236,0.0053892,-0.0035675,0.17603,0.51935
0.34444,0.088493,-0.02923,-0.026891,-0.022832,0.029023,0.013971,-0.30927
0.013941,0.10465,0.041431,0.015619,0.050717,-0.031527,0.02986,0.36794
-0.033918,-0.11218,0.033196,0.019431,0.0077871,0.12001,0.01697,-0.58353
-0.19954,0.024435,-0.044934,0.00068925,-0.0027835,0.0073156,0.31314,0.35272
-0.29104,-0.079087,-0.035524,-0.024548,-0.035415,-0.1587,-0.55868,-0.36584
0.39853,0.0068894,-0.046946,-0.016935,-0.0040508,0.18432,0.17245,-0.12921
-0.19692,0.039957,0.046453,0.00018948,-0.0024651,-0.23723,-0.03643,0.35625
0.27187,-0.019266,-0.012963,-0.0045397,0.00042763,0.014072,-0.30696,0.4576
-0.00029131,0.047597,0.086936,0.054491,0.035587,0.17264,0.84089,-0.87037
-0.23059,-0.033287,0.032766,-0.01072,-0.01457,-0.12082,-0.65112,0.30386
-0.16562,0.065825,0.010773,0.017964,0.0057419,0.071226,0.18341,-0.1991
0.082091,-0.11635,-0.13669,-0.039777,0.0022935,-0.0091416,-0.18766,0.3993
-0.27943,0.076139,0.034401,-0.0047913,0.0059024,0.028391,0.10347,-0.18889
0.46477,-0.099101,-0.062793,-0.02587,-0.046252,-0.058878,0.050947,0.43934
0.12929,0.092153,0.07914,0.053131,0.040981,0.072156,0.15773,0.12835
-0.0051708,0.017,0.015045,-0.025452,-0.037069,-0.094797,0.068012,-0.96777
0.1284,0.026968,-0.082572,-0.011252,0.024469,0.049087,-0.51918,0.41331
-0.54589,-0.10449,0.060663,0.018105,-0.0084735,0.11287,0.29797,0.44091
0.34795,0.068023,0.023912,0.00065371,0.0050918,-0.24722,-0.25917,-0.51782
0.084326,-0.041292,-0.027833,-0.00064837,0.03427,0.13317,0.47489,0.43151
-0.13919,-0.010354,-0.0079706,-0.024567,-0.045652,-0.07355,0.0079902,-0.32781
-0.41182,0.043883,0.036933,0.03054,0.00769,0.016048,-0.46604,-0.54871
0.24256,-0.018985,0.0052651,0.016092,0.0068516,0.12911,0.29214,0.027269
0.14665,0.035573,0.029497,0.017701,0.022086,0.00042823,-0.072801,0.72318
-0.15574,-0.1127,-0.12526,-0.06662,-0.040501,-0.1042,-0.17445,-0.0047267
0.31035,0.11424,0.024847,0.028334,0.02985,0.0026853,0.55361,0.0095045
0.10626,0.0052773,0.080927,0.028815,0.0064092,0.070921,-0.15717,0.64032
-0.69172,-0.041387,-0.051017,-0.057487,-0.024993,-0.0090522,-0.042443,-1.2096
0.0067962,0.013079,0.082107,0.027334,0.0059426,-0.057629,-0.41398,0.74211
0.58688,0.043551,-0.13671,-0.044561,-0.010072,-0.035661,-0.018954,-0.88132
0.29052,-0.059297,-0.019664,0.0084846,-0.0025549,0.033676,0.084586,0.087638
-0.67384,-0.04521,0.11331,0.069706,0.013076,0.010126,0.22226,0.47828
0.52553,0.039361,-0.010908,-0.024622,-0.0098641,0.0034271,-0.13211,0.12565
-0.37425,-0.016032,0.045352,0.022546,0.030299,0.013802,0.095603,-0.14468
-0.10466,-0.031295,-0.053852,-0.038818,-0.02269,0.056847,0.39154,-0.13307
0.12717,0.087483,-0.02746,0.0098255,0.018529,-0.11777,-0.35427,0.47751
-0.24377,-0.042708,-0.024232,-0.019362,-0.025989,0.083063,0.19135,-0.22848
0.14881,0.030666,0.033565,0.0060461,-0.00032868,-0.083647,-0.44471,0.26661
0.18044,0.080141,0.059607,0.046632,0.040477,0.12341,0.17773,-0.41285
0.14952,0.0031402,-0.047978,-0.038485,-0.021051,0.10195,0.053626,0.1996
-0.34815,-0.13872,-0.015936,-0.0072238,-0.013209,-0.25785,-0.23537,-0.36861
0.31455,0.068138,0.069773,0.015463,0.024925,0.036182,0.43273,-0.11612
-0.18072,-0.10279,-0.087582,-0.032741,-0.054935,-0.054584,-0.28735,-0.21068
-0.26204,-0.1118,-0.042419,-0.010948,-0.010313,0.08001,0.088711,-0.16424
0.34525,0.18284,0.057158,0.034234,0.041958,0.034681,-0.10182,0.3118
-0.06107,0.024651,0.016145,0.024879,0.016288,0.029122,0.39346,0.569
0.043045,0.078967,0.022244,-0.007681,0.014496,0.071872,-0.34418,0.62933
