0.30099,0.036079,-0.044223,-0.059543,-0.012098,0.007298,0.10163,0.074153
-0.12935,0.083909,-0.03433,0.043734,0.02794,0.023597,0.00034756,-0.016132
-0.37299,0.097807,0.1409,-0.009106,-0.017867,-0.00098797,0.055076,-0.013285
0.18637,-0.022999,-0.066032,-0.038666,-0.024687,-0.012023,-0.12476,0.074582
-0.045845,-0.13813,-0.0074005,0.017336,0.0073553,0.029715,0.10139,-0.096521
0.24196,0.032394,0.06602,-0.0053091,0.0078824,-0.0079367,0.045868,0.10609
0.040955,-0.060515,-0.088652,-0.036376,-0.0074863,-0.037912,-0.12757,-0.12225
0.13916,-0.029085,-0.081285,0.056881,0.0081633,-0.011867,0.088568,-0.0078854
-0.02663,0.25634,0.095784,0.032217,0.015828,-0.014189,-0.048186,0.0042338
-0.11264,0.081812,0.54441,0.061467,-0.0078753,-0.012364,0.024539,0.14113
-0.57083,-0.32068,-0.42991,-0.011598,-0.00040968,-0.005834,-0.044729,-0.081107
0.44497,0.031966,-0.6541,-0.20247,-0.024265,-0.0029412,0.13498,-0.037083
-0.28055,0.077492,0.15455,0.059463,0.0064863,0.010089,-0.22479,0.0078242
0.10028,-0.025922,0.55202,-0.014454,0.02151,0.05354,0.1736,-0.008803
0.54412,0.069048,0.007842,0.068442,0.012977,0.052982,-0.13775,0.092645
-0.41536,0.023527,0.11567,0.042941,-0.026917,0.08997,0.11536,-0.016143
0.16004,-0.21941,-0.18798,-0.012579,-0.0043761,0.012388,0.04289,-0.038513
-0.14492,-0.13867,-0.19386,0.042551,0.018199,-0.0097688,-0.13615,-0.04495
0.065342,0.27801,0.010123,-0.065253,-0.013734,-0.022483,0.19535,0.050425
0.41962,0.14255,0.33634,-0.00031744,0.0015655,-0.13089,-0.23649,-0.072627
-0.50836,-0.20132,-0.2162,-0.028544,-0.013856,-0.13216,0.14572,0.086062
-0.29302,0.087302,-0.2179,-0.0095266,-0.0051882,-0.14919,-0.15113,-0.11396
0.10153,0.010699,-0.066302,-0.021517,0.035412,-0.054154,0.12976,0.18677
0.32961,-0.040208,0.24013,0.068233,-0.0015243,-0.0018408,0.042118,-0.19157
-0.14846,0.15272,0.22665,0.0018397,-0.0068484,-0.010086,0.08521,0.11787
0.39449,-0.0044625,-0.027012,-0.02553,-0.0043282,0.47599,-0.18667,-0.010511
0.19449,0.044573,-0.42609,-0.014143,-0.0021579,0.39571,0.046874,0.086661
-0.83197,-0.41431,0.31869,0.059055,0.014929,0.1672,-0.11982,-0.052231
-0.072549,0.135,0.08176,0.0452,-0.00020156,-0.14663,0.11113,-0.021413
0.069616,-0.076625,-0.34902,-0.04826,-0.0085827,-0.41327,-0.079329,-0.19603
0.56609,0.25514,0.31387,-0.041815,-0.010118,-0.24774,0.2397,0.11948
-0.22947,-0.30558,0.068936,-0.013487,-0.027967,-0.39268,-0.27467,0.042861
0.30112,0.22757,-0.124,-0.080059,-0.0070423,-0.084139,0.018489,-0.034511
-0.60781,-0.16043,-0.34353,0.05598,0.029652,0.21409,0.18126,0.060001
0.85533,-0.20625,0.25432,0.08285,0.035605,0.15269,-0.013985,0.1239
-0.77946,0.74017,-0.063972,-0.030069,-0.012409,0.5179,-0.029724,-0.12364
0.11947,-0.12063,0.14031,0.045728,0.026254,-0.021135,0.085531,-0.033958
0.29374,0.025362,-0.037868,-0.033457,-0.028251,0.15563,0.088255,0.064948
-0.6316,-0.16651,0.011794,-0.025702,-0.019947,-0.36666,-0.48316,-0.17061
0.50028,-0.22915,-0.0071257,0.013822,-0.011637,-0.1555,0.16838,0.09536
-0.3803,-0.23348,0.14752,0.022069,0.027685,0.069268,-0.026397,-0.027753
0.18003,0.36932,-0.079325,-0.032644,-0.011481,-0.071451,0.14506,0.07713
0.4619,-0.032477,-0.15691,-0.00206,-0.01193,0.182,-0.049857,-0.05905
-0.083112,7.9785e-05,-0.0074478,0.0046027,0.018672,-0.09105,0.03091,0.039711
0.199,0.06556,0.040863,-0.0043556,-0.013189,-0.014023,0.067844,0.07578
-0.17855,-0.2194,-0.027358,0.01085,0.025558,0.040901,0.12347,0.07957
-0.55364,0.13797,0.093001,-0.011496,-0.0054899,-0.04672,-0.013772,-0.11369
-0.4351,-0.088713,-0.12891,-0.078586,-0.028074,-0.059456,-0.19641,-0.17628
0.16143,-0.15886,0.21334,-0.0026814,0.020318,0.12821,-0.13632,-0.061264
0.47097,0.13395,-0.083577,0.051849,-0.0088679,-0.12236,-0.029444,0.10685
0.65064,0.55517,0.09693,0.25598,0.040394,0.066839,0.16313,0.15702
0.33396,-0.094092,-0.13663,-0.21977,-0.027502,0.12109,0.1213,0.090199
-0.6817,-0.24186,-0.027402,0.1152,-0.0019259,-0.018805,-0.021688,-0.0067765
-0.5832,0.19817,0.087869,0.10324,-0.00033006,-0.19381,-0.14833,-0.32857
-0.049007,-0.71083,-0.12725,-0.52997,-0.061956,0.066783,-0.04767,-0.031116
0.36047,0.31468,0.092772,0.23891,0.078754,0.029558,0.20957,0.19804
-0.36752,0.04524,-0.19709,0.0043593,-0.01566,0.061694,-0.018085,0.1241
0.69986,0.12142,0.25373,-0.02134,0.0064999,0.021692,-0.036471,-0.03487
0.02627,-0.18085,-0.030665,0.18691,0.0048054,0.0096084,0.11417,0.056239
-0.64449,0.04879,0.20038,0.013512,-0.028325,-0.17952,-0.23894,-0.25176
0.81258,-0.15381,-0.27916,-0.1341,-0.0067201,0.046201,0.06009,0.18125
-0.51831,0.35586,-0.070443,0.057174,0.030768,0.099209,-0.035266,-0.16824
-0.42163,0.0019447,-0.0091886,-0.037645,-0.025074,-0.11544,-0.0083333,-0.049978
0.67646,0.011064,0.139,0.010642,0.028974,0.081234,0.10339,0.12249
-0.16613,-0.25166,-0.016707,0.029366,-0.0023832,0.0015329,-0.049877,-0.048784
0.39802,0.053855,0.070097,-0.060489,-0.017638,0.036284,0.072569,0.2489
-0.23563,0.24368,-0.077833,-0.025349,-0.0012825,-0.087446,-0.11402,-0.14092
-0.79478,-0.08424,-0.039419,-0.014242,-0.015972,0.045066,0.086178,-0.023642
0.54957,0.16204,0.30961,0.13658,0.039682,-0.073316,0.0088982,-0.0096094
0.05809,-0.10243,-0.35934,0.0051898,0.0014547,0.097029,0.059521,0.14235
-0.35877,-0.52978,0.063081,-0.10357,-0.021413,-0.076379,-0.091383,-0.35751
0.87408,0.16823,-0.078875,-0.017522,0.010056,0.031516,4.7424e-05,0.36571
-0.5905,-0.077792,-0.010807,-0.12699,-0.0526,0.10019,-0.081541,-0.20295
-0.44458,0.061236,0.19043,0.20893,0.025027,-0.12075,0.10047,-0.0073332
0.68059,-0.11099,0.018348,0.037259,0.063334,0.26672,0.014496,0.079616
0.073771,0.57266,-0.041545,0.27208,-5.7866e-05,-0.3549,-0.081392,-0.088191
0.17834,0.086918,-0.058821,-0.50069,-0.063446,-0.040337,0.0088489,0.014894
-0.50095,-0.23134,-0.048855,-0.070125,-0.017306,0.156,-0.034059,-0.023548
-0.17846,0.3492,0.089651,0.25135,0.029125,0.015922,0.19724,0.26594
0.1974,-0.3485,-0.034646,-0.043889,0.013456,0.016682,-0.13224,-0.24206
0.077497,0.0068006,0.038125,0.075613,0.013869,-0.028506,-0.045331,0.044638
-0.37533,-0.28982,-0.076111,-0.030621,-0.039961,0.084058,0.051911,-0.0092286
0.25277,0.053742,0.066664,-0.057914,0.055004,-0.1687,0.042027,0.18713
0.67326,0.061923,0.051233,0.024762,-0.037323,0.10399,0.057183,-0.048927
-0.56602,-0.2197,-0.068583,0.068533,0.0031872,0.04269,-0.098838,-0.20421
-0.12794,0.086695,-0.051068,-0.17721,-0.026785,-0.079349,-0.13017,-0.077099
0.38715,-0.12347,0.072488,0.15403,0.036655,0.026695,0.11847,0.1445
-0.98837,0.32588,-0.21318,-0.071224,-0.0097464,0.024641,0.021254,-0.038726
0.72298,0.17821,0.2332,0.2012,0.0058193,-0.0545,0.015075,0.054413
0.74051,-0.12445,0.013999,-0.23986,-0.010403,-0.093807,-0.041041,0.0039595
-0.71687,0.51104,0.036319,0.097909,0.019769,0.039162,0.071595,-0.00069354
-0.71983,-0.72525,-0.066247,-0.19121,-0.051985,0.03136,-0.084261,-0.04398
0.87934,0.47865,-0.066447,0.29991,0.079186,0.19453,0.14042,0.10937
-0.21735,-0.29293,-0.0262,-0.24014,-0.047462,0.074659,-0.1675,0.084574
0.55914,0.13144,0.054959,0.095995,-0.025474,-0.28227,-0.0068269,-0.25146
-0.70654,-0.37078,-0.010154,-0.018896,0.028151,0.0059407,0.01441,0.21788
-0.15611,-0.12924,0.012955,0.032903,0.011996,0.064119,0.069418,-0.26577
0.46754,0.10055,0.069471,0.079569,0.012082,-0.17761,-0.020388,0.13325
-0.46073,-0.23873,-0.19256,-0.090259,-0.034086,0.2427,0.050358,0.14947
0.90332,0.66403,0.25746,-0.016429,-0.001582,-0.12667,-0.11667,-0.29465
-0.35325,-0.068119,-0.042178,0.026666,0.031324,0.028337,0.20456,0.29397
-0.62714,0.092066,-0.12357,0.23344,-0.0058776,0.052825,-0.25268,-0.29463
0.52134,-0.12798,-0.0812,-0.46704,-0.043102,-0.083529,-0.0056094,-0.090977
-0.56949,-0.0037795,0.11567,0.14371,0.036605,0.1274,0.26426,0.33487
0.71974,0.31194,0.10745,0.050236,-0.0013404,-0.049102,-0.069884,0.15438
-0.5235,-0.39702,-0.12141,0.057684,0.0069589,0.042352,-0.017377,-0.11789
0.19352,0.11456,-0.039303,-0.020823,-0.02453,-0.068188,-0.11039,-0.1631
0.55763,-0.45335,0.065248,0.14343,0.04481,-0.061671,0.096242,0.17344
-0.042174,0.10931,-0.12743,-0.097571,-0.019307,0.068647,-0.16239,-0.25014
-0.866,-0.00079435,0.19581,-0.22804,-0.037009,-0.060738,0.044854,-0.090726
0.27128,0.15672,0.043306,0.12691,-0.0080386,0.081199,0.11833,0.25334
0.37547,0.05397,-0.045443,0.044984,0.021014,-0.044373,-0.12743,-0.060976
-0.48445,0.10776,-0.16391,0.056795,0.026978,0.00064087,0.067109,0.053346
0.10485,0.14749,-0.10884,0.16937,0.010048,-0.025129,0.10149,-0.19945
0.11963,-0.022583,0.35414,-0.3212,-0.037497,0.097951,-0.086479,0.24397
-0.33877,-0.25593,-0.28295,0.021964,0.032769,0.058183,0.15118,-0.061297
0.47145,0.20271,0.17486,-0.012401,-0.037061,-0.21413,-0.13971,0.04872
0.89352,-0.023852,-0.0073525,0.16174,0.065383,0.10166,0.055152,0.3158
-1.1198,-0.1787,0.060415,0.084003,-0.042835,-0.088147,-0.22647,-0.60432
0.43163,-0.049822,-0.075597,-0.18219,-0.025861,0.16144,0.17068,0.1943
-1.1069,-0.37629,-0.11118,-0.065328,-0.047792,-0.11113,-0.12897,-0.22586
0.77526,0.40911,0.047188,-0.017223,0.047605,0.061983,0.14004,0.14331
0.074368,-0.031982,0.0168,0.096102,0.025922,-0.031228,0.055887,0.27097
-0.36894,0.50845,-0.0066531,0.041082,0.035494,0.069064,-0.18594,-0.22547
0.66843,-0.33346,0.16489,-0.0023305,0.029266,-0.083422,0.16464,0.27884
-0.74019,-0.2911,-0.17112,0.278,-0.063315,-0.059661,-0.0017889,-0.40429
0.50772,0.071337,-0.19392,-0.54075,-0.062814,0.23388,-0.013519,0.20833
0.44193,0.42935,0.29199,0.21973,0.038388,-0.24158,0.012116,0.091879
-0.86318,-0.43404,-0.010439,-0.098402,0.013644,0.14755,0.012644,-0.020597
0.88386,0.45081,0.1171,0.22205,0.011434,-0.19914,-0.17565,-0.036186
-1.0574,-0.16493,-0.1776,-0.015483,0.0084932,0.071236,0.049511,-0.119
0.55695,-0.10674,-0.035786,-0.038346,-0.02616,-0.0010208,-0.029556,-0.057175
-0.65278,-0.041521,0.08122,0.036158,0.0093651,0.24129,0.14305,0.018302
0.81017,-0.31304,-0.092222,-0.28356,0.013847,-0.1232,-0.04873,0.11773
-0.26637,0.018869,-0.086965,0.16002,-0.028025,-0.024188,-0.041562,-0.02966
0.7043,0.12294,0.20708,-0.061124,0.0090015,0.045744,0.17271,0.0082069
-0.46267,0.14544,-0.099894,0.17201,0.023521,-0.20312,-0.14832,0.029801
-0.90373,0.47466,-0.069683,-0.18593,-0.046918,0.056624,-0.013135,-0.08155
0.60501,-0.15065,0.27463,0.19412,0.055429,0.11339,0.10847,0.3688
-0.44673,-0.52464,-0.17642,0.054535,-0.0055446,-0.0098798,-0.081564,-0.35526
0.85189,0.46306,0.076631,-0.0037347,-0.026963,-0.071302,-0.14689,-0.13903
-0.54299,-0.31307,-0.14676,-0.35688,-0.024745,0.046178,0.15372,0.092758
0.69769,-0.096835,0.097779,0.17327,0.016433,0.0379,0.12425,0.21236
-0.13026,-0.0077195,-0.0030572,0.17117,0.025988,0.05246,-0.2748,-0.12622
-0.10747,0.34232,-0.035661,-0.0049878,0.019339,-0.13643,0.22205,0.15375
-0.1822,-0.033735,0.02342,-0.23863,-0.019242,-0.044073,-0.088286,-0.018348
-0.48958,-0.028994,0.010627,0.11868,-0.0037973,0.048636,0.05223,-0.31354
0.46934,-0.18473,-0.096573,-0.049607,0.0033355,-0.014292,-0.074834,0.10599
-0.58619,-0.16683,0.02324,-0.0080359,-0.04443,0.087563,-0.078471,-0.24154
0.90007,0.25777,0.066453,0.01811,-0.021723,0.072852,0.26047,0.55288
-0.74975,0.017991,-0.098955,0.1394,0.064017,-0.058704,-0.15916,-0.32869
0.63722,0.41065,0.12109,-0.13548,-0.00567,-0.14342,-0.0088628,0.19336
-0.58031,-0.501,0.19515,0.10011,-0.0040963,0.16212,-0.014845,-0.083853
0.87622,0.27692,-0.17432,0.1039,0.045224,-0.04069,0.041974,0.088705
-0.47433,-0.44826,-0.066373,-0.2574,-0.014226,-0.079889,-0.0021638,-0.10343
0.049989,0.0066689,-0.13041,0.04674,-0.034401,-0.0098195,-0.029803,-0.029933
0.04542,0.11437,-0.007878,-0.054749,-0.015727,-0.0018433,0.029602,0.080192
0.1021,0.073961,0.29288,0.20306,0.033625,0.077377,0.043436,0.092274
-0.49943,0.22436,-0.21278,-0.14914,-0.035,0.048512,-0.027205,-0.30706
0.32179,0.10627,0.13136,0.099184,0.012725,-0.064959,0.052177,0.12468
-0.31868,-0.28037,-0.08864,-0.0053923,-0.0027796,-0.044632,-0.21835,-0.064269
-0.36539,-0.11701,0.033665,-0.22873,-0.010992,0.13223,0.067409,0.018806
0.39397,-0.055303,0.1001,0.21802,0.050826,-0.043116,0.018628,0.079362
0.14689,0.15049,-0.092153,0.006473,-0.028071,-0.1107,0.12705,0.080354
0.5464,0.19881,-0.19111,-0.17612,-0.013204,0.17088,0.063857,0.007424
-0.54017,-0.039892,0.2412,0.31068,0.032926,-0.14409,-0.10931,-0.17041
0.86712,0.071244,0.025662,0.084064,0.024299,-0.08679,0.005109,0.28051
-1.0134,-0.52495,-0.087193,-0.4103,-0.062633,0.20273,0.046991,-0.1882
0.011196,0.31907,-0.096925,0.031533,0.0064216,-0.055779,-0.24189,-0.047209
0.37593,0.041606,-0.081444,0.074925,0.012711,-0.056412,0.052498,0.0062954
0.0024385,-0.45669,0.27165,0.0027459,-0.0046001,-0.024484,0.11016,0.041147
-0.59017,0.45239,-0.038116,0.058848,0.0015528,0.095727,0.087857,-0.045026
0.70775,0.17877,0.0040912,-0.052308,-0.0076611,0.0079874,-0.16229,0.013361
-0.88799,-0.1177,0.10042,-0.017566,-0.024227,0.017116,0.18828,0.068537
0.7249,0.05059,-0.24223,0.069062,0.030082,-0.14291,-0.086753,-0.097065
-0.44293,-0.024636,-0.040139,-0.0045944,-0.0010396,0.097333,-0.041971,0.0023664
0.83025,-0.11474,0.1128,0.032865,0.038438,-0.044587,0.080503,0.18854
-1.0403,-0.45265,-0.0017626,0.37428,0.030983,0.10187,-0.08634,-0.24056
0.63856,0.49357,0.023311,-0.54524,-0.062846,-0.089513,-0.065507,0.051641
-0.47572,-0.18266,0.079871,-0.11035,-0.008971,0.14598,0.12812,0.057467
0.81671,0.11083,-0.19015,0.12337,-0.010616,-0.1608,0.050271,0.1594
0.28996,0.011631,0.058127,0.078022,0.018314,-0.040893,-0.086901,-0.049427
-0.97179,0.077814,-0.06521,0.1767,-0.015516,0.029956,-0.13377,-0.14779
0.49782,0.24931,0.19777,-0.0865,-0.025578,-0.025117,0.0042911,-0.026804
-0.57574,-0.23728,-0.044118,-0.14685,0.012194,0.1235,0.1948,0.024323
-0.17528,-0.074259,0.012695,-0.033506,0.035802,-0.030587,-0.023653,-0.080191
0.01674,0.086953,-0.03956,0.1926,0.029854,-0.040976,-0.043032,0.027157
0.75873,-0.18374,-0.014975,-0.10054,-0.044841,-0.016474,0.06422,0.096581
-0.19594,-0.10259,-0.071142,0.055785,0.037789,0.081962,-0.0092243,0.065434
0.34528,0.12466,0.080177,0.23104,-0.0199,0.035024,-0.078594,-0.082582
-0.53379,-0.16681,-0.02992,-0.38086,0.015573,0.037081,0.1194,0.065414
-0.3747,0.25729,-0.010277,0.25758,0.018381,-0.17861,-0.088587,0.070441
0.49859,-0.01009,0.015172,-0.2457,-0.090184,-0.097512,-0.085708,-0.092351
-0.23953,-0.12795,-0.10065,-0.071362,0.0021658,0.076338,0.011783,0.029247
0.73183,0.51534,0.12795,0.21769,0.030009,0.15477,0.041853,0.052358
-0.99476,-0.58109,0.022323,0.027878,0.017353,-0.034553,-0.078675,-0.46738
0.61728,0.52438,-0.042068,-0.04644,-0.0037415,-0.10126,0.15317,0.22973
0.41653,-0.42393,0.059645,-0.098143,-0.0089499,0.14983,-0.11937,0.067954
-0.50578,0.051795,-0.095101,0.22528,-0.0052957,0.04688,0.1524,0.0028487
-0.12744,0.13284,0.10203,-0.16125,0.039024,-0.23806,-0.054222,0.21595
-0.1041,-0.084029,-0.029746,0.039851,0.01487,0.068852,0.033791,-0.034079
-0.26932,-0.17962,-0.069419,-0.17096,-0.054415,-0.024012,-0.014574,-0.10689
0.41168,0.11138,0.099828,0.18309,0.018294,-0.023759,0.009736,0.10558
-0.4091,-0.2952,-0.14675,0.14882,0.013697,0.17191,-0.051503,-0.23456
0.051852,0.33051,-0.019257,-0.21941,-0.029749,-0.0301,-0.16867,-0.020087
0.84142,0.25809,0.077322,-0.093996,0.012414,-0.074582,0.18848,0.21586
-0.23833,-0.25862,0.019345,0.016523,-0.0086324,0.0388,0.019762,-0.16079
0.80005,0.21312,0.026682,0.166,0.016318,-0.017896,-0.11967,0.20103
-1.0957,-0.21535,-0.064159,0.15824,0.0013783,-0.033663,0.044599,-0.23741
0.23411,0.12084,0.11384,-0.10912,-0.021967,0.046185,0.013664,0.095135
-0.29008,-0.21596,-0.12772,-0.2148,-0.0064982,-0.036226,-0.086553,-0.11251
-0.13469,-0.039151,0.14713,-0.0028147,0.0012694,-0.062291,0.19752,0.12538
-0.66092,0.063992,0.0069388,0.15199,0.017242,0.092721,0.068863,0.012984
0.59272,0.15436,-0.11246,-0.08583,0.010299,0.029924,-0.16077,0.1993
0.056573,0.16774,0.069016,0.089181,0.027254,-0.087258,-0.047187,-0.30009
0.42433,-0.31944,-0.20682,-0.033078,-0.033683,0.076305,-0.021338,0.053301
0.50259,-0.090025,0.044895,-0.13154,0.0068428,-0.011512,0.040725,0.071086
0.069424,0.17495,0.091065,0.22403,0.023489,0.17974,0.19309,0.056987
-0.45336,0.22443,0.11313,0.19016,-0.038679,-0.38175,-0.22044,-0.1382
-0.49856,-0.28597,-0.16833,-0.52214,-0.046933,0.14758,-0.042911,0.00078501
-0.054387,0.049764,0.021659,0.2511,0.053527,0.01019,0.09421,-0.03377
-0.22465,-0.080677,0.11368,-0.044961,-0.010458,0.03489,-0.0026693,-0.0069304
0.75756,-0.0048415,-0.024972,-0.027656,-0.027585,0.043005,-0.073911,0.19154
0.13252,0.20002,-0.059072,0.131,0.07282,-0.01899,0.17114,-0.062389
-0.44839,-0.082222,0.041313,0.032393,-0.013671,-0.11092,-0.086757,-0.033495
-0.18114,-0.0066295,0.016742,-0.25338,-0.021335,0.033714,-0.011371,-0.06497
-0.15721,-0.071968,-0.032786,0.015525,-0.0049458,0.0091282,-0.064185,-0.062915
0.51741,0.40272,0.22753,0.16677,0.011818,0.04966,0.089372,0.23798
-0.45158,-0.57349,-0.4684,0.035746,0.0051808,0.11569,-0.0058298,-0.13177
0.29513,0.13342,0.059448,0.30157,-0.0095908,-0.20782,0.0072332,-0.048221
0.77703,-0.084897,0.1558,-0.57522,-0.024985,0.085717,0.048123,0.24524
-0.64696,0.13158,0.0095496,0.10056,0.021314,0.073258,-0.0022101,-0.25247
0.17496,0.29077,0.09868,0.079209,0.012089,0.011726,-0.074488,0.1063
-0.74108,-0.10004,0.025862,-0.068296,-0.021285,-0.17737,-0.0046048,-0.15531
0.51812,-0.3154,-0.20054,0.14336,0.0073887,0.02184,-0.064822,0.01769
-0.048078,0.24471,0.067794,0.019834,-0.0031104,-0.077339,0.012622,0.21985
-0.048026,0.039595,0.095796,-0.149,0.0179,0.15126,-0.058622,-0.11792
0.084458,-0.20566,-0.14111,0.066973,-0.022995,-0.041152,0.052327,-0.08016
0.12972,0.086029,0.074526,0.042734,0.0072579,0.096404,0.16804,0.12358
0.12917,-0.18737,-0.024139,-0.019047,0.015024,-0.044973,-0.046116,-0.11495
-0.3183,0.24767,0.1011,0.07618,-0.03098,0.073672,0.050648,0.24403
-0.51041,0.047951,-0.065701,-0.10994,0.048761,-0.17329,-0.11295,-0.3071
-0.22883,-0.051301,-0.03984,0.070296,-0.019472,0.18977,0.14881,0.059379
0.9,-0.19756,-0.015712,-0.06317,-0.017271,-0.13504,-0.23657,0.061292
0.26278,0.18043,-0.093538,-0.0259,0.0081426,-0.01568,0.14288,0.02538
0.46166,0.16938,0.032837,-0.090832,-0.021655,0.00057333,-0.15193,0.16094
-1.0375,-0.15985,-0.0025208,0.094378,0.018127,-0.015889,0.04998,-0.21337
-0.11525,-0.33044,0.20737,0.061808,0.018016,0.068233,0.068805,0.026083
0.63527,0.22,0.11569,-0.016048,-0.021962,-0.035382,-0.048086,-0.043417
-0.54309,0.05345,-0.14536,0.025092,0.023333,0.017802,0.020484,0.046774
0.10163,0.20018,-0.076789,0.020918,-0.017734,-0.04503,0.025463,0.070776
0.25341,-0.044309,-0.093795,0.017662,-0.012038,0.15144,0.069208,-0.087217
-0.64315,-0.12694,0.037105,-0.071462,0.017338,-0.11942,-0.15247,-0.15191
0.9296,-0.17439,-0.012676,-0.044134,-0.015194,0.1264,0.22779,0.20686
-0.53182,-0.008392,0.0068669,0.0053587,0.023479,-0.18984,-0.18852,-0.024726
-0.084172,0.21379,-0.0054816,0.12377,-0.014876,0.04058,0.02032,0.021837
0.53661,0.24177,0.10699,-0.25111,-0.020808,0.0202,0.072956,0.14397
-0.86692,-0.26013,-0.02255,0.10791,0.029041,0.029886,-0.14775,-0.29924
0.51423,-0.10342,0.16847,0.037503,0.017253,-0.024254,0.0068835,0.11297
0.35417,-0.020958,-0.24208,0.2258,0.0059697,0.061005,0.044993,-0.043014
-0.53461,-0.15144,-0.0046875,-0.24093,-0.052132,-0.04216,0.060642,0.074427
0.11916,0.29618,0.067546,-0.050303,0.0065326,-0.075507,0.0070943,0.025559
0.32743,0.01112,-0.096239,0.078423,0.0096366,0.15674,0.071721,0.027126
-0.21105,0.15083,0.15204,-0.06655,0.011493,-0.20438,-0.15214,-0.055153
0.24976,-0.23725,-0.031434,0.30283,0.011846,0.060108,0.045841,-0.042262
-0.29282,0.0031587,-0.037061,-0.29095,-0.028474,0.12992,0.0087326,-0.019862
-0.0036445,0.043595,-0.098701,0.07336,0.031218,-0.018599,0.025033,0.067964
-0.77214,0.032138,0.065614,-0.010583,-0.01978,-0.065546,-0.046193,-0.058018
0.50589,-0.054777,0.15983,-0.026623,-0.0091914,0.07455,-0.02521,-0.043754
0.29448,-0.068439,-0.12775,-0.0048555,0.024456,-0.020566,0.2134,0.074242
-0.044582,0.023106,-0.015216,0.0016345,-0.019781,-0.10104,-0.34527,-0.0065544
0.35658,0.056793,-0.04899,-0.0679,-0.016279,-0.0026563,0.049644,0.012125
0.066821,-0.052295,0.013272,0.038084,0.004257,-0.053077,0.12551,-0.049031
-0.33915,0.15749,0.12454,0.1487,0.0031368,0.18584,0.031296,0.2546
-0.24878,-0.15754,0.0031226,-0.048382,0.035181,-0.066505,0.079621,-0.21139
0.27071,-0.21695,-0.10164,-0.046047,-0.0013182,0.010698,-0.089229,0.035176
-0.12037,0.23527,0.0673,0.060467,-0.0052043,-0.019863,0.016239,-0.062706
-0.29116,0.14961,-0.053303,0.0035572,-0.016148,-0.017726,-0.073579,-0.014896
0.21942,0.27295,-0.12812,-0.015746,0.0042084,0.07913,0.06242,0.091269
-0.023986,-0.20242,0.18622,-0.11644,0.0083035,-0.04247,-0.068433,-0.12759
0.1853,-0.20066,0.0067431,-0.018486,-0.027851,-0.00041985,0.018163,0.094469
-0.093773,-0.25402,-0.049283,0.05114,0.012603,-0.037466,-0.044645,-0.046216
0.44775,-0.0025847,-0.012832,0.014694,-0.0032138,0.010188,0.0093953,-0.0012505
-0.57709,0.10245,0.022776,0.10761,0.0030215,0.041076,0.10289,0.035738
-0.040496,0.11853,0.0033792,-0.12173,0.0161,-0.084985,0.0020949,0.097561
0.21557,0.10321,-0.10171,0.047131,-0.010293,0.038929,-0.0035825,-0.11146
0.37165,0.043047,0.13774,0.068968,-0.0052434,-0.023954,-0.031355,0.073444
-0.72841,0.056296,-0.074737,-0.14077,-0.0072624,0.0081888,-0.081638,-0.12101
0.39927,0.088046,0.01113,0.067304,-0.00032396,0.080905,0.0088987,0.039229
0.14443,-0.3239,-0.042098,-0.0016777,0.023569,-0.040387,0.090885,0.037795
-0.65041,0.0061806,0.1717,-0.074433,-0.029405,0.010854,0.0071037,-0.0013167
0.58357,-0.032858,-0.074321,0.051437,0.020126,0.030547,0.07705,0.030124
-0.33514,0.073372,-0.077378,0.070018,0.03884,0.041088,-0.18414,-0.11903
0.45069,0.090055,0.13874,-0.0046403,-0.012935,-0.18495,0.051653,0.097064
-0.31138,-0.14648,-0.31687,-0.025802,-0.034227,0.13324,0.081832,-0.025522
0.46989,0.18516,0.17273,0.13778,0.0057578,-0.09014,-0.14725,0.043952
-0.85624,-0.18704,-0.048964,-0.31974,-0.033839,0.075323,-0.0013768,-0.085306
0.44282,-0.24601,0.22085,0.093271,-0.0045577,-0.11137,0.036553,0.016591
0.25677,0.4,-0.0026414,0.017558,0.031364,0.038698,0.014712,0.045508
-0.71114,0.43131,-0.087133,0.21172,0.043105,0.097125,0.19955,0.07263
