0.15432,-0.097653,-0.35547,-0.11862,-0.050084,-0.011318,-0.0006816,0.050394
-0.30944,0.095215,0.1234,-0.010416,0.022563,0.0044267,0.0074398,-0.01888
0.083636,0.16945,0.25336,0.26736,0.055806,0.019876,0.022996,0.051658
-0.46118,-0.5708,-0.58611,-0.39548,-0.099232,-0.066644,-0.071262,-0.25391
0.20687,0.18632,0.30571,0.032046,0.018014,0.010433,0.013684,0.10325
0.30065,0.54184,0.62273,0.23768,0.055737,0.04798,0.051243,0.16208
0.10246,-0.45767,-0.15082,-0.027854,-0.025211,-0.016455,-0.028904,-0.1165
0.0027739,0.24262,-0.15424,0.080247,0.048715,0.028157,0.031083,0.072335
-0.1326,-0.020516,-0.44703,0.047653,0.0043922,0.010071,0.0047122,-0.036787
0.12377,-0.24541,0.11614,-0.36642,-0.11079,-0.070544,-0.053191,-0.013781
-0.44169,0.25015,0.2366,0.097228,0.031963,0.028719,0.013838,-0.029994
0.15305,-0.56976,-0.54008,-0.060209,-0.019709,-0.020007,-0.020477,-0.061363
0.24239,0.30599,0.22163,0.18549,0.063044,0.033555,0.039504,0.080266
-0.27563,0.11458,0.072482,-0.056118,-0.031711,-0.021276,-0.032464,0.028312
0.38892,0.27169,0.27895,0.28474,0.071317,0.042249,0.052933,0.08012
-0.35571,-0.15244,0.38522,-0.17597,-0.065423,-0.049234,-0.032299,-0.08434
0.063576,-0.18328,-0.16934,-0.14307,0.026421,0.0088871,0.0008815,-0.019687
0.017083,-0.059048,-0.26796,0.0065135,-0.021027,0.0054439,-0.011769,-0.054183
0.077963,0.30102,0.22106,0.0991,0.033554,0.033808,0.030995,0.030585
-0.45492,0.039556,-0.53052,-0.23398,-0.037318,-0.015881,0.0037613,-0.0081065
0.63786,-0.41927,-0.52043,0.053131,-0.046985,-0.050411,-0.054856,0.032138
-0.12119,0.26385,0.70992,0.23331,0.058582,0.046887,0.034403,0.033225
-0.1798,0.016001,-0.018193,0.017385,0.0055352,0.0099567,0.0055616,0.0019441
0.15376,0.10244,0.36148,0.08534,0.020316,-0.020855,-0.016617,0.0075869
0.39115,-0.48267,0.16719,-0.26524,0.0093401,0.016862,0.030269,0.010233
-0.55718,0.10841,-0.82864,-0.072302,-0.1129,-0.064273,-0.056863,-0.068764
-0.16239,0.38109,0.31068,0.079767,0.060472,0.056359,0.050289,0.0049293
0.043576,-0.33836,0.20884,0.020936,0.02243,-0.019231,-0.022991,-0.049443
-0.10999,0.27594,-0.2382,0.057873,0.00035607,0.006361,0.0049115,0.019111
0.74686,0.21274,0.27801,0.17682,0.065344,0.063356,0.06409,0.040052
-0.4133,-0.48631,-0.12365,-0.22228,-0.11008,-0.082151,-0.087229,0.038283
-0.086402,-0.13321,-0.75627,-0.1776,0.0057836,0.015511,0.020086,0.0073485
-0.042233,0.16109,0.57246,0.076642,-0.024368,-0.034068,-0.035534,-0.059533
0.096751,0.31518,0.34165,0.14129,0.049366,0.034795,0.027345,-0.013357
-0.11375,0.21529,0.14585,0.046077,0.023464,0.034516,0.013431,-0.0025261
0.39587,-0.14323,0.039669,0.32014,0.069141,0.050843,0.063186,0.1678
-0.28296,-0.24873,-0.36725,-0.36701,-0.064435,-0.064893,-0.058099,-0.12824
-0.083494,-0.43183,-0.36205,-0.21288,-0.065638,-0.055093,-0.022754,-0.12616
0.33382,0.29914,0.33341,0.21846,0.064759,0.048857,0.06716,0.15726
-0.40229,-0.13244,-0.38208,-0.27683,-0.11129,-0.1359,-0.12474,-0.02122
0.22056,0.42494,0.4874,0.27802,0.1169,0.11722,0.096539,0.040772
0.067739,0.10798,0.28427,0.1809,0.038456,0.12858,0.043361,-0.016496
-0.18895,-0.54039,-1.0537,-0.32453,-0.13535,-0.078373,-0.11234,-0.11482
0.0068797,0.34225,0.2083,0.028949,0.017851,-0.058363,0.01247,0.027518
-0.26352,-0.062741,0.64747,0.20369,0.084595,0.0010082,0.019695,-0.0028018
0.3788,0.29159,0.44024,-0.072744,0.010751,0.044913,0.058136,0.10754
-0.046557,-0.23694,-0.34936,-0.010841,-0.031349,-0.051816,-0.04377,-0.10168
-0.0051164,-0.43249,-0.12902,0.069015,0.013293,0.015309,0.011045,0.12773
0.05971,0.10727,-1.0667,-0.32588,-0.066112,-0.019595,-0.011755,-0.1261
0.11695,0.49511,0.76946,0.21773,-0.027376,-0.063125,-0.026348,0.027002
-0.39719,-0.26562,0.59214,0.081695,0.098118,0.10303,0.076408,0.094078
0.51486,0.24307,-0.42496,-0.047408,-0.01018,0.072104,-0.047529,-0.050822
-0.34523,-0.16905,0.40072,0.048405,-0.001014,0.06241,-4.8835e-06,-0.064859
0.011826,0.17673,-0.56704,-0.092267,-0.023153,-0.09036,-0.0077903,0.004425
-0.095849,-0.26532,-0.35318,-0.055425,-0.014391,-0.09699,-0.00065359,0.055225
0.20567,0.13321,0.23789,0.15149,0.079755,0.004114,0.037096,0.040936
-0.18503,-0.80203,0.020378,-0.1739,-0.10797,-0.090578,-0.066215,-0.11578
0.13179,0.61511,0.44213,0.15692,0.047517,0.089167,0.049078,0.023782
-0.13093,-0.0072787,0.37306,-0.14406,-0.055146,-0.041088,-0.062025,-0.054569
0.15408,0.31278,-0.48902,0.07248,0.084313,0.097938,0.08511,0.11153
0.012264,0.39892,-0.22014,0.080468,-0.0025945,0.069238,-0.0015605,0.054476
-0.14888,-0.78718,-0.32639,-0.25294,-0.11257,-0.010337,-0.072052,-0.10788
0.15524,0.24489,0.81092,0.50916,0.16846,0.037765,0.10784,0.054165
-0.16222,-0.39933,-0.75218,-0.53273,-0.15181,-0.17878,-0.14969,-0.13192
0.1312,0.36106,0.1652,0.23726,0.090399,0.049055,0.092505,0.098201
0.079803,0.16915,0.66564,0.14599,0.058807,0.00081142,0.037188,0.078744
0.016812,0.059212,-0.086005,-0.1278,-0.051566,0.042508,-0.026838,0.018721
0.025852,-0.23788,-0.52664,-0.13133,-0.03775,-0.013765,-0.01374,-0.075869
-0.30072,-0.31767,-0.18706,0.018517,-0.024679,-0.066041,-0.032802,-0.026728
-0.22867,0.14797,0.33154,0.018024,-0.051128,-0.027279,-0.044679,-0.0064398
0.41503,-0.19102,0.068499,-0.11586,0.047414,0.088454,0.068242,-0.038342
0.085746,0.51944,0.1645,0.11038,0.052672,0.017205,0.025187,-0.043419
0.012891,-0.11624,-0.20885,0.05712,-0.042813,-0.059891,-0.056228,0.11265
-0.52717,0.303,-0.028888,0.25595,0.11264,0.053409,0.097733,-0.037042
0.44458,-0.26763,-0.054828,-0.090336,-0.043613,-0.041076,-0.051866,0.071868
0.13286,-0.037572,-0.22626,-0.24823,-0.035402,0.062468,-0.020695,-0.019951
-0.14932,-0.11523,0.40715,0.031191,-0.011643,0.058364,0.0035821,0.032405
0.15216,-0.24222,-0.20484,-0.088927,-0.011824,-0.039039,0.0051177,-0.043869
-0.58128,0.16753,0.32478,0.16441,0.0028817,-0.059117,-0.024118,-0.053338
0.56251,0.027666,0.35205,0.14298,0.055954,-0.03405,0.064144,0.050571
-0.19193,0.32911,-0.68015,-0.28523,-0.11791,-0.089253,-0.073958,-0.099957
0.052103,-0.44603,0.23514,0.16232,0.075536,0.080097,0.022442,0.10359
-0.042527,0.4178,-0.57284,-0.25515,-0.035005,-0.0019853,-0.021727,-0.066372
-0.054398,0.080807,-0.069838,0.096319,0.01185,0.063735,0.019976,0.068727
0.0090064,-0.32801,0.66264,0.13135,0.036605,0.028032,0.045787,0.046814
0.1331,0.21959,-0.018923,0.11526,0.039114,0.016462,-0.0070821,-0.0081616
-0.055562,-0.19967,0.061739,0.031245,0.0032774,-0.017595,0.0016577,-0.057992
-0.2739,-0.34279,-0.28771,-0.099115,-0.055981,-0.042917,-0.053301,-0.095403
0.49554,0.64497,-0.10528,-0.082624,0.009025,0.010611,0.046604,0.098214
-0.33169,-0.3952,0.22525,-0.014894,-0.02888,-0.068182,-0.026732,-0.062801
0.089178,-0.066041,0.58412,0.016991,0.040927,0.025238,0.01602,0.12534
0.28187,0.10814,-0.79767,-0.096483,-0.086174,-0.013839,-0.066817,-0.00047637
-0.61345,0.10999,0.59999,0.05184,0.035568,0.056864,0.037938,-0.1032
0.14412,-0.14226,-0.4752,0.026213,0.024046,-0.012507,0.010709,-0.025436
0.21664,0.30601,-0.53962,0.047592,0.0050736,0.028163,0.0083999,0.054147
0.19524,0.27365,0.228,-0.014642,0.026266,-0.00078475,0.031455,0.058203
-0.24333,-0.78256,0.40805,-0.01031,-0.036857,-0.036939,-0.021534,-0.067538
0.054299,0.20148,0.11281,0.022495,0.011224,-0.01018,-0.025732,-0.010577
-9.668e-05,0.21073,0.18878,0.099462,0.076642,0.055794,0.065293,0.0099159
0.11567,0.15212,-0.11987,-0.045822,-0.059735,-0.042419,-0.04597,0.071284
-0.25448,-0.20695,-0.21055,-0.1023,-0.03908,-0.023823,-0.047739,0.024079
-0.12445,-0.43306,-0.012883,-0.040488,-0.026051,0.0020031,0.020227,-0.10152
0.18075,0.44869,-0.019695,0.036226,0.025681,0.0271,0.024535,-0.0017588
0.18857,0.28286,-0.21647,0.063775,0.021932,0.0044981,0.019463,0.049259
-0.22955,-0.62294,-0.15931,-0.03712,-0.006355,0.020086,-0.026444,-0.042495
-0.093382,0.18879,0.41572,0.0063464,0.018769,-0.0042602,0.019628,-0.050358
0.15417,-0.17551,0.3192,-0.0090466,0.0034945,-0.021596,-0.029613,0.049516
0.029353,0.32769,0.17415,0.12023,0.049444,0.022923,0.037152,0.054582
0.13242,-0.063977,-0.48217,-0.097178,-0.069762,-0.026692,-0.021749,-0.034566
0.21815,0.29951,-0.08847,-0.058594,-0.010065,-0.037276,-0.0025991,0.0012997
-0.3817,-0.089733,-0.23874,-0.05182,-0.04449,0.0071939,-0.021994,0.029649
-0.10913,-0.076783,0.12254,0.010294,0.0071191,0.028962,-0.016933,-0.019757
0.031875,0.07092,0.28611,0.26935,0.098327,0.043913,0.067602,0.032691
0.054236,-0.50755,-0.23038,-0.17249,-0.059607,-0.057251,-0.057357,-0.08659
0.21475,0.046498,0.19976,0.0052151,0.056892,0.045648,0.092403,0.075414
-0.36863,0.16308,-0.055619,-0.080657,-0.044434,-0.014901,-0.04601,-0.098495
0.15802,0.038674,-0.27848,0.12393,0.0346,0.018471,0.003429,0.063682
0.079393,-0.059637,0.48212,-0.084982,-0.042298,-0.034387,-0.01766,0.023115
0.0087829,0.25992,-0.13648,0.057398,0.0057592,-0.0097809,-0.023823,-0.048037
-0.15943,0.14615,0.51052,0.050427,-0.016823,0.0061527,0.00026724,-0.016709
0.14807,-0.27653,-0.81425,-0.17653,-0.0086254,-0.025629,-0.015776,0.070388
0.1128,0.13116,0.42687,0.21255,0.077244,0.066973,0.084446,0.080473
-0.14759,-0.17156,-0.58556,-0.19591,-0.079379,-0.059419,-0.058129,-0.072488
-0.087135,-0.029951,0.14391,0.028541,0.0061077,0.025314,0.017842,-0.10744
0.02644,0.016028,0.026768,0.027386,0.029252,0.0012534,-0.0075466,0.014448
0.096478,0.09133,0.10826,-0.058011,-0.0097698,-0.021957,-0.024581,0.02728
0.13532,-0.076761,0.50361,0.1868,0.037556,0.057337,0.04508,0.055793
-0.11023,-0.25272,-0.7594,-0.10544,-0.024125,-0.018775,-0.0094323,0.037214
-0.22092,-0.037073,0.23524,0.033435,-0.0074444,-0.01618,-0.01631,-0.083419
0.059374,0.59405,0.63524,0.12594,0.02492,0.010079,0.032089,0.037385
0.10508,-0.094286,-0.20308,-0.22743,-0.060007,-0.034121,-0.036322,-0.030259
0.11215,0.10727,0.13763,0.19117,0.050171,0.038408,0.036072,0.041683
-0.058368,-0.061364,-0.50382,-0.21254,-0.019565,-0.0069069,-0.0086709,-0.035797
-0.13054,-0.33694,-0.67859,-0.063633,-0.050413,-0.037315,-0.061214,0.010949
0.07043,-0.315,0.26652,0.091403,0.043651,-0.013698,-0.0043327,-0.028674
-0.085318,0.41006,0.39227,0.026639,0.028324,0.07189,0.060479,0.03324
-0.048404,0.065592,0.096278,0.094288,-0.0026308,-0.022584,-0.0073704,-0.045117
0.21409,0.083425,0.30002,0.091675,0.036659,-0.00012125,0.010805,0.025564
0.030837,-0.11135,-0.2547,-0.12168,-0.064869,-0.0012757,-0.010186,0.01875
-0.17697,-0.038345,0.57244,0.071267,0.028576,0.020839,0.038726,0.0045196
0.19045,-0.13123,-0.55436,-0.20477,-0.065939,-0.035361,-0.045951,0.029278
-0.11162,0.16802,-0.21199,0.065552,0.034351,-0.021461,-0.022369,-0.048214
0.12492,-0.060157,0.078835,0.014963,0.016981,0.031308,0.023312,0.044874
-0.2666,-0.17419,-0.38071,0.010789,-0.00074476,0.013653,-0.0026885,-0.012193
0.047804,0.84881,-0.022859,0.069021,0.043851,0.011672,0.03264,-0.008563
0.21554,-0.57907,0.33725,-0.059843,-0.036518,-0.013467,-0.010902,0.017049
-0.27126,-0.42184,-0.015383,-0.031544,-0.022874,-0.045867,-0.046783,-0.14553
-0.02895,0.26201,0.42833,0.0058723,-0.024374,-0.0071308,-0.035266,0.020361
0.11571,0.070047,0.18225,0.068213,0.029484,0.032637,0.039906,0.039272
0.25807,0.38124,0.054435,0.053838,0.060706,0.050081,0.085449,0.13865
-0.069084,-0.4405,-0.48467,-0.10007,-0.055655,-0.040828,-0.039066,-0.040448
-0.20822,-0.077313,-0.30067,-0.081523,-0.0071432,-0.021624,-0.021253,-0.060679
0.11507,0.29751,0.10159,0.12454,0.0029768,0.036929,-0.017775,0.053779
-0.012574,-0.12096,-0.045886,0.025396,0.0057271,0.017091,0.048865,0.043954
-0.10627,-0.019268,-0.18799,-0.05903,0.00081718,-0.042637,-0.032998,-0.13053
-0.095355,-0.0047041,0.4594,-0.042967,0.011365,-0.002098,0.0015727,0.060405
0.25471,0.15229,-0.19309,0.089299,0.037068,0.036866,0.019238,0.037887
-0.063958,-0.28686,0.28894,-0.075975,-0.062941,-0.05859,-0.05059,-0.11231
-0.10644,0.11924,0.073521,-0.022685,-0.0075464,0.024264,0.01085,-0.022526
0.20464,0.21018,-0.12595,0.05438,0.023558,0.0046365,0.024151,0.073827
-0.077057,-0.30786,-0.19942,0.01504,0.0070591,0.015955,0.005415,0.045188
-0.093382,-0.050136,-0.030708,-0.015454,-0.017752,-0.011429,-0.021345,-0.075963
0.068543,0.24177,0.13578,0.041019,0.01972,-0.014413,0.014737,0.015987
0.017144,-0.0033723,0.17212,-0.042361,-0.020869,0.015248,-0.010907,0.063636
-0.052788,0.094923,-0.23715,-0.031673,-0.006485,-0.016003,0.0035181,-0.0035151
0.085326,0.01763,-0.19618,0.11161,0.047373,0.024554,0.026766,0.040367
-0.1617,-0.23921,0.32447,-0.089561,-0.023349,-0.011884,-0.019503,-0.024556
0.06649,-0.0076325,-0.13713,0.0051158,0.023442,0.030353,0.020592,-0.074475
-0.088256,-0.1112,0.067312,-0.01069,-0.03898,-0.013483,-0.0096361,-0.016659
0.15647,0.2526,-0.085195,-0.027427,0.00013683,-0.011247,-0.02465,-0.0080074
0.043696,0.15325,0.1718,0.049036,0.015631,0.013112,0.014336,0.084114
-0.11373,-0.36181,-0.17637,-0.077694,-0.039474,-0.050031,-0.056838,-0.17753
0.066782,0.14671,0.035255,0.16315,0.03792,0.033766,0.058798,0.17641
0.022043,0.0097391,0.18242,-0.11092,0.013484,-0.024187,0.017752,0.0060432
-0.13172,0.004052,-0.03115,0.053341,-0.0032975,0.018906,-0.023369,0.015242
0.19049,-0.077833,-0.26124,-0.039464,-0.020082,-0.0081118,-0.0094953,-0.029751
-0.14481,0.048404,0.14885,0.0010563,0.0023783,0.004825,0.012839,-0.011287
0.041944,-0.15404,-0.26918,0.033983,0.025222,0.042617,0.020435,-0.03062
-0.076936,0.18317,0.53985,0.0043798,-0.029481,-0.035096,-0.04129,-0.017243
0.0073598,0.22407,-0.040795,-0.056627,-0.013134,-0.0095956,0.0073088,0.028954
0.093015,-0.11061,-0.36233,-0.00055609,0.004046,0.025052,0.017616,-0.017003
-0.099928,-0.010207,-0.049657,-0.038152,0.0064283,-0.0019898,0.0049734,0.016678
-0.0002646,-0.14095,-0.2905,0.088666,0.040759,0.0024019,-0.0075285,-0.026484
0.040596,-0.12205,0.75821,-0.033937,-0.0025913,-0.0092581,0.018819,0.095296
0.060922,0.037087,0.0015822,0.015995,-0.022418,-0.014019,-0.033483,-0.09511
0.019907,-0.235,-0.2337,-0.035132,-0.026946,-0.019986,-0.016222,0.073503
-0.053666,0.28747,0.027536,0.038839,0.014673,0.0040203,0.0079839,-0.040165
0.12653,0.34606,0.01092,0.073235,0.0083585,0.011249,0.015691,-0.0069706
-0.059134,-0.059832,-0.15076,-0.073259,0.0085939,0.025396,0.022613,0.032176
-0.018399,-0.0010363,-0.29235,-0.010631,0.0075209,0.023346,0.021104,-0.00077694
-0.11857,-0.34496,0.12738,-0.043948,-0.0338,-0.04146,-0.051114,-0.04286
-0.084709,0.072852,0.20506,0.02208,0.017724,0.0031168,0.0015305,-0.046385
0.14083,-0.058938,0.38908,0.062821,-0.017198,0.0010203,-0.00036894,0.028736
-0.047379,0.027226,-0.27097,-0.085071,0.018146,0.0070617,-0.0018555,0.027289
-0.074867,0.013396,-0.156,0.0012136,-0.0086045,-0.017755,-0.0027067,-0.018663
-0.016236,-0.12942,0.25825,0.064838,0.02012,0.02035,0.02846,0.055334
0.16968,0.0065377,-0.77074,-0.080868,-0.012618,-0.0036192,-0.025532,0.01475
0.25649,0.34344,0.55237,0.08025,-0.012978,-0.019357,0.0070634,-0.055185
-0.17168,0.21606,0.27975,0.040515,0.026775,0.012185,0.032244,0.039694
-0.032349,-0.14369,-0.11538,-0.012822,-0.010765,0.012857,-0.0050077,0.040203
-0.1033,-0.23895,-0.32428,-0.080306,-0.0087304,-0.0095726,-0.026912,-0.070614
0.07988,0.036501,0.2822,0.079562,0.024712,-0.00047984,-0.0025019,-0.028167
-0.13463,-0.33527,-0.16618,-0.080758,-0.01233,-0.022459,-0.0022515,-0.028316
0.079509,0.18379,0.19591,0.024168,-0.010732,0.041552,0.0050823,0.038337
-0.058803,0.062855,-0.030314,-0.051247,-0.025323,-0.027343,-0.011608,-0.0073383
-0.024152,0.09265,-0.18723,-0.025809,-0.0092534,0.0050697,-0.0051986,0.046547
0.077412,-0.060367,-0.31098,0.092768,0.053174,0.021453,0.01679,-0.0019806
-0.11737,0.15324,0.46182,0.20307,0.044902,0.0060647,0.03118,-0.01115
0.1139,-0.20181,0.14336,-0.32759,-0.080791,-0.048964,-0.024354,-0.019063
0.047289,0.12605,-0.44986,0.032061,-0.011259,-0.010801,-0.0091357,0.021816
-0.03494,0.1064,0.37241,0.20388,0.058307,0.058147,0.022085,-0.021017
0.077389,-0.10434,-0.44349,-0.093471,-0.012633,-0.013833,-0.0089675,0.039914
0.053823,0.017028,0.53888,-0.047528,-0.0209,-0.01561,-0.016545,-0.014423
0.086351,-0.27989,-0.097514,-0.0020214,-0.013352,0.0061431,0.0069894,0.034282
-0.23481,0.19202,-0.021116,-0.0036946,0.0099947,-0.018714,-0.0087948,-0.072262
-0.053196,-0.091007,-0.22129,-0.0054488,0.010028,0.019314,-0.0014332,-0.014172
-0.026722,0.058196,0.13329,0.055489,0.025731,0.018715,0.021316,-0.033964
-0.12422,0.053169,0.13311,-0.023753,-0.028925,-0.0048993,0.0048978,0.063443
0.2182,0.080596,-0.082379,0.014803,0.017842,-0.020346,-0.011436,0.074764
0.0030295,0.08467,-0.15259,-0.0084928,-0.0059027,0.0035299,-0.0040352,-0.0079569
-0.024654,-0.0062062,0.043156,0.031252,-0.014229,0.004137,-0.0039439,-0.075501
0.11437,-0.35728,-0.43543,-0.069316,-0.014897,-0.010784,-0.0031926,-0.018673
-0.10927,0.26502,0.32343,0.0098104,1.6078e-05,0.0056038,-0.0017083,-0.0017223
0.17234,-0.13167,0.18377,0.033927,0.022831,-0.0014004,0.00046667,0.045489
-0.11934,-0.0077786,-0.29701,-0.020702,0.014607,0.022893,0.026596,0.02127
-0.14976,0.028385,0.69355,0.041014,-0.008954,-0.030898,-0.0095554,0.027134
-0.0068988,0.10316,-0.050414,-0.02322,-0.0166,0.009074,0.00099707,-0.077479
0.32268,-0.071303,-0.04153,-0.010249,0.03066,0.0021174,0.010957,0.012328
-0.037942,-0.11925,-0.3713,-0.021469,-0.031369,0.010629,-0.026934,0.0078469
-0.2932,0.13115,-0.25546,0.0059029,0.015898,0.0032292,-0.0035697,-0.051384
0.025232,-0.031915,0.20168,0.0097223,-0.023016,-0.012406,0.0028205,0.053915
0.034974,0.17117,0.11742,-0.0018309,0.0080033,-0.012953,0.015763,0.011738
0.1044,0.035329,-0.19274,0.026254,0.015124,0.017152,-0.0035319,-0.0056722
-0.06957,-0.074002,-0.14548,-0.015159,0.0061447,0.0076101,-0.015584,-0.0059611
0.07721,-0.024918,-0.00027578,0.030324,0.0045675,-0.018042,0.0035401,0.010804
-0.20393,-0.020113,0.52198,-0.0012919,-0.02853,0.01069,0.007468,-0.01035
0.28311,-0.51855,-0.027973,-0.031858,0.00080963,-0.01532,-0.0033715,-0.015189
-0.00058541,0.49092,0.030732,-0.045737,0.0069009,-0.0020448,0.01038,0.02701
0.053974,-0.16732,-0.13955,0.011772,-0.0021816,0.027347,0.0097864,0.014182
-0.3273,0.018478,0.16792,0.1016,0.012854,-0.020681,-0.013014,-0.030614
0.15965,0.19961,-0.4667,-0.14352,-0.018153,0.0024335,-0.011347,-0.0059985
0.10822,0.064586,0.051895,0.049655,0.014216,0.010766,0.022297,-0.029109
-0.29408,0.0028369,0.1165,0.079184,0.016128,0.012031,0.0016345,0.080008
0.039062,-0.16861,0.051039,-0.063281,-0.036059,-0.033024,-0.050232,-0.1001
0.13152,0.14704,0.11107,0.074725,0.021427,0.023791,0.030484,0.063863
0.022602,-0.12589,-0.24263,-0.05434,0.016376,-0.0052839,0.017033,0.017643
0.0011228,0.038989,0.1558,0.0021063,-0.02028,-0.0032926,-0.020369,-0.0666
0.066202,-0.080544,0.036271,-0.006218,0.0049642,-0.0016557,0.027641,0.09246
-0.025806,0.068819,-0.026568,-0.040178,-0.025212,-0.031716,-0.049819,-0.044398
0.028027,-0.027626,0.026649,-0.013395,0.014193,0.039322,0.036409,-0.00096567
-0.023938,-0.17159,-0.44039,0.051441,0.0061114,0.00056832,0.0051934,-0.019909
0.035987,-0.11653,0.30217,-0.032262,-0.010183,0.0083583,-0.0027256,0.070141
-0.25325,0.2439,0.20143,0.033268,-0.0031942,-0.023139,-0.026306,-0.09062
0.023389,0.038875,-0.14096,0.02218,0.027304,0.0077508,0.020472,0.0053433
0.10223,0.31797,0.20311,-0.010437,0.0033522,-0.00042984,0.0048573,0.084509
0.017069,-0.19148,0.090307,0.013579,-0.020287,0.0071027,-0.018425,-0.087391
-0.12016,-0.11561,-0.24029,-0.023257,0.01106,-0.0086336,0.020956,0.02114
0.2004,0.066423,-0.0804,-0.019933,-0.027697,-0.008518,-0.017629,-0.0036524
0.034457,-0.015845,0.037217,0.030689,0.035184,0.015289,0.022047,0.010383
-0.016603,-0.045188,-0.2546,-0.020504,-0.019199,-0.015351,-0.024122,0.0087201
-0.04785,-0.14879,0.014342,-0.056888,-0.01911,0.0010599,-0.01558,-0.016454
0.0089039,-0.038428,0.17455,0.069588,0.027533,0.009719,0.024142,0.051887
0.11998,0.2552,-0.06054,0.014999,-0.0043293,0.010472,0.0089863,0.010361
-0.34962,-0.024044,0.24842,-0.0175,0.01811,0.018774,0.0091321,-0.016285
0.012641,-0.25675,0.21143,-0.0042549,-0.014469,-0.0124,-0.0067967,-0.082865
0.26865,0.16079,-0.27378,-0.0074058,-0.016019,-0.028453,-0.0076381,0.060726
-0.21406,-0.0043313,0.32232,0.028197,0.013625,-0.021582,-0.0090352,-0.030446
0.18277,0.23265,-0.54145,-0.037564,-0.011276,0.0082901,0.0047099,-0.004198
-0.023656,-0.050902,0.16444,-0.0088864,0.0032333,0.02224,-0.0053005,0.0074141
0.043365,0.096443,-0.30302,0.028694,0.0026415,0.012617,-0.015396,0.012935
-0.16149,-0.31963,0.079937,-0.033951,0.0026855,0.0030018,0.013741,-0.033979
0.01921,-0.082339,0.17394,0.029783,0.0033848,-0.0065091,0.0042087,0.038735
0.11735,0.088309,0.066619,0.032213,0.0046549,0.0075694,0.018648,0.066783
-0.12481,0.17647,0.3688,-0.011428,-0.0014962,-0.0094315,0.0024027,-0.052032
0.12818,-0.066985,-0.62977,-0.023548,-0.0075008,-0.0028008,-0.005543,0.056368
0.086318,-0.077765,0.37516,0.018705,0.0019996,-0.011544,-0.005345,-0.085608
-0.275,-0.080176,-0.28202,-0.033631,0.0033284,-0.0043046,-0.012813,-0.033579
0.011763,-0.048561,0.25564,0.0065642,0.011944,0.0034325,0.0031445,0.016483
0.30493,0.29218,0.17279,0.014122,-0.026908,-0.0038146,-0.0044434,0.05648
-0.22432,0.028718,-0.44726,-0.042153,-0.011623,0.013112,-0.0043393,-0.077549
0.01748,-0.011203,0.1826,0.048929,0.018871,0.015153,0.011329,0.052323
-0.031989,-0.12582,-0.024354,0.0065051,-0.0055508,-0.0056224,-0.012024,0.0014113
0.018458,0.010992,-0.10665,-0.012722,0.024684,0.0052349,0.027273,0.020413
0.052441,-0.071713,0.015556,-0.016124,-0.0074524,-0.0072883,-0.0035153,0.00058886
-0.077597,0.053865,0.21985,0.012295,-0.0081134,-0.020114,-0.0028038,-0.026317
0.097874,-0.09007,-0.23306,-0.013143,-0.0085267,0.0054947,-0.017504,0.0024988
-0.022161,0.066416,0.073551,0.0092606,0.02252,0.006806,0.014798,0.0090244
4.9797e-05,0.062855,0.024406,0.0092163,-0.0087939,-0.0084573,-0.023204,-0.030231
0.047288,0.064467,0.12039,0.056978,0.0068395,0.053531,0.032427,0.040804
-0.076,-0.21624,0.009733,-0.042863,-0.016552,-0.033554,-0.0059187,-0.02032
-0.057662,0.12083,-0.027388,-0.04821,-0.0086422,-0.034964,-0.013324,-0.018588
0.055059,-0.094784,-0.062833,-0.01382,-0.00061868,-0.0049437,0.0023558,0.022255
-0.027227,0.098743,-0.051246,-0.010065,-0.00020979,0.0022473,-0.021381,0.00036982
0.046767,0.045373,-0.1343,0.033263,0.0082804,0.025988,0.024872,0.009277
0.019,0.049281,0.18771,0.053459,0.032685,0.011709,0.016168,0.0019444
0.006447,-0.062508,-0.06906,0.0032912,-0.020799,0.013959,-0.0083662,-0.0060726
-0.053586,-0.11175,0.12782,-0.047425,-0.0038626,-0.01452,-0.0017824,-0.030372
0.026232,0.056319,-0.22014,0.04917,0.013002,-0.011799,-0.018691,0.015104
-0.0042166,0.034276,0.044754,0.0034682,-0.00946,0.03711,0.0034913,0.0055447
-0.0043435,-0.045731,0.16566,-0.075537,-0.032351,-0.024612,0.002353,0.0036791
