0.07063,0.095132,-0.015823,-0.017382,-0.026484,-0.035236,-0.024796,-0.012265
0.07763,0.067895,-0.01394,-0.065794,-0.0048736,-0.01246,0.0056846,0.032796
0.50121,0.022694,0.034548,0.06569,0.040813,0.065178,0.075487,0.054863
-0.4948,0.1865,-0.066261,-0.0055434,0.032595,0.033687,0.012882,-0.00022942
0.30704,0.042618,0.12847,0.07998,0.0017098,-0.0053612,-0.018025,0.039679
-0.087432,0.31521,-0.053365,0.0019317,-0.01294,-0.020765,-0.032914,-0.028561
-0.28172,-0.57717,-0.11943,-0.13042,-0.050678,-0.067288,-0.063154,-0.12717
-0.050466,-0.20827,0.0089266,0.026543,-0.0024168,0.011259,0.039553,0.047967
0.39544,0.33321,0.020017,0.0039543,0.022222,0.035175,0.032893,0.12894
-0.30186,0.24117,0.031995,0.043956,0.02309,0.04357,0.049599,-0.025553
0.032268,0.10192,0.14731,0.052829,0.023596,-0.010332,-0.019733,0.037107
-0.11431,-0.80898,-0.17247,-0.10214,-0.062109,-0.071723,-0.081322,-0.21452
-0.21474,0.19949,0.0025153,-0.030216,-0.022914,-0.015494,-0.025716,-0.0068264
0.85068,0.076755,0.054821,0.065588,0.047638,0.064656,0.10031,0.22326
-0.72177,0.076604,0.014985,0.0056087,-0.0065259,0.0046191,-0.046916,-0.13283
0.57477,0.42809,0.038247,0.024127,0.017806,0.0073538,0.040441,0.10553
-0.012404,-0.23542,-0.048405,0.034976,0.019032,0.017894,0.010746,-0.045188
-0.29196,0.076686,-0.050724,-0.13408,-0.049897,-0.065679,-0.065861,-0.092218
-0.19016,-0.19362,-0.039842,0.0086885,0.013867,0.014076,0.021305,0.011488
0.16402,0.16816,0.054087,0.040921,0.0068735,0.014647,0.014139,0.046863
-0.076002,-0.23273,-0.011204,0.063719,-0.0086798,-0.032929,-0.025138,0.0052818
-0.11465,0.23361,0.037999,0.037674,0.029503,0.05097,0.051704,0.080849
0.47802,-0.082169,0.022572,-0.029553,-0.0036263,0.00082046,-0.0054171,0.037797
-0.51513,-0.49893,0.0057879,-0.15347,-0.053243,-0.042484,-0.063603,-0.15641
0.54894,0.63541,0.043258,0.056971,0.013789,0.030844,0.057111,0.10674
-0.47545,-0.080252,-0.12181,0.03997,0.010428,-0.0052347,-0.017818,-0.055726
0.25791,-0.59352,0.042873,-0.00045823,0.015322,-0.0017077,-0.0065501,-0.041552
-0.3586,0.50649,-0.10234,0.038177,-0.0022942,-0.012701,-0.017824,-0.044577
0.20698,-0.37142,0.037073,-0.0855,-0.034257,-0.02994,-0.035446,-0.078409
0.33705,0.57704,0.078672,0.011875,0.021142,0.040616,0.06597,0.16378
-0.27451,0.27802,-0.016742,-0.013243,0.015375,0.0036976,0.01309,-0.050578
-0.059381,-0.46994,0.062599,0.2765,0.13563,0.023138,0.0010018,0.12327
0.51956,0.19273,-0.083012,-0.14278,-0.1967,-0.010932,0.029171,0.060334
-0.42175,-0.26486,0.11512,-0.21697,-0.0134,-0.036707,-0.067215,-0.12326
-0.43014,0.097024,-0.047792,0.029872,0.0053084,-0.00029279,7.8758e-05,0.008132
0.3554,-0.50526,0.012812,-0.035535,0.038698,0.02724,-0.0040647,-0.094639
0.047337,0.88288,-0.12571,0.24276,0.18808,0.092175,0.10734,0.26936
-0.13931,-0.96,-0.002395,0.38029,-0.054405,-0.11048,-0.15028,-0.35469
-0.17684,0.26307,-0.046112,-0.8572,-0.2667,-0.065074,0.0044723,0.071425
0.36803,0.014261,0.14302,0.30393,0.098468,0.064735,0.064257,0.055567
0.30217,0.513,-0.011373,0.051479,0.026001,0.0061744,0.037553,0.075189
-0.061567,-0.21886,-0.015449,-0.12221,0.032097,-0.013382,-0.035841,-0.032324
-0.1388,0.44648,-0.00080811,0.25157,0.054723,0.014663,-0.045893,-0.077822
-0.47174,-0.45296,-0.037251,0.023998,-0.054308,0.0049625,0.015656,0.041723
0.029022,-0.13283,0.10149,-0.03214,0.048721,0.020297,0.00051493,-0.063341
0.43656,-0.022501,0.015962,-0.21453,-0.073989,0.013711,0.088182,0.27914
-0.69199,-0.52177,-0.084442,0.17138,0.014567,-0.038634,-0.06558,-0.21253
0.95052,1.0005,0.032921,-0.054562,0.0091262,0.011076,0.022915,0.093414
-0.39869,-0.097141,-0.071028,-0.056499,0.049792,0.021523,0.0013617,-0.11687
-0.071862,-0.078855,-0.022415,-0.013756,-0.082547,-0.070403,-0.068367,-0.040026
0.56119,0.12239,0.13141,-0.02722,0.033856,0.055215,0.063358,0.12766
-0.38282,-0.61004,-0.046812,0.13826,0.024123,0.031076,0.029324,0.1749
-0.42507,-0.013879,-0.14997,-0.20415,-0.080159,-0.12703,-0.13108,-0.35106
0.36148,0.074987,0.10451,0.3287,0.026155,0.065669,0.05931,0.05086
-0.2419,0.080687,0.046228,0.080528,0.015401,-0.038795,-0.055019,-0.11781
-0.36627,-0.0017144,-0.034337,-0.2771,0.036361,0.052209,0.050059,-0.0038381
0.77965,0.39209,0.0983,0.013181,-0.012381,0.065536,0.11722,0.40985
-0.053149,-0.12922,-0.031728,-0.19739,0.033166,0.016904,-0.0095809,0.014792
-0.18663,0.34438,-0.017911,0.052043,-0.014743,-0.054705,-0.033563,-0.055934
-0.11065,-0.41347,-0.086918,0.26956,-0.00016614,-0.008826,-0.025316,-0.13075
-0.022544,-0.27288,0.073377,0.1276,-0.040539,-0.079963,-0.094546,-0.18687
0.39185,0.13595,-0.13913,-0.39648,-0.042193,0.013126,0.024113,0.0093302
-0.11128,-0.013769,0.087397,0.39357,0.073133,0.044015,0.010232,0.011831
0.13653,0.1931,0.041277,-0.41534,-0.077043,-0.0026781,0.035704,0.10905
-0.32904,-0.11682,0.041989,-0.025458,0.015525,0.01392,0.022487,0.12065
0.053059,0.37181,-0.0050971,0.26699,0.062185,0.00020922,0.0018844,-0.040094
0.34734,-0.21166,-0.014901,-0.045549,0.055388,0.049906,0.028527,0.03216
-0.83039,-0.67367,-0.050642,0.044515,-0.051708,-0.087242,-0.10873,-0.13235
0.32765,0.41517,-0.019028,-0.049487,-0.079623,0.018007,0.042919,-0.01109
-0.031075,0.28222,0.064226,0.093189,0.088425,0.060404,0.076801,0.090632
-0.19439,-0.2197,-0.089628,0.018092,0.037869,-0.0074957,-0.015293,0.039906
0.84709,0.39501,0.090421,-0.19794,-0.12242,-0.053336,-0.085227,-0.1315
-0.74253,-0.80263,-0.011837,-0.087227,0.0056085,-0.038304,-0.015946,-0.023982
0.43226,0.8125,-0.051542,0.13074,0.062337,0.053241,0.075444,0.12191
0.11487,-0.1662,0.019254,-0.10702,-0.053849,-0.020612,-0.052962,-0.16069
-0.15798,-0.16882,-0.040767,0.11321,0.055589,0.037501,0.091466,0.14562
-0.00063885,-0.21869,0.10487,0.33793,0.070548,0.017253,-0.061059,-0.067237
-0.18489,0.20877,-0.020236,-0.3474,-0.14152,-0.057288,-0.02564,0.029419
0.21319,0.67084,0.068063,0.017622,0.07591,0.025369,0.034105,0.036763
-0.083678,-1.1096,-0.076042,0.080955,-0.065991,-0.031257,-0.045591,-0.062116
-0.07649,0.16955,-0.11727,-0.11074,0.050124,0.046454,0.055688,0.20737
-0.10687,0.5768,0.092141,-0.065044,-0.028821,-0.007169,0.017535,-0.11799
-0.27164,-0.65589,-0.034355,0.27346,0.033035,0.010735,0.0037359,-0.040304
0.068127,0.092439,0.018368,-0.36741,0.016744,-0.0018248,-0.017352,0.032659
0.14493,0.22128,-0.0078957,0.17803,-0.031095,-0.076624,-0.10867,-0.27469
0.55661,0.15793,0.12092,0.14599,0.053297,0.082679,0.10438,0.19433
-0.25045,-0.033105,-0.064148,0.022674,-0.034973,-0.024383,-0.042586,-0.098054
0.17444,0.44431,-0.00073545,-0.20596,-0.030326,0.0081063,0.059619,0.15465
-0.080428,-0.32585,-0.016947,-0.085579,-0.04979,-0.015322,-0.018734,0.0012611
-0.24898,-0.079174,-0.050096,0.14234,0.078875,-0.00088209,-0.0040996,0.068422
0.42682,0.053038,-0.029512,0.06386,-0.026641,0.028207,0.041277,0.0057109
-0.75454,-0.30626,0.021835,-0.016813,0.017023,-0.02925,-0.093172,-0.061329
0.19561,-0.2558,0.080994,-0.13975,-0.016221,-0.0087336,-0.00075761,0.00015003
-0.20739,-0.26492,0.0077338,0.22489,0.037997,-0.0035223,-0.0013683,-0.16954
0.34397,0.27793,-0.072728,0.091166,0.0078762,0.018046,0.045935,0.061906
0.17508,0.67236,0.08181,-0.22995,-0.02862,0.017195,0.016263,-0.063906
-0.11422,-0.16672,0.0024431,-0.32563,-0.017168,0.017481,0.018846,0.26488
-0.01027,0.062388,-0.09231,0.29542,0.0026715,-0.0124,0.0064116,-0.085272
-0.1805,-0.06212,0.070784,-0.031317,-0.032144,-0.049211,-0.068486,-0.076092
0.36184,0.18175,-0.047424,0.23307,0.081008,0.031754,0.059156,0.072813
-0.32846,-0.30772,-0.048425,-0.044102,-0.025447,-0.027652,-0.079941,-0.053456
0.27014,0.24126,0.044551,0.098478,0.031093,0.037882,0.052977,-0.025911
0.20917,-0.32068,-0.010417,-0.18229,-0.054056,0.0093529,0.012594,0.084688
-0.26488,0.22688,0.08377,-0.15888,-0.038492,-0.035275,-0.060152,-0.073329
0.048246,-0.20437,-0.024364,-0.064488,0.039112,0.036753,0.077511,0.0081251
-0.57959,-0.50336,-0.014608,0.039608,-0.00045146,-0.024517,-0.050238,0.025
0.24226,0.045826,-0.012249,0.068379,-0.016099,-0.031458,-0.036391,0.0094598
-0.22705,-0.057931,-0.041139,-0.016987,0.015936,0.023909,0.025906,-0.10776
0.28008,0.83256,0.023268,0.52506,0.0567,-0.014507,0.01197,0.010317
0.60921,0.69859,0.055581,-0.15075,0.02012,0.064333,0.077984,0.15359
-0.31682,-0.59066,-0.022559,-0.45272,-0.10978,-0.044256,-0.034323,0.017904
0.34561,-0.21573,0.023216,0.4217,0.07277,0.019005,-0.01323,-0.029363
-0.44356,-0.32011,-0.041225,-0.44317,-0.042117,-0.003875,-0.015935,-0.12118
-0.20132,-0.36057,-0.090408,-0.063619,-0.040801,-0.034979,-0.043368,-0.03139
0.00095118,0.54251,0.063782,0.13106,0.013948,0.019262,0.036556,0.036301
-0.14963,0.035674,0.0079,0.54846,0.19237,0.065,0.051573,0.17501
0.277,0.087479,0.031476,-0.62982,-0.23198,-0.10869,-0.076417,-0.1159
-0.0074075,-0.22265,0.025318,0.08258,0.014605,0.021783,0.012385,-0.016674
-0.0099001,-0.087766,-0.0029251,0.15605,0.12,0.03478,-0.0015911,-0.035571
0.21501,-0.075745,-0.022498,0.075931,-0.095072,-0.030338,-0.015867,-0.008831
-0.2709,0.16679,-0.049742,0.045508,0.057256,0.053282,0.056416,0.11809
0.10111,0.10136,0.10988,0.025221,0.03822,-0.042261,-0.049605,-0.061068
0.61801,0.70361,-0.067732,-0.30613,-0.089485,0.019088,0.080613,0.047598
-0.51903,-0.6302,-0.020467,0.01151,0.010175,-0.012668,-0.037158,-0.063469
-0.51425,-0.56702,-0.053054,0.25882,0.071601,0.026435,0.010974,-0.042349
0.23418,0.65614,0.061386,-0.18141,-0.061476,-0.027828,-0.033213,0.0098052
0.31405,-0.032663,-0.012497,0.011678,0.0093399,0.019674,0.0016256,0.077788
-0.13865,-0.11,0.03852,-0.028168,-0.012876,-0.03434,-0.025674,0.005714
-0.3232,-0.37877,-0.011431,-0.049883,-0.018814,-0.0024757,0.0016189,-0.042094
0.037509,0.023646,0.017863,0.072376,0.02268,0.021477,0.036301,-0.010824
0.82886,0.47624,-0.013959,0.21394,0.088029,0.029717,0.03131,0.099507
-0.53428,-0.34536,-0.0053596,-0.078644,-0.096394,-0.048023,-0.068111,-0.19562
-0.01406,0.31144,-0.011323,-0.0095089,0.04731,0.030496,0.050558,0.064457
0.034899,-0.099565,-0.032341,0.029259,-0.020154,-0.015937,-0.034495,0.13721
-0.0245,0.22481,0.055986,-0.34681,-0.048992,0.00019002,-0.010694,-0.11057
0.10001,-0.13294,0.026493,0.10293,0.046581,0.031985,0.051711,0.039426
0.13887,-0.036938,-0.082268,0.033516,-0.046029,-0.037785,-0.019121,0.00088935
-0.23844,-0.31261,0.034057,0.20982,0.040331,-0.021685,-0.043498,-0.085835
-0.21188,0.012101,0.062867,0.10037,0.047856,0.033339,0.041069,0.083823
-0.03731,0.48875,-0.097247,0.1977,0.046909,0.041282,0.047084,0.025571
0.13287,-0.26669,0.0072324,-0.72394,-0.13429,-0.060399,-0.072283,-0.057174
-0.024552,-0.12835,0.001877,-0.12422,-0.026855,0.032971,0.019025,0.015758
0.34702,0.17209,0.043605,0.23263,0.025658,-0.022325,-0.006916,-0.051895
-0.12331,-0.15814,0.047143,0.34011,0.062516,-0.0074548,-0.017022,0.037395
0.13726,-0.1143,-0.080691,0.1913,0.0057928,0.02301,0.028072,0.065456
-0.1521,0.44879,0.01988,-0.15876,0.011888,-0.01674,-0.011984,-0.068882
-0.24297,-0.27774,-0.010335,0.016337,-0.012856,-0.0094099,-0.0042023,-0.021762
0.15035,-0.018382,-0.0073174,-0.4244,-0.068396,0.0059921,0.012377,0.003458
-0.21112,0.16462,0.0052142,0.34684,0.079654,0.037261,0.0063442,0.029649
0.33143,0.027541,0.034585,-0.3653,-0.076527,-0.0016293,0.032057,0.055986
-0.15692,-0.22942,-0.021415,0.080015,0.009911,-0.0092517,-0.028119,0.019031
0.28023,0.23384,-0.022891,0.07369,0.010782,-0.03262,-0.041854,-0.058625
0.24137,-0.14102,0.052874,0.19389,0.019717,0.014108,0.029498,0.025601
-0.6027,0.34633,0.0099724,0.041726,0.067776,0.021542,0.03723,-0.064289
-0.031841,-0.43837,-0.019161,0.20217,-0.032783,-0.018056,-0.02653,0.015945
-0.050059,-0.23708,-0.058052,-0.23237,-0.016583,-0.026417,-0.044435,-0.068653
0.020301,0.13166,-0.0049171,-0.31789,-0.10257,-0.034626,-0.016134,-0.10588
0.10799,0.15502,0.0079036,0.19474,0.076377,0.059006,0.043206,0.21023
0.18078,0.10957,0.012283,0.0085346,0.020305,0.051387,0.040309,0.052467
0.1662,0.076115,0.024474,-0.08672,0.026295,-0.0028768,-0.016628,0.038426
-0.22906,-0.068648,0.021543,-0.06616,-0.069417,-0.033649,-0.010191,-0.074332
0.0038282,0.1601,0.019402,0.21261,0.014762,-0.00989,-0.0028394,-0.036603
0.050744,-0.074271,-0.028777,-0.0065438,0.021343,-0.0098902,-0.0025166,-0.0057701
-0.17033,-0.28885,-0.0059484,0.16825,0.0052548,-0.010271,0.0061551,-0.029904
-0.0086898,0.10833,-0.013916,-0.17651,-0.009947,-0.010955,0.0072559,-0.00063958
0.17768,-0.27506,-0.02948,-0.11911,0.022581,0.011681,-0.015111,0.018862
-0.14112,0.28618,0.048774,-0.011814,-0.077025,-0.012438,-0.037702,-0.0576
0.16978,0.10352,-0.036991,0.14429,0.073754,0.04189,0.040958,0.051314
0.074846,0.16841,-0.0054299,0.14494,0.013619,0.03414,0.0021353,0.033437
-0.28767,-0.34004,0.018614,-0.1124,-0.031233,-0.020095,0.0099933,0.05328
-0.089748,-0.19575,0.03529,-0.26119,-0.022044,-0.027215,-0.021261,-0.060556
0.17855,0.57745,-0.049078,0.042089,0.040999,0.028189,0.041336,0.059572
0.21664,-0.30972,0.085776,0.039676,-0.037449,-0.065029,-0.067725,-0.054643
-0.1262,0.11937,-0.068137,0.28647,0.023989,0.0054896,0.010987,-0.074638
-0.13286,-0.18166,-0.018905,-0.17832,-0.032247,0.020949,0.019635,-0.015597
-0.078633,0.10848,0.022204,-0.057875,-0.018332,0.012647,0.020611,0.036939
-0.21648,-0.11029,-0.015446,0.06939,0.05043,0.019757,0.013741,0.083253
0.33155,0.077883,0.063188,0.085874,0.025856,-0.020085,-0.032428,-0.056258
0.22222,0.010789,-0.10144,0.19437,0.017462,0.010435,0.014736,0.07918
0.055066,-0.060013,0.060932,-0.55044,-0.068478,-0.0057702,-0.0089277,-0.018647
-0.033444,-0.19611,0.011321,0.25814,0.017963,-0.0061309,-0.040904,-0.045618
-0.17377,0.29002,-0.023499,-0.066387,-0.020217,-0.014042,0.028325,-0.010166
-0.17623,0.20993,0.034932,-0.10866,-0.019095,-0.0060434,-0.019748,-0.084715
0.071769,-0.13343,-0.02389,0.10922,0.036829,0.025682,0.033921,0.081917
0.24721,0.20312,0.0036651,0.14287,0.077153,0.034243,0.048982,0.075501
-0.35334,-0.46986,-0.045951,0.1253,-0.062243,-0.042894,-0.068108,-0.072652
-0.079417,-0.12242,0.0074044,-0.35825,-0.0767,-0.026104,0.010872,0.051774
0.033732,0.096721,0.0077867,0.15941,0.033774,0.0064063,-0.018792,-0.08207
0.17048,0.2977,0.025583,0.098069,0.058236,0.054533,0.03807,0.026292
0.24942,-0.22107,0.01371,-0.13041,-0.050211,-0.045907,-0.037529,-0.013292
-0.061859,0.25327,0.034183,0.40197,0.091202,0.048713,0.035364,0.026126
0.058846,-0.30877,-0.054318,-0.46961,-0.072277,-0.028899,0.0064269,0.019762
-0.1696,0.28934,0.044303,-0.11964,-0.017273,-0.028807,-0.030885,-0.024574
-0.053363,-0.19413,-0.061282,-0.06193,-0.0016355,0.025548,0.024758,0.010073
-0.25137,0.23259,0.0034425,0.2922,0.052774,-0.014201,-0.053338,-0.0095354
0.029884,-0.12693,0.019565,0.023977,-0.0571,0.016142,0.023869,0.033251
0.29466,-0.21174,-0.067411,-0.020063,0.01261,-0.00043273,0.029916,0.0050764
0.36775,0.28895,0.086763,0.12281,0.035483,-0.0012352,-0.0037445,-0.047622
-0.37074,-0.22799,-0.0094017,-0.32827,-0.035217,-0.0017221,0.0091106,-0.023521
0.13217,0.095548,-0.011406,0.28183,0.027184,-0.0095888,-0.01711,0.038324
-0.57719,0.055562,0.011089,-0.018048,-0.0038096,-0.0091646,-0.02734,-0.025905
0.16594,-0.24689,-0.043066,0.15169,-0.0031815,0.038578,0.025672,0.034209
0.18364,0.12548,-0.0019053,-0.25141,-0.010028,0.00071718,-0.0061839,-0.03084
0.087674,0.26646,0.048361,-0.15215,-0.024429,-0.029158,-0.013311,0.013782
0.10718,-0.08149,0.013383,0.25228,0.03162,0.0034582,-0.0034591,0.019967
0.0023159,0.066601,-0.0061092,-0.37471,-0.029539,0.01246,0.038859,0.026926
-0.17041,-0.26478,-0.011019,0.29566,0.041906,-0.017901,0.011732,-0.020073
0.051204,0.16034,0.021301,0.030666,0.0035692,0.0060611,-0.054129,-0.074352
-0.027415,-0.39029,-0.019022,0.059127,0.019334,0.006216,0.059374,0.12162
-0.13251,0.32793,-0.046129,0.070963,-0.035913,-0.025206,-0.08593,-0.096498
0.17337,-0.026433,-0.0049571,-0.25974,-0.037184,0.029047,0.15001,0.036684
-0.26646,-0.2173,-0.019746,0.068767,0.031263,0.036231,-0.10817,-0.010219
0.18779,0.28721,0.027678,-0.043966,-0.025655,-0.073916,-0.048068,-0.11225
0.050358,0.22859,0.0054944,-0.003744,0.0033042,0.018947,0.033668,0.13685
-0.032128,-0.15293,0.086364,0.1736,0.032516,0.017956,-0.010915,0.018392
0.46166,0.15533,0.028525,0.24515,0.07005,0.03249,0.084481,0.040233
-0.19689,-0.45927,-0.12115,-0.4699,-0.11832,-0.046812,-0.054405,-0.047552
-0.72029,-0.22633,0.011973,-0.11343,0.068983,-0.0011621,0.010614,-0.072968
0.33601,0.51595,0.060064,0.18827,-0.055646,0.0054484,-0.0011733,0.018878
0.0035703,-0.218,-0.12604,0.020025,0.015395,0.0043669,0.012118,0.0017173
0.18209,0.19672,0.093634,0.16214,0.00057886,-0.012116,-0.050991,-0.022544
0.21733,0.0031762,0.078002,0.12173,0.040227,0.010766,0.035909,0.032339
-0.27891,-0.17982,-0.12622,-0.42972,-0.045634,-0.012904,-0.024405,-0.013151
-0.015174,0.22798,0.02017,0.14062,0.047458,0.018383,0.056644,0.075309
-0.16126,-0.23202,0.017617,-0.080865,-0.047797,0.010744,-0.010548,-0.0229
0.065499,-0.049627,-0.062946,0.33643,0.051446,0.018684,-0.023363,0.012013
0.33759,0.38667,0.052602,-0.10619,0.001631,-0.012668,-0.0056219,-0.015904
-0.29846,-0.45265,0.04455,-0.31341,-0.1344,-0.052192,-0.00439,-0.099454
0.12494,0.23039,-0.0085847,0.021039,0.081294,0.025093,0.0038064,0.04997
0.090328,-0.10292,0.0105,0.20321,0.0085338,0.00054493,0.011403,0.064977
-0.04499,0.19544,-0.023375,0.11675,0.03831,-0.00061226,-0.035888,-0.038714
-0.12673,-0.10231,-0.079387,-0.18347,-0.0010526,-0.0015256,0.026456,-0.010746
-0.15635,-0.005779,0.068434,0.19257,-0.00019212,-0.0019117,0.0035278,0.008805
0.18566,0.13128,0.028795,-0.20168,-0.060888,0.0062423,-0.0028546,-0.034135
-0.030406,-0.38095,-0.027075,0.054004,0.019614,0.0073682,-0.0082823,-0.029641
0.078813,0.24448,0.017464,-0.089019,-0.0091303,0.0013539,0.041727,0.092964
-0.063888,-0.080105,-0.017676,0.21149,0.094642,0.019185,-0.017299,-0.041216
-0.043438,0.17543,-0.078029,-0.045461,-0.060011,0.029251,0.071929,0.13016
0.10979,-0.090881,0.055106,-0.055494,-0.012303,-0.070378,-0.13643,-0.096404
0.068321,0.1058,0.022449,-0.16196,-0.059061,-0.014368,0.0056319,-0.018184
0.12939,0.11833,0.06639,0.011116,0.026497,0.0096309,0.021322,-0.026135
-0.38648,-0.40272,-0.031535,0.074335,0.02595,0.0094507,0.019992,-0.018807
-0.010442,-0.14218,-0.044404,-0.010225,0.0021385,0.0086962,0.025255,0.011758
-0.054899,0.20754,-0.042103,0.19564,0.04907,0.015443,-0.0094421,-0.035647
0.2224,0.070855,0.046173,0.012294,-0.036268,0.01436,0.010054,0.11287
0.18862,0.14475,0.0021996,-0.15458,-0.011736,-0.041164,-0.04083,-0.05011
0.12487,0.2421,0.0061729,0.076838,0.028741,0.020936,0.017998,0.014676
-0.50041,-0.50536,-0.0039942,0.16641,0.022434,-0.0023693,-0.0084337,0.002461
0.031128,0.024941,-0.043685,-0.4413,-0.1168,-0.017334,0.03638,0.0066315
0.039274,0.1031,0.066797,0.034731,0.056227,0.022829,-0.034918,-0.020269
-0.0078148,0.1785,-0.0478,-0.037853,-0.021,-0.014849,-0.0035572,0.030459
0.31884,0.0055071,0.080781,0.4747,0.050032,0.010063,-0.0024569,-0.044934
-0.22375,-0.25442,-0.079382,-0.27021,0.0038174,-0.0041992,-0.00059679,-0.0047011
0.019805,0.045909,0.064729,0.017539,-0.011095,-0.0031329,0.017322,0.002552
0.1269,-0.12446,-0.073485,-0.083302,-0.025898,0.013124,0.019669,-0.015229
-0.066886,0.14258,0.036767,0.16171,0.045322,-0.0023765,0.037332,0.051732
-0.061356,0.24072,0.020332,-0.13079,-0.063161,-0.026196,-0.039336,-0.053788
-0.14465,-0.27938,-0.04447,0.0069144,0.023493,0.0042374,-0.046379,0.051696
0.036405,-0.0076026,0.030381,0.1985,0.055097,0.026555,-0.014951,0.032897
0.046391,-0.034411,-0.074683,0.036402,-0.015394,0.0018589,-0.015077,-0.054956
0.1922,-0.037316,0.016159,-0.44918,-0.055281,-0.030619,0.0474,-0.016186
-0.14148,0.40624,0.053615,0.14745,0.0057182,0.030834,0.07133,0.039985
-0.12534,-0.14214,0.030304,0.12318,0.011413,-0.016807,-0.021108,-0.089654
0.14708,-0.24729,-0.022487,-0.13084,-0.022437,-0.01725,-0.10482,0.047688
0.18272,0.26727,-0.0035741,0.22221,0.068404,0.021659,0.023152,0.053014
-0.23892,-0.14885,-0.038683,-0.13693,-0.059639,-0.025181,0.057706,-0.043171
0.20791,0.1185,0.10565,0.19129,0.070152,0.068639,0.068553,0.10986
-0.22152,-0.12013,-0.071472,-0.14366,-0.042098,-0.040803,-0.093418,-0.12932
-0.0060437,-0.14651,-0.0082074,-0.12517,-0.029087,-0.0020905,0.016511,0.043372
-0.014475,0.15762,-0.032949,0.091449,0.039007,-0.0027931,-0.00047426,-0.0051446
-0.044473,-0.095999,0.0029519,-0.00068992,-0.0095185,0.0040093,-0.035037,-0.016911
0.28687,-0.068276,0.014221,0.091434,-0.010377,-0.020572,0.0069143,-0.053848
-0.23052,0.23624,0.040905,-0.12372,-0.010187,0.0018686,-0.0067523,0.080288
0.15475,0.13273,-0.025273,-0.0052054,0.022546,0.016981,0.018618,-0.019637
-0.071242,-0.12725,-0.058341,-0.045393,-0.037011,-0.00617,0.021481,-0.024404
-0.070845,-0.20764,0.020446,0.10648,0.022101,-0.004877,-0.028597,0.012148
-0.053484,0.062069,0.039323,0.01927,0.0043869,-0.0025449,-0.0061021,0.0045109
0.060077,0.038637,0.068143,-0.082499,-0.020255,0.0084576,0.042198,0.0072801
0.036043,0.14829,0.020019,0.29882,0.088183,0.035558,0.0066053,0.074539
0.29632,-0.089279,-0.020365,-0.16722,-0.03042,-0.0077121,-0.0041929,0.0021663
-0.29232,0.23664,-0.093358,-0.013669,-0.0018052,0.010887,0.016706,-0.046957
0.066281,-0.38413,-0.06719,-0.19461,-0.076571,-0.057579,-0.033209,-0.081759
-0.20674,0.047498,0.065363,-0.038006,0.018393,0.0053314,-0.053177,-0.0014986
-0.002618,0.0010453,0.023014,0.074515,0.040913,0.0042544,0.0031687,0.052828
0.15483,-0.044573,0.0015518,0.082411,-0.04772,-0.013717,0.057558,-0.020214
-0.015773,0.10165,-0.021612,0.050427,0.018737,0.022165,-0.038236,0.022131
0.13404,-0.0094087,0.009236,-0.035056,0.0066524,-0.0047322,0.036594,0.047929
-0.051844,0.071356,0.024779,-0.032067,0.010499,0.015522,0.02489,-0.051185
-0.11229,-0.14536,0.025828,0.23952,0.015208,-0.0025608,-0.088284,-0.039867
0.031089,0.1779,0.020728,-0.11923,-0.017996,0.019415,0.057056,0.051408
0.058276,0.080162,-0.013707,-0.34388,-0.0031865,-0.012235,0.0082198,0.035616
-0.092885,-0.08065,-0.093092,0.18894,0.012474,-0.011694,-0.0080108,-0.032432
-0.039278,-0.11956,-0.0066342,0.41512,0.03633,0.0051679,0.0083581,-0.059206
0.047369,-0.00054219,0.050118,-0.55723,-0.064961,-0.0088246,0.0024394,0.11103
0.057536,-0.078177,0.0065751,0.21658,0.020644,0.00072711,-0.018294,-0.045872
-0.079636,0.14505,0.018679,-0.052413,-0.0039997,-0.013282,-0.030821,-0.046356
0.11926,-0.027805,-0.015466,-0.027385,0.0017085,0.0036798,-0.0043287,-0.0084214
0.020102,0.074518,0.013156,0.050949,-0.04013,-0.010973,0.021705,0.012517
0.074606,0.030545,-0.013013,0.1766,0.042777,0.052093,0.05473,0.05494
-0.27315,-0.24441,-0.016205,-0.21889,-0.030319,-0.025894,-0.022718,-0.022162
