0.0047986,-0.033635,-0.013183,-0.010394,-0.025445,-0.019911,-0.033938,-0.057427
0.0050528,0.06524,0.01229,-0.0028293,0.0059205,0.042394,0.0092563,0.023136
-0.02559,-0.046361,-0.078012,-0.010511,0.02183,0.010768,0.013825,-0.04214
0.022215,0.044624,0.12193,0.0055098,0.0065937,0.010173,0.018145,0.026742
0.015586,0.0012637,0.025857,0.021655,-0.0008324,0.0014908,0.091772,-0.053012
0.024728,0.033702,-0.17113,-0.016883,-0.008373,-0.030932,-0.094098,0.32637
-0.059861,-0.10848,-0.031574,-0.024238,-0.0082995,-0.0089224,-0.039916,-0.31307
0.0038734,-0.011173,-0.00060514,0.0073917,-0.0084502,-0.01045,-0.019222,-0.02698
-0.0029405,0.029285,0.16425,-8.4928e-05,-0.016594,-0.011819,0.022967,0.051496
0.013349,0.013806,-0.052368,0.00024993,0.022055,0.026348,0.040429,-0.030455
0.02142,-0.017439,-0.033227,0.0084062,0.013872,0.018404,-0.075328,0.0014679
-0.0022069,0.030384,0.018298,0.016517,-0.0097846,-0.012031,0.075077,3.3582e-05
0.0049661,0.025315,0.062572,0.0088341,0.0058305,0.013168,-0.007535,0.11496
0.0039206,0.077199,0.036302,-0.0069949,0.0060192,-0.015592,0.02895,0.0035827
-0.067744,-0.19674,-0.13167,-0.023304,-0.017105,-0.0049858,-0.002765,-0.075521
0.024499,0.10157,0.057994,0.022348,0.014471,0.013166,-0.048139,0.026428
0.023015,0.041791,-0.027847,-0.010565,-0.00092828,-0.00081735,-0.0060395,-0.010894
-0.0017061,-0.04093,-0.037492,-0.004571,-0.0086881,-0.00060496,0.013553,-0.00022952
0.012964,0.0010838,-0.0016289,0.0017231,-0.00099977,0.0056496,-0.0056385,0.011217
-0.011042,-0.090575,-0.075657,-0.030188,-0.0012256,0.025726,0.092056,-0.094021
0.0043734,0.10563,0.13977,0.0096035,0.0063981,-0.0025407,-0.021913,0.09016
0.0044282,-0.043164,0.028215,0.0042703,-0.017028,-0.00033526,-0.1134,-0.01436
-0.011012,0.025751,0.043181,-0.0070898,-0.016687,-0.20109,-0.088699,-0.04028
-0.026455,-0.015355,-0.057552,0.014193,0.0074653,0.10716,-0.080578,-0.010888
0.04394,0.021509,-0.04,0.020404,0.039717,-0.004421,0.62195,0.12079
-0.002987,0.011835,0.0093041,0.018156,0.0095389,0.12087,-0.41083,-0.051493
-0.050011,-0.051781,-0.02742,0.052966,0.010381,-0.01703,-0.022853,-0.0044203
0.035777,0.026239,0.075977,-0.024829,0.018511,0.27655,0.027822,0.011818
0.012329,-0.011839,-0.12594,-0.083196,-0.075629,-0.34315,-0.087187,-0.057656
-0.010832,-0.0020749,0.054518,0.010603,0.0014298,-0.14296,0.16323,0.052669
0.0054849,0.016158,0.0083744,0.0073434,-0.0078434,0.094798,-0.12712,-0.040005
-0.024579,0.0033441,0.0095397,-0.0054693,0.0064257,-0.060312,0.18272,0.016033
0.023989,0.037083,0.01931,-0.017905,0.021399,0.36012,-0.01596,-0.013358
-0.0051265,-0.0081242,-0.079414,-0.098025,-0.048332,-0.20634,-0.23788,-0.057647
0.0051213,-0.023273,0.095907,0.037313,0.0084472,-0.21236,-0.044447,0.08638
-0.023599,-0.11009,-0.049103,-0.056144,-0.034936,0.33494,0.26859,-0.003286
0.017841,0.083077,0.16438,0.31685,0.21161,-0.18853,0.14742,0.0088837
-0.0036325,0.025292,-0.10828,0.084722,0.028438,0.46043,-0.57939,-0.010561
-0.002309,0.021739,-0.070891,-0.059349,-0.16359,-0.99842,0.056688,-0.031111
0.068532,-0.044181,0.034103,-0.071013,0.033068,0.89678,0.87499,0.22784
-0.08021,4.3951e-06,-0.22267,-0.33533,-0.17115,-0.24391,-0.71989,-0.18718
-0.018738,0.045458,0.31591,-0.0099963,0.0441,-0.63897,0.11371,-0.11195
0.050082,0.0066737,-0.028574,0.13905,0.046622,0.641,-0.11849,0.0010872
-0.021807,-0.053549,-0.16873,-0.0046406,0.024919,0.07952,-0.01971,0.0046278
0.0082179,-0.033503,0.1624,0.19326,0.15204,0.55807,0.89378,0.11875
-0.0078772,0.03553,-0.065514,-0.0076522,-0.11782,-0.99513,-0.81484,-0.069412
-0.022948,0.020504,-0.055257,-0.097972,-0.018282,0.26243,-0.21369,0.026774
0.01774,-0.024356,-0.010335,-0.037602,-0.04904,-0.0057963,0.38042,0.047915
-0.0032223,0.048686,0.076002,-0.029365,0.0084857,-0.13555,-0.71576,-0.022427
0.038672,-0.08941,0.11623,0.12945,0.091208,-0.32905,0.42377,0.11117
0.048984,0.060297,0.12418,0.13321,0.088878,1.0165,0.77847,0.07191
-0.019914,0.11391,-0.26118,-0.1599,-0.16355,-0.64467,-0.77585,-0.24344
-0.090544,-0.12485,-0.1113,-0.16502,-0.018549,-0.038557,0.032463,-0.1017
0.032031,-0.023854,-0.067146,0.054626,0.023217,0.58455,0.62098,0.090487
-0.04281,0.002592,0.13739,-0.047993,-0.054206,-0.58112,-0.43833,-0.096147
0.052529,0.064099,0.16756,0.24625,0.16327,0.54094,0.3868,0.19889
0.006285,-0.026106,-0.13129,-0.11651,-0.1053,-0.67603,-0.26129,0.055192
-0.047821,-0.06379,0.039354,0.013186,-2.2307e-05,0.37587,-0.6211,-0.1195
-0.030783,-0.016389,-0.069148,-0.051135,-0.0046974,-0.44482,-0.053282,-0.034948
0.034621,0.039276,0.10656,0.019446,0.060903,0.2681,0.49083,0.082965
0.13307,0.010542,-0.01919,-0.016846,-0.029349,0.32004,0.31255,0.078147
-0.032388,0.093456,-0.0091739,0.027426,0.0060918,-0.053233,-0.10529,-0.057479
0.0065905,0.046185,-0.0046826,0.050158,0.050207,0.087656,0.048965,0.027172
-0.078664,-0.021842,0.0012439,-0.090212,-0.084426,-0.4035,-0.33533,-0.14493
-0.046462,-0.056011,-0.11724,0.15984,-0.038407,-0.2196,-0.40929,-0.089674
0.0091612,-0.19697,0.061061,-0.075882,0.032007,0.26668,0.52536,0.14604
0.010088,0.047579,-0.011219,-0.14208,0.0095816,0.37759,0.015805,-0.015741
-0.0043599,0.068518,0.0015749,0.0075285,0.011394,-0.28407,0.26273,0.04241
0.052142,0.053567,0.099282,0.16975,0.084116,-0.054029,0.20668,0.10185
-0.038816,-0.044161,0.031805,-0.045621,-0.030357,0.12925,-0.55706,-0.11101
0.04321,0.11863,-0.036868,-0.028405,-0.090197,-0.30659,-0.20703,-0.073188
0.040235,-0.013724,-0.10678,-0.097881,0.013606,0.44015,0.21974,0.073995
-0.048223,-0.1146,-0.013859,-0.0029996,-0.00050564,0.030103,0.28175,0.04063
-0.01974,0.072002,0.0076148,0.1321,0.031339,-0.59487,-0.51467,-0.080339
0.046794,-0.026081,0.067193,0.034485,0.038791,0.57801,0.40969,0.14799
-0.044578,-0.027616,0.10262,0.02459,0.021991,-0.078035,0.0035647,-0.11053
-0.036409,0.011691,-0.10457,-0.054086,-0.07343,-0.20397,-0.36868,-0.097884
0.055691,0.036915,-0.030619,-0.014516,-0.036067,-0.14232,0.13456,0.053804
-0.025682,-0.01382,-0.026776,-0.13066,0.001822,0.30486,0.14352,0.033035
-0.014178,-0.029693,0.055722,0.050154,0.032968,-0.093252,-0.0098304,0.012819
0.028604,-0.0086226,0.014052,-0.034845,0.026526,-0.20782,-0.050314,-0.029261
-0.029262,-0.049742,-0.010914,0.15327,0.021711,0.22227,0.20106,0.032472
0.0082267,0.052478,-0.026831,-0.010564,-0.07541,-0.19157,-0.22744,-0.012748
0.0086064,0.0031727,0.013222,-0.057617,0.039314,0.23063,0.19077,0.022203
0.057759,0.022393,0.038846,0.043291,0.044748,0.13558,0.098724,0.042727
0.061498,0.11055,-0.051736,-0.059494,-0.028846,-0.089475,-0.18831,0.024256
-0.10588,-0.021934,0.030209,0.040187,0.0050643,-0.011497,-0.35372,-0.1203
-0.015472,-0.11851,0.0030199,-0.009283,0.012909,0.29467,0.34313,0.037815
-0.058636,0.029993,-0.086885,-0.043828,-0.068194,-0.65115,0.11399,-0.040937
0.037558,-0.094023,0.056909,-0.071188,0.0040265,0.11791,-0.41309,-0.020585
0.0072325,0.070084,0.13712,0.12749,0.0035653,-0.038462,0.078952,0.005628
0.037877,0.020769,-0.15125,0.0054441,-0.021773,-0.04759,0.11877,0.03853
0.02028,0.03037,0.027582,0.023678,0.04633,0.2507,0.031473,0.047799
-0.021859,0.0045311,-0.029464,-0.044293,0.021511,0.11885,0.3206,0.010813
-0.0023063,-0.041255,0.0059944,-0.018658,0.0062831,-0.024594,-0.21523,-0.040615
0.016747,-0.07545,0.056285,0.10865,0.055981,-0.011986,0.29892,0.081271
-0.05032,0.1135,-0.034242,-0.091626,-0.09473,-0.17699,-0.69324,-0.14698
0.054651,-0.028236,0.047577,-0.10324,-0.0083931,0.26247,0.4543,0.10261
-0.066399,0.039372,-0.10387,-0.034866,-0.036886,-0.49097,-0.37826,-0.08423
0.040064,-0.042041,0.035377,0.082905,0.077101,0.44404,0.40065,0.07365
-0.0083732,-0.0058955,0.028125,0.1567,0.0048277,-0.14554,-0.17908,-0.079972
-0.00043224,-0.007602,0.038483,-0.063522,-0.027807,-0.004229,-0.047548,0.041006
0.0094119,0.0081882,-0.035353,0.015404,-0.0058328,0.10017,0.061239,0.022761
-0.033501,-0.036223,-0.076704,-0.14663,-0.015784,-0.16225,-0.00028388,-0.040737
0.065943,0.015558,0.11686,0.1365,0.082471,0.27755,0.018834,0.084983
0.0026336,0.11649,0.0055084,-0.019432,-0.078603,-0.503,-0.13861,-0.061124
-0.067799,-0.13231,-0.03647,-0.068755,0.016457,0.17556,0.12892,-0.026301
-0.013284,0.057508,-0.087716,0.06593,0.0083198,0.016299,0.070577,-0.037733
0.063842,-0.049264,0.17967,0.095487,0.045682,0.51137,0.37228,0.1225
0.030066,0.13247,-0.24984,-0.18257,-0.074125,-0.4723,-0.27275,0.039384
0.0020512,-0.1324,0.16322,-0.11857,0.0010663,0.072618,-0.64016,-0.061429
-0.13767,0.015035,-0.057123,0.11725,-0.0015098,-0.088933,0.22114,-0.14163
0.048437,0.012121,0.10541,0.096869,0.035972,0.31583,0.20801,0.095224
0.052852,-0.055019,-0.1455,-0.03773,-0.034432,-0.48694,0.1944,0.047514
0.016737,0.017225,0.096738,0.057946,0.045346,0.26055,0.16419,0.035909
-0.051432,0.15924,0.12123,0.047941,0.025269,0.09006,-0.39041,-0.14201
0.0052685,-0.096924,-0.20508,-0.052877,-0.024687,-0.083359,0.17967,0.0381
0.01554,-0.05514,0.039187,-0.019262,-0.011358,0.14011,0.00064349,0.0069075
-0.028044,0.050936,-0.076326,-0.19657,-0.13081,-0.47236,-0.52729,0.0074302
0.0074791,-0.067205,0.072644,0.077678,0.11613,0.2291,0.24645,0.0011528
0.067332,-0.026424,0.12603,0.15371,0.08027,0.089263,0.44911,0.16793
-0.005007,0.23583,0.028629,0.030637,-0.012444,0.21005,-0.37827,-0.18774
-0.038021,-0.13227,-0.16509,-0.05748,-0.068603,-0.34643,0.086052,0.019593
-0.00077561,-0.13904,0.068501,-0.0088197,-0.0022679,0.34062,0.32722,0.1175
-0.026251,0.081931,-0.090234,-0.14289,-0.047431,-0.027195,-0.34211,-0.10544
-0.0050201,0.037556,-0.054268,-0.060032,0.038829,-0.052999,0.17945,-0.040087
-0.014938,0.1019,0.060572,0.17869,-0.00032131,-0.55054,-0.26458,-0.045709
0.053789,-0.038378,0.11505,0.19188,0.039311,0.22172,-0.072662,0.10465
-0.009328,-0.094838,-0.061565,-0.18337,-0.020991,0.31064,0.31022,0.0053405
-0.047695,-0.052153,0.070468,-0.04004,-0.016457,-0.033147,-0.23253,-0.069593
0.071626,0.027238,-0.05909,-0.0028395,-0.0092608,0.0038676,0.2372,0.075641
-0.026524,0.073402,-0.067958,-0.14224,0.0083135,-0.030151,-0.60059,-0.050927
0.079303,-0.084949,0.12096,0.33812,0.14516,0.14748,0.76168,0.19906
-0.095888,0.13095,-0.071821,-0.1016,-0.10726,-0.2586,-0.12227,-0.19034
0.0019093,-0.0049058,-0.046151,-0.04817,-0.046678,-0.21562,-0.011858,-0.0086321
0.004913,-0.13279,0.11856,-0.033618,0.013662,0.35597,-0.057509,0.02501
-0.0013176,0.08334,-0.070792,-0.081955,-0.051782,-0.23806,-0.19088,-0.05064
0.045633,-0.044102,0.0025086,0.040884,0.045791,0.37788,0.18806,0.053377
-0.025891,0.054956,-0.028661,0.10045,0.017317,-0.20268,-0.34342,-0.014445
-0.082614,0.013065,0.054979,-0.0047138,0.011411,-0.14486,-0.012029,-0.011787
0.016679,0.048815,-0.066016,-0.07136,-0.026378,0.19008,0.31544,0.02238
0.069425,-0.13462,-0.03907,0.033399,0.052579,0.22147,0.092699,0.033325
0.01351,-0.0056643,0.14457,-0.026436,-0.032895,-0.48326,-0.07039,0.0051892
0.0052942,0.061244,-0.030053,0.084854,-0.0094341,0.07303,-0.025187,-0.031192
0.0055154,-0.089434,-0.047041,-0.039315,0.021209,0.29413,0.11107,0.0017878
-0.064402,0.082032,-0.015943,-0.016507,-0.042775,-0.30604,-0.17733,0.0020619
0.037152,-0.01768,0.10176,-0.018911,0.040576,0.30304,0.0081888,-0.0072936
0.012758,0.041135,-0.093163,-0.070119,-0.033549,-0.19854,-0.19894,-0.026389
-0.020752,-0.023244,0.085997,0.10338,0.047395,0.097048,0.34316,0.077787
-0.032182,0.069525,-0.04107,0.095689,-0.0054033,-0.065353,-0.16843,-0.10833
0.01001,0.0057678,-0.052741,-0.10824,-0.027423,-0.0026032,-0.044159,0.025373
0.043929,-0.082877,-0.019128,-0.054474,-0.010225,0.12509,0.42888,0.057848
-0.078051,0.037081,-0.048966,-0.062452,-0.054667,-0.56919,-0.92755,-0.096056
0.035554,-0.080028,0.11651,0.09525,0.066487,0.47222,0.52773,0.11894
0.0026644,0.027009,-0.01384,0.067745,-0.0056336,-0.124,0.036329,-0.10155
0.065931,-0.023761,0.021888,-0.027406,0.033892,0.25938,0.19814,0.11745
0.0067015,-0.1061,0.036848,0.012929,0.04434,0.33165,0.69041,0.1194
-0.073748,0.21877,-0.070261,0.0087167,-0.060639,-0.47268,-0.95044,-0.27583
0.0036588,-0.063764,-0.0027246,-0.12659,-0.055128,-0.14172,-0.32032,0.032866
0.01153,0.023327,0.012369,0.090634,0.052313,0.039572,0.064087,0.013852
-0.019795,0.026711,-0.03358,0.050295,0.010975,0.044759,0.18734,-0.0049875
0.026011,0.031522,-0.0086796,-0.091954,-0.023438,-0.073263,0.22259,0.069965
0.038875,0.013144,0.047082,-0.00056045,0.011279,0.11477,-0.015848,0.035494
-0.075404,-0.14686,0.054779,0.011817,-0.041141,0.054978,0.098731,-0.069467
0.018947,-0.0041658,0.0060309,-0.039167,0.053915,0.061631,-0.15922,0.012681
0.017365,-0.043676,-0.083789,0.1357,0.0078,-0.19897,-0.12564,0.016012
-0.0094548,0.070576,-0.027084,0.0053461,-0.054004,0.025461,0.081222,-0.020754
0.0093739,0.01096,-0.018751,-0.14102,-0.045139,-0.005386,0.27199,0.042706
-0.019221,0.067317,0.01995,0.0013599,0.050264,0.069038,-0.21179,-0.08285
0.046075,-0.11108,0.034983,0.041796,0.11501,0.42087,0.32319,0.12604
-0.036311,0.14051,-0.012212,0.050452,-0.069941,-0.73961,-0.49144,-0.10379
-0.023731,-0.021229,0.034824,-0.004152,-0.0050736,0.17206,-0.10104,-0.014044
0.021571,-0.080531,0.066575,-0.03632,0.0043435,0.29447,0.10496,-0.041587
0.029304,0.025027,0.043549,0.07877,-0.03439,-0.20271,0.050596,0.079861
-0.031989,-0.025046,-0.19889,-0.080784,-0.0043868,0.14719,0.082238,-0.00073365
0.016977,0.081579,0.049694,0.00081324,0.024037,0.014583,0.15544,0.021595
0.019428,-0.1083,0.046825,-0.027628,-0.042556,0.039504,0.20156,0.099936
-0.033006,-0.0086923,-0.11368,-0.14217,-0.039549,-0.29314,-0.59127,-0.14886
-0.015812,-0.033527,-0.0017452,0.1499,0.080606,-0.036415,0.10454,-0.022195
0.070678,0.16111,0.16451,0.2396,0.091989,0.077788,0.3891,0.080862
-0.04709,0.051889,-0.082963,-0.17758,-0.11429,-0.010191,-0.25517,-0.058991
-0.048685,-0.18931,0.014273,-0.12514,-0.0067495,0.13976,0.14626,0.018795
0.019339,0.10926,0.081644,0.15452,0.031792,0.076352,-0.22849,0.0093762
0.0011801,-0.083856,-0.091597,-0.065434,0.024546,0.034631,0.072957,-0.032474
0.084817,0.01234,0.010144,0.042951,0.025856,0.006234,-0.01947,0.081047
-0.057469,0.014789,-0.066443,-0.12189,-0.1209,-0.27603,0.026669,-0.024601
-0.011356,0.063922,0.084624,0.05744,0.068358,0.35755,-0.11491,-0.067622
0.027917,-0.020068,-0.021324,0.018787,-0.039385,-0.42338,-0.012469,0.022847
-0.025694,-0.096577,-0.025208,-0.042158,0.0089209,-0.034745,0.23419,-0.0027185
0.030685,0.1001,0.049238,0.077973,0.033581,0.31132,0.16519,0.082576
-0.014215,-0.0079825,-0.071747,-0.019278,-0.0044637,0.067544,-0.26626,-0.025819
-0.020118,-0.061205,0.017718,-0.037402,0.019744,-0.15632,0.103,-0.046739
-0.026401,0.011024,0.067213,0.069778,-0.011104,-0.046818,-0.28347,-0.050801
0.029198,0.029267,-0.095585,-0.073665,-0.042508,0.038031,0.025195,0.031813
0.021531,0.0015019,0.17736,0.078173,0.05813,-0.00187,0.16718,0.0364
0.0052422,-0.0097344,-0.012662,0.087001,0.0015794,-0.040176,0.17933,0.056003
-0.011801,0.042313,-0.17347,-0.14914,-0.040338,0.1038,-0.018106,-0.027242
0.025249,-0.0066912,-0.023492,-0.13011,-0.012816,0.18058,-0.074244,0.028334
-0.023965,-0.071205,0.023852,0.058838,0.021952,-0.34111,-0.16045,-0.082199
-0.034086,0.012357,0.086651,0.15322,0.0097503,-0.0086816,-0.17341,-0.054037
0.018734,0.032538,-0.02161,-0.064402,-0.033231,0.059758,0.22567,0.066433
-0.029167,-0.018988,-0.026618,-0.15531,-0.020501,0.15211,-0.084698,-0.048129
0.010016,0.0057343,0.07222,0.20164,0.056187,-0.0062625,0.094371,0.032895
0.04265,0.06724,0.0173,0.092606,0.03299,0.1227,0.10962,0.083839
-0.0095123,-0.061314,-0.12126,-0.19374,-0.066702,-0.36005,-0.076144,-0.05867
0.025035,-0.083146,0.10134,0.083871,0.061496,0.13922,0.10781,0.04324
0.012925,0.14252,-0.034374,0.025776,-0.0047897,0.050758,-0.066154,-0.016659
0.0082252,0.0067416,-0.0057054,-0.06453,-0.055206,-0.23372,-0.15513,-0.012102
-0.091166,-0.075656,-0.00079049,-0.00043145,0.011253,0.19337,-0.02184,-0.084237
0.011299,0.029181,-0.027867,0.0067874,-0.0011529,0.02074,0.033038,0.01628
-0.0047268,-0.036876,-0.032428,-0.050422,-0.0067242,-0.039883,0.14634,0.070007
0.0094528,-0.05378,0.063681,-0.022823,0.017939,0.17567,0.088218,0.0059784
0.023068,-0.059455,-0.0050096,-0.0030515,0.0026526,-0.091035,-0.15146,0.018947
0.0054441,0.08748,-0.0039387,-0.036846,-0.028912,-0.13812,-0.12061,-0.078997
0.027428,0.21534,0.051393,0.32979,0.05632,0.17347,0.43909,0.11037
-0.043419,-0.090372,-0.057746,-0.1762,-0.022666,-0.024991,-0.47816,-0.13171
0.011793,0.020885,0.027936,0.038814,-0.023521,-0.08621,-0.17372,-0.00032272
-0.0023587,-0.13976,-0.019827,-0.11949,0.014774,-0.1826,0.26281,0.07525
0.023181,-0.065975,-0.013664,-0.0034619,0.045358,0.19382,0.30451,0.017394
-0.013605,0.10813,0.046384,0.073578,-0.033348,0.090721,-0.25584,-0.063978
-0.027265,-0.055886,-0.058342,-0.10775,-0.049486,-0.27976,-0.11885,0.019109
0.036474,0.0039547,0.016146,0.084994,0.043834,0.38842,0.19291,0.056065
-0.017949,0.11568,0.020212,-0.051412,-0.042397,-0.22385,-0.14184,-0.070114
-0.010886,-0.032964,-0.045724,0.076853,0.043457,0.064048,0.28055,0.031215
0.026597,0.019432,0.014049,-0.069146,0.012395,0.018282,-0.074909,0.016171
-0.037944,-0.10932,0.074819,0.05753,-0.018373,0.0062104,-0.0015065,-0.021729
-0.0087284,0.0033192,-0.035174,-0.058826,-0.0020154,-0.15198,-0.10473,-0.035904
0.028775,0.10021,-0.058205,0.089369,0.014486,0.027753,-0.098491,0.012396
0.012424,-0.036841,0.044515,-0.037263,-0.015899,0.03711,-0.34373,0.021309
-0.0029296,-0.032394,0.014767,0.10787,0.039472,0.023945,0.3548,0.0062024
-0.0095415,-0.034654,0.039593,-0.11594,-0.053928,0.089176,0.25614,0.01376
0.031366,0.097037,-0.061108,-0.12255,-0.030581,-0.11942,-0.12974,-0.0029825
0.0099862,-0.059354,-0.076693,0.026063,0.039153,0.11635,0.24665,0.065394
-0.035086,0.11307,0.07866,0.10416,0.014662,0.030486,-0.40103,-0.13246
-0.033928,-0.050121,0.022206,-0.13734,0.013198,-0.28329,-0.11714,-0.033692
0.0054268,-0.088296,-0.011454,0.27115,0.027063,0.12853,0.1395,0.057506
0.020482,-0.048556,-0.01418,-0.044813,-0.021697,0.18861,0.25328,0.055709
0.019263,0.069007,0.0065714,-0.1241,-0.046917,-0.20348,-0.063941,0.031674
-0.029107,0.061277,-0.042623,-0.052859,-0.040501,0.0082005,-0.21038,-0.10027
-0.0070071,-0.07951,0.041603,-0.034747,0.044736,0.012304,0.086892,0.050552
0.03909,0.091979,0.03282,0.21856,0.037206,0.0049227,-0.15769,-0.031716
-0.015542,-0.033675,-0.022074,-0.11405,0.0074131,0.095614,0.14788,0.019678
0.024503,-0.0034539,0.03312,0.13862,-0.0055315,-0.044301,0.13425,0.040084
-0.036203,-0.012793,-0.075115,-0.17231,-0.040823,-0.025488,0.11944,0.005432
-0.010461,0.063242,0.035968,-0.031295,0.0027901,-0.13108,-0.34396,-0.084843
0.023175,-0.064362,-0.00084527,0.038523,0.023294,0.30083,0.1722,0.0423
0.0095294,-0.11417,-0.06837,-0.0091541,0.012341,-0.028732,-0.051525,-0.011746
0.026276,0.078188,0.0052392,-0.048622,-0.014985,0.042756,0.024303,0.010907
-0.059728,0.0052248,0.047989,0.13167,0.018979,-0.18852,-0.22395,-0.061348
0.016996,0.08127,0.090875,0.024239,-0.018894,-0.16752,0.11204,0.037499
-0.016909,-0.037308,-0.054,-0.08191,-0.034963,-0.18201,0.018984,0.042224
0.010728,0.055698,0.058207,0.086206,0.00994,0.13708,-0.10264,4.1199e-05
0.030063,0.0085683,-0.096381,-0.011206,0.02237,0.40109,0.53746,0.12212
-0.036468,-0.10073,-0.025852,-0.078095,0.010583,0.017734,-0.40435,-0.2242
0.02263,-0.0066228,-0.0036692,-0.083925,-0.017104,0.17521,0.11779,0.093961
-0.026554,-0.013667,0.03291,0.072415,0.010112,-0.49383,-0.1637,-0.056125
0.042829,-0.012187,-0.064102,0.039257,0.014514,0.1583,0.045653,0.028746
-0.026967,-0.017429,0.033943,-0.089416,-0.019239,-0.056824,0.063823,0.012711
0.021703,0.09592,0.06188,0.16346,0.0027466,-0.10086,0.1703,-0.0026525
-0.022469,0.05452,0.082493,-0.021752,-0.013281,-0.0053259,-0.29198,0.01381
-0.011567,0.022233,-0.02133,-0.027114,-0.0049495,0.073763,-0.080473,-0.024087
0.022577,-0.11864,-0.12467,-0.078452,0.011886,0.058869,0.056243,0.039505
0.0090984,-0.0016389,0.022344,-0.011068,0.029114,0.15383,0.050087,-0.006847
-0.021178,-0.02603,0.013388,0.050479,-0.0082832,-0.11733,0.21616,-0.0073846
0.017469,0.049599,-0.057722,-0.081166,-0.022498,-0.066784,-0.17739,-0.0093392
0.023519,0.0137,0.051405,0.007819,-0.029414,-0.022637,0.090162,0.096575
-0.057391,-0.048158,-0.033955,0.1371,0.033305,0.03051,-0.089289,-0.15812
0.0018669,0.012365,0.069255,0.10256,0.064049,0.272,0.19093,0.055347
-0.0011108,0.054827,0.048644,-0.034461,-0.077727,-0.54069,-0.34297,-0.058937
0.0047372,0.056235,-0.072446,-0.14221,-0.001212,0.26416,0.19093,0.01574
0.01222,-0.12337,0.010361,-0.096374,-0.0030166,0.40533,0.08817,0.07724
-0.0017463,-0.037828,-0.094043,-0.014271,-0.012544,-0.62475,-0.090261,-0.084745
0.025325,0.040341,0.11377,0.11241,0.056389,0.21336,-0.1819,0.13924
0.0070891,0.11985,0.05513,-0.012186,-0.030443,-0.10347,0.014787,-0.11076
-0.0025076,-0.10326,-0.12979,0.074172,0.047294,-0.0048534,0.11544,0.062548
-0.027851,-0.050421,0.0040707,-0.025655,-0.030818,0.18075,0.1577,0.0013441
0.055081,-0.049721,0.089506,0.056555,0.0084581,0.23378,0.27318,0.10241
-0.082652,0.20312,-0.084218,-0.14736,-0.069491,-0.12819,-0.32012,-0.19034
0.0037603,-0.027105,-0.0010974,-0.059235,0.031992,-0.015813,-0.30979,-0.0027801
0.0017211,0.0085029,0.0034008,0.14078,0.015886,-0.28167,0.039291,-0.014702
0.020928,-0.066236,0.05474,0.076787,0.038398,-0.082465,0.17402,0.04018
0.030807,-0.010127,0.043916,0.036753,0.0058571,0.058616,0.010678,0.030361
-0.02242,0.0043781,-0.021027,-0.042907,-0.034669,0.15811,0.028341,0.020035
0.0028607,-0.053982,-0.077513,-0.13176,-0.028207,0.2564,0.11999,-0.0046689
-0.033062,-0.0049539,-0.031847,-0.12866,-0.029118,-0.098175,-0.02507,-0.034439
0.03457,0.035299,0.014257,0.044603,-0.021485,-0.20899,-0.2418,0.025463
-0.02043,0.021157,0.06841,-0.0022007,0.065179,-0.098509,0.016652,-0.019948
0.012869,0.024144,0.052276,0.27836,0.074612,0.22603,-0.078852,0.016464
0.0090814,-0.0095078,-0.0265,-0.0038348,0.0065984,-0.15713,0.39949,0.032165
0.014379,0.030029,-0.011735,0.010894,-0.014238,0.21267,-0.050779,0.0023362
0.0044231,-0.037008,-0.059606,-0.13045,-0.074267,0.0067188,0.17705,0.034816
-0.045163,-0.00023021,-0.044888,-0.14661,-0.048859,-0.15077,-0.55999,-0.16868
0.067934,0.0066658,-0.037571,-0.045373,-0.00072743,-0.096535,0.11143,0.133
-0.070891,0.0060938,0.1033,0.13428,0.038854,0.14525,0.042241,-0.076286
-0.032133,0.0048964,0.08105,0.079968,0.030958,-0.12911,-0.1969,-0.023046
0.043777,-0.067997,-0.010566,0.0027226,0.046123,0.28317,0.37955,0.066709
0.0089059,0.036957,8.5146e-05,0.043163,-0.024792,-0.31345,-0.0080106,-0.0014397
-0.018861,-0.08664,-0.09836,-0.087909,-0.0097162,0.22939,0.024956,0.023538
0.031531,0.116,-0.009528,-0.062605,-0.041332,-0.064872,-0.074669,-0.029255
-0.0033381,0.027953,0.023934,0.040674,0.013248,-0.10242,-0.032204,0.028457
