-0.007025,-0.091361,-0.074993,-0.024546,0.0016407,0.015785,0.019298,0.019462
-0.055036,0.034007,0.054432,0.033639,0.040975,0.037889,0.0017743,-0.060675
-0.13655,-0.045936,-0.051387,-0.018874,-0.069843,-0.073969,-0.048448,-0.034257
0.20212,-0.03508,0.029517,0.0053719,0.028922,0.039916,0.025236,0.044694
-0.045842,0.0116,0.039462,-0.010649,-0.013697,-0.018427,-0.034393,-0.025823
-0.14476,0.086613,0.0097969,0.0037098,0.013963,0.024988,0.046844,0.052453
0.10977,0.19097,0.057746,0.017653,0.011059,0.022277,0.011899,-0.047209
0.078065,-0.033013,-0.043249,0.0082452,-0.014013,-0.033894,-0.013571,0.020079
0.010503,-0.35651,-0.050984,-0.016232,0.0093952,-0.026007,-0.013508,0.036233
-0.20263,-0.1207,-0.19975,-0.094483,-0.0515,-0.024251,-0.026849,-0.053376
0.14858,0.18475,0.1825,0.1018,0.09208,0.065009,0.039952,0.047561
0.10161,0.18671,0.18974,0.049131,0.033353,0.038288,0.030132,0.025453
-0.087503,-0.082833,-0.19344,-0.073068,-0.064284,-0.026842,-0.017985,-0.027361
0.056195,0.023729,0.033133,0.039422,-0.037431,-0.013863,-0.0036743,-0.010784
-0.038653,0.019516,0.14296,0.042269,0.043079,0.021874,0.01758,0.050498
-0.12223,-0.02912,-0.30932,-0.15888,-0.11211,-0.10767,-0.072022,-0.10994
-0.092197,0.029232,0.0041988,0.021408,0.059462,0.042494,-0.0071915,-0.031399
0.18589,0.29906,0.16912,0.09059,0.057967,0.081687,0.047994,0.028645
0.0032012,-0.47366,0.16932,0.032923,0.00089773,-0.05238,-0.0077521,0.0319
-0.34905,0.13843,-0.17545,-0.026463,-0.02545,9.5621e-05,0.021377,0.034061
0.35735,0.29147,0.087379,0.037829,0.080835,0.044374,0.034427,0.08303
0.31074,-0.88738,-0.15191,-0.13294,-0.062744,-0.075173,-0.069549,-0.062525
-0.2234,0.23867,-0.04176,-0.022294,-0.073087,-0.0064165,-0.0087744,-0.073898
-0.1835,0.448,-0.011396,0.034744,-0.020235,0.032316,0.021803,-0.005499
0.077443,-0.098303,0.20575,0.093756,0.088249,0.025594,0.0067145,0.064553
0.19083,0.12691,0.27508,0.13201,0.096327,0.035844,0.047449,0.089189
-0.29752,-0.077548,-0.55183,-0.22507,-0.12868,-0.046643,-0.051588,-0.15066
-0.16935,0.31182,0.023466,-0.00089262,-0.024269,-0.027097,-0.0095894,-0.030368
0.19249,-0.13614,0.017806,0.022938,0.010989,0.015699,0.016667,0.043421
-0.21182,-0.24398,-0.021395,-0.044925,-0.015414,-0.028288,-0.028031,-0.015622
0.31293,0.087673,0.17888,0.12261,0.099155,0.10601,0.090262,0.10461
0.2427,-0.70519,0.28118,0.071207,0.025951,-0.081759,-0.06622,0.0052963
-0.072201,0.53306,-0.28719,-0.1457,-0.095064,-0.021388,-0.03659,-0.071706
0.14,-0.0021839,0.34588,0.12705,0.10272,0.076353,0.069952,0.084325
-0.4191,0.1503,-0.22849,-0.080014,-0.084212,-0.077187,-0.050911,-0.10476
-0.21131,-0.09549,-0.37929,-0.14211,-0.085606,-0.020501,-0.0080568,-0.044984
0.26367,0.2285,0.049299,0.034787,0.020652,0.028285,0.0037225,0.04533
-0.070658,0.30851,0.027004,0.060769,0.055376,0.04629,0.023925,-0.020738
0.093093,-0.16933,0.016882,0.0070863,0.0035567,0.0026508,0.021564,0.046456
-0.1246,-0.35416,0.13092,0.093428,0.02202,0.0069094,0.0044878,0.012973
0.13881,-0.222,0.184,-0.046641,0.03304,-0.011295,-0.0040394,0.035249
-0.059543,-0.23946,0.029288,0.063903,-0.017909,-0.020911,-0.012156,0.03506
0.30498,0.44066,-0.13741,-0.11381,-0.0058808,0.032491,0.011013,-0.073861
-0.16623,-0.2323,0.1131,0.021783,-0.0091794,-0.093502,-0.059851,-0.04977
-0.083944,0.55762,-0.040596,0.040971,-0.051423,0.0072319,0.0016359,0.0053438
0.041819,-0.28146,-0.17785,-0.056214,0.031378,0.061241,0.05485,0.044317
-0.072693,0.13287,-0.15116,-0.035255,-0.002865,0.021729,-0.017223,-0.018881
-0.10944,0.22748,-0.070304,-0.083446,-0.060136,-0.040856,-0.018972,-0.020082
0.17207,-0.29918,0.25224,0.11969,0.086493,0.068945,0.04214,0.064403
-0.15102,0.070728,0.019793,0.06631,-0.015738,-0.04717,-0.021055,-0.054169
0.077259,-0.2384,0.13859,0.021751,0.016241,-0.021901,0.0026297,0.03857
0.10704,0.24606,-0.055875,0.0088749,-0.020624,-0.019227,-0.011676,-0.024346
-0.076973,-0.43088,0.10737,-0.027752,0.021968,-0.01567,-0.0014833,0.022806
0.017671,-0.042285,-0.13061,-0.065429,0.026501,0.090309,0.033061,0.00030907
0.00040274,0.5156,-0.052057,-0.034369,-0.069972,-0.037348,-0.025493,-0.029481
-0.003953,-0.18364,-0.071406,-0.020684,0.0055013,-0.00044901,-0.013428,0.0035302
0.098061,-0.32414,0.07746,0.046151,0.025912,-0.018117,0.0063621,0.01315
-0.12346,0.62802,-0.2134,-0.044276,-0.079409,-0.020522,-0.013391,-0.039935
0.042493,-0.13042,0.13631,0.075894,0.087724,0.062113,0.051957,0.070623
-0.083212,0.18201,-0.019402,0.0088648,-0.011897,-0.0051085,-0.024433,-0.053768
0.078652,-0.25569,0.18887,0.051975,0.051355,0.0274,0.03072,0.063378
-0.032828,-0.36624,0.082957,-0.005487,-0.058441,-0.082769,-0.056026,-0.038862
-0.095475,0.28753,-0.14916,-0.022883,0.0025577,0.015988,-0.0032658,-0.032255
0.06441,0.12035,-0.10963,-0.11751,-0.015478,0.034923,0.03305,0.0052643
-0.0048639,-0.32688,0.12196,0.046463,0.0048844,-0.056664,-0.024811,0.02706
0.1818,-0.13735,-0.0033304,0.023653,0.017065,0.015348,-0.01238,-0.0056901
-0.10231,0.38729,-0.050202,-0.045304,-0.048941,-0.037427,-0.0074496,-0.022487
0.0089354,0.093345,-0.012834,0.042749,0.025886,0.035539,0.044852,0.031445
-0.064352,-0.033426,-0.11926,-0.032528,0.0073579,0.070468,0.019523,-0.0079845
0.10537,-0.40736,0.33284,0.15058,0.11432,0.059551,0.033583,0.062213
-0.093435,0.44606,-0.24259,-0.072289,-0.082919,-0.052099,-0.046037,-0.06285
-0.076587,0.22651,-0.095082,-0.068769,-0.045321,-0.046009,-0.01645,-0.031816
0.12355,-0.20306,0.080903,0.020044,0.0083368,-0.016118,-0.018388,0.037985
-0.0011449,-0.16715,0.098869,-0.032824,-0.046921,-0.095222,-0.036132,-0.033178
-0.13767,-0.23153,0.076974,0.069261,0.046787,0.052869,0.032184,0.012578
0.12136,-0.16365,0.10978,0.04505,0.023922,-0.0011248,-0.0083111,0.026978
-0.11313,0.3957,-0.29427,-0.089569,0.01734,0.10258,0.061593,0.010237
0.20738,0.18217,-0.025322,-0.029409,-0.012063,-0.026414,-0.023376,-0.021801
-0.064093,-0.177,0.0029685,-0.00038387,-0.0097419,0.0024319,0.0025355,-0.022087
-0.090528,-0.062082,0.03311,0.021615,-0.022803,-0.045711,-0.032689,0.0016696
0.042703,0.091726,0.09657,0.029326,0.042237,0.054956,0.050234,0.026043
0.0075104,-0.02646,0.05277,0.046491,-0.0023667,0.01444,0.00070818,0.027521
0.030029,0.021594,-0.035955,0.0027872,-0.031779,-0.035349,-0.017873,-0.0096559
-0.11707,-0.108,-0.013728,-0.039603,-0.014798,-0.048219,-0.029566,-0.023154
0.15902,0.13085,-0.084194,-0.010918,0.017396,-0.0010509,-0.0035694,-0.028756
-0.056693,0.05736,-0.021373,-0.036819,-0.013167,-0.0031202,0.0052208,-0.026581
0.016236,-0.13412,0.11948,0.030488,0.0030681,-0.0070722,-0.0031409,0.061417
-0.13053,0.18096,-0.10746,-0.028272,0.019362,0.065956,0.041944,0.024262
0.057463,-0.37985,0.063007,0.036557,0.03576,-0.0019507,-0.023137,-0.02088
0.0021346,0.14563,-0.0022955,0.029524,-0.018119,0.00091822,0.0052685,-0.0037079
0.063082,0.11873,-0.030226,-0.057129,-0.0018052,0.020469,0.010487,-0.0023518
0.076527,0.026101,0.06494,0.034631,-0.017051,-0.036696,-0.022677,-0.0011785
-0.15261,-0.20054,-0.0059506,-0.0073404,-0.040575,-0.053285,-0.023628,-0.047039
-0.0070689,0.0025081,0.030643,0.012721,0.044747,0.040902,0.031177,0.047602
0.059928,-0.075817,0.018828,0.02501,0.0045963,0.0034011,0.0088422,0.0093401
-0.022246,0.52366,-0.29857,-0.11059,-0.043671,0.013519,0.0028651,-0.036812
0.019366,-0.27274,0.21993,0.067329,0.040818,0.016146,0.0050595,0.034121
0.15293,-0.00079314,0.012813,-0.011215,0.008335,-0.020367,-0.0084347,0.042391
-0.20807,0.18609,-0.06747,-0.0023121,-0.031508,-0.010398,-0.014568,-0.082403
-0.02507,-0.28689,0.089052,0.039272,0.038638,0.022426,0.0098168,0.01902
0.037585,0.046008,-0.025299,-0.011785,-0.02336,-0.046934,-0.021334,0.018462
0.073592,0.0041907,0.034386,0.039304,0.016822,0.023808,0.017035,-0.0059895
-0.073088,-0.14517,-0.099991,-0.081549,-0.028462,-0.015152,-0.023308,-0.030893
0.051133,0.023573,0.093735,0.054685,0.012448,0.023913,0.021994,0.02973
-0.029606,0.0079681,-0.018648,-0.036916,-0.0091351,0.008378,0.004811,-0.011559
0.0997,0.056142,-0.0087058,-0.020756,-0.0075355,-0.0069783,-0.0042966,0.032816
0.041805,-0.0061561,-0.010093,0.024963,0.017003,0.0090613,0.010431,-0.0011162
-0.17842,0.09849,0.016032,0.022309,0.017402,-0.0061537,0.0021218,-0.011681
0.081264,0.34075,-0.047022,-0.0048568,0.0013449,-0.0059766,0.0097303,-0.0065402
-0.21655,-0.27966,0.036299,0.014368,0.0078609,0.001534,-0.013793,-0.0089306
0.1327,-0.085187,0.0020516,-0.0052921,-0.017645,-0.0072576,-0.013941,-0.002989
-0.026317,-0.0088398,-0.22601,-0.11789,-0.074951,-0.0090077,-0.022092,-0.066598
0.15804,-0.077764,0.18976,0.10677,0.047215,0.019766,0.032026,0.089499
-0.041727,0.032816,0.023977,-0.010693,0.005501,-0.0066834,-0.015604,-0.0033658
0.083343,-0.070214,0.17549,0.045403,0.050301,0.013525,0.014827,0.021932
-0.016384,0.017982,-0.035845,0.0092337,-0.0055568,-0.020773,0.006277,0.0089252
-0.070594,-0.015491,-0.064354,-0.01022,-0.02124,0.00021979,-0.0098674,-0.027091
-0.074435,0.25945,-0.19295,-0.075963,-0.02012,-0.0012496,-0.0022699,-0.04743
-0.0067571,0.12498,-0.040621,-0.032261,-0.033525,-0.017115,-0.0021617,0.0022511
-0.04069,-0.35524,0.27384,0.11262,0.071148,0.054267,0.037283,0.04357
0.050265,0.12478,-0.23517,-0.11041,-0.05799,-0.029412,-0.040289,-0.03299
0.017157,-0.050872,0.064481,0.032767,0.023966,0.012785,-0.0006257,-0.00089895
0.080656,-0.021616,0.094479,0.049788,0.019682,0.00071425,0.0077176,0.030521
0.063503,-0.33336,0.24579,0.096791,0.045896,-0.0036479,0.0080981,0.045754
-0.14113,0.40512,-0.27764,-0.099709,-0.077455,-0.032044,-0.022948,-0.064428
-0.10124,0.14699,-0.10744,-0.016228,0.032209,0.047966,0.023984,0.012643
0.0052339,-0.053579,-0.046807,-0.051029,-0.023581,-0.0059878,0.016163,0.011532
0.31992,-0.0023106,0.085511,0.0071344,-0.010266,-0.037624,-0.030676,-0.036315
-0.15707,-0.14583,0.072128,0.041493,0.0022164,-0.015465,-0.014861,-0.013536
-0.18426,-0.11828,-0.031379,0.0056302,-0.024705,-0.0016487,-0.0066285,-0.0059577
0.15099,0.032398,0.11893,0.017142,0.065726,0.043283,0.040907,0.056729
0.01092,0.086739,-0.047824,-0.0096236,-0.015134,0.01029,0.0026647,0.018123
0.10453,0.020941,-0.017268,0.0035782,-0.001412,-0.0066888,-0.01215,-0.028322
-0.10107,-0.032333,-0.0097767,-0.013604,0.021006,0.0158,0.011851,0.026377
-0.028826,0.098683,0.0042541,0.0089912,-0.026134,-0.016135,-0.011522,-0.021299
-0.0071257,-0.14871,-0.015521,0.024302,0.020984,-0.0011604,0.0034615,0.00023818
-0.074486,-0.11076,0.016203,0.00092891,-0.0097956,-0.017632,-0.0057951,-0.018464
-0.11251,0.46219,-0.14261,-0.076813,-0.048394,0.0046143,-0.0079901,-0.038158
0.20846,0.023131,-0.0067336,-0.021383,0.0066091,-0.0047434,-0.010727,0.027537
-0.047595,-0.25573,0.034539,0.026698,0.0067368,-0.0065054,0.0019549,0.0073658
0.18284,-0.23271,0.13889,0.036272,-0.0011023,-0.023859,-0.00079431,0.0035738
-0.037378,0.039383,0.041895,0.046401,0.069089,0.060679,0.036098,0.040197
-0.11484,-0.061946,-0.0057773,0.017883,-0.032646,-0.026073,-0.019888,-0.046433
0.051152,0.012928,0.066247,-0.00269,0.029638,0.02854,0.011083,0.032855
-0.087355,0.39925,-0.26598,-0.11725,-0.048764,-0.01766,-0.0038203,-0.019005
-0.015696,-0.034229,0.027871,0.041002,-0.010058,-0.00074176,-0.0022657,-0.0071589
0.046818,-0.099603,0.079475,0.010824,0.0051455,0.0009332,0.0076658,0.028703
0.076741,0.10073,-0.096714,-0.043923,-0.018725,-0.0051043,-0.013396,0.0019552
-0.1207,-0.18504,0.11542,0.056376,0.019971,-0.0034938,-0.0032365,-0.033336
0.049192,-0.037422,0.066574,0.0070609,0.011929,-0.010057,-0.008951,-0.0073108
-0.1156,-0.099524,-0.05629,-0.0042617,0.0040528,-0.0014602,-0.0072363,-0.029567
0.073395,0.13422,0.012354,-0.00086341,-0.0036955,-0.016772,0.0018525,0.040551
0.16361,-0.056736,0.10891,0.056551,0.051092,0.05345,0.041754,0.06267
-0.13404,0.10755,-0.18738,-0.081699,-0.066071,-0.025051,-0.020314,-0.072168
0.093856,0.016865,-0.031033,0.014499,0.01974,0.029119,0.018817,0.019358
-0.060087,-0.0011395,-0.083949,-0.044951,-0.019586,-0.0026346,-0.012676,-0.03723
0.059023,0.014373,0.038965,0.0061615,0.011394,-0.018575,-0.0053405,0.047595
-0.034452,-0.11601,0.14436,0.051216,-0.019897,-0.049767,-0.021564,0.0085579
-0.052327,0.12405,0.092806,0.035965,0.0040208,0.03679,0.016934,-0.021337
-0.10429,-0.037705,-0.06866,-0.047187,-0.0025315,-0.00092916,-0.014658,-0.018645
-0.080697,-0.083994,0.002694,-0.0030088,0.030897,0.024661,0.016658,0.0086369
0.18319,-0.10658,-0.015484,-0.019399,-0.012939,-0.058352,-0.021794,-0.010164
0.063206,0.22476,-0.1103,0.012327,0.014108,0.046713,0.026285,0.018199
-0.010205,0.029152,0.074657,0.028765,0.0021719,0.011376,0.004574,0.015007
0.13531,-0.067006,-0.002389,-0.0023329,-0.0024865,0.014848,0.0066305,0.018722
-0.086012,-0.12563,0.070594,0.035284,0.038586,0.025362,0.016548,-0.002425
-0.072605,-0.35811,-0.059003,-0.023171,-0.054764,-0.082533,-0.044114,-0.025338
-0.20731,0.7106,-0.094225,-0.060883,-0.040554,-0.0044369,-0.011578,-0.057919
0.1584,0.054601,0.036404,0.00032716,0.018836,0.0096034,0.012398,0.025022
0.016959,0.038124,0.084906,0.012499,0.014464,0.03011,0.019931,0.028615
-0.10002,-0.58394,-0.079015,-0.00012453,0.0016908,-0.044054,-0.027979,-0.015278
0.30775,0.13149,0.00033464,0.010301,0.020351,0.045479,0.025087,0.042452
-0.19713,0.081835,0.043881,0.021272,0.0008547,0.010224,0.0074962,-0.0085243
-0.060197,-0.1387,-0.017269,-0.005565,-0.0093872,-0.0087112,-0.01018,-0.034953
0.06175,0.018627,0.098576,0.0082633,-0.010128,-0.050077,-0.02771,-0.0053763
0.066303,0.35361,-0.0779,-0.015433,-0.0014502,0.034653,0.017568,0.017655
-0.00065213,0.010323,-0.016868,0.0010297,-0.0071873,0.010973,-0.0070926,0.0025975
-0.1557,-0.32041,0.060965,0.041329,0.042343,0.019196,0.031081,0.011477
0.19416,-0.24528,0.012894,0.0031267,0.037026,0.0042271,0.014774,0.04373
-0.20146,0.36226,-0.092546,-0.036114,-0.062901,-0.034338,-0.032751,-0.057424
0.071538,0.268,-0.037717,-0.053333,-0.015756,0.0047675,-0.0022902,-0.011127
0.021482,-0.12315,0.075591,0.021791,-0.0014255,-0.01138,-0.0033287,-0.012844
0.03207,-0.48573,0.084004,0.017785,-0.0041241,-0.035806,-0.0046273,0.02348
0.049782,0.29384,-0.15947,0.0056634,0.031322,0.041141,0.0095393,0.012279
-0.088138,0.31312,-0.10606,-0.06061,-0.050633,-0.0067281,-0.015326,-0.045898
-0.036642,-0.27545,0.066428,0.046304,-0.0070334,0.00063451,-0.00086258,0.021431
0.056978,-0.021719,0.17197,0.061308,0.061214,0.016597,0.014085,0.019493
-0.017362,-0.10708,-0.0074604,-0.015438,0.029514,0.025592,0.029665,0.018962
-0.024839,0.23398,0.14512,0.011136,0.0073158,0.0040339,-0.0087713,-0.011293
-0.012365,-0.11427,-0.16035,-0.047048,-0.052503,-0.024948,-0.015361,-0.0010978
0.082034,-0.26622,-0.089435,-0.018882,-0.017615,-0.053934,-0.029339,-0.028923
0.054288,0.35988,0.020316,0.032349,0.033261,0.057329,0.042819,0.045392
0.020374,-0.16185,0.04263,0.027897,0.013636,-0.0039332,-0.010062,0.0026191
-0.060039,-0.031181,-0.015341,-0.024769,-0.030014,-0.019092,-0.0084979,-0.017012
-0.19588,0.20738,-0.11448,-0.063155,-0.050993,-0.019359,-0.0073214,-0.076245
0.049542,0.11742,0.027146,-0.0088368,0.013231,0.011054,-0.0066066,0.00452
0.074187,-0.14503,0.06681,0.044931,0.03784,0.025497,0.017073,0.069072
0.034125,-0.21405,0.02899,0.012752,-0.0081845,-0.03832,-0.01437,-0.015315
-0.00035227,0.17414,0.047226,0.035687,0.039397,0.061931,0.03194,0.02486
0.0098378,-0.044961,0.035785,0.0045744,0.00095552,-0.0096455,-0.0079832,0.0099002
0.0021967,-0.00585,0.0021101,0.0053093,0.024858,0.020347,0.014387,0.017851
0.062668,-0.014343,-0.20306,-0.056119,-0.068737,-0.043479,-0.033654,-0.06076
-0.082071,-0.078728,0.083285,-0.00039848,-0.0065478,-0.021483,-0.0035326,0.016209
0.099585,0.051091,0.039833,-0.0075836,0.0082248,-0.015193,-0.0044594,-0.016783
-0.20416,0.12558,0.0096289,0.031459,-0.00091935,0.022403,0.01062,-0.011057
0.023386,-0.057793,0.039309,0.03075,0.020917,0.02902,0.01843,0.010329
0.08821,-0.0063235,-0.058341,-0.032975,-0.0040705,-0.0029058,-0.012172,0.016569
-0.094324,0.084975,-0.13413,-0.08124,-0.028651,-0.018477,-0.010856,-0.031003
-0.015422,0.028649,-0.030758,0.0035749,-0.02127,-0.017578,-0.0089707,-0.014966
0.12997,-0.23798,0.20599,0.073427,0.080743,0.054462,0.047958,0.080289
0.036713,0.019136,0.04573,0.042617,0.0039376,-0.013453,-0.012246,0.020096
0.078558,0.049534,0.012363,0.028335,-0.017511,-0.018469,-0.010236,-0.032003
-0.043228,-0.022336,-0.089474,-0.055599,-0.02301,1.4111e-05,-0.0088287,-0.0063226
-0.072918,0.17788,-0.0806,-0.053359,-0.012964,0.0025944,-0.00043656,-0.012822
-0.13737,-0.022389,0.030362,0.026739,0.012253,0.0046192,-0.00076732,-0.044073
0.059036,-0.092552,0.078434,0.0045562,0.021128,-0.0097081,-0.0019275,0.02484
0.047161,0.11537,0.07842,0.051656,-0.0098769,0.0064443,0.019753,0.01447
-0.14128,-0.17996,-0.25151,-0.11333,-0.057263,-0.032783,-0.052577,-0.059053
0.18238,0.20156,0.025907,0.017502,0.019782,0.021217,0.031456,0.054907
-0.081887,-0.35631,0.1373,0.069359,0.057437,0.035845,0.022184,0.021026
0.059679,0.1712,-0.010705,-0.0043425,-0.030019,-0.012127,-0.0020502,-0.0040161
0.1162,0.012135,-0.034763,-0.023637,-0.00027901,-0.013159,-0.0099316,-0.012253
-0.12237,0.05062,0.018906,-0.011741,-0.009601,-0.029655,-0.017185,-0.011657
0.0084343,0.037474,0.17444,0.086179,0.066887,0.047781,0.038454,0.067667
-0.014762,-0.066208,-0.21587,-0.026646,-0.028822,-0.015269,-0.015206,-0.032659
-0.035897,0.20001,-0.026301,-0.06105,-0.046914,-0.0079555,-0.0066168,-0.02414
-0.023988,-0.14921,0.0016452,-0.016882,0.020331,0.022742,-0.014165,-0.024385
0.051961,0.056913,-0.0065028,-0.0033077,-0.022343,-0.032647,0.0088789,0.0054879
0.01206,-0.041853,-0.019258,0.011165,-0.010652,0.0055044,-0.007796,-0.043798
-0.02667,-0.13336,0.096001,-0.0045034,0.0088829,-0.011255,-0.0015465,0.054657
-0.0019128,-0.17048,0.13546,0.11385,0.075746,0.057744,0.043505,0.051335
0.0079707,0.22246,-0.10516,-0.063509,-0.051844,-0.037408,-0.052022,-0.04544
0.088611,0.0071819,0.021197,-0.013378,0.0014295,0.00029827,0.016864,0.0069528
-0.018154,0.082574,-0.057143,-0.0095486,-0.014254,-0.024293,-0.0074076,-0.0099515
-0.023594,0.018713,0.0025679,0.017877,0.018315,0.0061666,0.015925,0.028956
-0.11545,-0.11516,0.012432,0.0060095,0.028698,0.037133,0.016565,-0.017001
0.018662,0.093253,-0.16007,-0.053257,-0.030225,0.006207,-0.0055922,0.00044546
-0.035277,0.14967,0.01719,0.0039692,-0.033781,-0.024066,-0.011673,-0.028318
0.21505,-0.12738,0.1001,0.013573,0.017662,-0.022457,-0.009723,0.0058276
-0.066149,0.065866,0.011679,0.014639,-0.0012751,0.010945,-0.0077843,0.0010671
-0.074047,-0.11386,0.065176,0.0072121,0.018416,0.01349,0.0095747,0.0040399
-0.019516,-0.48485,0.049776,0.053817,0.013905,-0.015029,-0.012474,0.022335
-0.043155,0.32341,-0.081916,-0.079925,-0.0072695,0.01889,0.011915,-0.022387
0.25351,0.14305,0.059742,0.03566,0.0015873,-0.0022062,0.0045689,0.025931
-0.12161,-0.014301,-0.01856,0.0021597,-0.0064543,0.023001,0.027966,0.018707
-0.027654,-0.083422,-0.067707,-0.00062553,-4.777e-05,-0.015047,-0.0038208,-0.020674
-0.17516,0.36634,-0.13493,-0.050593,-0.041442,-0.038308,-0.036055,-0.006199
0.16293,-0.11919,0.030104,0.0010323,0.010364,0.015761,0.0094909,-0.04702
-0.012859,-0.07414,0.076756,0.014026,0.023004,-0.0011144,-0.0076435,-0.0021575
-0.061528,-0.010421,-0.024903,0.0043958,0.0047216,-0.0027389,-0.0013047,0.019435
0.095095,-0.19035,0.17963,0.042738,0.018362,0.018996,0.0053099,0.025969
-0.082435,-0.063291,-0.0038417,0.01979,-0.014003,-0.013761,-0.0032045,0.017723
0.16286,0.19593,-0.14497,-0.033278,0.0014009,0.032003,0.02018,-0.0052144
0.025141,0.17182,-0.056177,-0.046409,-0.0215,-0.0076812,0.0052006,-0.0039057
-0.098432,-0.32295,0.10585,0.050336,0.0186,-0.015646,-0.0091556,0.01353
-0.1152,0.049122,-0.011298,-0.024714,-0.01143,-0.015447,-0.015266,-0.047068
0.067939,0.0093403,0.08348,0.017101,0.020905,0.00054304,0.010028,0.040445
-0.095975,0.22479,-0.18907,-0.058924,-0.033091,0.00085679,-0.019534,-0.060203
0.12014,-0.12971,0.060677,0.051658,0.029547,0.039968,0.036358,0.041431
-0.032766,-0.10642,0.058514,0.012767,-0.0099694,-0.022925,-0.010059,0.0015816
0.0089793,0.24938,-0.031936,-0.003778,-0.0031253,0.0073769,-0.018321,-0.023357
0.019907,-0.10854,0.015781,-0.013582,-0.012249,-0.0097779,0.019346,0.021553
0.086751,-0.19608,-0.0090735,-0.0087423,-0.0058676,-0.027441,-0.0063313,0.027234
-0.1417,0.056033,0.04238,0.034343,0.024052,0.024866,-0.016999,-0.029465
0.0063227,0.19318,-0.11832,-0.048147,-0.016066,-0.016679,-0.012335,-0.031137
0.11624,-0.028525,0.087631,0.048793,0.037938,0.043513,0.03928,0.045789
-0.000164,0.014398,0.0046133,-0.0025707,0.0063891,-0.013035,-0.0024226,0.0060354
-0.11709,-0.01509,-0.11684,-0.068989,-0.040449,-0.029841,-0.019963,-0.025445
0.0070645,-0.10184,0.16112,0.02967,0.0067274,0.016692,0.010287,0.0059369
0.0048552,-0.23005,0.041827,0.01255,-0.0083871,-0.0061763,0.010274,0.0063225
0.017017,0.14004,-0.1075,0.028373,0.015758,0.034345,0.011208,0.006879
0.004948,0.0093433,0.080299,0.022571,-0.02237,-0.041544,-0.026103,-0.023673
0.047472,0.33179,-0.21513,-0.098685,-0.028975,0.00034189,-0.0080939,0.00063513
-0.07337,-0.15782,0.092114,0.054947,0.042835,0.011317,0.0025182,-0.0060603
0.033765,0.024848,0.017609,-0.0091869,0.021135,0.014542,-0.010116,-0.0046142
0.010011,0.020043,0.029974,0.012994,0.015154,0.0019253,0.02409,0.036269
-0.027243,-0.0789,0.027355,-0.0041868,-0.022207,-0.026781,-0.0044631,-0.024064
0.031238,-0.084608,0.0014617,0.0089256,-0.0052702,0.014174,0.013383,0.025201
0.052175,-0.035747,0.029791,0.020533,0.0032389,-0.00031001,-0.0006941,0.019798
-0.074518,-0.040722,0.0023085,-0.0087722,-0.02024,0.015701,2.871e-05,-0.017083
-0.068434,0.042448,-0.065885,-0.024386,-0.0053726,-0.031455,-0.015775,-0.030994
0.1477,0.027661,-0.057838,-0.080792,-0.022303,-0.0088089,-0.0090203,-0.014307
-0.12215,0.15032,0.026596,0.072456,0.030804,0.02133,-0.0030113,-0.021812
-0.019148,-0.0033372,-0.02299,-0.017161,-0.001992,-0.01117,-0.005332,0.024585
0.10491,0.019286,0.13013,0.080687,0.035823,0.026639,0.023372,0.031157
0.17978,-0.017509,-0.12253,-0.024069,0.019408,0.033264,0.036536,0.076068
-0.22382,-0.099907,0.063499,-0.034177,-0.059026,-0.053793,-0.043684,-0.082826
-0.13645,-0.12045,-0.022316,-0.0041687,0.003546,-0.0080113,-0.0061347,-0.01578
0.052133,0.098904,-0.012851,-0.012241,-0.0040022,0.0064941,0.00086869,-0.011753
-0.016541,0.11958,0.013225,0.019474,-0.0037662,-0.0024985,0.00078274,0.0075608
0.1817,-0.08228,0.06279,0.012473,0.035304,0.019703,0.016958,0.042441
0.053517,-0.10018,0.095657,0.044462,0.034953,0.026273,0.017963,0.0073256
-0.065144,0.23063,-0.1861,-0.10369,-0.098599,-0.068646,-0.051143,-0.066088
0.012875,-0.54992,0.06839,0.075581,0.05661,0.016296,0.020289,0.072668
-0.1036,0.5199,-0.11758,-0.035015,-0.014854,0.01556,0.013228,-0.068179
-0.040112,0.096807,0.037759,-0.013508,-0.023673,-0.00048742,-0.017862,-0.011788
0.0076052,-0.045734,-0.042666,-0.00027382,0.0069775,0.022849,0.012835,0.023137
0.0081243,-0.0017947,0.072244,0.0050377,0.022607,-0.00040739,0.019405,0.044152
0.12553,-0.45938,0.094876,0.018427,0.015481,-0.015636,-0.0057709,0.0037839
-0.085327,0.24513,-0.067325,0.055845,0.0011517,0.00053713,-0.015455,-0.020759
