0.049267,0.17428,0.10212,0.0080941,0.0089315,0.0014918,0.017231,0.023461
-0.12315,-0.023017,-0.69077,-0.14886,-0.077045,-0.036905,-0.030608,-0.03802
-0.0063391,-0.3908,0.19598,0.08483,0.016654,0.010743,0.0080156,0.0025539
-0.053419,0.14163,-0.23583,-0.11897,-0.014778,-0.0040788,0.0081045,-0.026936
0.1576,0.16213,0.77189,0.13041,0.039576,0.027947,0.024276,0.037329
0.040895,-0.28703,0.13908,0.090809,0.03134,0.020834,0.0095223,0.031058
-0.067599,0.3137,0.072399,-0.050308,-0.023752,-0.033269,-0.036324,-0.038133
-0.089919,-0.28192,-0.30932,-0.066477,-0.031836,-0.0093865,-0.01969,-0.021965
0.090789,0.13199,-0.20829,0.026554,0.022803,0.014349,0.020209,0.040396
0.044403,0.087715,0.16615,0.033391,0.015209,-0.0011069,0.012952,0.016105
-0.073256,0.16227,-0.15882,-0.10063,-0.031188,-0.024468,-0.018085,-0.040096
0.034392,-0.2725,-0.33266,0.054328,0.031996,0.022437,0.020838,0.012564
0.00011806,0.013038,0.54546,-0.00149,-0.014079,0.0068332,0.004753,-0.0053673
-0.074237,0.4588,-0.25339,-0.041252,-0.028897,-0.01658,-0.027212,-0.03109
-0.00057282,-0.48702,-0.25299,0.021172,0.018678,0.014682,0.010975,0.02947
0.06571,0.42224,0.83604,0.053001,0.01136,-0.00098429,0.0022446,0.012547
-0.085375,-0.5487,-0.98669,-0.070929,-0.019668,-0.008934,-0.014206,-0.026949
0.11737,-0.022877,0.77648,0.20376,0.074021,0.05332,0.039893,0.067351
0.018366,0.051093,-0.37949,-0.060797,-0.027822,-0.040738,-0.015003,-0.017045
0.00072838,0.26536,0.32661,-0.12261,-0.043791,-0.033172,-0.014703,-0.022409
-0.12313,-0.27197,0.087651,-0.051946,-0.028329,-0.0097271,-0.029426,-0.058267
0.05256,-0.18055,0.33725,0.011007,0.0032312,0.01419,0.018989,0.03144
-0.098072,0.54242,-1.046,-0.018967,0.0042876,-0.00030646,-0.0023196,-0.011321
0.048821,-0.17394,0.30138,0.062123,0.037511,0.024968,0.039314,0.024128
0.16375,0.58042,-0.029238,0.11441,0.048206,0.035216,0.010831,0.051548
-0.012511,-0.28709,-0.80494,-0.04921,-0.01072,-0.0011008,-0.017766,-0.015337
-0.028164,0.059434,0.89513,-0.022615,-0.022484,-0.02972,-0.023364,-0.028435
-0.048276,-0.38732,0.17887,-0.033102,-0.011042,0.0035754,0.017198,0.019765
-0.33119,-0.89024,0.028055,-0.20694,-0.10973,-0.073502,-0.068125,-0.11313
0.42784,1.0098,0.52473,0.40737,0.14977,0.082542,0.072193,0.11971
-0.2393,-0.37304,0.023774,-0.27003,-0.11559,-0.075206,-0.053936,-0.078493
0.42636,0.52079,-0.42408,0.48595,0.20352,0.14095,0.10838,0.15972
-0.26898,-0.083134,-0.66459,-0.35686,-0.11926,-0.081097,-0.057783,-0.10277
-0.31582,-0.27094,-0.65782,-0.4783,-0.15384,-0.092376,-0.075565,-0.12328
0.48283,0.37868,1.0923,0.55208,0.2253,0.15456,0.13343,0.20808
-0.41067,-0.37837,-0.96265,-0.21736,-0.1375,-0.12103,-0.10245,-0.12383
0.035892,0.016545,0.96537,-0.22229,-0.06206,-0.01257,-0.0096344,-0.040512
0.40098,0.58074,0.74178,0.51566,0.17849,0.11285,0.068172,0.11452
-0.25326,-0.8114,-0.38732,-0.14284,-0.064208,-0.034015,-0.040975,-0.072801
0.37688,0.64209,0.22794,0.24811,0.13934,0.093289,0.092454,0.15515
-0.42868,-0.66493,-1.21,-0.28818,-0.13309,-0.10735,-0.094263,-0.14731
-0.085399,-0.40249,0.75809,0.028879,-0.01472,-0.011462,0.0080168,-0.0040975
0.069598,1.0319,-0.27567,-0.16871,-0.03712,-0.017894,0.0084731,0.0061942
0.090251,0.69372,-0.40572,-0.092581,-0.044187,-0.033059,-0.030514,0.00034431
-0.054968,-0.68915,0.2591,0.13968,0.0188,0.029058,0.008213,-0.0063014
0.19658,-0.78545,0.70465,0.27022,0.14419,0.090603,0.070022,0.095505
-0.23282,0.64494,-0.87984,-0.23984,-0.089707,-0.090246,-0.063717,-0.10827
0.14959,-0.13896,0.58485,0.094208,0.043785,0.057176,0.029034,0.054438
0.12567,-0.14823,0.059392,0.077389,0.044665,0.033131,0.028151,0.044876
-0.28835,-0.086716,-0.53643,-0.14939,-0.087167,-0.076311,-0.058354,-0.089648
-0.052878,-0.047535,0.19192,-0.12497,-0.031546,-0.0055125,-0.02716,-0.036136
0.28563,0.22738,0.497,0.26014,0.10204,0.081383,0.075033,0.11217
-0.11634,0.11127,0.044923,-0.11127,-0.061416,-0.05794,-0.017288,-0.034929
-0.12602,-0.17436,-0.56015,-0.075285,-0.060908,-0.048622,-0.046292,-0.070935
0.06874,0.67407,-0.16554,-0.061995,-0.0056602,-0.00018654,0.011344,0.035386
0.19376,0.026871,0.30578,0.27173,0.10446,0.079396,0.053789,0.072757
-0.25198,-0.5138,-0.1991,-0.20776,-0.097715,-0.06006,-0.067809,-0.10792
0.2928,-0.10458,0.55863,0.33461,0.16112,0.089043,0.075726,0.12524
-0.18088,-0.39371,-0.67243,-0.18006,-0.049023,-0.028202,-0.0083211,-0.02567
-0.0020365,-0.38698,0.38059,-0.06464,0.021468,0.025539,0.023367,0.024322
0.17265,1.1936,-0.19738,0.040377,0.01287,-0.0075923,-0.0013094,0.032337
-0.78168,-0.42601,-0.54978,-0.66118,-0.34845,-0.24465,-0.22291,-0.36125
0.53415,0.32623,0.73968,0.56617,0.21101,0.16623,0.12456,0.19539
0.59786,0.25092,0.43555,0.4502,0.25402,0.17865,0.16672,0.25767
-0.58909,-0.68567,0.1197,-0.48471,-0.29707,-0.2069,-0.1816,-0.27487
0.084286,0.11676,-0.90933,0.0041049,0.058254,0.041279,0.049064,0.083345
0.096185,-0.26407,0.66997,0.27597,0.1095,0.048477,0.038979,0.052248
-0.33304,0.40602,-0.39779,-0.25553,-0.14302,-0.091478,-0.070932,-0.10942
0.032409,-0.49089,-0.30281,0.065282,0.10555,0.074404,0.055263,0.036429
0.39671,0.55086,0.30716,0.18334,0.13647,0.11612,0.1126,0.16968
-0.28654,0.34709,-0.22804,-0.21376,-0.19875,-0.1464,-0.14159,-0.17078
-0.0099313,-0.61748,0.066392,-0.17226,-0.017316,0.028627,0.018744,0.014587
0.022095,-0.34583,-0.45161,-0.11301,-0.053586,-0.093429,-0.070944,-0.071778
0.21351,0.63238,0.59772,0.34791,0.08314,0.041994,0.042138,0.084981
-0.0011632,-0.30122,0.44233,-0.015381,0.033525,0.067727,0.053129,0.070006
-0.20338,0.28783,-0.23316,-0.085862,-0.069726,-0.078643,-0.077086,-0.14871
0.0021494,0.036415,0.36891,0.28368,0.1246,0.087329,0.073374,0.076582
0.03489,-0.027066,-0.57388,-0.15118,-0.071616,-0.035945,-0.018938,-0.0046732
0.37794,0.13598,0.209,0.18484,0.16109,0.12951,0.11467,0.16962
-0.66389,-0.56492,-0.65094,-0.46897,-0.24072,-0.20562,-0.18219,-0.26013
0.043717,0.43285,0.73947,-0.060192,-0.051308,-0.010393,-0.0034133,0.00298
0.38617,-0.67838,0.13806,0.65223,0.29909,0.19931,0.15087,0.18576
-0.32866,0.12592,-0.96506,-0.68293,-0.26779,-0.17824,-0.1491,-0.19573
0.4493,0.70104,0.37047,0.46734,0.15464,0.099168,0.11237,0.16381
-0.4492,-0.65172,-0.57602,-0.46437,-0.15159,-0.093268,-0.080153,-0.1256
0.31345,0.5318,0.67833,0.30672,0.13496,0.10421,0.070539,0.13984
0.17534,-0.38085,0.23899,0.15912,0.039005,0.028052,0.01803,0.015418
-0.27797,0.80994,-0.16058,-0.22459,-0.14913,-0.14926,-0.11996,-0.13897
-0.17256,-0.73156,0.20691,-0.037994,0.016857,0.041598,0.032125,-0.010408
-0.048893,0.26476,0.32822,0.070814,0.0063234,-0.023897,-0.025271,-0.051779
0.36512,0.058698,0.17751,0.21015,0.12402,0.099826,0.098755,0.15103
-0.15815,-0.7082,-0.85148,-0.17685,-0.028966,-0.0013077,-0.0098458,-0.0037396
0.0056409,0.46517,0.041763,0.11011,0.015194,-0.0072814,-0.0075998,-0.016551
0.059436,0.042145,-0.14375,-0.095931,-0.057188,-0.020187,-0.0044113,0.018169
-0.19184,-0.012083,-0.451,-0.22699,-0.083258,-0.064114,-0.055654,-0.087868
0.1508,-0.027103,0.76206,0.21554,0.1235,0.094674,0.072341,0.09427
0.11149,0.28659,0.2593,0.16116,0.031249,0.0025549,0.019614,0.032774
-0.25436,-0.34257,-0.76295,-0.45175,-0.19602,-0.1298,-0.12044,-0.17104
-0.0087737,-0.41972,0.46253,0.17532,0.059251,0.049184,0.019329,0.022034
0.35624,0.72191,-0.38473,0.24744,0.12592,0.086613,0.087582,0.12808
-0.33146,-0.18905,0.30871,-0.33529,-0.16703,-0.1343,-0.10272,-0.12564
0.044621,-0.26895,0.4408,0.2172,0.12649,0.10564,0.058346,0.050714
0.02249,0.20823,-0.09499,0.061244,0.014832,0.0021391,0.0088311,0.0093471
0.31968,0.43604,0.43526,0.32888,0.099741,0.063295,0.077273,0.11786
-0.27589,-0.22071,-0.96246,-0.49687,-0.15016,-0.10138,-0.07203,-0.10023
-0.07755,-0.022029,0.24228,-0.073738,-0.047734,-0.046545,-0.040589,-0.027928
0.016005,-0.20329,-0.31549,0.019002,0.023776,0.040228,0.0074287,-0.0016155
0.036385,0.087879,0.1442,0.20276,0.056168,0.041641,0.032753,0.025049
-0.0076563,-0.45035,0.046582,-0.061205,-0.021115,-0.019012,-0.019564,-0.010963
-0.16949,-0.18074,-0.50751,-0.16249,-0.059708,-0.04814,-0.032612,-0.055381
0.36477,0.8861,0.69425,0.17378,0.11235,0.086898,0.09491,0.14154
-0.08341,-0.33942,0.34857,0.035038,-0.043827,-0.02814,-0.03566,-0.068699
-0.17739,-0.16784,-0.78721,-0.15566,-0.05145,-0.026234,-0.041683,-0.068798
0.11417,0.27463,0.47058,0.18826,0.066234,0.029978,0.022052,0.039931
0.13458,0.27232,0.45799,0.18395,0.043719,-0.0002094,0.030523,0.062503
-0.32798,-0.54962,-0.60193,-0.48957,-0.1346,-0.069941,-0.070897,-0.10231
0.14731,0.54172,-0.051175,0.13534,0.023386,0.016141,0.0226,0.04576
-0.02651,0.18573,0.032863,-0.051986,-0.005927,0.0003127,-0.0013216,-0.01655
0.54048,-0.2103,0.70617,0.6113,0.27724,0.19518,0.15439,0.22644
-0.65197,-0.75852,-0.66086,-0.53977,-0.26013,-0.18039,-0.16635,-0.22531
-0.11139,-0.10521,-0.97645,-0.20092,-0.071343,-0.040366,-0.033737,-0.075025
0.32698,0.25658,0.9085,0.41705,0.15602,0.099717,0.091374,0.1225
-0.24218,0.18899,-0.081504,-0.38845,-0.14834,-0.11163,-0.072276,-0.10943
0.15843,-0.084965,-0.10713,0.18028,0.085968,0.0678,0.045525,0.072757
0.08377,0.37564,0.62365,0.10835,0.0074458,-0.0026292,0.0070727,0.012563
0.088119,-0.061614,-0.051522,-0.025644,0.061444,0.059803,0.046458,0.076823
0.12352,0.30234,0.21909,0.21584,0.052629,0.020586,0.014936,0.038562
-0.29591,-0.32283,-0.45603,-0.23787,-0.12842,-0.089171,-0.079924,-0.12605
-0.10134,-0.34914,-0.38265,-0.1295,-0.052032,-0.027365,-0.035093,-0.042248
0.11246,0.23778,0.40767,0.1576,0.047511,0.026336,0.024545,0.024352
0.05619,0.29454,0.20515,0.037244,0.053229,0.040827,0.036823,0.03502
-0.14441,-0.40011,-1.0735,-0.25605,-0.081436,-0.06177,-0.044636,-0.040873
0.027887,-0.034116,0.24726,0.090784,0.018879,0.0079067,0.01511,0.0084271
0.10656,0.17658,0.27245,0.14894,0.065439,0.054819,0.02908,0.043158
0.054976,0.12159,0.63707,0.067839,0.011595,0.016659,0.021081,0.025019
-0.038703,-0.11015,0.22382,-0.065648,-0.025388,-0.020564,-0.016548,-0.014211
-0.040034,-0.35598,-0.57154,-0.032103,0.009108,0.013411,0.009866,0.0038181
-0.19825,0.041178,0.089946,-0.27654,-0.11167,-0.092509,-0.064021,-0.085056
0.20516,0.3485,0.038482,0.2478,0.065111,0.020821,0.019181,0.031264
0.13771,-0.16778,-0.020262,0.12628,0.046943,0.048436,0.032414,0.039629
-0.019844,0.13903,-0.33197,-0.032715,-0.0024794,0.013462,-0.0013861,0.0095274
-0.15288,0.16224,-0.038237,-0.027315,-0.028851,-0.021937,-0.027984,-0.036516
-0.053178,-0.044419,-0.43433,-0.17924,-0.040371,-0.019051,-0.00087458,0.0021527
0.073701,-0.21174,0.8426,0.12732,0.064138,0.060845,0.048434,0.046601
-0.039704,0.13808,-0.57056,-0.19472,-0.06724,-0.079415,-0.052073,-0.060033
0.050907,0.091264,0.75152,0.17411,0.041758,0.020907,0.0022759,0.0022249
-0.0061354,-0.37488,-0.47852,0.14746,0.078433,0.057059,0.055333,0.045862
0.10242,0.21864,0.68426,0.069156,-0.019751,-0.025537,-0.025506,0.0087104
-0.15324,-0.021682,-0.35594,-0.27109,-0.088546,-0.031274,-0.036816,-0.046078
-0.06805,-0.14282,-0.21915,-0.036075,-0.03375,-0.029986,-0.0016727,-0.039465
0.1101,-0.040864,0.52985,0.13541,0.075046,0.04926,0.025636,0.037429
0.10982,0.24915,-0.75798,-0.066875,0.020024,0.027478,0.029878,0.045069
-0.12974,-0.31504,-0.29981,0.023547,-0.010287,-0.016518,-0.0042265,-0.01558
0.072258,0.27063,-0.52171,-0.13025,-0.069612,-0.0509,-0.045164,-0.026628
0.013159,-0.030301,0.88559,0.098151,0.022458,0.018459,0.0087756,0.0044444
-0.18223,0.16563,0.6529,-0.0018614,-0.015014,-0.011473,-0.022089,-0.024026
0.21966,0.1462,0.43896,0.32652,0.13808,0.085636,0.065215,0.082732
-0.25904,-0.099032,-1.053,-0.45811,-0.14403,-0.08921,-0.065563,-0.1059
0.18474,-0.29191,-0.12239,0.17216,0.051498,0.025666,0.038252,0.057319
0.041424,0.010352,0.37539,0.072856,0.04343,0.038663,0.016743,0.032016
0.14535,0.11134,0.47503,0.30285,0.088024,0.050373,0.041241,0.059177
-0.3172,-0.3867,-0.90496,-0.48428,-0.16757,-0.11186,-0.0762,-0.1199
0.059484,0.026452,0.39812,-0.02403,-0.020934,-0.01097,-0.015508,-0.013404
0.22101,0.46368,-0.52101,0.19997,0.11387,0.087427,0.067106,0.09763
-0.37054,-0.032136,-0.034441,-0.38002,-0.18422,-0.12088,-0.09364,-0.15315
0.20078,0.06567,0.47887,0.27898,0.10186,0.060293,0.049735,0.063682
0.046651,-0.14718,-0.087105,0.048669,0.020783,0.014834,0.013622,0.030946
-0.29936,-0.18593,-0.12936,-0.16829,-0.074057,-0.068659,-0.068388,-0.077966
0.27401,0.13571,0.52264,0.25622,0.11569,0.091962,0.069972,0.11314
0.1819,0.12782,-0.025922,0.15182,0.067445,0.051921,0.038453,0.05806
-0.11466,0.19354,0.30464,-0.075533,-0.062422,-0.048057,-0.02228,-0.055695
-0.07751,-0.25624,-0.24244,-0.24795,-0.047935,-0.0286,-0.02658,-0.041192
-0.11462,-0.23194,-0.80541,-0.0010535,-0.023025,-0.023151,-0.0062478,-0.016638
0.21719,-0.024289,0.65231,0.15419,0.089045,0.053432,0.045842,0.063604
-0.22494,-0.0010607,-0.75857,-0.25387,-0.11154,-0.080903,-0.074122,-0.10639
-0.0054035,0.22089,-0.16587,0.04599,-0.016556,0.018474,0.00048804,0.0035957
0.31976,0.29869,0.69566,0.24777,0.10763,0.077646,0.081825,0.13505
-0.25006,-0.29783,-0.040938,-0.18804,-0.075249,-0.067688,-0.064577,-0.10299
0.04309,0.11969,0.42779,0.059197,0.036485,0.019958,-0.0010737,0.016108
0.12191,-0.32321,0.22255,0.3262,0.13856,0.10639,0.085165,0.10988
-0.24667,0.16261,-0.98512,-0.58127,-0.26842,-0.19872,-0.13357,-0.15706
-0.029909,0.053422,0.53514,0.14254,0.066191,0.042498,0.022816,-0.018429
0.16415,-0.010732,-0.17643,0.20166,0.11168,0.088183,0.070219,0.088854
-0.17146,0.00066618,0.22418,-0.20801,-0.12379,-0.092687,-0.061596,-0.084795
0.29155,-0.045887,-0.14463,0.22628,0.13326,0.093723,0.072531,0.10922
0.19322,0.16947,0.65082,0.1529,0.046734,0.045782,0.050382,0.10048
-0.24099,-0.25168,-1.0846,-0.22519,-0.063391,-0.04917,-0.058167,-0.087867
-0.03576,0.35533,0.3177,-0.064354,-0.064628,-0.058489,-0.042565,-0.057735
-0.020174,-0.25819,-0.46982,0.049588,0.035018,0.033365,0.018853,0.026564
-0.26491,-0.14502,0.094544,-0.28923,-0.12379,-0.07823,-0.084804,-0.13188
-0.043107,0.11115,0.14604,0.044698,0.0060705,0.0053703,-0.0016748,-0.0016445
0.23199,-0.15937,0.3562,0.27044,0.12029,0.081333,0.089014,0.11293
0.17068,0.31068,0.3136,0.16131,0.039513,0.0093041,0.031496,0.048123
-0.077996,-0.095256,-0.10998,-0.11163,-0.040784,-0.030879,-0.01761,-0.00057401
0.017258,-0.034092,0.12364,-0.096636,0.004304,0.015438,-0.0034636,-0.025393
0.21367,0.24225,0.28325,0.22798,0.088516,0.062095,0.034792,0.074949
-0.27877,-0.15191,-0.5744,-0.29562,-0.12453,-0.078753,-0.067168,-0.12183
0.0077572,0.069299,-0.50791,-0.0043414,-0.033691,-0.024662,-0.0049996,0.0088831
0.010324,-0.089127,0.37377,0.12532,0.05614,0.036588,0.025672,0.021573
-0.17696,-0.12893,-0.57158,-0.17882,-0.050279,-0.043545,-0.045656,-0.060253
0.11122,0.066859,0.73849,0.054315,0.030247,0.039737,0.038811,0.045021
-0.091973,-0.18009,-0.41356,0.030857,0.017093,0.005497,0.005783,-0.013585
0.23127,0.1407,-0.094211,0.050858,0.020378,0.010445,0.019597,0.069288
-0.065569,-0.029975,0.55195,0.1405,-0.029498,-0.038654,-0.044419,-0.049518
-0.098468,0.029803,-0.098476,-0.23747,-0.0069912,-0.016327,-0.0062672,-0.033687
0.2265,0.18168,0.78035,0.12066,0.025669,0.054327,0.032712,0.069971
-0.099358,-0.026605,-0.81055,-0.012451,-0.017504,-0.0062437,0.0022945,-0.020059
0.047207,0.076158,-0.37432,0.0019026,0.011571,-0.0028253,0.0039797,0.023801
-0.10163,-0.1448,0.30953,0.043776,0.026359,0.001762,-0.0014895,-0.017916
0.11601,-0.0046322,0.53036,0.13351,0.041757,0.03828,0.032482,0.025932
-0.19999,0.033064,-0.71911,-0.26309,-0.12266,-0.096973,-0.074097,-0.095261
-0.04276,-0.01023,-0.15565,-0.14056,-0.014408,0.017306,-0.0011822,0.016577
0.087594,-0.14314,0.56876,0.19497,0.045744,0.036876,0.016658,0.025426
-0.11306,-0.052716,-0.63291,-0.1008,-0.012783,-0.0073638,-0.0050599,-0.037282
0.19992,0.028128,0.31076,0.15215,0.059928,0.0094131,0.027377,0.071007
0.10555,-0.031492,0.63675,0.15787,0.053,0.032536,0.043668,0.046053
0.026292,0.12171,-0.30001,-0.035512,-0.025592,0.023142,-0.010836,-0.010149
-0.24079,0.18395,-0.50392,-0.32506,-0.13655,-0.15122,-0.089204,-0.12069
-0.00058049,0.061252,0.051426,-0.037657,0.0016579,0.017701,0.011751,-0.011921
0.051248,0.010072,0.032338,0.069868,0.037755,0.046013,0.018662,0.058405
0.10966,-0.096651,0.76839,0.23249,0.081369,0.074722,0.048778,0.074564
-0.012938,-0.25327,0.010372,0.27072,0.046743,-0.0053218,-0.0072312,-0.01837
-0.011615,0.06983,-0.47571,-0.26084,-0.03477,-0.0065948,0.014721,0.029277
-0.33105,-0.16709,-0.86153,-0.29212,-0.092816,-0.077697,-0.088483,-0.15003
0.084315,-0.018317,0.13423,-0.018561,-0.033615,0.007652,0.019101,0.021524
0.27447,0.3768,0.97227,0.24743,0.080382,0.069452,0.048434,0.067195
-0.10365,0.020006,-0.20771,-0.12658,-0.047609,-0.064421,-0.023877,-0.013074
0.23935,-0.071361,-0.11083,0.086556,0.066913,0.051234,0.052255,0.054243
-0.18888,-0.1616,0.28319,0.082766,-0.0056041,-0.03664,-0.051168,-0.050938
0.048648,0.070328,-0.45938,0.089151,0.070911,0.05502,0.041029,0.070168
-0.15811,0.10106,0.31335,-0.23771,-0.11748,-0.087457,-0.069377,-0.10543
0.03394,0.00047202,0.12881,0.039764,-0.00037266,0.028569,0.016268,0.016501
-0.1804,-0.1931,-0.15605,-0.070853,-0.03082,-0.018372,-0.029995,-0.047932
0.10476,0.10547,-0.5495,-0.070114,-0.0057178,-0.0092955,0.010627,0.014115
0.1313,-0.08885,-0.37015,0.10357,0.051351,0.047959,0.04424,0.054322
0.15666,0.059488,1.0419,0.20679,0.085384,0.074938,0.070489,0.08814
-0.053958,0.073878,0.18361,-0.0197,-0.029083,-0.038324,-0.03615,-0.033335
-0.063472,-0.0063121,-0.11917,0.063368,-0.019159,-0.03474,-0.034083,-0.037335
-0.10643,0.030489,-0.93161,-0.32621,-0.041573,-0.016557,-0.025378,-0.049571
0.12213,-0.15855,0.75854,0.21762,0.090917,0.054836,0.044384,0.077829
-0.22059,0.20113,0.41553,-0.17936,-0.13722,-0.10971,-0.066904,-0.0929
0.12474,-0.11578,-0.77887,-0.054409,0.024537,0.044846,0.031841,0.032117
-0.0039947,-0.061233,0.38692,0.23561,0.037985,0.0035727,-0.017992,-0.007569
-0.089247,-0.056211,-0.93165,-0.27532,-0.056748,-0.021677,-0.0045483,-0.015911
-0.0045809,-0.14722,0.5755,0.14954,0.03041,0.032494,0.018348,0.023504
0.30517,0.52475,0.77924,0.16774,0.050143,0.03392,0.043478,0.056611
-0.20766,-0.11183,-0.58402,-0.17402,-0.044292,-0.048439,-0.046189,-0.072571
0.11894,-0.097971,-0.20104,0.11461,0.059053,0.050723,0.045861,0.065452
-0.16347,-0.084535,0.32674,-0.13373,-0.078535,-0.052238,-0.048411,-0.06905
0.20712,0.1135,0.39828,0.20952,0.11155,0.071174,0.068239,0.093206
-0.069625,-0.12311,-0.78906,-0.024092,0.0024495,-0.0022335,-0.011756,-0.011462
-0.19939,-0.030026,0.24599,-0.088191,-0.079378,-0.054861,-0.062993,-0.087256
0.34801,0.13468,0.20682,0.21056,0.10723,0.076653,0.085661,0.14638
-0.38754,-0.21417,-0.81668,-0.45572,-0.18004,-0.13117,-0.10499,-0.16222
0.12006,0.12029,0.28433,0.0094068,0.020711,0.033284,0.029655,0.034407
-0.10157,-0.008267,0.84774,0.032545,-0.038641,-0.053647,-0.056106,-0.05938
0.10881,0.23828,0.033008,0.096235,0.050675,0.055078,0.053355,0.058083
0.17015,-0.059961,-0.5318,0.22216,0.10381,0.07218,0.039393,0.060444
-0.35904,-0.28433,-0.7749,-0.33479,-0.1739,-0.11808,-0.096574,-0.13673
0.22635,0.10505,0.56017,0.17807,0.13291,0.10229,0.09944,0.10805
0.30095,-0.0089032,0.12445,0.35433,0.13367,0.069166,0.065033,0.10732
-0.5052,0.045089,0.17391,-0.49656,-0.22759,-0.16372,-0.13801,-0.17892
0.24844,0.10177,0.35073,0.16681,0.10926,0.089469,0.067025,0.083558
0.14185,-0.11391,-0.15958,0.22039,0.063002,0.037591,0.029851,0.056575
0.082997,0.060361,0.12328,0.024447,0.028921,0.030126,0.0298,0.026893
-0.2847,0.021426,-0.76579,-0.3486,-0.16747,-0.1221,-0.0988,-0.1324
-0.003287,0.041621,0.4132,0.035442,0.019159,0.0097066,0.0024591,0.0072502
-0.19805,-0.19193,-0.24463,-0.19095,-0.090998,-0.058795,-0.033732,-0.06204
0.08658,0.00091712,-0.13194,0.13897,0.081474,0.056202,0.027749,0.051338
0.019391,0.035433,0.30059,-0.0087917,-0.023479,-0.018574,-0.030386,-0.010133
-0.10458,0.030495,0.10588,-0.12005,-0.059018,-0.031017,-0.010955,-0.048791
0.27539,-0.019939,0.11249,0.33497,0.14202,0.10686,0.08794,0.1096
-0.023292,0.033978,-0.75677,-0.021402,0.011858,-0.017395,-0.0055845,-0.0017862
0.41633,0.15385,0.84164,0.4389,0.177,0.11271,0.10003,0.14944
-0.45988,-0.20747,-0.46214,-0.65065,-0.26069,-0.1434,-0.11845,-0.17871
0.057322,0.07373,0.49784,0.16155,0.072955,0.041649,0.010307,0.036544
-0.27762,-0.012386,-0.29547,-0.27608,-0.12845,-0.099045,-0.077263,-0.11239
0.05454,-0.022946,-0.2369,0.079391,0.062616,0.042325,0.04715,0.029064
0.6199,0.24283,0.90995,0.7084,0.24554,0.15954,0.13995,0.23264
-0.50684,-0.21679,-0.82958,-0.56412,-0.25337,-0.17832,-0.14378,-0.19837
-0.046559,0.027158,0.032169,-0.17766,-0.044656,-0.011078,-0.023583,-0.030479
0.14864,-0.063824,0.37602,0.19536,0.1135,0.098579,0.070597,0.079808
-0.17806,-0.17543,-0.67972,-0.14742,-0.08322,-0.07557,-0.056313,-0.085917
-0.094834,-0.13302,0.15029,-0.09494,-0.040096,-0.02495,-0.028663,-0.034657
0.2761,0.48068,0.036188,0.31578,0.12694,0.079548,0.068497,0.10963
-0.0078616,0.12962,-0.05441,-0.030674,-0.018347,-0.018879,-0.0060933,-0.0035918
0.12573,-0.23851,0.84504,0.2496,0.10315,0.055606,0.045221,0.063962
-0.064132,-0.067657,-0.41077,-0.093162,-0.054851,-0.03239,-0.003611,-0.015415
0.0086195,0.087803,-0.77518,-0.23134,-0.062531,-0.040482,-0.0274,-0.03075
-0.2583,-0.038331,0.7247,-0.11115,-0.060739,-0.0078595,-0.049684,-0.083875
0.14944,0.0058851,0.60583,0.10244,0.06725,0.049473,0.038596,0.043516
-0.0040301,0.0080478,-0.36632,-0.0052824,-0.015067,-0.025266,-0.0051772,-0.00062183
-0.10293,-0.15051,-0.3949,-0.075152,-0.034818,-0.029525,-0.025206,-0.037015
0.24225,0.15386,-0.048462,0.25235,0.11688,0.083047,0.05623,0.10591
-0.15674,-0.1347,-0.29102,-0.10835,-0.068181,-0.055136,-0.026809,-0.04857
-0.03469,0.11556,-0.44256,-0.031883,-0.0043351,-0.030248,-0.016721,-0.031786
0.014574,0.020726,0.86753,-0.025825,-0.027676,0.0013931,-0.0073737,1.085e-05
0.038029,-0.021951,0.54318,0.050451,0.025824,0.024238,0.0090012,0.01559
0.059346,0.017462,-0.36241,0.024857,0.02344,0.022831,0.024598,0.030597
0.00070103,0.075113,-0.28865,-0.0091778,-0.0033708,-0.010421,0.0082092,-0.0018226
