0.0575,0.01616,0.021397,0.011186,0.0097594,0.028396,-0.0083141,0.017383
-0.24518,-0.035241,0.0343,0.0032993,0.015555,0.060154,0.087184,0.0013262
0.28534,-0.023775,-0.13253,-0.020586,-0.025616,0.007493,-0.011751,-0.0073498
0.040352,0.043184,0.060852,0.0020667,0.027314,-0.026585,-0.093606,-0.0083125
-0.21384,-0.076238,-0.095769,-0.022375,-0.028365,0.13856,-0.0017827,-0.016871
0.39046,0.063418,0.16362,1.9021e-05,0.0029566,-0.090564,0.13097,0.029714
-0.24023,0.048049,-0.036061,0.0069519,0.019828,0.12929,0.17947,0.10814
0.11286,0.010259,0.070261,0.022032,-0.0012983,-0.31241,-0.32541,-0.1566
-0.17528,0.020049,0.17698,0.029725,0.0095625,0.012341,0.0064954,0.047909
0.0048355,-0.14166,-0.40447,-0.024669,0.005043,0.21887,0.002878,-0.020708
-0.018308,0.04051,0.051528,-0.0084539,0.0080138,0.094411,0.085242,-0.026753
-0.040956,-0.011718,0.067789,-0.015562,-0.036744,-0.13594,-0.17641,0.052937
0.1252,-0.024949,0.042587,0.016303,0.018816,0.191,0.28792,0.014944
0.11378,0.063309,-0.062871,-0.022414,-0.059857,-0.50299,0.056084,-0.023832
-0.23083,0.026439,0.02544,0.024424,0.039803,0.087487,-0.27845,0.0066978
0.22451,0.043965,0.07388,0.00053332,0.013387,0.26071,0.14354,0.059558
-0.067137,-0.08751,-0.041836,-0.0080984,-0.0058602,-0.02835,-0.060675,-0.044838
-0.043656,0.037938,0.0069888,-0.0013514,0.02943,0.042556,0.078066,-0.017071
0.0052063,-0.017468,0.009789,-0.0024974,-0.028703,-0.056077,-0.14262,-0.044027
-0.24176,-0.011652,-0.00981,0.004271,0.0076338,0.0051892,0.028272,-0.038961
0.18311,0.032087,-0.020501,0.0034988,-0.0019127,0.031821,0.083961,0.10054
-0.049501,-0.042091,-0.0066659,0.010943,0.013108,0.00060291,-0.09192,-0.04669
0.27786,-0.022618,0.0082362,-0.01238,-0.033235,-0.29188,-0.04594,0.019701
0.038961,-0.10408,-0.093007,-0.019582,-0.00042246,0.1302,0.073046,0.033942
-0.11872,0.19074,0.095802,0.036165,0.025406,0.23449,0.068512,-0.020297
-0.20344,0.02633,0.051103,-0.024931,-0.018524,-0.097563,0.14952,0.027662
-0.027426,-0.026926,-0.016399,0.015731,0.039336,0.2029,0.14202,0.027881
0.035361,-0.023995,-0.036738,-0.021717,-0.035733,-0.25611,-0.48727,-0.052428
0.033433,-0.035754,-0.0025222,0.010971,0.013752,-0.092854,0.080659,0.066707
-0.015694,-0.023841,0.0076942,0.0042318,-0.023422,-0.026664,0.0018144,-0.17016
0.069377,0.057954,0.0013743,0.0047836,0.0088053,-0.07321,-0.12126,-0.01314
-0.0070835,-0.0017857,0.0017594,0.012521,0.040052,0.52578,0.33846,0.085233
0.13811,-0.031386,-0.022398,-0.027273,-0.038994,-0.23662,-0.10071,0.016715
-0.011042,0.00050661,0.015044,0.002657,0.0062388,-0.10928,-0.17822,0.056228
0.02903,-0.054192,-0.057423,0.0087274,0.0041898,0.041937,0.15507,0.010046
-0.070625,0.07845,0.080974,-0.00099113,-0.0056859,0.069939,0.04108,-0.018795
-0.091633,0.0082957,0.008818,-0.010556,-0.015161,-0.26623,-0.14513,-0.068161
-0.27581,-0.022129,-0.015703,0.0038017,0.0073791,0.13592,0.087461,-0.043491
0.22954,-0.043983,-0.054859,-0.01232,-0.00032236,0.11271,0.064854,0.016524
-0.073949,0.036286,0.039836,0.027201,0.0086698,-0.094055,0.089164,0.025865
0.17467,0.14012,0.010444,-0.010409,0.0029536,-0.15748,0.1502,0.06997
0.0075998,-0.11587,0.012941,0.015343,0.044677,0.41254,-0.21452,0.0073887
-0.012864,-0.044702,-0.0077272,-0.0052132,-0.015096,-0.22258,0.010301,0.33711
0.025772,-0.0060674,-0.044146,-0.017811,-0.044101,0.17657,-0.58065,-0.53564
0.12066,0.031293,0.020506,0.00049632,-0.003776,0.045158,-0.17317,-0.03365
-0.24754,0.044324,-0.0093701,0.0023452,-0.0038556,-0.19621,0.46095,-0.13427
0.057868,-0.067842,0.022298,0.026385,0.025812,-0.22705,0.20507,0.083693
-0.052428,-0.015283,0.0060739,-0.02141,-0.039722,-0.14717,0.1439,0.53358
0.13036,-0.00032031,-0.0033044,-0.0005,0.04197,0.085567,0.31345,-0.16816
0.0042652,0.040068,-0.0056905,-0.012325,0.021268,0.45929,0.40495,0.21221
-0.093151,-0.0034561,-0.0086737,0.0059446,-0.031046,0.10274,-0.60862,-0.067676
0.10727,-0.01425,-0.0041657,0.023564,0.041784,-0.2389,-0.47849,-0.29619
-0.38164,0.030032,0.0081337,-0.021348,-0.0488,0.0064496,-0.030204,-0.48716
0.31311,0.11232,-0.018356,-0.010947,-0.021084,-0.33278,-0.10053,0.35443
-0.13102,-0.018865,0.018189,0.00069309,0.015945,0.37512,-0.21008,-0.18997
0.16535,-0.075558,0.039855,0.04531,0.046927,0.010613,0.33307,0.74201
-0.12359,0.0043672,0.0077324,-0.01742,-0.053045,-0.32015,-0.045933,-0.90263
-0.12319,-0.091006,-0.078075,-0.054613,-0.049705,0.11348,0.11289,0.44615
0.5932,-0.078904,0.040304,0.074194,0.11912,0.065602,0.41145,0.87958
-0.30788,-0.074328,-0.082427,-0.061065,-0.039262,0.11896,0.39722,-0.65349
0.15907,0.17507,0.053689,0.023444,-0.0020388,-0.072303,-0.20954,0.037139
-0.1534,0.085304,0.089152,0.084904,0.1755,0.71014,-0.38851,-0.28752
-0.42287,-0.0066795,-0.085636,-0.1195,-0.29618,-0.88365,0.11388,-0.15381
0.22213,0.20364,0.052442,0.034681,0.035852,-0.1311,-0.18823,-0.30438
0.11673,-0.20694,-0.01262,0.023643,0.117,0.41875,0.11622,0.64574
-0.15116,0.0094403,-0.085901,-0.066848,-0.1227,-1.0713,-0.37336,0.044467
0.2196,-0.055888,0.097893,0.083564,0.1376,0.5925,0.61586,-0.17341
0.07059,-0.030067,0.0072873,-0.0092757,-0.0078629,0.78151,-0.83039,-0.28439
-0.35005,-0.062949,-0.11562,-0.10285,-0.16814,-0.54218,-0.83199,0.12101
0.04097,0.094996,0.080779,0.060988,0.094298,0.59549,0.89874,0.58271
-0.0028551,-0.21986,-0.051811,0.013782,0.07599,0.14184,0.45112,-0.15105
0.23845,0.25139,0.072743,0.036932,0.02631,-0.54377,0.63429,-0.037484
0.28719,0.14292,0.024944,0.044507,0.11635,0.28837,0.63909,-0.16805
-0.086273,-0.059572,-0.0075551,-0.057361,-0.17806,-0.75123,-0.69648,-0.23601
-0.089286,-0.13639,-0.079349,-0.057922,-0.14648,-0.63538,-0.98698,-0.19151
-0.31205,-0.016742,-0.034159,-0.027678,-0.039065,0.71293,0.094142,0.41575
-0.19541,-0.028728,0.049854,0.033226,0.10534,0.26369,0.0057305,0.33548
0.18858,0.092908,0.00072033,0.015333,0.044963,-0.17594,0.31079,-0.23456
-0.0038368,0.027258,0.068294,0.051424,0.13181,0.81845,-0.2041,-0.016037
-0.013393,0.031484,0.049291,0.032134,0.014641,0.061267,0.12842,-0.4867
0.30277,-0.11369,-0.1111,-0.058107,-0.064218,-0.39943,-0.40146,0.0091688
0.017277,-0.0022884,-0.022253,-0.023873,-0.057865,-0.29697,0.42289,0.40011
-0.047797,0.076741,0.011291,-0.013402,-0.059999,-0.46549,0.61017,-0.27015
-0.32125,-0.12613,-0.025756,-0.0029592,0.015545,0.44976,-0.32177,0.22657
0.23597,0.069551,0.015516,0.0078264,-0.018246,-0.093297,-0.63654,0.068128
0.17782,0.078782,0.065325,0.05061,0.065929,-0.17464,0.041466,0.35109
-0.074879,-0.027221,0.014786,-0.0070462,0.0033339,0.18055,0.72625,0.19355
-0.35911,-0.154,-0.0498,-0.016414,0.044844,0.29753,-0.727,-0.67708
0.0040797,0.15192,0.0045754,-0.024208,-0.12134,-0.40695,0.47176,0.60135
0.069075,-0.031355,0.013861,0.032086,0.098896,0.55896,0.29791,-0.69911
0.26563,0.10039,-0.037717,-0.019541,-0.013214,0.13719,-0.1498,-0.1693
0.093995,-0.13328,0.013623,0.0081429,0.010627,-0.1859,-0.34372,-0.28689
-0.25804,0.047938,-0.019996,-0.025862,-0.088216,-0.66745,-0.46731,-0.34011
0.045601,0.11188,0.079728,0.081122,0.1501,0.63857,0.66334,0.45232
-0.19822,-0.34844,-0.11739,-0.10889,-0.1897,-0.78932,-1.0255,0.89148
0.38534,0.29932,0.091258,0.059881,0.11773,0.47477,1.0017,0.69457
-0.18831,-0.10124,-0.0057645,0.0088876,0.0401,0.48406,-0.0088902,-0.72441
-0.052146,-0.081302,-0.018269,-0.02782,-0.087406,-0.88578,0.56318,-0.026905
0.0047749,0.10156,0.014373,0.019881,0.047346,0.66434,-0.2787,0.045104
0.076444,0.20542,-0.0095221,-0.012092,-0.079021,-0.6203,-0.51467,-0.54598
0.08526,-0.25389,-0.01172,0.024857,0.12774,0.71667,-0.0056512,0.40919
-0.10863,0.0050498,-0.0074898,-0.017367,-0.073712,0.092251,0.42955,-0.49774
-0.074595,0.052651,-0.019697,-0.028894,-0.018193,-0.17089,-0.47745,-0.29202
-0.17113,0.076531,0.077373,0.037738,0.045494,0.022769,-0.054365,-0.10891
0.32898,-0.11066,-0.074912,-0.043436,-0.092482,-0.90361,-0.31442,0.23321
-0.089756,-0.024361,-0.014968,-0.0062841,0.021826,0.36327,0.072975,0.61978
0.033045,-0.054989,0.062319,0.055762,0.091925,0.22203,0.53005,-0.21548
-0.014816,0.086669,-0.0069977,0.0021341,-0.0073216,0.31263,0.19379,0.49384
0.0070032,0.12721,-0.0043907,-0.018963,-0.026559,-0.31199,0.14136,-0.29078
-0.0051764,-0.042866,-0.00070449,0.0076113,0.040996,0.50159,-0.00040604,0.18106
-0.029867,0.037135,0.065822,0.04214,0.037894,-0.13303,0.063396,-0.064994
0.18943,-0.17999,-0.086859,-0.08013,-0.1698,-0.56334,-0.4833,0.079683
-0.21473,0.024196,0.024927,0.030829,0.065564,0.11378,-0.16657,-0.19744
0.086763,0.071303,-0.013342,-0.0081803,-0.0063499,0.18555,-0.087449,-0.38458
-0.26319,-0.17169,-0.092439,-0.048823,-0.033766,0.12062,-0.23289,-0.53394
-0.027007,0.1466,0.092497,0.073153,0.10899,-0.055849,0.79022,0.22337
0.32232,0.0806,0.049704,0.022248,-0.022383,-0.18438,0.10601,0.4891
-0.13383,-0.041857,-0.063996,-0.068124,-0.067413,-0.24519,-0.82249,-0.12293
0.21614,0.193,0.056682,0.021445,0.013983,-0.038699,0.2499,0.61976
-0.2208,-0.34779,-0.079929,-0.036569,-0.019655,0.298,-0.22973,-0.31714
-0.055021,0.085952,0.049993,0.047347,0.05856,0.7202,0.56548,0.013099
0.32812,0.0026955,0.024797,0.031239,0.076624,-0.060621,0.20024,-0.080243
-0.043759,0.17704,0.024253,0.02448,-0.028492,-0.44375,0.047066,-0.089688
-0.26061,-0.23319,-0.13135,-0.11377,-0.14039,-0.68867,0.099448,-0.18409
0.14265,0.086277,0.089169,0.069274,0.099433,0.31998,-0.63619,-0.082502
-0.1413,-0.17544,-0.017438,-0.012753,-0.020722,0.19798,0.1504,0.6582
-0.019912,0.084293,-0.060674,-0.039931,-0.040427,0.061746,-0.35466,0.043436
0.014975,0.24853,0.13117,0.081168,0.071388,0.20017,-0.08807,-0.50593
0.011882,-0.17574,-0.11401,-0.087176,-0.067948,-0.33975,0.078747,-0.19913
0.05924,0.028447,0.031593,0.025222,0.0028817,-0.057906,0.60526,0.31285
0.19887,0.41333,0.083221,0.058931,0.08124,0.43616,0.422,0.14844
-0.2777,-0.32843,-0.06113,-0.056385,-0.090238,-0.36597,-0.74969,-0.53937
0.045393,-0.38655,-0.065956,-0.039499,-0.026896,-0.04345,-0.22634,0.0061802
0.24719,0.20635,0.09183,0.093923,0.14629,0.51965,0.52004,0.35509
-0.17225,-0.042162,-0.025469,-0.0077366,-0.031843,-0.45133,-0.16182,-0.071888
0.16928,0.15781,0.043093,0.030481,0.071085,0.43342,0.13162,0.5814
-0.42453,0.026587,-0.12412,-0.12735,-0.24854,-0.95905,-0.78236,-0.41766
0.068616,-0.090186,0.051447,0.042311,0.11824,0.63753,0.39717,-0.20303
0.15543,0.067046,0.039128,0.047479,0.077451,0.27142,0.68868,0.29218
-0.23535,-0.06297,-0.066716,-0.072497,-0.13647,-0.62587,-0.53934,-0.13203
0.41896,0.12191,0.070388,0.04208,0.047083,0.21312,-0.076378,-0.26941
0.18039,0.02007,0.028935,0.047748,0.081734,0.28983,0.32562,0.56399
-0.16212,0.029419,-0.042493,-0.047491,-0.086647,-0.07472,0.11672,-0.31319
-0.29558,-0.28825,-0.034614,-0.0092177,0.0033812,-0.17761,-0.58159,-0.23637
-0.10169,0.082062,0.01322,0.0062126,0.016226,0.0035938,-0.053818,-0.21097
0.0072171,0.038401,0.038088,0.037623,0.084817,0.49858,0.65862,-0.053805
0.072207,-0.036532,-0.022981,-0.024679,-0.08784,-0.73343,-0.42181,0.62146
-0.045534,0.13857,0.0092684,0.0064784,0.044827,0.2749,0.55702,0.37201
0.37381,-0.11594,-0.029555,-0.017601,-0.064455,0.04622,-0.73878,-0.3639
-0.00575,0.10603,0.024439,0.012326,0.076119,0.12747,-0.032645,0.092281
-0.099592,-0.14913,-0.039689,-0.036519,-0.080596,-0.38671,-0.32104,-0.46523
0.004044,0.024031,0.028224,0.015744,0.012185,0.27088,0.71949,-0.047636
-0.15076,0.2417,0.048777,0.028808,0.042064,0.078661,0.87994,0.22474
-0.097921,-0.12207,-0.032351,-0.0047699,-0.006318,-0.078839,-0.91759,0.23266
0.11376,0.1353,-0.03508,-0.02995,-0.046664,-0.38018,-0.45606,0.13987
0.038146,-0.2126,0.0097004,0.023838,0.030767,0.39352,0.39391,-0.35666
0.0037767,-0.13349,0.024152,0.016089,0.030949,0.1162,-0.013073,-0.17529
-0.034689,0.015148,-0.022806,-0.021993,0.016519,0.06683,-0.10439,-0.022241
-0.074942,-0.029846,-0.013962,-0.035921,-0.12976,-0.60154,-0.34666,-0.22849
0.13564,0.22623,0.089624,0.091182,0.1544,0.63091,0.89553,0.31928
-0.0020966,-0.019325,-0.040431,-0.023862,-0.022012,0.1046,-0.084995,0.31819
-0.056699,0.03127,-0.045098,-0.053275,-0.11258,-0.75311,-0.25911,0.040523
0.081953,-0.098995,0.0049236,0.018303,0.061924,0.38514,0.045547,0.083705
-0.094393,0.11151,-0.00011141,-0.012389,0.02451,0.17673,0.10596,-0.22279
-0.024845,-0.066618,0.01761,0.0109,0.0014495,-0.10186,-0.4541,0.15266
-0.0010458,0.23051,-0.0046349,-0.028894,-0.077705,-0.47736,-0.61788,-0.32013
0.16915,-0.27361,0.02679,0.071555,0.10741,0.49302,0.76518,0.14342
-0.017513,0.0047705,0.025957,0.0077991,-0.005448,-0.2168,-0.39729,-0.57496
-0.12627,-0.060196,-0.046056,-0.040241,-0.0643,0.045662,0.68259,0.55865
0.22404,-0.16319,-0.040542,-0.017673,-0.013898,0.087277,0.14036,-0.19199
-0.2323,0.14301,0.027242,-0.0024629,-0.002064,0.28296,0.61503,0.19678
0.037614,0.18146,-0.021975,-0.010137,0.018657,-0.018005,-0.89878,-0.23528
-0.14256,0.033203,0.03095,0.029645,0.033084,-0.24147,-0.44787,0.065961
-0.033929,0.013305,0.022239,0.02308,0.018003,-0.10315,0.27208,0.073802
-0.014324,-0.14992,-0.016739,-0.02215,-0.018801,0.040782,0.011993,0.07044
0.17857,-0.026048,0.015516,0.0031396,-0.007285,-0.11012,0.033136,0.4281
0.28231,0.095598,0.02503,0.020619,0.044302,0.44212,0.24041,-0.062207
-0.12368,-0.10639,-0.05101,-0.0402,-0.10674,-0.6387,-0.52888,-0.32214
-0.063664,0.092918,-0.0019888,0.0080794,0.054718,0.26578,0.22057,-0.25787
-0.040335,-0.011461,-0.015659,-0.014237,-0.042042,-0.14698,-0.31234,0.11645
-0.1046,0.070926,0.032846,0.02575,0.048011,0.26603,0.56262,-0.37487
-0.065815,-0.075319,-0.020549,-0.012435,0.0043973,0.22565,0.44003,0.42349
0.13395,0.0099819,-0.0038921,0.0041777,0.037986,0.28011,-0.33785,-0.025858
-0.0013699,-0.19674,-0.0030134,-0.018046,-0.10123,-0.82003,-0.31363,-0.10227
0.025443,0.039288,0.03685,0.030293,0.055537,-0.012332,0.13298,0.26091
0.033277,0.10157,-0.0014885,0.0084829,0.0083413,0.29656,-0.049604,0.028491
-0.063836,0.17053,0.014697,0.0022714,0.038516,0.29374,0.12741,0.093971
-0.030276,0.027938,-0.00067733,-0.012031,-0.072579,-0.47417,-0.29811,-0.22076
-0.012217,-0.20884,-0.047761,-0.0034324,0.03457,0.14907,0.39406,-0.055952
-0.022378,0.02255,-0.001652,-0.034632,-0.053931,-0.13328,-0.87027,-0.15424
0.051722,-0.043843,-0.0029702,0.011458,0.0058503,-0.031987,0.47708,0.35078
0.12702,0.076006,-0.0047228,0.0020515,0.026586,0.26548,0.13772,-0.096271
-0.028598,-0.0087035,0.063617,0.046663,0.078724,0.33709,0.33614,-0.10506
-0.24964,0.14748,-0.0008112,-0.010727,-0.017331,-0.09094,-0.079733,-0.22222
0.097213,-0.12681,-0.033681,-0.013592,-0.03496,-0.558,0.032793,0.48257
0.19911,-0.2057,-0.058224,-0.039769,-0.075685,0.021693,-0.25603,-0.27893
-0.0074035,0.029045,0.050665,0.02037,0.016788,-0.14866,0.052006,-0.060816
-0.03139,0.18786,0.0038944,0.018568,0.047185,0.53279,-0.2257,0.19948
-0.10839,0.037148,0.012236,-0.013842,-0.03917,-0.24623,-0.50659,-0.30345
-0.051677,-0.0087084,0.028532,0.01686,0.038924,0.014307,0.69043,0.28823
-0.088004,-0.05934,-0.049114,0.0011697,0.04697,0.54063,0.18293,0.042711
0.25174,-0.0061325,0.060244,0.03265,0.023851,-0.35533,0.56287,0.34841
-0.18797,-0.084535,-0.065445,-0.045139,-0.085294,-0.21317,-0.4905,-0.3354
-0.062639,0.4934,0.034779,0.0020452,0.0084927,0.099707,0.024057,-0.33721
0.24533,-0.54664,-0.076336,-0.036768,-0.046317,-0.17417,-1.0311,0.28179
0.017012,-0.0097872,0.01571,0.010373,-0.0073538,-0.198,0.14514,-0.15495
0.1109,0.03368,0.038008,0.04207,0.047553,0.27938,0.18243,-0.37739
-0.22447,-0.048653,0.022297,-0.0039907,0.064036,0.49332,0.41242,0.37707
-0.1237,0.25153,-0.0076717,-0.018284,-0.059228,-0.5089,0.22687,-0.122
0.052061,0.020489,-0.020608,-0.00075862,-0.017477,0.07692,0.092368,0.27581
0.059208,-0.06994,0.030093,0.0094401,0.0016457,-0.11775,0.316,0.31973
0.14693,0.03447,-0.02017,0.0042875,0.03685,0.33482,-0.31303,0.04527
-0.12235,-0.018574,0.046643,0.038162,0.056384,0.27628,-0.22483,-0.33455
0.041128,-0.05012,-0.035829,-0.029905,-0.049681,-0.6153,-0.26215,0.14236
-0.17377,0.087823,-0.010386,-0.036156,-0.063078,0.12042,-0.34288,-0.31927
0.19573,-0.19844,-0.041453,-0.0042358,0.00025561,-0.35965,0.16576,-0.3646
-0.2077,-0.095816,0.034979,0.026726,0.046488,0.3136,0.21265,0.058963
0.1335,0.11549,-0.046464,-0.02914,-0.057042,-0.075886,-0.14918,0.15489
0.13487,0.061652,0.042824,0.039278,0.057188,0.19346,0.76711,0.69895
-0.14027,0.087431,0.022192,-0.0099724,-0.0088324,0.10041,-0.3522,-0.42259
-0.051252,0.19342,0.032861,0.026479,0.03439,-0.15084,-0.15068,-0.12783
0.096514,-0.19842,-0.018416,-0.015208,-0.00027767,0.29879,0.25694,0.31322
0.043932,-0.08061,-0.03753,-0.017656,-0.050071,-0.30222,-0.47299,-0.16697
-0.0074567,-0.047445,0.01479,0.019287,0.033605,-0.026532,0.69684,0.066512
0.011109,0.048983,-0.0098148,-0.029252,-0.046058,-0.12674,-0.61139,-0.078569
-0.25316,-0.041676,-0.0098053,0.00088843,0.023431,0.27764,0.28672,-0.24954
0.06624,0.16482,-0.00091451,-0.0074198,-0.015816,-0.19784,-0.61158,-0.15658
0.18795,-0.22997,-0.0067648,0.023953,0.023563,-0.10869,0.20724,0.21624
-0.020401,-0.022949,0.011445,-0.0066251,-0.030505,0.037303,0.069886,0.26711
-0.12839,0.16065,0.053385,0.049138,0.087363,0.39713,0.54573,0.1591
0.005462,0.085917,-0.029756,-0.035524,-0.044963,-0.11391,0.04817,-0.17188
0.13183,0.20519,0.027282,0.0047943,0.0019909,-0.12701,-0.48573,0.053482
-0.084869,-0.25583,-0.057039,-0.033217,-0.029693,-0.062107,0.31117,-0.057248
-0.01973,-0.15718,0.0062002,0.0065866,0.016279,0.2548,-0.060513,-0.24746
0.10799,0.16505,0.02954,0.022643,-0.0005049,-0.15841,-0.32588,-0.033085
0.024063,-0.24178,-0.057107,-0.024014,-0.056265,-0.49486,-0.29521,0.063005
-0.038036,-0.032772,-0.011194,-0.0082312,0.021271,0.30969,0.010669,-0.075325
-0.18062,0.30143,0.066122,0.031089,0.044942,0.27177,0.4222,-0.03308
0.056833,-0.026626,-0.012307,-0.0075074,0.01493,0.10199,0.33132,0.27584
0.072771,0.070342,0.0037276,-0.006818,-0.037566,-0.46701,0.21448,0.25665
-0.030792,-0.1256,0.0048765,0.017449,0.027789,0.36638,-0.56276,-0.24131
0.12974,0.15917,0.04568,0.026073,0.015213,-0.089351,0.17668,0.18528
-0.17123,-0.1382,-0.045998,-0.012374,-0.0055226,0.12251,-0.21063,0.09614
0.075081,-0.13569,-0.02044,-0.019896,0.0041758,0.060827,0.19511,-0.3697
-0.1305,-0.076587,-0.010687,-0.035584,-0.049714,0.028093,-0.26303,-0.48526
0.11104,0.14723,-0.040297,-0.020279,-0.050008,-0.74157,-0.13092,0.22887
0.16721,0.089068,0.039154,0.034029,0.027001,0.16775,0.12511,0.12923
-0.024413,0.0052963,0.016772,0.018197,0.025518,0.1424,0.0082589,0.3159
-0.18259,0.058621,0.033226,0.018351,0.031991,0.30403,0.28719,0.11566
0.052058,0.20109,-0.0052455,-0.004494,-2.7586e-05,-0.0070773,-0.067287,-0.38803
-0.054715,-0.34907,0.018459,0.012092,0.039067,-0.053275,0.10934,-0.028026
-0.065197,-0.21665,-0.067672,-0.041466,-0.06167,-0.059555,-0.090497,-0.11671
0.098904,0.15412,0.017485,0.029871,0.025665,0.16905,-0.20083,0.14755
-0.062525,0.069685,0.016056,-0.0085504,-0.027406,-0.096038,0.063741,0.50101
0.12177,0.032195,-0.0093976,-0.016305,0.0052937,-0.068883,0.51981,-0.048602
-0.068257,-0.018762,-0.027433,-0.016906,-0.0328,-0.018599,-0.7419,-0.26761
0.17018,0.10592,0.0013212,0.0053423,0.030007,-0.21394,-0.05124,0.086374
-0.032399,-0.022588,0.045984,0.03501,0.037451,0.21005,0.38845,-0.46847
-0.0064047,0.056639,-0.0024575,-0.0057527,-0.025953,0.064887,-0.10128,0.28468
-0.17545,-0.1337,-0.010905,0.00053808,-0.019327,0.085223,-0.049421,-0.26975
-0.079312,-0.032336,-0.018264,-0.023984,-0.020489,-0.34476,0.023348,0.075977
0.17321,0.031214,0.014523,0.014606,0.041167,0.29271,-0.044375,-0.038909
0.060637,-0.0459,0.0013552,0.014814,0.033045,0.078221,0.7183,0.26721
-0.12485,0.10253,-0.0033886,-0.015599,-0.060393,-0.39995,-0.67944,0.054344
-0.051344,-0.04752,-0.0079314,-0.0064747,0.0029812,0.11,-0.15886,0.1301
-0.06653,-0.011898,0.010704,-0.0049222,0.012031,0.038685,-0.11847,0.041476
0.067236,-0.01711,0.013008,0.035658,0.068017,0.49537,0.7146,0.075252
0.26612,-0.070753,-0.017017,-0.01782,-0.063779,-0.31009,-0.24644,-0.21762
-0.0005455,0.35086,0.0063215,-0.0093379,-0.024296,-0.17636,-0.55736,-0.32538
-0.077521,-0.26768,-0.018612,-0.0015452,0.022189,0.03508,0.53075,-0.016453
-0.14684,0.042541,0.0098561,-0.010115,-0.033776,-0.16988,-0.29571,-0.057327
0.038282,-0.069933,0.0060705,0.035326,0.089147,0.57459,0.82959,0.6705
-0.064725,-0.073744,-0.013925,-0.029125,-0.061936,-0.52115,-0.84388,-0.60325
0.12683,0.17967,0.020677,0.0076976,0.0055004,0.051016,0.1604,0.21938
-0.084941,-0.01266,-0.006808,-0.0023786,-0.0050318,0.12025,0.069549,-0.16983
-0.07667,-0.025551,-0.017816,-0.0044064,-0.022851,-0.046317,-0.20124,0.16204
0.20567,0.047472,0.019219,0.02527,0.03827,-0.0017115,-0.087985,0.075822
-0.018904,-0.066753,0.010698,-0.0069505,0.03005,0.1774,0.30929,-0.015231
-0.10102,-0.078836,-0.027788,-0.022879,-0.024069,-0.08609,0.2887,0.21405
-0.18773,0.027211,0.012925,0.0087093,-0.022669,-0.10427,-0.0084662,-0.10806
0.24596,0.056421,0.0074815,0.0017742,-0.0050692,-0.0023283,-0.54322,-0.14304
0.076496,0.063744,-0.013305,0.0030278,0.028419,-0.023136,-0.12888,-0.020677
-0.13239,-0.091332,0.0048066,-0.0033486,-0.016265,0.4026,0.21742,-0.1975
0.15147,0.036443,0.03019,0.021517,0.016882,-0.49968,0.16554,0.067322
0.045967,0.087464,-0.007696,-0.00065294,-0.0050974,0.12054,0.40063,0.19654
-0.32332,-0.094862,-0.038565,-0.030875,-0.050975,-0.12026,-0.61868,-0.16636
0.083209,-0.089055,0.02371,0.024609,0.074662,0.33228,0.45724,0.26413
-0.069824,0.03418,-0.02362,-0.02942,-0.01862,0.18146,-0.31792,-0.08534
0.12428,0.055732,-0.031639,-0.013127,-0.033715,-0.43928,0.040411,-0.14784
-0.068678,-0.071604,0.015736,0.011133,-0.025103,-0.16956,-0.18492,-0.15447
0.14796,0.18313,0.048506,0.027821,0.046396,0.1324,0.071318,0.14629
0.093786,-0.039688,0.0042278,0.013474,0.016693,0.18642,0.023468,0.1523
-0.052657,-0.060505,0.015469,-0.0086312,-0.012835,-0.10059,-0.059543,0.20476
-0.058323,-0.035549,0.0035921,0.0081133,0.035616,0.24794,0.34816,-0.03637
-0.057256,-0.027094,-0.032082,-0.0069244,-0.018037,-0.15146,-0.24464,-0.17746
-0.065943,0.074643,-0.0063067,-0.022783,-0.041347,-0.010922,0.22375,-0.16055
-0.14724,-0.15953,-0.029002,-0.0083889,0.020132,0.066531,0.063383,0.065717
0.15211,0.05208,-0.0066916,-0.010629,-0.028948,-0.16258,-0.3387,-0.12513
0.066873,0.069036,0.037246,0.03317,0.038169,0.11346,0.13849,0.15815
0.074057,0.28181,0.040696,0.0061545,-0.01249,-0.24609,-0.00087696,-0.042928
