-0.036583,-0.1381,-0.1215,-0.020366,-0.0071004,-0.010585,-0.0052498,-0.0035215
0.075323,0.50502,0.69941,0.11699,0.025465,0.021825,0.011934,0.028052
0.023903,-0.23525,-0.54397,0.027233,0.011351,0.0067035,0.0054787,0.004529
0.02761,0.085676,0.49223,0.022174,0.0049396,-0.0013621,-0.0013126,-0.019438
-0.10926,0.035902,-0.18469,-0.16429,-0.079999,-0.049239,-0.055414,-0.075022
-0.043401,-0.39597,-0.78689,-0.063593,0.014119,0.0038165,0.0071789,0.0098314
0.0059227,0.25429,0.19912,0.035362,0.0059248,0.0017578,0.014568,0.0087888
0.25698,0.55223,1.0203,0.39087,0.16105,0.11671,0.099569,0.14081
-0.071868,-0.23278,-0.33504,-0.33226,-0.1688,-0.10419,-0.050291,-0.093975
-0.097978,-0.18131,-0.074127,0.046529,0.047873,0.0268,-0.036506,0.046653
0.18663,-0.035585,0.11961,0.090615,0.037998,0.033312,0.031677,0.03921
-0.43621,-0.51946,-0.31875,-0.36332,-0.17459,-0.12355,-0.10334,-0.21012
-0.0124,-0.018365,-0.4833,0.021098,0.043276,0.032877,0.035286,0.040827
0.48267,0.90413,1.1125,0.54074,0.21529,0.1589,0.19008,0.28427
-0.19987,-0.67471,-0.58156,-0.070526,-0.11162,-0.12053,-0.19334,-0.27658
0.11264,0.37568,-0.4969,-0.071519,0.046738,0.022593,0.033673,0.05366
-0.38434,-0.51992,-0.29122,-0.45573,-0.15379,-0.099482,-0.066328,-0.10788
0.1289,0.45827,0.55629,0.19733,0.044058,0.059774,0.061161,0.0745
0.21352,0.30631,0.91554,0.042714,0.053725,0.046797,0.05634,0.13935
0.13329,0.52549,-0.50302,0.25145,0.038706,0.040792,0.035765,0.031242
-0.074731,-0.65737,0.883,0.026362,-0.0014076,-0.013382,-0.024722,-0.039693
-0.076248,-0.35057,-1.0257,-0.24163,-0.043327,-0.045729,-0.047648,-0.066316
-0.1142,-0.6365,-0.44598,-0.098476,-0.016563,0.0061768,0.021278,0.029251
-0.12563,0.46059,0.28938,0.019788,-0.022156,-0.044916,-0.052304,-0.11198
0.08658,0.35758,-0.34519,0.075892,0.034455,0.020327,0.0055227,0.050145
-0.091957,-0.42432,0.073037,-0.061156,-0.10356,-0.047242,-0.069972,-0.13111
0.099859,0.69231,0.35217,0.024215,0.080379,0.034599,0.05829,0.088414
0.39162,0.081653,0.63008,0.45794,0.18863,0.13394,0.14926,0.24185
-0.48804,-0.52404,-0.72834,-0.47849,-0.21589,-0.15481,-0.17117,-0.26326
0.21148,0.027161,0.28962,0.2614,0.10906,0.074853,0.089595,0.12817
0.0046995,0.65812,0.21879,-0.19823,-0.10257,-0.028847,-0.02172,-0.061112
-0.21259,-1.2732,-0.98581,-0.33496,-0.046804,-0.044679,-0.052718,-0.020331
0.32928,0.75351,0.66041,0.35801,0.11914,0.088878,0.089186,0.11519
0.25113,0.16337,0.038993,0.24703,0.10515,0.073802,0.066677,0.11603
-0.32582,-0.087576,0.34285,-0.098254,-0.097554,-0.091018,-0.051259,-0.036091
-0.47455,-0.20706,-0.63427,-0.38144,-0.1538,-0.1174,-0.17969,-0.36656
0.34299,0.38719,0.47914,0.45958,0.18594,0.11917,0.11837,0.17847
-0.41151,-0.92421,-0.97667,-0.74747,-0.26597,-0.18608,-0.16481,-0.23654
0.67833,0.97539,0.47149,0.59063,0.25625,0.21717,0.22132,0.34306
0.05331,-0.10044,0.61733,0.23879,0.034194,0.0092277,0.019887,0.052398
-0.1423,-0.53226,-0.042038,-0.20234,-0.072296,-0.051381,-0.064978,-0.08249
-0.44419,-0.082872,-0.67313,-0.23368,-0.078365,-0.057688,-0.071398,-0.14512
0.28303,0.33627,0.49578,0.26907,0.11019,0.084657,0.079434,0.10072
-0.045099,-0.19499,0.21419,-0.1552,-0.068719,-0.053598,-0.010562,-0.02365
0.26698,0.4096,-0.86049,-0.20899,-0.067833,-0.011252,0.018022,0.099049
-0.078511,0.61765,1.0092,0.49981,0.18353,0.079004,0.0087233,-0.008452
-0.18492,-0.83864,-0.70303,-0.46406,-0.11894,-0.071868,-0.046614,-0.042737
0.047034,0.030419,-0.022052,0.081829,0.001703,-0.010757,-0.02332,-0.036547
0.34163,-0.21457,0.16834,0.32775,0.17086,0.15295,0.16433,0.2197
-0.45933,0.33983,-0.23525,-0.25527,-0.18923,-0.16669,-0.17117,-0.33744
-0.38841,-0.39144,-0.12757,-0.2206,-0.17987,-0.12592,-0.15469,-0.20838
0.52245,-0.39853,-0.016306,0.017614,0.14433,0.15801,0.19058,0.37261
0.21848,1.157,1.071,0.66089,0.18936,0.091182,0.07575,0.070018
0.1218,-0.48875,-0.0064723,-0.30162,-0.06105,-0.045527,-0.022616,0.0015114
-0.43896,-0.29621,-0.46288,-0.16299,-0.029791,-0.0339,-0.04229,-0.12164
0.036825,0.52201,-0.02866,0.22091,0.0084283,0.016037,0.0083884,0.013115
-0.10631,-0.34227,-0.37015,-0.37241,-0.064864,-0.052602,-0.050957,-0.05537
0.26537,0.61403,0.46738,0.37498,0.12431,0.11909,0.13055,0.20377
0.074826,0.011191,-0.61065,-0.045258,-0.041742,-0.047168,-0.049151,-0.11609
-0.17681,-0.24789,-0.13843,-0.53001,-0.19567,-0.12928,-0.11366,-0.062042
-0.11342,-0.66392,0.23749,0.30687,0.10087,0.060849,0.054461,-0.016854
0.039309,-0.093755,-0.056229,-0.030089,-0.025781,-0.030584,-0.05196,0.012004
-0.046247,-0.35214,0.14977,-0.13766,-0.034971,0.011441,0.0054664,-0.084302
0.29389,0.86532,0.7651,0.67582,0.23882,0.15651,0.12612,0.1948
-0.13635,0.40246,-0.069996,-0.15711,-0.06274,-0.071409,-0.064232,-0.056523
-0.02586,-0.046676,-0.44646,-0.39311,-0.11891,-0.086284,-0.018298,-0.05691
0.045405,-0.4703,-0.24879,0.13918,0.10917,0.088127,0.08421,0.16215
0.18488,0.25743,0.39271,0.25827,0.042654,0.044916,0.016287,0.01418
-0.46848,-0.1936,-0.88888,-0.56191,-0.19444,-0.14643,-0.1525,-0.25147
0.20151,0.063258,0.5855,0.18354,0.03748,0.052344,0.053562,0.091193
0.1556,0.67169,0.64373,0.23403,0.096947,0.046863,0.047742,0.05747
-0.26948,-0.88824,-0.80693,-0.33478,-0.11033,-0.069451,-0.061125,-0.10259
0.3028,-0.18989,0.22865,0.44387,0.12639,0.086219,0.093947,0.1583
-0.38335,-0.13319,-0.31473,-0.46286,-0.20847,-0.15771,-0.15094,-0.26076
0.16638,0.016029,0.39835,0.30326,0.1431,0.074251,0.04842,0.15659
0.18031,0.76582,0.33819,0.25714,0.15006,0.11074,0.10676,0.15319
-0.0045068,-0.36832,-0.71074,-0.53897,-0.17967,-0.11031,-0.084614,-0.051836
-0.1847,0.62819,0.31854,0.15746,0.036738,0.036334,-0.017294,-0.20065
0.029745,-0.20756,-0.076433,0.074025,0.017951,0.035074,0.035634,0.073616
0.051649,0.41131,-0.03841,-0.068791,-0.07202,-0.036131,-0.0038864,0.043846
0.22319,-0.76657,0.35228,0.30956,0.16533,0.064664,0.067066,0.12343
-0.2071,-0.52981,-0.047746,-0.30362,-0.12125,-0.076802,-0.033154,-0.10228
-0.13864,-0.070922,-0.51568,-0.28794,-0.14217,-0.069944,-0.062815,-0.047676
0.27204,0.48993,0.43544,0.47686,0.22837,0.11666,0.10272,0.10763
-0.51358,-0.20085,-0.3265,-0.18639,-0.1103,-0.086908,-0.12265,-0.20614
0.26344,0.35413,-0.31098,-0.041795,0.014576,0.030776,0.011175,0.074398
0.088873,0.47825,0.39958,0.098293,0.033314,0.024881,0.0045365,0.0050192
0.034198,0.015176,0.60294,-0.009685,-0.069475,-0.033972,-0.024934,-0.022677
0.14688,-0.29633,-0.37407,0.0064264,0.041866,0.041723,0.087229,0.11689
-0.018614,-0.2281,0.41137,0.22077,0.11651,0.056306,0.044346,0.087755
-0.072678,-0.288,-0.41022,-0.074351,-0.042151,-0.022168,-0.044332,-0.095207
-0.25131,-0.054478,-0.66757,-0.33655,-0.14668,-0.11652,-0.062094,-0.097437
-0.0095851,0.35596,0.47776,0.031965,0.051213,0.053464,0.037164,0.0089442
-0.013502,-0.22587,-0.46779,-0.041608,-0.020349,-0.028833,-0.036556,-0.028
0.38367,0.86942,0.95951,0.35582,0.14526,0.10458,0.098631,0.27438
0.055703,-0.52159,-0.49157,0.053002,0.031808,0.023605,0.0044911,-0.14764
-0.2324,0.17525,0.37604,-0.36989,-0.2044,-0.12331,-0.10842,-0.13826
-0.13671,-0.63472,-0.52774,-0.058136,-0.023528,-0.03881,-0.029071,-0.0017859
0.085976,0.11255,0.23902,0.3281,0.13053,0.082655,0.086848,0.059907
-0.17188,-0.2206,-0.32752,-0.27734,-0.1388,-0.078053,-0.087793,-0.05285
0.34997,0.39221,0.46257,0.30921,0.194,0.15225,0.12015,0.18565
-0.056632,0.21012,0.10921,0.059961,-0.025286,-0.045498,-0.022362,-0.026978
-0.15466,-0.018547,-0.48468,-0.22554,-0.037163,-0.029598,-0.029726,-0.094985
-0.051284,0.10684,0.38486,-0.15498,-0.059194,-0.041504,-0.033844,-0.05599
0.036138,-0.15786,-0.48044,-0.016756,-0.012696,-0.0027433,-0.010804,-0.026472
0.32674,0.1583,0.36607,0.36052,0.13347,0.12568,0.14093,0.2591
-0.25829,-0.36702,-0.12415,-0.29818,-0.14488,-0.12545,-0.11041,-0.15326
-0.064328,-0.016818,0.37322,0.12165,0.057212,0.016498,0.0076756,-0.038498
-0.093699,-0.027258,-0.33416,-0.016374,-0.035389,-0.012009,-0.037247,-0.054744
0.41664,0.27287,-0.071138,0.072708,0.1145,0.10818,0.12855,0.21787
-0.059138,-0.20898,0.15938,0.16599,0.0050292,-0.030296,-0.042944,-0.058403
-0.21033,0.25728,0.15426,-0.16982,-0.068452,-0.045579,-0.052567,-0.088006
-0.022168,0.0057209,0.0032411,0.054943,-0.013204,-0.00079305,-0.0022772,0.0034059
-0.16633,-0.50233,-0.25437,-0.27007,-0.032684,-0.028985,-0.040435,-0.073147
0.15515,0.61824,-0.22365,-0.042631,-0.024951,0.0028303,0.020956,0.01119
-0.14988,-0.69921,-0.17835,-0.05753,-0.0046558,-0.014212,-0.0048358,-0.0080547
0.23272,0.58891,0.015812,0.28198,0.068614,0.053424,0.070538,0.1282
0.11658,-0.051739,0.35258,0.065037,-0.0068375,-0.0044274,-0.017817,0.014798
-0.013571,0.19585,0.66789,0.044383,-0.0032157,0.0082318,-0.011612,-0.035082
-0.041006,-0.76599,-0.69713,-0.082847,0.072489,0.021585,0.042437,0.033469
0.17387,0.8706,0.85345,0.12159,0.048728,0.035911,0.027033,0.03277
-0.31545,-0.5093,-0.60256,-0.10812,-0.12151,-0.08933,-0.073729,-0.13133
-0.22862,-0.1777,-0.23884,-0.17902,-0.048077,-0.033874,-0.049213,-0.021714
0.0043224,0.084741,-0.22927,0.025083,0.026206,0.030283,0.022242,0.0019983
0.37582,0.4731,-0.028222,0.15957,0.045995,0.040484,0.031203,0.1039
-0.066536,-0.20883,0.012792,-0.28399,-0.090852,-0.065961,-0.053503,-0.090789
0.068716,0.14694,0.49657,0.25655,0.099576,0.085702,0.08858,0.027646
-0.061451,-0.0080648,0.22974,-0.086218,-0.062768,-0.059531,-0.073694,-0.024922
-0.058204,-0.441,-0.36394,0.054623,0.054647,0.021376,0.037763,0.048409
-0.015265,-0.067254,-0.14263,0.10838,0.02973,0.031099,0.032104,0.052038
0.19991,0.15886,-0.20783,0.11362,0.049857,0.039511,0.033923,0.05568
-0.24903,-0.13107,0.22043,-0.42229,-0.18183,-0.13341,-0.09791,-0.15239
-0.073424,0.33483,0.47558,0.2114,0.077075,0.051248,0.02674,0.012952
0.33584,0.55452,0.1559,0.23369,0.061405,0.07797,0.063786,0.12142
-0.29472,-0.76342,-0.65619,-0.54992,-0.12659,-0.12318,-0.11966,-0.18662
0.12102,0.48035,-0.034009,0.15875,0.037377,0.026553,0.039136,0.04216
-0.057245,-0.46554,-0.14353,0.087802,0.030753,0.012286,-0.0061667,0.011489
0.077193,0.25065,0.23345,0.059009,0.018377,0.014479,0.026419,0.042586
0.032607,-0.5486,0.10546,0.19059,0.032028,0.033772,0.0127,0.019281
0.11412,0.4924,0.0444,-0.11869,-0.029673,0.0080699,0.023721,0.051888
-0.32635,-0.089499,-0.23693,-0.21298,-0.073174,-0.07815,-0.080621,-0.13233
0.16461,0.21959,0.62237,0.33629,0.14315,0.079594,0.0749,0.1076
-0.23321,-0.67656,-0.69731,-0.37871,-0.18621,-0.097287,-0.080133,-0.15017
0.24577,0.10038,-0.24322,0.14025,0.13304,0.093703,0.094503,0.12525
0.14808,0.5117,0.80341,0.094601,-0.0016782,-0.0043721,0.0044345,0.050477
-0.11276,0.32,-0.26296,-0.13428,-0.036609,-0.04057,-0.054186,-0.062692
-0.10781,-0.14491,0.039169,0.054194,0.011938,0.00028261,-0.0039169,-0.035273
0.060627,0.10879,0.30092,0.22207,-0.0048233,0.0085985,-0.0093442,0.0071702
0.0013555,-0.59162,-0.78403,-0.3102,-0.024343,-0.023383,-0.00043247,-0.0060186
0.011009,-0.019069,0.41711,0.13781,0.04758,0.029629,0.030627,0.026641
-0.15241,-0.15453,-0.30458,-0.1983,-0.085123,-0.050661,-0.048739,-0.050946
0.19141,0.45456,0.62523,0.33157,0.12547,0.080017,0.058757,0.066225
-0.01131,0.053871,-0.24886,-0.10665,-0.092946,-0.030978,-0.013589,0.0035408
-0.20485,-0.32618,-0.67054,-0.21423,-0.020539,-0.039546,-0.038757,-0.07458
0.22886,0.12836,0.2177,0.072962,0.023214,0.085734,0.069547,0.10555
-0.076871,0.029019,0.45167,0.21704,0.10129,-0.030168,-0.0166,-0.026289
-0.051815,-0.060543,0.36952,-0.00018015,-0.028453,-0.020269,-0.023726,-0.048277
-0.079531,-0.47772,-0.459,-0.32885,-0.13205,-0.056769,-0.053515,-0.062174
0.21363,0.7879,0.22058,0.19112,0.039727,0.024011,0.034422,0.064546
0.1228,0.14085,-0.37066,-0.027643,0.079584,0.05763,0.044469,0.058127
0.021184,0.18476,0.34652,0.40366,0.16609,0.11409,0.093499,0.12142
-0.36605,-0.70634,-0.75189,-0.57946,-0.30335,-0.21304,-0.17032,-0.23792
0.054178,0.0041496,0.44534,0.14612,0.061128,0.029308,0.018485,0.042626
-0.0068637,0.087478,0.43386,0.031996,-0.0065082,0.02874,0.01143,0.0023435
-0.05572,-0.16763,-0.24173,-0.016559,-0.0062587,-0.027026,-0.019516,-0.061506
0.26112,0.2415,-0.18307,0.21102,0.14035,0.11228,0.1055,0.16403
-0.093213,0.25075,0.29933,-0.074068,-0.050476,-0.053081,-0.035188,-0.047195
-0.13243,-0.42708,-0.65807,-0.26945,-0.1093,-0.054184,-0.074242,-0.069968
0.18375,0.056487,0.29313,0.1808,0.081708,0.062174,0.058735,0.064433
-0.066292,-0.23722,0.13433,-0.018718,-0.015997,-0.024353,-0.019087,-0.011485
-0.031753,0.081987,0.2213,-0.030589,0.01977,-0.017006,-0.010952,-0.024814
0.11394,0.37269,-0.35709,0.013651,0.0016112,0.013739,0.036076,0.047247
0.1032,0.44535,0.1505,0.099279,0.0075782,0.02085,0.012404,0.024414
-0.1127,0.0072232,0.38446,0.078325,-0.0015617,-0.0035915,-0.019647,-0.039024
-0.13655,-0.51734,-0.1175,-0.064762,0.0052675,-0.0049156,-0.0054725,-0.041576
-0.078016,-0.70539,-0.19314,-0.080176,-0.034529,-0.0064645,-0.015324,-0.0063745
0.001184,0.32589,-0.28164,-0.12448,-0.074043,-0.047101,-0.025548,-0.026519
-0.014513,0.10672,-0.32157,-0.049547,0.035312,0.0062595,-0.0045518,-0.0074007
0.27537,0.65839,0.26471,0.20681,0.11406,0.075772,0.0715,0.12217
-0.10384,-0.55391,0.46928,0.066154,-0.071987,-0.033651,-0.031406,-0.043378
-0.080599,-0.05873,-0.32536,-0.17508,-0.022748,-0.025029,-0.023967,-0.042779
0.16566,0.41088,0.55964,0.22476,0.097642,0.062535,0.062627,0.084791
0.0013112,-0.23054,-0.2523,-0.086567,-0.046988,-0.028952,-0.021762,-0.0049333
-0.12219,0.17384,-0.20857,-0.1722,-0.074172,-0.049777,-0.027434,-0.062745
0.058658,-0.061577,-0.20965,0.18608,0.086013,0.062235,0.021773,0.02766
-0.067591,-0.23706,0.28212,-0.10573,-0.058977,-0.029156,-0.030796,-0.046991
-0.0024616,0.44444,0.10248,-0.00072092,0.014034,-0.0038508,0.009841,0.001869
0.24561,-0.2394,0.049585,0.079584,0.06273,0.052118,0.073183,0.11942
-0.42452,-0.57736,-0.55356,-0.1768,-0.092572,-0.079962,-0.09078,-0.15502
-0.011482,0.1603,0.15606,0.011924,-0.029885,-0.024948,-0.028767,-0.031886
0.1273,0.16546,0.10413,0.18523,0.086909,0.053302,0.032941,0.059791
0.10329,0.011889,-0.37821,0.038594,0.015819,0.029989,0.024367,0.058118
0.32446,0.72341,1.0541,0.24381,0.10859,0.077141,0.086441,0.14319
-0.32544,-0.75123,-0.50604,-0.45719,-0.18931,-0.11768,-0.093134,-0.14578
-0.11983,-0.28928,-0.16335,-0.12725,-0.041829,-0.023235,-0.02992,-0.066756
0.041967,0.87494,0.26486,0.10835,0.043286,0.0009933,0.002552,-0.010698
0.03336,-0.21595,0.14816,0.077506,0.042608,0.017355,0.019674,0.029756
0.14149,0.52538,-0.20572,0.13936,0.05762,0.064727,0.052365,0.069783
0.044169,-0.67263,-0.20597,0.10613,0.01002,0.017914,0.022131,0.030893
-0.24442,-0.3049,-0.47005,-0.26477,-0.08482,-0.076376,-0.079173,-0.11057
-0.053091,0.11563,0.29368,-0.051816,-0.047483,-0.030746,-0.03302,-0.042146
0.38406,0.20763,0.62925,0.48692,0.20777,0.11575,0.11367,0.19726
-0.35362,-0.50536,-0.80851,-0.60161,-0.20193,-0.12115,-0.11552,-0.16548
-0.0063223,0.2005,0.51041,0.17529,0.036066,0.032251,0.021917,0.010689
0.076792,0.09842,0.22445,0.1155,0.047135,0.029392,0.034239,0.046552
-0.070684,-0.078005,-0.14695,-0.15459,-0.074443,-0.020009,3.1727e-05,-0.018406
0.2718,0.35442,0.022781,0.10875,0.054749,0.032781,0.021258,0.058316
-0.035508,0.24496,-0.048249,0.19605,0.075893,0.023895,0.012243,0.003434
-0.28192,-0.64995,-0.82351,-0.54788,-0.21375,-0.14036,-0.12068,-0.18308
0.29684,0.9272,0.91961,0.40865,0.20158,0.14151,0.13023,0.19391
-0.1374,-0.5134,-0.22221,0.049664,-0.014228,-0.03695,-0.039967,-0.053425
-0.017027,0.012361,0.33943,-0.063452,-0.033471,-0.004141,0.0012355,0.0042468
0.061495,-0.27671,-0.70556,-0.088672,-0.013,0.005273,0.0035018,0.0071829
-0.068147,-0.041431,0.12215,-0.0046043,-0.031582,-0.03239,-0.041261,-0.052718
-0.055802,0.18778,0.46668,0.11646,0.027421,0.015539,0.01521,0.0040749
0.11382,-0.097382,0.098368,0.10113,0.054295,0.03968,0.047876,0.068188
0.16029,0.17156,-0.38275,-0.2545,-0.068225,-0.022336,-0.013482,0.014777
-0.33646,-0.76767,-0.054324,-0.075232,-0.050892,-0.068704,-0.074924,-0.13245
0.032355,0.63043,0.43004,0.13997,0.067599,0.057114,0.059096,0.064329
0.027322,0.091506,-0.25294,-0.036894,-0.01701,-0.0040049,-0.0018447,0.019446
0.088457,-0.25473,-0.42479,0.028885,0.015939,-0.0097463,-0.01546,-0.016961
0.045634,0.38124,-0.062302,-0.090755,-0.028739,0.0085752,0.0025687,0.0019049
-0.13178,0.041277,0.23261,0.16762,0.051922,0.019427,0.012948,0.0054124
0.14933,0.14449,0.50514,0.022771,0.015291,0.022339,0.030923,0.039901
0.059066,-0.019551,0.10276,0.028423,-0.0064522,-0.014511,0.0013504,0.010963
0.024601,-0.054713,-0.18482,0.081358,0.048526,0.025516,0.001931,0.0038981
-0.019246,-0.57335,-0.29771,-0.031305,-0.015598,-0.022032,-0.014495,0.0026194
-0.34817,-0.36628,-0.81166,-0.58475,-0.2459,-0.15729,-0.13392,-0.20397
-0.026049,0.02051,0.75022,0.23238,0.068722,0.073039,0.050097,0.040584
0.33753,0.8177,0.80922,0.29478,0.1085,0.091258,0.10048,0.18213
-0.076868,0.50924,-0.0098467,0.079591,0.077324,0.0073509,-0.0056737,-0.028577
-0.087858,-0.83998,-0.72095,-0.16189,-0.016152,-0.021762,-0.025603,-0.036
0.095715,0.68098,0.25875,0.079993,0.0085407,0.012359,0.0099216,0.020017
-0.11007,-0.99972,-0.99181,-0.26299,-0.10579,-0.053839,-0.039389,-0.078659
0.14008,0.5861,0.50084,0.084626,0.016263,0.029997,0.037561,0.074606
0.12822,-0.1792,0.28361,0.15578,0.015517,-0.0015852,-0.0014355,0.018996
-0.29411,-0.32043,-0.17316,-0.22039,-0.061199,-0.054852,-0.054989,-0.11281
0.083264,-0.028473,0.28798,0.16719,0.074897,0.034047,0.04848,0.061628
0.10281,0.38561,-0.16991,0.067659,0.024852,0.030327,-0.0039042,0.033948
-0.12763,0.34935,0.2142,-0.028549,-0.032367,-0.019718,-0.017246,-0.032464
0.062384,0.083574,0.30658,0.09494,0.050829,0.055088,0.039296,0.04918
-0.02358,-0.060861,-0.46786,-0.19727,-0.015479,-0.035045,-0.029944,-0.049894
-0.011083,-0.46098,-0.15577,-0.11062,-0.075765,-0.032942,0.0013586,-0.0098536
0.076519,0.069232,0.30426,0.13454,0.041402,0.037539,0.031558,0.059697
-0.07255,-0.17252,-0.26042,0.084472,1.5843e-05,-0.019021,-0.032991,-0.052095
0.011724,0.2402,0.33873,0.075607,0.034799,0.01639,0.011134,0.014541
-0.067487,-0.058706,-0.63663,-0.32803,-0.11916,-0.082188,-0.054362,-0.067863
0.050892,-0.11082,0.30507,0.094601,0.070367,0.037664,0.028877,0.037439
0.063687,-0.087284,0.033635,0.041461,0.010684,0.017524,0.019204,0.034387
-0.03585,0.41279,0.49963,0.17137,0.046504,0.03014,0.018608,0.025214
0.041775,-0.35035,-0.2431,-0.02145,0.0066464,0.021445,0.011695,0.010322
-0.078736,0.022307,-0.67139,-0.1999,-0.10858,-0.062996,-0.056245,-0.072729
0.070353,0.33279,0.15923,0.02674,0.044454,0.018836,0.025449,0.033585
-0.11414,-0.10538,0.44156,0.079349,-0.019184,-0.014861,-0.024963,-0.054141
0.11577,-0.061099,0.25654,0.14349,0.12149,0.077264,0.080954,0.092977
0.0078512,0.23988,-0.27094,-0.095915,-0.042449,-0.026072,-0.03245,-0.010325
0.0053028,-0.27447,-0.11264,0.022341,-0.019958,-0.005494,0.0014381,0.017909
-0.19836,-0.23966,-0.24267,-0.30131,-0.12457,-0.10394,-0.09122,-0.1277
0.13,0.38924,0.24621,0.16534,0.057023,0.029703,0.025338,0.028957
0.0054584,0.0032529,0.096819,0.030297,0.024418,0.01249,0.030854,0.0268
0.19392,-0.22186,0.39662,0.1213,0.066674,0.047729,0.019327,0.06129
-0.17854,0.21419,-0.43687,0.079612,0.035734,0.049897,0.038003,0.023474
-0.078825,-0.45758,-0.39741,-0.21816,-0.12237,-0.058555,-0.053306,-0.070385
0.089247,0.4896,0.40714,0.11326,0.062103,0.027723,0.0271,0.022705
-0.15592,-0.19178,-0.089134,-0.173,-0.065933,-0.04994,-0.025028,-0.063555
0.063465,-0.56889,-0.59068,-0.07359,-0.013073,-0.017405,-0.02178,-0.015769
0.1326,0.3759,0.40987,0.086571,0.034294,0.0087934,0.021594,0.065286
-0.001526,0.24339,0.56786,0.11469,0.022328,0.021386,0.011663,0.039561
-0.010074,0.52122,0.052637,0.16843,0.053041,0.028552,-0.0044626,-0.022352
0.059772,0.099185,-0.02347,-0.13495,-0.037647,-0.016449,-0.011038,0.0044825
-0.2229,-0.50362,-0.43342,-0.085801,-0.023646,-0.020002,-0.015897,-0.067822
0.14783,-0.35636,-0.21016,0.016623,0.016082,0.0096809,0.035464,0.049151
-0.056853,-0.16968,0.096188,0.052064,0.01018,0.01729,0.0098941,0.018666
0.027987,0.088442,-0.16703,0.017308,-0.011175,-0.01357,-0.014948,-0.011673
0.056624,0.19358,0.47991,-0.098307,-0.041104,0.0022271,-0.016169,-0.019179
-0.0036588,0.47772,0.3214,0.12501,0.036905,0.017055,0.021297,0.011196
-0.020893,-0.27238,-0.34228,-0.14194,0.0037519,-0.0087375,0.0031999,0.016603
-0.16719,-0.29215,-0.62432,-0.094541,-0.046858,-0.036442,-0.031783,-0.057766
-0.0048052,-0.003691,0.36286,0.096085,0.010266,-0.0036525,-0.0057655,-0.024348
0.099551,0.16348,0.35155,0.07961,0.042619,0.027276,0.026486,0.062333
-0.041154,0.029931,-0.41705,-0.09578,-0.058864,-0.044895,-0.044348,-0.047555
0.3702,0.44745,0.72906,0.25065,0.13572,0.10056,0.094392,0.16953
-0.17422,-0.38047,-0.51352,-0.10709,-0.084489,-0.043734,-0.033632,-0.067658
-0.15899,-0.3124,-0.447,-0.090743,-0.016412,-0.024298,-0.060978,-0.11072
-0.029517,0.21579,0.42436,0.033864,-0.0038972,0.0029009,0.036065,0.032528
0.058195,-0.019673,-0.02779,-0.045985,0.015499,0.022433,0.0077837,0.010619
0.22218,0.66495,0.67808,0.24787,0.073105,0.050061,0.049795,0.089485
-0.3095,-1.0924,-1.0233,-0.31847,-0.10425,-0.078151,-0.056324,-0.089722
-0.097342,0.18252,0.052285,-0.06432,-0.01608,-0.026124,-0.013343,-0.041915
0.14208,0.22171,0.22078,0.027305,-0.0055221,0.026627,0.0072234,0.038399
-0.019016,0.09949,0.24967,0.17662,0.053091,0.0099712,-0.017732,-0.027713
0.06894,-0.27599,-0.087726,-0.037036,-0.03499,-0.021257,-0.0098401,0.0024835
0.1794,0.47722,0.2065,0.2151,0.11338,0.073626,0.070051,0.12919
-0.048236,0.10541,-0.2621,-0.26241,-0.07991,-0.057014,-0.02817,-0.06968
-0.13973,-0.20998,-0.06879,0.02176,0.0020179,0.016296,0.0076686,-0.00098134
0.034788,0.070538,0.11711,0.073959,-0.0086031,0.0041622,0.0051841,-0.0015325
0.03479,-0.24793,-0.076324,0.0018297,0.051572,0.023381,0.010639,0.0058108
-0.064048,-0.23399,0.066122,-0.063489,-0.060353,-0.051424,-0.039073,-0.034517
-0.028755,0.22573,0.073826,-0.006109,0.0066319,-0.0017954,0.0039922,0.0018803
0.01559,0.14576,-0.60018,0.0091907,0.017855,0.015862,-0.0089002,-0.010229
