-0.0025743,0.027648,0.039676,0.044422,0.078599,0.21158,0.0073805,-0.25872
-0.026609,0.0046633,0.0012185,-0.040039,-0.077769,-0.18691,-0.05417,0.16941
0.020641,-0.042766,-0.069227,-0.016103,-0.0082908,-0.11152,-0.16337,0.1224
0.045463,0.088662,0.10965,0.053661,0.044939,0.1179,0.26609,-0.13296
-0.014736,-0.022614,-0.024518,-0.041607,-0.07406,-0.22417,-0.25715,0.18419
0.019534,-0.032462,-0.026198,0.018621,0.056998,0.19961,0.1118,0.17357
-0.047299,0.020444,0.026758,0.015922,0.024528,0.17201,0.22569,-0.49585
0.018872,-0.0041799,-0.029388,-0.010232,-0.0069489,-0.19631,-0.43019,0.00059989
-0.024372,0.042362,0.024462,-0.0047113,0.0019879,0.13457,0.12884,0.065716
-0.028775,-0.027285,-0.037927,-0.013966,-0.034416,-0.046065,0.089751,-0.17851
0.060196,-0.056853,-0.0053682,-0.0064071,-0.022451,-0.12146,0.20887,0.80475
-0.046692,0.023847,0.020673,0.010339,-0.0014797,-0.13178,-0.15677,-0.42328
-0.013731,-0.035465,-0.030234,-0.018447,0.043565,0.1479,0.10717,-0.26121
0.033776,0.014787,0.029036,-0.0071162,-0.013102,0.051457,-0.41625,-0.036229
0.072059,0.095932,0.072877,0.059418,0.061968,0.27982,0.51284,0.1521
0.13211,0.066769,0.022406,0.05543,0.025657,-0.083125,-0.19275,0.29881
-0.11425,-0.04975,-0.06845,-0.058932,-0.099358,-0.25759,-0.13442,-0.09271
-0.22137,-0.12886,-0.059654,-0.026541,-0.0088057,-0.2441,-0.2011,-0.50335
-0.0010008,-0.029802,-0.037404,-0.035304,-0.038555,0.12986,0.1649,0.4138
0.11828,0.06048,0.068775,0.04759,0.13231,0.62398,0.27218,0.16099
-0.010691,0.033517,0.071971,0.0038461,-0.049812,-0.36822,0.16404,-0.54992
0.050734,-0.047112,-0.058144,-0.04849,-0.075679,-0.24949,-0.32749,0.022398
0.12357,0.069598,-0.00016539,0.0088766,0.017175,-0.039772,0.0037412,0.37512
-0.17493,-0.060998,-0.049917,-0.010419,0.019179,0.060652,-0.30942,-0.051105
0.021735,0.045596,0.035573,0.035159,0.0093937,-0.18888,-0.032781,0.15962
0.0090988,-0.048659,-0.094935,-0.025804,0.027196,0.60201,0.52682,0.18846
-0.027113,0.022255,0.10516,0.056568,0.072194,0.071812,-0.2675,-0.087176
0.10651,0.02233,0.017782,-0.007511,-0.12228,0.052853,0.57882,-0.12359
-0.005729,0.066961,0.086884,0.054204,0.09074,-0.70918,-0.51832,-0.46753
0.10386,0.20145,0.1859,0.044994,0.061178,0.69586,0.59209,-0.10739
-0.35398,-0.38764,-0.34282,-0.17707,-0.22022,-0.53137,-0.59312,0.0029176
0.11374,0.01059,-0.07043,0.012114,0.13622,0.18694,-0.05844,0.30204
-0.038239,-0.071608,-0.0047928,-0.020532,-0.10419,-0.41284,-0.6052,-0.0055784
0.1298,0.12548,0.034592,0.045716,0.043308,0.040261,0.67931,0.79051
-0.051694,0.049596,0.057032,-0.02252,-0.029732,0.10553,-0.33722,-1.1181
0.20828,0.11727,0.17373,0.11986,0.17012,0.44332,0.57236,0.78396
-0.28445,-0.22423,-0.18386,-0.1664,-0.2231,0.25921,-0.077493,-0.14016
0.0092973,0.096467,0.12617,0.11203,0.11967,-0.44676,-0.27573,-0.31192
0.096297,0.024588,-0.11433,-0.0286,0.026985,-0.075537,0.0626,0.056473
0.029267,-0.0035851,0.024143,0.028901,-0.024777,0.11826,0.4713,0.12786
0.18847,0.056723,0.0016196,0.018327,0.04178,0.050757,-0.13639,0.35595
0.00098376,0.12484,0.13699,0.071451,0.045867,-0.24477,-0.24742,-0.27901
-0.30872,-0.14546,-0.055787,-0.11767,-0.12309,-0.038559,-0.043894,-0.6133
-0.10111,-0.21699,-0.17987,-0.081477,-0.036429,0.36213,-0.018207,-0.10451
0.13961,0.0030328,0.0056465,0.02285,0.047441,-0.058246,0.090964,0.21441
-0.1008,0.061604,0.04684,0.022945,-0.012165,-0.039076,-0.044249,0.34302
0.14866,0.1004,0.052848,0.059402,0.027428,-0.35641,-0.30972,0.43665
0.054674,0.089848,0.10991,0.038857,0.010877,-0.058185,-0.033062,-0.25744
-0.075723,-0.014979,-0.031212,-0.069236,-0.10756,0.12062,0.30378,-0.26812
0.14193,-0.071613,-0.09592,0.0094618,0.087328,0.18634,0.14853,0.66997
-0.072979,0.054254,0.096903,0.057189,0.080848,0.25271,-0.23275,-0.49226
-0.056726,-0.073876,-0.13866,-0.073521,0.029875,0.07135,0.43037,-0.21883
0.033283,-0.049297,-0.10577,-0.014624,-0.073139,-0.30432,-0.43178,-0.10628
0.039211,0.03415,0.10308,-0.0076722,-0.087621,-0.088965,0.15393,0.10148
-0.017115,-0.011642,0.027636,0.017968,0.06427,0.57152,0.68099,0.029186
-0.19946,0.10132,0.19128,0.030968,-0.1179,-0.85205,-0.91344,-0.0097528
0.17119,-0.089334,-0.070942,0.03081,0.14658,0.29929,0.17518,0.34549
-0.045792,0.063164,-0.057566,-0.045937,-0.049132,-0.11107,0.09693,-0.45862
0.0095631,0.0024333,0.0027267,0.033859,0.044263,0.1414,-0.35459,0.093682
0.025723,-0.10114,-0.18135,-0.05931,-0.050544,-0.1937,-0.10902,0.43854
0.0037589,0.38424,0.45076,0.15762,0.071937,0.43148,0.43042,-0.2316
-0.086673,-0.55745,-0.53976,-0.19919,-0.042098,-0.07501,-0.11403,0.14186
0.23151,0.18353,0.15909,0.065023,0.03656,0.12502,0.29465,0.07816
-0.072899,0.022307,0.055417,-0.026304,-0.059432,-0.40361,-0.22893,-0.47303
-0.14884,0.015144,0.033055,0.01958,0.021731,-0.025951,0.1626,0.11138
0.018378,0.07789,0.12475,0.024007,-0.047431,0.28323,-0.19338,-0.090327
-0.025647,-0.22529,-0.25369,-0.097667,-0.062826,-0.31071,-0.047726,0.10374
0.045745,0.36466,0.4151,0.21061,0.13291,0.19292,0.073309,-0.29487
0.051375,-0.22976,-0.41415,-0.10464,0.0017698,0.10658,0.28278,0.25733
0.091482,0.030488,-0.013572,-0.065946,-0.033606,-0.00012714,-0.29889,0.10821
0.024512,0.05105,0.1021,0.0068826,-0.019759,-0.081594,-0.011723,0.46392
-0.25922,-0.14559,-0.035472,0.0045184,-0.027172,-0.053411,0.071164,-0.4083
0.15487,0.087971,0.057947,0.051609,0.12322,0.11421,-0.11368,0.3121
0.033808,0.18842,0.25671,0.13188,0.032052,-0.0016427,0.11454,-0.29733
-0.19832,-0.16491,-0.19802,-0.11481,-0.082901,-0.24513,0.086918,-0.38581
0.086258,0.012578,0.028513,-0.0094786,-0.019304,0.1263,-0.31731,-0.063197
0.0075731,-0.12987,-0.12728,-0.091675,-0.082235,0.090169,0.039348,0.38923
-0.064742,-0.16919,-0.22866,-0.049063,0.017485,-0.10996,-0.0109,-0.16112
0.13646,0.2943,0.35677,0.11067,0.014806,-0.01956,0.10484,-0.0033352
-0.021378,-0.137,-0.17571,-0.041898,0.035591,0.07334,0.22293,0.23675
0.038743,0.20893,0.15835,0.079422,0.010424,0.067606,0.12267,0.18217
0.033262,0.065668,-0.023771,-0.0018917,-0.013147,0.048853,-0.074855,-0.099788
0.091957,-0.021476,-0.034664,0.034227,0.074516,-0.015163,-0.04655,-0.0503
-0.061713,0.10174,0.20354,0.054452,0.0075714,-0.16492,-0.19582,-0.17287
-0.16462,-0.38691,-0.27045,-0.1528,-0.058357,0.066876,-0.15918,-0.048083
-0.046276,-0.012157,-0.035045,-0.033464,0.0086792,0.11658,0.17894,0.096805
-0.13637,0.2022,0.2534,0.099586,-0.050006,-0.14133,-0.10244,0.083578
0.15222,-0.2901,-0.36585,-0.11308,0.0071107,-0.11283,-0.0079795,-0.20141
0.048034,0.15291,0.19364,0.086633,0.015659,0.038966,0.029497,-0.19844
-0.017187,0.017184,0.026306,-0.035054,-0.071134,0.12801,0.022982,0.20748
0.12218,0.069676,-0.078049,0.030408,0.09095,-0.031592,0.12548,0.16202
0.076112,0.3111,0.225,0.065037,0.033871,0.26465,0.29316,0.13739
-0.023031,-0.094494,-0.071832,-0.024238,-0.022821,-0.44336,-0.30115,-0.13092
-0.0828,-0.077331,0.023998,-0.01033,-0.039333,0.2117,-0.11957,-0.17564
0.059192,-0.11469,-0.081028,-0.025715,0.023934,-0.10673,0.10829,0.28066
-0.22353,-0.35548,-0.28523,-0.1015,-0.082766,0.084436,-0.21558,-0.10334
0.052612,0.10647,0.1379,0.066949,0.10925,0.11939,0.20099,0.09612
-0.018449,0.1075,-0.022903,0.0027872,0.0058515,-0.01938,0.29118,-0.11065
0.072241,0.32782,0.40349,0.10394,-0.010784,-0.052287,-0.25296,-0.094484
0.014014,-0.14631,-0.17013,-0.060022,-0.027394,-0.1289,-0.12836,0.065101
-0.066055,-0.096317,-0.13608,-0.029066,-0.052634,-0.046458,-0.06134,-0.24804
0.021341,0.17232,0.21468,0.063029,0.045539,0.054871,-0.042072,-0.062108
0.035114,-0.24013,-0.26804,-0.073667,-0.014718,0.10594,0.096897,0.0020623
0.13947,0.17267,0.055261,0.0055416,0.016246,-0.11822,0.086218,0.40962
0.0054636,0.18292,0.19215,0.050423,0.021189,0.16536,0.1643,0.15598
-0.016913,-0.31146,-0.23932,-0.0091119,0.078487,0.028504,-0.12651,0.06302
-0.093626,0.033709,0.098728,-0.008329,-0.069121,-0.12923,0.075243,-0.18198
-0.1796,-0.19416,-0.13475,-0.11808,-0.13177,-0.096296,-0.22981,-0.23697
0.012897,0.046279,0.055477,0.07689,0.086837,0.38523,0.17634,-0.17468
0.076942,0.16387,0.086279,0.007415,-0.068573,-0.50527,-0.17701,0.049359
0.082821,-0.06561,-0.13408,-0.0053354,0.11378,0.20813,0.090224,0.37883
0.038812,0.289,0.26243,0.078099,-0.014016,-0.037888,0.021751,-0.046066
0.031584,-0.021981,-0.0059834,0.015393,0.048123,0.2245,0.20038,0.056929
-0.086497,-0.17135,-0.026968,-0.0065631,0.010776,-0.15406,-0.1969,-0.27861
-0.041238,-0.090666,-0.099927,-0.066813,-0.095535,0.028766,-0.12508,-0.22908
0.097707,0.045855,-0.086984,-0.049148,-0.021747,-0.055743,0.14937,0.34979
-0.059704,0.13438,0.11886,0.037822,-0.010997,-0.12662,-0.068513,0.0080985
-0.06761,-0.25646,-0.12457,0.021801,0.13906,0.26148,0.097733,-0.32245
0.10578,0.14595,0.018247,-0.026857,-0.095476,-0.20359,-0.16986,0.35049
6.7637e-05,0.084026,0.10267,0.056408,0.035325,0.095926,0.05351,-0.014142
-0.056109,-0.11302,-0.025987,-0.055697,-0.054132,0.020116,0.044367,0.25159
-0.023281,-0.11536,-0.10786,-0.026242,0.011842,0.069755,0.27437,-0.091947
-0.034047,0.039789,0.062236,0.012883,0.0075976,-0.10596,-0.22283,-0.081477
0.13809,0.18213,0.064063,0.03889,0.0044078,0.10304,0.070051,0.090967
-0.015104,0.0078738,0.070342,0.03636,0.0030874,-0.31053,-0.41652,-0.67873
-0.017841,-0.068937,-0.12216,-0.034078,-0.034932,0.15363,0.17659,0.24228
-0.050897,0.16952,0.15739,0.053341,0.077902,0.081418,-0.0034674,-0.0028278
-0.029606,-0.34872,-0.24122,-0.06972,-0.018209,-0.019826,0.18941,0.18421
0.091606,0.15555,0.070456,0.017309,0.019644,0.10679,0.36143,0.26194
-0.016534,0.070949,0.090208,-0.053987,-0.083086,-0.094709,-0.39727,-0.10039
-0.0032888,-0.080681,-0.0432,0.067003,0.11774,0.069577,0.23799,-0.32072
0.021596,0.074777,0.044014,-0.0030615,-0.050738,0.0046158,-0.33698,0.37647
-0.082349,-0.13457,-0.10948,-0.068913,-0.081361,-0.14981,-0.15472,-0.15731
0.029297,0.065568,0.0046404,0.018301,0.025719,-0.034524,0.074144,0.13845
-0.056449,-0.0029721,0.051711,0.032797,-0.026027,0.022849,0.015397,-0.16155
0.021095,0.021117,0.057028,0.061516,0.10791,0.070267,0.22638,-0.17871
0.052293,-0.14927,-0.23511,-0.11322,-0.071433,0.0075716,-0.040016,0.13742
0.085097,0.16716,0.21637,0.072091,0.022954,-0.054464,-0.09391,0.10346
-0.067308,-0.059849,-0.079104,-0.037981,0.0092249,0.12744,0.17547,-0.0097779
-0.014069,0.13871,0.12949,0.041523,-0.025996,-0.071152,-0.051984,-0.24266
-0.021017,0.090537,0.037789,0.014062,0.042627,0.1076,0.17594,0.3268
0.012882,-0.080232,-0.088813,-0.04995,-0.011488,-0.078929,-0.33765,0.036037
0.00098073,-0.11674,-0.032199,-0.0099703,-0.016784,-0.022076,0.022694,-0.31544
-0.034019,-0.14471,-0.035338,0.024403,0.0027956,-0.10536,-0.11158,0.057078
0.063498,-0.070725,-0.12242,-0.017464,0.031059,0.030091,0.13394,0.032413
-0.0037865,0.050604,-0.020623,-0.01879,-0.018445,0.18096,0.50182,0.075204
-0.095458,0.21956,0.27734,0.02776,-0.11484,-0.17605,-0.60818,0.071329
0.093186,0.092629,-0.041503,0.02789,0.10101,-0.017143,-0.0065601,-0.039721
-0.00015532,0.091654,0.061385,0.027881,0.011849,0.040943,0.043303,-0.046401
-0.062684,-0.10403,-0.0083124,-0.011931,0.016067,0.15479,0.012165,-0.30119
0.054346,-0.34659,-0.31366,-0.099912,-0.050447,-0.081769,0.15905,0.41226
-0.023842,0.089864,0.082344,0.013491,-0.0081397,-0.083035,0.062108,-0.058098
-0.031552,0.12664,0.13251,0.038924,0.033367,0.048863,-0.10032,-0.09952
0.077962,0.052447,0.094542,0.062213,0.042486,-0.022828,0.28641,0.43961
0.0075118,0.046827,-0.015844,-0.0025054,0.011039,0.04471,-0.41385,-0.53079
-0.11053,-0.20268,-0.12022,-0.076851,-0.10032,-0.022851,0.076688,-0.068385
0.082726,-0.047489,-0.16342,-0.035411,0.036413,0.039436,0.0050662,0.30211
0.024423,0.24692,0.22232,0.067662,-0.00045464,-0.073437,-0.075881,-0.14518
-0.043389,-0.084953,-0.040527,0.022034,0.031739,-0.0097618,0.18501,0.037698
0.027939,0.082015,-0.0061315,-0.038876,-0.022491,0.15299,-0.00018501,0.011185
-0.0031717,0.1308,0.154,0.033915,-0.045001,-0.091854,-0.050774,-0.21174
-0.041997,-0.3836,-0.10681,-0.016985,0.019889,-0.11002,-0.23663,0.24929
-0.024827,-0.030977,-0.1792,-0.050694,0.0089625,0.068846,0.14943,0.055319
-0.044195,0.29095,0.23358,0.057846,-0.0069484,-0.061612,0.080038,-0.19638
0.033658,-0.26079,-0.21243,-0.035251,0.04253,0.054309,0.034869,0.22253
-0.0018162,0.072312,0.021552,-0.0099895,-0.022736,0.057562,0.00014447,-0.16463
0.12247,0.18906,0.18526,0.07069,0.038545,0.010164,-0.062894,-0.055151
0.046004,0.01132,-0.018402,0.018813,0.045506,0.059302,0.063244,0.39915
-0.029816,0.1637,0.17611,0.013667,-0.073386,-0.031193,-0.014652,-0.18101
-0.044477,-0.3544,-0.29354,-0.085585,-0.014441,-0.060168,-0.14382,-0.29229
0.054934,-0.051368,-0.075291,-0.028892,0.01866,0.10346,0.23438,-0.10285
-0.20926,0.072446,0.058219,-0.042506,-0.12251,-0.24457,-0.094637,0.23568
0.061206,-0.10021,-0.09517,0.038124,0.070414,0.0048206,-0.20415,0.22124
-0.015599,0.14957,0.090409,0.010373,-0.010991,0.039635,0.23987,-0.053193
-0.016086,0.12669,0.26387,0.093327,0.05626,0.12667,0.0024024,-0.16532
0.069719,-0.11408,-0.15309,-0.0020623,0.062238,0.0095979,-0.25973,-0.098027
0.017363,0.08328,0.049602,0.012913,0.0076381,0.025863,0.17387,0.10408
0.015912,-0.023973,-0.012388,-0.042114,-0.091655,-0.065519,0.016577,-0.017143
0.066044,-0.22575,-0.17689,-0.043015,0.021984,0.025263,0.075891,0.14276
0.042422,0.16442,0.046349,-0.029734,-0.034829,-0.029681,0.0031063,-0.077577
-0.16559,-0.065444,-0.00061352,-0.0030047,-0.020734,-0.050898,-0.019528,-0.011916
0.049505,0.19313,0.13418,0.067947,0.071127,0.054757,-0.13845,0.020865
-0.048804,-0.09175,-0.049786,-0.012371,-0.025823,-0.041695,-0.071155,-0.041163
-0.0093515,-0.16253,-0.12264,-0.032912,-0.0077227,0.025963,-0.051686,-0.13584
0.14297,0.19977,0.13523,0.069168,0.077953,0.10052,0.37247,0.20437
-0.13946,-0.027539,0.0064805,-0.025917,-0.081582,-0.13919,-0.13612,-0.11626
-0.020656,-0.069806,-0.061789,-0.012824,-0.0018622,0.025002,-0.024947,0.087242
0.086109,-0.13638,-0.059774,-0.0080024,0.012909,0.13969,0.4301,0.23396
-0.036577,0.17295,0.037921,-0.002863,0.0026465,-0.16218,-0.57008,-0.35845
0.027006,0.094252,0.1627,0.042423,0.038787,0.041782,-0.08172,0.096963
-0.026125,-0.20701,-0.18416,-0.08239,-0.096163,-0.052257,-0.011594,-0.080711
0.063349,0.098177,-0.0019517,0.021683,0.052127,0.017706,0.15649,0.061575
-0.12532,0.14287,0.22503,0.042464,-0.062258,0.088704,0.36149,-0.037552
0.12724,-0.26083,-0.28503,-0.02782,0.092474,-0.057085,-0.27737,0.14757
0.047726,0.21417,0.15422,0.052742,0.0085244,-0.020632,-0.10177,0.018433
-0.1142,-0.16013,-0.083815,-0.036733,0.021295,0.049773,-0.063112,-0.19492
-0.054513,-0.049496,-0.071314,-0.047042,-0.057714,-0.018064,0.042716,-0.0046514
0.022783,0.22402,0.27573,0.083418,0.012405,0.032961,0.14543,-0.11874
0.069872,-0.13796,-0.13818,-0.036835,-0.0040478,0.014398,0.20504,0.4023
0.023362,0.082246,0.05288,0.021233,0.0011872,-0.051293,-0.16301,-0.1205
-0.00031018,0.071698,0.059303,0.015112,-0.003843,-0.039911,-0.085836,-0.062879
-0.071991,-0.22396,-0.25137,-0.070735,-0.019304,0.063714,-0.010807,-0.13788
0.034607,0.071371,0.028392,-0.0014292,0.0020655,-0.045127,-0.087864,0.24506
-0.047709,0.014136,0.072505,0.020729,-0.0092001,0.016769,0.13547,0.0040358
0.0094018,-0.10448,-0.10097,-0.042349,0.010516,-0.062414,-0.19209,-0.22418
0.05786,0.10824,0.13531,0.028984,-0.031387,0.038428,0.078973,0.15086
-0.034759,-0.064814,-0.060671,0.016567,0.053524,0.030916,0.11423,-0.052839
-0.018141,0.13496,0.13213,0.045507,0.01577,0.0013846,-0.12381,-0.055024
0.068805,-0.011465,-0.0055105,0.013799,0.019419,0.09047,0.33483,0.10566
-0.031767,-0.044511,-0.045512,-0.024799,-0.021966,-0.014695,-0.267,-0.053473
0.0080677,0.1508,0.11127,0.04567,0.015732,-0.11162,0.031704,-0.20951
-0.046367,-0.1313,-0.16289,-0.08857,-0.048241,0.025524,0.0039195,0.23433
0.031192,-0.073065,-0.065808,-0.014504,-0.0039726,-0.041391,-0.11673,-0.0080529
0.0061718,-0.012419,0.033523,-0.013986,-0.008492,0.015351,0.10644,0.096978
-0.019871,0.0027239,-0.0063363,0.014494,0.008109,0.0081411,0.032159,0.043122
0.078294,0.097436,0.06485,0.04017,0.014597,0.077774,0.10539,-0.1613
-0.058245,-0.04747,-0.0017698,0.0014293,0.011363,-0.017562,-0.24421,-0.11829
-0.085103,-0.14101,-0.11848,-0.061565,-0.040001,-0.082081,-0.063282,0.13972
-0.02504,0.13167,0.13862,0.031967,0.0018978,0.02531,0.08603,0.02512
0.052195,-0.039571,-0.025342,0.040743,0.02841,0.0081039,0.086786,-0.13585
0.12345,0.3004,0.2038,0.059111,0.032285,0.038381,0.024904,0.19404
-0.0066686,-0.15949,-0.15709,-0.029858,0.0060422,-0.0010241,0.10314,-0.088324
-0.010529,-0.082572,-0.083787,-0.046506,-0.011166,0.030377,-0.030716,-0.023072
-0.037344,-0.093746,-0.052488,-0.045745,-0.02725,-0.05515,-0.11175,0.045575
-0.0020696,-0.060674,-0.071022,-0.020085,-0.018985,-0.015675,0.086087,0.16469
-0.11645,0.14071,0.19616,0.030122,-0.049115,-0.062346,-0.17941,-0.36023
0.072088,-0.029948,-0.048616,0.018579,0.061817,0.07815,-0.048319,0.11271
0.016463,0.14451,0.021585,0.030845,0.032369,-0.0082877,-0.066433,-0.11817
0.060559,0.15452,0.22552,0.074319,-0.0048099,0.10024,0.3848,0.1828
-0.060852,-0.36885,-0.24327,-0.085817,-0.010807,-0.11183,-0.1777,0.047634
-0.042548,-0.036524,-0.13654,-0.059381,-0.032646,0.01182,0.020464,-0.00012991
0.022261,0.14251,0.12233,0.028245,0.015461,-0.013101,0.026522,-0.047059
0.071507,-0.058974,-0.014601,0.020545,0.00055659,0.01661,-0.042574,0.046362
-0.003923,0.077641,0.069431,0.03461,0.024077,0.030726,0.14841,0.03678
-0.016437,0.13871,0.10903,0.0080423,-0.046881,-0.056598,-0.15927,0.087549
0.010502,-0.13265,-0.16836,-0.027604,0.084523,0.090675,0.088234,-0.012051
-0.095028,-0.039772,-0.042549,-0.064034,-0.081668,-0.097662,-0.32056,-0.52625
0.096693,0.020601,0.050774,0.039987,0.048427,0.066005,0.20794,0.24276
-0.023538,-0.098073,-0.050508,-0.01959,-0.04841,-0.035402,0.048949,-0.11597
-0.025702,0.074833,0.061643,0.039055,0.0031054,0.0044465,0.04658,0.056832
-0.073422,-0.076272,-0.041112,-0.025877,-0.01546,-0.064428,-0.17388,0.27099
0.083746,0.11373,0.1263,0.067011,0.075873,0.0704,0.18442,0.19092
0.039879,0.020196,-0.061145,-0.033955,-0.035168,-0.01314,-0.089857,-0.28661
-0.033055,0.072364,0.083346,0.014655,-0.0046968,0.004956,0.010276,0.11616
0.067854,-0.0042977,-0.035127,0.0092884,0.065769,0.21807,0.1791,0.17581
-0.032917,-0.062868,-0.050694,-0.034848,-0.011293,-0.20227,-0.0062175,-0.30788
-0.093963,-0.11277,-0.14423,-0.078999,-0.13438,-0.12346,-0.24943,-0.10466
0.00096384,-0.014758,0.034973,0.025127,0.016722,0.040372,-0.027107,-0.068671
0.047763,0.07394,0.088078,0.043158,0.020016,-0.023114,0.0051628,0.057275
-0.0013326,-0.1206,0.054135,0.029876,0.054981,0.10821,0.012663,0.024433
0.056117,0.14375,-0.035349,0.016635,0.058811,0.075214,0.090626,0.077657
0.024436,0.046852,-0.031574,-0.043393,-0.047029,-0.043786,-0.033025,0.064079
0.0052472,0.073404,0.10485,0.052878,0.041702,-0.0065477,0.15043,0.19801
-0.1259,-0.1669,-0.15711,-0.085291,-0.089449,-0.024021,-0.046258,-0.24428
-0.00079897,0.12313,0.11226,0.049758,0.03586,0.013163,0.10311,0.10632
-0.024319,-0.13433,-0.016821,-0.026496,-0.051088,-0.090224,-0.11323,-0.046047
0.015988,-0.071738,-0.091427,-0.001658,0.0093805,0.0019615,-0.12587,-0.20118
0.035535,0.12377,0.08351,0.014845,-0.032231,0.00095794,-0.18559,-0.11726
0.074278,0.015056,0.039005,0.015198,0.098101,0.086754,0.21504,0.45504
-0.00037243,-0.038286,-0.092314,-0.031826,-0.020983,0.032975,0.10732,0.0071269
-0.01707,-0.036217,-0.03712,-0.016826,-0.029792,-0.090082,-0.031839,-0.086668
0.030817,0.19292,0.14987,0.075836,0.07172,0.13139,0.071537,-0.10025
-0.092689,-0.19508,-0.093784,-0.027278,-0.044788,-0.12336,-0.12889,-0.29164
0.071651,0.1898,0.091411,0.017592,0.010902,0.020117,0.015696,0.1594
-0.11044,-0.25468,-0.11468,-0.055131,-0.027296,-0.040251,-0.04143,0.026161
0.055406,0.025618,-0.063384,-0.010948,-0.011328,0.04673,-0.050472,0.19879
0.0063812,0.18661,0.15959,0.048797,0.019552,0.015291,0.089556,0.043485
0.055372,0.056381,0.038842,0.015032,0.0028985,-0.0016463,0.049575,-0.066322
-0.14823,-0.27105,-0.16762,-0.072832,-0.060997,-0.066243,-0.054472,0.13309
0.11564,0.14238,0.17314,0.090227,0.10175,0.12669,0.32293,-0.16484
-0.050032,-0.1401,-0.22011,-0.11273,-0.094325,-0.14105,-0.44443,-0.3131
0.027892,0.054135,0.027581,0.029301,0.0074057,-0.00177,0.017671,0.14865
0.03,0.13981,0.12696,0.03181,0.032089,0.037019,0.091936,0.11925
0.027026,-0.031115,0.04652,0.058479,0.081152,0.084743,0.060333,0.068837
-0.027972,0.096189,0.028146,-0.00063119,-0.033314,-0.0072675,0.018145,-0.039554
0.03643,-0.079932,-0.045578,0.010084,0.031861,0.049591,-0.016797,0.038788
-0.085133,-0.16905,-0.16688,-0.097459,-0.083301,-0.11243,-0.11219,-0.16232
-0.026197,-0.046322,-0.062114,-0.042394,-0.051144,-0.032899,0.015879,0.15626
0.032924,0.2804,0.27705,0.08926,0.042186,0.030054,0.15095,0.0040346
-0.072282,-0.1497,-0.15649,-0.061631,-0.061035,-0.087695,-0.25234,-0.2353
0.11104,0.093287,0.14585,0.10701,0.13954,0.1531,0.14232,-0.085195
0.035918,-0.13885,-0.1512,-0.083854,-0.058708,-0.075338,-0.048849,0.36748
-0.0086065,-0.017843,-0.070681,-0.00072013,0.016621,0.063314,0.1406,0.207
0.016598,0.19843,0.24679,0.083519,0.037843,0.030319,0.24636,0.11882
-0.13054,-0.20906,-0.1914,-0.10426,-0.088521,-0.096013,-0.30583,-0.65694
0.026704,0.21227,0.10611,0.045342,0.0126,-0.0031623,-0.066685,-0.059394
0.019755,0.008637,0.067903,0.055482,0.036391,0.035308,-0.023665,0.082381
-0.073115,-0.23469,-0.16656,-0.08217,-0.025246,-0.01989,-0.022266,0.064981
0.19347,0.10678,0.0032757,0.014539,0.0069924,0.049736,0.16396,0.31826
-0.039941,0.10315,0.20179,0.079318,0.038949,-0.021662,-0.10406,-0.11846
-0.093852,-0.19855,-0.1883,-0.083679,-0.03128,0.0001759,0.0046736,-0.11231
0.015824,0.061522,-0.018087,0.025263,0.030488,-0.0018936,0.017373,0.023928
0.054427,0.12624,0.057161,0.0077445,-0.010105,0.011416,0.039594,0.21161
-0.040734,-0.2225,-0.12537,-0.073373,-0.074689,-0.092328,-0.073519,-0.049776
0.0037614,0.14857,0.19339,0.048153,0.0012323,0.031085,0.047827,-0.13533
-0.030632,-0.057372,-0.1028,-0.017561,0.022876,0.030519,0.014231,-0.028808
0.020563,0.073292,-0.0057152,-0.0041929,0.02198,0.0078091,-0.073067,-0.18187
0.040726,0.25064,0.26561,0.10437,0.02229,0.0411,0.17479,0.11866
-0.078903,-0.33113,-0.26631,-0.074511,0.016025,-0.010499,-0.049759,-0.077725
0.068467,0.084717,0.076845,0.037083,0.018539,0.024379,0.054561,0.1064
