-0.00056447,0.019037,0.085028,0.094862,0.013235,0.014353,0.054343,-0.069693
-0.10073,-0.027812,-0.082748,-0.046697,-0.019794,-0.026233,-0.011096,-0.021289
-0.24992,-0.096122,0.039693,0.014462,-0.061612,-0.060094,0.051708,-0.11803
0.02171,0.040237,-0.007182,0.0060729,0.044311,-0.0011365,-0.33582,-0.070501
0.39486,0.18513,0.090092,0.085391,0.032758,0.080656,0.12357,0.20029
0.16705,-0.053107,-0.074341,-0.043755,-0.0020407,-0.025183,-0.037667,0.031465
0.24476,0.066658,0.022766,-0.029469,-0.0049264,0.017844,0.13535,0.049311
-0.49699,-0.034431,0.0057196,0.0032259,-0.01456,-0.047497,0.04307,0.067536
0.37169,-0.24717,-0.040572,-0.00066796,0.016212,0.044929,0.15605,0.087241
-0.78905,0.085202,-0.00010345,0.013023,-0.045304,-0.087339,-0.41501,-0.40619
-0.12627,-0.11432,-0.053723,-0.089149,0.011768,0.032369,0.18985,-0.0055509
0.21332,0.10882,0.063184,0.067112,0.015303,0.013233,-0.10769,-0.1241
0.12174,0.084095,-0.025161,-0.018936,0.019561,0.050039,0.254,0.29337
0.53681,0.054492,0.063546,0.026958,0.00054803,0.032603,0.039194,0.19217
0.11346,-0.042499,0.016582,0.032195,-0.018921,-0.063487,-0.19108,-0.092432
-0.25279,0.042232,-0.064413,0.050839,0.046506,0.026431,0.030729,-0.069632
-0.050309,0.080551,0.016253,-0.058157,-0.022363,0.004731,0.047717,0.10244
-0.040922,-0.10126,0.02488,-0.029278,-0.038238,-0.058637,-0.21032,-0.15638
-0.16506,-0.020442,-0.037605,-0.034117,0.0067664,0.00832,0.023067,-0.011971
-0.15807,-0.19357,-0.052929,-0.0016786,-0.035446,-0.05162,0.006934,-0.098413
-0.042134,0.051211,-0.035615,-0.063774,-0.047152,-0.057834,0.008205,0.0056572
-0.01721,0.074185,0.14028,0.1245,0.14413,0.18607,0.28559,0.14423
0.10835,0.017568,-0.016796,0.001721,-0.007918,-0.0064313,-0.051333,0.07595
0.36976,0.062903,-0.014487,0.045285,-0.0029115,0.021641,0.098373,0.13801
-0.2694,-0.061588,0.068787,-0.041267,-0.020349,-0.041877,-0.25094,-0.3635
0.30872,-0.050135,-0.11926,-0.07047,-0.021171,-0.056391,-0.18684,0.010281
0.26681,0.22255,0.045374,0.011914,-0.0602,-0.022233,0.19535,0.080815
-0.36679,-0.0018379,-0.024391,0.0645,0.10455,0.075704,0.17568,0.14578
-0.072065,-0.12284,0.037554,0.055114,-0.073984,-0.10693,-0.31676,-0.044477
-0.4457,-0.13403,-0.043126,-0.12656,0.0055748,0.06208,0.054007,-0.10723
-0.090843,0.0023672,0.045435,0.0030406,0.05403,0.074384,0.05426,-0.058636
0.43011,0.051052,-0.18929,-0.080129,-0.038102,-0.015767,0.45856,0.22552
0.23602,0.11321,0.057331,0.10015,0.025961,-0.044616,-0.51292,-0.068174
-0.26417,0.032808,0.42613,0.11413,-0.0273,-0.051374,0.05547,-0.11239
0.5498,-0.048797,-0.19959,0.04792,0.036424,0.073358,-0.022205,0.27986
-0.70992,-0.19301,-0.15503,-0.16052,-0.025091,-0.037418,-0.11177,-0.39151
0.19303,0.11705,-0.111,-0.11989,-0.024338,-0.00057561,0.37369,0.13166
-0.14672,0.085644,0.082221,0.15504,0.046557,0.035838,-0.065434,-0.032729
0.29386,-0.10673,0.0041782,-0.10039,-0.038859,-0.037152,-0.17162,0.053627
-0.0494,0.063632,0.062435,0.067855,-0.014814,0.0073765,-0.17247,0.01639
-0.085506,-0.01302,0.062648,0.035457,0.04853,0.060329,0.25065,0.058929
-0.25542,-0.017353,-0.018205,0.037148,-0.020576,-0.057789,-0.12322,-0.17845
0.30439,0.13515,0.030575,0.018183,0.027944,0.043763,0.54731,0.31119
0.65327,0.0132,-0.034081,-0.10783,0.02223,0.013477,-0.31029,0.073493
-0.71855,-0.14244,-0.13544,-0.013515,-0.09246,-0.1877,-0.51801,-0.48659
0.19657,-0.082718,-0.033043,-0.020151,-0.0037402,0.11987,0.35305,0.35653
-0.56822,-0.018882,0.091609,0.050941,0.077278,0.068859,0.0062411,-0.27254
0.24874,0.1276,0.1743,0.050371,-0.029322,-0.067551,-0.072856,0.11094
-0.06619,-0.0016659,0.065207,0.071103,0.035554,0.061786,0.15677,-0.0076621
0.13289,-0.030425,-0.38499,-0.2077,-0.10341,-0.074928,-0.013471,-0.048784
-0.11077,-0.051167,0.20633,0.12001,0.092546,0.0295,-0.16716,0.020298
0.11893,0.093316,-0.074372,-0.00028299,0.0059659,0.0072912,0.080572,0.0054605
0.61041,0.012885,0.070993,-0.036795,0.01171,0.084578,0.3485,0.32143
0.16522,0.12938,0.019157,0.026894,0.00043626,-0.051291,-0.38585,-0.062944
-0.29961,-0.065457,-0.21231,-0.10515,-0.09792,-0.11886,-0.075178,-0.093302
-0.65642,-0.18951,0.13625,0.028913,-0.017277,0.030894,0.30382,-0.16075
-0.20635,0.045578,0.12088,0.13291,0.078908,0.01602,-0.35098,-0.15631
-0.076849,-0.14205,-0.054605,-0.019372,-0.019658,0.017199,0.20159,0.068283
0.20821,0.10656,0.00026824,-0.037348,0.023516,0.004088,-0.047692,0.020828
0.53279,0.080178,-0.0044614,-0.0073555,-0.0099727,-0.0070669,-0.14749,0.10748
0.0004255,0.091115,-0.13274,-0.078453,0.028392,0.077689,0.37668,0.15597
0.41005,0.2252,0.25442,0.16277,0.036863,0.015932,-0.086721,0.0013641
-0.6429,-0.27532,-0.13358,-0.018545,-0.047432,-0.044487,0.10885,-0.084188
0.38191,-0.011646,0.19445,0.0337,-0.0061944,0.012858,-0.053495,0.19476
-0.88944,-0.35804,-0.49621,-0.29743,-0.097656,-0.12526,-0.42562,-0.45984
0.66917,0.10848,0.068281,0.019911,0.045066,0.032841,0.048008,0.24051
-0.38631,0.19391,0.1311,0.14277,0.031179,0.02601,0.080166,-0.14136
0.023525,0.2979,0.42793,0.15001,0.063756,0.018405,0.079583,-0.065216
0.29799,-0.1803,-0.3368,-0.075149,-0.029072,0.010333,0.15037,0.1426
0.062211,-0.021666,-0.021464,-0.0014932,-0.020729,0.0021714,0.099284,0.054369
0.057515,-0.125,0.015086,-0.028013,-0.028413,-0.0057626,-0.16623,0.015519
0.09457,-0.092757,-0.22716,-0.061896,0.018135,0.025745,0.025874,0.17551
-0.27438,0.15193,0.48567,0.1848,0.040708,0.0028906,-0.090774,-0.23113
-0.028412,-0.0095897,-0.37853,-0.28899,-0.0936,-0.090194,-0.040976,-0.033168
-0.013287,-0.016307,0.10108,0.1019,0.060452,0.066443,0.10335,0.049375
-0.19103,0.23981,0.361,0.17747,0.026295,-0.051013,-0.12799,-0.11788
0.063329,-0.30478,-0.46667,-0.14803,0.014972,0.10404,0.17809,0.14328
0.30541,0.029076,-0.030641,-0.037976,0.018926,0.094033,0.32598,0.32392
0.021116,0.053912,0.083395,0.039951,-0.086404,-0.19017,-0.59791,-0.37329
-0.22532,-0.049872,-0.014485,-0.006708,-0.034791,-0.06053,-0.06899,-0.21369
0.05203,0.070626,0.075155,-0.043825,-0.028665,-0.031884,0.10962,0.10058
0.11215,0.22196,0.50185,0.32037,0.12794,0.13102,0.11918,0.070984
0.041608,-0.29682,-0.60841,-0.29614,-0.04888,0.022676,0.20302,0.18345
-0.30788,-0.077221,-0.090835,-0.049236,0.042549,0.018486,-0.10726,-0.084182
0.2197,0.078001,0.00027971,-0.024999,-0.059018,-0.045702,0.09405,0.057858
-0.15741,-0.10334,0.243,0.088406,0.036303,0.032626,-0.014748,-0.093593
0.052394,0.25396,0.4649,0.31328,0.13994,0.064944,-0.14645,0.0076148
0.12982,-0.14806,-0.78812,-0.40656,-0.19466,-0.12186,-0.27176,0.016512
0.30888,0.18036,0.2482,0.11468,0.015712,0.017877,0.26393,0.017605
-0.48075,0.040376,0.14262,0.039377,-0.011132,-0.032394,-0.03269,-0.10763
0.097186,-0.11116,-0.075152,-0.016707,0.02114,0.023699,0.18947,0.15541
-0.26912,-0.18448,-0.13303,-0.046728,-0.020385,-0.032605,-0.10854,-0.20941
0.16336,0.15323,0.03048,0.003632,0.098986,0.088188,-0.043308,0.11819
0.059337,-0.091807,0.078942,0.017475,-0.057588,-0.058487,-0.043584,-0.033224
0.036196,0.22921,0.074907,0.0035381,-0.0048417,-0.0029834,-0.069179,0.0010978
0.30435,-0.14695,-0.019992,0.033592,0.047293,0.11496,0.2717,0.15949
-0.19993,-0.067639,0.27219,0.11728,-0.10329,-0.14924,-0.035483,-0.080691
-0.15021,-0.17586,-0.53868,-0.25119,0.028711,0.017461,-0.20856,-0.06247
0.48305,0.18262,0.026571,0.023883,0.061257,0.10752,0.089099,0.15224
-0.57485,-0.072977,0.025511,0.02229,0.0026981,-0.0039913,0.037603,-0.17828
-0.16026,0.19377,0.28902,0.11236,-0.013875,-0.082763,-0.2301,-0.13963
0.12572,-0.0002162,-0.17296,0.0054648,-0.019711,-0.0039519,0.26239,0.15118
-0.11418,-0.22649,-0.093781,-0.11123,-0.10101,-0.0568,0.1396,0.061231
0.72306,0.51916,0.31529,0.12057,0.077685,0.039754,-0.2632,0.0041631
-0.37695,-0.19038,-0.017808,0.02738,0.12505,0.10582,0.045344,0.033892
-0.015049,-0.2281,-0.095986,-0.072417,-0.045651,-0.0073052,0.03319,0.032192
0.12134,0.11169,-0.18066,-0.12602,-0.13059,-0.096798,-0.10501,-0.095806
-0.14788,0.044152,0.16977,0.12277,0.095987,0.055716,0.13815,-0.015124
-0.042024,-0.041519,-0.016685,-0.0068523,0.0084109,0.0045312,-0.010896,0.039297
0.040064,-0.61325,-0.28924,-0.1561,-0.12818,-0.094481,-0.09102,-0.10443
-0.21408,0.15174,0.30404,0.20622,0.12346,0.078678,-0.03931,-0.0082567
0.36799,0.27219,-0.025896,-0.04456,-0.025804,0.0081643,0.22294,0.18823
-0.1112,0.21944,-0.11397,-0.032858,-0.021161,-0.017054,-0.084876,-0.12306
-0.18176,0.24466,0.22915,0.10143,0.09077,0.057763,-0.08714,-0.019017
-0.069256,-0.043411,-0.10365,-0.078406,-0.056816,-0.064045,-0.05679,-0.029928
0.25805,-0.045231,-0.016148,0.053404,-0.018112,-0.0070936,0.068976,0.10248
0.089009,-0.091406,-0.15441,-0.16643,-0.026891,-0.013031,0.040214,0.049961
-0.030442,-0.074219,0.022666,0.02843,0.011296,0.0047258,0.020778,-0.016228
0.16381,-0.079332,0.23534,0.15425,0.081576,0.078112,0.1196,0.074837
-0.33776,-0.40865,-0.14053,-0.10099,-0.088745,-0.042248,-0.046692,-0.13098
-0.028904,-0.049329,0.059277,0.028595,0.00097559,-0.051192,-0.29902,-0.1501
-0.098189,0.075233,0.076474,0.035216,0.0074417,0.0046363,0.080863,0.048296
0.024235,0.2444,-0.21492,-0.018856,0.03239,0.031424,0.045704,-0.0045666
0.18218,0.3996,0.0041551,-0.055914,-0.025899,0.0053551,0.064007,0.10566
0.055716,0.18215,0.16202,0.056321,0.050826,0.07421,0.22937,0.13718
0.14527,-0.16872,-0.14101,-0.018638,-0.003844,-0.012859,-0.036397,-0.026858
-0.25975,-0.15124,0.070611,-0.03908,-0.034622,-0.10051,-0.34266,-0.21446
0.13778,0.047101,0.17901,0.088405,-0.0034414,-0.025494,-0.033054,0.058671
-0.27912,-0.27679,-0.34738,-0.11291,-0.036172,0.00064021,0.08018,-0.01243
0.26337,0.019436,0.22588,0.107,0.085323,0.11039,0.20049,0.10316
0.13311,-0.043969,-0.022695,-0.017323,-0.045469,-0.0087187,0.054757,0.11609
-0.36422,-0.11531,-0.076884,-0.048096,0.0012471,-0.020432,-0.16141,-0.19246
0.046119,0.042828,-0.076666,-0.031888,-0.01627,-0.0022722,0.044394,0.0057909
0.021739,-0.10372,0.10348,0.062794,-0.011403,-0.055006,-0.10892,-0.11681
-0.014313,0.38786,0.018438,-0.037385,-0.0068167,-0.013677,0.027245,0.034154
0.14177,0.16257,0.058659,-0.004401,0.013818,0.036647,0.10931,0.13129
0.17746,-0.011447,0.10636,0.13018,0.058811,0.026366,-0.11253,0.034583
-0.25174,-0.13391,-0.34713,-0.12632,-0.02789,0.0027916,0.049387,-0.021267
0.14972,0.14518,0.2051,0.069317,0.034862,0.036326,0.08736,0.05749
0.052144,-0.24708,0.051391,-0.025532,-0.026707,-0.060798,-0.13921,-0.081003
-0.38188,-0.12578,0.043078,0.057698,0.0057121,0.015539,0.025841,-0.10908
0.16692,0.038676,-0.17105,-0.11832,-0.0010898,0.014566,0.027641,0.10558
0.0027508,-0.097672,-0.11346,-0.053053,-0.078598,-0.041128,0.10029,-0.0077121
-0.10094,-0.025683,0.014135,0.027765,-0.00027611,0.011711,-0.10027,-0.09766
0.20771,0.24146,0.14301,0.03129,-0.0003467,-0.022906,-0.097787,0.093409
-0.11009,-0.012094,0.024545,0.059848,0.038602,0.010787,0.0059006,-0.036174
0.023789,0.059971,0.12835,0.059163,0.062051,0.081278,0.20281,0.03688
0.16368,0.029636,-0.068854,-0.017691,-0.00031053,-0.038029,-0.04619,0.023271
0.027718,-0.07922,-0.1145,-0.046219,0.0075687,-0.011011,0.094939,0.14145
-0.072237,0.092006,0.10751,-0.01943,-0.07092,-0.079465,-0.31887,-0.17918
-0.027091,-0.091182,-0.11509,-0.0085679,0.029445,0.069671,0.056504,0.014377
-0.37554,-0.13874,-0.049245,0.0011705,0.0036704,0.030832,0.065255,-0.13713
0.16482,0.072189,0.061873,-0.014194,-0.023329,6.9825e-05,0.0046183,0.077656
0.21301,0.063312,0.10833,0.031104,0.0033407,-0.029709,0.093503,0.10471
-0.041272,-0.096206,-0.034959,-0.050248,-0.048654,-0.057891,-0.011977,-0.063016
-0.11939,-0.047504,-0.27387,-0.031228,-0.006774,0.017517,0.12525,0.036125
0.2067,0.18597,0.31416,0.10439,0.059366,0.032633,-0.25325,0.0041695
-0.1718,-0.043914,0.081582,0.099406,0.064401,0.073286,0.10187,-0.033744
0.080498,-0.0023652,-0.23625,-0.14725,-0.046038,-0.040605,-0.10678,0.0002721
-0.1005,-0.032736,0.09597,-0.010213,0.0014954,-0.036223,-0.027887,-0.042787
0.10318,0.013739,-0.13183,-0.028354,-0.012026,-0.00024637,0.11982,0.055036
0.45453,0.12173,0.19823,0.095292,0.014492,0.027524,0.18038,0.14445
-0.62697,-0.10685,-0.093063,0.0091829,-0.013225,-0.031646,-0.25986,-0.16589
-0.057041,-0.030869,-0.02114,-0.036685,-0.025327,-0.0062675,0.041762,0.021997
0.12463,-0.063729,0.023226,-0.026682,-0.0064888,0.033233,0.1013,-0.049718
0.059186,-0.064018,-0.11676,-0.062362,-0.011514,-0.0067405,-0.21374,-0.021258
-0.080108,0.14087,0.19857,0.067196,0.029956,-0.039877,0.10459,-0.032502
0.083648,-0.0033076,-0.00090073,0.065022,0.016484,0.051522,0.21252,0.18309
0.075786,-0.012199,-0.16213,-0.076937,-0.0049289,-0.028876,-0.14791,-0.08457
-0.070974,0.12138,0.049025,-0.0075415,0.0048212,0.00065559,-0.047264,0.0010551
0.089469,-0.064664,-0.0019816,0.022606,0.0065974,0.015444,0.0064617,0.010473
0.12749,0.10001,0.22252,0.075285,-0.0075974,-0.0078209,-0.033692,0.045015
-0.19181,-0.1752,-0.020465,0.048198,0.024489,0.055783,0.051109,-0.028728
-0.14269,-0.071233,-0.32474,-0.16863,-0.053636,-0.043996,0.018907,-0.055329
0.00056404,0.10655,0.021456,-0.020867,-0.031206,-0.049704,-0.059672,-0.027852
0.088838,-0.087109,0.050946,0.053996,0.060482,0.038268,0.010969,0.037318
0.11391,0.059433,0.023659,-0.021816,-0.0050451,0.0086342,0.082549,0.069351
-0.1275,0.047405,0.21531,0.09609,0.022431,0.0017645,-0.040305,-0.056943
-0.010417,-0.074839,-0.16889,-0.052412,-0.052085,-0.037157,-0.092276,-0.021087
0.13711,0.15512,0.021006,-0.028981,-0.0016554,0.0090591,0.03548,0.02898
0.080799,-0.011439,0.020216,0.04213,0.049115,0.054604,0.13137,0.062774
-0.20263,-0.14388,-0.03837,-0.026008,0.014671,0.013769,0.13224,-0.075025
0.20895,0.078667,0.079075,0.048202,-0.0030855,-0.03501,-0.2905,0.0071557
-0.34815,-0.046709,-0.019058,-0.00072409,-0.058562,-0.075759,-0.074485,-0.10394
0.0093754,-0.059234,-0.12301,-0.047821,-0.010946,0.040307,0.077398,0.053099
0.06326,0.032788,-0.023013,-0.038549,-0.016424,-0.014656,0.0017006,0.025172
0.22788,0.072295,0.084651,0.042502,0.049898,0.072003,0.16802,0.11645
-0.012381,0.026954,0.089901,0.0075816,0.031458,-0.0044305,-0.071195,0.0056046
0.060855,-0.096689,-0.054537,0.012663,-0.0019518,-0.017615,0.011401,-0.019617
-0.22495,0.075079,-0.09096,-0.028499,-0.0041473,-0.022624,-0.099303,-0.085575
0.08256,0.17398,0.17609,0.047813,0.00066985,0.026941,0.073457,0.017591
-0.040723,-0.19911,-0.14365,-0.047844,-0.027274,-0.017839,-0.0095101,-0.077837
-0.079543,-0.11457,-0.026255,-0.0033645,-0.018189,-0.0089127,-0.0205,0.026723
0.091096,0.037538,0.091342,0.03243,0.012068,-0.0011918,-0.0461,-0.0038742
-0.083171,-0.054128,-0.055964,0.0045242,-0.037949,-0.033758,-0.024601,-0.03556
0.10911,0.057204,-0.014658,-0.024806,0.050965,0.057635,0.20724,0.13623
0.074716,0.1855,0.074821,0.014673,0.045164,0.031163,-0.030963,0.004986
-0.068741,-0.035307,-0.014143,-0.041,-0.031008,-0.026746,-0.10685,-0.022068
-0.078847,-0.0265,0.046311,0.066282,-0.020344,-0.021788,0.1358,0.032096
0.11477,-0.085008,-0.1036,-0.030201,-8.7725e-05,-0.00028739,-0.25573,-0.074735
0.012058,0.085422,0.10601,-0.0017222,-0.047693,-0.063345,-0.014971,-0.046131
-0.11355,-0.078734,-0.07525,-0.011693,0.016873,0.047144,0.10137,0.039049
0.0036436,-0.055272,-0.030448,0.0029882,0.037283,0.034346,0.10996,-0.0075874
-0.018949,0.037373,-0.03318,-0.02756,0.0051877,0.023008,-0.082223,-0.015104
0.045548,0.034025,-0.028899,-0.025064,0.0055603,-0.026475,0.001494,0.062476
0.025566,0.066626,0.10716,0.096205,0.052762,0.017949,0.071466,0.013431
0.015014,-0.052868,0.015212,-0.0080948,-0.010816,0.0069875,0.040551,0.016851
-0.033099,0.073836,0.046179,0.012697,-0.06919,-0.06797,0.03217,-0.060422
-0.087982,-0.092018,-0.011602,-0.022173,-0.013797,0.0034227,-0.15057,-0.023114
0.091748,0.005035,0.14594,0.04253,-0.0011263,0.0099466,-0.094824,-0.027182
0.051926,-0.10255,-0.31735,-0.098621,-0.0073578,0.021989,0.073882,0.02953
0.17427,0.17271,0.23955,0.054095,0.015326,0.0087125,0.019892,0.085337
-0.26868,-0.050378,-0.30724,-0.077181,0.013561,0.017671,0.080192,-0.061972
-0.019592,-0.13745,-0.088783,-0.022919,0.0044249,-0.044047,-0.056115,0.018183
-0.047077,0.037683,0.09229,-0.00072037,-0.026376,-0.03494,-0.098139,-0.087522
0.11056,0.25691,0.44886,0.16258,0.078401,0.061406,0.11987,0.12141
0.0092959,-0.12037,-0.080176,0.038475,-0.0010329,-0.0044129,-0.025861,-0.042328
-0.044666,0.014658,-0.14264,-0.10649,-0.045906,0.010115,0.074544,-0.00074542
0.036067,0.0047458,-0.0044176,-0.013991,0.013676,-0.0043595,-0.1339,-0.027712
-0.059953,-0.20604,-0.26026,-0.074558,-0.041775,-0.016848,0.050902,-0.014523
0.089569,0.037279,0.18994,0.070907,0.021208,0.011229,0.088324,0.03801
-6.6077e-05,0.12412,0.10234,0.015568,-0.032697,0.0011261,0.13288,0.082183
0.045148,-0.04033,0.076922,0.047689,0.03782,-0.016568,-0.2935,-0.062407
-0.041864,0.019584,-0.24696,-0.068021,-0.010179,-0.0034038,0.034768,-0.044677
-0.028304,0.037427,0.012618,-0.0043685,0.010224,0.0010557,0.015956,0.018029
0.045421,-0.034359,-0.019775,-0.012205,-0.0029268,-0.011349,-0.060219,-0.045969
-0.11837,0.069331,0.18707,0.048404,0.028306,0.029513,0.11224,0.052884
-0.011961,-0.011149,0.047498,0.036355,0.041466,0.045502,-0.035318,-0.020681
0.060555,-0.22886,-0.24274,-0.11108,-0.088149,-0.064808,-0.048214,-0.031612
0.0065463,0.14319,0.0669,0.02797,-0.0084272,0.0035369,0.043415,0.051855
0.0070271,0.19176,0.24256,0.086546,0.023582,0.016534,0.16182,0.065884
-0.10088,-0.38673,-0.41061,-0.1381,-0.053729,-0.0332,-0.076271,-0.075574
0.16011,0.24489,0.21712,0.073254,0.026152,0.011014,-0.039197,0.056771
0.016645,0.017542,0.19632,0.096123,0.084269,0.032349,-0.0645,-0.014205
-0.086511,-0.11457,-0.37134,-0.12368,-0.035186,-0.023666,0.057087,-0.06248
0.091799,0.15406,0.068834,0.00025874,-0.043081,-0.047632,-0.042984,0.020969
-0.090215,0.019275,0.23551,0.085554,0.068089,0.093079,0.1189,0.001729
0.21811,-0.11236,-0.012064,-0.02364,-0.022607,-0.023781,-0.17599,0.0051078
-0.21787,-0.045394,-0.25991,-0.10039,-0.019084,0.007553,-0.0050231,-0.085489
-0.10072,0.079589,0.22632,0.066572,-0.00027479,-0.016527,0.078494,0.066613
-0.038405,-0.25307,-0.14698,0.0087596,-0.0058982,0.0051885,-0.0096741,0.0011733
-0.021161,0.18304,-0.098285,-0.054923,-0.020717,-0.02897,0.0056168,0.0077398
0.16397,0.2548,0.31028,0.14116,0.048966,0.014019,0.1414,0.12554
0.049776,-0.16336,-0.18649,-0.098484,-0.015327,0.0096817,-0.10925,-0.0362
0.12119,-0.040936,-0.002254,-0.031988,-0.041195,-0.049026,-0.050747,-0.071648
-0.16151,0.07425,0.16016,0.066736,0.018895,-0.0049915,0.043162,-0.075063
0.074837,-0.23287,-0.18347,-0.04505,0.0093268,0.056624,0.023227,0.078085
0.015055,0.036708,-0.0018396,0.007093,-0.0069303,-0.012112,-0.080452,-0.089101
-0.070402,0.17892,0.14243,0.042986,0.001565,-0.0079827,0.012044,0.024754
-0.082669,-0.15084,-0.16495,-0.015851,0.050307,0.060827,0.010288,0.028937
-0.047086,0.10137,0.044417,-0.021142,-0.0017466,-0.0096016,0.092695,0.095236
0.10588,0.13033,0.13727,0.034993,0.024493,0.006221,-0.054314,0.012563
-0.013973,-0.11885,-0.1291,-0.081541,-0.074718,-0.072542,-0.056532,-0.086517
-0.0067235,0.041738,-0.052111,-0.010926,-0.026419,-0.028146,0.046542,-0.022619
0.012672,0.035123,0.20371,0.083287,0.036367,0.052787,0.067381,0.0086688
-0.0078913,-0.22259,-0.018203,0.0375,-0.026887,-0.0018703,-0.071746,0.030624
0.12944,0.037047,-0.17109,-0.085478,0.0029392,-0.012232,-0.049736,0.012027
-0.15912,0.059492,-0.028232,0.0034902,0.00918,0.022285,0.0095134,-0.054688
0.065501,-0.066181,0.020096,-0.00046602,-0.015455,-0.038095,-0.025525,-0.051889
0.022917,0.021698,0.068109,0.081929,0.093476,0.073215,0.14333,0.099126
0.0023558,0.026992,0.08498,-0.0076949,-0.023261,-0.041303,0.017251,0.047407
-0.059137,-0.051641,-0.046232,-0.027731,-0.0064054,-0.013718,-0.106,-0.042425
-0.01409,0.040018,-0.091168,-0.056781,-0.012518,0.015811,-0.054024,-0.021513
-0.066988,0.19487,0.06709,-0.01699,-0.057626,-0.030706,0.017029,-0.077138
0.069586,0.11719,0.099974,0.04476,0.037587,0.034027,0.067772,0.071943
0.10474,0.081686,-0.071116,-0.0041075,-0.031807,-0.0092462,-0.011889,0.0036124
-0.049336,0.075527,-0.048091,0.0086928,0.0075692,0.0028248,-0.019861,-0.024766
0.035257,-0.61441,-0.088864,-0.01011,0.069901,0.077256,0.12858,0.1034
-0.088277,-0.29925,0.06457,0.041494,-0.0086102,-0.052309,-0.12247,-0.026571
0.055642,0.018132,-0.01704,-0.0080326,-0.040131,-0.050462,-0.016246,-0.032417
0.021387,0.22808,0.13561,0.021195,-0.024332,-0.0033676,0.024717,-0.016024
-0.1281,0.29232,-0.078516,-0.058267,-0.023477,-0.051551,-0.062291,-0.094615
-0.055705,0.14831,-0.057527,-0.035531,0.040635,0.063179,0.066764,-0.0023101
0.09189,-0.0032257,0.073653,0.034594,0.058499,0.036677,-0.0014768,0.066045
0.19961,-0.027408,0.0023336,0.003507,-0.032728,0.0023266,-0.031659,0.10318
-0.066325,0.011881,0.048456,0.066344,0.024264,0.030918,0.055412,0.00019579
-0.11019,-0.022313,-0.014958,-0.019252,-0.013268,-0.033491,-0.0049181,-0.047284
-0.10235,-0.096593,-0.12571,-0.081548,-0.044249,-0.042338,-0.071311,-0.046972
0.028377,-0.13078,0.059903,0.059059,0.0013526,-0.011286,0.028458,-0.053639
0.11025,-0.059164,-0.059438,-0.0036922,0.01416,0.028262,0.036524,0.080935
-0.0058403,-0.079657,0.00898,-0.035359,-0.013333,0.021407,0.038409,-0.010722
0.16311,0.20577,0.18771,0.057938,0.0053704,-0.0086438,-0.044684,0.030473
-0.15041,-0.13895,-0.21791,-0.075206,0.0084767,-0.0074206,-0.010402,-0.022296
-0.026622,0.12311,0.14418,0.04973,0.0045107,0.00146,0.023379,0.0026752
-0.061228,0.088373,-0.030546,0.01096,0.001861,-0.013381,-0.053174,-0.019687
0.04115,0.016654,-0.10166,-0.027446,0.00085355,0.033918,0.072314,0.043458
-0.017194,-0.044429,0.13338,0.051614,-0.014123,-0.059795,-0.099943,-0.10466
0.068338,0.052892,-0.052869,-0.048898,0.019135,0.010177,-0.038222,0.02826
-0.02198,0.033335,-0.0052083,-0.0010578,0.037585,0.079805,0.086186,0.036059
-0.013627,-0.035247,-0.0059366,-0.008186,-0.037574,-0.022732,0.023799,0.067154
-0.045882,-0.045867,0.11595,0.031133,0.003932,-0.0083033,0.0092839,-0.034833
-0.039274,-0.20332,-0.14789,-0.00035243,-0.041537,-0.056503,0.081698,-0.0123
0.19482,0.10908,0.077426,0.014579,0.036687,0.012464,-0.040503,0.056415
-0.061596,-0.1548,-0.1765,-0.056756,-0.042627,-0.020043,-0.1078,-0.10225
0.035556,0.16311,0.10663,0.012398,0.017673,0.041367,0.012094,-0.0038774
0.0018555,0.09648,-0.033223,-0.019932,0.014912,0.024835,-0.064088,-0.015415
-0.20207,0.093125,0.19385,0.049552,-0.011345,0.00061986,0.053981,-0.019284
-0.014161,-0.024549,-0.039594,0.0099933,0.040901,0.01549,0.092733,0.055291
0.14323,-0.18486,-0.15508,-0.013659,-0.0077557,-0.024406,-0.018134,0.13061
0.035298,-0.0044655,0.066182,0.0096696,-0.0087983,-0.0097237,0.026182,-0.043002
