-0.13033,0.22111,-0.073795,-0.053691,-0.025945,0.013453,0.027419,0.14629
-0.026674,0.022501,0.11122,0.0053756,-0.0048235,-0.011849,0.026498,0.11279
0.17422,-0.12312,0.069371,0.048978,0.023983,0.0019109,-0.052782,-0.29843
0.073778,0.24951,0.0039026,-0.00058112,-0.0095361,-0.0077288,-0.0074994,0.21696
-0.0083258,-0.03474,0.18829,0.044527,0.019912,-0.0016679,0.045061,0.049727
-0.10442,-0.13439,-0.37738,-0.073319,-0.020251,0.004523,-0.066945,-0.10424
0.11234,-0.43298,-0.067863,0.036544,0.026366,-0.004704,-0.054318,0.013683
-0.10148,0.77373,0.19541,-0.032242,-0.019902,0.01762,0.13782,0.037239
-0.25468,-0.6832,-0.19636,-0.053351,-0.034152,-0.053409,-0.076311,-0.079575
0.23808,0.20835,0.24172,0.074431,0.038092,0.040092,0.053414,0.062408
-0.084413,0.12512,0.10359,0.014726,0.0090334,0.016901,0.097367,0.0028085
0.12935,-0.45178,-0.31418,-0.014217,-0.0044928,0.017609,0.032185,0.2733
-0.011231,0.57473,0.15158,0.010533,-0.010657,-0.043816,-0.25133,-0.35233
0.12666,0.10467,-0.031776,-0.028656,0.005853,0.01998,-0.0028638,-0.0065102
-0.058537,0.11422,0.14974,0.0085551,-0.017681,-0.05681,-0.018803,0.068985
-0.0042231,-0.16421,0.18685,0.083052,0.043661,0.053742,0.18574,-0.10984
-0.28038,-0.5148,-0.42133,-0.14086,-0.052233,-0.039191,-0.14666,0.082178
0.11366,0.27817,0.23937,0.071727,0.015183,0.015761,0.1091,-0.066158
0.022591,0.14186,-0.42361,-0.059661,0.035329,0.1325,0.10115,0.20989
-0.0056208,-0.46435,0.037285,-0.034137,-0.077302,-0.087487,0.20382,0.25251
0.084722,0.2479,0.21859,0.10227,0.052725,-0.11295,-0.64636,-0.57327
0.083381,0.044141,0.24809,0.029886,-0.011725,0.025032,0.20584,0.277
-0.11876,-0.083465,-0.25495,-0.040041,0.018653,0.092378,0.017299,-0.14436
0.18903,0.5835,0.16351,0.025231,0.0033109,0.003572,0.24828,-0.057949
-0.2047,-0.25268,-0.051691,-0.016897,0.020295,-0.022155,0.023462,0.51183
-0.042794,0.0083244,-0.082013,-0.026463,-0.032163,-0.03121,-0.26649,-0.56769
-0.12272,-0.52536,0.0073711,-0.035487,-0.029342,-0.031025,0.19918,0.2205
0.16452,0.20017,0.0025022,0.0099634,0.020654,0.041115,-0.42251,-0.035148
0.2954,0.38034,0.30687,0.10145,0.039438,0.044573,0.37724,0.036027
-0.28456,-0.42116,-0.54243,-0.12865,-0.10601,-0.10685,-0.16622,-0.19482
0.034477,-0.0067707,0.28971,0.092881,0.076325,0.10195,0.1979,0.23719
-0.17657,0.3922,-0.16502,-0.023035,0.031643,0.068727,0.17311,0.14011
0.12983,-0.33802,0.016726,-0.015305,-0.013603,-0.12917,-0.42814,-0.49167
0.008904,0.087165,0.024569,-0.02428,-0.020444,0.046609,0.12015,0.34246
0.085903,0.18614,0.11857,0.020682,-0.020207,-0.099783,-0.12821,-0.054045
-0.10025,-0.23452,0.027143,-0.012912,0.002692,0.048585,0.2085,-0.16084
0.17643,0.51343,0.071694,0.093951,0.04826,0.085508,0.051044,0.17367
-0.15533,-0.73458,-0.052275,-0.064803,-0.031871,-0.043374,0.26571,0.45165
0.0048603,0.18381,-0.12664,-0.035958,-0.011006,-0.0094012,-0.57767,-0.54366
-0.0082755,0.14848,0.1052,0.047695,0.0016666,-0.085364,-0.018065,0.042101
-0.062997,-0.32897,-0.26445,-0.056048,-0.0014449,0.16689,0.3906,0.26034
0.082092,0.29345,0.020789,0.019976,0.026762,-0.095832,-0.32693,-0.49919
0.03593,0.37747,0.42851,0.080436,0.008364,0.0018598,0.33105,0.27312
-0.0062414,-0.11354,-0.096741,-0.046546,-0.025235,-0.039862,-0.20404,-0.14502
-0.067595,-0.12948,-0.32873,-0.087522,-0.050518,0.060211,0.022483,-0.22412
0.047727,-0.24363,0.060802,0.043462,0.049705,0.075297,0.042906,0.67545
0.0045416,0.074575,0.22084,0.049543,0.009732,-0.1043,-0.095489,-0.18205
-0.13377,-0.2979,-0.089911,0.0010316,0.024744,0.083621,0.19294,-0.10405
0.14155,0.13554,-0.042232,-0.00051927,-0.0069716,-0.079912,-0.030237,0.021718
0.057986,0.49838,0.19321,0.03708,0.016031,0.0066229,-0.032069,-0.23406
0.01486,-0.23338,-0.37458,-0.12051,-0.093781,-0.086341,-0.21269,0.17335
-0.12763,-0.091701,0.13045,0.019016,0.0074191,0.016416,-0.058209,0.16931
-0.048436,0.031009,0.14663,0.010495,0.015126,0.041658,0.19541,-0.18948
-0.028162,-0.24395,0.010415,0.057259,0.054581,0.13789,0.14069,0.19214
0.18366,0.3977,0.10482,0.050126,0.024452,0.0081165,0.33943,-0.19183
-0.022128,-0.16978,-0.31246,-0.073263,-0.028232,0.034843,-0.44277,0.28682
-0.020679,0.27726,0.047244,-0.047241,-0.056581,-0.23543,-0.18168,-0.26498
-0.14069,-0.14073,-0.10576,-0.035952,-0.02168,-0.037419,-0.11016,-0.13617
0.015246,-0.077542,0.32924,0.10882,0.052721,0.11308,0.10974,-0.12098
0.12539,-0.21029,-0.047201,-0.011743,0.033359,-0.041772,0.089461,0.1368
0.086484,-0.12151,-0.10346,0.015955,0.00565,0.091909,0.10397,0.080365
-0.03295,0.52956,0.073302,0.042953,0.047216,0.076787,0.083544,0.19977
-0.086053,-0.446,-0.24463,-0.14215,-0.11575,-0.13387,0.30887,0.093387
-0.034872,0.32694,0.12935,0.06189,0.008814,-0.016554,-0.54192,-0.23599
0.049867,0.045114,0.3119,0.022211,-0.0086286,0.077186,0.25563,-0.11587
-0.065835,-0.42196,-0.25948,-0.034411,0.012055,-0.055791,-0.37082,0.24135
-0.15431,0.35823,-0.16234,-0.044999,0.0011961,0.10015,0.343,-0.25344
0.19232,-0.025425,0.23723,0.10829,0.022006,-0.15806,-0.19701,0.098661
0.12434,-0.078035,-0.14517,-0.050377,0.028242,0.021285,-0.036945,0.26196
-0.043997,0.061923,0.090639,0.018711,-0.010921,0.07587,0.20772,-0.0878
0.0012565,-0.15107,-0.077106,-0.019909,0.0062169,0.052755,-0.14835,-0.23462
-0.059222,-0.036965,-0.084625,-0.056667,-0.061132,-0.14168,-0.079623,-0.031227
-0.029613,0.14573,0.25621,0.095813,0.036604,0.086316,0.25127,0.16352
-0.050484,0.028034,0.023359,-0.0082219,0.0019374,-0.029016,-0.03026,-0.40626
-0.036251,-0.12714,-0.22168,-0.033525,-0.0095707,-0.058283,-0.05783,0.2778
0.12174,0.051903,0.097579,0.026886,0.040487,0.17779,0.072918,0.023302
-0.0072627,0.29617,0.088464,0.039371,-0.020275,-0.11811,-0.1797,0.40295
0.091063,-0.029952,-0.11048,-0.082684,-0.02808,0.10832,0.46277,-0.18332
-0.076918,-0.13894,-0.071345,0.0040634,0.032689,-0.12752,-0.68962,-0.10212
-0.028219,-0.25715,-0.01413,-0.044212,-0.072076,-0.044349,0.26003,0.099569
-0.053011,-0.22619,-0.0096763,0.030549,0.033112,0.04562,0.28006,-0.22699
0.12934,0.33282,0.22348,0.064788,0.020743,-0.068078,-0.40213,-0.081836
0.034456,0.10446,0.053432,0.020092,0.047689,0.16197,0.019949,0.090136
-0.21199,-0.0078205,-0.17458,-0.048161,-0.057406,-0.05283,0.10341,-0.046128
-0.0072399,-0.2031,-0.11492,0.0012863,-0.012957,-0.032507,-0.14137,-0.22399
0.033038,0.20839,0.093926,-0.010743,0.032707,0.10581,0.62376,0.47128
0.1447,0.10158,-0.077256,-0.0057751,0.016975,-0.03643,-0.18543,0.078644
-0.046125,-0.080611,0.09979,0.0007227,0.0098814,-0.006319,-0.060091,0.22199
-0.062411,0.040328,-0.069213,-0.030356,-0.067072,-0.12434,-0.4919,-0.58518
0.072122,-0.14257,0.0956,0.056994,0.012293,-0.031196,-0.12132,-0.12692
0.051801,0.19338,0.10131,0.0045424,-0.0023395,0.046629,0.4187,0.17964
-0.038866,-0.27662,-0.061384,-0.00074583,0.037265,0.14834,0.245,0.050453
0.13456,0.39785,0.12118,0.04838,0.02167,-0.014955,0.028844,0.41312
-0.17128,-0.68993,-0.39986,-0.098561,-0.041242,-0.013503,-0.28533,-0.31155
-0.19908,0.17266,0.13947,0.011251,-0.049732,-0.15983,-0.15948,0.0094642
0.06711,0.11399,0.050691,-0.0050628,0.035496,0.077162,0.18657,-0.38798
0.081465,0.3727,0.060148,0.016741,0.058435,0.1035,0.040942,0.15495
0.079889,-0.17983,-0.081665,-0.0089055,-0.0276,-0.026396,0.066992,0.28991
-0.037569,-0.040176,0.016874,0.012211,-0.027197,-0.10963,-0.23575,-0.12821
0.12103,-0.018788,0.036671,0.01022,-0.0028656,0.0020327,0.1481,-0.010723
-0.076396,-0.15417,-0.0055076,0.016689,0.037461,0.10537,-0.094119,-0.12936
-0.090735,0.34194,-0.054151,-0.022936,-0.0079812,-0.065295,-0.0094695,0.15687
0.030545,-0.1728,0.12547,0.016282,-0.030067,0.083788,0.27668,0.35486
0.0051492,0.057339,-0.076143,-0.014313,0.017829,-0.15831,-0.46284,-0.3576
0.074042,-0.14922,-0.026733,0.0021651,0.010504,0.11468,0.41956,0.079768
0.048608,-0.012392,0.077623,0.0029212,-0.028729,-0.050408,0.063601,-0.014695
-0.10315,0.20977,0.16583,0.034625,0.040733,0.088608,-0.22677,-0.11086
-0.029913,-0.11485,-0.36425,-0.074662,-0.031024,-0.038589,0.040367,-0.34158
-0.17666,-0.44587,-0.098812,-0.035797,-0.0094422,-0.0022346,-0.056465,0.27067
0.16828,0.47591,0.25129,0.065477,0.011977,-0.02869,-0.10202,0.00081982
0.013607,0.096651,-0.001119,-0.012795,-0.0055513,-0.023853,0.038322,0.0065447
0.0085248,-0.45892,0.089716,0.073331,0.039805,0.012765,-0.070798,0.45265
0.14558,0.54188,-0.038322,-0.035424,-0.023606,0.011404,0.16637,-0.21581
-0.051942,-0.029039,-0.0256,0.012488,0.015307,0.019444,0.15751,0.054549
-0.037793,-0.066364,-0.075104,-0.056481,-0.05432,-0.0956,-0.018665,-0.25383
-0.047268,0.12877,0.063239,0.0075188,0.0096943,0.14288,-0.042178,-0.11171
0.0046121,-0.50189,-0.040171,0.0090317,0.051008,0.008002,-0.24225,0.26062
-0.10949,0.06304,0.075748,0.010455,-0.024295,-0.13367,0.098375,-0.090557
0.055278,-0.004547,-0.1435,-0.011706,0.010115,0.15447,0.071913,0.038374
-0.040252,0.25851,0.0053554,-0.01061,-0.033549,-0.13636,0.036561,-0.39024
0.14312,0.067304,0.069213,0.013695,0.016277,0.1336,0.15577,0.3521
0.043186,-0.16637,0.032202,0.01424,0.02647,-0.059716,-0.42201,0.0095178
-0.11318,-0.10045,-0.028107,-0.040385,-0.057934,-0.15406,-0.055654,0.083404
0.080582,0.14599,0.098405,0.068359,0.051918,0.092883,0.099288,0.043021
-0.00017466,0.19505,0.16081,0.027758,0.0043563,0.0097336,0.19957,-0.0027186
-0.14406,-0.57498,-0.41983,-0.084208,-0.020907,0.034689,0.034226,-0.21131
0.071407,0.43088,0.10606,0.021526,0.038805,0.098222,0.1729,0.16562
0.084546,-0.061766,0.035505,-0.03764,-0.073989,-0.072352,-0.088731,-0.17815
-0.18184,0.053454,0.0098927,0.019976,0.00054208,-0.093571,-0.16605,0.11576
-0.0080937,0.12355,0.061783,0.0074813,0.028553,0.081961,-0.059937,0.015913
0.12214,-0.38029,-0.12751,0.011502,0.026182,0.048384,0.29214,-0.094253
0.21701,0.73192,0.15462,0.0014248,-0.0061621,-0.12373,-0.53046,0.052183
-0.31736,-0.70046,-0.082635,-0.014484,-0.021389,-0.028053,0.02929,-0.19947
0.049611,-0.00058505,-0.010319,-0.020437,-0.035157,-0.016273,0.20878,-0.0041003
0.0825,-0.036598,0.0044876,0.038066,0.053802,0.14557,0.073504,0.27964
0.022186,-0.15927,-0.031092,0.019869,0.034027,0.034877,0.16477,0.32347
0.047036,0.43032,0.076844,0.010112,-0.0092178,0.010046,0.038132,-0.21744
-0.20344,0.17228,0.037315,-0.05463,-0.084446,-0.20347,-0.61966,-0.38379
0.059089,-0.048059,-0.011145,0.027889,0.073369,0.17456,0.54847,0.18209
-0.040671,-0.24444,0.13272,0.038269,0.01073,0.11214,0.48451,0.21341
0.052108,-0.0095173,-0.21984,-0.094092,-0.069303,-0.32844,-0.83869,-0.40721
0.1035,0.22734,-0.092631,0.045013,0.013229,0.095357,0.18502,0.29005
-0.049952,-0.041917,0.014924,-0.043865,0.0010702,-0.053071,-0.26684,-0.20821
-0.11856,-0.54442,-0.075484,-0.016134,-0.0034725,0.086918,0.070737,0.10108
0.093528,0.17228,0.13795,0.051029,0.031638,0.13389,0.53458,0.2056
0.094598,0.4825,0.17262,0.041292,0.013332,-0.051579,-0.2169,-0.24336
0.017877,-0.059697,0.045485,0.0099235,-0.018871,-0.093657,-0.23544,-0.11126
-0.14399,0.045145,0.030636,-0.00381,0.01331,0.015786,-0.025724,0.00036463
0.039268,-0.27367,-0.35639,-0.070415,-0.015275,0.049985,0.38374,0.36302
-0.087919,-0.21163,0.071225,0.036144,0.012149,-0.046388,-0.20826,-0.089591
-0.0013922,0.0594,0.10149,0.018255,0.001243,0.0851,0.0036707,0.30137
-0.20059,0.28955,-0.079273,-0.062385,-0.056468,-0.13474,-0.10604,-0.45423
0.43184,-0.14605,0.09032,0.043493,0.033697,0.043079,-0.0001575,-0.08044
0.0048867,0.15104,-0.070314,-0.016227,0.013413,0.055237,0.22476,0.34864
0.0097303,0.25104,0.11794,0.023779,0.022967,-0.036275,-0.090897,-0.39506
-0.14105,-0.47895,-0.071673,-0.024015,-0.039321,-0.020667,0.088544,0.25986
-0.16009,0.24249,0.11111,0.051571,0.029774,0.094464,-0.013169,-0.36274
0.060449,-0.27932,-0.1377,-0.045877,-0.027248,-0.11223,-0.28838,0.19561
0.089773,0.199,-0.059233,-0.01106,0.0010234,0.031883,0.32512,0.03481
0.028986,-0.086504,-0.042813,-0.023005,-0.0020359,-0.050484,-0.45266,0.02011
-0.027923,-0.12618,0.14721,0.051706,-0.0046135,0.039897,0.16987,0.39049
0.02146,0.22214,0.027443,0.0025742,0.025,0.12393,0.34453,-0.25764
-0.15754,-0.025096,-0.12826,-0.037393,-0.037931,-0.16528,-0.35487,-0.11906
0.13962,-0.024447,0.086054,0.041088,0.040977,0.10192,0.1216,0.16412
-0.15616,0.035043,0.028714,-0.020159,-0.011973,-0.051413,0.065065,-0.40329
0.10434,0.15856,0.018425,0.020493,0.021474,0.046015,0.16387,0.3233
0.16347,-0.19619,0.037722,0.0061555,6.7107e-05,-0.043993,-0.21515,-0.12113
-0.026156,0.17852,0.069335,0.037821,0.016921,0.029468,0.043888,0.08784
-0.035833,0.014622,-0.21587,-0.10363,-0.076898,-0.06223,0.032991,0.056734
-0.062033,-0.39988,-0.10704,-0.0042024,0.023056,0.0244,-0.13242,0.0026149
-0.051025,0.0059465,0.076512,0.031671,0.012174,0.047168,-0.031876,-0.043614
0.082709,0.13281,0.016305,0.0045173,-0.0075877,-0.032754,0.02911,-0.073165
-0.10584,-0.031454,0.050617,0.008763,0.0034626,-0.035284,-0.13724,-0.1074
-0.060973,0.10308,0.048932,-0.0096093,-0.024251,0.024418,0.35199,-0.088857
0.039133,0.27448,0.012994,0.020222,0.011518,0.029593,0.0048739,0.36819
0.118,-0.14732,-0.025132,-0.0030718,0.033131,0.066492,-0.053417,-0.10878
-0.01048,-0.15313,-0.026666,-0.0014575,0.0017132,-0.1538,-0.26043,0.052111
0.068578,-0.10249,0.030544,0.0090494,0.0030541,0.048378,0.016357,-0.21905
-0.0041242,-0.0047893,0.050757,0.0044163,0.0054695,0.00098961,-0.00477,0.2254
-0.049535,0.26234,-0.030767,-0.00038968,0.00053871,0.15692,0.74601,0.18065
-0.021943,0.28161,0.15117,0.033128,-0.0045565,-0.14031,-0.68475,-0.19137
-0.094631,-0.4737,-0.34226,-0.090684,-0.049381,-0.047097,-0.13291,-0.26769
0.074778,-0.1158,-0.011443,-0.020311,-0.017013,0.030346,0.21465,0.26273
-0.046075,0.064302,0.042583,0.017925,0.022248,0.006281,0.14821,-0.41319
0.096762,0.1048,0.047588,0.03228,0.013969,0.037317,-0.2446,0.39237
-0.028309,0.099643,0.1535,0.054516,0.036682,-0.008931,-0.00095828,0.055451
-0.069758,-0.14543,-0.044625,-0.055559,-0.026362,-0.0070725,0.099565,-0.10999
0.042892,0.050917,-0.038162,0.014798,-0.01075,-0.081871,-0.12169,0.030317
-0.0026176,0.1515,0.024586,0.015593,0.021203,0.094786,0.26498,-0.0068333
0.090805,0.18161,0.31503,0.040362,0.022606,-0.0086741,-0.14785,-0.017666
-0.10638,-0.63059,-0.42549,-0.067504,-0.045811,0.044624,0.12184,-0.0021359
0.023127,0.09104,-0.096271,-0.034963,-0.0046983,-0.11337,-0.20259,-0.077969
0.049768,0.22205,0.059824,0.020467,0.012734,0.10232,0.32061,0.20695
0.067566,0.11382,0.08159,0.020475,0.029554,0.042385,-0.12433,-0.0080819
-0.11829,-0.093931,0.1254,0.019734,-0.017001,-0.12974,-0.30546,-0.30262
-0.030476,0.081638,0.0041941,0.0027736,-0.0098462,0.031083,0.018322,0.03291
-0.074273,-0.072292,-0.14082,-0.061379,-0.027028,-0.013909,0.074026,0.27861
0.040371,0.0049663,0.026896,0.038551,0.025453,0.040776,0.44948,-0.042902
0.017354,0.023044,0.054755,0.0060194,-0.023905,-0.077134,-0.48508,-0.11171
0.083521,-0.2216,-0.02561,0.0053454,0.044069,0.063379,0.0083897,0.072225
0.066609,0.17798,-0.04209,-0.025837,-0.0046093,0.0026265,0.30089,-0.13117
-0.026656,0.14543,0.20851,0.053084,0.0022204,0.014977,-0.21359,0.16971
-0.057277,-0.30106,-0.28168,-0.039298,-0.013433,-0.016326,0.022078,-0.25031
0.058846,-0.010099,0.0027479,-0.022005,-0.02817,-0.021127,-0.061238,0.1807
-0.062734,0.044396,0.061441,0.018688,0.012492,0.05454,0.051846,0.050379
-0.048048,0.17672,0.065766,0.01212,0.022281,-0.048295,-0.046552,-0.061546
0.040253,-0.0033068,0.030703,-0.0029448,0.016412,0.12212,0.55488,0.13534
-0.078261,-0.012435,0.02585,0.012364,-0.0055277,-0.12305,-0.5535,-0.18611
0.03556,0.021759,0.11305,0.026753,-0.012627,-0.019204,-0.00012168,-0.033152
0.055745,0.072253,-0.27842,-0.061206,-0.0050751,0.042512,0.048087,-0.06201
-0.093623,-0.30236,-0.0705,-0.032468,-0.037552,-0.070641,-0.066886,0.13306
0.05799,0.3398,0.080955,0.019636,0.015155,0.024795,0.11551,0.11352
0.089684,-0.23009,0.090776,0.040883,0.044057,0.064271,0.041624,-0.098691
-0.037655,0.0030323,0.053705,0.023868,-0.020679,-0.036862,-0.075378,0.15091
0.034287,-0.037697,0.041051,-0.0077021,0.0011212,0.011712,-0.0059136,-0.1238
-0.04789,0.033434,-0.21983,-0.061571,-0.022969,0.031304,-0.043594,-0.088304
0.14331,-0.013972,0.091811,0.033982,-0.014616,-0.079067,0.0020006,-0.0090382
-0.22233,-0.16002,-0.03966,-0.018266,0.041786,0.11819,0.18758,0.043615
0.0021389,0.30214,0.096257,0.046829,0.028792,-0.10388,-0.36112,-0.062508
0.097301,0.10931,0.15504,0.025621,-0.0071628,0.019571,0.20671,0.22844
-0.22563,-0.22217,-0.21579,-0.051094,-0.011929,0.042229,0.24047,-0.25407
0.15941,0.27529,0.0063169,-0.011731,-0.0094549,0.0020919,0.12766,-0.040137
0.042964,-0.42443,-0.030812,-0.01259,-0.031362,-0.047086,-0.40085,0.19898
0.020306,0.33903,0.086652,0.032464,0.01595,0.0034104,0.026821,0.017849
-0.016767,-0.29769,-0.18019,-0.055849,-0.015861,0.0048479,0.072647,0.0014883
0.041693,0.02122,0.083217,0.012047,-0.01713,-0.027062,-0.34211,-0.085978
-0.054404,0.23857,0.088416,0.02571,0.020355,0.02528,0.28348,0.39433
-0.024445,0.095469,0.054739,0.040183,0.042291,-0.0093695,0.0062456,-0.62943
0.15408,-0.36845,0.021652,0.024354,0.017703,0.018135,-0.13977,0.18559
-0.027526,0.059848,-0.08099,-0.01406,-0.0064275,0.05376,0.27792,0.05817
-0.1714,0.19613,-0.081348,-0.059714,-0.014541,-0.011375,0.066135,-0.1201
-0.10572,-0.3307,-0.034275,-0.0036075,-0.038075,-0.051993,-0.094304,0.011913
0.037159,0.14721,0.083446,-0.017984,-0.022581,-0.068054,-0.22688,0.26109
0.10963,1.8702e-05,0.021599,0.04531,0.031723,0.034012,0.042322,-0.026578
0.12041,0.30745,0.014369,-0.0013806,0.015315,0.08197,0.10995,-0.1539
-0.023527,-0.16496,-0.032134,-0.01745,0.006268,-0.026213,0.052048,0.10696
-0.064038,-0.05951,-0.0086124,0.028454,0.0046332,0.060532,-0.00046632,-0.18094
0.084689,0.089667,0.069325,-0.004105,-0.012885,-0.01757,0.16987,0.11496
-0.038767,0.13075,0.037758,0.017936,-0.0070105,-0.096656,-0.39827,0.017121
-0.15382,-0.25193,-0.15773,-0.053586,-0.016544,-0.020397,-0.055813,-0.11665
0.035741,-0.060667,-0.0011295,0.031596,0.029097,0.031888,0.07374,0.14134
0.045085,-0.24968,-0.077996,-0.05442,-0.018288,-0.017347,0.086157,-0.062655
0.045869,0.28273,0.16664,0.040061,0.013334,0.090368,0.19442,0.10526
0.0068962,0.11572,0.037481,0.018168,-0.016619,-0.027212,-0.12335,-0.020603
-0.055954,-0.054017,-0.051706,-0.010864,0.0011329,-0.01819,0.047712,0.019853
-0.0094923,-0.13156,0.054697,0.030811,0.027302,-0.038808,-0.089402,-0.19513
0.10762,0.42273,0.10586,0.010013,0.022501,0.082491,0.081632,0.015294
-0.04022,-0.15697,-0.26624,-0.04239,-0.037069,0.040436,0.20015,0.17662
-0.12467,-0.098064,0.0080857,-0.032961,0.0045124,-0.079746,-0.28982,-0.11483
-0.020698,-0.11262,0.022326,0.03031,-0.0014221,-0.036548,-0.18611,-0.27832
0.1934,-0.27196,0.050086,-0.016643,-0.039334,-0.010161,0.065559,0.26628
-0.053058,0.39998,0.05285,0.013829,0.015837,0.038243,0.074692,0.15276
0.13007,0.12225,-0.023267,0.0047968,0.00019419,0.022793,0.1464,0.044786
-0.24212,0.013235,-0.0054897,0.0034333,0.0077018,-0.040567,-0.031401,0.018761
0.03305,-0.10468,0.12266,0.041253,0.054172,0.036138,0.049227,-0.076434
0.017808,-0.28345,-0.20845,-0.053438,-0.02435,-0.043453,-0.088627,-0.10324
-0.037889,-0.090416,-0.021835,0.00068031,0.0065248,0.080468,0.21047,-0.18946
0.13956,0.055287,0.034152,-0.0073733,-0.048585,-0.05277,-0.39059,0.15518
-0.058896,0.2727,0.029551,0.00039312,0.0055236,-0.029061,0.036638,-0.070084
0.0077694,0.11702,0.15906,0.047232,0.012498,0.026419,0.1551,0.096206
0.011856,0.063715,0.031171,0.015769,0.026967,0.050818,0.20626,0.054083
-0.054056,0.071234,-0.15973,-0.062875,-0.029185,-0.042254,-0.27884,0.10277
-0.0099531,-0.13727,0.023032,0.037834,0.015995,0.043635,0.17681,-0.1144
-0.011858,-0.4482,-0.092879,-0.041375,-0.017045,-0.074658,-0.19917,-0.079136
-0.020599,0.19007,-0.07782,-0.042469,-0.026573,-0.014458,-0.14739,-0.046978
0.19037,-0.14641,0.13108,0.058275,0.05008,0.029023,0.26376,0.022711
-0.066572,0.064866,-0.0671,-0.012302,-0.021318,-0.014201,0.05959,0.091529
-0.065026,0.28492,0.2346,0.058484,0.048392,0.10637,-0.070772,-0.0049581
0.030814,0.13175,-0.033521,-0.0027682,-0.021988,-0.085245,-0.079381,0.1069
-0.13846,-0.14343,-0.11325,-0.032123,-0.037128,-0.010332,0.12792,-0.13753
0.14598,0.17179,0.089348,0.0092263,0.018594,0.026909,-0.035026,0.063921
-0.045385,-0.46,-0.16786,-0.027482,-0.018898,-0.043517,0.016959,0.10722
-0.017114,0.095831,-0.049001,-0.041006,-0.016828,0.028477,-0.014051,-0.22834
0.012038,0.12248,0.11769,0.038698,0.016909,0.00052307,-0.14482,-0.084489
0.0027498,-0.3782,-0.14456,0.0083287,0.027468,0.0049917,0.037669,0.11683
0.063835,0.53281,0.29669,0.055303,0.030227,0.033413,0.087255,0.048399
0.014781,0.020381,0.065901,-5.3832e-05,0.0014311,0.014699,0.065802,0.016563
-0.11413,-0.33748,-0.28292,-0.079517,-0.043639,-0.067539,-0.19904,-0.070381
0.1059,0.21586,0.069869,0.0045876,-0.019346,0.028274,0.18296,0.055245
-0.0054431,-0.10296,-0.071571,-0.013138,0.0038121,0.004917,-0.069826,0.20766
-0.088883,0.1486,0.097244,0.023798,-0.0054431,-0.090746,-0.090591,-0.2839
0.082649,-0.087186,0.053078,0.06092,0.031155,0.069727,0.29215,0.065334
-0.083482,-0.10996,-0.1097,-0.03444,0.012331,0.002539,-0.22661,-0.15131
-0.046638,4.6941e-05,-0.030765,-0.012226,-0.02247,0.028719,0.024859,0.064983
0.054291,0.023038,0.0097579,0.018165,0.0052924,-0.0072598,-0.093976,0.13426
-0.091654,0.2014,0.091082,-0.037089,-0.028994,-0.026665,0.089179,0.054233
0.14151,-0.080564,0.0031202,0.0094235,0.015601,0.0021542,-0.010878,0.10376
0.12893,0.093859,-0.034938,0.01701,0.022072,0.024664,0.20061,-0.14898
-0.091029,-0.39685,-0.0075225,-0.0065462,0.013901,-0.021733,-0.23613,-0.13508
0.066088,0.09177,0.10826,0.0090757,-0.0011844,0.018903,-0.015196,0.12164
-0.12816,-0.0070264,-0.15727,-0.029837,-0.038998,-0.017944,0.012956,-0.26866
-0.12877,0.18441,-0.031858,0.0017582,-0.013848,-0.031233,-0.025839,0.039651
0.15654,0.018811,0.045756,0.0023179,0.011504,0.072285,0.18136,0.28352
-0.0073412,-0.0044105,0.0979,0.057759,0.036816,-0.035917,-0.052979,0.020471
-0.01876,0.24526,0.23313,0.027388,0.015014,0.03454,0.036291,-0.012555
-0.04091,-0.34511,-0.43957,-0.12015,-0.061861,-0.099206,-0.1454,-0.21987
0.01357,0.19697,0.033032,0.013455,0.0092266,0.047367,0.11194,0.040256
0.0057024,-0.2963,-0.012561,0.029648,0.017305,0.044889,-0.067622,0.28365
0.007312,0.15682,0.11989,0.0064493,0.0092591,-0.012458,0.010558,-0.13865
0.081953,0.0084723,0.18929,0.060971,0.016387,-0.014824,-0.021085,-0.094894
