0.019741,0.079619,0.14658,0.032084,-0.017067,-0.019124,0.0044559,0.034998
0.027917,0.11368,0.073232,0.051055,0.036908,0.033374,0.031389,0.00098066
-0.074867,-0.29912,-0.30689,-0.17294,-0.06505,0.0082469,-0.0046096,-0.01014
0.030726,0.29954,0.52012,0.14002,0.019715,-0.017082,-0.0023271,0.0087931
-0.046509,-0.1705,-0.32179,-0.073525,0.001216,0.011322,-0.024521,-0.044247
0.0058323,0.047509,-0.043733,0.021942,0.04291,0.038087,0.0068054,-0.013205
-0.014981,-0.06977,-0.090255,-0.057792,-0.074145,-0.054468,-0.017698,-0.0073544
0.11842,0.18984,0.34493,0.12545,0.079978,0.053777,0.05839,0.083036
-0.06942,-0.20265,-0.22034,-0.099136,-0.11128,-0.12919,-0.061508,-0.030563
0.01645,0.029106,-0.033632,0.027509,0.056087,0.092489,0.060493,-0.019421
0.002201,0.099228,0.11048,0.030049,0.067461,0.047779,-0.012683,0.023285
-0.07214,-0.1847,-0.16132,-0.08271,-0.11531,-0.13733,-0.069693,-0.034801
0.067485,0.28883,0.33926,0.15076,0.070926,0.038134,0.046044,0.056602
-0.086575,-0.3152,-0.38819,-0.14444,-0.01418,0.067084,0.022226,-0.030545
0.035634,0.15115,0.17812,0.093769,0.043252,0.020184,-0.031749,-0.038542
0.042606,-0.056307,-0.21456,-0.14332,-0.093333,-0.079252,-0.022314,0.0010842
0.018982,0.13732,0.3209,0.11964,0.10637,0.11194,0.057967,0.056696
0.080439,0.16556,0.21046,0.045393,-0.077511,-0.11811,-0.017991,0.010675
0.069302,0.032242,-0.049123,0.10149,0.11179,0.096684,0.069543,0.034511
-0.21857,-0.29709,-0.28805,-0.166,-0.076498,-0.033755,-0.070572,-0.12987
-0.064753,-0.14448,-0.25664,-0.054153,-0.0098809,0.0054716,0.0066419,0.064349
-0.046886,-0.18948,-0.15642,-0.093734,-0.10217,-0.11402,-0.081685,-0.046741
0.1644,0.35122,0.47693,0.11484,0.10058,0.092392,0.070953,0.06066
0.031784,0.17647,0.11665,0.088772,0.0058369,-0.022982,-0.011481,-0.0035866
-0.075696,-0.14688,-0.16997,-0.053024,-0.033411,-0.021595,-0.0079843,-0.043664
0.023194,-0.12235,-0.074084,-0.0043499,0.038865,0.06645,0.027468,0.0033301
-0.030032,0.081701,0.10239,-0.037628,-0.11228,-0.14066,-0.060791,0.012599
0.084976,0.045475,0.0088497,0.089673,0.17769,0.20929,0.1104,0.054402
0.039263,-0.05875,-0.090018,-0.013441,0.010171,-0.00069342,0.0098421,-0.027816
0.081312,0.34587,0.36572,0.12863,0.017266,-0.028682,0.0045255,0.11702
-0.22826,-0.34483,-0.33069,-0.23549,-0.16933,-0.12531,-0.1247,-0.18352
-0.039733,-0.017084,0.012112,0.0021176,-0.0040362,-0.025784,-0.026754,-0.015879
0.090736,0.059976,-0.031256,0.011958,0.043172,0.0737,0.040054,0.064923
0.0060766,-0.015108,0.044542,0.042997,0.03382,0.031752,0.044027,-0.027188
0.010894,-0.072504,-0.22252,0.024295,-0.0014496,0.0040523,0.031656,0.035969
-0.027018,-0.019292,0.074153,0.065038,0.046546,0.0059159,0.010441,0.02801
0.034088,0.24647,0.40485,-0.014244,-0.040743,-0.0095734,-0.019853,-0.019583
-0.038758,-0.21135,-0.27499,-0.087993,-0.044043,-0.065642,-0.051535,-0.020661
-0.0019413,0.046751,0.021601,-0.046026,-0.032925,-0.013443,-0.006465,-0.0063251
0.012947,-0.14111,-0.20297,0.0032173,0.048124,0.061618,0.013971,0.0078808
0.10833,0.42232,0.56873,0.19347,0.082689,0.027275,0.041357,0.045423
-0.066936,-0.33976,-0.51389,-0.18546,-0.084886,-0.045682,-0.048847,-0.049934
0.049667,0.11221,0.11944,0.10125,0.069179,0.07746,0.095457,0.13592
-0.14374,-0.21441,-0.16519,-0.071322,-0.087857,-0.095307,-0.10331,-0.26411
-0.014854,-0.031839,-0.15104,-0.047241,0.021967,0.037617,0.0037785,0.10173
0.084136,0.56432,0.72952,0.18849,0.085828,0.038673,0.026465,0.030517
-0.011482,-0.25609,-0.12024,0.010055,-0.021657,-0.0063082,0.019622,0.014626
0.049212,0.091192,-0.11703,-0.14584,-0.10554,-0.09745,-0.016788,0.069788
-0.0547,-0.16811,-0.12978,-0.037624,-0.025467,-0.031768,-0.020547,-0.093085
0.082492,-0.0023721,0.03659,0.10007,0.07774,0.073353,0.031279,0.025838
-0.10213,-0.44116,-0.49149,-0.084169,0.032087,0.061365,0.0052033,-0.019035
0.078669,0.26036,0.2108,0.027343,0.0093399,0.017763,0.017658,0.02195
-0.054826,-0.08232,-0.071468,-0.10372,-0.092194,-0.081459,-0.072708,-0.070314
-0.080545,0.1974,0.228,0.11713,0.063259,0.028701,0.030405,0.047609
0.15036,0.49152,0.61989,0.17489,0.069288,0.027386,0.037611,0.03173
-0.072498,-0.23139,-0.41788,-0.12543,-0.03513,0.0080378,-0.012028,0.01474
0.056191,0.1364,0.036195,0.005276,-0.0077401,0.0019667,0.014653,0.027904
-0.11144,-0.56395,-0.15245,-0.081597,-0.12951,-0.15439,-0.084803,-0.1161
0.065664,-0.038375,-0.29888,-0.019135,0.053168,0.078944,0.010806,0.020547
0.0096219,0.19519,0.21146,0.012713,-0.0059266,-0.023407,0.013382,-0.014809
0.032945,-0.067676,-0.1158,0.029393,0.061042,0.047609,0.040976,0.075215
0.057317,0.33695,0.343,0.046438,0.020207,0.027404,0.016054,-0.0057762
-0.13636,-0.24623,-0.053154,-0.029939,0.0046072,0.018151,-0.022125,-0.054311
-0.032863,-0.089007,-0.22568,-0.012267,-0.032763,-0.011357,0.0043213,0.03913
0.054873,0.28713,0.37341,0.068135,0.016999,-0.0069618,0.0088139,-0.006794
0.0014711,-0.35825,-0.50444,-0.11699,-0.081213,-0.055604,-0.0095618,0.026357
0.033183,0.16354,0.13442,0.041533,0.078007,0.044569,-0.028383,-0.049383
0.040402,0.032559,0.0098066,0.043466,0.025119,0.034454,0.037367,0.070144
-0.0082483,0.20139,0.30963,0.036987,0.0017325,-0.0010769,0.015158,-0.021791
-0.097142,-0.17501,-0.27128,-0.1422,-0.070522,-0.070478,-0.056213,-0.075521
0.00044479,-0.082694,0.00014637,0.0057469,-0.082118,-0.080104,-0.035954,-0.0052319
0.12078,0.30478,0.52822,0.20733,0.16279,0.14235,0.092125,0.095423
-0.11066,-0.33412,-0.65795,-0.13111,-0.069358,-0.050689,-0.053944,-0.062339
0.033238,-0.14829,0.22892,-0.0093263,0.050521,0.044998,0.0033512,0.021868
-0.01727,0.081423,-0.24189,-0.06756,-0.10167,-0.06948,-0.00074805,-0.010937
0.042944,0.30927,0.24225,0.061886,0.01384,-0.018224,0.012489,0.03488
-0.067132,-0.3226,-0.098613,0.028005,0.10833,0.097733,0.012042,-0.027999
0.043088,0.20301,0.12856,0.018813,0.017689,0.051912,0.036793,0.0035749
0.0139,0.043628,-0.010584,-0.051243,-0.06319,-0.05446,0.00027391,0.0044791
0.055676,0.19222,0.057711,0.013332,-0.033447,-0.06577,-0.027941,-0.0020748
-0.027579,-0.27282,-0.21802,-0.021904,0.012337,0.017215,-0.025177,0.0149
-0.072436,-0.24226,-0.25715,-0.047893,-0.036006,-0.0093457,-0.015465,-0.038576
0.0535,0.22098,0.49628,0.15359,0.08653,0.018085,0.024342,0.024857
0.045475,0.13197,0.073286,0.074054,0.02803,0.044563,0.0083804,0.041123
-0.15868,-0.14278,-0.36395,-0.2403,-0.14906,-0.1174,-0.070763,-0.099037
0.03546,-0.12754,0.20468,0.030265,0.055498,0.055848,0.03752,0.026465
-0.011876,-0.026446,-0.037642,-0.020896,-0.0063313,0.0099329,0.021378,0.011629
0.075132,0.29988,0.1701,0.098275,0.05658,0.057657,0.037578,0.036359
0.023601,0.17816,0.034778,0.036339,-0.0053176,-0.019527,-0.015196,-0.016419
0.052412,-0.22107,-0.20416,-0.057931,-0.027652,-0.026244,-0.0042103,0.032961
-0.010656,-0.0785,-0.14133,0.026892,0.028749,-0.0094352,-0.015788,-0.026592
-0.10385,-0.019396,-0.07247,-0.044556,-0.0080824,0.0073208,0.0041705,-0.031265
0.045285,-0.043093,0.020909,0.0095521,0.010046,0.031689,0.070646,0.057723
-0.025185,-0.0464,0.025449,-0.029051,-0.034384,-0.03798,-0.082533,-0.056759
-0.027024,0.074592,0.18714,0.011802,-0.0089,-0.0063707,-0.033816,-0.023336
0.023619,-0.021282,0.000939,-0.00070239,-0.0075424,-0.029637,-0.0098139,0.025068
-0.029679,-0.11305,0.030371,-0.020039,-0.0149,0.0017363,0.013123,0.0024647
0.15698,0.28496,0.27445,0.17184,0.10952,0.08787,0.082245,0.08852
-0.12696,0.024281,-0.25392,-0.090102,-0.040604,-0.02902,-0.028594,-0.060538
-0.076308,-0.021496,-0.19123,-0.080366,-0.059038,-0.020919,-0.03001,-0.054115
0.051624,-0.089301,-0.072366,0.04385,0.0073624,-0.0052661,0.0078288,0.021816
0.11663,0.020837,0.68606,0.055389,0.018034,-0.0058508,0.022358,0.03443
0.033071,0.016791,-0.61973,-0.0067556,0.074649,0.094145,0.060221,0.046269
-0.16766,-0.2053,-0.027157,-0.11079,-0.064808,-0.080568,-0.066393,-0.083169
0.10046,0.12696,-0.079303,-0.029072,-0.048527,-0.045725,-0.029631,0.021343
-0.14689,-0.20469,-0.19278,-0.010125,0.022256,0.034746,-0.024934,-0.053932
0.14512,0.46573,0.55996,0.15073,0.069824,0.02843,0.057162,0.074214
-0.031137,-0.29623,-0.23025,-0.068589,-0.0538,-0.024988,-0.017411,-0.0078635
-0.011299,-0.033778,0.26001,0.06717,0.019059,0.0080626,-0.0059869,-0.026355
-0.052842,-0.11039,-0.0076421,-0.012018,-0.086133,-0.082582,-0.017383,-0.012244
0.063317,0.3287,0.058858,0.021681,0.099779,0.10999,0.042676,0.0424
0.071827,0.1061,0.018447,0.050374,0.06147,0.039333,0.026146,0.035973
-0.034954,-0.097422,-0.070894,-0.15338,-0.091525,-0.036583,-0.012086,-0.01608
-0.10075,-0.46174,-0.70586,0.026776,-0.0076554,-0.024163,-0.017353,-0.051534
0.01493,0.37895,0.39887,-0.011295,-0.030882,-0.048828,-0.028946,-0.016022
-0.047636,-0.14022,-0.14215,-0.182,-0.067893,-0.017455,-0.031634,-0.03487
0.10944,0.063496,0.27101,0.16291,0.115,0.045767,0.028759,0.063475
0.10257,0.21293,0.29362,0.21853,0.13407,0.10878,0.089155,0.07557
-0.11606,-0.18027,-0.43448,-0.2187,-0.11334,-0.063559,-0.046353,-0.061409
0.015036,-0.15128,0.42173,0.13952,-0.0033817,-0.034422,-0.018936,-0.011859
-0.067603,0.077605,-0.19352,0.010949,-0.037082,-0.038667,-0.024354,-0.018282
-0.067854,-0.16827,-0.45311,-0.23833,-0.04329,0.0015743,-0.008211,-0.026251
0.15449,0.40628,0.61904,0.15641,0.04021,0.00034999,0.013764,0.057826
-0.025549,0.011935,-0.30464,-0.047448,0.010526,0.067245,0.041669,0.015195
0.13471,0.10331,0.37163,0.18163,0.063706,0.030779,0.021113,0.049174
-0.098112,0.02758,-0.028072,-0.069297,-0.0022166,0.016492,-0.0083606,-0.050751
-0.19134,-0.78804,-0.85776,-0.27487,-0.11549,-0.084339,-0.06175,-0.080802
0.11458,0.17889,0.59215,0.18462,0.030087,-0.07568,-0.021143,0.0067284
-0.092615,-0.0017116,-0.35147,-0.16469,0.0062495,0.066644,0.02045,-0.013822
0.016799,0.051943,-0.089416,0.05464,-0.021861,-0.016073,-0.01445,0.014606
0.17828,0.20407,0.50639,0.18016,0.055716,0.02042,0.046481,0.084749
0.13435,0.65958,0.26384,0.16542,0.1296,0.11386,0.086215,0.087384
-0.23263,-0.55986,-0.27398,-0.22485,-0.13674,-0.087387,-0.098538,-0.13403
0.12303,0.15784,0.56583,0.054108,-0.0021825,-0.0055739,0.023016,0.052618
-0.24565,-0.35107,-0.65494,-0.094372,-0.046193,-0.047567,-0.034162,-0.095807
0.081358,0.11584,0.11776,0.060898,0.050139,0.043701,0.0026121,0.0212
0.055406,-0.027514,-0.24778,0.017035,0.0043174,-0.02159,-0.0080082,0.012034
0.089121,0.18157,-0.25522,-0.11088,0.034169,0.076218,0.034951,0.055611
-0.084091,-0.2211,0.20472,0.0042451,-0.063943,-0.038342,0.0061047,-0.036042
-0.019346,-0.12622,-0.044564,-0.020329,-0.024471,-0.052992,-0.024386,0.010368
-0.0055928,0.015908,0.24432,0.082076,0.035702,0.008864,0.0060635,-0.023727
-0.0031704,0.030547,0.16318,0.07879,0.015595,-0.0087681,-0.0038165,-0.0050496
0.15296,0.40029,-0.15003,-0.10634,-0.013752,0.04296,0.0011041,0.051448
-0.20007,-0.23612,-0.14508,-0.03393,0.026531,0.01609,-0.017717,-0.072201
0.040572,-0.0066441,0.46815,0.11001,0.004294,-0.010797,0.010546,0.038857
0.040095,0.16216,-0.1473,0.053009,0.045069,0.017367,0.031634,0.018125
-0.036552,-0.15045,-0.064155,-0.040459,-0.069502,-0.047592,-0.016669,-0.024512
0.037707,-0.054544,-0.17588,-0.10793,-0.026652,0.021035,0.014175,0.020594
0.059842,0.15868,-0.031626,0.029942,-0.013712,-0.034523,-0.032157,-0.010602
-0.025123,-0.30281,-0.24175,-0.041357,-0.0071756,-0.003384,0.00035552,-0.0089427
-0.038072,0.22961,0.16305,0.044899,0.086663,0.067448,0.0020133,-0.006089
0.012479,-0.012614,0.3174,0.053943,-0.037061,-0.05659,0.011516,0.020868
-0.077278,-0.055191,-0.36995,-0.053608,0.058836,0.085224,0.036343,0.0010499
0.043672,0.10053,0.24397,0.003217,-0.040137,-0.030756,-0.0096821,0.012058
0.0077913,-0.15519,0.082578,0.028835,-0.02196,-0.053121,-0.040724,-0.032451
-0.036637,-0.095305,-0.24458,-0.055172,-0.027713,-0.02882,-0.033286,-0.03115
0.12913,0.43755,0.57376,0.14151,0.051628,0.042161,0.044086,0.062789
-0.080758,-0.48485,-0.65229,-0.21736,-0.081012,-0.027608,-0.011439,-0.023932
0.099441,0.31862,0.31649,0.20391,0.1134,0.066644,0.027003,0.037094
-0.20516,-0.22898,0.078791,-0.055725,-0.068125,-0.042231,-0.027858,-0.058457
0.036765,0.18561,-0.53935,-0.089974,0.015282,0.051991,0.019375,-0.0055221
0.075247,0.18767,0.37524,0.031111,0.0045803,-0.02578,0.0045499,0.0087117
-0.042869,-0.29317,-0.23167,-0.051404,-0.052986,-0.025645,-0.010074,5.9451e-05
0.11985,0.1335,0.24313,0.13962,0.1164,0.036717,0.037672,0.062308
0.063343,-0.2981,0.10671,0.011057,-0.0025217,0.0051104,0.014652,0.039103
-0.14203,0.27149,-0.15396,-0.061509,-0.057853,-0.057775,-0.071537,-0.069753
-0.089808,-0.063602,-0.099076,-0.062003,-0.072748,-0.042266,-0.025615,-0.037905
-0.029567,-0.052822,0.061996,-0.013631,0.0076612,0.036341,0.019778,-0.021741
0.15646,0.038797,0.1736,0.036672,0.027138,-0.0014005,-0.013138,0.049023
-0.031131,0.11007,0.079057,0.088496,0.055757,0.078916,0.063551,0.010405
-0.10755,-0.10469,-0.348,-0.14017,-0.032025,-0.019836,-0.031029,-0.067144
0.14599,0.050156,0.007595,0.14648,0.075447,0.04556,0.054903,0.09774
-0.14595,-0.22351,-0.036153,-0.13089,-0.11506,-0.12406,-0.092709,-0.1043
0.21882,0.35384,0.52633,0.27657,0.18443,0.12682,0.088415,0.12347
-0.12817,-0.37608,-0.61139,-0.3429,-0.17538,-0.10082,-0.066175,-0.062956
0.21019,0.42855,0.33881,0.22143,0.086334,0.052183,0.05244,0.070446
-0.095214,0.10224,0.45526,-0.022073,-0.053674,-0.031134,0.01417,-0.015694
-0.27131,-0.43363,-0.8465,-0.21263,-0.12579,-0.10007,-0.095287,-0.12622
0.04962,0.11862,0.15501,0.0659,0.11362,0.10421,0.04439,0.043647
0.079892,-0.059162,0.13525,0.050314,0.017908,0.0048037,0.0037829,0.033325
-0.061315,-0.16682,-0.31601,-0.053946,-0.0048779,0.00905,-0.013493,-0.023797
0.057843,0.11197,0.25762,0.059502,0.023299,0.016181,0.024415,0.0057578
0.079787,0.077622,0.38139,0.12568,-0.045153,-0.0985,-0.061608,-0.0024159
-0.064809,-0.12693,-0.49181,-0.1373,0.063246,0.13351,0.049149,-0.0010809
0.12396,0.32685,0.29171,0.16709,0.027403,0.0083222,0.020855,0.056659
-0.058203,-0.21919,0.10234,-0.10464,-0.083847,-0.10018,0.0017109,-0.017047
0.089796,0.52784,-0.026723,0.020696,0.055708,0.048897,0.030223,0.042765
-0.051645,-0.25779,0.0077792,-0.069504,-0.040322,-0.037822,-0.027191,-0.030362
-0.22701,-0.50373,-0.64302,-0.096539,-0.045586,-0.025312,-0.038539,-0.096619
0.046383,0.27728,0.29124,0.14132,0.11681,0.078141,0.026735,0.046498
0.12708,0.0040877,0.44298,0.026831,-0.038022,-0.016508,-0.011474,0.031504
-0.10195,-0.011259,-0.099317,-0.10276,-0.087892,-0.066594,-0.043841,-0.047777
0.032128,-0.079009,-0.33057,-0.041966,0.015086,0.038076,0.031509,0.012188
0.038631,-0.13989,-0.16576,0.079396,0.014625,-0.014011,-0.019198,-0.0067111
0.13799,0.40595,0.4104,-0.032464,-0.0094294,0.020296,0.0626,0.099369
-0.1917,-0.41929,-0.52497,8.8074e-05,-0.0086177,-0.022307,-0.058296,-0.098602
0.06634,0.40592,0.57197,0.17099,0.15883,0.10861,0.079636,0.040473
-0.024774,-0.098464,-0.085968,-0.097253,-0.069063,-0.055656,-0.038893,-0.03788
0.027248,-0.0084237,0.10908,0.069837,0.018481,-0.0075819,0.00023203,0.033467
0.026755,0.019536,0.066601,-0.19638,-0.13396,-0.091449,-0.03757,0.0042126
-0.019066,-0.024821,-0.095104,0.11769,0.089715,0.098363,0.03481,0.014519
-0.017193,-0.09868,0.069634,-0.013559,-0.030469,-0.032482,-0.017491,-0.022077
-0.046407,0.15238,-0.36772,0.032997,0.051294,0.03121,0.015975,-0.012305
0.025645,-0.25327,0.12734,0.0060912,-0.0094841,-0.015455,0.0019826,-0.0033812
-0.004365,0.1877,-0.2437,-0.1338,-0.095906,-0.070884,-0.044122,-0.034525
0.051098,0.073523,0.19239,0.0042796,0.034387,0.052661,0.049419,0.058365
-0.089011,-0.27741,-0.22466,-0.0083559,-0.00086436,0.0118,-0.014226,-0.037018
0.13027,0.21262,0.46342,0.22026,0.088192,0.02569,0.0073118,0.054612
-0.072081,-0.096093,-0.29283,-0.18349,-0.056976,-0.045934,-0.026318,-0.025813
-0.05532,-0.014075,0.28413,0.054866,-0.013763,0.0081054,0.0023927,-0.012403
0.11018,0.16438,0.14188,0.045262,0.054264,0.04728,0.039067,0.016907
-0.075798,-0.0267,-0.34443,-0.040493,-0.016765,-0.0065785,-0.0097879,-0.015913
-0.0042611,-0.25657,0.37823,0.062629,-0.008202,-0.044241,-0.026815,-0.0092919
0.10561,0.34413,-0.3804,-0.076007,-0.029768,0.0044007,0.0193,0.036708
-0.043494,-0.019923,-0.037415,0.011307,-0.0038464,-0.024935,-0.012109,-0.0030163
-0.084681,-0.074394,0.04529,0.050252,0.022108,0.023784,-0.0039881,-0.042649
-0.049319,-0.38939,-0.46195,-0.20968,-0.069657,-0.044964,-0.019043,-0.027611
0.11739,0.21433,0.67482,0.15335,0.11883,0.088925,0.051865,0.065451
0.033006,0.18886,0.1046,0.069467,0.040379,0.034618,0.028822,0.041186
-0.005046,0.07951,-0.31208,-0.077694,-0.094159,-0.067434,-0.041459,-0.037889
-0.0038588,-0.1078,0.043344,0.033191,0.012257,0.024864,-0.010591,-0.0076372
-0.095454,-0.046943,-0.062248,-0.065619,-0.061833,-0.04782,-0.034738,-0.05542
-0.0056316,0.05723,0.075198,0.040746,0.012312,-0.0040208,0.0034999,0.014249
-0.038468,-0.14018,-0.2157,-0.092586,0.0010049,0.008209,0.010663,-0.0015803
0.11887,0.0011903,0.6589,0.20623,0.037673,-0.018449,0.026101,0.069081
0.020993,0.17736,-0.60589,-0.15707,-0.010112,0.010262,-0.0046802,-0.031569
-0.0044379,-0.031897,0.083455,0.097867,0.068646,0.047876,0.027738,0.0088522
-0.044198,-0.31954,-0.023186,-0.061309,-0.031022,0.00086441,-0.033026,-0.020811
0.17413,0.43425,0.3791,0.17686,0.10441,0.064528,0.078382,0.082307
-0.13949,-0.26804,-0.34971,-0.14931,-0.11162,-0.089489,-0.060247,-0.041392
-0.14206,-0.018359,0.10379,-0.079103,-0.10153,-0.039703,-0.050791,-0.087327
-0.037025,0.098087,-0.37661,-0.096562,0.0015163,-0.0053426,-0.018467,-0.024207
0.13659,0.065081,0.16294,0.056923,0.025576,0.020915,0.036634,0.062198
-0.011485,-0.025546,0.15219,0.062054,0.02546,0.022989,0.0051594,0.00023075
0.04263,-0.051774,0.11372,0.068183,0.063881,0.031748,0.02782,0.024433
0.14306,0.37349,0.40501,0.12272,0.047259,0.023472,0.042214,0.06452
-0.16313,-0.4016,-0.5156,-0.071228,-0.0087308,-0.017608,-0.02971,-0.051538
-0.03224,0.050046,-0.010368,-0.061042,-0.065095,-0.052395,-0.03947,-0.03499
-0.003499,-0.16345,-0.15989,-0.074141,-0.0829,-0.057212,-0.026093,-0.011229
0.063499,-0.018267,0.3,0.076058,0.07058,0.046509,0.033916,0.035008
-0.034496,0.11253,-0.32612,-0.10335,0.0047629,0.06406,0.015663,0.0019344
0.015074,0.25549,0.18967,0.067028,0.0089366,-0.027305,-0.010375,-0.024522
0.040627,-0.14822,0.17805,0.095166,0.028826,0.0074831,0.02634,0.018384
-0.090125,-0.13405,-0.33423,-0.11986,-0.044386,0.0049695,-0.022361,-0.0094911
-0.040549,-0.11315,0.12506,-0.022409,-0.038206,-0.050014,-0.031197,-0.037183
0.13543,0.39283,0.12149,0.052656,0.047942,0.038094,0.031344,0.053213
-0.038052,0.071812,0.055685,0.067243,0.034779,0.019301,0.0013868,-0.011087
-0.044874,-0.36617,-0.094782,-0.1108,-0.14787,-0.16916,-0.066316,-0.034308
0.029223,0.061207,-0.064529,0.057779,0.14822,0.18311,0.078134,0.05404
0.066888,0.077714,0.11381,0.04141,0.024052,0.020645,0.020382,0.011609
-0.073014,-0.10883,-0.24171,-0.043528,-0.02126,-0.048156,-0.029098,-0.044901
-0.0084727,0.029791,0.14734,0.036182,0.011237,0.03037,0.015052,0.024393
0.0095245,0.037918,0.051434,-0.041082,-0.090453,-0.065032,-0.027465,-0.015771
-0.02007,0.085644,0.01466,-0.026556,-0.030348,-0.030386,-0.016562,-0.0022174
0.073641,0.094051,0.10507,0.031926,0.058145,0.055819,0.016136,0.040867
-0.030449,-0.10843,-0.13195,0.0088334,0.041986,0.013936,0.007973,-0.043268
-0.020355,-0.13758,-0.16568,-0.041181,-0.031805,-0.030606,-0.0097164,-0.012615
-0.0056318,-0.053592,0.02772,0.030766,0.0012926,-0.022384,0.010241,0.0079767
-0.048609,-0.064538,-0.011496,-0.06356,-0.022092,0.00046571,-0.033263,-0.03574
0.046514,0.11374,0.24179,0.067532,0.0473,0.054533,0.024366,0.044372
0.077348,0.17114,-0.11683,0.057985,0.0072049,0.03132,0.027408,0.045912
-0.072405,-0.039333,0.054931,-0.083351,-0.047815,-0.037239,-0.0080561,-0.022602
0.0044476,0.060708,0.00057948,-0.0040873,-0.038936,-0.072586,-0.027005,-0.0043149
0.035374,0.18136,0.010097,0.085389,0.12031,0.11295,0.041072,-0.00032673
-0.041345,-0.29617,-0.0018676,-0.056855,-0.085391,-0.074432,-0.030325,-0.033775
-0.068878,-0.19404,-0.097433,-0.024585,0.00031643,-0.017816,-0.03031,-0.026394
0.070281,0.16583,-0.057572,0.0022681,0.033544,0.048019,0.033167,0.037419
0.0089594,-0.037897,-0.2102,-0.062652,-0.032927,-0.010235,-0.0041595,0.0090503
-0.0031395,-0.10238,0.35103,0.13167,0.0035125,-0.044678,-0.025344,-0.018072
0.18967,0.44928,0.49316,0.10804,0.12662,0.13949,0.10216,0.12748
-0.26491,-0.35878,-0.83114,-0.27485,-0.14083,-0.098786,-0.082828,-0.13292
-0.00046295,0.060146,0.1195,0.021389,-0.033805,-0.025423,-0.018031,-0.01853
0.11511,0.0034824,0.3049,0.14457,0.087827,0.03915,0.046408,0.056144
-0.09058,-0.0052113,-0.26842,-0.13243,-0.080946,-0.06906,-0.053635,-0.065451
0.046226,0.018048,0.31231,0.18997,0.076919,0.048603,0.025614,0.054042
0.056704,0.08022,-0.11023,-0.0056786,0.061456,0.048698,0.042067,0.039639
-0.035591,0.047354,-0.036645,-0.12561,-0.080266,-0.037203,-0.019756,-0.014756
-0.011652,-0.04264,-0.013746,-0.0054386,-0.027603,-0.0057181,-0.02688,-0.054197
-0.019584,-0.22188,-0.15009,-0.011714,0.001123,0.0026679,0.013029,0.0075655
-0.0043517,0.07178,0.08709,-0.0028946,-0.017058,-0.019861,-0.024931,-0.0088475
0.026514,0.1277,0.074709,0.037683,0.058904,0.043737,0.031132,0.029619
-0.098709,-0.19387,-0.29464,-0.068709,-0.020682,-0.025542,-0.021992,-0.025355
0.11996,0.13182,0.27745,0.092667,0.017742,-0.0014494,0.010813,0.044944
0.072929,0.17651,0.22924,0.06891,0.033461,0.037587,0.051134,0.021571
-0.076068,-0.15225,-0.18169,-0.085576,-0.059745,-0.033659,-0.026366,-0.033277
-0.038348,-0.21295,-0.15183,0.011291,-0.020095,-0.043405,-0.042319,-0.010552
0.068613,0.29161,0.3404,0.10849,0.097276,0.086544,0.049928,0.019172
-0.17715,-0.37323,-0.33988,-0.24816,-0.12208,-0.081077,-0.07,-0.084835
0.13078,0.4948,0.016431,0.12013,0.063787,0.024403,0.043342,0.060329
0.0084511,0.11332,-0.091843,-0.0058859,0.014205,0.01278,0.007468,0.025257
-0.035745,-0.4251,0.28031,0.022171,-0.03628,0.0016495,-0.020899,-0.033373
0.061329,0.15216,-0.046171,0.025043,0.022074,0.02259,0.021294,0.033361
-0.082595,-0.18632,-0.085475,-0.098031,-0.036788,-0.033575,-0.029478,-0.047526
-0.021869,-0.096272,-0.046598,0.05241,0.029894,0.020704,0.030356,0.0055497
0.12637,0.16566,0.025678,0.01648,0.027355,0.0056549,0.0057611,0.059929
-0.01313,0.13995,0.10974,0.037251,-0.012718,-0.016416,-0.009445,-0.0094431
-0.10492,-0.21118,-0.21509,-0.095661,-0.02757,-0.014514,-0.031035,-0.070007
0.16289,0.41765,0.27795,0.10223,0.029697,0.026705,0.050024,0.08096
-0.12437,-0.26271,-0.38855,-0.15067,-0.10677,-0.072725,-0.03237,-0.057017
-0.068702,-0.17504,0.37725,0.16047,0.093814,0.046316,-0.0053246,-0.023469
