-0.044757,-0.18624,-0.19778,-0.08325,-0.021642,-0.011276,-0.017426,-0.0039215
0.068845,0.087735,-0.020316,-0.083773,0.069852,0.019271,-0.12441,-0.034312
-0.027215,0.049397,0.2747,0.18877,0.06866,0.042046,0.18227,0.03683
0.10373,0.27382,0.2782,0.25809,-0.0014656,-0.1769,-0.14441,0.068818
-0.10965,-0.3905,-0.43465,-0.18824,-0.12488,0.058016,-0.026544,-0.11811
-0.01993,0.22586,0.26663,-0.1737,0.010621,0.10614,0.10594,-0.00057943
0.067406,0.01237,-0.1189,0.11409,0.084226,0.092153,0.12777,0.069797
0.011379,-0.21796,-0.51226,0.011059,-0.045337,-0.078302,-0.11749,0.014889
-0.12534,-0.39255,-0.44989,-0.24054,-0.07403,-0.077806,-0.067373,-0.055882
0.056399,0.29697,0.6501,-0.062438,0.14604,0.038336,-0.0028771,0.0060258
0.034282,0.31589,0.71355,0.48295,0.036398,0.019803,-0.03282,0.021088
-0.081005,-0.12845,-0.38139,-0.08104,-0.19209,-0.094238,0.10146,-0.041744
0.0086348,0.013948,-0.086258,-0.24698,0.0076473,0.001451,0.033768,0.013049
0.093109,0.064904,0.23934,0.42205,0.18294,0.034318,-0.11771,0.07626
-0.03825,-0.10877,-0.54704,-0.38709,-0.23591,-0.057123,-0.09443,-0.094207
0.090733,0.14713,0.10659,-0.088938,0.040767,0.11084,0.15082,0.032873
-0.03653,-0.13939,0.36141,0.011686,0.20101,0.046592,0.024084,-0.019213
-0.030737,-0.073565,-0.41763,0.086959,-0.036081,0.0080746,0.16524,0.014888
0.075485,0.30998,0.50276,0.372,0.10305,0.034053,-0.0049702,0.095757
-0.27367,-0.60837,-0.73652,-0.17116,-0.28004,-0.18858,-0.33943,-0.12074
0.18682,0.47498,0.17859,-0.45525,-0.068307,-0.012131,0.027803,0.029123
0.011638,0.099427,0.69585,0.50551,0.17562,0.039257,0.056745,0.021676
-0.12677,-0.53811,-0.47106,-0.22507,-0.048425,-0.011541,-0.065644,-0.080645
0.13197,0.16629,-0.38224,-0.27103,0.11093,0.15542,0.31675,0.05039
0.046847,0.48085,0.72159,0.4071,0.044045,-0.069437,-0.1396,0.047857
-0.091979,-0.436,-0.47972,0.035545,-0.16345,-0.037699,0.073577,-0.017568
-0.01024,0.018617,-0.15151,-0.25399,0.003731,-0.030524,-0.25396,-0.043914
0.02685,0.25116,0.73488,0.19297,0.14684,0.10073,0.13647,0.016075
0.034874,-0.051776,-0.073923,0.304,-0.085869,-0.065506,-0.0041681,0.014266
0.013385,0.076859,-0.25332,-0.39172,-0.13978,-0.044485,0.067336,0.0055251
-0.077411,-0.29467,-0.49368,-0.26299,0.047681,0.0392,-0.17937,-0.041371
0.097583,0.19896,0.48463,0.16596,0.14855,0.029682,0.07668,0.053139
-0.056146,0.025269,0.017509,0.18423,0.037991,0.0053806,0.046645,-0.00027037
-0.086016,-0.40206,-0.55771,-0.11361,-0.14322,-0.041371,0.050564,-0.045707
0.038995,0.10491,0.24565,-0.062275,-0.02783,-0.048117,-0.060794,0.02581
-0.0091412,0.14096,0.1957,0.1286,0.11076,0.078648,-0.023012,-0.028275
0.098062,0.13691,0.083369,0.038173,-0.071209,0.0025657,0.15469,0.065199
0.025196,0.13273,0.25318,0.07326,0.090374,0.082482,-0.083696,-0.014215
-0.063087,-0.10553,-0.13909,-0.06292,-0.04502,-0.0962,-0.004761,-0.032104
-0.056867,-0.054555,0.045857,-0.097189,-0.10221,-0.072965,-0.187,-0.035128
0.013034,-0.13665,-0.33414,0.095062,0.10656,0.089481,0.096454,0.031763
0.0062323,-0.016387,-0.20978,-0.25993,-0.10595,-0.069737,-0.036308,-0.0028567
0.039921,0.25125,0.52059,0.0017806,0.018265,0.051276,0.11913,0.025525
-0.042398,-0.38054,-0.6182,0.23182,0.13553,0.023366,-0.045222,-0.031158
0.05567,0.19807,0.32161,0.047602,0.026998,0.034662,0.11243,0.03826
0.044423,0.13627,0.24922,0.0040414,-0.081033,-0.21111,-0.11027,0.038525
-0.069008,-0.112,-0.19199,-0.047073,-0.024818,0.16932,-0.0021186,-0.069524
0.003868,-0.061654,-0.054862,-0.074289,-0.039015,0.035574,0.13199,0.0029604
-0.026345,0.18615,0.32515,0.055441,0.05591,0.012631,-0.16158,-0.017733
-0.026843,-0.17324,-0.32639,-0.079452,0.0021616,-0.009118,0.014917,0.00092439
0.018328,0.062972,0.1445,-0.095782,-0.16104,-0.15506,-0.042298,0.019608
0.0081948,0.026958,0.14881,0.17087,0.14464,0.066533,0.056862,0.030284
0.02942,-0.02427,-0.16046,-0.029271,0.059959,0.038072,0.046414,0.0015292
0.035829,0.0491,-0.19231,-0.00096049,-0.008832,0.024852,-0.03477,-0.019901
-0.034546,-0.16769,-0.026689,0.18507,0.023994,-0.051457,0.055431,0.012807
-0.033005,-0.011029,-0.0079946,-0.25323,-0.11537,0.035621,-0.097041,-0.064413
0.0013269,0.222,0.37206,0.011204,0.010162,-0.042019,2.1885e-05,0.0062888
0.0055751,-0.10134,-0.36178,0.12562,0.017394,0.067297,0.034117,0.029655
0.0025455,0.019292,0.1751,-0.12985,0.054557,-0.011259,0.044257,0.02916
0.06958,0.10007,0.26586,0.13458,-0.011138,-0.035294,0.038156,0.02042
0.018379,-0.24889,-0.28301,-0.17527,-0.093485,-0.10617,-0.070247,-0.012242
-0.073598,0.30921,0.46752,0.29227,0.08924,0.13564,-0.062316,-0.037646
-0.06613,-0.39658,-1.0361,-0.12619,-0.040488,-0.020721,-0.0084254,-0.016774
-0.013964,0.064184,0.34768,-0.34349,-0.083625,-0.01279,0.028934,-0.027716
0.012878,0.11388,0.095569,0.26699,0.14783,0.10465,0.073301,0.046866
0.13217,0.15879,0.3166,-0.11323,-0.056751,-0.035722,0.14831,0.10569
0.0087452,0.089107,0.11906,0.49423,0.14648,-0.074569,-0.21448,-0.085194
-0.036221,-0.080432,-0.1003,-0.23718,-0.047247,0.0038201,0.016602,-0.0018214
-0.048762,-0.21813,-0.27316,-0.38436,-0.27872,-0.081554,-0.10322,-0.065469
-0.059381,-0.11414,-0.12019,0.2487,0.21754,0.013415,0.098483,0.021311
0.065303,0.24624,0.2947,0.068377,0.0039625,0.10157,0.020629,-0.0066821
-0.010352,-0.098519,-0.16979,-0.1446,-0.067874,-0.027853,-0.0084154,0.022564
-0.036406,-0.0081027,-0.15418,-0.008687,0.002069,0.054719,-0.0043861,0.015024
0.017902,0.0095503,0.045346,0.060082,-0.0050023,0.051964,0.016577,0.0090207
0.14384,0.30597,0.45321,0.066883,0.082542,-0.060272,0.13954,0.12058
-0.12864,-0.32196,-0.26551,0.31335,-0.040518,-0.12658,-0.15217,-0.13611
0.0036895,0.15708,0.27282,-0.25051,0.023413,0.11009,0.046635,0.026568
0.10971,-0.16292,-0.41557,-0.16649,-0.054878,-0.11644,-0.085122,-0.017601
-0.0695,0.0075894,0.021359,-0.53812,-0.065645,0.10774,-0.086847,-0.074011
-0.050092,0.24756,0.35748,0.72754,0.24785,0.10318,0.18226,0.091663
-0.019386,-0.30909,-0.52389,0.23248,-0.044811,-0.13731,-0.034982,-0.01213
-0.03116,0.065507,0.12778,-0.26378,-0.12344,-0.081567,-0.12041,-0.079475
0.04889,0.083528,0.1723,-0.0084235,0.028188,0.091751,0.24736,0.09437
0.035065,-0.027519,0.1489,-0.31023,-0.20577,0.055518,-0.10256,0.03457
-0.063054,-0.111,-0.12234,0.15533,0.13753,-0.080125,-0.146,-0.1245
0.060624,0.12177,-0.20461,-0.13877,-0.010032,0.044578,0.03922,0.032349
0.024081,-0.010036,0.22917,0.40482,0.12696,-0.031397,0.046701,0.029094
-0.031972,0.17931,0.0058946,-0.34428,-0.075082,0.011713,0.12587,0.053102
0.18097,0.14088,0.077563,0.20063,0.02502,-0.0067,-0.013206,0.056762
-0.20529,-0.51783,-0.28313,0.14792,0.098742,0.19352,-0.035595,-0.070459
-0.012203,0.10042,-0.12321,-0.059764,-0.034803,-0.13086,-0.12184,-0.040821
0.040466,0.15167,0.36254,-0.051276,0.021133,-0.0039947,0.024419,-0.043028
-0.094813,-0.0897,-0.09815,-0.40132,-0.18053,-0.25429,-0.073375,-0.038865
0.06612,-0.028013,0.090104,0.45617,-0.016248,0.13414,0.16343,0.11975
-0.0078068,0.018913,-0.070864,-0.15414,0.028707,0.0057028,-0.014198,0.011108
0.035386,-0.087034,-0.21213,-0.039228,0.016588,0.017507,0.012162,-0.028244
0.055532,0.14828,0.18324,0.12028,0.16646,0.31098,-0.03748,-0.0052282
-0.040801,0.15544,0.076796,-0.21428,-0.16948,-0.26175,-0.10739,-0.07512
-0.066062,-0.15967,-0.32088,0.044484,0.079828,0.11984,0.029622,-0.0027014
0.14356,0.15444,0.12164,0.32846,-0.085041,-0.20837,0.084512,0.16567
-0.1312,-0.053239,0.38639,-0.30514,0.10181,0.065835,0.033194,-0.10119
0.01521,-0.24665,0.040692,0.10715,0.054369,-0.081333,0.030636,0.032169
-0.011674,-0.124,-0.35607,0.020643,-0.14181,0.131,-0.065538,-0.052369
0.084383,0.41393,0.091877,0.023032,0.16117,-0.0084681,-0.0072641,0.042348
-0.087674,-0.18892,-0.3202,-0.18137,-0.18562,-0.015714,-0.022893,0.0024176
0.089206,0.27809,0.46216,-0.068481,-0.010614,0.054235,0.026885,0.037498
-0.048839,-0.34045,-0.38016,0.25246,0.10808,-0.0411,0.016474,-0.040825
-0.071581,-0.12867,-0.11042,-0.023475,-0.14944,-0.028451,-0.14764,-0.10792
0.060868,0.24412,0.35245,0.22824,0.26443,0.021903,0.09028,0.07868
0.021398,0.085545,0.073915,-0.14137,-0.11806,0.024345,0.044407,0.019886
-0.0014247,-0.038939,-0.0374,-0.32022,0.016736,-0.028298,0.060546,0.021803
-0.014443,-0.025185,0.2153,-0.019538,0.076235,0.044592,-0.070124,-0.03885
0.022132,-0.1291,-0.26902,-0.052052,-0.29793,-0.12307,-0.04104,0.0037577
-0.094462,0.056592,-0.40476,0.15993,-0.011324,0.040118,0.031983,-0.028512
0.11225,0.078737,0.46345,0.21706,0.12368,-0.066594,-0.014439,0.08419
-0.092651,-0.19654,-0.20464,0.024079,0.19244,0.096143,-0.0398,-0.10297
0.047642,0.20531,0.20689,0.2899,0.06861,0.10602,0.064359,0.042585
0.094314,-0.023122,-0.14693,-0.41733,-0.070136,-0.10848,0.062072,0.051194
-0.11034,0.1776,0.24066,-0.07587,-0.18713,0.044499,-0.025249,-0.016096
0.072945,-0.093886,-0.37337,-0.069248,-0.026924,0.023668,0.042452,0.049896
-0.067757,-0.16017,0.44799,0.032842,-0.0055019,-0.032514,-0.096058,-0.088517
0.045272,-0.10062,-0.67826,-0.2833,0.10258,0.077475,0.0032842,0.035988
-0.01733,0.10038,0.59965,0.51644,0.10193,-0.14698,-0.05056,0.0085056
-0.059179,-0.071616,-0.022446,-0.11167,0.024771,0.16191,0.0085051,-0.085138
-0.023909,0.065127,-0.35625,0.061644,-0.21285,-0.31433,-0.0058023,-0.017765
0.059243,0.13806,0.31015,-0.032171,0.0011778,-0.057307,-0.013691,0.032114
-0.026487,-0.10049,-0.24878,-0.0098663,0.068382,0.23297,0.10376,-0.012163
0.040774,0.17941,0.34294,-0.059819,-0.22699,-0.15161,0.012045,0.11644
0.027467,-0.10714,-0.26546,-0.090228,0.23461,0.47056,0.0010804,-0.026349
-0.019668,-0.13964,-0.057936,0.28695,0.32951,0.068766,-0.038342,-0.025956
0.031093,0.026703,0.00453,-0.048167,-0.34072,-0.53752,0.033938,0.078437
-0.0018141,0.062721,0.054102,-0.33229,-0.050873,0.14969,-0.032986,-0.10443
-0.026959,-0.017247,0.01141,0.050187,0.048162,-0.012973,0.0020022,0.026016
-0.023244,0.15271,0.44505,0.34859,0.07039,-0.036148,-0.057374,-0.046909
0.054295,-0.1394,-0.2094,-0.36656,0.012438,0.16366,0.022618,0.011776
-0.045461,-0.097356,-0.40678,0.14785,-0.081863,-0.094882,-0.0004225,0.0060952
0.021135,0.044259,0.12522,-0.036601,-0.035071,-0.015533,0.045589,0.037312
-0.080921,0.066929,0.10514,0.097034,0.10482,0.11304,-0.065386,-0.019501
-0.013907,-0.036609,-0.14597,-0.0048425,-0.16987,-0.45791,-0.090494,-0.038959
-0.0021179,-0.023465,0.053129,0.017868,0.13439,0.43752,0.27558,0.096725
0.034844,0.091424,-0.061154,0.056163,0.019899,0.0044645,-0.021428,-0.010176
0.075344,0.10548,0.54451,-0.17105,-0.018274,0.02601,-0.1298,-0.077706
-0.0046642,-0.19192,-0.54217,-0.0073557,-0.070877,0.0035158,-0.073135,-0.042757
0.060387,-0.019387,0.27373,0.13354,-0.12743,-0.24199,-0.023702,0.048222
0.074183,0.0058217,-0.25726,0.072621,0.39214,0.13329,0.14291,0.070415
-0.16806,0.078835,-0.010255,-0.45477,-0.36278,-0.33217,-0.042713,0.0081296
-0.051038,0.0040684,0.30316,0.36497,0.26391,0.53244,0.082854,-0.021743
-0.0061249,-0.031297,-0.13051,-0.18593,0.075781,0.046101,-0.012105,-0.050896
0.028061,0.019276,-0.023377,0.18997,-0.20244,-0.17533,-0.038679,0.0061259
-0.019172,-0.14141,-0.2204,0.023839,-0.13541,-0.10163,-0.02004,-0.022968
0.13379,0.32232,0.26949,0.010129,0.11852,-0.030135,-0.041405,0.088117
-0.12146,-0.28503,-0.14842,-0.055793,0.08108,-0.10905,-0.10169,-0.066957
0.036665,0.036482,0.064181,0.027288,-0.061308,0.099964,0.050327,0.011896
-0.046723,0.044755,0.14114,-0.21913,-0.043401,-0.034681,0.032921,-0.050123
0.10606,0.13843,0.15252,0.25025,0.072589,0.21479,0.14359,0.075354
-0.035527,-0.18218,-0.41722,-0.07329,0.0062494,0.0054912,-0.00049273,-0.025538
-0.010363,0.036399,-0.013011,-0.049191,0.016605,-0.091999,-0.017252,0.022284
-0.021907,-0.033637,0.11583,0.018626,-0.027777,5.0192e-05,-0.0095163,8.8223e-06
0.022845,-0.079605,-0.24086,-0.18873,-0.149,-0.086488,-0.088181,-0.037871
0.052587,0.22657,0.40198,0.29144,0.18526,0.17839,0.026592,0.072429
-0.058716,-0.037323,0.13068,-0.11723,-0.11024,-0.26905,-0.1115,-0.044379
0.00054441,-0.035984,-0.21098,0.16474,0.12867,0.27333,0.12216,-0.0056981
-0.082745,-0.10619,-0.12328,-0.19787,-0.074952,-0.1325,-0.084666,-0.085054
0.034889,0.079318,0.31529,0.18554,0.13736,-0.11149,0.065686,0.06136
0.040984,0.12917,-0.45803,-0.45143,-0.2278,0.15717,0.043059,0.050914
-0.0095048,-0.18355,0.13497,0.56956,0.093871,-0.059993,-0.026396,-0.0067521
0.055698,0.078776,0.071306,-0.089117,0.0621,0.066169,0.014566,-0.0019706
0.018291,-0.067497,-0.015439,-0.27293,-0.13652,-0.041525,-0.020861,-0.036023
-0.050956,-0.019548,0.00061443,0.086946,0.083456,-0.085538,0.016094,0.016336
-0.0031355,0.052397,0.08119,-0.041749,-0.051415,0.067206,-0.038628,-0.00093983
-0.025244,0.048566,0.039307,0.067133,0.12335,0.16654,0.056909,0.021684
0.023887,0.033094,0.015762,-0.031514,-0.063351,-0.092722,-0.041447,-0.032873
-0.027067,-0.19596,-0.1146,0.24118,-0.040223,-0.070629,-0.03727,-0.016129
-0.11513,0.049409,-0.13344,-0.39488,-0.064026,0.013449,0.014321,-0.014061
0.15844,0.089187,0.075897,0.23358,0.084954,-0.04399,0.034828,0.066932
-0.011041,0.070673,0.10656,0.034285,0.071528,-0.00076804,-0.030752,-0.015601
0.063603,0.015509,0.020432,-0.03043,-0.010112,0.057546,0.059497,0.027036
0.037987,0.038734,0.16062,0.001512,0.012014,0.030041,0.039704,0.0069137
-0.14339,-0.33833,-0.65324,-0.31446,-0.19043,-0.13721,-0.16067,-0.092014
0.010819,0.3514,0.54695,0.099992,-0.0085283,0.079884,0.03628,0.011158
-2.9955e-05,-0.29147,-0.16139,0.23666,0.16647,0.033263,0.091331,0.04278
-0.0044289,0.076719,0.15861,0.15705,0.091718,0.051026,-0.050322,-0.012816
-0.0571,0.073874,0.061187,-0.030832,-0.053714,-0.039134,0.048792,0.024185
0.10001,-0.11904,-0.34444,-0.12537,-0.043666,-0.050459,-0.017486,0.02125
-0.017089,0.15577,0.27802,-0.16682,-0.089182,0.11775,-0.04579,-0.052469
0.060771,0.055997,-0.13295,-0.054204,0.0052862,-0.058735,0.0033443,0.0066273
-0.095785,0.012414,0.29144,0.14236,-0.017556,-0.088216,-0.01798,-0.027531
0.060281,-0.3494,-0.75146,-0.20128,-0.016455,-0.080194,0.023669,0.025185
-0.056962,0.24404,0.4046,0.28328,0.15754,0.12182,0.050771,0.0088416
0.14614,0.19854,0.1599,-0.066901,-0.096981,-0.051992,-0.06119,0.04857
-0.13522,-0.27571,-0.070463,-0.079352,0.063404,0.062969,0.023989,-0.058843
-0.041758,0.054822,0.025888,0.22229,0.036299,0.12338,0.001608,0.0066011
0.0046337,0.0096269,0.064736,-0.17079,-0.046659,-0.073673,-0.0036419,-0.013405
0.0040066,-0.115,-0.018915,0.16944,0.0086059,-0.051654,0.015479,0.028964
0.089245,0.18845,-0.048516,-0.071293,0.0058242,0.03303,-0.019908,-0.0075559
0.041642,-0.048751,0.027468,-0.027272,-0.0084991,-0.030718,-0.0012412,0.017096
-0.060695,-0.076329,-0.066908,-0.12883,-0.073027,0.0070517,0.031683,-0.014661
-0.014706,0.067125,-0.020471,0.054173,-0.13191,-0.23636,-0.062277,-0.024845
-0.007971,-0.070924,-0.27058,-0.34394,0.035338,0.27835,0.10732,0.041384
0.014156,0.25234,0.56719,0.46037,0.21188,-0.0032299,-0.029607,-0.010843
-0.057678,-0.22029,-0.30911,-0.045961,-0.030285,-0.0497,-0.097453,-0.048034
-0.0046439,-0.082016,-0.13053,-0.063855,0.028679,0.060787,0.0062824,-0.0068814
0.03273,0.026943,0.10619,0.11901,-0.048482,-0.070459,-0.029822,0.019657
0.015437,0.098995,-0.0026491,-0.22368,-0.10612,0.040522,0.076492,0.032209
0.14658,0.071608,0.20832,0.3525,0.18261,-0.036421,0.02124,0.038926
-0.16768,-0.12585,-0.10477,-0.21672,0.0035783,0.065527,0.039023,-0.022701
0.025649,0.045085,0.19717,-0.05075,-0.090152,-0.075679,-0.034548,-0.028022
-0.0078744,0.075805,-0.028979,0.067046,-0.17795,-0.084948,0.0028371,-0.0010756
0.020863,-0.065832,-0.33304,0.064805,0.19266,0.12399,-0.014021,0.0027295
-0.04417,-0.20099,-0.20999,-0.2378,-0.056404,-0.026505,0.015235,0.021771
-0.007285,0.21651,0.30678,0.1596,0.036388,-0.043764,-0.043222,-0.0069609
-0.032077,-0.048162,-0.073051,-0.20274,-0.12958,0.088191,-0.010315,-0.044646
0.15536,0.090779,0.32991,0.12217,0.11852,-0.036782,0.0044868,0.018155
-0.014927,0.039754,0.016204,0.026614,-0.0076585,0.049905,-0.014015,-0.013527
-0.097425,-0.18512,-0.35667,0.12114,0.078089,-0.050566,0.052201,0.024902
-0.021843,-0.028363,-0.13854,0.16396,0.12555,0.05196,-0.022382,0.0090451
0.055341,0.081321,0.32107,-0.27509,-0.24086,-0.11166,-0.017975,0.017572
-0.014713,-0.034695,-0.0070158,0.0059851,0.040699,0.059965,0.003739,-0.035079
0.095585,0.09329,0.10569,0.036975,-0.030285,0.059198,0.058834,0.015295
-0.11437,0.044088,-0.26116,0.019661,0.061712,-0.097813,-0.0089198,-0.011114
-0.035812,-0.1195,0.010519,0.07817,0.0045913,0.02723,0.011048,0.0025302
0.080683,0.00085758,-0.032205,-0.41269,-0.19299,-0.080397,0.032163,0.047887
-0.0075547,0.045269,0.14909,0.32104,0.040349,0.041015,-0.11038,-0.04753
-0.011839,-0.033925,0.037361,-0.08685,0.15875,0.063744,-0.042244,-0.010893
-0.0027254,0.051413,0.0055236,0.07576,0.0769,0.034515,0.04855,0.0088404
0.011871,-0.012117,-0.081658,0.067642,-0.033277,-0.00057318,0.021088,-0.035578
0.055443,0.0091484,0.046876,-0.079496,-0.063032,-0.027216,0.0002578,0.043149
-0.098356,-0.096122,0.037691,-0.076788,-0.044808,-0.00018604,0.048564,0.018434
0.011783,0.15644,0.03044,0.24683,-0.011387,0.11011,0.056686,0.031031
-0.0042677,-0.13125,-0.17783,-0.22705,0.043469,-0.25235,-0.16282,-0.082858
-0.0052997,-0.013248,-0.1483,0.24249,0.071568,0.099207,0.038555,-0.010363
0.087419,0.0033554,0.066537,-0.14239,-0.091961,-0.0070779,0.035882,0.053649
-0.030217,-0.026163,0.1021,-0.24922,-0.025394,-0.054822,-0.0066354,-0.0075182
0.048557,0.093771,0.015481,0.16463,0.029628,0.12918,0.059666,0.0332
-0.11333,0.073902,0.40212,0.061245,0.050819,0.015335,-0.022689,-0.026842
-0.031155,0.007335,-0.30768,-0.10463,-0.069645,-0.097831,-0.081378,-0.0466
0.068724,0.018112,-0.083146,0.04368,-0.056654,0.0020116,-0.0065053,0.028939
0.0066944,-0.25416,-0.26944,0.038778,-0.0024794,0.018899,0.038382,0.0046513
-0.037673,0.14285,0.46745,0.037568,0.17983,0.054713,-0.032257,-0.033516
0.11499,-0.0021414,-0.02292,0.14144,0.029703,0.031067,0.078609,0.054858
-0.059262,-0.063908,-0.21094,-0.26773,-0.17191,-0.091835,-0.02763,-0.01971
-0.037636,0.0051974,0.08213,0.27736,0.18351,0.083443,0.023495,0.015606
0.038556,0.13603,-0.12035,-0.20919,-0.18648,-0.10038,-0.026653,0.0038341
-0.065697,-0.17008,-0.020765,0.036993,0.052859,0.058971,0.047507,0.0067513
0.024106,0.11155,0.10101,-0.14095,-0.013529,-0.032744,-0.004969,0.00032636
0.034219,0.052162,0.098159,0.10868,-0.042481,-0.070935,-0.09104,-0.062666
0.011413,-0.058683,-0.15288,-0.041474,0.067429,0.069658,0.015542,0.013055
-0.012968,0.044633,0.20819,0.0035134,-0.074174,0.01452,-0.021009,0.0012165
-0.08555,-0.16179,-0.3341,-0.10676,0.0097629,-0.032684,0.057713,0.019563
0.051846,0.11811,0.3524,0.37849,0.1323,0.11598,-0.0051886,-0.009325
0.063709,-0.077638,-0.1555,-0.048357,0.067367,-0.031427,0.025719,0.02464
0.020808,0.077968,0.03893,-0.2315,-0.13784,-0.060843,-0.04387,-0.010765
-0.068587,0.03702,0.10592,0.21872,-0.0144,0.027563,-0.00224,-0.0057992
0.038155,0.064328,-0.12759,-0.33168,-0.242,-0.063359,-0.0052092,0.016205
-0.072615,-0.20775,-0.17764,0.12408,0.30428,0.009847,0.056631,0.02386
-0.033368,0.11139,0.16723,0.19472,0.10868,0.051616,0.026697,-0.022207
0.031096,0.030001,0.01777,-0.065202,-0.11801,-0.0085639,-0.033107,-0.028629
0.04263,-0.23234,-0.25699,-0.17869,-0.032147,-0.014596,-0.01412,0.012051
0.063417,0.20819,0.18079,-0.20746,-0.1963,-0.013499,-0.049819,-0.0097898
-0.024351,-0.069304,0.043451,0.31038,0.15518,-0.0054287,-0.0078855,-0.0083229
-0.080916,-0.0094388,0.089332,0.0709,0.077051,0.0094342,0.017678,-0.0069655
0.025567,0.11459,0.060118,0.15266,0.038133,0.11685,0.03467,0.017819
0.10671,0.13066,0.10285,-0.014659,-0.12558,-0.073909,-0.0036238,0.050522
-0.025564,-0.14159,-0.15937,-0.26729,0.06248,-0.031567,0.020238,-0.025971
-0.043285,-0.17175,-0.26745,-0.082193,-0.0070793,-0.0058622,-0.0028592,0.0070917
-0.16482,0.11754,0.058608,0.048183,-0.0061586,-0.011905,-0.018018,-0.030048
0.032524,-0.047592,0.037191,-0.0402,-0.11445,-0.033327,0.0061407,-0.020327
0.11236,0.067242,-0.0029378,0.23111,0.13682,0.086977,-0.00065506,0.036111
-0.0023373,-0.0062002,0.15061,0.034546,-0.0023033,-0.079875,-0.077506,-0.02493
0.032998,-0.017038,0.070056,-0.12926,-0.039617,-0.033318,0.056731,0.023006
0.023386,-0.0032718,-0.031681,-0.0097295,0.0014289,0.18775,0.065955,0.015795
-0.039214,-0.0264,-0.19201,-0.0048808,-0.0042333,-0.09667,-0.042219,-0.015328
0.00074441,-0.077915,-0.19895,-0.1302,0.00578,0.018904,-0.010185,-0.031267
0.040732,0.25644,0.55713,0.20785,0.086017,0.0412,0.013455,0.054
-0.068645,-0.13311,-0.23686,-0.046037,-0.052712,-0.085656,-0.041701,-0.048472
-0.0077479,-0.021011,-0.10569,-0.18192,-0.14486,-0.050214,0.043125,0.013022
0.020099,0.10693,0.15968,0.24419,0.12208,0.076512,-0.02879,-0.011383
-0.047267,-0.094704,0.010224,0.14493,0.052857,0.044299,0.0084343,0.019042
-0.060617,-0.057174,-0.1967,-0.082559,-0.063346,-0.10751,-0.016758,0.018418
0.074847,0.0073238,0.11545,-0.19697,0.0079616,0.02804,0.028766,0.0023717
0.055467,-0.042555,-0.10891,-0.12045,-0.045666,-0.10278,-0.018797,-0.013517
0.077316,0.16031,0.067668,-0.07136,0.025715,0.24324,0.082887,0.0019345
-0.046809,0.17904,0.30999,0.24029,0.065652,-0.058067,-0.072425,-0.029474
-0.098385,-0.43045,-0.48204,0.0344,-0.082457,-0.07648,-0.055184,-0.037496
9.7495e-06,0.18517,0.25601,-0.023901,0.0028017,0.0084421,0.0093431,0.024682
0.044222,0.004525,-0.04405,0.28488,0.11001,-0.069181,0.05049,0.071056
0.0096589,-0.14998,-0.25524,-0.35922,-0.04247,0.1276,0.060057,-6.2258e-06
0.028074,0.16097,0.2489,0.075137,0.021809,0.027798,-0.0091806,0.0067497
-0.018477,0.016777,0.23471,0.048906,-0.079721,-0.0020549,-0.016819,-0.02587
-0.020914,-0.027417,-0.26676,-0.023621,0.020803,-0.063943,-0.080066,-0.050904
-0.010229,0.020172,0.0012362,-0.048127,-0.081816,-0.072013,0.0044264,-0.013456
-0.0090562,0.041151,0.10726,-0.17997,0.0043073,-0.041606,-0.051966,-0.0069706
-0.016161,0.049354,-0.099197,-0.12125,-0.071175,-0.026839,0.087257,0.062651
-0.092584,-0.16821,-0.026388,0.5195,0.30981,0.22297,0.039835,-0.0074228
0.24748,-0.12135,0.01943,-0.1324,-0.11023,-0.088495,-0.0063309,0.032965
-0.080793,0.21172,0.23273,0.0086002,0.019956,0.10938,-0.012029,-0.034974
-0.03772,-0.076361,-0.30054,0.05857,-0.011457,-0.074103,-0.0086365,0.015089
-0.0061482,0.11544,-0.024829,-0.11693,-0.057278,-0.053423,0.011293,0.0030858
-0.1352,-0.080007,0.061384,-0.074324,-0.03289,-0.047955,-0.077749,-0.071421
0.23794,-0.013744,0.1396,0.059923,-0.033162,0.06661,0.090893,0.080233
