-0.097335,0.028912,-0.014151,-0.015386,-0.0058907,0.030237,-0.031131,-0.459
0.039418,-0.11801,-0.030911,-0.018007,0.00082766,-0.009546,0.032204,0.29189
-0.059085,0.14096,0.05004,0.024666,0.030928,0.030123,0.049344,-0.4219
0.10769,0.47437,0.097641,-0.0038397,-0.0090276,0.047877,0.18356,0.088624
0.040329,-0.6601,-0.16722,-0.032322,0.0062262,0.066971,0.089569,-0.041572
-0.065395,0.46019,0.07006,0.033843,-0.0091018,-0.11628,0.062276,0.27589
0.087644,-0.31836,0.061154,0.015635,-0.0081527,0.15355,0.084198,-0.066131
0.062002,0.54464,0.080452,0.030566,0.040139,-0.24946,-0.5801,-0.019131
-0.056417,-0.16945,0.010894,-0.015193,-0.044235,-0.021428,-0.11777,0.15208
-0.11914,-0.21906,-0.0622,0.026355,0.05084,0.2512,0.55132,0.088177
-0.063448,-0.21447,-0.16341,-0.056411,-0.018751,-0.095744,-0.35836,0.0074313
0.0095452,-0.02364,0.010582,-0.029868,-0.050132,-0.0072123,0.0327,-0.48148
0.14727,0.27483,0.20066,0.081909,0.066007,0.080065,0.29935,0.30041
-0.024811,-0.053792,-0.094204,-0.041779,-0.052998,-0.22345,-0.34382,-0.59299
-0.092517,0.068096,-0.015286,-0.041616,-0.016176,0.013146,0.21447,0.19652
0.099962,-0.3528,-0.023771,0.020159,0.028508,0.13474,0.0051028,0.29192
-0.05003,0.45498,-0.057092,-0.020026,0.0034262,0.017143,0.11909,0.29148
0.11988,0.012023,0.11938,0.049348,0.03399,0.06692,0.059532,0.24527
0.021688,0.1117,0.060613,0.010049,-0.051446,-0.11464,-0.2654,-0.68027
-0.19042,-0.36674,-0.20975,-0.028228,0.036176,0.018533,0.16169,0.65806
0.15377,0.20656,0.30831,0.067375,0.015368,-0.042592,-0.29713,-0.54035
-0.14975,-0.30282,-0.25252,-0.054942,0.010709,0.13812,0.19077,-0.14353
0.016417,0.25379,0.14658,0.0028017,-0.064255,-0.11251,-0.047456,0.27335
0.052008,-0.24644,-0.24465,-0.04903,-0.014724,-0.045459,0.067797,0.24073
-0.040675,0.051948,0.050147,0.023374,0.018265,0.026234,-0.12393,-0.64506
0.0069517,0.3883,0.32777,0.071138,0.034462,-0.030262,-0.19569,-0.37955
0.15116,-0.4353,-0.25542,-0.03878,0.04163,0.22302,0.74099,0.66651
-0.15208,0.17942,0.1134,-0.032914,-0.06946,-0.22867,-0.52732,-0.0287
-0.049206,-0.13174,-0.0027294,0.042145,0.029638,0.061041,0.026969,0.039529
-0.062811,0.093004,-0.19684,-0.09436,-0.074699,-0.023869,0.10935,0.49484
0.14246,0.1725,0.055342,0.058179,0.03989,-0.0058166,-0.31121,-0.014095
0.15059,-0.0062622,0.028018,0.039424,0.045721,0.12376,0.36488,-0.41404
-0.025861,-0.12025,-0.11423,-0.048583,-0.033457,-0.0957,-0.069353,0.037175
0.031379,0.028038,0.3084,0.06785,0.021219,-0.039276,0.052815,0.11285
-0.10303,0.3477,-0.016988,-0.040965,-0.0091042,0.073801,0.014903,-0.08284
-0.16609,-0.50047,-0.05216,-0.00027388,0.00027619,-0.015093,0.0072897,-0.37033
0.17695,0.18583,0.092459,0.080128,0.048936,-0.010079,0.073531,0.17859
-0.28441,-0.64626,-0.40447,-0.15964,-0.097956,-0.013728,-0.34982,-0.11061
0.053369,0.47607,0.11258,0.022131,0.027957,0.035634,-0.050063,-0.094455
0.13862,0.10506,0.080758,0.070347,0.043614,0.10627,0.28954,0.24903
-0.017424,-0.043053,-0.0076597,-0.03088,-0.066667,-0.16905,-0.41102,0.075476
0.3852,0.02795,0.14455,0.077702,0.064436,-0.071142,0.20627,0.17148
-0.29191,-0.039572,-0.079327,-0.057017,-0.00028629,0.072681,0.19382,-0.44603
-0.00090001,0.24564,0.016453,-0.020832,-0.065138,-0.056883,-0.16366,0.28127
-0.20295,0.059968,-0.10682,-0.024435,0.010891,0.17394,0.38431,0.3512
0.092755,0.18771,0.14488,0.034058,0.032792,0.054869,-0.1883,-0.14974
0.016894,-0.51669,-0.0016153,0.014384,-0.014911,-0.28887,0.20707,-0.18539
0.12161,0.060215,0.07905,0.026276,0.031804,0.12679,-0.53785,0.18547
0.099713,-0.42683,-0.40954,-0.054949,0.0086614,0.19178,0.44514,-0.11047
-0.11334,0.015538,0.095651,0.020959,0.0012786,-0.094816,0.017766,-0.5106
0.051539,0.44557,0.13416,0.019791,0.024961,0.0083368,-0.40897,0.27075
-0.28862,0.10282,-0.012536,-0.066191,-0.092374,-0.093054,-0.15548,-0.23398
0.062364,0.31315,0.38199,0.067678,0.0086305,-0.18812,0.054356,0.27714
0.043658,-0.53581,-0.32346,-0.031843,-0.015586,0.1142,0.10804,0.17095
-0.038085,0.035565,0.003018,0.033477,-0.0084333,0.064644,0.24542,0.18209
-0.0092943,-0.42514,-0.17088,-0.064776,0.038281,0.054675,0.22932,-0.50287
0.19343,0.44739,0.036722,0.024617,0.0389,0.0067795,-0.31178,0.081306
0.15587,0.43023,0.1877,0.043478,0.048192,0.10866,0.10009,0.060601
0.033071,-0.16996,-0.03846,-0.00072012,-0.051189,-0.16339,-0.066929,0.37796
-0.23147,0.2966,0.014788,-0.0066684,-0.017417,0.05718,0.091337,0.11436
0.016616,-0.56655,-0.011208,0.0098938,0.024049,-0.081978,-0.037177,-0.06455
-0.17708,-0.25571,-0.060704,-0.083785,-0.075662,0.035623,0.14675,-0.26617
-0.13318,-0.08504,-0.14811,0.0094038,0.019091,0.026782,-0.49874,-0.22879
0.26634,0.12605,0.23551,0.071069,0.03477,0.032157,0.21417,-0.46897
-0.039349,0.060147,-0.15905,-0.070274,-0.028533,-0.16655,-0.26748,0.24213
-0.055979,0.59619,0.051218,0.015385,-0.0065143,0.02517,0.20738,0.50317
0.0073897,-0.26971,0.17828,0.062573,0.054257,0.076917,-0.022648,-0.085755
0.32385,-0.057996,-0.013502,0.047795,0.013449,-0.018402,0.34112,0.14567
-0.1844,-0.20446,-0.27596,-0.10733,-0.042773,0.24743,0.24425,0.0069266
0.068067,0.10378,0.1779,0.026495,0.010729,-0.14903,-0.36168,-0.22613
0.03342,0.51476,0.041473,-0.0042484,-0.021304,-0.16128,-0.19854,-0.05389
-0.1643,-0.50337,0.10249,0.018884,0.040816,0.1007,-0.036064,0.2628
-0.095878,0.1119,-0.2098,-0.021413,-0.045125,0.003423,0.22299,-0.2499
-0.011064,-0.36493,-0.14478,-0.031289,-0.0057255,-0.070914,0.0045856,0.081437
-0.049537,-0.1347,0.064806,0.005183,-0.0050901,-0.068042,-0.31096,0.062869
0.00093166,0.68082,0.13226,0.03374,0.042663,0.26964,0.39268,-0.045616
0.12582,-0.086879,0.036804,0.000145,0.059328,0.0046143,0.13198,0.15039
0.14583,-0.64608,-0.086274,0.021956,-0.10365,-0.26141,-0.66875,-0.50727
0.10714,0.37132,0.13985,-0.017799,0.014525,0.12808,0.4003,0.15373
0.00016448,0.25289,-0.11987,-0.0019046,0.0074538,-0.1079,0.046358,0.53442
-0.28703,-0.34925,-0.084342,-0.032065,-0.039062,-0.047215,-0.6564,-0.56401
0.11778,0.58187,0.20631,0.071146,0.10926,0.25561,0.62316,0.051382
-0.05334,0.022819,0.0081745,-0.012884,-0.00071602,0.089666,0.45706,0.44108
-0.090788,-0.20602,0.092684,-0.018799,-0.048604,-0.10756,-0.13095,-0.38151
0.020998,-0.14197,-0.42486,-0.10303,-0.088897,-0.14078,-0.086985,0.27593
-0.16992,-0.51465,0.086898,0.054673,0.04276,-0.10363,-0.58426,0.057704
0.25265,-0.096714,0.025507,0.01682,0.018589,0.051009,0.094695,-0.51825
0.18973,0.49149,0.046903,0.080359,0.049857,0.081306,0.08968,-0.052711
0.011078,0.34359,0.23713,0.034429,0.011791,0.09695,0.048814,0.53159
-0.24217,-0.20284,-0.13001,-0.13653,-0.087733,-0.17537,-0.33269,-0.20536
-0.13115,0.018009,-0.085294,0.0050235,0.040217,0.28761,0.75737,-0.025464
-0.0069172,-0.28257,0.12181,0.013826,0.0047013,-0.20989,-0.41633,0.18311
0.26301,-0.12252,0.023171,0.053985,0.016207,-0.059147,0.17586,-0.28109
0.099495,0.23452,-0.27886,-0.093214,-0.042963,0.20794,0.2975,0.33362
-0.05362,0.48209,0.26352,0.13474,0.10797,0.036265,0.17326,0.24063
-0.11984,-0.11162,-0.23926,-0.11375,-0.11729,-0.3711,-0.77596,-0.70442
-0.12408,-0.4451,0.11218,0.051837,-0.0079721,0.0096988,-0.18254,-0.018687
-0.059641,0.24589,0.14664,0.021961,0.03754,0.24196,-0.13825,0.25965
0.072844,-0.28211,-0.19051,-0.062965,-0.019574,-0.087401,0.24271,0.063391
0.093435,-0.10698,-0.087465,-0.015675,0.024189,0.32722,0.68989,-0.040254
0.072439,0.50062,0.36049,0.10111,0.03644,-0.32609,-0.77146,-0.045864
0.05681,-0.0080295,-0.20047,-0.040925,-0.021498,-0.062883,0.70202,0.028259
0.030989,0.024794,0.031659,-0.012184,-0.039978,-0.063374,-0.40048,-0.25924
-0.22371,-0.72463,0.062086,-0.015796,-0.011073,0.093179,0.18127,0.3438
-0.019651,0.17991,-0.0252,-0.059461,0.0026669,0.23329,0.21405,0.13438
-0.01281,0.53496,0.10499,0.099232,0.079172,-0.012052,0.050848,0.10304
0.02383,-0.35551,-0.22622,0.023096,0.022857,0.027317,-0.33616,-0.088941
0.12994,-0.29849,-0.26633,-0.084366,-0.10404,-0.25129,-0.3541,-0.27265
0.11871,0.79495,0.34791,0.12882,0.128,0.15975,0.28953,-0.051883
-0.20445,-0.028074,-0.16792,-0.16503,-0.15597,-0.33233,-0.43675,0.033506
0.043941,-0.043181,-0.035785,0.011027,-0.026012,0.20421,-0.022396,-0.33593
0.012943,0.20692,0.56051,0.11828,0.096443,-0.063808,0.29417,0.33422
-0.20318,-0.95354,-0.42383,-0.10087,-0.077143,-0.14909,0.40608,0.2969
0.16156,0.13644,0.11287,0.072373,0.14119,0.49762,0.17197,-0.44513
-0.088013,-0.2199,-0.081228,-0.073075,-0.052969,-0.028601,-0.14014,0.54739
0.22765,0.70425,0.0061374,0.056185,-0.019024,-0.1965,-0.22815,-0.16276
0.069123,0.058871,0.089448,0.07684,0.055216,0.11761,-0.07562,-0.20977
-0.18127,-0.20865,0.031512,-0.082005,-0.065175,-0.29167,0.018373,-0.096415
-0.023935,-0.057446,-0.077673,-0.053723,-0.029318,0.072917,-0.12925,0.12679
-0.10746,-0.18972,-0.24848,-0.0028308,0.037101,0.052464,0.29914,0.09665
0.22463,0.59731,0.19771,0.039141,-0.053991,0.074599,0.40478,0.26299
-0.12862,-0.26044,0.026866,0.064293,0.13454,0.26322,-0.8482,-0.47012
-0.1274,-0.14052,-0.22049,-0.07572,-0.084913,-0.41289,0.031817,0.029502
0.041396,-0.038172,0.20765,0.017775,0.022217,-0.030625,-0.10821,0.090927
0.034106,0.035771,-0.1399,-0.037709,-0.0045498,0.068378,0.15184,-0.43195
0.2328,-0.014964,0.30862,0.070693,-0.023912,0.058634,0.55383,0.49531
-0.067364,-0.0046086,0.32729,0.077722,-0.050705,-0.27603,-0.4496,0.0323
0.045097,0.16756,-0.51365,-0.12568,0.064274,0.56635,0.51454,0.33815
-0.19856,-0.26407,-0.23819,-0.10177,-0.069017,-0.42118,-0.57384,-0.66332
0.1673,0.19334,0.25454,0.1027,0.10437,0.42506,0.61402,0.63026
-0.20363,-0.2872,-0.27029,-0.035773,-0.0094384,-0.30271,-0.90029,-0.68764
0.0465,0.55352,0.46851,0.20132,0.057778,0.057311,0.27808,0.0067816
-0.012131,-0.30636,-0.2006,-0.16302,-0.038534,0.36205,0.64472,0.32891
0.074877,0.24428,-0.042547,0.0034393,-0.088353,-0.71082,-0.25762,0.13595
0.099131,-0.4254,0.029475,0.0047839,0.0012389,0.095307,-0.088163,-0.027388
-0.13123,0.30408,0.32893,0.074904,0.03435,0.10049,-0.2543,-0.10835
-0.057614,-0.53351,-0.50263,-0.10676,-0.01269,0.0084032,-0.23169,-0.045749
-0.059038,0.32226,0.15282,0.030185,-0.022562,0.085626,-0.048955,-0.051049
0.10992,0.18629,-0.040002,-0.013838,0.044226,0.083108,0.33663,-0.0848
0.14682,-0.025501,-0.025995,-0.050619,0.0008098,0.14212,0.50685,0.13543
0.029327,0.23478,0.2496,0.11603,0.11354,0.34105,-0.19956,0.072251
-0.070764,-0.30626,-0.0729,-0.044279,-0.11688,-0.73411,-0.32039,-0.23349
0.025212,-0.1495,0.16213,0.047306,-0.033557,-0.075425,0.17522,0.15716
-0.3797,-0.26546,-0.56185,-0.10098,-0.050072,0.075318,-0.12851,0.13566
0.2048,0.73406,0.37913,0.096877,0.076041,0.10167,0.1566,-0.0323
0.073703,-0.46637,-0.016016,-0.031297,0.0088671,0.14515,0.067154,-0.12075
0.17071,0.23158,-0.19365,-0.048612,0.0372,0.058125,-0.10173,0.16622
-0.16952,-0.065858,0.079638,-0.018397,-0.050445,-0.13561,-0.31945,-0.078519
-0.026027,-0.0020292,0.14674,0.097498,0.034241,-0.01441,-0.15576,-0.12882
0.02249,0.29624,0.13202,0.056046,0.04042,0.11623,0.28928,-0.0077401
-0.05551,-0.21066,0.082093,-0.002751,-0.00923,0.20824,0.61914,-0.042116
0.0054579,-0.27181,-0.35429,-0.18855,-0.099616,-0.35687,-0.73485,0.13725
0.025578,-0.30676,-0.1293,0.022179,-0.020006,-0.11919,0.28285,0.056167
0.051488,0.17215,-0.10848,-0.026362,0.018797,0.076964,0.16416,-0.18157
0.012463,0.3326,0.31174,0.064911,0.0015676,0.044117,-0.34228,0.2303
0.048567,0.59178,0.039682,0.10916,0.085078,0.18904,0.13625,-0.33277
0.018593,-0.47793,0.15508,-0.041571,-0.01925,-0.12805,0.15177,0.1674
-0.2185,-0.41499,-0.21624,-0.012077,-0.014216,0.062509,-0.44679,0.21294
0.055988,0.49068,0.15213,0.033479,0.05342,-0.12911,0.40104,0.0036746
0.11593,-0.48179,-0.13153,-0.014591,-0.011722,0.12579,0.3504,-0.097095
-0.06895,0.10206,-0.10812,-0.094166,-0.061358,-0.016268,-0.80179,0.12561
-0.083178,-0.058224,-0.084585,-0.010232,-0.033121,-0.063078,0.15651,-0.43277
0.17647,0.59614,0.14767,0.026165,0.010467,0.00078718,-0.06185,0.077546
-0.1321,-0.2117,0.32872,0.093265,0.038281,0.034374,0.17817,0.054676
0.00032597,-0.14056,-0.1445,-0.066434,-0.035368,-0.095528,0.1833,-0.07075
0.051181,-0.043311,-0.26487,-0.046254,0.016385,0.18098,0.28313,0.2734
0.05195,0.033597,0.23357,0.13082,0.092261,-0.058368,-0.39667,0.065847
0.064679,-0.11851,-0.27279,-0.0817,-0.049732,-0.10298,0.034565,-0.16013
-0.20075,-0.34724,0.022982,0.019573,-0.034515,0.015638,-0.19689,-0.035742
0.097959,0.83694,0.11581,-0.002766,0.012886,0.047288,0.17436,0.057246
-0.072071,-0.51354,-0.1088,-0.078483,-0.040454,0.015327,-0.054704,0.025703
0.092334,0.34864,0.24967,0.049988,0.016244,0.13854,-0.039743,0.057513
0.035305,-0.52582,0.020442,0.061952,0.049979,-0.098547,0.071787,-0.13601
-0.040718,0.27118,-0.04657,-0.035254,-0.048824,-0.2503,-0.054917,-0.0465
-0.17491,0.067292,-0.11662,0.015692,0.024316,0.15244,0.22173,-0.14198
0.11753,-0.11692,0.20678,0.050297,0.034822,0.10235,-0.37125,0.078372
0.071853,0.21366,-0.37555,-0.11141,-0.04093,-0.11109,0.25183,0.2168
-0.045217,0.17008,0.13422,-0.00077646,-0.023405,0.043663,-0.027276,0.062678
-0.021604,-0.20713,0.023433,-0.016144,0.032601,0.20729,0.1803,0.029854
0.034292,-0.16555,-0.068315,-0.02448,-0.052659,-0.22192,-0.15105,-0.2496
0.045024,0.22888,0.31179,0.1229,0.041109,-0.11148,-0.093853,0.11379
-0.075037,-0.45432,-0.21868,-0.02695,0.017044,0.19448,0.20158,0.0093305
0.04906,0.044635,0.059957,0.088534,0.047065,-0.10128,-0.58624,-0.31432
-0.043973,0.16748,-0.13218,-0.06976,-0.048436,0.14163,0.47983,0.22758
-0.1125,0.021374,0.0034052,-0.087846,-0.050575,-0.14723,0.15803,-0.037884
0.21,0.065214,0.10902,0.0577,0.05647,0.09469,-0.15999,0.27124
0.02447,0.22567,0.19401,-0.0079814,-0.039545,-0.10118,-0.24633,-0.11136
-0.23214,-0.38488,-0.41228,-0.097081,-0.057093,-0.086202,0.072208,-0.053354
0.16638,0.3125,0.1502,0.11115,0.097827,0.13201,0.35135,0.077932
-0.076933,0.15252,0.053425,0.0077864,0.034753,0.1473,-0.25987,-0.31094
0.077124,-0.35973,-0.070411,-0.039621,-0.043151,0.037754,0.12927,0.093322
-0.081992,-0.047952,0.097765,0.039384,0.012461,-0.25924,-0.17684,0.010751
0.016602,0.014331,0.048412,0.0025052,-0.056417,-0.087567,0.086936,0.29449
0.022012,0.15289,0.021759,0.021261,0.054664,0.334,0.33426,-0.15531
-0.010397,-0.047453,-0.12468,-0.037686,-0.045151,-0.22881,-0.38808,-0.071373
0.091849,-0.086574,-0.017301,-0.026474,0.018959,0.0054649,-0.25938,-0.077273
-0.084863,-0.30717,-0.10212,-0.0081128,-0.010925,0.084014,0.010232,0.24219
0.037834,0.21407,0.22257,0.056114,0.029219,-0.086642,0.37499,-0.12002
-0.024449,0.42367,-0.026643,-0.02924,-0.0012261,0.15771,0.28135,0.070872
-0.17829,-0.14654,-0.31696,-0.068788,-0.047543,-0.1439,-0.20729,-0.19296
0.1381,0.057808,0.22063,0.070519,0.069984,0.188,-0.20757,-0.02919
0.017358,-0.0033523,0.13476,0.037443,-0.02363,-0.14387,-0.031862,0.084576
0.036087,-0.13601,-0.057569,-0.034863,-0.039329,-0.11654,0.022679,0.013876
0.067505,-0.052221,0.20694,0.064838,0.038495,0.07421,-0.13054,0.08458
-0.054246,-0.315,-0.28248,-0.077293,-0.016739,0.013888,0.085587,-0.018508
0.052214,-0.03353,-0.14345,-0.031424,0.013707,0.15533,0.49004,0.21743
-0.043466,0.16795,-0.072148,-0.02406,-0.0029703,-0.0094355,-0.34063,-0.092856
0.12009,0.68888,0.35993,0.10883,0.019198,-0.10535,0.27953,-0.099336
-0.33041,-0.11047,0.1358,-0.023483,-0.06817,-0.12437,-0.6352,-0.31783
-0.10311,-0.47954,-0.27715,-0.030589,0.024056,-0.034813,-0.054355,0.010782
0.055485,-0.082131,-0.03639,0.0091265,0.038138,0.30446,0.74846,0.29544
0.25826,0.019305,0.12286,0.040691,0.02101,-0.192,-0.55435,0.00063752
0.10954,0.22324,-0.14352,-0.045519,-0.050722,-0.016078,0.22578,-0.03393
-0.068947,0.10015,0.10218,0.00034578,-0.012969,0.0041558,0.043364,-0.039429
0.011601,-0.18562,0.087244,0.014213,0.040541,0.14971,-0.053177,0.079937
-0.11948,-0.20395,-0.29661,-0.03502,0.00046111,0.11548,0.054787,-0.034714
-0.020051,0.30336,0.18624,0.01699,-0.015974,-0.28652,-0.17064,-0.048592
0.06388,-0.061873,0.068209,-0.0012657,-0.0086986,0.052809,-0.16628,0.020113
0.081704,0.090916,-0.13426,0.019964,-0.0167,-0.069638,0.14609,0.1054
-0.055479,-0.16067,0.17292,0.018485,0.030397,0.057516,0.2033,0.094156
-0.17746,-0.013001,-0.080734,-0.044588,-0.0080075,0.028795,0.066502,-0.2278
0.12973,-0.053578,-0.036406,0.0026352,0.00085933,-0.014236,-0.11772,0.090619
-0.077768,0.24685,0.13326,0.035004,0.010008,0.030852,0.086181,-0.091597
-0.0082426,-0.28581,-0.20525,-0.033695,0.0036338,0.00055628,0.02818,-0.023028
0.060386,0.36976,0.16644,0.046191,0.01277,0.027762,-0.30808,-0.13041
0.12364,-0.053724,-0.048448,0.00089038,-0.017479,-0.11457,-0.17222,0.074516
-0.089221,-0.041356,-0.15401,-0.052658,-0.032576,0.049122,0.21075,0.056652
-0.092232,-0.061375,0.069467,-0.013,-0.0091441,0.056583,0.093182,0.092618
0.052311,-0.46344,-0.064414,0.026172,0.060674,0.24233,0.32936,0.18412
0.093252,0.26337,0.17179,0.010365,-0.010488,-0.31673,-0.35952,0.010738
0.051798,0.12296,-0.026231,-0.028899,-0.034932,-0.15257,-0.2452,-0.33563
0.050156,-0.068236,0.0052882,-0.0054112,-0.0046363,0.14099,0.45417,0.079379
-0.13316,0.21657,0.16381,0.057581,0.041525,0.10362,-0.08235,0.080221
-0.13304,0.1983,-0.16929,0.019517,-0.005691,-0.052549,-0.14555,-0.055303
-0.0050997,-0.56761,-0.18309,-0.064988,-0.013411,-0.005718,0.1371,0.13907
-0.0068267,0.40271,0.17576,0.038275,0.026175,-0.019996,-0.057478,-0.19706
0.097644,0.13124,0.13309,0.0087951,-0.027608,0.038666,0.19009,0.046299
0.091783,-0.32139,-0.10019,-0.020773,0.0048626,-0.00087232,-0.41884,-0.20689
-0.14703,-0.25387,-0.3046,-0.050495,-0.017104,-0.029122,0.16192,0.31995
-0.0074597,0.1448,0.12266,-0.010031,-0.01544,0.047167,-0.035925,-0.31509
0.16779,0.02193,0.0736,0.022581,0.048863,0.10982,0.20782,0.14881
-0.097954,-0.021915,0.072787,0.031787,-0.027397,-0.18618,-0.26883,0.33069
0.13155,0.20748,0.089516,0.025384,0.0056659,-0.0061775,0.051913,-0.21439
-0.075538,0.16966,0.06111,0.0032299,0.015082,0.12533,0.10936,0.15298
0.059492,0.058231,0.010223,0.0041311,0.00066746,-0.19858,0.076395,-0.13994
-0.16106,-0.191,-0.064221,0.035602,0.040373,0.1703,0.062467,-0.14321
-0.1217,-0.29805,-0.31943,-0.13697,-0.069041,-0.033462,-0.081731,-0.10221
0.216,0.23663,0.080048,0.025386,-0.030716,-0.11407,-0.2796,0.19128
0.0088393,-0.23475,0.0093005,0.038427,0.053894,0.17129,0.32643,-0.014508
-0.0306,0.078502,0.023626,-0.019396,-0.010299,-0.036127,-0.11682,0.19383
-0.11089,-0.12607,0.1551,0.024256,-0.004253,-0.071755,-0.1339,-0.27698
-0.018448,0.083492,-0.072122,-0.017615,0.0020269,0.11946,0.31391,-0.019247
0.038143,0.59949,0.084453,0.01949,0.00098372,-0.048205,-0.31976,0.14885
0.060507,-0.19453,0.23403,0.042108,0.024025,-0.019889,0.075711,-0.0045515
0.21328,-0.26763,-0.15521,0.019095,0.024315,-0.014185,0.18173,0.10121
-0.082193,-0.16001,-0.41213,-0.080873,-0.037284,-0.077769,-0.22641,-0.27382
-0.046119,0.29867,0.040717,-0.047076,-0.035926,0.039579,0.01699,0.12206
-0.15701,-0.080478,0.038876,-0.028269,-0.0265,0.0020872,0.022338,0.01639
0.059752,-0.2515,0.18382,0.076731,0.045471,0.036341,0.094574,0.034364
0.047967,0.2229,0.51479,0.19721,0.10948,0.12651,0.24875,0.13635
-0.1228,-0.12554,-0.39746,-0.15939,-0.092428,-0.095023,-0.24292,-0.23354
0.024087,0.0088651,-0.41173,-0.09496,-0.052548,-0.082014,-0.01479,0.032397
0.06757,0.32268,0.17584,0.046571,0.057212,0.22737,0.072342,-0.020865
0.055781,-0.15158,0.014461,-0.039529,-0.052187,-0.27683,-0.27158,0.057853
-0.080213,0.0090649,0.10483,0.092152,0.033382,-0.024658,-0.07817,0.047982
0.15295,-0.03826,0.11925,0.0043171,0.032739,0.1322,0.32466,-0.044218
-0.1346,-0.10541,-0.082879,-0.021538,0.00062108,0.029825,-0.20317,-0.16524
-0.098956,0.018937,0.013662,-0.024232,-0.031705,0.0044197,0.29988,0.34044
0.16574,-0.055747,0.064371,0.043314,0.021681,-0.037437,-0.079936,-0.20701
-0.044511,-0.16574,-0.25981,-0.060935,-0.026751,-0.048583,-0.037963,-0.041505
0.050359,0.37559,0.11053,0.04593,0.0026685,0.064937,-0.027691,0.25218
-0.066522,0.10584,-0.083152,-0.06573,-0.015049,0.01418,0.0050906,-0.12101
0.033451,-0.023772,0.22123,0.08847,0.037337,-0.0054623,0.013179,-0.13522
-0.056676,-0.28875,-0.17957,-0.046173,-0.011951,0.013928,-0.042431,-0.12363
0.014468,0.41071,0.1678,0.014699,0.0090953,-0.075889,-0.13776,-0.0053474
0.059735,-0.6842,-0.0095984,0.044525,0.014706,0.045728,0.048477,0.32353
-0.17007,0.41095,-0.10164,-0.058205,-0.033993,-0.050463,0.12681,0.051983
0.11521,-0.14636,-0.068317,-0.019941,-0.0039909,-0.012407,-0.018905,-0.19464
0.057308,0.13822,0.13831,0.018857,0.0033289,0.066557,0.0025005,-0.042272
-0.053782,0.032984,-0.097927,-0.027571,-0.027532,-0.071188,-0.020082,0.26487
0.024649,-0.19382,-0.096595,0.028405,0.051894,0.1211,0.092033,-0.18232
-0.012047,0.061375,0.18168,0.022737,-0.00067533,0.010131,-0.1707,-0.22301
-0.0080602,0.049507,-0.10716,-0.036914,-0.037039,-0.12366,-0.021401,0.069379
0.067069,0.19214,0.10623,0.067877,0.075263,0.093767,0.26427,0.23912
-0.021987,-0.043474,0.20314,0.016349,-0.015744,0.098976,0.16114,0.10481
-0.11205,-0.11277,-0.099455,-0.06699,-0.06046,-0.2728,-0.41755,-0.13101
0.069704,0.10666,-0.27202,-0.018495,-0.012318,0.095296,0.067763,-0.092739
-0.0081742,-0.059304,0.020143,-0.010291,0.02696,0.01587,-0.19355,-0.23173
-0.0016767,-0.1902,0.026531,0.0044755,-0.0051154,-0.080911,-0.081256,0.16558
0.14454,0.088629,0.11463,0.072888,0.040057,0.18067,0.52557,0.094406
-0.26396,-0.20659,-0.034883,-0.054672,-0.024747,-0.050175,-0.11938,0.010687
0.00030627,-0.12937,-0.11591,-0.026172,-0.011695,0.016283,-0.060064,-0.16165
0.070811,0.49333,0.083982,0.0025915,-0.0063893,-0.12732,-0.31835,0.13292
0.14309,0.22466,0.2614,0.10228,0.061778,0.19888,0.45714,0.43288
0.044921,-0.20116,-0.11405,-0.015969,-0.025716,-0.16143,-0.0089976,-0.46676
-0.10738,-0.13658,-0.27635,-0.086524,-0.057792,-0.044465,-0.3453,-0.060973
0.075605,0.22973,0.11036,0.015485,0.020288,0.12753,0.20145,-0.024823
-0.15739,-0.14215,0.061301,0.024199,0.020984,0.010395,-0.0064915,0.13872
0.020764,-0.23657,0.013414,-0.021594,-0.016771,-0.083747,0.041956,0.099268
0.0080555,-0.075779,0.083325,0.01847,0.039632,0.055789,0.11688,0.043134
