0.0028371,0.023602,-0.02612,0.0047054,0.011586,0.047499,0.043649,0.026115
0.028893,-0.036255,-0.056557,-0.054596,-0.023912,-0.050405,-0.10052,-0.0011505
-0.014691,0.045697,0.085643,0.095159,0.0036845,0.015746,-0.040179,-0.035226
0.020088,0.019133,-0.037129,-0.023283,0.01587,-0.0046074,0.19908,0.0325
-0.00014895,-0.053953,-0.0656,-0.10532,0.012195,0.005236,-0.064626,-0.025375
0.0021315,-0.010094,0.023578,0.02138,0.039068,0.021528,-0.012801,0.016981
-0.020424,0.0016941,0.0037636,0.006063,-0.060171,-0.080788,-0.17769,-0.059644
-0.013374,0.027835,0.054533,0.052761,0.03452,0.057891,0.24551,0.041526
-0.00010088,0.044644,-0.035239,-0.040932,-0.036308,0.00054252,-0.14035,0.00045668
-0.034923,-0.11194,-0.070545,-0.095021,-0.077189,-0.041249,-0.2236,-0.072885
0.031209,0.058306,0.05756,0.23403,0.11536,0.034768,0.30339,0.087888
0.027149,-0.0066946,0.10638,0.093978,-0.020684,0.041679,-0.025103,0.0069796
-0.030784,-0.07207,-0.080849,-0.23486,-0.062934,-0.15297,-0.15974,-0.057202
0.045431,0.097031,0.081455,0.14509,0.10623,0.13834,0.13523,0.044086
-0.0095891,-0.01466,-0.14117,-0.2041,-0.02856,0.048089,0.21133,0.045169
-0.024042,0.0071058,-0.021874,-0.039993,-0.029704,-0.080618,-0.34713,-0.077771
0.009528,0.068601,0.049434,0.099335,0.032391,0.040426,0.20691,0.03402
0.0046299,-0.080247,0.042532,-0.026687,-0.03779,-0.034982,-0.11476,-0.0029934
0.015321,0.021434,-0.0023363,0.20884,0.01732,-0.034153,0.043185,-0.0019749
-0.013663,-0.024756,-0.13096,-0.28607,-0.013433,0.026831,0.12249,-0.010261
-0.028039,-0.03895,0.071448,0.060102,0.010437,-0.00054226,0.011389,-0.012385
-0.0045372,0.0025695,0.066013,0.12264,-0.0048607,0.0090471,-0.1736,0.015269
0.0022468,-0.017134,0.031944,-0.06798,-0.03585,-0.021872,-0.14999,-0.028382
0.0082486,-0.058957,0.01503,0.048987,0.019113,-0.014306,0.054011,-0.0020248
0.052978,0.087695,0.021581,0.37731,0.089791,0.087364,0.0052318,0.063843
-0.050582,0.13295,-0.14534,-0.55448,-0.11285,-0.098828,0.083539,-0.033232
-0.005143,0.0912,0.06754,0.032437,0.083041,0.083999,0.16844,-0.027165
0.048937,-0.10928,-0.161,0.073899,0.0054857,-0.012251,0.0054706,0.082207
-0.060143,-0.094753,0.14537,-0.0088141,-0.087827,-0.020372,-0.18501,-0.064649
0.011233,-0.053483,0.010536,0.081718,0.052974,-0.050019,0.057584,0.0083799
0.012757,-0.12609,-0.080055,-0.19986,-0.10348,0.015478,-0.03455,-0.043102
0.037759,0.12578,0.16412,0.21897,0.059925,0.027015,0.0037484,0.053616
-0.00014248,0.14115,-0.0052787,0.1766,0.15249,0.062004,0.12907,0.032247
-0.0075654,-0.054647,-0.15697,-0.30118,-0.099251,0.018242,0.21987,0.048578
-0.055022,-0.069127,0.022915,0.037572,5.1506e-05,-0.1438,-0.50873,-0.10067
-0.025306,-0.04926,0.035313,0.037877,-0.049483,0.044427,-0.043421,-0.087185
0.034945,0.0057635,-0.080315,-0.12009,-0.028865,-0.018552,0.19322,0.073946
0.016754,0.27571,0.12112,0.16491,0.12476,0.066064,0.0068188,0.008454
-0.0091091,0.095963,-0.0096459,-0.10824,-0.11944,-0.029303,0.055958,-0.0016464
-0.010985,-0.29216,0.041677,0.050976,-0.026663,-0.030607,0.02354,-0.018266
0.089526,-0.10048,0.07816,0.42965,0.18463,0.062696,-0.086861,0.083845
-0.019971,-0.0091885,-0.23775,-0.48975,-0.1495,-0.053726,0.071914,-0.031415
-0.066094,0.012922,0.053559,-0.1227,0.033296,0.065542,-0.036381,0.026042
-0.0021278,0.13034,0.045032,0.19414,0.15452,-0.024992,0.10581,-0.017985
0.038912,0.015558,-0.021304,-0.046872,-0.21608,-0.052317,-0.26623,0.062309
-0.075981,-0.22937,-0.019999,0.022347,0.014572,0.053282,0.30825,-0.06954
0.035847,0.24711,0.0029831,-0.12808,0.041142,-0.036985,-0.25009,-0.11678
0.022698,-0.0010216,0.017527,0.1752,0.011538,0.012206,0.056702,0.014683
0.025063,0.032637,0.071602,0.1912,0.11294,0.075402,0.085228,-0.010412
0.011545,0.064886,-0.076159,-0.18095,-0.045308,-0.035102,-0.16768,0.12126
-0.049268,-0.16418,0.04339,-0.027152,-0.087946,-0.10827,0.068175,-0.050559
0.022153,-0.00011584,0.023927,-0.082339,-0.12379,0.043776,0.3211,0.068187
-0.024304,-0.11587,-0.041291,-0.066258,0.10574,0.046673,-0.098585,0.10231
-0.016805,0.011845,0.011031,0.17611,0.078028,-0.028527,-0.090305,-0.11289
0.021269,0.055776,-0.069983,0.049786,0.051603,0.0063998,-0.09108,-0.070517
0.066633,0.23634,0.082045,0.28814,-0.059016,0.019205,-0.22389,0.040997
-0.083605,-0.24115,-0.1038,-0.75784,-0.15217,-0.044494,0.014534,-0.044658
0.023957,0.039628,0.13781,0.40398,0.17031,0.073119,0.050016,0.0081958
-0.0010177,0.049478,-0.052489,-0.038431,0.0093922,0.012397,0.26135,0.020101
-0.0098431,-0.085116,-0.033757,-0.068562,-0.018492,-0.024003,0.088881,-0.0082792
-0.010164,0.01942,-0.016365,0.10371,0.015556,-0.052245,-0.083294,0.0021104
0.044944,0.15213,0.039484,0.041868,-0.13129,-0.010328,-0.060357,0.044447
-0.016473,-0.09395,0.056481,-0.089329,0.0015272,-0.0079889,-0.00065675,0.0023745
0.0085049,-0.048147,-0.073932,0.015118,0.070216,0.01707,-0.040164,-0.037664
0.041464,0.20999,0.070871,0.28485,0.075041,0.080423,0.32545,-0.0052737
-0.097604,-0.25837,-0.10223,-0.38977,-0.085056,-0.10695,-0.61779,-0.01799
-0.018375,-0.11835,0.055648,0.084744,0.028074,0.072242,0.37033,0.040675
0.03674,0.106,0.0056875,0.0052151,-0.02239,0.0087179,-0.21078,-0.002052
0.059803,0.2114,0.060331,0.24689,0.053244,-0.00053481,-0.0087193,0.18106
0.058625,0.03394,-0.21833,-0.33814,-0.010159,-0.0022588,0.18935,-0.19972
-0.09948,-0.24632,0.075143,-0.022635,-0.10292,-0.035336,0.13595,-0.011862
-0.031447,0.027283,0.087935,0.061117,0.064072,-0.044841,-0.2524,-0.083305
-0.0025465,0.0035396,-0.040951,-0.14153,-0.040647,0.00074981,-0.0049792,-0.015014
0.0032448,0.12012,0.20227,0.38434,0.058977,0.046994,0.19953,0.10007
0.033163,-0.005813,-0.1139,-0.019051,0.026249,0.015906,-0.18579,0.043968
0.0093133,-0.046394,0.032619,0.16956,0.016501,-0.022229,0.056765,-0.011009
-0.0057752,-0.06451,-0.08538,-0.17721,-0.025887,0.041739,-0.074524,-0.025811
0.042392,0.048791,-0.20189,-0.31134,-0.015743,0.074627,0.52779,0.30378
-0.0028092,0.027561,0.090782,0.063084,-0.00036295,-0.080236,-0.29411,-0.26519
-0.016835,0.043584,-0.017558,0.032391,-0.042209,-0.05601,-0.31437,-0.038168
-0.054788,-0.082587,0.13996,0.043719,-0.054823,-0.055977,0.022175,-0.10159
0.00025379,-0.0065894,0.12083,-0.04841,0.048649,0.068373,-0.095311,-0.03365
0.023247,0.030357,-0.080387,0.15016,0.081837,0.020446,0.16376,0.13481
-0.016881,-0.079915,-0.071493,-0.11495,-0.071327,-0.011872,-0.01831,-0.0095582
0.0052042,0.031056,-0.0081216,0.072988,0.058793,-0.0047774,0.39178,0.10431
0.043021,0.13782,0.13281,0.2545,0.011758,0.065396,-0.31608,-0.069871
-0.035903,-0.11044,-0.20462,-0.3751,-0.040514,-0.059142,-0.095774,-0.00062002
0.018629,0.0051897,-0.030145,-0.036042,-0.028098,0.027684,0.21451,0.015045
0.034755,0.015494,-0.041487,0.15183,0.095171,0.06775,0.080165,0.062638
-0.050185,-0.096282,0.2587,-0.041482,-0.14815,-0.1424,0.0052494,-0.045852
0.005717,0.082262,0.039696,0.10688,0.069152,0.037601,-0.16981,-0.08425
0.030276,0.12727,0.018039,0.046666,0.066629,0.021758,-0.13466,0.017661
-0.0080143,0.036737,0.028228,0.15822,-0.0078304,-0.017929,-0.085114,-0.013309
-0.062419,-0.19882,-0.35977,-0.45808,-0.17012,-0.034298,0.1363,-0.082891
0.0076914,0.028941,0.026838,-0.05968,0.10321,0.051135,0.0087909,0.059514
0.014939,-0.092656,0.041697,0.089542,0.046752,0.019929,-0.01895,0.16434
0.014196,0.015243,0.031454,0.047019,-0.02664,-0.018386,0.19707,-0.041789
0.052511,0.11975,0.053917,0.18303,0.055299,0.01425,-0.13742,-0.04368
-0.034077,-0.019361,-0.013212,-0.10121,-0.074276,0.00034725,0.09616,-0.014093
-0.0033786,-0.017225,0.14429,0.18835,-0.024494,-0.044952,0.069657,0.030175
-0.019542,0.018572,0.058133,-0.15068,-0.021792,-0.036282,-0.33534,-0.083957
0.034486,0.02677,-0.10066,0.068853,0.12135,0.17426,0.65263,0.15819
-0.052366,-0.031158,-0.076108,-0.11513,-0.040433,-0.10898,-0.59359,-0.11884
0.024507,0.0086767,-0.10492,0.10064,0.047517,0.020161,-0.1226,-0.055473
-0.0083338,-0.018552,0.16219,-0.19122,-0.12255,-0.055192,0.25215,0.03663
0.01326,0.034451,0.075011,0.17284,0.098076,0.0328,0.0072501,-0.0052356
0.01914,-0.028887,-0.27362,-0.16623,-0.024491,-0.043056,-0.02048,0.023671
-0.021727,0.0012415,0.10068,0.081762,-0.036396,-0.039543,-0.15778,-0.023534
0.015901,-0.016586,-0.066945,-0.019085,-0.014912,0.075505,0.2531,0.018395
-0.031812,0.026643,0.084165,-0.013986,-0.084241,0.013606,-0.0054051,0.032863
0.015008,-0.025243,0.063187,0.012341,0.084265,0.048291,0.059501,0.17603
-0.023223,-0.093706,0.10562,0.13058,0.045331,0.038495,-0.16164,-0.19343
0.025367,0.087451,-0.10821,0.011899,0.071823,-0.086988,0.025786,0.0092876
-0.0034085,-0.012498,0.031192,-0.072039,-0.032743,-0.024635,0.019056,-0.053019
0.077713,0.23956,-0.038979,0.18086,0.13629,0.04467,-0.15193,-0.037788
-0.090963,-0.29704,-0.10051,-0.44332,-0.2822,-0.10664,0.11304,0.054073
-0.0097806,0.057061,0.033578,0.083827,-0.008451,0.059841,0.16442,0.026702
0.016263,0.082535,0.02697,0.36161,0.15965,0.012641,-0.22517,0.004905
0.033826,0.036599,0.043624,-0.0018289,-0.075054,-0.021498,-0.0014073,0.051291
-0.0040607,-0.081197,-0.080374,-0.38155,-0.048063,0.059494,0.023297,-0.01348
-0.058291,-0.13818,0.11626,0.090795,0.046348,0.037596,0.34954,-0.04044
0.058792,0.17061,0.024594,0.034569,0.022077,-0.023859,-0.02159,0.06483
-0.043205,-0.083905,-0.12837,0.030692,-0.0022257,-0.10841,-0.53388,-0.13442
-0.0046611,-0.0023753,-0.045408,-0.11323,0.0059468,-0.019986,-0.099607,-0.067099
0.02619,0.056796,0.039236,0.11316,0.00057168,0.085749,0.35336,0.13464
0.041648,0.071032,0.15669,0.33657,0.091379,0.029466,0.076468,0.080615
0.0026606,-0.021593,-0.07628,-0.13758,0.0048134,0.029991,0.054863,-0.010271
-0.043983,-0.11153,-0.074468,-0.41897,-0.22836,-0.045695,-0.039744,-0.060118
-0.028108,-0.0037262,0.0049197,0.14749,0.094275,-0.02616,0.01811,-0.038227
0.034516,0.10581,0.12956,0.1773,-0.051486,-0.052634,-0.21091,0.0077338
-0.020287,-0.08866,-0.1313,-0.14394,0.10706,0.053903,0.12259,0.0065401
-0.020712,-0.018119,0.041798,0.080339,0.061506,0.05063,0.063385,0.0198
0.048844,0.073855,-0.047028,-0.026352,-0.04015,-0.031722,-0.11664,0.015519
0.00088985,0.05317,0.070855,0.081908,-0.065285,0.009647,0.081764,0.0088384
0.0073329,0.067321,0.11457,-0.040431,-0.052881,-0.028478,-0.052132,0.0074271
0.0057343,-0.11063,-0.23531,-0.025636,0.13806,-0.0053001,-0.17349,-0.090038
-0.019429,-0.081895,0.10064,0.057272,-0.030895,0.040527,0.24283,0.08424
-0.036749,-0.056273,-0.10254,-0.27423,-0.10578,-0.054475,-0.051171,-0.078216
0.0086736,0.038334,0.078694,0.067907,0.00021551,-0.016221,0.00099314,0.0095803
0.031141,0.094706,0.059893,0.21843,0.14727,0.062118,0.0021539,0.05958
-0.031629,-0.056924,-0.032874,-0.094764,-0.039073,-0.006584,-0.00036136,-0.036804
-0.0076254,-0.016485,0.027429,0.08187,-0.11338,-0.050394,-0.038264,0.01771
0.064082,0.13089,-0.087529,-0.049223,0.033392,0.039759,0.1059,0.043367
-0.043243,-0.052492,0.097983,-0.013162,0.087933,0.036672,-0.030687,-0.046307
0.021637,0.02595,-0.034535,0.078305,0.010002,0.0097853,-0.020463,-0.01003
0.039554,0.028404,0.021177,0.074153,0.024801,0.020674,-0.052863,0.065158
-0.036783,-0.062937,-0.041086,-0.25444,-0.11115,-0.095501,0.08167,-0.017138
-0.027994,-8.4312e-05,0.035271,0.052008,0.046503,0.0045657,-0.19554,-0.070269
-0.012327,-0.065709,-0.047338,-0.014648,-0.010459,-0.015054,0.33467,0.022503
-0.028746,-0.033803,-0.039009,-0.039491,-0.10209,-0.028885,-0.33426,-0.043483
0.040222,0.064759,0.084199,0.21372,0.085042,0.073301,0.073005,0.029141
0.015285,0.0045751,0.010754,-0.049405,0.067976,0.019131,0.01172,0.038099
0.0062152,-0.072105,-0.12533,-0.26377,-0.096921,-0.0028204,0.046334,-0.007762
0.028935,0.078591,0.0052478,0.080626,0.021666,0.00053186,0.037595,0.033221
-0.033607,0.043961,0.11428,0.13352,0.010954,-0.0171,0.032929,-0.033393
-0.001764,0.043506,0.014654,0.2232,0.027891,-0.047699,0.047642,-0.0039002
0.0070876,-0.0165,0.049907,-0.17474,-0.029093,0.033552,-0.12242,-0.018708
-0.015141,-0.05857,-0.10096,-0.10127,0.042413,0.030822,0.10727,0.007959
-0.021872,-0.060367,0.029792,0.0428,0.053627,0.052727,-0.022466,0.013087
0.033518,0.10965,0.097397,0.16927,-0.043929,-0.11255,-0.16105,0.003694
-0.0053918,-0.088736,-0.24269,-0.30947,-0.1347,-0.012734,-0.027588,-0.029004
0.0019632,0.023341,0.056033,0.019984,0.084646,0.062379,-0.012395,0.015545
0.00094323,-0.015409,0.032738,0.15804,0.04293,0.034175,0.15875,0.019261
0.015131,-0.0095594,0.039482,-0.097056,-0.025719,-0.066308,0.025876,0.20809
-0.025569,0.010133,-0.055854,0.006679,-0.058443,-0.0046187,-0.082082,-0.33225
-0.027152,0.028756,0.044254,-0.052123,-0.023151,0.016449,0.046213,-0.023368
0.041879,0.054877,0.12927,0.25164,0.12815,0.036481,0.12938,0.15887
-0.0057769,-0.090544,-0.20703,-0.20621,-0.079965,-0.029835,-0.067538,-0.034503
-0.0059486,0.053881,0.10532,0.011616,0.0018849,-0.02562,-0.13919,-0.016421
0.025737,0.019627,0.15166,0.25544,0.09301,0.049664,0.038523,0.026629
-0.020208,-0.044829,-0.24835,-0.26581,-0.072103,-0.037984,-0.082009,0.02501
-0.0033627,0.001063,0.053205,0.10173,0.021867,0.039711,0.13945,0.0023765
-0.0021071,0.00093737,0.01707,0.035583,0.022758,-0.068899,-0.070551,0.028779
-0.0088854,-0.029676,-0.051849,-0.10643,-0.085768,0.04994,0.014818,-0.068314
0.022966,-0.0048943,0.034543,-0.11392,0.062832,0.036377,0.044451,0.030529
-0.00043041,0.012748,-0.058846,-0.017571,-0.0084177,-0.00076933,0.050091,-0.034979
0.0068488,0.038828,0.13765,0.16856,-0.049624,-0.046412,-0.10065,0.039085
-0.033218,0.026368,-0.00017914,0.09517,-0.00589,-0.030658,0.053454,-0.09933
0.01239,-0.00917,-0.042087,-0.063292,0.060726,0.030644,-0.034344,0.065232
-0.020115,-0.04456,0.0043588,-0.08564,-0.060167,-0.050008,-0.059378,0.0094567
0.017991,0.04499,0.021942,0.069147,0.045998,0.07916,0.071953,0.0071105
0.017566,-0.068804,-0.059888,-0.089907,0.043624,0.020085,0.023475,0.019565
0.0021731,-0.0032056,-0.014929,0.05471,0.0031322,-0.03926,-0.041028,-0.0074242
-0.020395,0.0074128,-0.038923,-0.067899,-0.052153,-0.012439,0.034432,-0.010967
0.012197,0.049034,0.039534,0.119,0.033749,-0.00054031,-0.0081236,0.0014346
-0.0018972,0.020128,0.071477,0.14468,-0.067612,0.0046354,0.042242,-0.0012392
0.0072942,-0.024647,0.0016247,-0.2275,0.010667,0.0033505,-0.064248,-0.018823
-0.015246,-0.061972,-0.037851,0.039364,0.018411,-0.027733,-0.0537,-0.012141
0.016177,0.064197,0.093038,0.045079,0.018071,0.051929,0.027655,0.018862
-0.01572,-0.044832,-0.15311,-0.22708,-0.076235,-0.02355,0.024286,-0.0039454
-0.0014751,0.071644,0.035863,0.16002,0.094983,0.011047,-0.00066044,0.020913
0.012298,-0.00057372,-0.011947,-0.02769,0.063097,-0.0010268,-0.0077053,0.007328
-0.013066,-0.027059,0.031855,0.077739,-0.12492,-0.0055918,0.073538,0.0019338
-0.022419,-0.070009,0.011585,-0.030498,0.015376,-0.0030792,-0.015052,-0.018986
0.015909,0.082084,0.013964,0.12518,0.0387,0.0062302,-0.02412,-0.0088253
0.00064448,-0.038731,0.00082493,-0.14965,-0.039312,-0.01681,-0.0092083,0.0087631
0.033431,0.0059431,-0.026952,0.16135,0.015703,-0.0095761,-0.033717,-0.013225
0.0047326,-0.025258,-0.045188,-0.30846,-0.046297,-0.0030227,0.018763,-0.0045122
-0.0077025,-0.038051,0.0090988,0.1132,0.055853,0.011066,-0.0085397,0.0036945
0.0034187,0.076981,0.057906,0.14537,0.02514,0.04093,0.024794,0.027112
-0.024956,-0.008858,-0.016246,-0.14148,-0.013611,-0.022438,-0.013929,0.003346
-0.015172,0.023538,-0.0031226,0.026098,-0.0058915,0.016523,0.016293,-0.01282
-0.014401,-0.0072199,0.018126,-0.00048074,0.016926,-0.04522,-0.032437,-0.0056885
0.024155,0.045397,-0.00055781,0.067548,-0.046733,0.0032116,0.012331,0.0013591
0.030329,0.062478,0.080333,0.13607,-0.032668,0.013182,-0.0051583,0.0083709
-0.018996,-0.089895,-0.11501,-0.22491,0.043786,0.023463,0.032602,-0.015851
-0.021829,-0.068101,-0.071263,-0.0076937,0.0033329,-0.01316,-0.014919,-0.016559
0.037913,0.011702,0.14942,0.17072,0.026085,0.020174,0.039649,0.029747
-0.01123,-0.12962,-0.10042,-0.24384,-0.043846,-0.040856,-0.030545,-0.0018833
-0.012694,0.06547,0.032221,0.069679,0.028133,0.0067241,-0.030547,-0.0098616
-0.013183,0.014075,-0.013457,0.096439,0.023291,-0.0011626,0.015887,0.013615
0.026379,0.11718,-0.048383,-0.1083,-0.058567,-0.0019036,0.0070105,0.0060028
-0.0035241,-0.022155,0.05356,0.018048,0.032166,0.012525,-0.018106,-0.0093242
-0.0094097,0.025772,-0.019752,0.037463,-0.025352,-0.012301,-0.004572,-0.0089936
0.016186,0.01729,0.090538,0.10502,0.065164,0.025447,0.0010981,-0.0086765
0.010392,0.043418,0.10961,0.26597,-0.024967,0.024434,0.061844,0.022863
-0.027113,-0.063333,-0.20675,-0.43457,-0.038358,-0.054239,-0.056285,-0.015917
-0.0028028,-0.032932,0.037619,0.033202,0.016955,-0.0073512,-0.017035,2.6535e-05
0.0051172,0.022561,0.051562,-0.042454,-0.015253,0.016688,0.023481,0.00042926
-0.0032859,-0.10141,0.028944,-0.028657,0.013717,0.033476,0.018307,0.00094774
-0.0043808,-0.045377,-0.15574,0.059876,0.010572,-0.019558,-0.0016065,0.025018
0.0021042,0.012473,-0.025365,0.02935,-0.031937,-0.033148,0.017964,-0.021149
0.016457,0.01218,0.046587,0.14716,0.035191,0.047258,-0.0094703,0.010811
-0.015764,0.050461,-0.015836,-0.13196,-0.0063276,-0.051938,-0.029753,-0.019809
0.022785,0.16131,0.16475,0.22442,-0.031212,0.012828,-0.0042375,0.011914
0.014963,-0.036077,-0.07356,-0.35349,0.077782,0.04604,-0.019094,0.012185
-0.023658,-0.032971,0.028558,0.087252,-0.070144,-0.030637,0.027218,-0.026814
-0.03071,-0.048289,-0.04385,0.03021,0.032466,0.016974,0.0020478,-0.003484
0.0014457,-0.0049763,-0.0097681,-0.033747,-0.021099,-0.0065812,0.022882,0.011919
0.010129,-0.037447,0.028225,0.16721,0.034322,-0.0076047,-0.0036695,-0.0039804
0.049864,0.10258,0.021704,0.014264,-0.0047681,0.021786,-0.014746,0.034797
-0.020093,-0.078522,-0.077979,-0.095501,-0.076067,-0.051022,-0.017856,-0.012365
-0.020123,-0.058261,-0.0068593,-0.13162,0.047009,-0.0069714,0.0028451,-0.028303
-0.0049122,0.022437,0.18691,0.1637,0.052194,0.021485,0.016227,0.010376
-0.01346,0.0075892,-0.22391,-0.14617,-0.083545,0.011246,0.037943,0.0020657
0.024664,0.061921,0.026266,0.049774,0.054343,0.017239,-0.041423,0.0014294
-0.0075836,-0.016877,0.023961,0.01931,-0.025855,0.0083072,-0.0031981,0.0084832
0.0071239,0.014114,0.035828,0.038188,-0.019099,0.0078211,0.0041056,-0.0079583
0.022018,0.03036,-0.0072106,0.030331,0.027886,-0.023476,-0.0039346,0.014717
-0.033158,-0.077399,-0.025847,-0.088795,-0.0099968,-0.023346,-0.011704,-0.032718
0.0056546,0.034368,0.074563,-0.060903,0.062231,0.00014199,0.0042502,0.013954
-0.0022199,0.013636,-0.041458,0.10561,-0.029367,0.007729,0.020509,-0.009199
-0.0021757,-0.03078,-0.0067545,0.0029337,0.02716,0.03056,-0.0098103,-0.00055416
0.029135,0.049056,0.061015,0.2303,-0.010824,-0.079819,-0.0008245,0.024222
-0.017738,-0.044043,-0.08893,-0.15241,-0.12011,0.051648,0.023928,-0.013155
-0.0022067,-0.02106,0.050309,-0.2336,0.01185,0.042238,0.0018149,0.01986
-0.0023843,0.032293,0.032544,0.27402,0.080708,-0.014195,-0.028229,0.0057508
-0.018211,-0.078873,-0.16636,-0.28658,0.0088531,-0.00035564,-0.0037956,-0.0089296
0.0050931,0.044369,0.078129,0.069327,-0.046907,-0.025498,0.012584,-0.024421
0.020751,0.019609,-0.015432,0.014942,0.070133,0.0042696,-0.033746,-0.001754
-0.0024172,0.042339,0.068574,0.028792,-0.038231,-0.051509,0.013529,0.0044743
0.005914,0.042139,0.080286,0.21457,-0.0048535,0.041715,-0.0095882,-0.0054766
-0.01681,-0.043862,-0.089422,-0.23054,0.0058931,-0.0049802,0.045355,-0.0077909
0.0074185,-0.013061,0.09105,0.28062,-0.0065001,0.027217,0.014244,0.021383
0.0081311,-0.076906,-0.19813,-0.38429,0.01206,0.021067,-0.0092814,0.0042813
-0.0070173,0.045521,0.035852,0.11037,0.0063361,-0.0079745,-0.0019053,0.011447
0.00091688,0.018253,0.059369,0.076164,-0.0006138,-0.044545,-0.026199,-0.0039346
-0.0071741,-0.017774,-0.056464,0.043053,-0.040158,0.012619,-0.027434,-0.010726
0.015634,0.03181,0.14222,0.07218,0.036325,0.014808,0.010194,-0.0013625
-0.024266,-0.0275,-0.078386,-0.10321,-0.044144,-0.022547,0.0088642,0.0082122
-0.0016631,-0.0073747,0.024188,-0.14784,0.015949,0.02547,0.023625,0.0020536
0.013368,0.022539,-0.057911,0.063212,-0.0014622,-0.036425,-0.038944,-0.027909
-0.010219,-0.093691,0.042123,-0.016497,0.013558,0.018442,0.032292,0.0041059
0.013631,0.050033,-0.059206,-0.011196,0.0066166,0.0027265,0.002961,-0.011324
0.006786,0.093673,-0.011257,0.017417,-0.03016,0.0025132,0.0056519,0.019601
-0.0074605,-0.018552,0.1224,0.18708,0.10592,0.025715,0.0086994,0.026681
0.0096984,0.040165,-0.057748,-0.033348,-0.05462,-0.03701,-0.011861,-0.0055655
0.026698,0.026404,0.080135,-0.011388,-0.0048292,0.040868,0.013758,0.0089485
-0.050514,-0.13877,-0.11307,-0.044552,-0.026764,-0.029783,-0.039846,-0.031192
-0.0034067,0.0054729,-0.0048118,-0.086629,-0.0037903,-0.014663,-0.008801,-0.016473
-0.011751,0.053609,0.045761,0.033861,-0.022008,0.00024627,0.013211,0.014172
0.026089,-0.15695,-0.046566,0.0045017,0.020431,0.022769,-0.0047534,-0.0016539
0.016579,-0.0071188,-0.0072539,-0.041256,0.030469,0.0060995,0.023716,0.022043
-0.0009057,0.11435,-0.0068817,0.022686,-0.014362,-0.026203,-0.018037,-0.0085088
-0.03382,0.044682,0.057359,-0.0054775,-0.042691,0.019758,-0.012353,-0.023108
0.01192,-0.012705,-0.016694,-0.015141,0.008919,-0.012123,0.041088,0.017104
0.011577,0.050627,0.060519,0.088276,0.047343,-0.020175,0.0095826,0.010291
0.012171,0.060738,-0.054798,0.1331,-0.013178,0.034713,0.002408,0.018663
-0.017538,-0.032047,0.035227,-0.23273,0.030167,0.011884,-0.035383,-0.0048928
0.00044964,-0.074386,-0.053167,-0.002576,-0.0030595,-0.026268,-0.0025649,-0.013613
0.0033956,0.025179,0.053884,0.1579,-0.012334,0.013848,0.014597,-0.015236
-0.0012061,-0.031271,-0.090042,-0.088993,0.0012289,-0.00076211,-0.038827,-0.017289
-0.005898,-0.07907,0.076674,0.14576,-0.010211,-0.0077584,0.008917,0.019758
-0.0032148,-0.0065507,-0.063678,-0.38122,-0.062907,-0.01506,0.032834,-0.020722
0.014357,0.041483,0.02786,0.22013,0.02265,0.0085464,0.017398,0.010241
0.0075393,-0.055672,0.078145,0.10615,0.020176,0.0084092,-0.045056,0.0036337
-0.015967,-0.17674,-0.13096,-0.19902,0.024071,0.0080485,0.017497,0.022028
-0.0014647,0.31406,0.018516,0.079181,0.011767,-0.054937,0.0098565,-0.0051658
-0.026952,0.097652,0.074293,0.12183,-0.093963,0.022661,-0.028859,-0.016056
0.048426,0.14972,0.005856,0.008454,0.082634,0.076825,0.041967,0.08227
0.0062255,-0.15752,-0.03,-0.18939,0.0029752,-0.0096284,-0.0042887,0.046735
-0.020395,-0.078183,0.037338,0.037058,0.034384,-0.017959,-0.019284,-0.17809
-0.015468,-0.14816,-0.073325,-0.022576,-0.026455,-0.065349,-0.018751,0.0011106
-0.025572,-0.067058,-0.018392,0.053707,-0.039361,-0.01894,-0.010599,-0.017207
0.035437,0.013459,0.061217,0.14841,-0.0049068,0.035428,0.012902,0.056447
0.011392,0.13065,0.055752,-0.028179,0.0060173,0.027561,0.059507,0.043137
0.0037985,0.034219,-0.097674,-0.14882,0.016377,0.035691,-0.0036303,-0.001539
0.0046571,0.022093,0.022466,-0.019116,-0.013188,-0.03388,-0.05151,0.0014307
-0.017559,0.04946,-0.0059634,0.032015,0.018791,-0.0092957,-0.0059613,-0.025364
0.014971,-0.052831,0.043442,0.035279,0.010844,0.015612,0.00030235,0.020087
