0.0131,0.0089645,-0.0030399,0.037115,-0.037784,-0.00021192,-0.0001213,-0.0092865
-0.0018832,0.003728,-0.038696,-0.099534,-0.034193,-0.026688,0.021995,-0.0023326
0.0061967,0.013995,0.08378,0.14753,0.017124,-0.015029,-0.019517,-0.0037997
-0.0096641,0.00036389,0.019631,0.020646,0.022764,0.0038264,-0.015199,-0.0056936
0.0051871,0.025196,0.033039,-0.050389,0.068954,0.014812,0.011892,0.00015022
-0.050717,-0.13011,-0.1979,0.17686,-0.0003372,-0.036008,-0.023499,-0.0014187
0.033795,0.097389,0.44265,-0.58625,-0.10684,0.016256,0.035796,0.021366
-0.014372,-0.026014,-0.10857,0.33276,-0.039547,-0.015162,-0.043589,-0.024791
0.0004911,-0.13243,-0.59368,0.036099,-0.009476,-0.012596,-0.034196,-0.014599
0.055316,0.13022,0.097649,-0.061786,0.13156,0.10998,0.033278,0.036351
-0.044942,-0.027046,0.037303,0.2421,0.11746,0.016237,-0.013043,-0.012835
0.020143,0.11405,0.25833,-0.19379,-0.18536,-0.13057,-0.0019627,0.0013369
-0.0073154,0.10712,0.30136,-0.28526,-0.16853,0.02779,0.06517,0.023376
-0.04163,-0.1978,-0.0044824,0.34795,0.14334,0.013432,0.30369,0.028929
0.088673,-0.0055201,-0.080722,0.22633,0.19438,0.028215,-0.35092,-0.014126
-0.062227,-0.075376,-0.54467,-0.12176,0.030445,-0.014831,-0.056715,-0.067383
0.028547,0.11505,0.15804,-0.018831,-0.091248,-0.0069614,-0.041404,0.0016544
-0.061446,-0.051701,0.097397,-0.4111,-0.23319,0.0048344,0.11665,-0.0022335
-0.020238,0.08117,-0.054913,0.13975,0.0038332,-0.018074,-0.027068,-0.016064
0.073586,-0.055276,0.083749,0.19106,0.12912,-0.0044368,0.060373,0.062502
0.0087374,0.0097215,0.38807,-0.010763,0.12127,0.023618,0.05318,0.046894
0.050655,0.020743,-0.68943,-0.15581,-0.12683,-0.033982,-0.092948,-0.061961
-0.042798,-0.15259,0.59247,0.042541,-0.034991,-0.003923,-0.070944,-0.013275
0.0021764,-0.031588,-0.20494,0.14358,-0.00017075,0.021198,-0.035294,-0.017435
-0.032448,0.26802,-0.35641,-0.24033,0.071987,0.0029977,0.1398,0.058637
-0.051856,0.0437,0.51189,0.26663,-0.01426,0.027508,-0.132,-0.019468
-6.3937e-05,-0.064308,-0.53043,-0.079456,0.075609,0.039555,0.45242,0.013573
-0.016374,-0.065082,0.74315,-0.22789,-0.027758,-0.024318,-0.46107,-0.053689
-0.021572,-0.28868,-0.13537,0.53432,0.071578,-0.0090856,0.12443,-0.018766
0.18808,0.3329,-0.65654,-0.26025,-0.066215,-0.048807,0.22148,0.10205
-0.0046479,-0.03081,-0.03677,0.187,-0.15378,-0.042961,-0.23485,-0.0043425
-0.014493,-0.061648,0.45324,0.043448,0.05815,0.085904,-0.097418,-0.025892
-0.037969,0.11371,0.09741,-0.4664,-0.031672,-0.045265,-0.01459,-0.048762
-0.068704,0.048883,-0.00060445,-0.41991,-0.10169,-0.030057,-0.063094,-0.018245
-0.029954,-0.33459,0.13681,0.014294,0.099881,0.038226,0.025095,-0.012213
0.022548,0.16678,-0.88121,0.65355,0.23904,0.066432,0.38568,0.086934
0.057008,-0.03983,0.59217,0.2764,0.036143,0.00048337,-0.025354,0.021859
-0.02814,0.0078138,0.20259,-0.13641,-0.14056,-0.034096,-0.25254,-0.06637
0.0019428,0.13925,-0.092667,-0.21539,-0.25944,-0.060351,0.026057,0.017893
-0.047283,-0.034816,0.17118,-0.069667,0.22614,0.070407,-0.01692,0.0092031
0.067259,0.07265,-0.75955,0.29918,-0.012606,-0.04794,0.048237,-0.029906
0.010448,-0.12339,1.0186,-0.37708,-0.031292,0.014324,0.0021737,0.017665
0.017265,0.010631,-0.81592,0.37548,0.044113,-0.031927,0.070396,0.026748
0.041154,0.13171,0.42458,0.086324,0.009635,0.047531,-0.17033,0.01278
-0.1288,-0.32969,-0.75796,-0.79168,-0.11189,0.010273,0.13785,-0.055665
-0.047499,0.0021877,0.68636,0.32881,0.17928,0.0044286,-0.2098,-0.038096
0.09713,0.24515,0.33928,-0.033855,-0.069942,-0.0016011,0.0038099,0.018515
-0.00012793,-0.045875,-0.56917,-0.33736,-0.25765,-0.078467,0.23022,0.020329
0.066397,0.019412,0.40907,0.71792,0.18694,0.062619,0.24142,0.053174
-0.0085424,0.11973,-0.88847,0.44582,0.20183,0.062126,0.020683,0.077839
-0.13166,-0.16055,0.96041,-0.62299,-0.17356,-0.11121,-0.66692,-0.15585
0.032659,0.0048302,-0.099848,-0.022254,-0.009389,-0.0041048,0.15537,0.0081908
-0.0078722,-0.057897,-0.3991,-0.11519,0.014567,0.071216,0.019763,-0.00043161
0.098412,0.21228,0.57622,0.1251,0.046518,-0.080172,0.19352,0.02925
0.0080736,-0.076049,-0.2695,0.1166,0.070563,0.15935,0.17865,0.027101
-0.044021,-0.17277,-0.79679,-0.17457,-0.15569,-0.092613,-0.28066,0.032512
-0.041615,0.087191,0.69728,-0.10084,-0.061956,-0.070054,-0.073299,-0.071252
-0.023061,-0.107,0.033758,0.01854,-0.0074948,0.047625,0.31759,-0.01803
0.051414,0.051276,-0.16874,0.1706,0.14856,-0.012843,-0.037039,0.005228
-0.02071,0.03248,0.13052,-0.13313,-0.0076195,0.13919,-0.37146,0.06931
0.0031388,0.017264,0.24561,0.11141,0.094395,-0.12924,0.45459,-0.036425
0.052721,0.18522,-0.34579,0.16565,-0.13141,-0.052876,-0.24711,-0.015084
-0.028503,-0.19928,0.12249,-0.4288,-0.11498,0.00054079,-0.35256,-0.054508
0.0010112,0.24439,0.08793,0.32139,0.15889,0.022431,0.49637,0.016453
-0.054964,-0.072361,-0.38749,0.017374,0.010101,0.035322,-0.18617,0.063914
0.091581,-0.13643,0.093698,-0.084772,-0.061712,0.17889,0.066863,0.078769
-0.052557,-0.23871,0.053594,0.074787,0.037059,-0.0085995,0.26936,0.059713
0.05088,0.19824,0.46709,-0.038219,0.025309,-0.22292,-0.15055,-0.19743
-0.059472,-0.12971,-0.66769,-0.035958,-0.073047,0.012618,-0.12357,0.088072
0.014876,0.24785,0.6942,-0.076763,0.047449,-0.035604,-0.28266,-0.18517
-0.030204,-0.049441,-0.62075,-0.12267,-0.049757,0.016608,0.45126,0.085318
0.025034,0.098385,0.62861,0.0059127,-0.12156,0.046004,-0.36513,0.010437
0.025614,0.037764,-0.1907,0.32534,0.020208,-0.0081339,0.29445,0.045129
-0.10527,-0.35405,-0.85912,-0.13191,0.21165,0.074363,-0.12929,0.042715
0.031935,0.041703,0.41401,0.15112,0.1164,-0.0026436,-0.11773,-0.065774
0.070707,0.26481,0.021316,-0.19932,-0.086855,-0.020533,0.37046,0.087526
0.050184,-0.2318,0.44115,0.07554,-0.055749,-0.019356,-0.35904,-0.083418
-0.038001,0.19927,0.096523,-0.10179,-0.22143,-0.016403,-0.087948,0.029973
0.039449,0.12653,-0.11389,0.050294,0.047728,0.080063,0.52553,0.082655
-0.062599,-0.20225,-0.16719,-0.046226,0.15727,-0.013172,-0.12331,-0.090925
-0.033046,-0.094144,-0.36111,-0.13362,0.02121,0.014869,-0.06952,0.015679
-0.0058511,-0.098139,0.75683,0.49099,-0.023957,-0.11004,-0.28561,-0.090695
-0.01295,0.20604,-0.39925,-0.27427,-0.039671,-0.12218,0.27226,0.034847
0.008036,-0.049662,-0.48473,-0.062507,-0.11052,0.088711,-0.17889,0.0096437
0.026284,0.21287,0.27541,-0.077042,-0.008531,0.086617,-0.076775,-0.040691
0.081733,0.01011,-0.12491,0.11186,0.30656,0.0060368,0.1346,0.10347
-0.090062,-0.27348,0.22956,0.10607,-0.14097,0.0047508,0.0045817,-0.025728
0.043455,-0.14343,0.50295,-0.10944,-0.053941,0.052591,0.17694,0.08029
0.046062,0.24663,0.029822,-0.002639,-0.057542,-0.04527,-0.22788,-0.054551
-0.13584,-0.17895,-0.71594,-0.072707,0.081968,0.00014131,0.16014,-0.062856
0.029775,0.24577,0.57479,0.22789,0.074596,-0.022636,-0.18039,0.024106
-0.0036746,-0.040964,-0.70283,-0.38183,-0.12759,-0.044019,0.18128,-0.020399
-0.025512,-0.18826,0.51136,0.14464,0.075976,0.0759,-0.059541,0.0065046
0.033689,0.01262,-0.39287,-0.0063015,-0.14367,-0.093104,-0.067818,-0.028279
0.18809,0.55824,0.44464,0.3822,0.080108,-0.020056,-0.079554,0.078072
-0.095447,-0.36807,-0.14568,-0.067288,0.08299,0.076265,0.40322,-0.0028995
-0.029889,0.065509,-0.42623,-0.21678,-0.0099943,0.063182,-0.34817,-0.013744
-0.046753,-0.27708,0.098629,-0.045117,-0.050137,-0.090369,0.0081127,-0.0095372
-0.061382,-0.0069054,0.28351,-0.1475,0.002077,0.092304,-0.084042,-0.076605
0.066373,0.032578,0.70087,0.26488,-0.024661,-0.10754,0.12453,0.065957
-0.0067875,0.093658,-0.52323,-0.15851,-0.0047536,-0.033801,0.24304,0.050701
-0.021723,0.10216,0.04898,0.0063843,-0.00015523,0.14139,-0.25931,-0.036548
0.086075,0.031842,-0.30918,0.10622,0.067671,0.0036572,0.016882,0.054293
-0.0013194,0.012976,-0.33998,0.03477,-0.011991,-0.064493,-0.028604,-0.051462
-0.11744,-0.34029,0.019222,-0.15045,0.065562,0.030503,0.019791,-0.064198
0.036635,0.10839,0.60453,0.20888,-0.20765,-0.21137,-0.094324,-0.053488
0.040416,-0.014276,-0.51402,-0.23778,0.12121,0.15534,0.23172,0.10648
-0.058749,0.22098,0.61543,0.16564,0.098674,0.14658,-0.024937,0.025835
0.058918,-0.047811,-0.4238,-0.066492,-0.16623,-0.12793,-0.2081,-0.013671
0.11068,0.14372,0.8331,0.10279,0.06841,-0.01943,0.18932,0.050629
-0.022851,0.29013,-0.63427,0.038145,-0.072645,-0.058937,-0.10734,-0.047121
-0.17239,-0.69229,-0.47915,-0.22389,0.082304,0.14424,0.040979,-0.049708
0.097066,-0.058246,0.42737,0.064624,-0.0059534,-0.097486,0.038933,-0.043946
-0.01339,0.21262,-0.27631,-0.0038097,0.045258,0.15315,0.17427,0.14103
-0.051831,0.017722,0.52698,0.10179,-0.053236,-0.1276,-0.28034,-0.089543
-0.018454,-0.08722,-0.42611,-0.21941,-0.051484,-0.072864,-0.059321,0.013523
0.12662,0.4083,0.62648,0.27635,0.089653,0.020245,-0.044763,0.074729
-0.11491,-0.7029,-1.0284,-0.22132,-0.01237,0.14379,0.19435,0.039346
0.12643,0.78646,0.67801,0.17275,0.017954,-0.12406,-0.0043578,-0.13121
-0.092147,-0.29159,-0.67826,-0.15636,-0.099875,0.08405,0.095169,-0.045306
-0.049494,-0.082295,0.75889,0.22286,0.049147,-0.005006,-0.12285,-0.0062597
0.068782,0.21335,0.27326,-0.039878,0.012907,-0.086135,0.022149,0.049972
-0.048723,-0.85686,-0.54885,-0.28001,-0.074876,0.083304,0.022654,0.038838
0.059041,0.5114,0.11901,0.10379,0.020768,-0.12126,-0.12946,-0.030925
0.055237,0.56659,-0.015341,0.063646,0.042123,0.097389,0.11184,0.07528
0.024021,0.04846,0.45065,0.23073,0.066802,-0.034073,-0.08276,-0.049377
-0.1151,-0.49128,-0.94744,-0.31115,-0.0078788,0.038913,0.097819,0.015673
0.05717,-0.24309,0.21743,0.10755,-0.019433,-0.035633,-0.043159,0.16708
-0.047424,-0.15474,0.1,0.0079454,-0.00088131,0.093204,0.11027,-0.21427
-0.016541,0.60033,0.20756,-0.096258,-0.039788,-0.020645,0.080747,-0.012838
-0.061954,-0.17374,-0.022253,0.098341,-0.0044921,-0.018509,-0.35073,-0.096913
0.14461,0.070361,0.1609,0.067875,0.026445,-0.080554,0.13657,0.1035
0.018299,0.17764,-0.078786,0.023809,-0.016905,-0.019405,-0.08918,0.088892
-0.087516,-0.22509,-0.27281,-0.25116,-0.094346,0.016765,-0.011008,-0.02242
0.0012829,-0.41702,0.14843,0.049845,-0.0011029,0.020746,0.28658,0.0055267
-0.080187,0.35382,0.07453,0.015344,0.12403,0.087092,-0.21865,-0.098966
0.091928,0.15138,0.23863,0.101,-0.0063905,-0.095858,-0.0025126,0.05634
-0.11387,-0.47693,-0.8527,-0.13648,0.038443,0.14449,0.6618,-0.027318
0.20128,0.34329,0.28376,0.14775,-0.030136,-0.12888,-0.81185,0.0022923
0.06029,0.2587,0.60799,0.11768,0.0062743,0.052973,0.10733,0.090489
-0.030394,0.21208,-0.38064,-0.14977,0.0060856,-0.083493,-0.03437,-0.0055635
-0.072639,-0.31496,0.33332,0.015144,-0.086743,-0.04649,-0.065641,-0.083917
-0.068438,-0.13705,0.10977,0.070768,0.070075,0.11646,0.36449,0.13519
-0.089837,-0.35658,-0.64358,-0.063592,-0.08728,-0.001753,-0.080563,-0.14662
0.0025785,0.066342,-0.072749,-0.24157,0.01833,0.035408,0.020326,-0.024417
0.0754,0.1888,0.0051512,0.26216,0.081669,0.047288,-0.060196,0.047832
0.0035867,0.12354,-0.015776,-0.24797,-0.077037,-0.1466,0.013116,0.0073068
0.12344,0.13966,0.52378,0.25212,0.081614,0.00012287,-0.15859,-0.020749
0.037136,-0.2289,0.16486,0.12319,0.0036338,0.073362,0.16686,0.11283
-0.059249,-0.16068,-0.19358,-0.21889,0.0024997,-0.067075,-0.17412,-0.03619
-0.055442,0.60143,-0.2087,0.11071,-0.04563,0.017181,0.0068158,-0.091543
-0.067582,-0.35908,-0.093375,-0.27672,-0.15516,-0.047701,0.14042,-0.020701
-0.071025,-0.23336,0.11107,0.15172,0.16725,0.16144,0.079311,-0.017863
0.19335,0.53705,0.43398,0.31131,0.07094,-0.033861,-0.081906,0.19901
-0.085704,-0.20753,-0.56309,-0.27385,-0.1389,-0.070148,-0.045833,-0.11191
-0.00091572,0.37468,-0.067429,0.021328,0.014269,-0.024954,0.054884,0.041462
0.065453,-1.0132,-0.046539,-0.21769,-0.05605,-0.062195,0.087294,0.017936
-0.097617,0.052893,0.040421,0.22684,0.26625,0.16156,-0.31615,-0.18338
0.0012626,-0.01735,0.24972,0.095682,-0.012406,0.028401,0.19564,0.10829
0.12624,0.53802,-0.17579,-0.1285,-0.20601,-0.11898,-0.026333,0.032396
0.064396,0.12096,0.87254,0.13056,0.027891,0.022887,-0.076408,-0.021544
-0.13178,0.20231,-0.56835,-0.19138,-0.061542,-0.008125,0.14638,-0.015402
-0.058114,0.071478,-0.2985,0.10732,0.0019558,0.060426,0.2196,0.081406
0.026022,-0.42104,0.077054,0.017894,0.10926,0.001333,-0.27123,-0.036119
0.033882,0.13714,-0.15562,-0.15534,-0.043646,-0.068424,-0.045035,-0.047568
0.074945,-0.55993,0.0093821,-0.044923,-0.088711,-0.17205,-0.093835,0.024136
-0.19355,0.32354,0.42315,0.34995,0.17026,0.24573,0.11414,-0.054503
0.11288,0.2029,0.10228,-0.19607,0.10119,-0.0095782,0.056257,0.022332
-0.11307,-0.69291,-0.57606,0.076312,-0.06096,0.031673,0.014636,0.013658
0.09158,0.50592,0.016029,-0.11264,-0.18297,-0.067205,-0.15057,-0.0013215
0.072276,0.04339,0.13162,-0.25369,-0.10825,-0.10244,0.10797,0.0094188
0.025366,-0.11178,0.15625,0.45905,0.226,0.16858,0.25126,0.077489
-0.041056,0.85047,0.40428,-0.090782,-0.070582,-0.12894,-0.29138,-0.094063
-0.018032,-0.70748,-0.74066,-0.043356,0.0099315,0.098697,-0.012834,0.13495
0.046658,-0.15146,0.5571,0.077951,0.13151,-0.023707,-0.085893,-0.11114
-0.11371,0.26159,-0.21132,-0.19587,-0.15936,-0.090269,0.15256,-0.05956
-0.03138,-0.052425,-0.32871,-0.14655,-0.043053,0.086054,0.092315,4.4623e-05
0.089849,-0.011243,0.14863,0.26432,0.17481,0.043827,-0.040658,0.043883
0.093489,-0.3263,0.21153,-0.03435,-0.0771,-0.076813,-0.051292,0.079623
-0.10623,0.37257,0.062149,0.18315,0.12213,-0.010675,-0.16598,-0.12711
-0.13388,-0.2758,-0.19056,-0.21684,-0.11879,0.054403,0.30337,0.056548
0.026621,-0.021161,0.28942,0.21021,-0.057924,-0.014615,-0.17355,-0.0022606
0.039576,0.043494,-0.84116,-0.28622,-0.10909,-0.085021,-0.033098,-0.014663
0.17824,-0.12904,0.7622,-0.1361,0.056524,0.077569,-0.13355,0.1049
0.066942,0.12244,-0.055901,0.22313,0.096123,0.020137,0.16655,-0.042505
-0.014146,0.87764,-0.013554,0.080818,0.10448,-0.030557,0.17228,-0.058987
-0.21468,-0.42007,0.038029,0.12486,0.082482,0.10547,-0.06186,0.00035896
-0.012245,-0.11919,-0.45593,-0.081803,-0.12548,-0.032322,-0.044305,0.010381
-0.024571,0.016139,0.12119,-0.26536,-0.24563,-0.15437,0.15374,0.07285
0.084409,-0.41112,0.63558,0.10575,0.13619,-0.033533,-0.45297,-0.14758
-0.090777,-0.22652,-0.78908,0.031769,0.082341,0.12761,0.29909,0.045322
0.13082,-0.23037,0.28326,-0.041851,-0.14189,-0.076794,-0.043292,0.066729
-0.038365,0.64616,0.43725,0.33806,0.22863,0.20497,-0.20631,-0.050979
0.028083,0.29363,0.10184,-0.39887,-0.095794,-0.16794,0.24821,0.0056532
0.057878,0.12683,-0.60565,0.15351,0.056053,0.10863,0.05537,0.034127
-0.034157,-0.32974,-0.27779,-0.059571,-0.097668,-0.012981,-0.034323,0.034647
-0.028915,0.010997,0.056298,0.047837,-0.010467,-0.14296,-0.22389,-0.047706
-0.090439,-0.11521,0.00088187,0.0071296,-0.02619,0.10083,0.32219,0.013029
0.062297,0.18413,0.85546,-0.064205,0.035069,-0.024197,-0.18598,-0.049626
-0.055472,-0.48683,-0.2921,0.092074,0.025345,-0.033661,0.016064,0.021181
0.14168,0.28924,0.019884,0.046769,0.054622,0.0024757,0.01304,0.013591
-0.12812,0.0785,-0.42,-0.23093,-0.079627,0.061388,0.13203,-0.026294
0.07189,-0.22502,0.097662,-0.014177,-0.12696,-0.0984,-0.2526,0.06504
-0.063804,0.15452,0.22696,0.17356,0.22529,0.12532,0.09343,-0.087689
0.11235,0.061605,-0.29223,0.089712,0.0082759,-0.032647,-0.032496,0.070193
0.021356,0.12761,0.26462,0.077237,-0.012766,0.013806,0.081566,0.0076683
-0.15001,-0.3542,-0.30709,-0.29462,-0.15086,-0.040121,0.015095,-0.079521
0.043052,0.14986,0.24186,0.12138,0.085661,0.00057186,-0.035134,0.051377
-0.03244,0.42267,0.059892,-0.12897,-0.022344,0.049549,-0.10683,0.0025488
0.045555,-0.041531,-0.23512,0.10976,-0.0062674,-0.049806,0.11354,-0.0066571
0.10566,-0.098244,0.43625,-0.022186,0.024637,-0.063361,0.040623,0.0086322
-0.12483,-0.068749,-0.24456,0.27998,-0.023037,0.079121,-0.044208,-0.037189
-0.074713,-0.63012,-0.30679,-0.43632,-0.023816,-0.012905,0.13997,0.020067
0.13188,0.0048533,0.21251,0.079868,0.046213,-0.0033297,-0.21999,0.047492
0.0034843,-0.10875,-0.23971,0.18913,0.046794,0.0064676,0.054797,-0.025526
-0.10003,0.28766,0.42343,-0.060367,-0.0062621,-0.022466,-0.059932,-0.058817
0.087114,0.60732,-0.1419,-0.018962,-0.066111,0.0661,0.12254,0.11895
0.033469,0.20538,0.26624,-0.03728,-0.0079712,-0.017066,-0.14071,-0.063108
-0.081768,-0.161,-0.22935,-0.075731,0.05061,-0.053501,-0.061277,-0.097683
0.053208,0.065929,-0.022172,0.21726,0.0076367,0.042387,0.53202,0.077303
-0.023302,-0.76215,-0.16993,-0.088505,-0.02797,-0.026608,-0.47868,-0.030642
-0.093238,0.087974,-0.0034506,-0.033113,-0.095708,0.020529,0.038854,0.039235
0.17102,0.22509,0.28004,-0.063265,0.077461,0.0040193,0.12326,0.22438
-0.051068,0.14285,-0.085975,0.12414,0.069303,-0.021381,0.10254,-0.23296
-0.087571,-0.28713,0.15651,-0.034977,-0.026732,-0.0085884,-0.31988,-0.10598
-0.016283,-0.15878,-0.52251,-0.0028696,8.0801e-05,-0.051059,0.028534,0.019721
0.085202,0.33531,0.34776,0.00084727,-0.053449,0.03901,0.10191,0.0899
-0.032476,-0.0031396,-0.19892,-0.1178,0.03159,0.13686,0.042039,-0.012184
0.053219,0.13656,0.16824,0.13388,0.013459,-0.11674,0.11572,0.096654
0.053842,0.12782,0.28764,0.17121,0.033562,0.0047965,-0.082285,-0.013012
-0.10818,-0.33617,-0.30734,-0.33983,-0.071084,0.06397,-0.027746,-0.044141
0.11451,-0.078999,0.22873,0.087488,-0.025754,-0.087652,-0.063883,0.0034255
-0.1292,0.16022,0.24096,0.14315,0.022443,0.0031576,-0.073211,-0.049757
-0.096793,-0.22651,-0.98834,-0.32687,-0.065978,-0.053998,0.1006,-0.023601
0.040025,0.20576,0.096208,0.31963,0.19408,0.19435,0.16057,0.019942
0.062365,0.11123,0.3541,-0.18249,-0.17387,-0.15764,-0.22175,0.034607
0.10247,0.087939,0.15951,0.087895,0.048268,-0.015863,0.17188,-0.04941
-0.028181,-0.46239,0.033835,0.12876,0.093494,0.096469,-0.088951,-0.044384
0.043975,0.45526,0.41909,0.015199,-0.0010527,-0.070668,-0.0051172,0.1901
-0.088903,-0.23422,-0.39204,-0.10007,-0.026597,0.029286,-0.28861,-0.088855
0.11862,-0.034715,-0.56018,0.053024,-0.047656,-0.002718,0.25471,0.055098
-0.14691,0.23885,0.83288,-0.12177,0.012404,0.051231,0.20951,-0.0044562
-0.057571,-0.1485,-0.61344,-0.0162,-0.011154,0.010517,-0.0035376,-0.11268
0.012265,0.023368,0.4758,0.06558,-0.063373,-0.024139,-0.041605,0.041775
-0.03759,-0.23456,-0.71761,-0.39777,-0.057159,-0.029872,-0.08477,-0.0026408
0.075945,0.07436,0.3415,0.37823,0.087407,-0.11622,-0.31234,-0.05061
0.13603,0.048897,0.072045,0.18638,0.10676,0.14678,0.19878,0.078187
-0.05101,0.18594,0.19759,-0.15729,-0.036211,-0.076126,0.083361,0.0020484
-0.038823,-0.22972,-0.37191,0.045209,-0.043174,-0.002765,-0.13284,-0.10579
0.024517,-0.071302,0.1544,-0.18127,0.031978,0.094375,0.21648,0.131
-0.017544,0.56719,0.5339,0.23362,-0.0060153,-0.08862,-0.13266,-0.075598
-0.033012,-0.15233,-0.30626,-0.12546,0.029749,0.081502,0.0079713,-0.0062996
-0.015186,-0.01459,-0.13564,-0.04986,-0.064904,-0.012409,0.075476,0.07324
0.0035016,-0.53929,-0.12281,0.09822,-0.0021616,-0.0034949,0.037204,0.053075
0.0298,0.16041,0.07983,-0.059141,-0.0019721,-0.0095208,0.11762,0.057261
0.00039687,-0.0043121,-0.24139,-0.0088513,0.012844,0.00011472,-0.34967,-0.27465
0.063233,0.44936,0.4594,0.177,0.10422,-0.014196,0.086426,0.087672
-0.031877,-0.11939,-0.46548,-0.15863,-0.12644,-0.029328,0.23713,0.07333
-0.13643,-0.32677,0.26731,-0.11706,-0.085203,-0.068747,-0.30413,-0.099037
0.023214,0.2195,-0.026809,0.037215,0.079908,0.063079,0.025867,0.063085
0.080064,-0.49436,0.20988,-0.022257,0.033404,0.061823,-0.076124,-0.0099776
-0.020512,0.29863,-0.46539,-0.020229,0.072492,0.02942,0.18078,-0.028408
0.088495,0.44266,0.43345,0.42761,-0.021477,-0.033858,0.056095,0.039713
-0.030812,-0.11767,0.024295,-0.34195,-0.061149,-0.034156,0.027561,0.069815
0.050745,-0.055995,-0.075806,0.14778,0.085965,0.044091,0.0096809,-0.00049575
-0.089129,-0.093358,-0.039373,-0.033459,-0.049254,-0.018051,0.017785,-0.046412
-0.0052284,0.033824,-0.35153,-0.12882,-0.10769,-0.088022,-0.2302,-0.083955
-0.040919,-0.18327,0.4091,-0.053431,-0.026887,-0.017647,0.13187,0.058282
-0.0312,0.24822,-0.18728,0.090297,0.13869,0.12253,0.063999,-0.018548
0.10347,-0.098826,0.015865,-0.018375,0.022339,0.051064,-0.1844,0.013422
-0.088364,-0.23581,-0.07485,-0.012158,-0.0081142,-0.029009,-0.11352,0.052556
0.082422,-0.27475,0.01728,0.20332,-0.04568,-0.11768,0.09712,-0.026044
-0.054803,0.26598,0.31526,0.035365,0.004119,0.074285,0.30723,-0.050287
0.039623,0.46835,-0.25243,-0.27246,0.0090999,-0.0074719,-0.029712,-0.019918
0.013936,-0.048814,0.12475,-0.10152,-0.077172,-0.010912,0.047493,0.049636
0.054648,-0.14579,-0.34469,-0.091086,0.0032838,-0.021436,-0.32039,0.033435
-0.058601,0.30694,0.86031,0.42379,0.094043,-0.054183,-0.062961,-0.029585
-0.038674,-0.40638,-0.5589,-0.064475,-0.047622,0.07865,-0.023925,0.00089868
0.11256,0.08405,0.10025,0.045134,0.11649,0.0098918,0.15614,0.0072826
-0.051652,0.10985,-0.48946,-0.076789,-0.024051,0.082984,0.43816,0.082907
-0.094573,-0.42525,-0.0054239,-0.080435,-0.079693,-0.015159,-0.32634,-0.077181
-0.031777,0.072225,0.24304,0.087029,0.019011,-0.035267,-0.12968,-0.051101
-0.0031045,-0.083464,0.04038,-0.12284,-0.12688,-0.10303,-0.065694,-0.03383
0.09428,0.0091401,-0.072066,-7.8291e-05,0.076341,-0.00016487,0.0061763,0.029968
-0.019456,0.53295,0.28919,0.033175,0.019662,0.0075509,0.078121,0.031768
0.031887,0.021579,0.45112,-0.014837,0.024061,0.13126,0.29859,0.066198
0.030265,-0.35236,-0.28418,0.0052502,-0.034683,-0.11293,-0.36369,-0.11602
0.014835,0.2928,-0.021429,0.12583,0.1176,0.041239,0.020893,0.071464
0.039814,-0.10043,-0.86481,-0.058259,0.0048987,0.039725,0.46002,0.13649
-0.083125,-0.43424,0.29389,-0.077463,-0.21619,-0.10915,-0.6011,-0.27288
-0.10489,0.38125,-0.03671,0.068627,0.11852,0.10271,0.15782,0.15522
0.059735,-0.055506,0.2632,0.012832,0.055885,-0.027803,-0.020994,-0.025355
-0.042713,0.097623,0.54126,0.043909,-0.068292,-0.00094285,0.23761,-0.034176
0.14256,-0.05756,-0.3389,-0.041737,0.011429,0.018778,-0.066238,0.12808
-0.079271,-0.22982,-0.31885,-0.041463,0.013584,-0.039515,-0.15119,-0.13279
-0.012164,0.17056,0.11168,-0.10408,-0.11676,0.0033038,-0.017303,-0.0044119
-0.0069265,-0.16419,-0.085739,-0.057943,0.10448,0.013953,0.085215,-0.010113
0.030773,0.028517,0.20468,0.26089,0.12226,-0.015683,-0.023707,0.037906
-0.039449,0.088551,-0.090808,-0.030498,-0.11848,0.023657,0.13981,-0.031892
0.024413,0.080691,-0.32887,-0.096281,-0.032227,-0.016395,0.067441,0.077609
