-0.023076,0.038693,0.089946,0.0087353,-0.0048414,-0.0058987,-0.052422,-0.053275
-0.03342,0.056878,-0.017049,0.0095374,-0.0044105,-0.0064131,0.009557,0.0010831
0.035931,-0.086689,0.14776,-0.0057305,-0.0041462,0.00082692,-0.0054961,-0.0074377
0.052707,0.084022,0.1243,0.0019218,0.003717,0.015883,0.0041905,0.022777
0.063927,-0.042309,-0.10993,-0.022166,0.0035215,-0.00024648,0.02294,0.037122
0.10054,0.046714,0.063102,0.031498,0.01088,-0.008451,0.01915,0.012253
-0.16628,-0.082792,-0.16849,-0.01659,-0.0054422,-0.00088707,0.054708,-0.0048466
-0.12026,0.15826,0.10189,-0.0021587,-0.0063354,0.022457,0.11322,-0.037482
-0.067092,-0.039363,-0.10225,-0.01095,-0.007342,-0.032174,-0.3295,-0.05424
0.16417,-0.22629,0.10956,0.027496,-0.00053703,0.0070751,0.069732,0.023191
0.11968,0.29815,0.018162,0.019505,0.014209,-0.0004522,0.037191,0.023108
0.095823,-0.32607,-0.025396,-0.019291,-0.0020418,0.0077003,0.010435,0.047173
-0.19666,0.10542,-0.021721,-0.010815,-0.017943,-0.0075865,0.083552,-0.053079
-0.24985,0.28334,0.020793,-0.025457,0.0056137,0.0083084,-0.031988,-0.020021
0.14761,-0.25621,-0.15614,0.030452,0.013921,0.0084414,0.00037322,0.067886
0.12142,0.01622,0.2753,-0.0072197,0.0068935,0.008382,-0.0062353,0.022728
0.08648,0.12281,0.057227,0.033347,0.0078367,-0.015333,-0.059048,0.015981
0.012535,-0.21136,-0.46648,-0.074466,-0.022465,-0.031434,-0.016949,-0.10886
0.010001,0.097064,0.22791,0.052085,0.0017893,0.022645,0.050134,0.0075337
-0.27942,-0.12821,0.015777,-0.016787,-0.013239,-0.0014276,0.11902,-0.017406
0.05941,0.12932,0.038109,0.0078433,0.0027388,0.0058384,-0.10704,0.019889
-0.074164,-0.14021,0.21703,0.016439,0.0028848,0.00548,-0.026494,-0.012844
0.19545,0.14426,-0.18951,0.0010287,0.010718,-0.010259,-0.037889,0.048952
-0.045785,0.41298,-0.19711,0.016195,0.010707,0.013309,0.014784,0.02589
0.045196,-0.26447,0.084877,-0.039626,-0.012688,0.0058249,0.068675,0.027371
0.084146,0.33002,0.20343,0.0055778,0.0030815,-0.0015388,0.021763,-0.001541
-0.16533,-0.55259,0.018131,-0.027595,-0.0044723,-0.016669,-0.0093065,-0.092538
0.23979,-0.22091,-0.24417,-0.013753,-0.011936,-0.0083627,-0.032919,0.003875
-0.2104,0.106,-0.044129,0.047524,0.027515,0.0077514,-0.010549,0.013821
0.091931,0.064259,0.0090302,0.0081468,0.0044455,0.0082683,0.0026957,0.022955
-0.43978,-0.058819,0.14952,-0.022333,-0.042147,-0.022392,-0.040321,-0.06256
0.32766,0.033281,0.12672,0.018531,-0.0029456,-0.0060843,-0.022491,0.06204
0.26267,0.56649,0.095831,0.036692,0.043872,0.049345,0.15783,0.061004
-0.25791,-0.44596,-0.34303,-0.030836,-0.026743,-0.020277,-0.11636,-0.1592
-0.083583,0.053218,0.050784,-0.044016,0.01954,0.01925,0.14742,0.14378
0.029696,0.079066,-0.020989,0.020026,-0.0048136,-0.019775,-0.23023,-0.092421
-0.15884,-0.020326,-0.05144,0.0046115,0.001747,-0.0047081,0.079146,0.022861
0.78132,-0.32853,0.35766,0.034538,0.00019192,0.017503,0.021163,0.11467
-0.087064,0.74993,-0.24616,-0.022938,-0.001575,-0.015566,0.057023,-0.020003
-0.71725,-0.37613,0.099567,-0.0034146,-0.026837,-0.033368,-0.063065,-0.10748
0.1248,-0.022246,-0.1028,-0.046967,0.010547,0.026968,0.075108,0.016733
-0.13164,-0.094546,-0.045587,-0.012309,-0.014208,-0.013812,-0.051806,-0.060852
-0.17466,-0.027005,-0.061513,0.062145,0.024079,0.016571,-0.045326,-0.081826
0.50256,-0.5242,0.30551,0.036271,0.016134,0.0090111,-0.061706,0.16518
0.32817,0.031078,-0.34086,-0.011547,-0.0068077,-0.0051856,0.070873,0.031762
-0.15307,0.35717,-0.031235,-0.050086,0.0098132,0.0050378,0.10228,0.025278
0.087733,0.29503,0.13939,0.014117,-0.012346,0.015822,0.13386,0.066593
-0.28735,0.3536,0.01929,0.0087142,-0.018856,-0.020284,-0.36591,-0.20507
-0.099578,-0.0017322,0.31429,0.034723,0.0056686,0.028919,0.13387,0.20872
-0.4421,-0.56734,-0.09899,0.0057095,0.014179,-0.024586,-0.031204,-0.23249
0.82014,0.23299,-0.047084,-0.086487,-0.016842,-0.02486,0.0057116,0.0093473
-0.75467,-0.063844,0.027592,-0.023265,0.0063757,-0.003177,0.11148,-0.0036695
0.35304,0.057675,-0.18986,0.046983,-0.017634,-0.0061407,-0.026649,0.05679
0.20133,-0.19555,-0.026578,0.085372,0.044078,0.068324,0.020856,0.21493
-0.098503,-0.24455,-0.18117,-0.13445,-0.042728,-0.060388,-0.089671,-0.13741
0.0081337,0.0022872,-0.052368,0.012676,0.011107,-0.0088226,0.095298,-0.12377
0.53473,0.14021,-0.068485,0.034598,0.0024982,0.020395,0.092187,0.093399
-0.45987,0.023968,0.47494,0.19687,0.04862,0.0040744,-0.38689,-0.062446
-0.62837,-0.19543,0.10086,-0.024035,0.00099765,0.035912,0.081351,0.042898
0.92391,0.35677,-0.31951,-0.24533,-0.070078,0.021815,0.13895,-0.058252
-0.46934,0.35577,0.3154,-0.029311,-0.016137,-0.09344,-0.15047,0.087844
-0.26129,0.30799,-0.13898,0.09323,0.045741,0.10361,0.59642,0.051601
0.76135,-0.15919,0.25563,0.013595,-0.0092721,-0.067203,-0.37056,-0.011128
-0.20168,-0.91305,-0.13443,0.045017,0.0065164,-0.035835,-0.13043,-0.062098
-0.59779,0.084852,-0.31774,-0.038482,0.0073269,0.057152,-0.012768,0.0069642
0.20383,0.45241,-0.012229,-0.025744,-0.030217,-0.037875,-0.01149,-0.078626
-0.57361,-0.7759,-0.19883,0.012626,0.018809,-0.015647,0.043487,-0.085772
0.64199,0.8983,0.066424,0.075793,0.021365,0.015101,0.1271,0.19523
0.58328,-0.55531,0.52707,0.01403,-0.01509,-0.023243,-0.0041203,-0.080529
0.17453,0.15484,-0.58711,-0.1273,0.0027801,0.057038,-0.12444,0.21878
-0.45968,0.047312,0.19674,0.16598,0.019899,0.052645,0.10183,-0.1498
0.42914,0.53846,0.76541,-0.036816,0.0047542,-0.029173,-0.028061,0.0634
-0.62826,-0.64419,-0.41689,-0.048521,-0.027088,0.021682,-0.12247,-0.12583
-0.55124,0.30363,-0.16037,-0.15767,-0.075441,-0.076963,0.19515,-0.11511
-0.15329,0.53671,-0.35429,-0.011399,0.047607,-0.04463,-0.13581,0.14379
0.69406,-0.54819,-0.052618,0.1578,0.030113,0.079201,-0.089945,0.074473
-0.42404,-0.56161,0.21372,-0.015223,-0.017971,-0.017909,0.11569,-0.31347
1.0482,0.06674,0.52301,0.033774,0.03663,0.03961,0.060347,0.3017
-0.37277,0.21308,-0.22624,-0.022257,-0.024596,-0.059753,-0.052564,0.0066496
-0.57063,-0.22208,-0.018251,0.051233,0.017051,-0.025705,-0.020557,-0.089423
0.7396,0.70891,-0.44653,-0.06683,-0.010634,-0.0054538,0.029877,0.21552
-0.4497,0.093836,-0.0028821,0.036109,0.001175,0.0019641,0.034161,-0.19749
-0.11825,-0.36313,0.72721,0.11595,0.012756,0.1767,0.30255,0.0522
0.48608,0.29134,-0.53719,-0.14952,-0.023416,-0.1064,-0.29191,-0.014013
-0.71412,-0.58364,-0.085217,-0.066454,-0.037547,-0.05131,-0.30513,-0.35079
1.0083,0.32425,0.25429,0.036262,0.040367,0.020312,0.122,0.35364
-0.65734,-0.00024932,0.073553,0.02589,0.030581,0.083363,-0.080154,0.28695
-0.60564,-0.32956,-0.2079,-0.13582,-0.074526,-0.059126,0.26166,-0.50288
0.95132,-0.16218,-0.03839,0.12275,0.053568,0.0055798,0.047511,0.1812
-0.15663,0.042343,0.25844,0.10775,0.0091471,-0.027932,-0.0023416,-0.010176
-0.69861,0.40971,0.30447,-0.023303,-0.027505,-0.081478,-0.1212,-0.30916
0.58164,0.5097,-0.46519,-0.089864,0.0066924,0.18957,0.29304,0.59085
0.48053,0.074907,-0.26266,0.13497,0.018495,-0.15849,-0.32979,-0.21506
-0.31467,-0.43639,-0.064132,-0.083312,-0.030782,-0.0064088,-0.060066,-0.054442
0.0076527,-0.36284,0.19475,-0.010818,0.046587,0.11676,0.1412,0.22094
-0.84389,-0.347,0.25933,-0.12475,-0.061847,-0.099531,-0.12437,-0.47569
0.22774,0.40745,0.31327,0.011727,0.010987,0.072628,0.19814,0.19032
0.28557,0.057639,-0.0062417,0.21057,0.038247,-0.006904,-0.094177,0.084658
0.59254,-0.19916,-0.62453,-0.14583,-0.050789,-0.096449,-0.13409,-0.1145
-0.31811,0.2331,-0.10798,0.036027,0.063689,0.17754,0.10935,0.30244
-0.032874,0.66877,-0.15666,0.060718,-0.0094761,-0.10121,0.057191,-0.13432
-0.23338,-0.60999,0.52022,0.014245,0.010475,0.15067,0.083122,0.019942
0.91459,0.052726,0.14136,-0.10316,-0.064339,-0.14751,-0.025451,-0.27397
-0.68257,-0.25858,-0.0062664,0.005758,0.02368,-0.036859,0.011024,0.085803
-0.77929,-0.11647,0.10457,-0.049132,-0.022373,-0.034273,-0.058817,-0.14232
-0.071354,-0.1018,-0.39092,0.013903,0.00076369,0.0084301,-0.22003,0.1751
0.95242,1.064,0.14973,0.0077047,0.03865,0.060726,0.137,0.28853
-0.084446,-0.76227,-0.14623,0.24484,0.021261,-0.039924,-0.080337,-0.1378
0.41974,0.21473,0.29508,-0.16563,0.050425,0.21631,0.32515,0.48198
-1.0349,-0.083683,-0.38021,-0.28684,-0.17835,-0.31686,-0.28492,-0.88347
0.25354,-0.11752,0.038721,0.30215,0.077209,0.16719,0.052601,0.13319
0.53912,0.0063367,-0.18062,0.36601,0.043681,-0.0019063,-0.058985,0.0012408
-0.38795,-0.11448,0.62144,-0.52579,-0.029004,-0.10456,0.10007,-0.075343
0.41574,0.39977,-0.35544,0.032578,0.054361,0.25785,0.14706,0.42783
-0.48382,-0.30546,0.54952,-0.060373,-0.018816,-0.21979,-0.028102,0.0036425
0.12626,-0.093343,-0.50322,0.024115,-0.084491,0.024187,-0.14548,-0.13677
0.26334,0.085255,-0.46331,0.27149,0.044926,0.06684,-0.003523,-0.040727
0.039437,0.050496,0.42168,-0.098201,0.018095,-0.10066,-0.025564,-0.013883
-0.68143,0.112,0.067066,-0.099269,-0.024026,0.075585,-0.095494,-0.1278
0.79543,0.00657,0.3635,0.1444,0.028333,0.063897,0.25488,0.55384
-1.2312,0.039579,-0.33079,-0.16327,-0.03538,-0.16702,-0.099485,-0.64947
0.7115,0.46128,-0.072531,0.0093764,0.011693,0.0081019,-0.056714,0.22296
0.24576,-0.85194,-0.32532,0.17795,0.044703,0.058444,-0.02259,-0.062827
-0.19355,0.63519,0.54083,-0.25169,-0.037951,-0.054656,-0.067031,-0.10749
0.39785,-0.32735,-0.21894,0.055653,-0.017751,0.12211,0.16949,0.15266
0.2885,-0.36825,0.26816,0.22399,0.097098,0.11984,0.25715,0.29683
-0.42639,-0.37044,-0.30407,-0.13844,-0.10797,-0.18695,-0.21068,-0.18983
-0.6605,0.37125,-0.11601,0.076586,-0.0085047,-0.048994,-0.14845,-0.2758
-0.023495,0.17938,0.24655,-0.14755,0.043407,0.071987,0.11548,0.25744
0.40586,0.57001,-0.012404,-0.038172,-0.0073749,-0.027764,-0.34061,-0.23129
0.39237,0.071417,-0.15708,0.1543,0.049751,0.14363,0.38224,0.53855
-0.08071,0.12193,0.18134,-0.28901,-0.066655,-0.23403,-0.22301,-0.22264
0.078844,-0.45326,-0.097092,0.35857,0.034002,0.16012,0.18036,-0.24942
-0.88888,-0.75352,0.2745,0.12072,-0.015325,-0.12618,-0.047735,-0.064934
0.73213,0.83143,-0.50784,-0.43973,-0.019026,-0.013761,-0.063445,-0.20755
-0.54586,-0.4866,0.063733,0.2245,0.031142,0.092057,0.29691,0.34701
0.95295,0.1691,0.31664,-0.12833,0.018498,0.0591,-0.068947,0.61497
-0.90063,-0.65175,-0.102,0.33827,-0.040805,0.028163,-0.22434,-0.84891
0.63933,0.71101,0.0091902,-0.35943,-0.036921,-0.11827,-0.013642,0.20466
-0.32116,0.37154,0.17971,-0.017552,0.038313,0.056527,-0.093313,0.086753
0.67685,0.58536,0.21296,0.3334,0.09132,-0.0031298,0.23221,0.27981
-0.96816,-0.71134,-0.81335,-0.40746,-0.13574,-0.048274,-0.26303,-0.41354
-0.18348,-0.40122,0.17191,0.20568,0.044402,-0.07192,0.093574,-0.14345
0.94186,0.088147,0.15507,0.12613,0.11577,0.18329,0.50572,0.65943
-1.1012,-0.94986,-0.064186,-0.13846,-0.13301,-0.11855,-0.49508,-0.78608
0.7571,0.99097,0.1422,-0.010459,0.00079538,0.046495,0.10668,0.43528
0.51617,0.50391,0.20653,0.1969,0.032524,0.038743,0.16216,0.37259
-0.88093,-0.2552,-0.15084,-0.36878,-0.022326,-0.085899,-0.3057,-0.72128
0.4128,0.29811,-0.03124,0.2839,-0.0074551,-0.021433,-0.055089,0.023848
-0.78988,-0.6677,-0.13122,-0.1269,0.046081,-0.008874,0.23415,-0.022288
0.62545,-0.19758,0.038939,0.054767,-0.0020541,0.022893,-0.031582,0.35273
0.46587,0.13722,0.054005,0.063269,-0.010917,0.14442,0.12469,0.27392
-0.39294,-0.15148,-0.097517,-0.16364,-0.01928,-0.14469,-0.30426,-0.29144
0.96339,0.89074,0.33096,-0.055207,-0.0034984,0.068604,0.1588,0.41179
-0.64336,-0.2213,-0.17874,0.16248,0.0052737,0.087525,0.13168,-0.36956
-0.97495,-0.036301,0.16134,0.22423,0.046062,-0.081732,0.0054855,-0.24774
-0.62593,-0.65735,-0.50747,-0.36187,-0.076611,-0.034386,-0.3602,-0.38879
1.0152,0.8144,0.075235,0.068361,0.035426,-0.099594,0.13603,0.42537
0.092922,-0.24224,0.44497,0.17117,0.077164,0.11284,0.11857,0.28895
0.39287,-0.29572,-0.15855,-0.2098,-0.084522,-0.27189,-0.2106,-0.38276
0.6604,0.18231,0.012352,0.15972,0.050127,0.43443,0.43597,0.57573
-1.0564,-0.69773,-0.40491,-0.1735,-0.097137,-0.22811,-0.26396,-0.38125
0.64809,0.68491,0.18601,0.13419,0.028384,0.23379,0.37522,0.29391
-1.0563,-0.54857,-0.20738,-0.011084,0.036186,-0.11634,-0.42142,-0.32038
0.47667,0.83066,0.33307,-0.11735,-0.018879,-0.18395,-0.15457,-0.146
0.19109,-0.31166,0.23,0.018173,0.011766,0.054918,0.14485,0.29361
-0.42045,-0.18488,0.083259,0.10592,0.0031773,-0.016739,-0.17024,-0.40767
0.33198,0.76236,0.53878,0.22346,0.041242,0.10092,0.26161,0.35212
0.11669,0.038516,-0.59213,-0.23909,-0.053856,-0.030099,0.052209,0.0032702
-0.17016,-0.33433,-0.62745,-0.047638,0.077127,0.15193,0.1101,0.17941
-0.046132,-0.44318,0.11217,-0.037955,-0.042416,-0.1195,-0.21917,-0.26692
-0.013803,0.0023061,-0.1178,0.0406,-0.084236,0.092339,-0.004778,0.14978
-0.0071271,-0.58679,0.04473,-0.076495,0.037935,-0.13491,0.081863,-0.0067665
-0.02512,0.54813,0.1682,0.22932,-0.0035206,-0.16062,0.10314,-0.39154
0.094148,-0.22218,-0.07682,-0.2203,0.0029176,0.14852,-0.26958,0.16057
-0.092156,0.53667,0.56394,0.021007,0.026521,-0.034762,0.025465,0.025032
0.36887,0.20365,0.058969,0.14903,0.0051028,0.087403,0.04986,0.12324
-0.1262,-0.17257,-0.11348,0.13228,0.0089744,-0.0076044,-0.048971,0.0081669
0.38946,0.28193,-0.24682,-0.2645,0.014347,-0.061549,0.055955,0.1299
-0.24853,-0.52243,-0.31137,-0.011488,-0.010684,0.28486,0.18373,-0.039058
-0.91225,0.065435,0.57093,0.1006,-0.03571,-0.24236,0.0050409,-0.096947
0.85855,0.32162,-0.13687,-0.015766,0.055589,0.074714,0.15176,0.42867
-0.95586,-0.34342,-0.19685,-0.010301,-0.089076,-0.24916,-0.46249,-0.83233
0.75335,-0.0165,0.20259,-0.039957,0.045475,0.14471,-0.071842,0.1268
-0.42634,-0.25779,-0.18475,0.10617,0.013835,0.060713,0.066865,0.22898
0.31928,0.21139,-0.17026,-0.086882,-0.011852,-0.0010856,0.087937,-0.085203
0.79498,-0.28154,0.12682,-0.016325,-0.038831,0.014415,0.18054,0.35289
-0.41603,0.21621,-0.49544,-0.0086781,0.050837,-0.064043,0.033579,-0.076382
-0.16354,0.24991,0.41084,0.11743,0.00012643,-0.048308,-0.031831,-0.24271
-0.11281,0.60444,0.52719,-0.1756,-0.03404,0.06214,-0.15632,-0.14947
-0.21255,-0.44632,-0.053304,0.066249,0.019087,0.033174,-0.020378,0.13595
-0.16258,-0.28784,-0.44429,-0.024029,0.0033767,-0.010318,0.062041,-0.018371
0.5714,-0.0657,0.40077,0.13102,0.027999,0.08745,0.0031641,0.28477
-0.48365,-0.3797,0.30645,0.04564,-0.0090899,-0.11956,0.043268,-0.059441
0.52034,0.59248,-1.0062,0.12422,0.032089,0.055303,0.040058,0.17876
-0.18486,0.51055,0.54253,-0.36952,-0.067882,-0.068407,-0.015418,-0.16203
-0.55406,-0.57282,-0.28686,0.05508,-0.020492,-0.069349,-0.17043,-0.28173
0.81028,-0.23493,-0.091617,-0.040325,0.0098745,0.14604,0.036388,0.003962
-0.045101,0.44968,0.43947,0.13338,0.046613,-0.0080026,0.059409,0.045465
-0.088401,-0.84135,-0.16946,0.006755,-0.019423,-0.02312,0.064542,0.19533
-0.52154,0.27367,-0.22884,-0.082754,-0.015922,-0.0078998,0.085213,-0.2468
0.071332,0.20713,0.1077,0.0307,0.018608,-0.031723,-0.26706,-0.011492
-0.12795,0.18951,0.38945,0.098838,-0.0090108,-0.0077156,0.017311,0.069177
0.99227,0.21348,-0.31172,-0.080126,0.018909,-0.0053932,0.017529,0.13887
-0.0034429,0.2599,0.27812,-0.067944,0.0011722,0.069534,0.11662,0.10537
-0.99625,-0.86597,-0.06024,0.13546,0.01611,0.0063337,0.1186,-0.031537
-0.11797,0.36513,-0.06217,0.099865,-0.0065438,0.086114,0.12361,0.29668
0.327,-0.010601,-0.40832,-0.2304,-0.074695,-0.22281,-0.31538,-0.56111
0.19755,0.059745,0.15865,0.034078,0.030199,0.07895,0.049997,0.017245
0.87528,-0.0086529,0.2094,0.064004,0.026584,0.061024,-0.015677,0.13111
-1.0633,-0.14008,-0.20027,-0.040033,1.1893e-05,-0.019397,-0.10634,-0.18931
0.14568,0.14457,0.50157,-0.13024,-0.02654,-0.084671,0.13028,0.14222
-0.18648,-0.36609,-0.45682,0.129,0.040174,0.11489,-0.17947,0.0099551
0.57263,0.59686,-0.19924,0.058005,0.012149,-0.10835,0.20812,0.15038
-0.92782,-1.0629,0.087122,0.17264,0.013952,0.10498,-0.13545,-0.2546
0.60288,0.33146,0.22156,-0.30013,-0.06408,-0.065339,0.10269,0.24989
-0.067325,0.19623,0.045469,-0.023775,-0.018891,-0.0020222,0.1328,-0.16338
0.41551,0.78685,0.55538,0.15081,0.032518,0.052843,0.070344,0.17736
-0.51693,-0.20937,-0.57297,-0.13498,-0.0031747,-0.01006,-0.016787,-0.17429
0.38648,0.029945,-0.18691,0.24461,0.046518,-0.011014,-0.27959,0.17837
-0.5383,0.049544,0.14875,-0.13941,-0.05989,-0.028122,-0.079538,-0.094748
-0.081511,-1.0532,-0.26953,-0.083422,0.0063975,0.01679,0.027528,-0.01886
0.50454,0.53825,0.0053275,-0.01689,-0.0040915,-0.055863,0.057304,-0.17325
0.083879,0.049441,0.59416,0.044403,0.010501,0.11347,0.31575,0.082333
0.27794,-0.063252,-0.59189,0.084253,0.065811,-0.0062213,-0.1324,0.17024
-0.36976,0.18499,0.24925,0.00010539,-0.049363,-0.063078,-0.2453,-0.11938
-0.47113,0.088412,0.16117,-0.053087,-0.015192,-0.056792,0.034613,-0.12101
-0.02737,-0.43796,-0.25929,0.14983,0.034919,0.036348,0.092616,0.065205
0.36021,-0.078808,-0.057891,-0.048624,-0.0089893,0.075894,0.086613,0.26851
0.18531,-0.042558,0.24093,-0.20396,-0.030184,0.014996,-0.029723,-0.026082
-0.46384,0.29588,0.087503,0.089892,-0.028918,-0.14651,-0.069544,-0.24027
0.55582,0.45588,0.17317,-0.11189,0.041653,0.15351,0.20761,0.26639
-0.48022,-0.087295,-0.15472,0.074554,-0.05268,-0.10105,-0.23983,-0.27989
0.62471,-0.03523,-0.48569,0.088118,0.071177,0.11265,0.030661,-0.12943
-0.097579,-0.28864,0.084343,-0.046353,-0.0083355,-0.15125,0.063377,0.15503
-0.40493,-0.054822,0.19551,0.19575,0.052811,0.1381,-0.010771,0.15143
-0.45397,0.34215,-0.15896,-0.12232,-0.049873,-0.058567,0.057355,-0.062356
0.18456,-0.2629,0.13233,-0.086167,-0.035017,-0.084927,-0.11472,0.0054009
0.91654,-0.20269,-0.022193,-0.047436,0.0036903,0.12969,0.01357,-0.052278
-0.67219,0.10937,0.058712,0.11072,0.011586,-0.070371,-0.16478,-0.11916
0.78571,0.28062,0.2661,-0.080959,0.0043007,0.073434,0.20459,0.42094
-1.1311,-0.55408,0.075711,0.025379,-0.010377,-0.12563,0.046238,-0.27656
0.84407,0.31269,-0.50644,-0.024011,0.0065481,0.083087,-0.1222,0.15516
-0.95935,-0.27883,0.18937,0.067125,0.0080769,0.020315,0.028331,-0.35386
0.77265,-0.068838,-0.010479,0.079468,0.033084,-0.087299,0.15373,0.2131
-0.71659,0.60467,-0.083253,-0.034319,-0.028041,0.06464,-0.028809,-0.14215
0.26856,0.41432,0.32332,-0.0010588,-0.0036629,-0.0010864,-0.013884,0.0043888
0.36,-0.21422,-0.3277,-0.13325,-0.0033634,-0.011959,-0.054294,0.084449
0.82912,0.016261,-0.41595,-0.094694,-0.04289,0.17162,-0.058894,0.083841
-0.49863,-0.06716,0.11674,0.1229,0.065246,-0.20907,-0.060858,0.14366
-0.82878,-0.98027,0.61713,-0.034641,-0.038227,0.0093949,0.048262,-0.18987
0.84543,0.49821,-0.038025,0.20652,0.037523,0.022181,-0.028246,0.0034648
-1.1468,-0.54757,0.47171,-0.036295,-0.011911,-0.045363,0.10136,-0.013012
0.84622,0.82918,-0.67545,0.072738,-0.0065345,0.096624,0.024791,0.13323
-0.80352,-0.45404,-0.29465,-0.36515,-0.039799,-0.097657,0.0097641,-0.12243
0.40882,0.1689,0.15784,0.27465,0.052594,0.044789,-0.012012,-0.01567
0.18953,0.30945,-0.047545,-0.094074,-0.01047,-0.061063,-0.15605,-0.054606
0.14005,0.16227,0.37582,-0.19019,-0.072734,0.15561,-0.015009,-0.14476
0.068586,-0.14343,-0.54244,0.22076,0.10786,-0.00047085,0.15375,0.16066
0.66995,0.32402,0.79845,0.12341,-0.0080063,-0.076636,0.060931,0.12917
-0.57472,-0.66845,-0.53118,-0.044425,0.016868,0.035742,0.10424,0.067237
-0.17697,0.26455,0.16469,-0.11832,-0.052184,-0.054804,-0.17047,-0.15659
-0.45103,-0.082305,0.11399,-0.051037,-0.035666,0.010409,-0.084556,0.020871
0.051117,-0.37112,-0.38453,0.017122,0.019513,-0.0033552,-0.013802,-0.048781
0.71312,0.091939,0.069788,0.11771,0.011928,-0.041367,-0.083644,0.016753
-0.43436,0.051107,-0.12237,-0.038088,-0.0034671,-0.0094687,0.15894,0.20105
0.082427,0.088367,0.41587,-0.02044,0.012716,0.069527,0.042167,-0.027935
-0.57163,0.215,-0.10337,-0.0011857,-0.0017347,0.047814,-0.082366,-0.24891
-0.035388,-0.23998,-0.03149,-0.035102,-0.0075927,-0.11325,0.042993,-0.18869
0.45645,0.055926,0.075918,0.01822,0.010757,-0.077659,0.081859,0.16061
0.42991,0.18,-0.14233,0.19752,0.045305,0.32608,0.049194,0.18978
-0.15829,0.38417,-0.079236,-0.31012,-0.052732,-0.16841,-0.11038,0.039499
0.51611,-0.11475,0.2705,0.15106,0.028721,0.06292,0.0089153,0.10792
-0.68238,-0.24248,-0.10308,-0.10699,-0.062326,-0.11366,-0.13988,-0.24627
0.1297,0.19283,-0.10764,0.13389,0.033153,0.0043249,-0.079771,-0.070919
0.38889,-0.65361,-0.48576,-0.041031,-0.021006,0.0026075,0.23692,0.18756
-1.0371,-0.50557,0.81802,-0.11677,-0.006139,-0.087284,-0.11852,-0.15926
1.0358,0.47981,0.21178,0.24982,0.069981,0.0087515,0.096951,0.21621
-0.90588,0.59424,-0.35639,-0.074466,-0.01906,0.072807,-0.014665,-0.2329
-0.84654,-0.34495,-0.42222,0.074372,0.016033,0.090047,0.038711,0.0096698
1.0777,0.25365,-0.20095,-0.29544,-0.082245,0.053218,0.022069,0.077916
0.64766,0.3246,0.37293,0.1608,0.084919,0.0016393,0.0047596,0.12188
-0.37124,-0.56609,0.21535,-0.19611,-0.06799,-0.12717,-0.10014,-0.17692
0.02754,0.22436,-0.017274,0.18243,0.014158,-0.067677,0.089516,0.14427
0.65283,0.3925,0.18888,0.2122,0.034896,0.01604,-0.19202,-0.092641
-1.0092,-0.41225,-0.26352,-0.25386,-0.044528,0.030351,0.0010904,-0.05054
0.46348,-0.67298,0.14418,-0.027436,0.010407,-0.001033,0.12306,0.075874
-0.22637,0.057399,-0.069572,0.079009,0.019944,0.023781,-0.035684,-0.057212
-0.66453,0.10887,-0.057463,0.1116,0.015037,-0.035574,-0.02851,-0.06776
0.19725,0.22489,-0.072129,-0.1108,-0.0048128,0.17252,0.13772,0.14436
0.77569,0.84276,-0.21574,-0.043231,-0.0011718,-0.070909,0.033688,0.13193
0.22282,-0.13335,0.013062,-0.047125,-0.029376,-0.14135,-0.067374,0.049109
-0.81697,-0.4183,0.10146,0.13345,0.027212,0.062033,0.068228,-0.1998
0.050051,-0.12652,0.1857,0.4112,0.051064,0.038437,-0.1307,-0.14747
0.23185,-0.41148,0.011215,-0.7379,-0.11413,-0.080146,-0.0478,-0.01336
-0.053101,0.28543,0.17416,0.061478,-0.01502,0.080585,-0.097686,-0.055246
0.34105,0.54058,0.24622,0.17768,0.051992,0.012324,0.11785,0.3056
-0.58273,-0.62966,-0.40491,0.10465,0.040641,0.027363,0.059797,-0.15651
0.53602,0.42639,-0.27131,-0.014968,-0.032827,-0.12416,0.048661,0.17642
-0.39654,-0.34086,0.10815,-0.038686,0.019604,0.097301,0.10027,-0.046636
