-0.38344,-0.080242,0.0069758,-0.038249,-0.013752,-0.025678,-0.009437,-0.058044
-0.022126,-0.14451,-0.0097011,-0.0082355,-0.013806,-0.018427,-0.0017881,0.019372
0.067952,0.10569,-0.07969,0.02963,0.0092255,0.012232,0.014121,0.011209
0.020798,-0.12856,0.05483,-0.0026201,0.00062957,-0.0039705,0.014815,0.011412
0.15072,0.079648,0.065561,0.012361,-0.00047271,0.026788,0.0079454,0.027889
-0.0088928,-0.11022,-0.12597,-0.042482,-0.0095691,-0.012606,0.0088881,-0.01752
-0.088741,0.3414,0.04225,0.0048054,-0.0030314,0.01072,0.10332,0.031273
0.14744,0.3852,0.069634,0.0057782,0.011533,-0.020393,-0.19333,-0.06817
0.021475,0.0084843,0.0024712,0.030639,0.0030517,0.01124,0.0095329,0.019812
-0.2781,-0.068452,0.019956,0.0010487,0.010697,0.0040247,0.04018,0.021538
0.022724,-0.7971,-0.11258,-0.012973,-0.0045683,-0.010831,-0.054237,-0.04753
-0.060447,0.036524,0.018902,0.011691,-0.01156,0.0056887,0.11722,0.031293
0.13582,0.0080683,-0.022827,-0.026807,-0.002603,-0.0089595,-0.023354,0.039279
0.19613,0.093997,0.051789,0.0041638,0.0064979,-0.00012469,-0.061883,-0.070366
-0.02995,0.1554,0.001167,0.026448,0.0077415,0.016533,0.056082,0.022766
-0.1074,-0.19583,-0.088196,-0.069193,-0.014661,-0.021525,-0.013666,-0.025002
-0.20296,0.78477,0.026271,0.045649,0.0094893,0.018462,0.04081,0.06761
0.27467,-0.026462,0.18063,0.0041684,-0.0057937,-0.0041905,-0.03098,-0.0041015
0.026815,-0.16056,0.062292,0.025524,0.0020085,0.012015,0.083244,0.064524
0.013546,-0.52437,-0.032115,-0.03055,-0.0060921,-0.011101,-0.14755,-0.12495
-0.38206,-0.13432,-0.29812,0.00025677,0.016888,0.0045545,0.074236,-0.04119
0.052256,0.1186,-0.12646,-0.0069635,-0.022683,-0.026955,-0.093958,0.034718
0.31856,0.24264,0.1548,-0.021044,0.00029189,0.0037814,-0.041337,0.048324
-0.19017,-0.081233,0.12389,0.051517,0.015556,0.010887,0.077177,0.015498
-0.081188,-0.015159,0.25742,0.022843,0.007492,0.0022426,0.0046165,-0.063579
0.18595,0.35715,-0.23381,-0.021569,0.022937,0.032591,0.061316,0.068979
-0.013338,-0.21208,0.06397,-0.035273,-0.039735,-0.030845,-0.050577,-0.016574
0.12509,0.075968,-0.1543,-0.018611,-0.00089906,0.022892,0.12795,0.1093
0.40473,-0.35523,-0.037388,-0.018653,-0.024656,-0.040562,-0.01506,-0.14735
-0.74609,0.057923,0.15676,0.11301,0.037427,0.0053708,0.072395,-0.060141
-0.031445,0.11285,-0.18899,-0.045348,-0.0099361,0.0044697,-0.049407,0.0036093
-0.092164,0.18436,0.17558,-0.01691,0.012984,0.0036454,-0.35042,0.020364
0.14274,-0.3067,-0.13994,-0.027894,-0.0031442,0.010743,0.044518,0.13065
0.38555,-0.065416,0.11456,-0.023256,-0.027038,-0.0054708,0.074408,0.01401
0.012916,0.5382,0.0092984,0.044193,0.050702,0.025315,0.1637,-0.056287
-0.48149,0.086634,-0.0028701,0.05749,-0.012088,-0.0062933,0.065481,0.044596
0.59088,-0.50976,0.023068,-0.030119,-0.020053,-0.037816,-0.045398,-0.14434
-0.5039,-0.17629,0.1964,0.007967,-0.020003,-0.014578,-0.16663,-0.0058182
-0.15662,0.076473,-0.12314,-0.0079373,0.0037798,0.024361,-0.015743,0.06203
0.79622,0.082811,-0.41893,-0.038742,0.020147,0.024329,0.15726,0.012771
-0.63832,0.46731,0.16996,0.0093931,0.013554,-0.0068381,0.062148,-0.020278
0.46092,-0.0034811,-0.1124,-0.035265,-0.015975,0.0011971,0.12658,0.13521
-0.55488,-0.51485,0.32162,0.0071109,-0.0059939,-0.0062221,-0.33154,-0.16111
0.10332,0.085027,-0.066083,0.034997,0.012097,-0.0056132,0.10743,0.043995
0.30307,0.019129,0.052409,0.0091675,-0.00099645,-0.012534,-0.081509,0.047245
-0.13486,0.01085,0.019266,-0.031742,-0.014311,0.059039,0.085411,-0.065754
-0.16332,-0.044781,-0.11361,0.013147,0.018729,-0.072059,-0.094482,-0.022046
0.13141,-0.23804,0.30656,0.15081,0.019745,0.031716,0.075433,0.1075
0.0059259,0.70647,-0.028434,0.044469,0.0041977,-0.02032,-0.067137,-0.076144
-0.37801,-0.27369,-0.62914,-0.30646,-0.067013,-0.033085,0.026417,-0.057875
1.1404,-0.024026,0.12801,0.0040574,-0.014103,0.039841,0.029188,0.14625
-0.73155,0.10069,0.2276,0.023189,0.0068885,-0.020996,0.0040278,-0.15935
-0.075811,-0.036261,0.038585,0.071958,0.066544,0.096002,0.21593,0.21276
0.19072,-0.33715,0.14207,0.1201,0.024515,-0.024201,-0.094373,-0.10441
-0.48019,0.10128,-0.10675,-0.057923,-0.017404,-0.015249,0.039938,-0.047925
0.1386,0.2929,-0.10258,-0.054981,-0.035602,0.0052358,-0.10958,0.015731
0.22939,-0.63768,0.1109,0.012299,-0.02215,-0.04066,-0.38807,-0.12353
0.49191,0.45082,-0.20631,0.026922,0.015216,0.035588,0.16485,0.14453
-0.81818,-0.096587,0.0091043,-0.034714,0.0062327,-0.01416,0.26043,-0.023113
0.41476,0.15888,0.092299,0.0066274,-0.0022013,-0.02332,0.04034,0.061458
-0.24072,0.3978,0.17372,-0.0059238,-0.0022885,-0.098439,-0.048648,0.015446
0.0095264,-0.23103,-0.13313,0.051967,0.021532,-0.041593,-0.059635,-0.091223
0.1532,-0.57936,0.15175,-0.023414,-0.0089835,0.016232,-0.053704,0.068885
-0.22272,0.14149,0.024026,-0.060602,0.0075688,0.16932,-0.01416,-0.11444
0.52082,0.35297,-0.043069,0.049601,0.016329,0.11195,0.10649,0.17832
-0.49523,-0.2576,0.042667,0.02601,-0.029723,0.060315,-0.019713,-0.14715
0.44177,0.075519,-0.60087,-0.076422,-0.021298,-0.036104,0.013207,-0.012984
-0.39417,0.14178,0.21679,-0.046375,0.010351,-0.15009,-0.076579,0.010605
0.26307,-0.034733,-0.1794,0.030606,-0.0050139,-0.097744,0.085167,0.041206
0.086998,-6.3959e-05,0.68468,0.28765,0.034294,-0.076792,-0.12736,0.079398
-0.78581,0.043596,-0.27198,-0.15789,-0.012219,0.15414,0.081972,-0.17889
0.75286,-0.18408,0.032118,-0.15755,0.0039861,-0.1697,-0.029593,0.17309
-0.076312,-0.26048,0.098185,0.093249,0.004818,0.2039,0.10788,-0.083103
0.044003,-0.12281,-0.22339,-0.18696,-0.041017,-0.081465,-0.060461,0.029099
-0.45738,0.72855,0.19704,0.18121,0.03824,0.063186,-0.018957,0.025073
0.21654,0.3237,0.050343,0.0020348,-0.023204,-0.023746,-0.072111,-0.08786
-0.34861,-0.54238,-0.44162,0.064135,0.016651,0.0029373,0.038152,0.033391
0.28256,-0.17657,0.73278,0.17177,0.048272,0.13571,0.046463,-0.057229
0.33928,-0.049713,-0.71023,-0.20658,-0.045618,0.037894,-0.054836,0.045793
0.070572,0.21959,-0.16189,-0.14117,-0.030628,-0.034056,0.15613,0.044953
0.44846,-0.22849,0.42588,-0.045593,-0.023808,-0.2379,-0.23487,0.096098
-0.6984,0.49729,-0.030211,0.04198,0.053215,-0.051379,0.26407,0.066369
-0.7068,-0.79689,0.18408,0.16957,0.013251,-0.037602,-0.1598,-0.40319
0.54765,0.47693,-0.2093,0.064909,-0.00276,0.23314,0.024652,0.23522
0.52694,0.31304,-0.02052,-0.09918,-0.018,0.011283,0.067558,0.014241
-0.53068,-0.35705,-0.061054,-0.0096959,0.014549,-0.038597,-0.030633,-0.095771
0.2649,0.085092,0.30146,-0.072944,-0.053559,-0.049055,-0.34735,-0.10108
-0.044241,-0.15682,-0.16912,0.022947,0.02751,-0.075019,0.18067,0.061922
-0.34256,0.034424,-0.030076,0.011217,0.015254,0.2499,0.14782,0.15141
0.065906,0.28347,0.23927,0.054443,0.04207,0.080722,0.046578,0.14342
0.83132,0.15238,-0.1211,0.09631,0.005946,-0.23234,0.22052,-0.0024501
-1.0293,-0.71852,-0.11217,-0.02094,-0.038826,0.051791,-0.11998,-0.077116
-0.14144,0.4364,-0.20215,-0.30624,-0.037812,-0.17674,-0.31941,-0.16839
0.78042,-0.070044,0.017283,0.17738,-0.0066984,0.027731,-0.019121,-0.10586
-0.37285,-0.29217,0.05702,0.27389,0.0077758,0.072628,0.061664,0.13323
0.28538,0.035751,0.021973,-0.36736,0.021516,-0.040226,0.0086808,-0.20101
0.45826,0.36626,0.21955,-0.02616,-0.012021,0.2694,0.22816,0.38441
-0.94264,-0.052131,-0.2864,-0.013282,0.0011876,-0.22308,-0.16271,-0.38287
1.0872,0.37194,0.65218,0.27449,0.061284,-0.016169,0.046878,0.42003
-0.85282,0.026215,-0.15427,0.0024701,0.004186,0.00029681,0.083177,0.020257
-0.18393,-0.70141,-0.41198,-0.047479,-0.021818,0.099724,0.016073,-0.22274
-0.37038,-0.10187,0.039738,-0.10201,-0.04817,0.046968,-0.22512,-0.035941
0.40105,0.20722,-0.036227,-0.075914,-0.028124,-0.12802,0.015707,-0.10759
0.62675,-0.05423,-0.071037,0.16251,0.061775,0.073211,0.12167,0.31154
-0.96026,0.014912,0.17757,-0.036404,-0.01263,-0.069521,-0.031415,-0.34945
0.96002,0.66058,-0.23426,0.13878,0.014694,-0.026022,0.073374,0.32333
0.30901,-0.089457,0.19588,-0.36725,-0.06665,0.1798,-0.054454,0.033316
-0.8676,-0.52766,0.25972,0.27363,0.072037,-0.20972,-0.11616,-0.31234
0.67806,-0.071785,-0.11854,0.16356,0.017189,-0.11577,0.10876,0.084615
-0.61173,-0.023086,-0.24996,-0.39168,-0.082456,0.18136,-0.0033598,0.21807
-0.53768,0.14422,0.053344,-0.11735,-0.00031681,0.088909,-0.16284,-0.30082
0.56729,0.40753,0.079644,0.11264,0.052357,0.060708,0.12215,0.052855
-0.037393,-0.39827,0.08506,0.49412,0.035871,-0.20769,0.20179,0.061201
-0.13347,0.083006,-0.010779,-0.37169,0.0040412,0.088147,-0.16843,-0.010222
0.46336,-0.13044,0.024196,0.013882,-0.036297,-0.0056183,0.15694,0.23592
0.10631,-0.053446,-0.16344,0.21128,-0.023547,0.072566,-0.083038,-0.093093
-0.53371,0.02464,0.12062,0.085347,0.049443,-0.068902,-0.094284,-0.085936
1.1344,0.82211,-0.17038,-0.4597,-0.11448,-0.087064,-0.17562,-0.058074
-0.78262,-0.44954,0.0037893,0.19218,0.094205,0.04887,0.29713,0.15973
-0.66116,-0.084373,0.067006,0.088056,-0.058312,-0.012748,-0.27723,-0.34065
0.19589,-0.10751,0.029408,-0.37989,0.0069341,-0.060741,0.063594,0.26036
-0.11986,-0.6886,0.0024652,0.36134,0.079977,0.19439,0.17318,-0.091505
0.85456,0.38147,0.010961,-0.33341,-0.025765,-0.14527,0.092838,0.089638
0.093709,0.025771,0.10202,0.44517,0.010733,0.17854,-0.097187,-0.029838
-0.44847,0.60641,-0.014363,-0.21482,-0.052312,0.009933,0.026708,0.099657
-0.38674,-0.33482,-0.18391,-0.015783,-0.011728,-0.24456,-0.16707,-0.13638
-0.21063,0.3595,0.15328,0.18193,0.022809,0.0011928,-0.0059899,-0.056
0.50321,-0.10892,0.049204,-0.0069351,0.074141,0.036405,0.049181,0.045353
0.027283,-0.65875,-0.1624,0.1564,-0.069465,0.040829,0.013754,-0.12099
0.56054,0.014602,0.10316,-0.45666,-0.033886,0.03785,-0.019215,0.16299
-0.28746,0.47047,-0.30251,0.12749,0.055055,0.058535,0.29306,0.20023
0.4022,0.35158,0.55167,0.18059,0.048283,0.079176,-0.21453,0.168
-1.1413,-0.76366,-0.54267,-0.39897,-0.10143,-0.056722,-0.12883,-0.38149
0.27102,0.67878,0.36312,0.2185,0.051244,-0.2711,0.19805,-0.075204
-0.35201,-0.72015,-0.21963,-0.042343,-0.05583,0.17066,-0.24175,-0.031263
0.16284,0.57903,0.0012304,-0.029724,-8.7774e-05,-0.035554,0.13825,-0.038362
1.0283,-0.24173,0.066857,0.29863,0.094374,0.032956,0.010857,0.20975
-0.90167,-0.1621,0.079456,0.023287,-0.044903,0.009889,-0.12275,-0.36275
1.0716,0.62221,0.10059,-0.057573,0.012675,-0.033746,0.21506,0.46536
-0.75833,-0.69912,-0.11433,-0.31109,-0.052501,0.042947,-0.11567,-0.11646
-0.17372,0.050132,0.079767,-0.066453,0.0021474,-0.010344,-0.083622,-0.0056883
0.50663,0.1725,-0.070868,0.45571,0.067262,0.0085854,0.19336,0.31311
-1.0408,-0.13064,-0.13991,-0.16879,-0.060655,0.059259,-0.098484,-0.46601
0.84762,0.4977,0.1359,-0.067293,0.062985,0.12439,0.21102,0.23313
-0.60774,-0.47762,-0.049103,0.00036604,-0.062797,-0.2273,-0.2705,-0.34162
0.4234,0.062519,-0.20222,-0.11568,0.029665,-0.1298,0.17423,0.096915
-0.1751,0.37572,0.2877,0.27142,0.058099,0.11946,-0.4166,0.086515
0.61082,-0.61032,-0.17054,-0.26009,-0.079834,0.028504,0.3319,0.39232
-0.53676,1.0075,-0.011663,0.22034,0.013917,0.082592,-0.0093194,-0.36032
0.3178,-0.57093,0.22763,-0.14527,0.026949,0.033124,0.12345,0.079656
-0.057909,-0.38744,0.12703,0.12911,-0.071412,-0.19637,-0.2917,-0.36428
-0.43834,-0.27929,-0.4067,-0.26734,-0.014574,0.012927,0.074831,0.051857
0.81469,0.60532,0.35257,0.24486,0.081457,0.1233,0.18519,0.50161
-1.1291,-0.020987,-0.2526,0.010297,-0.047781,0.010626,-0.069312,-0.19357
0.89414,0.047592,-0.028423,-0.18186,0.075191,0.0032797,-0.032327,0.021406
0.059537,-0.24839,0.13295,0.081768,-0.064773,-0.024088,0.030066,0.0445
-0.66459,0.17211,-0.1369,-0.10641,-0.030227,-0.1583,-0.05487,-0.28176
0.83508,0.42095,0.13785,0.35337,0.12356,0.21658,-0.022567,0.040869
-1.0978,-0.21085,-0.05865,0.17021,-0.034105,-0.11178,-0.04592,0.0025808
0.14045,0.036074,0.039508,-0.43078,-0.020045,0.019368,0.16337,0.31241
0.083819,-0.89955,-0.035779,-0.020524,0.016127,0.10121,0.12838,-0.038959
0.53783,0.31132,0.021049,-0.25489,-0.098367,-0.077739,-0.30696,-0.20857
-0.11752,0.39557,-0.093754,0.094072,-0.0046203,-0.025233,0.014255,-0.032247
0.31317,-0.030353,0.089429,0.2471,0.070837,-0.037536,0.046232,0.16302
-0.29231,0.19537,0.10254,-0.028103,-0.027756,-0.035463,0.032424,-0.066011
-0.11507,-0.095423,-0.053947,0.27009,0.012908,0.083814,-0.026005,-0.1229
0.37242,-0.41641,-0.036069,-0.2872,0.045342,-0.092585,0.067016,-0.090744
0.05715,0.38926,-0.14071,0.19832,-0.031109,0.061141,-0.086828,0.056297
-0.65569,0.0091852,-0.016515,-0.32888,-0.0047776,0.092096,0.066533,0.077427
-0.17668,-0.29032,0.27357,0.30185,0.015427,0.10146,0.041445,0.23047
0.78449,0.64162,-0.12267,-0.02784,0.0062527,-0.075663,0.094026,0.23275
-0.51538,-0.25218,-0.041996,-0.35781,-0.040183,0.028447,0.050677,-0.11361
-0.5184,-0.26742,0.038045,0.132,0.024301,-0.27456,-0.41025,-0.62419
0.48386,-0.4068,0.0070958,-0.11291,-0.042859,0.053989,0.093462,0.19038
0.35548,0.15865,0.22368,0.20469,0.039166,0.06894,0.14027,0.1953
-0.25359,0.37759,-0.41433,0.21785,0.027773,-0.072791,-0.073327,-0.2429
0.78586,0.11357,0.13975,0.035807,-0.0070959,0.13752,0.10294,0.42333
-1.1531,-0.16146,-0.08261,-0.44362,-0.065745,-0.010204,-0.15701,-0.27296
0.85931,-0.19708,0.059752,0.26303,0.023469,0.12515,0.16425,0.037837
-0.77503,-0.090805,0.11444,0.15477,0.033817,-0.20644,-0.080511,-0.28238
1.0781,0.61744,0.074422,-0.33161,-0.019188,0.12727,-0.015941,0.26842
-0.15753,-0.37506,-0.028347,0.061551,0.028443,-0.11687,0.16206,0.14443
-0.82037,-0.054856,-0.13855,-0.13404,-0.026454,0.10686,-0.032246,0.11119
-0.0014774,0.60443,-0.021276,0.090455,-0.019816,-0.077598,-0.11635,-0.2075
-0.090334,-0.46524,-0.0041295,0.14266,0.056222,0.11027,0.024979,0.069216
0.40451,-0.13511,0.10866,0.30524,-0.0091569,-0.2048,-0.016129,-0.13125
-0.98993,0.13331,-0.20599,-0.35814,-0.036073,0.094658,-0.01411,-0.13121
0.85683,-0.2338,0.11458,-0.2452,-0.047705,-0.037511,-0.039466,-0.0023388
0.86349,0.015469,0.45306,0.17547,0.042177,0.11065,0.1506,0.34082
-0.49974,-0.0025693,-0.61287,0.098825,0.030733,-0.022295,-0.13019,-0.10135
-0.4705,0.0040256,0.25197,0.039629,0.019756,-0.029159,-0.028713,-0.24969
0.73973,0.13375,-0.1253,0.067066,-0.029668,-0.057782,-0.019966,0.22537
-1.0225,-0.069853,-0.21455,0.1331,-0.0081075,-0.014221,0.076983,-0.21377
0.79743,0.47354,0.59245,-0.35692,0.045365,0.26539,0.34099,0.30133
-0.14559,-0.62828,-0.36935,-0.067469,-0.048984,-0.18035,-0.24343,0.068355
-0.18808,0.29042,0.57127,0.11098,-0.01776,0.03079,-0.19225,-0.30297
0.20281,0.25798,-0.74988,-0.19599,-0.0016195,-0.093856,0.056384,0.16383
-0.94486,-0.3182,-0.12914,0.16084,-0.016206,0.023623,-0.029563,-0.086255
0.81423,0.24811,0.41909,0.18986,0.07907,-0.022912,0.11169,-0.069312
-0.36885,-0.36541,0.021627,0.0084296,-0.020552,-0.022125,0.0030021,-0.012327
0.12733,0.32457,0.16498,0.38967,0.0051177,0.034336,-0.059198,0.10779
0.87003,-0.42287,-0.19559,-0.58107,-0.00032882,0.068843,0.04979,0.072049
-0.58178,-0.11887,-0.32388,0.087867,0.033265,0.12073,0.17352,0.15371
0.3924,0.30703,0.28128,-0.33805,-0.097343,-0.10691,-0.27405,-0.25668
-0.8771,0.10032,0.065556,0.11811,-0.032835,-0.11449,-0.097668,-0.24509
0.5563,0.25886,-0.11232,0.25411,0.039283,-0.012026,0.21047,0.28227
-0.61161,-0.2337,0.25386,-0.030592,0.03308,0.082442,-0.0059415,-0.010545
0.15806,-0.32309,-0.29145,0.16334,0.089153,0.019589,0.010834,0.040477
0.23934,0.16145,0.092654,-0.14802,-0.026958,0.04078,0.065332,-0.010165
0.091249,0.16254,0.19236,-0.042939,-0.073198,-0.049953,-0.12385,0.079423
0.57024,-0.1764,-0.15099,0.14984,-0.018452,-0.018628,-0.056816,-0.058266
-0.98366,-0.08185,-0.29827,-0.11746,0.020013,-0.076252,0.12589,-0.13441
0.88652,0.20133,0.40634,-0.16609,-0.004653,0.082138,-0.059822,0.038442
-0.66648,0.2071,-0.32547,0.050134,0.024883,0.089953,0.042857,-0.016104
-0.15272,0.17089,0.20331,0.077737,0.0073125,-0.13009,-0.13561,-0.071123
0.8571,-0.18803,0.096501,0.51833,0.060142,0.087066,0.25727,0.38945
-1.1666,-0.81387,-0.3857,-0.83871,-0.14442,-0.10913,-0.14472,-0.32929
0.19385,0.68679,0.36029,0.1555,0.026724,0.063464,-0.11416,-0.008344
0.7402,0.022242,-0.031415,0.079421,0.019054,-0.050746,0.052653,0.1883
0.0012567,-0.29984,-0.076067,0.13617,0.059139,0.071973,0.082472,-0.083232
-0.58045,-0.18363,0.014867,0.16126,0.013991,0.025255,0.053079,-0.11223
0.33497,0.44483,0.037044,0.0054479,-0.038598,-0.074221,-0.16142,0.093225
0.015541,0.17578,0.067074,-0.1994,0.010321,0.038356,0.093868,0.001668
0.094725,-0.18973,0.04109,0.18662,-0.011547,0.057351,0.18445,0.14426
-0.46761,-0.070108,-0.29952,-0.32093,-0.065452,-0.018115,-0.2664,-0.2055
0.013443,0.20115,0.0062126,-0.088481,0.035969,-0.063657,0.013262,-0.078675
0.81529,0.078554,0.20139,0.17465,0.050595,-0.10291,0.061503,0.14217
-1.1215,-0.81244,-0.17337,-0.060619,-0.036953,0.1925,0.026436,-0.16001
0.92469,0.55133,0.071275,0.19231,0.031503,-0.16115,-0.036835,0.35068
-0.30132,-0.073201,0.12438,-0.010154,-0.048322,0.094828,-0.03347,-0.25581
0.11797,-0.17957,-0.18508,-0.14381,-0.018262,-0.069934,-0.0087561,0.035449
-0.56297,0.59768,0.025509,0.079987,0.059413,0.0249,0.015698,0.20795
0.50553,0.022321,0.21581,0.28466,0.012889,0.10615,0.080733,-0.20797
-0.1064,-0.43863,0.12589,-0.15718,-0.0017001,0.12672,0.0081224,-0.041129
0.25895,-0.083245,-0.16081,-0.28737,-0.023684,-0.22648,-0.021505,0.059767
-0.747,0.072528,-0.076219,-0.17878,-0.069035,-0.040285,-0.12502,-0.15501
0.83299,0.32623,-0.082664,0.55728,0.13533,0.020323,0.087902,0.26067
-0.62138,-0.77372,-0.047498,-0.28332,-0.082746,-0.037673,0.069531,-0.012255
0.26968,0.38413,-0.21963,0.11978,0.0031528,0.23827,-0.071984,-0.20666
-0.067667,0.29404,0.12169,0.040995,-0.036655,-0.24591,-0.11148,-0.039799
0.37775,0.12949,0.29916,-0.23666,0.087047,0.15043,0.31687,0.44273
-0.22002,-0.30408,0.057011,0.13274,-0.047359,-0.048998,-0.23329,-0.35979
-0.37573,0.008843,0.2012,-0.075123,-0.0098833,-0.062463,0.026495,-0.056423
0.050962,-0.088791,-0.40084,0.0088248,-0.011184,0.055994,-0.083486,0.040086
0.72288,0.30036,0.023683,0.065476,0.019247,0.088352,0.15606,0.26492
-0.080662,-0.1293,-0.11241,0.1342,0.065866,-0.027159,-0.04292,0.046658
-1.1901,-0.12813,0.072296,-0.012173,-0.0198,-0.18833,-0.187,-0.35028
0.83746,0.15589,0.25634,-0.070297,-0.066002,-0.082168,0.10003,0.11204
0.085414,-0.36199,-0.2016,-0.13566,0.03647,0.36188,0.23315,-0.043738
-0.47211,0.030738,-0.16886,0.071271,-0.025045,-0.098418,-0.19348,-0.044638
0.66247,0.030837,0.12836,0.15072,-0.039732,0.12257,-0.0003646,0.046713
-0.028816,0.35774,0.010994,-0.35893,0.054831,-0.2491,0.23362,0.097558
-0.46997,0.24527,0.089114,0.15955,0.00077878,-0.0030812,-0.43016,-0.056087
-0.014256,-0.44136,0.0038486,0.089675,0.055887,-0.014911,0.25702,0.093589
-0.10023,0.060257,0.028832,0.10451,-0.0064387,0.15249,0.10652,0.12462
0.43597,0.011856,-0.023559,-0.16173,-0.061211,-0.094917,-0.15587,-0.29119
0.39208,-0.098234,-0.0052392,0.081391,-0.030282,0.06302,-0.053887,0.15093
-0.67525,0.14098,-0.19789,-0.055615,0.016102,-0.053477,-0.048204,-0.1971
-0.091056,-0.17064,-0.04721,-0.095427,-8.2441e-05,0.016492,0.1275,0.0091896
0.28936,0.10758,0.22,0.040356,0.038457,0.14013,-0.010215,0.15354
-0.18555,-0.18664,0.08019,0.070242,0.014605,-0.18245,0.09431,-0.059898
-0.034497,0.12189,0.0021552,0.29819,-0.001314,0.033322,-0.14413,0.025963
0.54342,0.27186,-0.060837,-0.39409,-0.0093471,-0.024688,0.063894,0.16162
-0.40243,-0.075769,-0.069481,-0.054826,-0.025202,0.11272,0.022951,0.1127
-0.88741,-0.54934,-0.13285,0.21305,-0.0020839,-0.19457,-0.16594,-0.62124
0.88296,0.51101,0.038418,-0.25579,-0.03379,0.07731,0.019769,0.17763
0.58326,0.12317,0.077302,0.2017,0.06719,0.10049,0.36032,0.29718
-0.37969,-0.60287,0.093104,0.18643,-0.011578,-2.3795e-05,-0.051426,-0.11555
0.36859,0.35517,0.093252,-0.21589,-0.012175,-0.04481,-0.32536,0.1724
-0.39068,0.54138,-0.055719,0.26845,0.034286,0.04378,0.10895,-0.097962
-0.74144,-0.5483,-0.088952,-0.5238,-0.075184,-0.16451,-0.16956,-0.23994
0.39201,0.057858,-0.16334,0.12737,0.06579,0.20482,0.114,0.16036
0.14402,-0.16863,0.16612,-0.018633,-0.058329,-0.075092,0.11772,0.0018928
0.074562,-0.27153,0.0012081,0.2195,0.036872,-0.0824,0.046561,-0.03447
-0.40203,0.1514,-0.0088806,0.093203,0.038861,0.026927,-0.066753,-0.048655
0.49706,0.63621,0.027701,0.10347,-0.036841,0.050262,-0.11207,0.047082
-0.3598,-0.0063669,0.0030744,-0.28042,-0.026343,-0.043059,0.019876,0.059075
0.55798,-0.3313,-0.073446,-0.13654,0.023254,-0.049404,0.17186,0.066646
-0.31562,0.022335,-0.11471,0.14417,-0.021119,0.15649,-0.040675,-0.070275
0.0048337,-0.26224,0.0049039,-0.10294,0.012146,-0.034814,-0.11991,-0.11745
0.31434,0.12521,0.23057,0.12127,0.036865,-0.029994,0.15843,0.11967
-0.11766,0.19182,0.32695,0.026618,0.013783,0.029634,-0.066942,0.061816
-0.39776,-0.37475,-0.49667,-0.005489,-0.072829,-0.13018,-0.13323,-0.097026
0.26592,-0.0043563,0.12488,-0.070385,0.034858,0.15385,0.068608,0.048209
-0.77139,0.1607,-0.16973,0.26001,-0.006751,-0.10319,9.3003e-05,-0.06581
0.86235,0.45205,0.055489,-0.24223,-0.025497,0.028182,0.03762,0.029333
-0.29567,-0.43489,0.1826,0.15644,0.01806,-0.0065512,-0.090364,-0.15056
0.21429,0.27775,-0.1008,-0.27062,0.014959,0.066573,-0.0068651,0.1529
0.063101,-0.15086,0.0030535,0.078957,0.020269,-0.064165,0.15702,0.018593
-0.00049559,-0.080747,-0.074703,-0.027623,-0.012593,-0.085377,0.14464,-0.0058829
-0.44689,0.32278,-0.043314,0.036721,-0.028788,0.11314,-0.30921,-0.084132
0.50323,-0.19842,0.083157,0.13354,0.010741,-0.053954,0.052966,0.15113
-0.22236,-0.34558,0.087066,-0.13374,-0.01917,0.069858,0.12092,0.043382
-0.18761,0.191,-0.038968,0.11102,0.013984,0.093838,-0.13783,-0.12662
0.56014,-0.072421,0.14228,0.12593,0.07074,-0.11526,0.056609,-0.086018
-0.31413,-0.077451,-0.065361,-0.26928,-0.068093,-0.081496,-0.0078686,0.063215
-0.026675,0.43184,-0.1552,0.033499,0.018959,0.10074,-0.0039865,-0.069698
-0.42501,-0.23292,0.01231,0.10292,-0.012139,-0.029988,0.12257,0.18731
0.62886,-0.049374,-0.079228,-0.14862,-0.044308,-0.028625,-0.08898,0.069115
-0.64846,0.0034367,0.17147,0.29315,0.070989,0.011094,-0.15365,-0.38454
