-0.16636,-0.17086,0.057832,-0.025402,0.0014004,-0.00081882,-0.025854,0.13564
0.030668,0.051293,0.055596,0.044155,0.001323,0.030143,0.046461,0.10577
0.0516,0.2599,-0.030124,0.0049351,-0.0068559,-0.0089792,-0.088936,-0.14975
0.24602,0.10128,0.04267,0.021012,0.008169,0.022484,0.059349,0.16415
-0.43368,-0.068629,-0.03154,-0.017145,-0.00038003,-0.008297,0.27924,-0.10261
-0.10402,-0.54279,0.16781,-0.00044653,0.0066849,0.023604,0.092986,0.18164
0.13536,0.52686,0.084571,0.016083,-0.017377,-0.077229,-0.59414,-0.42094
0.20912,-0.19001,-0.29806,-0.077232,-0.0099482,0.009411,-0.024792,-0.011374
0.065651,0.12643,0.050664,0.031918,0.013428,0.033437,0.0042041,0.075715
0.0047032,-0.23337,-0.16572,0.007566,0.0058983,0.010415,0.25894,0.20923
-0.033977,-0.32129,-0.039639,0.0060959,0.0064853,0.0028125,0.13842,0.078378
-0.36149,-0.071363,0.18085,0.035592,0.015094,-0.012814,0.033645,-0.026493
0.65547,0.8789,0.17751,-0.028589,0.0003516,0.018242,0.10083,0.0046156
-0.67882,-0.070193,-0.008893,0.0092489,-0.030044,-0.052414,-0.55892,-0.2659
-0.021856,0.19852,-0.19784,-0.038052,-0.0058541,0.033097,0.21769,0.12997
0.40557,-0.88724,0.001023,-0.0061917,-0.020846,-0.014211,0.023544,-0.051129
0.030423,-0.010715,0.1566,0.034596,0.026573,0.016674,0.08449,0.10351
0.099408,0.70651,0.016526,0.021688,0.019267,0.0086109,0.095445,0.022239
-0.43009,-0.22419,-0.34399,-0.084315,-0.011483,-0.022762,-0.17789,-0.1007
-0.17085,0.029868,0.25955,0.067636,-0.011009,0.016278,0.054153,0.14027
0.56185,0.13134,-0.01134,0.015988,0.012795,0.00067517,0.034923,-0.059633
0.39144,-0.45798,0.30272,0.1039,0.04418,0.0084942,-0.24182,-0.13741
-0.43984,-0.19588,-0.0094107,-0.090921,-0.026354,-0.014993,0.28039,0.13454
-0.30498,0.43038,-0.80573,-0.099851,-0.019197,0.00052696,-0.053022,-0.062642
-0.411,-0.049944,0.29163,-0.047655,-0.043703,-0.038642,-0.20958,-0.078942
0.6771,-0.092357,0.060012,0.050606,0.017443,0.047282,0.13147,0.079222
-0.55047,0.064816,0.28497,0.078498,0.023835,0.016224,0.16495,-0.0012973
0.88802,0.040105,-0.037461,-0.033541,-0.024277,-0.045792,-0.14188,0.17192
-0.48072,0.042847,-0.060893,0.082226,0.053013,0.0018885,0.044644,-0.10478
-0.077993,0.21716,-0.018765,-0.027117,-0.0097969,0.026391,0.33126,0.10498
0.17959,0.2678,-0.11514,-0.02581,0.0060429,-0.027131,-0.41735,-0.21596
-0.33049,-0.57756,0.20985,-0.023732,-0.0089616,0.083268,0.070446,0.040244
0.59555,0.089384,-0.10229,-0.0059546,-0.031575,-0.048944,-0.22954,0.036363
0.36422,-0.13333,-0.048051,-0.020078,-0.015155,-0.056842,0.0034712,-0.11902
-0.51502,-0.40248,0.032642,0.019249,0.0088328,0.035962,0.23971,0.081665
-0.37352,0.54217,0.29314,0.088268,0.055855,0.018492,-0.0030242,0.099649
-0.19475,-0.27122,-0.06469,-0.039556,-0.022604,-0.030996,0.082281,-0.064391
-0.059457,0.061622,-0.61827,-0.066956,-0.0077727,0.044039,0.036759,-0.050156
0.81456,0.27284,-0.060392,-0.0088509,-0.0010948,-0.052858,-0.083396,0.26839
-0.9527,0.43698,0.44867,0.041902,0.028894,0.038179,-0.12112,-0.20929
0.43811,-0.58431,0.21007,0.015889,-0.026896,-0.018296,0.040927,-0.16972
0.19782,-0.0095033,-0.30364,-0.11744,-0.066595,0.074999,-0.035181,0.10666
0.079804,0.33986,0.22256,0.04845,0.019434,-0.15825,-0.029993,0.0032477
0.50412,-0.17093,0.18012,0.083657,0.02821,0.078848,0.18032,0.19216
-0.30944,-0.34826,-0.30698,0.11243,0.069066,-0.010822,-0.1478,-0.15489
-0.92602,0.11944,-0.33501,-0.077314,-0.00668,0.02535,0.28898,-0.10878
1.025,0.13854,0.5847,-0.018071,-0.027567,0.046007,-0.28402,0.18112
-0.069451,-0.2666,-0.27046,-0.039025,0.021537,0.12062,0.038552,0.1043
-0.83567,0.092636,-0.04471,-0.12511,-0.094197,-0.27502,-0.032773,-0.074689
0.15114,-0.06444,0.0090734,0.036292,0.0077411,0.038165,-0.18537,-0.27858
0.43763,0.43341,0.14691,0.13347,0.061645,0.13025,0.37048,0.21876
-0.16728,0.0058803,-0.16306,-0.082283,-0.026084,-0.14707,0.065539,-0.12947
0.29727,0.27446,-0.092114,0.015516,0.018329,0.14418,-0.1301,0.23195
-0.83868,-0.56193,0.37697,0.0063099,-0.023421,-0.12813,-0.25409,-0.31341
0.43491,0.055281,-0.19871,-0.03877,0.044433,0.044584,0.069888,0.16499
0.8378,0.12339,0.082157,0.083486,-0.027738,0.038014,0.10059,0.12871
-0.81106,-0.38187,-0.089803,-0.0026387,-0.028774,0.063568,-0.020978,0.015506
0.72616,0.064096,-0.34439,-0.1345,0.010114,-0.13635,0.01738,-0.19822
-1.0189,-0.1611,0.43818,0.37358,0.010656,0.07107,0.12087,-0.098972
0.38913,0.20348,-0.052678,-0.30056,0.074133,0.076314,0.06912,0.24993
-0.12431,0.011902,-0.15972,0.029202,-0.057613,-0.05043,-0.13972,0.050762
0.62296,0.82765,0.42953,0.08884,0.021356,-0.035709,-0.085471,0.076249
-0.9765,-0.5221,-0.32499,-0.20714,-0.048519,-0.098048,0.058915,-0.3927
0.86056,0.0069172,0.1765,-0.0057541,-0.0094296,0.012978,-0.14427,0.073712
-0.043118,-0.041841,-0.53705,-0.031494,-0.0096291,0.055687,0.16509,-0.039604
-0.80939,-0.054222,0.19584,0.1085,-0.001937,0.077353,-0.12081,0.26815
0.22193,-0.14897,0.11475,0.04887,0.02959,-0.062546,0.070333,-0.095958
0.28215,-0.22389,0.16259,0.087423,-0.008586,0.0028331,0.045178,-0.076673
-0.16216,-0.43232,0.2124,-0.026018,0.055422,0.053923,-0.04635,-0.0097781
1.1926,0.98823,0.020767,0.20733,0.065153,0.034834,0.062007,0.29974
-0.80187,-0.12861,-0.37336,-0.097214,-0.065712,-0.040189,-0.0051487,-0.14094
-0.76047,-0.011938,-0.17976,-0.37136,-0.095424,-0.094312,-0.053895,-0.21537
0.99314,0.38157,-0.028806,0.055154,0.038151,-0.011281,0.062079,0.16966
-1.0889,-0.711,-0.20622,-0.04507,-0.0089209,0.20071,0.027821,-0.079724
0.81472,0.35998,0.70559,0.13267,0.013401,-0.19245,0.075419,0.060341
-0.78643,-0.21822,-0.18891,0.15943,0.0037959,-0.088374,-0.21085,-0.2139
0.53854,-0.16558,0.033734,0.012915,0.025127,0.21729,-0.050428,0.098781
0.59335,0.344,0.16239,-0.063494,0.030898,-0.14913,0.010173,0.27307
-0.57183,-0.30149,-0.508,-0.25633,-0.087971,0.14165,-0.0042824,-0.17449
0.10458,0.26197,0.40214,0.23186,0.020219,-0.14401,0.15815,-0.071665
-0.14044,-0.14115,-0.19702,0.088692,0.050736,0.13465,0.038658,0.034329
0.004648,0.055519,0.10491,-0.15483,-0.035691,-0.03058,-0.11085,0.040932
0.86478,0.35585,0.34423,0.17271,0.080946,0.14854,0.14848,0.19667
-1.0637,-0.22014,-0.67566,-0.17135,-0.060599,-0.12582,-0.2139,-0.21886
-0.10363,-0.0029473,-0.34505,-0.077934,-0.03084,-0.11226,0.012978,-0.34774
0.97209,0.15513,0.81444,0.14043,0.006139,-0.022101,0.21934,0.71532
-1.004,-0.7526,-0.35071,-0.13317,-0.043217,-0.050506,-0.0017174,-0.31891
-0.16374,-0.066964,0.14693,0.17202,0.032405,0.12346,-0.1664,-0.082544
0.89658,0.6146,0.46633,-0.052902,0.038163,0.047595,-0.071932,-0.14441
0.20122,0.24192,-0.39828,-0.11233,-0.0098692,0.019723,-0.023052,0.036565
-0.56716,-0.36855,-0.086281,0.08747,0.005818,-0.014085,-0.019565,0.1891
-0.12369,0.082727,-0.018952,0.10864,0.015036,-0.0065424,0.19657,-0.028738
-0.27817,0.29987,-0.15704,-0.11201,-0.021369,-0.02794,-0.038698,0.14974
0.10244,-0.55368,0.09317,0.26843,0.0057094,-0.031711,0.039893,-0.24414
0.63962,0.73904,0.54404,-0.32112,0.0099582,0.051927,0.025295,0.24184
0.41905,-0.53524,-0.78132,-0.029629,-0.024649,0.042663,-0.028886,-0.034709
-1.072,-0.11318,0.21803,-0.083799,-0.043784,-0.23981,0.024692,-0.20106
0.36826,-0.23091,0.09567,0.086921,0.01478,0.1649,-0.11162,-0.21277
0.18901,0.42292,0.053048,0.24084,0.049287,0.04536,-0.016129,0.39663
-0.36493,-0.59766,0.22075,-0.12928,0.0049239,0.018362,-0.032058,-0.21848
0.27239,0.65991,-0.2241,0.047373,-0.016835,-0.04926,0.068306,0.26868
-0.1742,0.71062,0.036345,-0.033566,0.023002,0.0062723,-0.057308,-0.12696
0.35228,-0.74324,-0.14045,0.088992,-0.039678,-0.06522,-0.087187,-0.09287
0.023117,0.25856,0.19781,-0.30368,0.0060463,0.056538,0.18267,0.26238
-0.54,-0.53426,-0.034287,0.17899,0.0039657,0.074821,0.080445,-0.15336
-0.25003,-0.34775,-0.29573,-0.13499,0.0088833,-0.19753,0.027116,-0.1737
0.029909,0.17881,0.0024885,0.051075,-0.010254,0.2166,0.0054035,-0.014601
0.7033,0.46129,0.13744,0.33066,-0.0063017,-0.13524,-0.18986,-0.055951
-0.49172,-0.30325,0.18292,-0.21063,-0.0023751,-0.0022691,0.017572,0.20483
0.039144,0.68322,-0.14759,0.16126,0.064369,0.11627,0.14206,0.20703
0.55763,0.061604,-0.032613,-0.31945,-0.063553,-0.10709,-0.20726,-0.22053
0.53173,-0.41858,0.1602,-0.051065,-0.034296,-0.09376,-0.13114,0.038865
-0.60564,0.03093,0.20242,0.091902,0.042964,0.15642,0.075275,0.13219
-0.40039,-1.0436,0.11482,0.14148,0.0042608,0.080824,0.27363,-0.15353
0.30432,0.67804,-0.59753,0.07518,0.07614,-0.070977,0.075629,0.0077042
-1.0678,0.3372,0.024253,-0.074861,-0.085279,-0.073055,-0.016808,-0.11247
0.55776,0.27095,-0.051998,-0.089228,-0.003654,-0.0042613,-0.38527,-0.093302
0.2575,-0.32398,0.10372,-0.1239,-0.030836,0.001898,0.12686,0.072583
0.00028435,-0.10244,-0.062101,0.023996,-0.0031005,0.015176,0.0034097,0.18224
-0.0022913,-0.0006341,0.10041,0.064636,0.055746,0.058649,0.10245,0.079954
0.8985,0.23256,0.20945,0.35615,0.10625,0.030613,0.23459,0.17259
-0.9307,-0.19873,0.28861,0.17045,-0.14102,-0.20949,-0.35233,-0.72684
0.42283,-0.16089,-0.30356,-0.75957,-0.053603,0.24484,0.11305,0.27251
-0.63623,-0.23158,-0.13892,0.18996,0.12609,-0.098227,0.0040795,0.20965
0.79727,0.30009,0.023022,-0.059596,-0.047346,-0.027356,0.030785,0.21706
-1.0423,0.65992,-0.38157,0.023211,-0.0035133,-0.034382,-0.19753,-0.2214
0.065003,-0.70837,0.46715,0.28294,0.0078635,-0.080034,0.0073782,-0.30943
0.91863,0.6461,0.015008,0.16614,0.026292,0.24975,0.20148,0.4369
-0.50967,-0.63872,0.068162,-0.37271,-0.064843,-0.076533,-0.090247,-0.49829
0.24395,-0.065531,-0.5276,-0.22288,0.00071177,0.0031902,0.071059,0.45525
-0.72466,0.019478,0.24548,0.50738,0.028235,0.01184,-0.21991,-0.45239
0.71032,-0.073251,0.13915,-0.26707,0.0025645,-0.1057,0.15439,0.099225
0.51717,0.41237,0.24023,0.14172,0.0098868,0.13476,0.31103,0.78207
-0.74302,-0.18924,-0.24837,0.046265,0.02676,-0.25101,-0.070708,-0.27089
0.49835,0.52678,-0.17948,-0.44447,-0.017382,0.17498,-0.077023,-0.27806
-0.78335,-0.69857,-0.0082888,0.22334,-0.021428,-0.031888,-0.41084,-0.48093
0.59925,0.4621,0.71597,0.13438,0.014067,0.01977,0.038034,0.24667
-0.38397,-0.2334,-0.44624,-0.048905,-0.036462,0.018034,0.013163,0.085853
-0.69194,-0.58094,-0.19923,0.093605,0.029627,0.033465,0.27386,0.2099
0.55239,0.78881,-0.050721,0.41962,0.0088626,-0.059112,-0.11631,0.025964
0.20156,-0.69916,-0.2806,-0.74393,-0.036438,-0.018082,0.17091,-0.098683
0.73125,1.0059,0.55102,0.02439,0.0030643,0.12445,-0.03752,0.092866
0.25555,-0.3887,-0.076495,0.13914,0.0337,-0.10902,0.045068,-0.065231
-0.57417,-0.050569,-0.074701,-0.15611,-0.0068808,0.030721,0.016986,-0.13779
-0.60724,0.15703,-0.059209,0.28125,0.014321,0.027584,-0.14864,0.11498
-0.16889,-0.7939,0.39995,0.2112,0.0037573,-0.079338,0.053147,0.011388
-0.50445,-0.034013,-0.37015,-0.25493,-0.053984,-0.094202,-0.23865,-0.27795
1.0729,0.35137,0.18311,-0.20946,-0.0024146,0.11675,0.077574,0.28578
0.79941,0.80629,0.11188,0.32491,0.11968,0.070329,0.21449,0.25804
-0.7973,-0.18812,-0.39091,0.043537,-0.070212,-0.15418,-0.12163,-0.44542
-0.27389,-0.19917,-0.022241,-0.28069,-0.056125,0.30354,-0.004966,0.12303
0.38438,0.064472,0.021874,-0.062816,-0.040886,-0.29816,-0.0017897,-0.11998
-0.90127,-0.56649,0.015152,0.17247,0.04603,0.10332,-0.10094,-0.19555
0.80533,0.27901,0.26327,-0.060561,0.087477,0.046639,0.15273,0.56989
-0.42855,-0.58078,0.0097009,0.21334,-0.010477,-0.14863,-0.021689,-0.1667
0.64139,0.58059,0.17749,0.086806,0.0017469,0.078993,0.21031,0.25836
-0.75955,-0.18866,-0.77948,-0.36283,-0.07178,0.048685,-0.099461,-0.45311
0.79353,0.74646,0.48276,0.012526,0.010416,-0.08442,-0.10319,0.1189
0.10528,-0.20557,0.010742,0.048985,0.0054567,0.10841,0.078102,0.011475
-0.96701,-0.26946,0.17095,-0.14348,0.014354,0.048392,-0.13684,-0.13638
1.0741,-0.17838,0.15783,0.38131,0.028983,-0.2335,-0.10147,0.14309
-0.88989,-0.57232,-0.59959,0.11652,-0.0053573,0.21605,0.090164,-0.017599
0.11123,0.84579,-0.10159,-0.53855,-0.080561,-0.23518,-0.1233,-0.17283
0.77044,0.42747,0.26936,0.21361,0.061752,0.085646,0.22915,0.21717
-0.97266,-0.71792,0.31886,-0.017246,-0.030788,0.13275,0.17376,0.27038
-0.064842,0.28482,-0.14703,0.097101,0.0020188,-0.053715,-0.23981,-0.52033
0.72232,-0.071413,0.068572,0.14249,0.067186,0.019337,0.02977,0.3064
-0.79502,-0.2151,-0.3218,-0.28755,-0.084705,-0.06158,-0.055161,-0.28846
0.68375,-0.16807,-0.1762,0.05677,0.038845,-0.022819,-0.01762,0.20265
0.63727,0.23529,0.49839,-0.066838,0.039418,0.096411,0.14185,0.25581
-0.94324,-0.15251,-0.055701,0.24794,-0.0051089,-0.10277,-0.0077417,-0.29357
-0.11732,0.25423,-0.097012,-0.13929,-0.024862,0.12119,-0.054145,0.04625
0.098061,0.35997,-0.064602,0.021824,-0.020363,-0.13087,-0.046152,-0.29524
-0.068132,-0.10419,0.039271,-0.18243,-0.031182,0.1091,0.037992,0.26021
0.78929,-0.22061,0.0557,0.31064,0.067265,-0.073523,0.040892,0.21309
-0.48937,-0.1499,0.013292,-0.2569,-0.030011,0.086513,-0.022257,-0.0062297
-0.6195,0.018554,0.058315,0.059699,-0.034145,-0.16096,-0.10426,-0.48284
0.95767,-0.12321,-0.29487,-0.13131,-0.0077834,0.098158,-0.079202,0.1825
0.13145,0.24569,0.23497,0.14505,0.025494,-0.073484,0.11671,0.15446
-0.22053,0.018833,0.32887,0.37127,0.13583,0.082147,0.19571,0.17552
-0.66878,-0.15822,-0.53399,-0.04817,-0.067575,0.12777,-0.11459,-0.17631
-0.37224,0.21291,-0.13919,-0.1379,-0.014551,-0.10048,-0.079272,-0.39373
0.45232,-0.27533,0.0091519,-0.49185,-0.087914,-0.00083055,0.082915,0.51459
0.23199,-0.28128,0.14854,0.094246,0.032841,-0.10431,-0.011314,-0.061752
0.54355,0.47253,0.1714,0.11488,-0.042497,-0.043426,-0.081482,-0.22533
-0.32628,0.37054,0.21828,0.0028398,0.053846,0.096192,0.12158,0.24964
0.10159,-0.28356,0.21694,0.30821,0.041281,0.017945,-0.0043671,-0.059061
-0.73714,-0.11817,-0.25004,0.0023542,-0.0092709,0.08915,-0.20183,-0.16678
0.15837,-0.04459,-0.29598,-0.17892,0.0041968,-0.049653,0.0058429,0.060188
0.47116,0.20487,-0.26032,-0.13403,-0.050919,-0.078472,0.19728,0.045197
-0.32362,-0.38298,0.13593,0.19813,0.04409,-0.052507,-0.001692,-0.14746
0.54247,0.38304,0.1734,-0.14583,-0.023541,0.13701,-0.0041748,0.24185
-0.45305,-0.42128,-0.084369,0.19828,-0.0042277,0.020741,-0.07481,-0.20728
0.80056,0.26612,0.29453,0.25878,0.070291,-0.042341,-0.0018269,0.17781
-0.83332,-0.061447,-0.038673,-0.55257,-0.066083,-0.044554,-0.0034263,0.053313
0.27899,0.074684,-0.26882,-0.088556,-0.062185,0.11589,-0.087278,-0.14424
-0.11357,0.13767,0.012337,0.2211,0.081704,-0.20888,0.11344,0.028679
-0.77949,-0.83191,0.1573,-0.21633,-0.040832,-0.025894,-0.066267,-0.19593
-0.013711,0.59584,-0.084188,0.29617,0.015449,0.040682,0.16122,0.18708
0.76641,0.56793,0.41156,0.23704,0.086472,0.22585,-0.0028137,0.29233
-0.57543,-0.18411,-0.66223,-0.3687,-0.10898,-0.13421,-0.060281,-0.3824
0.61059,-0.21856,0.26241,0.30034,0.061952,0.16341,-0.0050629,0.098893
0.89931,0.13313,0.2537,-0.20844,-0.017805,-0.045984,-0.16639,-0.16283
-0.4834,-0.27163,-0.2912,-0.16058,-0.051216,-0.30232,0.16643,0.11407
0.2936,-0.23726,0.19789,0.17043,0.063516,0.20608,-0.052814,0.18094
-0.80001,-0.17508,-0.12163,0.17525,-0.009248,-0.044777,0.021185,-0.14762
-0.48937,0.27139,-0.30218,-0.29434,-0.042617,0.093404,-0.14068,-0.0096305
0.28423,0.069242,-0.075135,0.1137,0.026213,-0.082166,0.19834,-0.019499
-0.58091,0.23251,0.49224,-0.17819,-0.029103,0.030806,-0.053328,-0.041805
0.45755,0.36799,-0.035093,-0.036791,0.018068,-0.097963,-0.058164,0.034949
0.67061,-0.059948,0.10978,0.28788,0.042619,0.095001,0.067374,0.20434
-0.46748,-0.60454,0.020509,0.076404,0.020831,-0.15519,0.049612,-0.24408
0.38297,-0.047462,-0.2106,0.15556,-0.032068,0.1752,0.012417,0.05648
0.0039651,0.11724,-0.14844,-0.35152,-0.022748,0.12498,-0.077245,0.24548
-0.18515,-0.20705,-0.053739,-0.15784,0.017207,-0.072201,0.051971,-0.29598
0.63077,0.20275,-0.015307,0.20349,-0.02955,0.020077,-0.12539,-0.0073637
-0.39061,0.81165,0.65187,0.0046581,0.0089177,-0.18523,-0.040653,0.14847
-0.85678,-0.72782,-0.53838,-0.067293,-0.054631,0.0063075,0.086439,-0.27544
0.34545,0.081067,-0.0088853,0.081815,0.061436,0.00048075,0.091519,0.3525
-0.56638,-0.17047,0.021591,0.062574,0.013768,0.023871,0.037474,-0.14033
0.97973,-0.28086,0.3352,-0.16229,0.0057892,0.069079,-0.12162,0.034927
0.26111,0.60096,-0.26945,-0.051632,-0.024873,0.003922,-0.064089,-0.035538
-0.6312,-0.14185,-0.055685,0.28721,0.062337,0.039987,0.063157,0.0083115
0.53445,-0.078722,-0.036517,-0.20656,-0.029683,-0.040968,0.019432,0.0033634
-0.52689,-0.16951,-0.01416,0.054083,-0.01999,-0.0042883,-0.053407,-0.15087
0.32774,0.094521,0.25549,-0.078937,-0.026068,-0.076488,0.15012,0.23413
-0.68274,0.29998,-0.19537,-0.004496,-0.048125,0.078238,-0.11193,-0.29405
0.15828,0.18946,0.00017557,0.19035,0.069996,0.0065347,-0.011696,0.17895
0.74501,-0.54131,-0.010986,0.16809,0.0079944,-0.080898,0.12979,0.12947
0.0092681,0.045907,0.15918,-0.48707,0.008127,0.15952,-0.024372,0.13495
-0.50819,-0.094354,0.21066,0.31707,-0.0076584,-0.15506,-0.20953,-0.25862
0.78114,0.45423,0.14042,-0.13933,-0.0080796,0.03014,0.065671,-0.020836
-0.81323,-0.0084043,-0.73345,-0.2708,-0.016601,-0.065895,0.05853,-0.0036873
-0.040983,-0.4944,0.064733,0.37591,0.037015,0.17434,0.08139,-0.066391
0.078558,-0.094172,-0.06589,-0.12054,-0.019203,-0.045684,0.0016323,0.12779
-0.39246,0.0071429,0.1189,0.06873,-0.013455,-0.04597,-0.19589,-0.23238
0.83674,0.7789,0.23132,0.28818,0.054245,0.025274,0.24728,0.54207
-1.068,-0.71821,0.19615,-0.53978,-0.081651,-0.089656,-0.29318,-0.58667
0.6745,0.20675,-0.18739,0.13989,0.00090809,0.015446,0.13643,0.16337
0.38024,0.5159,0.097727,0.12424,0.067804,0.066926,0.044247,0.18282
-0.2803,-0.32985,-0.18247,0.2025,-0.0056629,0.072208,0.031811,0.017757
-0.024667,0.021224,0.026307,-0.27356,-0.055135,-0.10205,0.083139,0.0027158
0.79279,0.3524,-0.081457,-0.061397,0.013373,0.059187,-0.22427,-0.17646
-0.52014,-0.69038,-0.037946,-0.035462,0.020312,-0.046212,0.15575,0.26782
-0.23306,-0.41022,0.17169,0.023608,0.012572,-0.02023,-0.082113,-0.35281
-0.22951,0.44853,-0.20304,0.17887,-0.0021337,-0.011505,0.077396,0.071043
-0.27859,-0.027279,0.29073,0.079062,0.022877,0.058148,-0.076658,0.079387
0.23914,-0.11668,-0.16743,-0.14306,-0.061066,-0.053158,-0.028312,-0.076148
-0.36438,0.29121,0.023972,-0.097343,0.011438,0.03787,-0.097326,-0.11243
0.21824,0.31249,0.044431,0.043504,-0.0019665,0.027112,0.084047,0.065862
0.639,0.02038,0.042038,0.10658,0.015811,-0.053621,0.15677,0.27202
0.40785,-0.0082636,-0.35876,0.090869,0.0022479,-0.024175,-0.07453,0.10729
-0.91374,-0.23921,0.25536,-0.16073,0.0042479,0.076701,0.11623,-0.17973
0.78645,-0.038981,0.063185,-0.1487,-0.0093887,0.030387,-0.20924,-0.099047
-0.20337,-0.056121,0.28254,0.17375,0.023879,-0.092854,0.22946,0.07342
-1.0353,-0.58693,-0.40773,-0.0055939,-0.028756,0.019279,-0.14642,-0.19575
0.86372,0.49589,-0.039417,-0.13935,-0.011094,-0.00071204,-0.055694,0.13109
-0.027504,0.38426,0.13735,0.12459,-0.0091873,0.018676,-0.036889,0.0066739
-0.6983,-0.31365,-0.18176,0.013154,0.015849,-0.063579,-0.026369,-0.091801
0.12845,0.012067,0.16027,0.018628,0.024734,0.072453,-0.022677,-0.069189
0.63688,0.050683,0.14107,0.00805,0.025063,0.00456,0.10841,0.31067
-0.097705,-0.12498,-0.11322,0.41085,0.071372,0.0059408,0.16475,-0.075492
0.36744,0.44884,-0.26561,-0.64811,-0.13323,0.029625,-0.040878,-0.015383
-0.68876,-0.65461,0.39564,-0.020196,-0.0495,-0.018047,0.076948,-0.14889
-0.018099,0.44257,-0.11326,0.053038,-0.0052097,-0.066474,-0.31106,0.024106
0.38637,-0.24103,0.020473,0.22104,0.03919,-0.15428,0.12168,0.19069
0.033064,0.1961,-0.031108,0.078727,0.092009,0.16435,-0.017034,0.045486
-0.59113,0.24161,-0.15852,-0.19318,-0.018242,0.014791,-0.04885,-0.29496
0.83082,-0.27292,0.12274,0.062166,-0.01795,0.069103,0.12693,0.12212
-0.31186,-0.19562,-0.02309,0.09478,0.045941,0.022469,-0.0056636,0.10157
-0.6756,-0.43758,0.068161,-0.10381,-0.10029,-0.031742,-0.1105,-0.28562
0.58341,0.37026,-0.072304,-0.042649,0.011685,-0.047166,0.039571,0.2351
-0.33272,0.3373,-0.077651,0.018807,0.0063933,0.014806,0.062603,-0.038177
-0.26338,-0.21854,0.020112,0.094388,0.024021,-0.19763,-0.0091818,-0.13571
0.73751,0.43213,0.21983,-0.15352,-0.0060887,0.20621,-0.0029683,0.075674
0.401,-0.01471,0.17629,0.26599,0.0095992,-0.046773,-0.10546,0.032953
-0.084785,-0.2314,-0.37762,-0.26493,-0.0071035,-0.049826,0.1058,0.14869
-0.073422,-0.022727,0.095862,0.33976,0.022024,0.06475,-0.048522,0.084646
-0.9194,-0.074432,-0.3962,-0.46594,-0.012141,0.078572,-0.0057654,-0.20094
0.094192,-0.092562,0.443,0.092973,-0.023271,-0.055095,0.21847,-0.046512
0.74174,0.056466,-0.026552,0.018407,0.028184,0.046471,-0.1102,0.13993
-0.62042,-0.56061,0.024491,-0.0002361,-0.068193,-0.070107,-0.20268,-0.2593
0.54775,0.3832,0.027405,0.35103,0.039629,-0.045758,0.042714,0.1005
-1.0071,0.23922,-0.14109,-0.15359,-0.030843,-0.036984,0.032405,0.0028376
0.65149,0.0923,-0.057541,-0.060992,0.087673,0.057635,-0.06166,-0.11945
0.20309,0.11876,-0.048867,-0.075067,0.0043803,0.081818,0.21347,0.2527
-0.14193,-0.28163,0.15115,0.052982,-0.031133,-0.058149,-0.033381,-0.041791
0.71607,0.38938,0.089251,-0.045355,0.0039925,-0.010649,-0.13132,-0.11812
-0.34384,-0.28645,-0.040156,0.0037955,-0.047115,-0.010036,0.23868,0.14154
-0.68644,-0.13471,0.066128,0.066933,-0.013125,0.09211,-0.2607,-0.037068
0.28316,0.33967,-0.046803,-0.12952,0.035288,-0.11832,0.25215,0.18787
0.19818,-0.43689,-0.22437,0.26641,0.051119,0.17894,-0.15316,0.0090344
-0.98837,-0.13707,0.21975,-0.17415,-0.059273,-0.21141,-0.27361,-0.37316
0.67599,0.21761,-0.082046,-0.16891,-0.037774,0.031009,0.17264,-0.11721
0.50235,0.10785,-0.058981,0.13467,0.061344,0.015662,0.092875,0.15825
0.23047,-0.23444,-0.077009,-0.02837,-0.019294,-0.0073721,0.082132,0.11672
-0.73694,0.21172,0.20156,0.13893,0.017555,0.086887,-0.092773,-0.054145
0.57227,0.0051158,0.036442,-0.090521,0.0080621,-0.029857,0.037791,0.15408
-0.81549,0.022756,-0.1097,0.10246,-0.016458,0.0014471,0.0524,0.093716
-0.068906,0.17042,-0.048149,0.34925,0.022029,0.0085117,-0.14264,-0.32828
