0.10027,0.031188,0.016986,0.0073633,-0.0048258,-0.011127,-0.24016,0.19545
0.15664,-0.00038399,-0.014906,0.0082996,0.0093663,0.0097486,-0.0269,-0.46217
-0.045779,-0.016942,0.016266,0.0015848,0.0076363,0.014649,0.050696,-0.034322
0.14236,0.051912,0.016772,-0.0051432,-0.0019315,0.0037979,-0.0066655,-0.046026
-0.18434,-0.051472,-0.021284,-0.0042679,0.0043631,-0.00692,0.020954,0.16619
0.10756,-0.0065555,-0.004323,0.011844,-0.0045188,-0.0016001,0.072582,0.071499
-0.15335,0.054118,0.043998,0.019633,0.010619,-0.0033959,-0.12357,0.03053
0.13477,-0.08011,-0.064042,-0.043435,-0.0048627,-0.012045,-0.019105,-0.33011
-0.09047,0.01288,-0.00049853,-0.013229,-0.011928,-0.011718,0.08243,0.41292
0.022526,0.052011,0.031393,0.024474,-0.0028543,0.013312,0.11127,-0.27865
0.14553,0.021715,0.00034908,-0.0082347,0.0066037,0.008313,-0.23745,-0.061319
-0.2686,-0.062459,-0.0076616,0.013865,-0.014963,-0.0034997,0.12125,0.26661
0.076554,0.049285,-0.00037695,0.012821,0.033833,0.039974,0.26387,0.0073068
-0.015017,-0.065238,-0.01677,-0.019099,-0.019064,-0.033681,-0.57743,-0.20955
0.20576,0.031103,0.036989,0.027459,0.029296,0.056176,0.64956,0.73012
0.15185,0.0019817,-0.010919,-0.035121,-0.055619,-0.12073,-0.77648,-0.55874
-0.27938,0.011105,-0.019838,0.0039258,0.015132,0.028909,0.18902,-0.39714
-0.33885,-0.012124,0.010248,0.011605,0.022728,0.043888,0.52862,0.052149
0.48852,0.049317,0.040297,0.026839,0.014031,0.064836,0.24919,0.05015
-0.031731,-0.031155,-0.062458,-0.044178,-0.034338,-0.1033,-0.56313,0.34366
-0.35236,-0.097144,0.014575,0.0017272,0.0027444,0.0087223,0.25735,0.039344
0.18359,0.070413,0.029344,0.00064378,0.016096,0.0031286,-0.59093,-0.10825
0.092666,0.018842,-0.033604,-0.0081414,-0.025289,-0.033405,-0.29896,-0.34607
0.055504,0.045572,-0.0022209,0.045933,0.0273,0.079515,0.6382,0.23304
-0.075409,-0.028484,0.006441,-0.032227,0.0022646,0.014337,0.11574,0.18233
0.24768,0.00039692,0.015874,0.00751,-0.014218,-0.025458,0.30109,0.28735
-0.48217,-0.085996,-0.028665,-0.03015,-0.021973,-0.047575,-0.21057,-0.32396
0.15007,0.056501,0.052339,0.026565,0.018136,0.018151,-0.26369,-0.14115
0.16105,-0.017215,0.008617,0.036827,0.0045017,0.0072917,0.037553,0.058003
-0.24511,-0.033788,-0.019513,0.023823,0.022887,0.028692,0.27519,0.052254
0.29174,0.068849,-0.0714,-0.082996,-0.028557,-0.058901,-0.39899,-0.27567
-0.64998,-0.0069795,0.079318,0.020898,0.029488,0.056364,0.018512,0.18599
0.6715,0.089187,-0.028382,-0.0083013,-0.0064972,0.030133,0.39916,0.019691
0.4346,0.090458,-0.011663,-0.037738,-0.04313,-0.10683,-0.71266,0.01979
-0.72209,-0.34033,0.020189,0.02642,0.013054,0.06701,0.58801,-0.46489
0.2301,0.11614,-0.096801,0.012341,0.013441,-0.026611,0.035338,0.5771
-0.51635,-0.095416,-0.050114,-0.0019232,-0.010767,-0.00486,-0.0027821,0.06893
-0.034451,0.056139,0.066424,0.0068402,0.0029939,-0.023816,-0.37649,-0.12368
0.7829,0.22741,0.46362,0.085163,0.015828,0.026176,0.0099226,0.26091
-0.38614,-0.05734,0.1258,0.12331,0.059233,0.15329,0.75254,-0.079824
0.63762,0.062463,-0.75937,-0.2227,-0.061791,-0.087352,-0.67735,-0.45671
-0.16842,-0.091307,-0.1211,-0.12473,-0.042198,-0.078069,0.20725,0.3594
-0.53621,-0.18874,-0.083671,0.011321,0.0090087,-0.021428,-0.3178,-0.064438
-0.6883,-0.23581,0.24427,0.021963,-0.0172,-0.049672,0.2182,-0.41637
0.64603,0.2612,0.51148,0.18133,0.035682,0.025201,-0.35548,-0.13196
-0.20761,0.12349,0.30358,0.068153,0.058399,0.14883,0.54714,0.26143
0.35673,0.19479,-0.53668,-0.067186,-0.011592,-0.0068523,0.13577,0.59681
0.8882,0.1068,-0.17478,-0.052712,0.0052073,0.011043,-0.12318,-0.19923
-1.0902,-0.39244,-0.12767,-0.060433,-0.063355,-0.10266,-0.24058,-0.044831
0.33237,-0.024155,0.32261,-0.012487,-0.014445,0.01861,0.21015,-0.06279
0.10358,0.037368,-0.2301,0.043959,0.026702,-0.039814,-0.3672,-0.16652
-0.56436,0.032425,0.027668,-0.016345,-0.018186,0.026294,0.26834,0.002721
0.5175,0.13188,0.12875,0.048597,0.053961,0.068247,0.038956,0.13875
-0.062082,-0.14085,-0.10477,-0.019183,-0.02248,-0.085857,-0.28796,-0.10407
-0.73551,-0.19112,0.18801,0.0067233,-0.013119,0.025065,0.13412,-0.008844
0.72378,0.15445,-0.11707,-0.045735,-0.027345,-0.044074,-0.14481,-0.061565
0.36543,0.13975,0.13626,0.06543,0.067584,0.10537,0.23727,0.29908
-0.37579,0.27413,-0.021526,0.027525,0.0059183,-0.0030455,0.14124,-0.16981
-0.2276,-0.41799,-0.12305,-0.073652,-0.048438,-0.080311,-0.050218,0.086181
-0.065629,-0.15512,-0.02927,0.035309,0.029367,0.060894,-0.018534,0.020296
-0.59428,-0.054966,0.031809,-0.043913,-0.065442,-0.087524,-0.17299,-0.57021
0.76147,0.52966,-0.089285,0.0014469,0.049954,0.099143,0.17808,0.46359
0.42543,-0.074811,0.13822,0.007693,0.0084942,0.0035002,-0.039089,-0.088861
0.41982,0.036115,-0.027773,-0.016984,-0.009904,-0.022925,-0.030099,0.30383
-0.26738,-0.084257,0.085129,0.083953,0.018508,-0.018993,-0.061526,0.19623
-1.1112,-0.39742,-0.21759,-0.087832,-0.062174,-0.070186,-0.23414,-0.56827
0.36546,0.19874,0.088395,0.014402,0.021818,0.019469,0.12634,0.025612
-0.65693,-0.24724,0.11325,0.046554,0.028561,0.024176,0.10154,-0.092585
0.8313,0.32187,0.013857,0.10189,0.028538,0.077482,0.17973,0.14759
0.71645,0.1043,-0.076562,-0.14036,-0.032882,-0.015353,-0.049528,-0.042463
-0.41012,0.11067,0.0063085,0.014816,0.00051095,0.011607,-0.075739,0.35357
-0.12676,-0.23486,-0.057681,-0.0028713,0.027043,0.0021167,0.13378,0.27402
-0.18927,0.38176,0.036301,-0.052405,-0.039373,-0.12225,-0.29593,-0.63956
-0.49179,-0.59346,-0.11003,-0.01588,-0.058279,-0.049569,-0.0067193,-0.21436
0.27658,-0.051184,0.17536,0.07634,0.056073,0.13341,0.23356,0.14417
0.553,0.414,-0.0058893,-0.0014672,-0.0090517,-0.035262,-0.19515,-0.0087981
0.024936,-0.11358,-0.036672,-0.01437,0.042915,0.13082,0.36028,0.27974
-0.79284,-0.54263,-0.073534,0.029916,0.016269,0.021203,-0.14989,0.24319
0.42511,0.91265,0.0939,0.037198,-0.019127,-0.15409,-0.079491,-0.20619
-0.12343,-0.42354,-0.17582,-0.048148,-0.016847,0.034073,-0.14073,-0.086412
0.17036,0.3587,0.1397,-0.11021,-0.063189,-0.18782,-0.099419,-0.13435
0.49045,-0.1507,0.17212,0.29498,0.12291,0.18847,0.17027,0.10893
0.15129,0.061109,-0.095281,-0.14628,-0.052235,-0.0080749,0.11521,0.17367
-1.0497,-0.61636,-0.046195,-0.036292,-0.04145,0.020518,0.0029278,-0.18979
-0.18231,-0.072933,-0.24356,-0.26588,-0.00044973,0.095723,0.1087,-0.12825
0.5673,0.45183,0.1565,0.18877,-0.030132,-0.21894,-0.30823,-0.20155
0.030553,0.00085816,0.14686,0.016013,0.057681,0.03817,0.05765,0.21048
0.08807,-0.062144,-0.029104,0.28727,0.06043,0.1096,-0.0043944,0.22763
0.52141,0.40743,-0.072989,-0.20723,-0.044957,-0.020308,0.20056,0.12488
-0.44022,0.17039,0.0012027,-0.01329,0.01508,0.023099,0.093591,0.097575
-1.097,-1.084,-0.070669,-0.012853,0.037322,0.075236,-0.18562,-0.44955
0.8693,0.426,-0.053114,-0.15055,-0.17378,-0.2785,-0.28635,-0.097358
-0.26998,0.18422,0.24193,0.19909,0.084602,0.0474,0.10341,0.13516
0.72431,0.025402,0.0018744,-0.010587,0.10126,0.24808,0.31178,0.62755
-0.53575,-0.036247,-0.21932,-0.11554,-0.15525,-0.27011,-0.30136,-0.74763
0.76244,0.70122,0.45216,0.14171,0.18214,0.32131,0.53848,0.31326
-1.0869,-1.1456,-0.54764,-0.051997,-0.11315,-0.15682,-0.31575,-0.12667
0.20842,0.040927,0.053312,-0.088274,-0.11142,-0.28201,-0.41704,-0.47913
0.82204,0.38686,0.14449,0.0003756,0.14825,0.36033,0.42378,0.69703
-0.65033,0.011062,0.0064309,0.0094132,-0.045143,-0.19822,-0.25286,-0.17197
0.31023,-0.053647,0.19357,0.2265,0.034792,0.06575,0.022515,0.22284
-0.5953,-0.23617,-0.18448,0.05674,0.051821,0.081458,0.14019,-0.48231
0.8371,0.50206,-0.03333,-0.094265,-0.064722,-0.11291,-0.1592,0.11302
-0.75592,-0.012919,-0.18019,-0.35925,0.036394,0.30178,0.7467,0.10279
-0.47764,-0.31581,0.21971,0.098616,-0.074725,-0.30071,-0.41113,0.1495
0.59309,0.20622,-0.012389,-0.055032,-0.030893,-0.038611,-0.2689,0.1954
0.25963,-0.04494,0.12414,0.27552,0.12125,0.23588,0.48324,0.095904
-0.1455,-0.11186,-0.22208,-0.064056,-0.14912,-0.38355,-0.94503,-0.89528
0.81656,0.38649,0.16748,0.037061,0.080438,0.15045,0.10297,0.35108
-1.1217,-0.77598,-0.082811,-0.053234,0.0214,0.0888,0.35576,-0.33934
0.63676,0.38007,0.0028493,0.03995,0.041415,0.081046,0.32413,0.60261
0.43778,0.25778,0.16594,0.13614,0.039224,0.065791,0.22226,0.4193
-0.77884,-0.76209,-0.23457,-0.14862,-0.086594,-0.13573,-0.40789,-0.58325
-0.48578,0.70112,0.067001,-0.15144,-0.070405,-0.1166,-0.29085,-0.15284
0.23725,-0.14506,-0.085062,0.033069,0.03302,0.12355,0.33996,0.47115
-0.42944,-0.032797,0.036747,-0.064255,-0.026465,-0.18079,-0.47653,-0.67696
1.0318,0.3811,0.12886,0.27536,0.14937,0.3218,0.64139,0.48379
-0.59582,-0.49255,-0.19056,-0.18214,-0.11164,-0.18155,-0.12061,-0.48978
0.57939,0.35658,0.20409,0.032372,-0.0051647,-0.042962,-0.061651,0.20015
-0.27156,-0.15594,-0.085673,0.044133,0.023032,0.025948,-0.2699,0.28741
0.91144,0.057559,0.040989,0.064066,0.097491,0.18851,0.35438,0.49663
-0.2106,0.0081258,0.067125,0.14658,-0.016575,-0.055923,-0.025823,0.0046361
-0.8587,-0.15804,-0.17304,-0.31036,-0.13196,-0.13756,-0.18411,-0.51969
-0.36113,-0.69044,0.037454,-0.057252,-0.0065885,-0.087948,-0.16662,-0.35203
-0.69175,0.74989,0.0095795,-0.063309,-0.062278,-0.086867,-0.065741,-0.6573
0.88922,-0.14471,0.031421,0.18676,0.13866,0.27197,0.31547,0.86203
0.41217,0.20174,-0.053492,0.13026,-0.020696,-0.058243,-0.06844,-0.06572
0.82158,0.61508,0.26329,0.095213,0.17083,0.22727,0.4241,0.40531
-1.1271,-0.92346,-0.31366,-0.20736,-0.11466,-0.066709,-0.1128,0.10491
0.81902,0.30046,-0.032252,-0.066206,-0.025309,-0.072713,-0.10104,0.16666
-0.84796,0.085722,0.070901,0.0036505,-0.099822,-0.32925,-0.55635,-0.83936
0.38483,-0.21536,0.045053,0.034403,0.045141,0.17241,0.34166,0.26559
-0.70629,-0.47829,-0.014148,0.081922,-0.019468,-0.090016,-0.17221,-0.26195
0.47383,0.54521,0.066211,-0.17287,-0.043009,0.017454,-0.1521,-0.032584
-0.1211,-0.24943,-0.11236,0.075766,0.17811,0.48002,0.89457,0.77296
-0.037616,0.50855,0.15991,0.031525,-0.12163,-0.39743,-0.60266,-0.59611
1.1626,0.22014,0.13097,0.014643,0.073045,0.11107,0.1756,0.13302
-0.81552,-0.2923,-0.28771,-0.022557,-0.012137,-0.011449,-0.022341,0.15521
-0.24125,-0.54196,0.010654,0.11382,0.012253,-0.087121,-0.11277,-0.13913
0.40012,0.46694,0.14891,0.35952,0.11363,0.15553,0.058221,0.28922
-0.74818,-0.41624,-0.31178,-0.74814,-0.24826,-0.17582,-0.18325,-0.40283
0.28868,0.45714,0.21417,0.13327,0.074209,0.15213,0.28657,-0.12029
0.48061,-0.10563,0.016374,0.003068,-0.036428,-0.17337,-0.13408,0.27139
-0.75557,-0.39683,-0.060177,0.20507,-0.025166,-0.042302,-0.077032,-0.31174
0.73138,0.69088,0.22831,0.075909,0.14784,0.19514,0.13945,0.52275
-0.64336,-0.78959,-0.37436,-0.14895,-0.063197,-0.068573,0.033892,-0.16923
0.086889,0.4483,0.24251,0.023889,0.0069049,-0.034591,-0.24187,-0.10617
0.60352,0.0098049,-0.18585,-0.13102,-0.023679,0.087884,0.12804,-0.14047
0.67742,0.60743,0.41899,0.29338,0.087941,-0.012422,-0.0019759,0.24939
-1.1116,-0.76734,-0.27131,-0.15557,-0.064122,-0.038083,0.19026,0.15442
-0.061105,-0.062569,0.070882,0.076911,0.020183,-0.028313,-0.43538,-0.42065
-0.094205,0.01439,-0.28943,-0.26723,-0.08121,0.047382,0.27633,0.17757
0.030935,0.067928,0.092551,0.12407,0.029799,0.062831,0.13545,0.13454
0.93335,0.53061,0.26338,0.16429,0.071569,-0.084863,-0.033413,-0.066053
-1.0229,-0.27353,-0.16765,-0.10811,-0.096907,-0.021942,0.054822,0.069047
0.2636,0.12951,0.088621,0.0173,0.070904,0.00065588,-0.12702,-0.21512
0.013861,-0.54206,-0.3192,-0.037988,-0.011215,0.091807,0.05892,0.10147
-0.487,0.11184,0.3278,0.13216,-0.015367,-0.17821,-0.373,-0.32746
0.80439,0.040043,0.084346,-0.081442,0.019203,0.10504,0.077642,-0.12943
-0.2098,-0.36212,-0.18242,-0.19397,-0.017027,0.035925,0.15501,0.53567
-0.23033,0.50405,0.058624,0.13116,-0.014805,-0.056762,0.033965,0.091903
0.92324,0.35374,-0.13797,-0.027239,0.017953,0.093167,0.24912,0.26547
-0.63246,-0.099281,0.0011969,0.034503,-0.036026,-0.13116,-0.32148,-0.52466
-0.16432,-0.072595,0.24185,0.082246,0.065389,0.16089,0.19153,0.17756
-0.11872,-0.050831,-0.12669,0.14711,0.009699,-0.19499,-0.31235,-0.18842
0.13693,-0.42579,-0.01028,-0.099451,0.015742,0.23822,0.48707,0.37173
0.15039,0.30884,-0.033498,-0.15803,-0.025643,-0.071205,-0.13795,-0.34963
-0.85003,-0.090599,-0.047537,-0.07604,-0.098481,-0.16277,-0.27522,-0.15985
0.54391,-0.51604,-0.12254,-0.088238,-0.053883,-0.01328,-0.075438,-0.23152
0.43513,0.74989,0.38976,0.32085,0.12425,0.072535,0.037187,0.17848
-0.39505,-0.30245,-0.16742,-0.028464,0.053501,0.14169,0.3652,0.49389
0.87994,0.42593,-0.013747,-0.050146,-0.02377,-0.086795,-0.038511,0.11526
-0.57865,-0.24018,0.037168,0.0058756,-0.021702,-0.065769,-0.19865,-0.12752
0.30402,0.46884,0.046734,0.0068123,0.04374,0.14254,0.13416,0.03243
-0.34969,-0.46631,-0.20459,-0.094233,-0.062345,-0.078853,-0.086859,-0.24782
-0.93147,-0.45468,0.087619,0.03864,-0.020234,-0.15166,-0.228,-0.17066
0.059615,0.072749,0.040911,0.014774,0.03673,0.15857,0.2045,-0.30553
0.60288,0.13215,-0.10936,-0.025213,-0.0012051,0.031573,0.072088,0.42685
0.84272,0.37428,0.10698,0.074936,-0.063893,-0.12643,-0.17765,0.1215
-0.35775,-0.048661,-0.10535,-0.12226,0.051836,0.14542,0.34031,0.15462
0.16058,0.41492,0.16137,0.13325,0.041509,-0.012304,-0.028378,0.1287
-0.87439,-0.9174,-0.10742,0.005622,-0.0086052,-0.091858,-0.40728,-0.51034
-0.12711,0.17029,0.12005,0.018487,-0.027809,-0.022913,0.16543,-0.0043419
0.61909,0.088515,-0.015688,-0.093444,-0.015716,-0.00068239,-0.052136,0.2954
-0.29558,-0.097093,-0.14809,-0.11094,-0.0032252,0.10782,0.24442,-0.032703
0.3118,0.56031,0.15151,0.05248,0.056829,0.037189,0.015177,-0.24614
0.26428,-0.23645,-0.16492,0.061406,-0.015036,-0.11081,-0.23338,0.022485
-0.083422,-0.22387,0.11237,0.056765,-0.054649,-0.078251,-0.049839,-0.078481
-0.08624,0.36008,-0.01761,-0.047428,0.023926,0.11144,0.18104,0.27058
-0.30004,-0.53606,-0.079085,0.013978,-0.037241,-0.10442,-0.16772,0.12292
-0.63739,0.18442,0.060236,0.11512,0.066306,0.17223,0.277,-0.093937
0.60897,0.26708,0.06412,-0.19044,0.013931,-0.0044496,-0.10349,0.031434
0.47632,0.0053262,-0.0050256,0.096169,0.047447,0.05245,0.15072,0.05888
-0.42694,-0.10287,-0.0064865,-0.041634,-0.11476,-0.20447,-0.35919,-0.26374
-0.18833,-0.26885,-0.010315,-0.0028329,0.011414,0.036979,-0.070386,-0.13295
-0.022241,-0.085185,-0.14109,-0.045288,-0.019499,-0.043534,0.10403,-0.001926
0.25271,0.20059,0.031449,0.042385,0.026887,0.023029,0.11858,-0.064966
0.77593,0.30264,0.17981,0.0032083,0.049146,0.12781,0.17793,0.58596
-0.39373,-0.12718,-0.1094,-0.036773,-0.054062,-0.064527,-0.036708,-0.078252
-0.23784,0.07043,0.070665,0.11881,0.022202,0.0091062,-0.1568,-0.18045
-0.0035762,-0.45378,-0.099796,-0.029149,0.051609,0.10696,0.12352,0.078197
-0.70245,0.23121,0.020213,-0.081607,-0.082835,-0.20038,-0.17131,-0.33974
0.48417,0.25852,0.10281,0.055468,0.040893,0.032483,-0.13413,0.16862
-0.49796,-0.36465,-0.13313,0.0070495,0.0010247,0.07893,0.11861,0.010469
0.40778,0.38386,0.0076881,-0.047443,-0.038303,-0.045588,0.1108,0.03001
0.35223,-0.20857,0.087648,0.086887,0.0010767,-0.021005,-0.095083,-0.19477
0.57171,0.05167,-0.088837,-0.18419,0.025415,0.11333,0.21911,0.38997
-0.15168,-0.25088,-0.029992,0.13104,-0.0044095,-0.06474,0.013163,-0.13137
-0.99014,0.20315,0.17771,0.047805,0.036479,-0.047637,-0.25359,0.13758
0.27389,-0.23502,-0.16164,-0.11389,-0.055231,0.039499,0.14368,-0.31331
-0.22824,0.41907,0.21702,0.091098,0.056177,0.0013286,-0.14036,0.10754
0.74439,-0.13884,-0.13204,0.029942,-0.0045132,0.017626,0.11184,0.1797
-0.56686,-0.087909,-0.021438,-0.039383,-0.057777,-0.10675,-0.23311,-0.34776
0.31422,0.15827,-0.1619,-0.085288,-0.0021282,0.089331,0.20758,0.032862
-0.56557,-0.49374,0.056481,0.0098882,0.014015,0.0044695,0.07502,-0.099725
0.30162,0.40931,0.10315,0.027913,0.022001,0.029355,0.034082,0.23212
0.55634,0.047034,0.08034,0.086409,0.045407,0.046741,0.070129,0.61563
-0.30932,0.13803,-0.050534,-0.087862,-0.087515,-0.2248,-0.48773,-0.70562
0.43122,-0.17713,0.0075126,-0.018492,0.037374,0.14413,0.22854,0.23849
-0.45587,-0.0076716,-0.097361,-0.0029361,-0.033059,0.0047948,0.13357,-0.16002
-0.64113,-0.19681,0.079559,0.051577,0.029219,0.013128,-0.077187,-0.36847
0.47918,0.029713,0.037487,0.034416,0.07561,0.082974,0.14286,0.39572
-0.45942,-0.19444,-0.10719,0.17865,-0.065946,-0.16857,-0.1992,-0.053943
0.34246,0.37345,0.098001,-0.1496,-0.004967,0.0085966,0.02062,-0.021771
0.9254,0.11598,-0.13639,-0.23213,-0.046181,0.044425,0.36378,0.28084
-0.89822,-0.13216,0.056762,0.095276,0.060517,-0.0059846,-0.45177,-0.14748
0.1743,0.0096219,0.06831,-0.03364,-0.0049329,0.060963,0.20645,0.16
0.38163,0.053992,-0.038787,0.023256,-0.039039,-0.051171,-0.12997,-0.24437
-0.24916,-0.017733,-0.021765,0.18966,-0.010146,-0.03739,-0.11634,-0.050155
-0.24537,-0.23147,-0.020665,-0.079539,0.011788,0.024313,0.17063,0.038154
0.27341,0.37249,0.14471,0.029576,0.089484,0.086997,0.021563,0.082673
-0.35722,-0.31479,-0.13462,-0.068108,-0.027024,0.0098083,0.11749,-0.12693
-0.23691,-0.2051,0.071288,-0.020871,-0.041019,-0.16852,-0.26733,-0.47213
0.12237,0.22877,-0.073359,0.014551,0.0081251,0.11417,0.25789,0.75965
0.71728,0.26495,0.0096383,-0.033165,-0.028423,-0.048654,-0.073061,0.038688
-0.63558,-0.38865,0.031245,0.03775,0.028627,0.045973,0.035604,-0.1574
0.25388,0.15479,0.0070798,0.077371,-0.00074597,-0.039495,-0.10501,0.12504
-0.15293,0.077385,-0.0082115,0.014,-0.015204,-0.023758,-0.01189,-0.17634
0.46251,-0.20633,-0.069408,-0.12217,-0.030469,-0.039531,-0.1783,-0.41304
0.3154,0.46611,0.081145,0.074571,0.10192,0.20235,0.30143,0.70426
-0.77825,-0.26799,-0.064587,-0.15354,-0.071006,-0.055829,0.021041,-0.5895
-0.05668,0.094905,0.165,0.10038,0.029101,-0.087436,-0.050176,0.034646
0.12615,0.15978,-0.09755,0.017114,-0.019317,0.03734,-0.0049526,0.38219
-0.2457,-0.4363,-0.024319,-0.019218,0.0028536,-0.040686,-0.17009,-0.085476
0.20453,-0.14852,-0.02945,0.04734,0.010059,-0.0009335,-0.044205,-0.048327
0.19877,0.077495,-0.034745,-0.040035,-0.044225,-0.014968,0.13951,-0.12476
-0.75149,0.016388,0.10844,0.06294,0.02776,0.01903,0.1317,0.14402
0.75518,0.27967,-0.060574,-0.010922,-0.0082648,0.023027,-0.036477,0.051956
0.39225,0.18216,0.020931,-0.059011,0.0038234,0.0046725,-0.19414,-0.07607
-0.17646,-0.43061,-0.08449,-0.050996,0.0089625,0.01038,0.00069001,-0.10251
-0.030788,0.45002,0.1308,0.011954,0.022173,0.05506,0.32694,0.20471
-0.18889,-0.12926,0.033568,0.11299,0.019258,-0.018382,0.11031,0.094565
-0.3797,-0.23971,-0.025231,0.17289,0.0072465,-0.077927,-0.40906,-0.45573
-0.35471,-0.1483,-0.085335,-0.34033,-0.030146,0.071175,0.09573,0.41557
0.55774,0.22971,-0.0067032,0.096446,-0.085497,-0.17283,-0.28942,-0.33452
0.10077,0.15144,0.022804,-0.086862,0.020857,0.0653,0.12416,-0.068366
-0.11463,-0.12525,-0.043727,0.063555,0.047088,0.090847,0.21362,0.14863
0.46802,0.041139,0.10651,0.056508,0.0095063,-0.017207,0.020756,-0.03881
-0.0091505,-0.26972,-0.080568,-0.0053331,0.0027571,0.038953,0.071793,0.21549
-0.28725,0.12384,0.15369,0.058716,0.0043565,-0.028862,-0.091789,0.22429
-0.45152,0.075354,-0.22103,-0.10999,-0.016079,-0.0090176,-0.12453,-0.23311
0.53751,0.086444,0.069652,0.074874,-0.011018,-0.041688,0.036903,0.0036039
-0.51534,-0.16232,-0.059384,-0.058515,0.0042716,-0.0017005,-0.084114,-0.1094
0.1475,0.1884,0.19715,0.075574,-0.01707,-0.021979,0.089651,-0.17071
-0.1077,-0.11228,0.058343,-0.085704,0.041817,0.13928,0.36914,0.26101
0.99066,0.3716,-0.21017,0.066652,-0.0071924,-0.1123,-0.37264,-0.019885
-0.77116,-0.41646,-0.061794,-0.037977,0.038198,0.06623,-0.059714,-0.16255
0.22829,-0.16569,-0.020524,-0.032614,-0.065115,-0.08384,-0.037866,0.0058905
-0.0068816,0.16167,0.155,0.012293,0.00232,0.030366,0.042764,-0.027834
-0.042346,0.017871,0.010576,-0.020581,-0.010186,0.040923,0.25907,0.21595
-0.15344,-0.058501,0.0137,0.063834,0.037573,-0.013596,-0.1943,-0.056407
-0.41063,-0.17717,-0.10257,-0.039581,-0.026385,0.015087,0.15912,0.0094294
0.25806,0.44266,0.20744,-0.0033548,0.024714,-0.021245,-0.24271,0.2279
0.51217,0.191,-0.12742,0.10139,-0.0039598,-0.01263,0.13247,-0.30631
-0.46431,-0.22191,-0.13084,-0.046494,-0.033599,-0.11444,-0.1592,-0.23381
0.5365,0.031634,0.18196,0.15395,0.053771,0.13532,0.23557,0.31183
-0.21516,-0.32938,-0.1723,-0.12558,-0.053565,-0.082662,-0.18919,-0.022164
-0.62154,-0.11628,-0.11395,-0.26747,0.027885,0.1934,0.16195,0.12996
0.85954,0.12625,0.22591,0.080858,-0.0060918,-0.082861,0.0091392,0.016861
-0.18405,0.25258,-0.041832,-0.032248,-0.022472,-0.083202,-0.21708,-0.32344
-0.67362,-0.28118,0.091568,0.19949,0.048966,0.059312,0.11636,0.077219
0.11632,0.22264,0.12633,0.12114,-0.003088,-0.069934,0.048172,0.031247
0.042248,-0.039393,-0.22713,-0.13368,-0.02298,0.036126,0.02269,0.093603
0.82599,0.25281,0.030199,0.067905,0.035449,0.040728,-0.11777,-0.06339
-0.046582,-0.16022,-0.063839,-0.13405,-0.06289,-0.080362,-0.015528,-0.033103
-0.84044,-0.24214,0.091289,0.056304,0.03298,0.10188,0.18709,0.036155
0.5,0.26952,0.057496,-0.010635,0.033638,0.055775,0.16054,0.1442
0.18814,-0.175,-0.22771,-0.070286,-0.076614,-0.15633,-0.36164,-0.12347
-0.19261,0.2348,0.14252,0.071966,0.061811,0.051686,0.057978,0.29519
-0.57853,-0.47832,-0.096426,-0.13101,-0.097512,-0.12439,-0.24397,-0.50624
0.64491,0.2645,0.1113,0.16472,0.071004,0.089571,0.15575,0.19915
-0.17777,0.0042681,0.04015,0.17841,0.13047,0.2412,0.44635,0.3186
-0.64522,-0.084445,-0.1218,-0.38611,-0.2155,-0.34851,-0.39392,-0.66191
0.30038,0.24337,0.18794,0.1281,0.064673,0.086545,-0.020026,-0.0061701
0.45722,0.021296,-0.093724,0.010676,0.049165,0.17934,0.31089,0.5843
-0.23964,-0.40558,-0.069435,-0.058418,-0.043459,-0.17179,-0.40904,-0.46001
0.78843,0.24405,0.040731,0.17858,0.075484,0.071829,0.1945,0.29802
-0.46322,0.10958,0.087037,0.18223,0.022706,0.073793,0.1047,0.38795
-0.43317,-0.10818,-0.12685,-0.36055,-0.10067,-0.11948,-0.023509,-0.29452
0.57806,0.31442,-0.0077559,-0.020711,-0.037139,-0.047363,-0.19917,-0.18223
