0.047472,0.11638,0.14886,0.031976,-0.017032,-0.00046772,0.015434,0.023802
0.14596,-0.017462,-0.40572,-0.057466,-0.0025148,-0.0094292,-0.009257,-0.024299
-0.21464,-0.12084,0.024589,-0.10754,-0.035033,-0.010389,-0.042138,-0.04799
0.099825,0.079881,0.087723,0.085373,0.018434,0.020311,0.01853,0.02322
-0.16775,-0.024325,0.0022372,0.052886,0.017478,0.020301,0.016711,0.048664
0.13102,-0.026789,0.16672,0.084161,0.0091438,-0.010408,-0.023945,0.020261
0.17505,0.06504,-0.090278,-0.10224,0.0013226,-0.0094305,0.04517,-0.039013
-0.0057369,0.056063,-0.18223,-0.0067535,0.0017974,-0.0004208,-0.010221,-0.012542
-0.24887,-0.084952,0.10237,0.010663,0.0026328,0.00072899,-0.033854,-0.0024631
-0.27463,0.0012169,0.021715,-0.034945,-0.019784,0.0015728,0.044534,-0.03268
0.3846,0.095594,0.15401,0.043492,0.0046845,0.0097324,-0.009521,0.09186
0.39238,-0.13012,-0.18076,-0.0041892,-0.017836,-0.021744,-0.032041,-0.035088
-0.48544,0.1288,0.024503,0.0018644,0.0063591,0.0087637,-0.023079,-0.022615
0.35372,0.036692,0.10473,-0.00036199,0.02262,0.0076942,0.1033,-0.010819
-0.90886,-0.34337,-0.23809,-0.072641,-0.031456,-0.040295,-0.12944,-0.069325
0.56465,0.169,0.27617,0.059294,0.016133,0.029181,0.06782,0.10728
-0.04437,-0.09744,-0.16584,-0.033494,0.0092428,0.0054787,0.0076174,-0.0037909
0.17131,0.22479,0.044771,-0.014585,0.010434,0.021613,-0.0053793,0.051017
0.31313,0.1276,0.19709,0.13171,0.0040767,0.0073432,0.04437,-0.032818
-0.57339,-0.1478,-0.50523,0.014361,-0.0099003,-0.037412,-0.077668,-0.107
0.69678,0.11571,0.36841,-0.18003,-0.047244,-0.019121,0.026729,0.054623
-0.88726,-0.37298,0.16295,0.086381,0.0090784,-0.0006147,-0.033314,-0.01734
0.46032,-0.022346,-0.62048,-0.0080909,0.049519,0.033341,0.023196,0.051333
-0.63039,0.27492,0.30805,0.19151,-0.0042206,0.027658,0.039783,0.017635
0.79193,-0.02967,0.20675,-0.37051,-0.042927,-0.018009,0.00065514,-0.0019898
-0.33581,0.086417,-0.19016,0.11001,0.042646,-0.010135,-0.02394,-0.015894
0.78414,0.27171,0.38241,0.12526,0.018057,0.027793,0.067635,0.12414
-0.42398,-0.36311,0.22853,0.066445,-0.038554,-0.068135,-0.12283,-0.21455
-1.0266,-0.29983,-0.7224,-0.11221,-0.0098828,-0.008508,-0.032456,-0.13301
0.66882,0.082509,-0.15746,-0.128,-0.028524,0.011838,0.042328,0.080458
-0.31637,0.1869,-0.059844,0.12232,0.015189,0.024662,0.055091,0.16104
0.74212,0.057105,0.19715,-0.031455,0.051266,0.030397,0.029597,0.093794
0.3488,0.17376,0.37304,0.17774,0.025329,0.021492,0.0363,0.14477
-0.78277,-0.39013,-0.038952,-0.15533,-0.046748,-0.025445,-0.088929,-0.26399
-0.41799,-0.0087757,0.10176,-0.030267,-0.016356,-0.032454,-0.041644,-0.17159
0.010953,0.33984,0.098557,-0.22077,-0.031849,0.00014789,0.03719,0.023444
0.32713,-0.11339,-0.57436,0.28782,0.070837,0.017279,0.037844,0.063229
0.94526,0.31394,0.15819,0.31428,0.0025563,-0.012697,-0.02435,0.14303
0.067994,-0.28256,-0.097389,-0.3464,-0.049345,0.011471,0.0066798,0.083125
-0.93774,-0.26031,0.11734,0.014828,0.016469,-0.019787,0.0058966,-0.10879
-0.031435,-0.10076,0.019447,-0.18169,-0.05029,0.010654,-0.042229,-0.073532
-0.12274,0.35699,0.34264,0.3757,0.11723,0.032545,0.010935,-0.045766
0.0073467,0.29158,0.063928,-0.25831,-0.07508,-0.03988,0.0015668,-0.018054
-0.090594,-0.62402,-0.67455,0.10466,0.075553,0.03581,0.023641,0.11072
0.066201,0.32417,-0.026631,-0.4324,-0.14991,-0.0526,0.014812,-0.019333
0.31305,-0.36726,0.1982,0.10092,0.045211,0.015486,-0.032671,0.052226
0.46909,0.65057,0.72961,0.9716,0.20776,0.084066,0.13116,0.32497
-0.71869,-0.78914,-0.92191,-0.98373,-0.20902,-0.13574,-0.19689,-0.60757
0.88489,0.71639,0.23755,0.56284,0.021718,0.082697,0.06902,0.19223
-0.89204,-0.079783,0.028726,-0.28822,-0.044924,-0.034082,-0.032108,-0.095505
0.011287,-0.18393,0.028745,-0.31987,0.013378,0.0059601,-0.01592,-0.06375
0.87357,0.36482,0.07916,0.12222,0.072022,0.046339,0.14103,0.53839
-1.1123,-1.0131,0.61455,0.6771,0.060957,-0.030411,-0.10032,-0.37419
0.25504,0.61709,-0.57895,-0.093475,-0.08225,0.01764,0.056939,0.081959
-0.040742,0.087867,-0.20662,-0.14203,-0.029584,0.0028248,-0.020013,-0.030315
-0.17157,-0.065842,0.019858,-0.6539,0.062481,-0.035817,-0.042088,-0.093776
0.80029,0.15165,-0.61744,0.49172,0.10778,0.019047,0.02981,0.12576
-0.35179,-0.091882,0.51653,-0.64594,-0.22195,-0.10575,-0.10897,-0.1221
0.58244,0.17682,0.53409,0.1641,0.010827,0.074493,0.080631,0.068423
-0.71089,-0.30211,0.15695,0.5734,-0.0061782,0.028781,0.051652,0.040506
-0.45232,-0.083663,-0.37826,-0.16724,0.02422,-0.016241,-0.032046,-0.065782
0.87977,0.15398,-0.28128,0.69007,0.12577,0.087713,0.079226,0.17094
-0.55198,-0.039056,0.26823,-0.13287,0.10339,0.0043364,-0.021135,-0.13247
0.048521,-0.34583,-0.19944,-0.54098,-0.22258,-0.10281,-0.10686,-0.077683
0.23596,0.59022,-0.022029,0.005806,0.061843,0.0079781,0.0015953,-0.00048952
0.33143,0.055069,-0.13161,-0.6935,-0.067024,0.031672,0.11685,0.21671
-1.0074,-0.54901,0.21124,0.15453,-0.07042,-0.12556,-0.17483,-0.30834
0.86228,0.38982,0.48799,0.98658,0.19193,0.098947,0.072421,0.15935
0.23201,0.18498,-0.18684,-0.50028,-0.061595,0.010288,0.054482,0.034341
-0.9265,-0.35932,-0.3231,0.041426,0.004568,0.023027,-0.017209,0.012191
0.3352,-0.11186,0.133,0.57757,0.04633,0.0048492,0.021705,-0.01651
-0.097014,0.33137,-0.10706,-0.7302,-0.022488,-0.020409,-0.024066,-0.05208
0.20921,-0.329,-0.57255,-0.36896,-0.12383,-0.044694,0.017121,0.01435
0.79488,0.5687,0.86474,0.87645,0.17215,0.10395,0.058909,0.21347
-1.1673,-0.57916,-0.31486,-0.57718,-0.15758,-0.12923,-0.157,-0.36922
0.048932,0.14756,-0.092058,0.21628,0.036017,0.075904,0.087721,0.11757
0.23057,-0.20572,0.32512,-0.2289,0.050499,0.02382,0.019336,0.17388
-0.22737,0.093966,0.3994,0.65412,0.0036901,-0.098242,-0.12008,-0.25474
0.18577,0.11536,-0.79052,-0.5929,-0.041473,0.021949,0.052332,0.043001
0.97958,0.4895,0.12208,0.42247,0.0010696,0.055999,0.075757,0.15341
-0.51651,-0.15271,0.50329,0.21003,0.10763,0.04271,0.012836,0.037658
-0.496,-0.32068,-0.60151,-0.70348,-0.073937,-0.057225,-0.026969,-0.062054
0.13035,0.11751,-0.24873,0.16408,-0.013244,-0.0018153,-0.0045879,0.01034
-0.46002,-0.36128,0.075292,-0.42112,-0.04719,-0.05681,-0.076331,-0.183
0.27226,-0.021081,0.6728,0.95833,0.096752,0.051205,0.03115,0.099687
-0.060732,0.10959,-0.30298,-0.93421,-0.066493,0.0020061,0.036536,-0.032645
0.65475,0.1747,0.47261,0.6346,0.079897,0.053604,0.064816,0.18525
-0.20889,0.076032,-0.48053,-0.32064,-0.1281,-0.059335,-0.079236,-0.075008
-0.46663,0.17573,0.49883,0.61197,0.083404,-0.0005119,-0.043858,-0.12604
0.75355,0.13195,-0.7312,-0.57169,-0.019164,-0.0039024,0.054078,0.1807
-0.58322,-0.60105,-0.068153,-0.10478,-0.059765,-0.037859,-0.050652,-0.2169
0.65157,0.50068,0.24915,0.35515,0.087722,0.077652,0.095517,0.2365
-0.71885,-0.51563,-0.031692,0.3125,0.041534,0.014757,0.00080322,-0.044114
-0.49692,-0.15742,-0.10722,-0.75323,-0.088126,-0.07018,-0.12356,-0.29206
0.74062,0.50538,0.18531,0.15253,0.0039483,0.041552,0.081948,0.25152
-0.42024,-0.22229,0.31193,0.50122,0.05228,-0.033055,-0.039024,-0.092289
0.3157,0.28429,-0.6622,-0.42991,-0.091786,-0.0052689,-0.0024274,-0.026269
0.42131,-0.054081,0.86411,0.38803,0.12589,0.054159,0.10524,0.18366
0.14114,-0.028538,-0.43281,-0.42828,-0.092359,-0.019337,-0.029255,0.052187
-0.39841,-0.29832,-0.050912,-0.33082,0.04157,-0.015331,-0.055159,-0.15653
0.35892,0.13293,-0.24725,0.0029908,-0.043629,-0.0046049,-0.0044745,0.032336
-0.79469,0.28475,0.15859,0.70078,0.0026845,-0.010961,-0.0027754,-0.039123
-0.5724,-0.1668,0.3718,-0.016466,0.054761,0.027886,-0.0034792,-0.098726
1.0031,-0.01358,0.13904,0.23535,0.049609,0.057221,0.071576,0.1576
-0.29919,0.00066995,-0.32896,-0.1842,-0.083259,-0.086851,-0.042874,-0.035623
0.32281,-0.084945,-0.28699,-0.71323,-0.10151,-0.0055382,-0.049335,-0.068182
0.062478,-0.12027,-0.82309,0.14721,0.081247,-0.010847,-0.0095297,-0.0090103
-0.012211,0.015135,0.49177,0.70087,0.075034,0.038412,0.069533,0.09666
0.18893,0.52874,0.93801,-0.77152,-0.056894,0.0099684,0.0088699,0.039516
-0.72221,-0.35577,0.12237,0.70655,-0.0091298,0.0058227,-0.011334,-0.093167
0.20808,-0.14918,-0.31236,-0.57555,0.070475,-0.012822,-0.0064663,0.011974
-0.091879,-0.058229,-0.21897,-0.015866,-0.075514,0.0087895,0.0078237,0.034906
0.015361,0.26379,-0.039181,0.12013,-0.025077,-0.031018,-0.046828,-0.04811
0.62665,-0.017647,0.07249,0.36334,0.010779,0.015944,0.016706,0.012127
-0.41996,0.065892,-0.015496,0.24414,0.11776,0.03218,0.033953,0.026976
0.018028,-0.19844,-0.28526,-0.73089,-0.063794,-0.021667,0.0045492,0.010786
0.5136,0.069051,0.35351,0.34334,0.012716,0.01044,-0.0092471,0.017055
-0.24123,0.27083,0.13451,-0.2291,0.011223,-0.035652,-0.015333,0.029268
-0.66899,-0.26091,-0.51816,0.41157,-0.1229,-0.050531,-0.060513,-0.17958
0.17024,0.29884,0.11893,-0.46735,-0.037852,0.067493,0.050704,0.11713
-0.33562,-0.74725,-0.057305,-0.17551,0.047977,0.0060742,-0.0017901,-0.072264
0.47653,0.10004,0.42865,0.3455,0.18962,0.0075114,0.0008866,-0.028226
0.4732,0.23163,-0.089019,0.01376,-0.04241,0.032755,0.035273,0.11729
-0.45696,0.64846,0.019011,0.54391,-0.08563,-0.051111,-0.016036,0.0134
-0.20128,-0.66395,-0.33127,-0.694,-0.026244,-0.017724,0.026262,-0.019249
0.25592,0.06875,0.039095,0.12194,0.041535,0.0076729,-0.033621,-0.011962
0.77095,0.54233,0.62686,-0.10962,-0.031301,0.10298,0.077309,0.19114
-0.88034,-0.75883,-0.76067,0.21165,0.090603,-0.10697,-0.1178,-0.28547
0.28012,0.28995,0.37794,-0.12775,-0.10888,-0.044102,-0.033044,0.018713
0.14512,-0.38987,-0.11229,0.079452,-0.0051346,0.049442,0.050546,0.03315
-0.60137,0.47479,0.17697,-0.10088,0.018831,-0.037166,-0.015018,-0.038906
0.00095696,0.27444,0.14006,0.28739,0.095782,0.11807,0.08333,0.15454
-0.14707,-0.35001,-0.67792,0.036499,-0.0398,-0.047239,-0.036671,-0.081165
0.37324,0.02407,0.2862,-0.62312,-0.075174,-0.0096241,0.0082259,-0.018777
0.051828,0.022987,0.02756,0.74329,0.044707,0.012177,-0.00048526,0.037598
0.042089,-0.29687,-0.18361,-0.73265,0.031244,-0.036516,-0.023701,-0.04454
0.56579,0.12884,0.74396,0.12138,0.0021703,0.00060302,0.0087572,0.016009
-1.0017,-0.17496,-0.45806,0.75271,-0.049729,-0.0091471,-0.020557,-0.023387
0.37609,0.12827,-0.23107,-0.66347,-0.014482,0.020384,-0.0025869,0.047407
0.35095,0.31916,-0.0418,0.22074,-0.024378,0.0035226,0.038903,0.047656
0.14381,0.26286,0.31267,-0.02758,0.085019,-0.004773,-0.029189,-0.01594
-0.30518,-0.1999,-0.24826,-0.20866,0.0091683,0.034779,0.035107,-0.011536
-0.74169,0.021285,0.56015,0.032959,-0.048924,-0.041763,0.0050983,-0.02569
0.20061,-0.62321,0.0529,0.53605,0.019728,-0.023466,-0.11143,-0.19134
0.60966,0.45908,-0.40021,-0.86198,0.019209,0.073902,0.13872,0.24973
-0.29131,-0.39529,-0.3187,0.77628,0.0034798,-0.038988,-0.072433,-0.10789
0.01152,-0.0041726,0.32715,-0.066461,-0.04383,-0.0031204,0.013123,0.057258
0.024438,0.30026,-0.15667,-0.47137,-0.021816,0.0014031,-0.0028495,-0.027096
-0.059746,0.19405,-0.094224,0.10437,-0.024731,-0.033644,-0.01862,-0.031816
0.29353,-0.037941,-0.11998,0.24206,0.08774,0.031996,0.044034,0.098454
0.061492,-0.026256,0.63251,-0.18018,0.018605,0.096485,0.021055,0.012387
-0.53142,-0.1923,-0.3223,-0.026047,-0.068021,-0.15282,-0.079828,-0.094893
0.55702,-0.029655,0.004979,0.62288,0.070246,0.057511,0.030291,0.026083
-0.64057,0.30248,0.030904,-0.80596,-0.074091,0.001086,0.030907,0.0073874
0.016841,-0.3796,-0.15115,0.10072,-0.024069,-0.024932,-0.039106,-0.10491
0.6236,0.25569,0.79948,0.28897,0.072332,0.065776,0.070111,0.18848
0.1503,-0.030055,-1.1457,-0.31713,-0.0031676,-0.062321,-0.078997,-0.10522
-0.10994,0.010168,0.52281,-0.011158,-0.047,-0.0026062,0.0058,-0.009751
-0.39216,0.10141,0.3694,0.73441,0.066209,0.010814,-0.0034819,0.013843
-0.2093,-0.20139,-0.30603,-0.48227,-0.014831,0.079631,0.049613,0.051636
-0.35242,-0.21659,-0.43606,-0.21928,-0.071219,-0.085241,-0.02219,-0.036693
0.51457,0.1841,0.041058,-0.050671,0.0064315,0.023854,-0.015581,-0.016371
0.056589,-0.10472,-0.27977,0.574,0.061743,-0.030827,-0.032022,-0.097929
0.35162,0.37395,0.96319,-0.32688,0.0085163,0.039509,0.053473,0.13302
-0.61076,-0.33,-0.11795,-0.15776,-0.052054,0.00025554,0.029841,-0.010847
0.65566,0.19918,0.033752,0.074139,0.051488,0.015338,-0.0015579,0.056415
0.18045,0.32107,-0.66633,-0.13974,-0.0093742,-0.048062,-0.0096917,0.022169
-0.41592,-0.30135,0.21166,0.16719,-0.023986,0.013307,-0.057222,-0.14503
-0.21,-0.13862,0.32315,0.18679,0.015366,-0.01126,-0.011385,0.015576
-0.36455,0.13549,-0.14575,0.49269,0.030676,-0.027738,-0.012725,-0.042928
0.58368,-0.29291,0.13942,-1.0529,-0.12617,0.042232,0.06394,0.10924
-0.21271,0.036491,-0.1583,0.33438,0.037472,0.0034496,0.0078967,-0.0042643
-0.020693,0.10038,0.062502,0.072421,0.053309,0.043358,0.014652,-0.00032187
0.18399,0.1728,-0.35353,0.2994,-0.015831,0.021102,-0.032874,-0.050505
-0.0022833,-0.18316,0.14233,-0.65733,0.03325,-0.094921,-0.017499,0.0094988
-0.10693,0.11856,-0.16628,0.46879,0.036246,0.02303,0.02161,0.039218
-0.1724,-0.0085253,0.26201,-0.13239,-0.054245,-0.023803,-0.025093,-0.070679
0.68073,0.27023,0.74139,-0.3873,-0.035814,0.022214,0.060955,0.1485
-0.31699,-0.16409,-0.6182,1.0201,0.11424,0.02828,-0.064141,-0.10022
-0.45931,-0.18819,-0.51276,-0.96955,-0.12812,-0.028847,0.052684,-0.0045007
0.068347,-0.13923,0.25129,0.66176,0.033703,0.0074321,-0.049451,-0.06444
0.071404,0.13877,0.14805,-0.53011,-0.017414,-0.0030659,0.020257,0.032382
0.1429,0.013754,0.065632,0.15794,-0.015385,0.010433,-0.026983,0.03592
0.81974,0.073463,0.61146,0.32637,0.071795,-0.014163,0.035707,0.14145
-1.1203,0.13288,-0.15263,-0.026716,-0.0049573,0.032817,-0.0023273,-0.18235
0.25615,-0.15678,-1.0068,-0.36449,-0.018156,-0.043812,-0.031529,0.0019163
0.061598,-0.25389,0.24735,-0.22035,-0.03734,-0.0097308,0.018429,-0.0090532
-0.067546,0.24195,-0.33879,0.60713,0.039554,0.033254,0.0067472,0.011068
0.53712,0.10517,0.59932,-0.46113,-0.037321,0.037866,0.050253,0.16355
-0.85336,-0.078427,-0.035478,0.27786,0.052133,-0.027652,-0.039041,-0.13786
0.0020149,0.11963,0.095135,0.051464,0.026129,-0.015395,0.011773,0.012794
0.58753,-0.084007,0.43592,0.11909,-0.01454,-0.011785,-0.055596,-0.017527
-0.080384,-0.051283,-0.53241,-0.11847,-0.062921,0.0062523,0.00070036,0.021105
0.069984,-0.050428,0.26994,-0.4865,-0.01826,-0.023985,0.032069,0.019408
-0.31111,-0.036804,0.046484,0.13522,0.064124,0.022478,-0.016143,-0.077044
0.098749,0.073931,-0.50677,0.30407,-0.011446,0.028581,0.012509,-0.0022458
0.14562,0.030925,0.23765,0.2015,0.036208,-0.0054269,0.032385,0.1036
-0.26957,-0.072233,-0.30868,-0.56278,-0.081771,-0.0089054,-0.02648,-0.032553
0.44168,0.046074,0.21429,0.08013,-0.021223,-0.012735,0.00032895,0.011442
-0.58532,-0.050965,0.24768,0.40045,0.093376,-0.0087243,0.0037658,-0.061154
0.034397,0.11403,-0.49989,0.18266,-0.034323,0.019111,-0.023686,0.015276
0.49764,0.18251,0.48554,0.054315,0.064858,0.024206,0.01979,0.06875
-0.046575,-0.1885,-0.40786,-0.75515,-0.077563,-0.047892,0.025034,-0.01026
-0.5754,-0.21701,0.073353,0.0084344,-0.063074,-0.025176,-0.078107,-0.096887
0.44065,-0.089817,0.37535,0.47628,0.092594,0.037679,0.030779,0.019753
-0.055842,0.44376,0.67608,0.00076573,0.084522,0.070245,0.078281,0.10533
0.22871,-0.18602,-0.72345,-0.52445,-0.12664,-0.060517,-0.068473,-0.082194
0.25198,0.068135,-0.59338,0.21784,0.013528,-0.0033476,0.020062,0.035501
-0.85572,-0.14514,0.78099,0.36592,0.059564,0.0070512,-0.0078955,-0.080455
0.11534,-0.060197,-0.98564,-0.44998,-0.097912,-0.029619,-0.058875,-0.039336
0.14222,0.20571,0.59074,0.46954,0.025624,0.011415,0.054301,0.13536
0.60992,0.20728,-0.03495,-0.068456,0.0007406,0.012826,0.018788,0.052736
-0.70457,-0.13337,0.33607,-0.45423,-0.00040185,-0.0019984,0.021752,-0.037637
-0.086123,-0.21403,-0.026277,0.84982,0.092738,-0.0017935,-0.030848,-0.042552
0.47713,-0.096158,-0.32079,-0.70606,-0.0087927,0.029123,0.0092308,0.0062332
-0.56647,-0.255,0.018566,-0.32083,-0.1019,-0.041984,-0.037763,-0.10257
0.53434,0.67001,-0.20906,0.75174,0.055452,0.01934,-0.0076785,0.07624
-0.13541,-0.39862,0.48922,-0.38235,-0.036947,-0.02901,-0.0096607,-0.058734
0.2963,0.2575,0.30793,0.19631,0.034753,0.047426,0.034742,0.11008
-0.28452,-0.13667,-0.48148,-0.25585,0.036024,-0.0012498,0.039957,-0.0027462
-0.015927,0.33024,-0.3114,0.25328,-0.072257,-0.026472,-0.032736,-0.060703
0.55043,-0.1264,0.3232,0.10767,0.0068244,0.010987,0.035698,0.13986
-0.73716,-0.35378,-0.34572,-0.331,-0.023493,-0.021485,-0.043595,-0.15842
-0.09856,0.34067,0.81294,0.12012,0.11037,0.040394,0.026403,0.036975
-0.20449,-0.35697,-0.30337,-0.38692,-0.13052,-0.092243,-0.090167,-0.086273
0.033866,0.084681,-0.34349,0.86241,0.12107,0.065105,0.044211,0.049958
0.43261,-0.0045308,-0.68261,-0.8789,-0.080219,0.043693,0.038843,0.062614
0.40905,0.20636,0.74136,0.82856,0.046715,-0.047253,-0.028325,-0.017557
0.019919,-0.24021,0.34143,-0.82724,-0.037389,0.010706,0.045529,0.097775
-0.054537,0.22925,0.31885,0.65255,0.073508,0.021827,0.0021701,-0.04539
-0.43213,0.062451,-0.24285,-0.16446,-0.081693,-0.037813,-0.049516,-0.096351
-0.32485,-0.1222,-0.21329,0.10055,0.0047438,0.018832,-0.0084564,-0.040161
0.75885,0.018998,-0.39089,-0.44003,-0.0030939,-0.011701,0.02339,0.068152
-0.5244,-0.11672,-0.0099324,-0.11946,-0.066043,-0.020186,0.0067357,0.056791
-0.11047,0.14052,0.2598,0.66685,0.18321,0.063759,0.043152,-0.0034241
0.31572,-0.031933,0.062907,-0.44437,-0.09116,-0.03302,-0.03897,-0.017881
-0.53994,-0.073852,-0.064143,0.70849,-0.014127,-0.044446,-0.059439,-0.11051
0.73867,0.028608,-0.33464,-0.41406,0.00020896,0.014396,-0.0019577,0.0010341
-0.3245,0.086898,0.46699,-0.052305,0.037689,0.019031,0.040447,0.059828
0.011152,-0.18044,0.30457,-0.78007,-0.050234,0.0011171,-0.0019022,0.035132
0.96074,0.1178,-0.8291,0.57303,0.03325,0.031179,0.043288,0.11446
-0.73084,-0.15779,0.86895,0.37386,0.022537,-0.0079942,0.004254,-0.038624
-0.45982,0.17403,-0.33134,-0.42477,-0.066611,-0.0072638,-0.0098459,-0.081231
-0.012445,0.029031,-0.20009,0.15987,-0.023002,-0.037327,-0.046375,-0.069093
0.14695,0.15884,0.20367,0.14708,0.067761,0.081072,0.026831,0.043685
0.048292,-0.27883,0.095402,-0.36895,0.018539,-0.066501,-0.0096508,-0.032678
0.50496,0.21728,-0.44049,0.31189,-0.0062825,-0.011528,0.015496,0.092099
-0.51155,-0.32052,0.088583,0.1757,-0.053362,-0.011861,-0.038695,-0.050682
0.13559,0.1008,-0.23729,0.058113,0.017996,0.026387,0.038639,0.03938
-0.14268,0.044241,-0.11851,-0.37002,0.0045621,0.0019158,-0.033554,-0.058949
0.048954,-0.13866,0.82242,0.047455,-0.0080036,0.0166,0.0029506,0.006644
0.37086,0.13729,0.19626,-0.22634,-0.0044943,0.0082131,0.047133,0.088459
-0.3066,0.15177,-0.55187,0.15789,0.084902,-0.023065,-0.033257,-0.055082
-0.10641,-0.035077,0.34982,0.23283,-0.013748,0.024381,-0.0033687,-0.040761
0.073824,0.081759,-0.062118,-0.145,-0.074271,-0.0292,0.012106,0.045637
0.24956,0.0072587,-0.68082,0.39919,0.028137,0.019167,-0.025811,-0.038182
-0.2364,-0.33118,0.51545,-1.1257,-0.058043,-0.0025792,0.046792,0.0043104
0.012977,-0.012957,-0.50493,0.19509,-0.0044124,-0.039933,-0.020436,0.03196
-0.011654,-0.069333,-0.061318,0.32142,0.041012,0.016338,-0.009231,0.012891
0.11013,0.39937,0.52011,0.63952,0.016186,0.033331,0.040823,0.055862
-0.013524,-0.17495,0.8511,0.33651,0.077727,0.01101,-0.026975,-0.050547
-0.024283,0.022899,-0.92553,-0.76344,-0.071045,-0.050623,-0.017602,-0.072218
-0.29034,-0.0043836,0.043494,0.17699,-0.039514,0.020338,-0.01707,-0.016942
0.077682,0.011048,-0.022124,-0.099463,0.094017,0.0051807,0.01383,0.0061676
0.062377,-0.085646,-0.70813,-0.37256,-0.10042,-0.025752,-0.018338,0.028767
0.16904,0.19813,0.59424,0.27547,0.0018743,0.036925,0.011819,0.027816
0.48819,-0.06793,0.3211,-0.57064,0.041297,0.0056955,0.04997,0.066065
-0.70253,-0.29163,0.22038,0.49678,0.033353,-0.03354,-0.028657,-0.067412
0.32007,0.14199,-0.36652,-0.13623,-0.045381,0.020733,0.018173,0.041223
0.022389,0.2772,0.31612,0.36223,-0.0072642,-0.0034011,0.0028207,0.00096669
-0.53369,-0.2089,-0.21728,0.19847,-0.016127,-0.012207,-0.035926,-0.071381
0.21591,0.072188,-0.77119,-0.055407,0.022049,-0.0056659,0.0031672,0.011433
0.14221,0.12702,0.66392,0.12425,0.052824,0.016283,0.0026266,-0.0083919
-0.12412,-0.24757,-0.47941,-0.84181,-0.048636,0.014671,0.0013482,-0.021166
0.38468,0.02004,0.13007,0.40388,-0.016652,-0.026013,0.014964,0.059637
-0.34005,-0.0050465,0.6431,-0.33609,0.031509,0.011546,0.0046081,0.01603
-0.018718,-0.2334,-0.27568,0.6083,0.017523,-0.0053418,-0.021545,-0.018374
-0.014126,0.25283,0.067364,-0.63154,-0.066712,-0.0062566,-0.0083406,-0.02726
0.11321,0.035104,0.090417,0.57625,0.03628,0.0088876,-0.025601,0.0054535
0.049965,0.13911,0.069784,-0.1907,-0.025392,0.0088985,0.028643,-0.029486
0.065999,0.088958,-0.24946,0.27069,0.060509,0.0094304,0.053065,0.10985
-0.15712,-0.28038,-0.089583,0.28907,0.043837,-0.012952,-0.046088,-0.1084
0.037194,-0.32287,-0.21725,-0.83742,-0.044137,-0.011399,0.027801,0.064834
0.16444,0.62218,0.041446,-0.29424,-0.14071,-0.017213,-0.014804,-0.012177
-0.17325,0.12932,0.22268,0.18699,0.074795,0.00076048,-0.018261,-0.043674
-0.18443,-0.4218,-0.11183,0.47655,-0.0065332,0.018931,0.024611,0.070944
0.42498,-0.095791,0.22543,0.59301,0.068886,0.013644,-0.019539,-0.020529
-0.071287,-0.23713,-0.43021,-0.60966,-0.0032866,0.015872,0.0051853,-0.013615
-0.068325,0.42047,0.60616,-0.090897,-0.0041338,-0.0059398,-0.0028922,-0.017414
-0.83382,-0.035298,-0.0068551,-0.34235,-0.003998,-0.0051891,-0.012386,-0.031212
0.3034,0.054134,-0.45773,0.43242,0.028186,-0.02893,-0.0073242,-0.038352
0.577,-0.098025,0.061957,-0.08823,-0.040651,0.0087479,0.020584,0.087318
0.18028,0.02557,0.41286,-0.17214,-0.046695,-0.0013785,0.0015473,-0.012523
0.15571,0.25389,-0.69415,0.17772,-0.013562,-0.019932,0.029782,0.069139
-0.48037,-0.31162,0.63923,0.46554,0.019589,0.0082007,-0.027178,-0.042341
-0.23763,-0.10941,0.1172,-0.6329,0.0058298,-0.0024665,-0.028519,-0.042343
0.3803,0.28093,-0.30368,-0.12145,0.062296,0.057839,0.057042,0.084348
-0.099735,-0.2126,0.10963,0.62169,0.063895,0.02533,-0.004964,-0.045682
-0.12729,0.33043,-0.3519,-0.0071735,-0.012938,-0.060808,-0.042834,-0.050242
0.31781,-0.028376,-0.91809,-0.28989,-0.12926,-0.03654,0.0057266,0.015487
