-0.13228,0.12916,0.018557,0.086767,0.061779,0.033446,0.016247,0.092196
0.017124,-0.019799,-0.0038304,-0.057889,-0.023228,-0.059213,-0.15973,-0.211
-0.54268,0.11994,-0.28091,-0.14242,-0.038386,0.0042367,0.11787,0.11671
0.72743,-0.39903,-0.062114,-0.065536,-0.038329,-0.010561,0.02645,0.0034101
0.14039,0.25772,0.052407,0.071331,0.039516,0.044831,0.048301,-0.028676
-0.068741,-0.090077,0.33019,0.11243,0.015532,0.021935,0.11149,0.012033
0.030805,0.13605,0.28107,0.081937,0.030397,-0.032457,-0.44893,-0.046256
-0.46561,0.054501,-0.3901,-0.10526,-0.017432,-0.024713,0.031099,0.039423
0.061518,-0.30949,-0.24463,-0.081166,-0.057655,-0.0096461,0.19303,-0.073295
0.21676,0.16331,-0.016398,0.0299,0.034705,0.036085,0.03057,0.078354
-0.30117,-0.11898,0.23964,0.064423,0.0096379,0.034323,0.25655,0.2308
0.24537,0.51695,0.23346,0.085288,0.03905,-0.014867,-0.2989,-0.36392
-0.25056,-0.52976,-0.17706,-0.15728,-0.048837,-0.056615,-0.040134,0.085035
0.1729,0.13148,-0.079714,-0.038225,-0.019481,0.0031249,-0.0046537,-0.10854
0.90536,0.46082,0.023649,0.051705,0.025787,0.024105,0.12118,0.32936
-1.0484,-0.77746,-0.1654,-0.020649,-0.022154,-0.0010861,-0.013567,-0.14063
0.13487,0.33683,0.22717,0.056622,0.016606,0.029459,-0.0026254,-0.074483
-0.23812,-0.26851,0.044851,0.024878,-0.014054,-0.063742,-0.15126,-0.17751
0.08434,0.20926,-0.10249,0.06281,0.026467,0.016186,0.039355,0.227
0.89377,0.34644,-0.12001,0.036594,0.01297,0.050264,0.1691,0.08877
-0.54012,-0.0069356,0.064027,-0.27336,-0.0080314,-0.0010169,-0.045316,0.13099
0.0313,-0.15653,-0.18174,0.085584,-0.0057528,-0.013244,-0.020084,-0.14915
-0.39827,-0.28994,0.12818,0.074378,0.011514,0.0051459,0.00068883,-0.16735
0.073958,0.015697,0.36152,0.013848,-0.019121,-0.0088761,0.12503,0.1154
-0.084384,0.05938,0.025999,-0.063824,-0.019748,-0.024383,-0.20223,-0.1819
0.1112,-0.015212,-0.1133,0.0065961,0.0096435,-0.017982,-0.050854,0.069215
0.52778,0.14704,-0.41641,-0.078409,-0.016643,-0.0050557,0.049507,0.037498
-0.61775,0.15123,0.24906,0.17429,0.02681,0.038303,0.02311,0.032777
0.38054,0.23466,-0.28082,-0.047284,0.0077059,0.018938,0.021168,0.051948
-0.68937,-0.90544,0.34624,-0.071231,-0.026566,-0.04693,-0.13334,-0.29216
0.42516,0.33308,-0.017066,0.227,0.049421,0.059931,0.17887,0.23644
0.77035,0.050863,-0.21327,-0.25491,-0.021867,-0.011746,0.15423,0.42629
0.085868,0.55801,0.12573,0.13839,0.0096802,-0.011877,-0.043132,-0.12347
-1.0368,-0.74293,0.16426,-0.10946,-0.035678,-0.034323,-0.22667,-0.54167
0.84023,0.55756,-0.012218,0.008862,0.02938,0.030044,0.1019,0.3938
-1.0907,-0.38125,-0.084572,0.0089116,-0.037601,-0.022223,-0.15323,-0.39943
0.46247,0.17072,0.039317,0.03157,0.013064,0.027303,0.060478,0.028394
0.023781,0.21038,-0.30633,-0.055492,0.024789,0.037727,0.21773,0.49549
-0.40167,-0.33386,0.2755,0.013882,-0.026198,-0.061449,-0.096986,-0.053499
0.083696,-0.20342,0.10428,0.04479,0.016039,-0.020314,-0.11116,-0.39146
0.10293,0.049753,-0.16388,-0.056335,0.010606,-0.010762,-0.083026,-0.024704
0.22036,0.25021,-0.11436,0.33545,0.058865,0.084405,0.22959,0.27528
0.58797,-0.15171,-0.035209,-0.076947,-0.12053,-0.10983,-0.19643,-0.4505
0.27263,0.59116,0.18417,-0.35627,0.066173,0.20331,0.38159,0.97137
-0.90721,-0.79827,-0.0098734,-0.14329,-0.11526,-0.23417,-0.47326,-0.87226
0.85484,0.86251,0.20356,0.12442,0.10881,0.13219,0.23186,0.65953
-1.0347,-1.0659,-0.38648,0.017178,-0.011359,-0.018169,0.0055017,-0.55829
-0.073802,0.42395,0.21946,0.3786,0.040108,0.025548,0.059505,0.27898
0.040041,0.18962,0.16893,0.15372,0.036878,0.005578,-0.042534,-0.046962
-0.12746,0.072096,-0.062415,-0.19691,-0.091146,-0.10902,-0.20553,-0.23025
0.69778,0.24003,-0.21738,-0.32985,0.023448,0.096376,0.27517,0.47319
-0.74478,-0.38001,-0.18673,-0.088836,-0.072215,-0.12743,-0.28638,-0.76248
0.95907,-0.11858,-0.017041,0.065633,0.036192,0.095412,0.18929,0.38524
-0.11117,-0.23498,0.26885,0.11873,0.005143,-0.0077611,-0.078227,0.050512
-0.60287,-0.11251,-0.062913,-0.0067372,0.006623,-0.0067854,-0.042011,-0.17297
0.49925,0.70212,0.19882,0.096221,0.056182,0.051518,0.14857,0.40822
-0.55717,-0.0095566,0.24131,0.50603,0.020709,-0.020777,0.054129,0.18109
0.8482,-0.17728,-0.19374,-0.6682,-0.069042,0.009855,-0.0076914,-0.15608
-1.0572,-0.21589,-0.13021,-0.11472,-0.01056,0.017297,0.0069947,-0.05366
0.86592,0.41995,-0.38055,0.040391,0.015849,-0.030858,-0.10773,-0.25809
-1.0963,-0.77181,0.1966,0.17876,0.0018847,-0.057442,-0.1039,-0.32649
0.80148,0.9098,0.0089168,0.37745,0.041039,0.093244,0.15041,0.26441
0.53821,-0.13847,-0.035637,-0.39555,-0.054156,-0.063208,-0.10221,0.055744
-0.75144,-0.51884,0.25194,0.11731,-0.0099428,-0.065384,-0.11014,0.012135
0.32544,0.20699,-0.041687,-0.052409,0.010162,0.071957,0.12899,0.25512
0.17085,0.0024071,0.02843,-0.28658,-0.04007,-0.025153,0.11783,-0.070663
-0.39715,0.20736,0.20298,0.19741,0.06653,0.042664,-0.071046,-0.095225
-0.71421,-0.45432,-0.34067,-0.028655,-0.029002,-0.028664,-0.061198,-0.23152
1.0272,0.40563,0.035554,-0.018225,0.01721,0.042243,0.053947,0.26978
-0.61319,-0.3094,-0.0064362,0.17462,0.064347,0.067507,0.11735,0.054971
0.96456,0.044747,-0.085013,0.23721,-0.0052194,-0.031779,-0.013251,0.11328
-0.2331,0.24299,0.15932,-0.22973,-0.067048,-0.076904,-0.011748,0.074608
-1.0678,-0.059363,-0.037597,-0.071141,-0.020076,-0.014082,-0.075276,-0.33646
0.37803,0.29851,0.11583,0.14939,0.041671,0.023295,-0.12683,-0.12031
-0.058569,-0.2352,-0.28358,-0.27177,-0.045832,-0.019556,-0.064911,-0.29109
0.92511,-0.03335,-0.24851,-0.068706,-0.024404,0.0062482,0.12714,0.27149
0.26967,0.00033606,0.42627,0.025228,0.067494,0.078178,0.18565,0.43869
-0.78938,-0.60678,-0.039794,-0.066664,-0.035077,-0.068192,-0.12135,-0.16048
-0.040752,0.62789,0.4539,0.3444,0.0044045,-0.064431,-0.15087,-0.16357
-0.38975,-0.068531,-0.19664,-0.014429,0.030004,0.059244,0.091013,0.1104
-0.099266,0.017574,-0.20576,-0.15917,0.010423,0.0065443,0.050319,-0.042458
0.50002,0.24981,-0.0066411,0.62747,0.062434,0.066524,-5.8571e-05,-0.093688
0.2364,-0.22629,0.015103,-0.53944,-0.049042,-0.011459,0.094355,0.35866
-0.12966,-0.65613,-0.51707,-0.32628,-0.098274,-0.02545,-0.036327,-0.29982
0.10962,0.47921,0.24045,0.13227,0.023322,-0.00038099,0.026669,0.12148
0.069604,0.12612,0.25745,0.17898,0.065158,0.023164,0.077362,0.33782
-0.98521,-0.068578,-0.1598,-0.10795,-0.051185,-0.05764,-0.2378,-0.69134
0.80334,0.3673,0.63867,0.18662,0.018079,-0.063872,-0.16953,-0.035472
-0.40277,-0.23678,-0.40078,-0.0058321,0.046715,0.1137,0.15009,0.073985
0.72868,0.51807,-0.043423,-0.10504,-0.042864,-0.079147,0.0042314,0.14918
-0.61294,-0.34349,0.0074606,-0.030834,-0.046888,-0.0086315,0.020542,-0.047407
0.46237,-0.31009,-0.2954,0.02308,0.07433,0.099925,0.22521,0.47247
-0.40002,-0.34336,0.0086582,-0.012758,-0.02246,-0.017821,-0.074829,-0.22648
-0.33014,-0.17447,0.1541,-0.10717,-0.040093,-0.079523,-0.20634,-0.37857
0.85329,0.24215,0.28992,0.33257,0.091778,0.13433,0.30753,0.68617
-0.004539,0.31334,-0.074973,-0.31252,-0.064558,-0.1025,-0.20578,-0.47314
-0.13573,0.196,-0.14218,0.31472,0.0061282,0.014611,-0.028907,0.26466
-0.30185,0.35003,-0.12066,-0.045619,0.037729,0.032132,0.13336,-0.31478
-0.79339,-0.48633,0.27307,0.042506,0.0063609,-0.027115,-0.14243,-0.11202
0.54682,0.054665,-0.083619,-0.35088,-0.033583,0.015865,0.056594,0.1304
0.70599,0.10333,-0.17296,0.048769,-0.035288,-0.034891,-0.059237,0.038879
-0.71832,-0.50122,-0.41535,-0.25616,-0.068874,-0.047093,-0.083693,-0.13382
0.77777,0.24318,0.18175,0.23757,0.069191,0.041408,0.14774,0.22511
-0.75576,0.12003,0.72661,0.463,0.10599,0.097627,0.073289,-0.021652
0.8705,0.11694,0.12278,-0.24125,-0.028257,-0.026891,0.060945,0.23777
-0.81153,-0.15974,-0.063403,-0.13159,-0.028459,-0.011714,-0.083879,-0.30007
-0.067789,-0.52381,-0.70366,-0.012989,-0.066256,-0.13006,-0.20437,-0.088496
0.29622,0.65786,-0.1304,0.073553,0.014612,0.063676,0.043587,0.17574
-0.13442,-0.38658,0.20008,-0.10964,-0.0048106,-0.0083216,0.089869,-0.16598
0.68667,0.68891,0.30967,0.2146,0.086011,0.13861,0.19231,0.31322
-0.43564,-0.30054,-0.020193,0.26871,0.013098,-0.034355,-0.071089,0.024677
-0.11769,-0.14923,-0.25655,-0.48976,-0.083531,-0.11301,-0.2552,-0.50252
-0.74092,0.07486,0.40024,0.24966,0.068989,0.066777,0.092853,0.10535
0.35226,-0.49355,-0.61692,-0.63835,-0.10792,-0.065284,0.043145,0.23085
0.90467,0.38128,0.32783,0.089774,0.0026664,0.014201,-0.021765,-0.070601
-0.90477,-0.12037,0.15878,0.56949,0.080367,0.078564,0.21034,0.16339
0.67129,0.5715,0.13515,-0.14128,-0.05438,-0.091126,-0.26868,-0.19029
-0.059106,-0.4975,-0.19586,0.17938,0.075253,0.075177,0.064208,0.018688
0.031241,0.31893,-0.11617,-0.0519,0.024315,0.014646,0.0054751,-0.14555
-0.22741,-0.46626,-0.10375,0.025978,-0.08178,-0.062128,0.039091,0.13057
-0.32377,0.31598,0.17553,-0.32043,-0.016024,0.032067,0.063187,0.03488
0.77944,0.14756,-0.13963,0.010774,0.0032759,0.015828,-0.0083121,0.31703
-0.86925,-0.53584,0.058312,-0.035166,0.015592,-0.024865,-0.13624,-0.26609
0.29009,0.21801,0.4788,0.21329,0.013437,-0.058502,-0.038966,-0.090644
-0.10145,-0.067445,-0.73855,-0.11163,0.0048109,0.032552,0.15133,-0.032721
-0.026076,0.42891,0.56997,0.051653,-0.018082,-0.01678,-0.12707,-0.17116
0.22153,-0.25241,-0.3374,0.18623,0.046155,0.075291,0.20478,0.34543
-0.037979,-0.039216,0.25155,-0.22517,-0.044982,-0.034579,-0.19619,-0.13884
0.64541,-0.01525,-0.22364,0.065616,0.051847,0.028795,0.068881,0.20494
-1.2516,0.10317,-0.06515,-0.029216,-0.046596,-0.0080916,0.046926,-0.18473
0.34469,-0.11102,-0.14538,-0.073734,-0.028174,-0.036173,-0.074867,-0.017754
0.59727,0.31361,0.39714,0.37634,0.028738,-0.0012425,0.023168,-0.04332
0.40869,-0.44061,-0.1318,-0.54649,-0.0166,0.041447,0.012026,0.043708
-0.30368,-0.012057,0.17372,0.29109,0.0155,-0.064913,-0.023322,-0.069246
-0.23824,0.21015,-0.22721,-0.078427,0.0079266,0.054202,0.16624,0.22653
-0.71485,-0.2112,0.1075,-0.02044,0.007656,-0.023423,-0.099619,0.18764
0.48266,0.44128,0.1738,0.19363,0.0304,0.0067243,-0.14148,-0.37506
-0.70569,-0.92935,-0.52466,-0.14525,-0.048789,-0.01161,-0.076416,-0.11185
0.25801,0.85161,0.48525,-0.17628,-0.042391,-0.00014436,0.1273,-0.17298
0.72659,0.3873,-0.16558,0.05439,0.0496,0.033613,0.04849,0.44004
-0.11085,-0.18034,0.11675,0.35133,0.024082,-0.0036554,0.055071,0.077706
0.90981,-0.14595,0.12376,-0.067589,0.0061219,0.01359,0.1321,0.2084
-0.87818,-0.45816,-0.40554,-0.039693,-0.011948,-0.0234,-0.18078,-0.24552
-0.26186,-0.20311,-0.3478,-0.11337,0.0013559,-0.020215,-0.0080656,-0.35286
-0.47635,-0.25261,0.061412,-0.071083,-0.07865,-0.046535,-0.083645,-0.033083
0.35837,0.74314,0.48414,0.039702,0.029638,-0.00029476,-0.11795,-0.033095
0.51957,0.37786,0.36945,-0.085545,0.0062199,0.087513,0.23323,0.38467
0.010784,-0.25459,-0.16468,-0.00072544,0.023149,-0.0019408,0.048339,-0.074061
-0.078124,-0.38197,-0.3003,0.07651,0.0022616,-0.019121,-0.055418,0.021808
-0.73434,-0.25799,-0.065907,0.061233,0.021387,0.011719,-0.047161,0.093963
0.82991,0.75104,0.41459,0.17275,0.048758,0.0035885,-0.0057956,-0.10937
-0.82239,-0.17766,0.048278,-0.02656,-0.033455,0.0022568,0.028493,0.0025873
0.66258,-0.25257,-0.46757,-0.28745,-0.077439,-0.040104,-0.031539,0.027903
0.39786,0.62845,-0.10536,0.099764,0.03354,0.071214,0.20346,0.072776
-0.4322,-0.51117,0.0011514,-0.085038,-0.052258,-0.12486,-0.26751,-0.16176
-0.48678,-0.35016,-0.27142,0.18821,0.063738,0.043913,0.16439,-0.051197
0.16032,0.71619,0.35385,0.1454,0.014749,0.023646,-0.063254,0.085459
-0.042747,-0.39957,0.60778,-0.23686,-0.050217,-0.051803,-0.13726,-0.3037
0.34189,-0.37526,-0.38837,-0.2312,-0.021189,0.021766,0.021635,0.15212
-0.22755,0.50497,0.43882,0.22638,0.10232,0.096787,0.10231,0.12834
0.00067058,-0.40035,-0.73691,-0.041963,-0.023192,-0.045001,-0.0033816,0.03375
0.63485,0.28367,0.18677,0.043769,-0.014897,0.0026768,0.080416,0.18957
-0.3277,0.11091,0.069225,0.11782,-0.0058615,-0.010604,0.010202,-0.038038
0.509,0.016131,-0.23844,-0.037879,-0.01995,-0.0074752,-0.058139,-0.034627
-0.49572,0.21265,-0.018106,-0.16575,-0.034226,-0.035725,-0.008268,-0.08525
-0.54857,-0.081344,0.47162,0.21747,0.09147,0.020962,-0.075653,-0.14704
0.086688,-0.47841,-0.36407,-0.21031,-0.057258,0.036931,0.066771,0.011037
-0.24671,0.078827,0.27031,0.048871,0.042895,-0.0037467,-0.011457,-0.081771
0.30654,-0.056395,-0.50994,0.53217,0.0014088,-0.0072061,0.02527,0.27734
-0.31035,0.15657,0.37109,-0.79297,-0.1267,-0.11355,-0.12756,-0.21497
0.81396,0.43884,0.497,0.2449,0.088753,0.092128,0.05413,0.17053
0.39234,0.10688,-0.47802,0.16982,0.054593,0.071787,0.22754,0.1092
-0.78902,-0.47382,0.085426,-0.34487,-0.095838,-0.1345,-0.3328,-0.57501
0.7304,-0.20096,-0.047122,0.28094,0.07533,0.13033,0.31168,0.60549
-0.83587,-0.25113,-0.61657,-0.067942,-0.025526,-0.070763,-0.11162,-0.13611
0.050482,0.21634,0.10607,-0.16348,-0.054819,-0.073743,-0.23503,-0.15821
0.46543,0.25363,0.6551,0.29951,0.096398,0.10526,0.16024,0.14814
-0.30362,-0.13466,-0.20093,0.10163,-0.025618,-0.011275,0.034662,-0.14843
-0.65466,0.21042,0.0088973,-0.25885,0.00032766,0.044141,0.043557,0.19946
0.96264,0.10932,0.36371,0.22347,0.064271,0.043587,0.091865,0.1497
0.0082562,-0.0028678,-0.12095,-0.11016,-0.11539,-0.13915,-0.13439,-0.35529
-0.8517,-0.31792,-0.64896,-0.33983,-0.069948,-0.020502,-0.066259,0.025979
0.5746,0.86246,0.46636,0.4164,0.11499,0.071135,0.092143,-0.059251
-0.012038,-0.7,0.20134,-0.15351,-0.052194,-0.074816,-0.11268,0.12337
-0.035724,-0.34289,-0.498,-0.20396,0.030791,0.073812,0.13213,-0.0032334
0.023836,-0.17423,-0.098775,0.29915,0.044305,0.026139,-0.0082969,0.10964
0.28694,0.060244,0.20588,-0.219,-0.042411,-0.067941,-0.071438,-0.19994
-0.17481,0.30433,-0.16015,-0.0052889,0.052095,0.011676,-0.11012,0.0075467
-0.10405,0.42422,0.54639,0.45041,0.015227,0.031634,0.10398,0.21793
-0.38538,-0.47283,-0.29224,-0.44465,-0.10649,-0.0075565,0.10342,-0.16969
0.72854,0.28825,0.33718,0.25443,0.037988,0.01903,-0.01747,0.24289
-0.75753,-0.026986,-0.53036,-0.15725,-0.059713,-0.037682,-0.03246,-0.25631
0.21589,-0.10927,0.42828,0.10662,0.07644,0.039973,-0.020893,-0.020481
0.68514,0.59042,-0.041892,0.058529,0.039781,0.00066481,-0.023748,0.089157
-0.64098,-0.58306,-0.25722,-0.16386,-0.029327,-0.024136,0.0035611,0.016168
0.32988,-0.10473,0.1476,-0.023738,0.001854,0.026962,0.11347,0.001403
-0.24644,-0.064981,-0.30349,-0.03798,-0.038442,-0.0029801,0.093271,0.091035
-0.14281,-0.1766,-0.0061541,-0.034849,-0.048376,-0.12193,-0.33143,-0.46489
0.322,0.56914,0.30177,0.11144,0.074002,0.076729,0.2223,0.57657
-0.27164,-0.55908,-0.30464,0.050718,-0.03026,-0.046825,-0.31467,-0.34569
0.21166,0.25534,0.13945,-0.051389,0.037643,0.10219,0.20039,0.1451
-0.03035,-0.13999,-0.059368,0.18156,0.027957,0.0014144,0.051294,0.074264
-0.22241,0.11676,0.30911,-0.054048,-0.035791,-0.020131,-0.0015636,-0.16579
0.33163,0.41657,0.31966,-0.14033,-0.01304,0.030367,0.090784,0.051327
-0.50911,0.27333,-0.09536,-0.10036,-0.00552,-0.049923,-0.053235,0.0077281
0.5119,-0.12083,-0.20713,0.15975,0.025618,-0.018835,-0.066232,-0.093293
0.064722,-0.68339,-0.20744,0.038503,0.0020517,-0.017269,-0.089656,-0.033523
0.49135,-0.065192,-0.26195,-0.16722,-0.068548,0.032448,0.17952,0.3265
-0.71688,0.084904,0.037575,-0.082413,0.024693,-0.0030533,-0.018715,-0.085148
0.11261,0.089059,0.17315,0.47254,0.063029,0.047509,0.00082528,0.12046
-1.1895,-0.3303,-0.31595,-0.34625,-0.047236,-0.035175,-0.076428,-0.39407
0.79473,0.27658,0.49336,0.046946,-0.0013263,-0.025,-0.064428,-0.043676
0.50755,0.14799,-0.13299,-0.012203,0.052429,0.062121,0.1456,0.17154
0.24197,0.64553,0.40437,0.093266,0.012608,-0.0082525,-0.016337,0.18974
-0.76548,-0.56689,-0.38473,-0.058656,-0.073735,-0.079686,-0.12715,-0.2926
0.25037,0.062973,0.013418,-0.046089,-0.011056,0.035735,0.010302,0.11655
0.73938,-0.25027,0.46845,0.045164,0.013402,-0.020779,-0.00026927,0.0043014
-0.93682,0.16052,-0.27735,-0.13626,-0.0079343,0.024857,0.23383,0.011929
0.8555,0.13496,-0.63885,0.097292,0.018828,0.032605,-0.12168,0.17841
-0.85155,-0.0092616,0.6415,0.058301,0.00772,-0.036197,-0.073664,-0.21587
-0.30598,-0.78835,-0.36456,0.074609,0.036609,0.037339,-0.020438,0.038518
0.72279,0.46318,-0.161,-0.17466,-0.04343,-0.02039,0.060723,0.010016
-0.43854,0.04504,0.50072,0.23157,0.048189,-0.014507,0.012147,0.017057
0.43746,0.14025,-0.18325,-0.12942,-0.017386,0.023104,0.050677,-0.11378
0.033246,-0.045182,0.063115,-0.18025,-0.053312,-0.0020269,-0.021081,0.21818
-0.20968,0.53731,0.2435,0.07077,0.033712,-0.012464,-0.056614,-0.15905
-0.028868,-0.46364,-0.19259,0.037571,-0.037716,-0.0087586,-0.0026921,-0.041535
0.32252,-0.35378,-0.45184,0.20475,0.045095,0.0087524,-0.0085186,0.017585
-0.73726,0.46669,0.20399,-0.10685,0.0013876,-0.014712,0.050929,0.16104
0.58415,-0.1679,0.40318,-0.20117,-0.05875,-0.024328,-0.15953,-0.1557
-0.00025501,0.3589,-0.094033,0.21954,0.068603,0.081778,0.15829,0.030476
-0.45855,-0.5616,-0.0048434,-0.14857,-0.045504,-0.063166,-0.056529,-0.067789
0.77099,0.20562,-0.43015,-0.039129,0.0057213,0.03346,0.033489,0.019194
-0.86835,-0.61729,-0.049737,0.15774,0.035037,0.004863,0.046792,0.17429
0.97209,0.46566,0.64346,0.03604,-0.012307,-0.062707,-0.093949,-0.040819
-0.67187,0.22324,-0.17209,0.080137,0.043033,0.080969,0.24438,0.10682
-0.014095,0.13356,0.033388,-0.1945,-0.033845,-0.009276,-0.25086,-0.17359
0.1621,-0.14007,-0.24948,0.00099919,-0.0091381,-0.036469,-0.017586,0.0070163
0.35597,0.11794,-0.022192,-0.091308,-0.031753,-0.0083326,0.02962,-0.14155
-0.53328,0.20728,-0.16107,0.083232,0.030864,0.043994,0.038695,0.12243
-0.034754,-0.45611,0.43421,0.10274,-0.01659,-0.043415,-0.053239,-0.18526
-0.051611,-0.080986,-0.29236,-0.13443,-0.017616,-0.0047867,0.089537,0.11557
0.1617,-0.27319,0.079543,-0.073903,-0.026498,0.0037442,0.013828,0.15052
0.2565,0.41824,0.12618,0.25251,0.05095,0.0056498,0.0087641,0.14652
-0.21083,0.18104,0.056385,0.21119,0.058809,0.024277,-0.10517,-0.17771
0.28332,-0.25578,-0.17094,-0.31593,-0.026216,0.035954,0.039428,0.068042
-0.13749,0.2135,0.37239,-0.063931,0.014542,0.0012586,-0.010333,-0.038704
0.15691,-0.41379,-0.39225,-0.095659,-0.061378,-0.080243,-0.098091,-0.20168
-0.3524,0.33653,-0.24519,0.065614,-0.0043552,0.0097599,0.15887,-0.11661
-0.1843,-0.046233,0.22233,0.068963,0.013347,-0.0025474,-0.060168,0.14601
-0.27122,0.16054,0.13141,0.14971,0.030482,0.023186,0.040947,0.09405
0.69751,-0.095441,-0.036546,-0.18333,-0.03125,-0.0069435,0.023711,0.21985
0.05704,-0.38377,-0.214,-0.046483,-0.0078151,0.024207,0.074514,0.06273
0.59665,0.52895,0.29883,0.26389,0.02276,0.015125,-0.19045,-0.12693
-0.77616,-0.39107,-0.22142,-0.14271,-0.033096,-0.041876,0.095358,-0.29385
-0.62957,0.20388,0.211,0.16323,0.074812,0.040888,-0.052522,-0.007439
0.23447,-0.38626,0.056481,-0.34214,-0.075223,-0.087913,-0.055443,-0.063483
-0.095215,0.38804,-0.14047,0.075089,0.040336,0.032924,0.0095543,0.015654
0.68841,0.47499,0.014881,0.078522,0.015264,0.059922,0.089243,0.24631
0.34443,-0.25436,0.1197,-0.12913,-0.056718,-0.053532,-0.064802,0.097295
-0.40069,-0.13822,-0.19755,0.22517,0.058716,0.059985,0.11916,0.2398
0.16265,-0.52822,-0.17499,0.039444,-0.0056483,0.0022411,0.04845,-0.20242
-0.32696,-0.086125,0.23937,-0.24926,-0.046649,-0.070334,-0.1357,-0.17607
-0.77786,0.52832,-0.16693,0.36649,0.021764,-0.0013348,-0.0034907,-0.19784
0.73029,0.10969,0.31661,-0.42604,-0.0346,-0.001578,-0.055216,0.0053698
-0.1157,-0.36766,-0.059579,0.1623,0.034473,0.0071126,0.036601,0.027788
0.5203,0.33531,-0.41952,-0.016462,0.0026133,0.03249,0.036694,0.15956
0.17826,-0.083255,0.36312,0.1792,0.018377,0.019663,0.076818,0.026956
-0.80454,0.18199,0.25076,-0.18698,-0.011983,-0.0161,-0.094151,-0.009695
-0.098441,0.2468,0.041914,0.058297,0.020792,0.0028551,0.0070647,0.13582
0.6495,-0.68872,-0.57418,-0.09144,-0.024136,-0.0021136,0.04357,0.064544
-0.79415,-0.13629,-0.18158,-0.11958,-0.037663,-0.039286,-0.032214,-0.24038
0.53949,0.36103,0.44037,0.20075,0.026815,0.00038677,-0.11128,-0.10083
-0.022342,-0.083154,0.027748,-0.0059846,0.012817,0.030847,0.14235,0.083253
0.2607,0.13786,0.10524,0.17282,0.021749,0.036584,0.065043,-0.025107
-0.21541,-0.071317,-0.13919,-0.061928,-0.02458,-0.060191,-0.053298,0.15973
0.32035,0.20292,-0.14351,0.06846,-0.0011524,0.022268,-0.0553,0.067982
0.030497,0.18783,0.2393,-0.37595,-0.056317,-0.051406,-0.064673,-0.16619
-0.8505,-0.56008,-0.1727,0.20465,0.060053,0.0083793,-0.087962,-0.095558
-0.11748,-0.20216,-0.12443,-0.07331,-0.0034753,0.022317,0.11023,-0.13988
0.66304,0.24144,0.30309,-0.084374,0.0032001,0.05306,0.14765,0.28088
-0.41047,0.51617,0.22455,0.24327,0.048891,0.030194,0.016488,-0.14457
0.53361,-0.46129,-0.27581,-0.095978,-0.046058,-0.038783,0.0052352,0.29487
-0.36123,0.0057314,-0.1282,-0.099596,-0.015994,-0.013667,-0.12146,-0.058025
-0.11814,-0.1065,-0.1052,0.14879,-0.024929,-0.058924,-0.052204,-0.13494
0.86173,-0.081295,-0.21257,0.018127,0.020985,0.028308,0.063566,0.16309
-0.54418,0.90591,0.31816,-0.045334,0.0125,0.013589,-0.032614,-0.11187
0.17272,-0.16487,0.12281,-0.12743,-0.011183,-0.032638,-0.08317,-0.16501
0.00523,-0.57127,0.11013,0.16182,0.020357,-0.00074411,0.060456,-0.013069
-0.51333,-0.18341,-0.030846,0.1729,-0.0022056,0.023606,0.047028,0.0080724
0.12971,0.28695,0.1065,-0.19699,0.030479,0.064034,0.072208,0.15732
0.27865,-0.12717,-0.43161,-0.1364,-0.030118,-0.020056,-0.043469,0.022415
-0.44532,0.20346,0.16605,-0.03659,-0.02007,0.021192,0.12191,0.011689
-0.12946,-0.23863,0.015123,0.039722,-0.017659,-0.078116,-0.17396,-0.11515
0.5932,0.014011,-0.26075,0.10047,0.0082041,-0.0058041,-0.032813,0.0026176
-0.40325,0.092132,0.39994,-0.0025738,0.018296,0.01909,-0.0094466,0.029668
0.66712,0.054097,-0.2455,0.082192,0.020265,-0.027069,-0.010096,0.075203
-0.21776,0.12716,0.26382,0.02636,0.021761,0.043144,0.051339,0.075916
-0.5913,-0.23037,-0.17328,-0.069135,-0.047679,0.018834,0.17513,-0.094366
1.0334,0.48365,0.068954,-0.10358,0.014966,0.017339,-0.075858,-0.0384
