0.030331,-0.03279,-0.21812,-0.049598,-0.0037893,0.014382,0.00024312,-0.031757
-0.074872,0.05459,0.19426,0.037764,0.013577,0.00031754,-0.00036743,0.13641
-0.079312,0.057717,0.26182,0.00032753,2.1253e-05,-0.0061767,-0.024226,-0.20046
-0.030328,-0.078222,-0.48484,-0.036962,-0.0056291,-0.013038,-0.0088314,-0.012034
0.18128,0.068343,0.11001,0.019558,-0.0036328,0.0031014,0.014549,0.12235
-0.053789,-0.14364,-0.071061,-0.017748,-0.0020419,0.0031659,0.014635,0.076463
0.022576,0.02754,-0.18428,0.01499,-0.0010354,0.010623,-0.00080459,-0.17411
-0.011102,0.057974,0.61436,0.039414,-0.00070212,0.0020948,0.015048,-0.036152
-0.0059315,0.025361,-0.16691,0.016227,-0.0010279,0.0010969,-0.031617,0.12311
0.054166,0.10121,0.17554,0.01556,0.0059092,-9.3452e-05,-0.00022943,-0.078651
-0.10383,-0.16007,-0.70145,-0.13452,-0.01096,-0.017001,0.007618,-0.10155
-0.034273,-0.00085563,0.16375,0.034842,0.011082,0.012987,0.0075512,0.36794
0.028653,-0.085321,0.14686,0.0083064,-0.0058747,-0.019385,-0.0082048,-0.38014
0.038042,0.070856,0.17045,0.028473,0.008661,0.011002,0.0072968,0.13941
0.024826,0.13951,0.21167,0.017676,0.00012258,0.002691,-0.00053448,0.2006
0.019645,-0.090341,-0.38531,-0.0080383,-0.00018567,0.010441,-0.00033944,-0.0087054
-0.12678,0.045331,0.12985,-0.0093101,-8.1623e-05,-0.004778,-0.0076406,-0.27743
0.24089,0.085642,-0.18003,0.045247,0.00038611,0.011707,0.0088857,0.027236
-0.081204,-0.14885,0.20107,-0.047523,-0.014479,-0.018283,-0.028866,-0.055793
0.00034264,-0.087339,-0.26549,-0.037795,0.0021215,-0.0088936,0.011862,-0.042577
-0.17825,0.08347,0.27999,0.027277,0.0032393,0.00071007,0.013737,0.15978
-0.037899,-0.065161,0.0016298,0.022355,0.0044322,0.010413,0.015592,0.042105
0.079191,-0.071348,-0.39798,-0.021671,-0.0021795,0.004464,0.01714,0.29782
0.15925,0.21406,0.20491,0.043288,0.014582,-0.0016438,-0.020974,-0.12988
-0.12405,0.16636,0.42536,-0.0096316,-0.0078638,0.0075782,-0.013049,-0.13363
-0.011589,-0.097444,-0.25504,-0.055655,-0.014914,-0.014874,-0.037334,-0.33978
0.051847,-0.22637,-0.011394,0.0066571,0.0089768,0.0012068,0.015575,0.07163
0.073593,0.07561,-0.034284,0.044492,0.0012425,0.0010674,0.020856,0.10923
0.020927,0.049803,-0.26363,-0.0045271,0.00090738,0.01595,0.017875,0.19685
-0.11627,-0.20301,0.40871,0.00046528,0.00015739,-0.016585,-0.0086179,0.087258
-0.059563,0.12127,-0.30601,-0.0026917,0.0068466,0.0051528,0.0042661,-0.21636
-0.1791,0.12376,0.28168,-0.029216,-0.0023759,0.0032264,-0.013439,0.25015
0.38181,0.022958,-0.22315,0.0072594,-0.011759,-0.02214,-0.022409,-0.4713
0.035282,-0.064134,-0.0033732,-0.025681,-0.013338,-0.00040785,0.008745,0.035431
-0.13368,0.049959,0.055639,0.05195,0.016481,0.021738,0.025333,0.2011
0.016002,-0.13462,0.1153,-0.017515,-0.00029074,-0.0024596,-0.0040444,0.1661
-0.052791,0.10908,0.1331,0.039315,0.022373,0.020769,0.014082,0.01479
-0.055394,-0.22617,-0.79429,-0.051229,-0.017062,-0.018031,-0.022225,-0.23225
0.012742,0.12603,0.64661,0.046405,0.0063744,-0.0096465,-0.011819,0.046227
0.0082692,0.072684,0.20455,-0.019821,-0.0089627,-0.0011598,-0.0019625,-0.22427
-0.36086,-0.065225,-0.43639,-0.055079,-0.008496,0.0072148,0.030478,0.52259
0.45592,0.079924,0.085781,0.018328,-0.00015678,-0.0003258,-0.0084127,-0.25539
0.16351,0.21146,0.42108,0.051643,0.0081333,-0.00045664,0.014186,0.12754
-0.16836,-0.092426,-0.093025,-0.017824,0.0006604,-0.0010195,-0.018726,0.061988
0.08231,-0.3942,-0.23523,-0.033879,0.00080086,-0.0019579,-0.013054,-0.34085
-0.11288,0.16563,-0.18858,0.050418,0.024151,0.0046711,-0.023037,-0.35891
-0.010087,0.0013362,-0.039912,-0.046018,-0.030845,-0.0043883,0.0064761,0.21511
0.095305,-0.027591,-0.3814,0.012991,-7.7699e-05,0.0023156,0.021182,0.13523
-0.2319,0.13337,0.67337,0.016804,-0.00065141,-0.0062792,0.021289,0.24814
0.012252,-0.024306,0.48073,0.012625,0.0066056,0.0090324,0.014579,0.43776
0.083838,-0.095723,-0.54021,-0.02263,-0.0016263,-0.0063634,-0.022652,-0.39062
0.061518,0.35467,-0.064739,0.012954,-0.0018066,0.010027,0.010704,-0.15366
0.096307,-0.14412,-0.027172,-0.020908,0.0061311,-0.0043794,-0.010892,0.067031
-0.47174,-0.25825,-0.097801,-0.030178,-0.0090481,-0.0028487,-0.0098124,-0.14594
0.38583,0.34679,0.19979,0.0087848,0.015117,0.0066384,-0.0020212,-0.076082
0.056984,-0.35282,-0.17524,0.03355,0.0082291,0.0082964,-0.011057,-0.052207
0.093265,-0.19206,0.11774,0.051838,0.0014342,-0.0058072,0.010116,0.059513
-0.18136,0.38591,0.39512,-0.045991,-0.03662,-0.027919,-0.0084207,0.19893
-0.11618,0.0091299,0.035681,0.0052857,0.011175,0.004465,0.019805,0.15818
0.00048266,-0.084587,-0.64359,-0.052626,-0.011474,-0.0023579,-0.029641,-0.41902
0.0037472,-0.087299,0.027252,0.037597,0.0126,0.021982,0.031215,0.17293
0.42256,0.40202,-0.13937,0.033342,0.020888,0.015014,0.007346,0.30273
-0.51227,-0.23224,0.19435,-0.065702,-0.017886,-0.015479,-0.0074652,-0.13859
-0.00049619,-0.12252,0.50063,-0.017513,-0.0022063,-0.014901,-0.013437,-0.28441
0.20303,-0.074329,0.21371,0.084137,0.020982,0.016607,0.012442,0.051558
0.29682,-0.034993,-0.98183,0.036235,0.01255,0.024203,0.022761,0.14127
-0.066599,0.10187,0.23102,-0.090687,-0.027537,-0.031293,-0.022079,0.022376
-0.27999,0.20753,0.13693,-0.0072728,-0.013314,-0.0014825,0.0025032,-0.056225
0.00034279,0.16068,-0.12177,-0.010069,0.00063845,-0.019114,-0.028706,-0.071768
-0.23902,-0.3786,0.20448,0.018433,-0.016751,0.0097326,0.0015109,0.23327
0.13115,-0.03854,0.17542,0.039437,0.020676,-0.00062944,-0.015968,-0.50837
0.13991,0.21019,0.10657,0.045308,0.035007,0.028206,0.036452,0.39847
0.035424,0.1878,-0.21143,-0.057621,-0.020473,-0.012875,-0.0048418,-0.13264
-0.01294,-0.54917,-0.37901,-0.042783,-0.0050706,0.0013194,0.0089708,0.022198
-0.25934,0.128,0.097774,0.0038408,-0.012562,0.00057878,0.023426,0.21283
0.18827,-0.095923,0.43321,0.074387,0.035063,0.023972,-0.047391,-0.039505
0.4852,0.058169,-0.36698,-0.034308,-0.01861,-0.037948,0.030725,-0.088591
-0.16047,0.56444,0.28373,-0.041016,-0.017512,-0.01343,-0.02378,-0.045463
-0.073054,-0.2212,-0.13479,0.022994,0.014765,0.019251,0.030937,0.19879
-0.34254,-0.092931,-0.32793,-0.014194,-0.015637,0.0052534,0.022721,-0.19835
0.0826,-0.17492,0.18785,0.027011,0.00060417,-0.00088745,-0.05636,-0.069712
-0.30709,-0.093203,0.20898,0.0058155,0.016612,0.0085009,0.0047194,-0.090248
0.16806,0.18082,-0.03925,0.046981,0.0089764,-0.0057701,-0.059358,0.027007
-0.061138,0.15108,-0.22409,-0.037264,0.0011751,-0.0047429,0.087806,-0.12635
0.44443,-0.11675,0.11721,-0.075305,-0.038006,-0.01193,-0.12359,0.38381
0.15478,0.10677,-0.20424,0.065486,0.032081,0.035132,0.22094,-0.002841
-0.10942,-0.26895,0.50238,-0.021212,0.00051057,-0.019798,-0.089281,-0.083943
-0.23173,-0.060393,0.05048,0.00059735,-0.02334,-0.012606,-0.062087,0.10547
-0.21376,0.4171,0.033524,0.037337,0.030841,0.0099231,0.036637,-0.026845
0.21584,-0.24423,-0.40786,-0.0748,-0.024441,-0.014603,0.011109,-0.07454
-0.069918,0.1744,0.25161,0.10197,0.01395,0.023299,0.016988,0.21242
0.38847,-0.23181,-0.5926,-0.057076,-0.018023,-0.016915,-0.047901,-0.23483
-0.37831,-0.022537,0.13822,-0.012658,0.012483,0.013238,-0.0044237,-0.26383
-0.033949,0.15754,0.15891,0.016614,0.0039418,0.0043829,-0.04051,0.17965
-0.12417,-0.0076157,-0.16486,-0.0082727,-0.0045513,0.0033679,0.10137,-0.026474
0.14168,-0.13096,0.31488,-0.009234,-0.0051555,-0.0054619,-0.016398,0.037572
-0.039538,0.10353,0.191,0.021429,0.0099647,0.009142,0.035877,0.14488
0.091016,-0.075248,0.37513,0.060123,0.0095817,-0.030894,-0.077599,-0.28263
0.41642,-0.15098,-0.7546,-0.049551,-0.0062762,-0.00046222,-0.14565,0.26187
-0.14977,0.22682,-0.025605,-0.034262,-0.021944,-0.0087875,0.19925,-0.091936
-0.13196,0.27421,0.01388,-0.011223,0.017316,0.030214,0.051265,0.1812
-0.28108,-0.043865,0.15,-0.019445,-0.021257,-0.016174,-0.026618,-0.068405
-0.089777,-0.13001,0.050868,0.019302,0.0029981,0.0082972,0.005255,-0.02439
0.31731,-0.22221,0.056282,0.073879,0.027578,0.025385,-0.047738,0.034032
-0.35555,0.04445,0.13152,0.019363,0.0055529,0.0036224,-0.091087,0.1785
0.38551,-0.182,-0.1634,-0.066097,-0.024128,0.0052421,-0.14751,-0.40171
0.026685,0.10778,-0.18123,0.020612,0.016505,-0.048131,0.15853,-0.36739
-0.0086053,0.11217,-0.1718,-0.025211,-0.0055264,-0.0082237,0.10839,0.61495
-0.047471,0.13201,0.12392,-0.02386,-0.004432,0.007739,0.13135,-0.15793
-0.18326,0.046344,0.098305,0.0091054,-0.0037404,-0.00015106,-0.07827,0.11289
0.40423,-0.20395,0.17486,0.019085,-0.0034705,0.015165,-0.099988,0.0092593
-0.41822,0.102,0.14354,0.0061489,-0.003568,0.007025,-0.029091,0.14539
0.059786,-0.20707,-0.22234,0.0015456,-0.0039241,0.0068534,0.13308,-0.31724
0.079991,0.070988,-0.088024,-0.010461,0.019032,-0.016515,-0.29403,-0.1549
-0.1314,0.262,-0.10381,0.0011504,0.0029267,0.015021,0.13466,0.23804
0.15968,0.0033958,0.7439,0.090755,0.010353,-0.015848,-0.049186,-0.11244
0.10135,-0.06772,-0.90582,-0.10136,-0.013324,0.031327,0.24129,0.13021
-0.11938,-0.18894,0.43865,0.018284,-0.005589,-0.015499,0.093237,0.33945
-0.0031766,-0.14388,-0.19863,-0.0036047,0.0022993,-0.0080023,-0.23428,-0.17581
-0.058703,0.081866,-0.097083,-0.049844,-0.0053017,-0.032131,-0.30265,-0.3583
0.072458,0.31647,-0.074462,0.020315,-0.020601,-0.0096635,0.22481,-0.05795
-0.0012853,-0.20457,0.30942,0.019565,0.01887,0.03614,0.16087,0.15639
-0.069859,-0.10444,-0.060544,0.02621,0.003691,0.011744,0.052148,0.29466
0.069207,0.25962,0.035328,0.0090908,0.011911,0.018902,-0.0083095,-0.14734
-0.01413,-0.21969,0.22155,-0.016193,0.012182,-0.012569,-0.099613,0.1799
0.008272,0.16244,0.1448,0.028361,-0.011225,-0.02012,-0.027423,-0.043402
-0.050656,0.016577,-0.25213,0.0019836,-0.003704,-0.0037753,-0.050237,-0.23578
0.15369,0.030868,-0.65163,-0.048527,-0.019966,0.028578,-0.097939,-0.40702
-0.064944,-0.28666,0.15507,-0.037154,-0.0052702,-0.032534,0.2595,0.24727
-0.033191,0.21234,0.29167,0.028562,0.017077,0.00028238,-0.16465,-0.061749
-0.17135,-0.097464,0.37513,0.024066,-0.007428,0.0019224,0.060265,0.3214
0.045372,-0.021221,-0.070357,-0.034482,-0.00046626,-0.012101,-0.05707,0.04989
-0.046266,0.010735,-0.066637,0.040926,0.014679,0.044021,0.022937,0.11738
0.20998,0.091294,-0.54122,-0.022794,-0.00097794,-0.017358,0.058114,0.045322
-0.01497,0.3053,0.14905,0.0088409,0.015038,0.022358,0.12606,-0.24156
0.22236,-0.58292,0.31137,0.018463,-0.015515,-0.016648,0.022718,0.14834
-0.072549,0.13617,-0.052068,0.021259,-0.0068789,-0.017258,-0.35459,-0.29228
-0.19883,0.38306,0.25547,0.032247,0.009493,0.0049329,0.21969,-0.085371
0.09194,-0.39808,-0.60153,-0.11328,-0.021267,-0.012432,-0.1535,-0.032087
-0.34128,0.088813,0.36057,0.037276,0.010091,0.016832,0.16633,0.40503
-0.0053818,0.062192,-0.14915,-0.0086148,-0.0058627,-0.031974,-0.070475,-0.17913
0.24229,-0.016746,0.014976,-0.040094,0.0090097,0.036763,-0.097566,-0.062286
0.03718,0.12627,0.21681,0.028926,8.8952e-05,-0.018922,0.10936,0.018539
0.10835,-0.093345,-0.039173,0.0034379,-0.0012712,0.019814,0.15269,0.10833
-0.05809,-0.36138,0.072444,0.10257,0.036304,0.0201,-0.09983,0.056596
-0.14138,0.39435,-0.12168,0.006378,-0.019862,-0.002632,-0.093233,-0.18666
0.068472,-0.14469,-0.0040836,-0.10512,-0.036812,-0.025224,0.039616,-0.08718
0.022352,0.16352,-0.34599,-0.044163,-0.006586,-0.0089032,-0.021882,0.12153
0.084416,0.18703,0.40341,0.072289,0.039703,-0.0085835,-0.012519,-0.01503
-0.014139,-0.49582,-0.46188,-0.036858,-0.007213,0.014684,0.15321,0.45288
0.036614,0.24739,0.28973,0.034726,0.008966,0.0062331,-0.087523,-0.44838
-0.1943,0.064221,0.060562,-0.017693,-0.021165,-0.018174,-0.0083322,0.19747
0.11392,-0.26531,-0.006951,-0.02244,-0.019602,0.0041775,-0.17168,-0.14621
-0.2161,-0.047309,0.14877,0.035748,0.036885,0.018834,0.16482,-0.2885
0.11645,0.40428,0.21935,0.10951,0.023025,0.010372,0.040551,0.21312
-0.094579,0.0022419,-0.42603,-0.090764,-0.014596,-0.021082,-0.036392,-0.087593
0.25711,-0.09812,0.17447,-0.049918,-0.013733,0.026069,0.0044787,0.50557
-0.46544,-0.053425,-0.087298,-0.002643,-0.01361,-0.051353,-0.079058,-0.32532
0.44268,-0.097711,0.010346,-0.011513,-0.0064467,0.01215,-0.021637,-0.155
0.20746,-0.097105,0.16055,0.033028,5.5501e-05,0.013287,0.20755,0.20783
-0.080243,-0.15156,-0.69808,-0.0014413,0.013944,0.037823,-0.032669,-0.18623
-0.057836,0.397,0.58707,0.049659,0.0042778,-0.031573,-0.06307,-0.13102
-0.14476,0.011116,-0.25871,-0.016247,0.010446,0.0081422,-0.055796,0.2817
0.0055371,-0.050363,0.014347,0.01227,0.0014838,-0.030527,-0.0029659,0.1933
-0.24347,0.2519,0.31191,-0.083167,-0.014599,0.00094993,-0.044783,-0.11545
0.31737,-0.31695,-0.18085,0.01016,0.0013475,0.016798,-0.016489,-0.0053011
-0.52262,-0.15634,-0.015777,0.026671,-0.028827,-0.021857,0.059273,-0.048303
0.44155,0.099667,0.42409,0.059988,0.050998,0.041396,0.058194,-0.25384
-0.021651,0.13734,-0.16111,0.00046215,-0.0093909,-0.012115,0.058814,0.15059
0.10634,-0.036555,-0.065368,-0.050724,-0.022753,-0.0027408,0.0065136,-0.030441
0.19515,-0.024428,-0.39604,-0.04712,0.010635,0.0068536,0.15888,0.15681
-0.42557,-0.1082,0.20864,0.018676,-0.00323,-0.014855,-0.34389,-0.34133
0.30731,-0.11659,0.017904,0.076002,-0.0020497,-0.013517,-0.22099,0.14791
-0.02026,0.37946,-0.27533,-0.047277,0.0062375,0.010525,0.24588,0.25765
-0.2053,-0.1285,0.31276,-0.031007,0.0059687,0.033548,-0.021873,0.14349
-0.1305,0.33552,-0.11527,0.038819,-0.010616,0.0085111,0.34239,-0.43062
0.37661,-0.30686,0.40356,-0.0018133,-0.0043154,-0.056771,-0.18549,0.26718
-0.24541,-0.22722,-0.14383,0.050372,0.025075,0.017578,-0.067289,-0.2504
-0.37039,-0.10419,-0.082981,-0.062185,-0.015945,-0.010261,0.10244,0.029485
0.38523,0.36872,-0.23976,0.004617,-0.017739,-0.0069794,-0.23937,0.18295
0.075909,-0.1108,-0.18275,-0.037861,-0.0035071,0.0045289,0.11812,-0.04862
0.0046696,-0.14959,0.40157,0.0061507,0.0113,0.016945,0.034807,0.093347
0.28555,0.28585,0.10719,0.082386,0.034579,0.022813,0.082165,-0.029409
-0.10135,-0.084191,-0.01953,-0.074465,-0.011819,0.014478,-0.1522,-0.24905
-0.25446,0.20177,-0.010975,0.05137,-0.010827,-0.047173,-0.025701,-0.17031
-0.076231,-0.35677,-0.22015,-0.047979,-0.02514,-0.0061311,-0.036463,0.086578
0.30587,0.019945,-0.070369,0.049105,0.030955,0.027865,0.10606,0.15834
-0.45207,0.1344,0.17164,0.0062679,0.00099788,0.0075219,0.058876,0.2738
0.13671,-0.055116,0.13028,-0.051995,-0.01361,-0.044123,0.056257,0.026744
0.037816,0.042406,-0.33509,0.014437,0.0026703,0.021038,0.14411,0.0008314
-0.031584,-0.044307,0.31504,0.017635,-0.020477,-0.015971,-0.40576,-0.37057
0.24782,0.12025,-0.090434,-0.01925,0.010761,0.0087929,0.045329,0.24331
0.015119,-0.19171,-0.20695,-0.026028,0.010554,0.048434,0.15173,-0.1471
-0.053064,0.13674,-0.0026238,0.044214,0.025898,-0.014179,0.04471,-0.077267
-0.3136,-0.018615,0.4291,-0.034917,-0.021228,-0.038309,-0.16731,-0.049738
0.053676,0.015898,-0.05254,0.064954,0.0020634,-0.0081859,0.12474,0.25533
-0.024303,0.016331,-0.15112,-0.046506,-0.021378,0.0060375,-0.078877,-0.066719
0.4006,-0.10796,-0.14852,0.013805,0.0021949,0.020139,-0.019613,0.17492
0.28289,-0.072595,0.032772,-0.0038411,0.0024321,0.0029981,-0.055915,-0.29658
-0.11856,-0.12496,-0.045105,-0.0054577,0.018324,0.017216,0.070959,-0.18735
-0.59089,0.056803,-0.0072381,-0.014286,-0.0049145,0.00037165,0.28364,0.13975
-0.052098,0.51971,0.2247,0.0010681,0.002918,-0.024019,0.012338,0.21915
-0.073858,-0.034534,0.088608,0.0094344,-0.0051533,-0.016799,-0.41448,0.099174
0.2748,-0.24922,-0.094638,0.018628,0.0020621,-0.0090913,-0.01217,0.021538
0.083182,0.020753,-0.1994,0.012944,0.00895,0.022682,0.24302,-0.023762
0.043259,-0.14193,0.14219,-0.039029,-0.015638,0.0083385,-0.21103,-0.29796
-0.11393,-0.0052746,-0.12394,0.018737,-0.0011973,-0.0051783,0.28235,0.085651
0.068266,0.0078643,-0.17706,-0.024962,-0.0099646,0.013352,-0.10466,0.013941
0.1777,0.077765,0.19376,0.032718,0.013031,-0.014352,-0.16107,-0.00045978
-0.28544,-0.16078,0.23795,-0.050688,-0.033533,-0.018263,0.09718,-0.084501
0.31816,0.16227,-0.22536,0.021442,0.03016,0.032483,0.13807,0.010963
-0.084011,0.073443,0.47406,0.069212,0.024391,-0.0031726,-0.18801,0.20008
-0.2052,-0.1903,-0.21242,-0.032522,0.003639,0.0071673,0.10187,-0.071066
0.13254,0.21634,-0.45021,-0.033802,-0.0012039,0.00068566,0.045236,0.14401
-0.34495,0.059193,0.056974,0.026381,-0.0061992,-0.022771,-0.038886,-0.23144
-0.0044798,-0.35041,0.12209,-0.054893,-0.035206,-0.024088,0.10655,-0.0084803
0.3036,0.21177,-0.105,0.019563,0.020839,0.0048035,-0.28409,0.072127
0.096354,0.19593,0.16678,0.039189,-0.010081,0.033078,0.06354,-0.027278
-0.12512,-0.36967,0.064624,-0.042514,-0.018533,0.0065622,0.13552,0.093098
-0.0012463,0.21571,0.12166,0.040384,0.011331,-0.02736,-0.073654,-0.057641
0.014,0.060183,-0.043703,-0.00099285,0.017341,0.0098517,-0.030243,-0.095482
0.10633,-0.20324,-0.18879,-0.018166,-0.00015422,0.0012604,-0.060156,0.23845
-0.062441,0.098978,0.029927,0.02784,0.021639,0.001601,0.12716,-0.1331
0.12289,-0.23342,-0.13049,-0.0037764,-0.0030322,0.026344,0.079032,-0.18616
-0.018376,0.092083,0.063273,-0.042917,-0.027239,-0.026389,-0.088083,0.063747
-0.1341,0.063168,0.11779,0.0039697,0.01146,0.014861,0.13184,0.1552
-0.18284,0.10402,0.25839,-0.011709,-0.027705,-0.022214,-0.021553,-0.037962
-0.25445,0.012227,-0.40669,0.034946,0.026963,-0.0051742,-0.26983,-0.048849
-0.00048188,-0.010319,0.10596,0.0032528,-0.0044014,-0.0045959,0.15785,0.16704
0.57562,-0.10726,-0.063714,0.0025587,0.0030608,0.0028367,-0.037407,-0.080404
-0.10918,0.35777,0.0057715,0.0094157,0.010206,0.024953,-0.12231,0.026732
0.20354,-0.10422,0.0096066,-0.038664,-0.022034,-0.016237,0.20768,-0.13048
0.019587,-0.30186,0.15885,0.069303,0.023596,0.051369,-0.070088,-0.013666
-0.18873,0.059365,0.12569,-0.08846,-0.032452,-0.068821,0.084977,0.14335
0.19799,-0.18475,-0.40182,-0.0039879,0.013131,0.021954,0.11247,-0.079529
-0.45882,0.19458,0.20213,0.049479,0.0042952,0.011521,-0.16486,-0.22651
-0.13268,0.092145,0.087052,0.0096544,0.0037233,-0.037311,-0.072576,0.26014
0.01717,-0.15854,-0.16755,0.0017344,0.0037296,0.024151,-0.014547,-0.28865
0.34139,-0.028502,-0.15387,-0.028829,-0.003451,0.00075594,-0.19201,0.37124
0.020766,0.15093,0.17649,0.0039592,-0.010051,0.0019211,0.28667,0.13883
0.0031944,0.062257,0.10609,-0.017125,-0.00057883,0.019734,-0.23491,-0.19764
-0.082805,-0.083076,-0.0048643,0.024972,0.0091363,-0.024166,0.52305,-0.12468
0.079137,0.14275,0.1407,0.020661,0.011038,0.0026861,-0.059229,0.12046
0.10217,0.0015316,-0.30145,-0.022514,-0.0029278,0.0061252,-0.00065729,0.050367
-0.13535,-0.097639,-0.12154,0.0045383,-0.0017134,-0.0064593,-0.39048,-0.13431
-0.29478,0.043219,0.22561,0.031254,-0.001066,0.011434,0.10465,-0.013117
0.14138,-0.19742,0.026953,-0.036302,-0.03226,-0.018594,-0.18855,-0.20329
0.095923,-0.14264,0.053588,-0.065414,-0.001475,0.0048839,0.019066,0.33552
0.09206,0.39415,-0.048432,0.0063978,0.013307,-0.0040526,0.26786,-0.027117
0.10501,-0.15641,-0.0078602,0.10885,0.035696,0.025073,-0.088508,-0.038225
-0.21917,-0.11235,-0.1546,-0.015826,-0.0044588,-0.01683,-0.055576,0.0083112
0.061721,-0.072293,0.12735,-0.0082481,0.0023397,-0.0043999,0.29043,-0.1507
-0.0089079,0.08372,0.017193,-0.0090583,-0.021963,-0.0075645,-0.049317,-0.037314
-0.082839,0.23264,-0.13326,-0.065171,-0.014841,-0.010347,-0.26975,0.15318
0.0637,0.20335,-0.057447,0.003067,0.00026194,0.034394,0.20699,0.1147
0.061637,-0.16083,0.26177,0.055031,0.023324,-0.0060088,0.020924,0.094595
-0.081978,-0.032987,0.19366,0.012649,-0.015998,-0.0065433,-0.31289,-0.074538
0.18796,-0.1254,-0.095178,0.0323,0.022882,0.048311,0.095855,-0.13045
-0.22862,-0.29048,-0.22673,-0.010801,-0.00070055,-0.060378,0.13785,-0.021088
0.0065127,0.19065,-0.29922,-0.10853,-0.016471,0.010933,-0.20997,-0.099308
-0.23677,-0.087064,0.20635,0.036369,0.0067871,-0.019192,0.28728,0.0024824
0.3254,0.21439,-0.10544,0.0024303,-0.0090734,0.020982,-0.096543,0.10665
0.10132,0.042771,0.43157,0.00093773,-0.017194,-0.024886,0.068454,-0.025667
-0.032827,0.064442,-0.041293,0.047708,0.021471,0.015012,-0.085003,0.078209
-0.029949,-0.00017072,-0.21252,0.0020776,0.0053333,0.0077928,0.052144,-0.13262
0.031217,-0.28311,0.040261,-0.042498,-0.010961,0.0080492,0.041961,0.11824
0.016758,-0.01116,0.14281,0.046286,0.035044,0.054725,-0.45191,0.035438
-0.28544,0.22081,0.012454,0.0099962,-0.012931,-0.063228,0.41398,-0.029545
0.1706,-0.034312,0.043186,0.035544,-0.0064263,-0.0099248,-0.024612,-0.00028666
-0.11557,0.23699,-0.44829,-0.13529,-0.015655,0.019381,0.25567,-0.051623
-0.050241,-0.20179,-0.15957,0.0051679,-0.0013622,-0.0063586,-0.55772,0.13309
0.23396,-0.20396,0.54146,0.019611,-0.017967,-0.032123,0.22267,-0.04362
-0.028491,0.12768,-0.0085824,0.025672,0.012953,0.020631,0.12793,-0.092684
0.021578,-0.30915,0.19991,0.047375,0.0057109,-0.027378,-0.2172,-0.13332
0.11791,0.27426,-0.44788,-0.024077,0.015125,0.0429,0.31969,0.13066
-0.25611,0.0416,-0.16051,-0.039826,-0.0057289,0.020623,-0.18376,0.06711
0.07808,0.070333,0.0014923,0.015924,0.013212,-0.0084169,-0.017092,-0.13475
-0.13826,0.14843,0.82835,0.072742,0.016837,0.010087,-0.024442,0.11333
0.30535,-0.15519,-0.62512,-0.057245,-0.018816,-0.018154,0.028415,-0.10031
-0.16892,0.064404,0.20279,-0.0073922,-0.023961,-0.0077837,0.016627,0.12472
0.049443,-0.013766,-0.19719,-0.028287,-0.01465,-0.01399,0.11254,-0.054127
-0.17822,-0.18611,0.095202,0.059253,0.024501,0.0019797,-0.26903,0.16807
0.072551,-0.15382,0.30535,0.01272,-0.00027589,-0.01462,0.1072,-0.18583
0.14836,0.21143,-0.53577,-0.074198,0.0049776,0.045786,0.12497,0.039225
-0.034053,-0.14073,0.14312,-0.0059935,0.0015889,-0.019515,-0.08213,0.16221
-0.16804,0.059869,-0.054188,0.014617,-0.017755,-0.022487,-0.044889,-0.27113
-0.034048,0.37179,0.26615,0.02722,0.0021563,0.0061773,0.033612,-0.042624
0.14852,-0.36664,-0.17341,0.024523,0.0070929,0.0044484,-0.0032697,0.16037
-0.14604,-0.014438,0.02122,-0.039943,-0.0026234,0.050757,0.093698,-0.13795
0.51611,0.16869,-0.1318,0.0059174,0.012212,-0.026675,-0.13741,0.10269
-0.08056,0.10077,-0.029911,0.060546,0.028119,0.014233,0.33365,0.094561
-0.30023,-0.03588,0.61502,-0.0090431,-0.017596,-0.045543,-0.33764,-0.12992
-0.20955,-0.012397,-0.52799,-0.078136,-0.015843,0.0045681,-0.15163,0.070647
0.17311,-0.06797,0.091247,0.0013961,-0.021606,-0.007705,0.24338,0.17317
-0.012498,-0.17449,0.12354,-0.0050815,0.0039324,0.0032153,-0.18325,-0.1349
-0.10115,0.034401,-0.13975,0.050711,0.013742,0.060483,0.26472,-0.1585
0.18352,0.04473,0.085807,0.020296,-4.3594e-05,-0.039209,0.0023442,0.0552
0.095688,-0.10064,-0.10894,-0.010319,0.017286,0.0087577,-0.18822,0.068421
-0.10202,0.19724,0.025386,-0.040981,-0.020144,-0.022136,0.18583,-0.033149
-0.045486,-0.14983,0.18596,0.01445,-0.0029056,-0.014566,-0.17209,-0.18741
