-0.1068,-0.036465,-0.13526,-0.0012787,0.010371,0.0013668,0.011209,-0.065168
-0.023513,0.086151,-0.02324,-0.0012276,-0.0073055,-0.0060789,0.0033139,0.018289
0.17977,0.090828,0.40798,0.022444,0.021811,0.0098074,-0.0045297,-0.0074615
-0.089768,0.080648,-0.67576,-0.047497,-0.019121,-0.0056226,-0.0045211,-0.00067179
0.22268,-0.044707,0.1112,0.01546,-0.0048066,0.0023691,-0.0044616,0.070724
-0.11012,0.027992,0.092614,0.00033906,0.010264,0.010385,0.0034888,-0.042997
0.012151,0.033254,-0.14215,-0.022574,0.0027154,-0.005001,0.011548,0.15779
-0.013629,-0.060529,0.72217,0.048264,0.011525,-0.0047515,-0.019329,-0.2576
-0.11858,0.042887,-0.39879,-0.0059236,-0.0025795,0.011077,0.020219,0.10001
-0.014658,-0.063403,-0.075151,-0.02893,-0.016452,-0.012278,-0.018293,0.1118
-0.085043,-0.16114,-0.36278,0.018242,0.0086558,0.011056,0.0213,-0.090839
0.22521,0.007232,0.50178,-0.0051079,0.0021564,-0.0048988,-0.0095431,0.0067737
0.0027751,-0.0036967,-0.038833,0.0025115,-0.012694,-0.013259,-0.017173,-0.056449
-0.079452,0.33724,0.083098,0.0019954,0.0031082,0.0016628,0.037407,0.056188
0.065466,-0.11078,-0.13436,0.0011645,-0.0050515,0.016539,-0.0020546,0.010373
-0.13981,0.13622,-0.23897,0.0079056,0.0098806,0.00025982,-0.018287,-0.10568
-0.0073419,-0.17226,0.089925,-0.032324,-0.0065395,-0.015777,-0.034559,-0.11757
0.24416,-0.15382,0.14279,0.021304,0.016255,0.0076125,0.019672,0.24267
0.020667,0.011663,-0.28931,-0.01848,-0.023086,-0.015436,-0.011598,-0.015479
-0.10802,0.12119,-0.01691,0.020412,0.024,0.024452,0.043703,0.077367
-0.2206,-0.15291,0.28152,-0.010306,-0.0065329,0.0022003,-0.0096474,-0.080901
-0.067549,0.088392,0.20755,-0.0012172,-0.013219,-0.012029,-0.015454,-0.023196
0.28042,0.056591,0.02549,0.024156,0.011563,0.0050005,0.010453,-0.072318
-0.012945,0.10363,-0.087293,-0.012518,-0.0027449,-0.0094247,0.0052589,0.1751
-0.065103,0.11249,0.022792,0.021275,0.021724,0.02263,0.046726,0.19282
0.18614,-0.088697,-0.3964,-0.023231,-0.02462,-0.023963,-0.076409,-0.67767
-0.11106,-0.26555,0.044849,0.0021052,-0.0012859,0.014816,0.0028235,0.17938
-0.042828,-0.0038779,0.22223,-0.02011,-0.0098595,-0.025041,-0.0047065,0.33384
-0.031005,-0.022201,-0.46366,-0.004025,0.0044347,0.0050365,0.01046,-0.034166
-0.14559,-0.10938,0.11529,0.0035223,0.010526,0.011484,-0.0061744,-0.071849
0.16871,0.62511,0.48568,0.026098,0.00083489,-0.0055055,-0.0075076,-0.28529
-0.071711,-0.53808,-0.18603,-0.0064388,-0.0087747,0.01673,0.045712,0.39784
0.23548,0.3295,0.22625,-0.00016848,0.013151,0.00016592,0.012963,0.16715
-0.057537,-0.1801,0.034631,0.0059748,0.0042524,-0.00047694,0.0036311,-0.49875
-0.17699,0.38443,-0.051504,0.012066,-0.0041591,-0.00085078,-0.021395,0.25352
-0.11507,-0.2205,-0.47949,-0.03655,-0.012091,-0.024455,-0.038721,-0.34021
0.15131,-0.50321,-0.0089268,0.00076146,-0.0039797,-0.0010464,-0.0014439,0.27567
0.2309,0.49796,0.34364,0.030271,0.020086,0.022446,0.028066,0.085758
0.07605,-0.42597,-0.28095,-0.018276,-0.0103,-0.00087839,-0.028085,-0.21526
-0.4859,0.31375,0.5951,0.034915,0.0063418,0.0071037,0.033503,0.60554
0.21629,-0.10795,-0.62788,-0.044378,-0.015991,-0.016092,-0.029113,-0.78995
-0.23965,-0.094782,0.052083,-0.0059762,0.00077598,-0.015762,-0.0048708,0.25194
-0.072603,0.12025,0.058248,-0.029407,-0.0059022,-0.0075361,0.012421,0.15833
0.78788,0.58384,0.086225,0.033857,0.010791,0.031983,0.069377,-0.057339
-0.34535,-0.41657,0.11932,0.03535,0.019526,0.032402,0.02495,0.22071
-0.03417,0.10079,0.44422,0.029592,0.0045751,-0.014201,-0.097922,-0.57818
-0.043264,-0.46845,-0.48916,-0.046208,-0.026353,-0.037625,-0.018445,0.49988
-0.26978,0.30322,-0.066926,0.026345,0.028222,0.016745,0.013078,-0.22305
0.061249,0.094557,0.17704,-0.03434,-0.027034,-0.0073454,-0.011242,-0.43988
0.021653,-0.45324,-0.61015,-0.041003,-0.028004,-0.023878,0.041563,0.85189
0.13593,0.2398,0.37643,0.029703,0.033264,0.037618,0.0077806,-0.58007
-0.1426,-0.15975,-0.12727,-0.001841,-0.0070915,-0.01016,-0.018377,0.11693
0.27882,0.21763,0.24826,0.0051818,-0.000407,-0.018577,-0.02081,0.099138
0.038706,0.15455,0.1929,0.035398,0.030086,0.035947,0.016515,0.52176
-0.022098,0.057051,-0.34629,-0.0046969,-0.0092175,0.0050335,0.046993,-0.24968
0.25748,-0.17824,0.1236,-0.021168,-0.024509,-0.017605,-0.023015,-0.23245
-0.61705,0.18779,0.30542,0.017334,0.0076096,-0.0086562,-0.045123,-0.57602
0.12686,0.12032,-0.37212,-0.029802,-0.0067388,0.00044544,0.050797,0.35241
-0.28341,-0.55562,0.39459,0.0092429,0.0025577,-0.0061324,-0.048031,-0.024302
0.12326,0.080071,-0.42629,-0.0062581,0.019629,0.010479,-0.013807,0.23299
0.14709,0.16031,-0.1469,0.01732,-0.0026536,0.018879,0.09063,0.3135
0.34612,-0.13321,0.30443,0.0095335,0.0057948,-0.012269,-0.078798,-0.15659
-0.16775,-0.070434,-0.4609,-0.037551,-0.025496,-0.020478,0.032309,-0.36457
-0.088847,0.10284,0.043531,0.016588,0.0049749,0.0021222,-0.013782,-0.061303
0.066466,0.23431,0.36582,0.0078151,-0.0043015,0.016586,0.032782,0.35288
0.053695,-0.079405,0.22442,0.029847,0.0093328,-0.00037392,7.6682e-05,-0.077724
-0.028898,0.22542,0.3829,-0.026677,-0.0085728,-0.009537,-0.041518,0.40191
-0.13018,-0.36739,-0.36543,-0.028875,0.004755,-0.0029516,-0.021507,-0.82789
0.0046068,0.27287,-0.35296,0.015567,0.018329,0.027298,0.029133,0.61408
-0.14996,-0.39595,-0.075842,-0.002561,-0.014514,-0.02029,-0.0064466,-0.51476
0.21018,0.075847,-0.26332,-0.0049496,0.00010624,0.0027471,0.012731,0.1069
-0.21112,0.06017,0.17757,0.032015,-0.00027168,0.010472,0.063567,0.8017
0.32233,0.29699,0.45904,-0.0087075,-0.0078828,-0.02056,-0.017699,-0.77083
-0.069852,-0.15218,0.20138,0.0058,0.01622,-0.0044148,-0.082361,-0.47415
-0.095994,-0.12283,-0.34099,0.013108,0.009382,0.027659,0.057321,0.93747
0.082201,0.44153,-0.1786,-0.033615,-0.012938,-0.010279,-0.059391,-0.54881
-0.11157,-0.87033,-0.0094474,-0.017153,-0.019638,-0.03232,0.020751,0.58413
-0.03553,0.10894,-0.10246,0.015622,0.0047874,0.023963,-0.022574,0.15659
0.36543,0.69481,0.0065516,-0.036897,-0.0022438,0.0021837,0.036986,-0.98924
-0.50259,-0.64217,0.32698,0.0048518,-0.025163,-0.019735,0.0036718,0.32358
0.070786,0.043252,0.36633,0.093763,0.068805,0.059526,0.056499,0.15395
0.47548,0.89725,-0.41649,-0.028307,-0.0094244,-0.0024576,0.0071655,-0.072345
0.031214,-0.44378,0.28779,0.052328,0.037037,0.012904,0.026763,0.60975
-0.69974,0.13971,-0.64954,-0.078732,-0.065179,-0.081903,-0.1431,-0.70118
0.51719,-0.61562,0.025828,-0.023244,-0.011231,0.010167,0.0051839,-0.061629
-0.25499,0.4422,0.49076,6.1474e-05,-0.027444,-0.023032,-0.0047342,0.64531
-0.45326,-0.6654,-0.50675,-0.0085634,0.034903,0.053341,0.069958,-0.23527
0.36772,1.0079,0.46155,0.0059899,-0.011429,-0.033686,-0.035495,-0.65369
0.097701,-0.82324,-0.32441,-0.010497,-0.0022324,-0.0025361,-0.078002,0.050076
0.72686,0.26941,-0.085106,0.036098,0.046817,0.053125,0.11502,0.2238
-0.19305,-0.13633,0.044188,0.044358,0.018259,0.031525,0.098582,0.69905
-0.2356,0.12337,0.74778,-0.032724,-0.018063,-0.028744,-0.080531,-0.42039
-0.62211,0.11741,-0.29811,0.046654,0.007605,-0.0032974,-0.047804,0.28026
0.068251,0.10781,-0.02603,-0.0149,-0.01463,-0.0099261,0.047624,-0.32476
0.51625,0.36954,0.00036819,-0.061621,-0.053847,-0.049049,-0.037141,-0.16684
-0.14211,-0.30167,-0.1939,0.03121,0.030536,0.027659,-0.0057282,0.0097682
-0.12093,-0.50295,-0.47119,-0.087932,-0.042456,-0.037372,-0.037988,0.17188
-0.43854,-0.2705,-0.10488,0.050091,0.040215,0.04547,0.022546,-0.22098
0.14367,0.8117,0.3524,-0.014999,-0.02545,-0.043386,-0.057969,-0.16186
0.90915,-0.65311,0.24672,0.092586,0.10498,0.11869,0.16647,0.57537
-0.36914,1.0088,0.031888,-0.079543,-0.083569,-0.1083,-0.092512,-0.017283
0.0086534,-0.94249,0.17396,0.055064,0.026374,0.025966,0.017108,-0.072701
-0.17369,0.68403,-0.3498,-0.019032,-0.018306,-0.0019612,-0.035759,-0.37212
0.59342,-0.82554,0.27708,0.041743,0.032133,0.057559,0.029934,0.36591
-0.37491,1.0669,0.046948,-0.067798,-0.025894,-0.014856,0.049593,-0.23306
-0.48795,-0.45759,-0.19856,0.050064,0.010177,-0.0090508,-0.024398,0.39445
-0.49581,-0.50452,0.40519,-0.066431,-0.032097,-0.05862,-0.067841,-0.81268
0.41674,0.61974,-0.58047,-0.0040254,-0.0047772,-0.0001535,0.074821,0.88155
0.10594,-0.73334,-0.067974,0.02564,0.013637,-0.013773,-0.10467,-0.77915
0.39727,0.56169,-0.11477,-0.0014151,-0.00052633,0.048777,0.088909,0.3156
0.29496,-0.51894,0.021731,0.070698,0.069821,0.062549,0.030806,0.10343
-0.22223,0.52227,-0.23398,-0.05506,-0.072174,-0.081595,-0.13779,0.59901
0.072132,-0.12501,0.67624,0.035404,0.034555,0.030772,0.10731,-0.91839
-0.22243,0.7486,-0.0259,-0.087362,-0.039459,-0.02179,-0.037784,0.20481
-0.3121,-0.3931,0.72389,0.092686,0.042017,0.026805,-0.0098947,0.45792
0.050176,-0.62788,-0.6207,-0.11138,-0.064422,-0.049558,0.06641,-0.41148
0.065563,-0.10488,0.18268,0.058912,0.024396,0.01514,-0.05095,-0.06109
0.41333,0.48037,-0.68538,0.018303,0.043176,0.049339,0.090917,0.20424
-0.296,0.56709,0.0044552,0.025206,-0.015632,-0.032688,-0.070996,0.13565
-0.23199,-0.37134,0.16356,-0.037097,-0.0034226,-0.0042816,-0.052992,-0.99911
-0.17315,-0.58473,-0.43528,0.0035685,-0.013878,0.0017379,0.0035969,0.57597
0.24225,-0.45263,0.40348,-0.0089092,-0.00013969,-0.014722,0.020033,0.26948
0.67951,0.34292,0.0073313,0.034854,0.02991,0.055572,0.050596,0.32518
-0.47894,0.8707,0.76366,-0.029272,-0.025376,-0.053162,0.0014024,0.16556
0.46033,-0.48867,-0.80352,0.040812,0.029252,0.049568,0.0367,-0.3736
-0.45098,0.81539,0.61428,-0.020598,-0.032794,-0.034761,-0.077386,-0.53492
-0.45051,-1.0206,-0.65524,-0.11199,-0.047434,-0.056184,0.003664,0.37674
0.1934,-0.028926,0.095456,0.047809,0.032241,0.032173,-0.12547,-0.63811
0.088591,0.92817,0.32277,0.083678,0.057803,0.042804,0.090825,0.72635
0.48503,-1.0353,0.054449,-0.06714,-0.041117,-0.0087229,0.075138,-0.083196
-0.2252,0.95301,0.1495,0.087129,0.0087702,-0.020984,-0.055008,-0.25329
-0.17225,-0.63896,-0.28612,0.030306,0.043163,0.06048,0.075229,0.84881
0.084656,0.268,-0.28154,-0.074167,-0.0398,-0.022431,0.074586,-0.65341
-0.60749,-0.81541,-0.61064,-0.015935,-0.029492,-0.051266,-0.13605,-0.47392
0.19126,-0.31522,0.2925,-0.068872,-0.012112,-0.010652,0.020332,0.77355
0.44276,0.58415,-0.0046948,-0.0066465,0.012164,0.0055019,-0.066662,-0.54102
0.49765,0.61801,0.68117,0.030106,0.058898,0.067467,0.00069137,0.38206
0.025028,1.0499,0.61582,0.041563,0.0031401,-0.019999,-0.012307,0.47634
-0.52602,-0.68795,-0.37765,0.12179,-0.069016,-0.053605,0.074086,-0.47903
-0.18333,-0.58725,-0.16118,0.20092,0.061419,0.068442,0.04146,-0.11635
-0.47418,-0.53084,-0.32768,-0.42363,-0.058392,-0.020784,-0.00032488,-0.033768
-0.018239,0.26398,-0.44138,-0.087112,-0.029715,-0.063209,-0.11327,-0.85036
0.79299,-0.44057,0.8159,-0.038809,0.030514,0.011713,-0.0079158,0.27735
0.29619,1.0589,-0.61895,0.19851,0.067769,0.086976,0.15979,0.9508
-0.15499,-0.46807,0.11586,0.30499,0.019597,0.0064547,-0.016249,0.43413
-0.61208,0.03995,0.54214,-0.17239,-0.04375,-0.050089,-0.059357,-0.66731
0.70238,0.56815,-0.58009,-0.10106,-0.044267,-0.027918,-0.078799,-0.22782
-0.57422,-0.57739,0.61414,0.018438,0.049172,0.049576,0.097483,0.19569
-0.33559,0.15889,-0.53134,-0.080135,-0.06038,-0.083182,-0.10055,-0.4324
0.25854,-0.67687,-0.37485,-0.014514,-0.036981,-0.027713,-0.016334,0.93712
-0.069929,0.32619,0.46695,0.097779,0.088188,0.11443,0.10045,-1.0293
0.75845,0.25547,0.55496,-0.0089673,0.041791,0.054105,0.062506,0.49993
0.055293,0.58553,-0.71725,-0.029935,-0.019828,-0.029122,-0.028573,0.053487
-0.64338,-0.50141,0.19601,0.089828,-0.049737,-0.057316,0.030204,-0.12688
0.30623,-0.21634,-0.33561,-0.055632,0.0067575,-0.030654,-0.16769,0.14011
-0.25743,0.48611,0.37431,-0.052022,-0.014444,0.0038639,0.072693,0.045162
0.051253,-0.75503,0.47089,-0.055501,-0.043105,-0.070997,-0.10058,-0.2828
-0.19351,0.41149,0.075533,0.10571,0.1316,0.17447,0.085548,-0.98076
0.26376,-0.020123,-0.055701,0.071965,-0.045129,-0.040915,0.16198,1.0238
-0.31983,-0.36514,-0.86593,-0.11027,-0.018745,-0.0061675,-0.074715,0.4965
0.23604,0.77532,-0.081998,0.15231,0.023155,0.0053111,0.0080509,-0.10431
0.27664,-0.1266,-0.26098,-0.070282,-0.060101,-0.10804,-0.14449,0.74013
-0.1571,-0.2526,0.32614,-0.12971,0.020564,0.05998,0.022444,-0.84293
0.12419,-0.3689,0.52075,-0.0023319,-0.016034,0.0014928,0.0091396,-0.71774
-0.19037,-0.21804,0.20382,-0.062686,0.025501,0.036687,0.034741,0.042681
-0.24785,0.54239,0.106,0.18979,0.051469,0.056015,0.10747,0.2512
0.26529,-0.020836,-0.24113,0.021198,-0.047537,-0.096984,-0.10833,-0.041944
0.076346,0.51545,-0.70933,-0.11515,-0.037277,-0.039736,-0.026652,0.33279
-0.35339,-0.49119,0.34015,0.085206,0.035137,0.032215,0.00074392,-0.22005
0.2572,0.37678,0.072614,0.01227,0.05221,0.095228,0.15307,0.14066
-0.1629,0.12153,0.36851,-0.045825,-0.048878,-0.077411,-0.13284,0.54288
0.53357,-1.106,-0.23758,0.034905,0.028486,0.029839,0.040661,-0.31801
-0.53774,0.7451,0.28865,-0.097969,-0.075213,-0.067398,0.0087685,-0.37451
0.52797,-0.052515,-0.32939,0.031614,0.022864,0.021596,-0.15881,-0.069178
-0.64525,-0.44212,-0.036878,0.0721,0.026055,0.04701,0.14694,-0.10353
0.63796,0.40893,-0.18853,-0.11658,-0.010586,0.0013164,-0.066224,0.64915
-0.48828,-0.57175,0.42836,0.10724,0.030606,0.002079,0.10038,-0.0034096
0.041108,0.34783,-0.28935,-0.05198,-0.013909,-0.020558,0.053577,0.20208
-0.3876,0.40555,-0.59007,-0.038158,0.012614,0.019857,-0.049502,-0.76486
0.27614,0.016068,0.53684,0.040536,-0.045664,-0.1027,-0.082702,-0.72828
0.36346,0.18455,0.17915,0.067676,0.014652,0.057549,-0.044674,0.74066
0.14941,-0.14902,-0.054852,-0.15971,-0.04073,-0.01468,-0.074646,0.48662
0.063354,0.039946,-0.17054,0.1313,0.045874,0.032264,0.070809,0.13597
-0.56105,-0.73936,0.65029,0.025556,0.03193,0.041925,0.14254,-0.36571
0.2489,0.19594,0.33929,0.037193,0.026292,0.037245,0.039281,0.25303
-0.57412,-0.19505,-0.56442,-0.0072012,-0.018529,-0.037176,-0.012765,-0.6535
0.58208,0.57328,-0.24019,-0.15576,-0.064063,-0.07275,-0.084803,0.28901
0.11937,0.19228,-0.23984,0.059619,0.014237,0.02357,-0.021819,-0.26732
-0.12942,-0.43412,-0.47068,-0.071889,-0.026026,-0.053384,-0.0048097,0.82668
0.20943,-0.21417,0.41411,0.11469,0.065224,0.071209,-0.027096,-0.70399
0.035278,0.060159,0.0771,-0.035361,-0.00072885,0.030287,0.066775,0.8645
-0.92995,0.7668,0.13531,-0.1218,-0.098331,-0.12109,-0.11424,-0.61109
0.4985,-0.39085,0.17367,0.13052,0.093384,0.12542,0.031333,-0.49908
-0.17315,-0.60275,-0.10058,-0.058401,-0.026508,-0.034316,0.089519,0.25676
0.31136,0.18887,0.60184,0.17131,0.042509,0.0096042,0.021409,0.48184
0.4728,0.94678,-0.53516,0.053692,-0.011748,-0.015856,-0.047879,-0.0023551
-0.85768,-0.13955,0.34128,-0.17793,-0.040757,-0.001057,0.10829,-0.40966
0.68744,-0.29305,-0.44055,-0.04852,0.0022114,0.022879,-0.0021657,0.36949
-0.3005,-0.061765,0.11248,0.018376,0.0074411,-0.045603,-0.26965,-0.97522
-0.19335,-0.92758,-0.21503,0.091602,0.044765,0.01996,0.1422,0.72304
0.40134,0.6545,-0.6351,-0.13456,-0.05825,-0.04625,-0.023774,0.55202
0.032033,-0.89333,0.66704,0.034696,0.002511,0.044538,0.053518,-0.87176
-0.36905,0.74964,0.047764,0.091599,0.039018,0.04194,-0.031446,0.17406
0.13214,0.32381,0.4349,-0.064987,-0.011667,-0.015454,0.042131,0.73583
-0.39509,0.9483,-0.22849,0.018723,-0.024851,-0.042232,-0.13975,-1.0894
0.30846,-0.55176,-0.50096,-0.03938,-0.0084978,-0.0076628,0.15684,0.9173
0.027466,-0.11354,0.29878,0.042563,0.045225,0.064377,0.087234,0.12139
-0.030322,-0.66142,0.16211,0.046244,-0.0041152,-0.021703,-0.052915,-0.95543
0.44467,-0.011007,0.46919,0.042255,8.1809e-05,-0.015951,-0.069549,0.62424
-0.32456,0.17236,-0.18189,-0.047344,-0.01201,-0.0040813,0.028549,0.24622
-0.2335,0.44571,-0.42702,-0.034863,-0.00075286,0.03002,-0.0090528,-0.9419
-0.077818,-0.41049,-0.2991,-0.11535,-0.051491,-0.069196,-0.1743,0.039607
0.60279,-0.43911,-0.42282,-0.0072064,0.0081725,0.0037575,0.11176,0.81433
-0.2565,0.89914,0.59454,0.078963,0.022335,-0.00036366,-0.094989,-0.8595
-0.21397,-0.22104,0.64664,0.10429,0.053586,0.059621,0.058194,0.50295
-0.0083377,-0.53035,-0.50595,-0.071972,-0.023289,0.0042546,0.18928,-0.076078
0.25444,0.27066,-0.42451,0.065323,0.033408,0.028705,0.13436,0.82904
-0.054374,0.51783,0.4523,-0.054989,-0.058249,-0.078458,-0.33369,-0.65636
0.19555,-0.81625,0.12072,-0.027717,0.013536,0.041424,0.088705,0.18369
-0.62936,0.66636,0.48119,0.099223,0.021628,0.012583,0.025239,-0.60889
0.6596,-0.17952,-0.1761,-0.034311,0.020426,0.045334,0.037296,0.42875
-0.39547,0.7791,-0.028928,-0.0067139,-0.075933,-0.11065,-0.024112,-0.38854
-0.12603,-1.131,-0.85427,-0.1614,-0.040448,-0.033432,-0.088445,0.70074
0.12933,0.32334,-0.50381,0.0025255,0.018201,0.027394,-0.045303,-0.49302
0.15685,-0.38079,0.60418,0.087912,0.046108,0.0099715,-0.064958,-0.36829
-0.28177,0.43946,0.33565,0.017985,0.012685,0.016531,0.034071,0.061109
0.52653,-0.40506,0.51911,0.098536,0.035479,0.031936,0.14393,0.68892
-0.28544,0.024061,-0.27472,-0.076098,-0.0027304,0.040715,0.13265,0.40184
0.23341,0.21383,-0.023393,0.072166,0.0070136,-0.012058,-0.0623,-0.48346
-0.12357,0.21443,-0.3944,-0.043238,-0.029722,-0.025388,0.058242,-0.048749
-0.29032,-0.0022731,-0.16743,-0.048327,-0.019949,0.0078081,-0.061744,-0.82134
0.22903,0.62093,0.28908,0.0010744,-0.011187,-0.03034,-0.15019,0.66304
-0.19383,-0.60151,0.53402,-0.013192,-0.027239,-0.030887,0.0028702,-0.17153
0.040623,-0.65212,-0.67228,0.002031,0.03345,0.013928,-0.048153,0.2456
-0.083993,0.42444,0.3829,0.038828,0.01497,0.01072,0.040915,-0.23634
0.16703,-0.0017103,-0.14214,-0.035238,-0.0039617,-0.00075832,-0.025897,-0.29467
-0.1506,-0.044227,0.021456,-0.070997,-0.046082,-0.043087,0.018013,0.62461
0.3785,0.019322,0.035044,0.11215,0.076763,0.064229,0.18106,0.75294
0.28691,0.32479,-0.33633,-0.0083744,-0.017772,-0.0063752,-0.044679,-0.63988
-0.18192,-0.53251,0.072745,0.060278,0.014259,0.042142,0.050801,0.037667
-0.90956,0.40778,-0.28983,-0.12689,-0.069435,-0.048302,-0.049745,-0.68176
0.22246,-0.1387,0.75069,0.086345,0.066723,0.041953,-0.059186,-0.06477
0.1763,0.34606,-0.38163,-0.042554,-0.015302,-0.031724,-0.041772,0.39392
0.32797,-0.19199,0.25138,0.0015181,-0.011404,-0.028051,0.056093,0.17426
0.11552,-0.26854,0.031473,0.077363,0.038842,0.052258,-0.031296,-0.5988
0.23422,0.43719,-0.090829,-0.057688,-0.028956,-0.0020914,-0.013821,0.49848
-0.74622,-0.15064,-0.11887,-0.11487,-0.066455,-0.081629,0.0090154,0.052864
0.0014519,-0.71449,0.22553,0.069803,0.028062,-0.0061403,-0.10851,-0.55583
0.16386,0.72272,-0.25466,0.058942,0.036183,0.037717,0.019237,0.32735
0.21699,-0.15559,0.0035195,-0.022241,-0.010414,0.0040273,0.15248,0.33447
0.15289,-0.077373,-0.14545,0.021771,0.013663,0.026455,0.034881,0.71539
-0.41874,0.32481,0.0067025,-0.051117,-0.016327,0.011791,0.00264,-0.7154
-0.12224,-0.47177,-0.135,-0.014433,0.024669,0.0070207,-0.015523,-0.27939
0.28538,-0.14693,0.30348,0.092476,0.019306,0.011798,-0.0059459,0.60041
-0.062419,0.80516,0.15615,-0.012092,-0.02493,-0.021467,-0.080531,-0.86323
0.21741,-0.61236,0.083207,-0.039613,-0.022525,-0.023396,0.02376,-0.23345
-0.20364,0.72573,-0.054537,-0.037483,-0.036404,-0.057445,-0.062443,0.72979
-0.053144,-0.32373,0.077825,0.072024,0.058088,0.070891,-0.012483,-0.64152
-0.17636,-0.9685,-0.34304,-0.078475,-0.012696,-0.013914,0.048008,0.090641
0.7688,0.9886,-0.24329,0.0032485,0.0090034,0.016083,0.033229,0.85082
-0.22691,0.29912,0.38797,0.059657,0.0061042,0.004801,-0.07175,-0.38206
-0.51581,-0.74587,0.022704,-0.041604,-0.03678,-0.055107,0.062179,0.024794
0.10545,-0.19022,0.070834,0.059425,0.029124,0.055782,0.10791,-0.35425
-0.20567,0.40794,-0.32282,0.050884,0.016707,-0.01333,-0.05868,0.58242
0.28718,-0.32842,-0.18497,-0.16815,-0.065823,-0.050768,-0.1088,0.21434
-0.10124,0.50617,0.19217,0.035745,0.03971,0.037818,0.067395,-0.26059
0.27945,0.31046,0.10218,0.014626,0.021094,0.034065,0.0015579,-0.82429
0.11008,-0.14074,0.47927,0.073557,0.011339,0.024061,0.030038,0.73821
0.14085,-0.27475,0.21108,0.033057,-0.0050829,-7.7902e-05,0.01274,-0.32408
-0.44147,-0.63505,-0.6105,-0.14591,-0.075039,-0.085448,-0.15122,0.014518
-0.1304,0.28258,0.030323,0.075556,0.051399,0.017654,0.077966,0.14966
-0.27124,-0.1891,-0.41821,-0.045027,-0.016533,-0.027001,-0.072408,-0.5761
0.29072,0.73558,0.28429,0.077856,0.025658,0.04596,0.10908,0.40631
0.87444,0.38828,0.013638,0.0062079,0.02928,0.056649,0.067805,-0.046714
-0.53683,-0.26003,-0.2591,-0.080822,-0.060654,-0.081043,-0.087333,0.86343
-0.86592,-0.66179,0.24945,-0.019713,-0.0022854,-0.023541,-0.060515,-0.35737
0.65992,-0.21613,0.00039171,0.024948,0.032174,0.064894,0.15455,-0.24565
0.18081,0.34071,0.30282,0.060499,0.011163,0.012156,-0.084548,0.019192
-0.069035,0.2169,-0.062087,-0.015023,-0.026502,-0.017938,0.032967,0.014977
0.46533,0.10424,0.018207,0.055916,0.036214,0.029082,0.029166,-0.054407
-0.6059,-0.040272,0.18371,-0.047097,-0.019461,-0.050043,-0.12792,-0.71703
-0.47652,-0.080058,-0.42003,-0.073933,-0.052783,-0.044375,-0.024145,0.54903
0.25409,-0.28448,-0.34311,-0.032021,0.0068152,0.014999,0.083607,0.43278
0.66668,0.3592,0.63936,0.079254,0.065939,0.081525,-0.021812,-0.22598
-0.22824,0.013385,-0.30706,0.04191,-6.1484e-06,0.0072057,0.060049,-0.43003
-0.33467,-0.48601,0.20613,-0.018252,-0.026557,-0.074643,-0.074998,0.21623
0.11441,0.31585,-0.10782,-0.030218,-0.013378,0.016162,-0.011138,-0.22876
0.064551,0.25825,0.015214,-0.056001,-0.038364,-0.048087,0.065267,1.0415
0.092785,-0.35719,-0.45471,0.084275,0.070455,0.076634,0.021743,-0.18429
-0.20944,0.63147,-0.10106,-0.039221,-0.015095,0.0075993,-0.025022,-0.89269
0.16244,-0.70731,0.4919,0.049627,0.0016819,-0.020944,0.072194,0.61627
0.11881,-0.25085,0.31547,0.045468,0.026763,0.006311,-0.11016,-0.30895
-0.031387,0.34874,0.036778,-0.068066,-0.033904,-0.020473,0.066714,0.024819
-0.017482,-0.16444,0.15456,-0.010392,-0.01653,0.0075553,-0.00036792,-0.10173
-0.083212,0.48205,-0.57857,-0.024149,0.016199,0.011768,-0.14852,-0.28118
-0.42398,-0.012831,-0.29556,-0.046997,-0.029541,-0.023862,0.027919,0.65309
0.078624,0.10175,0.40067,0.069637,0.025971,0.0176,0.068008,0.056048
0.1142,-0.53459,-0.10792,-0.033268,-0.020289,-0.035798,-0.019992,-0.436
0.45071,0.4831,0.54697,0.06662,0.042737,0.050405,0.13963,0.73457
-0.0035546,-0.048204,-0.083625,0.04942,0.01201,-0.020458,-0.12425,-1.0007
