-0.00052945,-0.018355,-0.038036,-0.0056337,-0.00056007,0.0062385,-0.013195,-0.0092164
-0.008383,-0.010664,0.047602,0.0020227,-0.0093654,-0.0089878,-0.0047999,0.0062616
0.007096,0.012829,-0.023955,0.0019399,0.0053281,0.0072462,0.0037835,0.0061413
-0.00088125,0.020925,0.22392,0.0097962,0.012417,0.0080154,0.012523,0.0060137
-0.0088058,-0.017602,-0.42717,-0.02128,-0.0036063,0.0010286,-0.0098846,-0.0097898
0.014622,0.0066084,-0.00010789,0.018024,0.0042015,-0.0060394,0.0067951,-0.0022436
-0.0086957,0.0075678,0.26359,0.026011,0.0046,0.010109,-4.3637e-05,-0.0026134
-0.0084394,-0.0069927,-0.28395,-0.052201,-0.025896,-0.013132,0.00072966,-0.0030722
0.015383,-0.0059218,0.42782,0.033167,0.0063669,-0.0054902,0.0090035,-0.0035769
-0.0075572,-0.028386,-0.13254,-0.022777,-0.00030536,-0.005986,0.0090758,0.0037457
0.00084247,0.019265,-0.035909,0.014207,0.0086229,0.0011224,-0.053761,0.011145
0.0093093,0.019751,-0.048722,0.019108,0.0095598,0.0081897,0.023666,0.003044
-0.021243,-0.0035712,0.070499,0.007702,0.010181,0.015394,0.0070908,0.0029053
0.018532,0.035182,0.032343,0.019387,-0.013047,-0.0083652,-0.017403,-0.012704
-0.019836,-0.04369,-0.26454,-0.1094,-0.028912,-0.0083178,0.036275,-0.0047284
0.012042,-0.013579,0.047818,0.01257,0.0094907,-8.6407e-05,-0.011437,0.0112
0.0047258,0.0084474,0.11899,0.0030689,0.0085077,0.0084357,0.0036073,-0.0039769
-0.0027985,-0.0086774,-0.12804,0.050039,-0.00047107,0.0014776,0.0033156,-0.011184
0.020639,0.029016,0.1277,0.036454,0.013961,0.0022956,-0.012317,0.0052216
-0.026591,-0.034512,-0.074905,-0.022259,-0.0027375,-0.0049138,-0.012068,0.0061812
0.0039239,0.019642,0.20045,-0.0016562,-0.0035825,-0.012478,-0.011603,-0.00051692
0.0028338,0.019664,0.12358,-0.011932,-0.004133,0.010782,0.012472,-0.0071275
-0.014146,-0.026684,-0.21431,0.039747,-0.012181,-0.0054395,0.021041,0.0096746
0.015628,0.044517,0.2391,0.004128,0.019132,0.0014399,0.014035,0.01068
-0.0092262,-0.032555,-0.54117,-0.095883,-0.0039852,-0.0075052,-0.02425,-0.012081
0.0052216,0.015346,0.16338,0.013023,0.0043482,0.0069483,-0.00014905,0.011572
-0.0033785,-0.038474,-0.22408,-0.028229,-0.018425,0.013701,-0.0074844,-0.019999
0.011939,0.0012665,0.49436,0.05444,0.013579,-0.0027546,0.0083894,-0.005222
-0.0034985,0.017446,-0.13885,0.019669,-0.0090573,-0.011104,0.0084093,0.0091312
0.0049371,-0.021049,-0.13581,-0.022351,0.015195,0.012105,-0.046444,-0.00019656
-0.0097476,0.026552,0.25646,0.077448,0.0003701,-0.011275,0.047035,-0.0017284
-0.00082792,0.0040902,-0.17891,-0.07904,-0.022304,-0.0031678,0.0076964,-0.0030487
0.00029458,-0.018138,0.019526,0.016,0.0096474,0.0051231,-0.0081029,0.011651
0.001306,0.022225,0.014992,0.0029095,0.010263,0.013549,-0.00026664,0.0034139
-0.0056897,0.0077435,0.14926,0.021854,-0.0048574,-0.024805,-0.031222,-0.0043139
0.0027095,0.00062142,-0.080336,-0.0057995,0.0033242,-0.00059948,0.0006296,0.0040129
0.010886,-0.0072171,-0.036026,0.0054477,-0.0042692,0.0080018,0.032776,0.0048132
-0.012373,-0.0081061,-0.24381,-0.13219,-0.0041993,0.0087581,-0.005171,-0.017707
0.0032917,-0.033267,0.15373,0.057715,0.011369,0.017223,-0.0039766,0.0066082
-0.0045774,-0.0043543,0.022603,0.051736,-0.0043967,-0.029191,-0.010716,-0.016103
0.0031061,0.024315,-0.036113,0.013977,-0.012373,0.017869,0.0056268,0.0078554
0.010719,0.0063063,0.10262,0.046012,-0.0046873,-0.021351,0.021383,0.0081691
0.0026221,-0.0032879,-0.01395,-0.078793,0.0030814,0.0093778,-0.010501,0.00049941
-0.0055779,-0.0041962,-0.033746,0.014415,0.018757,0.00071647,-0.0041646,0.0083333
0.0017416,0.050533,0.13765,-0.018282,0.011058,0.0074518,-0.0064215,-0.0073491
-0.014455,-0.011102,0.14174,0.088629,-0.0044623,-0.0015113,0.0063819,-0.0074628
0.00058223,-0.017515,-0.27806,-0.047639,-0.012276,-0.010357,-0.012276,0.0079914
-0.015562,-0.031575,-0.35448,-0.098749,-0.020289,-0.003265,-0.030706,-0.0078801
0.015324,0.0088665,0.27392,0.045065,0.010494,-0.0035049,0.037475,0.0073977
0.015172,-0.0058232,0.14846,0.0015068,0.0019234,0.012461,0.0051253,0.0069327
0.015232,0.033616,-0.07253,0.028919,0.024336,0.021202,0.0052473,-0.0014584
-0.023617,-0.036845,0.09685,0.018352,-0.031577,-0.024259,-0.0012522,-0.017741
7.4164e-05,0.0016936,-0.12405,-0.014339,0.0061505,-0.0069391,0.0088076,0.0050286
0.00023429,0.0088183,0.11586,0.024582,0.012625,0.0025728,-0.011887,-0.0033727
0.01581,0.039433,-0.036545,0.033327,0.0035759,0.019596,-0.04043,0.0040277
-0.015763,-0.02348,-0.16179,-0.050959,-0.0052734,0.020413,0.07891,0.011686
-0.0085336,0.015488,0.2607,-0.0020863,0.0017889,-0.034235,-0.029252,-0.0037919
-0.0092897,-0.038958,-0.20944,-0.093789,-0.014225,-0.011603,-0.0057027,-0.003348
0.0055485,0.024073,0.316,0.009708,-0.0063815,-0.0053606,-0.0065787,0.0051494
0.0048878,-0.029886,-0.31295,0.097433,0.017543,0.0081478,-0.00025154,-0.0018323
0.020106,0.0021692,-0.10455,0.0053704,-0.0049508,0.0058004,-0.040843,-0.00097155
-0.0034223,0.026355,0.082518,0.014837,0.004216,0.0035701,-0.096485,-0.015821
0.0046007,0.0034715,0.046755,-0.014753,-0.0019306,0.0017676,0.15364,0.0082102
0.0050286,0.019324,0.22787,0.0025381,0.0077106,0.0084212,0.061316,0.016372
-0.025698,-0.027753,-0.19995,-0.073947,-0.0061066,0.00018214,-0.014183,-0.0069844
0.00605,-0.012816,-0.062849,-0.017693,0.0032985,0.00044867,-0.034255,-0.0071605
-0.024819,0.0016508,0.1092,0.046246,-0.018937,-0.0065446,-0.038643,-0.0075501
0.01446,0.015739,-0.042831,0.094357,0.028621,0.0024434,-0.0046409,0.0075356
0.0066957,-0.017266,0.027282,-0.084409,-0.010342,-0.019667,0.020286,-0.00089304
0.0065914,-0.0034106,-0.12728,-0.083965,-0.026438,-0.0027337,0.0045772,0.014111
0.021982,0.018455,0.21014,0.11892,0.019476,0.014062,-0.098609,0.005736
-0.0096144,0.017263,0.0060743,0.00060984,0.0025304,0.0072231,0.039201,-0.018148
-0.0022452,0.00095249,0.14924,0.045332,0.0010085,0.00017375,0.059189,-0.0028021
-0.034009,-0.038238,-0.21301,-0.059412,-0.00055486,-0.00707,0.0010365,-0.002868
0.012328,0.0012276,-0.20566,-0.024348,0.013609,0.0089594,0.099669,0.0051306
-0.011598,-0.01356,-0.21033,-0.07559,-0.01107,-0.014205,-0.12109,-0.010036
0.027113,0.050056,0.27504,0.060952,-0.0041854,0.017221,-0.082953,0.014122
0.01136,0.012198,0.18258,0.0032032,0.0030824,0.0017081,0.15939,0.015052
-0.011916,-0.057018,-0.024584,0.025271,-0.012651,-0.021643,-0.05829,-0.015157
-0.0036232,0.045367,-0.063825,-0.028669,-0.012291,-0.0059191,-0.10344,-0.0063259
0.004982,-0.016681,0.26049,0.060198,0.051041,0.025478,0.133,0.017959
-0.017397,-0.016604,-0.14608,0.041523,-0.033632,-0.013371,-0.0055259,-0.012755
-0.00052717,-0.0011803,-0.12084,-0.0854,0.022664,0.010334,0.011958,-0.012637
0.0086035,-0.0014807,0.045626,-0.0011916,-0.030221,-0.02065,-0.041342,0.010447
-0.005771,-0.0094745,-0.25724,0.027548,-0.020614,0.010762,-0.1109,0.0018122
0.010873,0.045356,0.25913,-0.070328,0.027804,0.0028716,0.021922,-0.015045
0.011488,0.0069006,-0.029968,0.017135,0.021028,0.010214,0.14613,0.022477
0.011547,-0.031049,-0.13145,0.063201,0.036954,0.024853,0.019488,0.012945
-0.02811,0.0017515,-0.020705,-0.0022237,-0.026129,-0.031393,-0.0064128,-0.020055
0.001879,-0.012055,0.38926,0.040165,-0.019801,0.0055953,-0.056472,0.0017558
-0.015571,0.013231,-0.40101,-0.17603,-0.053287,-0.035874,-0.075758,-0.015219
-0.0021249,-0.016416,0.33488,0.053205,-0.0012801,0.00074764,0.029889,0.015096
0.019074,0.031547,-0.091411,0.056814,0.019447,-0.0013659,-0.082745,-0.016562
0.0092879,0.016268,0.060993,0.02291,0.040575,0.028446,0.079092,0.02268
-0.023372,-0.070215,-0.28748,0.029916,0.023395,0.0044975,0.10179,-0.015622
0.022867,0.061115,0.072877,-0.062838,-0.016272,0.036259,-0.022247,0.016888
-0.00034821,-0.027165,0.086667,0.080248,0.0075259,-0.0091671,0.011577,-0.0049459
-0.022767,-0.022364,-0.08217,-0.10384,-0.03036,-0.04608,-0.039313,-0.0032074
0.025731,0.036744,0.02771,0.071847,0.018262,0.011125,-0.050516,0.014062
-0.011394,-0.013553,0.073272,-0.096281,-0.042198,-0.025405,-0.038351,-0.023662
0.0061501,0.014608,0.016187,-0.014785,0.0067707,0.031525,0.02776,0.0084682
-7.086e-05,0.012187,-0.21338,0.12868,0.024364,-0.0057972,0.069141,-0.0068071
-0.0068501,-0.036176,0.22056,-0.14252,-0.036404,0.0031544,-0.00051379,-0.0069641
-0.014294,-0.036571,-0.14339,0.077837,0.043149,0.0037029,0.006157,0.01592
0.016697,0.0501,0.35023,0.0083928,0.020785,0.0037621,-0.035728,0.0073344
0.0003562,0.036238,-0.15885,0.11774,-0.0097934,-0.0043169,0.092968,-0.0012597
-0.016176,-0.015878,-0.17906,-0.03961,-0.009571,-0.0047177,-0.13055,-0.0018349
0.014279,0.0028123,0.23495,-0.0028023,-0.017637,-0.028507,-0.11955,-0.025455
-0.017378,-0.072115,-0.4003,-0.21703,-0.033978,0.018207,0.15807,0.01395
0.014037,0.048046,0.018497,-0.0022438,0.019594,0.026122,0.023328,0.0070585
0.014826,-0.019822,0.21241,0.17341,0.057258,0.018664,6.4456e-05,0.00070797
0.00052422,0.013119,0.090125,-0.03312,-0.030213,-0.035501,0.0023139,0.010393
0.002173,0.037367,0.028638,0.035004,-0.016096,-0.019326,-0.040709,-0.034412
0.0038705,-0.0095899,-0.2288,-0.035941,0.029449,0.043599,0.057667,0.037901
-0.025908,-0.01046,0.12233,0.035257,-0.041892,-0.034354,-0.0082425,-0.015136
-0.0092479,-0.0040861,-0.091246,-0.017447,0.035591,0.012364,0.041882,0.017163
-0.00093571,-0.02921,0.22961,0.00054663,-0.027136,-0.019382,-0.058215,-0.029442
0.0068603,-0.015143,-0.050858,-0.013162,-0.011354,0.01109,-0.15246,0.0012267
0.0064455,-0.016204,0.36144,0.010979,0.043775,0.033571,0.10323,0.0076562
0.013618,0.092889,-0.73864,0.0099782,-0.0025255,-0.006497,-0.063858,-0.0021805
-0.0026953,0.015394,0.17163,-0.031884,-0.0020056,-0.030865,0.20658,0.011023
0.0045229,-0.05343,0.038319,-0.0127,-0.0095374,-0.015997,-0.17833,-0.022764
-0.011521,0.011192,-0.22251,-0.033313,-0.025263,0.01472,0.086692,0.013922
-0.0039368,-0.041081,0.33715,0.016586,0.021067,0.014399,0.056502,0.0041171
-0.0040101,0.031557,-0.11606,-0.041759,-0.011138,0.014216,-0.089483,0.002657
0.011627,0.0022058,0.17741,0.18298,0.02669,0.021862,0.085632,0.025229
-0.0039812,0.01126,0.053825,-0.051059,-0.029303,-0.033108,-0.051719,-0.021928
0.019412,-0.011678,0.0041956,-0.017472,0.024252,-0.01017,-0.0022201,-0.021686
-0.019798,-0.011853,0.026066,0.048814,9.4585e-05,0.012523,-0.047565,-0.005378
-0.035678,-0.075017,-0.50088,-0.22803,-0.046906,-0.058717,-0.086308,0.011281
0.034296,0.1194,0.27188,0.14327,0.023964,0.026251,-0.0088944,-0.010861
0.018295,-0.022107,0.31862,-0.056871,0.02517,0.05667,0.16159,0.037472
0.0023088,0.016288,-0.44753,0.19441,0.019052,-0.02198,0.066138,0.0077318
-0.01362,-0.015318,0.22403,-0.10312,-0.025907,0.0013424,-0.021575,-0.022089
-0.021652,-0.038808,-0.13331,-0.08217,-0.0084716,-0.0061615,-0.078046,-0.013071
-0.0061629,-0.0074013,-0.15695,-0.015684,-0.0070928,-0.013323,0.02165,-0.012229
0.025011,0.039685,0.31317,0.026774,0.0014021,0.0031417,-0.14448,-0.0040567
0.017132,0.00070669,0.0072593,0.1164,0.016857,0.019603,0.17353,0.050424
-0.014244,-0.0073174,-0.20462,-0.1444,-0.031063,-0.026622,-0.032024,-0.0050684
0.0011225,0.0233,0.35881,0.080991,0.02182,0.028394,-0.034302,-0.014249
-0.01495,-0.063741,-0.25546,0.027296,0.019485,-0.0028997,-0.028199,0.0073722
0.015646,0.075358,0.12313,-0.032038,0.0013055,-0.011082,0.033609,-0.033751
-0.00080467,-0.020188,-0.22668,-0.019209,-0.040181,-0.01945,-0.05945,0.003286
-0.01734,-0.061082,0.15281,0.080831,-0.0030762,-0.019985,0.067782,0.0094271
-0.0025835,0.015455,-0.20287,-0.099821,0.011336,0.034413,0.094869,0.0084181
0.0045352,0.022181,0.30452,-0.038461,0.018853,0.026742,-0.095781,-0.022948
0.0041214,0.021768,-0.0075035,0.061127,0.019517,-0.011647,0.073344,0.048238
0.011845,0.0064336,-0.37522,-0.03595,-0.018019,0.012984,-0.046876,-0.020286
0.019859,-0.023954,0.46615,0.11527,-0.015852,-0.04011,-0.15235,-0.017826
-0.026626,0.00064376,-0.30338,-0.040081,-0.0055345,0.0085562,0.1706,0.031803
0.0050547,0.0095542,0.14575,-0.017611,0.020411,0.0024975,-0.093755,-0.0046555
-0.0024326,0.018044,0.026875,-0.067131,-0.024267,-0.0038221,-0.0077711,-0.010437
-0.0023154,-0.013217,-0.15698,0.038284,0.032063,0.044117,0.085123,-0.017113
-0.010247,-0.014022,-0.15258,0.033505,-0.0060522,-0.025644,0.013442,0.0064107
-0.0027347,-0.04678,0.12899,-0.034022,0.0019928,-0.033406,-0.0037067,-0.01795
0.0047153,0.029403,0.13525,0.00033172,-0.021824,-0.0025097,-0.083244,0.027215
0.0044386,0.011786,0.070451,-0.019206,-0.022612,0.012511,0.095298,0.0094578
0.0043784,0.010136,-0.01864,0.056126,0.015518,0.011821,-0.038326,-0.016107
0.012421,0.0013147,0.27304,0.0077111,0.014709,0.018988,-0.085677,-0.010002
-0.0026886,0.0010707,-0.4314,0.030812,0.053313,0.010643,0.10947,0.012476
-0.0019736,0.017128,-0.15753,-0.10133,-0.040402,-0.028837,-0.077938,0.01245
-0.024638,-0.036728,-0.040045,-0.013965,-0.032014,-0.0057495,0.0161,-0.017881
0.022904,0.03442,0.31813,0.11293,0.031559,0.017349,0.086806,0.015078
-0.0079268,-0.0042056,0.025676,-0.088046,-0.029476,-0.014257,-0.037809,-0.0061546
0.0077764,0.003347,-0.12059,-0.038941,0.019109,-0.0067892,-0.014117,0.011799
-0.0081298,-0.03677,0.47356,0.11953,0.00528,0.00077751,-0.021907,-0.0095695
-0.00090099,0.0084078,-0.66757,-0.026756,-0.00080243,0.0085709,0.0012601,-0.0002757
-0.017295,-0.0091751,0.26185,0.0065612,0.00072884,-0.0067178,0.0085052,-0.046476
0.0053395,-0.034295,-0.22134,-0.10085,-0.0058535,-0.0059438,-0.04701,0.047058
0.028085,0.02736,0.14168,0.07286,0.010633,0.034325,0.0066381,-0.0165
0.0041805,0.019983,0.054628,-0.003595,-0.035783,-0.01884,0.11479,0.036443
-0.01163,0.076595,-0.076379,0.036902,0.011142,0.0062129,0.035247,-0.028263
-0.0037199,-0.029449,0.34927,-0.024506,0.034228,-0.0079986,-0.13829,0.0083851
-0.0033841,-0.0094465,-0.22482,-0.039529,0.0022403,0.00071054,-0.062124,-0.017429
-0.010694,-0.059262,-0.12895,-0.063036,-0.022306,0.0086349,0.068416,0.0038822
0.0055197,-0.031088,0.080003,0.12352,-0.0081405,-0.0078221,0.0815,0.033414
-0.0016943,0.03542,0.03313,0.035559,0.0057017,-0.0017922,-0.014932,-0.030301
0.014472,0.030418,0.15932,-0.061419,-0.019795,-0.012176,-0.033174,0.00027252
-0.0085363,0.023923,-0.36915,-0.026803,0.032624,-0.0074107,-0.027637,-0.0077056
0.01518,-0.01542,0.15249,0.045846,0.014616,0.02073,-0.04488,0.016003
-0.00033047,-0.025024,-0.14027,0.016338,-0.019011,0.01019,0.087286,0.00097823
-0.015991,-0.012451,0.068302,-0.10683,-0.013421,-0.023008,-0.037141,0.00178
0.0073123,0.038309,0.28137,0.075639,0.0081184,0.015162,0.058529,0.0026601
-0.031903,-0.04415,-0.2017,-0.099421,-0.0088937,-0.0079985,-0.094493,-0.01992
0.014895,0.021908,-0.043647,0.048419,0.0060294,0.024627,0.11295,0.012102
0.0071569,0.010361,0.013189,0.035169,-0.009479,-0.0043867,-0.038288,0.012774
0.01523,-0.008138,0.10786,0.040399,0.022764,-0.017275,-0.048691,-0.033502
2.208e-05,0.005676,0.13608,0.024379,-0.0301,-0.022274,-0.02038,0.0061402
0.00051026,0.0049834,-0.12417,-0.029653,0.034896,0.027074,0.053913,0.01457
0.0087616,0.020963,-0.090182,0.001912,0.0065523,-0.018025,-0.052861,0.0074447
0.0012264,-0.0090452,0.23555,0.078651,0.0017309,0.045311,0.10423,0.0081859
-0.02997,-0.061802,-0.54674,-0.21453,-0.026785,-0.017403,-0.029744,-0.014525
-0.030125,0.034365,0.13329,0.035919,-0.032423,-0.034249,-0.017329,-0.029557
0.016472,-0.0097901,0.09711,-0.013606,0.031475,0.010573,-0.038049,0.033257
0.016203,-0.0069356,0.0028707,0.059456,-0.0070735,0.00016036,-0.013384,-0.0059148
0.023875,0.034946,0.13387,0.060859,0.023806,0.012984,0.026022,0.024694
-0.0073224,0.021919,0.35902,-0.016015,-0.008601,0.0025255,0.049675,-0.023388
0.0085263,0.00065777,-0.10177,0.064293,0.020878,0.00034815,-0.027547,0.0061503
-0.0068091,-0.029039,-0.39639,-0.16617,-0.020342,0.0145,-0.0095627,-0.019326
-0.0066088,-0.012649,-0.095056,0.0977,-0.038251,-0.048634,-0.0051418,0.0020199
-0.014465,-0.051844,-0.033856,-0.01908,0.045548,0.045353,-0.15456,-0.015412
0.016393,0.048655,0.13845,0.045661,-0.0030673,-0.0082908,0.26097,0.030276
-0.03124,0.023258,0.1167,-0.099287,-0.035454,-0.014396,-0.032296,-0.0012762
0.014585,0.00486,0.017333,0.01409,0.018824,-0.012225,-0.034951,-0.016189
0.013393,-0.0064195,0.20652,0.064712,0.026979,0.021416,-0.036824,0.04018
0.0044339,0.0052008,-0.231,-0.002799,-0.018889,-0.0074841,-0.038716,-0.027705
-0.0042969,-0.01476,-0.13231,-0.001458,0.013855,0.017998,0.028997,0.0063522
-0.0048509,0.0121,0.36122,-0.0018376,0.0077853,-0.011757,-0.013832,0.0012855
0.010649,0.00020046,-0.33643,-0.042956,-0.013908,-0.0031943,0.035736,0.0035339
-0.0125,-0.05785,-0.021376,0.016162,-0.035813,0.0045065,0.013723,-0.026313
-0.011888,-0.0053643,-0.074871,-0.034814,-0.0033888,-0.0042947,-0.017072,0.0052952
0.027967,0.06428,0.23953,0.062682,0.036421,0.0095696,-0.07185,0.00459
-0.0024778,-0.012758,-0.1229,-0.065591,-0.0023256,-0.0083628,0.10765,0.0029764
-0.0096328,0.029146,0.10521,0.041913,0.013222,0.0047343,-0.0016238,0.00074668
-0.0014316,-0.013396,-0.043966,0.010524,-0.018443,-0.044502,-0.10256,-0.0017286
-0.0091834,-0.031513,0.093548,-0.0035187,0.0043062,0.039634,0.023631,0.0037458
0.0061877,0.020996,-0.030179,0.038505,0.0034148,-0.0081524,0.079929,0.0018782
0.0057002,0.0027642,-0.0028142,0.0031983,0.018035,0.031107,0.034765,0.024158
-0.0027025,-0.024398,0.14244,-0.0085495,-0.02984,0.0012222,-0.12789,-0.069919
0.0045698,0.048362,-0.19764,0.018285,0.016193,-0.019782,0.060322,0.0634
-0.0035887,-0.052669,-0.15687,-0.20576,-0.039009,-0.008715,0.044443,0.0021401
-0.011446,0.00065146,-0.01662,0.069188,-0.023418,-0.028425,-0.081848,-0.027302
0.02011,0.028933,0.0049605,0.030712,0.063058,0.022248,0.025365,0.013939
-0.00269,-0.02199,0.12765,0.085287,0.0016555,0.025711,-0.047612,-0.014959
-0.017433,-0.010837,0.21182,0.061279,0.018794,0.012856,-0.026853,-0.028231
0.014803,-0.0072483,-0.21854,-0.0098771,0.004846,-0.016585,0.11156,0.036475
-0.0077123,0.036236,0.3521,-0.049941,-0.017061,-0.015881,-0.038283,-0.00065897
0.032043,0.080973,-0.17071,-0.082259,-0.031594,-0.00065805,0.09407,0.00086474
-0.030124,-0.068139,-0.23334,-0.020778,-0.031137,-0.025468,-0.007107,0.017474
0.0010354,-0.036083,0.19439,0.048727,0.038937,0.01149,-0.15458,-0.029092
-0.022903,-0.033948,-0.46642,-0.06889,-0.016602,0.0011298,0.080983,0.025117
0.0075283,-0.0073138,0.11981,0.056144,0.044623,0.053103,-0.066352,-0.015267
0.029983,0.098161,0.36718,0.079993,-0.011526,-0.01206,0.075064,-0.0017752
-0.0022312,-0.0069749,0.11197,-0.013261,-0.03639,-0.014532,-0.033944,0.003239
0.012626,0.0050056,0.010941,0.12749,0.048312,0.014508,-0.065279,-0.0077761
-0.034677,-0.053768,-0.16968,-0.14669,-0.015162,-0.04991,0.17638,-0.011031
-0.011241,-0.0039131,-0.20258,-0.070475,-0.015888,-0.0046351,-0.10584,0.017305
0.012637,-0.0018888,-0.032167,0.012359,0.030442,0.040998,0.017734,-0.0083348
0.0056414,-0.0009255,0.014476,-0.038428,-0.016883,-0.0066997,0.086145,0.006075
0.022317,0.038028,0.16493,0.082564,-0.017305,0.00077152,-0.11933,0.013785
-0.0078495,-0.033402,0.03715,-0.05348,-0.017719,-0.01467,-0.043882,-0.024325
-0.0069581,0.058335,-0.024763,-0.055141,0.02097,0.0094752,0.093952,0.032133
0.016976,0.0009044,0.26024,0.26557,0.036329,0.026274,-0.064904,-0.0047179
-0.037744,-0.057046,-0.31164,-0.13817,-0.041869,-0.034703,0.0032946,-0.025951
0.016357,0.0097551,-0.038278,0.061342,0.013005,-0.0017411,0.01753,0.0070622
-0.015944,-0.017124,0.11048,-0.058523,0.0056764,0.031227,0.071644,0.015861
0.0061734,-0.020156,-0.27263,-0.10022,0.022083,-0.02191,0.0015053,0.00028079
0.012648,0.055653,0.030307,0.13078,-0.01593,0.018402,0.01786,-0.024016
-0.0040753,-0.023869,0.31552,-0.1317,-0.014667,-0.0276,-0.027958,0.021336
0.0030834,0.022581,0.035676,0.010616,-0.036688,-0.019301,-0.10487,-0.035145
0.0108,0.023005,-0.02042,0.026613,0.011683,0.027721,-0.048872,-0.044556
-0.0043559,-0.030682,0.037914,0.096339,0.036606,0.027616,0.077593,0.11072
-0.0034138,0.0017911,-0.2732,-0.021959,0.030148,-0.011711,0.032413,-0.022156
0.0056582,0.010711,0.0082196,0.023654,-1.9657e-05,-0.019866,-0.012551,-0.021213
-0.016382,-0.011967,-0.077277,-0.063465,-0.054052,-0.012431,0.051878,0.03528
0.00061574,-0.0037966,0.089229,-0.10357,-0.007081,0.010601,0.014355,-0.024885
-0.0059671,-0.042764,0.095225,0.11416,0.015815,0.033569,-0.0084727,-0.02247
0.01068,-0.0035703,-0.058369,0.019206,0.0068187,-0.021712,0.084441,0.018625
-0.0041513,0.036027,0.19089,0.056618,0.0050729,0.00093948,-0.17595,-0.011354
-0.0035769,0.02948,-0.040999,-0.09413,0.0029163,-8.4659e-05,-0.039566,-0.011063
0.035855,0.039475,-0.13899,0.027814,0.00055274,0.0064628,0.025352,0.050731
-0.026473,-0.066826,-0.082376,-0.07744,-0.017414,-0.041862,-0.12876,-0.036729
0.0047509,0.015022,0.36835,0.051367,0.01174,0.03474,0.35069,0.00033312
-0.0032903,-0.012279,-0.10135,-0.0071417,-0.021171,-0.029203,-0.10562,-0.03297
-0.011529,-0.039879,-0.14071,0.052301,0.024604,0.039908,-0.028264,0.020032
-0.0043195,0.048878,-0.31152,-0.051012,0.0006688,0.023464,-0.010728,0.0034175
0.018381,0.050417,0.16966,-0.019819,-0.0070879,-0.031564,-0.037572,0.065788
0.0019426,-0.043354,0.103,0.036641,0.016826,-0.031384,-0.10156,-0.027254
-0.006698,-0.029369,-0.015573,0.0479,-0.029344,0.023983,0.22616,-0.018091
0.0081432,0.030063,0.13759,-0.041156,0.0026275,-0.013974,-0.016274,-0.0085833
-0.015987,-0.052145,-0.16963,0.050108,0.026611,0.018683,-0.11098,0.00095098
0.0068777,-0.0097943,0.17281,-0.093056,0.019044,0.020226,0.027332,-0.0053736
-0.0013747,0.063985,0.046698,0.052169,-0.051355,-0.025159,-0.093839,-0.012081
0.013937,0.036936,-0.027035,-0.030298,0.0029965,-0.0082874,0.080204,-0.011386
-0.017518,-0.074938,-0.067459,-0.05944,-0.013039,0.015994,0.0028777,0.020219
0.013605,0.041009,-0.17203,0.042851,0.025775,0.00070981,0.065263,0.043791
-0.017726,-0.01377,-0.015917,0.065783,-0.0053232,-0.0072823,-0.075919,-0.034311
0.005649,-0.013032,0.16415,-0.013846,0.011038,0.015535,0.04844,0.028165
0.013395,0.027143,-0.10952,-0.0082762,0.012439,-0.047853,-0.17088,-0.042222
-0.0023104,-0.0031091,0.46014,0.098363,0.0066513,0.029356,0.20355,-0.011159
-0.0023987,-0.018276,-0.68027,-0.20151,-0.0064816,0.036493,0.062072,0.035319
-0.010287,-0.010817,0.19793,0.084504,-0.042822,-0.057443,-0.14254,-0.012263
-0.0025054,0.0035743,0.019156,-0.043385,0.0067239,0.013343,0.026898,0.0179
0.0053608,0.0016098,0.1922,0.0087481,-0.014376,0.01453,-0.0078539,0.0086168
0.0055333,0.038313,0.07867,0.092582,0.049868,-0.0070982,-0.01224,-0.024408
0.0058437,-0.049917,-0.054123,-0.041856,0.0039317,0.026348,-0.024821,-0.018504
-0.0093368,0.018672,-0.017561,0.019433,-0.0038972,-0.018292,-0.021423,-0.012495
0.0068379,0.017972,-0.397,-0.004923,-0.012742,-0.0086126,0.045643,-0.00612
-0.00036981,-0.028257,0.16703,-0.036919,-0.0069308,0.015938,-0.1042,0.06335
-0.02321,-0.018326,0.064825,0.0015152,-0.0097307,0.00038243,0.22473,0.0085501
0.02419,0.063287,-0.024724,0.024499,0.018206,-0.016348,0.0089174,-0.029885
0.0011445,-0.018126,0.38929,-0.045926,-0.032124,-0.018565,-0.056833,-0.0051999
-0.014266,-0.028704,-0.2808,-0.029843,0.011555,0.0096153,-0.10615,-0.011359
0.0091822,0.023119,0.033348,0.065148,0.040235,0.021726,-0.0071602,0.045128
-0.0066421,0.0039085,-0.15467,-0.0030429,-0.039571,-0.0051788,0.059567,-0.046918
0.016404,0.022522,-0.0028379,0.062374,0.022258,-0.0081147,-0.039434,0.0091921
-0.0075754,-0.030734,0.12039,-0.035772,-0.00088451,-0.0023101,0.015795,-0.0053916
-0.0082113,-0.054359,-0.15276,-0.063569,0.00018706,0.012476,-0.0091799,-0.028193
-0.0010612,0.037778,0.2403,0.033129,0.017372,-0.0027728,0.026454,0.034564
-0.017312,-0.019543,-0.019998,0.011635,-0.043402,0.0064834,0.037124,0.011044
