-0.00071988,0.0064114,0.025504,0.015855,0.016424,0.0028086,0.011736,-0.0057107
0.014832,-0.0083686,-0.0060526,-0.015665,-0.0075005,-0.0063063,0.011651,-0.020631
2.4928e-05,0.0082968,-0.022074,-0.0081715,-0.0081222,-0.015411,-0.0037315,-0.0041163
0.0017211,-0.0062271,0.0008803,-0.00071577,-0.00096279,0.006891,-0.0032289,-0.0032202
0.011938,0.010408,0.0081125,0.0067136,0.0062611,-0.0017699,0.005221,0.013171
-0.0086948,0.0033722,0.030856,0.0063136,0.0058077,0.0055704,-0.0019655,0.01373
-0.0058876,-0.011821,-0.016844,0.0059046,-0.0022886,0.0055082,-0.0092914,-0.017184
0.004319,0.0038331,-0.009986,-0.01013,0.005407,-0.0019883,-0.0090217,0.0063995
-0.0018703,-0.012163,-0.0032265,-0.0027161,-0.002387,0.0064255,-0.0011679,-0.0013948
-0.001251,0.0027526,-0.0043009,-0.0030829,-0.0022766,-0.00063619,0.0065074,-0.0014306
-0.009514,0.0018106,-0.0052773,0.0044233,-0.0099242,-0.007698,0.0062815,-0.0014547
0.0047025,0.0085737,0.017429,-0.0035998,-0.0019103,0.00073373,0.0060665,0.0063893
-0.0052127,0.0075376,0.0092748,0.011946,0.0061463,-0.0066772,0.005945,-0.0013218
-0.0076482,-0.0090141,-0.014003,-0.0036011,0.0064583,-0.0065206,-0.0096601,-0.0011673
0.013408,-0.0019559,-0.013301,-0.0033541,-0.00094326,0.0090452,-0.0016758,-0.0010032
0.011421,0.0053057,0.003524,-0.010762,-0.00041247,0.0010273,-0.0013715,-0.00088908
0.0022471,-0.0028456,0.012889,0.0053881,-0.0075774,0.0007609,-0.00096974,-0.00088941
0.0016096,-0.0029737,0.014563,0.013786,0.00096347,0.016135,-0.00050843,-0.0010603
-0.0061542,-0.0028935,0.00045011,-0.0012738,0.0095152,-0.0074844,-0.0078325,0.0063741
-0.0055609,-0.0026037,-0.014114,-0.0086302,0.0023556,-0.0075776,0.016095,-0.0020317
-0.0046215,-0.002103,-0.0059264,-0.0083669,-0.012812,-0.007587,-0.006875,-0.0028137
-0.0035419,0.014228,-0.014181,0.01508,0.0029729,0.00027771,0.0013566,0.0040915
0.0053166,0.0073028,0.023633,-0.00081457,0.010578,0.0081762,-0.0061209,0.0031566
-0.0016017,-0.015108,-0.0095173,-0.0013405,-0.0056414,0.0082719,0.0097112,-0.013308
-0.00091774,-0.0061927,-0.0039781,-0.0020521,0.0012358,0.00055057,0.0019306,0.0017083
0.0073601,0.010536,0.0015403,-0.01065,-0.015553,-0.01499,-0.0060642,0.0014544
-0.00018267,0.011568,-0.0082239,-0.0035637,0.0066608,0.0007225,0.0013342,0.0016493
-7.3095e-05,-0.010971,0.029538,0.011527,0.0055751,-0.0069873,0.00070626,0.010148
-9.1289e-05,-0.010244,-0.0099734,0.0034709,-0.0029915,0.016575,-7.5003e-05,-0.0043229
-0.00021567,-0.0018874,-0.017326,0.0035655,0.0045484,-0.006725,-0.00872,-0.0027878
-0.0082485,0.0062941,0.023017,0.0039798,-0.0029824,0.0012002,-0.0016604,0.0067972
0.0070646,-0.0013067,-0.0063472,-0.0031775,-0.0021731,0.0090399,0.0056148,-0.01481
-0.0011444,0.0065724,-0.0041512,-0.0024021,0.0068461,-0.0067182,0.0054061,0.010327
0.0062064,-0.0013225,-0.0019637,-0.017268,0.00041864,0.0085462,-0.0022252,-0.011717
0.0057182,0.0062375,-6.7748e-05,0.0067845,-0.0061041,-0.0077007,-0.0016642,0.012669
-0.018173,0.013599,0.0091515,0.00716,0.010435,-0.00074905,0.0070015,-0.0025392
-0.0028865,-0.018318,-0.01345,-0.0083847,-0.0048868,-0.0095715,-0.0076328,0.0051318
0.0047853,-0.0035628,0.0024812,0.014827,0.0024831,-0.0027671,0.008925,-0.003345
-0.0029019,-0.020204,-0.0054129,0.0065129,-0.0065206,0.004226,0.0017879,-0.012252
0.0053302,0.0021678,-0.013493,-0.0098209,-0.0083157,0.0037767,-0.013582,0.0019825
0.0060144,0.024606,0.017511,-0.010639,-0.0026273,0.0038279,0.0017858,0.00827
0.0068703,-0.0074668,0.017444,-0.0036372,0.010905,0.0044193,0.0010194,-0.0010401
-0.0078714,0.015397,0.0020007,-0.0043167,-0.014216,-0.0023346,-0.00015616,0.0054452
0.0084982,-0.000534,-0.013223,0.018681,0.0082688,-0.0088041,-0.0015596,-0.0034162
-0.0066694,-0.00060381,0.002908,0.010748,0.016055,0.015998,-0.0029611,-0.0041219
-0.00659,-0.023945,-0.0044533,-0.0046446,0.0013565,0.0014653,0.0036864,0.0033511
-0.0068942,0.0074882,0.011414,-0.011883,0.003087,0.002024,0.010766,0.003367
0.00031715,-0.00012375,-0.027716,-0.0032071,-0.010303,-0.02156,-0.012852,-0.0041074
-0.00042072,5.4018e-05,0.010953,-0.0021354,-0.0079521,-0.0068216,0.010982,-0.0034912
-0.0011004,0.00020052,0.002495,-0.00095306,0.0019223,0.0072885,-0.0037426,0.005169
0.014083,0.0081462,-0.013877,0.015861,0.0033522,0.0053906,0.0053203,-0.0094232
-0.0016254,0.0082997,0.016712,0.0013318,-0.0038835,-0.0043742,-0.0089039,-0.00044234
0.0064914,-0.014926,0.0085044,-0.013381,0.0035902,0.0017776,0.00025334,0.0086156
0.0071201,0.0088125,0.00069099,0.0029024,-0.0053739,0.00070149,0.0091802,0.0098641
-0.0076881,-0.014217,-0.0066794,0.0032621,0.00071959,0.016017,-0.013485,-0.012413
-0.0068526,-0.0058928,-0.01365,-0.0045025,-0.0012261,-0.0069231,-0.0052789,0.0041791
-0.013969,0.010318,0.0109,0.0030653,0.0047875,0.0020864,0.0025862,-0.0029625
0.0021017,0.01092,-0.0035328,0.0025767,-0.0043378,0.0037599,0.010201,-0.0026755
0.0022515,0.0036439,0.0053318,-0.0058982,0.0028931,-0.017818,0.0020543,0.0049878
0.0099347,0.0040234,0.013846,0.0011585,0.010966,0.0073663,0.0016936,0.0044004
0.0017737,-0.019275,-0.01721,-0.0074249,-0.0035989,-0.0068782,-0.0064284,-0.0043814
-0.0065308,0.0040086,0.0058382,0.01529,-0.0097294,-0.0060322,-0.0066537,-0.013431
0.00071274,-0.01207,-0.010728,-0.0009677,0.015731,0.0098397,0.0088171,0.0086635
0.015734,0.010655,0.0035373,-0.0014966,-0.0056703,0.0095243,0.0086838,0.0073995
-0.0083278,-0.0058618,-0.013649,-0.0097415,-0.011746,0.00095498,-0.0071221,-0.0014146
-0.0089754,0.00097141,0.0082788,0.0055263,0.0050697,-0.0078779,0.0003963,-0.0098177
0.0059736,0.0077968,-0.00075578,0.0052211,-0.01005,-0.0089581,-0.015678,-0.0020976
-0.0025323,0.0068491,0.014103,0.0049537,0.013187,0.0057257,0.0071512,0.013939
-0.0032053,0.0059496,0.013858,-0.018711,-0.011064,0.0050891,0.00642,-0.00084991
0.0040205,-0.0027338,-0.0093482,-0.0032538,0.011122,-0.0029454,-0.0021747,0.0002509
-0.012021,-0.011413,-0.00096477,0.012296,-0.0059728,0.0051002,0.0048975,0.0014057
0.011251,-0.012278,-0.0080481,0.0045349,0.0081858,-0.0020563,-0.0035161,-0.0054252
-0.0042298,0.010335,-0.007337,0.0047377,-0.0087137,-0.0010747,-0.0038933,-0.0048188
0.011863,0.001825,-0.0067699,-0.010529,0.013773,8.712e-05,0.0038252,0.010899
0.0048005,-0.0064384,0.0092281,-0.010038,-0.0024118,-0.0065535,0.0040394,-0.013008
-0.0098813,-0.0065206,0.0016213,0.0061646,-0.0025753,0.010084,-0.0032638,0.0016374
-0.0088698,0.017293,0.0017415,0.022387,-0.01801,-0.012646,-0.010322,0.00028785
0.0077004,0.0025241,0.0018783,-0.0083208,0.01371,0.011091,0.0062184,0.0065881
0.00064868,0.0037972,-0.0056975,-0.015713,-0.0090717,0.0031266,0.0071897,-0.0026647
-0.0066671,-0.010289,0.0024853,-0.0076491,-0.00052216,-0.0052721,0.00028626,-0.0038112
0.0091625,-0.00089058,0.01077,0.015852,0.023626,-0.006212,0.0010182,0.011133
-0.0065235,0.0004962,-0.0043778,0.0079299,-0.0070438,0.0082524,0.0014766,-0.0046149
0.0010357,0.0014526,0.0037801,-0.0079323,-0.0066887,-0.0085861,-0.02184,-0.0041776
0.0006933,0.0096215,-0.0039664,-0.0004201,0.0011836,0.0059498,0.0091675,-0.0032699
-0.0074391,-0.014133,-0.004298,-0.016336,-0.0068997,-0.0026692,0.00076447,0.0057564
0.0079849,0.000545,-0.012898,0.014696,0.00031824,-0.003082,-0.00012645,0.0070656
0.0079642,-0.00087921,0.0093154,0.0067844,-0.00055006,0.0047529,0.014379,0.00043682
-0.0074864,-0.0025395,-0.0078754,-0.00099618,-0.0016069,-0.0026394,0.0053044,-0.0065089
0.008474,-0.0041529,0.013807,-0.00085333,0.020692,0.013692,-0.011625,-0.0060858
-0.014542,0.0023648,0.0042325,-0.0084613,-0.011662,-0.0011036,-0.005049,0.0016678
0.0014922,0.0094093,-0.005169,-0.00044959,0.0029987,-0.00033091,-0.0060963,0.0011848
0.0017835,0.009276,0.0013828,0.0074867,-0.013358,-0.0075821,0.00098229,0.00041925
0.0018662,0.0097715,0.00056617,-0.00033584,0.0018357,-0.0073254,0.00067312,-0.0082456
0.0094921,-0.0048349,0.00026523,-0.00051391,0.0095523,0.00042873,0.0086766,0.0066495
-0.0066075,-0.019089,0.00051054,-0.00086256,0.0019807,-0.0076864,0.0015702,0.0062203
0.00047243,-0.0097441,-0.0065166,-0.0091633,-0.013104,-0.00029302,-0.012897,-0.0016099
-0.0082539,-0.00041095,-0.013044,0.0058933,0.0032876,0.01494,0.012002,0.0066169
-0.0014238,0.00096708,0.0042883,0.0053221,0.0041754,-0.00093369,-0.0020749,-0.008235
-0.0023453,0.017743,0.014113,-0.0029841,0.012876,0.006826,0.014929,0.00055905
0.0047271,-0.0048205,0.0006435,-0.0033321,-0.0019791,0.014759,-0.0075502,0.0015532
0.012068,0.011377,0.010557,0.0043221,-0.0092347,-0.016284,-0.0072036,-0.0054537
0.0040866,-0.0039923,-0.0032395,-0.0034467,-0.0089417,-0.0082984,-0.0075584,0.010622
-0.0036124,-0.0040563,-0.0097017,0.0045932,-0.001097,-0.00045696,-0.00076171,-0.0050043
-0.011099,-0.0044275,-0.0089917,0.0049619,-0.0012702,-0.0084513,0.005545,-0.0054686
-0.0028481,-0.0050678,-0.001197,-0.0023939,0.014068,0.0067794,-0.011803,-0.0063162
-0.010215,0.001903,-0.0019385,-0.0097111,-0.0096658,-0.0015769,0.0022036,0.0004175
0.029211,0.00095408,0.012317,0.0064142,0.013557,0.0056503,0.016623,0.014926
-0.0018171,6.7284e-06,0.010494,-0.0087167,-0.0021435,0.0051455,0.00043776,-0.0094723
-0.0095677,-0.00083344,0.00063111,-0.00040849,-0.0020595,-0.0029877,0.0084459,0.005504
-0.017456,0.014143,-0.024837,0.0079177,-0.0018314,-0.003064,-0.014067,-0.0025583
0.013638,-0.0097017,0.0046429,0.00064635,-0.0014959,0.0049205,-0.004758,0.0054075
-0.0021487,-0.002044,0.0033325,0.0012039,-0.001094,-0.0025215,0.0048733,-0.0019227
0.0055728,0.013655,-0.005195,0.0017388,-0.0084715,0.0057718,0.0067196,0.0065698
0.0056088,-0.0095286,0.025988,-0.005626,0.0076026,-0.0015524,-0.0073157,-0.0083339
-0.0098293,-0.016964,-0.0047153,0.010281,0.00024589,-0.0089608,0.0016057,9.5139e-05
0.013933,0.014726,-0.011483,-0.0052993,0.00070454,-0.0086993,-0.005707,-0.0073112
-0.009088,-0.00044628,-0.0022997,-0.013352,0.0011558,0.0070305,0.0019795,0.00064763
-0.0086443,-0.0078431,-0.00080483,0.0095559,0.0015763,0.014823,0.0013173,-0.0072712
-0.00043177,0.0081136,-0.0072012,0.00097062,0.0019288,-0.0086922,-0.0075234,0.0080433
0.0076738,0.0083121,0.0017686,4.7501e-05,0.0021683,-0.00092825,-0.00089423,0.0075947
0.007814,-0.0072975,0.018151,-0.00089929,-0.0055584,-0.00086047,0.013599,0.014882
-0.015661,0.00030545,-0.012831,-0.0017311,-0.00565,-0.00060679,-0.0029435,-0.016929
0.0075617,0.0076623,0.018164,-0.0023231,0.0018969,0.0076819,0.01207,-0.0018802
-0.00062263,-0.00083758,-0.006023,0.0052233,0.0014908,-0.015064,-0.003845,0.0053467
0.0067034,-0.025136,-0.022798,-0.010314,-0.0068084,0.0014142,-0.011677,-0.0030527
-0.001651,0.0051829,-0.00075752,0.013524,0.008325,0.010141,0.0041076,-0.0036192
-0.0099888,0.012126,0.013419,0.0063226,0.0079075,0.010988,-0.011281,-0.0041236
-0.0026069,0.0036464,0.012139,-0.00081417,0.0076349,-0.0040011,-0.0032433,-0.0045092
-0.0028674,-0.0045132,-0.012203,-0.00023297,-0.015876,-0.011511,0.012534,0.0030947
0.028355,0.003344,0.0030657,-0.015508,-0.015716,-0.0038068,0.012589,0.018731
-0.010464,0.0037886,-0.0044515,-0.0076592,0.0081246,0.0034728,-0.010885,-0.0044629
-0.0099386,-0.011051,-0.0034833,0.0076727,0.0087513,-0.0052346,-0.003172,0.0038032
-0.0013458,0.0055847,0.0058987,0.0071039,0.009552,0.0092614,0.0045271,-0.0033989
-0.0003718,-0.008961,9.5329e-05,-0.0014496,-0.012992,0.00025835,-0.011171,-0.018326
-0.0071131,0.015456,0.0023073,-0.0022373,0.0035141,-0.0086212,0.004474,0.0058286
0.017365,-0.0072565,-0.0033746,0.0048597,0.0042657,0.014037,0.0046286,-0.0013028
-0.0052139,0.0087283,0.006194,0.0043054,-0.003033,-0.01759,0.004939,0.0071211
0.010932,-0.014762,-0.00049374,-0.0038525,-0.0028361,0.013728,-0.0024106,0.0076497
-0.01246,0.0082369,0.0076363,-0.0039821,-0.0029889,0.0063968,-0.0018233,0.00028707
0.0026488,-0.0081092,-0.01635,0.0038937,0.0043443,-0.0084361,-0.0011599,-0.0071382
0.0093775,-0.0011411,-0.0020616,0.0041144,0.0036163,0.00032904,-0.016107,-0.0067913
-0.0078017,0.005891,-0.0039805,-0.011165,-0.0050548,-0.0065411,0.015771,0.0013506
-0.001811,-0.010273,0.0016361,-0.0028986,-0.0059079,0.0020426,0.0084762,-0.0061338
-0.027051,0.012998,-0.0083,0.0054756,-0.014444,0.002519,0.0010236,0.00982
0.018368,0.0054475,0.029041,0.0061561,0.016295,0.010444,-0.0066107,0.010134
-0.0058808,-0.0017057,-0.0032793,-0.0086624,0.023833,-0.01325,-0.0066088,0.0025877
0.00978,0.0070557,-0.0035712,7.0294e-05,0.000315,-0.0060093,-0.0067459,-0.0050457
0.010712,-0.015303,-0.0030992,0.0010585,-0.0074737,0.0088265,0.0086663,-0.0049871
0.0045995,0.0013554,-0.002008,0.0098428,-0.015267,-0.0076834,0.00064151,-0.012874
0.006774,0.002191,-0.00053998,0.0028682,-0.0075289,0.0070801,0.00049894,-0.0052549
0.0012138,-0.0129,0.0010111,-0.0043733,7.2645e-05,0.0063357,0.00046913,0.017908
-0.012497,0.010729,0.0023501,-0.0041912,0.015368,0.0057629,0.00055455,0.0019755
-0.019074,-0.0050294,-0.012399,-0.012293,-0.016264,-0.010251,0.00071297,-0.0061399
-0.010895,0.0023822,0.01128,0.018179,0.0068311,-0.0026666,0.0086776,0.0092018
0.012035,0.0096044,-0.012629,-0.0064694,0.0066072,0.0050384,-0.0068994,-0.0067031
0.010833,0.0010884,0.017463,-0.00016829,-0.0012711,-0.010618,-0.0070477,0.0086033
0.001429,0.00033396,0.00011029,-0.009608,0.014429,0.005015,0.0081716,-0.0074323
-0.015818,-0.0082383,-0.0098104,0.0044822,-0.0088645,-0.0027708,-0.0081287,-0.0001671
0.0062957,-0.0089683,-0.0042483,0.0032326,-0.0009409,-0.0027366,-0.0012177,-0.008681
0.021119,0.013803,0.0092418,0.002409,-0.0009641,0.020737,-0.0022521,0.0061104
-0.0025141,-0.0023823,-0.00034197,0.0020722,-0.016811,-0.010481,0.0045173,-0.0026054
0.013457,0.0050308,-0.0015392,0.0021929,0.014014,-0.0026503,0.0035972,0.01214
-0.024895,-0.0029559,-0.0020136,0.0026607,-0.0021741,0.0051548,0.010727,-0.012047
-0.00062117,-0.018467,-0.0016956,-0.0045006,-0.010568,-0.010511,-0.0052615,0.0030552
-0.0077026,0.0054182,-0.00060311,0.0039693,-0.0032095,-0.0027737,-0.0052697,-0.0049882
0.00056155,0.006204,0.0089725,-0.011141,0.020036,0.012754,-0.0049268,0.002903
0.00064843,-0.00053618,-0.0043956,-0.003043,0.0045683,0.0048437,-0.0042733,0.003255
0.00037808,0.01633,0.0059416,0.0048196,0.0050983,-0.018664,0.012247,0.011608
0.0076447,0.0019425,-0.0071347,-0.0031072,-0.0096722,0.0047575,-0.0023301,0.0044108
0.006948,-0.004839,0.010837,0.0045527,-0.0085955,0.0048184,-0.0090448,-0.010641
-0.0015775,-0.012016,-0.018447,-0.011116,0.00038492,-0.0028476,0.007618,-0.018011
-0.0021887,-0.0040967,0.0064694,0.020328,-0.0062999,0.013005,0.00067585,-0.0021118
0.0052021,0.0032544,-0.00038158,0.0052135,0.010302,-0.0023289,0.0090979,0.013637
-0.018415,-0.0055208,-0.0077121,-0.017387,-0.0045764,-0.009808,0.0015696,-0.0019494
0.012916,0.0088067,0.00018564,0.0071525,0.0037068,-0.0094527,-0.014119,0.0059072
-0.010187,-0.00040332,0.015597,0.00058433,-0.0039308,0.0065379,-0.0066883,-0.0017723
-0.0018211,-0.0094563,-0.00045462,-0.0059982,0.011572,0.0069121,0.0005026,-0.0014987
0.014518,0.013127,-0.0010395,-0.0049478,-0.0044617,-0.00051148,0.0075693,0.0067317
-0.0081268,0.0050059,0.0060509,0.0035886,-0.0051353,-9.9103e-05,-0.00098474,-0.008378
0.0082716,-0.010326,-0.010436,0.003879,0.0017722,0.00034364,-0.0016086,0.0077736
0.0011059,-0.00167,-0.0036302,0.0036835,0.00068648,0.00081843,0.005772,-0.0074183
-0.0062844,0.015202,0.0030404,0.0030128,-0.00050888,0.0013202,0.013366,0.00063702
0.0016544,-0.0067978,-0.0060062,0.0019427,-0.0017221,-0.013789,-0.010105,0.00062546
-0.006355,-0.0054039,-0.0072554,-0.015017,0.0049665,0.0023435,-0.0022065,0.00034698
-0.0068493,0.0035455,0.022835,-0.0086262,-0.0037685,0.0028091,-0.0098891,0.0076613
0.015874,-0.0035409,-0.0015571,0.013501,-0.0043891,0.010999,0.0058454,-0.0085789
-0.0083778,-0.011111,-0.010013,-0.003137,-0.0046374,0.0034191,-0.0019137,-0.0091705
0.0064714,0.0042858,0.0053576,0.0040967,0.0033215,-0.012174,-0.0019186,-0.0017756
-0.0019406,0.0036681,-0.0022838,0.0040161,0.011638,0.01105,-0.0019582,0.0059196
-0.002251,0.0027855,-0.009516,0.0044093,0.0045901,-0.0050484,0.0058142,0.013985
0.0056092,0.0095868,0.0070265,-0.0026451,-0.0023406,-0.013567,0.0058014,0.0067852
-0.0095972,0.00075696,-0.007468,-0.0016926,-0.0015038,-0.0066222,0.0058247,-0.015771
-0.0010431,-0.0079848,0.009335,-0.016369,-0.0086706,0.015894,-0.0097551,0.00084312
0.0077282,-0.00095009,0.026001,0.015642,-0.00050029,0.0072323,0.0059057,0.0017444
0.00094019,-0.0015372,-0.012331,0.0004539,-0.0004557,-0.001235,-0.0097294,0.0023679
0.0096661,-0.0019095,-0.019852,0.0005073,-0.0084866,-0.0015996,-0.0098142,-0.0052417
-0.013144,0.0057617,0.0033867,-0.0076062,0.0067678,-0.009431,0.013451,0.0022891
-0.0051354,-0.0097641,-0.012889,-0.00033641,0.0063861,0.006529,-0.0024255,0.0015527
0.0023574,-0.0016143,-0.0060566,-0.00094589,-0.001684,-0.00063246,-0.0027352,-0.015144
0.017138,0.014563,0.031875,0.014205,0.0060914,0.00025648,0.020366,0.0070691
-0.015406,-0.0003476,-0.0082777,-0.025012,-0.0015011,0.0012755,-0.011211,-0.0019101
-0.009187,-0.015182,-0.0013537,0.0065289,-0.0010514,-0.0055133,-0.011496,-0.0028302
0.0047471,0.016822,0.0058695,0.0072913,-0.00045168,-0.004615,0.0039148,0.027876
0.0031807,0.0017854,0.0056003,0.0084393,0.00018955,0.011662,-0.0040185,-0.0034934
0.0097547,-0.013534,-0.017835,0.017593,-0.0070498,0.0041575,0.0037794,-0.011041
-0.0066302,0.0020321,0.0057816,-0.020198,0.0011818,-0.0037519,0.0038708,-0.0026841
0.00097562,0.01721,0.013842,-0.0036529,0.0014006,-0.004265,0.011868,-0.0019973
0.0013128,-0.022635,-0.024993,-0.0033184,-0.0063963,0.0026648,-0.0035006,-0.0013019
0.0021096,0.0076278,0.0064135,0.0041124,0.0090751,-0.0062947,-0.011006,-0.00069729
0.011042,-0.0011862,0.0064953,-0.012603,0.0088081,0.00026097,-0.00285,-0.00023333
-0.018925,-0.017605,-0.0090883,0.0091871,-0.01495,-0.00092327,-0.0024688,8.8931e-05
-0.0098153,0.02108,-0.0012245,-0.0083742,0.00035,-0.0018541,0.0057738,0.00030305
-0.00081316,-0.0021701,0.0066892,0.013172,4.5623e-05,0.0054271,-0.0015475,0.00045524
0.015817,0.006445,0.0068461,-0.0039648,0.0075753,0.0053786,-0.00099714,0.0083948
0.016601,-0.0078315,-0.00079264,-0.0048296,0.0072947,0.0058152,-0.00041752,0.00069642
-0.021898,0.0016907,0.0071322,0.010729,-0.00082327,-0.0089671,0.015753,0.00078039
0.0097184,0.019114,-0.00072386,0.0036552,-0.0011714,-5.1828e-05,0.00054953,-0.0070176
-0.013515,-0.010558,-0.001001,0.0050616,-0.017182,0.0011261,-0.0070642,0.00069324
0.0021892,-0.0094917,-0.017164,-0.016552,-0.0097581,-0.0056235,-0.0071668,-0.0073741
0.0021702,-0.0091499,-0.010108,0.0010003,0.0055315,0.0029731,-0.0076013,1.7174e-05
0.0020625,-0.0018193,0.0046579,0.0027149,0.013122,0.003366,0.015107,0.0072591
0.0018541,0.0047178,0.0038588,-0.0038566,0.0052407,-0.012306,-0.0092432,0.0065854
0.0093275,0.0027971,0.011106,0.012375,0.013141,0.010658,0.0054562,-0.0019361
-0.0068026,0.0082783,0.010918,-0.0033117,-0.010093,-0.0057956,-0.0030925,-0.010415
0.0003165,0.0058158,0.011185,-0.019578,-0.0098453,0.00093664,-0.011259,-0.0031515
-0.00055375,-0.01212,-0.034965,-0.0049824,-0.0018201,0.007541,0.012348,0.0042882
-0.0015417,0.0094125,0.013021,0.017287,-0.0095177,0.014143,-0.0025338,0.011936
-0.010351,0.0081139,-0.0012276,0.0084214,0.013913,-0.018205,0.0065365,-0.0036454
-0.0034006,-0.031506,-0.0075502,-0.00012378,0.0059981,-0.0034646,0.0081401,0.0043853
0.0038334,0.0078026,0.0017122,-0.00041555,-0.0019431,-0.0040561,0.0020259,-0.010905
0.0036533,0.0010204,-0.012643,-0.0080608,-0.0098087,-0.0043012,-0.0042792,-0.010528
0.011728,0.0027351,0.027393,0.00030073,-0.0018646,0.011443,-0.011036,0.013253
-0.0032405,0.012769,0.012369,0.0088983,-0.0014589,0.0040911,-0.010616,0.0056843
0.013294,0.0074393,-0.018692,-0.0058822,-0.000737,0.004821,0.004729,-0.0098497
-0.009188,-0.0057227,-0.0032723,0.010481,0.015901,-0.0021034,0.0038083,0.0056842
-0.0084123,-0.011378,-0.0038016,-0.020259,0.0092931,-0.0011934,0.0024158,-0.0024052
-0.00019555,-0.017584,-0.020158,-0.0044089,-0.012909,-0.016024,-0.0070237,0.0049704
-0.0080835,0.022362,0.02594,0.0033522,0.0037887,0.0079771,0.0069947,0.0044293
0.0069903,0.0068261,0.0018409,0.0030826,-0.011116,0.0082428,0.013444,-0.011759
-0.0017303,-0.017285,-0.0063802,0.010488,-0.0030778,0.00038635,-0.0031444,-0.0044313
-0.0027857,0.0048471,0.0091722,0.0022059,0.0043998,-0.0077333,-0.0036393,-0.0047379
0.0040792,-0.0047014,-0.0061749,0.0095347,-0.0042847,-0.0082105,-0.011491,0.0030277
-0.0043276,0.0090006,0.010023,-0.014384,0.010038,0.006886,0.0044697,0.011094
0.011238,-0.00067291,-0.012658,-0.0070596,-0.0071508,-0.0013897,-0.002751,0.011636
0.0039807,0.0055634,-0.0040492,0.00024135,0.0068449,0.013925,0.013588,-0.003224
0.0051058,0.0044434,0.012264,0.0075093,-0.0024726,-0.0096327,-0.0091356,-0.0023381
-0.024608,-0.019553,-0.018533,-0.00087007,-0.0037022,-0.0095853,-0.0085191,-0.0092535
0.0083416,0.003916,0.012848,-0.0014255,0.0032473,0.021806,0.0075649,-0.00061861
0.0021023,-0.0033168,0.0048058,-0.0097313,0.0027724,-0.0015026,0.0078432,8.9724e-05
0.0032661,0.005512,-0.0035793,0.0055169,-0.0051702,-0.0014874,-0.0076755,-0.0071146
0.011609,0.0067968,0.0033826,0.0052991,0.010579,-0.0094656,0.00010269,-0.014365
-0.012058,0.00033212,-0.0054539,0.0052575,0.0030326,-0.0098151,-2.9932e-05,0.017463
-0.0052352,0.0015267,-0.0065229,-0.002436,-0.012288,0.0053467,-0.008031,0.018098
-0.01467,0.0023734,0.00030817,-0.0022008,-0.0042045,0.0049023,0.007383,-0.0046606
0.0067456,-0.0050797,-0.00047176,0.0059003,-0.0039911,-0.018799,0.014983,0.003801
0.012437,-0.013079,0.014649,-0.0094463,-0.0038142,0.020326,-0.008658,-0.0035108
-0.0050984,0.0018468,-0.0011833,-0.001415,0.012003,-0.002637,-0.001034,-0.0032889
0.016905,-0.0070603,-0.0089445,-0.0012802,0.0044567,0.0060528,-0.0090065,-0.0034458
-0.0073125,0.0072515,0.0069047,-0.0090403,0.0048396,0.0072218,-0.0012978,-0.011827
-0.0073703,0.021543,-0.00062398,0.0065752,0.0053501,0.00067578,0.006511,0.0028682
0.0010624,0.0047494,0.0074174,0.022158,-0.0096603,0.0018071,-0.0011514,-0.0061068
0.0022234,-0.027366,-0.023748,-0.0013259,-0.0089922,-0.013036,-0.0007983,0.0082969
-0.011899,0.0034008,0.0073982,-0.0091656,-0.008335,-0.012743,-0.00021489,0.0071922
0.02097,0.0033174,-0.00070135,-0.0091519,5.784e-05,-0.012974,0.00058893,-0.001477
-0.008755,0.0035966,0.0066912,-0.0012604,0.023941,0.017603,0.0093695,0.013595
-0.0074929,0.004163,-0.0015964,-0.0010875,0.0007679,0.0088438,-0.0052246,-0.0023098
0.0012161,-0.0028914,0.0057696,0.0070203,-0.00699,2.6632e-05,-0.0042652,-0.010228
0.0095311,-0.0020389,-0.0023908,-0.0081708,-0.0071554,0.0069818,0.0042889,-0.0024829
-0.0059435,-0.016801,-0.0025977,0.0080177,0.00028436,-0.0092007,-0.0031314,-0.0026384
-0.00605,0.023071,-0.0026536,0.00085416,-0.0080725,-0.0015747,0.004633,0.0048502
0.0015222,-0.0074617,-0.0025783,0.0093212,0.0068913,0.0064055,-0.0036978,-0.003463
0.0012692,-0.006859,0.013214,0.0020658,0.013991,0.006835,-0.0046446,-0.0040729
0.0089072,0.0092434,-0.0021987,-0.013203,-0.010146,-0.016051,0.0019032,0.0031481
-0.006772,0.0017756,-0.0019779,0.0025008,0.0048492,9.0991e-05,0.00048471,0.0027297
0.0089052,-0.0058326,-0.0017664,-0.0055344,-0.011294,0.00043673,-0.00089666,-0.0051874
-0.0066229,0.0098481,-0.017181,-0.0060204,0.0039487,0.00051455,-0.0020557,0.0029208
0.0090553,-0.013685,-0.0013182,0.0011391,0.0037102,0.0080956,0.004968,0.011433
-0.0066473,0.0095127,0.022424,0.0082645,0.0036097,-0.00024231,0.004635,-0.0031792
-0.0069143,0.0013425,0.0072004,-0.00013124,-0.0041816,-0.0088098,0.0047686,-0.0020263
-0.0073821,-0.014713,-0.0079177,0.0073122,-0.0040617,-0.0018831,-0.010317,-0.00095857
-0.0001984,0.0004681,0.00048388,-0.00059786,-0.0038683,0.0050276,0.0061338,-0.00020874
0.0069053,0.0078923,-0.014524,-0.00043054,0.0041862,0.0042222,-0.0085298,3.1881e-05
0.01403,0.0076219,0.001669,-0.0078776,0.012268,0.0036068,0.0002204,-0.0081571
-0.0021635,0.0075152,0.0020953,0.00038805,0.0047377,-0.0045667,-0.0068221,0.0064765
-0.0025399,-0.015844,0.010099,-0.0070135,-0.026223,-0.0046427,0.0092917,-0.0028241
-0.010497,-0.015588,-0.0056525,0.016669,0.013141,0.0033765,0.0016114,-0.0045919
0.0052209,0.016062,0.0094726,-0.0067843,-0.0021549,-0.0039777,0.0091656,0.0092651
0.0055245,0.0087407,-0.0070391,0.00070537,-0.0095926,0.0044903,-0.0071012,-0.0078355
-0.0096324,0.001442,0.0073568,-0.0077254,0.0064648,-0.010354,-0.0080796,-0.00095336
-0.0012468,-0.0059046,-0.0097293,0.014871,0.014762,0.013904,0.0063136,0.0066401
0.0071782,-0.0055492,-0.0034376,-0.0095032,-0.0081656,-0.000951,-0.0028713,0.0071812
-4.8766e-05,-0.0053493,-0.0048043,-0.002561,0.00012946,-0.00031682,-0.0042533,0.00059219
-0.0073664,0.0024856,-0.013612,0.0046206,0.00051967,0.00010926,0.0023013,-0.0055028
0.016419,0.010143,0.017189,-0.019058,-0.0070595,-0.0075313,0.0012865,0.0042584
-0.0068612,-0.0057988,0.0095568,0.012436,0.0085955,0.00018736,0.0084161,-0.009474
-0.0069193,0.0015599,0.0025167,0.013177,-0.007217,-0.00014626,0.00030132,-8.5413e-05
0.00061879,0.00099427,0.01153,-0.0012925,0.00021563,0.0071533,-0.0074258,0.00098427
0.00015232,0.0081519,0.0050876,0.00010599,-0.00029343,-0.0012658,0.0086427,-0.0063574
-0.00045917,-0.01601,-0.024926,0.0015157,0.0069708,-0.0018689,-0.014049,0.0091516
0.0066591,-0.0011594,-0.0084721,-0.0051239,-0.0091425,-0.0023747,0.0025522,0.00074006
