-0.079035,0.17588,0.18314,-0.20578,-0.048975,-0.047853,-0.0072517,-0.017104
-0.12277,-0.39025,-0.38678,-0.030392,0.011915,-0.01518,-0.07114,-0.1123
0.066554,0.063853,0.1653,0.16442,0.025121,-0.03824,0.019814,0.057879
-0.081483,-0.0083977,0.10494,0.12905,-0.00091286,0.00036653,-0.022854,-0.045347
0.13631,0.33887,0.065324,-0.26838,0.043838,0.077573,0.051551,0.062725
0.056093,-0.073359,0.039331,0.2703,0.0036361,-0.040559,0.0092872,0.038634
-0.16561,-0.15064,-0.073614,0.027699,-0.12124,-0.072371,0.014857,-0.0080823
0.11994,0.029529,-0.26451,-0.36992,0.05199,0.091801,-0.033138,-0.030554
0.061477,-0.079204,0.19449,0.33622,0.14805,0.04582,0.052689,0.056987
-0.16101,0.21893,0.13265,-0.048574,-0.060106,0.016182,0.029829,-0.08949
0.023088,-0.3257,-0.42581,-0.20378,-0.11992,-0.15358,-0.094317,0.037505
-0.026548,0.099633,0.21453,0.15163,-0.00066731,0.020614,-0.054506,-0.062324
-0.03622,0.096573,0.060759,-0.15482,0.016047,0.022821,0.016196,0.0014255
0.19737,0.11812,0.2128,0.25095,0.14882,0.094959,0.07864,0.11143
-0.013231,0.031162,0.28556,0.1647,-0.047578,-0.005347,0.015696,-0.0057746
-0.082201,-0.31311,-0.66881,-0.36003,-0.10413,-0.082876,-0.024044,-0.014212
-0.08007,0.1553,0.12098,-0.074187,-0.059527,-0.051688,-0.024778,-0.069985
0.14132,0.22529,0.21622,0.23256,0.12569,0.064857,0.013636,0.045889
-0.15269,-0.51713,-0.37515,-0.14309,-0.016932,-0.0065684,-0.041545,-0.080354
0.10017,0.25642,0.20773,0.11946,-0.057604,-0.00023467,0.028411,0.051609
-0.045589,-0.12563,-0.3216,-0.22917,0.13639,0.083934,0.074975,0.02018
0.050508,0.21193,0.43851,0.28838,0.017933,0.0038076,-0.019166,0.052085
0.021138,0.065886,0.053696,-0.022312,-0.030438,-0.060843,-0.066616,-0.04017
-0.040097,0.11556,0.073382,-0.027626,-0.032285,-0.016101,0.026351,-0.014565
-0.070864,-0.069342,0.0538,-0.023737,-0.12809,-0.025751,-0.060485,-0.035476
0.045854,-0.53633,-0.75464,-0.22103,-0.067385,-0.097228,0.032461,0.029517
0.13022,0.31569,0.33488,0.16213,0.15051,0.12142,0.04766,0.031566
-0.13033,-0.068183,0.46139,0.31341,0.018494,0.021078,-0.014602,-0.0062342
0.092359,0.3825,-0.2758,-0.47041,-0.0020154,0.031476,-0.0056733,-0.0059792
-0.15463,-0.34753,-0.17624,-0.072615,-0.012549,-0.01173,-0.0036037,-0.045848
0.058766,0.10162,0.030767,0.31844,0.080128,0.00026605,0.0071383,0.014903
0.014303,-0.003876,0.20984,-0.064127,0.001566,-0.019232,0.010665,0.01248
0.032878,-0.11661,-0.094194,0.24692,-0.038599,-0.031941,-0.032487,0.0097412
0.00567,0.33422,0.15644,-0.070257,-0.04166,0.00057906,-0.021237,-0.0085685
-0.074693,-0.27597,-0.1011,-0.21995,0.030477,0.046754,0.08298,-0.0030756
0.065474,0.0062831,-0.25672,-0.046377,-0.11165,-0.065246,-0.064026,-0.004836
0.019948,-0.045343,0.16005,0.11495,0.055662,-0.0068986,0.060868,0.056518
-0.031774,0.022332,-0.05928,-0.30494,-0.037032,0.011508,-0.081534,-0.030018
-0.019741,0.084114,-0.060311,0.094388,0.017775,0.0063484,0.0088484,-0.022406
0.039953,0.16292,0.22221,0.19796,0.12768,0.095494,0.097943,0.024506
-0.048511,-0.35148,0.24366,0.3046,-0.073386,-0.072135,-0.11063,-0.03003
-0.0043649,0.13351,-0.35386,-0.092233,0.016828,0.019297,0.032182,-0.014183
0.023532,0.28068,0.094293,-0.38275,-0.023433,0.010357,0.019252,0.017392
0.0035943,-0.38771,-0.35747,-0.036087,0.016366,-0.044534,-0.031608,-0.021165
0.044947,0.22122,0.28989,0.30608,0.08858,0.033939,0.028524,0.049903
-0.063503,-0.056901,0.27715,-0.052942,-0.13583,-0.067093,-0.011017,0.0040491
-0.0015038,-0.12015,-0.26453,-0.044316,-0.0092335,0.02708,-0.0017853,-0.025984
0.051302,0.095024,-0.12588,-0.15371,0.030383,0.011612,0.032538,0.037785
-0.006492,0.074634,0.24636,0.22731,0.037648,0.050551,-0.002251,-0.023578
-0.1043,-0.24188,-0.26604,-0.042378,-0.065185,-0.035678,-0.0051665,-0.053988
0.13324,0.17864,0.078504,-0.21281,-0.011776,0.0031413,-0.039304,0.048031
-0.012171,0.017443,0.19393,0.23978,0.073741,0.003232,0.012006,0.02469
-0.09474,0.0019641,-0.15387,-0.10588,-0.018771,-0.035095,-0.015661,-0.045741
-0.020258,-0.0083928,0.16064,0.14935,0.047144,0.036882,0.010327,-0.014588
0.1101,0.024595,-0.18997,-0.12669,-0.11905,-0.054082,0.011839,0.0090435
0.023143,-0.002207,-0.072203,-0.18349,0.021288,0.012363,0.043693,0.033204
-0.070077,-0.13771,0.084792,0.28389,0.12352,0.025099,-0.042339,0.0033403
0.072566,0.17062,0.039074,-0.08392,-0.024509,0.038401,-0.0038355,0.020999
-0.11943,-0.1104,0.0014516,0.095664,-0.0022788,-0.010851,-0.028084,-0.054619
0.002064,0.06475,0.12768,-0.13085,-0.053175,0.0094194,0.010071,-0.0050747
0.046056,-0.023304,-0.067351,0.095551,-0.029565,-0.042126,0.056021,0.028619
0.035548,-0.053982,-0.029708,-0.13165,-0.0097988,0.013663,-0.007411,0.014819
0.040389,0.12224,0.083879,-0.09372,0.014361,0.0046951,-0.016201,0.015702
-0.064894,-0.17257,-0.24218,0.27985,0.043924,-0.021974,-0.0094519,-0.039228
-0.04636,0.1106,0.024027,-0.18237,-0.013443,0.012361,0.020645,-0.0093504
0.025318,-0.11986,0.016564,0.18422,-0.038985,-0.063284,-0.066472,-0.027297
0.017089,0.16911,0.11983,-0.13545,0.0078017,0.033367,0.018392,0.0088167
-0.00082963,-0.052571,0.069791,-0.015894,0.049858,0.0063986,0.0097785,0.029074
0.04194,-0.01115,-0.13238,-0.027189,0.025207,0.028365,0.025019,0.026038
0.0050076,0.066254,-0.079932,-0.067814,-0.019366,0.091709,0.025118,0.023433
-0.079976,-0.016971,0.086104,0.16652,-0.037633,-0.061605,-0.013408,-0.048904
0.0062889,-0.036038,0.16136,0.050054,0.024036,-0.049411,-0.028223,-0.0034517
0.014465,-0.055354,0.057977,0.027103,-0.015303,-0.021073,-0.019578,-0.0043536
0.023382,0.06402,-0.16373,-0.12218,0.0071944,0.030206,0.074754,0.0029523
0.025897,-0.061911,-0.14642,-0.078419,-0.01101,0.0019593,-0.065775,0.010532
-0.032139,0.12885,0.084957,0.13436,0.023255,0.049806,0.035265,0.010496
-0.041021,-0.19163,-0.017099,-0.038617,-0.01513,-0.014003,-0.012746,-0.020615
0.030566,0.079023,-0.046065,-0.19066,-0.055533,-0.11118,-0.03778,0.010986
-0.012914,-0.034556,0.13196,0.07751,0.0042605,0.063489,0.030738,-0.035262
0.062418,0.1252,-0.020468,0.16536,0.063507,-0.012636,-0.01781,0.01257
0.0058585,-0.049919,-0.0014874,0.058282,-0.01762,0.005077,0.02,0.029485
-0.058399,-0.0044134,0.057833,-0.11016,0.050559,0.070564,-0.0040632,-0.0080388
0.009496,-0.11294,-0.19267,0.05111,0.010555,-0.034336,0.066323,0.024827
-0.0019996,0.2572,0.26354,-0.15314,-0.11419,0.0031678,-0.073592,-0.020595
0.016156,-0.035082,-0.25289,-0.08246,0.035434,0.026797,0.044773,-0.0039352
0.0014566,-0.11544,0.16415,0.24718,0.083961,-0.057486,-0.024101,0.019915
-0.084852,-0.15639,0.11562,0.21037,-0.03163,-0.023582,-0.05384,-0.050704
0.062462,0.013387,-0.33683,-0.38854,-0.10089,0.02641,0.03356,0.0030067
0.0065527,0.049784,-0.014547,-0.0029156,0.055523,-0.0095976,0.01149,0.0093559
0.013664,0.28069,0.24544,-0.070366,-0.046954,0.016383,-0.026292,0.0076889
0.013936,-0.083129,0.082727,0.19814,0.12293,0.049332,0.045229,0.029569
-0.0080649,-0.073028,-0.089554,0.068185,0.010664,-0.020316,-0.00052872,-0.0028545
-0.0055602,-0.025034,0.048195,-0.01507,-0.078789,-0.012901,0.0082301,-0.019099
-0.017975,-0.197,-0.37947,-0.1066,-0.066931,-0.045476,-0.030199,-0.026944
-0.022432,0.16891,0.29919,0.097868,0.062266,-0.00057677,-0.014434,0.020372
-0.0039647,0.0023861,-0.048521,-0.14426,0.027929,0.044042,0.016286,-0.0023933
0.060216,0.0065328,-0.031654,0.018243,0.0022287,-0.020606,0.014957,0.045057
0.0055204,0.056229,0.15489,0.10089,-0.045919,-0.006692,-0.026283,-0.025122
-0.012106,0.12003,0.034968,-0.0055336,0.039741,0.054728,0.025437,-0.010091
-0.0082813,-0.23193,-0.26595,-0.18342,-0.037807,-0.070693,-0.0015821,0.011872
-0.013897,0.094091,0.17454,0.31013,0.049309,0.077847,-0.028936,-0.029504
-0.02825,-0.057889,0.0055703,-0.20367,0.027363,-0.015515,0.029677,-0.0011573
-0.0035053,-0.070011,-0.13914,0.033997,-0.017954,-0.007295,-0.012838,0.0035903
0.022341,0.14471,0.21812,0.055381,0.0069806,0.0007456,0.007978,0.0087125
-0.043485,-0.11556,-0.34321,-0.17775,-0.22594,-0.16334,-0.048169,-0.0086905
0.057513,0.15837,0.4594,0.1632,0.15845,0.14897,0.045491,0.022123
0.03651,-0.094823,-0.30267,-0.085829,0.066618,0.031627,0.015571,0.0076313
0.018227,-0.038442,-0.12108,0.035416,0.014347,0.00050278,0.018189,-0.0053189
-0.013717,0.0073584,0.082003,-0.044728,-0.045203,-0.045745,-0.025075,-0.0013908
-0.091665,-0.020478,0.06311,0.22646,-0.010639,-0.060133,-0.059955,-0.027964
0.06441,0.16584,0.093331,-0.29401,-0.030748,0.066669,0.045871,0.023698
-0.030996,-0.091764,0.1304,0.24305,0.081492,0.021943,0.0028421,0.004489
-0.0037218,-0.037655,-0.024625,0.13253,-0.049426,-0.0071706,-0.0019852,-0.00024106
0.020811,0.13072,-0.10168,-0.32982,-0.033303,0.010144,0.023242,-0.014343
0.034835,-0.018061,-0.032886,-0.034587,0.098358,0.018789,0.031468,0.024513
-0.086174,-0.22718,-0.19406,-0.035129,-0.13883,-0.059639,-0.07887,-0.055446
0.017959,0.15954,0.17367,0.10071,0.10692,-0.0064499,-0.018521,0.027384
0.035696,-0.13824,-0.29395,-0.076983,-0.085782,-0.024572,0.01755,0.0079269
-0.0085704,0.013932,0.29797,0.33367,0.088349,0.027041,0.037604,0.0040157
0.003125,0.18065,0.040221,-0.047081,-0.041895,0.0083244,0.0030471,0.00066118
0.032207,-0.089112,-0.10175,-0.3029,-0.038408,0.021411,-0.0154,-0.017241
-0.014929,-0.02805,0.04729,0.059521,0.1149,0.027697,0.021613,0.013134
-0.02909,0.052359,-0.16729,0.0088742,-0.11297,-0.050689,-0.018594,0.013748
0.028362,0.12109,0.49637,0.23927,0.074912,0.036261,0.004594,6.8894e-05
-0.015007,-0.13484,-0.12785,-0.048208,-0.0091316,-0.024169,-0.026141,-0.02045
0.019923,0.21326,0.03496,0.026719,-0.037288,0.0098242,0.029626,0.029825
-0.047012,-0.42955,-0.50325,-0.35882,0.02129,-0.010658,0.0076095,-0.037136
0.002616,0.0684,-0.011456,0.11329,-0.060392,-0.039191,-0.04552,0.012554
-0.0032261,0.21405,0.33601,0.058686,0.045381,0.041048,0.026326,-0.0011546
0.044813,-0.17285,-0.20437,0.12501,0.064811,0.042328,0.019917,-0.00033998
-0.017282,0.2043,0.32813,-0.0081032,-0.080517,-0.074491,-0.033549,-0.0006536
-0.033206,-0.084259,-0.14393,-0.090155,0.03106,0.034414,0.014352,-0.017593
0.067369,0.00061079,-0.10375,-0.065585,-0.0068341,-0.0057596,-0.00043436,0.027208
-0.012474,0.021577,0.0047407,0.019729,0.0010828,0.016206,0.0080437,0.009046
-0.030615,-0.0054537,0.14373,0.11201,0.00018801,-0.01656,-0.022704,-0.024895
0.028529,-0.01757,0.032926,-0.038073,-0.040612,-0.033447,0.055765,0.027223
0.00094322,-0.10797,-0.18648,-0.016132,0.058603,0.051718,-0.037794,-0.0062536
-0.02724,-0.002581,0.0013172,0.10755,0.032502,0.012509,0.0013252,-0.0236
-0.055665,0.14301,0.096157,-0.050026,-0.079529,-0.033862,-0.037781,0.0065346
0.064593,-0.037865,-0.035131,-0.075011,-0.0037221,-0.009358,0.016814,-0.0017378
-0.025298,0.048868,0.060136,-0.076892,0.025847,0.023346,0.024537,0.0062731
0.011088,-0.073339,-0.032496,0.022556,0.017228,-0.0062878,0.0010475,-0.00072135
0.010023,0.048365,0.092991,0.20802,0.025244,0.034319,0.024473,0.02408
0.07317,-0.031835,-0.2509,-0.24661,-0.07509,-0.050352,-0.038032,-0.013174
-0.088682,-0.048947,0.045428,0.13567,0.028603,-0.026075,-0.0068366,-0.026661
0.031908,0.058883,0.19331,0.0035675,0.023572,0.044567,0.02425,0.022558
0.020371,0.064533,-0.18966,-0.11165,-0.012412,-0.0025123,-0.015129,-0.014073
-0.10041,-0.18866,0.084285,0.23501,0.013983,-0.01104,-0.01561,0.0039508
0.059703,0.15066,0.046416,-0.17584,-0.061724,0.026847,0.015016,-0.001616
-0.0074999,-0.034772,0.024547,0.053436,0.080419,0.001843,0.022115,0.015975
0.010242,-0.018296,-0.036593,-0.054567,-0.0051309,-0.0078292,-0.017682,-0.0059059
0.019081,-0.026322,-0.1221,-0.10208,-0.044982,-0.025471,-0.010545,0.010746
-0.0043863,0.089768,0.21269,0.31683,0.062593,0.035041,0.027977,-0.0044686
-0.028768,0.0020167,-0.063886,-0.20397,-0.11172,-0.052621,-0.019231,-0.020331
0.063356,-0.070688,-0.12367,0.078372,0.049792,0.0086747,-0.01148,0.025706
-0.048025,0.043642,0.10416,-0.061605,-0.030417,0.008226,0.020031,-0.030285
-0.04226,-0.053329,-0.19981,-0.15373,0.085663,0.047756,-0.002788,-0.0006017
0.0028598,-0.080247,0.059288,0.084715,-0.046959,-0.028951,-0.0096204,0.005621
0.048554,0.13487,0.21845,0.029904,-0.037611,-0.018885,-0.0083099,0.012048
0.0090616,0.068684,-0.13566,0.018343,0.12908,0.062064,0.01669,0.0032206
-0.021831,-0.10679,0.12214,0.15913,-0.039585,-0.075544,0.010561,0.010459
0.057338,0.093,-0.071088,-0.08016,-0.08331,0.0053566,-0.026867,-0.013148
-0.02708,-0.058251,-0.067815,-0.045155,0.067564,0.046534,0.01358,0.010393
-0.072218,-0.11487,0.11513,0.1369,-0.064033,-0.014849,0.0067052,-0.020662
0.046684,0.0016939,-0.10935,-0.25487,-0.0018087,0.008512,0.046104,0.018496
-0.014301,0.11217,0.070361,0.12175,0.051126,-0.03965,-0.094868,-0.012906
-0.0052646,-0.025374,-0.072629,-0.11665,-0.061207,0.012711,0.036934,-0.013377
0.01909,0.034377,0.047889,0.077309,0.091341,0.02531,0.0041378,0.017094
0.0041049,-0.021441,-0.082878,0.056731,-0.029744,-0.024843,-0.013361,-0.015153
0.0045111,0.048648,-0.018422,-0.0042118,-0.025486,-0.012264,0.01594,0.022828
0.02034,-0.045393,0.10191,-0.056001,-0.028253,-0.014649,-0.017095,-0.0094439
-0.018709,0.023489,0.021366,-0.057073,0.087252,0.069863,0.028331,0.013151
-0.026696,-0.097251,-0.032922,0.017897,-0.069476,-0.032052,-0.019578,-0.018696
0.0041938,0.029177,0.11089,0.083871,0.024956,0.023283,0.026647,0.0043984
-0.019778,0.0040177,-0.18846,0.023373,0.026611,0.016892,0.002837,0.0042585
0.049851,0.13991,0.16172,0.038075,-0.01791,-0.028089,-0.005213,0.0042342
0.0021732,-0.12509,-0.074224,0.086563,-0.046428,-0.049457,-0.036685,0.004224
-0.045595,-0.086932,-0.092746,-0.12303,-0.043629,-0.02399,-0.0056946,-0.02711
0.062823,0.22426,0.20692,-0.13248,0.11521,0.07164,0.017479,0.019555
-0.039724,-0.25283,-0.23018,-0.014215,0.00017173,-0.028193,-0.013933,-0.012035
0.029623,0.20159,0.14314,0.11341,0.032991,0.075008,0.040835,0.026607
-0.08844,-0.13829,-0.062967,-0.054364,-0.10671,-0.056183,-0.013407,-0.028497
0.051485,0.071614,-0.13652,-0.0088324,-0.036102,-0.038913,-0.0047266,0.0024469
0.019795,-0.0047929,0.15788,0.071946,0.049613,0.025231,-0.019093,0.010162
0.0040455,0.10067,0.086589,-0.0053643,0.04902,0.026773,0.052742,-0.0052872
-0.0035664,-0.12071,-0.076726,0.019014,0.0091499,0.0046111,-0.031603,0.0029882
-0.010902,0.10353,0.15197,0.076409,-0.030823,-0.025838,-0.014543,0.011502
0.0053781,-0.12597,-0.14222,-0.17581,-0.031789,0.013344,0.0099635,-0.0111
-0.017354,0.018305,-0.16352,-0.065263,0.014039,-0.018622,-0.012923,0.0053552
0.014523,0.0048466,0.18071,0.18141,0.0050205,0.011015,0.018296,-0.0095893
-0.0084706,-0.072484,-0.008835,0.048041,0.042621,0.0085713,0.0098994,-0.0013611
0.022981,0.060109,-0.060678,0.057198,0.0095786,-0.0023165,-0.022369,0.022172
-0.016123,0.12181,0.17376,-0.27645,-0.078488,-0.02133,-0.0080143,-0.017092
-0.016352,-0.1136,-0.26579,0.046257,0.051952,0.014426,0.02193,-0.0018618
0.014588,0.010261,0.028042,0.0012621,-0.083282,-0.019641,-0.010449,-0.010093
0.0065232,0.087008,0.1425,0.12733,0.047333,0.0096322,0.027837,0.0052868
-0.0091505,-0.055532,-0.038297,0.06508,0.045647,0.016535,-0.027161,-0.0024181
0.014568,0.035411,-0.013297,-0.26341,-0.025608,0.0089337,-0.011344,0.0059642
-0.015987,-0.093519,0.093129,0.23593,0.0055621,0.0023265,0.012743,0.014809
-0.0070425,0.010832,-0.070443,-0.12404,-0.032747,-0.019198,0.0059244,-0.0072589
0.017919,-0.01836,-0.019957,0.047584,0.062418,0.014286,-0.00071879,0.0020235
0.011909,0.069583,0.032982,0.016631,-0.0139,-0.022628,0.00043391,0.011103
-0.033051,-0.068211,-0.13123,-0.13091,-0.035437,0.018148,0.0091993,-0.019384
0.015648,0.069165,0.20528,0.12834,0.036611,0.0035697,0.002001,0.019711
0.017173,-0.017545,-0.15356,0.0051591,-0.06354,-0.035195,-0.02904,-0.020143
-0.028661,-0.07011,0.033855,0.10873,0.02345,-0.01215,0.017657,-0.013868
0.010824,0.13803,-0.0062147,-0.26422,-0.038286,0.025995,-0.029688,-0.008105
0.010561,0.0048552,0.07772,0.11285,0.095131,0.048204,0.016567,0.0053007
0.0018111,-0.095434,0.05143,0.068176,-0.037115,-0.054694,-0.0074998,0.018908
-0.054408,-0.0076369,-0.17072,-0.085508,0.0416,0.061201,0.038838,0.017406
0.045162,-0.029734,-0.010233,-0.058847,-0.059382,-0.049339,0.030607,0.00097526
-0.0040054,0.079455,0.033229,-5.1705e-05,-0.035493,-0.019102,-0.071301,-0.022557
0.017002,-0.032409,0.053606,0.16124,0.050582,0.019086,0.0064528,0.0091628
0.014581,0.048282,0.035223,-0.0048723,0.018958,0.010516,0.01376,0.0099358
-0.042399,-0.014505,-0.014443,-0.030092,-0.0055193,-0.013567,-0.0025782,-0.012729
-0.013209,-0.1502,-0.033474,0.038075,0.047411,0.040614,0.01994,0.003405
0.024116,0.21209,0.055532,-0.07446,-0.1034,-0.045632,-0.020156,-0.012136
0.046227,-0.028416,0.0096858,-0.094781,0.018866,0.016848,0.010128,0.010947
-0.071794,-0.18331,-0.16371,-0.046602,0.016189,-0.037476,-0.037403,-0.028781
0.013873,0.16235,0.074239,0.15601,-0.032828,0.025845,0.017188,0.001728
0.014208,-0.068874,-0.018458,-0.041398,-0.0027392,0.011514,0.0022238,0.024622
-0.016106,-0.024979,0.035348,0.16624,0.052066,-0.0024153,0.0037199,0.0010758
0.040048,0.11442,0.17402,-0.017515,0.061334,0.030768,0.021596,0.017157
-0.028409,0.0053187,-0.18738,-0.16251,-0.06108,-0.037616,0.0009212,-0.0052675
-0.018559,-0.032509,-0.032216,-0.072995,0.012509,0.0030931,-0.00399,-0.027281
0.061537,0.00027964,0.023172,0.056054,0.00027254,0.027638,0.045503,0.03681
-0.038372,-0.10006,-0.16129,-0.12672,-0.12963,-0.065719,-0.08535,-0.024209
0.0018157,0.0097588,0.31302,0.26148,0.1145,0.043282,0.0016412,0.00035488
-0.013344,0.040496,-0.038544,0.032884,0.052695,0.034415,0.017355,0.00097697
-0.013565,0.062539,0.080326,0.038588,-0.065108,-0.060854,-0.02246,-0.030184
0.016856,-0.033186,-0.128,-0.065654,-0.012163,0.0077783,0.023082,0.016338
0.023396,-0.019688,-0.1017,-0.15515,-0.014669,-0.0015534,0.013666,0.015717
-0.0093544,-0.060565,-0.10683,-0.042322,0.013782,0.012984,0.019877,0.015031
0.012582,0.21958,0.30186,0.10152,0.04242,-0.010959,-0.036245,-0.016794
-0.051223,-0.24929,-0.24257,-0.074238,-0.06118,0.043796,0.017199,-0.017156
0.018123,0.12665,0.064991,0.048721,0.05477,-0.01042,0.00042362,0.01395
0.001932,-0.11364,0.021798,-0.028655,-0.00032575,0.0057967,0.022636,0.0061258
0.025189,0.076429,0.065481,0.061283,-5.1186e-05,-0.0016203,-0.017886,0.013913
0.048753,0.094845,0.13332,0.1308,0.016271,-0.032925,-0.019654,0.021533
-0.068111,-0.012005,-0.14244,-0.055406,-0.053206,-0.017919,-0.013855,-0.049239
-0.0051894,-0.057068,0.073412,0.11838,0.010053,-0.0034102,-0.00027375,-0.010901
-0.028154,-0.095315,-0.29016,-0.33383,-0.051852,0.018646,0.0057916,0.0038589
0.034888,0.06071,0.21167,0.16467,0.12052,0.040773,0.028143,0.010902
0.012139,-0.010654,-0.038406,-0.051003,-0.066423,-0.038241,-0.018851,-0.0051046
0.0052644,0.034761,0.0067021,-0.027824,-0.065573,0.000625,-0.0022189,0.0029829
-0.024717,-0.036907,-0.090008,-0.11676,0.037297,0.016871,0.015499,-0.003731
-0.015283,-0.045501,0.047054,0.20671,0.085985,0.018255,0.02624,0.029445
0.056937,0.14211,0.17623,-0.017133,-0.013383,-0.034506,-0.017284,0.016393
0.0042812,0.22136,0.10254,0.048672,0.043595,0.061381,0.03287,-0.0041625
-0.048489,-0.43285,-0.34575,-0.032793,-0.13409,-0.077269,-0.089389,-0.040467
-9.2008e-05,0.03861,0.057873,0.043193,-0.0077761,-0.0054674,0.0062102,-0.0070216
-0.0070557,0.026022,0.024217,-0.12225,0.047233,0.026572,0.022618,-0.0057519
0.016327,0.091515,-0.0015549,-0.0064416,0.022981,0.0031573,-0.0010927,0.0099924
0.030853,0.062837,0.1367,0.12423,0.060157,0.025938,0.028994,0.024528
-0.010376,-0.0056719,-0.092317,-0.019873,-0.067531,-0.029874,-0.0040427,-0.0089153
-0.0056771,-0.043968,-0.055768,-0.071706,-0.039323,-0.0077294,0.0016627,0.011473
-0.0094712,-0.067795,0.11362,0.00032727,0.0047118,0.0067564,-0.016097,0.00011059
-0.013546,0.079186,-0.052749,0.0017214,0.026077,0.013875,0.013241,-0.011334
-0.0096013,-0.087075,-0.070326,-0.074252,0.0096003,-0.0017936,-0.019511,-0.014608
-0.0049518,-0.019186,-0.017049,0.023495,-0.052301,-0.040174,-0.004851,-0.01712
0.016448,0.072524,0.091601,-0.040192,0.01217,0.031476,0.010403,0.020507
0.031413,-0.014515,0.12288,0.24273,0.1323,0.03326,0.010619,0.012501
-0.0069068,0.048184,-0.11855,0.020279,-0.036299,-0.0038796,0.0035436,0.0057225
0.010649,0.026313,-0.08593,-0.11479,-0.049092,-0.017787,-0.010941,-4.074e-05
-0.0022686,-0.056939,0.025288,0.015902,0.022926,-0.000956,-0.0017401,0.0026495
-0.03056,-0.061463,-0.019443,0.0048944,-0.078493,-0.055151,-0.0080858,-0.0023066
0.003374,0.090202,0.19379,-0.13299,-0.001855,0.04613,0.032355,0.0080425
-0.0024522,0.030193,-0.022631,-0.061962,-0.02028,-0.0095268,-0.029001,-0.029208
-0.0092205,-0.1561,-0.31724,0.038811,0.046526,-0.003179,-0.012572,-0.012745
0.0221,0.13259,0.23176,0.0297,0.019608,0.026358,0.026889,0.018317
0.0057406,-0.033466,-0.00073394,0.091526,0.032441,0.0011978,-0.0043823,0.0016185
-0.042354,-0.083682,-0.022674,0.092375,-0.00046554,-0.015973,-0.012608,-4.6113e-05
0.042274,0.11522,0.01726,-0.10799,0.022602,0.029645,0.033534,0.0137
-0.005609,-0.061171,-0.092202,0.005809,-0.039108,-0.033786,-0.014284,-0.011449
-0.0060055,0.028341,0.10948,0.089226,-0.029662,-0.010969,-0.0153,-0.0048646
0.010011,0.024847,-0.02651,-0.10886,-0.0041326,0.019925,-0.0084176,0.018025
-0.027856,-0.032306,0.10115,-0.050505,0.0058853,-0.0036587,-0.0091126,-0.013039
0.04432,0.036639,-0.062205,0.099391,0.01578,-0.0036507,0.021794,0.011229
-0.03153,-0.088754,-0.12552,-0.13604,-0.076127,-0.011353,-0.0015818,-0.018747
0.025517,0.044362,-0.0020132,0.11066,0.073881,0.027866,0.030104,0.021769
-0.027056,0.037187,0.043961,-0.097194,-0.0029529,-0.026677,-0.023884,-0.015936
0.013596,-0.04815,0.076397,0.10875,0.076158,0.051519,0.023786,0.016351
-0.02459,0.069299,0.049917,0.010974,-0.02479,-0.026657,-0.038005,-0.014322
-0.00888,-0.04813,-0.19832,-0.092585,-0.079309,-0.034663,-0.014091,-0.022043
0.029503,0.052713,0.12923,0.087784,0.021933,0.019718,0.040762,0.016705
0.012539,-0.16702,-0.11593,-0.080628,-0.010077,0.019384,-0.021871,0.016146
0.018512,0.15244,0.10434,0.042343,0.027941,-0.012098,-0.0065889,-0.015709
-0.046145,-0.09784,0.061735,0.10419,-0.020017,-0.012074,0.0086181,0.0072623
0.0062582,0.074731,-0.042969,-0.036947,-0.013054,0.0039649,0.0004513,-0.00074331
0.0040326,0.029758,0.14696,-0.10111,-0.044704,-0.042039,0.0080726,0.015012
-0.021399,-0.12343,-0.26161,-0.034717,0.064797,0.037375,-0.0075509,-0.023633
0.047302,0.075759,0.057509,0.10685,0.11221,0.062355,0.016033,0.01602
-0.01631,0.087642,0.13458,-0.043798,-0.082428,-0.014249,0.0084023,-0.0068145
0.006592,-0.018229,-0.27247,-0.11921,-0.019521,-0.020893,-0.01495,-0.014184
-0.024587,-0.094149,0.04069,0.17033,-0.011947,-0.036013,-0.01507,0.025016
0.015133,-0.0078178,0.13082,-0.025881,-0.013076,0.010504,0.015809,0.0013247
-0.061822,0.11562,0.10988,0.01964,-0.015116,-0.021999,-0.039462,-0.022766
0.072541,-0.19226,-0.13666,-0.07511,0.021226,0.030697,0.022362,-0.00030458
0.019602,0.1005,0.057624,0.018643,0.010451,-0.0029655,0.013945,0.014165
-0.025542,0.041774,0.06951,0.19981,-0.015647,0.0024247,-0.0020517,-0.01042
