0.071075,-0.0071552,-0.023686,-0.0052922,-0.0045448,0.012593,-0.036197,0.24344
-0.047114,-0.033828,0.0065165,0.017032,0.01764,-0.011957,0.014926,-0.50611
0.030693,0.040819,0.013052,-1.7492e-05,-0.0075031,0.049574,-0.18111,0.54684
0.11653,0.013161,0.0037372,-0.0017206,-0.0094658,-0.052611,0.28935,0.54067
-0.12595,-0.007695,-0.0057396,-0.01144,-0.011431,-0.0059188,0.050216,-0.51337
0.0061681,-0.0685,-0.030865,-0.0056041,0.0025016,0.0021022,-0.017378,0.17592
-0.073016,-0.020227,0.02232,0.0081718,0.016963,0.049389,-0.1108,-0.54577
-0.035068,0.044386,-0.00999,-0.0089338,0.0086984,0.049723,-0.16179,-0.2694
0.011098,-0.014002,-0.018174,-0.0097998,-0.022215,-0.083136,0.32804,0.38454
0.097183,0.040289,0.029199,-0.002041,0.0022938,-0.021289,-0.14991,-0.0070614
0.21566,0.052057,0.014995,0.037875,0.035176,0.02426,-0.095366,0.64255
-0.23504,-0.1188,-0.021828,-0.015101,-0.025401,0.0067798,0.15714,-0.50006
0.057319,0.035309,0.066906,0.02633,0.015564,-0.018696,-0.21036,-0.024946
-0.13429,-0.088196,-0.086369,-0.03348,-0.045357,0.0030046,-0.07776,-0.16994
0.033372,0.13388,0.010103,-0.007441,0.010349,-0.021352,0.40162,0.21005
0.16143,0.074141,-0.0034566,0.010285,0.018484,-0.0054132,-0.48075,-0.044958
-0.12536,0.081536,0.060151,0.034983,0.033716,0.097898,0.22189,-0.20517
0.04016,-0.13542,-0.041413,-0.04292,-0.037613,-0.031815,0.43165,0.37993
-0.13089,-0.23472,-0.042498,-0.012515,-0.015631,-0.019927,-0.2039,-0.20299
0.049317,0.197,0.072716,0.016975,0.013959,0.047027,0.20426,0.32686
0.13583,-0.058472,-0.062632,-0.016659,-0.026726,-0.12073,-0.50195,-0.063217
0.097723,0.063131,0.020609,0.027583,0.050015,0.085508,-0.11314,-0.00021421
-0.18196,0.01763,0.057222,0.0016436,-0.021325,-0.076982,-0.31777,-0.52541
-0.14064,-0.1449,-0.069627,-0.008217,0.0092826,0.071218,0.72743,-0.18797
0.057611,-0.015053,-0.00031555,-0.0095961,0.0089681,0.030131,-0.26685,0.11904
0.17046,0.20667,0.054341,0.036663,0.0088833,-0.0046064,0.28489,0.58805
-0.013236,0.029748,-0.015036,-0.010077,-0.022308,-0.094905,-0.18851,-0.15179
0.13129,0.0015088,0.018008,-0.0014602,0.0091222,0.072504,0.31953,0.41077
-0.2946,-0.089711,-0.057644,-0.023532,-0.037386,-0.040609,0.12027,-0.63528
-0.064482,-0.12065,0.015605,-0.013891,-0.0054408,0.0040024,-0.46673,0.41685
0.1966,0.054692,-0.012484,0.0039424,0.011366,0.066213,-0.26146,0.056863
-0.097307,0.019521,-0.0093588,-0.0091798,-0.010313,-0.17418,-0.26235,-0.21485
0.19435,0.068041,0.0090578,0.016932,0.031019,0.12623,0.72862,-0.05843
-0.20207,0.0026738,0.03461,0.027393,0.025715,0.029122,-0.38691,-0.9039
0.11926,0.048394,0.066926,0.02973,0.027985,0.11925,0.42526,0.79798
-0.23286,-0.2174,-0.089656,-0.054524,-0.056513,-0.096862,-0.16112,-0.37128
0.37375,0.13521,0.049001,0.032104,0.045089,-0.026608,0.072994,0.76256
0.087002,-0.0020258,-0.03276,0.0081251,-0.011335,-0.0066007,0.27461,-0.051256
-0.50737,-0.14282,-0.084688,-0.087453,-0.10083,-0.18529,-0.5826,-0.10719
0.29408,0.19179,0.050024,0.042436,0.034813,0.094293,-0.10403,-0.15813
-0.19525,-0.065892,0.028447,-0.00020298,0.013545,0.020996,-0.0046886,-0.55567
0.12764,0.14912,0.054686,0.019652,0.0083105,-0.012818,0.46957,0.93872
-0.016789,-0.13763,-0.049955,0.0090026,0.03589,0.38531,0.44892,-0.30521
0.13881,-0.026225,0.0044288,0.0076404,0.0035647,-0.29858,-0.34123,0.63008
-0.32614,-0.055049,-0.055058,-0.061987,-0.048908,0.053983,-0.85337,-0.13924
0.18271,0.09593,0.021698,0.019164,-0.019761,-0.43905,0.11024,-0.88229
0.1182,0.034746,0.046796,0.040077,0.1297,0.65217,0.70967,-0.3385
-0.052108,-0.39729,-0.090076,-0.070057,-0.16395,-0.57913,-0.40984,-0.1868
0.24028,0.34327,0.062796,0.055062,0.074466,0.24078,0.63121,0.76508
-0.44422,0.033492,0.034931,-0.015435,-0.016098,0.14899,-1.0308,-0.12546
0.37692,0.30181,0.082354,0.10778,0.093922,-0.0055018,0.77783,0.62959
-0.44596,-0.08222,-0.015207,-0.013966,0.03592,0.14945,-0.13023,-0.77592
0.42281,0.027278,-0.016481,-0.04553,-0.097232,-0.17012,0.28228,0.51696
-0.38335,-0.40923,-0.19496,-0.08868,-0.0087811,-0.083573,-0.48776,0.55552
-0.11319,-0.3663,-0.034104,-0.088247,-0.21364,-0.65458,0.0011505,-0.71218
0.10192,0.16044,0.014708,0.058449,0.12556,0.8434,0.057737,0.46386
0.34905,0.30986,0.14124,0.087329,0.11233,0.18495,-0.094471,-0.0796
0.2771,0.1042,0.043136,0.054742,0.0612,-0.32315,0.47239,-0.51725
-0.24696,-0.020904,0.019177,-0.037866,-0.096348,-0.20156,-0.5233,-0.67328
-0.067602,0.21998,-0.038867,-0.017661,0.00027273,-0.033199,0.3258,0.30786
0.048837,-0.14793,0.025449,0.01411,0.031212,0.26297,-0.001423,0.30456
-0.52293,-0.10194,-0.069853,-0.021028,-0.011672,0.20498,0.068505,0.34095
0.092471,0.034653,0.033142,0.040065,0.011224,-0.44,-0.74228,0.17743
0.17718,-0.43806,-0.15184,-0.085166,-0.081302,0.0081798,0.17074,-0.72405
-0.041236,0.29477,0.21693,0.054936,0.04493,-0.076144,0.18445,-0.023494
0.21897,0.17289,0.012639,0.029278,0.075697,0.75845,0.70554,0.24498
0.051103,-0.11334,-0.21139,-0.10078,-0.10763,-0.68578,0.037638,0.64873
0.22702,0.32297,0.10659,0.062464,0.087762,0.59634,0.10056,0.13073
-0.576,-0.30918,-0.12726,-0.051555,-0.10409,-0.60064,-1.0219,-0.027487
0.49879,0.20917,0.24393,0.088676,0.043715,-0.02817,0.1999,-0.39797
-0.25368,-0.22884,-0.059919,-0.0082803,-0.006894,0.086942,-0.33554,-0.40284
0.10367,-0.27489,0.040996,0.057196,0.11277,0.17537,0.16991,-0.24088
-0.37287,0.014458,-0.09978,-0.080569,-0.079845,-0.24528,0.56215,0.083224
0.42197,0.2861,-0.019193,-0.029245,-0.043726,0.038423,-0.031785,0.49369
-0.52998,-0.17336,-0.11367,-0.091823,0.0041522,0.78674,-0.39227,-0.49337
-0.16829,0.35031,0.11841,0.030014,-0.05204,-0.86563,0.51093,-0.21759
0.3088,-0.072163,-0.0095348,0.063733,0.0071302,-0.15214,-0.52066,0.52901
0.56016,0.072149,0.049324,0.095409,0.1815,0.84881,0.54704,0.68671
0.038367,-0.026787,0.020411,0.0070896,-0.061272,-0.74713,-0.15132,-0.69119
-0.096524,0.084955,0.089038,-0.015353,-0.012141,0.033949,-0.34027,0.75603
-0.26544,-0.42807,-0.14621,-0.099202,-0.040779,0.52446,0.38212,-0.83441
-0.25812,-0.048677,-0.032401,-0.020484,-0.071751,-0.45921,-0.64219,0.093274
0.29198,0.33632,0.18515,0.1324,0.19716,0.39172,0.65852,0.35142
0.065613,-0.016322,-0.12874,-0.10343,-0.14214,-0.034918,-0.14075,-0.15298
-0.050313,-0.10454,0.009141,0.052212,0.073547,0.17377,-0.12636,-0.38535
-0.3135,-0.24378,-0.096235,-0.049128,-0.10083,-0.70003,-0.4455,-0.34664
0.34256,0.3306,0.049059,0.0076829,0.031474,0.096886,0.4657,0.50463
-0.44207,-0.068935,-0.020811,-0.0097384,-0.058437,0.10872,-0.21326,-0.084523
0.41216,0.10419,0.018061,0.018397,0.0855,-0.15829,0.037892,0.078964
-0.32739,-0.222,-0.026008,-0.084815,-0.11183,0.34892,0.66508,0.062097
0.10521,0.15954,0.037506,0.042492,0.086508,0.13531,0.016215,0.17152
0.41045,-0.070291,0.054251,0.081791,0.096265,-0.04634,-0.1504,0.37456
-0.21503,0.040046,0.048145,-0.02082,-0.0664,-0.16469,-0.86792,-0.60691
0.038507,0.46308,0.15107,0.13279,0.097855,0.18399,0.5642,0.0090745
0.25081,-0.41635,-0.22495,-0.11492,-0.076692,-0.067331,-0.36341,0.050453
-0.12551,-0.27677,-0.020114,-0.00025773,-0.0063918,-0.025859,0.25641,0.47887
-0.39615,-0.046651,-0.096563,-0.072286,-0.08433,-0.35356,0.20931,-0.49153
0.22038,0.22142,0.043356,0.034177,0.031054,0.19471,0.26917,-0.24448
-0.2731,0.093499,-0.0003887,-0.080796,-0.044636,0.31875,-0.3409,0.012332
0.10618,0.14523,0.13088,0.097632,0.094045,-0.43605,-0.38667,-0.15938
0.18032,0.032329,0.0076534,-0.016544,-0.052921,0.11039,0.2435,0.49234
-0.16321,-0.12662,0.01361,-0.0087364,0.061975,0.27245,-0.15031,0.45499
-0.035166,-0.37538,-0.19365,-0.034298,-0.1227,-0.18908,-0.10452,-0.53449
0.18856,0.056119,0.067124,0.095293,0.1521,0.018306,0.29525,-0.046012
0.13914,0.18868,0.039611,0.0059659,-0.018666,-0.031716,0.37393,-0.16068
-0.069564,0.15245,-0.056253,-0.067225,-0.071544,-0.2192,-0.29782,0.18474
-0.029091,-0.017014,0.17866,0.071404,0.072237,0.31701,0.16687,-0.38049
-0.19273,-0.25434,-0.091489,-0.070263,-0.071406,0.077562,0.25318,0.44098
-0.078369,0.26962,0.023475,0.0076249,0.020947,-0.016134,-0.28202,0.71716
0.33365,-0.14133,-0.15702,-0.078024,-0.072836,-0.27007,-0.72103,-0.46153
0.17936,0.30719,0.20965,0.14903,0.18591,0.37655,0.35837,0.066551
-0.37394,-0.12281,-0.080769,-0.053679,-0.10171,-0.3826,0.075998,-0.30751
0.20888,-0.27915,-0.021425,0.024559,0.040464,0.27949,0.093321,-0.35238
-0.56718,-0.27508,-0.1755,-0.12418,-0.1613,-0.411,-0.074421,-0.34762
0.2339,0.34714,0.13634,0.10944,0.12098,0.25723,0.42539,0.29843
-0.099172,0.18684,0.10154,-0.0088964,-0.01897,0.042854,-0.56976,-0.34375
0.4419,-0.030526,-0.053153,-0.041579,-0.010759,-0.14695,-0.02746,1.0307
0.20175,0.03876,0.18045,0.11309,0.10666,0.039978,-0.064672,-0.29901
-0.13884,-0.18239,-0.1893,-0.075991,-0.05723,0.09568,1.0364,0.70841
-0.11777,0.065808,-0.044457,-0.053976,-0.10394,0.066078,-0.35086,0.17643
-0.26484,-0.081057,-0.055993,0.038655,0.11499,0.37142,-0.45494,-0.89148
-0.17986,-0.1119,0.058373,-0.008913,-0.041054,-0.46673,0.035791,-0.47718
0.15497,0.0079605,-0.0050306,0.014326,0.013849,-0.22335,0.051924,0.51661
0.33576,0.18792,0.098374,0.006799,-0.0093508,0.45245,0.20611,-0.56038
0.29438,0.21173,-0.021563,0.030904,-0.0012546,-0.29038,-0.36327,0.60563
-0.86599,-0.059657,0.002359,-0.030733,-0.016523,-0.22362,-0.50845,-0.61425
0.28505,-0.094391,-0.025621,0.001337,-0.008276,0.014507,0.23107,0.019623
0.24701,-0.33032,0.065544,0.017502,0.039065,0.29369,0.43162,0.59823
-0.17707,0.17673,-0.037692,-0.029303,-0.01525,0.12357,0.32303,0.3592
0.26012,-0.059398,-0.10204,0.0092461,0.070749,0.41097,0.37374,0.33431
0.05531,0.091776,-0.081605,-0.10126,-0.14854,-0.89973,-0.63105,-0.74431
-0.37292,0.22125,0.14004,0.092335,0.10779,0.26725,0.067895,-0.49824
-0.23815,-0.18961,-9.371e-05,-0.0036851,-0.066806,0.21341,0.088219,0.090717
0.59882,-0.042224,0.15402,0.10291,0.093093,-0.095835,-0.20944,0.75214
-0.15087,0.12177,-0.053768,-0.04878,-0.029728,0.18062,-0.57938,-0.43904
0.06936,0.26941,-0.013625,0.010096,-0.0053627,-0.083385,0.21148,0.08657
-0.48704,-0.54506,-0.19346,-0.079623,0.0026226,-0.19177,0.36014,-0.0054155
0.26253,0.093493,-0.0061312,-0.067555,-0.098767,-0.079159,-0.19207,-0.46139
-0.20057,0.039169,0.096663,0.05465,0.011711,-0.25661,0.32532,0.10632
0.3545,0.11598,-0.024261,0.014171,0.045962,0.172,0.36226,0.22612
0.071349,-0.14062,0.16351,0.092814,0.09856,0.43855,-0.17935,0.34726
0.037041,-0.062619,-0.16753,-0.1075,-0.11904,-0.16388,-0.54767,0.1202
-0.28842,-0.01437,0.1388,0.069499,0.057313,0.007244,-0.17227,-0.29129
0.19374,0.40368,-0.11368,-0.0015175,0.056961,0.38101,0.10173,-0.077264
-0.24725,-0.22346,0.011091,-0.039981,-0.09741,-0.75644,0.76408,-0.23406
0.21187,0.17951,0.089351,0.0078873,-0.00055814,0.80907,0.038397,0.084904
-0.19935,0.085013,-0.021474,0.039539,0.026105,-0.6934,-0.5704,-0.01583
0.24158,-0.40998,-0.10433,-0.047475,-0.010619,-0.11268,-0.40839,0.60826
0.12566,0.30766,0.089604,0.027466,0.021313,0.30495,0.53875,-0.41236
-0.34511,-0.4288,-0.080721,-0.024961,0.035545,0.080397,-0.088555,-0.28902
-0.060719,0.090755,0.010025,-0.024924,-0.069514,0.056509,-0.078574,0.35495
-0.034657,0.00016797,0.011288,0.02809,-0.012269,-0.25042,0.40605,-0.14103
0.49409,0.25504,0.041717,0.0020308,-0.0030447,0.23177,-0.70341,-0.30349
-0.37713,-0.25084,-0.10801,-0.031939,-0.0020403,-0.3146,0.48495,0.39614
-0.074729,0.3372,0.17295,0.044123,0.061735,0.41018,0.23746,0.056219
0.028595,-0.15824,-0.10654,-0.011471,0.016859,-0.23977,-0.4303,-0.60914
0.26189,0.11553,0.077451,0.027988,-0.050621,-0.075063,0.027905,0.77621
-0.008254,0.041205,-0.040803,-0.0096006,0.0074634,0.030216,0.19697,-0.33565
0.075695,-0.36673,-0.032208,-0.0075825,-0.0047962,0.091542,0.18519,0.36485
-0.082587,0.20248,0.086712,0.033341,0.052434,0.28751,-0.42226,0.33458
-0.024716,-0.010826,-0.028763,-0.020337,0.022098,-0.094537,-0.17253,-0.47743
-0.22908,0.030898,-0.090388,-0.051945,-0.11206,-0.36899,-0.041905,-0.81655
0.006847,-0.17326,-0.028356,-0.0070088,0.016857,-0.13117,0.62658,0.050012
-0.050562,0.095317,0.086904,0.044301,0.065242,0.70402,-0.29118,0.27861
0.092701,0.071597,-0.064679,-0.069434,-0.1304,-0.68362,0.26815,0.45649
-0.13136,0.11621,0.11114,0.074327,0.071456,0.19129,-0.0073054,0.13233
0.34971,-0.026961,0.029051,0.030994,0.054685,0.17424,-0.42191,-0.13771
0.076348,-0.27001,-0.12285,-0.058178,-0.031258,-0.029621,0.1259,0.50652
-0.037012,0.053131,-0.0081215,0.0025395,-0.013708,-0.16836,-0.41119,-0.74746
0.16534,0.12392,0.084495,0.072666,0.068705,0.048524,0.012686,-0.44701
-0.23174,-0.0094162,-0.063608,-0.058868,-0.04181,0.19982,0.67703,0.85258
-0.49493,0.10692,0.10223,-0.025231,-0.064368,0.01188,0.048119,-0.56016
0.10944,-0.15221,-0.035352,0.032454,0.070688,-0.14132,0.45903,-0.25592
0.15936,-0.16279,-0.085976,-0.026977,-0.035893,-0.26921,-0.5538,1.093
0.27224,0.33903,-0.010894,0.030355,0.036944,0.5169,-0.50762,-0.88909
-0.23914,-0.1257,0.041097,0.016566,0.015082,-0.47234,-0.066366,0.46865
0.30492,0.088701,-0.016356,-0.06076,-0.062845,0.26933,-0.063894,0.055559
-0.080458,-0.020519,0.11313,0.056124,0.045244,0.061337,0.5348,-0.027963
-0.13839,-0.29954,-0.071016,-0.046766,-0.0745,-0.19798,-0.070314,-0.38399
0.16119,0.11703,-0.038144,0.013558,0.039341,0.21875,-0.093457,0.30063
-0.2375,0.10324,0.047137,-0.012684,-0.0032358,-0.13989,0.17982,-0.13595
-0.14768,0.073188,-0.065539,-0.00028603,-0.021914,-0.0058215,0.15772,-0.26031
0.11796,0.16067,0.16284,0.089968,0.12443,0.030107,-0.050084,0.86995
0.1535,-0.31208,-0.11108,-0.054323,-0.095179,-0.38859,-0.08516,-1.1461
0.076862,0.071636,0.090125,0.051283,0.084912,0.28734,-0.035009,-0.046043
-0.13446,-0.16942,-0.18533,-0.085316,-0.046419,0.44985,-0.33866,0.84495
-0.049809,0.15545,0.017298,-0.034283,-0.10668,-0.34648,-0.028432,0.22251
0.30833,0.017757,-0.073808,0.0014767,0.028737,-0.21265,-0.058059,-0.4395
-0.34817,-0.2682,0.089489,0.037861,0.03136,0.41863,0.11111,0.056573
0.27072,0.39956,0.10148,0.059502,0.064938,-0.30035,0.42365,0.047083
-0.28705,0.12142,0.071134,0.0040782,0.012044,0.28235,0.29222,-0.38219
0.010874,-0.36309,0.020462,-0.026801,-0.049358,-0.1966,-0.090067,0.59769
-0.15478,0.13761,-0.15428,-0.072298,-0.064661,-0.19336,-0.71808,0.23987
0.31051,0.017854,-0.033783,0.023604,0.020825,0.040411,0.30403,-0.75389
0.28203,0.18807,0.2546,0.080902,0.08218,0.14517,-0.25996,-0.3345
-0.09213,-0.23692,-0.22049,-0.049189,-0.052337,0.075287,0.50345,-0.20773
-0.39889,-0.10922,-0.12371,0.00801,0.023693,0.067499,-0.45173,0.39113
-0.046045,-0.099182,0.006517,-0.02899,-0.025489,-0.24235,0.23612,0.54707
0.050406,0.054398,0.078162,-0.027502,-0.059089,-0.1635,-0.023517,0.21838
0.15391,0.17647,0.10931,0.043732,0.071487,0.28364,-0.031653,0.21218
0.31693,0.15483,0.047978,0.059839,0.077323,0.23442,-0.066018,-0.48781
-0.040769,-0.14679,-0.033112,-0.002391,0.0054446,-0.18437,0.34499,-0.37683
-0.59278,-0.32713,-0.22601,-0.11924,-0.1596,-0.15917,-0.085865,-0.12328
0.39411,0.2942,0.095012,0.029875,0.027704,0.11515,-0.47514,0.1358
-0.12735,0.18428,0.046771,-0.015759,-0.010574,-0.017686,0.3329,0.64751
-0.24273,-0.14508,0.30765,0.040814,0.0069548,0.0045331,0.0086152,-0.0030558
0.39277,0.12108,-0.24148,0.058883,0.10373,0.032855,0.057654,-0.85344
-0.078627,0.14094,0.037811,0.022554,-0.0017059,-0.28504,0.26658,-0.11884
0.29812,-0.59083,-0.30953,-0.084191,-0.036314,-0.075262,-0.42175,0.61173
-0.2248,0.25796,0.19173,0.042907,0.007153,0.45742,-0.22046,-0.53974
-0.0044181,0.029701,0.0019799,-0.049619,-0.020357,0.20925,0.2593,0.91466
-0.4289,-0.09464,-0.07385,-0.057254,-0.072506,-0.48652,-0.32765,-0.078446
0.2151,0.20119,0.23068,0.066926,0.04567,0.27353,0.48614,-0.59085
0.031197,-0.13193,-0.083312,0.041915,0.068455,0.025966,0.082214,0.26395
0.044169,-0.17356,-0.12413,-0.038163,-0.011781,-0.16831,-0.040747,0.19861
0.43401,0.15268,0.015274,-0.032282,-0.085239,-0.31741,-0.26666,-0.075056
-0.49552,-0.21109,0.17905,0.059898,0.043976,0.15798,0.48213,-0.25894
0.11293,0.3625,-0.1094,-0.019231,-0.0063057,0.38539,-0.44991,-0.33469
0.28774,0.34185,0.094821,0.0038124,-0.016747,-0.3739,-0.044893,0.39805
-0.42733,-0.25247,-0.07602,0.027369,0.075579,0.32138,0.20111,-0.139
0.16014,-0.026782,-0.052141,-0.011245,-0.010383,-0.20506,-0.34727,0.58004
-0.10822,-0.30707,-0.13074,-0.065353,-0.079381,-0.20859,0.050097,-0.5418
0.09457,-0.13785,0.11002,0.060212,0.094857,0.37429,0.054585,0.30634
-0.051897,0.038996,0.18601,-0.056476,-0.081879,-0.29297,0.19287,0.1783
-0.14064,0.3536,-0.16015,0.014316,0.030502,0.17027,0.035603,-0.95807
0.32175,0.055082,0.017342,0.014878,0.0017976,0.44042,-0.084425,0.3485
-0.054108,-0.15259,0.00017413,0.039071,-0.0043407,-0.54872,-0.0017608,0.047371
-0.16567,0.060851,0.046439,-0.02242,-0.011592,0.27766,0.45449,0.1322
0.15153,-0.26254,-0.039101,0.010072,0.050325,-0.18408,0.0090894,0.4374
-0.0088896,0.099254,-0.030025,-0.027626,-0.05278,-0.27016,-0.2293,0.15401
-0.17882,0.25866,0.065507,0.012745,0.046664,0.31799,-0.72724,-0.17727
0.16437,-0.28201,-0.096765,0.0059789,-0.033628,-0.24442,0.11537,-0.72729
0.10593,0.025414,0.021606,-0.016873,-0.019638,0.12498,0.20018,0.2793
0.020692,0.25918,0.068411,-0.016907,-0.012401,-0.022815,0.31581,0.14345
-0.24704,-0.22227,0.066507,0.013587,0.019679,0.17452,-0.074397,-0.21375
-0.031761,0.27471,-0.047013,0.043316,0.037595,-0.047676,-0.060742,0.13176
-0.26883,-0.28304,-0.14727,-0.068332,-0.068334,-0.018949,-0.10942,-0.22167
0.45834,0.071649,0.10192,0.069334,0.091857,0.053954,0.099804,0.34917
0.0037297,0.017639,-0.064435,-0.059194,-0.092124,0.017464,-0.0073292,0.01441
0.095687,-0.12451,0.13591,0.07752,0.21467,0.56919,0.33419,-0.064774
-0.18688,0.060585,0.016655,-0.012452,-0.066725,-0.53769,-0.15401,-0.19809
-0.12558,-0.042135,-0.21,-0.10221,-0.18672,-0.66516,-0.496,0.26305
0.30157,-0.10992,0.042967,0.035206,0.011092,0.22588,0.56331,0.1989
-0.15768,0.24219,-0.012802,-0.0060407,-0.003753,0.060075,-0.24483,-0.34061
-0.013819,-0.023604,0.14629,0.040035,0.020039,0.10785,0.070091,-0.041331
0.027343,-0.0088274,0.082279,0.064294,0.14651,0.82812,0.27503,0.08238
0.09624,0.19146,-0.11212,-0.042586,-0.076022,-0.67205,-0.28074,0.15744
-0.35585,-0.1361,-0.0086417,-0.069827,-0.0684,-0.20097,-0.17294,0.04661
-0.041117,-0.041446,0.016209,0.0056466,0.060349,0.25907,0.034933,-0.67437
0.34438,-0.090165,-0.117,0.019236,-0.010523,-0.2609,-0.23303,0.40827
-0.090322,-0.15982,0.028403,0.032791,0.069366,0.29132,-0.16071,-0.016366
0.38135,0.24795,0.084972,0.045622,0.017046,0.21624,0.28593,0.22646
-0.24799,-0.14864,-0.064129,-0.075725,-0.099104,-0.30372,0.22393,-0.28166
-0.031995,0.11186,0.003785,0.027641,0.062902,0.085781,0.60959,0.2361
-0.17974,0.046432,0.016344,-0.027335,-0.068476,-0.10362,-0.035413,-0.29551
0.030356,0.094485,0.013699,0.0016055,-0.0014757,-0.13976,-0.52977,0.57101
-0.062107,-0.046438,0.051441,0.036727,0.014378,0.21952,-0.030904,-0.037689
-0.046808,-0.20997,-0.033925,-0.030678,-0.019619,-0.11745,-0.15799,-0.25306
0.18945,0.13733,0.046841,-0.035711,-0.023487,-0.23295,-0.052406,-0.19867
0.0010325,-0.11205,-0.15958,0.01468,0.020443,0.28372,-0.05591,-0.52918
-0.040632,0.019795,0.0025565,0.0040346,-0.0032055,-0.039791,-0.045853,0.41325
0.11038,0.10377,0.22009,0.02656,0.03179,-0.044093,0.43976,0.29385
0.02918,-0.024514,-0.13274,0.051103,0.11803,0.48322,-0.25156,-0.23096
-0.13259,0.0085896,0.068396,-0.0085385,-0.057421,-0.38006,0.24496,0.88447
0.54155,0.044549,-0.05988,0.034582,0.090271,0.35644,0.10704,-0.36252
-0.60989,-0.05245,-0.15074,-0.14055,-0.18256,-0.56777,-0.5897,-0.63188
-0.028504,-0.074821,0.092501,0.043487,0.028873,0.28207,0.50249,0.43954
-0.15416,0.044518,0.029188,-0.085762,-0.15161,-0.36962,-0.25474,-0.47221
0.16117,0.32639,0.096841,0.096311,0.10344,0.07754,0.10002,-0.0025824
-0.089024,-0.40265,0.061138,0.050445,0.067289,0.19363,0.073362,0.29235
0.074159,-0.0099741,-0.12471,-0.020273,0.0057694,0.057212,-0.024655,-0.087571
0.40341,-0.033348,-0.015207,0.024866,0.044293,0.067372,-0.064389,0.21007
-0.020758,0.2174,0.030622,-0.063954,-0.066707,-0.22075,-0.10382,0.49941
-0.11059,-0.19932,-0.22885,-0.013032,0.016856,0.25536,0.25259,-0.59231
0.017969,0.2833,0.12902,-0.00952,-0.040751,-0.24692,-0.48163,-0.31223
-0.46227,-0.033567,0.23788,0.11106,0.17464,0.70144,0.62992,0.16341
0.21531,-0.3414,-0.14361,-0.11179,-0.18062,-0.77508,-0.3113,0.2057
0.036368,0.40171,0.11804,0.041134,-0.020442,-0.27024,-0.11708,-0.1813
0.17437,-0.49803,-0.30482,-0.054791,-0.0086027,0.51352,-0.020538,0.50619
-0.29084,0.33439,0.10362,0.069457,0.074046,-0.086447,0.12816,-0.6118
0.017265,0.092708,0.12453,0.031186,0.009209,0.025507,0.0099252,-0.17452
0.44337,-0.077646,-0.078398,-0.036837,0.0082415,-0.0079748,0.31311,0.48146
-0.25469,0.030238,0.087983,-0.0020041,-0.014517,0.13514,-0.16503,-0.17801
-0.15614,0.044664,-0.033378,-0.067774,-0.066819,-0.23939,-0.33067,0.34196
0.05714,-0.085575,-0.052768,0.07012,0.085519,0.13427,0.30836,-0.035727
-0.0085981,-0.1062,-0.010182,-0.018483,-0.026689,-0.018064,-0.30249,-0.28732
0.1039,0.035227,-0.0080709,0.017494,0.025619,0.091097,0.22785,0.0098899
0.22685,-0.123,-0.062848,-0.0021064,-0.016096,-0.25142,0.017338,0.63209
-0.29919,-0.017685,-0.057985,-0.054258,-0.074427,0.037769,-0.2924,-0.6571
0.25809,0.3296,0.4904,0.10291,0.11565,0.28426,0.39337,-0.027796
-0.53922,-0.0081588,-0.23043,-0.054208,-0.071235,-0.0062101,-0.22926,-0.34169
0.57592,-0.012319,-0.20476,-0.033411,-0.0102,-0.25681,0.027547,0.1206
-0.78396,-0.015762,0.193,0.071787,0.080203,0.21975,0.46831,0.28311
0.61997,-0.20321,-0.23921,-0.035033,-0.049565,-0.14586,-0.67329,0.21019
-0.12137,-0.18177,0.046985,-0.040722,-0.062895,-0.34374,0.26571,-0.12184
0.1217,0.073492,0.037695,0.00079599,0.02536,0.23831,-0.036355,0.33022
0.055867,0.32874,0.070458,0.043419,0.075327,0.20494,-0.12789,-0.40235
-0.19986,0.10684,0.076112,-0.021577,-0.029566,0.20737,0.091126,0.082728
-0.067537,-0.1017,-0.062117,0.009335,-0.015507,-0.34621,0.17385,-0.26081
0.059977,-0.22124,-0.047788,-0.0044013,0.00040336,0.045049,0.072053,0.43288
