0.0032069,0.017599,0.027061,0.013518,-0.00080493,0.0077287,-0.00080208,-0.011935
0.0033205,0.0027948,-0.0054091,-0.0023686,-2.0792e-05,2.498e-05,0.0066036,0.0039757
-0.012454,-0.012045,0.0013844,-0.002197,0.00046494,-0.0080474,-0.0095063,0.011668
0.018442,0.0042298,-0.0071118,-0.001624,0.00062223,-0.00081864,-0.0022158,-0.0044427
-0.0054824,0.0046525,0.016009,0.01486,0.00047069,0.0061871,0.0050914,0.0025961
0.0095811,-0.018646,0.00036498,-0.0076073,-0.015545,-0.0025189,0.0046645,0.0016281
-0.0066418,0.020274,0.00049815,0.0088989,0.0073716,0.0044592,-0.0034348,0.00056009
-0.015075,-0.03477,-0.030642,-0.021737,-0.0087708,-0.011813,-0.011341,-0.00052452
0.007713,0.011647,0.016164,-0.0058853,0.022096,0.011253,0.012229,-0.001557
0.0070186,0.0033999,0.023637,0.025172,-0.0014878,-0.004436,-0.0030295,-0.010296
0.0062654,0.0030777,-0.039473,-0.014445,-0.0091522,0.011408,0.0053609,0.012363
-0.010172,0.010692,0.02224,0.00039896,0.0069145,-0.0037917,-0.0017154,-0.003862
0.0046043,0.0027194,-0.0098008,-0.008238,-0.015844,-0.01108,-0.00089676,0.0035492
-0.011858,0.0024173,-0.0025755,0.0067062,0.0084078,0.0050529,-8.4687e-05,-0.0044572
0.0030118,0.0017437,0.0050472,0.014134,0.0092279,-0.0023671,-0.0071814,-0.0044492
-0.0053935,-0.015143,0.0053806,-0.0014968,-0.0057074,0.0056603,0.0011706,0.0035518
0.0098737,0.0063121,-0.0093715,-0.0089348,-0.0052688,-0.0021296,0.0014715,0.003883
0.0097979,0.011438,0.0075543,0.0073646,0.0026467,-0.0022666,0.0014936,0.004306
0.0021994,-0.023009,0.016867,-0.0074254,0.0023816,-0.0024923,0.0090336,-0.0030494
-0.012957,-0.010732,-0.0051734,0.0012159,0.009588,-0.0027154,0.00066478,-0.0026121
-0.0044916,-0.013761,0.0036217,0.0018809,-0.014711,0.0049662,-0.0079485,0.0055791
0.0040612,-0.023799,0.0039449,-0.0055478,-0.0078849,0.0049936,-0.0089253,-0.0097412
-0.0030263,0.10017,-0.04338,0.0023125,-0.0010291,-0.0026058,0.0056419,-0.0016875
0.0054006,-0.01663,-0.0054864,0.0020396,0.0060057,0.0055883,-0.0031968,-0.0014794
0.00583,0.00076961,0.016276,0.0015252,0.021149,-0.0017301,0.01155,-0.001267
-0.0017814,-0.019747,0.0066096,-0.01473,-0.010225,-0.0012019,-0.0047009,0.014602
-0.0096269,-0.016091,0.020568,0.0081047,0.013454,-0.0085328,0.0028123,-0.00074177
0.0057647,-0.0043716,-0.0040293,0.0076659,-0.025049,-0.00034817,-0.004939,-0.00044853
-0.0024129,-0.00067962,-0.0044726,0.0074928,0.0070042,0.0076949,-0.0045301,-0.00019024
-0.0028163,0.018054,-0.011956,-0.0079865,-0.0076569,-0.0078386,0.0039802,-2.2714e-05
0.0046556,-0.01871,0.012485,0.00029119,0.0090189,0.0077702,0.0048701,-0.0078038
-0.003345,0.021767,-0.0016902,0.0010305,-0.0055262,-0.00011886,0.0058307,-0.00011475
-0.0033205,-0.024517,-0.0079073,-0.013661,-0.0044626,-0.0080199,-0.0088909,-0.0081905
0.01256,0.022282,0.0091461,0.002992,0.0043533,-0.00027323,-0.00034587,0.0070766
0.0052061,0.0061207,0.0023369,0.0040014,0.013055,0.015321,0.00013391,0.0066853
-0.0098214,-0.033724,-0.0050477,-0.0029357,-0.0018625,-0.00031029,0.00032275,-0.009305
-0.0013597,0.035749,-0.005208,0.013317,-0.0014174,-0.0081342,-0.0075839,0.013835
-0.00074771,0.0037405,-0.005831,0.0057811,-0.001311,-0.00037169,-0.00010188,0.0058107
-0.0080579,-0.035916,-0.0066843,-0.0099991,-0.0094093,-0.0082975,0.0072143,-0.0021332
0.0079151,0.018373,0.00032546,-0.0028177,0.013338,0.0071463,0.0066287,-0.010011
0.00028142,0.0025324,0.015455,-0.011732,-0.011152,0.0069167,-0.0017907,-0.010024
0.00030065,-0.013172,-0.0080104,0.0023778,-0.012478,-0.0089466,-0.0023677,-0.0099847
-0.007629,0.0024454,0.023699,0.0083699,0.0016723,-0.0013324,-0.0028802,0.013551
0.0077688,0.010246,0.0010725,-0.0014279,0.015805,-0.0014476,0.0045101,0.0059028
0.015267,0.010158,0.0019732,0.0043885,0.0065925,-0.001457,-0.0036082,0.013936
-0.0085543,0.0021277,-0.020796,0.0025309,0.0053559,0.014257,0.0040486,-0.0014445
-0.0089882,-0.029494,-0.012846,-0.0068697,-0.011318,-0.0012161,-0.019352,-0.016857
-0.0016344,0.016877,0.017814,0.015356,0.0034351,0.0067544,0.012174,-0.0011204
-0.0098932,-0.014945,-0.0069769,-0.0088336,-0.012909,-0.0087588,0.01272,0.0066422
0.013157,0.007958,-0.0089505,-0.016878,0.0099483,-0.00090692,-0.017707,-0.0014185
0.0050658,0.015393,0.012199,0.0068869,-0.0061068,-0.0087331,0.006788,0.0059497
-0.0028778,-0.015968,-0.0056161,-0.0078457,-0.0063451,-0.0087303,0.00017808,-0.01027
0.0049716,-0.00011418,0.0083536,0.0092005,0.001482,0.0070193,0.0013866,-0.0031177
-0.010454,0.00046559,-0.0080149,0.011058,0.00962,-0.00043649,0.010244,0.0040764
-0.0023097,0.0013391,0.00020207,0.0053824,0.0024739,0.0080409,0.0031434,0.003612
0.013728,0.01801,0.0017937,-0.0080361,-0.0043507,0.001208,-0.012242,0.0033948
-0.0014645,0.011251,0.004394,-0.0060061,0.0046928,0.010234,-0.0047358,0.0034814
-0.016699,-0.042547,0.0076276,-0.004399,-0.001777,0.0037049,-0.013388,-0.011744
0.014847,0.01272,0.018796,0.0043874,0.0073264,-0.01078,0.0087724,0.004555
-0.00061259,0.0050966,-0.0095296,0.0045893,-0.015037,-0.0021892,0.0072238,0.0054251
-0.0084048,-0.010736,-0.023153,0.0039771,0.0013108,-0.0097527,-0.0022117,-0.0014253
-0.00071484,0.0043596,-0.014591,-0.013008,0.0016102,0.0055137,0.011906,-0.008297
0.0068482,0.0036377,0.016048,0.00067843,0.0093023,-0.0032335,-0.0049608,0.00032877
-0.001318,0.002881,-0.017038,0.0062278,-0.0067801,-0.0046109,-0.0058521,0.00092652
-0.0017523,0.010051,0.019304,-0.00387,-0.0074275,0.0015829,0.0014378,0.0012464
0.0055674,-0.013804,0.00054781,0.0019422,-0.00027002,-5.5276e-05,0.0090584,0.0090665
0.005039,-0.0061324,0.0053284,0.00049228,-0.00075179,0.014103,-0.0065002,-0.0068695
-0.0033091,0.0018009,-0.01278,-0.0080385,0.0068921,0.0051167,-0.0062554,0.00033403
-0.011624,0.0099205,0.0090362,0.0076665,0.0071041,0.0042704,0.0019171,-0.00052613
0.0035845,0.025921,0.024034,0.0084852,0.0076759,-0.0041046,0.0023607,-0.0015666
-0.012307,-0.036267,-0.014715,0.0020538,-0.014934,-0.020101,-0.0049211,-0.0026955
0.011075,-0.0048856,-0.013668,-0.01189,0.0094227,0.0030521,0.0035385,0.011819
0.011271,0.010621,-0.0043818,0.0054166,-0.0053748,-0.0050339,-0.0034747,-0.0047858
-0.0038952,0.0024331,0.0049921,0.0068145,-0.0048026,0.010301,0.0053095,-0.0055278
0.0046072,0.001862,-0.0014818,-0.015723,-0.0045938,0.010022,-0.0013764,-0.0059446
-0.010164,-0.0066007,0.0072136,0.00019448,-0.0047825,-0.013608,-0.00016184,0.0018293
0.006388,0.0084431,0.0075148,-0.00010624,0.010296,0.0020101,0.008836,0.009988
-0.0083329,-0.01536,-0.024026,-0.0086865,0.0016772,-0.0055284,-0.0057861,0.0028596
0.0002785,0.00022548,0.01425,0.013725,0.00073738,0.010718,0.0026833,-0.0040293
0.00091739,0.0083681,0.0053322,0.004877,-0.00020714,0.0038912,-0.0049592,0.0048106
0.001375,0.0012147,-0.011493,0.0040708,-0.0010495,-0.0026192,0.0024499,-0.0098339
0.0016621,0.033328,0.0030678,0.003686,0.0060958,-0.0089212,-0.0063471,0.0065872
0.0018145,-0.036104,-0.013288,-0.019598,-0.0021701,0.0004527,-0.0078329,-0.00071107
0.0018824,0.011458,0.025515,0.0045622,0.005416,0.0096923,0.013777,-0.0083305
-0.0058928,-0.019488,0.0023499,-0.0020155,-0.010209,-0.0048249,-0.0038006,-0.00062089
0.0019734,0.011562,0.010954,-0.00040168,-0.0099852,-0.0041922,0.0021724,-0.00093854
-0.0057377,-0.0047991,-0.026872,0.0013979,-0.0017293,0.011491,0.00067026,0.0064591
0.0022339,-0.0060079,-0.0096694,0.01878,0.0067358,-0.0046739,-0.00031823,0.006074
0.0024355,0.00026629,-5.5546e-05,-0.010991,0.0075677,-0.0057476,-0.00068821,-0.0019843
0.010454,0.014214,0.0096719,0.0056308,0.0085178,0.00060418,-0.00041673,-0.0020185
-0.0050156,0.0047861,0.0037874,-0.017435,-0.0061346,-0.0088451,0.0082526,-0.0018174
-0.004968,0.011226,0.021259,0.0056927,0.0025514,0.0052104,-0.0060508,-0.0014053
0.0027371,-0.021016,-0.023945,-0.0030676,-0.0046128,0.003944,-0.0044268,0.0069667
-0.0053615,-0.005913,-0.014735,-0.0045211,-0.0042923,0.0031682,-0.0026788,-0.0080398
-0.0058196,0.0018846,0.017546,0.0093432,0.0034604,0.0029917,0.0068357,0.00035379
0.0013987,-0.0054462,0.010311,-0.0003096,-0.0047782,0.0034295,0.00053638,0.00080978
0.0085378,0.018913,0.01038,0.0058015,0.0023241,-0.0034049,-0.0060553,0.0010754
0.0078515,-0.011074,-0.029136,0.004415,-0.0063481,-0.0020277,0.0026261,0.0089305
-0.00059561,0.0060178,0.0089961,-0.012169,0.00061245,-0.00042723,0.0031265,-0.0068698
-0.0089347,-0.00028956,-0.0079263,0.0029659,-8.7996e-05,-0.0065929,0.0032787,0.00059195
-0.0014956,-0.006734,-0.0094237,-0.0048929,0.0072716,-0.0050503,-0.012493,-0.015486
0.0061306,0.0099584,0.02033,0.0032399,0.014905,0.0040903,0.010566,0.007489
-0.017286,0.0027856,0.011224,0.011629,-0.0006703,0.0051354,-0.0055922,0.007108
0.0063841,-0.012695,-0.028762,-0.018911,-0.0083052,-0.0019507,0.0016104,0.0068827
0.0068063,0.0025837,0.01766,0.013066,-0.015934,0.0062539,0.0088069,-0.00095872
0.0073692,-0.0059844,0.0020716,-0.0019082,0.0075869,0.0063059,-0.0073811,-0.0086038
0.00018292,0.00080679,-0.0131,-0.0092046,-0.00030219,-0.0096067,-0.0078469,-0.0082797
0.00077556,0.007513,0.018876,0.0067791,-0.00053581,-0.0024115,0.0074373,0.0077554
-0.0065784,0.0065063,0.0040559,-0.00081993,-0.00086399,0.0044811,-0.00058183,0.0081645
-0.014152,-0.025497,-0.026518,-0.0085256,-0.0089962,-0.012315,-0.0006637,0.00067345
0.0092496,0.028785,0.005091,0.022778,0.022057,0.0019702,0.0071637,0.00083877
0.0011105,-0.0025009,-0.0028158,-0.0084146,-0.00136,0.016193,-0.0083931,-0.014813
0.00051533,-0.010032,0.0043782,-0.0083031,-0.0010711,-0.00076677,-0.00051302,0.00059812
-0.00029574,-0.0017295,0.01105,-0.00028953,-0.016147,-0.0097116,-0.00050175,0.00024163
0.014375,0.014456,0.0016486,1.426e-05,0.0080339,0.0051131,0.0072176,0.0076278
-0.010076,-0.0084834,-0.00025671,0.00040617,0.0010438,-0.010875,-0.0008222,-0.0005984
-0.0032524,-0.00033744,-0.01011,0.00083991,0.0018018,-0.0029261,0.0066271,-0.00092862
-0.0041324,-0.0080281,-0.0042627,-0.006574,0.0023485,0.0055223,-0.0094643,-0.0011328
0.0029828,-0.0081071,0.0018771,0.02494,0.0025613,0.006584,-0.0099664,0.0066066
-0.005285,-0.00051617,-0.007119,-0.0062836,-0.0054442,0.00010824,0.0052144,-0.0011789
0.010163,0.0070161,0.0079559,-0.014391,-0.0060453,0.0093202,-0.0028828,-0.0011079
0.0024604,0.030199,0.015917,0.016211,0.008646,0.0027272,0.0048901,-0.001057
-0.0049809,-0.0090266,-0.0067022,-0.0081922,-0.0080998,-0.012086,0.0051406,-0.0088928
0.0034102,-0.0012434,-0.0053386,-0.01717,-0.0014023,0.0037813,0.0056678,0.0066049
-0.0036918,-0.016739,0.0041815,-0.0027276,-0.0023065,-0.012232,-0.0014171,-0.0014381
-0.0029357,-0.0086191,-0.0018258,0.011914,0.0049883,-0.0053746,-0.0084292,-0.0017427
-0.0022189,0.0075127,-0.0079888,-0.012107,0.004966,-0.0067226,0.00010169,0.0057381
0.0061976,0.00042533,0.0010965,0.026909,0.0054562,0.015225,0.00058797,-0.0023822
0.0066329,0.0091796,0.0018346,0.0040012,0.0063777,0.0060515,0.00072937,-0.0026248
-0.0087603,0.0024763,0.017588,0.0050356,-0.0080577,0.012868,0.0082887,0.0050309
-0.00093397,-0.027621,-0.021942,-0.0092135,-0.0068127,-0.011047,-0.0079566,-0.0028556
-0.0011356,0.0046117,-0.0072838,-0.015522,-0.0057328,-0.0031485,-0.0088398,0.0049421
-0.0093507,0.020747,0.014851,-0.0062913,0.0028067,-0.0025597,-0.0020087,0.0049528
0.013504,0.012619,-0.0022078,0.0026839,0.0030551,-0.0016141,0.0049203,-0.010667
0.004952,0.0033152,0.01207,0.0034926,-0.0050357,0.0073056,0.012138,-0.002868
0.011898,0.0082095,0.011019,0.011737,0.0098133,0.00055931,0.0041683,-0.0028911
-0.012489,-0.011826,-0.036436,-0.011607,0.00082253,0.001413,-0.011096,0.0049233
-0.0056464,-0.025343,-0.0051657,-0.0039617,-0.00061538,-0.013682,-0.0024088,-0.0028123
-0.014353,-0.024041,0.026769,0.019133,-0.0021446,0.0021115,0.0067065,0.013017
0.0083822,0.00063613,-0.0031396,-0.004744,-0.011406,-0.0058613,-0.0073424,-0.0022341
-0.0076269,0.010515,-0.016854,0.0025896,0.0030045,0.0093577,0.00212,-0.0094868
0.015849,0.0064768,0.032335,0.0021141,0.0099559,0.00099786,0.0036284,0.0068743
0.00073837,-0.01859,-0.019864,-0.013948,0.0017072,0.0082175,-0.003018,-0.0078766
0.0095264,0.13101,-0.0018437,-0.0064969,0.0017155,-0.00016863,0.005461,0.00088769
-0.0047537,-0.06818,0.015813,0.008886,-0.0056719,-0.0085102,-0.0022745,0.0096547
-0.0031927,-0.022816,-0.029631,-0.0068189,0.0029191,0.0066213,-0.0027948,0.0027199
-0.0094136,-0.038312,0.017904,0.0011041,-0.003845,-0.0016753,0.0039777,-0.012179
-0.00016075,0.0016075,0.0020918,0.0092138,-0.01043,-0.0099851,-0.013054,-0.0038528
0.0087958,0.033484,0.0010835,0.001839,0.006513,0.0051286,0.0009997,0.0042186
-0.0060662,-0.013863,-0.0084295,0.010143,2.2744e-05,0.004633,0.0072969,0.0042024
0.0021124,0.062022,0.0050151,0.0027645,0.0012647,-0.0036015,-0.0017786,0.0039113
-0.0056836,-0.043938,-0.013003,-0.012588,0.010153,-0.011691,0.0051628,-0.0044474
0.0018884,-0.011502,0.0081124,-0.012543,0.0031669,0.0038647,0.0047439,0.0026018
0.0015051,-0.012295,0.0061207,-0.0049205,-0.004143,0.0040308,0.0047543,-0.0061348
0.0089019,-0.0067378,-0.0031542,0.0025296,-0.011825,0.012221,-0.010523,0.0084789
-0.007083,-0.0097659,0.0038392,0.0021063,0.0035479,0.0049158,-0.002159,-0.0081552
0.0082952,0.018414,0.0036841,0.017378,-0.0048603,-0.010199,-0.0015432,-0.0012503
0.00037721,0.039379,0.0041298,0.0015794,0.0020972,0.0057965,-0.00097966,-0.0019566
0.00042207,0.022316,-0.010572,-0.013978,0.0011019,-0.009719,-0.00054059,0.013251
-0.015006,-0.056038,-0.0015135,0.0019462,0.0079131,-0.0021208,-0.00024827,-0.0024394
-0.0068428,0.0073498,-0.015726,0.010215,-0.00077997,-0.0026406,0.0077304,-0.0099412
0.0014739,0.0090462,0.024775,0.0028934,-0.0014389,-0.0033637,4.7226e-06,0.0063495
0.0099311,-0.0045142,-0.020749,-0.012347,-0.0018144,0.0036884,-0.0077483,-0.0083251
0.0028633,-0.010371,0.0038564,-0.0043825,-0.0018875,0.0030822,0.0001344,0.0084183
0.011442,-0.0011381,0.020388,0.0032673,-0.0016804,0.0028017,0.0080377,0.0017397
-0.011322,-0.00056652,-0.0024724,0.002764,-0.0012482,0.0029556,-0.0074987,-0.0050945
0.012567,0.0068048,-0.0022836,-0.013674,0.014957,-0.0042504,0.0081623,0.011188
-0.0029451,0.0053417,-0.0025183,0.0087147,-0.0078396,0.004543,0.0080825,-0.0042321
-0.011049,0.0029867,-0.003176,0.015335,0.00059103,0.013553,-0.007793,-0.0045488
-0.011731,-0.007835,-0.01202,-0.017161,-0.01451,-0.016483,-0.0082393,0.0024373
0.0029196,0.0044351,-0.0055122,0.012859,0.0014938,0.00017562,-0.001049,-0.00661
0.001826,0.0010736,0.032115,-0.0039358,0.0095074,-0.0069342,-0.0095923,-0.0080739
-0.0069921,-0.0097758,-0.023973,0.010607,0.009518,0.0011805,0.0052967,-0.001726
0.023534,0.0034244,0.013883,-0.0059885,-0.0062836,0.001102,0.012484,0.012671
-0.0080283,-0.0059879,-0.010436,-0.014623,0.0011847,-0.0070719,0.0042561,0.0040673
0.015546,0.01679,0.0047115,-0.007424,0.00071163,0.008054,-0.0037006,0.011654
-0.0073729,-0.014175,0.0046599,6.2206e-05,-0.015455,-0.00024255,-0.0035652,-0.0035943
-0.014438,0.010388,-0.0028131,0.015731,0.0074564,0.015036,0.004621,-0.010482
0.0019604,0.0043453,0.0056532,0.0083965,0.0070422,-0.0085418,-0.0026577,-0.0013193
0.002555,-0.016935,-0.0012903,0.001517,-0.0087846,0.0071523,-0.0020594,-0.0075239
0.01062,0.032207,-0.00030564,-0.0049416,0.0069349,-0.0082431,-0.0093021,0.0019753
-0.012998,-0.028177,-0.030539,-0.011071,-0.0082509,-0.0079329,-0.0010247,0.003571
-0.0057953,-0.0029816,0.025135,-0.0013833,0.0081547,0.00018593,0.0070952,0.0049296
0.0010641,-0.0095284,-0.013016,0.0083297,0.0014013,0.00042163,0.0072168,-0.0018775
0.0077332,-0.0010041,0.019032,-0.0055432,-0.005195,0.00055051,0.0071463,-0.0013091
0.0065829,0.02259,0.0040434,0.011524,0.0038251,0.0083819,-0.0087277,0.0065858
-0.010023,-0.0012103,-0.0033521,-0.010912,-0.0029747,0.00050223,-0.0013089,-0.0016419
0.0049238,0.013593,-0.0032187,0.0051857,0.0054805,-0.0074223,-0.009606,-0.0025246
0.0046176,0.0045743,-0.019046,-0.0027157,0.0056225,0.0080928,0.0055155,0.0040114
-0.010949,-0.02817,0.027273,-0.0033416,-0.010418,-0.0075964,-0.0027369,-0.020982
0.0050208,0.0014279,0.0029631,0.011201,-0.0035435,0.00022899,0.0047792,0.0085771
0.0055243,-0.0080273,-0.021562,-0.013647,-0.0048776,0.00033251,0.0046886,0.0069105
-0.0017781,0.0061642,-0.0070786,0.0082142,0.0014052,0.00051821,-0.0029786,0.0054192
-0.0014042,0.0051444,0.0075478,-0.001165,0.007729,0.0007545,-0.0026076,0.0042268
-0.0012698,-0.0031035,-0.0087386,-0.0025521,-0.0091172,0.0009895,-0.0020621,-0.01221
-0.0014174,0.0049523,0.022332,0.0041947,0.0057229,0.0089711,0.0063864,0.0030154
-0.0096324,-0.0019543,-0.0085656,-0.0042675,0.0054506,-0.014429,0.0070115,-0.0047994
0.0054236,0.0072858,0.0078772,-0.0044672,0.013474,0.0088631,-0.015911,0.0033512
0.004816,-0.0066434,-0.0066512,0.003563,-0.0093932,-0.0071143,0.0078564,-0.0038706
-0.0035063,0.018431,0.017887,0.011915,0.0069797,0.00015362,0.00015106,0.012491
0.0040062,-0.011584,-0.012566,-0.0029915,-0.015725,0.0072864,-0.0077654,-0.0023637
0.0039776,0.0045907,0.0032788,-0.002261,-0.0073466,-0.001246,0.0076011,-0.0094755
0.004219,-0.011339,-0.02069,-0.001677,0.00078499,-0.0018863,-0.0083485,0.0066985
-0.010958,-0.012506,0.0014395,-0.0013602,0.00086444,-0.010134,-0.00082778,-0.0085803
-0.0025982,-0.014377,0.007302,-0.0091833,0.00078232,-0.0024475,0.0068097,0.0071725
0.013544,0.022403,-0.0028232,0.0061133,0.0084668,0.013424,0.006798,-0.00071281
-0.0095265,0.012265,0.010498,-0.0022725,0.00059133,-0.0015856,-0.00086744,-0.00094235
-0.001583,-0.0053628,-0.014841,0.0048362,0.00066148,0.00714,-0.0084307,-0.0012696
-0.0017239,0.0088743,0.0074385,-0.0036828,0.00086707,0.0082153,0.00745,0.0061794
0.0056959,-0.0073574,0.0072432,0.0035302,0.0011422,-0.014159,-0.00021204,-0.0097924
-0.010504,-0.014977,0.00025644,0.010919,0.0013708,-0.0054718,-0.0080786,-0.0022736
0.0044669,0.017146,-0.0058257,-0.012751,-0.0063922,0.0028788,0.0072268,0.013128
0.011661,0.010665,0.019979,-0.0050143,0.0089931,-0.0048189,-0.0089872,0.0051628
-0.0044409,-0.01125,-0.01645,0.010622,-0.015026,-0.005142,0.0058377,-0.0027371
0.0031162,0.013648,0.0016764,0.010643,-0.00029651,0.0097771,-0.0028736,-0.0027609
-0.012497,-0.039827,-0.011935,-0.012825,-0.0014006,0.00098498,-0.0037255,-0.018333
0.011228,0.007925,0.0049649,0.0027028,0.005267,0.0076844,0.0034308,0.0052621
-0.0038565,0.00066944,0.0053988,-0.013047,-0.0035381,-0.0012253,0.0030918,-0.0022487
-0.010926,0.00099848,-0.010583,-0.005299,0.011423,-0.002165,0.0031374,0.0060396
0.013385,0.024663,0.0040782,0.0026279,-0.0044158,-0.0028244,0.0035663,0.014505
-0.0013193,-0.0063474,-0.005034,0.0030296,0.0036756,-0.0031061,-0.0035043,-0.00032755
-0.0082565,0.00178,0.0014419,0.019406,0.0044041,-0.010757,-0.010387,-0.0072892
0.0081061,-0.0056413,0.015962,-0.0029445,-0.0023459,0.013313,0.014012,0.0013207
0.00081088,0.010396,0.0074662,0.006195,-0.0089221,-0.0012328,-0.0085885,-0.0058677
0.0010466,-0.020507,-0.016143,-0.0080257,0.00012933,0.00021484,-0.00018943,-0.0055177
0.00097309,-0.0046831,0.007621,-0.006736,-0.0065926,0.0018913,7.0522e-05,0.010125
0.00060674,0.018751,-0.0072717,-0.005736,0.0020541,-0.0042072,-8.1387e-06,-0.0058169
-0.0078008,0.0029135,0.0093512,0.010482,0.010389,0.0051345,0.0074392,0.0014022
-0.008518,-0.013091,-0.012977,-0.012801,0.0027848,0.0062563,-0.0087322,0.00063921
-0.0014136,-0.013562,-0.01971,0.0025906,0.0027176,0.0067875,-0.00151,0.0076577
0.0058303,0.0093948,0.012467,-0.0057217,-0.020993,-0.016815,-0.0020018,-0.0086459
0.013314,-0.0066617,0.0053319,0.0092875,0.0098616,-0.0098623,0.0055363,-0.0012684
0.0054594,0.024216,0.021297,0.0086957,0.0016143,0.0043253,-0.0022619,-0.0013723
-0.0021238,0.016043,0.0055987,0.00040892,0.001208,0.0025305,0.013674,-0.0011174
-0.0095073,-0.015647,-0.018387,7.958e-05,0.00087349,0.00066303,-0.0013977,0.015081
-0.0011719,-0.00064325,-0.0038161,-0.00014395,0.00062339,-0.00098196,-0.0085219,-0.0075694
-0.0084809,-0.001512,0.0024607,-0.0081612,0.00044188,0.0056547,-1.8499e-05,0.0010883
0.0075341,-0.026057,-0.022903,-0.008452,0.00029192,-0.0027166,-0.0072682,0.0018151
-5.9592e-05,-0.0038664,0.014007,0.01452,-0.0076858,0.0051732,0.00087588,-0.0055532
-2.597e-05,0.0027419,0.019661,-0.0017911,-9.7815e-05,0.0057737,0.0087304,0.0023033
0.0076607,0.025237,-0.013501,-0.0026809,0.0074,-0.0011337,0.00066314,0.0019023
-0.00038223,0.0013213,0.00070882,-0.0036944,-0.00082754,-0.00019996,-0.0076613,-0.0067152
-0.016274,0.0014354,0.015625,0.003114,-0.0013294,-0.0073217,-0.00054358,-0.0078036
0.0069279,-0.0056524,-0.023299,-0.0055315,0.005931,0.00073081,0.0064835,0.0066271
-0.001041,-0.0044182,0.0011728,0.0017773,-0.010242,-0.015205,-0.0021118,0.0055247
0.0067166,0.0049384,-0.0047688,0.001723,-0.0029098,0.0073936,0.0049993,-0.0031218
0.014567,0.0065377,0.013392,0.0099836,0.0045509,-0.0094596,-0.003378,0.0042425
-0.0087727,0.00012654,0.0085073,-0.0047218,0.0043716,0.020387,-0.0037787,0.0042142
-0.016474,-0.030117,-0.011962,-0.0034457,-0.0034324,0.0034227,0.0037985,-0.0032624
0.0070455,0.025082,0.014099,0.0058174,-0.0032562,-0.0054462,-0.0041021,-0.002693
-0.0085543,0.0016774,0.00038782,-0.00058713,0.012658,0.0017473,0.0037385,0.0057465
0.0070334,-0.022083,-0.01432,-0.0072473,-0.0026406,-0.0061747,-0.0039642,-0.0093743
0.006948,0.00086837,-0.014555,0.0012929,-0.0023588,0.0098383,0.0040096,0.0064881
-0.00096995,0.00043137,0.015312,0.0093155,0.0056293,-0.0049819,0.0042026,-0.0014281
-0.0010611,0.015843,-0.0026711,-0.01443,-0.0099498,-0.0038855,-0.0033887,-0.001859
0.0067095,0.015944,0.0021229,0.00046367,-0.01001,-0.0026405,-0.0031257,-0.010328
-0.008875,0.0085365,0.006668,0.0072876,-0.0022973,-0.0091973,-0.0027915,-0.003227
-0.0087224,-0.022113,-0.0042153,-0.0093744,0.0054636,0.015389,-0.0023488,0.019647
0.0071922,-0.01367,-0.014489,0.0053732,0.0055415,0.00071513,0.0060498,-0.0040125
-0.00017725,-0.0053761,-0.000397,-0.002991,0.013608,-0.0064048,0.0067977,0.0040652
0.00042159,0.018252,0.03043,0.012502,-0.0015931,0.0096215,-0.0079274,-0.0029294
0.0089723,0.0024539,-0.00011504,0.0128,0.0067566,0.0019149,0.00089192,-0.0093978
-0.0058123,-0.021506,-0.014042,-0.017792,-0.01612,-0.0060625,0.0019251,0.0079826
0.0028876,0.016774,-0.0038012,-0.0012704,-3.3665e-06,-0.0064461,-0.0049364,0.0021532
-0.0040575,0.0080679,-0.00098149,-0.00027737,-0.0074599,-0.0069738,0.003623,0.004142
-0.011092,-0.016203,-0.0059421,-0.0071259,-0.0072631,0.00025235,-0.0037616,-0.0097138
0.01297,0.0066255,0.012241,0.0015349,0.0084196,0.015314,0.019699,-0.00054533
-0.0022366,-0.0014507,-0.0013701,-0.0055826,0.00057387,-0.00079003,-0.0041536,-0.00755
-0.0020602,-0.0013091,-4.8447e-05,0.010589,0.0083134,0.0066591,-0.020599,0.0082748
0.0056687,0.0070369,-0.0072687,0.011022,0.0082318,-0.0014015,0.0017184,0.007885
-0.0024845,0.0078798,0.00047298,-0.0042439,0.0003277,-0.017183,-0.0073494,-0.0008188
0.0047571,-0.022353,-0.00011381,-0.0039222,-0.0076174,0.0061571,0.0070817,-0.0098834
-0.0038043,0.025553,0.014604,-0.0036207,-2.3451e-05,0.0060926,0.01395,0.0042988
-0.004655,-0.020435,-0.017669,-0.011156,-0.0081772,-0.009575,-0.0022308,-0.0049729
-0.0055137,0.0036214,-0.0030028,0.01251,-0.0086508,-0.0017761,-0.010154,0.0015159
0.0093428,0.0038963,0.02748,0.0048314,0.0063945,0.0060714,0.013581,0.00043664
-0.0068754,-0.027442,-0.019916,-0.010809,0.01358,0.0061778,0.0063482,-0.00034683
0.00057123,0.026825,0.0032309,0.012406,-0.010456,-0.0014406,-0.01641,0.014783
0.0082494,0.010514,0.0030958,-0.0036952,0.0046742,-0.0011556,-0.00020411,0.0067068
0.00048516,0.0018334,0.0030036,0.011185,0.0043426,-0.00079028,0.00010705,-0.0090315
0.0084337,-0.022563,-0.012791,-0.01324,-0.0036074,-0.0081771,4.5434e-05,-0.024701
-0.0070867,0.0077245,0.0024882,-0.014395,0.004264,0.0079113,0.0074099,0.0065156
0.00068417,-0.00097136,0.0019109,0.0078395,-0.003314,0.0083951,-0.0011578,-0.0013441
-0.015209,0.0061132,0.0011072,-0.0088942,-0.010752,-0.0067333,-0.01769,0.0064126
-0.00010437,-0.0022038,0.0079585,0.013664,-0.0024667,-0.014033,0.0048859,0.0063664
0.0069736,-0.0024303,0.0069678,0.0052991,0.013688,0.0021284,0.0042645,0.0063424
-0.001699,-0.010158,-0.017319,0.005107,-0.001389,0.010508,0.0040302,-0.0014796
0.0052455,0.0058642,-0.017837,-0.0025726,0.0069528,-0.0045298,0.0042466,-0.0015053
0.0044867,-0.0012781,0.0134,0.0056066,-0.0081935,0.011672,0.01269,-0.0015937
-0.0038846,0.015206,0.0062015,-0.0095369,-0.0077909,-0.0034432,-0.0098283,-0.017417
-0.0041972,0.00050553,0.007476,-0.0090514,0.0081446,-0.0030705,-0.00099803,0.0056821
0.0035461,-0.006461,0.0015244,-0.0086342,0.00054737,0.0049074,-0.0078994,0.013012
0.011488,0.0019811,-0.0040244,0.0073222,0.00067721,-0.018621,-0.0072718,-0.0032111
-0.011694,-0.0055178,0.0061833,0.0076035,0.00074299,0.01227,0.00077227,0.0039496
-0.0035778,-0.0055551,-0.0072319,0.0079061,-0.0070396,-0.0039455,0.0083902,-0.0044837
-0.0032907,0.0019125,-0.0055173,-0.0073134,0.00079523,0.0031267,7.9171e-06,-0.0049748
-0.0030616,-0.0064354,0.0032636,0.0010724,-0.006982,0.002354,-0.00082268,-0.0052389
0.012722,0.0086319,-0.012291,-0.0059716,0.016509,0.0016823,0.0060503,0.0026153
0.0050095,0.016047,0.010287,0.0027818,0.00094379,-0.0065746,-0.00265,0.010819
-0.010547,-0.023096,0.0007787,0.0038212,0.00098044,-0.0066963,-0.0033411,-0.0040706
