-0.10824,-0.2449,-0.080683,-0.026857,-0.0045245,0.0045769,-0.013978,0.0034474
0.22743,0.043887,0.083803,-0.042739,0.026926,-0.001576,0.018867,0.05244
-0.27312,0.26322,-0.069989,-0.025881,-0.0035078,-0.0076737,-0.00278,-0.023166
0.013175,0.091069,0.12992,0.0076958,-0.010065,-0.013951,-0.0010139,0.0028542
-0.13334,-0.34939,-0.00429,0.15108,-0.016437,-0.012777,-0.03071,-0.072999
0.1159,0.034143,-0.035882,-0.19802,-0.030713,-0.0042592,-0.0060611,0.022386
0.46591,0.092582,0.065325,0.030089,0.04062,0.035013,0.041626,0.054416
-0.62707,-0.25183,-0.13937,-0.063354,0.0020925,-0.0042994,-0.004828,-0.039488
0.15347,0.010042,0.02082,0.091982,0.0020881,0.010695,0.0030716,0.0063642
-0.18037,0.10677,-0.0095828,-0.034809,-0.021838,-0.0058378,-0.01271,-0.0031546
0.086245,0.095218,0.042535,0.10372,0.0164,-0.014712,-0.0051942,0.018161
0.26866,0.19602,0.044558,-0.046471,-0.00016582,0.0076428,0.0022848,0.00030499
0.094716,0.043191,0.059689,-0.0082145,0.0068409,-0.008941,0.0020028,-0.0095433
-0.19384,-0.31601,-0.16095,-0.14829,-0.017025,-0.0096354,-0.0059773,-0.018932
0.065074,-0.022614,-0.014423,0.1194,-0.0090767,-0.0021348,0.0018108,0.0035846
0.11061,-0.1167,0.016335,-0.010012,-0.00047161,0.021443,0.033174,0.026867
-0.38871,0.14252,0.041953,0.11927,-0.0068699,-0.0092137,-0.021298,0.019677
0.15791,0.12851,0.032037,0.03784,0.065307,0.03863,-0.0054015,-0.033691
0.053111,0.097613,0.033761,-0.18472,-0.018604,-0.022669,-0.012933,-0.024028
0.038298,-0.068569,0.046819,0.052545,0.0066663,0.0020253,0.010765,0.017181
-0.20647,-0.15984,-0.12495,-0.14917,-0.054544,-0.028082,-0.0046329,-0.0040982
0.030983,0.081486,0.056319,0.1007,0.00062101,-0.011556,-0.012255,-0.010053
0.010009,-0.18003,-0.051375,0.036768,0.015783,0.02029,0.026957,0.038067
0.13816,0.072292,-0.027448,0.0032363,0.0066076,0.012764,0.019233,0.069684
0.048841,0.089752,-0.021409,0.25845,0.020166,-0.010656,-0.035464,-0.1263
0.14013,0.022047,0.083181,-0.30646,-0.036976,0.012584,0.011255,0.06728
-0.1673,-0.083077,-0.0031343,0.012093,0.015241,-0.011219,-0.012528,-0.060308
0.062372,0.11061,0.063351,-0.035609,0.01312,0.019528,0.010354,0.022575
-0.10218,-0.053486,-0.060818,-0.090102,-0.011792,-0.012348,0.0017982,0.019597
-0.083872,0.33793,-2.8817e-05,0.16092,-0.012441,-0.0052688,0.016557,-0.0061378
-0.33593,-0.37232,-0.01899,0.14665,0.019028,-0.013892,-0.039009,-0.054098
0.47073,-0.059938,0.00064949,-0.15714,-0.0034217,0.0087201,0.0071087,0.0010461
0.11922,0.11861,-0.049172,0.34239,0.037182,0.015786,-0.0012056,0.010886
-0.14588,-0.36754,0.043798,-0.4181,-0.046947,-0.00038672,0.014275,0.14699
0.052937,0.39655,-0.0083678,-0.095361,-0.0061108,-0.00060724,0.03797,0.096269
-0.25092,-0.072488,-0.0095913,0.091869,-0.0046408,-0.031642,-0.047339,-0.29046
0.09243,0.054292,0.079444,-0.04334,0.019768,0.0081317,0.00043102,0.056414
0.075664,0.14433,0.086536,0.41412,0.02795,0.017134,0.017061,-0.051131
0.065344,-0.26376,-0.18451,-0.19849,-0.058227,-0.012562,-0.028886,0.019504
-0.11209,0.016397,-0.024065,-0.12198,0.050371,0.036017,0.034286,0.10435
0.11896,0.1942,0.035039,-0.19106,-0.036753,-0.0092948,-0.02013,-0.038443
0.036777,0.025895,0.030254,0.15761,0.016498,-0.0081964,0.01091,0.01346
-0.025596,-0.083469,0.085146,0.26817,-0.016275,-0.015666,0.010219,0.041801
-0.16422,-0.29842,-0.066947,-0.086101,0.021325,-0.00064998,-0.022114,-0.077987
0.01024,0.23304,0.057892,0.031669,0.020042,0.013362,0.015645,0.045051
-0.08036,-0.12842,-0.0088335,-0.27013,-0.020032,-0.012581,-0.032523,-0.073259
0.1121,0.079989,-0.1177,-0.02388,0.018365,-9.4194e-05,0.0055079,-0.026603
0.19146,0.0009083,-0.056151,0.066136,-0.052202,-0.011309,0.012767,0.067753
-0.050306,0.14384,0.076211,0.41293,0.018321,0.024494,0.044079,0.068966
-0.17263,-0.029276,-0.046804,-0.45315,-0.035663,-0.0094955,-0.064602,0.031401
-0.24313,-0.018291,0.084078,0.021811,0.051441,0.027632,0.045982,-0.11563
0.33383,-0.081708,0.03196,0.10283,0.021707,-0.020221,-0.022838,0.01033
0.059004,0.20105,0.015128,-0.062075,-0.023518,-0.012421,0.0020708,-0.028464
0.13503,-0.17941,0.039877,0.16754,-0.029846,0.0040363,0.018824,-0.036817
-0.18973,-0.20901,-0.036708,0.01063,0.07271,0.005504,-0.027532,0.0478
-0.13646,0.095421,-0.0062857,0.12422,-0.036443,0.015166,0.011284,0.092717
0.073359,0.09249,0.0038262,-0.25585,0.017559,-0.0062859,-0.013173,-0.050279
0.28878,0.26632,-0.086001,0.044473,-0.023027,-0.0043598,0.032064,0.14254
-0.28888,-0.13288,-0.033886,-0.33145,-0.025081,-0.02605,-0.032396,-0.18004
0.027018,-0.081064,-0.010681,0.017635,-0.074037,-0.0088962,-0.0030431,-0.048845
-0.29465,-0.18667,0.087376,0.26583,0.088511,0.023685,0.0033364,-0.0024982
-0.02647,-0.01111,-0.041425,0.12502,0.025599,0.024867,0.0027053,-0.0093678
0.614,0.29827,-0.018884,-0.1088,-0.074944,-0.013126,0.010888,0.07917
-0.23937,-0.10924,0.0093844,0.10053,0.099391,-0.012165,-0.0033537,0.044233
0.078061,-0.1395,0.19376,0.11569,0.0092081,0.043342,0.037925,0.018119
-0.12902,0.1292,-0.19939,0.12662,0.02109,-0.049785,-0.029678,-0.023457
0.28736,0.28986,0.22,-0.30141,-0.060997,0.013097,-0.011269,0.074747
-0.31404,-0.22901,-0.065352,0.17958,-0.018957,-0.0023959,0.030243,-0.078811
-0.12896,-0.25686,-0.27666,-0.7754,-0.071957,-0.010277,-0.038254,-0.00032451
-0.094859,0.06444,0.091088,0.18663,0.029904,0.0051814,0.0018587,-0.21327
0.14037,0.19498,0.14456,0.38198,0.021215,0.012868,-0.0056156,0.032871
0.17144,-0.029598,-0.063822,-0.082482,-0.0038534,-0.018327,-0.013594,0.25468
0.19484,-0.015234,0.065958,0.42389,0.064554,0.0054489,0.0094582,-0.10923
-0.022684,0.082726,-0.037133,-0.3206,0.023709,0.037361,0.048186,0.012441
-0.33955,-0.25778,-0.091717,-0.054909,0.014464,-0.008568,-0.0066185,0.010905
-0.16134,0.050848,-0.0031756,-0.059152,-0.12721,-0.06214,-0.045568,-0.082545
0.19983,0.24469,0.026773,0.46263,0.020446,0.024915,0.017131,0.13785
0.20494,-0.19821,0.02324,-0.49999,0.04318,0.057095,0.079664,0.1634
-0.083784,0.051293,0.12851,-0.060011,-0.0045069,-0.036088,-0.06918,-0.36627
-0.01068,-0.092395,-0.038809,0.33327,0.064767,0.018674,0.007899,0.10265
-0.10778,0.19066,-0.040227,-0.18311,-0.15528,-0.059932,-0.032888,-0.039666
0.21782,-0.045896,-0.12523,-0.12747,0.022928,-0.021898,-0.035137,0.066203
-0.20646,-0.022393,0.073371,0.56908,0.10731,0.078158,0.040545,0.014559
0.17361,0.13437,-0.085484,-0.61694,0.012059,0.013777,0.014892,-0.045245
-0.20459,-0.22581,0.10051,-0.090551,-0.06741,-0.01962,0.013305,-0.010598
-0.22376,-0.16687,0.075585,0.2989,-0.0060541,-0.014124,-0.0030052,-0.021191
0.22575,0.13833,0.010511,0.27293,-0.022634,-0.055588,-0.01835,0.2439
0.24569,0.18151,0.1153,-0.16562,0.062493,0.090439,0.037418,-0.23858
0.211,0.12675,-0.2511,-0.40489,0.046152,-0.0056461,0.0076907,0.13263
-0.45672,-0.34591,-0.018152,0.30697,-0.063863,-0.039048,-0.045498,-0.11971
0.085814,0.10012,0.010482,0.18188,-0.064386,0.0059909,0.018017,-0.0042795
0.049092,0.286,-0.007295,-0.12377,0.060312,-0.010999,-0.013058,0.14205
-0.25466,-0.42794,-0.0070117,-0.16534,-0.041186,-0.011742,-0.037337,-0.087764
0.033875,0.045209,0.060042,0.17311,0.053135,0.011691,0.015515,-0.053642
0.2664,0.096964,-0.023661,-0.2351,-0.016027,0.043715,0.020698,-0.05271
-0.049086,0.0013983,0.093693,0.10037,-0.0065242,-0.025104,0.025403,0.094754
0.064071,0.10257,0.1378,0.27139,0.089289,0.02382,0.029993,0.068694
0.027693,0.064487,-0.12758,-0.02847,-0.096046,-0.020689,-0.043309,-0.021118
-0.3381,-0.089714,-0.087752,-0.58201,-0.023785,-0.033906,-0.037955,0.013281
0.067999,-0.055735,0.043729,0.24235,0.071414,0.015163,-0.0006025,-0.061996
0.35522,0.10368,-0.063455,0.46715,0.03312,0.024762,0.05326,-0.066783
-0.09358,-0.22861,0.04248,-0.064351,-0.11526,0.026036,0.045554,0.093107
-0.29368,-0.10687,-0.10746,-0.36004,-0.068923,-0.098216,-0.11751,-0.074162
0.029028,0.047664,0.11256,0.041444,0.13331,0.050503,0.0092398,-0.044936
0.20365,0.61071,0.0011611,-0.23399,0.03077,-0.0042656,0.027164,0.12613
-0.034256,-0.44061,-0.009723,0.29159,0.0065453,0.042273,0.053168,0.29047
0.10559,0.10485,-0.019311,0.31519,0.029573,0.0027047,0.00099568,-0.41157
-0.28195,-0.08118,-0.0099577,-0.059708,-0.17348,-0.060417,-0.043733,0.082236
0.038336,-0.21015,0.043146,-0.3545,0.038027,0.040436,-0.0031463,-0.12676
0.22315,0.34212,0.19524,0.15938,0.10154,0.00059887,0.013243,0.08637
-0.024435,-0.17539,-0.17898,-0.36781,-0.045584,-0.0080109,-0.01017,0.12796
0.013761,0.032946,-0.057104,0.26063,-0.036349,-0.040009,-0.010704,-0.025266
-0.43679,-0.23735,-0.12038,0.045352,-0.019461,0.014077,-0.0036747,-0.052823
0.12237,0.48102,0.07465,-0.076548,0.11416,0.013732,-0.012149,-0.040528
0.46284,-0.37581,0.080733,0.29963,0.01267,0.037172,0.050157,0.10539
-0.0189,0.36296,0.067948,0.13219,0.0040414,-0.0014875,-0.0040134,-0.1464
-0.012151,0.0015256,0.15203,-0.31651,-0.075765,-0.00067708,0.028551,0.1883
-0.40104,-0.24879,-0.26947,-0.1514,-0.11711,-0.085435,-0.094423,-0.12514
-0.084568,-0.089665,0.076718,0.038768,0.044543,0.048854,0.087764,0.16293
0.21099,-0.057649,-0.050927,0.0023049,0.058217,0.034904,-0.011162,-0.33071
0.072644,-0.032302,-0.16659,-0.026706,0.00256,-0.033658,-0.079073,0.03405
-0.14642,0.20858,0.083295,0.41382,0.010675,-0.024174,0.024306,0.045618
0.46967,0.14451,0.12277,-0.27534,0.090313,0.047551,0.048697,0.24228
-0.49928,-0.24609,-0.0071509,-0.23165,-0.048017,0.0016248,0.0017384,0.17011
0.2371,0.15422,0.038664,0.25922,0.01687,-0.021528,-0.022869,-0.054354
-0.17974,-0.062207,0.073326,-0.35435,-0.098612,0.024805,0.021834,-0.47819
0.25835,0.34403,-0.0048607,0.39081,0.034588,-7.967e-05,-0.01237,0.12563
-0.13629,-0.2323,-0.048142,0.050363,-0.076038,-0.041453,-0.039206,-0.054181
-0.23143,-0.27154,-0.096533,0.19424,0.085222,-0.0053863,0.012058,0.10925
0.16731,-0.011266,-0.1588,-0.45264,0.065731,0.038113,0.0012373,0.063399
-0.050697,0.10894,0.053296,0.036947,-0.10248,-0.03557,0.014659,-0.041297
0.23801,0.12745,0.054704,0.011699,-0.043523,0.02396,0.044781,0.20284
-0.10105,-0.064483,-0.014623,0.2033,0.079367,-0.0095257,-0.041108,-0.14893
-0.061639,-0.027642,0.3211,-0.054432,-0.014508,0.012617,0.006907,-0.018915
0.065968,0.013778,0.014047,-0.13783,0.050018,0.027935,-0.022359,-0.080233
0.13286,0.11703,-0.21019,-0.2505,0.046125,-0.002741,0.011351,0.087148
-0.23545,-0.21553,-0.071141,0.037545,-0.10492,-0.040572,-0.009571,-0.034454
0.072065,0.346,-0.06914,0.64902,0.033548,0.015728,0.039468,0.17806
-0.19197,-0.24425,-0.024157,-0.0086277,0.015392,-0.029422,-0.013735,-0.14391
-0.18056,-0.2205,0.064831,-0.34801,-0.058499,0.0034582,-0.020939,-0.10263
0.26576,0.14307,0.13689,-0.18779,0.0068152,0.043928,0.010008,-0.049548
0.54016,0.087192,-0.0014838,0.2551,-0.0387,-0.033058,-0.022331,0.12551
-0.528,0.33647,-0.082896,-0.40809,0.016156,-0.00091855,-0.00050592,0.041056
0.068765,-0.25183,0.065923,0.32435,0.12496,0.054467,0.028952,0.018883
-0.0074337,0.039179,-0.077643,0.070739,-0.078992,-0.046508,-0.0039141,-0.049009
0.052739,-0.29951,-0.021271,-0.30936,0.029735,0.016555,0.0027636,-0.060054
0.097053,-0.057221,-0.031157,0.20642,0.0060882,-0.014076,0.002312,0.1425
-0.096937,0.11835,0.094638,0.44385,-0.16548,-0.08365,-0.036442,-0.074193
-0.11805,0.20532,0.13574,-0.21763,0.20244,0.12818,0.058334,0.094127
0.055642,0.14322,-0.081529,-0.31309,-0.085678,-0.042664,-0.033805,-0.13449
-0.044483,-0.31583,-0.16039,-0.080397,0.079251,0.052196,0.022899,-0.02645
0.044264,0.056579,0.10888,0.42335,-0.03741,-0.032652,0.0017059,-0.012111
-0.073535,0.066438,0.006975,-0.27136,-0.13116,-0.070767,-0.058463,0.087711
0.12145,-0.11372,-0.028365,0.0085141,0.086977,0.023681,-0.0092632,-0.00071482
-0.10928,0.2114,-0.09778,0.10969,0.046735,0.039671,0.047682,-0.043131
0.17477,-0.13069,0.011072,-0.51043,-0.064272,-0.0072192,0.0029359,0.16359
-0.048041,-0.10202,0.034114,0.48889,0.058788,0.023622,0.0048399,-0.091426
-0.050899,0.1242,0.050817,-0.05982,-0.0058396,-0.039668,0.014178,-0.18311
-0.022568,-0.055036,0.10892,0.034114,-0.039333,-0.0095518,-0.031747,0.029165
0.096897,0.19483,0.068044,-0.0013918,0.0051982,0.028094,0.038739,0.12344
0.030675,-0.26016,-0.14241,0.37208,0.049618,0.0030416,-0.016697,0.013562
0.017317,0.086947,-0.023085,-0.53534,-0.038889,0.0013347,-0.018396,0.066368
-0.23555,-0.0769,-0.043421,0.15566,0.044422,-0.0081522,-0.02874,0.00024788
-0.0038759,0.060557,-0.063316,0.15227,-0.028433,-0.0096636,0.0072253,0.018086
0.023469,0.085247,0.0029397,-0.29093,-0.10879,-0.042143,-0.011699,-0.28632
-0.005252,-0.072975,0.08507,0.12088,0.11614,0.058555,0.047691,0.064046
0.27029,0.047137,0.026977,-0.042585,-0.064321,-0.0044202,0.029483,0.11692
0.1332,0.055425,0.039668,-0.10087,0.029648,0.011068,-0.0035971,0.045343
-0.32025,0.015048,-0.033279,-0.13042,0.023004,-0.0044719,-0.035832,-0.047874
-0.095011,-0.26842,-0.09078,0.073905,0.087353,0.011302,0.018688,0.0024152
-0.094472,0.096745,0.18674,0.7325,-0.082453,-0.058952,-0.066709,-0.053102
-0.027057,0.088296,-0.037495,-0.48194,0.013033,0.050282,0.012509,-0.0033645
0.49182,-0.12078,-0.13919,0.11015,-0.087645,-0.012582,0.060858,0.10426
-0.20115,0.18908,0.084399,0.22655,0.0057817,-0.052167,-0.039022,-0.020366
0.12017,-0.0053016,-0.1166,-0.86856,0.035399,0.064487,0.033005,0.043196
-0.26441,-0.29803,-0.014973,0.20612,0.11858,0.0094484,-0.004474,-0.058185
0.064817,0.27081,0.14039,0.04302,-0.095771,-0.037394,-0.010975,-0.013386
0.23043,0.074713,0.085264,0.27395,0.017997,0.033502,0.0055945,-0.010814
-0.31665,-0.0521,-0.10861,0.34356,-0.086229,-0.027761,-0.017295,-0.081986
0.062668,-0.064328,-0.04156,0.1656,0.021957,-0.010233,-0.017103,0.078191
-0.022947,0.021348,0.052889,-0.85346,0.061826,0.046938,0.014081,-0.076196
-0.010781,-0.037518,-0.22344,-0.10343,-0.091442,-0.059567,0.0060669,0.15144
0.11576,-0.25591,0.18376,0.37822,0.061896,-0.0019133,0.02927,-0.08915
0.12375,0.17227,0.093718,0.18753,0.075817,0.047658,-0.02564,-0.046913
-0.1102,0.069242,0.043902,-0.079007,0.089894,0.026242,-0.01027,0.21629
-0.16277,0.27289,0.055853,0.05022,-0.14707,-0.02748,-0.041935,-0.15095
0.060832,-0.26989,-0.16132,-0.21912,-0.026757,0.0033887,0.13699,0.054218
0.014161,-0.034795,-0.14806,-0.041513,0.020459,-0.014092,-0.059634,-0.020308
-0.013983,-0.099916,0.0090394,-0.15852,-0.12273,-0.072031,-0.022568,-0.0079464
0.31142,0.18234,0.091409,0.37432,0.059766,0.056426,-0.0409,-0.096709
-0.27666,0.11512,0.014069,-0.1641,0.029823,0.0045533,0.0026983,-0.013495
-0.0063598,-0.084776,0.028492,0.39444,0.10896,0.038541,0.061655,0.022767
0.14434,0.002543,0.12073,-0.048224,-0.045363,-0.012912,-0.0042236,0.043203
-0.20043,-0.29643,-0.17642,-0.19166,0.0053742,-0.0086767,-0.046015,0.063247
0.17801,0.26733,0.028845,0.17971,-0.019412,-0.026504,0.0070429,0.074742
-0.21176,0.053098,-0.044074,-0.64633,-0.088205,-0.01931,0.022466,0.014705
-0.1182,-0.14931,0.13616,0.15939,0.11919,0.067621,0.0081987,-0.20332
0.24189,-0.03374,-0.032429,0.24851,-0.085171,-0.031479,-0.028047,0.099957
0.14396,0.065746,0.035305,-0.20254,0.063648,0.026851,0.046209,-0.075561
0.027128,0.088579,-0.14599,-0.063893,-0.0055087,-0.02341,-0.019548,-0.081183
-0.17796,-0.088634,-0.038246,0.30111,-0.1295,-0.065532,-0.030623,0.099312
-0.1978,0.081964,0.060826,0.12869,0.12046,0.079704,0.074868,0.12299
0.2168,-0.12602,0.13499,0.13694,0.056046,0.0056163,-0.10203,-0.071808
-0.10763,0.0055089,0.051125,-0.060046,-0.010901,-0.014715,0.024286,-0.015587
0.28762,0.13924,-0.21425,-0.38889,-0.10423,-0.012792,0.016206,0.0030751
-0.26401,0.0077554,0.018782,0.11382,0.033775,-0.019981,0.014476,-0.070315
0.27409,0.10142,-0.038427,0.052816,-0.018511,0.026246,0.011606,0.14697
-0.29539,-0.18282,0.16151,-0.14516,0.059821,0.032314,0.00025278,-0.095347
0.041961,-0.1348,-0.052801,0.081834,0.0040234,-0.0092922,0.004401,-0.0086187
0.0046737,-0.012252,0.045574,-0.2096,-0.067668,-0.059122,-0.13947,0.023941
-0.0079799,0.060681,-0.176,0.2034,0.0098853,0.0082402,0.13162,0.048887
0.068225,0.10102,0.094954,0.037275,-0.020184,-0.009959,0.0054621,-0.06677
0.032476,-0.10065,0.10048,0.36839,0.038105,0.011536,-0.010011,-0.049621
-0.097101,0.21473,0.051302,-0.3211,0.091285,0.08843,0.038213,0.061348
-0.029179,0.0087526,-0.091754,-0.23007,-0.071725,-0.037195,-0.092351,-0.061884
0.073847,-0.093596,-0.12551,0.034379,-0.045203,-0.029663,0.074437,0.05728
-0.021573,-0.077299,-0.034081,0.011101,0.060667,0.024762,-0.063447,0.0046812
0.15322,0.017604,0.04234,0.0097606,-0.020664,-0.0070162,0.06389,0.24883
-0.22297,-0.13807,0.033883,0.18132,0.01462,-0.015759,-0.075119,-0.32777
0.28598,0.18135,0.081455,0.12801,-0.076337,-0.032642,0.019345,0.048022
-0.071374,0.014411,0.083479,0.43565,0.088919,-0.01832,0.026926,0.04796
-0.053941,0.025137,-0.054138,-0.47348,-0.05994,0.027634,0.010204,-0.10129
-0.23245,-0.020399,0.10551,-0.21423,0.0086326,0.050989,0.039672,0.053724
-0.067467,-0.10569,-0.31322,-0.31245,-0.017347,-0.018211,-0.079732,0.083822
0.027923,-0.049859,0.017237,0.029863,0.097105,0.023312,0.019486,-0.088589
0.26589,0.085862,0.04192,0.03595,-0.077139,-0.012049,0.0017148,0.083802
0.061477,-0.048972,0.17488,0.48612,-0.047491,-0.038721,0.015713,-0.015968
-0.022449,0.11667,-0.13058,0.005478,0.09246,0.0052328,-0.024194,-0.075442
0.09175,0.090748,0.024261,-0.0078544,0.0066842,0.017585,-0.078787,0.045696
-0.30812,-0.18188,0.006832,-0.1105,-0.031686,-0.01795,0.12538,-0.020262
0.15116,0.14937,0.075101,-0.12715,0.015991,0.046519,0.041273,0.069796
0.061453,-0.049602,0.08071,0.060118,0.0086793,-0.023718,-0.057976,0.06523
-0.29764,-0.20205,-0.2497,-0.066231,-0.077341,0.0056518,0.038185,-0.1673
0.080554,0.11268,0.11529,0.052271,0.054741,-0.029197,-0.13157,-0.13591
0.070575,-0.11415,-0.08963,0.15238,-0.0011485,-0.026188,0.04964,0.2218
0.11012,0.17158,0.018825,-0.11562,-0.072766,0.015397,-0.019912,-0.039283
0.17654,0.30561,0.11306,0.22713,0.020035,0.049486,0.081624,0.11246
-0.14288,-0.42284,-0.12676,-0.5189,0.074542,-0.0091004,0.026222,0.029141
-0.17452,0.041403,0.08866,0.22997,-0.073065,-0.042593,-0.08438,-0.28077
-0.095985,-0.082131,0.056096,0.50509,0.17097,0.058697,-0.0077834,0.10534
0.16523,0.17631,-0.060877,-0.82398,-0.013885,-0.0099181,-0.0094081,0.071007
0.040867,0.1147,-0.091226,0.33295,-0.19052,-0.045621,0.11405,-0.14876
-0.0769,-0.18776,0.096785,-0.28442,4.8563e-06,-0.0020939,-0.05914,0.19643
0.039228,-0.034899,0.056699,0.3527,0.065151,0.034013,-0.013248,-0.026195
-0.11108,-0.090266,-0.087505,-0.016951,0.012505,0.038513,-0.013817,-0.15293
0.21291,0.068038,0.030639,0.085714,0.04512,-0.012694,0.0017118,0.13574
0.25092,0.24421,-0.089162,0.13747,-0.063517,-0.026318,-0.060374,0.010604
-0.38297,0.15603,0.037656,-0.2934,-0.00078806,-0.049417,0.073358,-0.029605
-0.090468,-0.36959,0.06017,0.12524,0.0068757,-0.0037479,0.059103,0.006112
-0.10888,-0.037013,-0.059706,-0.040978,0.037702,0.025127,-0.032941,-0.031582
0.36436,0.0043701,0.054187,-0.023176,0.021432,0.022115,-0.0076083,0.036583
-0.046736,-0.0037148,0.0045732,0.19074,-0.03411,0.042472,-0.029105,-0.09391
-0.029385,0.18102,-0.082542,-0.40106,-0.08987,-0.053951,-0.019407,0.038632
0.08983,0.027936,0.035761,-0.032849,0.08072,0.0065919,0.021447,0.044798
-0.42085,-0.16516,0.063002,0.14103,0.016766,0.021083,-0.054971,-0.12082
0.26224,-0.08472,0.061732,0.037724,-0.00038199,0.0050795,0.063854,0.12915
-0.052609,0.17642,-0.1558,0.21547,0.013807,-0.0025373,0.026324,0.084956
0.1223,-0.1546,0.034937,-0.28348,-0.042033,-0.0097925,0.004191,-0.14332
-0.046446,0.20357,-0.030729,0.39464,-0.011447,-0.048111,-0.041823,0.030386
0.020604,0.039599,-0.017534,-0.34299,-0.050525,0.015221,-0.010421,-0.13651
0.057786,-0.10822,0.066017,-0.035749,0.07515,0.016115,0.13722,0.39417
-0.076871,0.032629,0.14113,0.68226,-0.032992,-0.037618,-0.19279,-0.34745
-0.010739,-0.11678,-0.19123,-0.79227,0.038769,0.057119,0.077736,0.17649
-0.043649,-0.025631,0.045045,-0.00014919,0.055537,0.018962,-0.027525,-0.15228
0.10263,0.05615,-0.0018751,0.049488,0.032343,-0.0038541,-0.047206,-0.029849
0.081745,0.13696,-0.01166,0.19963,-0.046952,0.011847,0.081721,0.027756
-0.21743,-0.13381,0.016005,0.0047362,-0.15917,-0.04355,0.031654,0.13766
0.079378,-0.16129,0.0036027,-0.058449,0.055179,-0.0061113,-0.0094787,0.018877
-0.11341,0.28206,0.084782,0.11199,0.026317,-0.0085926,-0.010161,-0.054694
-0.0055216,-0.10001,-0.177,0.078956,0.020729,-0.0038498,-0.024997,-0.019926
0.12347,0.067579,0.055142,-0.055619,0.039443,0.00075273,-0.015004,-0.1183
0.0018362,0.065603,-0.014927,-0.26016,-0.041569,0.021381,0.0039688,0.11965
0.18557,-0.16941,0.089759,-0.057834,-0.018475,0.0038622,0.015968,-0.0242
-0.28565,-0.068396,-0.029311,0.020233,0.023077,0.0032572,-0.057548,-0.049388
0.1271,0.13296,-0.052407,0.31769,0.059446,0.0040834,0.032938,0.059906
-0.030068,0.050745,0.074127,0.013777,-0.058463,-0.017221,0.068157,0.11609
0.007318,-0.057955,0.013042,0.076429,0.019908,0.017101,0.047612,-0.13122
0.11314,-0.02928,0.098936,-0.28451,-0.050341,0.0049501,-0.083783,0.067464
-0.010216,0.012113,-0.16929,-0.14055,0.10471,0.016047,-0.0059161,0.01624
-0.25345,-0.20637,-0.01881,0.34322,-0.047011,-0.028257,-0.054658,-0.31661
-0.022112,0.33211,-0.10589,-0.2558,-0.06838,-0.042371,-0.010901,0.34209
0.16955,-0.0038595,0.085672,-0.055037,0.017252,0.043914,0.06345,-0.070189
-0.06733,-0.15041,0.064663,0.20359,-0.0083522,-0.019258,-0.0027626,-0.053273
0.073657,0.10457,0.066598,0.20056,-0.042842,-0.020608,0.0098961,0.033775
-0.0077915,-0.2381,-0.055938,-0.16439,0.086504,0.032495,-0.0074423,-0.0040134
0.040359,0.09533,0.010266,0.063681,-0.018063,-0.00014405,0.039196,-0.017915
0.053603,0.13587,0.070211,-0.066075,0.10476,0.045853,-0.029976,0.13284
-0.11777,-0.093886,-0.16523,-0.59017,-0.052829,-0.024686,-0.012219,-0.16116
0.13382,0.21719,0.092695,0.44703,-0.030216,-0.016497,-0.033121,-0.064248
-0.1936,-0.22952,-0.054904,-0.014962,0.00025533,-0.023533,0.047277,0.079371
-0.031336,-0.029581,0.055621,0.47803,-0.0087218,0.0086066,0.0096137,0.026865
0.29149,0.12787,-0.044784,-0.36334,-0.088625,0.024939,0.009705,0.18376
-0.17053,-0.055164,-0.0046994,-0.087715,0.073123,0.009614,-0.054185,-0.23187
-0.12753,0.014612,0.066501,0.15347,0.031584,-0.0062213,-0.025676,0.15452
0.00013346,-0.084318,-0.07327,-0.20616,-0.0095331,-0.014709,0.10346,-0.18838
0.12064,0.039774,0.0683,0.2512,-0.0496,-0.04692,-0.017728,0.13051
0.0014788,0.037008,-0.079021,-0.087555,-0.0099901,0.00679,-0.21665,-0.075325
0.042447,0.081244,0.062875,-0.17045,0.062636,0.045134,0.21826,-0.10919
-0.091894,-0.1615,-0.045204,0.048048,-0.0037553,-0.0098102,-0.03288,0.10077
0.058858,0.02127,0.049638,0.25569,0.048117,0.029519,0.053492,0.016877
