0.015971,-0.014614,-0.00087626,-0.015237,-0.020425,0.010184,0.0026081,0.00049717
-0.018846,0.020115,0.11191,0.011656,0.0011756,0.0026305,0.011427,0.0090235
0.20859,0.10457,0.32194,0.047491,0.015072,-0.0049264,-0.0182,0.002252
-0.13058,0.026891,-0.56628,-0.017589,-0.0096407,-0.012505,-0.016225,-0.0043623
0.071642,0.12162,0.088478,-0.012405,0.013225,0.026726,0.024859,0.0045808
-0.13946,-0.16752,0.037506,0.062221,0.021266,0.0033299,-0.0046162,-0.010212
-0.12469,-0.13887,-0.10809,-0.01326,-0.0012237,-0.012441,-0.011132,-0.017677
0.044648,0.065971,0.3019,-0.075401,-0.0076005,0.0028073,0.012988,0.02896
0.047848,-0.076763,0.01896,0.023952,-0.0059993,-0.029061,-0.018224,-0.026551
0.05692,0.13642,-0.049805,-0.0041257,-0.0045653,0.0091641,0.0046749,0.011201
0.087982,0.026756,-0.076071,-0.034075,-0.01919,0.015971,0.011513,0.017389
-0.05365,-0.006071,0.056974,0.052188,-0.0031491,-0.00076941,-0.0053458,-0.015596
-0.078333,-0.031069,-0.10451,0.0057343,0.020103,0.0058623,0.0011443,-0.0094289
0.061209,-0.039301,0.063716,-0.047394,-0.019655,-0.010987,-0.015757,-0.0030228
-0.056711,-0.029982,-0.14211,0.034246,0.018359,0.0033671,0.022153,0.019328
0.10695,0.067571,0.14484,0.0010938,0.024938,0.03329,0.021144,0.018563
-0.19014,0.23771,-0.10683,0.017195,-0.0075921,-0.030592,-0.010994,0.01025
0.27833,-0.16833,0.063799,0.011784,-0.0088288,-0.016362,-0.019614,-0.029139
-0.18317,-0.15104,0.21912,0.030951,0.0056463,0.0057536,-0.020371,-0.029373
-0.059216,-0.12502,-0.32086,-0.05124,-0.026652,-0.010994,0.0023529,0.0016882
-0.076521,0.0029558,0.052606,-0.055984,-0.019777,-0.01178,-0.0061075,-0.014085
0.22575,0.33391,0.072999,0.047318,0.04191,0.058197,0.063656,0.063961
-0.050917,0.054805,0.15331,0.016179,-0.0056302,-0.019761,-0.022702,0.0014877
0.10127,-0.18651,-0.12937,-0.063383,0.0016905,0.012135,-0.0073574,-0.029606
-0.028523,6.0111e-05,0.03671,0.019964,0.0092063,-0.0024572,-0.0074976,0.0019299
-0.072779,0.067352,-0.12212,-0.045694,-0.014319,-0.024602,-0.0075015,0.010143
-0.054291,-0.13297,-0.1054,0.13869,0.0014351,-0.0075454,0.00045245,-0.020609
-0.11272,0.016909,0.18178,-0.012299,-0.0060224,0.0095683,0.0085835,0.0034247
0.089058,0.057263,0.038012,-0.013986,0.0023831,0.003282,0.0013212,-0.0036703
0.013108,0.067858,-0.026861,-0.022515,0.018855,0.012694,0.0099821,0.028466
0.066494,-0.13698,-0.22177,-0.092641,-0.042531,-0.024629,-0.012249,-0.0094828
0.054099,-0.024347,0.20497,0.056721,0.021348,0.00074793,-0.018466,-0.01591
-0.016837,0.070897,0.18408,0.081637,0.046399,0.026336,0.014743,-0.0064313
-0.085142,-0.14799,-0.15911,-0.080544,-0.069006,-0.026057,-0.014284,-0.01235
0.14416,0.17734,-0.11412,-0.015848,0.018776,0.023099,0.027089,0.028703
-0.12792,0.16964,-0.0023774,0.049134,0.020542,0.0095084,0.021424,0.014958
0.065383,-0.025826,0.14332,-0.010588,-0.0013656,-0.020229,-0.015935,0.0086535
-0.26179,-0.13921,-0.022554,0.015936,-0.00022462,-0.0038693,-0.014937,-0.0061003
0.25702,-0.025427,-0.1189,-0.074442,-0.0074053,0.034969,0.008609,-0.013882
-0.0031014,0.070948,0.11064,0.054124,-0.015158,-0.052201,-0.031288,-0.022583
0.013415,-0.077525,-0.069287,0.010836,-3.7334e-05,0.015974,0.013907,-0.00086508
-0.10605,-0.055908,0.17688,0.037633,0.022414,-0.018066,-0.0040062,0.004653
-0.10196,-0.21325,-0.18965,-0.061085,-0.010163,0.025728,0.0090555,-0.013458
0.1524,0.17285,0.042913,0.050345,0.011779,0.0071324,0.022203,0.046799
-0.075982,0.083045,-0.13972,-0.10484,-0.028774,-0.018799,-0.018928,-0.02512
0.22153,0.036685,0.18586,0.090472,0.0011373,-0.0049251,-0.012554,0.013244
-0.056417,0.36461,-0.088278,-0.051157,0.031294,0.033246,0.025794,0.005735
0.12896,-0.19743,0.077999,0.017347,-0.0085831,-0.0058872,0.0023237,-0.0086861
-0.43388,-0.29011,0.021071,0.054096,0.022108,0.018131,-0.0049957,-0.014668
0.14507,-0.047389,-0.079666,-0.049937,-0.032942,-0.027763,-0.012012,0.0030227
-0.0018048,0.044446,0.12635,0.025898,0.0058865,-0.026642,-0.018964,-0.0029266
0.14097,0.26441,-0.14367,-0.046248,-0.01771,0.0056514,0.020817,0.037396
-0.028045,-0.1866,0.12407,0.0072275,-0.0021974,-0.0013261,0.0056375,-0.040361
-0.11798,0.025358,-0.17378,-0.0089779,0.021169,0.038327,0.013581,0.029312
0.090113,-0.015363,0.023837,0.022165,-0.010111,-0.0081536,-0.025611,-0.011306
-0.005357,0.065112,0.067613,0.022215,0.013321,-0.015668,-0.010239,-0.01348
-0.12355,-0.11666,0.027755,0.0063836,-0.010135,0.0080974,0.020819,-0.015817
0.11748,0.16573,0.19407,0.075819,0.060089,0.00075845,-0.0025519,0.0056564
0.052459,0.08443,-0.22874,-0.11351,-0.065115,-0.021974,-0.0020607,0.0045627
0.070565,-0.41461,-0.050862,0.0086723,0.01268,0.025874,-0.0010535,0.012496
0.006393,0.14609,-0.011719,-0.026086,-0.026779,-0.011972,-0.0073521,0.013922
-0.24253,0.25198,-0.03035,-0.0062522,0.027571,0.020651,0.017986,-0.014811
0.12048,-0.18958,-0.088738,-0.024783,-0.042845,-0.032647,-0.011194,-0.0038966
0.10396,0.11932,0.27547,0.09099,0.051206,0.031081,0.037642,0.053763
-0.47021,-0.093853,0.062326,-0.025552,-0.01048,-0.038358,-0.046732,-0.069175
0.26732,-0.062796,-0.19065,-0.038318,-0.0091583,0.040112,0.016694,0.079736
0.17043,0.13482,0.16982,0.060127,0.023771,-0.014891,0.0012151,-0.046781
-0.15731,-0.11018,-0.11803,-0.035791,-0.021343,0.0075104,-0.030681,-0.050296
0.33231,0.084906,0.074355,0.071122,0.034828,-0.0020323,0.022683,0.030557
-0.14938,0.00091138,0.032256,0.12954,-0.0033836,-0.019961,-0.010356,-0.045602
-0.13405,-0.38637,-0.26252,-0.24443,-0.042489,-0.014824,-0.0045381,0.019135
-0.13838,0.35947,0.13449,0.026808,0.011171,0.021447,0.02476,0.0070594
0.13316,0.29185,-0.080341,-0.0018315,-0.0063434,0.010999,0.0074159,0.028366
0.17152,-0.22332,-0.060448,-0.11061,-0.032202,0.0087676,0.006039,0.060037
-0.18043,0.063031,0.25291,0.14736,0.059067,0.022758,0.0050353,0.0082577
0.18634,-0.060321,0.11434,0.031675,0.0023559,-0.040657,-0.026865,-0.064997
-0.10296,-0.30372,-0.29996,-0.088868,-0.014389,-0.0017434,-0.019389,-0.027765
-0.32895,-0.0016149,-0.18196,0.0054579,-0.045588,-0.040217,-0.027257,-0.037274
0.095032,0.035599,0.11854,0.088176,0.041585,0.039134,0.051065,0.093073
0.060061,-0.057033,0.24206,-0.036928,-0.0031312,0.0017583,-0.018832,0.057942
0.2144,0.62071,0.17881,0.11278,0.046317,0.042725,0.03642,-0.16639
0.47108,0.077504,0.1129,-0.011818,0.0017702,0.0054927,0.029206,0.13113
-0.60138,-0.53847,-0.37379,-0.10045,-0.043696,-0.055555,-0.056255,-0.17408
-0.059912,-0.017576,-0.17577,-0.076696,-0.035928,-0.039117,-0.024815,0.051422
0.18705,-0.26026,0.024424,0.097755,0.056069,0.062447,0.02183,0.097294
-0.25271,0.49682,-0.032337,-0.053225,-0.033229,-0.0087168,0.013307,-0.0047953
0.19051,-0.053209,0.1699,-0.090564,-0.0064757,0.020927,0.02778,0.081189
-0.26401,0.2052,0.10937,0.066275,0.035524,0.0031766,-0.028347,-0.19187
0.44783,-0.23666,-0.2037,-0.025273,-0.062576,-0.061632,-0.029828,0.050534
-0.25745,-0.44132,-0.063732,0.059174,0.012582,0.014393,0.023642,0.1047
0.10743,0.38895,0.28114,0.1651,0.027242,0.012873,-0.016073,0.29831
-0.024819,-0.072558,-0.0041702,-0.066253,0.020702,-0.011218,-0.023747,-0.62656
0.090798,-0.035114,-0.052773,-0.1277,0.016173,0.028186,0.063206,0.15851
-0.32468,0.034046,-0.006501,-0.036576,-0.018248,0.0060298,0.0025007,-0.088009
0.2928,0.40944,0.031417,0.20472,0.049313,0.015832,-0.0030145,0.087846
0.076658,0.021309,-0.034299,-0.047064,-0.016534,0.010368,0.015006,0.30398
-0.48138,-0.33327,-0.16542,-0.020781,-0.083823,-0.057613,-0.045441,-0.15803
0.37485,-0.17768,0.036733,-0.10077,0.018839,0.0068969,-0.012852,0.07664
-0.3106,-0.33202,-0.028031,-0.060924,-0.021043,-0.0071984,0.0031876,-0.25048
0.44284,0.68069,0.24414,0.036872,0.02357,0.017305,0.057371,0.25029
0.0057176,-0.17814,-0.22997,-0.0011644,-0.033997,-0.060051,-0.076644,-0.054783
-0.063995,-0.15817,-0.072911,0.061371,0.041597,0.065661,0.023403,-0.10381
0.057977,0.22479,0.037235,-0.015655,0.032471,0.027479,0.022038,-0.068782
-0.45893,-0.0066578,0.22568,0.14439,0.0095121,-0.049475,-0.033427,-0.035171
0.27545,-0.041534,0.18638,0.0033689,0.019748,0.03789,0.052631,0.16199
-0.19798,-0.1318,-0.25536,-0.1496,-0.069917,-0.046549,-0.039982,-0.06994
0.30438,0.54086,0.16235,0.044183,0.052381,0.079728,0.048018,0.027942
-0.14167,-0.52511,-0.23636,-0.064972,-0.051708,-0.028901,-0.0039575,0.42519
-0.10808,-0.049166,-0.25959,-0.025443,-0.031505,-0.021104,-0.032236,-0.54965
0.12981,0.078464,0.21545,-0.010595,0.034101,0.0014851,0.033083,0.14252
0.021933,-0.039272,0.27408,0.22054,0.058662,-0.10164,-0.11305,-0.11579
0.20369,0.11524,-0.01234,-0.020295,-0.028331,0.036983,0.052569,0.057687
-0.41079,-0.33884,-0.36786,-0.22544,-0.047042,0.073966,0.053239,0.060649
0.14474,0.2638,0.18757,0.2853,0.073299,0.048697,-0.025117,-0.0062295
0.092089,0.071625,-0.060984,-0.32292,-0.096303,-0.069864,0.012869,0.098258
-0.067227,0.020668,-0.11791,0.052976,0.030901,0.030832,0.0032351,-0.072181
0.5037,0.58484,0.26134,0.08649,0.049456,-0.0086879,-0.0069984,0.059747
-0.26388,-0.44993,-0.13336,-0.11948,-0.047817,-0.0089049,0.021425,0.0091435
-0.53868,0.030865,0.12671,0.10763,0.020692,-0.0012264,-0.036235,-0.20064
0.10679,-0.65365,0.16406,0.11136,0.012816,-0.032595,-0.023396,-0.030148
-0.06132,0.14584,-0.14198,0.0077372,0.0063606,0.022045,0.036882,0.11514
0.33502,0.1667,0.048794,0.076137,0.00073724,-0.063707,-0.058148,-0.068524
0.12882,-0.063081,-0.22727,-0.2012,-0.043843,0.046288,0.043376,0.16973
-0.25221,0.17248,0.020934,0.056686,0.059419,0.063118,0.029095,-0.044546
-0.052327,0.12779,-0.11963,-0.14336,-0.033732,-0.013197,0.023932,0.195
0.42864,0.21186,0.32283,0.097334,0.028096,0.012495,-0.027118,-0.12756
-0.40748,-0.20748,-0.24872,0.061592,-0.020494,-0.032007,-0.023023,-0.28625
0.026828,0.10267,-0.055735,-0.083857,-0.061695,-0.076833,-0.050393,-0.0083049
0.067361,-0.36858,-0.054666,-0.07013,0.014758,0.072857,0.046298,0.18225
-0.045362,0.12484,0.38229,0.012166,0.0067071,-0.052093,-0.030481,0.01944
0.27187,0.047743,-0.16648,-0.053454,-0.0069251,0.11837,0.1641,0.26883
-0.14824,-0.2204,0.13239,0.17906,0.052383,-0.03297,-0.088909,-0.21771
-0.16045,0.26336,0.10967,0.23981,0.036027,-0.0058862,-0.023712,-0.064411
0.12323,-0.10383,-0.14,-0.27269,-0.017696,-0.057679,-0.053798,-0.13731
-0.16624,-0.13482,-0.0068097,0.074604,-0.0084844,-0.054792,-0.045424,-0.059911
-0.021986,0.18631,-0.3566,-0.1843,-0.047231,0.058332,0.072884,0.30221
0.18074,0.33687,0.40793,0.3366,0.091168,0.0090869,0.0054299,0.044228
-0.222,-0.46334,-0.0034767,-0.029919,0.0072035,0.0012069,-0.0046502,-0.24705
0.44962,0.62294,0.036278,-0.1129,-0.049556,0.019293,0.027519,0.069074
-0.32013,-0.86355,-0.81936,-0.34032,-0.17253,0.039666,0.039354,0.093259
0.26518,0.1574,0.13965,-0.20027,0.0065039,-0.0086837,-0.032325,-0.12948
-0.13102,0.48503,0.71757,0.43016,0.14529,-0.0017842,-0.0011786,0.10917
-0.30616,-0.65944,-0.2042,-0.060079,-0.012365,-0.026736,-0.0014375,0.071826
0.31001,0.16363,0.31599,0.06076,0.034866,-0.05336,-0.018881,-0.072554
-0.03184,0.46347,0.14664,0.1942,0.037756,-0.012121,-0.015567,0.13471
0.044909,-0.032962,-0.54966,0.074916,-0.01925,0.06538,0.015694,-0.23721
-0.12131,-0.21699,0.043852,-0.19017,-0.011719,-0.031675,-0.042308,-0.03174
0.011663,0.27695,-0.10864,0.081872,0.012495,0.056637,0.029753,-0.090818
-0.39666,-0.42828,0.19156,0.049514,-0.025805,-0.051616,-0.0014398,0.17453
0.34403,-0.045794,-0.21518,-0.17532,-0.025898,0.066503,0.068584,0.104
0.1886,0.21164,0.19282,-0.11203,-0.066294,-0.041035,-0.063464,-0.095491
0.13734,0.069371,-0.053145,-0.14503,0.0015916,-0.045141,-0.013549,-0.0067399
-0.045419,-0.12949,0.18131,0.054616,0.022098,-0.02325,-0.0073911,-0.05749
-0.18266,0.13052,-0.20271,0.036499,0.0038418,-0.045383,-0.01341,0.018286
-0.035703,-0.36939,-0.36623,-0.00025232,0.0022439,0.16953,0.10098,0.094404
-0.28793,0.22999,0.6154,0.4092,0.15835,0.042748,0.022531,0.34022
0.36989,0.13122,-0.10754,-0.028901,-0.020061,-0.020474,-0.038918,-0.40388
-0.1818,0.2239,0.15301,0.01543,-0.0099946,-0.044708,-0.037764,-0.047655
0.29008,-0.22773,-0.39287,-0.16041,-0.10903,-0.093516,-0.037706,-0.023822
-0.19115,-0.17815,0.018341,-0.14287,-0.028832,-0.097363,-0.063122,-0.045323
0.1332,0.14514,0.024342,-0.16737,-0.012072,0.12307,0.088548,0.28557
-0.3681,0.031132,0.34852,0.17118,0.027058,0.013142,0.010894,-0.23371
0.1429,-0.19095,0.081822,0.16084,0.096644,0.073243,0.055673,0.1328
0.066635,0.067099,-0.37131,-0.16004,-0.083982,-0.016353,-0.03446,-0.17525
0.13921,-0.1368,-0.15975,-0.13585,-0.053163,0.026257,0.022378,0.07094
0.080588,0.40421,0.24104,0.27178,0.096012,-0.19675,-0.15591,0.084165
-0.069528,-0.19684,-0.33843,-0.016248,0.012402,0.13546,0.11108,0.060885
-0.029691,-0.27292,0.11275,0.092544,0.0085843,0.015435,0.011464,0.0014182
-0.18279,0.4825,0.31637,0.026341,0.0061396,-0.048817,-0.0011198,-0.094639
-0.21651,-0.5474,-0.33473,-0.34134,-0.11271,0.036497,0.034587,0.24062
0.18141,0.76132,0.62122,0.19145,0.096572,-0.0099731,-0.05314,-0.36088
0.245,-0.23427,-0.11333,-0.20398,-0.007392,0.069385,0.040374,0.061188
0.020582,-0.20136,-0.1106,0.121,0.0279,-0.069428,-0.067822,-0.071388
0.11671,-0.21366,-0.45909,0.1361,-0.11823,-0.028241,0.020469,0.18713
-0.36612,-0.11036,0.15122,0.077345,0.007254,-0.072937,-0.038834,-0.037518
0.078778,0.55885,0.062206,-0.045305,0.037331,0.054025,0.035099,-0.15083
-0.12774,-0.3567,-0.0083164,-0.20604,0.011375,0.03202,0.023015,0.074151
0.13088,-0.12435,-0.15414,-0.25412,0.0078572,0.1263,0.096224,0.066872
0.19825,0.44998,0.22693,0.25771,0.073943,-0.054152,-0.073953,0.30295
-0.034485,0.13898,0.37799,0.37756,0.037959,-0.017513,0.0042277,-0.28948
-0.097399,-0.34647,-0.42656,-0.11295,-0.1312,-0.084274,-0.099149,0.022184
-0.10586,-0.10714,-0.20146,-0.31597,-0.074005,-0.027764,0.037869,0.056642
0.043975,0.22611,0.49939,0.1421,0.12387,0.050918,-0.006195,-0.30426
-0.16106,-0.24197,-0.07307,-0.037491,-0.013751,0.035394,0.042774,0.10346
-0.039054,-0.038371,-0.277,0.11197,-0.033212,-0.018603,0.0059357,0.069765
0.37249,0.20119,0.053325,0.26837,0.050438,0.046301,0.063855,0.096311
0.074127,0.075353,-0.12697,-0.59301,-0.10603,-0.089206,-0.087383,-0.025768
0.057404,-0.27904,0.067065,0.050627,0.0602,0.0052449,-0.033169,0.002451
-0.21847,-0.047089,0.12159,0.042936,0.017898,0.025181,0.0079783,-0.1768
-0.34198,0.16196,-0.10306,0.0013895,0.0088839,0.024942,0.0046703,0.15611
-0.14424,0.18168,0.18183,0.24667,0.032425,0.011443,0.057957,-0.0066705
0.69198,0.038605,-0.15062,0.41183,-0.0062277,0.038027,0.010752,-0.06446
-0.20331,0.038908,0.23221,-0.47176,0.01684,0.0093628,0.026077,0.23905
0.44885,0.32413,-0.10376,0.0022626,-0.04777,-0.076103,0.024738,0.15991
-0.66551,-0.79943,0.094477,-0.040752,-0.013198,-0.039931,-0.15042,-0.49091
-0.12509,0.046684,-0.18531,-0.32659,-0.098391,-0.046908,-0.046857,-0.050292
0.086201,-0.092489,-0.18862,0.26313,0.048472,0.066953,0.061855,0.012937
0.18841,0.12765,0.020371,-0.090583,0.053004,0.13035,0.082253,0.082318
0.26938,0.12422,0.20745,0.34772,0.048808,-0.035267,0.077482,0.40915
-0.23126,0.11257,-0.1411,-0.17937,-0.049278,-0.12372,-0.12347,-0.36448
-0.038032,0.36318,0.44678,0.1166,0.071842,-0.031813,-0.058719,0.036061
-0.15698,-0.75237,-0.47784,-0.32063,-0.11875,0.054466,0.046005,-0.013638
0.27263,0.7929,0.24588,0.33472,0.074348,0.01906,0.0038366,-0.091934
-0.12325,-0.49069,-0.12763,0.11913,0.04945,0.042216,0.026033,0.12824
0.19513,0.0078382,-0.086654,-0.21179,-0.099876,-0.001185,0.050067,0.1296
-0.23272,-0.077742,0.153,0.028253,0.024654,0.028723,-0.033768,0.050819
-0.023561,0.073432,-0.063194,-0.29339,-0.01451,0.021334,0.039617,-0.0081873
0.057429,0.1178,0.085376,-0.073519,-0.053237,-0.071665,-0.050669,-0.063933
0.065389,-0.13239,-0.050897,0.17506,0.072667,-0.040675,-0.06292,-0.42084
-0.014938,-0.22503,0.064497,0.080725,-0.019511,-0.019491,0.0025955,0.063195
-0.19125,-0.060582,-0.34557,0.2717,0.0061323,0.038295,0.020842,0.22654
0.19235,0.59988,0.3629,-0.077744,0.079047,-0.0078722,0.038838,-0.053047
-0.036977,-0.15432,0.067996,-0.075874,-0.012147,-0.024679,-0.052581,0.062678
-0.037132,0.023193,-0.27373,-0.41044,-0.096154,0.058932,0.059232,-0.065721
-0.044736,0.29923,0.1858,0.6515,0.068626,0.040611,0.069574,0.42077
0.30483,-0.38481,0.10868,-0.40789,-0.057316,-0.11027,-0.14676,-0.30789
0.048201,0.024018,-0.13014,0.112,0.041471,0.15354,0.1208,0.21402
-0.16798,-0.13723,-0.0051763,-0.033295,0.0057821,-0.058485,-0.057834,-0.39976
-0.11779,-0.34111,-0.16089,-0.12672,-0.038865,-0.02769,0.020152,0.1525
-0.27702,-0.16744,-0.23256,0.20592,-0.029183,-0.027691,-0.01253,0.15027
0.15328,0.13288,-0.050364,-0.066523,0.0044893,0.019484,-0.0072497,-0.37536
-0.073898,0.68301,0.75801,0.03345,0.063011,-0.11278,-0.13541,-0.10259
0.23206,-0.14623,-0.44466,-0.10982,-0.0014181,0.12246,0.11148,0.151
0.16736,0.69248,0.27235,-0.01797,0.014617,0.037818,0.054428,0.45125
-0.17316,-0.77996,-0.069066,0.05286,-0.029605,-0.030637,-0.001317,-0.14398
0.15525,0.58822,0.082094,0.26016,0.076409,-0.0047523,-0.016423,-0.02291
-0.060432,-0.49679,0.064651,-0.22366,-0.082078,-0.07995,-0.037866,-0.28583
-0.22959,-0.65561,-0.52487,-0.22702,-0.06051,0.10288,0.051082,0.15322
0.18348,0.095171,0.12197,0.10052,0.038855,0.012099,0.030953,0.29324
0.17603,0.41351,0.331,0.46037,0.082673,-0.055889,-0.075642,-0.20341
-0.097135,-0.51728,-0.62463,-0.11833,-0.12469,-0.031228,-0.011652,-0.034072
-0.40913,0.73665,0.42848,-0.35634,0.072918,0.031031,0.0036288,-0.52102
-0.070394,-0.14192,-0.13202,0.049419,-0.011954,0.013512,-0.0065873,0.33402
0.031804,0.16018,0.24368,0.043401,0.073993,0.088132,0.075018,0.21722
0.32327,-0.164,-0.11391,-0.17124,-0.067452,-0.088563,-0.047975,0.42449
0.40138,0.50561,0.36674,0.42978,0.032699,-0.031664,0.023577,-0.39625
0.073452,0.1001,-0.3223,-0.20671,-0.13316,-0.060792,-0.037619,-0.18255
-0.49529,-0.70714,-0.22926,0.046114,0.067943,0.035716,0.0036426,0.058311
-0.30517,-0.40508,0.15936,-0.059842,0.057949,0.031905,-0.055075,-0.35221
0.11085,-0.22203,0.02094,-0.069801,0.032155,0.1078,0.11478,0.47813
-0.085931,0.47622,0.26767,0.15804,0.03734,-0.041306,-0.033585,-0.026954
0.51501,0.21718,-0.2577,-0.11015,-0.161,-0.064213,-0.023883,0.02488
-0.043369,0.46742,-0.14871,-0.234,-0.023922,0.038468,0.018304,-0.13852
-0.014868,-0.43892,-0.013286,0.30898,0.09698,0.031685,0.037525,0.16317
0.097351,-0.04345,0.04945,0.10313,0.029899,-0.030423,0.048632,-0.32797
-0.38831,0.35314,0.16754,0.27156,0.0093977,-0.030929,-0.11305,0.26229
-0.073663,-0.35607,0.070642,-0.42971,-0.026718,-0.07129,-0.025951,0.11235
0.0038464,0.12695,-0.012031,-0.16604,-0.054614,-0.01045,-0.057222,-0.24804
0.011504,-0.3071,-0.14897,-0.078506,-0.0035248,0.027216,0.020052,0.30465
0.14112,-0.25264,-0.081576,-0.0025625,0.025434,0.1517,0.15171,-0.38695
0.33489,0.53907,0.18989,0.61775,0.040438,-0.034996,-0.036711,-0.081269
-0.23098,-0.0040911,-0.14048,-0.37991,-0.067693,-0.0015186,0.041135,0.47173
-0.060813,0.15458,0.17541,0.099966,0.10725,0.0097308,-0.028626,-0.1805
0.23049,-0.22991,-0.0054144,-0.12087,-0.067826,-0.087661,-0.074158,-0.068226
-0.27788,0.12063,-0.19324,-0.1822,-0.046597,-0.059927,-0.033176,-0.034024
-0.10952,-0.15617,-0.046604,0.33804,0.076483,0.068883,0.047116,-0.084618
-0.18756,-0.03167,0.26856,0.048745,-0.019685,-0.0064297,-0.013342,0.13234
0.33731,-0.19532,-0.24909,-0.33227,-0.031146,0.026273,0.035082,0.1797
0.040075,0.12514,0.032565,0.33455,0.07279,0.096493,0.090506,0.065067
0.36226,0.20279,0.4025,0.056091,0.010596,-0.069211,-0.058233,-0.39184
-0.20021,0.45204,-0.32629,-0.2618,-0.092654,-0.048789,-0.083096,0.011244
-0.36213,-0.69634,-0.20747,-0.14231,-0.049039,-0.045027,0.00037378,0.21873
0.13908,0.20465,0.22915,-0.16272,0.0015199,-0.0027755,-0.010695,-0.15292
-0.16711,0.0010221,0.079011,0.45944,0.1458,0.11755,0.11064,0.34123
0.17218,-0.28893,-0.14827,-0.10282,-0.068497,-0.019511,-0.049223,-0.24413
-0.037136,0.22817,0.017724,-0.091074,-0.0079424,-0.069804,-0.028935,-0.18203
0.19176,-0.14836,0.078355,0.22104,0.046548,0.099725,0.046841,0.11416
-0.020762,0.40343,0.13607,0.11371,0.0012324,-0.057698,-0.024826,-0.0032724
0.0083763,-0.32689,-0.37131,-0.36009,-0.06603,-0.010839,-0.0095139,-0.11969
-0.46777,0.34735,0.17307,0.44613,0.086513,0.013665,0.045816,0.32756
0.21709,-0.20083,0.088625,-0.54747,-0.041613,0.007904,-0.023076,-0.013498
0.017134,-0.10709,-0.047988,0.0017711,-0.052381,-0.036024,-0.044541,-0.073407
0.40858,0.094237,-0.051134,-0.00020057,-0.055454,-0.016654,0.028061,0.037349
-0.1024,-0.20122,-0.079148,0.22041,0.050562,0.018993,0.0070093,-0.088458
-0.1043,0.082737,0.30341,0.023727,0.070241,-0.007451,-0.045396,-0.099762
-0.20936,0.38288,-0.2255,0.066733,-0.012169,0.036446,0.034719,-0.011964
0.2987,0.0045888,0.23138,-0.04853,0.037507,0.087673,0.051857,0.082145
-0.26909,-0.59699,-0.34969,-0.040709,-0.031002,-0.080917,-0.017589,-0.058139
-0.092479,0.073388,0.078768,0.066586,-0.022669,-0.0089213,-0.033122,-0.02494
0.14236,0.089523,0.041721,-0.19559,-0.031449,-0.017009,0.02865,0.12837
-0.10123,0.048371,0.080437,0.37598,0.083255,-0.0036706,-0.058749,-0.04287
0.054621,0.045828,0.049003,-0.42124,-0.084594,0.0079579,0.040853,-0.085769
0.13606,0.24646,-0.30019,0.10147,0.004519,-0.020552,0.015341,0.71742
0.27001,-0.14016,0.089331,-0.046339,-0.015969,-0.010224,-0.048871,-0.72071
-0.33177,0.21113,0.13248,0.035707,-0.0047623,-0.030469,-0.018473,0.04372
0.16627,-0.1958,0.14925,0.021186,0.077771,0.11478,0.067883,0.19725
-0.36219,0.1038,0.028868,0.12987,0.021026,0.011926,-0.00050226,-0.58058
0.25272,-0.64317,-0.34024,-0.1617,-0.073409,-0.034269,0.0029299,0.35928
-0.12402,0.25706,0.13317,0.19219,0.075441,-0.016285,-0.02365,0.096107
-0.04918,0.21106,0.25157,-0.005921,-0.017288,-0.0050092,-0.010428,-0.056431
0.11613,0.10376,-0.27551,0.069357,-0.047472,-0.024587,0.0028735,0.074259
0.3161,0.001118,-0.18268,-0.31908,-0.02341,0.010232,0.031162,0.31623
-0.3169,-0.2568,0.1639,0.23292,0.023367,0.020782,0.0034612,-0.433
-0.0090753,0.099808,-0.077381,-0.18191,-0.0087252,-0.032309,-0.057293,0.012498
0.068867,0.17604,0.20561,-0.07104,0.013364,0.022771,0.051762,0.33847
-0.21405,-0.11939,0.00012235,0.15307,0.027558,-0.024757,-0.0756,-0.44095
-0.035236,-0.09019,-0.1445,-0.022683,-0.051584,0.020729,0.076556,0.25941
0.34201,0.13808,0.51551,0.15461,0.096703,0.058048,0.032215,-0.16182
0.044638,0.016402,-0.73812,-0.20301,-0.11322,-0.084301,-0.098546,-0.21916
-0.3402,-0.32589,0.000156,-0.062407,-0.0015994,0.0080479,0.0053417,0.35482
