0.0032634,0.029439,0.063854,0.15669,0.010464,0.012493,0.0052307,0.0060804
0.056356,0.062425,0.2066,0.23433,0.048509,0.021418,-0.0019487,0.029781
-0.0318,-0.069309,-0.13751,-0.72918,-0.077479,-0.040179,-0.017155,-0.0013135
-0.034475,-0.01434,-0.13224,0.23709,-0.015786,-0.0083866,-0.0014667,-0.024708
0.0017326,0.071044,0.30928,-0.0049724,0.038446,0.022978,0.013819,0.022123
-0.0087732,-0.094348,-0.40568,0.085877,-0.016205,-0.016364,-0.018112,-0.032647
0.043735,0.083377,0.42659,0.30781,0.046893,0.014334,0.01227,0.021983
-0.0045045,-0.0049348,0.1105,-0.057942,0.0011565,-0.0019277,-0.0041946,-0.0092314
0.010771,0.016006,0.035461,-0.20804,-0.020712,-0.0024348,-0.0047743,0.0065739
-0.019747,-0.033142,-0.35511,0.35512,0.01237,0.0051993,0.018537,0.006922
-0.018005,-0.058245,0.13203,-0.14477,-0.032588,-0.0023159,-0.0044586,-0.00039265
0.0079923,-0.019865,-0.3016,-0.53062,-0.038541,-0.0171,-0.011249,-0.01543
0.02671,0.12136,0.41376,0.29729,0.080365,0.038946,0.021507,0.016402
-0.040313,-0.071902,0.2087,-0.17739,-0.050894,-0.029608,-0.015755,-0.022192
0.040947,0.033096,-0.6253,0.061319,0.0051933,-0.0042048,-0.0060908,0.024933
-0.018897,0.037639,0.032635,0.42083,0.029891,0.021165,0.011178,0.0092671
-0.016987,-0.074381,0.18687,0.043359,-0.0080646,-0.016252,-0.011054,-0.022332
0.030872,0.07143,-0.21305,-0.24909,0.024087,0.023944,0.012989,0.0083068
0.0074171,0.013517,0.28147,-0.064339,0.0090748,0.00096227,0.012922,-0.015894
-0.056073,-0.13145,0.26579,0.020762,-0.076632,-0.04621,-0.04248,-0.016656
0.020219,0.011173,0.044192,-0.28972,0.0012644,-0.00036826,0.01096,0.01399
0.0099375,0.01939,-0.15126,0.23131,0.008341,0.021406,0.0015439,0.013665
0.022716,0.057321,-0.41808,0.19324,0.038333,0.011466,0.015413,0.0058501
0.027589,0.11737,0.1064,0.09549,0.044376,0.024697,0.013697,0.029562
-0.029847,-0.1283,-0.30113,-0.24274,-0.028184,-0.0012007,-0.0034492,-0.0090724
-0.10246,-0.069935,0.80067,0.0051151,-0.0621,-0.058228,-0.028114,-0.024277
0.083417,0.019378,-0.37246,-0.16268,0.0052286,0.010027,0.0022497,-0.031824
0.020104,0.046237,0.41216,-0.075883,0.033326,0.0083846,0.017329,0.022883
-0.026725,0.010927,-0.58799,0.68615,-0.0010404,0.0072549,-0.014152,-0.039862
0.044428,0.015213,-0.41871,-0.33803,0.035199,0.030132,0.01714,0.061241
-0.016607,0.027945,0.94576,0.10981,-0.0061037,-0.0010906,0.0017905,0.013777
-0.02257,-0.060233,-0.20228,-0.39853,-0.046523,-0.016118,-0.013352,-0.02592
-0.020606,-0.022803,0.00028208,0.18624,-0.031098,-0.038428,-0.0048595,-0.0030997
0.020284,-0.016092,-0.19282,-0.35157,0.0091116,0.0022339,-0.0039799,-0.011488
-0.0016574,0.022312,-0.26279,0.10041,0.027279,0.012035,-0.0028969,0.019222
0.022821,0.037625,0.35502,0.48189,0.038883,0.029921,0.021814,0.003076
-0.0078882,0.014129,-0.50281,-0.44078,-0.0033188,0.0010412,-0.00020567,0.0025622
-0.039077,-0.0091913,0.66263,0.62032,0.017307,-0.0045017,0.0012702,-0.029184
0.03089,0.030139,0.20015,-0.19711,-0.063963,-0.018194,-0.012942,-0.029622
0.022431,-0.055316,0.011977,-0.045641,0.049099,0.030051,0.011708,0.079439
-0.025274,-0.0075653,-0.39081,-0.14839,-0.042451,-0.039626,-0.010844,-0.022234
0.012898,-0.0060165,-0.41853,-0.15737,0.012689,0.014881,0.005249,-0.014254
-0.034818,-0.065983,0.019775,-0.16817,-0.035445,-0.0095182,-0.010359,0.0018726
0.019174,0.054952,0.31388,0.62422,0.040028,0.0045059,0.0048599,-0.012889
0.034318,0.083363,0.9025,-0.17612,-0.0025538,0.010303,0.0041152,0.01958
-0.020597,-0.04356,-0.93785,-0.48696,0.0014906,0.00032242,0.0031501,0.0054927
-0.075255,-0.013984,-0.31999,-0.06917,-0.025387,-0.0095649,-0.013535,-0.016157
0.05,-0.016375,-0.14537,0.35496,-0.012456,-0.026987,-0.0067742,-0.0063992
0.089477,0.14348,0.52785,0.35062,0.095155,0.065333,0.031308,0.04247
-0.035022,-0.0667,0.61669,-0.23801,-0.046371,-0.037304,-0.016466,-0.049357
-0.0345,-0.077278,-0.63566,0.14954,0.047064,0.032191,0.021748,0.014869
-0.026173,-0.0056129,0.29312,0.22024,-0.054613,-0.015387,-0.0025373,0.00064047
-0.041277,-0.11689,-0.42008,-0.6089,-0.06272,-0.03955,-0.034669,-0.021869
0.029605,0.12113,0.36942,0.2436,0.030293,0.01431,0.0034878,0.0097001
0.038065,0.0066962,0.36107,0.29837,0.036842,0.01339,0.010447,0.024908
0.0075139,0.02569,-1.0729,-0.76527,-0.019525,-0.0031372,-0.0058399,0.062731
0.078483,0.12481,0.1601,0.0080843,0.072402,0.050857,0.040744,-0.0487
-0.022614,-0.13236,0.14636,0.21661,-0.14014,-0.10564,-0.060556,-0.051434
-0.12405,-0.0029349,0.27824,0.3892,0.10884,0.066662,0.034157,0.0079574
0.0084835,0.0055613,-0.20748,-0.15648,-0.024093,-0.018007,-0.010995,-0.018506
-8.2778e-08,-0.067863,0.54319,-0.14348,-0.030974,-0.008035,-0.0085639,0.041595
0.061576,0.096767,0.071272,0.35108,0.072566,0.0496,0.041269,0.048156
-0.0018983,-0.11049,-0.84843,-0.52623,-0.088665,-0.040677,-0.041487,-0.19377
0.020719,0.12993,0.57398,0.60305,0.047489,0.025426,0.031844,0.1831
-0.042293,-0.034457,-0.27815,0.068947,-0.027226,-0.033807,-0.03603,-0.048055
-0.01899,-0.09686,0.27531,-0.48625,0.0070537,-8.3952e-05,0.035771,0.073131
0.067179,0.10568,-0.72625,0.15905,0.079664,0.048119,-0.010815,0.030224
-0.0026054,0.033031,0.26401,-0.15395,0.010764,0.016893,0.019459,-0.099506
-0.07217,-0.11263,0.1282,-0.28415,-0.13701,-0.085858,-0.037315,0.0035638
0.061567,0.12897,0.56774,0.27197,0.082105,0.044912,-0.0010757,-0.051537
-0.0076185,0.062212,0.19698,0.4109,-0.03428,-0.019895,-0.0040981,0.024347
-0.084327,-0.31274,-0.83155,-0.42301,-0.079047,-0.037378,-0.022337,-0.057339
0.034685,0.12188,0.29061,-0.082787,0.026716,0.008779,0.022885,0.071378
0.0057601,-0.078318,-0.78395,-0.2517,0.010018,0.02533,0.014749,0.0051013
0.12577,0.29867,1.2312,0.5712,0.16762,0.098384,0.070535,0.096102
-0.081964,-0.18368,-0.29799,0.21885,-0.1263,-0.10042,-0.075601,-0.069277
-0.016164,0.01439,-0.43369,-0.22168,0.087773,0.045453,0.013345,-0.0066278
-0.028762,-0.044353,-0.35404,0.1465,-0.0045644,0.0038329,0.00075941,-0.01313
-0.026429,0.069626,0.41204,0.008479,-0.077153,-0.046645,-0.012507,-0.011192
0.05294,-0.019189,0.50759,-0.47286,-0.069138,-0.013185,-0.011437,0.022013
0.07623,0.086934,0.075205,0.50927,0.1826,0.087927,0.050471,-0.023438
-0.050457,-0.01113,-0.68865,-0.44459,-0.13441,-0.079473,-0.0456,0.00052088
0.001056,-0.15759,0.083461,-0.33798,-0.019093,-0.0073063,-0.0025143,0.031254
-0.065841,0.14747,-0.061892,-0.075987,-0.00071762,0.0082756,-0.0072331,-0.048326
-0.06319,-0.39249,0.57021,0.47857,-0.076683,-0.0473,-0.012167,-0.011368
0.12677,0.37943,0.19089,0.47174,0.16983,0.092781,0.045936,0.080026
-0.057862,-0.090672,-0.69063,-0.18607,-0.040012,-0.031312,-0.019779,-0.039352
0.11777,0.1667,0.030256,-0.49399,0.084514,0.081252,0.048917,0.029286
-0.041342,-0.019844,0.08488,0.31767,-0.11224,-0.084738,-0.029106,-0.03414
-0.089811,-0.13446,-0.24726,-0.0020968,-0.052665,-0.06058,-0.043097,-0.018606
0.10505,0.088433,0.54801,0.11916,0.13669,0.082923,0.045564,0.060208
-0.10549,-0.32012,-0.89895,-0.0543,-0.022974,-0.014422,-0.021536,-0.0635
0.0047995,0.20995,0.17256,0.24002,0.067419,0.044836,0.020588,-0.014989
0.068365,0.20192,0.80865,-0.12586,-0.024082,0.033171,0.022945,0.08825
-0.0088375,-0.063052,0.39506,-0.87169,-0.17407,-0.089221,-0.053894,-0.03533
-0.008251,-0.12392,-0.36596,0.74699,0.030904,-0.033646,-0.0069153,-0.010969
0.015378,-0.074201,-0.61845,-0.24024,-0.02594,0.0046618,-2.6544e-05,0.012759
-0.055048,0.016199,0.18832,0.051458,0.0082606,-0.012862,0.0062119,-0.057888
0.038522,0.179,0.13011,0.21282,0.088447,0.047379,0.020123,0.10538
0.022999,0.00057895,-0.10441,-0.55455,0.021181,0.045635,0.034422,-0.067461
-0.062154,-0.096905,0.3033,0.56822,-0.051423,-0.072035,-0.052016,-0.036944
0.0099866,-0.10566,-0.32303,-0.12468,0.074545,0.05419,0.011065,0.002011
0.044331,0.083245,-0.37389,0.39331,0.063091,0.041535,0.028376,0.073151
-0.1232,-0.17177,0.1226,0.02138,-0.14911,-0.126,-0.070607,-0.065581
0.17896,0.40122,-0.0094629,-0.64025,0.13189,0.14461,0.088701,0.11696
-0.042,-0.12159,-0.22118,-0.024116,-0.19703,-0.10847,-0.048942,-0.090531
-0.083828,-0.22677,0.98553,0.16302,-0.020135,-0.050246,-0.023194,-0.040157
0.14625,0.48203,0.40824,-0.074755,0.22402,0.17007,0.087279,0.11118
-0.10266,-0.4186,-0.62163,0.1499,-0.12914,-0.11209,-0.061653,-0.059034
-0.018705,-0.015282,-0.081353,0.06884,0.014216,-0.0062356,-0.0091955,-0.012196
0.054178,0.14557,-0.0047242,0.21966,-0.0093644,0.011333,0.010413,0.0092845
-0.063382,-0.20004,-0.41704,-0.45252,-0.011387,0.0037168,-0.010228,-0.025757
0.0044334,0.10668,-0.05163,0.18636,0.040607,0.018647,0.0076395,0.015877
-0.01462,-0.017136,0.30002,0.27978,0.015046,0.0024142,0.0022624,-0.0058264
0.013634,0.087835,-0.31295,-0.5272,-0.063522,-0.044024,-0.049058,-0.0041962
0.0045473,-0.091476,0.54547,0.33364,0.071397,0.020766,0.065217,0.013679
0.099737,0.22006,-0.44397,-0.19377,0.0063174,0.048907,0.032951,0.056213
-0.1065,-0.19565,0.18138,-0.1734,-0.11785,-0.099964,-0.07547,-0.071507
0.16716,0.29396,-0.015509,0.32956,0.28484,0.21474,0.11475,0.076001
-0.1031,-0.17138,0.04899,-0.19769,-0.3014,-0.16351,-0.084328,-0.048181
-0.058544,-0.12412,0.42355,-0.13051,-0.033223,-0.039889,-0.016996,-0.0067603
-0.028089,-0.088851,0.090538,0.4801,0.12007,0.022539,-0.058839,-0.042241
-0.067204,-0.23064,-0.61154,0.024872,-0.092338,-0.05498,0.047423,-0.030007
0.065582,0.23872,-0.22127,-0.22546,0.18007,0.11753,0.051353,0.068579
0.11183,0.20897,0.097081,0.24847,-0.064021,-0.038721,-0.0083088,0.018687
0.094424,0.21024,0.031399,-0.11156,0.14271,0.11626,0.05574,0.077667
-0.080816,-0.040079,0.74785,-0.03321,-0.076095,-0.074343,-0.069061,-0.043963
-0.12512,-0.30906,-0.39743,-0.13849,-0.1746,-0.10314,-0.054506,-0.088705
-0.015147,-0.051056,-0.037615,-0.30227,0.065476,0.076536,0.044947,0.0058096
0.046142,0.11604,0.0094768,-0.027257,-0.066584,-0.050851,-0.0047297,0.028728
-0.042452,-0.16703,-1.0246,0.023758,0.023861,-0.0083989,-0.0078114,-0.050904
0.094584,0.084991,0.84312,0.31527,0.080397,0.071633,0.036113,0.064231
-0.026572,-0.071673,-0.052185,0.062029,-0.035963,-0.04446,-0.036681,-0.031634
0.10239,0.29448,0.10811,-0.085414,0.10607,0.089326,0.070904,0.091617
-0.080613,-0.033573,0.35971,0.45017,-0.046867,-0.042005,-0.023858,-0.042288
-0.020609,-0.023223,0.36124,-0.13259,-0.017272,-0.039491,-0.039744,-0.026979
-0.037694,-0.12682,-0.5274,0.27566,0.05475,0.019147,-0.0081052,-0.010936
-0.053595,-0.11765,0.044683,-0.7807,-0.1197,-0.045498,0.00061216,-0.017758
0.033325,-0.066452,-0.82993,-0.49314,-0.04852,0.0011095,0.0097155,-0.016424
0.17617,0.50242,0.011613,0.64955,0.13518,0.088681,0.050344,0.094379
-0.10178,-0.18569,0.39612,-0.036645,-0.076816,-0.048529,-0.033845,0.0019311
-0.058637,-0.23368,-0.33468,0.030147,0.018042,-0.012356,-0.047617,-0.067358
0.031736,0.10723,0.65961,0.33828,0.028429,0.0092823,0.040195,0.0036437
0.067283,0.19553,0.95188,-0.17062,0.06287,0.031481,0.026375,0.035298
-0.069668,-0.26606,-0.51161,-0.23437,-0.1374,-0.063542,-0.034492,-0.05038
-0.0045161,0.01944,-0.68382,0.14416,0.10635,0.059557,0.044978,-0.01883
-0.010951,0.013558,-0.11085,0.38503,-0.027068,-0.045059,-0.055636,0.028547
0.02814,0.014027,-0.60239,-0.32439,0.039855,0.051907,0.0073292,0.052756
0.0113,0.21708,1.2147,0.017823,-0.05253,-0.032564,0.015075,-0.0087756
0.0012697,-0.20466,-0.49368,0.087639,-0.022833,0.014031,0.0066614,-1.3621e-05
-0.071929,-0.14922,0.11354,-0.99193,-0.12052,-0.089347,-0.041304,-0.03846
0.081125,0.28188,0.45051,0.37946,0.12398,0.079554,0.050952,0.031808
0.015448,-0.0054003,-1.0437,0.19221,0.086621,0.044655,0.0023027,-0.00038703
-0.057766,0.12914,0.74995,0.5832,-0.05981,-0.068537,-0.015227,-0.017926
0.033513,-0.24452,-0.074145,0.07689,0.068197,0.037309,0.0063475,-0.036291
-0.070035,-0.2514,-0.54885,-0.078988,-0.14614,-0.059339,-0.049977,-0.0082613
0.053428,0.18705,0.51629,0.2277,0.13324,0.063584,0.026916,0.027571
0.028802,0.19671,0.16746,-0.8768,-0.093845,-0.0079533,0.018422,0.0013875
0.027846,-0.05716,0.009788,0.015046,-0.015222,-0.016256,-0.0050647,0.093281
-0.051089,-0.049864,-0.018461,0.24975,0.087414,0.015015,0.0033242,-0.063704
-0.012698,-0.045955,-0.59001,-0.3472,-0.098903,-0.031599,-0.011205,-0.016424
-0.013135,0.080204,0.33325,0.36488,0.05822,0.015515,0.013655,0.00057504
-0.06002,-0.10886,0.65017,0.48993,0.058458,0.015537,-0.00047015,-0.036461
0.13594,0.065843,-0.80023,-0.54622,0.01881,0.054314,0.032103,0.059585
-0.081292,-0.037684,-0.28489,-0.24685,-0.17013,-0.12594,-0.068525,-0.031981
0.061795,0.094234,0.45639,0.44688,0.062092,0.02178,0.017834,0.032274
-0.044258,0.053106,0.17919,0.17075,-0.010829,0.013291,-0.0057149,-0.0056727
-0.0090995,-0.053878,-0.22574,-0.40993,-0.0057409,0.0050346,-0.014091,-0.059961
0.088722,0.076252,0.2036,-0.23332,0.13239,0.090895,0.070983,0.064773
-0.08723,-0.29958,-0.4228,0.54971,-0.033656,-0.041583,-0.023749,-0.053183
0.040699,0.13127,0.089105,-0.15048,-0.027089,-0.009634,-0.016858,0.055154
-0.020024,0.13566,0.5788,0.56816,0.019429,-0.00085973,0.013674,-0.00059109
-0.07424,-0.23748,-0.39139,-0.45452,-0.15963,-0.10131,-0.057064,-0.056135
0.081239,0.045565,0.21355,-0.13532,0.099849,0.071717,0.044393,0.044919
-0.022087,0.034018,-0.69988,-0.81915,-0.045947,-0.0052814,0.0055049,-0.01769
0.01459,0.14363,0.38943,0.11164,0.012141,0.01136,-0.0019567,-0.001834
0.011986,0.031309,0.43103,0.99461,0.093983,0.019972,0.0062319,0.022026
0.0017125,-0.061338,0.33577,-0.10568,0.066102,0.043841,0.014276,0.022432
-0.015967,0.082764,-0.66317,0.14071,-0.11918,-0.081267,-0.040475,-0.063332
-0.095595,-0.41383,-0.58685,-0.10091,-0.056381,-0.05081,-0.025296,-0.0010567
0.23943,0.57117,0.95447,-0.0016057,0.31649,0.24454,0.12232,0.099821
-0.15153,-0.38656,-0.76958,-0.61516,-0.3756,-0.21854,-0.11315,-0.080936
-0.034149,-0.02308,0.069681,0.23188,0.024146,-0.017858,-0.0049156,-0.027481
0.052505,0.2313,0.52277,0.21409,0.071582,0.042392,0.033219,0.041769
-0.055586,-0.13843,-0.13972,0.50721,0.026094,-0.0059335,0.0015417,-0.060298
0.11822,0.25228,0.34436,-0.75912,0.006566,0.072131,0.048722,0.096359
-0.13693,-0.57837,-1.0622,-0.58818,-0.063684,-0.051104,-0.059483,-0.034906
0.014895,0.2476,0.65425,0.24203,0.0036739,-0.0082949,-0.010584,-0.016558
-0.043638,-0.095061,-0.036376,0.48226,0.021105,-0.041831,-0.015672,-0.028473
0.26528,0.59897,0.31553,0.24711,0.222,0.17585,0.11247,0.12427
-0.12915,-0.32531,0.15567,0.7492,-0.12983,-0.11392,-0.064044,-0.082316
-0.047794,-0.024032,-0.25236,-0.54372,-0.060127,-0.037153,-0.02216,-0.015984
0.016655,-0.029274,-0.1299,-0.39151,0.069355,0.084866,0.034641,0.041511
-0.11582,-0.17844,0.014176,-0.076274,-0.21208,-0.14708,-0.089192,-0.089848
0.13288,0.26114,-0.12282,0.17,0.21164,0.16504,0.098442,0.08203
0.013009,-0.0793,-0.2849,-0.48164,-0.042414,-0.025621,-0.0039415,-0.0052078
-0.1077,-0.16971,-0.18867,-0.26157,-0.15297,-0.11704,-0.060186,-0.054342
0.06048,0.17666,0.27262,0.46306,0.092647,0.047875,0.039397,0.028832
0.0026037,-0.001485,0.65261,0.030193,0.016946,0.0092206,-0.0095366,0.018216
-0.069896,-0.2511,-0.30761,0.035169,-0.10449,-0.067895,-0.034805,-0.03895
0.15569,0.39651,0.57692,0.2817,0.22219,0.1455,0.065362,0.076285
-0.10202,-0.24626,-0.76897,0.35857,0.0057021,-0.021985,-0.021462,-0.03451
0.086223,0.29683,0.069213,-0.11847,-0.043026,3.0096e-05,0.017158,0.011318
-0.05367,-0.22459,-0.37137,-0.29505,-0.049782,-0.030973,-0.014266,-0.020863
-0.030174,-0.021826,0.74154,0.040635,-0.04711,-0.037469,-0.022215,-0.014118
-0.0078583,-0.055977,-0.7687,-0.31373,0.041688,0.034536,0.0087234,0.0079538
0.04433,0.048168,0.50682,-0.48071,-0.0033314,0.036002,0.023731,0.0141
-0.037477,0.0099789,0.39918,0.44325,-0.034409,-0.064687,-0.03189,-0.018942
-0.0027036,0.025764,-0.66572,0.27872,0.010926,-0.0097732,0.0060513,-0.012722
0.0088776,0.026455,0.72406,-0.010648,0.0082717,0.0056778,-0.0028315,0.017535
-0.033021,-0.056938,-0.54861,-0.10029,-0.033499,-0.017871,-0.0035494,-0.0059141
0.044341,0.05024,-0.28608,0.35818,0.074365,0.076364,0.02763,0.0031248
0.0071658,0.012999,-0.11678,-0.45936,-0.088875,-0.039295,-0.018452,0.029084
-0.0037756,-0.12123,0.13678,-0.034709,0.040018,0.010377,-0.0010847,-0.014152
0.01899,0.12421,0.44135,-0.14841,0.015867,0.0065666,0.0015258,-0.0019829
0.02781,-0.0089409,-0.1201,0.70607,0.15846,0.066106,0.043828,0.033794
0.0059783,0.087773,0.52581,-0.22424,-0.087986,-0.045946,-0.022979,-0.016791
-0.14145,-0.42299,-0.3935,-0.33401,-0.17027,-0.11931,-0.06651,-0.076139
0.092234,0.30856,-0.12922,0.27868,0.11317,0.095386,0.069064,0.058508
-0.004752,0.14754,0.18312,0.055526,-0.0046689,-0.0038938,-0.015042,-0.019251
-0.057894,-0.1894,-0.89753,-0.17753,-0.040341,-0.018983,-0.022182,-0.012477
0.073333,0.19416,0.46877,0.087119,0.037012,0.018817,0.024126,0.047819
0.006363,-0.086149,0.37208,-0.32063,0.032261,0.031524,0.0067588,0.0057293
-0.10205,-0.34372,-0.20669,-0.16313,-0.15548,-0.11339,-0.050652,-0.075878
0.11594,0.29644,0.14345,0.086925,0.13884,0.10788,0.055306,0.061139
-0.018614,0.014967,0.19332,0.14387,0.0023383,0.00042544,-0.018781,0.010776
0.018435,0.03245,-0.26207,0.65026,0.053308,0.0099605,0.0086828,-0.0080572
0.016828,0.031106,0.28442,0.02795,-0.027597,-0.011563,0.020825,0.020347
-0.1322,-0.29864,-0.66633,-0.53739,-0.13809,-0.095024,-0.060223,-0.060217
0.0093794,0.0070895,0.068049,0.04509,0.050419,0.033361,0.0079061,-0.0075183
0.051368,0.19308,0.57783,0.4445,0.092846,0.022335,0.022177,0.01444
0.087802,0.20655,-0.27204,-0.67664,0.0048436,0.059631,0.029466,0.044803
-0.068699,-0.15461,-0.12396,-0.30218,-0.096516,-0.057751,-0.024993,-0.033532
0.011488,0.0003025,-0.02704,0.39089,0.054185,0.037381,0.014917,0.013869
-0.0078146,-0.10287,-0.19592,0.086578,0.0035644,0.0011544,-0.0072106,-0.00048456
-0.025429,0.011122,0.29317,-0.28838,-0.076793,-0.072913,-0.04465,-0.0063355
0.075337,0.2391,0.5645,0.45759,0.12528,0.096111,0.058727,0.03525
-0.15141,-0.44413,-0.36178,-0.14208,-0.17972,-0.13279,-0.072177,-0.079052
0.059311,0.12371,0.071597,0.45904,0.10143,0.052438,0.039108,0.03331
0.027091,0.05018,-0.27437,-0.10917,0.030498,0.026279,0.001836,0.01265
0.032418,0.075553,-0.046296,-0.10933,0.012893,0.038178,0.018962,-0.032005
0.0042208,-0.020904,-0.51458,-0.57042,0.039909,0.0094558,0.019953,0.055242
0.074656,0.30573,0.59915,0.072806,0.017014,0.017766,0.0045685,0.031889
-0.13169,-0.2743,0.2707,0.15271,-0.18126,-0.11686,-0.066451,-0.07102
0.033613,0.066227,-0.24085,0.19114,0.11696,0.058719,0.033374,0.043355
-0.0070875,-0.0083535,0.13772,0.086979,-0.033013,-0.0098106,0.0072627,-0.046666
-0.034033,-0.23851,-0.097312,-0.14987,-0.0050196,-0.0092167,-0.019489,-0.012514
-0.022347,0.050849,-0.16783,-0.2429,-0.039636,-0.0088077,-0.015153,0.0058345
0.014014,-0.049996,-0.10823,-0.17326,-0.049147,-0.030899,-0.010391,0.0013344
0.021993,0.073188,-0.094199,0.57741,0.077455,0.019308,0.011014,0.0059875
0.096639,0.19834,0.50196,0.22172,0.16167,0.12697,0.065167,0.075079
0.0043111,0.016264,-0.068821,-0.20079,-0.022556,-0.020025,0.0038894,-0.025439
-0.13778,-0.39353,-0.19826,-0.1438,-0.14734,-0.10147,-0.071273,-0.069012
0.036869,0.34313,0.13415,0.063435,-0.018334,-0.00074629,0.011244,0.029942
0.011308,0.012289,0.15852,-0.47868,-0.035509,-0.046912,-0.0069279,-0.018291
0.05724,0.21864,-0.21588,0.23685,0.13521,0.1104,0.045364,0.051059
-0.014729,-0.20742,-0.05598,-0.0090811,-0.0081069,0.0011629,0.0032808,-0.0051289
-0.018868,-0.15418,0.40839,0.29917,0.01716,0.014816,-0.016695,-0.0080384
0.035644,-0.016645,-0.8712,-0.25245,-0.040299,0.0020146,0.00054183,0.010413
-0.15664,-0.2819,0.15239,0.038911,-0.11085,-0.13146,-0.07025,-0.075126
0.1308,0.3853,0.6216,0.43809,0.16493,0.083194,0.067883,0.071312
0.0079831,0.0017203,-0.18749,-0.57181,-0.048085,0.021592,0.016891,0.0048252
-0.14109,-0.055087,-0.34245,0.10146,-0.14691,-0.11208,-0.066353,-0.10981
0.10694,0.077542,0.44788,0.24565,0.10466,0.074133,0.029843,0.079845
0.019227,-0.018883,-0.46401,-0.1711,-0.010217,0.0034836,0.0015435,0.0043683
0.018903,-0.044553,0.8434,0.30486,0.11953,0.05995,0.036876,0.0082267
-0.057271,-0.098896,-0.39691,-0.38703,-0.12988,-0.083827,-0.043442,-0.0019042
0.040994,0.061472,-0.35094,-0.18876,0.085889,0.080214,0.041978,0.028738
0.016607,0.24939,0.25297,0.53677,0.0089314,-0.018505,-0.011678,-0.0016622
0.048674,0.066166,-0.64094,-0.76835,-0.056735,-0.01349,-0.0094358,-0.015467
-0.082305,-0.39498,0.78773,0.079425,-0.01062,0.0083673,-0.0064477,-0.021075
-0.064536,-0.048521,0.10278,0.91818,-0.010225,-0.078955,-0.026652,-0.042466
0.015548,0.050747,-0.19345,-0.29926,0.052609,0.059569,0.031063,0.029345
0.048368,0.12967,-0.19175,0.017818,-0.049688,-0.022049,-0.0055263,0.0223
-0.051942,-0.045594,-0.5532,-0.3626,-0.028756,-0.0038684,-0.019442,-0.024516
0.10549,0.20513,0.28708,0.26339,0.068172,0.043729,0.04393,0.045327
-0.049335,-0.18049,0.6818,-0.072553,-0.024575,-0.011883,-0.010674,-0.025722
-0.039644,-0.1091,-0.041322,0.13093,0.0057083,-0.02971,-0.026854,-0.018639
0.064303,0.074437,-0.39978,-0.56799,0.010962,0.037593,0.019041,0.035545
-0.011084,0.071461,0.7286,0.65746,0.038535,0.01084,0.01008,-0.011473
-0.016134,0.090622,-0.34652,-0.28453,-0.082932,-0.070434,-0.037855,-0.019038
0.0018579,-0.089288,-0.53329,0.025153,0.0064472,0.036356,0.016093,0.020611
0.026853,0.076408,-0.31637,-0.10917,0.072771,0.042439,0.031471,0.021423
0.027304,0.10966,0.52444,0.0087077,0.030501,0.026108,0.0083647,-0.0011055
-0.14534,-0.43528,-0.41449,-0.12825,-0.21383,-0.16104,-0.09231,-0.078346
0.0012079,-0.018551,0.19776,0.45577,0.12116,0.074615,0.041812,0.0005482
0.053137,0.1508,0.49573,-0.22709,-0.027128,-0.0015523,0.012047,0.032386
0.065479,-0.0027167,-0.3645,-0.26197,0.059754,0.047556,0.036814,0.056175
0.11669,0.44563,0.91162,0.24675,0.11566,0.096442,0.045435,0.040612
-0.15235,-0.3141,-0.039192,0.66804,-0.07881,-0.11324,-0.071802,-0.076862
-0.03835,-0.061355,-0.52587,-0.013969,-0.055531,-0.06632,-0.049503,-0.03848
-0.033447,-0.13122,-0.88755,-1.0189,-0.088403,0.010317,0.0028897,-0.0083218
0.026418,0.030793,0.093535,0.14551,0.04897,0.054094,0.022994,0.021447
0.15682,0.35324,0.23929,-0.42476,0.059901,0.057376,0.050159,0.050882
-0.11887,-0.21257,0.16284,0.8301,-0.039469,-0.088787,-0.032401,-0.021505
0.035227,0.026533,0.23606,0.074424,0.056295,0.030286,0.010143,0.02312
-0.037153,-0.11899,0.13515,-0.39204,-0.042577,-0.0065388,0.0063564,-0.01827
0.015616,0.18526,0.14405,0.19335,0.016301,0.012441,0.003498,-0.0049224
-0.025056,-0.10829,0.12261,0.45387,-0.0085831,-0.029272,-0.037203,-0.030414
-0.0026824,-0.13216,-0.9152,-0.61949,0.016031,0.017272,0.0016223,0.0070434
