-0.18912,-0.14227,0.032297,-0.013439,0.021301,0.015929,0.018857,0.019403
0.21504,0.22003,0.078377,0.11862,0.021777,0.023325,0.035826,0.11843
-0.26978,-0.19281,-0.1009,-0.099138,-0.00059839,7.7613e-05,-0.032648,-0.1252
0.067774,-0.06028,-0.052634,0.036026,-0.030376,-0.038327,-0.014945,-0.19685
-0.10697,-0.014695,-0.0194,-0.046785,-0.005327,0.0015901,0.010477,0.16022
0.55158,0.1555,0.10767,0.057993,0.03517,0.049189,0.027652,0.085575
-0.32166,-0.072579,0.054597,0.021582,0.0048768,-0.013019,-0.0027625,-0.077836
-0.037094,0.20759,-0.061911,-0.039325,-0.0183,-0.028972,-0.049666,0.060153
-0.077262,-0.12123,0.062532,-0.007778,-0.0031976,-0.01432,0.011966,-0.07075
-0.16731,0.12031,-0.11116,-0.032147,-0.020056,-0.0079644,0.018283,0.08471
0.38111,-0.19328,-0.03582,-0.01051,-0.0061498,-0.0017911,-0.014729,-0.14424
0.02917,-0.023302,-0.023313,0.042073,0.023235,0.035823,0.02275,0.11895
-0.15327,-0.080863,0.13812,0.016864,0.021604,0.019287,-0.025089,-0.12395
-0.20635,-0.029883,-0.03503,0.00035866,-0.018515,-0.019919,-0.0016611,-0.0040476
0.18865,0.25501,-0.073344,-0.03835,-0.018769,-0.011421,-0.00056564,0.10498
0.092305,-0.07724,0.086002,0.017966,0.013089,0.013404,0.032803,-0.054073
0.018166,0.21605,0.020992,0.020595,0.022247,0.02303,0.020001,0.096637
-0.29357,-0.091198,-0.042421,0.0080597,0.00060094,-0.021972,-0.02385,-0.069103
0.31167,-0.22511,-0.019277,0.0031228,-0.028813,-0.036037,-0.036851,0.1733
-0.11261,-0.013376,0.058013,-0.010491,0.027322,0.011779,0.042924,-0.084803
-0.12158,-0.11961,0.032084,0.0058273,-0.01105,0.011918,-0.019333,-0.35358
0.10526,0.19087,-0.11353,-0.033982,-0.011346,0.01122,-0.012881,0.55259
0.38135,0.2853,0.034812,-0.012459,0.010781,0.017615,0.023305,-0.35953
-0.69026,-0.31325,-0.12435,-0.030542,-0.022614,-0.031161,-0.043226,0.066277
0.19693,0.17561,0.12045,0.053245,-0.0017971,-0.0097894,0.022484,-0.17687
0.13851,-0.24943,0.0044301,-0.033671,0.011195,0.0039518,0.0023813,-0.04824
-0.16868,0.050715,0.028532,0.029676,0.0090215,0.010378,0.037786,0.37606
0.22939,0.27758,0.045157,0.02479,0.015497,0.017535,-0.02698,0.12142
0.067236,-0.0076264,-0.077905,-0.0095133,-0.023862,-0.0057223,-0.0040612,-0.099637
-0.16349,-0.4619,-0.020046,-0.0036461,-0.0075066,-0.028185,-0.041815,-0.32519
0.2472,0.50068,0.093743,0.088211,0.048714,0.0359,0.086115,0.11703
-0.3813,-0.41602,-0.088316,0.0070978,-0.011834,-0.024706,-0.04261,-0.08567
0.38026,0.070627,-0.043128,-0.052638,-0.0099213,0.00055781,0.0088603,0.20667
-0.36616,0.0405,0.080496,-0.16969,-0.016294,0.009742,0.0054103,0.016443
-0.15048,0.034407,-0.030272,-0.023796,-0.023452,0.0025041,-0.045864,-0.13419
0.18557,0.42876,0.077472,0.041669,0.015338,0.01767,0.041952,-0.15286
0.16773,-0.41619,-0.10416,0.066408,0.0063828,-0.030784,-0.028388,0.31071
0.087005,-0.04707,0.073336,0.17606,0.0045856,0.0056692,0.047702,0.22435
-0.36812,0.074923,-0.01479,-0.1055,0.0024579,-0.021144,-0.057716,-0.32641
0.19263,-0.0039142,-0.016612,0.034371,-0.0074537,-0.0014494,0.054243,-0.13028
0.24399,0.10635,-0.0567,-0.037177,0.022057,0.041794,-0.029828,-0.014302
-0.14683,-0.094922,0.0059818,0.14074,0.013123,-0.0081219,-0.020094,-0.078371
-0.02272,-0.14727,0.038906,-0.22074,-0.018466,0.00546,0.006102,0.21848
-0.090707,-0.019757,0.034335,-0.066339,-0.041394,-0.02656,0.0025645,-0.036134
0.1382,0.30305,0.038962,-0.035687,0.030259,0.013115,0.047888,0.21351
-0.22851,-0.10086,-0.041373,-0.041606,-0.022354,-0.024025,-0.045242,-0.063705
-0.13637,0.073041,0.011532,0.28425,0.019354,0.02585,0.027739,0.0063762
0.5958,-0.081613,0.0096264,-0.026114,0.045782,0.021751,-0.014829,-0.24189
-0.38853,-0.041449,-0.12564,0.050819,-0.052713,-0.013313,0.013929,0.0098254
-0.32788,0.060793,0.074285,0.092554,0.020455,-0.0016534,-0.0039025,0.017325
0.51586,-0.21216,-0.05465,-0.26148,-0.031869,-0.037384,-0.037789,0.23989
-0.010493,0.038458,0.050232,-0.059618,0.016653,0.035502,0.044495,-0.19854
-0.33485,0.0082524,0.045398,0.22793,0.04869,-0.017454,-0.038671,0.10799
0.55853,0.33798,-0.022149,-0.25937,-0.03735,0.022563,0.048535,-0.18375
-0.47248,-0.089682,0.0038009,0.016699,-0.030446,-0.023944,-0.029683,0.37281
-0.0010955,-0.064136,-0.0019856,0.086889,0.0070919,-0.0082884,-0.038602,-0.49387
0.031588,-0.1327,0.007002,-0.11164,-0.018224,-0.00053699,0.0066274,0.077823
0.52828,0.016824,0.022568,0.42864,0.057955,0.038546,0.059627,0.55116
-0.26362,0.1344,-0.025863,-0.12065,-0.014114,-0.023794,-0.019806,-0.5718
0.16276,-0.11556,0.0023106,0.068481,0.047014,0.046747,0.049848,0.36665
-0.70702,0.048812,-0.15044,-0.37877,-0.063233,-0.031255,-0.043828,-0.21881
-0.31505,-0.31713,0.10238,-0.055443,-0.024503,-0.03927,-0.089997,-0.51613
0.73395,0.1308,0.089655,0.14134,0.022559,0.038133,0.067344,0.41847
-0.18777,0.27529,-0.039398,0.049311,0.023206,0.0055393,0.060676,0.84806
0.21303,0.20929,-0.034131,0.022028,-0.030464,-0.035456,-0.055667,-0.4415
0.09483,-0.33425,-0.026982,0.037876,0.033315,0.0090782,0.014898,-0.43007
0.090143,0.24455,0.052387,-0.011235,-0.0043357,0.01444,0.01439,0.028094
-0.12413,-0.079215,0.070833,0.00019604,-0.026365,-0.026818,-0.025933,-0.013823
0.26775,-0.29844,-0.034764,0.040554,0.029594,0.026285,-0.0042981,0.36614
-0.51292,-0.17058,-0.10894,-0.086628,-0.024071,0.0099616,-0.014076,-0.23662
-0.33028,0.14958,0.019364,-0.054945,0.015683,0.01029,-0.0079107,-0.3739
0.32018,-0.046611,-0.017717,-0.046086,-0.030874,-0.027441,-0.0087711,0.21552
0.038725,0.36058,0.16999,0.50049,0.062823,0.0059603,0.05399,0.38635
0.42764,0.42813,-0.034847,-0.51841,-0.046936,-0.014819,-0.01484,-0.070207
-0.26849,-0.58455,-0.13985,0.036728,-0.0085215,0.011389,0.042361,-0.24724
-0.3666,0.018586,0.0039024,0.009192,-0.0015413,0.0060335,-0.024859,0.32305
0.066611,-0.37978,0.014334,0.047568,0.020954,-2.7038e-05,-0.014005,-0.24445
0.30768,0.43044,0.11884,0.17594,0.027774,0.00070754,0.058631,0.18005
0.14769,-0.044398,-0.088012,-0.12038,-0.0044848,0.015863,-0.096566,-0.078307
-0.20961,-0.048376,-0.0040294,-0.02,-0.044551,-0.048346,-0.034615,-0.14679
-0.04621,0.080373,0.066475,-0.076558,0.0013417,0.026957,0.04131,-0.18263
0.36272,-0.08231,-0.07957,0.046817,0.0004036,-0.0079544,-0.017017,0.1506
-0.29751,0.070866,0.073214,0.18686,0.022985,0.011364,0.095492,0.2453
-0.0368,0.3743,0.01652,-0.015148,0.022261,0.015041,-0.003487,-0.44274
-0.45828,-0.40703,-0.078421,-0.23048,-0.025144,-0.027728,-0.063465,0.70661
0.070029,-0.13201,-0.056061,-0.036745,-0.0097904,0.00063308,0.009741,-0.54621
0.56351,-0.12716,0.04386,0.22276,0.0058862,-0.0089591,0.0055467,0.48813
-0.024594,0.063126,0.048877,-0.15483,0.014126,0.060845,0.033605,-0.86931
0.36848,0.23073,0.0053962,-0.193,-0.070982,-0.047743,-0.038684,0.69352
-0.59294,-0.074999,0.01467,0.37336,0.063043,0.0011033,-0.031477,-0.23121
-0.010059,0.24904,0.10784,0.24631,0.041124,0.0040452,0.024061,-0.044375
-0.19482,-0.22659,-0.2384,-0.46634,-0.058754,-0.023577,-0.051764,0.39172
0.25995,0.14548,-0.02368,-0.11805,-0.0024016,0.035109,0.12373,0.02735
-0.082057,0.0038412,0.112,0.24238,0.038109,0.0079275,-0.059094,-0.30377
0.38214,-0.021061,0.083467,0.25393,0.031362,0.019619,0.079047,-0.40745
-0.17424,0.0062004,-0.053796,-0.35006,-0.093045,-0.070632,-0.095135,0.38064
-0.21101,-0.48589,-0.025647,0.16456,0.024269,-0.0051241,-0.027451,-0.40666
0.10058,0.16664,-0.0034708,-0.20154,-0.015039,0.02078,0.016034,0.85041
-0.5363,0.074164,-0.057392,-0.16562,-0.007693,0.0070711,0.0037363,-0.4467
0.79176,0.23834,0.046805,0.3134,0.062079,0.047492,0.044838,0.20489
0.20059,0.067274,0.027365,0.065854,-0.016573,-0.022039,-0.0013329,-0.55974
-0.72572,-0.21094,0.047561,-0.10162,0.014164,0.009377,0.045004,0.69828
0.41702,0.34995,0.020505,-0.086045,0.013585,-0.037977,-0.081554,-0.19267
-0.13085,-0.49986,-0.078182,0.37115,-0.010618,-0.0078472,-0.044746,-0.51463
0.1763,0.1923,0.0085686,-0.23775,-0.042915,0.013895,0.030811,0.46506
-0.40407,-0.027609,-0.047768,-0.061493,-0.020828,-0.019493,-0.0029417,-0.34984
0.07389,-0.098319,-0.051858,-0.24125,-0.0067811,0.040611,0.088678,0.75653
-0.091696,0.072537,0.027961,0.30839,0.054063,0.014724,-0.030091,-0.3282
0.04599,-0.22739,0.067392,0.008907,-0.017812,-0.050091,0.00014905,-0.49733
0.51951,0.66468,0.10633,-0.13995,0.035536,0.025991,-0.031654,0.47376
-0.10791,-0.17414,-0.096568,0.033517,-0.028039,-0.022586,-0.024139,-0.39245
-0.078413,-0.14271,0.068789,0.13845,0.041402,-0.00052213,-0.0087825,0.19334
-0.33783,-0.15469,-0.11577,-0.020818,-0.021906,0.053036,0.06891,0.47472
0.26153,0.12721,0.014247,-0.061995,-0.038436,-0.010481,0.029133,-0.68659
-0.14028,-0.40415,-0.087808,-0.17329,-0.016126,-0.050596,-0.10469,0.3844
0.011322,0.16019,0.054658,0.12101,0.021543,0.034138,0.065946,-0.019795
0.09184,0.22911,0.10547,0.2575,0.043386,-0.0063283,-0.07599,-0.2082
-0.10081,-0.11739,-0.060889,-0.2725,-0.020749,-0.023517,0.024368,-0.0059241
-0.080922,0.33216,0.086031,0.053747,-0.0065671,0.029577,0.054675,0.10481
0.15282,-0.16537,-0.02504,-0.053274,-0.030992,-0.034348,-0.016227,-0.062578
0.11702,0.18464,-0.012249,0.015737,0.039035,0.050558,0.053856,0.030457
0.046464,0.035465,-0.071674,0.10487,0.00057299,-0.027991,-0.063259,0.18666
-0.20748,-0.53775,-0.031844,0.19925,0.0099562,0.019219,0.0073453,0.098288
-0.059608,-0.22475,-0.0020957,-0.51252,-0.05786,-0.03431,-0.023441,0.32419
0.082785,0.49681,0.064904,0.11931,0.031319,0.014507,-0.0071591,-0.97512
0.1092,-0.083811,0.021474,0.072627,0.011561,0.0092698,0.017223,0.11936
-0.020368,0.04239,-0.029946,-0.049894,-0.015976,-0.011198,-0.028284,-0.050387
-0.11124,0.1741,0.036451,0.6587,0.088893,0.02311,0.067373,0.53064
-0.17146,-0.093003,-0.020938,-0.62955,-0.080494,-0.0053187,-0.023896,0.034618
0.20538,-0.14783,-0.037777,-0.086894,-0.032255,-0.026477,-0.020938,-0.28756
-0.027216,0.081195,0.056196,0.074846,0.038158,0.029714,0.044759,0.018346
0.25623,0.047903,-0.028402,-0.075252,-0.048888,-0.040004,-0.030283,0.32067
-0.18608,-0.10685,0.043881,0.24258,0.050598,0.0065437,-0.012093,-0.44981
0.067957,0.077672,-0.00091127,0.026813,0.032307,0.044464,0.044262,0.34078
-0.30203,0.022867,-0.08508,0.057306,-0.040814,-0.011976,-0.048989,-0.25955
-0.022959,-0.13134,0.0098859,-0.19811,-0.012069,-0.021876,0.0049223,-0.022971
0.14664,-0.010767,0.018339,0.22135,0.017357,-0.00055335,-0.012662,0.0050521
0.20566,0.12584,0.01076,-0.29285,0.00084252,0.021037,0.062597,0.6619
-0.026983,-0.15221,-0.028206,0.050195,0.00099168,-0.050611,-0.09701,-0.73078
0.19717,0.36504,0.057964,-0.20777,-0.021317,0.034655,0.079311,-0.3908
-0.35757,-0.12801,0.050701,0.19409,0.043086,0.019055,-0.0095343,0.93221
-0.012279,-0.21016,-0.08903,0.10224,-0.02487,0.0040564,0.0040179,-0.28563
-0.10282,-0.10826,-0.017617,0.049711,-0.0068161,-0.018355,-0.043864,-0.20978
0.12966,0.33415,0.022484,0.052468,0.018739,0.014052,0.034375,0.36061
0.030738,-0.11663,-0.023758,-0.38293,-0.042279,-0.03181,-0.0035767,-0.55394
-0.084814,0.017087,0.10894,0.61581,0.052099,0.015708,-0.0017424,0.65279
0.0040374,-0.23994,-0.071844,-0.24403,0.004923,0.015852,0.023877,-0.037724
0.22885,0.18392,0.011916,-0.11479,-0.043108,-0.054824,-0.052129,-0.51816
0.004848,0.16479,-0.04589,-0.27332,-0.0058476,0.030343,0.027674,0.21845
-0.097235,-0.30448,-0.0027092,0.23124,-0.0079891,0.029352,0.020823,-0.39755
0.18799,0.47162,0.048271,0.0074962,0.036747,-0.0028823,0.0053143,0.83895
-0.36664,-0.20253,-0.0016536,0.025071,0.011488,-0.01145,-0.034434,-0.25653
-0.12128,-0.27292,-0.073701,0.09877,-0.01322,-0.019611,-0.0201,-0.25085
0.17332,0.048561,0.09826,0.060092,0.033056,0.0039865,-0.02169,-0.41428
0.0008063,-0.012613,-0.087096,-0.35267,-0.084053,-0.02659,0.015814,0.091313
-0.053693,0.0032989,0.041998,0.067512,0.041614,0.044816,0.061441,0.64939
0.62605,0.25911,0.06321,0.15204,0.034911,0.038336,0.029411,0.29793
-0.59386,-0.035446,-0.016388,-0.018809,-0.034008,-0.030634,-0.0099512,-0.25468
0.13706,0.36084,-0.0023707,0.047821,0.0065946,0.0017467,-0.048936,-0.45706
0.10712,-0.53688,-0.028411,0.069695,0.0081888,-0.028744,-0.025198,0.43003
-0.28539,-0.12674,-0.071736,-0.14321,-0.052703,-0.028405,-0.0091839,-0.29811
0.13206,-0.048182,0.00011819,-0.078958,0.011415,0.0028403,0.022481,-0.14869
-0.0141,0.21639,0.085602,0.086216,0.052114,0.057352,0.038579,0.12339
-0.26095,0.12253,-0.025887,0.097963,-0.016561,-0.020899,-0.038914,-0.55529
0.44049,-0.12433,0.01777,0.28851,0.063144,0.033914,0.040136,0.81291
-0.23622,0.063497,-0.032776,-0.56339,-0.10732,-0.051519,-0.052281,-0.35323
0.069081,-0.055465,0.0027829,-0.075877,0.003169,0.011889,0.051068,0.058368
0.19975,0.065241,0.039005,0.18146,0.042886,0.0053008,-0.040491,0.60214
-0.21303,0.11166,0.021522,0.07022,-0.0039223,-0.0011481,-0.022434,-0.4831
-0.046868,0.073871,-0.0026573,0.19525,0.026717,0.03138,0.050291,0.24201
0.18731,-0.3082,-0.10388,-0.22085,-0.052727,-0.037964,0.0133,-0.0032299
0.0021457,-0.075479,0.030209,0.18511,0.03904,0.025029,0.030333,-0.35863
0.0048229,0.13818,-0.01471,-0.27881,-0.041608,-0.021905,-0.023856,0.053393
-0.31339,-0.034463,0.057933,0.022749,0.010218,-0.030289,-0.07906,-0.207
0.055961,0.11061,0.029032,0.10692,0.046342,0.023446,-0.018013,0.087676
0.20873,0.012438,0.023222,0.29441,-0.018878,0.022305,0.073597,0.15219
-0.18004,-0.20225,-0.061395,-0.28261,-0.0054581,-0.01008,-0.030434,-0.078052
-0.075493,-0.0085295,-0.076627,-0.16477,-0.053767,-0.011067,-0.001604,-0.27653
0.1897,0.17256,0.11804,0.20035,0.055122,0.027213,0.09007,0.96044
-0.038459,0.16129,-0.15704,-0.31492,-0.053739,-0.012466,-0.06776,-1.0437
0.194,-0.10577,0.098332,0.32561,0.072677,0.026033,0.040523,0.62575
0.22237,0.096371,0.15008,0.11133,0.020054,-0.01368,-0.030527,0.40409
-0.45522,-0.24971,-0.095172,0.0085767,-0.04793,-0.045787,-0.038919,-0.49378
-0.013124,-0.059658,-0.074504,-0.25002,-0.0067283,0.0077808,-0.00046481,-0.0021231
-0.00068544,0.15777,-0.014069,0.13164,0.0025926,-0.0013925,0.022211,-0.34365
0.06461,-0.19129,-0.030695,-0.10382,0.0031222,0.036162,0.036887,0.1356
-0.029083,0.26889,0.10242,-0.040684,-0.0053259,0.0033913,-0.034513,-0.040933
0.023035,-0.37437,-0.020902,0.12058,0.016322,-0.021439,-0.020002,-0.058542
-0.059341,0.5369,0.028837,-0.18707,-0.048908,0.00085007,0.064936,0.71946
0.084569,-0.14401,0.016852,0.086568,0.0728,0.015654,-0.052992,-0.85078
0.16713,-0.064044,-0.057454,0.13955,-0.047744,-0.016043,0.0013344,0.17248
-0.24034,-0.13624,0.016173,-0.09677,0.035309,0.046411,0.040504,0.59689
-0.02813,-0.14925,-0.036348,0.057597,-0.036911,-0.070396,-0.044813,-0.57657
0.30321,0.24825,0.026683,0.093752,0.0094286,0.031998,0.034453,0.16658
-0.40395,-0.054103,-0.060605,0.15013,0.0026855,-0.029193,-0.018601,0.2607
0.18437,-0.026689,0.14713,-0.30732,-0.010243,-0.0039672,-0.024354,-0.087754
0.10495,0.24244,-0.08418,-0.17204,0.032942,0.029495,0.0092821,-0.45409
0.17603,0.10262,-0.035253,0.23329,-0.0087931,0.02418,0.043109,0.21962
-0.36165,-0.30741,0.052416,-0.32727,-0.018829,-0.012323,-0.024608,0.36757
0.23377,0.019086,-0.039168,0.44244,0.033437,0.029071,0.0090593,-0.50394
-0.33364,-0.21461,0.0032057,-0.2388,-0.040133,-0.031621,-0.012342,0.12118
-0.038172,0.11792,-0.01521,0.23891,0.0099378,-0.054013,-0.034309,0.16714
0.38901,0.26922,0.11686,0.10294,0.042687,0.047716,0.09146,-0.17495
-0.11098,-0.26543,-0.10834,-0.54427,-0.066982,-0.0076478,-0.080417,-0.22121
-0.24581,-0.029958,0.051158,0.30598,0.017025,-0.0089817,-0.003056,0.14946
0.096146,-0.10818,-0.061327,0.16235,0.021645,0.028382,0.065816,0.7837
0.087468,0.2037,0.030178,-0.31025,-0.044787,-0.028035,-0.068969,-0.89523
0.19588,0.34997,0.028167,0.20932,0.052682,0.0017615,0.038082,0.50303
0.012567,-0.015686,0.0023795,-0.11404,-0.013543,0.024229,-0.026913,-0.26538
0.11996,-0.11557,0.0070706,0.056431,-0.0086912,-0.0074366,0.064331,-0.24205
-0.43089,-0.27365,-0.09081,-0.051925,0.012754,0.0082436,-0.047454,0.62498
0.27905,0.022858,0.021207,-0.071244,-0.0039002,-0.014882,-0.034094,-0.025917
-0.47037,-0.063347,0.04638,0.31151,0.0036597,0.0010122,0.049707,-0.75853
0.19615,-0.10996,-0.038497,-0.16109,0.019495,0.0087312,-0.0070631,0.42704
-0.01646,0.064709,0.05587,-0.074823,-0.042689,-0.031061,-0.017026,-0.35107
-0.21495,0.05736,0.0015142,0.085942,0.0042837,0.029905,0.011861,0.22126
0.25955,0.38672,-0.053086,-0.20246,0.01176,0.011916,0.024771,0.52063
0.4557,-0.13222,0.063872,-0.049894,0.0031066,-0.014581,-0.033082,-0.40498
0.061532,-0.06843,-0.038381,0.30848,-0.0059696,-0.025873,-0.028902,-0.17257
-0.18147,-0.078088,0.015009,-0.12067,0.00036776,0.017487,0.076465,0.3187
-0.34511,-0.052879,0.013025,0.24723,-0.016654,-0.024701,-0.029257,0.27063
-0.14188,0.075748,-0.1068,0.0044503,0.013584,0.019835,-0.0019655,-0.029084
0.25539,0.10272,0.022887,-0.41278,0.028838,0.049832,-0.020894,-0.69064
-0.34853,-0.30954,0.074208,0.14313,-0.025427,-0.04393,-0.015228,0.020536
0.43806,0.27553,0.016215,-0.1171,0.0070626,0.027607,-0.0001289,-0.08961
-0.13308,-0.11871,-0.033607,-0.15407,-0.045678,-0.048207,0.01692,0.53565
-0.25531,-0.15547,-0.012495,0.34545,0.066136,0.025256,-0.01085,-0.24213
0.55723,0.54182,0.13447,0.36672,0.053164,0.036761,0.088262,0.31301
-0.015076,-0.44672,-0.1628,-0.48791,-0.11612,-0.0843,-0.069012,-0.33754
-0.0272,-0.025376,-0.0056268,0.047771,0.026816,0.04463,0.040094,0.52404
-0.27723,-0.075391,0.012467,0.22419,-0.025978,-0.014154,-0.022689,-0.4012
-0.36079,0.443,0.040094,-0.41144,0.014522,0.028254,-0.015904,-0.10037
0.22762,-0.43158,-0.071159,0.24287,0.046784,-0.00013724,-0.033863,0.25983
0.094901,0.11168,0.037846,0.062605,-0.015073,-0.013489,-0.022192,-0.30686
0.2698,0.21844,0.046236,-0.20168,-0.0069426,0.011551,0.065941,0.12863
0.015676,-0.09912,0.046872,-0.010482,-0.014758,-0.042282,-0.011465,-0.19071
0.16671,0.31962,-0.00042772,0.13632,0.02395,0.02027,0.011556,0.57307
-0.51234,-0.1452,0.0047379,-0.011651,0.015384,0.027304,0.01041,-0.71008
0.10391,-0.63539,-0.14173,0.06808,-0.017044,0.025724,0.016748,0.20479
-0.13121,0.41223,0.036148,0.014639,-0.010806,-0.023436,-0.031587,0.2494
0.0040635,-0.25763,0.030527,0.068412,-0.028297,-0.034052,-0.032779,-0.28644
-0.14271,-0.0082553,-0.064335,-0.21766,-0.014662,-0.044918,-0.041358,0.033887
0.44798,0.39909,0.10407,0.022307,0.030303,0.045858,0.083346,0.75491
0.091882,-0.086434,-0.14275,-0.032494,0.028658,0.027675,0.02877,-0.4001
-0.091781,0.12361,0.11046,0.055916,0.027404,0.010194,-0.017749,0.23743
-0.047751,-0.14984,0.036568,0.062438,-0.028105,0.0092188,-0.025189,-0.94426
-0.14404,-0.017422,0.081552,-0.049737,-0.0050865,-0.053334,-0.0016103,0.22601
-0.093468,0.065011,-0.066754,0.058032,-0.0051724,0.0021264,-0.033162,0.015084
0.20306,0.18775,-0.048902,-0.11153,-0.020618,0.034756,0.036273,0.097718
-0.13205,-0.19942,-0.09151,-0.056155,-0.020211,-0.026054,-0.019894,0.0088768
0.15675,-0.20827,0.016284,0.15528,0.035103,0.0068672,0.017177,0.4631
-0.018226,-0.17575,0.04007,-0.086325,-0.049985,0.0082097,0.053928,0.0098761
-0.12671,0.20337,0.042335,0.19457,0.11513,0.024609,-0.018733,-0.34181
0.12787,0.33713,0.015199,-0.12921,-0.039945,-0.022186,-0.052029,0.18897
-0.30101,-0.2564,-0.025908,-0.13103,-0.030951,-0.030604,-0.029972,-0.38365
0.21237,0.042426,0.0045746,0.1623,0.0091397,-0.00049622,0.0008836,0.43044
0.12201,-0.1708,-0.0032805,0.12272,-0.013565,0.021523,0.048561,-0.49591
-0.16499,0.26881,0.035802,0.1621,0.041474,0.0045225,0.01934,0.0073956
0.28171,0.18131,-0.089779,-0.5641,-0.052303,0.0035048,-0.0088487,0.50159
-0.15456,-0.16105,0.080371,-0.00041294,0.0020777,-0.0047231,0.026091,-0.225
0.018866,-0.13497,0.014695,-0.0040004,0.001665,-0.01222,-0.040454,0.085054
-0.21305,-0.015586,-0.028994,0.13142,0.0091652,0.012259,0.017504,-0.12311
0.1583,0.023935,-0.03477,0.38579,0.071641,0.045142,0.011998,0.001941
-0.23333,-0.16553,-0.10366,-0.30058,-0.092035,-0.062229,-0.049401,-0.13376
0.1442,-0.10753,0.053998,0.06613,0.02598,0.0023871,-0.0025774,0.086684
0.010206,0.11214,0.07152,-0.092043,0.019371,0.019998,0.0043745,0.33481
0.21618,0.36077,0.11318,0.12202,-0.01045,-0.0017622,0.011069,0.17287
-0.11376,0.0053501,-0.094641,0.10434,-0.02462,-0.016109,-0.020936,-0.696
-0.059351,0.17818,-0.013412,-0.14026,0.05477,0.016015,0.041699,-0.0057169
0.35382,-0.24623,-0.018909,-0.34903,-0.084978,-0.030327,-0.027303,0.22124
-0.54054,-0.26013,0.052138,0.24145,0.024737,0.0090162,0.037631,0.056542
0.08383,-0.03455,-0.011779,0.49731,0.12602,0.048187,0.056418,-0.03728
0.10085,0.010545,-0.046758,-0.56559,-0.1405,-0.022151,-0.09661,0.29286
0.05729,0.08891,0.010048,0.13237,0.029946,-0.0066989,0.0074346,-0.30337
0.063412,-0.10878,-0.067105,-0.21892,-0.010931,-0.0070773,0.039675,-0.098612
-0.090046,0.31086,-0.01147,-0.061984,0.010509,0.0078921,-0.047302,0.24342
-0.45567,-0.30683,0.060924,0.41818,0.039794,-0.00090775,-0.011507,-0.22266
0.45298,0.34272,0.057229,0.043523,-0.032258,0.013391,0.061311,0.37777
0.16877,0.054372,-0.037778,-0.13094,-0.002388,-0.035097,-0.062671,-0.41678
-0.04184,-0.22237,0.10382,-0.082819,-0.011162,0.0021773,-0.0076418,0.03367
0.03984,0.28138,-0.073447,0.076351,0.027335,0.0081653,0.039824,0.25977
-0.29016,-0.36864,0.03867,7.8503e-05,-0.0041758,0.0064377,0.041538,0.010916
-0.033165,-0.058999,-0.068824,0.19359,0.0035498,-0.01073,-0.048704,-0.31502
0.12185,-0.080942,0.03285,-0.18862,-0.0043129,0.042616,-0.019596,0.015674
0.056467,0.19019,-0.086377,-0.29532,-0.020056,-0.0054496,0.050754,0.010022
0.004286,0.068384,-0.059074,0.11694,0.010963,-0.014399,-0.0020209,0.49513
0.051118,-0.06847,0.11556,0.13679,0.010651,-0.015575,-0.022222,-0.4365
-0.075942,0.29902,-0.0379,-0.099318,-0.020898,0.0066034,0.044161,0.43252
-0.016415,-0.30169,0.059832,0.02956,-0.013236,-0.025952,-0.061364,-0.53192
-0.26103,-0.17941,-0.051296,0.081204,0.041587,0.0040659,-0.042487,-0.22928
0.12921,0.28594,0.066601,0.12765,-0.0047693,0.010899,0.030096,0.43367
0.22582,-0.075711,0.069583,-0.081169,-0.0038397,0.01817,0.046837,0.058571
0.029398,0.079894,-0.058652,0.085695,0.0052575,0.033835,0.039005,0.47439
0.055472,-0.021439,0.0012519,-0.28139,-0.02449,-0.043609,-0.055732,-0.74699
-0.20451,-0.17063,-0.07979,0.016407,0.00046865,-0.011083,-0.049605,0.16241
-0.025105,0.090632,-0.036872,0.32614,0.0017719,-0.0015416,0.034261,-0.33349
0.21759,0.34529,0.035928,-0.16082,0.018245,0.016044,0.039928,0.5577
-0.21157,-0.43297,-0.048818,-0.22072,-0.012818,0.0023493,0.014551,-0.19983
-0.086254,-0.019993,0.029557,0.26245,0.041264,0.019609,-0.041651,-0.056651
0.13292,0.16079,0.09182,-0.15601,-0.03047,-0.033962,-0.050406,-0.08952
