-0.014594,-0.022822,-0.07636,-0.12689,-0.01838,-0.0083534,0.003575,0.0076227
-0.00028573,0.00053299,-0.14577,0.042709,0.0048504,-0.0015437,0.011299,-0.001042
0.0062133,0.016033,0.20765,0.048359,0.0048656,-0.0028806,-0.0050563,-0.0019177
0.0051437,0.0080616,0.15468,-0.062812,-0.0027502,0.011268,-0.0063678,0.012842
0.0044926,-0.039012,-0.41524,0.091972,-0.010231,0.0020586,0.0074979,-0.011423
0.004325,0.015419,0.075054,-0.0031962,-0.0019895,0.00094557,-0.010137,-0.0043671
0.0045811,0.022888,0.21113,0.28412,0.02195,0.0159,0.0034691,-0.0050056
-0.010532,-0.0088236,-0.25668,-0.40574,-0.032173,-0.023296,-0.013927,-0.0054629
0.0056316,0.0062023,0.024162,-0.13527,0.015323,0.00056614,0.0082231,0.0099551
-0.0018466,-0.0023318,0.10978,0.041188,0.0081773,-0.0063103,0.0076002,0.0022427
0.013742,0.0047005,-0.08426,0.19456,0.0088619,0.010656,0.0077328,0.010487
-0.041406,-0.058519,0.076068,0.052102,-0.0061061,-0.0033761,-0.007018,-0.0043962
0.0046593,0.034734,0.052331,-0.041951,-0.021162,-0.0017162,0.0022922,-0.011231
0.003696,0.011193,0.078812,-0.00936,0.010504,0.0076274,-0.0036,0.0054904
0.026282,0.011623,-0.15773,-0.077044,0.0028968,0.016661,-0.0015057,0.0065625
-0.013247,-0.0029798,0.21653,0.223,-0.0049603,-0.013815,0.0083218,-0.00816
0.0025069,-0.02485,-0.25276,-0.18829,0.010361,-0.0057428,-0.013397,-0.00755
0.0033305,0.02397,0.050565,0.1257,0.01764,-0.0059725,0.0035021,0.016126
-0.010819,-0.020847,-0.17091,-0.1715,-0.029928,-0.014391,-0.003548,0.00034637
0.014568,0.020059,0.043649,-0.087785,-0.0072334,0.0082492,0.0045318,-0.0079733
0.008898,0.029172,0.15544,0.033527,0.023367,0.023099,0.0043852,-0.00092465
-0.012532,-0.048467,-0.022693,0.17763,-0.031726,-0.016517,-0.011682,-0.017436
-0.0031574,0.0057391,0.14226,0.064291,0.030746,0.0067274,0.0033315,0.012951
-0.010083,-0.0035204,-0.029473,-0.10243,-0.0078855,0.006944,0.010466,0.012242
-0.0021703,0.0020415,-0.0069467,0.0063315,0.00082306,-0.0080982,0.0019769,0.0039616
0.0049787,-0.024153,-0.17339,-0.069991,0.0021004,0.016169,0.0013248,-0.0040456
-0.0041185,0.035464,-0.013476,0.027993,-0.0042211,-0.014165,-0.0071224,-0.0039895
0.0098248,0.017226,-0.011569,0.01089,0.0050682,-0.0055049,-0.0077607,-0.0037443
0.0080053,-0.0082038,0.13741,0.049956,0.0062812,-0.0048406,0.0072098,0.0044251
-0.0015168,-0.01713,-0.065786,-0.13688,-0.0086184,0.003405,-0.0012616,-0.0108
0.0048989,0.014027,0.12202,0.13697,-0.00072207,-0.0041858,-0.0018822,0.013038
-0.01167,-0.024086,-0.18873,-0.01224,-0.0091415,0.0037077,-0.0023965,-0.010004
0.0035367,0.01688,0.22168,0.094401,0.0052546,0.01155,-0.0027276,-0.0017753
-0.011967,-0.019511,-0.083535,-0.14523,0.011394,-0.0040234,0.012814,0.014329
-0.003535,0.007104,-0.15092,-0.24701,-0.029535,-0.011733,-0.010431,-0.016336
0.013122,0.018283,-0.082188,0.38289,0.015561,0.01183,0.0056438,0.0078179
-0.0011872,0.0058713,0.2001,-0.10674,0.0063037,0.011899,0.0062766,0.00084376
0.008061,-0.0070288,0.054118,0.034647,-0.0024521,-0.0038231,-0.00083555,0.0095719
-0.006197,-0.005075,0.16572,0.065529,0.012788,-0.011999,-0.0002027,-0.0051349
0.0027192,-0.004083,-0.18568,-0.29469,0.0050882,0.0029397,-0.0075744,0.0035106
-0.0044284,-0.0041207,-0.24398,0.19675,-0.0022674,-0.0058671,0.00040185,-0.0036347
0.0034818,0.0026908,0.20833,0.024681,-0.017296,-0.0070721,-0.007549,-0.018812
-0.0048575,-0.0068998,0.037927,-0.0997,-0.016765,0.007301,0.0076767,0.0048355
0.0018327,-0.0013729,-0.043837,0.050273,0.0069823,-0.0094275,-0.0006993,0.004824
0.00023241,0.0039465,-0.059083,0.14646,0.022617,0.0054216,-0.0012971,0.0046278
-0.0094665,0.0093334,0.16612,0.016951,-0.0089146,0.012903,-0.0017971,0.0042869
0.0042249,0.0071801,-0.20947,-0.33818,0.014043,0.020854,0.01353,0.00383
0.0024926,0.028847,-0.042737,0.17508,-0.017733,-0.017673,-0.0099488,-0.004544
0.0011809,-0.058462,0.15278,0.065063,-0.010307,-0.0090779,-0.0019263,0.002602
0.01607,0.026448,-0.043542,-0.058196,0.020876,0.0073925,0.0141,0.0018311
-0.0074563,-0.0055807,0.016857,-0.092483,-0.025604,-0.015308,-0.00884,-0.014652
-0.014733,-0.037461,0.1767,0.06416,0.022193,0.00082849,0.0072712,-0.0077437
0.0019476,0.02447,-0.050388,0.075686,0.00017684,0.0010756,-0.015781,0.0070003
-0.0044597,0.039536,0.028346,-0.15245,-0.0058505,0.0010986,-0.007735,0.0062243
0.012712,-0.007903,-0.2303,0.14383,0.019513,0.0088116,0.015779,0.0056333
0.014186,-0.00062944,-0.078378,-0.014162,-0.0099506,0.0087228,0.0079244,0.013101
-0.0080403,-0.024503,0.092323,0.1368,-0.016403,-0.00685,-0.023425,-0.010405
-0.0072285,-0.0090927,0.2036,0.11019,0.007723,-0.0065593,0.0077319,-0.010198
-0.01469,-0.024572,-0.19679,-0.28287,-0.00022854,-0.0138,0.0076856,-0.017555
0.00084397,0.038558,0.017783,-0.034686,-0.0090496,0.010463,0.0076891,0.022161
0.00039901,0.00066916,0.10702,-0.17519,0.0047776,0.0036368,-0.00010821,-0.00048604
0.015356,0.010158,-0.11478,0.024816,0.018004,0.020255,-0.0079615,0.0081815
0.0067944,0.012176,0.041145,0.076586,-0.0081677,-0.0023658,-0.00032062,0.0012149
-0.0017293,-0.0013514,0.083142,0.24144,-0.018744,-0.025342,-0.00067831,-0.013643
-0.010136,-0.038553,-0.067229,-0.03252,0.010012,0.0058816,-0.0012343,-0.0051994
-0.0027673,0.025273,-0.0047702,-0.11101,0.00023388,0.0053149,-0.0019461,0.0030675
-0.0030676,-0.013202,0.13617,0.17771,-0.0010168,-0.011369,-0.0027205,0.0033242
0.012373,0.0022134,-0.021088,0.011702,0.029796,0.010663,-0.0034319,0.0033788
0.012272,0.01695,-0.10295,-0.15078,-0.0010674,0.0013175,0.011673,0.011053
-0.0033837,3.8061e-05,-0.3134,-0.055038,-0.0077315,-0.0079074,-0.0041824,-0.0048849
-0.034585,-0.055947,0.26928,0.046087,-0.052815,-0.0089721,0.0037313,-0.013156
-0.0031714,0.013473,0.036277,-0.20885,-0.0036668,0.0060891,0.0041368,0.0018982
0.012777,0.021141,0.14495,0.17136,0.030139,0.0060679,-0.0030583,-0.0065569
0.013289,0.0062964,-0.12204,0.030598,0.0014876,0.0065039,-0.0023636,0.0005779
0.021793,0.039207,0.033672,0.10428,0.058542,0.030639,0.01389,0.023331
-0.01646,-0.0053988,0.1447,-0.0044027,-0.0099221,-0.015536,-0.016913,-0.0085952
-0.0078329,-0.018592,-0.43638,-0.26238,-0.024467,-0.015091,-0.0010757,0.006365
0.0084759,-0.00089098,-0.037171,0.26953,-0.039934,-0.022897,-0.0010787,-0.0099146
-0.022353,-0.030888,0.1469,-0.30589,-0.0016406,-0.015578,-0.016831,-0.010552
0.0089644,-0.030773,0.22435,0.2698,0.0046398,0.030378,0.022114,0.0044773
0.0086463,0.04624,0.16241,0.020039,0.018283,-0.0020255,-0.0091034,-0.0038439
0.00017087,-0.0028285,0.084162,0.084888,0.016253,0.012465,0.022435,0.019233
-0.00073413,0.048935,-0.17634,-0.028719,0.0067652,0.0037879,-0.00041859,-0.0043512
-0.0095492,-0.040169,-0.41727,-0.31391,-0.0333,-0.0044272,-0.0073884,-0.012046
-0.010494,-0.027412,0.0251,0.0019672,-0.017842,-0.0042765,-0.014206,-0.0038275
0.012191,0.009585,0.01087,-0.011262,0.03748,0.0042162,0.010227,0.012473
0.019523,0.024333,0.17442,0.29461,0.0074383,-0.025956,-0.012381,-0.0022733
-0.0041092,-0.022028,-0.14641,-0.049239,0.0088373,0.014365,0.011568,0.0065105
-0.011886,0.0032905,0.32342,0.027479,0.0099715,0.015544,0.0038379,-0.0081942
-0.0039106,0.029723,0.10047,-0.092476,-0.044271,-0.014869,-0.020002,0.00033348
0.0040723,-0.02911,-0.018345,0.036164,0.0098845,0.024472,0.01818,0.00070744
0.019782,0.04499,0.22416,0.054075,0.023927,0.01626,0.016893,0.016276
-0.019315,-0.0063472,-0.71195,-0.13226,-0.072286,-0.062938,-0.031549,-0.023289
0.011832,-0.027321,-0.085211,-0.17862,0.018505,-0.0020402,0.02147,0.0070809
-0.035081,-0.04162,0.18221,0.095304,0.015559,0.011718,-0.019159,-0.009651
0.019828,0.028867,-0.073626,0.28395,0.036589,0.017739,0.0030263,0.004855
-0.01074,-0.026589,0.28032,-0.073031,0.011701,0.016373,-0.021166,0.0039654
-0.0094477,0.018929,0.26753,-0.084666,-0.027629,-0.0077178,0.041205,-0.0042829
0.031549,0.017369,-0.25306,0.022599,-0.026712,-0.023104,-0.012941,0.0037111
0.018381,0.039352,0.38182,0.092432,0.037684,0.02494,0.019475,0.012392
-0.010168,-0.039977,-0.43818,-0.18003,0.016771,0.0034995,-0.010113,-0.0095289
0.00020044,0.037151,-0.16683,-0.084029,-0.019536,-0.017325,-0.0081421,0.0081181
-0.013443,-0.049784,-0.17137,0.12249,-0.040338,0.0012433,-0.0060711,-0.0051995
-0.0045949,-0.019823,0.21294,-0.044948,0.032256,-0.011416,-0.027539,-0.01068
-0.0047356,0.056445,0.26082,0.24943,-0.02839,0.0069058,0.02103,-0.00077235
0.0017263,0.014793,-0.17468,-0.16648,0.01217,0.024721,0.014499,0.0086749
-0.016286,-0.035376,0.29834,0.089776,0.0056675,-0.020636,0.0074486,-0.005939
0.011884,-0.00788,-0.31159,-0.23224,-0.00083405,-0.012068,-0.00019407,0.0021716
0.016368,-0.042899,0.04242,0.085784,0.0084262,0.011351,-0.00065671,0.009555
-0.018006,-0.022682,0.00030138,0.043428,0.017851,0.0028003,-0.009559,-0.014985
0.034139,0.10021,-0.056308,-0.015876,0.019533,0.024883,0.0044107,0.022409
-0.022271,-0.017555,0.26184,0.048288,-0.041415,-0.031639,-0.052375,-0.018737
-0.0074783,-0.0085915,-0.18712,0.017092,0.0066321,-0.0025474,0.054633,-0.0054368
0.031553,0.072307,0.088179,0.15624,-0.0006258,0.010749,-0.010297,0.015614
-0.030386,-0.087725,-0.1937,-0.41683,-0.055553,-0.02286,0.0030413,-0.017913
0.0017468,-0.012671,-0.11043,0.079548,0.013637,0.021738,0.016704,0.011312
0.0105,0.054681,0.22959,0.18494,0.058515,0.019617,0.0073945,0.01746
-0.019951,-0.050264,-0.024006,-0.037634,0.0010401,-0.021368,-0.032606,-0.022843
0.019669,0.0080611,0.12204,0.099739,0.02106,0.015995,-0.0016832,0.0076167
0.0043792,-0.0048745,-0.24573,-0.14491,0.0016143,0.0067298,-0.017015,0.0072709
-0.026636,0.020357,0.17738,-0.068449,-0.096052,-0.056925,0.0073048,-0.031719
0.0049402,-0.0019703,0.054791,0.16486,0.048756,0.02824,0.024321,0.031235
0.021189,0.02219,0.15103,-0.070297,-0.016652,0.020151,0.041715,0.0085911
-0.024598,-0.047498,-0.41794,0.077328,-0.010599,-0.026389,-0.050062,-0.029384
0.016087,-0.015518,0.096885,-0.10342,0.036004,0.0058865,0.01442,0.0031944
-0.0052484,0.04007,-0.0081225,-0.010981,-0.0094994,-0.00020847,-0.046275,-0.0031158
0.02058,0.033236,0.056299,0.081453,0.032493,0.0099096,0.033338,0.0141
-0.0082867,-0.0049912,0.15821,0.010322,-0.025873,0.012587,0.018809,0.015672
0.001551,0.05792,0.0021584,-0.044021,0.017946,-0.00029139,-0.027368,-0.0063311
-0.0049259,-0.13765,-0.41801,-0.22934,-0.024272,-0.0056302,0.012058,-0.012967
0.0032929,0.001899,0.18838,0.18923,0.01861,0.011887,0.0043808,0.011293
-0.036386,0.023484,0.095952,0.055539,-0.018086,-0.041697,-0.019027,-0.035169
0.032367,0.028844,0.0083326,0.19733,0.0058837,0.021061,0.02788,0.027327
-0.024592,-0.028617,0.27674,-0.22225,-0.011111,-0.01067,-0.034519,-0.019926
0.004018,0.023261,-0.3656,-0.016947,-0.014125,-0.027269,-0.0031032,0.018458
0.02482,0.01282,0.071757,0.069639,0.036449,0.041897,0.051734,0.017569
0.0068994,0.041718,0.071182,-0.12779,-0.046162,-0.013795,-0.026411,0.00093515
-0.0026356,0.016188,-0.18169,0.077435,0.0044519,0.032454,0.0044549,-0.015735
-0.011498,-0.095116,0.069504,0.0053546,0.079618,0.016684,0.0035118,-0.0089268
-0.011915,-0.042296,0.12867,4.1325e-05,-0.046722,-0.045517,-0.013752,-0.0098202
0.011587,0.065209,-0.12148,-0.11737,0.00065786,0.0019461,-0.00049245,-0.0027288
0.011906,0.00083565,-0.078879,0.22458,0.0029354,-0.0052099,-0.011285,0.028014
-0.034648,-0.01662,0.10119,-0.17599,-0.048051,-0.0047117,-0.01462,-0.026958
0.035758,0.036339,0.23244,0.025752,0.058078,0.026697,0.068016,0.043264
-0.011422,-0.012125,-0.29328,0.049342,-0.015291,-0.0048355,-0.02072,-0.011389
-0.0043939,0.025482,0.032972,0.082651,0.020222,-0.0055636,0.00090423,-0.0034975
-0.0056374,-0.046185,-0.014483,-0.085289,-0.0078447,-0.014465,-0.054192,-0.011258
0.008402,0.046281,0.15873,0.029578,-0.037391,-0.0079505,-0.045112,-0.034702
-0.0089555,-0.040847,-0.15014,-0.081009,0.017369,0.014166,0.12193,0.051194
0.012845,-0.0027735,0.16064,0.051306,-0.015326,0.020817,-0.076733,-0.042552
0.0037418,0.035715,-0.072994,0.082565,0.028927,0.019957,0.092723,0.043544
-0.020418,-0.034469,-0.14798,-0.21376,-0.021245,-0.043013,-0.03454,-0.01853
0.018647,-0.0098948,0.099607,0.04538,-0.0012168,-0.0040067,-0.014116,0.0056816
-0.019618,-0.03096,-0.033615,0.055597,0.027027,0.0041314,0.012507,-0.0088004
0.021002,0.035204,-0.032456,0.043651,0.0013709,0.004762,-0.010002,0.0082858
-0.0080643,0.039964,-0.06168,-0.037397,-0.031117,-0.002224,0.011837,0.0021298
0.010151,0.060973,0.4324,0.11674,0.023297,0.022108,-0.093677,-0.019636
-0.018379,-0.1056,-0.278,-0.018103,0.0081618,-0.016121,-0.029062,0.020899
0.0076147,0.047255,0.079302,-0.052167,-0.006541,0.0079752,0.089419,-0.0092915
0.0097392,-0.0046801,-0.074849,-0.02536,-0.0055709,-0.0072387,0.10659,0.014613
-0.020023,-0.027577,-0.22535,-0.15703,-0.012722,0.0007175,-0.093701,-0.024686
0.019779,-0.021636,0.29202,0.15418,0.0029963,-0.01499,0.083107,0.01342
0.0041446,0.013357,-0.045332,-0.029051,0.0023983,0.00042074,-0.14375,0.011837
-0.019944,-0.00012161,-0.31414,-0.018673,0.0089477,0.023636,-0.0085434,-0.0057928
-0.021044,-0.045558,0.20596,0.084509,-0.024078,-0.015535,0.02747,-0.023552
0.016712,0.073383,0.28212,0.0078967,0.028557,0.0079929,0.05736,0.0057749
0.015441,0.045194,-0.19397,0.11949,-0.028199,-0.022944,0.017643,0.0043964
0.0065938,-0.027746,-0.0030755,-0.18154,0.0090129,0.024418,0.03998,-0.011803
-0.0018962,-0.043321,-0.067256,-0.16803,0.054426,0.032778,-0.056461,0.027618
0.0056336,0.045603,0.1597,0.19172,-0.016872,-0.029264,-0.085109,-0.0023829
-0.017725,-0.050073,-0.15906,-0.09426,-0.040806,-0.021229,0.10975,-0.00046059
0.0060782,0.020921,0.10055,0.17708,-0.017414,0.0020943,-0.081263,0.0095893
-0.00897,-0.07788,-0.10114,-0.033779,0.014172,0.0016173,0.053327,0.0038963
-0.00042279,0.074669,-0.0065464,-0.11046,0.0070006,0.0008368,-0.0089043,-0.025773
0.00045407,0.024528,0.009564,0.055311,0.046936,0.038948,-0.086967,-0.0094306
0.001488,-0.026236,0.14307,0.0013336,-0.030148,-0.055748,-0.0467,-0.0097397
0.010516,-0.00062615,-0.23033,0.13268,0.010069,0.02162,0.16772,0.020201
-0.027141,0.022151,0.15563,-0.14528,-0.03557,0.0055761,0.11168,0.025912
0.0056697,0.033402,-0.01903,-0.043887,-0.010835,-0.0022306,-0.066227,-0.023511
0.061989,0.040415,-0.051265,-0.00048731,0.013952,0.013833,-0.132,-0.0026491
-0.022375,-0.15996,0.058402,0.024703,0.023144,-0.00099101,-0.078642,0.0029831
-0.021005,0.0031113,0.34817,-0.076565,0.0088854,-0.023394,0.14748,-0.021886
-0.035595,-0.0083841,-0.44078,0.11108,-0.028901,-0.0066615,0.014008,0.032349
0.0040855,0.017895,0.042201,0.20608,0.058127,0.041237,-0.0034776,0.0095042
0.043322,0.16161,-0.1645,-0.19686,-0.042617,-0.02045,0.00055222,-0.004585
-0.0037924,-0.060204,0.040334,-0.026909,0.012571,-0.0042988,-0.12272,-0.017983
-0.027819,-0.099625,0.2191,-0.16683,-0.049732,-0.027514,0.03295,-0.023236
0.018195,0.036073,0.020257,0.10949,-0.026325,0.027124,0.1085,0.033943
0.0093194,0.018729,0.021926,0.15273,0.043834,0.0034306,-0.036158,0.012548
0.00029493,0.043082,-0.025924,0.00080499,0.028023,0.010861,-0.025343,-0.033029
-0.001026,-0.032491,-0.099835,-0.0037997,0.020021,-0.0051973,-0.0068277,0.045488
-0.018048,-0.037352,0.089499,-0.088722,0.019788,0.0021922,0.0043352,-0.01752
-0.019484,0.019421,-0.01978,0.096961,-0.027455,-0.013798,0.031995,-0.050008
0.018144,-0.011678,-0.11404,-0.18112,-0.051485,-0.01407,0.0060639,0.03427
0.024573,0.071787,-0.14486,0.085571,0.010171,0.017027,-0.081222,-0.068997
-0.00015041,0.011836,0.13957,-0.1954,-0.022105,-0.0064278,0.13724,0.10149
-0.016918,-0.089574,0.23307,0.21197,0.04717,0.017123,-0.12779,-0.016495
-0.0022532,-0.12215,-0.16783,0.035812,-0.0083443,0.0095269,0.053199,0.014638
0.012637,0.15759,0.062305,-0.082189,-0.008745,-0.02927,-0.023084,-0.016121
-0.011267,-0.053608,-0.10042,0.030147,0.01485,-0.0055945,0.010424,-0.015248
-0.0036102,0.0815,0.20991,0.083184,-0.0078725,0.010151,-0.065113,-0.014307
-0.0034226,0.0091724,-0.25859,0.052153,0.016689,0.0022552,0.10961,0.033262
0.0049221,-0.043621,0.1872,0.029035,0.017946,0.040963,0.05012,-0.0056026
-0.025496,-0.053624,-0.15012,-0.23014,-0.027884,-0.02219,-0.15776,-0.068524
0.053656,0.11126,0.055897,-0.10172,-0.027389,-0.03873,0.063923,0.071077
0.023473,-0.04227,-0.055149,0.11679,0.011363,0.014883,0.0040599,-0.00070841
-0.045918,-0.015493,0.10242,0.081843,0.010131,-0.0096206,-0.017222,-0.010194
-0.0062537,0.0028349,-0.025606,-0.064955,0.00021644,0.01296,0.062416,0.011672
-0.021719,-0.082076,-0.03187,0.037239,-0.010356,0.01251,-0.061828,-0.036374
-0.0064167,0.041574,-0.00081743,0.10102,0.017816,-0.0030118,-0.0071977,0.017792
0.055332,0.029714,-0.063632,-0.12211,0.0070252,0.0055206,0.0232,-0.0053623
0.015224,0.05426,0.17961,0.079902,0.0045815,-0.00099648,0.0060175,0.034825
-0.048426,-0.056336,-0.11373,-0.13616,-0.035996,-0.014892,0.066408,-0.025801
-0.0025951,0.0031493,-0.068089,0.026471,0.0027748,0.0026762,-0.12356,-0.015582
-0.01115,-0.024445,0.074294,0.051423,-0.0039611,-0.011064,-0.063665,0.018306
0.027615,0.088138,0.14874,0.13276,0.0062557,0.0061037,0.16815,0.013016
0.020017,-0.072494,-0.10357,-0.1139,0.040998,0.01486,-0.045158,0.0072755
-0.026155,-0.068255,-0.097913,-0.033943,-0.001718,0.030639,0.093378,0.00081516
0.013985,0.070065,0.15679,-0.0038057,-0.020874,-0.032592,-0.12714,-0.092466
0.0074473,0.038073,-0.051202,0.045836,-0.017053,-0.018546,0.012094,0.055518
-0.038167,0.0077587,-0.32381,-0.088531,0.024847,-0.0051823,0.011137,0.022969
0.017559,0.01813,0.22969,0.1168,-0.020537,0.0077896,-0.059576,0.0053665
-0.0052381,-0.087255,0.12537,-0.11857,0.0029021,0.012923,0.089154,0.018553
-0.012937,-0.011815,-0.0033077,0.019154,-0.0062928,-0.0050243,-0.12069,-0.046612
0.017827,-0.013717,0.047448,0.10959,0.0068973,0.0089699,0.15466,-0.02584
0.03235,0.10975,-0.17492,-0.072348,0.0039036,0.00044533,-0.014604,0.065449
-0.0083853,-0.0247,0.033134,-0.0020144,-0.030335,-0.0070751,0.011871,-0.0069505
-0.010513,-0.058233,-0.093761,0.0089095,0.037523,-0.0058441,-0.12566,-0.031967
-0.02853,-0.022707,0.16325,0.12482,0.020382,0.019567,0.056777,0.021741
0.00033159,0.042179,0.046333,-0.22474,-0.042483,0.014186,0.066636,-0.041094
0.0060765,0.081142,-0.030607,0.14715,0.036422,-0.037936,-0.15101,0.037332
-0.0031532,-0.054703,-0.24751,-0.11192,-0.032174,-0.0042927,0.1303,0.0069515
0.043237,0.071975,0.074957,0.020422,0.009182,-0.01013,-0.05812,-0.02299
-0.018636,-0.10109,0.27233,0.21495,0.027242,0.038137,0.04953,0.0020133
-0.024679,-0.041942,-0.093308,-0.22465,-0.033116,-0.00019271,0.016021,0.042684
-0.0062847,0.00059177,0.047949,0.067985,-0.0081866,-0.015743,-0.033338,-0.026194
0.036245,0.051446,-0.27292,-0.087364,0.015864,0.0071719,-0.1373,-0.0094823
0.00091674,-0.020599,0.053339,0.051305,-0.023541,-0.025093,0.12625,-0.016658
-0.0033942,0.012413,0.089336,0.085713,0.053356,0.043838,0.0778,0.030397
-0.024051,-0.082993,0.038469,-0.061785,-0.034508,-0.020276,-0.0013545,-0.032291
0.016672,0.14651,0.088648,0.023616,-0.02125,0.0014455,-0.15034,-0.017066
0.0013551,0.051895,-0.056517,0.030347,0.023099,-0.031512,0.052567,0.076262
-0.0075308,-0.086849,-0.17776,-0.12651,0.012857,0.0059401,-0.0022043,-0.025567
-0.0097959,0.072319,0.076978,0.077498,0.010726,0.051361,0.075775,-0.017738
-0.012877,-0.066145,0.14567,-0.059927,-0.014413,0.0032243,-0.049585,0.013874
-0.00064927,-0.13656,-0.15884,0.00081932,-0.031246,-0.0447,-0.003354,-0.032302
0.05086,0.078893,0.046483,0.087976,0.014934,0.0013609,0.058248,0.031165
-0.0063021,0.017522,-0.097771,-0.0097594,0.03818,0.016447,-0.11464,0.0010375
-0.0077139,0.039224,0.22844,0.058369,-0.016203,-0.015006,0.064141,-0.0056365
-0.031316,0.012256,0.016748,-0.060309,-0.031028,0.00082387,-0.10829,-0.020253
0.016632,-0.13236,-0.3039,-0.015413,-0.0062783,-0.006319,0.13389,0.0039263
-0.0125,0.0051099,0.14063,-0.011077,0.042437,0.018267,-0.0061241,0.019909
0.013751,0.12873,-0.05677,-0.040095,-0.02551,-0.0036006,0.041874,0.011987
0.016803,0.043603,0.18131,-0.00097922,0.0007623,-0.0017478,-0.05051,-0.01988
-0.011654,0.015161,0.06541,0.13018,0.00394,0.039241,-0.096164,0.010261
0.013854,0.011455,-0.068526,-0.091006,0.022874,-0.013694,0.03732,-0.038139
-0.016406,-0.17165,-0.15749,-0.11652,-0.036472,-0.059225,0.16213,0.038186
-0.01668,-0.035198,-0.11457,0.085987,0.036513,0.019655,-0.12032,-0.0027584
0.0052487,0.068354,0.045842,0.11888,0.007132,0.011926,0.010422,-0.0045011
0.026184,-0.0021814,0.01247,-0.064469,-0.038939,0.0035405,-0.070275,0.0097409
-0.031579,0.049851,0.208,-0.011345,-0.0080986,0.010235,0.013193,-0.077039
-0.01126,0.0057908,-0.031516,-0.050917,0.0058954,-0.0068799,0.050595,0.079018
0.0095674,0.014392,0.043187,0.0027962,0.010997,-0.0007229,-0.01209,-0.0064532
0.039192,-0.025446,0.071283,0.20278,0.015288,-0.025781,0.028722,0.025831
0.023257,-0.019425,-0.17562,0.016249,-0.0043074,0.027489,-0.0065329,-0.003991
-0.038107,0.017424,-0.027395,-0.33905,-0.008324,0.002951,-0.024373,-0.041443
-0.0356,-0.0080351,-0.032081,0.074194,-0.0041755,-0.0055895,-0.0020064,-0.0086027
-0.00074293,-0.048321,0.0053495,0.15516,0.0084881,0.025303,0.059652,0.0084453
0.026976,-0.016928,-0.015948,-0.12578,0.0064928,-0.013788,0.011142,0.0096256
0.015779,0.15695,-0.039702,-0.047654,-0.033452,-0.06043,-0.046916,-0.0050712
0.0041555,-0.065344,0.17059,0.12632,0.021475,0.041554,-0.083948,0.0034449
-0.0084337,-0.011666,-0.02344,-0.070421,-0.024173,-0.012601,-0.0064933,-0.011672
-0.022422,-0.0021637,0.13021,0.21518,0.048088,0.042648,0.16215,0.043329
0.024436,-0.060231,-0.13268,-0.086606,0.019138,0.011906,-0.014972,-0.0034583
0.007114,-0.037517,-0.21767,-0.21844,-0.033308,-0.042412,-0.24019,-0.011465
-0.042919,0.12041,0.07821,0.029175,-0.031514,-0.018811,0.20615,-0.043239
-0.00022445,-0.0087673,0.23065,0.24005,0.016413,0.012365,-0.018849,0.049652
0.026412,-0.050736,-0.12121,-0.11176,-0.014677,0.019883,-0.0082933,-0.021791
-0.001432,0.0092426,0.059847,0.15885,0.047114,0.019445,0.019403,-0.023067
-0.020681,0.084206,0.10003,-0.14532,-0.0089712,0.0033725,-0.0060438,0.014747
0.015947,-0.045639,-0.19767,-0.17372,-0.041998,-0.090656,-0.014547,0.0137
-0.00075402,0.0094255,-0.061001,0.11279,0.010907,0.057869,0.016967,-0.018269
0.038501,-0.055909,0.0094298,-0.034693,0.0016765,-0.0039979,0.0099983,0.036073
0.016217,-0.04656,-0.095754,-0.0048963,0.024361,0.036363,-0.12948,0.0047942
-0.052424,0.0064192,0.17855,-0.006512,0.0010074,-0.039779,0.12184,-0.018492
-0.01163,0.072354,0.16108,0.15788,-0.0058613,-0.0059674,-0.079761,-0.010524
0.013234,0.08177,0.00086057,-0.041436,0.00363,0.036005,0.023641,-0.010521
-0.017097,-0.011263,-0.15317,0.044672,-0.017628,-0.031381,0.11966,0.036115
-0.0088871,-0.18241,-0.058445,-0.052756,0.023828,0.018057,-0.15105,-0.03466
0.014561,0.0065426,-0.058307,-0.022182,-0.01291,0.027698,0.10204,-0.003971
0.0065757,0.063814,0.21493,0.017786,-0.018692,-0.02618,0.011534,0.011199
0.006402,0.0050919,-0.089594,-0.051559,-0.0092861,-0.026535,0.014632,0.0032734
0.014122,0.18168,-0.11947,-0.11433,0.023062,0.0032245,-0.13113,0.0037022
-0.0015659,-0.031911,0.1653,0.22706,0.0080418,-0.014829,-0.058786,-0.018657
-0.0017711,0.020095,-0.023465,-0.04333,0.0081862,0.036816,0.22375,0.02992
0.028906,-0.36572,-0.27892,-0.15968,-0.031167,-0.021143,-0.1429,0.0086439
-0.019099,0.13105,0.35225,0.15981,0.014984,0.030413,0.0053737,0.010991
-0.059912,0.034309,-0.052234,-0.08414,0.013797,0.012087,0.05925,-0.049308
0.0081519,0.079219,-0.047989,-0.031513,-0.019141,-0.036876,0.042218,0.0071205
-0.0021046,-0.030253,0.10576,0.10716,0.025532,0.016407,-0.069123,0.0081652
