0.0014636,-0.014926,0.026683,0.017765,-0.0073043,0.00051287,-0.0030789,0.0056528
-0.0070477,-0.010673,0.023221,0.017866,0.008887,0.016102,-0.011073,0.0054945
0.0077613,0.032783,0.074517,0.0094175,0.0015014,-0.0072188,-0.011074,-0.0023355
-0.00094135,-0.001096,-0.062089,0.00030583,-0.006193,0.0085587,0.02036,-0.0021863
-0.0096557,0.021042,0.065977,-0.017106,-0.022114,-0.0070102,-0.010549,-0.0018807
0.012948,0.0057631,0.27071,0.027757,0.008416,-0.0071519,0.0055082,0.0063486
-0.018982,-0.046905,-0.45601,-0.044477,-0.0082661,-0.0075286,0.0059377,-0.0010081
0.0040089,-0.0044274,0.01085,0.00090205,0.0061298,-0.0081006,-0.001564,-0.0084106
0.0038445,0.031093,-0.0079848,0.0079376,-0.0028853,-0.00095141,-0.0014872,-0.00031525
0.011782,0.027688,0.081958,0.015892,0.027372,0.014053,0.006079,0.015404
0.0043398,-0.023225,0.15653,0.0091934,-0.0045342,0.0057803,-0.017966,-0.0081544
-0.0029416,0.0026651,-0.025679,-0.012273,-0.0048027,0.0055461,-0.003277,-0.0084765
-0.01017,-0.020113,-0.07355,-0.0019123,0.0031083,0.0055304,0.019002,0.014497
-0.0018243,0.0020355,-0.0025492,0.016442,-0.012118,-0.0021506,-0.0056426,-0.0094513
0.014213,0.014629,0.046523,-0.004523,0.0041281,0.0058386,0.0089404,-0.0020782
-0.024584,-0.036481,-0.082987,-0.010509,-0.010712,-0.017466,-0.022965,-0.0023308
0.0068089,-0.0020788,0.053736,0.013862,0.0058397,-0.0095987,0.0082044,-0.0023095
-0.0087418,0.017141,0.018724,-0.0017664,-0.0087057,-0.017398,-0.0068128,0.0058304
0.0069487,-0.017103,-0.15713,-0.041582,0.0081752,0.0061072,0.010116,0.0064248
0.030479,0.067605,0.096254,0.0041791,0.0017999,0.014162,0.0041905,0.0071739
-0.0084674,-0.033236,0.020942,0.0032141,0.0033747,0.022481,0.014242,9.6725e-05
-0.016191,0.0083059,0.015288,0.010729,-0.0028344,-0.0079869,-0.0069156,-0.014997
0.0072314,0.043278,0.11047,0.050566,0.022064,0.0086093,-0.0049335,0.0086024
-0.0085891,-0.054033,-0.10767,-0.048964,-0.015885,-0.0060302,-0.0035473,-0.0073304
-0.0011971,-0.02656,-0.021985,0.024558,0.00030785,-0.013066,-0.010765,-0.00029407
0.021608,0.023518,-0.077792,-0.0026514,0.00019456,0.010729,0.012426,0.0063858
-0.026033,-0.021362,0.076583,0.0016716,-0.016259,-0.020728,-0.01199,-0.01052
0.0044569,0.018409,0.027281,-0.002181,0.0057239,0.0097188,-0.0056481,-0.0038681
-0.0039394,-0.021045,-0.014501,-0.038271,-0.0039633,-0.0072139,0.0083382,-0.0046389
-0.0041814,-0.014353,-0.056325,0.010098,-0.0059751,0.0067982,-0.00095053,0.018631
0.011662,0.054549,0.089491,0.025463,0.0078035,0.0051451,0.0058156,0.0035451
0.012376,-0.0014501,-0.037914,0.0078038,0.014192,-0.011899,0.013159,0.0047553
0.013525,0.052284,0.045809,-0.011396,0.013347,0.010577,0.0054565,-0.0013499
-0.016292,-0.049781,0.0046349,-0.0082582,-0.01033,0.010208,-0.0018007,0.00057401
-0.014782,-0.065516,-0.099027,-0.044715,-0.025689,-0.012987,-0.024465,-0.021054
0.0022033,0.036163,0.031671,0.036082,0.021754,0.019025,0.0075183,0.011576
-0.0045947,-0.010589,0.013983,0.031531,0.0067473,-0.011108,-0.0076424,-0.0033389
0.011562,0.05182,-0.034745,-0.011131,-0.016266,-0.0020219,0.0080324,-0.0034202
-0.011886,-0.034612,0.01069,-0.0058176,-0.00059645,-0.0085846,-0.0079939,-0.0042778
0.011015,0.0034255,0.08797,0.0083443,-0.0010178,0.0003328,0.014665,0.0098572
0.0022223,0.017447,-0.021559,0.023309,-0.0018766,-0.014376,-0.0019507,0.0079792
0.00092516,-0.008125,-0.083553,-0.023745,0.01259,0.01763,-0.010751,-0.0017973
-0.000532,-0.010643,0.089318,-0.031576,-0.0042748,0.0026773,-0.0037011,-0.011348
-0.0019813,-0.0054882,-0.11261,-0.023863,-0.013148,-0.0044596,0.011573,-0.0047752
-0.0032575,-0.00016209,0.029057,0.030527,0.017471,0.01972,0.011748,0.010306
-0.0042117,-0.002136,0.10768,0.030039,0.0018425,-0.010707,-0.010971,0.0027335
0.0030866,0.043592,0.052635,0.037285,-0.013054,-0.0098485,0.0058412,0.003728
0.0030846,-0.058062,-0.19099,-0.080382,-0.0037881,-0.0012355,-0.016099,-0.010294
-0.012019,0.0054929,-0.029461,-0.010297,0.006074,-0.00061991,0.0011203,-0.00050769
0.02022,0.046678,0.1155,0.044535,0.024115,0.0074917,0.010393,0.009357
-0.009702,-0.044139,-0.013551,-0.017407,-0.020276,0.0073661,0.0036918,0.0033769
0.0074074,0.029511,0.052612,0.061637,0.013205,0.0067574,0.0042865,0.004735
0.0010185,0.017129,0.0020358,-0.038783,-0.024169,-0.017761,-0.019166,-0.017987
-0.01346,-0.01148,-0.15695,-0.037606,0.00020759,-0.011412,-0.0041719,-0.010154
0.018478,-0.0098653,0.060442,0.018092,0.01593,0.010338,0.018099,0.01267
-0.020469,-0.032979,0.060693,0.010962,-0.0082157,-0.0070002,-0.0068885,-0.011853
-0.0053291,-0.018377,-0.031189,-0.012214,-0.001766,0.0070912,-0.00081056,0.01024
0.0092702,0.026282,0.058,0.011055,-0.0035437,-0.0019155,-0.002518,0.0010426
2.7726e-05,0.015389,-0.023744,-0.020719,0.0023595,0.0051216,0.0038058,0.0076052
0.021819,0.074382,0.019888,0.048859,0.024037,0.012557,0.00268,0.014404
-0.018893,-0.069692,-0.06169,-0.037837,-0.0164,-0.003163,0.0019969,-0.009788
-0.0047176,-0.025747,-0.050223,0.0084611,-0.0094166,0.0046622,0.0017678,-0.010325
0.0098351,0.03474,0.053955,0.000444,0.0059904,-0.0032167,0.0019444,-0.0029005
-0.0063568,-0.051996,0.016331,-0.0070516,0.0063549,-0.019129,-0.013188,0.0046073
-0.0063498,0.0032684,-0.02244,-0.013949,-0.016249,-0.019691,-0.012491,-0.019082
0.017671,0.083358,0.070615,0.0031712,0.016128,0.026401,0.027366,0.019793
-0.012483,-0.030622,-0.079266,0.012933,-0.0060958,-0.0057075,-0.010897,-0.0037159
-0.0031806,0.004803,0.082881,0.03855,0.01063,0.0091926,0.0054688,-0.0036044
0.021976,0.025204,-0.052023,0.0016083,0.01146,0.01663,0.0061177,0.020187
-0.015322,-0.087006,-0.022733,-0.043502,-0.027124,-0.02228,-0.0089512,-0.018253
0.0019304,0.0037251,-0.024249,-0.011085,-0.0035477,-0.0058818,-0.016277,0.0060551
-0.0045483,0.023612,0.068722,0.020608,0.0041641,0.01113,0.0076131,-0.00071067
-0.011434,-0.035463,-0.0091965,-0.042153,-0.019452,-0.0026098,0.00024905,-0.0074187
0.012462,0.060595,-0.085973,0.019543,0.011719,0.0073773,0.0085141,0.0014083
0.0046338,0.038096,0.14311,0.057526,0.027502,0.0017602,0.016759,0.0099898
-0.0036247,-0.0015935,-0.087689,-0.037261,-0.0032947,-0.011935,-0.014132,-0.0052493
0.011211,-0.011677,0.01043,0.0089332,0.0052216,0.0050997,-0.0061039,0.0024732
0.0023899,-0.0076549,0.046462,-0.014576,-0.00177,0.0058088,0.0095352,0.0096956
-0.014311,-0.075077,-0.058167,0.017374,-0.0088302,-0.002068,0.0015159,-0.0069599
-0.015285,-0.0023476,-0.0070438,-0.035802,-0.023958,-0.026297,-0.022311,-0.016097
0.0074506,0.00044602,0.035353,0.021121,0.015208,0.019215,0.008466,-0.0018751
-0.0006493,-0.018933,-0.095364,-0.015205,-0.0085799,0.0018883,-0.0075703,-0.010916
0.0073804,0.080871,0.11624,0.011126,0.0062658,-0.0077023,4.8861e-05,0.019523
0.015928,0.050253,-0.0095384,0.013744,0.0051506,0.0063124,0.015825,0.019309
0.0092978,0.029794,0.14467,0.054683,0.011643,0.0050513,0.008568,0.0041525
-0.028284,-0.098179,-0.19416,-0.08523,-0.020999,0.004233,0.001685,-0.010351
0.0045476,0.0014551,-0.072275,0.031209,0.016709,0.011673,-0.012753,-0.0087103
0.0060144,0.015216,0.12828,0.028906,0.0076492,-0.011762,0.004136,-0.006756
-0.024081,-0.057855,-0.16207,-0.07637,-0.016902,-0.019308,-0.01035,-0.0047309
0.0078559,0.015832,0.065004,-0.0029964,-0.010073,-0.0032717,-0.0017044,0.0049356
0.015786,0.032628,0.051745,0.015182,0.020301,0.0049995,0.014327,-0.0014071
-0.008148,-0.085835,0.016358,-0.021249,-0.019553,0.021064,-0.0013596,0.0073241
0.029815,0.16046,0.13739,0.083549,0.018793,-0.001986,-0.0096568,0.0075831
-0.018701,-0.0095106,0.13207,0.064329,0.0025339,-0.017291,-0.010456,0.014954
-0.020774,-0.040653,-0.25116,-0.063094,-0.021426,-0.0092315,-0.0036179,-0.017402
0.00030857,-0.088678,-0.20094,-0.064318,0.0094584,0.029991,0.018801,-0.011245
0.013479,0.050192,0.12611,-0.0019261,0.0093044,-0.0012126,0.010008,-0.0054437
-0.012321,-0.02957,-0.027194,-0.016671,-0.014024,-0.0091278,-0.0065485,-0.0075629
0.009026,0.0087067,0.13757,0.047563,0.0098197,-0.0094189,0.00032346,0.0061052
0.03079,0.12664,-0.11178,-0.0046719,-0.005094,0.005701,0.014901,0.027994
-0.032872,-0.073661,0.055284,0.013974,-0.0041069,-0.0028286,-0.0097858,-0.0042198
0.013397,0.0097535,0.008076,0.0095599,0.012714,0.011909,-0.019085,-0.004517
-0.010099,-0.068258,-0.033251,-0.002533,0.006208,0.0031255,0.0026851,0.0036372
-0.017467,-0.042126,0.017637,-0.0304,-0.015933,-0.013428,-0.0068076,-0.018942
-0.00097705,0.0019126,0.050662,0.0037877,-0.0069572,-0.014163,-0.00043225,-0.0021328
0.031451,0.15706,0.10321,0.029448,0.025213,0.0088874,0.014294,0.0069672
0.017187,0.00066116,-0.12392,-0.031752,-0.02107,0.016787,0.0063872,0.015952
-0.036105,-0.08539,-0.047322,-0.015866,-0.0052295,-0.0060222,-0.0083606,-0.0066121
0.012053,0.054208,0.05732,0.053649,0.010218,-0.012683,-0.01431,-0.0061566
-0.01816,-0.073545,-0.10062,-0.041871,-0.0059646,0.012322,0.027437,0.0016523
0.0059683,-0.00042386,-0.0061546,0.010245,0.016574,0.006297,0.0071802,0.001233
-0.0015595,-0.0078227,0.083262,0.038365,-0.00023083,-0.015379,-0.013024,-0.015109
0.013934,-0.0095395,-0.073356,-0.06659,-0.0094198,0.01735,-0.0024049,0.0074859
0.02124,0.057542,0.088267,0.062893,0.012563,0.0027105,-0.0004502,0.0067059
-0.018615,0.053648,0.031077,-0.010345,-0.012252,-0.0047226,0.00036513,-0.0016522
-0.0039273,-0.043717,0.02261,-0.067231,-0.0055417,-0.004927,-0.0078617,0.013782
-0.036085,-0.069618,0.009709,0.080009,-0.0061518,-0.028986,-0.0093791,-0.025067
0.017919,-0.023384,-0.28011,-0.076249,0.0017523,0.017135,0.0039436,0.022396
0.0098241,0.056278,0.12219,0.026549,0.0027017,-0.01466,-0.0065117,-0.0079845
0.01007,0.036525,0.098964,0.028928,-0.0032488,0.00094289,0.0066098,-0.006973
0.034327,0.073182,-0.0071392,0.024369,0.022881,0.040709,0.028102,0.017468
-0.04246,-0.10013,0.13821,0.0046541,0.0027336,0.0031016,-0.01207,-0.012922
-0.017312,-0.054695,-0.12312,-0.054141,-0.0015537,-0.0026766,0.0033777,-0.012299
0.023616,0.091303,0.050833,0.027187,-0.0060488,-0.016029,0.0040394,0.0036677
-0.0058713,-0.030189,-0.20075,-0.056459,-0.011203,0.0016699,-0.010326,0.011545
-0.012285,-0.05256,-0.081827,-0.024102,-0.017401,-0.012518,-0.008794,-0.012067
0.051018,0.14899,0.25123,0.12414,0.037606,0.011378,0.0082958,0.026636
-0.058324,-0.14407,-0.052613,-0.0023081,-0.03376,-0.02056,-0.029655,-0.028545
0.026784,0.014153,0.038881,-0.090783,0.018602,0.024519,0.033419,0.01774
-0.021778,-0.07084,0.066027,0.023057,-0.0081669,-0.025017,-0.0056755,-0.0063597
0.030475,0.13312,-0.18863,-0.012008,0.0035041,0.010916,0.001554,0.0085464
-0.0037502,-0.021555,-0.028619,0.038777,0.015001,0.015611,0.0083853,-2.0843e-05
0.00084054,0.082946,0.24229,0.074229,0.018961,0.0051623,-0.0005861,-0.016401
-0.025716,-0.068656,-0.11749,-0.13187,-0.062342,-0.04349,-0.032923,-0.0092868
0.0028847,-0.070055,-0.021712,0.0067065,0.013573,0.026119,0.0053574,0.013579
0.0010453,0.023882,0.06873,0.021384,0.020297,0.0030641,0.020684,-0.002419
0.00027422,-0.044981,-0.30725,-0.064342,-0.018738,0.019969,0.005331,0.013085
0.039767,0.1761,0.49851,0.23381,0.060365,-0.0016457,-0.0016625,0.0054238
-0.044557,-0.1804,-0.36583,-0.15472,-0.055184,-0.023162,-0.0082357,-0.017612
0.028376,0.11961,0.15413,-0.027164,0.017065,0.0018531,0.0088454,0.0064215
0.0082658,-0.017715,-0.051178,-0.0089175,0.018937,0.026178,0.010285,0.014946
-0.019328,-0.068918,0.065015,0.071514,-0.018595,-0.028482,-0.019752,-0.023368
-0.0079236,-0.0025782,-0.09886,-0.036151,-0.02536,-0.0058384,-0.0032801,-0.0070244
-0.004745,0.072175,0.019748,-0.0039191,-0.0013298,-0.015025,-0.0028392,0.0092455
0.0055705,-0.047549,0.022445,0.019808,0.0067971,-0.00096924,-0.010559,0.0019805
-0.0083822,-0.025699,-0.098632,-0.042895,-0.00070493,0.021137,0.0049388,0.0024181
0.0080341,0.012629,0.15629,0.027048,0.023329,0.020428,0.01256,0.0027338
0.015794,0.082691,0.083616,0.034717,0.0088106,0.012768,0.0046214,-0.0049029
-0.00062441,-0.04271,-0.0048494,-0.027323,-0.012919,-0.0096033,0.020254,0.01855
0.0058027,0.034033,-0.39908,-0.06504,-0.0028697,-0.015578,-0.0030521,-0.0050452
0.0040089,0.046411,0.34519,0.10136,0.023104,-0.0054496,-0.010682,-0.0053618
-0.044859,-0.20167,-0.22628,-0.082948,-0.052537,-0.018662,-0.033993,-0.021411
4.8482e-05,0.039283,0.065094,0.0066565,0.0041731,0.014706,0.012846,-0.0062242
0.021766,0.065993,0.14017,0.041422,0.044392,0.031821,0.0047565,0.01688
0.028298,0.12091,0.20916,0.083079,0.005295,-0.022231,0.0041974,0.016771
-0.034907,-0.17031,-0.24383,-0.072273,-0.042999,-0.022546,-0.0044612,-0.014278
0.011894,0.029195,0.10203,0.035702,0.024494,0.015297,0.010049,0.0018843
0.020229,0.040874,-0.23622,-0.069807,-0.0029853,0.036779,0.032135,0.026143
-0.041268,-0.016917,0.064155,-0.0057687,-0.015703,-0.059407,-0.055346,-0.043186
0.014727,-0.033725,-0.11088,-0.052727,-0.0053502,0.023914,0.028914,0.012474
0.00050171,0.022561,-0.039163,0.0013435,-0.010432,-0.009844,-0.019689,0.0054317
0.033039,0.12124,0.22761,0.12645,0.055522,0.019244,0.0098976,0.021457
-0.04408,-0.22972,-0.19931,-0.17623,-0.064879,0.0019546,-0.0071857,-0.033311
0.05811,0.2742,0.42254,0.25039,0.08174,0.01647,0.022969,0.028604
-0.082279,-0.28163,-0.18179,-0.10116,-0.059264,-0.038795,-0.032295,-0.034912
0.011391,0.102,0.10973,0.04239,0.0276,0.01578,0.014652,0.0028743
0.018953,0.010072,-0.14422,-0.077367,-0.0016858,0.016063,0.015456,0.017199
0.034335,0.10563,0.16984,0.030936,0.016627,0.0010848,-0.0064234,0.00051155
0.0030253,-0.0028681,-0.19297,-0.031961,-0.034933,-0.029132,0.0036473,0.0077373
-0.051402,-0.15986,-0.31958,-0.071378,-0.047186,-0.051075,-0.040396,-0.023459
0.011759,0.0092938,0.056509,0.021729,0.026668,0.052533,0.025312,0.0085435
0.028464,0.090583,0.0081182,0.07547,0.038212,0.023931,0.013014,0.0099265
0.045548,0.24068,0.67145,0.21507,0.073453,0.03495,0.016159,0.019565
-0.12458,-0.53192,-0.5986,-0.37946,-0.14881,-0.078649,-0.043697,-0.048762
0.033562,0.11728,0.098717,0.057756,0.035456,0.026569,0.020637,0.031172
-0.01146,-0.029903,-0.040649,0.0033254,0.0010801,0.022057,0.0057778,-0.0065915
0.052622,0.27668,0.21634,0.097555,0.044622,-0.030154,-0.018138,-0.0060809
0.061478,0.20071,0.26501,0.11317,0.04845,0.025752,0.026955,0.024718
-0.032029,-0.14149,-0.13326,0.02571,-0.027001,-0.0058612,-0.0073046,-0.0079766
-0.079666,-0.22759,-0.29545,-0.15819,-0.049381,-0.015755,-0.019141,-0.033734
0.035675,0.011698,-0.2565,-0.025497,-0.019002,-0.0038439,0.0074108,0.010204
-0.014035,-0.0023041,0.33303,0.048171,0.017188,-0.0010639,-0.013158,-0.00080299
-0.0019536,-0.066362,-0.23009,-0.13251,-0.018734,0.016528,0.021181,0.011768
0.0098486,0.10158,0.2357,0.081566,0.022121,-0.0051317,-0.0063169,0.017035
-0.0093775,0.018484,-0.00048619,0.019751,0.007567,-0.018519,-0.0015481,-0.015973
0.034593,0.11563,0.018839,0.074279,0.024237,0.016002,0.0044582,-0.0011753
0.0014891,-0.10548,0.024765,-0.018774,-0.013149,0.0050883,0.00395,0.0067375
-0.022585,-0.010867,-0.056878,-0.046942,-0.018119,-0.027637,-0.018794,-0.0079994
-0.014243,-0.08429,-0.23107,-0.063765,0.0018753,0.058401,0.037566,0.0090635
0.034079,0.11175,0.19108,0.10327,0.031385,0.012946,0.008672,0.0029539
-0.0030129,0.053237,0.32657,0.087039,0.00010083,-0.031576,-0.043281,-0.01098
0.01465,-0.010853,-0.2949,-0.15977,-0.037422,-0.020901,0.0064461,0.0061034
-0.038361,-0.081785,0.011561,-0.020812,-0.034543,-0.041336,-0.029823,-0.024056
0.025138,0.073548,-0.022758,0.088723,0.063124,0.047482,0.027506,0.023501
-0.076259,-0.20998,-0.10406,-0.051127,-0.041648,-0.028015,-0.0091016,-0.030878
0.055902,0.15283,0.21822,0.097544,0.056999,0.036819,0.024392,0.031635
-9.1682e-05,-0.041474,-0.1749,-0.099052,-0.039792,-0.031448,-0.012695,-0.0076225
0.013827,0.043074,-0.042083,-0.016597,-0.0043271,0.040611,0.020146,0.015472
0.051063,0.20365,0.2026,0.11801,0.053616,0.02638,0.021186,0.022822
-0.083439,-0.28581,-0.18244,-0.13272,-0.053795,-0.058615,-0.048813,-0.048074
0.024583,0.012785,0.0068885,0.090932,0.024793,0.043338,0.020961,0.013721
0.00807,0.10006,0.2013,-0.046383,0.00026801,-0.0037525,0.0039323,0.0051071
-0.046988,-0.085911,-0.051414,-0.043965,-0.049116,-0.067025,-0.052886,-0.034785
0.04689,0.095991,-0.00056638,0.098887,0.025375,0.0099415,0.022673,0.019153
-0.0072588,-0.033585,-0.17689,-0.086005,0.0054076,0.024298,0.012262,0.010803
0.016987,0.017718,0.3185,0.05016,-0.0069867,-0.015819,-0.0055518,-0.0050343
-0.0055506,-0.023526,-0.41234,0.015314,0.027703,0.030509,0.016498,0.010772
-0.0047466,0.030065,0.25621,0.098429,0.031716,0.03066,0.016172,0.011342
-0.019827,-0.063902,-0.042323,-0.091329,-0.041586,-0.0075217,-0.0064502,-0.011217
-0.019658,-0.086928,-0.21343,-0.12449,-0.043666,-0.037288,-0.028046,-0.017981
0.034771,0.16384,0.25908,0.053502,0.017637,-0.027648,-0.0020279,-0.0013065
0.010664,0.024093,-0.038597,0.020785,0.025,0.028875,0.016514,0.015205
0.0018458,-0.022029,0.13549,0.043118,0.032909,0.022563,0.0036901,0.0079926
-0.014998,-0.076228,-0.14122,-0.012111,-0.029181,0.01563,0.013769,-0.0073808
-0.0084562,-0.013533,-0.15889,-0.050968,-0.036489,-0.062415,-0.031697,-0.015276
0.029468,0.13493,0.29997,0.16884,0.057697,0.038388,0.015565,0.015645
-0.049475,-0.19308,-0.21115,-0.18085,-0.043569,-0.017787,-0.00068145,-0.0082217
0.020512,0.088741,0.088108,0.056105,0.01912,0.011484,-0.0099344,-0.00076288
-0.018258,-0.050465,-0.052667,-0.026778,-0.027546,-0.029727,-0.027493,-0.016496
0.037397,0.05369,-0.10203,-0.039118,-0.0036842,0.02299,0.025164,0.030646
0.031204,0.17485,0.27678,0.15948,0.067485,0.021501,0.015606,0.007911
-0.021307,-0.093184,-0.17275,-0.032685,-0.016972,-0.0027281,0.0066329,-0.014405
-0.026525,-0.1411,0.043236,-0.092228,-0.046,-0.018352,-0.0094056,0.0026709
-0.0080413,0.023161,-0.14379,-0.0034209,0.011672,0.029291,0.030003,0.0043166
-0.020679,-0.03028,0.22089,-0.0082384,-0.0081145,-0.047423,-0.039323,-0.025246
0.013577,0.034305,-0.15061,0.0029667,0.027244,0.0091302,-0.0066481,-0.0002227
0.05557,0.17756,0.12496,0.10856,0.039316,0.042488,0.018421,0.032399
-0.051045,-0.19466,-0.17942,-0.11325,-0.066022,-0.033495,-0.026827,-0.036835
0.029552,0.049882,0.0051091,0.040549,0.0077165,-0.00024894,0.01369,0.018589
-0.015279,0.012082,0.06674,-0.0085366,-0.021072,-0.045427,-0.008574,0.0033304
0.040872,0.097448,0.22887,0.14516,0.089531,0.088656,0.046943,0.026751
-0.067754,-0.17126,-0.10574,-0.19436,-0.082489,-0.059054,-0.038541,-0.036149
0.018136,0.04138,-0.049806,0.019125,0.0097606,0.019147,0.00058612,0.0021491
0.017286,0.078925,-0.0042559,0.066385,0.030521,0.049723,0.023698,0.016688
0.015716,0.089968,0.10787,0.087882,0.026998,-0.045514,-0.016069,-0.015902
-0.041102,-0.25308,-0.34574,-0.1818,-0.070669,-0.016564,-0.0093096,-0.017407
-0.0045222,-0.011879,0.0043145,-0.015527,-0.011974,-0.0039615,-0.002846,0.012261
0.016293,0.087992,0.10692,0.056282,0.023884,0.015922,0.011213,0.018484
-0.0019223,0.031843,0.13045,0.018931,0.013855,0.0043087,0.0095303,-0.0065206
0.03467,0.11724,0.094775,0.076371,0.03627,-0.0072112,-0.0077848,0.0075408
-0.022375,-0.11646,-0.23103,-0.083352,-0.033884,-0.010478,-0.017184,-0.0096994
-0.001271,-0.013096,0.037902,-0.022589,-0.0093427,0.010432,0.012681,0.012004
0.027539,0.16129,0.21444,0.10996,0.04699,0.024475,0.01939,0.0022978
-0.037618,-0.17198,-0.046419,-0.05352,-0.029436,-0.0073259,-0.012631,-0.023175
0.0063542,0.033499,-0.036226,0.0018048,-0.0047091,-0.014698,-0.013042,-0.0096236
-0.012331,-0.089666,-0.039394,0.0095047,-0.011982,0.0022192,0.010344,0.011885
-0.015331,-0.049163,-0.32469,-0.12478,-0.043594,-0.011471,-0.012807,-0.0052831
0.028922,0.16328,0.4335,0.090886,0.056764,0.029935,0.011209,0.017247
0.027037,0.14211,-0.070907,0.070701,0.00027437,-0.030035,0.0042036,0.0015574
-0.02847,-0.19003,-0.072406,-0.083225,0.006057,0.003746,0.0051559,-0.0053639
-0.020191,-0.035563,0.039509,-0.018493,-0.0035992,0.013954,-0.0094684,0.0042848
0.012875,0.0044351,-0.24872,-0.0075645,-0.01269,-0.015128,-0.016334,-0.0087031
0.023724,0.062952,0.10444,0.075481,0.018125,0.017998,0.031336,0.010098
-0.0035847,-0.01647,0.085651,-0.010862,-0.028213,-0.027342,-0.022791,-0.017783
-0.014822,-0.039114,-0.069198,-0.094428,-0.02675,0.0050432,0.0087248,0.0088341
0.036349,0.15815,0.27301,0.12148,0.069172,0.029144,0.00085408,0.011457
-0.030284,-0.082066,0.033161,-0.012197,-0.0064361,0.013632,0.0004769,0.0054097
-0.019841,-0.03438,-0.095528,0.00354,0.00379,-0.018121,-0.00017947,-0.025128
-0.010711,-0.074808,-0.13916,-0.066852,-0.041233,-0.034887,-0.0088562,-0.009904
0.028289,0.069399,-0.17066,0.025485,0.022181,0.033697,0.013604,0.027723
-0.0042722,-0.0082617,0.18307,-0.0016021,-0.0093111,-0.02317,-0.01863,-0.0057923
0.024711,0.05961,0.10874,0.02326,0.0049074,-0.0099547,0.0039214,-0.0085855
-0.00936,-0.031047,-0.151,0.0063091,-0.0052629,0.026736,0.018844,0.011883
-0.020102,-0.021497,-0.039829,-0.067616,-0.0081733,-0.0065721,-0.0050533,-0.0065297
-0.014902,-0.066922,-0.031955,-0.025799,-0.011125,0.0075417,-0.0052433,-0.0088201
0.014398,0.029017,0.078312,0.039046,0.017655,0.0067313,0.0026462,0.013063
0.021147,0.087455,0.11348,0.034183,0.016103,0.0066771,-0.0048475,0.0045706
-0.0023913,-0.016127,-0.057913,0.0072721,0.00010446,-0.023912,0.0034857,-0.0030196
0.006214,0.023041,0.040971,0.021225,-0.0068621,0.00078114,-0.011467,-0.0019693
-0.0079161,-0.014082,0.089023,0.029161,0.010649,-0.0053529,-0.0028879,-0.0080614
-0.013797,-0.073372,-0.13407,-0.063034,-0.0024048,0.0043601,0.013525,0.0019276
-0.0039039,0.016349,0.0026188,0.033122,-0.0074079,-0.0015383,-0.0013748,0.0043186
-0.0097443,-0.026847,0.020883,-0.073606,-0.020435,0.0080003,0.014815,-0.0089424
0.030987,0.069946,-0.11934,0.014733,0.012838,0.017171,-0.00049842,0.016614
-0.0068249,0.032989,0.058433,-0.0068016,-0.0015572,-0.0054204,-0.016138,-0.0051261
0.017414,0.018491,0.039397,0.049285,0.01446,-0.012986,-0.00088081,-0.0039714
-0.029073,-0.10615,-0.17497,-0.01213,-0.0093077,-0.013357,-0.0093766,-0.003417
-0.021204,-0.06713,0.1436,-0.050148,-0.02575,0.0091563,0.013165,0.0043575
0.0098686,-0.0046368,-0.04254,0.029207,0.020109,0.015628,0.0043993,0.0037946
0.025164,0.12071,0.1501,0.038509,-0.0042754,-0.032813,-0.01987,-0.012803
0.01691,0.035563,-0.0053688,-0.014569,0.026286,0.035923,0.018646,0.0093953
-0.014898,0.059996,0.036631,0.057129,0.0024836,-0.035779,-0.020571,-0.0075827
-0.007803,-0.11119,-0.1947,-0.051551,-0.021054,0.025672,0.010944,0.0067149
0.0069035,-0.0020807,0.24366,-0.012946,0.0023868,0.017234,0.035,0.013338
-0.002035,0.035157,-0.14247,-0.014877,0.0022891,-0.022015,-0.018857,-0.018887
-0.011118,-0.023232,-0.15118,-0.0027264,0.025339,0.025069,0.0054424,0.019459
-0.012391,-0.083394,0.076845,-0.038764,-0.045765,-0.036898,-0.025081,-0.020044
0.0021696,0.027117,-0.058871,0.041575,-0.0079012,0.0029479,-0.0011564,-0.0045825
0.017172,0.074892,0.12342,0.05929,0.014041,-0.011698,-0.00091947,0.01115
-0.014052,-0.079525,-0.02215,-0.047377,0.004639,0.020697,0.0069681,0.003709
0.033614,0.07281,0.030438,0.019119,0.026637,0.0063747,0.0070424,-0.0034802
-0.019522,-0.061011,-0.083967,-0.037612,-0.013481,0.023457,-0.0083233,-0.0026231
-0.0095412,0.011568,0.042001,-0.022029,-0.013978,-0.045254,-0.015537,-0.0093751
0.047673,0.18097,0.11147,0.097071,0.017419,0.018967,0.032347,0.030905
-0.051336,-0.13947,-0.032869,-0.055615,-0.013053,-0.010487,0.0024753,-0.02247
-0.0022215,-0.044617,0.013386,0.011609,0.0038791,-0.00086602,-0.0037462,-0.005515
-0.0005858,-0.0044994,0.029283,0.016908,-0.0022636,0.0086917,-0.0021839,0.0035583
0.023696,0.0422,-0.1357,-0.0090372,0.0073797,0.018104,-0.0087363,0.012477
0.00025644,0.016481,-0.076851,-0.06669,-0.0064568,-0.011772,0.0076059,-0.0022723
-0.00050624,0.0038626,-0.013704,0.015524,-0.0048869,-0.010689,-0.015808,-0.001681
