-0.023949,-0.015949,0.34323,-0.12105,-0.05651,-0.027373,-0.097541,-0.010703
0.0070177,-0.022564,-0.016845,-0.0032566,0.035742,0.026034,0.10502,-0.012677
-0.0013289,0.040745,0.098618,-0.34217,-0.029056,-0.046408,0.0024501,0.016922
-0.0020239,-0.060529,0.16474,0.37838,-0.023912,0.021282,0.001254,0.0080574
0.005071,0.064201,-0.40545,-0.10599,0.012667,0.0108,-0.015498,0.0077868
-0.011141,-0.014694,0.098503,0.096998,0.065598,0.016332,0.007098,0.00054499
0.019785,0.0076113,0.036093,0.14522,0.033719,0.022605,0.014484,0.0018811
0.0041743,-0.0093094,-0.24828,-0.45223,-0.020301,-0.024863,-0.024566,-0.019651
0.0045312,-0.010535,0.41041,0.35219,-0.049677,0.0067827,0.022685,0.0059842
-0.026088,-0.04271,-0.15082,-0.027511,-0.031286,-0.031002,-0.054846,-0.0074665
0.013757,0.042794,-0.12642,-0.060812,0.042224,0.010007,0.04734,0.0021947
-0.016708,0.019516,0.25762,-0.0067364,-0.0093418,-0.018905,-0.014694,0.0034671
0.015187,-0.01099,0.032764,0.15674,0.047925,0.046028,0.047961,0.011808
0.015586,0.021455,-0.17597,-0.28263,-0.020698,-0.014221,-0.030413,0.0037148
-0.015562,-0.016193,0.02988,0.10393,-0.043522,-0.0045766,-0.0467,-0.012952
-0.00011331,-0.0070293,-0.076047,0.15982,-0.0049282,0.0044776,0.038241,0.0010271
-0.0082962,0.0018003,0.030212,-0.23973,0.0092961,-0.010591,-0.017634,-0.0087869
-0.0087321,-0.036786,-0.080246,0.015414,0.022844,-0.010736,-0.0032097,-0.0030256
-0.001278,0.0021121,-0.031579,0.027802,-0.010865,0.0041045,0.011361,0.0030005
0.006372,0.032572,0.059621,-0.10002,0.025637,0.018425,0.018369,0.0017467
0.037716,0.04691,0.16216,0.51545,0.046633,0.016764,0.025653,0.0011954
0.014612,-0.0093499,0.13474,-0.27396,-0.049276,-0.008503,-0.013713,0.032634
-0.055212,-0.065622,-0.10214,-0.14029,-0.051036,-0.033744,-0.029505,-0.021226
-0.0078268,-0.02005,-0.08936,0.0018901,0.0023811,-0.0040837,-0.021812,-0.012166
0.016001,0.026072,-0.15699,0.034804,0.032923,0.018137,0.017132,0.012652
0.00053145,0.010442,-0.048796,0.0439,-0.0062435,0.017406,0.0092107,-0.0017495
0.0082022,0.034703,0.19522,0.036772,-0.013576,-0.021851,-0.022076,-0.024359
0.015583,0.012853,0.18434,-0.11928,0.02644,0.017532,0.040548,0.030631
-0.00068536,-0.024053,-0.22908,0.16213,0.058909,0.018279,-0.0059602,-0.00084529
-0.03265,0.0018213,-0.027913,-0.19652,-0.080515,-0.050998,0.010325,-0.024912
-0.0098204,-0.050472,0.016383,-0.0070938,0.021921,0.028298,-0.019966,0.0055277
0.013294,0.029713,-0.039415,0.066778,0.0065789,-0.001788,-0.034379,-0.003007
-0.0022391,-0.031288,-0.037242,0.087614,-0.032937,-0.0085487,0.045128,0.0044217
0.013933,0.016387,0.18034,0.03931,0.0049477,0.0079612,-0.031564,0.012361
0.014858,0.063304,0.05113,-0.040022,0.0032321,-0.006949,0.016656,-0.0025768
0.00034482,-0.023339,-0.066108,-0.034438,0.016933,0.0014451,0.017769,0.014211
0.017006,0.022153,0.15533,0.078256,0.030841,0.0097642,0.0028889,0.0078365
-0.029175,-0.057906,-0.43491,-0.19505,-0.071805,-0.02881,-0.0046443,-0.021966
-0.0055832,-0.068017,0.14553,0.12968,0.053106,0.057631,0.0029451,-0.0051498
-0.029471,0.077987,0.06679,0.10752,-0.023898,-0.043412,-0.044617,-0.020047
0.0086279,0.036612,0.39798,-0.36206,-0.0059148,-0.0038526,0.0090257,0.019175
0.015187,0.011234,-0.54888,0.058354,0.013111,0.019986,-0.046916,-0.012477
0.0061317,0.0098801,-0.1017,0.049989,-0.037538,-0.026674,0.076762,0.017911
0.0051937,-0.10791,0.27938,0.32499,0.083763,0.035765,0.020783,-0.0066891
0.0047761,-0.0061156,-0.12325,-0.10041,-0.029871,-0.011511,0.011748,0.015464
-0.002847,0.065264,0.19941,0.04711,0.019417,0.0033594,0.010589,0.0064121
0.013519,0.012358,0.3422,-0.037873,0.028102,0.010118,-0.021749,0.0053529
-0.0087975,-0.0010106,-0.50655,-0.27828,-0.10549,-0.022355,-0.12426,-0.026671
-0.030973,-0.037693,-0.064966,0.03578,-0.053009,-0.046995,0.093858,-0.019271
0.024874,0.073778,0.13621,0.13009,0.092311,0.053602,-0.070299,0.011981
-0.0055097,-0.018545,-0.16822,-0.034789,-0.03602,-0.017256,0.078808,-0.011023
0.0027711,-0.025862,0.22524,0.048989,0.039266,0.013968,-0.013396,0.044502
-0.012791,-0.018546,-0.058171,-0.087006,0.0062017,0.014428,0.027991,-0.016846
-0.0052457,-0.043288,0.036278,0.14365,0.036906,0.0073943,-0.00050323,0.007902
0.0099027,0.048756,0.15683,0.13992,0.0062903,0.00040613,-0.029133,-0.022081
0.024968,0.023753,-0.15783,-0.20707,-0.015693,-0.0068474,0.01955,0.01017
-0.022457,-0.055256,-0.13481,-0.20939,-0.052986,-0.038068,0.0042993,0.002898
0.0082894,0.01525,-0.024649,0.14113,0.011108,0.0081626,0.034099,0.018476
0.0078148,0.024463,0.17995,0.079068,-0.011255,0.014683,-0.016058,-0.013432
-0.016124,0.042499,0.0097721,-0.028372,-0.026444,-0.010498,-0.11447,-0.030238
0.014539,0.0063603,-0.098116,0.2092,0.043762,0.0032592,0.044431,-0.039566
-0.017412,-0.0065206,0.13708,-0.30244,-0.034773,0.001656,-0.053844,0.068206
0.013049,-0.059367,-0.28514,0.11572,0.035096,0.00068243,-0.0096905,0.012079
-0.026798,-0.035567,0.2831,-0.037074,0.042616,0.031851,0.20123,0.0031896
0.011629,0.025541,-0.096274,0.02757,-0.019995,-0.021923,-0.03785,-0.0052195
0.011306,0.045926,0.052761,0.12167,0.01118,-0.0044689,0.0072204,-0.020936
-0.004189,-0.020823,0.026699,-0.20027,-0.043819,-0.033227,-0.094057,0.0028664
0.012096,0.0057222,-0.0027194,0.14004,-0.0056198,0.039854,-0.022627,-0.012033
-0.01017,-0.021994,-0.23844,-0.17725,0.016142,0.011194,0.024743,0.0045659
0.0070156,0.021872,0.054428,0.08289,-0.0099033,0.0053464,0.046678,-0.0099488
-0.038125,-0.065167,-0.045253,-0.14133,0.0022508,-0.017107,-0.004744,0.014632
0.049445,0.060926,0.30714,0.39284,0.021619,-0.032925,-0.02067,0.015715
0.011627,0.064071,-0.16875,-0.31424,-0.037308,0.020403,-0.024442,0.016658
-0.03463,-0.079742,0.41852,0.33905,0.044748,0.0181,0.023709,0.0017811
0.0042829,0.034825,-0.51615,-0.19421,-0.020724,-0.02381,-0.023456,-0.052375
-0.020076,-0.022995,-0.034338,-0.093784,-0.0066782,-0.0032561,0.023034,-0.012978
0.017439,0.058267,0.18532,-0.031478,0.0091028,0.017774,0.01621,0.026276
-0.0078947,-0.065896,-0.14507,-0.10076,-0.05137,-0.038422,-0.26933,-0.012672
0.037094,0.049522,-0.040038,0.065959,0.061801,0.04715,0.3467,0.034277
-0.042534,-0.071804,0.31365,0.25813,0.020149,0.0010751,-0.0029901,0.0030503
0.0035397,-0.015062,-0.13078,-0.094408,0.0028233,0.02628,-0.061389,0.0029487
0.011443,-0.029136,-0.13976,0.00027397,-0.037705,-0.010411,0.14676,-0.020828
-0.01099,-0.019039,0.12086,-0.028807,-0.023985,-0.031306,-0.20035,0.017547
0.029825,0.18818,-0.062507,-0.11235,0.027772,-0.013364,-0.064937,0.00083121
0.00074856,-0.031791,0.16626,0.07658,-4.1591e-05,0.0040744,0.036606,-0.024059
-0.012718,-0.046007,0.0069615,0.13064,-0.037325,-0.041599,0.057365,-0.064785
0.0045972,0.059203,-0.15265,-0.16192,0.033113,0.060602,-0.056671,0.066396
0.0054401,-0.060708,0.076228,0.057894,0.023964,0.006151,0.13321,0.049447
-0.041659,-0.055164,-0.025456,0.0090269,-0.01757,-0.001628,-0.29343,-0.076325
0.0039129,0.012397,-0.12037,-0.21409,-0.012954,-0.0094403,0.17253,0.056417
0.017356,0.0084566,0.20069,0.28023,0.030439,0.0062445,0.14129,-0.0054301
0.0068548,0.010777,-0.41755,-0.21773,-0.051031,-0.0014498,0.04273,-0.01198
-0.0036893,0.0037291,0.15433,0.16035,0.039885,-0.016984,-0.084575,-0.018138
0.017439,0.057915,0.1546,0.2747,0.014417,0.014189,-0.069791,0.022696
-0.030946,-0.076189,-0.047018,-0.42898,-0.041304,-0.017461,0.0076449,-0.030383
-0.0080036,-0.023053,0.26103,-0.0054485,-0.0022077,0.020748,-0.19732,-0.005733
0.03941,0.045918,-0.016417,0.029116,0.022268,-0.0040669,0.23617,0.049613
0.0095561,0.037287,0.055081,0.095687,-0.0071397,0.0096675,-0.044063,-0.012843
-0.027584,-0.00195,-0.27063,0.16971,-0.012636,-0.023881,0.063423,-0.0055592
0.021327,0.0062687,0.01816,-0.12496,-0.0024626,-0.0029587,-0.01133,-0.014333
-0.015994,-0.024189,-0.19873,0.14828,0.069779,0.025819,0.005873,-0.0076948
-0.03049,-0.077951,0.030347,-0.33916,-0.022915,-0.023195,-0.055791,0.03025
0.032361,0.040049,0.057132,0.04571,0.016012,0.02215,-0.19514,-0.040844
-0.014936,0.0092929,0.14105,-0.063525,-0.071365,-0.0098079,0.14365,0.052709
-0.023779,-0.021942,0.011157,0.24065,-0.042712,-0.025205,0.1255,-0.056108
0.03735,0.094652,0.06867,-0.16531,0.039861,0.015004,-0.0069884,0.039017
0.020321,-0.062912,-0.1527,0.21213,0.044108,0.024727,-0.019555,0.017714
-0.012085,0.04434,0.21599,0.069254,0.009715,0.0036922,-0.022186,-0.049873
-0.012786,-0.028932,-0.19153,-0.28883,-0.031516,-0.001571,-0.01585,0.046947
-0.020744,-0.017022,-0.086153,0.098685,-0.0011006,-0.02267,-0.0094563,-0.012423
0.0031043,-0.021272,0.23459,-0.042301,0.02294,0.0025959,-0.0040029,-0.048568
0.082107,0.036817,-0.24604,-0.12689,0.0013704,0.0037312,-0.023634,0.094538
-0.080756,-0.014142,0.15804,0.30457,-0.03496,-0.034925,0.0016524,-0.098881
-0.0012783,-0.095508,-0.17963,-0.069637,0.046215,0.035173,0.0094472,-0.011724
0.015694,0.16035,0.27078,-0.10239,-0.021303,-0.0045077,0.00016773,0.074728
-0.0065318,-0.082242,-0.18728,0.025569,0.04325,0.025992,0.099424,-0.034854
0.0257,0.067354,0.22649,0.032357,-0.080741,-0.021509,-0.10619,0.081391
-0.02049,-0.0083028,-0.25414,-0.050811,-0.041787,-0.021823,-0.0067394,-0.068746
0.0111,-0.051866,0.042485,0.19856,0.058704,0.0016859,0.1091,0.014728
-0.074894,-0.048293,0.022844,-0.16358,0.017928,0.025527,-0.14134,-0.090023
0.10428,0.11904,0.015652,-0.23708,0.031597,0.0026506,0.06997,0.1093
0.0016788,-0.011242,0.068663,0.11279,0.014159,0.026558,-0.022869,-0.035522
-0.046816,-0.064322,-0.098346,0.075249,-0.065333,-0.0045775,0.12661,-0.0085715
0.0056624,-0.0010527,-0.015593,0.13588,-0.019196,-0.067518,-0.13048,0.026471
-0.028306,-0.00077468,0.075627,0.076287,0.035438,0.0095384,-0.021053,-0.0080953
0.10929,-0.0082863,-0.027164,-0.16655,0.0047557,0.023556,0.032782,0.028781
-0.073391,0.00038905,0.004486,-0.015838,0.0057978,0.013845,-0.015885,-0.050022
-0.075916,0.041277,0.037762,0.073498,0.0071139,-0.0036103,0.059663,-0.048926
0.070956,-0.026127,0.0020584,-0.056685,-0.0071326,-0.012788,0.033169,0.039963
-0.11671,0.024504,-0.11094,-0.040798,-0.021504,-0.028966,-0.16529,0.013352
0.19729,0.05197,0.080986,-0.020483,-0.012699,0.026196,0.050627,0.042661
-0.026078,-0.014844,-0.10246,-0.011674,-0.0042363,0.012095,0.10314,-0.029088
-0.060507,-0.043966,0.096041,0.064114,0.035104,0.022293,-0.046577,0.00030842
0.077863,-0.012622,0.082435,-0.00319,0.011573,0.0017326,0.085956,0.075202
-0.096015,-0.03048,-0.065189,0.06098,-0.0044979,-0.011001,-0.13209,-0.047411
-0.067222,0.019835,-0.026208,-0.078167,-0.013072,-0.024199,0.064818,-0.032074
0.054259,0.021806,-0.073363,0.04909,0.03279,0.016458,-0.17504,-0.1288
0.088332,0.0077271,0.26318,0.099682,-0.038676,-0.037646,0.21065,0.18635
-0.027633,-0.060246,-0.24178,-0.17603,-0.031994,0.0088532,-0.059594,-0.12478
0.042485,-0.0012733,-0.071147,0.011057,0.01398,-3.7601e-05,-0.017317,0.048358
0.049188,0.10736,0.041992,-0.065804,0.021331,0.029818,0.040238,0.027256
-0.25676,-0.038687,0.098399,0.16331,0.01366,-0.010538,-0.027979,-0.0074627
0.023979,-0.033403,-0.058254,0.010359,-0.0089713,-0.019205,-0.027075,0.046274
0.11879,0.020852,-0.069709,-0.11119,-0.0075755,0.050877,0.081676,0.040006
-0.010881,0.013498,0.14782,0.024597,0.0098195,-0.02686,-0.0065637,-0.21432
-0.0057536,0.091586,0.24766,0.057824,0.019452,0.020839,-0.033861,0.11824
0.063043,-0.10555,-0.02332,0.050637,-0.018113,-0.032889,-0.038842,0.09115
-0.087305,-0.0085353,-0.16002,-0.059559,-0.0094632,-0.00088349,-0.020778,-0.1875
0.20515,-0.11778,-0.36715,-0.17882,-0.0095183,0.015009,-0.049065,0.24997
-0.22597,0.082501,0.034976,0.060504,0.020719,0.0068136,0.14286,-0.15957
0.078302,0.053901,0.18081,0.16684,-0.028006,-0.033287,-0.038018,-0.0099128
-0.00039122,0.047359,0.16704,0.0080093,0.039907,0.012043,-0.028814,0.051151
0.12402,-0.10802,-0.12773,-0.087372,-0.04858,-0.036626,0.037552,0.063967
-0.0077522,-0.028663,-0.15331,-0.0019111,0.027267,0.063185,0.051112,0.02245
-0.39253,0.082715,0.030071,-0.1967,-0.013442,-0.02421,-0.0047328,-0.80594
0.16931,-0.023927,0.079241,0.14024,-0.045494,0.013834,-0.092091,0.68972
-0.10652,0.29164,0.40695,0.19559,0.12644,0.036705,-0.024603,0.22122
0.010918,-0.29925,-0.32569,0.046591,-0.021228,-0.041642,-0.037539,0.10098
0.27466,-0.023654,0.16651,0.067496,-0.0044274,-0.010447,0.18892,-0.10951
0.2248,0.048016,0.13761,-0.33571,-0.026603,0.0051031,-0.048382,-0.16192
-0.3353,-0.11512,-0.41495,-0.11573,-0.064569,-0.010746,-0.06929,-0.46438
0.16122,0.06593,-0.06977,0.087954,0.022196,0.020091,0.017659,0.3174
-0.13435,0.061134,-0.20776,-0.043336,-0.01625,-0.01171,-0.013022,0.29174
0.10061,0.05145,0.11263,0.070258,0.0077641,-0.051348,-0.17585,-0.33862
-0.15458,-0.18085,0.17794,0.25037,0.063187,0.057553,0.13165,0.27817
-0.067678,0.19287,0.31381,-0.10407,0.02515,0.018201,0.29283,-0.18526
0.093919,-0.054181,-0.21787,0.045458,-0.012602,0.018103,-0.2235,0.01428
-0.060135,-0.079163,-0.055883,0.033443,-0.06584,-0.036567,0.06669,0.3622
0.050359,0.17107,0.29106,-0.1109,0.044874,0.02594,-0.063831,-0.85938
-0.055709,-0.094422,-0.28211,-0.10064,-0.063559,-0.052313,-0.014214,0.61574
0.20346,0.059954,0.1175,0.007819,0.069563,0.0098489,-0.15223,0.21746
-0.38761,-0.17207,-0.09481,0.010366,-0.0090178,0.017125,0.1312,-0.28091
0.50929,0.044454,-0.21454,-0.10093,-0.049286,-0.030381,0.086015,-0.020369
-0.26902,0.013965,0.23747,0.21367,0.019229,0.023746,-0.10791,-0.11854
0.1832,0.11976,0.30501,-0.03682,0.032744,0.0078155,0.010579,0.15073
-0.057483,-0.19961,-0.38735,0.047485,-0.00057856,0.015734,0.051019,-0.040923
-0.024393,0.11978,-0.040391,0.061737,-0.017876,0.00071694,0.0759,0.048577
0.0071109,0.03246,-0.11022,-0.21948,-0.0032105,-0.013786,-0.10247,-0.18238
-0.20639,-0.03068,0.10499,-0.04538,-0.018873,-0.027837,-0.023471,0.16454
-0.18076,-0.037656,0.088982,0.22503,0.021134,0.036567,0.086002,-0.17656
0.19414,-0.0039158,0.098389,-0.10357,-0.016115,-0.039482,0.014786,0.48914
0.13065,0.015502,-0.12739,0.070054,0.0097192,0.0016483,-0.19808,-0.31555
0.13041,0.21517,0.28143,-0.020299,0.059149,0.042577,0.13514,-0.044362
0.09325,-0.12455,-0.30032,-0.086238,-0.0089405,-0.0028274,-0.024191,0.083589
-0.40193,-0.16846,-0.094236,-0.011246,-0.038766,-0.0019346,-0.027087,-0.080019
0.21525,0.067432,0.26192,0.12598,-0.022855,-0.017394,0.033229,0.0045724
-0.11825,-0.033885,0.12131,-0.089057,-0.01604,-0.010235,0.11026,-0.2239
0.1591,0.043912,0.016649,-0.00036134,0.013009,0.0039002,-0.061477,0.25957
-0.039763,0.020653,-0.43256,0.048202,-0.0057451,-0.013984,-0.052369,0.1441
-0.02833,-0.00089553,0.043407,-0.044928,0.045286,0.037825,-0.018944,-0.18623
-0.15105,-0.10563,-0.041239,-0.0062233,-0.0053376,0.01111,0.061863,0.050529
0.021456,0.16799,0.18947,0.14102,0.014655,-0.031352,-0.052511,-0.075397
0.075116,-0.039369,0.043229,-0.14205,0.0040062,0.012312,0.0048185,0.060148
0.010124,0.13114,0.14948,0.066651,-0.013644,-0.013814,0.061798,0.018178
0.13139,-0.18866,-0.41642,-0.19353,-0.085059,0.0077788,0.009008,0.11714
0.079689,0.04691,0.13944,0.11677,0.055429,-0.024196,-0.15348,-0.23865
-0.45743,-0.022633,0.30538,0.23221,0.040622,0.0076359,0.09789,0.10539
0.49664,-0.062181,-0.17384,-0.33915,-0.0436,0.033011,0.02889,-0.039334
-0.32359,0.11536,0.069815,0.37167,0.044842,0.0049336,-0.008858,0.068983
0.14473,-0.099356,-0.31607,-0.32267,-0.030148,-0.037835,-0.0075886,0.016676
-0.043086,-0.10446,-0.076141,0.015471,-0.026586,-0.017635,-0.03779,-0.17957
-0.17524,0.16299,0.46561,0.050209,0.024038,0.057147,0.064323,0.012976
0.1945,0.17215,-0.06248,0.047122,0.035533,0.0062188,-0.060938,0.11936
-0.12057,-0.12366,-0.11038,-0.040888,-0.039228,-0.014706,0.093977,-0.015275
0.13778,-0.036863,0.13805,0.059181,-0.012963,-0.0059946,-0.041358,0.086582
-0.030556,0.073102,-0.062437,0.018555,0.059476,-0.022453,-0.044964,-0.012191
-0.055935,-0.19221,-0.45539,-0.15574,-0.048563,-0.0014111,-0.025855,0.05545
0.27149,0.042306,0.55349,0.38705,0.022288,0.010697,0.016551,-0.093789
-0.15888,-0.035567,-0.25211,-0.45528,-0.07165,-0.055808,0.043905,-0.085493
-0.0043289,0.035485,0.0067161,0.13723,0.036934,0.010716,-0.083715,-0.092014
-0.15599,0.16989,-0.11071,-0.0072487,0.027883,0.10935,0.10298,0.042632
-0.24649,0.0085284,0.11112,-0.067943,0.034169,-0.0094523,0.010508,0.076187
0.38908,0.035827,0.13673,0.29972,0.032514,0.0061021,0.0059595,0.16492
0.0097471,-0.2171,-0.19596,-0.13758,-0.062856,-0.10183,-0.067327,-0.081834
-0.10199,-0.15683,0.21467,-0.073984,-0.064253,0.0024747,-0.030327,0.015466
0.070316,0.11463,0.10116,-0.039634,0.012908,0.0374,0.084922,-0.15286
-0.027876,0.10448,0.038479,-0.018017,0.0047663,0.0025318,-0.050477,0.069046
0.016811,0.18699,-0.25052,-0.0086331,0.052078,0.053698,0.039399,0.024562
-0.015783,-0.044867,0.051107,0.21505,-0.0014178,-0.059489,-0.036489,-0.060033
0.16154,-0.13087,-0.39478,-0.12884,-0.02311,-0.024856,-0.01267,0.14326
-0.23437,-0.10272,0.16903,-0.025902,0.033478,0.032339,0.0015859,-0.12329
0.13089,0.078672,0.25925,0.084762,-0.0040672,-0.01309,-0.0090341,0.0077406
-0.032503,-0.023633,-0.04357,-0.1111,-0.0034943,0.010606,0.057474,0.021124
-0.15408,0.09929,0.30287,0.29903,0.042562,0.033042,0.0062852,0.011063
0.1813,-0.082329,-0.48719,-0.22489,-0.06141,-0.0082994,0.0019252,-0.029829
-0.41526,-0.090351,-0.10633,-0.16742,-0.088711,-0.043058,-0.064592,-0.038748
0.39412,0.068749,0.17361,0.034622,0.062696,0.022649,0.017959,0.046916
-0.0060702,0.020765,0.00115,-0.039165,0.010725,0.017178,0.0075645,0.10986
0.12738,0.13292,0.39824,0.21469,0.01402,-0.074761,-0.048851,-0.061151
-0.03349,-0.048703,-0.1614,-0.076845,0.010828,0.083194,0.0752,-0.036852
0.0029164,0.060379,0.18575,0.24406,0.071964,-0.00066483,-0.0032826,0.010492
-0.24886,-0.24482,-0.62651,-0.37637,-0.13055,-0.052411,-0.011132,-0.083434
0.045971,0.33073,0.43003,0.24169,0.098389,0.014334,0.0123,0.04853
0.10534,-0.37852,-0.47452,-0.050809,-0.054278,0.02804,0.027712,0.062862
-0.11785,-0.076538,0.16734,-0.24723,-0.073678,-0.042347,-0.090001,-0.063445
0.16594,0.35383,0.23937,0.23691,0.10187,0.045381,0.034224,0.06078
-0.010963,0.18674,-0.31136,0.11894,0.088826,0.0097996,-0.0056211,0.0142
-0.20185,-0.55308,0.22808,-0.17255,-0.14454,-0.055691,-0.037306,-0.15592
0.10249,0.24544,0.33604,-0.036533,0.03446,0.04372,0.056728,0.058381
-0.02668,0.2247,0.029457,0.32404,0.071415,-0.044131,-0.020132,0.047518
-0.1829,-0.37154,-0.22981,-0.43371,-0.16584,0.031673,0.029043,0.0062484
0.67996,0.16101,-0.37066,-0.0037432,0.026683,-0.010744,0.024352,0.18371
-0.46322,-0.24749,-0.06403,-0.0017442,-0.014167,-5.4023e-05,-0.034667,-0.22578
0.096119,0.46523,0.3163,0.15158,0.095093,0.016472,0.02324,-0.0044587
-0.058684,-0.14714,-0.025118,0.019122,0.034393,0.030835,-0.01352,0.050123
-0.054917,0.077969,0.069255,0.25641,0.053429,-0.035008,-0.043913,-0.031043
0.043441,-0.1737,-0.040442,-0.20868,-0.075168,-0.0088079,0.0099031,0.0023084
0.0016753,-0.036546,-0.026237,-0.050687,-0.00097631,0.00072226,0.030784,0.06498
-0.093379,0.11334,-0.030049,0.20402,-0.0064395,-0.021161,-0.03559,-0.14664
-0.036621,-0.2088,0.141,-0.36116,-0.092516,-0.0031655,0.030167,0.071739
0.049648,0.028683,-0.16482,0.12723,0.060623,-0.061559,-0.060222,0.010232
0.10588,0.29554,0.056602,0.051922,0.015589,0.069969,0.05342,0.0054631
0.16606,-0.2506,0.17687,-0.20279,-0.047238,0.11829,0.067087,0.12796
-0.087914,0.016756,0.0060979,0.16283,0.045156,-0.0026465,-0.010942,-0.036601
-0.037427,0.38015,0.22322,0.12918,0.01288,-0.07463,-0.02423,-0.051317
-0.12714,-0.3235,-0.81107,-0.041809,-0.00993,-0.1141,-0.23069,-0.073177
-0.16968,-0.20304,0.0081157,-0.21352,-0.03785,0.057676,0.2521,-0.009079
0.31851,0.20261,0.28724,0.07002,0.046897,0.056971,-0.021777,-0.023464
-0.23441,0.18219,-0.046277,0.099341,0.033421,-0.038848,0.0015772,0.26645
0.044404,-0.24155,0.41895,0.085227,-0.039707,0.0040753,-0.0068246,-0.31094
0.44908,-0.093078,0.030317,-0.091232,-0.01715,0.029251,-0.047808,0.057338
-0.42977,0.18879,-0.038832,0.074794,0.045244,0.044526,0.057654,0.028009
0.16248,0.16508,-0.39885,0.040516,0.0056642,-0.11387,-0.081458,0.077929
-0.15982,-0.361,-0.178,-0.29164,-0.097832,0.062344,0.066042,-0.0038606
0.14814,0.36708,0.25934,0.13751,0.062218,-0.027781,-0.038645,0.0088221
-0.20357,-0.2218,0.27435,-0.11183,-0.053479,-0.00081233,0.011256,-0.0018873
0.22309,0.29407,0.087455,0.49059,0.12558,-0.05934,-0.096084,-0.060233
-0.0073983,-0.60814,-0.15832,-0.61742,-0.15006,0.15637,0.1869,0.08306
-0.21208,0.018212,-0.037159,-0.012497,-0.012467,-0.041086,-0.053288,-0.11151
0.15226,0.66713,-0.45709,0.52638,0.17978,-0.08933,-0.058451,0.012278
-0.08177,-0.39381,-0.081674,-0.24034,-0.064786,0.089429,0.054384,-0.060799
0.035345,0.0089895,0.46664,0.033607,0.012168,-0.005229,0.019577,0.10749
-0.19629,0.0016154,0.20753,-0.040346,-0.057798,-0.053371,-0.061425,0.0024165
0.2407,0.12342,-0.080761,0.023467,0.030096,-0.00053137,-0.032496,-0.047098
0.10412,-0.26678,-0.26052,-0.29018,-0.091418,0.043936,0.075066,0.0063786
0.18906,0.50164,0.4227,0.36192,0.093073,-0.052493,-0.035551,0.17865
-0.24982,-0.19798,-0.23053,-0.0059345,0.0051269,0.046637,0.026454,-0.12423
-0.07587,-0.26574,-0.29552,-0.044168,-0.019716,-0.056466,-0.05899,-0.074616
-0.050919,0.11733,0.10456,0.026189,-0.013166,-0.02523,-0.010398,-0.04813
-0.16282,-0.057318,0.0017011,-0.22678,0.016464,0.1252,0.10205,0.087466
0.23433,-0.04762,-0.088874,0.14824,0.0061716,-0.042502,-0.026343,0.097412
-0.21244,0.092149,0.35464,0.07981,0.010183,-0.012875,-0.028633,-0.041827
0.25423,0.20642,0.14195,-0.088563,-0.010929,0.033847,0.040073,-0.064399
0.087786,-0.22756,-0.20712,-0.028127,-0.033953,-0.075055,-0.047358,-0.016676
0.16408,0.14223,-0.19655,0.028126,0.026998,-0.043731,-0.057193,-0.023003
-0.32039,-0.098119,0.099662,-0.12886,-0.01544,0.1502,0.11151,-0.051516
-0.15324,0.020022,-0.079066,0.22171,0.018721,-0.017608,-0.033952,0.11687
-0.028164,0.066685,0.50025,-0.058915,-0.0029043,-0.055601,-0.0017232,-0.041402
0.087802,-0.036505,-0.7013,0.015043,-0.0016873,-0.0030525,0.0049714,0.090133
0.19638,-0.19584,0.13036,-0.12599,-0.031795,-0.0081439,-0.0058917,0.072749
0.08043,0.17488,-0.01009,0.07268,0.055698,-0.0076634,-0.018269,-0.079458
0.093026,-0.033092,-0.010515,0.11045,-0.0044081,-0.016175,-0.0080967,-0.063266
-0.1863,0.087435,0.26417,-0.01373,-0.008649,-0.0090054,-0.029319,-0.020309
-0.17023,-0.040537,-0.067637,-0.08229,-0.011459,0.02285,0.043815,0.072647
-0.22464,-0.15801,0.43152,-0.025949,-0.02048,0.095967,0.06351,-0.033626
0.27653,0.29077,-0.16138,-0.032834,0.019058,-0.023471,-0.024486,-0.087421
-0.017849,-0.16994,-0.50425,0.13914,0.029014,0.00058614,-0.024684,-0.070756
0.063519,-0.039723,0.14367,-0.13463,-0.068881,-0.11342,-0.069984,0.042362
0.049933,-0.13119,-0.10103,-0.087815,0.0063223,0.040163,0.042421,0.1057
-0.069813,0.17214,0.15292,0.030335,0.0041428,0.023035,0.038606,0.10498
