9.9156e-05,0.01258,-0.071044,0.015454,-0.0082956,-0.0039123,0.014044,0.00066175
0.0076741,-0.0071127,0.096951,0.072162,-0.00035654,-0.0031353,-0.016822,0.0010278
0.03052,0.074581,0.54143,-0.086612,0.032017,0.0056872,-0.0010153,0.0011595
-0.0091609,-0.08649,-0.28169,0.10862,-0.0051137,0.006748,-0.0010166,-0.0067899
0.0062333,0.024966,0.012197,0.12508,0.020712,-0.0079669,-0.0011464,0.0084467
-0.0088203,0.11968,-0.22326,-0.23444,-0.039384,0.0004276,-0.0013177,6.4833e-05
-0.038378,-0.21645,-0.53143,0.13762,-0.0061474,-0.0072432,0.0063868,-0.0083822
0.02707,0.079212,0.32774,-0.19753,-0.0049068,-0.0075619,-0.0013683,-0.0089401
0.038979,-0.0086856,0.29986,0.033109,0.01106,0.0073633,-0.0088816,0.0063436
-0.049906,-0.011082,0.098254,0.087875,0.010552,0.014258,0.015127,0.0063263
0.01761,0.0019605,-0.28894,-0.14123,-0.01401,-0.017915,-0.0074938,0.0066799
0.037621,0.077424,-0.045004,0.066452,-0.023205,-0.0030023,0.0012925,-0.00043616
0.032749,0.082433,0.18538,0.08007,0.022422,0.012292,0.0022879,0.0005006
-0.075831,-0.12382,-0.063922,0.026233,0.021654,-0.0031936,0.0031427,-0.0062923
-0.030746,0.04442,0.30185,-0.016036,-0.0018589,0.013024,-0.0041144,0.0024419
0.011675,-0.076958,-0.35074,0.023609,-0.001195,-0.0094894,-0.0039826,-0.0047129
-0.0029328,-0.050257,-0.086167,-0.097794,-0.015543,0.0071942,0.0034748,-0.0044373
0.035492,0.085935,0.46776,0.15747,0.025151,-0.015282,-0.0051663,0.0032218
0.018526,-0.042702,-0.52,-0.12623,-0.027875,0.016621,0.0014353,0.0026725
0.033188,0.072385,0.5107,0.026233,0.0047499,-0.0066101,-3.546e-06,0.0096452
-0.091333,-0.05257,-0.36327,-0.097032,0.0055981,-0.00688,-0.0014794,-0.014764
0.020865,-0.0032047,-0.25891,-0.011981,-0.017637,0.000276,0.0050133,0.0077502
-0.01241,0.025045,0.15351,0.086395,0.013185,-0.0162,-0.0038022,-0.0085777
0.027831,0.086293,0.36106,0.019252,-0.011176,0.0064423,0.0034243,-0.0011209
-0.014857,-0.031347,-0.17202,-0.016968,0.011055,0.013761,0.0032802,0.0067382
0.015144,-0.13373,0.088739,0.017965,-0.0058169,-0.0018779,-0.0042847,-0.00065747
0.030903,0.13737,-0.1978,0.031272,0.024362,0.0064592,0.011871,0.015636
-0.0078624,-0.086203,0.17299,-0.015479,0.0001886,0.0074437,-0.010893,-0.007066
-0.016458,-0.023781,-0.25187,-0.020505,-0.0079409,0.00087257,0.0054112,0.0013347
0.043128,-0.011429,-0.12213,-0.062117,-0.031267,-0.013533,-0.0096333,-0.014046
-0.032885,0.10744,0.37996,-0.0080334,0.0161,0.0030024,-0.0092062,0.0013446
-0.057124,-0.010179,0.31344,0.06283,0.0090705,0.0033797,-0.001121,0.00059256
-0.044793,-0.027323,-0.19254,0.11827,0.0022184,-0.020319,0.014662,-0.0006088
0.075291,-0.0052896,-0.00050928,-0.17083,-0.0045808,0.0022581,0.0069494,0.0057188
-0.047319,0.018085,-0.44832,0.0149,-0.011455,0.00097243,-0.00077135,-0.0036302
0.033788,-0.034216,-0.09087,0.057535,0.0049076,-0.0004727,-0.00066384,-0.0049646
0.092882,0.010518,0.25306,0.011288,0.020953,0.013841,-0.0083621,0.0019422
-0.025891,-0.081667,-0.25744,-0.053661,-0.018107,0.0051057,-0.0004669,0.025058
-0.010123,-0.029648,0.295,-0.027719,-0.0029699,-0.010896,-0.0082841,-0.029313
-0.024374,0.07991,-0.047563,0.066225,0.011645,0.012748,0.015004,0.0028334
0.0009313,0.20666,0.81055,-0.091334,-0.013301,-0.0021717,-0.00095898,0.011962
-0.059961,-0.0026218,-0.54412,0.16464,0.016034,-0.001138,0.0063139,-0.0021576
0.12049,-0.034033,-0.09652,-0.039806,0.021692,0.0078283,-0.0022137,0.014905
-0.15331,-0.23274,-0.26198,-0.047434,-0.035156,-0.02234,-0.010846,-0.0073923
0.032752,-0.083879,0.028355,-0.037071,-0.029228,-0.01365,-0.011659,-0.022329
0.022737,0.13916,-0.15652,-0.10186,0.0085118,0.010405,0.0032928,0.0012964
0.020231,-0.078412,0.36197,0.15691,0.03143,0.0029691,0.0107,0.0088633
0.10381,0.17108,-0.47203,-0.034359,0.00060226,0.010981,0.0028459,-0.015095
-0.10119,-0.0013539,0.58213,0.0034182,-0.0058563,0.0032669,0.011017,0.0077514
-0.032154,-0.039503,-0.094844,0.081753,0.0197,0.0033212,-0.0038806,-0.00052439
0.037406,0.026531,0.16639,0.027564,-0.0011557,0.0033546,-0.018502,0.030528
0.013515,0.088028,0.20715,-0.01971,-0.029741,-0.012267,0.021709,-0.00060438
0.028694,-0.12047,-0.18496,-0.060965,0.027312,-0.0045069,-0.0083855,-0.0080301
-0.034503,-0.021067,-0.39234,-0.14348,-0.017807,0.0031729,0.00047729,-0.0074896
-0.051225,-0.10644,-0.15428,-0.063991,-0.032464,-0.012673,-0.014272,-0.022569
0.0019684,0.044598,0.073677,0.17812,0.030188,0.010468,-0.0057784,0.0012773
0.015846,0.017159,-0.45126,-0.025682,-0.0094278,0.0023091,0.0025353,0.0092526
0.084389,0.20089,0.70824,0.12222,0.020773,0.0019349,0.018506,0.0091055
-0.081228,-0.12404,0.19919,-0.0027475,0.011665,0.0015391,0.0030773,-0.0069985
-0.04334,0.041203,0.095506,0.013452,-0.028705,-0.0067124,-0.004721,0.01564
0.018405,-0.023176,-0.47805,-0.20463,0.001403,0.0083828,0.0028521,-0.0010651
0.22111,0.041401,0.23981,0.10791,0.023965,0.015513,0.010079,0.021079
-0.22443,-0.27324,-0.032174,0.005034,-0.023499,-0.032255,-0.014369,-0.050641
0.072298,0.095556,-0.24159,0.0096744,0.015222,-0.0021362,-0.015837,-0.0051541
0.041031,0.2032,0.42911,0.027996,0.0072407,0.027764,0.013537,0.024888
-0.10698,-0.089773,-0.099527,-0.087995,-0.031898,-0.012789,-0.012043,-0.0072191
0.003869,0.085339,0.12742,-0.0092057,0.0071242,0.0013386,0.0092057,0.015863
0.0071837,-0.14479,-0.52449,0.031357,0.0070953,-0.0078008,0.0072433,0.00049117
-0.018092,0.11996,0.22927,0.058674,-0.0085345,-0.00095259,0.0057875,-0.0064205
0.0067441,-0.10328,-0.35363,-0.0039454,0.038398,-0.0013804,-0.010546,0.0029078
0.05051,0.069421,0.089071,-0.077356,-0.031748,0.0066594,-0.0025356,-0.0028748
0.026627,-0.28329,0.02213,-0.083091,-0.00018175,0.0075748,-0.0092012,-0.0082985
-0.027263,0.11954,0.11195,0.18927,0.023738,0.0012957,0.0084298,0.0020679
0.042992,0.18289,0.47442,-0.042923,-0.053759,-0.0045364,0.011072,-0.011056
0.00052608,0.14672,-0.25627,-0.024061,0.017263,-0.002359,-0.0016094,0.014602
-0.024317,-0.11691,-0.013861,0.1963,0.041375,0.0075375,0.0090459,0.0006887
-0.064757,0.029417,0.40384,-0.34553,-0.036266,-0.022005,-0.019872,0.0016817
-0.028062,-0.175,-0.24903,0.32467,0.018544,0.0025376,-0.0027734,0.0017916
0.18759,0.096071,-0.14051,-0.12266,0.049408,0.04197,0.028875,0.047806
-0.13484,0.099971,0.055865,-0.1956,-0.060935,-0.028715,-0.010904,-0.063373
-0.000144,-0.47461,-0.46185,0.11474,-0.00775,-0.029707,-0.036009,-0.042518
-0.0058121,0.14842,-0.005704,-0.033163,-0.0017875,0.039236,0.024222,0.055992
0.047985,0.18364,0.17235,0.012125,-0.011484,-0.0090555,0.0062081,0.029457
-0.15481,0.14278,-0.12861,-0.043038,0.010416,-0.0023421,-0.019205,-0.020069
-0.04068,-0.11919,0.23624,0.22609,0.0017781,-0.01841,-0.0046626,-0.037422
-0.06914,0.071934,0.15337,-0.092521,0.040979,0.013302,0.011101,-0.0065938
0.3371,-0.15021,-0.29045,0.048842,-0.0047254,0.0069549,0.020373,0.025747
0.12019,0.041806,0.65111,-0.13144,-0.026109,0.0015313,0.0073673,0.0127
0.10318,0.2007,-0.37448,0.083932,0.007728,0.012389,0.0029315,0.032107
-0.18098,-0.32477,0.10372,-0.096249,-0.0052652,-0.023393,-0.016938,-0.025915
0.043057,0.24358,-0.23565,0.052165,-0.0031205,0.010862,0.0018255,-0.0057795
-0.33074,-0.050057,0.26141,-0.035515,0.0058816,0.013078,-0.0038243,0.0058744
-0.22637,-0.035653,0.14052,0.17044,0.021437,-0.0015389,-0.010817,-0.0072004
0.13025,-0.088884,-0.56545,0.044489,-0.019018,-0.025415,-0.019271,-0.045438
0.062576,-0.013883,-0.21026,-0.25647,-0.013709,-0.0038613,0.0022073,0.00035942
0.46609,0.011248,0.22377,-0.019767,0.0065869,0.0165,0.030545,0.067791
-0.11468,0.019952,-0.15634,-0.063159,-0.019964,-0.010729,0.0037455,-0.014663
-0.18256,0.11606,0.30517,0.20211,0.024568,0.016633,0.016103,0.011362
-0.13247,-0.15174,0.17027,-0.15904,-0.046647,-0.041388,-0.041273,-0.040955
-0.10355,0.24093,-0.094689,0.19062,0.071528,0.026706,-0.0039719,0.00098301
0.42691,0.020537,0.13767,-0.13984,-0.03486,0.018151,0.034416,0.044108
-0.036024,-0.22026,0.40533,-0.058804,-0.0067237,-0.0044737,-0.019901,-0.043839
-0.0042854,-0.069199,-0.65518,0.28934,0.030269,-0.010141,0.0047227,-0.012509
0.033134,0.12003,-0.041958,0.41545,0.067367,0.03191,0.037609,0.052235
-0.25599,-0.029582,0.16835,-0.37278,-0.029275,-0.0118,-0.054489,-0.076411
0.25067,0.33986,0.04862,-0.53228,-0.088708,-0.0013583,0.024886,0.077556
-0.33038,-0.34265,-0.27928,0.20067,-0.0021808,-0.031135,-0.0058439,0.036744
-0.41179,-0.10812,-0.081414,-0.25156,-0.027708,-0.0156,-0.029671,-0.16079
0.45484,-0.23672,0.097474,0.39512,0.077147,0.029503,0.02371,0.16362
0.21102,0.46859,0.34747,0.090663,0.016141,0.018421,0.013837,-0.014341
0.13418,0.025407,0.19721,-0.1438,-0.05361,-0.032774,-0.012121,-0.046778
-0.006882,-0.11127,-0.44962,0.087764,0.025068,0.024976,0.024334,0.1053
-0.32739,0.10696,-0.38562,0.16477,0.0029826,-0.042024,-0.032656,-0.25299
0.49362,0.017097,0.087212,-0.30056,-0.033366,0.024654,-0.010874,0.066797
-0.51299,-0.012993,0.70393,-0.018194,0.017837,0.01452,0.011798,0.0033852
0.050137,-0.23292,-0.067892,0.27664,0.1253,0.0059167,0.0042106,0.058086
-0.209,-0.13468,0.20679,-0.36374,-0.10966,0.014437,0.020993,0.075769
0.33306,0.21139,0.18144,0.22131,0.062629,0.024213,0.03069,0.05717
-0.29414,0.10952,-0.63045,0.36388,-0.069031,-0.043254,-0.037319,-0.052138
0.34492,-0.089778,-0.85456,-0.49443,-0.1063,-0.039945,-0.019327,0.013288
0.13066,0.025628,0.11928,-0.01289,0.029016,-0.036558,-0.040664,-0.19237
-0.424,-0.28925,0.034849,-0.19348,0.024606,0.044724,0.046846,0.025501
0.52975,0.4777,0.94803,0.63484,0.13062,0.016172,0.0086681,0.0098537
-0.25265,0.064913,0.21765,-0.59021,0.018924,0.096369,0.02444,0.041081
0.055576,0.13314,0.067225,0.34329,-0.068552,-0.042927,0.00045708,0.024519
-0.33459,-0.49939,-0.45397,-0.17265,-0.085434,-0.10492,-0.070963,0.24047
0.1098,-0.0047779,0.56142,0.37125,0.12386,0.058832,0.044742,-0.093214
-0.21747,-0.045066,-0.68199,-0.2503,-0.074206,0.0030742,-0.0037689,-0.32098
0.29707,-0.17086,-0.57108,-0.059782,-0.023986,-0.022031,-0.020963,0.002185
-0.068941,0.17803,0.26862,-0.0097522,0.039728,0.030624,0.032412,0.4234
0.047349,0.093406,-0.19071,-0.19376,-0.070715,-0.010557,-0.0075802,-0.18925
0.36678,0.29137,0.80789,0.24739,0.082308,-0.0046688,0.023182,-0.053021
-0.29773,-0.15427,0.078211,0.10225,0.014786,-0.0061579,-0.031563,-0.08785
0.18544,0.19531,-0.52641,0.018483,0.031961,0.032017,0.0078124,-0.065075
-0.31878,-0.0044833,0.42415,-0.059485,-0.013924,-0.0072599,0.00059749,0.16562
-0.1334,-0.63129,-0.49433,-0.062161,-0.13776,-0.053705,-0.045484,-0.042977
0.41105,0.35017,-0.045937,-0.31039,0.020525,0.064439,0.05699,0.10629
-0.26523,-0.0096202,-0.10067,0.49264,0.039638,-0.051445,-0.012359,-0.05936
-0.022216,-0.2851,0.27982,-0.29329,0.076176,0.074992,0.01204,0.028412
0.1639,0.41855,0.77288,-0.0813,-0.072937,-0.064265,-0.0183,-0.0081717
-0.34636,-0.018741,0.14032,0.47365,0.10766,0.0071828,-0.0018548,0.023149
0.31571,-0.10675,-0.35527,-0.18939,0.031521,0.031431,0.014475,0.096213
-0.028089,-0.096388,-0.89347,-0.35782,-0.21607,-0.054033,-0.016192,-0.18923
0.49059,0.40333,0.054259,0.43875,0.083008,0.024288,0.015538,0.0022796
-0.31505,-0.082387,-0.32143,-0.25916,0.0064119,0.00087436,0.00033621,-0.031405
-0.54634,0.051252,0.51148,0.26832,0.053903,0.024279,-0.022671,-0.20209
0.16379,-0.76935,-0.020661,-0.48612,-0.063574,-0.014782,-0.0065345,0.13388
0.096123,-0.023263,0.58795,0.28188,-0.080194,-0.038137,0.017558,0.22965
0.14832,0.44322,-0.40824,-0.3353,0.12934,0.071392,0.03402,0.10339
0.29577,0.439,0.5542,0.64421,0.018439,-0.02999,-0.027461,-0.2122
-0.44744,-0.35408,-0.73961,-0.21278,-0.0064279,0.0092217,-0.010672,0.072099
0.080916,0.032227,-0.064528,-0.15251,-0.015472,-0.0063169,0.014007,0.0098807
-0.058619,-0.22566,0.38586,0.31333,-0.047742,-0.053151,-0.031627,-0.08048
0.24938,0.67924,0.14118,0.22103,0.052996,0.040668,0.047659,0.079971
-0.097932,-0.36921,0.45609,-0.56309,-0.096057,-0.021617,-0.029448,-0.17496
-0.069883,0.044241,-1.0003,0.16574,0.13799,0.056988,0.0026388,0.043772
-0.11147,-0.27312,0.40428,-0.65084,-0.096279,-0.012501,0.018902,0.063533
0.028494,-0.25369,-0.84319,0.02438,-0.072125,-0.06602,-0.02753,-0.053137
0.24255,0.60275,0.4198,0.48706,0.14809,0.044764,0.0039816,0.061654
-0.19354,-0.46643,0.42915,0.13351,-0.013752,0.054024,0.027508,0.0027448
0.027251,0.10612,-0.29603,0.27969,-0.042177,-0.046333,-0.019461,0.044744
-0.17909,-0.11164,0.42815,-0.35521,-0.085977,-0.022244,-0.019782,-0.10044
0.2589,0.17398,-0.3476,0.60913,0.11216,-0.022447,0.018649,0.028712
-0.23671,-0.17513,0.52021,-0.18346,0.15324,0.023143,-0.021481,-0.020837
0.41138,0.62989,0.017919,-0.16803,-0.13509,0.051901,0.062808,0.13337
0.021974,0.023645,-0.46225,-1.0056,-0.089023,0.0013475,-0.025494,-0.14217
-0.11763,0.040505,-0.19174,0.21493,-0.028832,-0.034593,-0.0052136,0.089266
-0.38385,-0.49642,0.14504,0.26583,-0.0010091,-0.032146,-0.0013146,0.13173
0.15247,0.096678,-0.18197,0.40548,0.073198,0.016977,-0.01361,-0.24159
0.1092,-0.40772,-0.019075,0.2211,0.022629,-0.027284,-0.026126,-0.061693
0.15226,0.23498,0.79522,-0.47369,-0.034906,0.070027,0.047556,0.094077
-0.46566,-0.20414,-0.93045,0.42301,0.08848,-0.049961,-0.05765,-0.085658
0.23483,-0.16303,0.25839,-0.20665,-0.028987,0.034974,0.057197,0.17373
-0.12691,0.40481,0.085996,0.065639,0.042232,0.0046534,-0.013797,-0.05651
0.12957,0.36445,-0.36814,-0.30066,-0.12783,-0.023835,-0.012696,0.013089
0.12811,-0.18008,0.7451,0.27945,0.069955,-0.0039307,0.013471,0.038537
0.045235,0.23077,0.52228,-0.43614,-0.16144,0.0013919,0.025219,0.026801
0.19658,0.099986,-0.21397,0.3976,0.18585,0.015004,-0.0093227,-0.062396
-0.1028,-0.28267,-0.42026,-0.099913,-0.020873,0.0050801,-0.0049205,-0.019368
0.10343,-0.081054,-0.55657,-0.097902,-0.078332,-0.02889,0.014337,-0.024719
-0.5234,-0.47342,-0.3736,-0.68001,-0.064684,0.0064618,-0.061391,0.15564
-0.15518,-0.10427,0.0095041,0.8347,0.15258,0.017172,0.033327,-0.1106
-0.0078283,0.27558,0.66671,0.76639,0.10405,0.0032089,-0.013906,-0.14255
0.33005,0.41032,0.19114,-0.63645,-0.14869,-0.035292,-0.030855,-0.040131
0.036631,0.17108,0.012683,0.13961,0.04956,0.01131,0.037676,0.010753
-0.093081,-0.45299,0.4657,-0.54008,-0.14587,-0.0050798,-0.0030968,0.15178
0.35923,-0.15273,-0.52551,0.62089,0.24107,0.048705,0.050373,0.1252
-0.30012,0.42672,-0.42443,-1.1102,-0.1333,0.0089139,-0.0048117,-0.046696
0.32599,0.01356,0.39381,0.85648,0.091229,-0.069544,-0.012391,0.23542
-0.43034,-0.36897,-0.50552,-0.99727,-0.34171,-0.022503,-0.04285,-0.42974
0.47234,0.13679,0.32944,0.49807,0.030733,0.048452,0.0050943,0.16595
-0.18265,0.2781,0.80884,0.86999,0.35116,0.065046,0.037401,0.16103
-0.18913,0.083166,-0.30659,0.15889,-0.0037812,-0.058903,-0.02428,-0.46088
-0.17491,-0.34909,-0.38814,-0.6216,-0.15812,-0.0033904,0.0074439,0.14471
-0.28885,-0.34849,-0.58592,-0.28134,0.075723,-0.018728,-0.047095,-0.12165
0.3147,-0.024876,0.27396,0.49254,-0.14687,-0.066117,-0.0080913,0.1571
0.36585,0.52083,0.37757,-0.33947,0.18031,0.15116,0.077745,0.19509
0.14235,-0.030247,0.19652,-0.0037108,0.03174,0.00025298,0.023071,0.0027872
-0.11722,0.19865,-0.059497,0.17385,-0.14162,-0.057746,-0.015757,-0.011925
-0.20637,-0.23616,-0.27189,-0.49713,-0.18541,-0.085025,-0.069947,-0.098656
0.00988,0.041629,0.26514,0.56949,0.29753,0.1142,0.047991,-0.00035777
-0.32707,-0.38125,-0.69595,-0.24053,0.080151,-0.06889,-0.036985,0.02357
0.10251,0.12837,-0.11534,0.069949,-0.20436,-0.039957,-0.0046171,-0.03665
0.40619,0.33608,0.64521,-0.01659,0.03107,0.099907,0.043479,-0.096989
-0.075064,-0.26629,-0.0065657,-0.5334,-0.19625,-0.00058956,-0.0099404,-0.041774
0.11633,0.20358,0.6532,1.0008,0.16243,0.010116,0.014755,0.096805
-0.15587,0.19049,0.298,-0.0045514,0.1478,-0.024512,0.00031639,0.31061
0.035134,-0.063719,-0.90076,-0.53284,-0.098439,0.019999,0.0013732,-0.31418
-0.3985,-0.65286,-0.53759,-0.037766,-0.021406,-0.11486,-0.083691,-0.073784
0.10509,0.23571,-0.42431,0.18185,-0.0046316,0.038881,0.041944,0.15772
0.062101,-0.038546,0.83284,-0.2204,0.051948,0.035161,0.011023,-0.048317
0.2396,0.18804,0.13817,-0.23947,-0.0020283,0.045197,0.034382,0.12158
-0.055864,0.086032,-0.30487,0.95809,0.20657,0.013821,0.0025065,-0.15998
-0.025688,-0.14388,0.4273,-0.26229,-0.26886,-0.059187,-0.030077,-0.04104
-0.035768,0.47927,0.45408,-0.6906,0.071401,0.084091,0.045863,0.025176
-0.038531,0.006409,-0.85531,0.095102,-0.23261,-0.11056,-0.06662,0.038074
0.075596,-0.22971,0.031951,0.64264,0.12592,-0.040766,-0.015911,0.074723
0.36128,-0.31652,-0.039227,-0.34325,-0.045375,0.028917,0.049758,0.047827
-0.52514,-0.36238,0.38522,-0.36057,-0.087164,-0.0097436,-0.017695,0.065372
-0.059672,0.44912,-0.24054,0.55369,0.30781,0.078643,0.024386,0.001275
0.17288,0.093201,0.21774,-0.32516,-0.069969,0.013526,-0.026604,-0.3793
-0.13833,0.21865,0.2621,0.84819,0.37323,0.052977,0.0095238,0.064638
0.21176,-0.58008,-0.7298,-1.0579,-0.45782,-0.076642,0.0081748,0.006106
-0.1892,0.22001,-0.059518,0.51234,0.0046289,-0.079034,-0.053836,0.15776
0.24579,-0.024582,0.088605,-0.61243,-0.055021,0.12312,0.096986,0.11524
-0.03783,0.37512,0.4671,0.16196,-0.046064,-0.088218,-0.062952,-0.11981
-0.095752,0.1043,-0.11027,0.8197,0.39621,0.012753,-0.0027493,-0.038535
0.13257,-0.32733,-0.10498,-0.79641,-0.37042,0.0036068,0.027096,0.04688
0.1211,-0.05333,0.26956,0.42108,0.10654,0.016837,0.026002,0.12038
-0.46109,-0.01339,-0.23289,-0.34327,-0.0085753,0.013273,-0.045681,-0.10025
0.094398,0.16539,-0.23451,0.16459,-0.23052,-0.061744,-0.008784,-0.069376
0.059042,-0.19732,0.54106,0.61229,0.50433,0.065301,0.0034843,-0.038199
0.19727,0.11129,0.18377,-0.50436,-0.22486,-0.00399,0.014311,0.078259
-0.061633,-0.075643,-0.8004,-0.88426,-0.15181,-0.02749,-0.015478,-0.025296
-0.19397,-0.17167,-0.17652,0.67322,-0.14356,-0.06787,-0.015578,-0.06789
0.1292,0.084469,0.62077,0.53412,0.61989,0.14806,0.029697,-0.010532
-0.14567,0.0031653,-0.76341,-0.66831,-0.24479,-0.020542,-0.01237,0.045203
0.59997,0.66183,0.90259,0.98978,0.090164,0.019986,0.10835,0.30237
-0.52301,-0.46321,-0.31429,-1.0428,-0.24219,-0.019209,-0.076709,-0.1454
0.11187,-0.10686,0.25284,0.36379,-0.12352,-0.098483,-0.012569,-0.056026
-0.40022,-0.17687,-0.05164,-0.62052,-0.14542,-0.084064,-0.073801,-0.023133
0.37161,0.081594,-0.10429,0.52626,0.35913,0.11121,0.044853,-0.21814
0.10004,0.20275,0.013525,0.28687,0.018405,0.0433,0.031556,0.086374
-0.14444,0.054602,0.15709,0.12751,0.077556,-0.028991,-0.019289,0.032141
-0.026412,-0.23147,-0.60731,-0.57317,-0.39112,-0.050502,-0.029053,0.081238
0.046636,-0.14336,0.1155,0.17861,0.11292,0.0097674,0.002504,0.047033
0.22922,0.67307,0.31567,-0.27413,0.39326,0.21332,0.10652,0.047078
-0.050878,-0.3431,0.023619,0.19832,-0.13088,-0.089861,-0.037793,-0.051663
-0.18588,-0.0030088,-0.33864,0.11426,-0.049175,0.028058,0.021947,-0.015553
-0.11419,-0.046765,0.67493,0.42008,0.063884,-0.13775,-0.074519,-0.025322
-0.015437,-0.35359,-0.55203,-0.55574,-0.20179,-0.025969,0.0079126,-0.042979
0.12708,0.15246,-0.15163,0.23436,-0.20841,-0.035379,-0.028248,-0.061568
0.01057,0.2137,0.5327,0.19879,0.316,0.10017,0.051094,0.082487
-0.12048,0.27768,-0.31148,-0.41575,-0.19886,-0.039937,-0.011788,0.045362
0.35341,-0.13595,0.30795,0.30446,0.19353,-0.032112,-0.021164,-0.063301
-0.097191,-0.10796,-0.38226,-0.88813,-0.075232,0.078493,0.0079707,0.053843
-0.20553,-0.69526,0.13423,0.48756,0.098479,0.035435,0.037259,-0.0089404
0.044251,0.31821,0.26525,-0.42258,-0.057058,0.034755,-0.042051,-0.087174
-0.051569,0.32688,-0.21329,0.62818,-0.025189,-0.064202,0.0048273,0.077176
0.15411,0.37948,-0.25137,0.4783,-0.055664,-0.027793,0.045206,0.15599
0.010967,-0.15731,-0.14256,0.3465,0.20267,-0.013495,-0.038288,-0.23373
-0.24095,-0.028346,-0.071707,-0.65241,0.085028,0.11007,0.042964,0.05618
0.20089,-0.35508,0.50924,-0.19389,-0.15143,-0.088092,-0.024143,0.017677
0.061261,-0.12683,0.12272,-0.20313,-0.30372,-0.069875,-0.013671,-0.013407
0.15927,0.20639,-0.00020272,-0.25993,0.16007,0.078401,-0.012074,0.064599
-0.27889,0.055028,0.26021,0.90221,0.20234,-0.018049,0.011607,-0.013597
-0.16675,0.21397,-0.75059,-0.8851,-0.40918,-0.045974,-0.020769,-0.09124
-0.0030244,-0.16071,0.59469,-0.1008,0.41373,0.1598,0.039494,-0.0037075
-0.051653,0.15912,-0.40275,0.66754,-0.092608,-0.11822,-0.025887,0.0072581
0.34525,-0.51113,0.10051,0.073894,-0.26302,-0.089855,-0.028834,0.019932
0.27471,-0.15231,-0.17353,0.40323,0.37899,0.1207,0.046836,0.057459
-0.49746,0.1765,-0.12472,-0.52296,0.019521,0.013753,-0.00157,-0.06064
0.082682,0.59488,0.013128,-0.018666,-0.086149,0.026574,0.0058554,0.14881
0.021449,-0.45879,-0.26707,-0.20487,-0.12883,-0.060301,-0.024655,-0.1359
0.15297,0.85072,0.62746,-0.10263,0.036367,0.064584,0.055108,0.36525
-0.024344,-0.28317,0.5284,-0.18707,-0.054721,-0.021792,-0.0052191,-0.48905
-0.034732,-0.72978,-0.36953,0.44933,-0.11547,-0.093876,-0.065409,-0.00341
-0.034141,0.29861,0.24166,0.62867,0.2981,0.11327,0.053894,0.088825
-0.33354,-0.16653,-1.0283,-0.41167,-0.13445,-0.15842,-0.092829,-0.054331
0.046117,0.040938,0.45259,0.27853,0.072367,0.028705,0.049049,0.26458
0.20149,-0.12237,0.46531,-0.80891,0.022235,0.057884,0.0030031,-0.25714
-0.0054703,-0.10564,-0.22256,-0.59352,-0.086604,0.031227,0.0034718,0.014655
0.090847,0.10208,-0.57457,0.76546,-0.13359,0.0038998,-0.019844,-0.091662
0.24834,0.3926,0.02738,0.53237,0.205,0.10121,0.11266,0.32138
-0.17506,0.61604,0.26691,-0.51231,-0.20068,-0.090763,-0.036686,0.17367
0.0055917,-0.19252,0.18897,0.067522,-0.10631,-0.056379,-0.014942,0.10326
-0.2049,-0.59342,0.2609,0.45638,0.48123,0.048167,-0.033148,-0.5485
0.058006,-0.17864,-0.34778,-0.32738,-0.14937,-0.081629,-0.052163,-0.064412
0.15993,-0.0078781,-0.10244,-0.072211,0.094067,0.054607,0.053321,0.024057
-0.35237,-0.24814,-0.080596,-0.029297,-0.1971,-0.1051,-0.067747,-0.0084274
0.014607,0.42824,0.19987,-0.24793,-0.041147,0.14293,0.069624,0.13735
0.20072,-0.02383,0.30463,0.16728,0.036112,0.017927,0.012884,0.026671
-0.15068,0.49275,-0.1552,0.37724,0.048682,-0.058024,-0.018829,0.029196
0.22059,-0.32267,-0.16231,-0.01937,-0.16815,0.024359,0.021454,0.060473
-0.027894,-0.21626,0.42698,-0.48585,0.08124,0.022472,0.024125,0.011279
0.32265,-0.075722,-0.25664,0.17132,0.071254,0.0059593,0.0043,0.20076
-0.29935,0.21774,-0.37596,-0.10379,-0.11874,-0.049413,-0.015255,-0.091947
-0.14604,0.023494,-0.57487,0.023749,0.16077,-0.066321,-0.082103,-0.36151
0.045809,-0.15218,0.47393,0.33423,0.0040307,0.0014175,-0.0014959,-0.1336
0.0084783,0.14102,0.21572,-0.08756,-0.12822,0.067339,0.038713,0.1527
