-0.099734,-0.095833,-0.095984,-0.022903,0.0044785,0.0022422,0.016478,0.24923
0.019133,-0.081593,-0.13482,0.39827,0.037192,-0.020848,-0.015632,-0.27748
0.13501,0.12923,0.42902,-0.35098,-0.04744,0.010586,0.015185,0.024095
0.31956,0.34036,-0.0069488,-0.084223,-0.031058,-0.005125,0.007327,-0.033055
-0.36445,-0.42586,-0.039341,0.017895,0.023566,-0.0055265,0.0075648,0.04377
-0.11328,-0.014164,0.24977,0.10318,0.0069701,0.0093913,-0.031128,0.075224
0.21933,-0.16728,-0.78413,-0.023833,-0.018235,0.00061861,0.00045476,0.061319
0.21631,0.38042,0.090585,0.0043183,-0.0048991,0.0072922,0.0084086,-0.18586
-0.26632,-0.057995,-0.13491,-0.030487,0.00046664,-0.0095733,0.00043147,0.028142
0.080934,0.010743,0.134,0.0053291,0.0060319,-0.003035,-9.5389e-05,0.053766
-0.14234,-0.30263,0.20432,0.018714,0.035499,0.003525,0.0068383,0.22577
0.22755,0.1908,0.6807,0.0022996,0.010859,0.025782,0.013497,-0.034858
-0.10481,0.21883,-0.48069,0.0030449,0.0102,0.0012907,-0.011231,-0.2284
-0.22214,-0.27238,-0.31651,-0.041833,-0.068198,-0.038627,-0.020289,-0.1043
-0.088743,0.11588,-0.16129,0.04681,0.0020226,-0.015759,-0.0056651,-0.036126
0.13614,-0.085483,0.11021,0.40117,0.04099,-0.0081424,-0.006237,0.14227
0.23011,0.13821,0.70017,-0.40108,-0.013908,0.046784,0.040622,0.058197
-0.21838,-0.22232,-0.57304,-0.21946,-0.037687,0.0083951,-0.0056767,-0.0050999
0.22835,0.22178,-0.1184,-0.04588,0.0087701,0.017232,0.026668,0.086348
0.083554,-0.18765,0.014161,0.0029581,-0.0072576,-0.051873,-0.050021,-0.05812
-0.15727,0.36019,0.63422,0.42753,0.078364,0.019604,-0.0094315,-0.1664
0.14852,-0.33134,-0.36203,0.024854,0.0078417,-0.0029511,0.015339,0.1731
0.12011,0.159,0.039907,-0.2367,-0.062621,0.0052641,0.03184,0.082194
-0.4034,-0.29364,-0.65183,0.40761,-0.0081127,-0.01055,-0.022631,-0.1456
-0.22911,0.13199,0.41617,-0.41835,0.015028,0.0042982,0.00026513,0.14314
0.14323,0.085949,0.30954,-0.13752,-0.016688,0.0030578,0.022429,-0.022083
0.14611,0.10932,-0.077217,0.12451,0.02957,-0.014045,-0.049738,-0.16494
-0.18462,-0.15513,-0.30259,-0.077523,-0.025795,0.00015264,-0.020668,-0.1903
0.35169,-0.017888,-0.058486,0.17121,0.0048687,0.0068867,0.039645,0.14683
-0.02138,0.30389,0.18073,0.075157,0.043618,0.02985,0.045585,0.084444
-0.097317,-0.34497,0.29852,0.073446,-0.01874,-0.016728,-0.0025766,0.016893
0.031456,0.012541,0.12196,-0.39473,-0.064876,-0.015604,-0.057783,0.040971
0.012553,-0.076963,-0.42175,0.21115,0.04591,-0.005904,-0.01059,-0.075926
0.11681,0.2215,0.07015,-0.06877,0.0089134,0.020017,0.037399,0.12736
-0.14381,-0.031221,-0.16416,0.38317,0.019329,-0.00058708,0.00011544,0.11832
-0.08564,0.12362,-0.13649,-0.40977,-0.024621,0.0023112,0.017986,-0.042803
0.038146,-0.22279,0.008864,-0.12815,-0.013847,-0.010636,-0.010775,-0.16336
-0.10244,-0.05739,0.52653,0.25,0.020084,-0.0084247,-0.023885,-0.12849
0.093936,0.19572,-0.1407,0.097692,-0.0012469,0.016582,-0.0058938,-0.064681
0.1442,0.19912,0.091371,-0.14981,0.031311,0.01742,0.019639,0.15266
-0.16791,-0.21953,-0.16069,0.09122,-0.077669,-0.052783,-0.017671,0.071024
-0.24561,-0.16109,0.11177,-0.0013837,-4.7635e-05,-0.0064471,-0.016298,-0.089618
0.35152,-0.17066,-0.27621,0.14157,0.084628,0.062811,0.062787,0.015834
-0.077528,0.051177,-0.085918,-0.33944,-0.04215,-0.0089105,-0.01483,0.028959
0.10098,0.27284,0.071301,0.15809,0.033985,-0.0026968,0.00079948,0.051532
0.16789,0.14526,0.061513,-0.34054,-0.061652,-0.019956,-0.023179,0.11416
-0.15173,-0.12671,0.039805,-0.14539,-0.086591,-0.029298,-0.016455,-0.096968
0.21036,0.14519,0.2071,0.87109,0.19374,0.063148,0.052292,0.21338
-0.52918,-0.023539,0.0045723,0.15636,-0.040861,-0.039386,-0.035533,-0.40154
-0.18441,-0.39927,-0.37129,-0.58505,-0.032613,-0.00088494,-0.021878,-0.0050243
0.18145,0.048223,0.1326,-0.12602,-0.0081812,0.022451,0.015422,-0.034487
0.31063,0.16952,-0.1129,-0.11529,0.016648,-0.0084327,0.0063457,0.081359
0.16473,-0.16116,0.51883,0.24302,-0.044241,-0.0076334,0.021443,0.1488
-0.005342,0.27434,-0.2686,-0.14643,-0.042583,0.0091447,0.0061586,0.021222
-0.24549,-0.11814,-0.029464,0.18309,0.060524,-0.012902,-0.039512,-0.065401
-0.21112,0.16105,0.18298,0.40123,0.06179,-0.0036006,0.0092883,-0.016234
0.21561,0.041357,-0.057552,-0.18162,0.00010542,0.0369,0.019492,0.17694
-0.011745,-0.36016,-0.73733,-0.30921,-0.062195,-0.016535,-0.0092252,-0.2283
-0.025868,-0.020021,0.1599,-0.10714,0.0075769,5.7349e-05,0.016552,0.025103
-0.037943,0.030752,0.46494,-0.082606,-0.032804,-0.022748,-0.0050241,-0.024778
0.068554,0.38625,0.18935,0.20373,0.082379,0.0088056,-0.027265,0.019438
0.073821,-0.16412,-0.23342,0.37965,-0.060704,-0.014606,-0.011171,0.047457
0.32811,-0.13575,-0.3083,-0.45792,0.022674,0.024276,0.012062,0.011739
-0.53712,0.15102,0.45838,0.13156,-0.065502,-0.015108,-0.004299,-0.11931
-0.069893,-0.19472,0.1604,-0.0058681,0.042358,0.015705,0.041481,0.49022
0.26806,-0.048551,-0.24222,-0.033123,0.026244,0.015136,-0.022317,-0.54215
-0.0079791,0.22926,0.085348,-0.020767,-0.043402,0.0065733,0.0075287,-0.083102
-0.39018,-0.018638,-0.24,0.36551,0.13803,-0.017847,-0.017388,0.008632
0.23884,0.0034622,-0.41229,-0.48645,-0.10161,-0.0034515,0.020097,0.24141
0.309,0.0054642,0.69677,0.46679,0.03418,-0.036131,0.010568,0.41239
0.070517,0.15861,0.24079,-0.28611,-0.10347,-0.0063938,-0.022557,-0.30657
-0.04664,-0.48239,-1.016,-0.4435,0.039779,0.054663,-0.0011217,-0.18145
-0.27624,-0.018284,0.34704,0.70356,-0.020725,-0.055942,-0.057845,-0.31433
-0.18743,0.50564,0.17888,-0.17368,0.06643,0.068118,0.049597,0.31768
0.03421,-0.088083,0.083745,0.27713,0.019913,-0.010681,0.0088464,0.15944
0.21932,-0.13287,-0.0097574,-0.46532,-0.0040697,0.012212,0.038755,0.062194
0.10508,-0.13409,-0.37251,-0.4918,-0.075879,-0.011853,-0.016903,-0.021014
-0.25906,-0.27724,0.29107,0.41187,0.023165,-0.028421,-0.025372,-0.30097
-0.0041109,0.62637,0.92239,0.15474,-0.003902,-0.0455,-0.010219,0.058714
0.12831,-0.10274,-0.32686,0.06665,-0.0087349,0.022748,-0.026289,-0.011597
0.4108,0.02683,-0.76414,0.68696,0.063305,0.051335,0.08252,0.16082
-0.33848,0.021322,0.22907,-0.56339,0.016964,0.024774,-0.027637,0.014348
-0.31795,-0.23838,-0.21513,-0.24852,-0.038133,-0.025436,-0.013023,-0.012785
0.31263,-0.011912,-0.23956,0.41136,0.1251,0.0026151,-0.014177,-0.02164
0.02663,0.07435,0.10439,-0.79533,-0.18784,-0.054715,-0.023106,-0.17609
-0.022074,0.16028,0.54216,0.42103,-0.069604,-0.0094751,0.038564,0.16437
-0.13928,-0.4497,-0.73935,-0.39897,-0.011207,0.037193,0.01486,-0.016308
0.22214,0.080215,0.51436,0.25427,0.035273,0.015287,-0.00022195,-0.0078188
-0.4988,0.022971,0.060183,0.35065,0.17202,-0.012579,-0.022138,0.048417
0.34864,0.5023,0.10104,0.085051,0.063079,0.0081488,-0.0039634,0.0031231
-0.17836,-0.10123,0.20746,-0.27151,-0.057927,0.014572,-0.023917,-0.097603
0.31285,-0.18907,0.037595,0.35487,-0.090807,-0.025186,0.027135,0.026873
0.034225,0.14178,0.07418,-0.080114,-0.0060485,0.020923,0.023819,0.016778
-0.084841,-0.29873,-0.59085,-0.1127,0.0070954,-0.0041339,0.012554,-0.02649
-0.038094,0.2775,-0.049718,0.0037695,0.040951,0.0005429,-0.01495,0.0064683
0.046987,0.30937,0.39274,-0.40324,-0.014699,0.02671,0.026829,0.076743
-0.26215,-0.56625,-0.3652,0.012559,-0.12095,-0.074195,-0.096759,-0.19827
0.16464,-0.50699,-0.54245,-0.27467,-0.058573,-0.028548,0.020448,0.33008
0.0051152,0.15129,0.11714,0.50014,0.15774,0.023466,0.011365,-0.064566
-0.038424,0.58058,0.49829,0.3758,0.13067,0.027735,0.0090541,-0.24135
0.15946,-0.09561,0.53289,-0.38357,0.025345,0.11765,0.068532,0.081216
-0.10269,0.094812,-0.60791,0.085188,-0.18866,-0.12818,-0.083309,-0.10436
-0.033091,0.23732,0.21048,0.18108,0.043812,0.056129,0.045993,0.17879
-0.050254,-0.20351,0.59281,-0.082837,-0.15211,-0.079306,-0.012114,0.095049
-0.010007,0.13249,-0.31553,-0.43815,0.012418,0.051408,-0.0075008,-0.15221
0.012703,-0.0052119,-0.069327,0.52284,0.24788,0.049723,0.028681,0.038758
0.027991,-0.34332,-0.78869,0.17663,0.030177,-0.061015,-0.02846,0.019702
0.099407,-0.33324,0.45251,-0.41938,-0.11792,0.008247,0.00091928,0.0017573
0.062537,-0.017378,-0.57469,-0.27599,-0.048549,-0.039261,-0.039226,-0.09295
-0.099879,0.26793,0.6688,0.11405,0.050501,0.015411,0.023208,-0.014145
0.16431,0.22777,0.49836,-0.26334,-0.10977,0.031876,0.032164,0.019623
-0.093106,0.23274,-0.62716,0.14935,-0.0055015,0.0024979,-0.020088,0.031782
-0.26544,-0.12738,0.011311,0.91762,0.11392,-0.041457,-0.008648,0.0063577
0.090604,-0.35702,0.11909,-0.64386,-0.1181,0.024792,0.011475,0.028524
-0.31518,0.21821,0.31675,0.2,0.025365,-0.017993,-0.0071313,-0.10597
0.60288,-0.025179,-0.71203,-0.35624,0.028616,0.048223,0.044217,0.46098
-0.20172,0.35885,-0.049294,0.6466,0.21928,0.011672,-0.0070908,-0.33429
0.20147,-0.4419,0.81612,-0.51995,0.0028305,0.035645,0.01019,-0.10179
-0.038264,0.18217,-0.14472,0.26803,-0.019863,-0.036622,-0.037137,-0.0054436
-0.45133,-0.58883,-0.2745,-0.78582,-0.30998,-0.07239,-0.047527,-0.12234
0.22863,0.33159,-0.23746,0.75063,0.11739,-0.016499,0.010648,0.17431
0.22099,0.32676,0.43385,-0.51691,-0.13478,0.038295,0.044373,0.066363
-0.16904,-0.22052,-0.39552,0.40112,0.0528,-0.031642,-0.046963,-0.10817
-0.20671,0.1733,0.23282,-0.19324,-0.020692,-0.013911,0.018868,0.042779
0.32695,-0.20461,0.20683,-0.12404,0.0060043,0.014605,0.023918,0.066534
-0.23988,0.010097,-0.1398,0.75137,0.32908,0.1015,-9.6501e-05,-0.092324
0.33492,0.024963,-0.61323,-0.34868,0.041776,0.043683,0.064051,0.17378
-0.19101,0.37582,0.70036,-0.20045,-0.22504,-0.081441,-0.073081,-0.043929
0.033775,-0.033324,0.20849,0.074197,0.0099368,0.021706,0.040941,0.21277
-0.25636,-0.14824,-0.29672,0.20405,-0.13969,-0.078177,-0.055665,-0.55844
0.2044,-0.31078,0.064508,-0.7617,0.049219,0.070445,0.0034753,0.094077
-0.04449,-0.17294,0.0093628,0.98495,0.1444,-0.057112,0.014618,0.0059426
0.13027,-0.13492,-0.62707,-0.50415,-0.042876,0.022854,-0.0069355,0.13107
-0.08331,0.24742,-0.27571,0.012179,-0.07479,-0.049022,-0.022128,0.29925
0.080763,0.33921,0.6385,-0.41844,-0.043227,0.024781,0.031815,-0.21394
-0.23675,-0.10619,-0.023568,0.5809,-0.062305,-0.0046204,-0.016534,-0.20316
0.08896,0.18465,0.78225,-0.47957,0.13733,0.067235,0.013014,0.05221
0.14328,0.38784,-0.1074,0.66016,0.051609,-0.0083675,0.027138,0.069026
0.011241,-0.49538,-0.33598,0.25932,-0.019553,-0.027319,-0.0051447,0.11335
-0.12089,-0.20758,-0.28318,-0.90814,-0.043081,-0.028171,-0.04471,0.012925
0.0032973,0.0086608,0.13263,0.47784,-0.042163,0.012475,0.025491,-0.17086
-0.047348,-0.056362,-0.1216,-0.17704,0.044307,0.047181,0.0020481,0.091733
-0.00069658,0.015461,-0.44193,0.16587,0.010387,-0.042211,-0.013821,0.002217
0.11883,0.2941,0.26488,-0.23539,0.13355,0.063437,0.055701,0.11398
0.14669,-0.0064646,0.32349,0.15922,0.0034939,-0.027639,-0.023926,-0.20651
-0.049728,-0.38825,-0.24998,-0.60956,-0.14122,-0.0037912,-0.033906,-0.0060827
-0.21948,0.19531,0.71945,1.0227,0.10321,-0.068516,-0.013014,-0.033968
-0.14992,-0.075974,-0.32645,-0.41082,-0.25626,0.059657,0.015816,0.015804
0.098723,0.1096,-0.56337,-0.40147,-0.16402,-0.079423,-0.032735,0.019687
0.11487,0.21011,0.43301,0.63651,0.41369,0.070138,0.052868,0.26799
0.10392,-0.23324,-0.23583,-0.29072,-0.19931,-0.076223,-0.031648,-0.137
0.06748,0.059852,-0.21391,-0.42837,0.1883,0.092108,0.018502,0.086015
-0.25942,-0.015905,0.29624,0.41497,-0.084118,-0.025605,0.015529,-0.29796
0.06806,0.3775,0.47103,0.61027,0.05618,0.016164,0.021266,0.022436
0.032834,-0.4931,0.069222,-0.31442,-0.0068318,0.052897,0.0035283,0.16299
0.0076991,0.0301,-0.73121,0.28031,0.14078,-0.025819,-0.01526,-0.010517
0.037025,0.16113,0.15249,-0.73683,-0.16624,-0.0026287,-0.012535,0.18045
0.20443,-0.047741,-0.025051,-0.68934,-0.16414,0.0038325,0.011179,-0.17884
-0.35111,-0.04936,-0.11719,0.26588,-0.097252,-0.10137,-0.076971,-0.15874
0.080726,-0.1457,0.3456,0.52006,0.11049,0.0013783,-0.0030755,0.022591
-0.022963,-0.051036,0.7738,0.79195,0.54332,0.038595,0.02282,0.077258
-0.090271,-0.096172,-0.7933,-0.31949,-0.25311,0.026456,0.033085,0.022362
0.060709,0.4813,-0.6329,-1.0554,-0.32629,0.044108,0.044447,0.10939
-0.075564,0.17654,0.043323,0.37742,-0.059089,-0.055615,-0.01255,-0.0589
0.13541,-0.25198,0.24421,0.5954,0.12711,-0.099584,-0.074967,-0.099016
0.1005,-0.10297,0.19739,-0.42123,-0.05592,0.11633,0.060268,0.082841
0.22528,0.088334,0.44121,1.1344,0.65843,0.10051,0.05671,0.017353
-0.32797,-0.3006,-0.30948,-0.51577,-0.47885,-0.10793,-0.078667,-0.12466
0.14921,0.34949,-0.1875,-0.67715,-0.2325,-0.017244,0.043776,0.1086
-0.12689,-0.036881,0.50659,-0.047784,0.28892,0.020164,-0.076891,0.16888
-0.18932,-0.31493,-0.53032,-0.38903,-0.12481,-0.0045592,0.011756,-0.35901
0.17999,0.26379,0.7416,0.20833,-0.14493,-0.037768,0.020296,0.20392
-0.096465,-0.034195,-0.51943,-0.037162,0.25248,0.16969,0.026869,0.091932
-0.0091309,0.19295,-0.19129,0.78996,0.12238,-0.16395,-0.038491,-0.35075
0.014708,-0.38518,0.23503,-0.52157,-0.31659,-0.046596,-0.011143,0.22839
0.28223,0.66818,-0.782,0.531,0.20849,-0.024827,0.054904,-0.11476
-0.25924,-0.93613,0.086398,-0.52512,-0.21746,0.15976,0.011868,0.23038
0.11021,0.17634,0.32644,0.1972,-0.0021353,-0.031147,-0.045983,-0.10243
-0.0077351,-0.07474,0.21216,0.24267,0.23544,0.028156,0.0066711,0.020129
0.14397,0.36047,0.55319,0.5815,0.071329,-0.021153,0.029291,0.0043356
-0.014167,0.48942,0.083884,-0.45011,0.011342,-0.030352,-0.025135,-0.048646
-0.28054,-0.3244,-0.8026,-0.70148,-0.25872,-0.10103,-0.039747,-0.077004
-0.039298,-0.10293,0.1497,0.23269,-0.028984,-0.022571,0.00061101,0.020012
-0.056958,0.17745,0.37401,-0.92376,-0.19034,0.16535,0.048524,0.19476
0.21293,-0.045246,-0.13396,0.19963,0.43751,0.11824,0.064396,-0.15494
0.043705,-0.31541,-0.1261,0.64977,-0.2768,-0.078756,-0.030332,0.0096342
0.11513,-0.026006,-0.46712,0.79603,0.31729,-0.14494,-0.079649,0.00091924
-0.11182,-0.25416,0.43682,-0.086217,0.17552,0.11482,0.041475,-0.048061
-0.043402,0.066384,-0.44009,-0.57546,-0.34753,-0.088148,-0.026,0.10531
0.054697,-0.0045242,0.34153,-0.011321,-0.15489,-0.041979,-0.015846,-0.054071
-0.044054,0.71773,0.098403,0.13031,-0.07153,-0.042196,0.018023,0.021213
-0.058216,-0.40441,-0.087174,-0.051093,0.13182,0.15487,0.02953,-0.027797
-0.15149,0.34796,0.0054031,-0.17651,-0.17595,-0.1214,-0.050988,-0.052442
0.14531,-0.23911,-0.11833,0.30437,0.41943,0.16099,0.089339,0.12696
0.043509,0.055368,0.2686,-0.52653,-0.20871,0.0097989,-0.033858,0.0023448
0.0042307,-0.2129,0.5131,0.44481,0.38919,-0.060124,-0.022498,-0.11418
0.4024,0.35596,-0.26074,-0.40884,-0.20591,0.082623,0.068089,0.089391
-0.45756,-0.27362,-0.77487,-0.30773,-0.1559,-0.1496,-0.059763,-0.082683
0.010034,-0.14174,0.70964,0.81726,0.11219,0.054067,-0.00058036,0.025565
-0.077667,-0.019121,-0.37095,0.37903,0.024389,-0.081049,-0.05186,0.093775
0.060966,-0.43085,-0.1861,-0.084469,-0.25661,-0.047752,-0.010842,-0.07313
0.12991,0.7097,0.21633,-0.55832,-0.057733,0.14622,0.083338,-0.052775
-0.018014,-0.29919,-0.26961,0.21558,0.054251,0.024992,0.027753,-0.00070211
-0.13133,0.08192,0.16765,-0.86248,-0.15779,-0.035304,-0.044377,0.083893
0.16641,0.24933,0.41989,0.71885,0.56162,-0.033335,-0.00751,0.0064657
-0.092387,0.45535,-0.12853,-0.26985,-0.19691,0.024395,0.013947,-0.021464
0.0382,-0.32463,0.37438,0.067543,-0.11015,-0.025111,-0.010692,-0.038685
-0.098216,-0.48533,-1.0187,0.5329,0.11935,-0.0014999,-0.034101,-0.060947
-0.26826,0.037601,0.10123,-0.39373,-0.049197,-0.037434,-0.016949,-0.0028666
0.57309,-0.21571,0.61592,0.60918,0.28688,0.054199,0.040781,0.17366
-0.053265,0.18573,-0.26029,-1.0378,-0.21286,0.077215,0.060712,0.11584
0.099754,0.26755,0.36374,0.61486,-0.12314,-0.039904,-0.004538,-0.19328
-0.2988,0.056673,-0.41173,-0.46156,-0.18946,0.0062095,-0.015019,-0.0752
-0.35273,0.35495,0.67732,0.4065,0.13352,-0.05124,-0.049573,-0.077624
0.28042,-0.5654,-0.62727,0.40839,0.10408,-0.0099144,0.0083718,0.18976
0.1083,-0.18839,-0.21366,-0.54663,-0.095799,-0.010683,-0.021259,-0.038436
0.092812,0.09719,-0.075514,0.17144,-0.017344,-0.053208,0.033322,-0.050595
0.048321,-0.16664,0.52431,-0.25797,0.062035,0.11334,0.0082668,0.099586
-0.26493,0.61748,-0.48561,-0.16845,0.028526,-0.049003,-0.033469,-0.11025
0.054156,0.0079361,0.41218,-0.26635,0.05626,-0.0078279,0.002452,-0.0072495
0.14087,-0.67166,0.088161,0.82931,0.12258,0.050283,0.03849,0.15932
-0.19816,0.70625,-0.040522,0.15609,-0.093524,-0.053845,-0.03427,0.038302
-0.0086831,-0.17692,-0.53512,-0.36627,-8.4464e-05,0.086049,0.01879,-0.3234
0.17807,-0.5937,0.10238,-0.21794,-0.036949,0.031999,0.041409,0.18331
-0.22495,0.4015,0.068849,0.23632,-0.19077,-0.13086,-0.060409,-0.0045294
0.33487,-0.066467,0.29875,0.028302,0.083624,0.018398,0.025439,0.010924
0.12826,0.61923,0.46445,0.50059,-0.034976,0.0023613,0.032891,0.20569
-0.29278,-0.4948,0.063227,-0.95881,0.0080527,0.023583,-0.046217,-0.35813
0.061894,-0.12733,-0.85434,-0.18964,0.064802,0.019408,-0.016737,0.13183
-0.12884,-0.16072,0.0051277,-0.048384,-0.012364,-0.0098526,-0.0035907,0.058556
-0.020439,0.39025,0.29693,0.76379,0.43356,-0.016591,0.0013484,-0.10876
-0.12624,0.073535,-0.03851,0.54496,-0.33129,-0.023213,0.045432,0.10705
0.088344,-0.27407,-0.025125,-0.36017,-0.19735,0.026109,-0.019251,-0.066861
0.0019527,-0.40241,-0.49545,-0.2312,-0.10221,-0.086356,-0.012576,-0.075391
0.13322,0.26557,-0.15436,-0.30681,0.06323,0.046312,-0.028058,0.10493
0.077524,0.2819,0.48173,0.41167,0.50171,0.080515,0.020184,0.020568
0.18626,0.3221,0.56753,-0.38591,-0.22468,0.047058,0.03804,-0.032444
-0.25348,-0.033211,0.044805,-0.17003,-0.13189,-0.023779,0.063967,0.21042
0.020663,-0.0082437,0.1342,-0.35355,-0.095063,-0.023934,-0.051193,-0.072251
0.012687,-0.38094,-0.27369,0.83187,0.11248,-0.071965,-0.034663,-0.15464
-0.046475,-0.22403,-0.37495,0.18555,-0.094745,-0.0049397,-0.0040493,-0.20879
-0.049756,0.048752,-0.39647,0.18451,0.29959,0.012424,-0.045332,0.023725
-0.19316,-0.32516,0.037898,-0.68188,-0.20363,0.019137,0.029365,0.3801
0.1962,0.33124,0.22778,-0.076678,-0.056644,0.01574,0.0020248,-0.098859
-0.1527,0.36769,0.17705,-0.073101,-0.0087191,-0.051449,-0.017038,-0.036301
0.43522,0.36001,0.45208,0.77574,0.088996,0.068811,0.074677,-0.079012
-0.23985,-0.60185,-0.87424,-0.66362,-0.32602,-0.098813,-0.050225,-0.069608
-0.12047,0.069901,0.049889,0.74024,0.63639,0.063836,0.0070546,0.10171
0.24032,-0.10156,0.58122,-0.12267,-0.05591,0.10416,0.082374,0.14551
-0.15715,0.13967,0.36296,-0.45385,-0.16176,-0.063751,-0.059149,-0.15027
0.11581,0.42374,0.23201,-0.38906,-0.28371,-0.01852,-0.05116,0.025151
-0.24757,-0.59569,-0.93565,-0.46685,-0.14119,-0.042251,0.027215,0.16193
0.32809,0.47819,0.308,1.0116,0.21081,-0.026626,-0.020336,-0.28103
-0.12884,-0.79237,-0.50771,-0.081238,0.19416,0.089793,0.039726,0.085157
-0.089645,-0.164,-0.22466,0.27605,0.066806,0.0014214,-0.0040903,-0.092305
0.13926,0.45132,0.076358,-0.11477,-0.12432,-0.026721,0.019888,0.05313
-0.1537,0.49334,0.84767,-0.2114,0.003472,-0.0026938,-0.020984,0.083907
-0.085242,-0.20827,-0.90396,0.42509,-0.065743,-0.10608,-0.071528,0.11766
0.22105,0.010909,0.46662,-0.596,0.027024,0.077593,0.048674,0.13962
-0.10001,0.32953,0.88983,0.2009,-0.054498,-0.0057827,0.012326,-0.52875
-0.11666,-0.26224,-0.68467,0.072348,0.11142,0.12101,0.0077141,0.11388
0.14933,-0.64186,0.23607,-0.45147,-0.07665,-0.057036,-0.011432,0.14707
0.050397,0.40716,0.15088,0.10526,0.092642,0.038721,0.048967,-0.021634
0.11772,-0.23406,-0.67563,0.18727,-0.13784,-0.099126,-0.014192,0.12445
-0.094976,0.11307,-0.28911,0.411,-0.0016355,-0.071839,-0.060544,-0.085904
-0.26108,-0.15375,0.1746,-0.09971,0.0021062,-0.051106,-0.0046093,-0.10565
0.32873,0.69913,-0.21322,-0.26068,0.14757,0.21314,0.059312,0.11966
0.095137,-0.13382,0.77837,-0.23817,-0.025643,0.064577,0.029137,0.065995
-0.52473,-0.091051,-0.6566,0.54368,0.037453,-0.10638,-0.064267,-0.19708
0.32134,0.076854,0.26235,-0.50301,-0.038043,0.035905,0.013306,0.1109
-0.24781,-0.18447,0.97116,0.30038,-0.17403,-0.18076,-0.042754,-0.11232
0.26231,-0.14675,-0.67408,0.24301,0.043495,0.079316,0.033484,0.10153
0.065054,-0.080251,0.16523,-0.55644,0.09104,0.081599,0.023734,0.14276
-0.38444,-0.51197,-0.95516,0.19392,-0.078331,-0.088015,-0.071498,-0.26215
0.2977,0.51559,0.75387,0.13078,0.17589,0.09393,0.084162,0.019688
0.080008,0.29482,-0.64558,-0.42126,-0.084041,-0.013161,-0.016842,0.14471
0.015711,-0.28243,0.43973,0.3231,0.00089253,-0.08117,0.0083229,0.089745
0.1336,0.99327,0.048317,-0.2113,-0.09325,0.077325,0.010992,-0.23083
-0.34268,-0.80401,0.37489,0.51592,0.031378,-0.037827,-0.040513,0.15206
-0.079924,0.10908,-0.26097,0.027578,0.061656,-0.004963,-0.021738,-0.16751
0.19333,0.24227,-0.00068341,-0.35059,-0.026452,0.01161,0.0355,0.10764
-0.031562,-0.58875,0.069101,-0.2316,-0.069388,0.011663,-0.0099184,-0.014493
0.073958,-0.15956,-0.2943,0.23989,0.080947,0.034089,0.036973,-0.0026168
-0.25424,-0.086507,-0.68486,0.66195,0.12758,-0.069603,-0.066158,0.080593
-0.068681,-0.10829,0.63166,-0.69415,-0.030835,0.028809,0.032331,-0.12464
0.28917,0.90526,0.58474,-0.29751,-0.19059,-0.029779,0.01243,0.091996
0.2509,0.11598,-0.06836,0.18937,-0.0070223,0.051937,0.0387,0.011023
-0.19017,-0.24478,0.27305,-0.26178,-0.11184,-0.030188,-0.044464,-0.094887
-0.057247,-0.09566,-0.82955,0.86035,0.27731,-0.0021368,-0.041043,0.02362
-0.17903,-0.36505,0.099544,-0.51156,-0.026282,0.019428,0.0027635,-0.0010611
0.14645,-0.076832,-0.38553,-0.19643,-0.084858,-0.058876,-0.0062721,0.19816
-0.06656,0.52495,-0.12881,0.17994,0.077733,0.028706,0.041484,-0.25342
0.086851,-0.29678,0.99428,0.4815,0.038561,0.0085736,0.020947,0.066694
0.066598,0.38464,0.15466,-0.078084,-0.024193,0.09121,0.033233,-0.051499
-0.15915,-0.27732,-0.84481,0.026425,-0.065302,-0.099068,-0.047407,0.018068
0.073582,0.13709,0.74326,-0.64801,-0.078391,0.06976,0.028114,0.12017
-0.16452,-0.41236,-0.4747,0.098031,0.029382,-0.051486,-0.045791,-0.1194
0.19758,0.019449,0.19412,0.09183,0.13285,0.013214,0.019239,0.10447
0.051412,0.15965,-0.29059,0.24997,-0.0017399,-0.056684,-0.050601,-0.11449
-0.0083192,-0.0064807,0.024992,-0.16405,-0.17772,-0.018873,0.0025243,0.098277
