-0.18685,-0.052953,0.033692,0.013229,-0.007438,0.026169,-0.076956,-0.00088733
0.015931,0.083145,0.075483,0.018326,0.01531,-0.011115,-0.13115,-0.0020317
0.17499,0.009714,0.0015692,0.032315,0.015242,-0.017212,0.14995,0.12337
-0.5225,0.11696,-0.0079579,0.00057409,0.023563,0.030808,-0.63164,0.022168
0.47071,0.08384,-0.015538,-0.022335,-0.030188,-0.039361,0.85261,-0.064949
-0.0081458,-0.19214,-0.0057858,-0.028851,-0.021216,-0.017011,-0.069188,-0.20948
-0.23026,-0.071263,-0.033834,-0.019284,-0.0044293,-0.011473,-0.069403,0.072257
-0.028508,0.039579,0.016981,0.013881,-0.0034492,-0.030244,0.19476,-0.071399
-0.071329,-0.047382,0.028972,0.023516,0.028471,0.083439,-0.83251,0.20368
0.074232,0.15241,-0.029504,0.017243,0.013143,-0.013578,0.59781,0.11699
0.27785,-0.040143,-0.064954,-0.020693,-0.026004,-0.016065,0.16503,-0.057125
-0.045232,-0.038273,0.094369,0.003381,0.0048134,0.037293,-0.083528,-0.2161
-0.13757,0.057414,0.049988,0.019125,0.0040935,-0.025231,-0.41999,0.078557
0.11608,-0.088122,-0.080903,-0.03594,-0.0046544,0.015025,0.14988,-0.047209
-0.021842,0.018011,-0.048301,0.00232,-0.0057319,-0.014101,-0.027817,0.17309
-0.070908,0.079341,0.1087,0.0090233,0.0087398,-0.027082,0.049077,-0.14265
0.011625,-0.0056447,-0.055282,0.039008,0.0075644,-0.024371,0.22567,0.02953
-0.25461,-0.073204,-0.056019,-0.071624,-0.01703,0.071734,-0.27131,0.049214
0.11169,0.0010182,0.12194,0.021028,0.020922,0.0030877,0.47105,-0.0055943
0.10838,-0.033866,-0.084069,0.0045781,-0.02699,-0.05083,-0.096341,-0.088518
0.06249,0.00082552,0.021123,0.019712,0.011139,0.019297,-0.17157,-0.028563
0.185,0.18225,0.007817,0.011748,0.010349,0.010433,-0.21036,0.18086
-0.13227,0.048723,0.055877,0.03534,0.017576,0.0009261,-0.011415,-0.03202
-0.082147,-0.17352,-0.068649,-0.089235,-0.037415,-0.024524,0.11999,-0.14536
0.13597,-0.038918,0.056804,0.044263,0.017339,0.0047728,-0.18269,0.10499
-0.23093,-0.085669,-0.090281,-0.040694,-0.044644,-0.012368,0.1994,-0.16494
-0.21645,0.070456,-0.040122,-0.0081018,0.034502,0.041556,0.1278,0.30991
-0.073055,-0.021951,0.012926,0.017094,0.012581,-0.012934,-0.059362,-0.032727
0.43791,0.1466,0.046082,0.011439,0.0066962,0.035173,0.11619,-0.066635
0.053089,-0.0007223,0.0048052,0.052926,0.016682,-0.048571,-0.016371,0.093188
-0.10303,-0.057083,0.10736,-0.038397,-0.043621,-0.014368,-0.37083,-0.52683
0.15354,0.024154,0.0089048,0.033984,0.020856,0.012473,0.052426,0.10791
-0.074068,-0.031521,-0.065517,-0.042803,-0.024477,-0.030941,0.3775,0.22703
0.33104,-0.022729,-0.0003566,0.043456,0.023355,0.081507,-0.31876,-0.058068
-0.70239,-0.053188,-0.07046,-0.082343,-0.015395,-0.049086,0.032531,0.51856
-0.18238,0.14829,0.02799,0.025238,0.015549,0.037777,0.21895,-0.38076
0.67403,-0.029668,-0.072355,-0.0084672,-0.016534,-0.04888,-0.010818,-0.30667
-0.37861,-0.049468,-0.027197,-0.042375,-0.025584,0.018867,-0.040576,0.20433
0.64417,0.0022696,0.16456,0.088032,0.051016,0.045726,-0.29274,0.41978
-0.41041,0.063263,-0.027001,0.0080749,0.0024077,-0.061774,0.052992,-0.26735
-0.44213,-0.14663,0.00097553,0.0068989,0.016122,0.040657,-0.10452,0.084348
0.13583,-0.0083928,-0.039657,-0.048488,-0.04847,-0.075912,0.64955,-0.33132
0.20825,0.042751,-0.031342,-0.0022312,-0.011694,-0.0043632,-0.15262,-0.19261
0.24562,0.095078,0.0022242,0.074865,0.04834,0.076452,-0.35386,0.45002
-0.58005,-0.060305,0.060218,-0.067638,-0.024552,-0.0046904,0.15598,-0.35797
0.42402,0.14836,0.1258,0.038782,0.0041378,-0.052152,-0.17721,0.015858
0.07223,-0.12197,-0.060161,-0.0042255,-0.013843,0.051181,-0.43917,0.57856
0.52708,0.011442,-0.13944,-0.11029,-0.0079691,0.031403,0.83854,-0.35974
-0.70044,-0.06151,-0.018951,0.026007,-0.0092927,-0.010692,-0.0090333,-0.069712
-0.46096,0.064221,-0.073759,0.03832,0.068265,-0.029142,-0.51451,0.30771
0.16717,-0.081592,0.30609,0.036798,-0.0096168,-0.0013629,0.79717,-0.30111
0.37112,-0.031766,-0.26115,-0.024954,-0.016418,0.017341,-0.52047,0.043456
0.17489,0.079381,0.053964,-0.053145,-0.061638,-0.12172,0.25898,-0.040556
0.20579,0.10991,-0.028541,0.092416,0.042046,0.12066,-0.85539,0.76802
-0.53146,-0.027123,0.06267,0.15311,0.021005,-0.075342,0.33458,-0.81771
0.54104,-0.043235,0.21886,-0.036116,0.0078818,0.025337,0.47361,-0.17599
-0.65996,-0.04786,-0.11437,-0.25738,-0.01307,0.14218,-0.54305,0.21638
-0.03558,-0.017047,0.1099,0.02002,-0.010655,-0.12267,0.73408,0.20592
-0.24332,0.018997,-0.35829,-0.032117,-0.0083044,0.004593,-0.75482,-0.49909
-0.27671,-0.1805,-0.034414,0.031861,-0.045032,-0.046322,0.47502,0.20934
0.83005,0.30791,0.19115,0.18128,0.074519,0.044623,-0.078698,0.25939
0.57893,-0.13153,-0.21268,-0.13017,-0.055905,0.026888,-0.48348,-0.28936
0.21868,0.095989,0.22262,0.066548,0.055791,0.016964,0.81607,0.58127
-0.27808,-0.055843,-0.011659,0.060425,0.026607,-0.0014994,-0.30543,-0.10541
-0.54142,-0.0010795,0.082757,-0.0318,-0.010893,-0.0056806,-0.15276,0.054307
-0.19295,-0.029225,0.081562,-0.038903,-0.025707,-0.050649,0.75237,-0.50622
-0.40672,0.054299,0.067976,-0.016188,-0.025808,-0.042742,-0.51481,-0.1979
-0.18973,-0.087291,-0.23381,-0.11244,-0.042461,-0.0051915,-0.82031,0.47512
0.37559,0.0061545,0.049843,0.13337,0.049487,0.023347,0.5756,-0.27914
0.65365,0.076188,-0.19805,0.049939,0.039394,0.10586,-0.51365,0.55363
0.10253,-0.096381,0.071323,-0.15084,-0.05675,0.024026,0.34427,-0.60453
0.0070317,0.035054,-0.1074,-0.0068913,0.011398,-0.073419,0.72975,0.13823
-0.022189,-0.03748,-0.026865,0.029666,0.017515,-0.030098,-1.0527,-0.19296
-0.43149,0.22497,0.25453,0.10009,0.031996,-0.0022558,0.82861,0.12209
0.0028332,-0.21674,0.044531,-0.084667,-0.038995,-0.013388,0.45077,0.41225
-0.33241,0.10605,0.10222,0.091967,0.030896,0.061465,-0.3946,-0.033628
0.49633,-0.0097761,-0.24511,0.121,-0.008592,0.00358,-0.27036,0.15852
-0.13156,-0.12664,0.43725,0.032234,-0.0092442,-0.02285,-0.18564,-0.28582
0.00018944,0.03691,-0.69081,-0.37881,-0.033671,-0.017601,-0.1643,-0.078088
0.14015,-0.018817,0.35823,0.043209,-0.011523,-0.042889,0.10032,-0.17848
0.053601,0.073703,0.0098541,0.048013,0.010498,0.018747,-0.37101,-0.076953
-0.30565,0.049154,-0.082602,0.0032173,0.0092018,0.050297,0.83636,-0.32471
0.38422,0.032761,0.11112,0.15979,0.031705,-0.010731,-0.10247,0.48066
-0.37461,-0.03784,-0.0093642,0.02682,0.031292,0.022953,0.16136,0.31142
0.24069,-0.17039,-0.20652,-0.16003,-0.038875,-0.028746,-0.061462,0.18527
-0.3299,0.10394,-0.085132,0.10031,0.0086169,0.044568,-0.44448,-0.43673
-0.006197,-0.066358,-0.13222,-0.074213,-0.013902,-0.015473,-0.044754,0.52168
0.41608,0.17818,0.52409,0.019825,-0.012871,-0.060875,-0.34259,-0.73981
-0.23493,-0.14678,0.0041955,-0.0082946,-0.035318,-0.029368,0.73434,-0.092618
0.51611,0.08376,0.067014,-0.010593,0.035864,0.055654,0.24801,0.54493
-0.3799,0.057194,-0.46061,0.098132,0.067866,0.046056,-0.79704,-0.44017
-0.32419,-0.18762,0.081992,-0.097088,-0.064244,-0.018608,0.40604,0.23068
0.13358,0.15369,0.44002,0.090289,0.014638,-0.083079,0.50621,-0.02998
0.14741,-0.21615,-0.23551,-0.18439,-0.054767,0.048482,-0.44943,-0.027288
0.012897,0.14767,0.05859,0.085934,0.024469,-0.021999,0.2514,0.15335
0.18304,0.057078,-0.14943,0.080415,0.025755,0.049354,-0.61401,0.036751
-0.23961,0.089568,-0.2666,-0.021536,0.034911,0.082716,-0.16333,0.14073
-0.58128,-0.1148,0.16185,0.006654,-0.0029494,-0.10977,0.64573,-0.00058845
0.68391,-0.056442,0.36616,-0.01439,-0.025557,0.10424,-0.70385,-0.57129
-0.1759,0.045771,-0.35969,0.0018733,-0.0018659,-0.14292,0.49946,-0.17719
0.27907,-0.22982,-0.29974,-0.13902,-0.064808,-0.046911,0.54567,0.036335
0.3631,0.30486,0.43275,0.087358,0.043436,0.079582,-1.089,0.38366
-0.3756,0.041261,0.050538,0.080458,0.010495,-0.02128,0.65509,0.15385
-0.60009,-0.23057,0.084001,-0.065119,-0.0071647,0.080259,0.14632,0.61829
0.19052,0.20127,0.076482,0.065243,0.05321,0.048351,-0.45353,-0.054949
-0.04212,-0.32641,-0.14163,-0.098608,-0.042523,-0.10913,0.092259,-0.72205
0.13209,0.20265,0.063915,0.0055702,-0.02075,-0.024999,0.68248,-0.42624
0.39259,0.27323,-0.25799,0.11935,0.024878,0.081997,-0.2689,0.072044
0.40227,-0.091015,0.19354,0.0075206,0.016261,-0.014688,0.0048539,0.54593
-0.77856,-0.28062,-0.19168,-0.11207,-0.038817,-0.033703,-0.45361,-0.3151
-0.074885,0.024775,0.088937,0.0098106,0.0080195,-0.037339,-0.66097,0.46935
-0.17013,0.051833,0.025391,-0.0023146,0.023891,0.084097,-0.021533,-0.54918
0.20518,0.019386,-0.33556,0.015492,0.016561,-0.028387,0.49205,0.41504
0.25036,0.044597,-0.0091159,-0.022485,-0.045246,-0.046285,0.8139,-0.12685
0.11067,-0.06031,0.10554,-0.014219,-0.020903,0.022883,0.76793,-0.14219
0.27631,0.086838,0.47374,0.048654,0.027104,0.007366,-0.95651,0.19636
-0.28414,-0.0071859,0.15871,-0.028714,0.0050192,0.0086265,-1.0078,0.096809
-0.40451,0.054703,-0.10045,0.066418,0.022172,0.04196,0.71425,-0.31264
0.20112,-0.041481,-0.13798,0.044938,0.008145,-0.010326,-0.19828,0.17349
-0.18694,-0.21117,-0.23511,-0.13254,-0.052843,-0.039431,-0.02803,0.04984
-0.123,0.18526,0.24888,0.025661,0.034339,0.063518,0.84965,-0.062812
-0.0053586,0.053605,-0.28579,0.058046,0.011716,-0.11583,-1.1345,0.083355
0.16424,-0.10591,-0.21742,-0.051477,-0.011437,0.07878,0.56112,0.2466
0.10715,-0.081484,-0.20248,-0.045353,-0.027304,-0.039789,0.66702,-0.61675
0.34506,0.18295,0.67556,0.045185,-0.0045178,0.0056465,-0.99153,-0.19641
0.39534,-0.11557,-0.36036,0.025129,0.01808,-0.0028942,0.52049,0.24901
-0.33722,0.040351,0.49921,0.012225,0.0017105,-0.049059,-1.1984,-0.17175
-0.034995,0.15232,0.12581,0.015022,0.048228,0.13328,0.42538,0.87537
-0.60591,-0.18473,-0.29764,-0.03597,-0.045255,-0.072947,0.89223,-0.1999
-0.07977,-0.1734,-0.13636,-0.061833,-0.052051,-0.011798,-0.089958,-0.15487
0.088316,0.24863,-0.084864,0.024005,0.043447,0.089442,0.35485,0.10954
0.0024821,-0.10711,-0.088542,-0.0046629,0.0066824,-0.067088,-0.42381,-0.30991
0.12212,0.07805,0.13318,0.016186,0.017017,0.025385,-0.74212,-0.47403
0.13527,0.27077,0.09479,0.10169,0.066221,0.069128,0.12304,0.48582
0.34733,-0.15611,-0.049061,-0.053733,-0.088321,-0.18633,1.2955,0.42339
-0.14871,-0.20441,0.0042388,0.0018314,-0.017264,0.024646,-0.62824,-0.22806
-0.098447,-0.039203,-0.068169,-0.0063544,0.029223,0.061935,-0.35128,-0.095917
-0.055224,-0.058958,0.15272,-0.056017,-0.042563,-0.073634,-0.50118,-0.35255
0.018547,0.24517,0.093693,0.047352,0.033259,0.071989,0.15064,-0.059261
-0.013511,-0.070261,-0.075812,-0.08716,-0.024154,-0.0082477,-0.039327,0.34107
-0.093571,-0.065467,-0.021345,0.079796,0.020027,0.037605,0.8331,0.24991
0.31264,0.23837,-0.01639,0.064658,0.07246,0.10008,0.25648,0.11561
-0.48646,-0.31323,-0.14525,-0.147,-0.077518,-0.10259,-0.26059,-0.40296
0.17027,0.21816,0.079671,0.094653,0.023318,-0.039954,-0.65948,0.024292
-0.32807,-0.18319,-0.48569,-0.076249,-0.015726,0.029349,0.019731,0.070574
0.51813,0.067542,0.26492,0.036667,0.00046085,-0.059357,0.55268,-0.099283
-0.040604,0.25746,0.53878,0.12151,0.055983,0.0687,-0.82764,-0.28183
0.18428,-0.20183,-0.2473,-0.095094,-0.068188,-0.062816,1.2502,0.60885
-0.055868,0.077836,0.21226,0.0035654,-0.020721,-0.054834,-0.24153,-0.31044
-0.079757,-0.24146,0.010271,-0.067817,0.010731,0.12479,-0.48549,0.21751
-0.40122,0.12827,-0.24625,0.04111,0.026094,0.0082686,-0.54468,-0.29242
0.075437,-0.016015,-0.2166,0.03999,0.0097479,-0.052004,0.7091,-0.044066
0.25829,0.12383,-0.067851,0.11517,0.071129,0.053912,-0.38086,0.39962
-0.32006,-0.082736,0.11943,-0.17948,-0.07871,0.029375,-0.068814,0.038669
-0.010773,-0.1172,0.1405,-0.00056713,-0.025535,-0.094453,0.87084,-0.23564
0.59931,0.10152,0.143,0.034915,0.019932,0.018023,-0.41209,-0.25018
0.00010413,-0.1038,-0.17018,-0.072372,-0.028,-0.0008879,0.21774,-0.10483
-0.17891,0.08083,0.11514,0.061383,0.0027708,-0.081461,-0.42458,0.1161
-0.082049,-0.055413,-0.18053,0.0076128,0.026456,0.11944,-0.26726,0.18715
-0.15003,0.32213,-0.010105,0.072022,0.043076,-0.0081758,-0.39696,0.18643
0.013736,-0.13273,0.17342,-0.057151,-0.033447,-0.027375,0.84644,-0.0045449
-0.16106,0.092579,0.018629,0.026709,0.023172,0.030091,0.16602,0.36949
0.2885,-0.028322,-0.068015,0.042345,0.0094424,0.038859,0.32317,-0.53069
-0.17302,-0.26316,0.077966,-0.065231,-0.059371,-0.071548,-0.60409,-0.24743
0.10729,-0.17522,-0.19903,-0.062127,-0.027296,-0.066659,0.029981,-0.033392
0.21198,-0.013803,-0.077844,-0.027031,0.043034,0.10078,-0.62192,-0.10099
-0.63671,0.16823,0.02051,0.047294,0.01102,-0.021717,1.1876,0.52618
0.39891,0.21703,0.2529,0.027471,-0.0059892,-0.011466,-0.21311,0.12259
0.22486,0.0097948,-0.20872,0.014517,-0.01556,-0.008225,-0.24186,0.018317
0.17488,0.11045,0.18971,0.093866,0.037261,0.027846,-0.53837,-0.36999
-0.051484,-0.21504,0.032789,-0.047383,-0.019163,-0.043332,-0.15997,-0.0082035
-0.32552,0.048194,-0.025006,-0.0031773,0.018466,0.028455,0.050104,-0.0028627
-0.33059,-0.070116,-0.016699,-0.10935,-0.029439,-0.0069702,0.88282,-0.17183
-0.022213,0.068829,-0.13099,-0.029486,-0.014403,0.037347,-0.35587,0.11937
0.39575,-0.27102,-0.071129,0.026277,0.040128,0.043402,0.35642,0.36344
-0.021035,0.11229,0.28139,-0.011345,-0.014308,-0.028804,-0.28174,-0.12007
0.1517,0.31207,-0.055072,0.19464,0.0097649,-0.062942,0.18241,-0.020584
-0.059352,-0.21826,-0.21726,-0.065789,-0.020471,-0.044,-0.36398,0.27641
-0.0099438,-0.0089722,-0.19304,-0.057681,-0.019069,0.0434,0.22999,-0.17722
-0.016961,0.019511,0.0215,0.031674,0.045242,0.011904,-0.40869,-0.69625
-0.46824,0.017353,0.29611,-0.071352,-0.0072217,0.057307,-0.050565,0.31179
0.20828,0.048783,0.14684,0.023319,-0.012434,-0.054081,1.0358,0.26083
0.38015,-0.15036,0.079481,-0.067959,-0.040811,-0.048098,-0.736,-0.15299
-0.11007,-0.024421,0.011615,0.060023,0.040269,0.05241,-0.04354,0.11862
-0.0073078,0.098695,0.054666,0.11705,0.035219,0.02902,-0.14055,0.17874
-0.10458,0.046522,-0.41466,0.14103,0.014008,-0.024536,-0.014181,-0.19799
0.18719,0.059851,-0.042239,-0.38464,-0.094038,-0.014874,-0.59729,0.10639
-0.1132,-0.0039517,-0.073669,0.039331,0.038885,0.065186,1.027,-0.079736
-0.26752,0.01689,0.099317,0.022027,-0.0014934,-0.050734,0.42135,0.040487
0.088829,-0.25477,0.071604,0.16518,0.034793,0.011677,-0.19089,-0.21281
0.32211,0.21853,0.056975,0.14908,0.03074,0.064478,-0.33886,-0.21483
-0.23081,-0.12649,-0.011123,-0.21275,-0.060119,-0.15801,0.15782,0.51084
0.12799,-0.10214,-0.0038256,-0.16903,-0.04186,0.055516,-0.51232,-0.0047364
0.0039829,0.17544,0.29314,0.031657,0.00031263,-0.036362,0.3177,-0.058692
-0.37939,0.0907,-0.12559,0.13286,0.028074,0.0439,-0.31495,-0.11233
0.060738,-0.11223,-0.14907,0.057532,0.026398,0.047293,-0.002646,0.099517
0.28162,-0.017441,-0.081167,0.024985,0.019048,-0.03322,0.11032,0.029451
0.12205,-0.076605,-0.054304,-0.16013,-0.040892,0.021494,-0.51719,-0.51841
-0.0027311,0.093955,0.025417,0.056231,0.041471,0.00039607,1.1207,0.36154
-0.21829,0.10381,0.15019,0.047904,-0.015856,-0.011132,0.036675,0.027861
0.090426,-0.031827,0.038597,0.055644,0.020577,0.025081,0.030432,0.19049
-0.032916,0.014364,-0.083266,-0.062623,-0.029858,-0.016997,-0.26437,-0.065749
-0.13107,-0.047618,-0.075665,-0.0034012,-0.0038725,-0.013324,-0.77053,0.11751
-0.020078,-0.16387,0.060005,-0.12679,-0.050371,-0.050518,0.10364,-0.22118
0.1956,0.024559,-0.02188,0.027999,0.041497,0.066452,0.011774,-0.11272
0.061022,0.025513,0.098336,0.0082294,-0.0092211,-0.037244,0.70107,0.17095
-0.096173,0.18317,0.1293,0.095962,0.024644,-0.0094879,-0.03433,-0.20344
0.16243,0.045091,-0.11072,0.096915,0.026707,0.033352,0.092164,0.064515
-0.16876,-0.12237,-0.091838,-0.058159,-0.025609,-0.032826,-0.90575,-0.18537
-0.2272,-0.1077,-0.13484,-0.087062,-0.0065195,0.042765,0.66625,0.30037
-0.032719,-0.082516,0.081195,-0.035936,-0.016984,-0.020601,0.17567,0.21946
-0.0039625,0.10137,0.026579,0.0019241,-0.0097907,0.027241,0.038501,-0.13038
0.17371,0.052493,0.016032,0.026648,0.022898,0.02984,-0.92918,-0.031298
0.3523,0.16792,-0.0026945,0.030204,0.0026676,-0.052376,0.92599,-0.024847
0.022496,-0.030708,0.074164,0.051085,0.038329,0.0064693,-0.99976,-0.27093
-0.029764,-0.037418,-0.033038,-0.028753,-0.0036786,-0.020902,0.81447,-0.031637
-0.20698,-0.0021595,0.1062,0.008413,-0.030413,-0.01791,0.083425,0.35276
-0.29443,-0.24602,-0.062771,-0.033747,-0.026972,0.022859,-0.69945,0.011219
0.27515,0.028075,-0.15769,-0.023235,0.013943,0.015327,0.67483,0.15174
-0.40593,0.055689,0.12527,0.04732,0.0061813,0.014294,0.060367,-0.36799
0.28767,-0.0050032,-0.011561,-0.048606,-0.011079,-0.026791,0.01943,-0.07944
0.045283,0.16074,0.064093,0.033268,0.032886,0.064417,-0.49667,0.026412
0.041553,-0.007493,-0.030663,-0.01862,-0.033171,-0.12562,0.057176,0.037949
0.1935,-0.078536,-0.22518,-0.031232,0.010222,0.067676,0.5482,0.29436
-0.19168,-0.020479,-0.0032281,0.020029,-0.00031154,-0.027191,0.058004,-0.12267
0.036112,0.049272,0.17482,-0.020186,-0.0095562,0.04311,-0.78825,0.001113
-0.083487,0.043842,0.14513,0.0595,0.021825,-0.0026875,0.13946,-0.19094
0.027217,-0.0068554,-0.053623,0.008943,-0.0077545,0.014862,-0.047948,0.013905
0.077886,-0.026055,-0.063136,0.038367,0.01858,0.0016015,-0.25233,0.18674
-0.19895,-0.038207,0.11488,-0.0018094,0.0065454,-0.02733,0.39872,-0.14921
0.0070623,-0.020298,-0.23258,-0.042597,-0.0054379,-0.0177,0.29962,0.19253
0.02972,-0.097085,-0.092013,-0.030519,-0.017985,-0.0010848,0.16163,0.15573
0.25778,0.013448,0.21449,-0.067975,-0.015937,0.0067501,-0.20717,-0.30808
-0.12256,0.070104,0.04514,0.024441,-0.015143,-0.0097573,-0.0037956,-0.11431
0.16176,0.011223,0.11839,0.043909,0.015688,0.059,0.093612,0.072196
-0.11504,0.1106,-0.19788,0.053749,0.014335,-0.052265,-0.50262,-0.061223
-0.10708,0.016369,-0.0817,-0.038638,-0.010956,0.0083707,-0.38181,0.017024
-0.23282,0.032298,-0.007133,0.010194,0.026235,-0.00097103,0.96839,0.29969
0.090182,-0.030415,0.036649,-0.032988,-0.014296,-0.025408,0.26504,-0.13463
-0.071064,-0.14183,0.1074,-0.01892,0.00054669,0.075735,-0.77196,0.050157
0.10762,-0.045131,-0.026653,0.052771,0.016172,-0.010136,-0.083258,-0.13841
0.4958,-0.1001,-0.098279,-0.036814,-0.022201,-0.033223,0.60522,0.041198
-0.24217,0.099694,0.064662,0.0398,-0.005441,-0.032833,-0.46037,-0.029103
-0.10042,-0.015439,0.054681,-0.0074984,0.0036141,0.02206,-0.17218,0.095045
-0.15318,0.16471,-0.044922,0.030972,0.020237,0.014131,-0.23394,-0.071585
0.28975,0.27376,0.1372,0.021169,0.012886,0.037116,0.20457,-0.014004
-0.14431,-0.2345,0.089169,-0.069116,-0.026417,-0.033869,0.68672,-0.076359
-0.014893,-0.17985,-0.38029,-0.0059951,-0.019551,-0.057972,-0.051771,-0.008839
0.057341,-0.061783,0.054214,-0.094074,-0.0054127,0.035409,-0.0047333,0.13382
-0.44485,-0.035972,0.055553,0.057901,-0.0071388,-0.034695,0.43354,0.015705
0.29138,0.25761,0.19473,0.068146,0.045956,0.091295,-0.92075,0.176
0.38523,0.014911,-0.088228,0.031607,0.029236,0.038452,0.2109,-0.1194
-0.34768,-0.091699,-0.21899,-0.058425,-0.057016,-0.09955,-0.0074866,-0.21367
-0.044439,-0.038641,0.15889,0.0019584,0.021722,0.028641,-1.0102,0.10505
-0.18615,-0.052809,-0.1371,-0.029121,-0.023634,-0.030398,0.36478,-0.17755
0.32334,0.013347,-0.016849,0.012182,-0.0057655,-0.0035585,0.55422,0.14314
0.18065,0.14278,0.17851,0.093922,0.028127,0.0072759,0.86111,-0.00179
-0.035977,0.068066,0.23077,-0.027112,0.015125,0.040884,-1.0079,0.091749
-0.21001,-0.16589,-0.23675,-0.039558,-0.013972,-0.012342,0.88428,-0.052561
0.32168,0.056342,0.084848,0.0087036,0.0029239,-0.0041423,-0.97448,0.25219
-0.38686,-0.00078679,-0.067049,-0.062661,-0.020422,0.018497,0.18159,-0.27656
0.031662,-0.0094424,-0.064731,0.05089,0.0018041,-0.085086,0.80411,-0.02344
-0.39844,-0.1251,0.048343,-0.072117,-0.016259,0.052349,-0.82708,-0.052803
0.30855,0.20876,0.11306,0.076997,0.050667,0.087193,-0.10205,0.33694
0.013197,-0.20056,-0.12924,0.0072082,-0.039171,-0.12875,0.10021,-0.33945
0.16105,-0.068815,-0.20851,-0.022433,-0.011805,0.037648,0.41249,0.168
0.21964,0.16147,-0.067052,0.0204,0.039555,0.032111,-0.87231,-0.10866
0.037653,-0.12483,0.17412,-0.03544,-0.017431,-0.012091,0.776,-0.16021
-0.060888,0.25287,0.19089,0.0056076,-0.0027397,-0.00072093,-0.18887,0.17907
-0.15866,0.15347,-0.044894,0.057339,0.036908,-0.011434,-0.43041,0.0044119
-0.22839,-0.18253,0.030784,-0.005973,-0.046968,-0.0047708,0.80054,0.13698
0.024326,-0.077978,0.066064,0.0099253,0.018841,-0.027344,-0.077465,0.10806
-0.064953,-0.1451,-0.0034264,-0.07586,-0.0082376,0.053717,-0.10974,-0.29417
0.028974,-0.081813,-0.039883,-0.022298,-0.011504,-0.050854,-0.024067,0.0068656
0.30963,0.25056,-0.093118,0.060298,0.016312,0.041275,-0.073761,0.087424
-0.25751,-0.00057272,-0.07944,-0.0083532,-0.011262,-0.0065757,-0.65399,-0.054258
0.30102,0.0084186,-0.10922,0.0059267,0.030304,0.039053,0.63665,0.16655
-0.13563,-0.065492,-0.057037,-0.013848,0.0078528,0.013145,-0.018738,-0.086439
-0.041026,0.09935,0.32876,0.034436,-0.01628,-0.030437,0.25135,-0.070307
0.094303,-0.11253,-0.02762,-0.012462,-0.02642,-0.04535,-0.61791,-0.12707
-0.17467,-0.097788,-0.084808,-0.028559,-0.014479,-0.047344,0.65362,0.13639
0.057446,0.14517,-0.0051816,-0.012829,0.020014,0.081086,-0.25438,-0.042722
-0.023523,-0.1091,0.09466,0.035673,-0.00046739,-0.073428,-0.098888,0.13506
0.12715,0.21802,-0.043776,-0.022938,0.026274,0.060355,-0.54265,-0.28162
-0.039674,-0.084646,-0.0082414,0.030524,-0.0085694,0.038103,0.68131,0.22341
-0.13551,0.052389,0.11277,0.032066,-0.0030274,-0.022149,-0.090078,0.15709
-0.029347,-0.18463,-0.1366,-0.096749,-0.027223,0.0051766,0.088846,-0.12341
-0.066253,0.093561,0.077326,0.034049,0.020349,-0.020303,0.20999,0.14441
0.48735,0.12798,-0.1217,0.048553,0.037842,0.026319,-0.078798,-0.13659
-0.25939,-0.30868,-0.077324,-0.062079,-0.068955,-0.089702,-0.29348,-0.29747
0.14707,0.16624,0.087028,0.083974,0.050965,0.052967,-0.089797,0.19112
-0.11256,0.10788,0.12414,0.024983,0.014248,0.055289,-0.09877,0.00064263
-0.29449,-0.17819,-0.11088,-0.12231,-0.031097,-0.028578,0.3234,0.19471
-0.014023,0.098256,-0.044033,0.017081,-0.0071723,0.0041358,-0.014365,-0.03676
0.09004,0.016518,-0.039363,-0.017345,-0.0077036,-0.010729,-0.4355,-0.35455
0.01108,-0.14126,0.16298,-0.029489,-0.016795,-0.01829,0.48616,-0.059927
0.31171,0.15661,0.11038,0.11445,0.051956,-0.018091,-0.090083,0.3891
-0.11868,-0.090042,-0.13579,-0.029884,-0.043082,-0.025145,0.32131,-0.029159
0.1159,0.0086324,-0.0078673,-0.016403,0.0033057,0.023664,-0.18699,0.20116
0.067007,0.24829,-0.072087,0.022491,0.0039974,-0.019662,-0.1887,-0.07756
