-0.073019,0.033662,-0.11141,-0.024938,-0.0085248,-0.0030467,-0.10663,-0.010416
0.040722,0.10204,0.045148,-8.4989e-05,-0.016959,-0.032055,-0.11948,-0.025052
-0.0011497,-0.045868,-0.072359,-0.03009,0.021556,0.089634,0.27685,-0.050326
0.090682,0.035887,0.22376,0.056763,0.013338,-0.051412,0.27768,-0.054605
-0.035296,0.050441,0.027297,0.049406,0.02096,0.05281,-0.24374,0.15831
0.0035848,-0.088659,-0.036832,-0.028814,-0.025829,-0.035512,-0.056243,-0.21488
-0.035132,0.00052965,-0.16409,-0.052934,-0.033234,0.02659,-0.10937,0.18691
-0.042371,0.020146,0.020428,0.016141,0.022196,-0.012011,-0.21229,-0.09548
0.059751,-0.093186,0.048082,0.022278,0.0076273,-0.0041621,0.74031,-0.029281
-0.025761,0.089612,-0.041742,-0.049958,-0.0066977,-0.029213,-0.66853,-0.074546
0.0057837,0.0214,0.024901,0.041853,0.018161,0.060306,0.41923,0.17495
-0.0017734,-0.13372,-0.040482,-0.030186,-0.027346,-0.087733,-0.0896,0.10094
-0.040515,0.077639,0.075076,0.030968,0.020629,-0.0046745,-0.42705,-0.095512
0.038032,0.062043,0.012422,0.014446,-0.0021981,0.052017,0.2388,-0.073397
0.054085,-0.0083773,0.068328,-0.0016765,-0.0022717,-0.0028925,0.20944,0.21121
-0.062919,-0.0554,-0.15606,-0.025357,0.020289,0.019018,-0.28397,-0.28335
0.069474,0.092758,0.11206,0.036957,0.0029789,0.0093637,0.1217,0.074057
-0.064733,-0.15007,-0.10457,-0.064924,-0.069698,-0.054357,-0.032276,-0.068485
0.065463,0.075216,0.052834,0.036063,0.013458,0.016147,0.20752,0.11045
-0.024307,0.1278,0.013611,-0.011664,0.01843,0.049608,-0.012131,0.33993
-0.029,-0.15636,0.0043133,0.0029298,0.02374,-0.00043762,0.37595,-0.64214
-0.088536,0.07457,-0.060666,0.017535,0.029757,-0.032188,-0.81184,0.05104
0.063664,-0.077272,0.11615,0.0324,-0.017929,-0.061178,0.13942,0.22006
-0.032327,-0.11894,-0.15203,-0.069416,-0.041041,0.029734,0.18772,-0.10895
-0.00069594,0.13785,-0.10673,-0.045541,-0.039576,0.021617,0.034639,0.40107
0.11988,0.045252,0.18215,0.065031,0.056638,0.015693,-0.038554,-0.11792
0.0010607,-0.013742,0.11307,0.04347,0.036401,-0.019806,-0.24138,-0.40297
-0.006371,0.023039,-0.025298,-0.024519,-0.038141,0.015994,0.19411,0.39339
0.0025899,-0.0093082,-0.061733,0.009174,-0.0033024,-0.018356,-0.10443,0.18048
-0.075042,-0.010409,0.11243,0.034836,0.046831,0.040335,0.4903,-0.52274
-0.00618,0.096586,-0.18293,-0.049328,-0.020768,0.035015,-0.1999,0.42095
-0.0026326,-0.064375,0.13817,0.03009,0.012614,-0.050547,-0.41684,-0.67765
-0.025607,-0.22042,-0.25955,-0.10952,-0.087249,-0.052599,0.28402,0.33014
0.13621,0.16759,-0.015623,0.016615,0.015871,0.091392,0.20563,0.31356
-0.14909,-0.032473,0.011762,-0.044198,-0.029267,-0.15731,-0.41226,-0.23188
-0.0052764,-0.092916,0.15937,0.075515,0.019731,-0.079452,0.17762,-0.021002
0.053275,0.18285,0.091274,0.063203,0.08469,0.25512,-0.089877,0.098359
-0.011517,-0.047842,0.15801,0.066805,0.048034,0.0029206,0.14248,-0.011502
0.12114,0.12975,-0.025257,-0.023969,-0.020621,0.0076423,0.037415,-0.16144
-0.072318,-0.14366,-0.26581,-0.061835,-0.036216,0.0032683,0.16504,0.3675
-0.022286,0.045554,-0.011532,-0.047903,-0.062085,-0.15924,-0.33291,-0.30865
0.035762,-0.15504,0.0091036,-0.0063622,0.0027862,-0.066417,-0.039853,0.15954
0.0068546,0.097274,-0.056154,0.00015321,0.017703,0.23449,0.15731,0.035068
0.038394,0.11399,0.28567,0.097257,0.037868,0.0091524,0.26312,-0.27052
-0.19052,-0.1056,-0.25225,-0.088716,-0.04502,-0.12462,-0.89737,0.35805
0.015409,0.055394,-0.057198,-0.032452,0.012722,0.099954,0.5471,-0.39267
-0.0072719,-0.082449,0.093457,-0.013097,-0.052851,-0.29204,-0.080541,-0.15543
0.21905,0.059759,0.16441,0.096312,0.041094,0.029366,0.20462,0.43018
0.0081776,-0.087132,-0.26328,-0.023088,0.069196,0.37846,0.40861,0.084517
-0.20895,0.001648,0.14789,0.012159,-0.046067,-0.20438,-0.24588,0.098492
0.013982,0.014806,0.13994,0.037683,0.015491,0.023692,-0.20153,-0.4637
0.052517,0.085945,-0.29684,-0.072751,-0.012605,0.14837,0.059639,0.11015
0.0082185,-0.011361,0.31857,0.069519,-0.0068035,-0.28451,-0.35767,-0.21056
0.083667,-0.0042816,-0.02593,-0.0066147,-0.00017518,0.028006,-0.12057,0.43348
0.090378,0.08246,-0.12392,0.0011828,0.083499,0.26349,0.47297,0.080601
-0.29319,-0.16693,-0.12779,-0.096541,-0.12466,-0.26774,-0.20121,-0.13759
0.11141,0.026966,0.045611,0.034905,0.053802,0.16677,0.32792,0.17592
0.053193,0.2173,0.043559,-0.018915,-0.030121,0.0031314,-0.07714,-0.55042
-0.062168,-0.24524,-0.024004,-0.0075021,-0.032561,-0.14211,-0.12396,0.15133
0.054317,0.061197,0.13411,0.054724,0.055058,0.067161,-0.059455,0.093441
-0.089138,-0.0030961,-0.15849,-0.018092,-0.031661,-0.05563,0.017264,-0.10662
0.031662,-0.069245,-0.0073203,0.025808,0.02905,0.014429,0.0061905,0.23919
-0.035476,-0.15858,0.028942,-0.030755,-0.019193,-0.056874,0.064109,0.053313
0.10097,0.22317,0.039442,0.0086768,0.05916,0.19304,-0.10638,-0.038942
0.012005,0.085363,0.16695,0.043131,-0.024184,-0.03923,0.0088494,-0.186
0.11208,0.03811,-0.12676,0.033569,0.035767,0.059558,0.26687,0.22907
-0.22373,0.0030398,0.056315,-0.067341,-0.065812,-0.13543,-0.31945,-0.22381
-0.050322,0.041585,-0.19945,-0.057255,-0.016905,0.039554,0.10643,-0.11526
0.12412,-0.17593,0.11142,0.039473,0.0099081,-0.080234,0.096773,0.21078
0.010074,-0.1355,-0.099728,-0.0046066,-0.0017925,-0.011263,0.14223,0.10598
0.028941,0.13031,0.0003447,0.0050943,0.025352,0.08933,-0.35911,-0.0074661
-0.13222,-0.2152,0.18271,-0.0022214,0.012574,-0.037093,0.14067,-0.097806
0.11998,0.28866,0.21911,0.098241,0.037559,0.093144,-0.027999,-0.23474
-0.042869,0.08741,-0.29751,-0.084066,-0.063934,-0.043911,-0.47915,0.09012
0.027524,-0.021632,-0.1482,-0.0019259,0.028514,0.090526,0.5328,0.20529
0.010824,-0.16296,-0.0035737,-0.014159,-0.051901,-0.1598,0.38574,0.19676
-0.092841,-0.015805,0.10718,-0.02633,-0.0077104,-0.12273,-0.91856,-0.42798
0.068358,0.021703,0.022521,0.016955,0.013337,0.11629,0.72169,-0.013408
0.010435,0.020056,0.026186,0.053791,0.043128,0.089118,0.03176,0.20515
-0.00052333,0.080862,-0.0048542,-0.032639,-0.01947,0.054127,0.040465,0.17984
-0.057796,-0.014665,0.039859,0.023356,0.020973,-0.097645,-0.48952,-0.15252
0.010899,-0.00094624,-0.058399,-0.028481,-0.0076638,0.094911,0.1969,0.075085
0.0027148,-0.12013,0.12127,0.014451,-0.020008,-0.28233,-0.26145,-0.27739
0.073993,0.12795,-0.086896,0.057721,0.076922,0.28601,0.20518,-0.14611
-0.0097464,-0.02976,0.10411,-0.0087304,-0.030171,-0.10666,0.058425,0.26764
-0.061278,-0.14747,-0.19044,-0.099505,-0.052866,0.023704,-0.12972,-0.1982
0.11433,0.056591,-0.1517,-0.0039439,0.0085069,0.13781,0.5882,0.69235
-0.17081,0.098451,0.28212,0.012356,-0.08036,-0.34252,-0.90296,-0.6693
0.14544,0.079802,-0.16239,0.020005,0.087234,0.286,0.46858,0.13058
-0.19496,-0.10897,0.12481,0.027285,-0.011415,-0.17159,-0.08572,0.074898
0.065649,-0.046613,0.18389,0.042516,0.02299,-0.089825,0.0899,0.020684
0.13809,0.047201,-0.34328,-0.051065,0.034999,0.37554,0.22841,0.18395
-0.05585,0.022961,-0.018009,-0.034455,-0.052911,-0.11886,-0.0080791,-0.062819
0.030579,0.01246,0.1997,0.0299,-0.021685,-0.1665,-0.26999,-0.11195
-0.0168,0.014924,0.22449,0.094996,0.081793,0.076462,-0.25418,-0.29202
-0.033983,-0.063758,-0.35754,-0.10504,-0.024018,0.03187,-0.18011,0.054214
-0.036527,-0.035959,0.00032442,-0.015843,-0.050541,-0.073868,0.51494,0.10856
0.038308,-0.010464,0.016327,0.0029315,0.001637,-0.0066264,0.29295,0.076902
-0.059072,-0.0097927,0.072562,0.013539,-0.0086973,0.0066888,-0.34449,-0.16312
0.039024,0.053022,-0.011553,0.015804,0.050749,0.11408,-0.098676,0.29658
0.028413,0.038264,-0.033895,-0.021646,-0.031368,-0.020879,0.06348,0.042536
0.034479,0.071523,0.16076,0.049531,0.025935,0.030979,0.16704,0.050586
-0.059783,-0.065763,0.016803,0.010508,-0.011847,-0.14485,-0.25549,0.17053
0.081504,0.0090213,-0.27114,-0.060649,-0.011892,0.04511,0.023214,-0.84988
-0.12007,-0.07957,0.038792,-0.0077067,-0.013125,-0.047664,0.011093,0.3232
0.1085,0.074191,0.18893,0.075635,0.070641,0.13947,0.28567,0.23518
-0.11611,-0.10044,-0.14828,-0.083918,-0.072751,-0.1744,-0.45128,-0.34113
0.10407,0.076013,0.12184,0.06074,0.041476,0.13612,0.22786,0.39136
-0.05947,-0.013617,-0.11679,-0.036958,-0.023759,0.024605,0.10964,-0.12129
0.033685,-0.080027,-0.027132,-0.0094926,-0.010256,-0.024196,-0.027359,-0.081225
-0.077456,0.088081,-0.13173,-0.059685,-0.058353,-0.0099835,0.40828,0.020221
0.044715,0.045785,0.36683,0.13299,0.082089,-0.16693,-0.78028,0.0742
0.095753,0.090299,0.07031,0.0061371,0.04383,0.1926,0.14879,-0.028535
-0.064627,-0.16875,-0.19328,-0.04185,-0.0093007,-0.017312,0.008913,0.10247
-0.02195,-0.012435,-0.11942,-0.034524,-0.030791,0.023631,0.15375,-0.11117
-0.033571,-0.026595,0.19032,0.043603,-0.013234,-0.13781,0.015773,0.072703
0.057231,0.05444,-0.17,-0.034126,-0.011661,0.02942,-0.019318,0.12326
-0.038162,0.03532,-0.066905,-0.0099064,-0.010648,0.064122,-0.16009,-0.46628
0.10249,0.033077,0.0082382,-0.00085295,0.028848,0.16127,0.46199,0.0087071
-0.12998,-0.015087,0.048275,-0.030301,-0.057096,-0.31234,-0.5358,0.21401
-0.016804,-0.1487,0.108,0.058052,0.052068,0.10383,0.17349,0.0026459
0.090207,0.13165,-0.00086109,-0.001504,0.020642,0.081279,0.32993,0.24252
-0.02823,0.043995,-0.045652,-0.006113,-0.010589,-0.0052574,-0.31122,-0.23075
0.025533,-0.092101,0.049223,0.02815,-0.0025359,-0.015291,0.44304,0.26104
-0.015102,-0.027351,0.44497,0.038226,-0.01,-0.089392,-0.53381,-0.23756
0.020721,0.11265,-0.38442,-0.038922,0.021489,0.038324,-0.23423,0.012853
0.0071217,-0.086525,-0.41711,-0.078662,-0.0020638,0.087065,0.10064,0.0096643
0.037292,0.062558,0.19828,0.067365,0.0050885,-0.020685,0.41815,-0.10845
-0.13885,-0.06477,-0.16971,-0.092752,-0.066493,-0.14362,-0.21668,0.0091618
-0.028634,0.01663,0.3097,0.050963,0.017665,0.039237,-0.082788,-0.051311
0.12674,0.10484,0.07734,0.061828,0.031255,0.090917,0.40725,0.20364
-0.030735,-0.032938,-0.082195,-0.051469,0.005882,0.12894,-0.035247,0.096418
-0.0073507,-0.051124,0.044722,0.00088834,-0.042458,-0.1982,-0.42664,-0.347
0.04985,-0.15882,-0.0090429,0.0397,0.042783,0.046843,0.52056,0.49314
-0.12374,0.0048656,0.17096,0.01041,0.0039432,-0.12072,-0.72682,-0.47463
0.042642,0.050209,-0.29101,-0.032533,-0.010578,0.10326,0.48568,0.016989
0.13471,0.21152,-0.076229,-0.011571,0.022436,0.1244,0.016212,0.17978
-0.082799,0.0032451,0.00072974,-0.021244,-0.038002,-0.1048,-0.088828,0.0057657
0.021553,0.032564,0.172,0.023498,0.018616,0.0557,-0.071332,-0.029697
-0.038269,-0.16439,0.13078,0.028057,-0.026871,-0.18357,-0.12575,-0.038202
0.01736,-0.028255,-0.15594,-0.00044353,0.0049074,0.075585,0.1787,0.031958
-0.01598,0.031965,-0.0018621,-0.023364,0.035666,0.059718,-0.086737,-0.072585
0.0015993,0.037855,-0.0012931,-0.0095509,-0.012697,0.026819,0.09398,0.22304
0.0075491,0.05913,0.088138,0.025622,0.00065615,0.008489,0.0096766,0.056883
-0.03657,-0.25501,-0.24833,-0.02666,0.0057828,0.013016,0.62046,-0.16619
-0.035854,0.097385,0.11567,-0.032803,-0.059348,-0.1153,-0.63726,-0.22722
0.018938,-0.0059593,-0.02913,0.015872,0.0088768,-0.0086962,-0.22536,0.055345
0.012028,0.016034,0.10793,0.042048,0.031176,-0.041684,0.14484,0.098933
0.085144,0.1972,0.090657,0.015081,0.023415,0.098562,-0.35439,-0.14686
0.090443,-0.10913,-0.09576,-0.010024,0.0090456,0.099608,0.61398,0.27556
-0.15174,0.050818,0.0098843,0.0136,-0.012155,-0.062216,-0.10483,-0.090907
0.014361,-0.13592,-0.069181,-0.039343,-0.0015372,0.026672,-0.032803,-0.017185
-0.044896,0.11057,-0.060049,-0.020917,-0.014303,-0.0015282,0.17487,0.14594
-0.0023319,-0.031871,0.13036,0.0057835,-0.01971,-0.16303,-0.34851,-0.21977
0.094324,0.067699,-0.014216,0.047991,0.020909,0.088644,0.053147,0.14868
-0.0055262,-0.076578,-0.041137,-0.0041334,0.005781,0.042394,0.37917,0.13047
-0.083383,-0.153,0.018098,-0.018059,-0.01822,-0.098546,-0.44177,-0.1378
-0.053192,-0.0052935,-0.024009,-0.017286,-0.019645,-0.029207,-0.059203,-0.28474
0.13235,0.15632,0.059331,0.0061536,0.025284,0.16481,0.19767,0.16347
0.0051116,0.067402,-0.012758,-0.0021005,0.031036,0.061903,0.3827,0.04132
-0.082671,-0.059797,-0.10706,-0.018186,-0.017617,-0.1034,-0.53595,0.036171
0.025826,0.0023905,0.12046,0.044255,-0.0031697,-0.04203,-0.019462,-0.02286
0.026269,-0.026641,-0.072345,-0.0019557,0.012075,0.019396,0.31504,0.037867
-0.034411,0.0094133,-0.021751,-0.023865,-0.042136,-0.075452,-0.39927,-0.19359
0.070083,0.00062492,0.10739,0.0096967,0.021617,0.09526,0.61947,0.30826
-0.074859,-0.015006,-0.053337,0.020306,9.4469e-06,0.00029782,-0.19045,-0.1971
0.014395,-0.0076211,0.072651,-0.00031895,0.017749,-0.047792,-0.28121,0.38519
0.024537,0.052542,-0.094425,-0.044925,-0.034889,0.013531,-0.058093,-0.64753
0.040779,-0.038961,0.022084,0.034374,0.044861,0.020204,0.1126,0.38431
-0.10144,0.068533,0.030567,-0.036299,-0.032381,-0.012211,-0.11229,-0.1917
0.05865,-0.00024856,0.001115,0.03187,0.022228,0.080246,0.36106,0.15487
-0.041211,-0.20577,0.012584,0.035765,0.013305,-0.038466,-0.12416,0.12622
0.029291,0.17195,-0.03487,-0.032138,-0.043419,-0.071499,-0.069203,-0.23161
-0.017959,-0.029332,-0.12306,-0.022848,0.016407,0.043744,0.14143,0.10427
0.068182,-0.026175,0.016742,-0.0059128,-0.033348,-0.05186,-0.15813,-0.0382
-0.070496,0.0039055,0.059548,-0.019523,0.010946,0.03269,0.24935,0.028806
-0.0032975,-0.054499,0.10959,0.06217,0.032581,-0.061564,-0.32448,-0.19393
0.0048292,0.11997,-0.042368,-0.017965,0.00066085,0.15792,-0.12957,0.34941
-0.038094,-0.07418,-0.16939,-0.048611,-0.014357,-0.066508,0.14748,-0.29301
0.047287,0.073038,0.21969,0.048356,-0.012571,-0.078656,-0.17932,0.028462
0.080427,0.067579,0.099104,0.030348,0.04475,0.11333,0.43861,0.14284
0.0053705,-0.02269,-0.11241,0.013812,0.016494,-0.014509,-0.051913,-0.019774
-0.046528,-0.15349,-0.082356,-0.033444,-0.035379,-0.064383,0.10798,-0.084535
-0.021964,0.063542,0.045591,-0.0030199,-0.0097749,0.056852,-0.22961,0.19791
-0.015722,-0.029386,-0.14477,-0.044172,-0.031989,-0.026266,0.076149,0.092173
-0.10643,0.0046792,0.072251,0.006643,-0.00052547,-0.071775,-0.32623,-0.51224
0.096671,0.056867,0.12684,0.032091,0.014464,0.061006,0.25875,0.055492
0.01611,-0.12141,-0.27624,-0.045735,0.021114,0.028632,-0.067011,0.26328
-0.034562,0.057829,0.15446,0.03148,-0.011432,-0.051216,-0.0061912,-0.13163
0.13334,0.057766,0.11683,0.030008,0.042183,0.095475,0.16807,0.43298
-0.11971,-0.017964,-0.043109,-0.018251,-0.020916,-0.085425,-0.17714,-0.33197
0.035195,0.097798,0.035496,0.012217,-0.0053166,0.015897,0.027793,-0.090357
-0.034374,-0.11763,-0.084369,-0.011108,0.0030018,-0.037812,0.054868,0.001992
-0.00038412,-0.015924,-0.0048404,-0.025701,-0.027361,0.042521,0.066088,-0.038747
-0.0039865,-0.0121,-0.016457,0.0072688,0.0049487,-0.0011617,-0.011305,0.037977
0.05552,0.032836,-0.0041123,0.0092485,-0.0096596,-0.013076,-0.12505,0.09191
0.028658,0.077754,0.18615,0.050013,0.045814,0.11554,0.30107,0.060576
-0.015279,-0.074855,-0.033663,-0.0037805,-0.0084543,-0.092546,-0.14799,0.10762
-0.045836,0.041757,-0.18846,-0.04317,-0.0084736,-0.012893,-0.30786,-0.29121
-0.0087295,0.097977,0.064968,-0.021479,-0.016756,-0.01307,-0.0051027,0.081741
-0.075755,-0.25067,-0.093236,-0.048022,-0.041075,-0.10101,0.0050992,-0.071535
0.050511,-0.0040239,0.0023825,0.049386,0.051448,0.10625,0.29622,0.27144
0.07409,0.11239,0.1351,0.052479,0.026516,0.062166,0.16823,-0.17119
-0.09771,0.045632,-0.052178,-0.022555,-0.014242,-0.053137,-0.29051,-0.27454
0.090797,-0.014618,0.036357,0.012314,0.0073574,0.057684,0.12452,0.2899
0.046622,0.035498,0.0741,-0.0065618,-0.017997,-0.019004,-0.078679,0.11676
-0.12827,-0.090995,-0.094452,-0.039868,-0.027719,-0.087514,-0.27603,-0.19114
0.11302,-0.033105,0.038437,0.045286,0.033002,0.094657,0.76508,0.35989
-0.050162,0.092925,-0.0045879,-0.01681,-0.015364,-0.12067,-0.82482,-0.43946
-0.063679,-0.0017955,-0.068577,-0.015433,-0.016402,0.0088699,0.18627,-0.19699
0.040525,-0.036622,-0.014461,-0.0055848,0.030021,0.10054,0.265,0.35417
-0.019494,0.0027883,0.0077609,-0.011078,-0.024477,0.0058387,-0.082367,0.066331
0.029097,0.036555,0.059231,0.045813,0.030988,0.0058252,0.088767,-0.10743
0.053045,0.015847,-0.017289,0.008464,0.0087439,-0.016976,-0.096355,-0.0039545
-0.0338,-0.037737,0.082386,0.0015778,-0.013341,-0.078495,-0.050557,0.062566
-0.012638,0.0071971,-0.063553,-0.021877,0.0035067,0.071037,-0.13893,0.027406
-0.047191,-0.021976,-0.0091337,-0.007176,-0.011265,-0.045026,0.016171,-0.018002
0.074083,0.054473,0.067171,0.022502,0.012536,0.018727,0.27684,0.018196
0.0082454,-0.05951,-0.11426,-0.033949,-0.010981,0.043812,-0.1594,-0.02904
-0.11881,-0.10469,-0.090699,-0.043141,-0.026908,-0.055351,-0.07258,-0.15162
0.03749,0.045621,-0.063663,0.003301,-0.0036537,-0.0049737,-0.017597,0.034913
0.016767,0.064906,0.19446,0.043268,-0.0033444,-0.05484,0.19913,0.025517
0.037915,0.0089513,0.066629,0.029967,0.028995,0.12315,0.23076,-0.012307
-0.0010058,0.018716,0.059807,0.0099621,0.007525,-0.088554,-0.28602,-0.1142
0.0084784,0.078051,-0.0074851,0.021642,0.025839,0.10627,-0.12094,0.13658
0.033815,0.0060174,-0.082899,-0.014032,0.013223,0.05049,0.17573,0.55388
-0.067099,-0.042784,0.018719,-0.027683,-0.038702,-0.16311,-0.25742,-0.80793
0.14969,-0.03871,-0.032519,0.019037,0.017906,0.066248,0.22011,0.39288
-0.1605,-0.084453,-0.065444,-0.046027,-0.020544,-0.027514,0.12582,-0.057996
-0.091728,-0.063172,-0.14981,-0.066365,-0.044879,-0.038101,-0.42729,-0.21166
0.059548,0.1116,0.098924,0.060376,0.038785,0.042858,0.05781,0.32597
0.0053344,-0.10573,0.066039,0.0072335,-0.01909,-0.041462,0.1566,-0.15983
0.11431,0.2006,-0.0036477,0.0098698,0.024384,0.12424,0.31123,0.32835
-0.057251,0.008862,0.056074,-0.0087163,-0.017502,-0.13068,-0.35003,-0.63234
-0.054841,-0.13272,0.090112,0.014682,-0.011232,-0.00052531,0.041318,0.20104
0.052105,0.034295,0.059316,0.072379,0.059281,0.038681,0.085965,-0.012863
0.029438,-0.0059007,-0.24854,-0.062672,-0.024601,0.096295,-0.031517,0.12006
-0.013921,0.026922,0.031519,0.0069711,0.018099,-0.023588,0.035922,-0.036844
0.046004,0.084221,0.068755,0.0065743,-0.0085335,-0.032962,0.13447,0.30137
-0.073401,-0.1329,-0.10029,-0.049568,-0.027193,-0.026882,-0.092834,-0.35464
-0.045438,0.053273,0.16311,0.024949,0.0081272,-0.053523,-0.39276,0.066991
0.074011,-0.022891,-0.0013507,0.034165,0.034177,0.050128,0.12218,-0.09769
-0.0048413,0.0050042,-0.10905,-0.061062,-0.051095,-0.021222,0.24757,0.17353
-0.016487,0.12152,-0.08827,-0.01024,0.0099859,0.091737,0.10903,0.10498
-0.015097,-0.14867,0.016397,0.015705,-0.0089122,-0.071451,-0.22853,-0.1811
-0.0074291,-0.030053,0.10615,0.033607,0.0099397,0.0057867,0.027706,0.054814
-0.015531,-0.090294,-0.058562,-0.025634,-0.010846,-0.065919,-0.00042958,0.14664
-0.014511,0.048269,0.008641,-0.0047925,0.0076389,0.058544,-0.12831,-0.21123
0.059361,0.083087,0.011764,0.010728,-0.0042424,0.013227,0.39089,-0.19029
-0.0040883,0.054342,0.13006,0.059985,0.055524,0.0021658,-0.40002,0.039155
0.076542,0.086846,0.080582,-0.0059898,-0.01602,-0.0054586,0.1264,0.17472
-0.0039136,0.007218,-0.17052,-0.024068,0.0075776,0.052738,-0.0056074,0.054787
-0.090194,-0.03081,0.022209,-0.0031931,-0.0068164,-0.026999,0.10928,-0.05312
-0.01171,-0.10836,-0.031455,-0.014768,-0.051818,-0.081636,0.038861,0.054938
-0.0041708,-0.072006,-0.15378,-0.051818,-0.010675,0.059456,-0.13464,-0.051269
0.032844,0.03708,0.045033,0.0024009,-0.00094792,0.012202,-0.0093542,0.0014252
-0.018638,-0.032082,0.057537,0.022881,0.031776,0.017703,0.097797,0.42123
0.051986,0.15044,0.13515,0.04125,0.032625,-0.065423,-0.066952,-0.55269
-0.083298,-0.21088,-0.13405,-0.019966,-0.01414,0.020302,0.087574,0.022418
0.036946,0.12819,0.15863,0.043135,0.016424,0.0015533,-0.20526,-0.0034344
0.046297,0.068408,-0.093778,-0.018665,-0.016306,-0.0196,-0.0072908,0.096233
-0.03091,-0.10686,-0.092408,-0.048436,-0.026317,0.020138,0.30869,0.11974
-0.014095,0.072622,0.062581,0.024658,0.017815,0.043586,-0.24616,-0.062994
-0.035305,-0.0018403,-0.05783,-0.017794,-0.032069,-0.049876,-0.042976,-0.10465
0.031017,-0.017939,0.077525,0.011866,0.0119,0.0061902,0.086053,-0.087452
0.067989,0.039056,0.085071,0.035505,0.032952,0.040507,0.065725,0.093297
0.0053633,0.074099,-0.020836,0.0061158,0.00806,0.0065385,-0.21178,-0.06831
-0.024179,-0.11727,-0.054227,-0.014019,-0.023374,-0.056578,0.24562,0.35762
-0.083389,-0.020436,-0.040075,-0.048599,-0.014267,-0.047435,-0.11861,-0.29461
0.0071106,-0.11244,-0.010934,-0.011973,-0.01146,0.05706,0.48924,0.26081
-0.018639,0.052161,-0.11619,-0.0060071,0.023942,0.053304,-0.55979,-0.074096
0.049937,0.052136,0.14361,0.054889,0.021257,-0.0045705,0.21475,0.047842
0.032722,0.021166,0.010384,0.014056,-0.020055,-0.070261,-0.23711,-0.22855
0.030763,0.10068,0.02312,0.011647,0.00091306,0.027583,0.067299,-0.19441
-0.065914,-0.076015,0.0021204,-0.007525,0.013173,-0.00834,-0.10637,0.03289
0.062378,-0.0089325,0.025521,-0.0048498,0.0083191,0.024804,0.20444,0.50197
-0.069288,0.051429,0.085562,0.003738,-0.0062469,-0.068439,-0.1068,-0.58866
0.023098,-0.12239,-0.29414,-0.10685,-0.046297,0.09475,0.08834,0.35084
-0.027726,0.023183,0.12116,0.054197,0.0055076,-0.04018,0.14484,-0.011604
0.0050677,0.065179,0.019562,0.026362,0.0089674,-0.027672,-0.21575,-0.079232
0.028334,-0.036345,-0.066871,-0.0022441,0.0037776,0.070121,0.016236,0.19655
-0.035177,0.022813,0.073687,0.015943,0.02192,-0.043241,0.044678,-0.10591
0.073384,0.062991,0.11397,0.034717,0.0094229,0.0077632,0.15836,0.26228
-0.074618,-0.10274,-0.093775,-0.054736,-0.017492,-0.010655,-0.12813,-0.51345
0.029552,-0.035798,-0.017835,0.013618,0.019711,0.042749,-0.011617,0.23625
-0.058762,0.0074313,-0.017408,-0.025625,-0.027214,-0.089255,-0.14995,-0.33485
0.098233,0.051962,0.032421,0.015069,-0.0098563,-0.015589,0.17417,0.3805
-0.054275,0.021122,-0.079618,-0.020709,0.016876,0.045205,-0.30607,-0.15047
0.0066227,-0.021522,0.075606,0.022948,-0.0098926,0.022677,0.24435,0.071305
0.076943,-0.01298,-0.080781,0.012719,0.010909,0.064717,0.082474,0.42835
-0.055307,0.038751,0.1925,0.018281,0.008411,-0.017113,0.16072,-0.60247
-0.024027,0.0078391,-0.11335,-0.023565,-0.017961,-0.028731,0.025244,0.28444
-0.041112,0.0023319,-0.085248,-0.035381,-0.014059,-0.080864,-0.63714,-0.40949
0.048983,0.036264,0.19785,0.076009,0.050915,0.059596,0.30576,0.31761
-0.035369,-0.16538,-0.20993,-0.080398,-0.026473,0.0010378,0.056645,0.077148
0.026101,0.10705,0.066276,0.018721,-0.011977,-0.0070894,-0.072219,-0.15236
0.053957,-0.037922,0.073632,0.053236,0.039803,0.058615,0.52856,0.1541
-0.029447,0.016638,0.00041371,-0.015451,-0.019268,-0.043553,-0.35166,-0.065073
-0.035976,-0.010242,-0.066271,-0.053828,-0.055887,-0.10954,-0.39976,-0.11441
0.03509,0.03842,-0.023429,0.017069,0.016499,0.088441,0.20555,-0.0023987
