-0.14765,0.41023,0.13899,0.26563,0.048029,0.03738,0.033758,0.0041058
-0.19042,-0.36798,-0.07095,-0.15833,-0.021698,-0.055712,-0.12833,-0.057556
-0.01979,0.1077,-0.0080159,0.17136,0.025289,0.061385,0.053353,0.12276
-0.10489,-0.13072,0.20875,-0.20742,0.0091045,-0.033351,0.00016988,-0.1508
0.047081,0.089907,-0.53143,-0.27125,-0.085919,-0.043016,-0.0071792,0.0041409
0.41423,0.11498,0.13016,0.090653,0.0060117,0.0013859,-0.023844,0.056227
-0.4623,0.040058,0.092187,-0.080032,0.011838,0.014374,0.19212,0.13074
0.060362,-0.10187,0.24629,0.3137,0.0023906,-0.034704,-0.24201,-0.34977
0.52329,-0.075007,-0.038815,-0.014069,0.079772,0.12039,0.19769,0.22504
-0.322,-0.05038,-0.31607,-0.14705,-0.075913,-0.082354,-0.17546,-0.073496
-0.21681,-0.059155,0.080177,0.095198,-0.019176,-0.033329,-0.063464,-0.064875
0.44067,0.63218,0.018223,0.00070527,0.015455,0.040795,-0.0042686,0.12623
-0.90452,-0.9314,0.31883,0.012173,0.043119,-0.016706,0.14366,0.062035
0.77025,0.48165,-0.36987,0.35248,0.031817,0.05119,0.0448,0.093151
0.057471,-0.061845,0.060476,-0.43544,-0.0036954,0.04819,0.058328,-0.031813
-0.083589,0.39536,0.39748,0.15291,0.021722,-0.018882,-0.0040838,-0.12691
-0.48307,0.0063183,-0.42293,-0.26722,-0.11121,-0.10394,-0.19058,-0.21691
0.20056,-0.16847,0.035405,-0.1725,-0.043228,-0.004284,0.067724,0.11138
0.35578,-0.91039,0.013956,0.32156,0.015064,-0.024545,0.089884,0.099947
0.14483,0.56385,-0.15128,0.1008,0.095638,0.093606,-0.01557,0.022612
-0.089658,0.21155,0.39998,-0.049889,-0.011511,-0.016139,-0.45206,0.052097
-0.73837,0.03069,-0.072872,-0.22086,-0.047651,-0.032404,0.39781,-0.12301
0.33269,0.59819,-0.27094,0.23876,0.026983,0.038045,0.14399,-0.0015663
0.39151,-1.017,-0.098385,-0.09974,0.0017867,-0.02268,-0.22062,0.089317
-0.26955,-0.20031,0.14968,0.29429,0.079807,0.075033,0.20312,0.080169
-0.40465,0.24677,0.34155,0.083012,-0.028453,-0.059243,-0.12331,-0.16899
0.55993,0.46526,-0.16324,-0.43153,-0.011138,0.027488,-0.0042108,0.053251
-0.24832,-0.078765,-0.1389,-0.11922,-0.1111,-0.10266,-0.033023,-0.049629
0.50779,0.80451,0.014451,0.18975,0.061798,0.096657,0.15773,0.061673
0.054656,-0.99402,0.1227,-0.036875,-0.00049092,-0.054852,-0.48636,-0.042427
-0.53884,0.064204,-0.19164,0.068284,-0.0088071,0.020361,0.41,-0.033917
-0.34531,-0.12232,0.13159,0.084616,-0.01749,0.017097,0.042261,0.063336
0.085606,-0.40334,-0.050191,0.021872,0.11457,0.028692,-0.034963,0.045381
0.39945,0.33483,-0.1445,-0.33659,-0.096539,-0.038897,-0.12675,-0.065599
0.35132,0.63829,0.37158,0.065661,-0.017672,-0.037399,-0.085387,-0.14623
-0.4439,-0.42865,-0.36889,0.049855,0.015313,0.0097157,0.28347,0.32511
0.31685,0.11449,0.36166,0.39708,0.072538,0.055666,-0.099363,-0.12209
-0.17957,0.42952,-0.1695,-0.17516,-0.018296,-0.00089829,0.022981,0.088941
-0.010745,-0.93788,-0.17902,-0.0829,0.046938,0.043468,-0.060987,-0.073637
-0.4093,0.58183,0.14013,0.18733,-0.091689,-0.099896,0.023786,-0.03128
-0.3257,-0.93436,-0.14723,-0.12389,-0.043963,-0.039911,-0.13597,-0.27466
0.50866,0.8002,0.28113,-0.1108,0.041512,0.091051,0.062828,0.089286
0.51832,-0.015904,-0.09695,-0.14745,-0.022662,-0.066039,0.16133,0.11823
0.18938,-0.077565,-0.077951,-0.29412,0.02165,0.02023,-0.19751,0.01042
-0.41512,0.65946,0.032892,0.22555,-0.012608,0.021637,0.0041166,0.1979
0.14182,-0.59147,0.046674,0.38308,0.093755,0.070629,0.24435,-0.005509
-0.73472,0.36555,0.08638,0.21928,0.005152,-0.0052472,-0.28086,-0.14655
0.071065,-0.85236,-0.13933,-0.48455,-0.059456,0.0042855,-0.001775,0.0081484
-0.090575,-0.025805,-0.10132,0.1917,-0.076549,-0.16697,0.11886,-0.14483
0.91979,0.93355,0.30817,0.26042,0.063242,0.090044,0.10937,0.040643
-0.48491,-0.50066,-0.14605,-0.39956,-0.007311,0.0097483,0.1068,0.20277
0.50664,0.41359,-0.049809,0.17678,0.06332,0.02226,-0.017586,-0.0043815
-0.11448,-0.29007,-0.19129,-0.13817,-0.045181,-0.043567,-0.12635,-0.29349
-0.42732,-0.451,0.0012156,-0.39996,-0.035914,0.016268,-0.42475,0.11551
-0.59647,-0.36064,0.20884,0.5487,0.044274,-0.039616,0.055278,-0.020201
0.15138,0.93179,0.034208,-0.18797,-0.10931,-0.054432,0.18161,0.15084
0.50385,-0.19431,-0.061435,-0.11421,0.073553,0.15161,0.33892,0.0039559
0.5626,0.80281,0.28077,0.086135,0.077028,0.031244,0.029743,0.032055
-0.31305,-0.66205,-0.14343,0.19728,-0.013278,-0.010109,-0.24312,-0.0059711
0.0095602,-0.26931,-0.0072403,0.4475,0.013172,-0.0047772,-0.03165,-0.14775
-0.1257,0.54206,-0.092852,-0.69422,-0.05493,-0.071012,-0.24751,-0.14155
-0.60073,-1.0729,-0.25194,0.25547,0.055611,-0.037722,0.47847,0.17858
0.37553,0.52611,0.055516,-0.36159,-0.20211,-0.092719,-0.32874,-0.099611
0.095322,0.47279,0.18292,0.14762,0.12524,0.11578,0.19132,0.079973
0.17198,-0.34045,-0.070511,-0.047181,-0.04793,0.0024882,0.039301,0.15558
-0.17173,0.049394,-0.02294,0.5835,0.15378,0.12302,-0.026699,0.088068
-0.35447,-0.44996,0.10825,-0.50831,-0.089645,-0.11545,-0.10051,-0.17034
0.13304,-0.24481,-0.020566,-0.088619,-0.0046863,-0.06375,-0.22947,-0.23057
0.30557,0.70957,0.34723,0.2804,0.033506,0.03628,-0.0082298,0.053876
-0.12154,0.83845,-0.29065,-0.27533,-0.0066572,0.075212,0.42107,0.12634
1.0024,-0.16113,0.11771,0.36267,0.077543,0.068228,0.025026,0.25853
-0.9546,-0.88163,-0.399,-0.50731,-0.13609,-0.079106,-0.14448,-0.13672
0.055562,0.26528,0.048137,0.32696,-0.038284,-0.062828,-0.12973,-0.23967
-0.31614,-0.34814,0.25559,0.17109,0.050861,0.014948,0.19886,0.17643
-0.087935,-0.33822,-0.13505,-0.21661,0.045933,-0.017854,-0.067743,-0.37976
-0.040553,0.072984,-0.035774,0.085763,0.0023801,0.026504,-0.30637,0.077454
0.71226,0.79119,0.12643,0.0076338,0.04607,0.093992,0.56059,0.67453
-0.39423,-0.4094,-0.083266,-0.21702,-0.19719,-0.18944,-0.45805,-0.44657
0.23252,0.51838,0.040357,0.3255,0.14035,0.091305,0.022974,0.19959
-0.0026572,-0.013142,0.13114,-0.32599,-0.011405,0.030872,0.2495,-0.13629
-0.43054,-0.92283,-0.12366,0.08613,0.026985,-0.05773,-0.086623,-0.047512
0.053582,0.59351,0.008868,-0.2509,0.0048181,0.083275,-0.043469,-0.22905
0.14576,-0.12421,0.041969,0.59211,0.022579,-0.031142,-0.10156,0.20997
0.36,0.55812,-0.050644,-0.44825,-0.10853,-0.019384,-0.11761,0.019704
-0.05726,-0.70353,0.0095194,0.39238,0.039865,0.062262,0.38591,0.067277
0.16281,0.2777,0.079682,-0.12961,0.052594,-0.030105,-0.084142,-0.13995
-0.53132,0.056793,-0.14599,0.00022908,-0.039808,0.077,0.19602,0.25648
-0.28389,-0.50448,-0.058071,0.28142,0.074964,-0.17213,-0.30127,-0.24482
0.37197,0.66164,0.055612,-0.87136,-0.1574,0.0034123,-0.073192,-0.028369
-0.25888,-0.73325,0.0097062,0.18433,0.0061722,-0.075618,-0.10121,-0.033461
0.96616,1.0021,0.23655,0.31075,0.13728,0.21689,0.40751,0.45714
-0.80131,-0.25862,-0.13617,0.15972,-0.028254,0.038794,-0.026006,0.0050524
-0.30786,-0.76525,-0.24687,-0.18742,-0.10624,-0.16279,-0.074007,-0.42875
0.42583,0.029921,0.069918,0.12323,0.11536,0.098269,-0.086202,-0.054096
0.16662,0.41598,0.20514,-0.016802,-0.097243,-0.18443,-0.43373,-0.32208
-0.28944,0.023739,-0.11538,-0.24893,0.12319,0.1775,0.41212,0.4417
0.44524,0.07475,0.38014,0.018071,-0.044201,-0.02661,-0.097609,-0.057229
-0.31383,0.26377,-0.25577,0.30374,-0.0066489,-0.015941,0.034431,0.29993
0.27134,0.35277,0.068492,0.18922,0.023635,0.075691,0.24146,0.1307
-0.16411,-1.0703,-0.45345,-0.54913,-0.071851,-0.050005,-0.022173,-0.355
-0.35856,0.34737,0.036887,0.40476,0.033889,-0.0821,-0.22656,-0.088966
0.45221,-0.24402,0.047272,-0.29569,-0.097397,0.0013991,0.0075039,0.14498
-0.41754,0.23721,0.28923,-0.31542,0.11215,0.12132,0.19837,-0.038304
0.71677,0.64071,0.27928,0.91712,0.13936,0.066269,0.32493,0.14881
-0.92652,-0.68924,-0.34112,-0.5167,-0.17126,-0.17912,-0.38312,-0.067205
-0.049721,-0.46114,0.045844,-0.3153,-0.052984,-0.0045526,-0.061412,-0.3569
0.02728,0.10974,-0.21576,0.14398,0.0033249,-0.049186,-0.39001,-0.053733
0.63102,0.19854,0.03826,0.11643,-0.01667,0.055864,0.039452,0.18122
0.45974,0.80726,0.27676,0.55944,0.24743,0.1403,0.16061,0.26475
-0.17505,0.14682,0.0077184,-0.52441,-0.18818,-0.15418,0.18908,0.089193
-0.43419,-0.80844,-0.40917,-0.18148,-0.12823,-0.0929,-0.081938,-0.095243
-0.059229,0.27349,0.43281,0.078856,0.27037,0.30792,0.38135,-0.0556
0.10563,-0.26838,-0.30961,0.23773,-0.032574,0.023408,0.14962,0.088197
-0.69743,-0.66518,-0.12047,0.35334,-0.0072602,-0.11248,-0.3023,-0.22201
0.64265,0.95456,0.14077,-0.60225,-0.092637,-0.015917,-0.094833,-0.075661
0.0049898,-0.25485,0.30158,0.39831,-0.086776,-0.27462,-0.40365,-0.014701
0.16202,0.15179,0.016876,-0.46781,0.10333,0.21969,0.072483,0.17001
0.14653,0.51999,-0.2621,-0.021711,-0.045978,0.021507,0.26862,0.21236
-0.78781,-0.94356,0.064144,0.0031847,-0.05007,-0.079443,0.0039724,-0.37111
0.49699,0.16477,-0.099972,0.32787,0.11506,0.043173,0.14591,0.26544
0.10063,0.2421,-0.091456,-0.37295,-0.026431,0.039466,-0.0074223,0.07044
0.13847,0.20973,0.70696,0.94247,0.22926,0.028292,-0.21966,-0.32743
-0.70462,-0.48755,-0.80487,-0.79428,-0.25008,-0.035873,0.097488,-0.010284
0.3407,-0.1168,0.25861,0.089459,-0.042101,-0.097507,-0.1239,-0.099721
-0.0051703,0.46706,-0.17702,0.069907,0.064554,0.15612,0.11045,0.36764
-0.031927,-0.66404,0.025156,-0.29947,-0.1172,-0.10342,-0.018231,-0.052472
0.48412,0.44903,0.19703,0.54212,0.21776,0.1388,-0.095102,0.06124
0.046201,0.67594,-0.20561,-0.33666,-0.09417,-0.078988,0.3017,0.081665
-0.0073451,0.039568,0.56046,0.21928,0.017779,0.086222,0.18706,-0.24445
-0.68169,-0.564,-0.23218,-0.16525,-0.00067847,-0.25663,-0.73717,0.1416
-0.1995,-0.50458,-0.15645,0.24512,-0.01642,0.025213,0.26968,-0.50603
0.22624,0.17753,-0.20838,-0.31306,-0.052726,0.13515,0.1905,0.46599
0.14241,-0.20365,0.23259,-0.36022,-0.0080844,-0.19205,-0.35095,-0.092564
0.78511,0.90383,-0.017458,-0.0181,-0.031253,0.23145,0.52731,0.42727
-0.78815,-0.40522,0.13961,0.72377,0.25996,0.077527,-0.15164,-0.30955
-0.15227,-0.079347,-0.25925,-0.11769,-0.17438,-0.036983,-0.17669,-0.44167
0.2426,0.42006,0.11352,0.066377,0.016198,-0.073674,-0.047187,0.14294
-0.16373,-0.71811,-0.16299,0.01571,-0.04437,-0.025466,-0.058934,0.032961
0.63008,0.1175,-0.00058525,-0.3517,0.041451,0.021172,0.35968,0.32434
0.21823,0.17024,0.65069,0.45179,0.16375,0.05052,-0.29787,0.10418
-1.0402,-0.13117,-0.51048,-0.68752,-0.2947,-0.28854,-0.014962,-0.17456
0.088359,0.14643,-0.33254,0.32084,0.064968,0.1768,0.36516,-0.02889
-0.0064904,-0.083501,0.39774,-0.30615,-0.068893,-0.044499,-0.39987,-0.086029
0.095825,0.43213,-0.15448,0.6579,0.14067,0.10333,0.18128,-0.098436
0.46401,-0.057013,-0.036476,-0.50451,-0.008531,0.050634,-0.041302,0.33029
0.025754,0.16547,0.49212,0.13072,0.046607,0.078675,0.047704,-0.097813
-0.088412,-0.50447,-0.25133,0.30072,-0.037537,-0.14132,-0.10057,-0.17163
-0.31042,0.049694,0.28436,0.00050108,0.082426,0.0066429,0.21522,-0.0068728
-0.22791,-0.67706,-0.63057,-0.2517,-0.094226,-0.025726,-0.34992,-0.21829
0.9476,0.85364,-0.053008,-0.30529,-0.029293,-0.09133,0.30512,0.12672
-0.51736,0.27052,0.53208,0.25528,0.049906,0.2542,0.071521,0.49175
-0.41709,-0.61445,-0.3038,-0.061459,-0.10708,-0.27854,-0.28353,-0.21512
0.15078,-0.10437,0.020276,0.23647,0.038784,0.11547,0.015855,-0.071454
-0.37938,-0.26775,-0.14813,-0.21926,0.04256,0.12471,-0.12889,-0.078047
0.89534,0.91118,0.18724,0.53039,0.045561,-0.1166,0.25407,0.13817
-0.24052,-0.32857,0.092362,-0.43878,-0.076381,-0.099052,-0.074811,-0.034797
0.25343,0.13845,-0.063377,0.074123,0.021278,0.12415,0.42524,-0.11534
-0.5145,-0.46499,0.15016,-0.17471,0.081333,-0.10222,-0.58131,-0.082385
0.13209,0.86964,-0.15121,-0.029671,-0.11465,0.011205,0.11548,0.32818
0.10231,0.30554,-0.0094377,0.1269,0.097374,0.19828,-0.010139,-0.23563
-0.19556,-0.8451,0.063769,-0.016043,-0.07981,-0.12825,0.02291,-0.023131
0.49861,-0.29881,-0.060748,0.066918,-0.037422,0.10003,0.28114,0.068894
-0.32729,-0.19008,-0.097649,-0.41907,0.067529,0.092019,0.034296,-0.051024
-0.41769,-0.5242,-0.026189,0.36348,-0.039195,-0.24775,-0.26737,-0.044475
0.76666,0.73595,0.31642,0.60277,0.18857,0.12667,0.093401,0.41105
-0.77937,0.84015,-0.10083,-0.34983,-0.12466,-0.33932,-0.32065,-0.3548
0.40978,-0.15747,-0.27625,-0.15931,-0.018058,0.17575,0.10968,-0.15401
-0.30074,-0.57981,0.17565,-0.49107,-0.077284,0.18943,0.075273,0.13005
0.024547,0.23938,-0.26539,0.18474,-0.020396,-0.31948,-0.35733,0.003503
0.74983,-0.0056314,0.23962,-0.00027096,-0.018314,0.3307,0.72194,0.29199
-0.46562,0.20497,0.044588,0.3357,0.10185,-0.0619,-0.066905,-0.10898
0.24627,-0.23554,0.24452,0.27781,0.13781,0.10457,-0.19913,0.14156
-0.13131,0.14402,-0.10576,-0.1354,-0.027168,0.0012854,-0.096969,-0.31774
-0.67924,-0.66873,-0.077336,-0.31038,-0.1587,-0.18573,0.17536,-0.31577
0.67694,-0.06746,-0.11666,-0.035814,0.0083861,-0.067664,-0.06444,0.43733
-0.13699,0.46991,0.095584,-0.084099,0.035776,0.095888,-0.14732,-0.17341
0.016004,0.58401,-0.19882,0.17147,-0.030658,-0.0089637,0.22107,0.16772
-0.007524,-0.62273,0.10987,-0.095093,0.050236,-0.078355,-0.31265,-0.10605
-0.14694,0.038439,-0.15711,0.14968,0.03538,0.043726,-0.046405,-0.038381
0.1829,-0.032753,-0.053307,-0.076736,-0.044572,0.06848,0.13663,0.31039
-0.017824,0.58694,0.18761,0.039317,0.021149,0.019965,0.11929,-0.34803
0.041018,-0.24143,0.34677,0.26375,0.021945,0.16466,0.1986,0.13399
-0.22482,-0.60935,-0.092641,-0.18523,-0.10383,-0.20737,-0.19567,-0.02697
0.5617,0.81441,-0.14051,-0.004052,-0.050211,-0.11062,0.15539,0.15818
-0.76919,-0.65385,0.38822,-0.31134,0.17654,0.15927,-0.075957,0.12353
0.23742,-0.29918,-0.75853,0.27427,-0.047052,-0.083957,-0.06844,-0.18078
0.082691,0.10824,0.34001,-0.36576,-0.11816,-0.026628,-0.34375,-0.31149
-0.12373,0.11666,-0.5034,0.27517,0.096738,0.027437,0.10064,-0.19898
0.20336,0.12295,0.30656,0.055248,-0.01175,0.039561,0.18179,0.37613
0.51555,1.0754,0.3661,0.41075,0.047763,0.07198,0.12139,0.25146
-0.49379,-0.42458,-0.095554,-0.15953,0.086278,0.022149,-0.0079231,-0.05514
-0.021704,-0.1129,0.0018956,-0.27381,-0.077858,-0.095941,-0.22069,-0.11951
-0.045606,-0.35801,-0.027892,-0.18277,-0.095186,-0.12033,0.20141,0.0055217
-0.057257,-0.18988,-0.18504,-0.29285,0.0011675,0.16544,0.037643,-0.10071
-0.56272,-0.48588,0.029057,0.38065,-0.0010658,-0.12356,-0.27779,-0.10188
0.30789,0.29558,0.088571,0.16645,0.061608,0.18289,0.39952,0.1813
0.44808,-0.15102,0.076463,0.2528,0.0097772,0.021492,-0.17672,-0.017871
0.46175,0.94228,0.036579,0.45302,0.11795,-0.060647,-0.14274,0.41627
-0.17333,0.36812,0.13045,-0.9507,-0.15908,-0.077747,0.10092,-0.50231
-0.80893,-1.0502,-0.51069,-0.34774,-0.17865,-0.082015,0.17109,-0.095344
0.21761,0.18015,0.019091,0.32602,0.07688,-0.038962,-0.11831,0.30033
0.29465,0.15809,0.18173,0.26786,0.17949,-0.093554,-0.67064,-0.22951
-0.26011,-0.68563,0.19026,-0.02808,0.020778,0.30414,0.55691,0.10476
0.23048,0.65366,0.063108,0.17412,0.0071545,-0.093886,-0.23665,-0.062878
-0.048222,0.20803,-0.36075,-0.36694,-0.02614,0.22072,0.74836,0.097208
-0.050874,-0.08721,0.17927,0.60638,0.04456,-0.050005,-0.24456,0.11778
-0.12986,-0.23593,-0.2209,-0.72739,-0.24335,-0.15069,-0.12988,-0.16397
0.23813,0.16427,0.33062,0.043918,0.061616,0.032566,0.10617,0.0027615
-0.14174,0.25203,0.037268,0.37107,0.059705,-0.050575,-0.5157,-0.084901
-0.096687,-0.33049,0.031289,0.009505,0.0079341,-0.05153,0.14227,0.104
0.37447,0.15725,-0.28231,0.066558,0.17173,0.090176,0.37464,0.34999
-0.38326,-0.83606,0.016759,-0.15439,-0.1751,-0.10288,-0.1715,-0.45733
0.36572,0.18955,-0.088808,-0.27088,-0.086433,-0.08358,-0.035394,0.016878
-0.65088,0.13545,0.047885,-0.063509,0.0013303,0.1413,-0.098936,-0.12684
0.37265,0.27115,0.16772,0.34422,0.11278,0.041932,-0.02451,0.16541
0.4529,0.66974,-0.011575,-0.053556,0.061412,0.080658,0.11177,0.30717
0.18463,-0.098518,0.087464,0.088861,-0.034911,0.032,0.0071041,-0.029814
-0.93109,-0.40459,0.21463,-0.047326,0.0037437,-0.0018132,0.17062,-0.29062
0.1538,-0.37336,-0.40316,-0.0081989,-0.049376,-0.21578,-0.037713,-0.021428
-0.21592,0.53878,-0.11644,-0.075034,-0.077638,0.0073949,0.045987,0.18505
0.014974,-1.0958,-0.048662,0.03266,0.019714,-0.050915,-0.53212,-0.54491
0.58824,0.43418,-0.05737,0.087043,0.14019,0.21889,0.50044,0.46957
0.25215,0.73031,0.29659,-0.25714,-0.092105,-0.10468,-0.13845,0.065228
-0.13692,0.20693,0.29546,0.10806,0.07989,0.088239,0.23037,0.070333
-0.31711,-0.13429,-0.037281,0.55656,0.0072821,-0.12369,-0.36192,-0.046976
0.2079,-0.18779,-0.34328,-0.74814,-0.16156,-0.02905,-0.14152,0.094859
-0.080114,-0.25911,0.070912,0.22526,0.042479,0.19284,0.39224,-0.40421
-0.18979,-0.85375,-0.10168,-0.046095,0.057664,-0.12972,-0.29122,0.21983
-0.72926,0.08794,0.058514,-0.16281,-0.029011,0.034555,0.2226,-0.19839
0.52319,0.66612,0.018385,0.21988,0.025807,0.044884,0.35558,0.012217
0.1495,0.40276,-0.17638,0.13406,-0.011179,-0.17713,-0.4396,0.15607
0.72353,0.50583,0.51293,0.0020845,-0.10792,0.047859,-0.03875,0.31156
-0.3539,-0.1549,-0.16315,0.41006,0.25942,0.15694,-0.059968,-0.19248
0.035062,-0.62608,-0.24236,-0.79037,-0.14357,-0.069053,0.17563,-0.12054
-0.35279,-0.057635,-0.082072,0.21351,0.034214,0.025731,-0.019959,0.052369
-0.20719,-0.73318,0.11701,-0.13241,-0.028261,-0.066872,-0.1078,-0.20309
0.19566,0.59488,0.060523,0.071238,0.0040928,0.059113,0.20142,0.083942
0.056261,-0.067699,0.0084606,0.052052,-0.12737,-0.1512,-0.076151,-0.084567
0.13052,0.66028,0.14987,0.02171,0.053188,0.067659,0.099246,0.27724
-0.059007,-0.034929,-0.27245,0.12089,0.08427,0.12177,-0.20925,-0.11913
0.29267,0.033186,0.17865,0.020547,-0.011106,-0.12977,-0.34499,-0.0085913
-0.60991,-0.47981,-0.045042,0.15631,0.11834,0.1017,0.50443,0.26334
-0.037846,-0.55076,-0.10178,-0.45879,-0.20725,-0.098401,-0.2008,-0.3451
0.16792,0.42982,0.029458,0.16461,0.074615,0.13652,0.45974,0.076914
0.66647,0.64205,0.26815,0.32087,0.050029,-0.045558,-0.10964,0.096479
-0.61799,-0.4761,-0.22367,-0.55415,-0.10098,-0.058915,-0.23912,-0.023366
0.07384,-0.080696,-0.080084,0.21878,0.059583,0.081046,-0.031873,-0.073182
-0.11704,0.14048,0.05798,0.10926,-0.030165,-0.13276,-0.16045,-0.076538
0.37115,-0.024363,0.19128,0.056878,-0.02587,0.011838,0.16488,0.15531
-0.12733,0.10325,-0.35816,-0.29486,0.057339,0.00076669,-0.10077,-0.25026
-0.41954,-0.11077,0.2636,0.22132,0.03224,0.038808,0.24108,0.17069
0.4058,0.16088,-0.18299,-0.29007,-0.062099,0.025844,-0.063536,-0.016271
-0.34159,-0.26913,-0.015874,0.16527,0.016243,0.040948,-0.041912,-0.043011
0.54681,0.4445,0.24316,0.22109,0.03243,-0.017181,0.051616,0.27948
0.014586,-0.45288,0.008739,0.28325,0.10312,0.046279,0.00076147,-0.0094081
-0.23584,0.18397,-0.1026,-0.47005,-0.17057,-0.16047,-0.30282,-0.21519
-0.31335,-0.39721,-0.08482,-0.1425,-0.062321,0.064037,0.18709,-0.003538
-0.0052857,0.020021,0.13765,0.30283,0.076365,0.053831,0.14776,0.068839
0.17534,0.25252,-0.024016,-0.12783,0.019252,-0.036698,-0.12798,-0.23438
0.083103,0.06799,-0.056841,0.26027,0.048112,0.079954,0.10473,0.14776
-0.17765,0.1139,0.16222,-0.49328,-0.047417,-0.15977,0.19965,0.20647
0.43408,0.40167,-0.32867,-0.16049,-0.024669,0.1656,-0.067109,-0.23048
-0.10446,-0.44275,0.09575,0.35425,0.0072446,-0.27964,-0.41809,-0.0066524
0.12017,0.033212,0.093056,0.36504,0.12643,0.27095,0.33255,0.20661
-0.41721,-0.053768,-0.17845,-0.30707,-0.097137,-0.06419,-0.17371,-0.14462
-0.20343,-0.18699,0.19762,-0.13918,-0.062448,-0.0023682,-0.26174,-0.098641
0.016593,-0.096971,0.012452,0.12463,-0.020226,0.012557,0.17515,0.095253
0.41224,0.16875,0.072312,0.31738,0.11473,-0.15095,0.049207,0.08603
0.53627,-0.0045045,0.12802,0.045044,0.068352,0.24245,0.32715,0.12406
-0.54198,0.067808,-0.44536,-0.49229,-0.073797,-0.072233,-0.11926,-0.31381
-0.25974,-0.10049,0.25788,-0.10911,-0.061754,0.038096,0.048589,0.053915
0.079934,-0.05048,-0.1616,-0.055852,-0.035792,-0.16094,-0.19224,0.10259
0.089378,0.019148,-0.033079,0.38747,0.067295,0.057024,-0.0072909,0.098303
-0.40726,0.32942,0.12667,0.09854,-0.064062,-0.058391,0.030155,-0.29433
0.64091,0.54431,0.10564,-0.24721,0.0086029,0.039198,0.080354,0.17525
-0.34087,-0.55694,-0.02675,0.088376,0.075132,0.13043,-0.040313,-0.10196
-0.17101,-0.86811,0.072721,-0.2742,-0.0046795,-0.058818,0.016266,0.045952
0.70511,0.87319,0.029002,0.47207,0.097271,0.0097821,-0.1587,0.13414
-0.20688,-0.48383,-0.42299,-0.062459,-0.07258,0.0074718,-0.058804,-0.010252
-0.42649,0.24741,0.13193,-0.38604,-0.10869,-0.066176,0.1047,-0.16214
0.54928,0.35675,0.054665,0.054313,0.035037,0.01529,0.21524,0.13771
-0.52651,-0.38004,-0.03601,0.66232,0.084522,-0.029128,-0.10878,0.020459
0.46747,0.1889,0.20492,-0.49457,-0.054331,-0.019189,0.15768,-0.030776
-0.27533,-0.14347,0.17644,0.18262,0.0091163,0.045826,-0.21029,-0.00094202
-0.36399,-0.16261,-0.5124,-0.4251,-0.068544,0.025964,-0.13295,-0.22571
0.031828,-0.36594,0.29337,0.033047,-0.0055244,-0.078367,0.10979,0.077261
0.19688,0.6692,-0.048796,0.1042,0.034658,0.068744,-0.051429,0.081527
0.11933,0.12119,0.060381,-0.0075366,0.021103,0.044894,0.024443,-0.070339
0.27109,0.221,-0.029667,0.18351,0.071003,0.036608,0.15752,0.10786
0.099329,-0.25508,0.046694,0.1316,0.012094,-0.13704,-0.035788,0.35188
-0.34097,-0.33599,-0.22678,-0.084406,-0.070383,0.093052,0.1621,-0.40001
0.11328,0.035815,0.087886,0.27798,0.11963,-0.031833,-0.21883,0.008585
-0.21151,0.099205,0.039122,-0.49995,-0.13731,0.0036148,-0.031089,-0.078962
-0.059294,-0.068768,0.004256,-0.25411,-0.083728,-0.034562,0.060904,-0.014961
-0.017292,-0.22465,-0.045267,0.20317,0.046161,-0.012416,-0.1612,0.1449
0.10142,0.048806,-0.052208,-0.002766,-0.012654,-0.068899,-0.0010343,-0.038032
0.24228,0.52927,0.13382,0.29252,0.068892,0.071307,0.066235,0.10683
-0.35203,-0.34924,0.15444,0.33921,0.065258,-0.043248,-0.051867,-0.21087
0.092469,0.11212,-0.1388,-0.48784,-0.085214,0.11195,0.18442,0.20297
0.01345,0.03269,-0.0047174,-0.079769,-0.0070711,0.021473,0.095252,-0.019774
