-0.1687,-0.38619,-0.1086,-0.093384,0.0079142,-0.012393,-0.037737,0.21773
0.01446,-0.24311,0.35553,-0.09192,-0.014251,0.048851,0.017806,0.05831
-0.0071736,-0.063372,-0.33959,-0.013416,-0.036918,-0.069369,0.067863,-0.12717
0.12916,0.21755,0.21196,0.071823,0.0023448,0.055331,0.20068,0.024162
0.34854,0.71999,0.18225,-0.0078799,-0.013586,-0.029784,-0.051135,0.13996
-0.15912,-0.19298,-0.17776,0.06032,0.056087,0.097298,0.054662,0.096421
-0.5099,-0.25985,-0.17889,-0.035642,-0.030599,-0.071426,-0.24116,-0.61494
0.3662,-0.54776,-0.1938,-0.060938,0.0078257,-0.052099,0.027456,0.39382
-0.13404,0.047047,-0.0089576,0.008267,-0.00035727,0.1389,0.083579,-0.124
0.43211,0.36928,0.33104,0.039442,0.0074088,-0.014893,0.079807,0.6305
0.41334,0.44968,0.15568,0.0014423,0.0076378,-0.10015,0.32561,-0.23169
-0.87255,-0.21365,0.04303,0.0035418,-0.01543,-0.01574,-0.70409,-0.083253
-0.26304,-0.0064593,-0.055473,0.029801,0.023961,0.042977,0.66291,0.0019084
-0.031853,-0.36955,-0.60397,-0.13902,-0.09312,-0.064203,-0.69583,-0.46924
0.54058,0.20982,0.36201,0.10584,0.10194,0.17915,0.37278,0.27117
-0.23189,0.18306,0.36124,0.029395,-0.031535,-0.1634,-0.28925,-0.65471
0.7222,-0.27806,-0.11845,0.052996,0.029911,0.049875,0.019808,0.5644
-0.75319,-0.10952,-0.095959,-0.073668,-0.049541,-0.078487,0.36013,-0.18971
-0.28427,-0.19139,-0.29168,-0.10061,-0.0040909,0.1162,-0.11655,1.0181
0.29823,0.37796,0.16187,0.081863,0.018029,-0.037787,0.21497,-0.45752
0.67039,-0.41447,-0.38934,-0.09595,-0.022059,0.10764,-0.61733,0.17282
0.086315,0.80759,0.58189,0.11674,0.039836,-0.12023,0.73166,-0.42892
-0.30826,0.12949,-0.075976,-0.037069,-0.0071895,-0.050624,-0.4342,-0.39137
-0.3107,-0.38082,0.087352,0.052689,0.032126,0.13552,0.77409,0.57825
-0.74666,-0.10191,0.076571,0.073966,0.0014158,-0.031651,-0.8472,-0.46118
0.40503,-0.13144,-0.37777,-0.051184,-0.029141,-0.05293,0.27423,-0.14503
0.71475,-0.23827,0.055495,-0.1119,-0.051839,-0.0146,-0.30106,1.0488
-0.6057,0.18497,-0.043496,-0.069408,-0.035491,0.028785,-0.11756,-0.59078
0.0060191,-0.19807,0.16992,0.075861,0.027691,-0.18003,-0.043869,-0.21955
0.24997,0.80113,0.32054,0.081158,0.082994,0.18793,0.32763,-0.094383
-0.36537,-0.29972,-0.40544,-0.0072959,0.020986,0.071136,0.085349,0.059113
0.82026,-0.58386,-0.43229,0.012925,-0.0099915,-0.037232,0.45752,0.64799
0.60402,0.92029,0.38501,0.0005404,0.0055913,0.2075,-0.6895,0.20418
-0.64086,-0.4096,0.54997,0.056621,-0.057293,-0.27194,0.2882,-0.43567
-0.57214,-0.46196,-0.44236,-0.1706,-0.065731,-0.052857,-0.64157,-0.48144
0.037648,0.24127,-0.0034389,0.069057,0.066474,-0.056427,0.14115,-0.28316
-0.48633,0.17727,-0.23979,-0.075453,-0.019691,0.022507,0.83116,0.23135
-0.25207,-0.24814,-0.12422,0.021653,0.012085,0.012049,0.30899,0.64193
0.44834,0.19796,0.99705,0.0018251,-0.056711,0.0051888,-0.49,-0.21452
0.32456,0.31016,-0.40759,0.061036,0.10203,0.40651,0.051501,-0.30721
0.74997,0.2421,0.03909,0.10585,0.0036155,-0.32555,-0.37484,0.41645
0.36171,-0.33666,-0.68927,-0.012263,0.09274,0.19656,-0.8301,0.19505
-0.74478,-0.64625,0.21921,-0.082802,-0.12354,-0.24897,0.33267,-0.21802
-0.42178,-0.014818,-0.36753,-0.051673,-0.013134,0.21828,0.24823,-0.08483
-0.42947,0.16832,0.58248,0.064968,-0.037467,-0.26229,0.32599,-0.43972
0.18226,-0.11024,0.31836,-0.05346,-0.024775,0.005046,0.052106,-0.080597
0.32458,0.83945,-0.45295,0.022818,0.11899,0.11603,0.87011,0.57991
-0.036257,0.15223,0.11203,-0.10422,-0.10551,-0.34788,-0.75777,-0.016863
0.17589,-0.41281,0.32129,0.0035313,0.036939,0.33608,-0.54597,0.55671
0.38908,-0.10517,-0.29431,0.11226,0.054994,0.27351,0.34196,-0.72386
-0.20259,-0.25296,0.30939,0.066042,-0.066296,-0.46976,0.33417,-0.75812
-0.092088,-0.090791,-0.4178,0.083584,0.12656,0.65529,-0.46942,0.28739
-0.91231,-0.11909,0.037704,-0.1871,-0.13205,-0.71776,0.55629,0.36857
0.33744,0.091024,-0.026364,0.0033396,0.016973,0.058961,-0.67144,0.18006
0.36961,0.7098,-0.32393,0.076067,0.11221,0.5854,-0.5441,0.72529
0.56139,-0.56238,0.54481,-0.086613,-0.11248,-0.59377,0.98016,-0.15158
0.1499,0.43463,-0.20378,0.054198,0.045583,0.4253,0.24297,-0.38908
-0.92415,-0.38198,0.36863,-0.15751,-0.12477,-0.37512,-0.39674,-0.36262
0.038172,0.44426,-0.42273,0.1304,0.079594,0.058094,0.13118,0.41457
0.10325,-0.19919,-0.08247,0.028096,0.0026114,0.075658,-0.6354,-0.67598
-0.35795,-0.18791,0.41503,-0.018357,0.0039851,-0.18195,0.20648,-0.49822
0.39199,0.52774,-0.83669,0.093182,0.16219,0.86382,1.0179,0.93896
0.10471,-1.0068,0.80717,-0.090156,-0.16311,-0.88783,-0.89783,-0.7312
-0.10294,-0.17308,0.25301,-0.037232,-0.026428,-0.068858,-0.083827,0.74077
0.60249,0.016085,-0.91711,0.017134,0.033207,0.39175,0.74291,0.42931
0.10728,0.67981,0.71145,-0.037133,-0.085894,-0.32602,-0.76042,0.084049
-0.58617,0.54374,0.12151,0.11944,0.13942,0.48847,0.57175,0.059509
-0.77247,0.18056,0.23287,-0.037437,0.01338,-0.14226,-0.030722,-0.5118
0.27797,-0.5609,-0.76011,0.022737,-0.05052,-0.047811,-0.4446,-0.52971
0.27257,-0.49281,-0.59021,-0.13808,-0.076372,-0.25339,-0.42631,0.3025
0.53732,-0.14164,0.57558,0.12827,0.13831,0.43461,0.63001,0.1989
0.079082,0.73034,-0.14506,-0.13916,-0.086684,-0.38353,0.1525,-0.28612
-0.48501,-0.11511,0.84484,0.10669,0.052996,0.1353,-0.27384,0.093774
-0.47471,0.30505,-0.48881,-0.079172,-0.098964,-0.15718,0.32568,0.13526
0.51724,-0.44417,0.023604,0.1005,0.051399,0.044558,-0.88917,-0.73037
0.27342,-0.56653,0.098189,0.083553,-0.0032557,0.28096,0.4879,0.87316
-0.25923,0.16058,-0.23756,-0.051522,-0.012258,-0.23535,0.78122,-0.12542
0.25714,0.49464,0.38607,0.039457,0.15799,0.45051,-0.68839,0.15216
-0.71435,-0.45329,-1.0223,-0.26793,-0.2261,-0.65979,0.13198,-0.15431
0.57875,0.36553,0.61454,0.13643,0.15655,0.41965,0.69328,0.89608
-0.36099,0.428,0.2005,-0.051276,-0.060652,-0.21614,-0.77826,-0.75794
0.054865,-0.31512,0.25568,0.021352,-0.10383,-0.33178,-0.35715,-0.66243
0.31284,0.036839,-0.075086,0.042421,0.066273,0.61241,0.62192,0.46601
-0.015145,-0.42304,0.080328,0.12152,0.074585,0.030663,-0.23234,-0.38356
0.34531,0.69303,-0.29491,0.00058274,-0.0088911,-0.38198,-0.68893,0.148
-0.45708,-0.23604,-0.20744,0.030478,0.12784,0.47542,0.61909,0.27378
-0.50079,-0.49554,-0.50518,-0.25068,-0.18766,-0.42144,-0.42545,-0.31521
0.010054,-0.081156,0.16898,0.062346,-0.04969,-0.29222,0.026258,0.3377
0.33934,-0.22219,0.33684,-0.023498,0.041367,0.38569,0.6378,0.27411
0.41417,0.32136,0.33964,-0.0010239,-0.00063818,0.3068,0.69847,0.18249
0.02017,1.1491,0.61788,0.2466,0.050794,-0.4515,-0.31436,-0.23456
-0.018516,-0.27251,-0.39898,-0.14014,0.039407,0.14903,0.047476,-0.072179
-0.20582,-0.48469,-0.9957,-0.16126,-0.1286,-0.17375,-0.84123,-0.62867
-0.091717,-0.59897,0.23547,0.081734,0.093496,0.28228,0.074094,-0.2095
-0.36528,-0.015276,0.54441,0.18262,0.11944,0.25831,-0.47711,0.3965
0.23169,0.53942,-0.37403,-0.16326,-0.19961,-0.66843,0.29426,0.48736
0.28751,0.097238,0.88705,0.083166,0.065618,0.36084,0.58921,0.36162
-0.53771,0.082238,-0.52874,-0.077989,-0.061747,-0.41973,-0.30798,-0.7837
0.45602,0.075898,-0.33374,0.017581,0.06664,0.40423,-0.13269,0.10758
0.070226,-0.37061,-0.18183,0.026586,0.091615,0.35697,0.23318,-0.0025122
0.18385,-0.16645,0.12052,0.0044011,-0.04878,-0.23206,-0.02967,0.42587
-0.2628,0.0059281,0.1445,-0.04811,-0.13495,-0.47829,0.38299,-0.35676
0.044245,0.057312,-0.20163,0.018412,0.060728,0.22187,0.0073518,0.32962
-0.26197,0.31922,0.22407,-0.10773,-0.046605,0.03459,-0.63104,-1.0697
-0.15893,-0.16766,0.22522,0.034875,-0.010722,-0.1633,-0.50151,0.31966
0.2342,0.11189,0.34401,0.16499,0.11421,0.23874,0.54941,0.90231
0.14106,0.31174,-0.46745,-0.038276,0.039116,0.11598,0.75977,-0.53576
0.010986,-0.27509,-0.010897,0.088063,0.0056147,-0.063613,-0.085951,0.063368
-0.051041,-0.20781,-0.25508,-0.12929,0.05957,0.35458,-0.00734,0.22509
0.21604,-0.14702,0.048327,-0.02773,-0.18305,-0.63157,-0.9911,-0.15068
0.058136,-0.096187,-0.16501,0.024333,0.0031503,0.061705,0.12678,0.28198
-0.53545,0.61444,0.94018,-0.06757,-0.054561,-0.036098,0.043985,-0.42594
0.16079,-0.28148,-0.58744,-0.01449,0.010563,0.081702,0.061636,-0.11882
0.17148,0.021248,0.10882,0.082469,0.14382,0.24278,0.88014,0.32368
-0.20312,0.039587,-0.032333,-0.018,-0.037276,-0.20124,-0.40208,-0.20878
0.034308,-0.39668,-0.13862,-0.010129,-0.03224,-0.031201,-0.7585,-0.16745
0.038269,0.39364,-0.50637,0.15401,0.081349,0.19872,0.58501,-0.056896
-0.2556,-0.026063,0.27321,-0.10283,-0.016329,0.012485,0.32967,0.35979
0.52468,0.19583,0.22642,-0.037896,-0.07487,-0.10502,-0.3335,-0.11294
-0.063439,-0.32439,-0.16884,-0.049326,-0.015836,-0.067333,-0.12123,-0.4564
-0.23839,-0.088336,0.7185,0.058215,0.0047516,-0.045695,0.44468,0.73321
0.15392,0.4801,-0.086006,-0.0045007,-0.0051493,-0.11751,-0.71125,-0.075321
-0.32809,-0.40224,-0.2562,-0.0112,0.040453,0.26487,0.74397,0.53591
0.6542,-0.17411,-0.52394,0.029969,0.032141,0.008428,-0.44729,-0.094925
-0.076151,0.71119,0.48629,0.064017,0.040109,0.043449,0.23419,-0.081294
-0.15584,-0.096708,0.11815,0.028248,-0.029546,-0.11403,-0.44706,-1.0401
-0.51642,-0.47803,-0.28382,-0.218,-0.098813,0.020589,-0.17766,-0.089411
-0.17306,-0.093194,-0.34209,0.075385,0.066661,0.048955,0.69208,0.54259
0.50963,-0.26634,0.28401,-0.021048,-0.056465,-0.2321,-0.75225,-0.2957
-0.027095,-0.05662,-0.14873,0.031971,-0.030519,-0.080575,0.09491,-0.18984
-0.099726,0.69386,0.43834,0.039175,0.082163,0.36248,0.95157,0.4856
0.30217,0.32805,-0.00041448,0.078444,0.031627,0.03385,-0.12564,0.29778
-0.10988,0.092508,-0.18239,-0.10081,-0.026043,-0.15349,0.10304,-0.27071
-0.032986,-0.3541,-0.17697,0.00050216,-0.013136,0.017838,-0.047031,0.53596
0.48219,0.013423,0.43032,0.13133,0.07754,-0.0083617,-0.59656,0.43471
-0.31924,-0.39596,-0.34484,-0.20935,-0.11412,-0.092884,-0.45446,-0.87901
-0.42645,-0.14742,0.26322,0.094878,0.028392,0.11475,0.45125,-0.07965
-0.11631,-0.15437,-0.19803,-0.034469,0.012395,-0.026646,-0.17711,-0.051844
0.25843,0.42305,0.022934,0.035615,0.0095864,0.13148,0.61796,-0.53564
0.57426,0.50533,0.20222,0.032419,0.0045362,-0.21476,-0.39731,0.73505
-0.52429,-0.51713,-0.67984,-0.11318,-0.080327,-0.040544,-0.41528,-0.43539
-0.16436,-0.18415,0.42018,0.092483,0.044889,0.1012,0.53614,0.48278
-0.20685,0.0014834,-0.22776,-0.059948,-0.0251,-0.076692,0.41204,-0.045899
0.1351,0.20571,0.63749,0.063773,0.07002,0.15401,-0.0069118,-0.092993
0.58393,0.49702,-0.14648,0.066295,0.057574,0.083604,-0.16982,-0.19839
-0.062541,-0.098666,-0.38497,-0.16118,-0.077593,0.0017658,-0.62265,-0.013311
0.013945,-0.47203,0.27844,0.076627,-0.030662,-0.31809,-0.10155,0.0024194
-0.27716,0.24297,-0.39565,-0.064683,-0.004965,0.10785,0.56941,0.25098
0.26117,-0.11823,0.55511,0.030868,-0.00099695,0.098912,0.14303,0.29308
-0.17409,-0.053947,-0.44645,0.080417,0.043031,-0.0023845,-0.26132,0.10649
0.045035,0.11271,0.84349,0.12124,0.016913,-0.087967,-0.45398,-0.48273
-0.40425,-0.35954,-0.69671,-0.20773,-0.033323,0.10656,0.61467,0.21763
-0.32628,0.064833,-0.092316,0.037544,0.024397,-0.060451,0.30006,-0.25521
0.51624,0.19715,-0.34988,-0.081062,-0.0057605,0.090025,-0.032902,0.27985
0.44056,0.005937,0.44113,0.006921,-0.038061,-0.13755,-0.6423,-0.69483
-0.19627,-0.29868,0.060836,0.12274,0.029217,0.085192,-0.18252,0.034125
0.071853,0.47605,-0.060834,-0.02112,0.0012733,-0.0066522,0.52977,0.54294
-0.27445,0.25481,0.20148,-0.063378,-0.066418,-0.11515,-0.79756,-0.65298
0.017249,0.13179,-0.07481,-0.0099263,0.038009,0.0030937,0.77769,0.51596
-0.052364,-0.19895,0.37315,0.062723,0.034198,0.20862,0.34496,0.43728
0.070405,-0.669,-0.88982,-0.07097,-0.030277,-0.16179,-0.68811,-0.38795
0.21128,-0.18611,0.057395,0.10487,0.063699,0.095392,0.59134,0.43598
-0.10974,0.31954,0.11721,-0.027501,-0.043279,-0.12154,-0.40627,0.044062
-0.19358,-0.018605,0.35332,-0.031884,-0.039121,-0.0085353,0.25903,-0.18773
-0.028836,0.32413,0.38209,0.058691,0.098912,0.43344,-0.28585,-0.39826
0.19301,0.26289,-0.2513,-0.0077281,-0.028454,-0.41388,0.11797,-0.55196
-0.015802,-0.3116,0.28806,-0.037595,-0.05484,0.034561,-0.071892,0.30425
0.084443,-0.28359,-0.61582,-0.079045,-0.035554,-0.14362,-0.090401,-0.31843
0.00019433,0.35936,-0.34092,0.054886,0.036883,0.090628,0.33048,0.79683
-0.057713,-0.2156,0.41872,0.051954,0.060908,0.22997,-0.054069,0.4694
-0.19749,-0.014235,-0.51907,-0.039995,-0.033496,-0.1545,-0.34634,-0.54437
0.028458,0.41055,0.3305,-0.10231,-0.06614,-0.054066,-0.39014,0.096189
0.029398,-0.53251,0.46121,0.11665,0.041687,-0.030454,0.36827,-0.051713
-0.019489,0.37163,-0.13397,-0.030066,0.024898,0.21367,0.67553,-0.14395
0.26765,0.10612,-0.23799,0.0211,0.0010583,-0.10289,-0.57675,0.09932
-0.12244,-0.18661,0.34693,0.11431,0.03282,-0.043041,0.092852,-0.26985
-0.063353,-0.38447,-0.32586,-0.13351,-0.051781,-0.05281,0.08419,-0.19236
0.27357,0.30136,0.37961,0.042453,0.0126,0.13252,0.56062,0.49201
-0.45554,-0.41679,-0.0042275,-0.0074032,-0.008809,-0.0035691,0.0056606,0.24791
0.11612,0.39235,-0.10158,0.0829,0.063272,0.069535,-0.43112,-0.25706
0.65244,0.064835,-0.5119,-0.22669,-0.12306,-0.16406,-0.51823,0.050901
-0.50248,-0.14437,0.3711,0.14136,0.033555,-0.13387,-0.67579,-0.53555
-0.31642,0.4611,-0.48365,-0.14116,0.017408,0.12942,0.61014,0.057793
-0.3427,-0.3563,0.77097,0.17612,0.016045,-0.037539,0.13752,0.069777
0.13093,0.49034,-0.63281,-0.046763,0.013958,0.061225,0.23606,0.95894
0.74564,-0.64884,0.10852,-0.0043285,-0.012135,0.019797,0.28823,-0.26007
0.53193,0.14581,0.26655,0.085429,0.07856,0.33808,0.59462,0.10133
-0.66099,-0.040985,0.048371,-0.02691,-0.088774,-0.37507,-0.57214,-0.82039
-0.32897,0.11234,0.10331,-0.13006,-0.052996,0.051515,-0.38892,-0.14379
0.023583,-0.0067021,-0.33672,-0.020815,-0.001377,-0.1797,-0.3557,-0.18814
-0.099772,-0.4131,-0.0036903,0.081949,0.042876,0.10283,0.26088,0.33802
0.30545,0.53778,0.40757,0.1154,0.079967,0.15709,0.60904,0.47587
0.54996,-0.41328,0.2721,-0.045884,-0.030587,-0.047446,-0.051261,0.29581
-0.56147,0.56146,-0.61978,-0.050812,-0.0074723,-0.033054,-0.574,-0.22896
-0.44886,-0.58573,0.11079,-0.048203,-0.061638,-0.11863,-0.098697,-0.44206
0.17233,-0.076322,-0.59912,-0.022672,0.0099743,0.0097221,-0.20713,0.20705
-0.18619,0.6778,0.12863,0.096032,0.066639,0.11088,0.20845,-0.2816
0.43239,-0.38703,0.54228,-0.027938,-0.063648,0.036894,0.67045,0.33187
0.40568,0.10775,-0.092813,-0.058464,-0.013861,-0.087515,0.21621,0.19281
-0.093388,0.24948,-0.2224,0.01244,0.0048561,0.017856,-0.70463,-0.060202
0.028431,0.16392,0.83109,0.18488,0.10943,0.20291,0.4882,0.12021
-0.4179,-0.45952,-0.89039,-0.1271,-0.036377,-0.1515,-0.83026,-0.60534
-0.23105,-0.35833,0.026903,-0.072031,-0.096929,-0.10193,0.3072,0.068799
0.040864,0.16361,0.27503,0.029597,0.075961,0.18618,0.44499,0.054034
0.42111,-0.0057754,0.30962,0.044827,-0.017835,-0.27214,-0.075863,-0.25069
-0.13611,0.4626,0.32774,0.059527,0.02797,0.10151,-0.26561,0.5394
-0.18333,-0.59207,-0.82438,-0.11375,-0.059839,-0.035563,-0.15732,-0.14462
0.48526,0.4822,-0.10327,-0.013901,0.008187,0.076001,0.11507,0.063435
-0.59651,-0.36754,0.1154,0.10936,0.037217,0.023767,-0.21468,-0.16155
0.034163,0.012879,-0.62737,-0.14209,-0.042578,0.043445,0.66546,0.56976
0.31536,0.19425,0.48476,0.067913,0.0348,0.018589,-0.46395,-0.34951
0.035149,-0.26622,0.25309,-0.026133,-0.066419,-0.14453,0.067823,0.072511
-0.1762,0.738,0.45478,0.11474,0.091167,0.10814,0.23569,-0.32195
0.45108,0.22375,0.26374,0.029345,0.0071985,-0.037014,0.029993,-0.033729
-0.16526,-0.28567,-0.40583,-0.079574,-0.006372,0.035931,-0.39462,0.37617
-0.12268,-0.3045,-0.41471,-0.056113,0.034226,0.091507,0.63294,-0.087268
-0.38467,-0.53021,-0.10871,0.0057753,-0.098072,-0.19123,-0.60561,-0.14165
-0.13184,-0.19321,-0.091295,0.035795,0.018354,-0.0076184,-0.24906,-0.23536
0.23805,0.46726,0.06611,-0.12206,-0.046114,-0.05235,0.15084,-0.095417
0.00030501,0.28832,0.33207,0.11071,0.013596,0.042829,0.14441,-0.096265
0.38386,-0.66222,-0.28508,-0.038945,0.010586,0.10728,0.10189,0.66036
0.28936,0.45065,0.7077,0.14019,0.08614,0.063966,0.15013,0.20323
-0.16441,0.50772,-0.47786,-0.00026975,-0.0013767,0.015078,0.14865,0.081319
-0.60158,-0.18382,0.064975,-0.10111,-0.048531,-0.17995,-0.31044,-0.37866
-0.037494,-0.071411,0.00048358,-0.029854,-0.024073,0.025228,0.012111,-0.6107
0.13714,0.017488,-0.42914,-0.029059,0.024821,0.098387,0.011362,0.45721
0.40648,-0.37411,0.14324,0.033751,-0.0039472,-0.00071754,0.17666,0.13889
-0.3078,0.0043567,0.44412,0.1193,0.037398,0.008043,0.06915,0.31936
0.11921,-0.0047965,0.082831,-0.11621,-0.04711,-0.14176,-0.66205,-0.63773
0.023509,0.159,-0.58139,-0.032072,-0.039242,-0.005128,0.07182,0.032466
0.0069938,0.33841,0.14649,0.090702,0.076351,0.082304,0.25186,0.027443
0.12497,-0.20012,-0.2028,-0.044454,0.010646,0.066704,-0.11663,0.43018
-0.1998,0.20321,0.51053,0.086245,0.0062078,-0.0037472,0.36976,-0.088532
-0.19292,-0.76528,0.12132,-0.071549,-0.045653,0.059997,0.51142,-0.044711
-0.47089,0.23995,-0.2467,-0.056616,-0.081543,-0.29521,-0.87001,-0.83787
0.59905,-0.0035095,-0.21191,-0.032838,0.0010532,0.017811,-0.26799,0.13818
0.25004,0.087943,-0.032974,0.070133,0.093576,0.16382,0.3684,0.64262
0.19827,0.3168,0.37579,0.09591,0.01683,-0.0057252,0.095904,0.23537
0.033846,-0.085729,-0.11021,0.020755,0.036475,0.17228,0.49349,0.36323
-0.41129,-0.38234,-0.35717,-0.14012,-0.066706,-0.1008,-0.3913,-0.22503
0.070433,0.83424,0.097116,0.05033,0.050151,0.024335,0.08385,-0.08617
-0.343,-0.34282,0.074198,-0.080128,-0.06722,-0.20468,-0.63982,-0.90852
0.11459,-0.086893,0.059222,0.06203,0.064395,0.12422,0.42862,0.29469
-0.13194,-0.38392,0.45852,0.039263,-0.048149,-0.029313,-0.13868,-0.14954
0.25819,0.14789,-0.36136,-0.070179,-0.06168,-0.095262,0.014449,0.22307
-0.068638,-0.39784,-0.29213,0.0073854,0.023688,0.13018,0.26181,0.060027
-0.028737,0.37002,0.61037,0.11601,0.052042,-0.0076889,-0.0062908,0.31555
0.46813,0.092798,-0.38109,-0.072147,0.00062593,-0.006797,-0.23571,-0.10283
0.12746,0.37232,-0.36791,-0.0021455,0.026563,0.08045,0.29043,0.32822
-0.53487,-0.057631,0.33852,-0.048834,-0.048948,-0.19698,-0.54121,-0.58151
-0.059642,-0.33129,-0.080244,-0.040297,-0.037661,0.037516,0.35664,0.029329
-0.03596,0.1666,-0.20007,0.038994,0.060914,0.13634,0.25622,0.16728
-0.13981,-0.06567,0.84832,0.13411,0.012578,0.021382,0.083863,-0.24986
0.3274,0.28359,-0.7383,-0.044369,0.004695,-0.081623,-0.29804,0.42019
0.079824,-0.80844,0.26725,-0.0046845,-0.0021822,0.013365,0.01147,-0.14241
0.15228,0.46509,0.083497,-0.1066,-0.071083,-0.047046,-0.2738,0.0080536
-0.38063,-0.4394,-0.095026,0.048049,0.047446,0.00091773,-0.017083,-0.21296
0.10369,0.48179,0.2385,-0.017345,0.024837,0.18697,0.21663,0.44006
-0.044057,0.075473,-0.64332,-0.0057279,-0.045412,-0.22422,-0.12064,-0.44105
0.27085,0.12443,0.18086,0.075487,0.00074157,0.017146,0.52571,0.027434
-0.026797,-0.30944,0.038868,-0.015332,0.022884,0.09915,-0.47648,0.26314
-0.44796,-0.041389,-0.17904,0.003704,-0.017665,-0.15668,0.19402,-0.69718
0.052368,0.40848,0.47937,-0.077703,-0.0032482,0.10282,-0.078913,0.4733
-0.04282,0.058386,-0.042236,0.053522,0.043151,0.019942,0.049527,-0.031623
0.37398,-0.51838,-0.10572,-0.086554,-0.089062,-0.1071,-0.25553,0.69945
0.080653,0.39366,0.53599,0.21327,0.13152,0.23027,0.3117,-0.41621
-0.18626,-0.38611,-0.34637,-0.11726,-0.084213,-0.16325,-0.16947,-0.15098
-0.17734,-0.090313,-0.56704,-0.062705,0.021284,0.00068621,-0.018119,-0.24802
0.17448,0.066328,0.12383,0.11872,0.033536,0.17387,0.2045,0.024487
0.15279,-0.13736,0.18881,-0.16735,-0.087016,-0.16092,0.062047,0.44416
0.086726,0.077498,-0.57218,-0.054572,0.026317,0.057227,-0.5304,-0.61034
-0.28071,0.91824,1.0243,0.22947,0.029355,-0.1104,0.10755,0.41145
-0.22902,-0.4022,-0.27616,0.097711,-9.2567e-05,-0.055086,0.34343,0.0056263
0.30017,-0.23601,-0.57279,-0.23226,-0.023133,0.12161,-0.01816,0.067495
0.33656,0.070046,0.54906,0.043278,0.030531,0.053078,0.36609,0.32941
-0.37653,-0.3481,0.44775,0.13466,0.0204,-0.040979,-0.38729,-0.45139
-0.47623,-0.0036694,-0.21484,-0.090949,-0.061088,-0.050068,-0.38055,-0.39884
0.018962,0.16073,-0.62863,-0.14075,-0.018283,-0.027842,-0.16896,-0.018192
0.051837,0.18026,0.30631,-0.013505,-0.014876,0.026479,0.25488,0.37394
0.9237,0.13116,-0.41006,0.019041,0.05887,0.15241,0.45308,0.25826
0.0044452,0.16243,0.21638,0.15404,0.093893,0.006333,0.1674,0.091802
-0.26776,-0.089719,0.82997,0.19787,-0.01112,-0.028966,0.10826,-0.27869
-0.23773,-0.66613,-1.1192,-0.2701,-0.12315,-0.18791,-0.68573,-0.35146
-0.04027,0.050659,0.43637,-0.030481,0.0079855,0.053052,-0.14452,0.70197
-0.30236,-0.24296,-0.33575,-0.091117,-0.055031,-0.055775,-0.22119,-0.53337
-0.025208,0.16425,0.081474,0.10203,0.031696,-0.021751,0.45947,-0.075079
0.58801,0.83251,0.92072,0.29783,0.13541,0.24929,0.55379,0.33197
-0.16478,0.17746,-0.71357,-0.18485,-0.048664,-0.078448,-0.36046,-0.18245
-0.18815,-0.53058,0.2257,-0.19124,-0.044264,-0.099026,-0.049925,0.050478
-0.027194,-0.049192,0.14353,0.02737,0.0075034,0.085122,-0.14123,0.47349
0.11614,-0.16269,-0.023636,0.18098,0.012262,-0.097709,-0.3785,-0.41518
-0.00015029,-0.11014,-0.46239,-0.082433,0.024026,0.12417,0.79114,-0.037985
0.15414,0.52611,-0.19195,-0.13001,-0.09844,-0.094794,-0.25064,-0.51921
0.17846,0.13475,0.44444,0.18713,0.097543,0.22822,0.41807,0.72899
-0.15648,-0.34475,-0.11126,0.0024961,-0.013222,-0.22022,-0.59175,-0.32974
-0.25183,-0.47599,-0.28123,-0.15962,-0.024392,0.052037,-0.21434,0.1044
-0.054932,0.096298,-0.095478,0.10003,0.0019194,-0.16499,0.047159,-0.067613
0.089494,-0.12009,0.46262,0.055593,-0.027408,-0.033482,-0.13783,0.054309
-0.029237,0.49459,0.70474,0.066979,0.052477,0.30064,0.65759,0.61917
-0.073988,0.12335,-0.76343,-0.21704,-0.05448,-0.19118,-0.29739,-0.7641
